0	-0.0187032	-0.00582242	1.87032E-06	5.82242E-07	0	0	0	
0.000166667	0.00666155	0.00241237	0.000350351	9.01828E-05	0	0	0	
0.000333333	-4.20918E-05	0.00788985	0.00106657	0.000260032	0	0	0	
0.0005	-0.0148108	-0.0184466	0.00192237	0.00045454	0	0	0	
0.000666667	0.0258043	0.0113669	0.00241235	0.000550559	0	0	0	
0.000833333	-0.0232211	-0.00349162	0.00248285	0.000506082	0	0	0	
0.001	0.0133544	-0.00611998	0.00234344	0.000395298	0	0	0	
0.00116667	0.0232114	0.013314	0.00221502	0.000320228	0	0	0	
0.00133333	-0.0718542	-0.0185731	0.00229107	0.000385278	0	0	0	
0.0015	0.0748453	0.019188	0.00250674	0.000574093	0	0	0	
0.00166667	-0.0688113	-0.00972784	0.00274937	0.000716848	0	0	0	
0.00183333	0.0792582	0.0089552	0.002887	0.000673556	0	0	0	
0.002	-0.0875359	-0.0190246	0.00299504	0.000515555	0	0	0	
0.00216667	0.0957641	0.0197715	0.00314646	0.000411771	0	0	0	
0.00233333	-0.0964734	-0.0184203	0.00329809	0.000463302	0	0	0	
0.0025	0.0864981	0.0190975	0.00344802	0.000561665	0	0	0	
0.00266667	-0.0765833	-0.00708888	0.00358035	0.0005763	0	0	0	
0.00283333	0.0755512	0.00689077	0.00364189	0.000573215	0	0	0	
0.003	-0.0805029	-0.00172904	0.00357878	0.000560717	0	0	0	
0.00316667	0.0870592	0.00617656	0.0034633	0.000543675	0	0	0	
0.00333333	-0.0852349	-0.00765132	0.0034001	0.000447906	0	0	0	
0.0035	0.0814946	0.00465635	0.00342502	0.000325388	0	0	0	
0.00366667	-0.0785197	-0.00440607	0.00343081	0.000260886	0	0	0	
0.00383333	0.0772114	0.00735232	0.00339725	0.000255822	0	0	0	
0.004	-0.0776236	-0.0117755	0.00336285	0.000302349	0	0	0	
0.00416667	0.0825378	0.0192321	0.00334913	0.000404593	0	0	0	
0.00433333	-0.0896747	-0.00637404	0.00331761	0.000517443	0	0	0	
0.0045	0.100963	-0.00670993	0.00330413	0.000645259	0	0	0	
0.00466667	-0.103153	0.00907752	0.00341292	0.000683686	0	0	0	
0.00483333	0.0775997	-0.000668758	0.00365244	0.000617172	0	0	0	
0.005	-0.0635835	-0.00620205	0.00373339	0.000476501	0	0	0	
0.00516667	0.0919017	0.0116302	0.00346662	0.000391823	0	0	0	
0.00533333	-0.109241	-0.015779	0.00308423	0.000399721	0	0	0	
0.0055	0.0952785	0.0202276	0.00302571	0.000475055	0	0	0	
0.00566667	-0.080173	-0.0194242	0.00323283	0.000616962	0	0	0	
0.00583333	0.0925093	0.0034202	0.00336327	0.000790496	0	0	0	
0.006	-0.0967096	0.00117206	0.003356	0.000896693	0	0	0	
0.00616667	0.073552	0.0026525	0.00340108	0.000853217	0	0	0	
0.00633333	-0.055391	-0.00185231	0.00338228	0.000711419	0	0	0	
0.0065	0.0828725	0.00696286	0.0031948	0.00054005	0	0	0	
0.00666667	-0.104573	-0.0159	0.00302647	0.000402913	0	0	0	
0.00683333	0.0960451	0.0249524	0.00316981	0.000379367	0	0	0	
0.007	-0.0811596	-0.0328066	0.00345046	0.000504504	0	0	0	
0.00716667	0.0808246	0.0252194	0.00351242	0.000730277	0	0	0	
0.00733333	-0.0923309	-0.00599393	0.00334545	0.000895977	0	0	0	
0.0075	0.0919223	-0.000848085	0.00318545	0.000918322	0	0	0	
0.00766667	-0.0815771	0.00458632	0.00318272	0.000796764	0	0	0	
0.00783333	0.0797884	0.00278849	0.00326823	0.000629503	0	0	0	
0.008	-0.0888346	-0.0163914	0.00332233	0.000499801	0	0	0	
0.00816667	0.09381	0.0327379	0.00334385	0.000502037	0	0	0	
0.00833333	-0.0926547	-0.0323183	0.00336066	0.000632683	0	0	0	
0.0085	0.0889489	0.0201168	0.0034073	0.000788818	0	0	0	
0.00866667	-0.0843567	-0.00991552	0.00345314	0.000859048	0	0	0	
0.00883333	0.0869272	0.0127723	0.00348072	0.000846544	0	0	0	
0.009	-0.0946022	0.00373727	0.00346178	0.000807383	0	0	0	
0.00916667	0.100726	0.004369	0.00342883	0.000749938	0	0	0	
0.00933333	-0.101289	-0.00269155	0.0034086	0.000610889	0	0	0	
0.0095	0.0980775	0.00842925	0.00342515	0.000456394	0	0	0	
0.00966667	-0.0938728	-0.0147572	0.00344905	0.000358015	0	0	0	
0.00983333	0.0911646	0.0256548	0.00346549	0.000389544	0	0	0	
0.01	-0.0890492	-0.0132176	0.00344748	0.000454341	0	0	0	
0.0101667	0.0932252	0.0166909	0.00341796	0.000595551	0	0	0	
0.0103333	-0.100278	0.0106209	0.00340249	0.000649304	0	0	0	
0.0105	0.100811	0.00360935	0.00342646	0.000618214	0	0	0	
0.0106667	-0.100259	-0.0174853	0.00346634	0.000488502	0	0	0	
0.0108333	0.100892	0.00642676	0.00349559	0.000399827	0	0	0	
0.011	-0.100681	0.000251498	0.00351283	0.000454378	0	0	0	
0.0111667	0.0987125	-0.000644704	0.00354135	0.000532887	0	0	0	
0.0113333	-0.0946203	0.012417	0.00354466	0.000652822	0	0	0	
0.0115	0.0969966	-0.0116909	0.00347971	0.000718925	0	0	0	
0.0116667	-0.106321	0.00940767	0.00338475	0.000625659	0	0	0	
0.0118333	0.108607	0.00819716	0.00337151	0.000407206	0	0	0	
0.012	-0.0989597	-0.0369701	0.00341116	0.000335401	0	0	0	
0.0121667	0.0951904	0.0283817	0.0034061	0.000565483	0	0	0	
0.0123333	-0.0959792	-0.0102047	0.00333547	0.000979542	0	0	0	
0.0125	0.0916669	-0.00430857	0.00330631	0.00115418	0	0	0	
0.0126667	-0.0874782	0.00636309	0.00331626	0.0009728	0	0	0	
0.0128333	0.0896267	0.0243387	0.00330037	0.000634031	0	0	0	
0.013	-0.0910208	-0.0342528	0.00325115	0.000462517	0	0	0	
0.0131667	0.0931515	0.0299759	0.0032663	0.000553187	0	0	0	
0.0133333	-0.0965683	-0.0183862	0.00335479	0.000712608	0	0	0	
0.0135	0.0972473	0.00756028	0.00347301	0.000761443	0	0	0	
0.0136667	-0.0942114	0.00419837	0.00353364	0.000714043	0	0	0	
0.0138333	0.0897712	-0.00182198	0.00353219	0.000585304	0	0	0	
0.014	-0.0935064	-0.000604375	0.00348649	0.000376571	0	0	0	
0.0141667	0.0986511	0.0186425	0.00344681	0.000236967	0	0	0	
0.0143333	-0.0958529	-0.0251441	0.00341765	0.000249639	0	0	0	
0.0145	0.0935457	0.0273212	0.00340576	0.000445222	0	0	0	
0.0146667	-0.0864094	-0.0194518	0.00334221	0.000628856	0	0	0	
0.0148333	0.0838518	0.0155055	0.00327702	0.000727885	0	0	0	
0.015	-0.0830637	-0.0118275	0.00323306	0.000712743	0	0	0	
0.0151667	0.093088	0.0120653	0.00330306	0.000667556	0	0	0	
0.0153333	-0.091758	-0.000826415	0.00338962	0.000641256	0	0	0	
0.0155	0.0894858	-0.000688004	0.00349231	0.00065026	0	0	0	
0.0156667	-0.0842075	-0.00405033	0.00351724	0.000588561	0	0	0	
0.0158333	0.0908374	0.0150113	0.00350869	0.000486563	0	0	0	
0.016	-0.0981896	-0.0178101	0.0034703	0.00041465	0	0	0	
0.0161667	0.105955	0.0137151	0.00350586	0.000460895	0	0	0	
0.0163333	-0.101505	-0.00581125	0.00353652	0.000535265	0	0	0	
0.0165	0.105878	0.0133822	0.00355089	0.000537886	0	0	0	
0.0166667	-0.107305	-0.0279358	0.00352908	0.000507967	0	0	0	
0.0168333	0.100265	0.0273269	0.00354476	0.00055288	0	0	0	
0.017	-0.0930653	-0.0136665	0.00351818	0.000719261	0	0	0	
0.0171667	0.0948747	0.00119845	0.00342653	0.00085135	0	0	0	
0.0173333	-0.0978526	0.00216631	0.00332689	0.000829673	0	0	0	
0.0175	0.0972645	-0.000583056	0.00330573	0.000681471	0	0	0	
0.0176667	-0.0970806	-0.00371019	0.00333265	0.000480172	0	0	0	
0.0178333	0.100973	0.0209822	0.00334178	0.000360168	0	0	0	
0.018	-0.102083	-0.0326227	0.00330009	0.000375721	0	0	0	
0.0181667	0.101112	0.0231907	0.00326751	0.000537358	0	0	0	
0.0183333	-0.0990678	-0.0111791	0.00327263	0.000723221	0	0	0	
0.0185	0.0997843	0.00897087	0.00332815	0.00076186	0	0	0	
0.0186667	-0.10063	-0.0112991	0.00336654	0.00068423	0	0	0	
0.0188333	0.102663	0.00106615	0.00337317	0.000658534	0	0	0	
0.019	-0.1023	0.0178283	0.00333795	0.000757597	0	0	0	
0.0191667	0.100188	-0.0131587	0.00332811	0.000791159	0	0	0	
0.0193333	-0.0992829	-0.0106261	0.00333312	0.000603295	0	0	0	
0.0195	0.1032	0.021292	0.00334914	0.000401116	0	0	0	
0.0196667	-0.102439	-0.0254123	0.00333347	0.00036561	0	0	0	
0.0198333	0.101388	0.0330207	0.00332661	0.000533585	0	0	0	
0.02	-0.0986382	-0.0310767	0.00330216	0.000764868	0	0	0	
0.0201667	0.100727	0.00931179	0.00330609	0.00100081	0	0	0	
0.0203333	-0.101281	0.0103955	0.00331036	0.00112585	0	0	0	
0.0205	0.101085	-0.0107867	0.00333768	0.000962144	0	0	0	
0.0206667	-0.100881	-0.00360845	0.00335246	0.000612783	0	0	0	
0.0208333	0.103164	0.0186183	0.00338342	0.000346907	0	0	0	
0.021	-0.101363	-0.0193099	0.00339034	0.000331101	0	0	0	
0.0211667	0.105579	0.0120803	0.00340417	0.00047347	0	0	0	
0.0213333	-0.104468	-0.0104234	0.00339337	0.000587236	0	0	0	
0.0215	0.102264	0.0109358	0.00339046	0.000604325	0	0	0	
0.0216667	-0.103416	-0.0119093	0.00336021	0.000556957	0	0	0	
0.0218333	0.104261	0.0164411	0.00334823	0.000499277	0	0	0	
0.022	-0.104755	-0.0234971	0.00336122	0.000498401	0	0	0	
0.0221667	0.107247	0.0238737	0.00339542	0.000571131	0	0	0	
0.0223333	-0.105093	-0.0176856	0.00339939	0.00067176	0	0	0	
0.0225	0.104376	0.00828942	0.00340874	0.000726584	0	0	0	
0.0226667	-0.104257	-0.00144125	0.00340223	0.00069486	0	0	0	
0.0228333	0.105396	0.000943651	0.00340274	0.000598873	0	0	0	
0.023	-0.107846	-0.00701275	0.00339423	0.000480591	0	0	0	
0.0231667	0.103998	0.0143789	0.003385	0.000393534	0	0	0	
0.0233333	-0.105255	-0.0197661	0.00336604	0.000375333	0	0	0	
0.0235	0.108012	0.0177894	0.00335738	0.000442752	0	0	0	
0.0236667	-0.105961	-0.0121306	0.0033528	0.000525079	0	0	0	
0.0238333	0.0999596	0.0146381	0.0033463	0.000569655	0	0	0	
0.024	-0.0986771	-0.0154405	0.00329731	0.000569828	0	0	0	
0.0241667	0.103288	0.0152555	0.00324987	0.000582638	0	0	0	
0.0243333	-0.114148	-0.0151586	0.00325385	0.00059712	0	0	0	
0.0245	0.116292	0.0137058	0.003328	0.000603701	0	0	0	
0.0246667	-0.109106	-0.00842176	0.00343103	0.000600734	0	0	0	
0.0248333	0.0982657	0.00654553	0.00348661	0.000583948	0	0	0	
0.025	-0.0966869	-0.00978946	0.00344987	0.000524648	0	0	0	
0.0251667	0.104113	0.0164557	0.00337208	0.000464405	0	0	0	
0.0253333	-0.107567	-0.0182621	0.00329331	0.000461206	0	0	0	
0.0255	0.108683	0.0139399	0.0032607	0.000518184	0	0	0	
0.0256667	-0.109912	-0.0127217	0.00327175	0.000577491	0	0	0	
0.0258333	0.110031	0.0115486	0.00334292	0.000597609	0	0	0	
0.026	-0.109414	-0.00827475	0.00343204	0.000603819	0	0	0	
0.0261667	0.110798	0.00612388	0.00348143	0.000595673	0	0	0	
0.0263333	-0.111561	-0.0102336	0.00343341	0.000540404	0	0	0	
0.0265	0.114043	0.0219758	0.00335534	0.000479305	0	0	0	
0.0266667	-0.115525	-0.0253128	0.00330261	0.000497295	0	0	0	
0.0268333	0.11236	0.0108766	0.00334292	0.00060821	0	0	0	
0.027	-0.106702	-0.00409053	0.00341354	0.000653838	0	0	0	
0.0271667	0.105679	0.0156542	0.00342801	0.000566243	0	0	0	
0.0273333	-0.109937	-0.0204984	0.00335079	0.000504517	0	0	0	
0.0275	0.110487	0.0150016	0.00327175	0.000546492	0	0	0	
0.0276667	-0.107336	-0.0175216	0.00326448	0.000600474	0	0	0	
0.0278333	0.106137	0.0243734	0.00331911	0.000589721	0	0	0	
0.028	-0.109057	-0.0149393	0.0033607	0.000599192	0	0	0	
0.0281667	0.105981	0.000954902	0.00337774	0.00068472	0	0	0	
0.0283333	-0.107064	-0.00488792	0.00338584	0.00067491	0	0	0	
0.0285	0.111092	0.0133431	0.00337561	0.000549637	0	0	0	
0.0286667	-0.122603	-0.0183801	0.00337417	0.000431727	0	0	0	
0.0288333	0.1207	0.0151283	0.00340123	0.00041919	0	0	0	
0.029	-0.112483	-0.0127349	0.00343298	0.000458875	0	0	0	
0.0291667	0.108001	0.0153824	0.00343377	0.000462493	0	0	0	
0.0293333	-0.110963	-0.0193934	0.00340336	0.000492843	0	0	0	
0.0295	0.10742	0.0174004	0.00337232	0.000575119	0	0	0	
0.0296667	-0.110632	-0.0125681	0.0033417	0.000644602	0	0	0	
0.0298333	0.115043	0.00835245	0.00333045	0.000646434	0	0	0	
0.03	-0.112518	-0.00696248	0.00335251	0.000596799	0	0	0	
0.0301667	0.106405	0.00942379	0.00339295	0.000539477	0	0	0	
0.0303333	-0.108749	-0.0141319	0.00339266	0.000483678	0	0	0	
0.0305	0.113632	0.0189417	0.00338558	0.000457525	0	0	0	
0.0306667	-0.112352	-0.0196042	0.00341006	0.000476543	0	0	0	
0.0308333	0.109337	0.0165697	0.00345054	0.000544003	0	0	0	
0.031	-0.111634	-0.0130109	0.0034372	0.00060034	0	0	0	
0.0311667	0.11608	0.00912622	0.00337985	0.000614025	0	0	0	
0.0313333	-0.11909	-0.00546923	0.00336029	0.000556948	0	0	0	
0.0315	0.118399	0.00816402	0.0034096	0.000468092	0	0	0	
0.0316667	-0.117173	-0.0150593	0.00346243	0.000413411	0	0	0	
0.0318333	0.117447	0.0159309	0.00347736	0.000422755	0	0	0	
0.032	-0.115393	-0.01854	0.00346728	0.000488402	0	0	0	
0.0321667	0.113885	0.0164279	0.0034514	0.000563563	0	0	0	
0.0323333	-0.116068	-0.0114958	0.00342239	0.00061367	0	0	0	
0.0325	0.116088	0.00959126	0.00338881	0.000615763	0	0	0	
0.0326667	-0.114211	-0.0107382	0.00336272	0.000575979	0	0	0	
0.0328333	0.116293	0.0109609	0.00336941	0.000526735	0	0	0	
0.033	-0.115069	-0.0146335	0.00338111	0.000486835	0	0	0	
0.0331667	0.111679	0.0190843	0.00340003	0.000480811	0	0	0	
0.0333333	-0.109172	-0.0176004	0.00336564	0.000518747	0	0	0	
0.0335	0.116543	0.0113394	0.00332643	0.000583407	0	0	0	
0.0336667	-0.125006	-0.00775905	0.00333373	0.000591046	0	0	0	
0.0338333	0.123262	0.012349	0.00343508	0.00053897	0	0	0	
0.034	-0.114396	-0.0131465	0.00351394	0.000489691	0	0	0	
0.0341667	0.111504	0.0109045	0.00349697	0.000501037	0	0	0	
0.0343333	-0.115834	-0.0110735	0.00340283	0.000519853	0	0	0	
0.0345	0.11944	0.0135943	0.00337146	0.000508815	0	0	0	
0.0346667	-0.116013	-0.0116207	0.00339252	0.000494089	0	0	0	
0.0348333	0.115928	0.0116262	0.00341287	0.000518655	0	0	0	
0.035	-0.122795	-0.0136832	0.00339921	0.00054519	0	0	0	
0.0351667	0.12739	0.0147291	0.0034268	0.000556766	0	0	0	
0.0353333	-0.124233	-0.0129305	0.00348582	0.000559835	0	0	0	
0.0355	0.11819	0.0109682	0.00349849	0.000568204	0	0	0	
0.0356667	-0.116143	-0.0106027	0.00342516	0.000565374	0	0	0	
0.0358333	0.120116	0.0127896	0.00337324	0.000553966	0	0	0	
0.036	-0.118069	-0.0160507	0.00337899	0.000551869	0	0	0	
0.0361667	0.116613	0.0148368	0.00339226	0.000568649	0	0	0	
0.0363333	-0.120915	-0.0105609	0.0033273	0.000590347	0	0	0	
0.0365	0.121382	0.00382088	0.00326831	0.00057343	0	0	0	
0.0366667	-0.108682	-0.0081116	0.00328034	0.000498139	0	0	0	
0.0368333	0.109525	0.0144063	0.00338803	0.000411631	0	0	0	
0.037	-0.0930719	-0.0197809	0.00336417	0.000405097	0	0	0	
0.0371667	0.0993761	0.0287884	0.00328111	0.000515344	0	0	0	
0.0373333	-0.118909	-0.0335403	0.00314808	0.000700183	0	0	0	
0.0375	0.148947	0.0133107	0.00323727	0.000897325	0	0	0	
0.0376667	-0.147638	0.0157792	0.00340836	0.00111882	0	0	0	
0.0378333	0.12922	-0.0295074	0.00370867	0.00112663	0	0	0	
0.038	-0.0927437	0.00916734	0.00379722	0.00086597	0	0	0	
0.0381667	0.10665	0.022748	0.00371737	0.00052337	0	0	0	
0.0383333	-0.123094	-0.040955	0.00348892	0.000425608	0	0	0	
0.0385	0.127159	0.0499797	0.00339566	0.000611738	0	0	0	
0.0386667	-0.122512	-0.0504511	0.00331887	0.000857575	0	0	0	
0.0388333	0.135282	0.0286876	0.00331158	0.00108782	0	0	0	
0.039	-0.133199	0.00395896	0.00335127	0.00125092	0	0	0	
0.0391667	0.117968	-0.0171554	0.00348891	0.00121076	0	0	0	
0.0393333	-0.113631	0.0069942	0.00350291	0.000917589	0	0	0	
0.0395	0.119356	0.00834736	0.00339665	0.000513287	0	0	0	
0.0396667	-0.12396	-0.0172174	0.00330421	0.000284682	0	0	0	
0.0398333	0.122176	0.0194697	0.00331807	0.000282761	0	0	0	
0.04	-0.115479	-0.0202684	0.00336159	0.000430523	0	0	0	
0.0401667	0.111068	0.015813	0.00337585	0.000552345	0	0	0	
0.0403333	-0.115084	-0.0130592	0.00333804	0.000631366	0	0	0	
0.0405	0.122987	0.00977215	0.00332991	0.000644215	0	0	0	
0.0406667	-0.127505	-0.0102701	0.00337158	0.000619162	0	0	0	
0.0408333	0.123971	0.0106157	0.00344616	0.000557203	0	0	0	
0.041	-0.118973	-0.0152131	0.00346286	0.000504915	0	0	0	
0.0411667	0.121859	0.0168827	0.0034269	0.000486223	0	0	0	
0.0413333	-0.128961	-0.0173608	0.00340057	0.00051341	0	0	0	
0.0415	0.129474	0.0174915	0.00345405	0.00055361	0	0	0	
0.0416667	-0.122755	-0.0186915	0.00350607	0.000587337	0	0	0	
0.0418333	0.11828	0.0150589	0.00349631	0.000598406	0	0	0	
0.042	-0.120012	-0.0106206	0.00340795	0.000599891	0	0	0	
0.0421667	0.124185	0.0115787	0.00334672	0.000595063	0	0	0	
0.0423333	-0.127403	-0.0107582	0.00333536	0.000581908	0	0	0	
0.0425	0.126054	0.0112179	0.00336054	0.000564831	0	0	0	
0.0426667	-0.123648	-0.0136078	0.00337586	0.000530025	0	0	0	
0.0428333	0.118194	0.0162227	0.00337584	0.000488362	0	0	0	
0.043	-0.115955	-0.0172111	0.00333553	0.000463109	0	0	0	
0.0431667	0.117884	0.01671	0.00330277	0.000494506	0	0	0	
0.0433333	-0.117927	-0.0130781	0.00329208	0.000551155	0	0	0	
0.0435	0.11784	0.014006	0.00333324	0.000565941	0	0	0	
0.0436667	-0.120136	-0.023446	0.00334041	0.000534827	0	0	0	
0.0438333	0.117121	0.0353203	0.00330384	0.000556129	0	0	0	
0.044	-0.114881	-0.0261729	0.00325988	0.000680556	0	0	0	
0.0441667	0.117062	0.0036367	0.00326582	0.000937204	0	0	0	
0.0443333	-0.126917	0.0239296	0.00329601	0.00109381	0	0	0	
0.0445	0.13471	-0.0162642	0.00333754	0.000984208	0	0	0	
0.0446667	-0.12864	-0.00836396	0.00333027	0.000619767	0	0	0	
0.0448333	0.118653	0.0272538	0.0033186	0.00035909	0	0	0	
0.045	-0.117403	-0.0315678	0.00330046	0.00035741	0	0	0	
0.0451667	0.119023	0.0417393	0.00332553	0.00055831	0	0	0	
0.0453333	-0.117388	-0.0350231	0.00334271	0.000782152	0	0	0	
0.0455	0.113113	0.0144106	0.00333118	0.00100197	0	0	0	
0.0456667	-0.114188	0.00460342	0.00325972	0.00111049	0	0	0	
0.0458333	0.121219	-0.00236821	0.0032227	0.000950168	0	0	0	
0.046	-0.123311	-0.00966968	0.00323697	0.000635027	0	0	0	
0.0461667	0.121291	0.018001	0.0033103	0.000423031	0	0	0	
0.0463333	-0.122459	-0.0129673	0.00333942	0.000447211	0	0	0	
0.0465	0.125729	0.00448609	0.00334143	0.000548588	0	0	0	
0.0466667	-0.127708	-0.00596701	0.00335134	0.000524034	0	0	0	
0.0468333	0.126532	0.0155184	0.0033947	0.000430101	0	0	0	
0.047	-0.122957	-0.0209386	0.00339714	0.000385525	0	0	0	
0.0471667	0.122377	0.0224661	0.00335601	0.000442535	0	0	0	
0.0473333	-0.122611	-0.0223055	0.00330145	0.00053033	0	0	0	
0.0475	0.12493	0.0216486	0.00330627	0.000601245	0	0	0	
0.0476667	-0.128944	-0.0165565	0.00336725	0.000658982	0	0	0	
0.0478333	0.130626	0.00765924	0.0034444	0.000716373	0	0	0	
0.048	-0.128854	-0.001792	0.00347302	0.000730427	0	0	0	
0.0481667	0.126462	0.00251294	0.00345132	0.000648756	0	0	0	
0.0483333	-0.126635	-0.0078724	0.00341116	0.000493664	0	0	0	
0.0485	0.131554	0.0158852	0.00341346	0.000372804	0	0	0	
0.0486667	-0.130621	-0.0206689	0.00341916	0.000358665	0	0	0	
0.0488333	0.128182	0.021351	0.00343019	0.000440826	0	0	0	
0.049	-0.12324	-0.0226086	0.00339257	0.000557552	0	0	0	
0.0491667	0.123181	0.0201221	0.00335564	0.000639354	0	0	0	
0.0493333	-0.129845	-0.0155793	0.00333214	0.000660515	0	0	0	
0.0495	0.133839	0.0143092	0.0033659	0.000637478	0	0	0	
0.0496667	-0.129277	-0.0115553	0.00339426	0.000594414	0	0	0	
0.0498333	0.129049	0.0114472	0.00341962	0.000566374	0	0	0	
0.05	-0.127251	-0.012109	0.0034085	0.000528	0	0	0	
0.0501667	0.127725	0.0179692	0.00341718	0.000488654	0	0	0	
0.0503333	-0.127693	-0.0222072	0.00340791	0.000458717	0	0	0	
0.0505	0.127167	0.0230364	0.00339447	0.000490801	0	0	0	
0.0506667	-0.125441	-0.0164648	0.00335344	0.000550434	0	0	0	
0.0508333	0.127324	0.0188974	0.00333545	0.000587501	0	0	0	
0.051	-0.129249	-0.0195026	0.00332897	0.00058247	0	0	0	
0.0511667	0.129196	0.0127979	0.00335933	0.000600349	0	0	0	
0.0513333	-0.127113	-0.00478139	0.00336942	0.000613949	0	0	0	
0.0515	0.128688	0.0107363	0.00339441	0.00055817	0	0	0	
0.0516667	-0.129312	-0.0175701	0.00340411	0.000472237	0	0	0	
0.0518333	0.124897	0.0185864	0.00341591	0.000444264	0	0	0	
0.052	-0.125657	-0.0173664	0.0033671	0.000494052	0	0	0	
0.0521667	0.132416	0.0199208	0.00331657	0.000540412	0	0	0	
0.0523333	-0.136546	-0.0195971	0.0033037	0.00055478	0	0	0	
0.0525	0.130282	0.0159443	0.00337526	0.000558195	0	0	0	
0.0526667	-0.123297	-0.013063	0.00341269	0.000549321	0	0	0	
0.0528333	0.121712	0.0158416	0.00339229	0.000525532	0	0	0	
0.053	-0.123245	-0.0187101	0.00333052	0.000512127	0	0	0	
0.0531667	0.124277	0.0157159	0.00331568	0.000526812	0	0	0	
0.0533333	-0.127502	-0.0108411	0.00331034	0.000535823	0	0	0	
0.0535	0.129625	0.0134074	0.00330679	0.000520276	0	0	0	
0.0536667	-0.134078	-0.0169938	0.00331042	0.000504613	0	0	0	
0.0538333	0.141393	0.0183264	0.00338917	0.000527427	0	0	0	
0.054	-0.144857	-0.0180329	0.00350987	0.00056582	0	0	0	
0.0541667	0.137918	0.0180503	0.00362651	0.000596866	0	0	0	
0.0543333	-0.123517	-0.0140218	0.0036496	0.0005918	0	0	0	
0.0545	0.105647	0.0110695	0.00355798	0.000547662	0	0	0	
0.0546667	-0.0980042	-0.0160819	0.00329776	0.000487763	0	0	0	
0.0548333	0.114178	0.0221868	0.00300559	0.000470818	0	0	0	
0.055	-0.142612	-0.0247159	0.00284802	0.000527782	0	0	0	
0.0551667	0.164551	0.0202581	0.00302745	0.000595521	0	0	0	
0.0553333	-0.155193	-0.0148273	0.00336984	0.000613523	0	0	0	
0.0555	0.133987	0.0105405	0.00365295	0.000578715	0	0	0	
0.0556667	-0.116901	-0.0122101	0.00365982	0.000543673	0	0	0	
0.0558333	0.109248	0.014761	0.00352963	0.000519157	0	0	0	
0.056	-0.111044	-0.0190186	0.00336203	0.000508162	0	0	0	
0.0561667	0.127242	0.0175938	0.00326413	0.000498	0	0	0	
0.0563333	-0.138689	-0.0159995	0.00321745	0.000506472	0	0	0	
0.0565	0.133952	0.0156498	0.0032619	0.000514472	0	0	0	
0.0566667	-0.119358	-0.0167555	0.00332379	0.000515414	0	0	0	
0.0568333	0.118703	0.0171782	0.00333385	0.000513166	0	0	0	
0.057	-0.13046	-0.0167864	0.00328006	0.000521128	0	0	0	
0.0571667	0.135075	0.0149745	0.00326675	0.000526971	0	0	0	
0.0573333	-0.132211	-0.0156186	0.00330193	0.000520676	0	0	0	
0.0575	0.128068	0.0176539	0.00335005	0.00051316	0	0	0	
0.0576667	-0.129559	-0.0151459	0.00335636	0.000526485	0	0	0	
0.0578333	0.13518	0.0116939	0.00338104	0.000553858	0	0	0	
0.058	-0.135323	-0.0103667	0.00339839	0.000547262	0	0	0	
0.0581667	0.131219	0.0108982	0.00341153	0.00050711	0	0	0	
0.0583333	-0.129722	-0.0134762	0.00337949	0.0004618	0	0	0	
0.0585	0.132042	0.0147847	0.00337234	0.000418888	0	0	0	
0.0586667	-0.134582	-0.0246916	0.00337545	0.000394041	0	0	0	
0.0588333	0.138341	0.0408902	0.00341197	0.000474274	0	0	0	
0.059	-0.135095	-0.0465248	0.0034278	0.000626274	0	0	0	
0.0591667	0.128305	0.0365956	0.0034369	0.000859316	0	0	0	
0.0593333	-0.125777	-0.0076396	0.0033919	0.00101863	0	0	0	
0.0595	0.130576	-0.0103057	0.00334933	0.0010567	0	0	0	
0.0596667	-0.133473	0.0108102	0.00332829	0.000818587	0	0	0	
0.0598333	0.135634	0.00669086	0.00336556	0.000481229	0	0	0	
0.06	-0.138279	-0.0249212	0.00339242	0.000270243	0	0	0	
0.0601667	0.138051	0.0333603	0.00341884	0.000347481	0	0	0	
0.0603333	-0.134595	-0.0274044	0.00342176	0.000543751	0	0	0	
0.0605	0.130671	0.0199154	0.00343586	0.000724381	0	0	0	
0.0606667	-0.129551	-0.00746441	0.00339244	0.000761799	0	0	0	
0.0608333	0.132352	0.00572097	0.00334697	0.000645832	0	0	0	
0.061	-0.136392	-0.0202764	0.00330987	0.000473489	0	0	0	
0.0611667	0.135716	0.0354858	0.00335249	0.000427076	0	0	0	
0.0613333	-0.135021	-0.038921	0.00338858	0.000557417	0	0	0	
0.0615	0.135375	0.0186899	0.00340543	0.000748174	0	0	0	
0.0616667	-0.141524	0.0015974	0.00338916	0.000823344	0	0	0	
0.0618333	0.146553	0.000201664	0.00345608	0.000591782	0	0	0	
0.062	-0.138625	-0.0304035	0.0035384	0.000436341	0	0	0	
0.0621667	0.127533	0.0472483	0.00358009	0.0004017	0	0	0	
0.0623333	-0.120624	-0.029456	0.00348776	0.000720122	0	0	0	
0.0625	0.123712	0.008583	0.00333957	0.000894478	0	0	0	
0.0626667	-0.137848	-0.00966129	0.00322387	0.000889737	0	0	0	
0.0628333	0.151939	0.0058541	0.00323702	0.00072023	0	0	0	
0.063	-0.143783	0.00416368	0.00333391	0.000572973	0	0	0	
0.0631667	0.141993	0.000716662	0.00343939	0.000446255	0	0	0	
0.0633333	-0.142106	-0.0165466	0.00349085	0.000361843	0	0	0	
0.0635	0.133752	0.0372953	0.00351804	0.00036289	0	0	0	
0.0636667	-0.120341	-0.0359556	0.00348671	0.000507479	0	0	0	
0.0638333	0.129142	0.0329392	0.00337329	0.000670093	0	0	0	
0.064	-0.143456	-0.025361	0.00327192	0.000748109	0	0	0	
0.0641667	0.145807	0.0293023	0.00329534	0.00074041	0	0	0	
0.0643333	-0.131586	-0.027548	0.00341813	0.000748196	0	0	0	
0.0645	0.12567	0.015894	0.00347333	0.000776437	0	0	0	
0.0646667	-0.131382	-2.72335E-05	0.00341613	0.000762198	0	0	0	
0.0648333	0.143496	0.0115944	0.00336982	0.000635096	0	0	0	
0.065	-0.139654	-0.0176695	0.00336817	0.000486926	0	0	0	
0.0651667	0.137968	0.0151776	0.0034135	0.000398029	0	0	0	
0.0653333	-0.14004	-0.0140112	0.00341241	0.000367374	0	0	0	
0.0655	0.146181	0.021642	0.00347293	0.000375485	0	0	0	
0.0656667	-0.136806	-0.0322989	0.00347696	0.000413783	0	0	0	
0.0658333	0.137926	0.0389463	0.003497	0.000534618	0	0	0	
0.066	-0.12811	-0.0321131	0.00339756	0.000639588	0	0	0	
0.0661667	0.133349	0.0126179	0.00335239	0.000768207	0	0	0	
0.0663333	-0.139381	0.00870504	0.00326151	0.000882185	0	0	0	
0.0665	0.155906	-0.0134549	0.00332722	0.000787389	0	0	0	
0.0666667	-0.146511	-0.0218557	0.0033937	0.000587775	0	0	0	
0.0668333	0.137069	0.0525091	0.0035379	0.000492749	0	0	0	
0.067	-0.127139	-0.0323444	0.00350503	0.000627044	0	0	0	
0.0671667	0.136678	0.00838271	0.00346818	0.000916225	0	0	0	
0.0673333	-0.134862	-0.00105813	0.0033591	0.00100096	0	0	0	
0.0675	0.135549	-0.00942493	0.00335055	0.000942765	0	0	0	
0.0676667	-0.13587	0.00514241	0.00331103	0.000678362	0	0	0	
0.0678333	0.141555	0.0103879	0.00331321	0.000452914	0	0	0	
0.068	-0.14661	-0.0322891	0.00332487	0.000384212	0	0	0	
0.0681667	0.141945	0.037936	0.00340883	0.000517466	0	0	0	
0.0683333	-0.135499	-0.0178257	0.00343519	0.00074495	0	0	0	
0.0685	0.138041	0.018963	0.00342579	0.000817931	0	0	0	
0.0686667	-0.143799	-0.0373523	0.00336929	0.000771586	0	0	0	
0.0688333	0.141832	0.0336642	0.00339989	0.000688886	0	0	0	
0.069	-0.136393	-0.0312134	0.00342609	0.000745909	0	0	0	
0.0691667	0.128764	0.0258433	0.00342194	0.000868454	0	0	0	
0.0693333	-0.13752	-0.00499764	0.0033447	0.000968936	0	0	0	
0.0695	0.144105	-0.0150874	0.00331107	0.000974803	0	0	0	
0.0696667	-0.142171	0.00294152	0.00332097	0.000702184	0	0	0	
0.0698333	0.139663	0.0239237	0.00340056	0.000538085	0	0	0	
0.07	-0.135603	-0.0504917	0.00340495	0.000467142	0	0	0	
0.0701667	0.137944	0.0423165	0.00340783	0.000750776	0	0	0	
0.0703333	-0.140209	-0.0192642	0.00335436	0.000931742	0	0	0	
0.0705	0.14005	0.00802781	0.00337647	0.000991	0	0	0	
0.0706667	-0.134497	-0.0172208	0.00337439	0.000829112	0	0	0	
0.0708333	0.138358	0.0280381	0.00340104	0.000643361	0	0	0	
0.071	-0.14455	-0.0328593	0.00339628	0.000585462	0	0	0	
0.0711667	0.137603	0.0293727	0.00344998	0.000635335	0	0	0	
0.0713333	-0.128909	-0.025956	0.00345569	0.00067987	0	0	0	
0.0715	0.139624	0.019896	0.00341766	0.000687156	0	0	0	
0.0716667	-0.166116	-0.0118117	0.00334328	0.000648199	0	0	0	
0.0718333	0.177311	0.00965796	0.00351223	0.000553972	0	0	0	
0.072	-0.157449	-0.00268271	0.00377757	0.000415663	0	0	0	
0.0721667	0.138632	0.0106261	0.00397322	0.000349928	0	0	0	
0.0723333	-0.144363	-0.0160854	0.00386226	0.000345258	0	0	0	
0.0725	0.14142	0.0207625	0.00362915	0.000415631	0	0	0	
0.0726667	-0.147134	-0.016233	0.00342625	0.000471108	0	0	0	
0.0728333	0.158588	0.0108641	0.00339258	0.000508335	0	0	0	
0.073	-0.168881	-0.0097474	0.00344114	0.000467034	0	0	0	
0.0731667	0.167544	0.0288347	0.0035956	0.000467025	0	0	0	
0.0733333	-0.152742	-0.0239346	0.00369833	0.000484516	0	0	0	
0.0735	0.125599	0.0185065	0.00365273	0.000571262	0	0	0	
0.0736667	-0.133949	-0.0169459	0.00345346	0.000557139	0	0	0	
0.0738333	0.145432	0.01401	0.00324118	0.000526039	0	0	0	
0.074	-0.152191	-0.00372463	0.00322999	0.00050643	0	0	0	
0.0741667	0.145334	-0.00368632	0.0033468	0.000505799	0	0	0	
0.0743333	-0.142532	-0.00408453	0.00346633	0.000408394	0	0	0	
0.0745	0.137228	0.0221797	0.00345459	0.000309263	0	0	0	
0.0746667	-0.144319	-0.0263456	0.00339652	0.00031834	0	0	0	
0.0748333	0.143372	0.0210555	0.0033429	0.000495187	0	0	0	
0.075	-0.143345	-0.0168696	0.00336986	0.00061626	0	0	0	
0.0751667	0.148619	0.0167269	0.00340949	0.00061729	0	0	0	
0.0753333	-0.149602	-0.0182412	0.00345939	0.000559089	0	0	0	
0.0755	0.132983	0.0191461	0.00349316	0.000545747	0	0	0	
0.0756667	-0.129094	-0.014266	0.00349834	0.000566294	0	0	0	
0.0758333	0.132086	0.0143263	0.00346454	0.000571176	0	0	0	
0.076	-0.141051	-0.0170861	0.00336796	0.000520923	0	0	0	
0.0761667	0.142353	0.0231715	0.00333125	0.000493536	0	0	0	
0.0763333	-0.143453	-0.0230113	0.00331866	0.000519834	0	0	0	
0.0765	0.149817	0.0199783	0.00338533	0.000589404	0	0	0	
0.0766667	-0.159204	-0.018615	0.00345434	0.000608651	0	0	0	
0.0768333	0.150641	0.0208532	0.00358801	0.00059378	0	0	0	
0.077	-0.141432	-0.0187524	0.00358728	0.000576781	0	0	0	
0.0771667	0.140985	0.0173171	0.00353459	0.00058757	0	0	0	
0.0773333	-0.148046	-0.0203152	0.00339933	0.000599187	0	0	0	
0.0775	0.148704	0.019659	0.00340577	0.000598711	0	0	0	
0.0776667	-0.14379	-0.0159996	0.00343032	0.000593033	0	0	0	
0.0778333	0.13647	0.0147652	0.00345274	0.000581907	0	0	0	
0.078	-0.137038	-0.0180335	0.0034059	0.000564801	0	0	0	
0.0781667	0.142315	0.023391	0.00334309	0.000559432	0	0	0	
0.0783333	-0.145841	-0.0277482	0.00331143	0.000597257	0	0	0	
0.0785	0.145255	0.022691	0.00334449	0.000656174	0	0	0	
0.0786667	-0.14742	-0.0170967	0.00338918	0.000692822	0	0	0	
0.0788333	0.146894	0.016391	0.00340888	0.000664307	0	0	0	
0.079	-0.14635	-0.0150138	0.00342671	0.000626563	0	0	0	
0.0791667	0.141225	0.00717962	0.00342918	0.000583341	0	0	0	
0.0793333	-0.139949	-0.0129747	0.00342209	0.000497728	0	0	0	
0.0795	0.143824	0.025064	0.00338868	0.000428886	0	0	0	
0.0796667	-0.142088	-0.0276533	0.00335045	0.000429272	0	0	0	
0.0798333	0.143921	0.0251019	0.00332003	0.000570639	0	0	0	
0.08	-0.146976	-0.0179767	0.00332325	0.000750186	0	0	0	
0.0801667	0.148657	0.00568784	0.00336161	0.000892135	0	0	0	
0.0803333	-0.14592	0.0047983	0.00340751	0.000885543	0	0	0	
0.0805	0.147493	0.000446175	0.00343605	0.000657189	0	0	0	
0.0806667	-0.140468	-0.0194322	0.003417	0.000409622	0	0	0	
0.0808333	0.142283	0.0387503	0.00339755	0.000350516	0	0	0	
0.081	-0.140404	-0.0420688	0.00334855	0.00056335	0	0	0	
0.0811667	0.144215	0.0423509	0.0033546	0.000802956	0	0	0	
0.0813333	-0.140575	-0.0266653	0.00332645	0.000930365	0	0	0	
0.0815	0.146473	0.0200731	0.00336276	0.000932933	0	0	0	
0.0816667	-0.144268	-0.0125837	0.00334239	0.000849843	0	0	0	
0.0818333	0.144714	0.0136154	0.00339031	0.000711554	0	0	0	
0.082	-0.145522	-0.0226875	0.00335669	0.000566764	0	0	0	
0.0821667	0.147275	0.0298248	0.00339854	0.000530425	0	0	0	
0.0823333	-0.143706	-0.0311454	0.00338162	0.000572684	0	0	0	
0.0825	0.144897	0.0304623	0.00342212	0.00066867	0	0	0	
0.0826667	-0.145193	-0.0179728	0.00337081	0.000655713	0	0	0	
0.0828333	0.144213	0.01763	0.00340025	0.000634201	0	0	0	
0.083	-0.143906	-0.014193	0.00335441	0.000571248	0	0	0	
0.0831667	0.145952	0.0136988	0.00339215	0.000535073	0	0	0	
0.0833333	-0.147442	-0.0237259	0.00335282	0.000479153	0	0	0	
0.0835	0.145143	0.0244232	0.00339415	0.000487044	0	0	0	
0.0836667	-0.155963	-0.0213862	0.00340247	0.000541167	0	0	0	
0.0838333	0.152839	0.0272273	0.00347411	0.000632519	0	0	0	
0.084	-0.150812	-0.0370259	0.00347326	0.000674773	0	0	0	
0.0841667	0.14351	0.0395611	0.00347098	0.000754442	0	0	0	
0.0843333	-0.143819	-0.043487	0.00339962	0.000842324	0	0	0	
0.0845	0.148593	0.0402023	0.00338577	0.000933892	0	0	0	
0.0846667	-0.152221	-0.0355893	0.0033766	0.000965567	0	0	0	
0.0848333	0.141979	0.0290106	0.00340319	0.000955631	0	0	0	
0.085	-0.140847	-0.0159443	0.00335315	0.000835904	0	0	0	
0.0851667	0.144917	0.0146602	0.00329828	0.000649362	0	0	0	
0.0853333	-0.1528	-0.0233164	0.00328066	0.000458985	0	0	0	
0.0855	0.154198	0.0355171	0.00336847	0.000442213	0	0	0	
0.0856667	-0.155368	-0.0461851	0.00347637	0.000585283	0	0	0	
0.0858333	0.155747	0.0419111	0.00354199	0.00073891	0	0	0	
0.086	-0.148687	-0.0315241	0.00356423	0.000778056	0	0	0	
0.0861667	0.12758	0.0319107	0.0035243	0.000734816	0	0	0	
0.0863333	-0.122607	-0.0267528	0.00338814	0.000642362	0	0	0	
0.0865	0.143236	0.0201397	0.00322564	0.000616649	0	0	0	
0.0866667	-0.161224	-0.00867362	0.00317111	0.000538498	0	0	0	
0.0868333	0.151133	0.00787207	0.00325758	0.000409271	0	0	0	
0.087	-0.14788	-0.0110665	0.00339701	0.000277881	0	0	0	
0.0871667	0.14259	0.0165735	0.00342764	0.000249631	0	0	0	
0.0873333	-0.139741	-0.0166822	0.00338343	0.000298884	0	0	0	
0.0875	0.130691	0.0202665	0.00329979	0.000375912	0	0	0	
0.0876667	-0.136008	-0.022858	0.00319323	0.000435062	0	0	0	
0.0878333	0.150989	0.0261209	0.00316891	0.000521752	0	0	0	
0.088	-0.154398	-0.024807	0.00325395	0.000594096	0	0	0	
0.0881667	0.136037	0.00575936	0.00340891	0.000565314	0	0	0	
0.0883333	-0.130045	0.00488572	0.00346459	0.000406659	0	0	0	
0.0885	0.130979	0.00396381	0.00338078	0.000279445	0	0	0	
0.0886667	-0.141886	-0.0101445	0.00327267	0.000198542	0	0	0	
0.0888333	0.151244	0.0161273	0.00326506	0.000275242	0	0	0	
0.089	-0.155951	-0.0206794	0.00332851	0.000342695	0	0	0	
0.0891667	0.158425	0.0151363	0.00343005	0.000494834	0	0	0	
0.0893333	-0.161877	0.00921719	0.00349806	0.00070613	0	0	0	
0.0895	0.153091	-0.0263183	0.00351904	0.000859665	0	0	0	
0.0896667	-0.153146	0.0157779	0.00348841	0.000863949	0	0	0	
0.0898333	0.151218	0.0215929	0.00341433	0.000643607	0	0	0	
0.09	-0.148283	-0.0454935	0.00334002	0.000540379	0	0	0	
0.0901667	0.13527	0.0349924	0.00326606	0.000637763	0	0	0	
0.0903333	-0.132051	-0.024352	0.00316573	0.000923632	0	0	0	
0.0905	0.139661	0.00138872	0.0030874	0.000999217	0	0	0	
0.0906667	-0.149607	-0.00354484	0.00311634	0.000842339	0	0	0	
0.0908333	0.144696	0.0112431	0.00321175	0.000555877	0	0	0	
0.091	-0.146559	-0.0244974	0.003305	0.000399933	0	0	0	
0.0911667	0.145418	0.0309927	0.00332409	0.000428828	0	0	0	
0.0913333	-0.146589	-0.0452194	0.00332231	0.000589245	0	0	0	
0.0915	0.149778	0.0274226	0.00332961	0.000732153	0	0	0	
0.0916667	-0.157187	-0.0177309	0.00334678	0.000815	0	0	0	
0.0918333	0.154984	0.0159549	0.00338222	0.000777614	0	0	0	
0.092	-0.149372	-0.0218257	0.00340633	0.000679101	0	0	0	
0.0921667	0.142783	0.0213076	0.00338243	0.000575363	0	0	0	
0.0923333	-0.145039	-0.019105	0.00332197	0.00054784	0	0	0	
0.0925	0.143407	0.01636	0.00327164	0.000556321	0	0	0	
0.0926667	-0.145854	-0.0160713	0.00325768	0.000524515	0	0	0	
0.0928333	0.146508	0.0137992	0.0032855	0.000446508	0	0	0	
0.093	-0.148259	-0.0207748	0.00330208	0.000407085	0	0	0	
0.0931667	0.147431	0.0148155	0.00332412	0.000452234	0	0	0	
0.0933333	-0.146719	-0.0138291	0.00333105	0.000534206	0	0	0	
0.0935	0.145962	0.0128249	0.00334494	0.000546341	0	0	0	
0.0936667	-0.152301	-0.0141833	0.00335289	0.000479262	0	0	0	
0.0938333	0.155558	0.0195689	0.00338055	0.000412004	0	0	0	
0.094	-0.154078	-0.034575	0.00339825	0.000462161	0	0	0	
0.0941667	0.149786	0.0270735	0.00341866	0.000624413	0	0	0	
0.0943333	-0.149314	-0.0175877	0.00340769	0.000792453	0	0	0	
0.0945	0.148545	0.00864308	0.00341038	0.00082012	0	0	0	
0.0946667	-0.151255	-0.00634534	0.00339921	0.000694099	0	0	0	
0.0948333	0.151654	0.00730653	0.00338801	0.000504603	0	0	0	
0.095	-0.152519	-0.00599665	0.0033507	0.00035808	0	0	0	
0.0951667	0.153584	0.00349543	0.00334544	0.000257152	0	0	0	
0.0953333	-0.158166	-0.0166401	0.00335924	0.000232527	0	0	0	
0.0955	0.160515	0.0315656	0.00344965	0.000289935	0	0	0	
0.0956667	-0.155882	-0.0335734	0.00350442	0.000458152	0	0	0	
0.0958333	0.147941	0.0242691	0.00349875	0.000640036	0	0	0	
0.096	-0.149468	-0.0159275	0.00340055	0.000750144	0	0	0	
0.0961667	0.154467	0.00995155	0.00333417	0.000768484	0	0	0	
0.0963333	-0.160038	-0.00645367	0.00333742	0.000713958	0	0	0	
0.0965	0.155122	0.00730096	0.00339301	0.000597092	0	0	0	
0.0966667	-0.149425	-0.0161213	0.00338513	0.000472274	0	0	0	
0.0968333	0.147749	0.0245823	0.00332844	0.000410157	0	0	0	
0.097	-0.153338	-0.0335859	0.003285	0.0004579	0	0	0	
0.0971667	0.153128	0.0391434	0.00332103	0.00057793	0	0	0	
0.0973333	-0.155437	-0.0331933	0.00338298	0.000685715	0	0	0	
0.0975	0.154395	0.0204782	0.00341836	0.00073929	0	0	0	
0.0976667	-0.153227	-0.0148013	0.00341857	0.000710491	0	0	0	
0.0978333	0.152661	0.0122287	0.00341956	0.000611855	0	0	0	
0.098	-0.155636	-0.00833801	0.00341668	0.000487228	0	0	0	
0.0981667	0.152745	0.00566283	0.00342254	0.000361941	0	0	0	
0.0983333	-0.154419	-0.019663	0.00341408	0.000304145	0	0	0	
0.0985	0.1583	0.0310366	0.00341308	0.000346026	0	0	0	
0.0986667	-0.160878	-0.0318518	0.00340419	0.000489635	0	0	0	
0.0988333	0.155913	0.0202484	0.00341663	0.000633597	0	0	0	
0.099	-0.151643	-0.0129763	0.00339438	0.000672725	0	0	0	
0.0991667	0.15037	0.012594	0.00337469	0.000593348	0	0	0	
0.0993333	-0.153154	-0.0222579	0.00335946	0.000495696	0	0	0	
0.0995	0.151531	0.0280314	0.00337923	0.000478503	0	0	0	
0.0996667	-0.151835	-0.0281921	0.00337936	0.000544876	0	0	0	
0.0998333	0.150369	0.0247015	0.00336411	0.000622706	0	0	0	
0.1	-0.151906	-0.020527	0.00334189	0.000643173	0	0	0	
0.100167	0.150475	0.0186288	0.00334674	0.000623215	0	0	0	
0.100333	-0.15263	-0.0167605	0.00334981	0.000586702	0	0	0	
0.1005	0.153023	0.0152968	0.00336226	0.000553238	0	0	0	
0.100667	-0.157311	-0.0160674	0.00336894	0.000511086	0	0	0	
0.100833	0.157253	0.0180428	0.00339523	0.000468514	0	0	0	
0.101	-0.15769	-0.0210891	0.00342093	0.000445895	0	0	0	
0.101167	0.152975	0.0264778	0.00343974	0.000467543	0	0	0	
0.101333	-0.151244	-0.0280283	0.003423	0.00052858	0	0	0	
0.1015	0.151575	0.0194515	0.00338712	0.000597478	0	0	0	
0.101667	-0.157295	-0.0141788	0.00334862	0.000615559	0	0	0	
0.101833	0.161194	0.0191933	0.00337464	0.000573268	0	0	0	
0.102	-0.160588	-0.0214459	0.00342171	0.000536548	0	0	0	
0.102167	0.154467	0.0157578	0.0034596	0.000535433	0	0	0	
0.102333	-0.152942	-0.0180222	0.00341805	0.00053107	0	0	0	
0.1025	0.15388	0.0255219	0.00336468	0.00051421	0	0	0	
0.102667	-0.153408	-0.0265105	0.00331822	0.000507222	0	0	0	
0.102833	0.149963	0.0212878	0.00330184	0.000560734	0	0	0	
0.103	-0.151071	-0.0176506	0.00326488	0.000588668	0	0	0	
0.103167	0.152001	0.0244935	0.0032547	0.000578617	0	0	0	
0.103333	-0.149915	-0.0325816	0.00325499	0.000568331	0	0	0	
0.1035	0.147907	0.0292426	0.00326119	0.000613932	0	0	0	
0.103667	-0.160476	-0.0148499	0.00326461	0.000708099	0	0	0	
0.103833	0.167236	-9.52814E-05	0.00335975	0.00076078	0	0	0	
0.104	-0.161589	-0.0024041	0.00349084	0.000664675	0	0	0	
0.104167	0.134438	0.0161678	0.0035395	0.000487863	0	0	0	
0.104333	-0.122277	-0.0242405	0.00342144	0.000372246	0	0	0	
0.1045	0.132362	0.0296071	0.00319129	0.000401934	0	0	0	
0.104667	-0.169099	-0.0342499	0.00307245	0.000520412	0	0	0	
0.104833	0.187184	0.0330677	0.00318108	0.000668894	0	0	0	
0.105	-0.170655	-0.0237858	0.00343875	0.000799528	0	0	0	
0.105167	0.147425	0.011248	0.00358607	0.00083814	0	0	0	
0.105333	-0.160363	-0.00907708	0.00357203	0.000684452	0	0	0	
0.1055	0.150828	0.0195992	0.00351115	0.000491353	0	0	0	
0.105667	-0.128875	-0.0280257	0.00338981	0.000412135	0	0	0	
0.105833	0.137354	0.0267691	0.00318434	0.000514167	0	0	0	
0.106	-0.168169	-0.0203263	0.00307893	0.0006306	0	0	0	
0.106167	0.16994	0.0154147	0.00321086	0.000643382	0	0	0	
0.106333	-0.153757	-0.0163741	0.0034378	0.000562472	0	0	0	
0.1065	0.140501	0.0190894	0.00347265	0.000489708	0	0	0	
0.106667	-0.150762	-0.023476	0.00335273	0.000475935	0	0	0	
0.106833	0.16324	0.0245786	0.00327767	0.000503691	0	0	0	
0.107	-0.164862	-0.0251706	0.00333028	0.000543611	0	0	0	
0.107167	0.150702	0.0210932	0.00341144	0.000569982	0	0	0	
0.107333	-0.144956	-0.0186951	0.00339054	0.000571738	0	0	0	
0.1075	0.149263	0.0134928	0.00329988	0.000546052	0	0	0	
0.107667	-0.159012	-0.0106001	0.00325408	0.000500079	0	0	0	
0.107833	0.158164	0.0123899	0.00330778	0.000434939	0	0	0	
0.108	-0.157227	-0.019071	0.00338498	0.000384735	0	0	0	
0.108167	0.158338	0.0246325	0.00342129	0.000388301	0	0	0	
0.108333	-0.159421	-0.0271045	0.00341401	0.000459035	0	0	0	
0.1085	0.15324	0.0222541	0.00339957	0.000550164	0	0	0	
0.108667	-0.155016	-0.0195105	0.00337041	0.000616977	0	0	0	
0.108833	0.159709	0.0183886	0.00336889	0.000635986	0	0	0	
0.109	-0.16115	-0.014636	0.0033816	0.000593528	0	0	0	
0.109167	0.159648	0.0165747	0.00341239	0.000521363	0	0	0	
0.109333	-0.159225	-0.0199333	0.00341075	0.000460234	0	0	0	
0.1095	0.155896	0.0223348	0.00341002	0.000455954	0	0	0	
0.109667	-0.154921	-0.0239374	0.00339636	0.000481805	0	0	0	
0.109833	0.157513	0.0248268	0.00339396	0.00052475	0	0	0	
0.11	-0.158063	-0.0218818	0.00338447	0.000556742	0	0	0	
0.110167	0.157544	0.019244	0.00340014	0.000582829	0	0	0	
0.110333	-0.165561	-0.0167064	0.00339863	0.00056992	0	0	0	
0.1105	0.172128	0.0207716	0.00344119	0.000547967	0	0	0	
0.110667	-0.16138	-0.0227523	0.00347995	0.000523013	0	0	0	
0.110833	0.141335	0.0212434	0.00346089	0.000513502	0	0	0	
0.111	-0.138889	-0.0233224	0.00330687	0.000506385	0	0	0	
0.111167	0.119475	0.0229891	0.00313858	0.000518192	0	0	0	
0.111333	-0.144652	-0.019284	0.00281474	0.00046792	0	0	0	
0.1115	0.166275	0.0207143	0.002841	0.000471116	0	0	0	
0.111667	-0.166537	-0.0173201	0.0029896	0.000446357	0	0	0	
0.111833	0.157573	0.0194289	0.00338314	0.000459837	0	0	0	
0.112	-0.147492	-0.036147	0.00347826	0.000466334	0	0	0	
0.112167	0.116597	0.0352161	0.00336134	0.000546958	0	0	0	
0.112333	-0.118067	-0.0143723	0.00311111	0.000720013	0	0	0	
0.1125	0.139674	-0.00459363	0.00301165	0.000840531	0	0	0	
0.112667	-0.16031	0.0116702	0.00304124	0.000630382	0	0	0	
0.112833	0.167646	0.0233895	0.00325124	0.000534506	0	0	0	
0.113	-0.163746	-0.0399497	0.00336881	0.000451595	0	0	0	
0.113167	0.155331	0.0377452	0.00344571	0.000655706	0	0	0	
0.113333	-0.15673	-0.0460226	0.003431	0.000744995	0	0	0	
0.1135	0.158552	0.0366152	0.00338803	0.000833862	0	0	0	
0.113667	-0.164811	-0.00281392	0.00338469	0.000902234	0	0	0	
0.113833	0.154252	-0.015127	0.00339834	0.000922009	0	0	0	
0.114	-0.150071	0.0127002	0.00333886	0.000741831	0	0	0	
0.114167	0.15584	0.017958	0.00326243	0.00053302	0	0	0	
0.114333	-0.162243	-0.0402024	0.00322626	0.000410725	0	0	0	
0.1145	0.160932	0.0324509	0.00330635	0.000518982	0	0	0	
0.114667	-0.158373	-0.0223509	0.00337447	0.000620298	0	0	0	
0.114833	0.147713	0.0250778	0.00337684	0.000603431	0	0	0	
0.115	-0.143963	-0.0315693	0.00328711	0.000574536	0	0	0	
0.115167	0.148876	0.0288703	0.00322472	0.000606782	0	0	0	
0.115333	-0.15502	-0.0223236	0.00320018	0.000659431	0	0	0	
0.1155	0.15771	0.015921	0.00326049	0.000658488	0	0	0	
0.115667	-0.165769	-0.00904498	0.00331814	0.000590036	0	0	0	
0.115833	0.164522	0.0076186	0.00341338	0.000449037	0	0	0	
0.116	-0.134636	-0.0511092	0.0034544	0.000481638	0	0	0	
0.116167	0.110842	0.136855	0.00329466	0.000829694	0	0	0	
0.116333	-0.0587636	-0.387085	0.00253127	0.00259011	0	0	0	
0.1165	0.109525	0.150707	0.00200815	0.00434338	0	0	0	
0.116667	-0.191515	-0.0276279	0.00197532	0.00457233	0	0	0	
0.116833	0.198235	-0.0137983	0.00285623	0.00318996	0	0	0	
0.117	-0.182466	0.02473	0.00362814	0.00143915	0	0	0	
0.117167	0.142122	0.0147639	0.00408508	0.00083914	0	0	0	
0.117333	-0.0201627	-0.191567	0.0042105	0.00134001	0	0	0	
0.1175	0.0413853	0.0146528	0.00425515	0.00301579	0	0	0	
0.117667	-0.110031	-0.0913297	0.00391815	0.00370002	0	0	0	
0.117833	0.156059	0.0726795	0.00345087	0.00320552	0	0	0	
0.118	-0.194401	-0.0292297	0.00314363	0.00182593	0	0	0	
0.118167	0.207105	0.0170961	0.00341032	0.00139004	0	0	0	
0.118333	-0.210514	-0.0164689	0.00388048	0.00112746	0	0	0	
0.1185	0.198249	0.0291606	0.00415912	0.000776833	0	0	0	
0.118667	-0.182206	-0.0335465	0.00415607	0.000612428	0	0	0	
0.118833	0.15653	0.0405132	0.00390729	0.000639835	0	0	0	
0.119	-0.148405	-0.0484984	0.00359486	0.000733608	0	0	0	
0.119167	0.15087	0.0439965	0.00337403	0.000825859	0	0	0	
0.119333	-0.145589	-0.0317025	0.00328417	0.000885649	0	0	0	
0.1195	0.277734	-0.0452234	0.00365546	0.000881521	0	0	0	
0.119667	-0.278274	0.0591602	0.00463491	0.00103496	0	0	0	
0.119833	0.253277	-0.0177326	0.00518929	0.00108613	0	0	0	
0.12	-0.20257	-0.0106321	0.00505561	0.000916443	0	0	0	
0.120167	0.162105	0.0181534	0.00421841	0.000560181	0	0	0	
0.120333	-0.153443	-0.0103371	0.00368833	0.000310949	0	0	0	
0.1205	0.224023	-0.03658	0.0034935	0.000318837	0	0	0	
0.120667	-0.141754	-0.0127424	0.00361633	0.000507576	0	0	0	
0.120833	0.132592	0.0381431	0.00326241	0.000786758	0	0	0	
0.121	-0.109389	-0.0384348	0.00257115	0.00106544	0	0	0	
0.121167	0.170189	0.0182802	0.00216227	0.00101884	0	0	0	
0.121333	-0.177441	-0.00960779	0.00260312	0.000823845	0	0	0	
0.1215	0.155418	0.00184179	0.00334445	0.00061174	0	0	0	
0.121667	-0.150436	-0.00133781	0.00351096	0.000499335	0	0	0	
0.121833	0.17204	0.0226367	0.00347322	0.000414129	0	0	0	
0.122	-0.167949	0.00996933	0.00333935	0.000477039	0	0	0	
0.122167	0.179642	0.0183393	0.00343088	0.000410625	0	0	0	
0.122333	-0.167037	-0.0223832	0.00343741	0.000461415	0	0	0	
0.1225	0.160591	0.0214841	0.00348177	0.000410139	0	0	0	
0.122667	-0.168407	-0.0183885	0.00338125	0.000521133	0	0	0	
0.122833	0.167447	0.00715444	0.00337021	0.000495819	0	0	0	
0.123	-0.131554	0.0532125	0.00329786	0.000472892	0	0	0	
0.123167	0.153124	0.0130699	0.00332372	0.000516739	0	0	0	
0.123333	-0.153866	-0.0231115	0.00326637	0.000522031	0	0	0	
0.1235	0.159309	0.0315322	0.00334775	0.000536269	0	0	0	
0.123667	-0.157046	-0.0345067	0.00332075	0.000518245	0	0	0	
0.123833	0.151546	0.0329833	0.00329631	0.0006083	0	0	0	
0.124	-0.154356	-0.0279373	0.00321267	0.000678971	0	0	0	
0.124167	0.162238	0.0139858	0.00317049	0.000694976	0	0	0	
0.124333	-0.170236	-0.00739157	0.00322931	0.000654414	0	0	0	
0.1245	0.171601	0.00910552	0.00337257	0.000523155	0	0	0	
0.124667	-0.171738	-0.0132365	0.00347336	0.000387415	0	0	0	
0.124833	0.164717	0.018086	0.00350275	0.000322104	0	0	0	
0.125	-0.160023	-0.022159	0.00344687	0.000340989	0	0	0	
0.125167	0.15976	0.0270048	0.00338468	0.000416495	0	0	0	
0.125333	-0.165369	-0.0300956	0.00333858	0.00050584	0	0	0	
0.1255	0.16581	0.0253292	0.00335896	0.000588849	0	0	0	
0.125667	-0.164283	-0.0204951	0.00338518	0.00061517	0	0	0	
0.125833	0.162046	0.019167	0.00339848	0.000591969	0	0	0	
0.126	-0.165031	-0.0183015	0.00338528	0.000557163	0	0	0	
0.126167	0.164109	0.0185905	0.00339841	0.000546836	0	0	0	
0.126333	-0.165649	-0.0195357	0.00340957	0.000529893	0	0	0	
0.1265	0.166204	0.0209484	0.00342389	0.000503291	0	0	0	
0.126667	-0.166242	-0.0229072	0.00340286	0.000480464	0	0	0	
0.126833	0.163799	0.0226346	0.00339668	0.000488031	0	0	0	
0.127	-0.166977	-0.0235645	0.00339021	0.000516219	0	0	0	
0.127167	0.167143	0.0264376	0.00339393	0.000556802	0	0	0	
0.127333	-0.169308	-0.0259043	0.00338965	0.000589162	0	0	0	
0.1275	0.17222	0.0206331	0.00340803	0.000589911	0	0	0	
0.127667	-0.165733	-0.0181165	0.00343475	0.000552604	0	0	0	
0.127833	0.175664	0.0208123	0.00346486	0.000503519	0	0	0	
0.128	-0.176065	-0.02458	0.00350294	0.000487573	0	0	0	
0.128167	0.167069	0.028696	0.00361903	0.00053211	0	0	0	
0.128333	-0.13956	-0.0290659	0.00365321	0.000587484	0	0	0	
0.1285	0.136467	0.0268141	0.00348091	0.000624713	0	0	0	
0.128667	-0.143628	-0.019394	0.00318651	0.000626715	0	0	0	
0.128833	0.163947	0.0105099	0.00300437	0.000604712	0	0	0	
0.129	-0.178425	-0.00888229	0.00310321	0.000516529	0	0	0	
0.129167	0.195735	0.0181745	0.00337162	0.000411592	0	0	0	
0.129333	-0.193667	-0.030664	0.00365818	0.000383432	0	0	0	
0.1295	0.184229	0.0369225	0.0038267	0.00047895	0	0	0	
0.129667	-0.163388	-0.0353673	0.00381373	0.000620601	0	0	0	
0.129833	0.148655	0.026866	0.00363691	0.000715791	0	0	0	
0.13	-0.156062	-0.0175978	0.0034069	0.000750297	0	0	0	
0.130167	0.168438	0.0107335	0.00326853	0.000695925	0	0	0	
0.130333	-0.169193	-0.0153623	0.00330975	0.000564924	0	0	0	
0.1305	0.158995	0.0247438	0.00339431	0.00045075	0	0	0	
0.130667	-0.161134	-0.0319084	0.00338065	0.000449881	0	0	0	
0.130833	0.169285	0.0215307	0.00333488	0.000545242	0	0	0	
0.131	-0.17361	-0.00576114	0.00336058	0.000597688	0	0	0	
0.131167	0.170001	0.00292376	0.00345774	0.000493143	0	0	0	
0.131333	-0.168287	-0.0174515	0.00349438	0.000346354	0	0	0	
0.1315	0.16419	0.0349245	0.00346201	0.000341241	0	0	0	
0.131667	-0.1635	-0.0478491	0.00339818	0.000510376	0	0	0	
0.131833	0.167411	0.0463191	0.00336605	0.00074492	0	0	0	
0.132	-0.174904	-0.0322003	0.00336207	0.000907794	0	0	0	
0.132167	0.175609	0.0102257	0.00340846	0.00101822	0	0	0	
0.132333	-0.173775	0.0026255	0.00345344	0.000981179	0	0	0	
0.1325	0.166772	-0.000126085	0.00347925	0.000727299	0	0	0	
0.132667	-0.163857	-0.0132534	0.00343979	0.000412203	0	0	0	
0.132833	0.159823	0.0270309	0.003375	0.000280038	0	0	0	
0.133	-0.160811	-0.0351676	0.00329307	0.000376622	0	0	0	
0.133167	0.163985	0.0335307	0.00327629	0.000557484	0	0	0	
0.133333	-0.166689	-0.0280246	0.00329333	0.000644218	0	0	0	
0.1335	0.16992	0.0221102	0.00334021	0.000666194	0	0	0	
0.133667	-0.174478	-0.0206033	0.00338164	0.000617063	0	0	0	
0.133833	0.165529	0.0234254	0.0034181	0.000577389	0	0	0	
0.134	-0.162514	-0.0218979	0.00341321	0.000545859	0	0	0	
0.134167	0.167592	0.021067	0.00338965	0.000540836	0	0	0	
0.134333	-0.169436	-0.022012	0.00336891	0.000523145	0	0	0	
0.1345	0.164833	0.0241121	0.00337475	0.000515177	0	0	0	
0.134667	-0.169354	-0.026968	0.0033627	0.000519225	0	0	0	
0.134833	0.174119	0.0264811	0.00337673	0.000552338	0	0	0	
0.135	-0.176065	-0.0231147	0.00343559	0.000580769	0	0	0	
0.135167	0.169983	0.0201399	0.00350196	0.00057761	0	0	0	
0.135333	-0.16752	-0.0217661	0.00349613	0.00054074	0	0	0	
0.1355	0.16549	0.0230251	0.00344599	0.00052287	0	0	0	
0.135667	-0.166051	-0.019155	0.00339368	0.000521221	0	0	0	
0.135833	0.168181	0.0183828	0.00337942	0.000515066	0	0	0	
0.136	-0.175659	-0.0283934	0.00338566	0.000501222	0	0	0	
0.136167	0.171992	0.0321498	0.00342139	0.000538125	0	0	0	
0.136333	-0.166937	-0.0249354	0.00342697	0.000595611	0	0	0	
0.1365	0.167782	0.0204026	0.00340772	0.000612092	0	0	0	
0.136667	-0.172144	-0.0259938	0.00337056	0.000561433	0	0	0	
0.136833	0.170504	0.0295305	0.00338254	0.000541244	0	0	0	
0.137	-0.173488	-0.025924	0.00341354	0.0005788	0	0	0	
0.137167	0.175537	0.0215013	0.00346055	0.000617403	0	0	0	
0.137333	-0.173727	-0.0215673	0.00348205	0.000584654	0	0	0	
0.1375	0.166261	0.0225409	0.00348004	0.000527511	0	0	0	
0.137667	-0.165682	-0.0218475	0.00341344	0.000501952	0	0	0	
0.137833	0.170206	0.0217891	0.0033734	0.000506365	0	0	0	
0.138	-0.173452	-0.0260061	0.00336938	0.000514427	0	0	0	
0.138167	0.169785	0.0292405	0.00340402	0.000534876	0	0	0	
0.138333	-0.169034	-0.026965	0.00340243	0.000566212	0	0	0	
0.1385	0.163616	0.0252794	0.0033737	0.000590839	0	0	0	
0.138667	-0.163498	-0.0252779	0.00331898	0.000584501	0	0	0	
0.138833	0.166904	0.0232854	0.00329286	0.000572946	0	0	0	
0.139	-0.168467	-0.0216729	0.00329364	0.00055987	0	0	0	
0.139167	0.161511	0.0218135	0.00330817	0.00054131	0	0	0	
0.139333	-0.165594	-0.0215435	0.00330699	0.000510159	0	0	0	
0.1395	0.167091	0.0243835	0.00330938	0.000492573	0	0	0	
0.139667	-0.16844	-0.0270098	0.00333022	0.000501988	0	0	0	
0.139833	0.162122	0.0277242	0.00335366	0.000547255	0	0	0	
0.14	-0.163357	-0.0251584	0.00334676	0.000582468	0	0	0	
0.140167	0.167996	0.022669	0.00334475	0.000597239	0	0	0	
0.140333	-0.177878	-0.0221451	0.00338102	0.000588581	0	0	0	
0.1405	0.174016	0.0232579	0.00345824	0.000566271	0	0	0	
0.140667	-0.169725	-0.0250853	0.00349139	0.000544444	0	0	0	
0.140833	0.168372	0.028237	0.00347386	0.000540344	0	0	0	
0.141	-0.171915	-0.0270801	0.00342121	0.000552101	0	0	0	
0.141167	0.169994	0.0263848	0.00340337	0.000573626	0	0	0	
0.141333	-0.173742	-0.0259268	0.0034018	0.00058173	0	0	0	
0.1415	0.172287	0.0228493	0.00341182	0.000578721	0	0	0	
0.141667	-0.171769	-0.0211003	0.00341093	0.000556336	0	0	0	
0.141833	0.171018	0.0221326	0.00342071	0.000531519	0	0	0	
0.142	-0.171645	-0.021945	0.00342514	0.000513443	0	0	0	
0.142167	0.167222	0.0224265	0.00342363	0.000515909	0	0	0	
0.142333	-0.170415	-0.0246599	0.00340058	0.000517982	0	0	0	
0.1425	0.169485	0.0270704	0.00337643	0.000545089	0	0	0	
0.142667	-0.169594	-0.0257874	0.00336256	0.000566464	0	0	0	
0.142833	0.165203	0.0232606	0.00336367	0.000584747	0	0	0	
0.143	-0.166344	-0.0230661	0.00334738	0.000568284	0	0	0	
0.143167	0.170058	0.0239818	0.00334351	0.000555046	0	0	0	
0.143333	-0.17336	-0.024558	0.00334896	0.000540891	0	0	0	
0.1435	0.170405	0.0248248	0.00337873	0.000543231	0	0	0	
0.143667	-0.176167	-0.0253561	0.0034037	0.000537871	0	0	0	
0.143833	0.1804	0.0261842	0.00345764	0.000548331	0	0	0	
0.144	-0.176503	-0.0243169	0.00350426	0.000550748	0	0	0	
0.144167	0.168882	0.022418	0.00352516	0.000553283	0	0	0	
0.144333	-0.167473	-0.0232682	0.00345699	0.00054033	0	0	0	
0.1445	0.166146	0.0230734	0.00338176	0.000521853	0	0	0	
0.144667	-0.170411	-0.0233396	0.00333254	0.000504904	0	0	0	
0.144833	0.171413	0.0240916	0.0033466	0.000496771	0	0	0	
0.145	-0.173451	-0.0240559	0.00336479	0.000502257	0	0	0	
0.145167	0.169337	0.0223464	0.00339815	0.000522992	0	0	0	
0.145333	-0.166908	-0.0194415	0.00338643	0.000540902	0	0	0	
0.1455	0.166924	0.021634	0.00337928	0.00053836	0	0	0	
0.145667	-0.16854	-0.0274723	0.00335347	0.000535986	0	0	0	
0.145833	0.167056	0.0276245	0.00334926	0.000571752	0	0	0	
0.146	-0.175761	-0.0165674	0.00334642	0.00061105	0	0	0	
0.146167	0.178539	0.0172309	0.00338041	0.000599095	0	0	0	
0.146333	-0.173395	-0.0249543	0.00342801	0.00052857	0	0	0	
0.1465	0.161238	0.0366145	0.00344748	0.000520483	0	0	0	
0.146667	-0.157214	-0.0398829	0.00338054	0.00060261	0	0	0	
0.146833	0.157494	0.0341469	0.00327886	0.000709575	0	0	0	
0.147	-0.170813	-0.0296979	0.00319462	0.000742883	0	0	0	
0.147167	0.19691	0.0274597	0.00329209	0.00072655	0	0	0	
0.147333	-0.206242	-0.019001	0.00354831	0.000686653	0	0	0	
0.1475	0.179302	0.0139821	0.00377245	0.000625604	0	0	0	
0.147667	-0.165261	-0.0198898	0.00374757	0.000535247	0	0	0	
0.147833	0.165839	0.018258	0.00356733	0.00046175	0	0	0	
0.148	-0.156769	-0.0158649	0.00338892	0.000404501	0	0	0	
0.148167	0.158423	0.0232325	0.00330914	0.000406787	0	0	0	
0.148333	-0.173478	-0.023364	0.00326378	0.000412881	0	0	0	
0.1485	0.182987	0.0275925	0.00328384	0.000514507	0	0	0	
0.148667	-0.179701	-0.0275312	0.00336071	0.000634454	0	0	0	
0.148833	0.172824	0.0198699	0.00345445	0.000687586	0	0	0	
0.149	-0.168787	-0.0181972	0.00347209	0.000639124	0	0	0	
0.149167	0.169288	0.0211443	0.00344166	0.000583697	0	0	0	
0.149333	-0.162963	-0.0165609	0.00334828	0.000551261	0	0	0	
0.1495	0.162576	0.0366942	0.00327375	0.000579167	0	0	0	
0.149667	-0.16996	-0.0470242	0.00323112	0.000663741	0	0	0	
0.149833	0.175361	0.0272163	0.00326666	0.000745568	0	0	0	
0.15	-0.180645	-0.0258323	0.00336617	0.000747288	0	0	0	
0.150167	0.158613	0.0489878	0.00341801	0.000688451	0	0	0	
0.150333	-0.325177	-0.186699	0.00409327	0.00136634	0	0	0	
0.1505	0.172721	0.0376129	0.00489882	0.00149947	0	0	0	
0.150667	-0.184298	-0.024938	0.00484635	0.00159462	0	0	0	
0.150833	0.149313	0.0115594	0.00417712	0.000893924	0	0	0	
0.151	-0.133956	-0.0152725	0.00311546	0.000675425	0	0	0	
0.151167	0.110807	0.0148533	0.00287065	0.000445893	0	0	0	
0.151333	-0.157876	-0.0263678	0.00257374	0.000482151	0	0	0	
0.1515	0.173785	0.00297531	0.00275996	0.00052006	0	0	0	
0.151667	-0.156789	-0.0119844	0.00304498	0.000491336	0	0	0	
0.151833	0.115977	0.0142039	0.00313975	0.000321231	0	0	0	
0.152	-0.0881224	-0.0138261	0.00272198	0.000250339	0	0	0	
0.152167	0.0916077	0.0092933	0.00219957	0.000265954	0	0	0	
0.152333	-0.131978	-0.00559192	0.00195665	0.000244625	0	0	0	
0.1525	0.162625	0.0165469	0.0022889	0.000247787	0	0	0	
0.152667	-0.15092	-0.0284551	0.00267539	0.000325892	0	0	0	
0.152833	0.139663	0.0286776	0.00299715	0.000450462	0	0	0	
0.153	-0.0899501	-0.0124731	0.00278761	0.000506542	0	0	0	
0.153167	0.0826025	0.0126748	0.00238026	0.000419766	0	0	0	
0.153333	-0.110544	-0.0210043	0.00197651	0.000322475	0	0	0	
0.1535	0.163401	0.0250904	0.00206205	0.000392859	0	0	0	
0.153667	-0.175225	-0.00348413	0.0025625	0.000469406	0	0	0	
0.153833	0.16075	0.00717466	0.00306855	0.000460748	0	0	0	
0.154	-0.115059	-0.00712612	0.00313842	0.00033453	0	0	0	
0.154167	0.0854421	0.00177807	0.00270363	0.000220145	0	0	0	
0.154333	-0.0866268	-0.0104812	0.00214153	0.000179558	0	0	0	
0.1545	0.131871	0.0379645	0.00182486	0.000241861	0	0	0	
0.154667	-0.162419	-0.042872	0.00215997	0.000424	0	0	0	
0.154833	0.145999	0.0410495	0.0025989	0.000672239	0	0	0	
0.155	-0.131384	-0.0224066	0.00293616	0.000788592	0	0	0	
0.155167	0.0869416	0.00578257	0.00270549	0.000699166	0	0	0	
0.155333	-0.0782254	-0.00747827	0.00225545	0.00045196	0	0	0	
0.1555	0.104778	0.0248012	0.00186371	0.000276137	0	0	0	
0.155667	-0.154204	-0.0345806	0.00192497	0.000331532	0	0	0	
0.155833	0.166726	0.0323527	0.00243907	0.000583447	0	0	0	
0.156	-0.166803	-0.0104849	0.00296834	0.000793354	0	0	0	
0.156167	0.121343	2.79389E-05	0.00317465	0.000835172	0	0	0	
0.156333	-0.0826181	0.00290793	0.00278156	0.000620786	0	0	0	
0.1565	0.0842171	0.00527878	0.00222102	0.000360318	0	0	0	
0.156667	-0.122015	-0.0268813	0.00181356	0.000270584	0	0	0	
0.156833	0.158127	0.055445	0.00211868	0.000463108	0	0	0	
0.157	-0.14208	-0.064687	0.00253347	0.000814743	0	0	0	
0.157167	0.133488	0.0483598	0.00287121	0.00105098	0	0	0	
0.157333	-0.0912905	-0.0161112	0.00265209	0.00105186	0	0	0	
0.1575	0.0869886	0.00574487	0.00225505	0.000793587	0	0	0	
0.157667	-0.109516	-0.0120915	0.00191774	0.000482626	0	0	0	
0.157833	0.164439	0.0240243	0.00206254	0.000338784	0	0	0	
0.158	-0.168206	-0.00993276	0.00257911	0.000354807	0	0	0	
0.158167	0.16189	0.00536986	0.00308465	0.00040563	0	0	0	
0.158333	-0.119966	-0.00382839	0.00318424	0.000344875	0	0	0	
0.1585	0.0881419	0.00443844	0.00276172	0.000237453	0	0	0	
0.158667	-0.0887901	-0.00734686	0.00221862	0.000158196	0	0	0	
0.158833	0.114772	0.0131956	0.0018232	0.000138599	0	0	0	
0.159	-0.160431	-0.0136064	0.00210704	0.000183545	0	0	0	
0.159167	0.14073	0.025628	0.00251497	0.000280927	0	0	0	
0.159333	-0.140291	-0.0296219	0.00287425	0.000423837	0	0	0	
0.1595	0.0928474	0.0147297	0.00269483	0.000512059	0	0	0	
0.159667	-0.0844757	-0.00696058	0.00228147	0.000464929	0	0	0	
0.159833	0.100009	0.0129123	0.00190956	0.000328226	0	0	0	
0.16	-0.161176	-0.0276062	0.00198506	0.000290967	0	0	0	
0.160167	0.161627	0.0290563	0.00247277	0.00040159	0	0	0	
0.160333	-0.166159	-0.0229477	0.00298024	0.000521364	0	0	0	
0.1605	0.119977	0.0118912	0.00312998	0.000538926	0	0	0	
0.160667	-0.0863355	-0.00631466	0.00274087	0.000408319	0	0	0	
0.160833	0.0830234	0.00647021	0.00220382	0.000266704	0	0	0	
0.161	-0.118338	-0.0113123	0.00182084	0.000170325	0	0	0	
0.161167	0.155316	0.00959503	0.00207902	0.000179059	0	0	0	
0.161333	-0.150633	-0.017267	0.00252096	0.000205214	0	0	0	
0.1615	0.136837	0.0232516	0.00287594	0.000297089	0	0	0	
0.161667	-0.0954764	-0.015055	0.0027278	0.000348432	0	0	0	
0.161833	0.0844268	0.0103674	0.00231349	0.000356873	0	0	0	
0.162	-0.102371	-0.0145877	0.00193213	0.00028587	0	0	0	
0.162167	0.155696	0.0228113	0.00199901	0.000292226	0	0	0	
0.162333	-0.15807	-0.021539	0.00245748	0.000403265	0	0	0	
0.1625	0.159321	0.0173039	0.00296035	0.000529113	0	0	0	
0.162667	-0.122386	-0.00771689	0.00312253	0.000537418	0	0	0	
0.162833	0.0818833	0.0029843	0.00274632	0.000397589	0	0	0	
0.163	-0.0875152	-0.00903154	0.00220981	0.000235767	0	0	0	
0.163167	0.121496	0.017666	0.00183425	0.000158151	0	0	0	
0.163333	-0.161555	-0.0322618	0.00210598	0.00029025	0	0	0	
0.1635	0.149755	0.0381768	0.00259527	0.000549717	0	0	0	
0.163667	-0.132903	-0.0224977	0.00289674	0.000725737	0	0	0	
0.163833	0.085953	0.00605528	0.00268212	0.000716074	0	0	0	
0.164	-0.0816076	0.00234251	0.00216226	0.000502842	0	0	0	
0.164167	0.102053	-0.000831169	0.00180979	0.000274141	0	0	0	
0.164333	-0.164747	-0.0248256	0.00193557	0.000181782	0	0	0	
0.1645	0.160433	0.0304494	0.00246831	0.000323857	0	0	0	
0.164667	-0.16223	-0.0234971	0.00292512	0.000486417	0	0	0	
0.164833	0.124019	0.0075487	0.0031205	0.000568027	0	0	0	
0.165	-0.0818209	-0.00519106	0.00276338	0.000387207	0	0	0	
0.165167	0.0817359	0.000656191	0.00227034	0.00028486	0	0	0	
0.165333	-0.10855	0.0167763	0.00180209	0.000349527	0	0	0	
0.1655	0.150499	0.00146314	0.00194361	0.000510414	0	0	0	
0.165667	-0.154649	-0.0301051	0.0023938	0.000596222	0	0	0	
0.165833	0.152511	0.029143	0.00283101	0.000621108	0	0	0	
0.166	-0.100264	-0.00737546	0.00283229	0.000625696	0	0	0	
0.166167	0.0835441	0.00389562	0.00241564	0.000536403	0	0	0	
0.166333	-0.0990584	-0.0202404	0.00198606	0.000352893	0	0	0	
0.1665	0.154963	0.0395573	0.00193889	0.000410888	0	0	0	
0.166667	-0.171776	-0.0247579	0.00243059	0.000598101	0	0	0	
0.166833	0.185906	0.0229276	0.00297284	0.000730204	0	0	0	
0.167	-0.153174	-0.017156	0.00334258	0.000607618	0	0	0	
0.167167	0.0922764	0.0094165	0.00306123	0.000428016	0	0	0	
0.167333	-0.0851349	-0.00674786	0.00252432	0.000293808	0	0	0	
0.1675	0.115719	0.00883883	0.00198872	0.000203144	0	0	0	
0.167667	-0.164059	-0.0290758	0.00210614	0.000263133	0	0	0	
0.167833	0.171288	0.0359586	0.0026078	0.000387997	0	0	0	
0.168	-0.162088	-0.0266491	0.00304001	0.000539746	0	0	0	
0.168167	0.110188	0.011327	0.00305039	0.000554469	0	0	0	
0.168333	-0.0930491	0.000260022	0.0026024	0.000458361	0	0	0	
0.1685	0.094756	0.0032905	0.00213438	0.000273004	0	0	0	
0.168667	-0.133099	-0.0287831	0.00197039	0.0002289	0	0	0	
0.168833	0.133337	0.0386705	0.00224133	0.000361721	0	0	0	
0.169	-0.154974	-0.0316526	0.00251733	0.000545803	0	0	0	
0.169167	0.160807	0.0257995	0.00280709	0.000624476	0	0	0	
0.169333	-0.104919	-0.0114572	0.00271321	0.00053354	0	0	0	
0.1695	0.0850659	0.00569366	0.00245104	0.000420178	0	0	0	
0.169667	-0.131339	-0.00363051	0.00207175	0.000308045	0	0	0	
0.169833	0.175072	0.00559844	0.00224902	0.00022613	0	0	0	
0.17	-0.169774	-0.00992697	0.00275559	0.00019497	0	0	0	
0.170167	0.151792	0.0217364	0.00314904	0.000219141	0	0	0	
0.170333	-0.107189	-0.0167386	0.00302937	0.000297124	0	0	0	
0.1705	0.0889621	0.00877292	0.00253117	0.000326256	0	0	0	
0.170667	-0.0934219	-0.0107838	0.00204778	0.000295573	0	0	0	
0.170833	0.131984	0.0223792	0.00185235	0.000289927	0	0	0	
0.171	-0.15114	-0.0188732	0.00217121	0.000380285	0	0	0	
0.171167	0.160323	0.0140305	0.0025485	0.000513027	0	0	0	
0.171333	-0.147543	-0.01222	0.00288808	0.000536434	0	0	0	
0.1715	0.0919568	0.00776183	0.00271365	0.000425401	0	0	0	
0.171667	-0.0758786	-0.00790707	0.00231682	0.000275043	0	0	0	
0.171833	0.10052	0.0105112	0.00184582	0.000193584	0	0	0	
0.172	-0.158953	-0.0209563	0.00191761	0.000258665	0	0	0	
0.172167	0.178766	0.0273047	0.00245055	0.00044206	0	0	0	
0.172333	-0.164002	-0.016903	0.00295841	0.000571369	0	0	0	
0.1725	0.109628	0.00631562	0.00303465	0.000550605	0	0	0	
0.172667	-0.0857945	-0.000511188	0.00255246	0.00036289	0	0	0	
0.172833	0.0881909	0.00680555	0.00204112	0.00019381	0	0	0	
0.173	-0.135169	-0.0313894	0.00179593	0.000188841	0	0	0	
0.173167	0.156933	0.0522615	0.00214916	0.000447314	0	0	0	
0.173333	-0.162233	-0.0410943	0.00257745	0.000697528	0	0	0	
0.1735	0.141315	0.0284376	0.00294924	0.000814512	0	0	0	
0.173667	-0.0841347	-0.0100748	0.00273095	0.000654757	0	0	0	
0.173833	0.0711417	0.00446759	0.00226617	0.000480494	0	0	0	
0.174	-0.107007	0.00067041	0.00178375	0.000330632	0	0	0	
0.174167	0.162428	0.00872099	0.00189055	0.000233407	0	0	0	
0.174333	-0.178347	-0.0136392	0.00247536	0.000196026	0	0	0	
0.1745	0.160518	0.0214568	0.00298379	0.000236448	0	0	0	
0.174667	-0.112782	-0.01228	0.0030587	0.000303946	0	0	0	
0.174833	0.0812003	0.00711144	0.00256545	0.000304075	0	0	0	
0.175	-0.0905321	-0.0110523	0.0020574	0.000244344	0	0	0	
0.175167	0.15409	0.0307598	0.0018499	0.000260117	0	0	0	
0.175333	-0.19824	-0.0401875	0.00239061	0.000452279	0	0	0	
0.1755	0.191023	0.0344709	0.00302821	0.000640933	0	0	0	
0.175667	-0.171289	-0.0245737	0.00356042	0.000734716	0	0	0	
0.175833	0.0974707	0.00968295	0.00333833	0.000619347	0	0	0	
0.176	-0.0903227	-0.00888821	0.00278172	0.000448105	0	0	0	
0.176167	0.126768	0.0184406	0.00220514	0.000303079	0	0	0	
0.176333	-0.168917	-0.0238999	0.00225105	0.000288644	0	0	0	
0.1765	0.163942	0.0266995	0.00267325	0.000397174	0	0	0	
0.176667	-0.168051	-0.0245886	0.00301842	0.000535462	0	0	0	
0.176833	0.133524	0.0122211	0.00311628	0.000612527	0	0	0	
0.177	-0.0993689	-0.00384697	0.00274153	0.000519537	0	0	0	
0.177167	0.094738	0.0136556	0.002336	0.000353386	0	0	0	
0.177333	-0.155393	-0.0342306	0.00206822	0.00028558	0	0	0	
0.1775	0.193082	0.0505993	0.0024842	0.000532407	0	0	0	
0.177667	-0.174536	-0.0376871	0.00299258	0.000790442	0	0	0	
0.177833	0.132621	0.0329222	0.00328811	0.000952488	0	0	0	
0.178	-0.0827558	-0.0115681	0.00292206	0.000783278	0	0	0	
0.178167	0.0826008	0.00586302	0.00234854	0.00054506	0	0	0	
0.178333	-0.106364	-0.0166093	0.00186227	0.000310823	0	0	0	
0.1785	0.145382	0.0339579	0.00191703	0.000302046	0	0	0	
0.178667	-0.171745	-0.0326266	0.00234113	0.000433238	0	0	0	
0.178833	0.17447	0.0256556	0.00282167	0.000563245	0	0	0	
0.179	-0.132286	-0.0108768	0.00307489	0.00055041	0	0	0	
0.179167	0.0898154	0.0050222	0.00278124	0.000420228	0	0	0	
0.179333	-0.0889693	-0.0076485	0.00226083	0.000271103	0	0	0	
0.1795	0.137467	0.0144764	0.00187801	0.000203246	0	0	0	
0.179667	-0.180565	-0.0172408	0.00224945	0.00024129	0	0	0	
0.179833	0.165784	0.0201001	0.002752	0.00033652	0	0	0	
0.18	-0.148595	-0.0201887	0.0031519	0.000398396	0	0	0	
0.180167	0.0924373	0.0113063	0.00289819	0.000389362	0	0	0	
0.180333	-0.0829018	-0.00843753	0.00239257	0.000310289	0	0	0	
0.1805	0.109342	0.0117745	0.00193094	0.000231807	0	0	0	
0.180667	-0.167016	-0.0253488	0.00204092	0.000243885	0	0	0	
0.180833	0.167904	0.029694	0.00253993	0.000398554	0	0	0	
0.181	-0.168122	-0.0169882	0.00305675	0.000557983	0	0	0	
0.181167	0.118467	0.00155298	0.00312497	0.000538712	0	0	0	
0.181333	-0.0877593	-0.00565415	0.00270157	0.000347483	0	0	0	
0.1815	0.0868099	0.015798	0.00215202	0.000194923	0	0	0	
0.181667	-0.125278	-0.0260457	0.00179758	0.000224039	0	0	0	
0.181833	0.167845	0.0151202	0.0021231	0.000418883	0	0	0	
0.182	-0.163319	0.00876517	0.0025998	0.000490887	0	0	0	
0.182167	0.146832	-0.0181072	0.00304381	0.000474877	0	0	0	
0.182333	-0.0901754	-0.00362416	0.00289328	0.000434433	0	0	0	
0.1825	0.0766817	0.0120029	0.00241012	0.000385503	0	0	0	
0.182667	-0.104966	-0.00709036	0.00191444	0.000353165	0	0	0	
0.182833	0.169323	0.0228376	0.00198083	0.000226141	0	0	0	
0.183	-0.181821	-0.026679	0.0025305	0.000324887	0	0	0	
0.183167	0.180891	-0.00293271	0.00315855	0.0005721	0	0	0	
0.183333	-0.130935	0.0190759	0.00333626	0.000791157	0	0	0	
0.1835	0.0905885	-0.00963376	0.00292435	0.000678976	0	0	0	
0.183667	-0.0841488	-0.00376702	0.00229662	0.000417123	0	0	0	
0.183833	0.11437	0.0152459	0.00182053	0.000204085	0	0	0	
0.184	-0.166769	-0.0182683	0.00206384	0.000261131	0	0	0	
0.184167	0.153865	0.0241594	0.00253016	0.000349992	0	0	0	
0.184333	-0.142797	-0.0221611	0.00292306	0.000454211	0	0	0	
0.1845	0.089553	0.0103241	0.00275831	0.00043689	0	0	0	
0.184667	-0.0797791	-0.00446626	0.00226959	0.000352578	0	0	0	
0.184833	0.0996258	0.00683444	0.00184978	0.000233159	0	0	0	
0.185	-0.161974	-0.0199575	0.00192752	0.000199721	0	0	0	
0.185167	0.163879	0.0283558	0.00241462	0.000277287	0	0	0	
0.185333	-0.174792	-0.0299898	0.00297671	0.000432993	0	0	0	
0.1855	0.119512	0.0150827	0.00315337	0.00051239	0	0	0	
0.185667	-0.0775474	-0.00789585	0.00276328	0.000448972	0	0	0	
0.185833	0.0825305	0.00891709	0.002163	0.000310102	0	0	0	
0.186	-0.122159	-0.0138938	0.00175045	0.000233065	0	0	0	
0.186167	0.163438	0.0163901	0.00203657	0.000294214	0	0	0	
0.186333	-0.160213	-0.0229317	0.00256261	0.000397081	0	0	0	
0.1865	0.148001	0.0183983	0.00295571	0.000452371	0	0	0	
0.186667	-0.0971773	-0.0105068	0.002837	0.000423742	0	0	0	
0.186833	0.0808217	0.00857736	0.00236484	0.000323489	0	0	0	
0.187	-0.0971717	-0.0187027	0.001916	0.000258636	0	0	0	
0.187167	0.158089	0.0327635	0.00191282	0.00032287	0	0	0	
0.187333	-0.171245	-0.0309802	0.00239388	0.000485803	0	0	0	
0.1875	0.175317	0.0210319	0.002943	0.000640721	0	0	0	
0.187667	-0.132168	-0.00906161	0.00318702	0.000606255	0	0	0	
0.187833	0.0848192	0.00580432	0.00281771	0.000431794	0	0	0	
0.188	-0.0788471	-0.00970533	0.0022421	0.000246484	0	0	0	
0.188167	0.103919	0.0178111	0.00174748	0.000182409	0	0	0	
0.188333	-0.15338	-0.0292524	0.00190627	0.000317024	0	0	0	
0.1885	0.155579	0.0312141	0.00238016	0.000465946	0	0	0	
0.188667	-0.159369	-0.0273953	0.00282328	0.00057414	0	0	0	
0.188833	0.103451	0.0144341	0.00283261	0.000542605	0	0	0	
0.189	-0.0816869	-0.0062472	0.00241902	0.000425286	0	0	0	
0.189167	0.0987904	0.0144426	0.00199489	0.000299678	0	0	0	
0.189333	-0.168475	-0.0300819	0.00199255	0.000295707	0	0	0	
0.1895	0.164332	0.0332915	0.00246031	0.000433598	0	0	0	
0.189667	-0.169797	-0.0235257	0.0029364	0.000583265	0	0	0	
0.189833	0.136692	0.0106735	0.00313543	0.000573704	0	0	0	
0.19	-0.0887409	-0.0056615	0.00278413	0.000414342	0	0	0	
0.190167	0.0781751	0.00896312	0.00227309	0.000249904	0	0	0	
0.190333	-0.111503	-0.0168628	0.00180207	0.000179016	0	0	0	
0.1905	0.163989	0.0305197	0.00197664	0.00029304	0	0	0	
0.190667	-0.177906	-0.0319635	0.00255553	0.000485549	0	0	0	
0.190833	0.16281	0.0206309	0.00305013	0.000606521	0	0	0	
0.191	-0.100929	-0.00898689	0.00302868	0.000545527	0	0	0	
0.191167	0.0768358	0.00652757	0.00247015	0.000359806	0	0	0	
0.191333	-0.0954035	-0.0107983	0.00193971	0.000220031	0	0	0	
0.1915	0.159318	0.0229799	0.00186208	0.000208548	0	0	0	
0.191667	-0.169209	-0.0344166	0.00236331	0.00035468	0	0	0	
0.191833	0.16429	0.0248083	0.00282369	0.000488127	0	0	0	
0.192	-0.136777	-0.0131008	0.00307325	0.00054001	0	0	0	
0.192167	0.0855235	0.00482984	0.00272929	0.000420534	0	0	0	
0.192333	-0.0812361	-0.00618651	0.00227059	0.000277182	0	0	0	
0.1925	0.109534	0.0104782	0.00182756	0.00017965	0	0	0	
0.192667	-0.162086	-0.0218436	0.00196174	0.000230741	0	0	0	
0.192833	0.174687	0.0122564	0.00250977	0.00029834	0	0	0	
0.193	-0.174796	-0.0150673	0.00301901	0.00035577	0	0	0	
0.193167	0.111356	0.00994364	0.00311805	0.00031355	0	0	0	
0.193333	-0.081916	-0.0105034	0.0026304	0.000264765	0	0	0	
0.1935	0.089818	0.0144186	0.00206611	0.000227118	0	0	0	
0.193667	-0.156419	-0.0213772	0.00184855	0.000271518	0	0	0	
0.193833	0.174687	0.0161766	0.00232733	0.000348326	0	0	0	
0.194	-0.173752	-0.0197656	0.00286619	0.000459138	0	0	0	
0.194167	0.138407	0.014432	0.00316721	0.000489145	0	0	0	
0.194333	-0.0885803	-0.00532615	0.0027808	0.000428881	0	0	0	
0.1945	0.0789845	0.00628039	0.00224403	0.000285147	0	0	0	
0.194667	-0.111637	-0.0125282	0.00180006	0.000175549	0	0	0	
0.194833	0.166398	0.0218755	0.00198996	0.000207989	0	0	0	
0.195	-0.179402	-0.0218417	0.00256674	0.000328191	0	0	0	
0.195167	0.162106	0.0221993	0.00301891	0.000436673	0	0	0	
0.195333	-0.108298	-0.0120589	0.00302224	0.000450276	0	0	0	
0.1955	0.0821822	0.00586817	0.00250614	0.000356098	0	0	0	
0.195667	-0.0950706	-0.00910954	0.00201934	0.000243622	0	0	0	
0.195833	0.158292	0.0233925	0.00188862	0.000216706	0	0	0	
0.196	-0.176802	-0.0328395	0.0023815	0.000343783	0	0	0	
0.196167	0.168175	0.0271759	0.00286414	0.000488244	0	0	0	
0.196333	-0.13907	-0.0194505	0.00313081	0.000558181	0	0	0	
0.1965	0.0855004	0.00859035	0.00273619	0.00045616	0	0	0	
0.196667	-0.079248	-0.00656973	0.00222752	0.000319631	0	0	0	
0.196833	0.111246	0.00884743	0.00180064	0.000199604	0	0	0	
0.197	-0.167601	-0.0199674	0.0019941	0.000218754	0	0	0	
0.197167	0.188081	0.0183612	0.00258335	0.000271005	0	0	0	
0.197333	-0.16655	-0.0235996	0.00307141	0.000357195	0	0	0	
0.1975	0.105189	0.0140347	0.00307781	0.000373683	0	0	0	
0.197667	-0.0827473	-0.00843794	0.0025567	0.000338722	0	0	0	
0.197833	0.0899268	0.0106851	0.0020174	0.000265359	0	0	0	
0.198	-0.141758	-0.0182234	0.00179581	0.000226571	0	0	0	
0.198167	0.163332	0.0195245	0.00219032	0.000284795	0	0	0	
0.198333	-0.171429	-0.0161748	0.00263932	0.000382132	0	0	0	
0.1985	0.152505	0.0102663	0.00302863	0.000394769	0	0	0	
0.198667	-0.0924698	-0.00720904	0.00281664	0.000315396	0	0	0	
0.198833	0.0766992	0.00842366	0.00236705	0.000208285	0	0	0	
0.199	-0.114455	-0.0119212	0.00189155	0.000165603	0	0	0	
0.199167	0.171249	0.0240302	0.00203253	0.000227303	0	0	0	
0.199333	-0.188183	-0.0436752	0.00260074	0.000404129	0	0	0	
0.1995	0.167013	0.0355989	0.00311662	0.000625235	0	0	0	
0.199667	-0.108088	-0.016722	0.00310699	0.000784351	0	0	0	
0.199833	0.0727818	-0.00741422	0.002571	0.000743167	0	0	0	
0.2	-0.0796367	0.0145636	0.00195984	0.00052476	0	0	0	
0.200167	0.153447	-0.0162493	0.00180164	0.000422235	0	0	0	
0.200333	-0.0153799	0.105127	0.00208605	0.00091398	0	0	0	
0.2005	0.170805	0.0513036	0.0022003	0.00130201	0	0	0	
0.200667	-0.149047	-0.0649183	0.00257052	0.00156281	0	0	0	
0.200833	0.129927	0.049365	0.00265326	0.00131995	0	0	0	
0.201	-0.116055	-0.0240239	0.00292798	0.00107966	0	0	0	
0.201167	0.161345	-0.00167205	0.00264517	0.000805229	0	0	0	
0.201333	-0.178932	0.0153962	0.00290257	0.000507367	0	0	0	
0.2015	0.192944	-3.09271E-05	0.00320561	0.000335498	0	0	0	
0.201667	-0.198461	-0.00829359	0.00356181	0.000202834	0	0	0	
0.201833	0.197872	0.0157411	0.00360939	0.000148856	0	0	0	
0.202	-0.186497	-0.0188516	0.00363417	0.000226472	0	0	0	
0.202167	0.17065	0.0267999	0.00355369	0.000347315	0	0	0	
0.202333	-0.168947	-0.0319237	0.00335657	0.000438945	0	0	0	
0.2025	0.172876	0.0323376	0.00322184	0.000533966	0	0	0	
0.202667	-0.180515	-0.0267678	0.00323101	0.000590382	0	0	0	
0.202833	0.180164	0.0199452	0.00331469	0.000593655	0	0	0	
0.203	-0.181269	-0.0189274	0.003369	0.000535193	0	0	0	
0.203167	0.181711	0.0222005	0.00337565	0.000469346	0	0	0	
0.203333	-0.183886	-0.0299817	0.00339386	0.000459367	0	0	0	
0.2035	0.175778	0.0314902	0.00340753	0.000502181	0	0	0	
0.203667	-0.180695	-0.0327146	0.00339721	0.000567288	0	0	0	
0.203833	0.185518	0.0312869	0.00338235	0.000611974	0	0	0	
0.204	-0.189868	-0.030657	0.00341475	0.000635195	0	0	0	
0.204167	0.183136	0.0266453	0.00348076	0.000642385	0	0	0	
0.204333	-0.176403	-0.0246967	0.00347835	0.000619375	0	0	0	
0.2045	0.170599	0.0229947	0.00338916	0.000560269	0	0	0	
0.204667	-0.176427	-0.0280865	0.00328417	0.000513857	0	0	0	
0.204833	0.177618	0.0267123	0.00325701	0.000505447	0	0	0	
0.205	-0.185806	-0.0229388	0.00331586	0.000524523	0	0	0	
0.205167	0.186656	0.0229058	0.00340991	0.000524675	0	0	0	
0.205333	-0.186847	-0.0294936	0.00345973	0.000510275	0	0	0	
0.2055	0.179323	0.0321575	0.00346405	0.000527406	0	0	0	
0.205667	-0.179967	-0.0270162	0.00342274	0.000564589	0	0	0	
0.205833	0.177788	0.0235631	0.00338442	0.000573052	0	0	0	
0.206	-0.176118	-0.0295946	0.00334465	0.000551855	0	0	0	
0.206167	0.172821	0.0291618	0.00330527	0.000551175	0	0	0	
0.206333	-0.181268	-0.0223383	0.0032895	0.00056729	0	0	0	
0.2065	0.185511	0.0237908	0.00332795	0.000561727	0	0	0	
0.206667	-0.189932	-0.0265528	0.00341041	0.000525405	0	0	0	
0.206833	0.178752	0.0274739	0.00346935	0.000506949	0	0	0	
0.207	-0.175351	-0.0264484	0.0034259	0.000514934	0	0	0	
0.207167	0.178884	0.0281556	0.00336966	0.00052461	0	0	0	
0.207333	-0.178109	-0.0330765	0.00333442	0.0005576	0	0	0	
0.2075	0.172303	0.0310381	0.00333018	0.000587157	0	0	0	
0.207667	-0.182545	-0.0262958	0.00332721	0.000611821	0	0	0	
0.207833	0.196743	0.0201917	0.0033736	0.00057822	0	0	0	
0.208	-0.195179	-0.0154475	0.00349535	0.00050399	0	0	0	
0.208167	0.169304	0.0164259	0.00353846	0.000415141	0	0	0	
0.208333	-0.159309	-0.0268153	0.00340688	0.000387683	0	0	0	
0.2085	0.179867	0.0417585	0.00325821	0.000470551	0	0	0	
0.208667	-0.207719	-0.0487941	0.00333013	0.000643345	0	0	0	
0.208833	0.199563	0.0281277	0.00354671	0.000789962	0	0	0	
0.209	-0.1693	0.0127066	0.00365516	0.000844705	0	0	0	
0.209167	0.133567	-0.0598274	0.00378928	0.00102059	0	0	0	
0.209333	-0.0408802	0.175096	0.00385412	0.003386	0	0	0	
0.2095	0.141347	-0.0228478	0.00336673	0.00354977	0	0	0	
0.209667	-0.17848	-0.0550616	0.00306475	0.00345572	0	0	0	
0.209833	0.222686	0.102444	0.00304055	0.00127933	0	0	0	
0.21	-0.265274	-0.0673726	0.0039478	0.00142786	0	0	0	
0.210167	0.218481	-0.0430357	0.00454157	0.00173646	0	0	0	
0.210333	-0.23669	0.0686549	0.00442948	0.00322814	0	0	0	
0.2105	0.225428	-0.0384103	0.00488206	0.00412782	0	0	0	
0.210667	-0.189683	0.0460616	0.00456041	0.0037011	0	0	0	
0.210833	0.151461	0.0191609	0.00448076	0.00222469	0	0	0	
0.211	-0.109228	-0.0543325	0.00330833	0.00138548	0	0	0	
0.211167	0.062406	0.063357	0.0026996	0.00157223	0	0	0	
0.211333	-0.0628176	-0.0398024	0.00245782	0.00139526	0	0	0	
0.2115	0.129639	0.0106173	0.00260387	0.00104467	0	0	0	
0.211667	-0.22744	6.74479E-05	0.00306943	0.000969751	0	0	0	
0.211833	0.245557	-0.0119553	0.00367916	0.000932797	0	0	0	
0.212	-0.204287	0.01677	0.00403472	0.000774571	0	0	0	
0.212167	0.160528	-0.00142307	0.00399466	0.000481089	0	0	0	
0.212333	-0.144541	-0.0258058	0.00348583	0.000327927	0	0	0	
0.2125	0.155764	0.0383751	0.00305096	0.000411686	0	0	0	
0.212667	-0.180556	-0.03827	0.00296551	0.000579459	0	0	0	
0.212833	0.191091	0.0300742	0.00317383	0.000674646	0	0	0	
0.213	-0.192603	-0.0200227	0.00341265	0.00067008	0	0	0	
0.213167	0.186224	0.012419	0.00351067	0.000619745	0	0	0	
0.213333	-0.183129	-0.0117583	0.00348469	0.000518465	0	0	0	
0.2135	0.1781	0.0160144	0.00342723	0.000408681	0	0	0	
0.213667	-0.185071	-0.0220114	0.00338821	0.000345659	0	0	0	
0.213833	0.186663	0.0251596	0.00339512	0.000366873	0	0	0	
0.214	-0.178617	-0.0296955	0.00341604	0.000438993	0	0	0	
0.214167	0.165885	0.0316613	0.00336493	0.000518223	0	0	0	
0.214333	-0.17283	-0.0357674	0.00326492	0.000583816	0	0	0	
0.2145	0.177599	0.0338686	0.00320841	0.000636417	0	0	0	
0.214667	-0.185261	-0.0286363	0.00325319	0.00065165	0	0	0	
0.214833	0.187684	0.0256579	0.00336025	0.000651803	0	0	0	
0.215	-0.190232	-0.0258484	0.00344806	0.000615715	0	0	0	
0.215167	0.185082	0.0223279	0.00348362	0.000568514	0	0	0	
0.215333	-0.183494	-0.0238652	0.00347214	0.000507809	0	0	0	
0.2155	0.173316	0.0266645	0.00341324	0.000481136	0	0	0	
0.215667	-0.177529	-0.0368759	0.00335868	0.000509326	0	0	0	
0.215833	0.183881	0.0392581	0.00333788	0.000610364	0	0	0	
0.216	-0.188198	-0.0290258	0.00336884	0.000684092	0	0	0	
0.216167	0.18506	0.0140192	0.0034293	0.000660708	0	0	0	
0.216333	-0.188362	-0.0137476	0.00345752	0.000512486	0	0	0	
0.2165	0.188508	0.0212281	0.00346997	0.00039063	0	0	0	
0.216667	-0.182101	-0.0312543	0.00346429	0.000383314	0	0	0	
0.216833	0.177407	0.0309186	0.00343571	0.000481524	0	0	0	
0.217	-0.181451	-0.0296373	0.00339669	0.000554041	0	0	0	
0.217167	0.184372	0.0309413	0.00338607	0.000584211	0	0	0	
0.217333	-0.186287	-0.0311286	0.0034047	0.000582943	0	0	0	
0.2175	0.182714	0.0304593	0.00342724	0.000601725	0	0	0	
0.217667	-0.17445	-0.0278327	0.00340527	0.00062189	0	0	0	
0.217833	0.17886	0.0148155	0.00334873	0.000600396	0	0	0	
0.218	-0.193952	-0.014769	0.00336402	0.000528123	0	0	0	
0.218167	0.192654	0.0184551	0.00344216	0.000434531	0	0	0	
0.218333	-0.182175	-0.0220248	0.00351669	0.000388325	0	0	0	
0.2185	0.173096	0.0299028	0.00346017	0.000422754	0	0	0	
0.218667	-0.173654	-0.0418447	0.00334708	0.000528638	0	0	0	
0.218833	0.173123	0.0409042	0.00325405	0.000650541	0	0	0	
0.219	-0.178415	-0.0343817	0.00324757	0.000751891	0	0	0	
0.219167	0.182224	0.0196795	0.0032725	0.000752905	0	0	0	
0.219333	-0.186853	-0.0157229	0.00333156	0.000654792	0	0	0	
0.2195	0.183735	0.0166507	0.00338397	0.000506607	0	0	0	
0.219667	-0.178538	-0.022724	0.00340952	0.000412788	0	0	0	
0.219833	0.162677	0.0231759	0.00334252	0.000403266	0	0	0	
0.22	-0.16489	-0.0259618	0.00320763	0.000434278	0	0	0	
0.220167	0.17692	0.0271322	0.00313238	0.000471777	0	0	0	
0.220333	-0.189254	-0.0329479	0.00319641	0.000513639	0	0	0	
0.2205	0.180569	0.0355443	0.00333959	0.00057268	0	0	0	
0.220667	-0.181961	-0.035216	0.00340759	0.00062926	0	0	0	
0.220833	0.187017	0.0285976	0.00342263	0.000659918	0	0	0	
0.221	-0.188062	-0.025685	0.00342648	0.000647513	0	0	0	
0.221167	0.177182	0.018633	0.0034326	0.000588239	0	0	0	
0.221333	-0.184912	-0.0177654	0.00341138	0.000496485	0	0	0	
0.2215	0.181793	0.0213547	0.0033885	0.000432455	0	0	0	
0.221667	-0.181318	-0.0309263	0.00338627	0.000420683	0	0	0	
0.221833	0.174712	0.0323831	0.00336556	0.000491197	0	0	0	
0.222	-0.181706	-0.020059	0.00334298	0.000545135	0	0	0	
0.222167	0.181683	0.00805767	0.00332499	0.000519903	0	0	0	
0.222333	-0.18403	-0.0130529	0.00336277	0.000408607	0	0	0	
0.2225	0.184887	0.0231989	0.00338276	0.000357197	0	0	0	
0.222667	-0.189502	-0.019125	0.00342981	0.000350077	0	0	0	
0.222833	0.171394	0.0139067	0.00340602	0.000394702	0	0	0	
0.223	-0.174514	-0.0180805	0.00335948	0.000398089	0	0	0	
0.223167	0.182102	0.0346659	0.00329237	0.000469254	0	0	0	
0.223333	-0.182649	-0.0349019	0.00331439	0.000566335	0	0	0	
0.2235	0.174769	0.0163992	0.00331885	0.000667572	0	0	0	
0.223667	-0.18208	-0.0189511	0.00334215	0.000680246	0	0	0	
0.223833	0.183635	0.0244526	0.00332791	0.000664877	0	0	0	
0.224	-0.178076	-0.00261017	0.00335481	0.000636788	0	0	0	
0.224167	0.169856	-0.0104307	0.00331612	0.000628163	0	0	0	
0.224333	-0.178898	-0.00568189	0.00328613	0.000467253	0	0	0	
0.2245	0.183591	0.0235057	0.00327404	0.000382083	0	0	0	
0.224667	-0.18742	-0.0372932	0.00335034	0.000386602	0	0	0	
0.224833	0.182376	0.043375	0.00339968	0.000581457	0	0	0	
0.225	-0.178977	-0.0443117	0.00341584	0.00073456	0	0	0	
0.225167	0.185523	0.0322563	0.0033911	0.000774802	0	0	0	
0.225333	-0.181413	-0.0221693	0.00337411	0.000797592	0	0	0	
0.2255	0.167359	0.00853375	0.00333875	0.000680797	0	0	0	
0.225667	-0.173933	-0.014358	0.00324796	0.000525284	0	0	0	
0.225833	0.182583	0.0208296	0.00325379	0.000390108	0	0	0	
0.226	-0.177113	-0.0253548	0.00327618	0.00039505	0	0	0	
0.226167	0.179905	0.0302184	0.00333342	0.000470824	0	0	0	
0.226333	-0.187061	-0.0510467	0.00333108	0.000594508	0	0	0	
0.2265	0.190035	0.0332904	0.00338287	0.000706035	0	0	0	
0.226667	-0.188374	-0.0274552	0.00343829	0.0007635	0	0	0	
0.226833	0.171669	0.0321209	0.0034611	0.000729294	0	0	0	
0.227	-0.173039	-0.0362348	0.0033631	0.00067189	0	0	0	
0.227167	0.18244	0.0392836	0.00331035	0.000687757	0	0	0	
0.227333	-0.182987	-0.0418982	0.00328761	0.00072054	0	0	0	
0.2275	0.173439	0.0284667	0.003308	0.000726411	0	0	0	
0.227667	-0.187559	-0.0125396	0.00333463	0.000621633	0	0	0	
0.227833	0.188465	0.0192882	0.00336709	0.000483687	0	0	0	
0.228	-0.186398	-0.0304129	0.00344272	0.000455164	0	0	0	
0.228167	0.143578	0.0449368	0.00334377	0.000532804	0	0	0	
0.228333	-0.278439	-0.202093	0.00345816	0.00112379	0	0	0	
0.2285	0.211345	0.0138555	0.00442625	0.00145403	0	0	0	
0.228667	-0.187361	0.00100877	0.00454188	0.00143797	0	0	0	
0.228833	0.151021	0.00678515	0.00438596	0.000886252	0	0	0	
0.229	-0.132472	-0.00904567	0.00314907	0.000441456	0	0	0	
0.229167	0.133865	0.00815404	0.00284832	0.000335656	0	0	0	
0.229333	-0.149888	-0.0303505	0.00241745	0.000471839	0	0	0	
0.2295	0.147088	0.0152643	0.00245117	0.000684202	0	0	0	
0.229667	-0.16296	-0.00360838	0.00263623	0.000762695	0	0	0	
0.229833	0.126023	0.00487115	0.00288234	0.000531922	0	0	0	
0.23	-0.105464	-0.00547496	0.00265583	0.000269089	0	0	0	
0.230167	0.0982893	0.0100164	0.0022733	0.000151374	0	0	0	
0.230333	-0.129766	-0.0252681	0.00200192	0.00018892	0	0	0	
0.2305	0.161111	0.033679	0.00224597	0.000372291	0	0	0	
0.230667	-0.160186	-0.0301598	0.00260188	0.000547059	0	0	0	
0.230833	0.149727	0.0230346	0.00291065	0.000678436	0	0	0	
0.231	-0.0944357	-0.0107648	0.00271843	0.000610898	0	0	0	
0.231167	0.08225	0.0101108	0.00225492	0.000459394	0	0	0	
0.231333	-0.105309	-0.0126477	0.00186851	0.000299301	0	0	0	
0.2315	0.17182	0.015123	0.00199069	0.000252715	0	0	0	
0.231667	-0.176609	-0.0140382	0.00252983	0.00028746	0	0	0	
0.231833	0.181739	0.0153853	0.00306208	0.000306501	0	0	0	
0.232	-0.129381	-0.0122892	0.00319843	0.000304071	0	0	0	
0.232167	0.0835093	0.011703	0.00277068	0.00026164	0	0	0	
0.232333	-0.0800616	-0.0102902	0.00216214	0.000239766	0	0	0	
0.2325	0.122762	0.0125756	0.00175118	0.000221052	0	0	0	
0.232667	-0.168132	-0.0165257	0.00204959	0.000282784	0	0	0	
0.232833	0.168376	0.0161266	0.00262099	0.000333716	0	0	0	
0.233	-0.161548	-0.0122992	0.00302899	0.000343723	0	0	0	
0.233167	0.106233	0.00519666	0.00291117	0.000270859	0	0	0	
0.233333	-0.0884189	-0.00590282	0.00241464	0.000191078	0	0	0	
0.2335	0.100416	0.0140506	0.00201487	0.000167305	0	0	0	
0.233667	-0.167196	-0.032476	0.00202518	0.000264718	0	0	0	
0.233833	0.17385	0.0429362	0.00250528	0.000446823	0	0	0	
0.234	-0.176274	-0.0399986	0.00295445	0.000635564	0	0	0	
0.234167	0.123659	0.0223719	0.00309506	0.000702489	0	0	0	
0.234333	-0.0824208	-0.00883907	0.00265169	0.000604876	0	0	0	
0.2345	0.0800723	-0.00211265	0.00210219	0.000457383	0	0	0	
0.234667	-0.119064	0.00332944	0.00171998	0.000341106	0	0	0	
0.234833	0.165426	0.0162428	0.00199947	0.000307271	0	0	0	
0.235	-0.166509	-0.0111609	0.00255847	0.000281189	0	0	0	
0.235167	0.157836	-0.0010252	0.00296701	0.000246148	0	0	0	
0.235333	-0.0996379	0.0035839	0.00286919	0.000234078	0	0	0	
0.2355	0.083692	0.0172689	0.00235869	0.000275137	0	0	0	
0.235667	-0.105633	-0.0289232	0.00192615	0.000330163	0	0	0	
0.235833	0.16997	0.0386245	0.00195799	0.000527245	0	0	0	
0.236	-0.169302	-0.0306887	0.00247309	0.000669829	0	0	0	
0.236167	0.169778	0.0265836	0.00292547	0.000861853	0	0	0	
0.236333	-0.126865	-0.00363581	0.00305529	0.000880296	0	0	0	
0.2365	0.085566	-0.0096305	0.00262074	0.000790854	0	0	0	
0.236667	-0.0867312	-0.00053543	0.00212885	0.000497367	0	0	0	
0.236833	0.124288	0.0248986	0.00181994	0.000314263	0	0	0	
0.237	-0.180398	-0.0476995	0.00214166	0.000349321	0	0	0	
0.237167	0.181833	0.0438463	0.00277626	0.000631193	0	0	0	
0.237333	-0.164277	-0.0194611	0.00317058	0.00076174	0	0	0	
0.2375	0.108989	0.000299262	0.00307189	0.000674285	0	0	0	
0.237667	-0.097817	-0.00146225	0.0025155	0.000404315	0	0	0	
0.237833	0.107578	0.00940637	0.00212459	0.000192279	0	0	0	
0.238	-0.164826	-0.0293135	0.00208935	0.000203317	0	0	0	
0.238167	0.171184	0.0296672	0.0025523	0.000355734	0	0	0	
0.238333	-0.179823	-0.0305452	0.00291614	0.000514299	0	0	0	
0.2385	0.145255	0.0213625	0.00313735	0.000553431	0	0	0	
0.238667	-0.102617	-0.013619	0.00279595	0.00051131	0	0	0	
0.238833	0.0922147	0.00898894	0.00240616	0.000405165	0	0	0	
0.239	-0.121925	-0.0133928	0.00201579	0.00031113	0	0	0	
0.239167	0.166973	0.0160178	0.00219112	0.000280501	0	0	0	
0.239333	-0.182565	-0.0113671	0.00267988	0.00031458	0	0	0	
0.2395	0.169575	0.0117137	0.00309811	0.000339589	0	0	0	
0.239667	-0.118026	-0.0102137	0.00309788	0.00031287	0	0	0	
0.239833	0.0992625	0.0162459	0.0026392	0.000273847	0	0	0	
0.24	-0.104346	-0.0236853	0.00220412	0.000277228	0	0	0	
0.240167	0.15348	0.0369065	0.00205314	0.000439433	0	0	0	
0.240333	-0.18179	-0.0254369	0.00247461	0.000633451	0	0	0	
0.2405	0.193071	0.0234368	0.00295222	0.000806436	0	0	0	
0.240667	-0.192843	-0.00754375	0.00343108	0.000783312	0	0	0	
0.240833	0.120487	-0.000414553	0.00328333	0.000618933	0	0	0	
0.241	-0.0896253	-0.0123295	0.00282686	0.000389668	0	0	0	
0.241167	0.112736	0.0408399	0.00221578	0.000328773	0	0	0	
0.241333	-0.164692	-0.049548	0.00217136	0.000469953	0	0	0	
0.2415	0.165792	0.0491591	0.00260504	0.000765363	0	0	0	
0.241667	-0.168719	-0.0402418	0.0030086	0.000885195	0	0	0	
0.241833	0.102219	0.0247715	0.00311135	0.000881701	0	0	0	
0.242	-0.0879294	-0.00580158	0.00262032	0.00068077	0	0	0	
0.242167	0.0943848	0.00631775	0.00216568	0.000465129	0	0	0	
0.242333	-0.156353	-0.023648	0.00193206	0.000308797	0	0	0	
0.2425	0.189361	0.0276983	0.00245021	0.000346034	0	0	0	
0.242667	-0.191536	-0.016657	0.00296218	0.000427627	0	0	0	
0.242833	0.143076	0.0111847	0.00326605	0.000449907	0	0	0	
0.243	-0.0838598	-0.00711569	0.00281615	0.00032009	0	0	0	
0.243167	0.076395	0.0119802	0.00223615	0.000232948	0	0	0	
0.243333	-0.106185	-0.0199478	0.00175157	0.000211497	0	0	0	
0.2435	0.156211	0.0289061	0.00193814	0.000307285	0	0	0	
0.243667	-0.181472	-0.0255733	0.00250241	0.000443638	0	0	0	
0.243833	0.17445	0.0175617	0.00299666	0.000540963	0	0	0	
0.244	-0.117425	-0.00635399	0.0030737	0.00053498	0	0	0	
0.244167	0.0873553	0.00394677	0.00261209	0.000388176	0	0	0	
0.244333	-0.095771	-0.0128497	0.00209966	0.000249547	0	0	0	
0.2445	0.155411	0.0359575	0.00189348	0.000260998	0	0	0	
0.244667	-0.177816	-0.0348214	0.00234758	0.000452491	0	0	0	
0.244833	0.17561	0.0317844	0.00282074	0.000646056	0	0	0	
0.245	-0.149808	-0.0194797	0.00312824	0.000702321	0	0	0	
0.245167	0.092893	0.00310792	0.00279407	0.000571329	0	0	0	
0.245333	-0.0802838	-0.000781096	0.00228871	0.000367186	0	0	0	
0.2455	0.119021	0.010634	0.00185966	0.000189848	0	0	0	
0.245667	-0.178299	-0.0226546	0.0020874	0.000214278	0	0	0	
0.245833	0.190233	0.0353122	0.0026928	0.000351025	0	0	0	
0.246	-0.170948	-0.0308997	0.00319576	0.000525347	0	0	0	
0.246167	0.108812	0.0147692	0.00312481	0.000532706	0	0	0	
0.246333	-0.0826245	-0.00810773	0.00256281	0.000440744	0	0	0	
0.2465	0.0888975	0.010669	0.00197857	0.000283618	0	0	0	
0.246667	-0.150616	-0.0266095	0.00177651	0.000261115	0	0	0	
0.246833	0.177651	0.0358691	0.00226623	0.000397886	0	0	0	
0.247	-0.167538	-0.0317574	0.00273054	0.000558447	0	0	0	
0.247167	0.139683	0.0234778	0.00301256	0.000625026	0	0	0	
0.247333	-0.0884579	-0.0106891	0.00265201	0.000519034	0	0	0	
0.2475	0.0777303	0.00472254	0.00217812	0.000350554	0	0	0	
0.247667	-0.112832	-0.0124357	0.00179539	0.00021423	0	0	0	
0.247833	0.168115	0.0179861	0.00201749	0.000203267	0	0	0	
0.248	-0.184607	-0.0332529	0.00257803	0.000299317	0	0	0	
0.248167	0.182426	0.0257798	0.0031436	0.00045945	0	0	0	
0.248333	-0.122425	-0.0104534	0.00319247	0.000470732	0	0	0	
0.2485	0.0850861	0.00593828	0.0027329	0.000375639	0	0	0	
0.248667	-0.0875544	-0.0113957	0.00211204	0.000219099	0	0	0	
0.248833	0.141853	0.0263682	0.00178886	0.000216714	0	0	0	
0.249	-0.170724	-0.0412805	0.00217883	0.000400886	0	0	0	
0.249167	0.157877	0.0307908	0.0026266	0.000587807	0	0	0	
0.249333	-0.139422	-0.0201077	0.00291172	0.000644725	0	0	0	
0.2495	0.0913089	0.00929569	0.00261031	0.000510701	0	0	0	
0.249667	-0.0822166	-0.0086185	0.00217069	0.000326251	0	0	0	
0.249833	0.11001	0.0210129	0.0018189	0.000251972	0	0	0	
0.25	-0.170231	-0.0348112	0.00202705	0.000335776	0	0	0	
0.250167	0.178235	0.0298208	0.00255829	0.000499719	0	0	0	
0.250333	-0.174547	-0.0276868	0.00308014	0.000576253	0	0	0	
0.2505	0.113605	0.0125	0.00308844	0.000531103	0	0	0	
0.250667	-0.0822236	-0.006459	0.00260706	0.000365911	0	0	0	
0.250833	0.0848215	0.00989361	0.00201257	0.000248649	0	0	0	
0.251	-0.129907	-0.0199606	0.00170721	0.00019555	0	0	0	
0.251167	0.161745	0.0198506	0.0020519	0.000273867	0	0	0	
0.251333	-0.159411	-0.0218835	0.00251878	0.000374936	0	0	0	
0.2515	0.143385	0.0119507	0.00285305	0.000437046	0	0	0	
0.251667	-0.0946111	-0.00159769	0.00264475	0.000348966	0	0	0	
0.251833	0.0859141	-0.00466568	0.00221488	0.000217203	0	0	0	
0.252	-0.113818	-0.00724561	0.00187288	0.000162954	0	0	0	
0.252167	0.169414	0.0334854	0.00206098	0.000322457	0	0	0	
0.252333	-0.172747	-0.045058	0.00255728	0.000530461	0	0	0	
0.2525	0.177995	0.0388534	0.00306109	0.000717178	0	0	0	
0.252667	-0.122413	-0.017591	0.0031235	0.000710037	0	0	0	
0.252833	0.0817517	0.0110616	0.00269308	0.000559734	0	0	0	
0.253	-0.0816005	-0.00231978	0.00208937	0.000341786	0	0	0	
0.253167	0.127046	0.00198149	0.00171884	0.000161494	0	0	0	
0.253333	-0.169926	-0.014519	0.00206133	0.000177198	0	0	0	
0.2535	0.163857	0.0307968	0.00259004	0.000288577	0	0	0	
0.253667	-0.151293	-0.0146294	0.00297937	0.000440524	0	0	0	
0.253833	0.0956634	0.00461937	0.00277147	0.000392882	0	0	0	
0.254	-0.0861565	-0.0061379	0.00228658	0.000249904	0	0	0	
0.254167	0.105933	0.01039	0.00188063	0.000134894	0	0	0	
0.254333	-0.166733	-0.0123304	0.00201545	0.000145155	0	0	0	
0.2545	0.16652	0.0268323	0.00249499	0.000267716	0	0	0	
0.254667	-0.18264	-0.0232793	0.00300427	0.000403343	0	0	0	
0.254833	0.121895	0.00978922	0.0031022	0.000468753	0	0	0	
0.255	-0.0813714	-0.00849428	0.00268262	0.000372529	0	0	0	
0.255167	0.0784691	0.0101808	0.00208566	0.00024351	0	0	0	
0.255333	-0.116203	-0.0280845	0.00166565	0.000207574	0	0	0	
0.2555	0.161278	0.0497517	0.00193807	0.000419867	0	0	0	
0.255667	-0.167617	-0.0462131	0.00247194	0.000688109	0	0	0	
0.255833	0.156921	0.020703	0.00292323	0.00081251	0	0	0	
0.256	-0.0983475	-0.0030414	0.00281456	0.000651676	0	0	0	
0.256167	0.0820071	0.00275943	0.00233025	0.000345065	0	0	0	
0.256333	-0.104554	-0.016013	0.00188148	0.000189669	0	0	0	
0.2565	0.17371	0.0274926	0.00200288	0.000235384	0	0	0	
0.256667	-0.176232	-0.0299745	0.00255871	0.000365464	0	0	0	
0.256833	0.188276	0.0273889	0.00311418	0.000495532	0	0	0	
0.257	-0.136309	-0.0147389	0.0032624	0.000485599	0	0	0	
0.257167	0.0905685	0.00608744	0.00283419	0.000414872	0	0	0	
0.257333	-0.0848987	-0.00820787	0.00226331	0.000276379	0	0	0	
0.2575	0.121569	0.0242296	0.00184838	0.000220596	0	0	0	
0.257667	-0.167938	-0.0398935	0.00210032	0.000355579	0	0	0	
0.257833	0.166266	0.0299685	0.00261984	0.000526675	0	0	0	
0.258	-0.157761	-0.0144707	0.00299381	0.000579766	0	0	0	
0.258167	0.0964905	0.00769831	0.00284125	0.000428101	0	0	0	
0.258333	-0.0812419	-0.00849631	0.00231151	0.00026255	0	0	0	
0.2585	0.101298	0.0188717	0.00187128	0.000205691	0	0	0	
0.258667	-0.17548	-0.0403732	0.00197434	0.000337905	0	0	0	
0.258833	0.176886	0.0320738	0.00254338	0.000500448	0	0	0	
0.259	-0.179185	-0.0228212	0.00304816	0.000600388	0	0	0	
0.259167	0.12413	0.00843266	0.00314023	0.000534882	0	0	0	
0.259333	-0.0831054	-0.0041365	0.00264423	0.000369458	0	0	0	
0.2595	0.0815751	0.0106949	0.00209036	0.000233703	0	0	0	
0.259667	-0.128524	-0.0212357	0.00177632	0.000181463	0	0	0	
0.259833	0.179833	0.0305084	0.00216445	0.000308591	0	0	0	
0.26	-0.180723	-0.0181145	0.00281411	0.000434564	0	0	0	
0.260167	0.156255	0.0140698	0.00318965	0.000501066	0	0	0	
0.260333	-0.0944566	-0.00650111	0.00295508	0.00038831	0	0	0	
0.2605	0.0774669	0.00773875	0.00231318	0.0002606	0	0	0	
0.260667	-0.0949809	-0.013836	0.0018257	0.000178594	0	0	0	
0.260833	0.162873	0.0283659	0.00186374	0.000248078	0	0	0	
0.261	-0.174898	-0.0249576	0.00243426	0.000359379	0	0	0	
0.261167	0.178137	0.0260437	0.00291876	0.000469419	0	0	0	
0.261333	-0.13581	-0.0169774	0.00311258	0.000480941	0	0	0	
0.2615	0.0821542	0.00973976	0.00265902	0.000399801	0	0	0	
0.261667	-0.075369	-0.00536798	0.00211865	0.000280055	0	0	0	
0.261833	0.115639	0.0092902	0.00171736	0.000174436	0	0	0	
0.262	-0.172468	-0.0179662	0.00201016	0.000215711	0	0	0	
0.262167	0.176774	0.0230322	0.00265007	0.000293871	0	0	0	
0.262333	-0.166898	-0.0210962	0.00311031	0.000392476	0	0	0	
0.2625	0.103753	0.00889751	0.00301595	0.000365503	0	0	0	
0.262667	-0.084749	-0.00626206	0.00245522	0.000281948	0	0	0	
0.262833	0.0955231	0.010209	0.00195512	0.000194737	0	0	0	
0.263	-0.165206	-0.0224166	0.00191321	0.000216331	0	0	0	
0.263167	0.172956	0.030584	0.0024287	0.000318827	0	0	0	
0.263333	-0.176088	-0.0267727	0.00289167	0.000433486	0	0	0	
0.2635	0.137879	0.0181891	0.00308507	0.00047049	0	0	0	
0.263667	-0.0890672	-0.00784594	0.00266643	0.000396285	0	0	0	
0.263833	0.0789922	0.00757528	0.00216763	0.000280544	0	0	0	
0.264	-0.120845	-0.0140106	0.00180838	0.000186518	0	0	0	
0.264167	0.172239	0.025094	0.00210705	0.000233875	0	0	0	
0.264333	-0.185976	-0.0208525	0.00273953	0.000333625	0	0	0	
0.2645	0.164172	0.0207275	0.00317323	0.000417539	0	0	0	
0.264667	-0.102507	-0.00952244	0.00303898	0.000383856	0	0	0	
0.264833	0.0828412	0.00919576	0.00244631	0.000289493	0	0	0	
0.265	-0.0992319	-0.0136344	0.00195233	0.000219277	0	0	0	
0.265167	0.162758	0.0221764	0.00191842	0.000245436	0	0	0	
0.265333	-0.176684	-0.0169557	0.00244755	0.000307306	0	0	0	
0.2655	0.177936	0.0205877	0.00289894	0.000380535	0	0	0	
0.265667	-0.145646	-0.0158687	0.00311813	0.000391477	0	0	0	
0.265833	0.0878662	0.00847303	0.00271742	0.00034402	0	0	0	
0.266	-0.0775162	-0.0106666	0.00221074	0.000262525	0	0	0	
0.266167	0.117918	0.0208058	0.00181545	0.000224138	0	0	0	
0.266333	-0.176184	-0.0332037	0.00208462	0.000302304	0	0	0	
0.2665	0.188856	0.0324248	0.00273416	0.000485058	0	0	0	
0.266667	-0.173	-0.0205277	0.00322007	0.000587812	0	0	0	
0.266833	0.109603	0.00588613	0.00315162	0.000519406	0	0	0	
0.267	-0.085395	-0.00660038	0.0025664	0.000312914	0	0	0	
0.267167	0.0915008	0.0109557	0.00200892	0.000176638	0	0	0	
0.267333	-0.155675	-0.0266469	0.00185672	0.000203651	0	0	0	
0.2675	0.170608	0.0287026	0.00233553	0.000371267	0	0	0	
0.267667	-0.171171	-0.0340452	0.00276755	0.000510274	0	0	0	
0.267833	0.135441	0.0209199	0.00300134	0.000587498	0	0	0	
0.268	-0.0881461	-0.00741031	0.00260067	0.000477509	0	0	0	
0.268167	0.0800727	0.00880026	0.00214884	0.000336087	0	0	0	
0.268333	-0.117979	-0.0220787	0.00179486	0.00024421	0	0	0	
0.2685	0.166496	0.0243438	0.0020779	0.000303394	0	0	0	
0.268667	-0.18611	-0.0257766	0.00263926	0.000412423	0	0	0	
0.268833	0.167055	0.0171971	0.00310543	0.00046071	0	0	0	
0.269	-0.107977	-0.0102172	0.00301908	0.000404306	0	0	0	
0.269167	0.0801563	0.0135193	0.00249338	0.000332362	0	0	0	
0.269333	-0.0868907	-0.0229007	0.00192423	0.000303738	0	0	0	
0.2695	0.145658	0.0380846	0.00175805	0.000396209	0	0	0	
0.269667	-0.171839	-0.0345548	0.00223643	0.000524726	0	0	0	
0.269833	0.165659	0.0291192	0.00270207	0.000629577	0	0	0	
0.27	-0.135347	-0.027923	0.00295293	0.000663473	0	0	0	
0.270167	0.0824468	0.00711738	0.00255989	0.000555752	0	0	0	
0.270333	-0.0806629	-0.00968869	0.00208979	0.000403345	0	0	0	
0.2705	0.120121	0.0426141	0.00177824	0.000361963	0	0	0	
0.270667	-0.167811	-0.0431582	0.00207081	0.00053068	0	0	0	
0.270833	0.1758	0.0328505	0.00260315	0.00071809	0	0	0	
0.271	-0.176165	-0.0227895	0.00307429	0.000742539	0	0	0	
0.271167	0.118068	0.00870734	0.00306786	0.000575625	0	0	0	
0.271333	-0.0846947	-0.00834718	0.00263048	0.000387855	0	0	0	
0.2715	0.0929454	0.0111617	0.00209014	0.000248893	0	0	0	
0.271667	-0.161474	-0.0135176	0.00188831	0.000241875	0	0	0	
0.271833	0.173053	0.017133	0.00236112	0.000284192	0	0	0	
0.272	-0.144186	-0.0284413	0.00272235	0.000352167	0	0	0	
0.272167	0.104727	0.026928	0.00283615	0.000425991	0	0	0	
0.272333	-0.0664724	-0.0128122	0.00228503	0.000441024	0	0	0	
0.2725	0.0717692	0.00737396	0.00182235	0.000367701	0	0	0	
0.272667	-0.119553	-0.0101704	0.00164526	0.0002418	0	0	0	
0.272833	0.196349	0.0268056	0.0021553	0.000227568	0	0	0	
0.273	-0.205319	-0.0404841	0.00288963	0.000361822	0	0	0	
0.273167	0.151874	0.0282756	0.003329	0.00054697	0	0	0	
0.273333	-0.0891969	-0.00994931	0.00302613	0.000578976	0	0	0	
0.2735	0.0852999	0.00823845	0.0023786	0.000448363	0	0	0	
0.273667	-0.074721	-0.00899589	0.0017742	0.000267983	0	0	0	
0.273833	0.112768	0.0175337	0.00149114	0.000222167	0	0	0	
0.274	-0.149252	-0.0246554	0.00181401	0.00029069	0	0	0	
0.274167	0.136333	0.0290138	0.00214285	0.000431435	0	0	0	
0.274333	-0.124986	-0.0160675	0.00255972	0.000476726	0	0	0	
0.2745	0.0752412	0.00602286	0.00230072	0.000410209	0	0	0	
0.274667	-0.0815559	-0.00290199	0.00198354	0.000240724	0	0	0	
0.274833	0.129054	0.00204156	0.00175282	0.000123863	0	0	0	
0.275	-0.192848	-0.0156011	0.00221551	0.000101877	0	0	0	
0.275167	0.179131	0.0270234	0.00283086	0.000216101	0	0	0	
0.275333	-0.17532	-0.0266471	0.00335006	0.000356575	0	0	0	
0.2755	0.110517	0.012943	0.0031758	0.000441769	0	0	0	
0.275667	-0.081976	-0.00764568	0.00262693	0.000358514	0	0	0	
0.275833	0.0794898	0.0118132	0.00196961	0.000262622	0	0	0	
0.276	-0.126498	-0.0266327	0.00164703	0.000240661	0	0	0	
0.276167	0.157505	0.0408882	0.0019926	0.00038894	0	0	0	
0.276333	-0.147784	-0.0356524	0.00244259	0.000542523	0	0	0	
0.2765	0.1345	0.0241571	0.00278596	0.000630247	0	0	0	
0.276667	-0.0856574	-0.00746672	0.00253186	0.000529034	0	0	0	
0.276833	0.0734278	0.00365933	0.0020704	0.000351308	0	0	0	
0.277	-0.098096	-0.0122475	0.00168409	0.000204611	0	0	0	
0.277167	0.164163	0.0314568	0.00187441	0.000228455	0	0	0	
0.277333	-0.174968	-0.0306018	0.00247583	0.000374778	0	0	0	
0.2775	0.179023	0.0282869	0.00305476	0.000506997	0	0	0	
0.277667	-0.120323	-0.0166525	0.0031373	0.000528903	0	0	0	
0.277833	0.0791883	0.00925543	0.00263809	0.000419183	0	0	0	
0.278	-0.0746742	-0.00711387	0.00201521	0.000286834	0	0	0	
0.278167	0.158996	0.0190786	0.0018207	0.000213133	0	0	0	
0.278333	-0.067046	0.124539	0.00261063	0.00051747	0	0	0	
0.2785	0.135829	0.0333162	0.00267597	0.000951964	0	0	0	
0.278667	-0.148247	-0.0399985	0.00292187	0.00112288	0	0	0	
0.278833	0.130722	0.0391833	0.0023072	0.00107284	0	0	0	
0.279	-0.134754	-0.0428413	0.00259131	0.000830829	0	0	0	
0.279167	0.146017	0.050813	0.00245432	0.000854871	0	0	0	
0.279333	-0.19571	-0.0263722	0.00300821	0.000740353	0	0	0	
0.2795	0.201271	0.019609	0.00348963	0.000639237	0	0	0	
0.279667	-0.19915	-0.00464284	0.00391108	0.0004726	0	0	0	
0.279833	0.185604	0.00378703	0.0037938	0.000304124	0	0	0	
0.28	-0.17104	-0.013182	0.00358662	0.00026279	0	0	0	
0.280167	0.160826	0.0273984	0.00334139	0.000355413	0	0	0	
0.280333	-0.166535	-0.0402566	0.00317689	0.0005439	0	0	0	
0.2805	0.174668	0.0405359	0.00315754	0.00069443	0	0	0	
0.280667	-0.182747	-0.0377271	0.00324319	0.000728435	0	0	0	
0.280833	0.184934	0.0316488	0.00335064	0.000711279	0	0	0	
0.281	-0.190044	-0.0233971	0.00343348	0.000642815	0	0	0	
0.281167	0.182231	0.0190176	0.00347434	0.000541366	0	0	0	
0.281333	-0.172863	-0.0235042	0.00343356	0.000457974	0	0	0	
0.2815	0.169358	0.0290835	0.00332817	0.000447318	0	0	0	
0.281667	-0.179352	-0.0368926	0.00325459	0.000523524	0	0	0	
0.281833	0.179579	0.0368706	0.00329658	0.000617836	0	0	0	
0.282	-0.176907	-0.0340659	0.00335799	0.000665725	0	0	0	
0.282167	0.177381	0.031536	0.00339542	0.000651409	0	0	0	
0.282333	-0.184883	-0.031183	0.00339238	0.000617217	0	0	0	
0.2825	0.187493	0.0270396	0.00344173	0.000577715	0	0	0	
0.282667	-0.189012	-0.0247173	0.00349302	0.00053922	0	0	0	
0.282833	0.180988	0.0234287	0.00350508	0.00049284	0	0	0	
0.283	-0.180095	-0.0269881	0.00344885	0.000471644	0	0	0	
0.283167	0.181381	0.0293147	0.00341751	0.000492117	0	0	0	
0.283333	-0.178885	-0.0294766	0.00340697	0.000522836	0	0	0	
0.2835	0.175934	0.0268801	0.00340482	0.000529754	0	0	0	
0.283667	-0.180356	-0.0290684	0.00337168	0.000525112	0	0	0	
0.283833	0.183831	0.0303861	0.00337151	0.000534498	0	0	0	
0.284	-0.183736	-0.0320192	0.00341428	0.000556553	0	0	0	
0.284167	0.18154	0.0312561	0.00345697	0.00058098	0	0	0	
0.284333	-0.176523	-0.0326525	0.00345179	0.000588882	0	0	0	
0.2845	0.173787	0.0309119	0.00339661	0.000594247	0	0	0	
0.284667	-0.17759	-0.030329	0.00335063	0.000581491	0	0	0	
0.284833	0.17925	0.0260296	0.00333438	0.000558453	0	0	0	
0.285	-0.176294	-0.0262403	0.00334491	0.000526888	0	0	0	
0.285167	0.174729	0.0295217	0.00334935	0.000522409	0	0	0	
0.285333	-0.175513	-0.0300117	0.00335269	0.000534635	0	0	0	
0.2855	0.174282	0.0276249	0.00333837	0.000553426	0	0	0	
0.285667	-0.171187	-0.0305127	0.00330594	0.000546831	0	0	0	
0.285833	0.174547	0.0324899	0.00325928	0.000556215	0	0	0	
0.286	-0.184428	-0.0307231	0.00328686	0.000572543	0	0	0	
0.286167	0.184717	0.0283979	0.00337196	0.000584836	0	0	0	
0.286333	-0.1773	-0.0298722	0.00343457	0.000572705	0	0	0	
0.2865	0.176428	0.0318983	0.00341531	0.000567926	0	0	0	
0.286667	-0.178218	-0.0304777	0.00336353	0.000567355	0	0	0	
0.286833	0.176311	0.0291179	0.00333539	0.000561403	0	0	0	
0.287	-0.176808	-0.0285567	0.00334809	0.000548244	0	0	0	
0.287167	0.177828	0.0255393	0.00337701	0.000534611	0	0	0	
0.287333	-0.174493	-0.0226185	0.00338991	0.000507158	0	0	0	
0.2875	0.169671	0.0248243	0.00335061	0.000486107	0	0	0	
0.287667	-0.169971	-0.0318512	0.00328581	0.00050245	0	0	0	
0.287833	0.172031	0.0395868	0.00325278	0.000574136	0	0	0	
0.288	-0.177616	-0.0402157	0.00327363	0.000663195	0	0	0	
0.288167	0.17729	0.0358733	0.00331087	0.000710328	0	0	0	
0.288333	-0.173479	-0.0303154	0.00332361	0.000692437	0	0	0	
0.2885	0.173705	0.0230243	0.00331082	0.000613447	0	0	0	
0.288667	-0.179034	-0.0237902	0.00331497	0.000515519	0	0	0	
0.288833	0.177583	0.0260101	0.00332806	0.000467803	0	0	0	
0.289	-0.175056	-0.022392	0.00334241	0.000452929	0	0	0	
0.289167	0.173909	0.0223235	0.00332596	0.000450097	0	0	0	
0.289333	-0.18073	-0.0261454	0.00333579	0.000447577	0	0	0	
0.2895	0.174168	0.0266807	0.00334641	0.000470035	0	0	0	
0.289667	-0.16856	-0.0323364	0.00332378	0.000515138	0	0	0	
0.289833	0.173092	0.0372927	0.00327993	0.000580908	0	0	0	
0.29	-0.18169	-0.0356167	0.00330091	0.000631425	0	0	0	
0.290167	0.183918	0.0345764	0.00337428	0.000657701	0	0	0	
0.290333	-0.18461	-0.0320494	0.00345277	0.000648917	0	0	0	
0.2905	0.180764	0.0249464	0.00346571	0.000604107	0	0	0	
0.290667	-0.181122	-0.0214461	0.00346413	0.000542781	0	0	0	
0.290833	0.17698	0.0213366	0.00344636	0.000466401	0	0	0	
0.291	-0.178703	-0.023659	0.00342112	0.00042814	0	0	0	
0.291167	0.178235	0.0284729	0.00339974	0.000446565	0	0	0	
0.291333	-0.177381	-0.0318272	0.0034024	0.000501984	0	0	0	
0.2915	0.175989	0.0315878	0.00342506	0.000556928	0	0	0	
0.291667	-0.175959	-0.0315471	0.0034453	0.000587388	0	0	0	
0.291833	0.169764	0.0296449	0.00341119	0.000581728	0	0	0	
0.292	-0.177934	-0.028844	0.00336524	0.00056077	0	0	0	
0.292167	0.18432	0.0277367	0.00338066	0.000546252	0	0	0	
0.292333	-0.183617	-0.0265812	0.00344583	0.00052348	0	0	0	
0.2925	0.172786	0.0301683	0.00346492	0.000519896	0	0	0	
0.292667	-0.171333	-0.0326344	0.00339414	0.000539676	0	0	0	
0.292833	0.173966	0.0280695	0.00332133	0.000559122	0	0	0	
0.293	-0.178064	-0.0276575	0.00333273	0.000558772	0	0	0	
0.293167	0.170113	0.0328696	0.00335599	0.00055612	0	0	0	
0.293333	-0.171764	-0.0368714	0.00335232	0.000589499	0	0	0	
0.2935	0.172586	0.0310837	0.00333122	0.000623356	0	0	0	
0.293667	-0.174777	-0.0213002	0.00333845	0.000595308	0	0	0	
0.293833	0.173187	0.023329	0.00335682	0.000528615	0	0	0	
0.294	-0.178251	-0.0331882	0.0033695	0.000500504	0	0	0	
0.294167	0.174333	0.0289145	0.00335708	0.000527371	0	0	0	
0.294333	-0.176426	-0.0229029	0.00334997	0.000534064	0	0	0	
0.2945	0.176214	0.0277513	0.00335729	0.000511061	0	0	0	
0.294667	-0.178667	-0.031172	0.00337538	0.000496068	0	0	0	
0.294833	0.175948	0.0253285	0.00339066	0.000518609	0	0	0	
0.295	-0.177745	-0.021841	0.00339824	0.000514795	0	0	0	
0.295167	0.178779	0.0273017	0.00341275	0.000493634	0	0	0	
0.295333	-0.180554	-0.0325534	0.0034354	0.000503532	0	0	0	
0.2955	0.175132	0.0320225	0.00342912	0.000548704	0	0	0	
0.295667	-0.171642	-0.0280583	0.00339722	0.000573221	0	0	0	
0.295833	0.170089	0.0249497	0.00334477	0.000548536	0	0	0	
0.296	-0.172769	-0.025238	0.00333013	0.000514071	0	0	0	
0.296167	0.175015	0.0261263	0.00334476	0.000491898	0	0	0	
0.296333	-0.180761	-0.0223854	0.00338828	0.000492008	0	0	0	
0.2965	0.174061	0.0251215	0.00340052	0.000495472	0	0	0	
0.296667	-0.171842	-0.0382712	0.00337334	0.000583458	0	0	0	
0.296833	0.175202	0.0497042	0.00333415	0.000721985	0	0	0	
0.297	-0.17784	-0.0478606	0.00333065	0.000843838	0	0	0	
0.297167	0.170097	0.0428161	0.00333943	0.000876124	0	0	0	
0.297333	-0.167789	-0.0317437	0.00332764	0.00079361	0	0	0	
0.2975	0.170859	0.0264809	0.00331166	0.000685883	0	0	0	
0.297667	-0.18231	-0.0153904	0.00333923	0.00054932	0	0	0	
0.297833	0.177866	0.0134883	0.00340798	0.00044678	0	0	0	
0.298	-0.174021	-0.0315147	0.00343642	0.00043537	0	0	0	
0.298167	0.174644	0.0341596	0.00342376	0.000479943	0	0	0	
0.298333	-0.181471	-0.0232582	0.00342574	0.000561524	0	0	0	
0.2985	0.169271	0.00942081	0.00339889	0.000537256	0	0	0	
0.298667	-0.167844	-0.00833765	0.00335642	0.000426963	0	0	0	
0.298833	0.168412	0.0107353	0.00330534	0.000326506	0	0	0	
0.299	-0.176711	-0.0307334	0.00330433	0.000393308	0	0	0	
0.299167	0.172007	0.0539019	0.00334064	0.000620807	0	0	0	
0.299333	-0.178224	-0.0724948	0.00337834	0.000903786	0	0	0	
0.2995	0.171431	0.0517034	0.00341387	0.00107536	0	0	0	
0.299667	-0.177626	-0.033341	0.00341584	0.001066	0	0	0	
0.299833	0.170946	0.0282023	0.00339312	0.00089692	0	0	0	
0.3	-0.171405	-0.026304	0.00335508	0.000694672	0	0	0	
0.300167	0.177692	0.0220076	0.00337645	0.000532419	0	0	0	
0.300333	-0.175083	-0.0290839	0.0033889	0.000482163	0	0	0	
0.3005	0.163755	0.0344981	0.0033792	0.000540901	0	0	0	
0.300667	-0.164711	-0.0345738	0.00329366	0.000621855	0	0	0	
0.300833	0.169691	0.0273458	0.00327078	0.000650215	0	0	0	
0.301	-0.17668	-0.0181199	0.00331434	0.000560279	0	0	0	
0.301167	0.177938	0.0286661	0.00339831	0.000492293	0	0	0	
0.301333	-0.176502	-0.0351248	0.00342834	0.000518788	0	0	0	
0.3015	0.175884	0.0254124	0.00343734	0.000569731	0	0	0	
0.301667	-0.174871	-0.0115992	0.00342164	0.000537403	0	0	0	
0.301833	0.169703	0.0178987	0.00340199	0.000458672	0	0	0	
0.302	-0.17111	-0.0280606	0.00334717	0.00045879	0	0	0	
0.302167	0.169396	0.0358059	0.00334236	0.00056286	0	0	0	
0.302333	-0.178316	-0.0317121	0.00335637	0.000660222	0	0	0	
0.3025	0.173388	0.0370284	0.00343223	0.000665067	0	0	0	
0.302667	-0.172546	-0.0305313	0.00345034	0.000642921	0	0	0	
0.302833	0.166365	0.0173422	0.00345298	0.00057798	0	0	0	
0.303	-0.174681	-0.00427884	0.00345851	0.000468865	0	0	0	
0.303167	0.188179	0.0119412	0.00360833	0.00032703	0	0	0	
0.303333	-0.219308	-0.022994	0.0038404	0.000291625	0	0	0	
0.3035	0.195487	0.0237644	0.00406806	0.000341565	0	0	0	
0.303667	-0.174094	-0.0281189	0.00387782	0.000455307	0	0	0	
0.303833	0.143113	0.03491	0.00350294	0.000523634	0	0	0	
0.304	-0.127331	-0.0342381	0.00301048	0.000595042	0	0	0	
0.304167	0.127968	0.0229086	0.00283547	0.000586369	0	0	0	
0.304333	-0.15448	-0.0159702	0.00293888	0.000523988	0	0	0	
0.3045	0.162875	0.0217123	0.00324982	0.000448658	0	0	0	
0.304667	-0.182447	-0.0340046	0.0034729	0.000472036	0	0	0	
0.304833	0.194946	0.0303964	0.00363921	0.000525335	0	0	0	
0.305	-0.188787	-0.0255996	0.00364466	0.000560789	0	0	0	
0.305167	0.162185	0.0285015	0.00358858	0.000533355	0	0	0	
0.305333	-0.156245	-0.0306678	0.00339147	0.000521917	0	0	0	
0.3055	0.172965	0.0146617	0.00327633	0.000493916	0	0	0	
0.305667	-0.176429	-0.00789524	0.00335133	0.000419492	0	0	0	
0.305833	0.168995	0.0215381	0.00341589	0.000418114	0	0	0	
0.306	-0.16371	-0.0446876	0.00341182	0.000499635	0	0	0	
0.306167	0.166523	0.0324523	0.00334374	0.000643163	0	0	0	
0.306333	-0.170634	-0.0175877	0.00332346	0.000631549	0	0	0	
0.3065	0.162599	0.0157963	0.00330722	0.000521292	0	0	0	
0.306667	-0.165309	-0.0224473	0.00331066	0.000457713	0	0	0	
0.306833	0.168195	0.0246795	0.00331635	0.000443675	0	0	0	
0.307	-0.162046	-0.0343511	0.00331728	0.000502351	0	0	0	
0.307167	0.162564	0.038751	0.0033033	0.000573959	0	0	0	
0.307333	-0.176835	-0.0422078	0.0033278	0.000657434	0	0	0	
0.3075	0.180904	0.0240697	0.00343017	0.000691026	0	0	0	
0.307667	-0.176863	-0.0129351	0.00350105	0.000578933	0	0	0	
0.307833	0.161403	0.0257378	0.00346486	0.000478036	0	0	0	
0.308	-0.160804	-0.0548616	0.00336081	0.00050066	0	0	0	
0.308167	0.164574	0.0395278	0.00330141	0.000702957	0	0	0	
0.308333	-0.165772	-0.00914144	0.0032865	0.000809185	0	0	0	
0.3085	0.16069	0.00972648	0.00329824	0.000654819	0	0	0	
0.308667	-0.171221	-0.03227	0.00333792	0.000527134	0	0	0	
0.308833	0.177218	0.0353284	0.00341561	0.000516032	0	0	0	
0.309	-0.170681	-0.042098	0.0034788	0.000662244	0	0	0	
0.309167	0.164818	0.0397666	0.0034369	0.000753647	0	0	0	
0.309333	-0.169327	-0.0363079	0.00338205	0.000747115	0	0	0	
0.3095	0.165388	0.0222832	0.00333544	0.000699249	0	0	0	
0.309667	-0.168242	7.95079E-06	0.00336738	0.000484932	0	0	0	
0.309833	0.169244	0.000460231	0.00342047	0.000305409	0	0	0	
0.31	-0.173316	-0.0204559	0.00346686	0.000278612	0	0	0	
0.310167	0.170147	0.0309297	0.00346676	0.000409661	0	0	0	
0.310333	-0.166463	-0.0308599	0.00341611	0.000537638	0	0	0	
0.3105	0.162225	0.022	0.00333452	0.000546016	0	0	0	
0.310667	-0.16128	-0.0225933	0.00332212	0.000491087	0	0	0	
0.310833	0.163474	0.0342031	0.00332358	0.000490078	0	0	0	
0.311	-0.170534	-0.0352029	0.00337644	0.000532817	0	0	0	
0.311167	0.175861	0.0223964	0.00343121	0.000579051	0	0	0	
0.311333	-0.17293	-0.0198692	0.00347548	0.000544845	0	0	0	
0.3115	0.166683	0.0281251	0.0034693	0.000488579	0	0	0	
0.311667	-0.167759	-0.0278142	0.00342662	0.000466504	0	0	0	
0.311833	0.162707	0.00667651	0.00336696	0.000439868	0	0	0	
0.312	-0.16502	-0.00130099	0.00336484	0.000322375	0	0	0	
0.312167	0.172204	0.0145081	0.00338521	0.000316219	0	0	0	
0.312333	-0.168328	-0.0325822	0.00343656	0.000466989	0	0	0	
0.3125	0.15826	0.0448167	0.00339277	0.000723647	0	0	0	
0.312667	-0.147376	-0.0448766	0.00330498	0.000837934	0	0	0	
0.312833	0.157876	0.0314992	0.00320457	0.000797213	0	0	0	
0.313	-0.168161	-0.0249716	0.0032538	0.000686266	0	0	0	
0.313167	0.168013	0.0248879	0.00332436	0.000563789	0	0	0	
0.313333	-0.166422	-0.0238048	0.00340636	0.000493038	0	0	0	
0.3135	0.164324	0.02586	0.00337686	0.00047688	0	0	0	
0.313667	-0.159426	-0.0312973	0.00333787	0.000503166	0	0	0	
0.313833	0.163245	0.0336236	0.00325792	0.000555605	0	0	0	
0.314	-0.165299	-0.0314943	0.0032748	0.000591581	0	0	0	
0.314167	0.162241	0.0274543	0.00328951	0.000592468	0	0	0	
0.314333	-0.163863	-0.0258653	0.00336437	0.000553768	0	0	0	
0.3145	0.165068	0.0250672	0.00337524	0.000519819	0	0	0	
0.314667	-0.169479	-0.0217852	0.00341975	0.000476717	0	0	0	
0.314833	0.158452	0.0202323	0.00340012	0.000448607	0	0	0	
0.315	-0.161746	-0.0265713	0.00337787	0.000455608	0	0	0	
0.315167	0.165233	0.0339079	0.00337239	0.000537646	0	0	0	
0.315333	-0.172628	-0.0395338	0.00342105	0.000633952	0	0	0	
0.3155	0.160806	0.0371594	0.003431	0.000693204	0	0	0	
0.315667	-0.160983	-0.0348628	0.00340351	0.000689062	0	0	0	
0.315833	0.158887	0.0272934	0.00333859	0.000648853	0	0	0	
0.316	-0.159876	-0.0238078	0.00332562	0.00057961	0	0	0	
0.316167	0.157509	0.0197343	0.00330422	0.000496751	0	0	0	
0.316333	-0.163017	-0.0228391	0.00334309	0.000441027	0	0	0	
0.3165	0.165428	0.024913	0.0033671	0.000447518	0	0	0	
0.316667	-0.165422	-0.0283829	0.00341802	0.000484716	0	0	0	
0.316833	0.164094	0.0249044	0.00341293	0.000516718	0	0	0	
0.317	-0.164693	-0.0267909	0.00341506	0.000515028	0	0	0	
0.317167	0.159701	0.0284018	0.00337994	0.000522243	0	0	0	
0.317333	-0.15877	-0.0358756	0.00336334	0.000559376	0	0	0	
0.3175	0.165355	0.0366108	0.0033569	0.000618824	0	0	0	
0.317667	-0.166498	-0.0316017	0.00341589	0.00063802	0	0	0	
0.317833	0.158499	0.0244829	0.00342518	0.000608141	0	0	0	
0.318	-0.155478	-0.0260461	0.00340411	0.000554935	0	0	0	
0.318167	0.162553	0.0239973	0.0033765	0.000514389	0	0	0	
0.318333	-0.170117	-0.0308457	0.00342551	0.000514158	0	0	0	
0.3185	0.166219	0.0312684	0.00347665	0.00056218	0	0	0	
0.318667	-0.165532	-0.0350323	0.00348436	0.00062357	0	0	0	
0.318833	0.164112	0.0347731	0.00345102	0.000664503	0	0	0	
0.319	-0.160973	-0.0279322	0.00341361	0.000633166	0	0	0	
0.319167	0.152557	0.0156943	0.0033416	0.000536085	0	0	0	
0.319333	-0.151858	-0.011963	0.00329546	0.00042204	0	0	0	
0.3195	0.157202	0.00457565	0.00331428	0.000270292	0	0	0	
0.319667	-0.167615	-0.0108298	0.00340688	0.000199167	0	0	0	
0.319833	0.164039	0.0163536	0.00349649	0.000188979	0	0	0	
0.32	-0.163829	-0.0223417	0.00351733	0.000287626	0	0	0	
0.320167	0.166848	0.0258701	0.00350379	0.000383308	0	0	0	
0.320333	-0.175549	-0.0265057	0.00348982	0.000467776	0	0	0	
0.3205	0.174388	0.0226532	0.00353356	0.00047007	0	0	0	
0.320667	-0.176342	-0.0286188	0.00357957	0.000482605	0	0	0	
0.320833	0.165917	0.0111295	0.00360892	0.000408765	0	0	0	
0.321	-0.158746	-0.00594988	0.0035541	0.000349914	0	0	0	
0.321167	0.156592	0.00551975	0.00346342	0.000229354	0	0	0	
0.321333	-0.164527	-0.013025	0.00341627	0.000208231	0	0	0	
0.3215	0.163897	0.0129361	0.00346987	0.000202647	0	0	0	
0.321667	-0.166078	-0.0240992	0.00355781	0.000273474	0	0	0	
0.321833	0.154672	0.0263837	0.00360443	0.000346359	0	0	0	
0.322	-0.14935	-0.0345127	0.00352005	0.000481851	0	0	0	
0.322167	0.150937	0.0224449	0.00340409	0.000568633	0	0	0	
0.322333	-0.15977	-0.0254882	0.00331662	0.000559283	0	0	0	
0.3225	0.162661	0.0315659	0.00330803	0.000541939	0	0	0	
0.322667	-0.159325	-0.0393677	0.00334686	0.000543561	0	0	0	
0.322833	0.155698	0.0246486	0.0033534	0.000577938	0	0	0	
0.323	-0.15367	-0.0179698	0.0033629	0.000551275	0	0	0	
0.323167	0.150883	0.0183334	0.00334312	0.000506698	0	0	0	
0.323333	-0.159897	-0.0238942	0.00331106	0.000530297	0	0	0	
0.3235	0.16325	0.0292844	0.00334324	0.000642418	0	0	0	
0.323667	-0.161573	-0.0474668	0.00339319	0.00077506	0	0	0	
0.323833	0.157521	0.0457076	0.00343765	0.000879166	0	0	0	
0.324	-0.148107	-0.0320165	0.00339828	0.000867599	0	0	0	
0.324167	0.142183	0.0207539	0.0033345	0.000740852	0	0	0	
0.324333	-0.15736	-0.0125241	0.00332065	0.000591542	0	0	0	
0.3245	0.160145	0.00190543	0.00336206	0.000382379	0	0	0	
0.324667	-0.151383	-0.00882702	0.00338461	0.000295491	0	0	0	
0.324833	0.139856	0.0146998	0.00332105	0.000284257	0	0	0	
0.325	-0.15086	-0.0193244	0.00320148	0.000398243	0	0	0	
0.325167	0.149986	0.0337408	0.00316461	0.000489581	0	0	0	
0.325333	-0.147764	-0.0394552	0.00320469	0.000586021	0	0	0	
0.3255	0.154832	0.0323993	0.00330324	0.000633101	0	0	0	
0.325667	-0.170001	-0.0290113	0.00341509	0.000654371	0	0	0	
0.325833	0.163168	0.0243297	0.00344301	0.000575803	0	0	0	
0.326	-0.155025	-0.0295543	0.00338595	0.000535268	0	0	0	
0.326167	0.139336	0.0231019	0.00327615	0.00053567	0	0	0	
0.326333	-0.12681	-0.0180484	0.00320226	0.000510089	0	0	0	
0.3265	0.14209	0.0152785	0.00321599	0.000505455	0	0	0	
0.326667	-0.173822	-0.0193904	0.00342907	0.000493226	0	0	0	
0.326833	0.207795	0.019525	0.00378057	0.000533871	0	0	0	
0.327	-0.188178	-0.0269715	0.00399873	0.000605874	0	0	0	
0.327167	0.129438	0.0401222	0.00368967	0.000743557	0	0	0	
0.327333	-0.102172	-0.0427837	0.00306061	0.000804323	0	0	0	
0.3275	0.1083	0.0207605	0.00261976	0.000759427	0	0	0	
0.327667	-0.11345	-0.00676285	0.00271572	0.000558427	0	0	0	
0.327833	0.153837	0.00690635	0.00317128	0.000363681	0	0	0	
0.328	-0.190122	-0.00721086	0.00369361	0.000278824	0	0	0	
0.328167	0.194164	0.0130183	0.00394704	0.000328098	0	0	0	
0.328333	-0.171298	-0.0255972	0.0039149	0.000512125	0	0	0	
0.3285	0.134431	0.0334035	0.00354318	0.000647581	0	0	0	
0.328667	-0.12343	-0.0313293	0.00313034	0.000693274	0	0	0	
0.328833	0.138063	0.0267283	0.00292929	0.000646334	0	0	0	
0.329	-0.151591	-0.031518	0.00303636	0.000604137	0	0	0	
0.329167	0.156499	0.0370465	0.00327927	0.000597336	0	0	0	
0.329333	-0.155302	-0.0281211	0.00342278	0.000619178	0	0	0	
0.3295	0.151673	0.013597	0.00341874	0.000546878	0	0	0	
0.329667	-0.152675	-0.0135523	0.00340044	0.000458903	0	0	0	
0.329833	0.15425	0.0176223	0.00342909	0.000409015	0	0	0	
0.33	-0.153588	-0.0240736	0.00345079	0.000463111	0	0	0	
0.330167	0.148091	0.0373192	0.00341668	0.000588618	0	0	0	
0.330333	-0.14606	-0.0460993	0.00335016	0.000718232	0	0	0	
0.3305	0.140418	0.0389874	0.00329488	0.000785568	0	0	0	
0.330667	-0.136325	-0.0251538	0.00323734	0.000744456	0	0	0	
0.330833	0.139839	0.010878	0.00317193	0.000584507	0	0	0	
0.331	-0.146347	-0.014474	0.00314516	0.000440165	0	0	0	
0.331167	0.148995	0.021177	0.00318703	0.000439508	0	0	0	
0.331333	-0.154715	-0.0265438	0.00329387	0.000546649	0	0	0	
0.3315	0.156289	0.0312557	0.00339177	0.000674706	0	0	0	
0.331667	-0.155831	-0.0352875	0.00342101	0.000711761	0	0	0	
0.331833	0.151747	0.0260988	0.00336018	0.000682086	0	0	0	
0.332	-0.150963	-0.0151238	0.00330297	0.000559526	0	0	0	
0.332167	0.14771	0.00970911	0.00331154	0.000419629	0	0	0	
0.332333	-0.148963	-0.0170402	0.00339882	0.00034182	0	0	0	
0.3325	0.147121	0.0260289	0.00346549	0.000407215	0	0	0	
0.332667	-0.148937	-0.0311159	0.00346644	0.000511	0	0	0	
0.332833	0.149079	0.0234495	0.00341726	0.000561076	0	0	0	
0.333	-0.151117	-0.0171355	0.0034037	0.000493822	0	0	0	
0.333167	0.147858	0.0146808	0.00344076	0.000412952	0	0	0	
0.333333	-0.148936	-0.0220341	0.00347436	0.000376827	0	0	0	
0.3335	0.148838	0.0261172	0.00345741	0.000451439	0	0	0	
0.333667	-0.151768	-0.0314291	0.00343424	0.000537993	0	0	0	
0.333833	0.150441	0.0313438	0.00341757	0.000596617	0	0	0	
0.334	-0.142492	-0.0302944	0.00339587	0.000586917	0	0	0	
0.334167	0.13744	0.0213085	0.0033469	0.000554593	0	0	0	
0.334333	-0.142069	-0.0190049	0.003345	0.000473864	0	0	0	
0.3345	0.144423	0.0192126	0.00337209	0.000440134	0	0	0	
0.334667	-0.142002	-0.0258955	0.00340692	0.000442672	0	0	0	
0.334833	0.143195	0.0285108	0.00340618	0.000518927	0	0	0	
0.335	-0.146109	-0.0285077	0.00342924	0.000567097	0	0	0	
0.335167	0.147448	0.0247694	0.00346485	0.000566464	0	0	0	
0.335333	-0.147417	-0.02358	0.00349696	0.000538015	0	0	0	
0.3355	0.146351	0.0236144	0.00346192	0.000511727	0	0	0	
0.335667	-0.144995	-0.0275396	0.00340611	0.00051817	0	0	0	
0.335833	0.140917	0.0267533	0.00333829	0.000534874	0	0	0	
0.336	-0.139021	-0.0249397	0.00329607	0.000540757	0	0	0	
0.336167	0.141815	0.0225042	0.00328048	0.00051865	0	0	0	
0.336333	-0.146109	-0.0236098	0.00331895	0.00050229	0	0	0	
0.3365	0.145144	0.0264194	0.00337221	0.000497377	0	0	0	
0.336667	-0.145488	-0.0256987	0.00339839	0.000511321	0	0	0	
0.336833	0.144668	0.0233477	0.00338686	0.000495744	0	0	0	
0.337	-0.150418	-0.0248883	0.00340923	0.000489002	0	0	0	
0.337167	0.15057	0.025288	0.00347752	0.000489243	0	0	0	
0.337333	-0.145432	-0.0255181	0.00353011	0.000513667	0	0	0	
0.3375	0.13988	0.0259482	0.0034908	0.000520989	0	0	0	
