0	0.000484573	-0.297447	4.84573E-08	2.97447E-05	0	5	0	
0.000166667	-0.00398059	0.260038	3.02465E-05	0.00510189	0	5	0	
0.000333333	0.00669447	-0.147246	6.62157E-05	0.0148682	0	5	0	
0.0005	-0.00402837	-0.0266209	0.000107615	0.0259795	0	5	0	
0.000666667	0.00152913	0.0824745	0.000119531	0.0315811	0	5	0	
0.000833333	-0.000260885	-0.0926394	8.95903E-05	0.0318128	0	5	0	
0.001	0.00243469	-0.0634089	6.95404E-05	0.0294985	0	5	0	
0.00116667	-0.00194554	0.630211	3.44565E-05	0.0274121	0	5	0	
0.00133333	0.000420788	-1.27339	4.41746E-05	0.0286229	0	5	0	
0.0015	-0.00305175	1.45489	4.88335E-05	0.033106	0	5	0	
0.00166667	0.0111547	-1.45585	9.40973E-05	0.0388637	0	5	0	
0.00183333	-0.00454089	1.4216	0.000121568	0.0419037	0	5	0	
0.002	-0.00350881	-1.44251	0.000135445	0.0426269	0	5	0	
0.00216667	-0.00144091	1.47896	0.00011075	0.0425281	0	5	0	
0.00233333	0.006081	-1.48753	0.000133111	0.04302	0	5	0	
0.0025	-0.00751284	1.47265	0.000131998	0.0441863	0	5	0	
0.00266667	0.00391329	-1.44669	0.000136434	0.0452154	0	5	0	
0.00283333	-0.00508618	1.42197	0.00010502	0.0453814	0	5	0	
0.003	0.00180963	-1.45472	9.70296E-05	0.0448937	0	5	0	
0.00316667	-0.0020775	1.47459	8.56953E-05	0.044481	0	5	0	
0.00333333	-0.00242813	-1.45262	6.49117E-05	0.0446233	0	5	0	
0.0035	-0.0035197	1.4334	6.36276E-05	0.0448501	0	5	0	
0.00366667	0.00668983	-1.46447	9.07305E-05	0.0447748	0	5	0	
0.00383333	-0.00958115	1.47413	0.000135072	0.0444371	0	5	0	
0.004	3.68574E-05	-1.47198	0.000145931	0.0442701	0	5	0	
0.00416667	0.0025849	1.47539	0.000146569	0.0442407	0	5	0	
0.00433333	-0.00213796	-1.48543	9.99136E-05	0.0442317	0	5	0	
0.0045	-0.00203292	1.48467	9.6398E-05	0.0441198	0	5	0	
0.00466667	0.00393994	-1.50704	9.53504E-05	0.0440715	0	5	0	
0.00483333	-0.00737031	1.50576	0.000129911	0.044088	0	5	0	
0.005	0.00744227	-1.51383	0.000130295	0.0442205	0	5	0	
0.00516667	-0.00636669	1.51423	0.000134159	0.0442652	0	5	0	
0.00533333	-0.00174934	-1.52317	0.000133788	0.0442719	0	5	0	
0.0055	0.00339172	1.53703	0.000114112	0.0442692	0	5	0	
0.00566667	0.00450499	-1.55844	0.000101509	0.0443639	0	5	0	
0.00583333	-0.00765024	1.57785	0.00012025	0.0444533	0	5	0	
0.006	0.00707607	-1.59287	0.00014387	0.0445438	0	5	0	
0.00616667	-0.00499679	1.56469	0.000145103	0.0445527	0	5	0	
0.00633333	0.0054705	-1.56592	0.000126746	0.0445224	0	5	0	
0.0065	-0.00566865	1.5882	0.000120039	0.0443849	0	5	0	
0.00666667	0.00416248	-1.61461	0.000110881	0.0443138	0	5	0	
0.00683333	-0.00204582	1.61027	8.89199E-05	0.0443131	0	5	0	
0.007	-0.00339196	-1.6213	7.48584E-05	0.0443394	0	5	0	
0.00716667	-0.00313705	1.63796	6.03884E-05	0.0443371	0	5	0	
0.00733333	0.00464349	-1.64461	8.04008E-05	0.0444507	0	5	0	
0.0075	0.000101621	1.62452	8.79065E-05	0.0445856	0	5	0	
0.00766667	0.000719107	-1.62865	8.31361E-05	0.0446	0	5	0	
0.00783333	-0.00341932	1.63577	8.77425E-05	0.0444213	0	5	0	
0.008	0.00650445	-1.65573	0.000108675	0.0442932	0	5	0	
0.00816667	-0.00811826	1.67972	0.000153924	0.0443408	0	5	0	
0.00833333	0.0013717	-1.68803	0.000148841	0.0444447	0	5	0	
0.0085	0.00112789	1.68764	0.000138961	0.0444688	0	5	0	
0.00866667	0.00682552	-1.69174	0.000148226	0.0444356	0	5	0	
0.00883333	-0.00256305	1.68217	0.000145103	0.0443579	0	5	0	
0.009	0.000867519	-1.6993	0.000118034	0.0442971	0	5	0	
0.00916667	-0.00110189	1.71528	5.64733E-05	0.0442631	0	5	0	
0.00933333	0.00295049	-1.71883	3.72188E-05	0.0442987	0	5	0	
0.0095	0.00349943	1.71814	6.72455E-05	0.0443374	0	5	0	
0.00966667	-0.00521013	-1.71468	8.56466E-05	0.0443005	0	5	0	
0.00983333	0.00031038	1.70934	0.000114075	0.0441751	0	5	0	
0.01	0.00666899	-1.71908	0.000142119	0.0441178	0	5	0	
0.0101667	-0.00529113	1.72755	0.000163599	0.0440893	0	5	0	
0.0103333	0.00747368	-1.77358	0.000162985	0.0442885	0	5	0	
0.0105	-0.00777872	1.78723	0.000141994	0.0444999	0	5	0	
0.0106667	0.00365653	-1.77913	0.000149186	0.0447143	0	5	0	
0.0108333	-3.83601E-05	1.78046	0.000118186	0.0446993	0	5	0	
0.011	-0.000998861	-1.79421	7.75814E-05	0.0445993	0	5	0	
0.0111667	0.00168375	1.79124	5.21124E-05	0.0444626	0	5	0	
0.0113333	0.00280565	-1.81052	6.45808E-05	0.0444584	0	5	0	
0.0115	-0.00523395	1.82526	8.59174E-05	0.0444834	0	5	0	
0.0116667	0.00435834	-1.81698	9.22985E-05	0.044548	0	5	0	
0.0118333	-0.00545529	1.80516	0.000108522	0.0444721	0	5	0	
0.012	0.00751152	-1.8068	0.000132889	0.0443107	0	5	0	
0.0121667	-0.0102966	1.80804	0.000147486	0.0440428	0	5	0	
0.0123333	0.000509701	-1.82555	0.000141498	0.043917	0	5	0	
0.0125	0.000538224	1.83949	0.000115095	0.0439362	0	5	0	
0.0126667	-0.00120414	-1.83968	7.92649E-05	0.0441399	0	5	0	
0.0128333	-0.00379577	1.85129	6.19296E-05	0.0442689	0	5	0	
0.013	0.0013919	-1.8638	4.65871E-05	0.0443757	0	5	0	
0.0131667	-0.0010525	1.85886	5.81184E-05	0.0443453	0	5	0	
0.0133333	-0.000206399	-1.86533	6.50581E-05	0.0443126	0	5	0	
0.0135	-0.00323731	1.87349	9.63794E-05	0.0441297	0	5	0	
0.0136667	0.00399743	-1.8885	0.000127298	0.0441476	0	5	0	
0.0138333	-0.0102257	1.88637	0.000161743	0.0442435	0	5	0	
0.014	0.0131773	-1.89031	0.000184212	0.0444113	0	5	0	
0.0141667	-0.00623813	1.90468	0.000201649	0.0443842	0	5	0	
0.0143333	-0.00183556	-1.91026	0.00019422	0.0442948	0	5	0	
0.0145	0.0066701	1.91213	0.00016207	0.0442294	0	5	0	
0.0146667	-0.00201267	-1.92264	0.000128247	0.0442961	0	5	0	
0.0148333	-0.00250442	1.93531	0.000138691	0.0443366	0	5	0	
0.015	0.00596363	-1.94121	0.000171695	0.0443772	0	5	0	
0.0151667	-0.00558742	1.93604	0.000199178	0.0443226	0	5	0	
0.0153333	0.00861001	-1.92673	0.000174158	0.0441951	0	5	0	
0.0155	-0.00392465	1.95097	0.000140744	0.0440528	0	5	0	
0.0156667	0.00117417	-1.96023	0.000101869	0.04401	0	5	0	
0.0158333	0.00149893	1.95576	8.36513E-05	0.0440766	0	5	0	
0.016	0.00365832	-1.95139	7.97852E-05	0.044158	0	5	0	
0.0161667	-0.00355094	1.95912	7.36923E-05	0.0441181	0	5	0	
0.0163333	2.48545E-05	-1.96	6.84548E-05	0.0440716	0	5	0	
0.0165	0.00385314	1.96599	6.3842E-05	0.0439595	0	5	0	
0.0166667	-0.00039827	-1.97638	9.26671E-05	0.0439473	0	5	0	
0.0168333	-0.003569	1.99769	0.000122028	0.0440269	0	5	0	
0.017	0.00587914	-2.01015	0.000130558	0.0442678	0	5	0	
0.0171667	-0.00510122	2.02091	0.000116555	0.0444395	0	5	0	
0.0173333	0.00534645	-2.02206	0.000113994	0.0445819	0	5	0	
0.0175	-0.00409495	2.00595	0.000102059	0.0444576	0	5	0	
0.0176667	-0.00187879	-2.01847	0.000117578	0.0443007	0	5	0	
0.0178333	0.00485144	2.0479	0.00010318	0.0442021	0	5	0	
0.018	0.000287018	-2.06189	0.000126726	0.0444025	0	5	0	
0.0181667	-0.0068698	2.06586	0.000129137	0.0446595	0	5	0	
0.0183333	0.00295128	-2.04431	0.000140154	0.0448005	0	5	0	
0.0185	-0.000341703	2.02016	0.000109854	0.0445441	0	5	0	
0.0186667	0.00454592	-2.03968	9.98883E-05	0.0441904	0	5	0	
0.0188333	-0.00602242	2.07856	0.000100261	0.0440069	0	5	0	
0.019	0.00786561	-2.07538	0.000134676	0.0442301	0	5	0	
0.0191667	-0.00132629	2.06838	0.000117223	0.0444869	0	5	0	
0.0193333	0.00298879	-2.08383	9.30351E-05	0.0445727	0	5	0	
0.0195	-0.00174313	2.09618	7.58728E-05	0.0444981	0	5	0	
0.0196667	0.00421297	-2.07368	7.20627E-05	0.0444534	0	5	0	
0.0198333	-0.00110123	2.07961	7.0564E-05	0.0443114	0	5	0	
0.02	0.000404859	-2.115	4.69646E-05	0.0443136	0	5	0	
0.0201667	-0.000719029	2.13079	6.8899E-05	0.0443959	0	5	0	
0.0203333	0.00734588	-2.12362	9.82431E-05	0.0446589	0	5	0	
0.0205	-0.00317732	2.10475	0.000130368	0.0446815	0	5	0	
0.0206667	5.36937E-05	-2.09894	0.000103685	0.0445054	0	5	0	
0.0208333	-0.00403076	2.11273	7.58289E-05	0.0442345	0	5	0	
0.021	0.00499023	-2.12797	7.81342E-05	0.0442765	0	5	0	
0.0211667	-0.00715348	2.1287	9.35631E-05	0.0444314	0	5	0	
0.0213333	0.00234515	-2.1475	0.000109172	0.0445915	0	5	0	
0.0215	-0.0035879	2.14894	8.2267E-05	0.0445338	0	5	0	
0.0216667	0.00475816	-2.14093	8.53609E-05	0.0444697	0	5	0	
0.0218333	-0.0048863	2.14	8.24901E-05	0.0443577	0	5	0	
0.022	-0.000137703	-2.15563	9.11381E-05	0.0443757	0	5	0	
0.0221667	-0.00425912	2.16054	0.000103629	0.0444371	0	5	0	
0.0223333	0.00578125	-2.15915	0.000129728	0.0445129	0	5	0	
0.0225	-0.00462864	2.16818	0.000130289	0.0445099	0	5	0	
0.0226667	0.00380216	-2.16382	0.000117359	0.0444681	0	5	0	
0.0228333	-0.00189273	2.1769	8.63553E-05	0.0444192	0	5	0	
0.023	0.00526909	-2.17999	9.93664E-05	0.0444038	0	5	0	
0.0231667	-0.00288086	2.17235	0.000111635	0.0443885	0	5	0	
0.0233333	0.00490469	-2.18498	0.00011908	0.044409	0	5	0	
0.0235	-0.00387708	2.21748	0.000125288	0.0444951	0	5	0	
0.0236667	0.00860127	-2.20769	0.000122118	0.0446378	0	5	0	
0.0238333	-0.00203282	2.20334	0.000115918	0.0447239	0	5	0	
0.024	-0.00330655	-2.20234	0.000129258	0.0446956	0	5	0	
0.0241667	0.00993256	2.20627	0.00012168	0.0446047	0	5	0	
0.0243333	-0.000195213	-2.19832	0.000187791	0.0445231	0	5	0	
0.0245	-0.00409735	2.20207	0.000224592	0.044398	0	5	0	
0.0246667	0.0100509	-2.21949	0.000228731	0.0444062	0	5	0	
0.0248333	-0.00280147	2.23065	0.000167809	0.0444898	0	5	0	
0.025	0.00546937	-2.22736	0.000111069	0.0446279	0	5	0	
0.0251667	-0.00253213	2.2187	0.00011139	0.0445752	0	5	0	
0.0253333	0.00200353	-2.21721	9.8767E-05	0.0444169	0	5	0	
0.0255	-0.00124328	2.23525	7.90351E-05	0.0442478	0	5	0	
0.0256667	0.00276515	-2.25065	8.39663E-05	0.0443651	0	5	0	
0.0258333	-0.00121513	2.24757	0.000106656	0.044573	0	5	0	
0.026	0.000920075	-2.25143	0.00010121	0.0447605	0	5	0	
0.0261667	0.00485939	2.2477	8.16165E-05	0.0447208	0	5	0	
0.0263333	-0.00193967	-2.22718	8.84604E-05	0.0445626	0	5	0	
0.0265	-0.00591906	2.23273	0.00014001	0.044318	0	5	0	
0.0266667	0.0073802	-2.25321	0.000179457	0.0442708	0	5	0	
0.0268333	-0.00212522	2.26925	0.000148719	0.044398	0	5	0	
0.027	0.00197338	-2.26686	0.000109419	0.0446438	0	5	0	
0.0271667	0.00129214	2.26149	5.33311E-05	0.0446719	0	5	0	
0.0273333	-0.00226005	-2.24723	4.39691E-05	0.0445707	0	5	0	
0.0275	-0.00137166	2.27342	4.49001E-05	0.0444531	0	5	0	
0.0276667	0.00287492	-2.28245	8.84199E-05	0.0445204	0	5	0	
0.0278333	0.00152399	2.27283	0.000131352	0.0445912	0	5	0	
0.028	0.00373557	-2.26914	0.000143568	0.0446134	0	5	0	
0.0281667	-0.0040872	2.282	0.000121944	0.0444903	0	5	0	
0.0283333	0.00365006	-2.28659	0.0001027	0.044494	0	5	0	
0.0285	0.000469475	2.2886	8.89806E-05	0.0445553	0	5	0	
0.0286667	-0.0013595	-2.26329	7.06066E-05	0.044558	0	5	0	
0.0288333	-0.00247366	2.27014	8.83388E-05	0.0443921	0	5	0	
0.029	0.00757889	-2.28201	0.000106654	0.0442671	0	5	0	
0.0291667	-0.00294524	2.27379	0.000124334	0.0441916	0	5	0	
0.0293333	0.00112615	-2.27814	9.67459E-05	0.0442262	0	5	0	
0.0295	-0.00492796	2.29947	8.37734E-05	0.04428	0	5	0	
0.0296667	0.00156163	-2.29709	7.17685E-05	0.0443842	0	5	0	
0.0298333	0.0039177	2.30006	7.46824E-05	0.0444861	0	5	0	
0.03	-0.000916337	-2.29657	7.32596E-05	0.0445323	0	5	0	
0.0301667	-0.00378934	2.29764	0.00012998	0.0444718	0	5	0	
0.0303333	0.00204384	-2.29881	0.000145514	0.0444381	0	5	0	
0.0305	-0.00468459	2.30718	0.000147481	0.0444091	0	5	0	
0.0306667	0.00624829	-2.30855	0.000100056	0.0444613	0	5	0	
0.0308333	-0.00554207	2.32746	0.000101314	0.0445387	0	5	0	
0.031	0.00199101	-2.31776	9.24227E-05	0.044632	0	5	0	
0.0311667	0.0030559	2.29786	8.7186E-05	0.0445733	0	5	0	
0.0313333	0.000291763	-2.29846	9.1122E-05	0.04439	0	5	0	
0.0315	-0.00555862	2.32048	0.000119626	0.0442598	0	5	0	
0.0316667	0.00654934	-2.3264	0.000135256	0.0443604	0	5	0	
0.0318333	-0.00327346	2.32669	0.00012684	0.0445163	0	5	0	
0.032	0.00129047	-2.3142	8.34778E-05	0.0445852	0	5	0	
0.0321667	0.00260249	2.29703	5.5046E-05	0.0443898	0	5	0	
0.0323333	-0.00376279	-2.29609	4.72244E-05	0.0441475	0	5	0	
0.0325	-0.000637171	2.32462	7.91366E-05	0.0440797	0	5	0	
0.0326667	0.00653762	-2.33894	0.000112194	0.0442752	0	5	0	
0.0328333	-0.00598026	2.33712	0.00012125	0.0445495	0	5	0	
0.033	0.000367962	-2.31735	0.000111538	0.0445936	0	5	0	
0.0331667	-0.00192976	2.29927	0.000104811	0.044339	0	5	0	
0.0333333	0.00202147	-2.31657	9.44057E-05	0.0441073	0	5	0	
0.0335	-0.00175691	2.33921	8.36707E-05	0.0441226	0	5	0	
0.0336667	-0.00347679	-2.3251	6.21334E-05	0.0443348	0	5	0	
0.0338333	0.000398416	2.32108	5.07489E-05	0.0444311	0	5	0	
0.034	-0.000385868	-2.3262	6.29248E-05	0.0443422	0	5	0	
0.0341667	-0.00211502	2.32806	6.73128E-05	0.0442313	0	5	0	
0.0343333	-0.00280707	-2.33046	6.82261E-05	0.0442638	0	5	0	
0.0345	0.000881386	2.3389	5.31922E-05	0.0443205	0	5	0	
0.0346667	0.00306794	-2.33875	6.00456E-05	0.0444403	0	5	0	
0.0348333	-0.00937402	2.32622	7.6815E-05	0.0444863	0	5	0	
0.035	0.00245939	-2.31649	0.000104781	0.0444095	0	5	0	
0.0351667	0.0040137	2.33383	0.000112461	0.0442449	0	5	0	
0.0353333	-0.00437232	-2.3458	0.000120297	0.0442479	0	5	0	
0.0355	-0.00345986	2.34773	0.0001378	0.0443731	0	5	0	
0.0356667	0.00714017	-2.35272	0.000137251	0.0445888	0	5	0	
0.0358333	0.000871462	2.34483	0.000117662	0.0446515	0	5	0	
0.036	0.00211378	-2.32232	8.81504E-05	0.0445627	0	5	0	
0.0361667	-0.00778474	2.32679	0.000109303	0.0443496	0	5	0	
0.0363333	0.00555945	-2.3397	0.000130244	0.0442215	0	5	0	
0.0365	0.00181309	2.35509	0.000179051	0.0443113	0	5	0	
0.0366667	-0.00430439	-2.35758	0.00017895	0.0445601	0	5	0	
0.0368333	0.00405626	2.36329	0.000183321	0.0447232	0	5	0	
0.037	0.00505055	-2.35874	0.000195958	0.0447627	0	5	0	
0.0371667	-0.0114582	2.34746	0.000200134	0.044686	0	5	0	
0.0373333	0.00370952	-2.34533	0.000213185	0.044614	0	5	0	
0.0375	-0.00434866	2.37086	0.000134719	0.0446138	0	5	0	
0.0376667	0.00499564	-2.36079	0.000131015	0.0447426	0	5	0	
0.0378333	-0.00657956	2.34968	0.000100136	0.0447631	0	5	0	
0.038	-0.00234762	-2.36573	0.000107484	0.04474	0	5	0	
0.0381667	0.00224021	2.39059	7.6501E-05	0.0447863	0	5	0	
0.0383333	-0.00450135	-2.37124	0.000102621	0.0449723	0	5	0	
0.0385	-0.0051116	2.36996	0.000144421	0.045052	0	5	0	
0.0386667	0.00581048	-2.37214	0.000182426	0.0450619	0	5	0	
0.0388333	-0.00494181	2.36697	0.000144363	0.0449756	0	5	0	
0.039	0.000370135	-2.37102	0.000112666	0.0449898	0	5	0	
0.0391667	-0.00128169	2.38589	6.47064E-05	0.0449752	0	5	0	
0.0393333	0.000775321	-2.38306	7.0346E-05	0.0450887	0	5	0	
0.0395	-0.00297108	2.38084	5.63737E-05	0.0451639	0	5	0	
0.0396667	0.00116778	-2.37011	6.40629E-05	0.0451877	0	5	0	
0.0398333	0.00119301	2.38095	6.1749E-05	0.045082	0	5	0	
0.04	0.00289727	-2.38121	8.18057E-05	0.0450874	0	5	0	
0.0401667	-0.00206446	2.38593	9.66842E-05	0.0451075	0	5	0	
0.0403333	0.00400028	-2.41191	0.000104867	0.0453205	0	5	0	
0.0405	-0.00214772	2.41488	0.000113627	0.0455921	0	5	0	
0.0406667	0.00476631	-2.3776	0.000136241	0.0457136	0	5	0	
0.0408333	-0.00288464	2.37734	0.000147179	0.0455461	0	5	0	
0.041	0.00393193	-2.39136	0.000126104	0.0453455	0	5	0	
0.0411667	-0.00121905	2.38934	8.08391E-05	0.0452993	0	5	0	
0.0413333	0.00267229	-2.38586	4.99011E-05	0.0454073	0	5	0	
0.0415	0.00067913	2.3835	4.48232E-05	0.0454609	0	5	0	
0.0416667	-0.00121966	-2.37817	6.33921E-05	0.0454117	0	5	0	
0.0418333	-0.00157125	2.38624	8.65455E-05	0.0453846	0	5	0	
0.042	0.00466648	-2.39306	9.05377E-05	0.0453792	0	5	0	
0.0421667	-0.00247372	2.39906	8.7883E-05	0.0454974	0	5	0	
0.0423333	0.00274723	-2.395	8.88074E-05	0.0456474	0	5	0	
0.0425	-0.00553975	2.38604	0.000115895	0.0457281	0	5	0	
0.0426667	0.00436501	-2.37956	0.000126649	0.0457012	0	5	0	
0.0428333	-0.000786625	2.3883	0.000106304	0.0456445	0	5	0	
0.043	-0.0035954	-2.40031	6.83393E-05	0.0456509	0	5	0	
0.0431667	0.00450848	2.40422	6.29764E-05	0.0457922	0	5	0	
0.0433333	-0.00153365	-2.39321	0.000109872	0.0459153	0	5	0	
0.0435	-0.00555614	2.38264	0.000163049	0.0459011	0	5	0	
0.0436667	0.00980009	-2.36989	0.000181957	0.0457726	0	5	0	
0.0438333	-0.00128376	2.37706	0.000154174	0.0456215	0	5	0	
0.044	-0.0087361	-2.37844	0.000138067	0.0456121	0	5	0	
0.0441667	0.00769184	2.37529	0.000160801	0.045676	0	5	0	
0.0443333	0.0139957	-2.36445	0.000329782	0.0457082	0	5	0	
0.0445	-0.0354363	2.35385	0.000487849	0.0455982	0	5	0	
0.0446667	0.0329114	-2.33942	0.000624529	0.0454398	0	5	0	
0.0448333	-0.00859757	2.33685	0.000598219	0.0452848	0	5	0	
0.045	-0.0136856	-2.33362	0.000564763	0.0452023	0	5	0	
0.0451667	0.0168064	2.33587	0.000444781	0.0451263	0	5	0	
0.0453333	-0.00852712	-2.33105	0.000369743	0.04512	0	5	0	
0.0455	0.00361269	2.34822	0.00032158	0.0451582	0	5	0	
0.0456667	0.00155542	-2.34798	0.000380423	0.0452979	0	5	0	
0.0458333	-0.0148839	2.33755	0.000460766	0.0453924	0	5	0	
0.046	0.0204833	-2.33396	0.000464948	0.0454414	0	5	0	
0.0461667	-0.00797301	2.33866	0.000407857	0.045406	0	5	0	
0.0463333	-0.0083264	-2.33216	0.000304033	0.0454207	0	5	0	
0.0465	0.00338928	2.34372	0.000249521	0.0454815	0	5	0	
0.0466667	0.0101041	-2.33577	0.000285471	0.0455552	0	5	0	
0.0468333	-0.0120084	2.33554	0.00027397	0.0455447	0	5	0	
0.047	0.000408656	-2.28976	0.000271629	0.0454264	0	5	0	
0.0471667	0.0022696	2.25579	0.000154846	0.0452015	0	5	0	
0.0473333	-0.000534518	-2.33725	0.000145759	0.045298	0	5	0	
0.0475	-0.00508492	2.48984	0.000110427	0.0457804	0	5	0	
0.0476667	-0.00456779	-2.63136	0.000127507	0.0470029	0	5	0	
0.0478333	-0.000851263	2.33732	9.50758E-05	0.0476954	0	5	0	
0.048	0.00110618	-2.22091	9.47492E-05	0.0469741	0	5	0	
0.0481667	-0.00342689	2.24414	8.60105E-05	0.0454936	0	5	0	
0.0483333	-0.00225536	-2.22386	7.90184E-05	0.0442625	0	5	0	
0.0485	-0.00207051	2.32737	6.10205E-05	0.0444545	0	5	0	
0.0486667	-0.003707	-2.64267	5.81945E-05	0.0462445	0	5	0	
0.0488333	0.000897952	2.51752	5.98731E-05	0.0488691	0	5	0	
0.049	-0.000622326	-2.38337	6.7794E-05	0.0497775	0	5	0	
0.0491667	-0.000913814	2.25313	7.32321E-05	0.0484131	0	5	0	
0.0493333	0.00112385	-2.23966	7.47397E-05	0.0460146	0	5	0	
0.0495	-0.00406449	2.31178	6.04135E-05	0.0454246	0	5	0	
0.0496667	-0.000107489	-2.37154	5.68536E-05	0.045865	0	5	0	
0.0498333	0.000601718	2.36265	5.51483E-05	0.0465543	0	5	0	
0.05	-0.00164122	-2.27809	8.84752E-05	0.0465154	0	5	0	
0.0501667	-0.00117004	2.23886	0.000120252	0.0459915	0	5	0	
0.0503333	0.0017606	-2.25052	0.000119838	0.0454043	0	5	0	
0.0505	0.00179542	2.24352	8.5368E-05	0.0451711	0	5	0	
0.0506667	-0.00335981	-2.23674	5.34505E-05	0.0450814	0	5	0	
0.0508333	0.000153571	2.2522	4.63557E-05	0.0451944	0	5	0	
0.051	-0.00415697	-2.2446	5.55946E-05	0.045344	0	5	0	
0.0511667	0.00502325	2.22967	7.22564E-05	0.0455448	0	5	0	
0.0513333	-0.00485887	-2.21501	0.000112102	0.0454471	0	5	0	
0.0515	-0.00112821	2.21334	0.000148929	0.0451878	0	5	0	
0.0516667	0.0074147	-2.23528	0.000159386	0.0449968	0	5	0	
0.0518333	-0.00654507	2.2619	0.000139121	0.0452158	0	5	0	
0.052	-0.00158584	-2.26511	0.000120957	0.0456644	0	5	0	
0.0521667	0.00831107	2.22707	0.000117697	0.046036	0	5	0	
0.0523333	-0.00515867	-2.19863	0.000136159	0.0458934	0	5	0	
0.0525	0.00101151	2.20546	0.000143844	0.0454834	0	5	0	
0.0526667	-0.00185525	-2.20958	0.000116559	0.0451355	0	5	0	
0.0528333	0.000574372	2.20416	8.7842E-05	0.0451663	0	5	0	
0.053	0.00136919	-2.19921	7.13838E-05	0.0454631	0	5	0	
0.0531667	0.000806457	2.19219	6.5671E-05	0.0457577	0	5	0	
0.0533333	-0.00348841	-2.18291	6.5002E-05	0.0457498	0	5	0	
0.0535	-0.00494108	2.18071	0.000108348	0.0454895	0	5	0	
0.0536667	0.0112644	-2.171	0.000174904	0.0453232	0	5	0	
0.0538333	-0.012248	2.17017	0.000230005	0.0453031	0	5	0	
0.054	0.00511028	-2.16093	0.000231225	0.0453196	0	5	0	
0.0541667	0.007944	2.14836	0.000278247	0.045174	0	5	0	
0.0543333	-0.0213698	-2.15008	0.000313374	0.0451389	0	5	0	
0.0545	0.012404	2.17449	0.000343927	0.0452667	0	5	0	
0.0546667	0.000723013	-2.16563	0.000402501	0.0454965	0	5	0	
0.0548333	-0.00750225	2.13059	0.000419306	0.0454467	0	5	0	
0.055	0.0116914	-2.12731	0.000376859	0.0452199	0	5	0	
0.0551667	-0.0139572	2.13899	0.000285839	0.0451056	0	5	0	
0.0553333	0.00643359	-2.12749	0.000213001	0.0452552	0	5	0	
0.0555	0.00404687	2.12181	0.00022441	0.0454135	0	5	0	
0.0556667	-0.0115658	-2.10872	0.000191526	0.0454561	0	5	0	
0.0558333	0.00355253	2.11134	0.000215403	0.0454255	0	5	0	
0.056	0.00565543	-2.11212	0.000215799	0.0454783	0	5	0	
0.0561667	-0.00359105	2.09979	0.000198278	0.0453972	0	5	0	
0.0563333	-0.00237399	-2.07311	0.000139258	0.0452381	0	5	0	
0.0565	0.00225109	2.07178	6.96579E-05	0.0450796	0	5	0	
0.0566667	-0.00396073	-2.07689	7.4587E-05	0.0451384	0	5	0	
0.0568333	-0.00215117	2.097	8.70116E-05	0.0452967	0	5	0	
0.057	0.00223108	-2.08288	8.97775E-05	0.0454901	0	5	0	
0.0571667	-0.00041229	2.06503	9.66782E-05	0.0454345	0	5	0	
0.0573333	-0.00605156	-2.03569	0.000107279	0.045327	0	5	0	
0.0575	0.000734781	2.00786	0.000121886	0.045069	0	5	0	
0.0576667	0.00405714	-1.99967	0.000113582	0.044834	0	5	0	
0.0578333	-0.00473604	2.00995	0.00010159	0.0446851	0	5	0	
0.058	0.00336995	-2.00914	0.000117863	0.044793	0	5	0	
0.0581667	-0.0135697	2.02829	0.000135683	0.0450058	0	5	0	
0.0583333	0.00907331	-2.01796	0.000183975	0.0451467	0	5	0	
0.0585	0.00213042	2.00092	0.000241308	0.0450005	0	5	0	
0.0586667	-0.00795428	-2.00504	0.000213584	0.0448605	0	5	0	
0.0588333	-0.000251364	2.00827	0.000228606	0.0448514	0	5	0	
0.059	0.0059272	-1.98143	0.00020739	0.0449495	0	5	0	
0.0591667	-0.00403886	1.97892	0.000206484	0.0449789	0	5	0	
0.0593333	-0.00273119	-1.98302	0.000148683	0.0449784	0	5	0	
0.0595	-0.000132575	1.99189	9.16437E-05	0.0450446	0	5	0	
0.0596667	0.00176032	-1.98101	8.45012E-05	0.045155	0	5	0	
0.0598333	0.00325063	1.95181	7.07522E-05	0.0451098	0	5	0	
0.06	-0.00431202	-1.93575	7.10475E-05	0.0450169	0	5	0	
0.0601667	-0.00332225	1.93493	9.82344E-05	0.0449733	0	5	0	
0.0603333	0.00413419	-1.90969	0.000137562	0.0449207	0	5	0	
0.0605	-0.00130243	1.91577	0.000130053	0.0447959	0	5	0	
0.0606667	-0.00367605	-1.92978	0.0001262	0.0447633	0	5	0	
0.0608333	0.00761302	1.93997	0.000102623	0.0448879	0	5	0	
0.061	0.000340294	-1.91275	0.000115543	0.0450411	0	5	0	
0.0611667	0.0006768	1.89864	8.06579E-05	0.0449578	0	5	0	
0.0613333	-0.00137595	-1.89067	5.30912E-05	0.0447495	0	5	0	
0.0615	0.00783095	1.89075	5.90373E-05	0.044582	0	5	0	
0.0616667	-0.00591004	-1.87927	9.42299E-05	0.0445125	0	5	0	
0.0618333	0.012507	1.8874	0.000144867	0.0445233	0	5	0	
0.062	-0.00172817	-1.88214	0.000173654	0.0446551	0	5	0	
0.0621667	-0.00492814	1.88906	0.000210577	0.0449086	0	5	0	
0.0623333	0.00770133	-1.89111	0.000198108	0.0451785	0	5	0	
0.0625	0.00307338	1.8893	0.000158319	0.0453426	0	5	0	
0.0626667	0.00430937	-1.8753	9.1872E-05	0.0453395	0	5	0	
0.0628333	-0.000722265	1.86325	6.9727E-05	0.0452439	0	5	0	
0.063	-0.00246934	-1.8383	7.755E-05	0.0451009	0	5	0	
0.0631667	0.00931428	1.8267	9.35473E-05	0.0449911	0	0	0	
0.0633333	-0.00424901	-1.81011	0.000121077	0.0448984	0	0	0	
0.0635	5.99486E-05	1.8237	0.000160426	0.0449357	0	0	0	
0.0636667	0.000340312	-1.83184	0.00014359	0.0452162	0	0	0	
0.0638333	0.0059216	1.81904	0.000118247	0.0455771	0	0	0	
0.064	-0.00743554	-1.77942	0.000127432	0.0456741	0	0	0	
0.0641667	0.000311382	1.77972	0.000179026	0.0453531	0	0	0	
0.0643333	0.00225871	-1.78387	0.000183762	0.0450119	0	0	0	
0.0645	0.00227089	1.78753	0.000122576	0.0448675	0	0	0	
0.0646667	-0.00349171	-1.76745	7.64525E-05	0.0449498	0	0	0	
0.0648333	0.00245708	1.73242	8.57252E-05	0.0449839	0	0	0	
0.065	-0.00618137	-1.70769	9.50027E-05	0.0448505	0	0	0	
0.0651667	0.0074957	1.73071	0.00011823	0.0445959	0	0	0	
0.0653333	-0.00158139	-1.74315	0.000111474	0.0444572	0	0	0	
0.0655	-0.00325483	1.72839	0.000140776	0.0445224	0	0	0	
0.0656667	0.00271574	-1.70826	0.000106981	0.0447097	0	0	0	
0.0658333	0.00258245	1.69326	9.04161E-05	0.0448339	0	0	0	
0.066	-0.00219566	-1.68286	5.03403E-05	0.0447785	0	0	0	
0.0661667	0.00278271	1.6992	6.06337E-05	0.0446544	0	0	0	
0.0663333	-0.000914812	-1.70348	8.26633E-05	0.0446343	0	0	0	
0.0665	-0.000998206	1.69751	0.000125463	0.044865	0	0	0	
0.0666667	-7.09176E-05	-1.68094	0.000139173	0.0450655	0	0	0	
0.0668333	0.00109682	1.66211	0.000121936	0.0449723	0	0	0	
0.067	-0.000804982	-1.64776	8.9194E-05	0.0446052	0	0	0	
0.0671667	0.000105439	1.65979	5.87612E-05	0.0443699	0	0	0	
0.0673333	-0.00282622	-1.66828	4.36308E-05	0.0444148	0	0	0	
0.0675	0.00644645	1.6453	4.37976E-05	0.0447056	0	0	0	
0.0676667	-0.00671164	-1.62957	8.46356E-05	0.0449033	0	0	0	
0.0678333	0.000979254	1.62057	0.000117977	0.0449545	0	0	0	
0.068	-0.0014386	-1.61529	0.000123004	0.0448003	0	0	0	
0.0681667	-0.00179932	1.61912	8.69816E-05	0.0447087	0	0	0	
0.0683333	0.00204778	-1.62926	6.08528E-05	0.0447167	0	0	0	
0.0685	-0.00184157	1.62117	4.89155E-05	0.0449598	0	0	0	
0.0686667	0.00110814	-1.60394	4.06269E-05	0.0451887	0	0	0	
0.0688333	-0.000768334	1.58303	3.73158E-05	0.0452892	0	0	0	
0.069	-0.00449876	-1.58092	4.43574E-05	0.0451008	0	0	0	
0.0691667	0.00468766	1.57943	6.44951E-05	0.0448569	0	0	0	
0.0693333	-0.0054668	-1.56399	9.37782E-05	0.0446971	0	0	0	
0.0695	0.00235075	1.55234	0.000133685	0.044766	0	0	0	
0.0696667	0.00265805	-1.54042	0.000173054	0.0448994	0	0	0	
0.0698333	-0.00317136	1.52432	0.000173114	0.0449427	0	0	0	
0.07	-0.0028967	-1.52372	0.000129537	0.0448421	0	0	0	
0.0701667	0.0015917	1.54027	7.1799E-05	0.0448053	0	0	0	
0.0703333	-0.00117849	-1.52009	4.63092E-05	0.0448938	0	0	0	
0.0705	0.00437688	1.4898	5.09553E-05	0.0449529	0	0	0	
0.0706667	-0.00453644	-1.47295	8.13762E-05	0.04488	0	0	0	
0.0708333	0.00261555	1.48763	9.69962E-05	0.0447644	0	0	0	
0.071	-0.000256352	-1.48084	0.000107686	0.0447604	0	0	0	
0.0711667	-0.000188046	1.48342	8.95403E-05	0.0447836	0	0	0	
0.0713333	-0.00077187	-1.46394	7.95509E-05	0.0448742	0	0	0	
0.0715	0.00062964	1.44646	7.62875E-05	0.0448908	0	0	0	
0.0716667	-0.00149303	-1.42498	7.68998E-05	0.0448509	0	0	0	
0.0718333	0.00566543	1.42188	8.24328E-05	0.0446934	0	0	0	
0.072	-0.00824366	-1.41582	9.21173E-05	0.0446143	0	0	0	
0.0721667	0.00329713	1.42437	0.000133782	0.044609	0	0	0	
0.0723333	0.00170264	-1.4149	0.000156787	0.0446761	0	0	0	
0.0725	-0.000318446	1.40243	0.000125462	0.0447598	0	0	0	
0.0726667	-0.00272496	-1.39327	7.81771E-05	0.0448735	0	0	0	
0.0728333	-0.00186247	1.36985	7.39186E-05	0.0448931	0	0	0	
0.073	-0.000636302	-1.35905	0.000101673	0.0447713	0	0	0	
0.0731667	2.00831E-05	1.37126	0.000103485	0.0446654	0	0	0	
0.0733333	-0.000219427	-1.36935	6.97481E-05	0.0446564	0	0	0	
0.0735	-0.00126388	1.36096	4.70824E-05	0.0447797	0	0	0	
0.0736667	-0.00143588	-1.33479	5.19283E-05	0.0449059	0	0	0	
0.0738333	0.00319151	1.31285	6.75476E-05	0.0449478	0	0	0	
0.074	-0.00788369	-1.31312	0.000100408	0.0448832	0	0	0	
0.0741667	0.00323653	1.32632	0.000108644	0.0448122	0	0	0	
0.0743333	-0.00117374	-1.32265	0.000125084	0.0448477	0	0	0	
0.0745	-0.00420225	1.31155	0.000125856	0.0449893	0	0	0	
0.0746667	3.68559E-05	-1.28926	0.000107288	0.0450801	0	0	0	
0.0748333	0.0075863	1.27631	8.77041E-05	0.0450926	0	0	0	
0.075	-0.00844769	-1.27006	9.2721E-05	0.0450533	0	0	0	
0.0751667	-0.00214311	1.2725	0.000142225	0.0449975	0	0	0	
0.0753333	0.000585733	-1.25224	0.000161389	0.0449317	0	0	0	
0.0755	0.000787036	1.22795	0.000113368	0.0448674	0	0	0	
0.0756667	-0.00622164	-1.21513	8.08396E-05	0.0447952	0	0	0	
0.0758333	0.00580585	1.20681	6.78583E-05	0.0447592	0	0	0	
0.076	-0.00348046	-1.19547	0.000108646	0.0447133	0	0	0	
0.0761667	-0.00103997	1.20681	0.000114516	0.0446598	0	0	0	
0.0763333	-0.00167352	-1.20694	0.000107928	0.0446699	0	0	0	
0.0765	0.00249918	1.2089	7.87213E-05	0.044762	0	0	0	
0.0766667	-0.00807906	-1.20485	8.60514E-05	0.0448318	0	0	0	
0.0768333	-0.00145259	1.19255	0.000111659	0.0447973	0	0	0	
0.077	0.00653764	-1.17781	0.000151019	0.04481	0	0	0	
0.0771667	-0.00236339	1.17837	0.000146038	0.0449937	0	0	0	
0.0773333	-0.00956811	-1.16069	0.000165285	0.0451786	0	0	0	
0.0775	0.0109196	1.15212	0.000171515	0.0452074	0	0	0	
0.0776667	-0.00911269	-1.15586	0.000206643	0.0451762	0	0	0	
0.0778333	0.000441168	1.14109	0.000205058	0.0452316	0	0	0	
0.078	-0.00278349	-1.1144	0.000189849	0.0453046	0	0	0	
0.0781667	-0.00325945	1.09941	0.000151192	0.0452898	0	0	0	
0.0783333	0.00424944	-1.08827	9.75221E-05	0.0451413	0	0	0	
0.0785	-0.00449499	1.08484	0.000101581	0.044994	0	0	0	
0.0786667	-0.00724252	-1.07598	0.000124907	0.044932	0	0	0	
0.0788333	0.00796733	1.05889	0.000172023	0.0450304	0	0	0	
0.079	-0.00279475	-1.05808	0.000167305	0.0452035	0	0	0	
0.0791667	-0.00471746	1.05449	0.000158172	0.0453486	0	0	0	
0.0793333	0.00138642	-1.04112	0.000125656	0.0453255	0	0	0	
0.0795	-0.00144695	1.03017	9.10958E-05	0.0451901	0	0	0	
0.0796667	-0.00405232	-1.00956	6.31633E-05	0.0449989	0	0	0	
0.0798333	0.00381858	0.997314	6.75651E-05	0.0448376	0	0	0	
0.08	-0.00308821	-0.995335	8.33144E-05	0.0447759	0	0	0	
0.0801667	-0.00316771	0.979768	0.00011772	0.0448359	0	0	0	
0.0803333	0.00256386	-0.963489	0.000116791	0.0449392	0	0	0	
0.0805	0.00310291	0.973823	0.000112706	0.0449973	0	0	0	
0.0806667	-0.00538929	-0.968601	9.48584E-05	0.0449676	0	0	0	
0.0808333	0.00288728	0.960423	9.72208E-05	0.0449112	0	0	0	
0.081	-0.00032382	-0.952839	0.000101443	0.044966	0	0	0	
0.0811667	0.00362872	0.945646	7.75328E-05	0.0451387	0	0	0	
0.0813333	-0.00866789	-0.934262	8.83003E-05	0.0453008	0	0	0	
0.0815	0.000174884	0.919586	0.000144033	0.0452661	0	0	0	
0.0816667	0.00848491	-0.904464	0.000212749	0.0450649	0	0	0	
0.0818333	-0.00637842	0.892687	0.000229517	0.0449169	0	0	0	
0.082	-0.00339676	-0.876718	0.000189282	0.0449225	0	0	0	
0.0821667	0.0082864	0.871486	0.000138626	0.0450423	0	0	0	
0.0823333	-0.00512571	-0.865225	0.000131092	0.0452351	0	0	0	
0.0825	0.000331754	0.835926	0.000141517	0.0454032	0	0	0	
0.0826667	-0.00249018	-0.828449	0.000144547	0.0453873	0	0	0	
0.0828333	-0.000522808	0.82901	0.000105894	0.0452202	0	0	0	
0.083	-0.00317549	-0.826741	8.01464E-05	0.0450498	0	0	0	
0.0831667	0.00267203	0.81186	7.7776E-05	0.0450255	0	0	0	
0.0833333	-0.0107802	-0.794581	0.00011017	0.044995	0	0	0	
0.0835	0.00280053	0.77252	0.000125472	0.0449234	0	0	0	
0.0836667	0.00301884	-0.773859	0.00016626	0.0448957	0	0	0	
0.0838333	-0.00734275	0.781745	0.000152589	0.0449677	0	0	0	
0.084	0.000804198	-0.769579	0.000134805	0.0449787	0	0	0	
0.0841667	-0.00312146	0.741961	9.50678E-05	0.0448725	0	0	0	
0.0843333	0.00187298	-0.752646	6.61413E-05	0.0447761	0	0	0	
0.0845	0.00592112	0.756948	0.000106378	0.0448837	0	0	0	
0.0846667	-0.0202438	-0.741318	0.000135763	0.045041	0	0	0	
0.0848333	0.0181764	0.72489	0.000272886	0.0451146	0	0	0	
0.085	-0.003555	-0.72425	0.00033521	0.045143	0	0	0	
0.0851667	-0.00268783	0.727366	0.000402024	0.0451859	0	0	0	
0.0853333	0.0076442	-0.718924	0.000310876	0.0451124	0	0	0	
0.0855	-0.00579533	0.677937	0.000233301	0.0449549	0	0	0	
0.0856667	-0.0012333	-0.678904	0.000149272	0.0449897	0	0	0	
0.0858333	0.00409468	0.686973	0.000179524	0.0453712	0	0	0	
0.086	-0.0133648	-0.642711	0.000244512	0.0457072	0	0	0	
0.0861667	0.0205798	0.61974	0.000285968	0.0456832	0	0	0	
0.0863333	-0.00829898	-0.641104	0.0003309	0.0454478	0	0	0	
0.0865	-0.00842825	0.637993	0.000334967	0.0452617	0	0	0	
0.0866667	0.00449324	-0.618692	0.000300191	0.0451734	0	0	0	
0.0868333	-0.000418427	0.590218	0.000197772	0.0451604	0	0	0	
0.087	-0.00563354	-0.560236	0.000105954	0.0451796	0	0	0	
0.0871667	0.00440447	0.561461	9.75788E-05	0.0450986	0	0	0	
0.0873333	-0.00124627	-0.57969	0.000101277	0.0448544	0	0	0	
0.0875	0.00240254	0.589436	8.4001E-05	0.0446922	0	0	0	
0.0876667	1.54059E-05	-0.582208	6.00849E-05	0.0448616	0	0	0	
0.0878333	0.0011578	0.56138	5.89658E-05	0.0451936	0	0	0	
0.088	-0.0024869	-0.536836	7.37902E-05	0.0453716	0	0	0	
0.0881667	0.00614601	0.523192	7.88771E-05	0.0452929	0	0	0	
0.0883333	-0.00402537	-0.531126	9.69845E-05	0.0450968	0	0	0	
0.0885	-0.000258315	0.532379	0.0001142	0.0449682	0	0	0	
0.0886667	0.00218759	-0.513129	0.000119869	0.0449881	0	0	0	
0.0888333	0.000993267	0.490054	8.77038E-05	0.0451062	0	0	0	
0.089	-0.00327771	-0.47849	6.35912E-05	0.0452132	0	0	0	
0.0891667	0.0072376	0.464626	5.88228E-05	0.0452431	0	0	0	
0.0893333	-0.00444296	-0.462045	9.37597E-05	0.0452051	0	0	0	
0.0895	0.00155757	0.467492	9.82538E-05	0.0451839	0	0	0	
0.0896667	-0.00518374	-0.456759	0.000104195	0.0452513	0	0	0	
0.0898333	0.00331005	0.425147	9.14484E-05	0.0453551	0	0	0	
0.09	0.000661546	-0.410595	0.000131365	0.0453601	0	0	0	
0.0901667	-0.00145183	0.395492	0.000125902	0.0452768	0	0	0	
0.0903333	-0.00600124	-0.395415	0.000125961	0.0452261	0	0	0	
0.0905	0.00667359	0.401922	9.60627E-05	0.0452556	0	0	0	
0.0906667	3.59725E-05	-0.380568	0.000107583	0.0452408	0	0	0	
0.0908333	-0.00192963	0.35791	9.34127E-05	0.0451544	0	0	0	
0.091	-0.00601089	-0.36838	7.78251E-05	0.0450842	0	0	0	
0.0911667	0.00752804	0.365845	8.07446E-05	0.0450227	0	0	0	
0.0913333	-0.00391477	-0.349544	0.000109234	0.0449117	0	0	0	
0.0915	-0.00472385	0.330765	0.000146722	0.0448501	0	0	0	
0.0916667	0.00493994	-0.322892	0.000164714	0.0449723	0	0	0	
0.0918333	-0.00443011	0.314036	0.000152906	0.0452006	0	0	0	
0.092	-0.0043382	-0.282818	0.000118891	0.0452887	0	0	0	
0.0921667	0.00948175	0.267762	0.000107059	0.0452019	0	0	0	
0.0923333	-0.0091968	-0.284968	0.000124089	0.0451688	0	0	0	
0.0925	0.00623358	0.278156	0.000160202	0.0452711	0	0	0	
0.0926667	-0.00581144	-0.255363	0.000192306	0.0453427	0	0	0	
0.0928333	-0.00331305	0.23731	0.000208576	0.0452898	0	0	0	
0.093	0.00325007	-0.236006	0.000187769	0.0452336	0	0	0	
0.0931667	-0.00238702	0.240961	0.000131502	0.0452199	0	0	0	
0.0933333	6.11537E-05	-0.234071	9.16485E-05	0.0451193	0	0	0	
0.0935	0.00500099	0.209192	0.000115081	0.0449686	0	0	0	
0.0936667	-0.00705298	-0.192312	0.000151787	0.0449777	0	0	0	
0.0938333	0.00370262	0.174078	0.000162092	0.0451194	0	0	0	
0.094	-0.00233329	-0.164635	0.00011798	0.0451793	0	0	0	
0.0941667	0.00242788	0.162119	7.04758E-05	0.0451533	0	0	0	
0.0943333	0.00343783	-0.166495	7.29424E-05	0.0452106	0	0	0	
0.0945	-0.00665069	0.148847	9.09602E-05	0.0453554	0	0	0	
0.0946667	-0.000465457	-0.12093	0.000129572	0.0453996	0	0	0	
0.0948333	-0.00459925	0.0985036	0.000112398	0.0452818	0	0	0	
0.095	0.0148108	-0.11022	0.000157919	0.0451229	0	0	0	
0.0951667	0.00034223	0.122491	0.000265897	0.04503	0	0	0	
0.0953333	-0.0369235	-0.116473	0.000484809	0.0449839	0	0	0	
0.0955	0.0324857	0.0762816	0.000618995	0.044912	0	0	0	
0.0956667	0.000258572	-0.0427648	0.000675574	0.0448204	0	0	0	
0.0958333	0.00178594	0.0366597	0.000499833	0.044833	0	0	0	
0.096	-0.00948959	-0.0460441	0.000317912	0.0449771	0	0	0	
0.0961667	-0.0125602	0.0440827	0.000246196	0.0451003	0	0	0	
0.0963333	0.0280384	-0.0518813	0.000306103	0.0451304	0	0	0	
0.0965	-0.000513991	0.0278151	0.000511543	0.0451669	0	0	0	
0.0966667	-0.0247957	-0.00982129	0.000650152	0.0451982	0	0	0	
0.0968333	0.0233629	-0.00381437	0.000665912	0.045047	0	0	0	
0.097	0.00258883	0.00805808	0.000547795	0.0447764	0	0	0	
0.0971667	-0.00388591	-0.0153312	0.000302482	0.0446976	0	0	0	
0.0973333	-0.0048036	0.00469006	0.000240848	0.0448521	0	0	0	
0.0975	0.0205713	-0.0365696	0.000218492	0.0449601	0	0	0	
0.0976667	-0.0195304	0.0461801	0.000312454	0.0449083	0	0	0	
0.0978333	-0.0111903	-0.0527165	0.000482199	0.044881	0	0	0	
0.098	0.0366936	0.0523688	0.000592035	0.0450178	0	0	0	
0.0981667	-0.0219212	-0.0839706	0.000656028	0.0452711	0	0	0	
0.0983333	-0.00784014	0.09611	0.000525253	0.0454646	0	0	0	
0.0985	0.0147428	-0.116283	0.000386553	0.0454569	0	0	0	
0.0986667	-0.0224415	0.124405	0.000355346	0.0452738	0	0	0	
0.0988333	0.0237517	-0.138351	0.000356458	0.0451262	0	0	0	
0.099	0.00452824	0.132433	0.000602545	0.0451286	0	0	0	
0.0991667	-0.0292703	-0.16244	0.000712767	0.0451504	0	0	0	
0.0993333	-0.0133299	0.197416	0.00067443	0.0451124	0	0	0	
0.0995	0.0222295	-0.184013	0.000450798	0.0454626	0	0	0	
0.0996667	0.00662689	0.0395382	0.000404391	0.0466992	0	0	0	
0.0998333	-0.0155649	0.0776329	0.000405902	0.0479632	0	0	0	
0.1	-0.0239841	-0.104194	0.000445193	0.0473616	0	0	0	
0.100167	0.00445411	-0.070129	0.000350001	0.0445476	0	0	0	
0.100333	0.0154517	0.203498	0.000450538	0.0416783	0	0	0	
0.1005	0.00544309	-0.303737	0.000486592	0.0408668	0	0	0	
0.100667	-0.0493102	0.373421	0.000544761	0.0420091	0	0	0	
0.100833	0.0195634	-0.3933	0.000632073	0.0440969	0	0	0	
0.101	0.0158213	0.226394	0.000804322	0.0464378	0	0	0	
0.101167	-0.0143348	-0.129707	0.000691824	0.048187	0	0	0	
0.101333	-0.0149967	0.113744	0.000568108	0.0481456	0	0	0	
0.1015	0.0157587	-0.199875	0.00031881	0.0465663	0	0	0	
0.101667	-0.00242389	0.246	0.000344808	0.0449045	0	0	0	
0.101833	-0.00411974	-0.243208	0.000238889	0.0443404	0	0	0	
0.102	-0.00402299	0.219802	0.000209617	0.0445294	0	0	0	
0.102167	0.00722246	-0.230006	0.000132042	0.0446053	0	0	0	
0.102333	0.0155187	0.273454	0.000225077	0.0442875	0	0	0	
0.1025	-0.0346789	-0.318383	0.000297585	0.0439798	0	0	0	
0.102667	-0.00115014	0.31157	0.000709946	0.0440105	0	0	0	
0.102833	0.0450405	-0.314569	0.00119757	0.0442581	0	0	0	
0.103	-0.0613523	0.326378	0.00146579	0.0444233	0	0	0	
0.103167	0.0482569	-0.369961	0.00136873	0.0445741	0	0	0	
0.103333	-0.0247598	0.40573	0.000990308	0.0448602	0	0	0	
0.1035	-0.00659768	-0.4048	0.000906443	0.0452463	0	0	0	
0.103667	0.049695	0.376642	0.000843722	0.0455127	0	0	0	
0.103833	-0.0607311	-0.381667	0.000927574	0.0455501	0	0	0	
0.104	0.0218849	0.407264	0.000973829	0.045442	0	0	0	
0.104167	0.012444	-0.458797	0.00101526	0.0453769	0	0	0	
0.104333	-0.0158116	0.476801	0.000871245	0.0453343	0	0	0	
0.1045	0.0169999	-0.462245	0.000607201	0.0452532	0	0	0	
0.104667	-0.000760447	0.451459	0.000342932	0.0451863	0	0	0	
0.104833	-0.0086902	-0.454139	0.000179116	0.0452208	0	0	0	
0.105	-0.000177631	0.473075	0.00017513	0.045311	0	0	0	
0.105167	0.0191392	-0.500908	0.000260387	0.0453567	0	0	0	
0.105333	-0.0214239	0.495372	0.000357827	0.0453439	0	0	0	
0.1055	0.0104899	-0.492772	0.000377846	0.0452735	0	0	0	
0.105667	4.96934E-05	0.507462	0.000334683	0.0450756	0	0	0	
0.105833	-0.00101009	-0.51952	0.000223029	0.0448652	0	0	0	
0.106	-0.00411379	0.52679	0.000131752	0.0448666	0	0	0	
0.106167	-0.00132653	-0.540046	0.000104876	0.0450605	0	0	0	
0.106333	0.00315361	0.558248	0.000120741	0.0452186	0	0	0	
0.1065	0.00721625	-0.574705	0.000143897	0.0452239	0	0	0	
0.106667	-0.00891633	0.568343	0.000115331	0.0451339	0	0	0	
0.106833	0.00187102	-0.572805	0.000150299	0.0450445	0	0	0	
0.107	0.00130667	0.590397	0.000153009	0.0449699	0	0	0	
0.107167	0.00262056	-0.605002	0.000127049	0.044961	0	0	0	
0.107333	-0.00150862	0.619806	8.59231E-05	0.0450483	0	0	0	
0.1075	0.00333298	-0.636131	5.78644E-05	0.0451742	0	0	0	
0.107667	-0.00470472	0.640193	6.4908E-05	0.0452275	0	0	0	
0.107833	0.0101655	-0.653436	9.38881E-05	0.0451783	0	0	0	
0.108	-0.00347791	0.655018	0.000114366	0.0450665	0	0	0	
0.108167	0.000721421	-0.659993	0.000129134	0.0450515	0	0	0	
0.108333	-0.000815427	0.675119	8.68217E-05	0.0451238	0	0	0	
0.1085	0.00885485	-0.685652	8.375E-05	0.0451486	0	0	0	
0.108667	-0.00292094	0.684722	8.10968E-05	0.0450639	0	0	0	
0.108833	0.00258524	-0.690518	0.000116128	0.0449807	0	0	0	
0.109	0.00282571	0.699398	9.25672E-05	0.0449767	0	0	0	
0.109167	0.00648244	-0.728353	8.1186E-05	0.0451025	0	0	0	
0.109333	-0.00678359	0.744253	9.13936E-05	0.0452781	0	0	0	
0.1095	0.00812458	-0.736322	0.000120905	0.0453686	0	0	0	
0.109667	-0.000152509	0.744483	0.000123881	0.0453209	0	0	0	
0.109833	0.00369669	-0.779936	0.000109579	0.0452767	0	0	0	
0.11	0.000448409	0.790883	9.43242E-05	0.0453333	0	0	0	
0.110167	0.00499011	-0.806338	9.76045E-05	0.0454585	0	0	0	
0.110333	-0.00203541	0.820564	9.06998E-05	0.0454714	0	0	0	
0.1105	0.00668806	-0.814527	9.93653E-05	0.0453527	0	0	0	
0.110667	-0.0051831	0.804471	0.000117873	0.0451908	0	0	0	
0.110833	0.0100853	-0.83134	0.000137002	0.045157	0	0	0	
0.111	-0.00167848	0.838686	0.000161618	0.0452026	0	0	0	
0.111167	0.00141504	-0.862596	0.000149228	0.0452809	0	0	0	
0.111333	-9.16588E-05	0.867717	0.000137787	0.0452419	0	0	0	
0.1115	0.0101092	-0.852247	0.000136698	0.0451568	0	0	0	
0.111667	-0.00863105	0.847835	0.000157466	0.0450352	0	0	0	
0.111833	0.00802396	-0.875527	0.000176273	0.0449653	0	0	0	
0.112	-0.00317952	0.893236	0.000160986	0.0449787	0	0	0	
0.112167	0.00370044	-0.906736	0.000130864	0.0450502	0	0	0	
0.112333	0.00320581	0.898108	9.21563E-05	0.0450348	0	0	0	
0.1125	0.000120332	-0.896438	5.66722E-05	0.0450109	0	0	0	
0.112667	-0.0030533	0.901561	6.4464E-05	0.0450301	0	0	0	
0.112833	0.00639712	-0.914797	8.47585E-05	0.0451202	0	0	0	
0.113	-0.00401605	0.944158	0.000104389	0.0452147	0	0	0	
0.113167	0.00484257	-0.969792	0.000106083	0.0452964	0	0	0	
0.113333	-0.000431071	0.969271	9.15723E-05	0.0453121	0	0	0	
0.1135	0.00400013	-0.980542	7.89735E-05	0.0452741	0	0	0	
0.113667	-0.00432878	0.985656	7.37091E-05	0.0452354	0	0	0	
0.113833	0.00709617	-0.99709	9.71173E-05	0.0453879	0	0	0	
0.114	-0.00714337	1.00323	0.000112842	0.0455848	0	0	0	
0.114167	0.00468332	-1.00716	0.00013065	0.045597	0	0	0	
0.114333	0.00306859	0.993066	0.000103501	0.045326	0	0	0	
0.1145	0.00152997	-1.0199	8.47142E-05	0.0451388	0	0	0	
0.114667	-0.0032364	1.04601	5.16819E-05	0.0451856	0	0	0	
0.114833	0.00416942	-1.07525	6.63847E-05	0.0454034	0	0	0	
0.115	-0.00415742	1.07461	0.000102075	0.0454289	0	0	0	
0.115167	0.00697692	-1.07155	0.000154341	0.0452788	0	0	0	
0.115333	-0.00618875	1.05863	0.000150829	0.0451139	0	0	0	
0.1155	-0.00258951	-1.09283	0.00017912	0.0451975	0	0	0	
0.115667	0.000751498	1.11	0.000128008	0.0453574	0	0	0	
0.115833	0.00715276	-1.12318	0.000176713	0.0454355	0	0	0	
0.116	-0.00813515	1.10209	0.000163577	0.0452429	0	0	0	
0.116167	-0.000581815	-1.0971	0.000170059	0.0450531	0	0	0	
0.116333	0.00177684	1.09445	0.000101316	0.0450056	0	0	0	
0.1165	0.00533929	-1.1342	7.62423E-05	0.0451809	0	0	0	
0.116667	-0.00976003	1.1605	9.8218E-05	0.0453553	0	0	0	
0.116833	-0.00304497	-1.16876	0.000146732	0.0454492	0	0	0	
0.117	0.00281472	1.15929	0.000117869	0.0453336	0	0	0	
0.117167	0.00607938	-1.17189	0.000148114	0.0451204	0	0	0	
0.117333	-0.0104662	1.17171	0.000160178	0.0448981	0	0	0	
0.1175	0.0105993	-1.18514	0.000219904	0.0449425	0	0	0	
0.117667	-0.00256499	1.18206	0.000222511	0.045033	0	0	0	
0.117833	-0.00257784	-1.18866	0.000176356	0.0450489	0	0	0	
0.118	-0.00557118	1.21185	0.000152338	0.0449795	0	0	0	
0.118167	0.00887383	-1.22823	0.000141933	0.0450077	0	0	0	
0.118333	-0.00738345	1.22642	0.000167485	0.0450451	0	0	0	
0.1185	0.000313475	-1.24634	0.000161809	0.0451571	0	0	0	
0.118667	0.00111595	1.23209	0.000103059	0.0452425	0	0	0	
0.118833	0.00589096	-1.23234	0.000106561	0.0453516	0	0	0	
0.119	-0.00659444	1.26145	0.000110871	0.0453025	0	0	0	
0.119167	0.00366281	-1.28933	0.000138364	0.0452459	0	0	0	
0.119333	-0.00196058	1.28743	0.000102137	0.0451897	0	0	0	
0.1195	0.00391371	-1.29579	8.8182E-05	0.0451809	0	0	0	
0.119667	-0.00476536	1.29859	7.95181E-05	0.0451612	0	0	0	
0.119833	0.0012154	-1.30618	9.19396E-05	0.0452561	0	0	0	
0.12	0.00514064	1.29883	7.33264E-05	0.0452938	0	0	0	
0.120167	-0.00212422	-1.30855	9.01874E-05	0.0452646	0	0	0	
0.120333	-0.00643419	1.3241	0.000113387	0.045133	0	0	0	
0.1205	0.00727632	-1.35213	0.00013809	0.0450895	0	0	0	
0.120667	-0.0048037	1.35706	0.000143928	0.0451299	0	0	0	
0.120833	0.0015428	-1.36412	0.000123149	0.0452275	0	0	0	
0.121	-0.000990228	1.35546	9.81738E-05	0.0452295	0	0	0	
0.121167	0.0012913	-1.36807	5.62548E-05	0.0451946	0	0	0	
0.121333	-0.0058396	1.37212	4.81817E-05	0.0451104	0	0	0	
0.1215	0.00724432	-1.38864	7.38019E-05	0.0451279	0	0	0	
0.121667	-0.00354449	1.39776	0.000111523	0.0452272	0	0	0	
0.121833	-0.00527823	-1.40617	0.000119886	0.0453283	0	0	0	
0.122	0.00411209	1.4035	0.000131049	0.0452695	0	0	0	
0.122167	0.00791645	-1.40441	0.000210625	0.0451212	0	0	0	
0.122333	-0.0107933	1.39131	0.000261733	0.0449543	0	0	0	
0.1225	0.00579259	-1.42122	0.000266542	0.044937	0	0	0	
0.122667	0.00216005	1.44617	0.000166676	0.0450149	0	0	0	
0.122833	-0.00166186	-1.44921	9.86996E-05	0.0451418	0	0	0	
0.123	0.00341567	1.46293	5.0805E-05	0.0451965	0	0	0	
0.123167	-0.00391591	-1.47298	5.91407E-05	0.0452443	0	0	0	
0.123333	-0.00484607	1.44826	0.000122894	0.0452235	0	0	0	
0.1235	0.00886124	-1.45603	0.000185037	0.0451815	0	0	0	
0.123667	-0.00242677	1.48144	0.000189851	0.0450832	0	0	0	
0.123833	-0.00721632	-1.50331	0.000186379	0.0451995	0	0	0	
0.124	0.00635649	1.50611	0.00017337	0.0453591	0	0	0	
0.124167	-0.0046142	-1.51828	0.000164395	0.045493	0	0	0	
0.124333	0.000945034	1.51531	0.000148541	0.0454147	0	0	0	
0.1245	0.00385985	-1.52382	0.000175832	0.0453616	0	0	0	
0.124667	-0.0126642	1.553	0.000207912	0.0453892	0	0	0	
0.124833	0.00924974	-1.58178	0.00021762	0.0455741	0	0	0	
0.125	-0.00229468	1.5753	0.000234082	0.0455933	0	0	0	
0.125167	-0.00621458	-1.58645	0.000230337	0.0455623	0	0	0	
0.125333	-6.37952E-05	1.57807	0.000196507	0.0454524	0	0	0	
0.1255	0.00554191	-1.56749	0.000148333	0.0453916	0	0	0	
0.125667	-0.000488061	1.57309	0.000103788	0.0451324	0	0	0	
0.125833	-0.00445795	-1.60522	8.47232E-05	0.0449427	0	0	0	
0.126	-0.00142812	1.60987	8.40493E-05	0.0448727	0	0	0	
0.126167	0.0107288	-1.61902	0.000138871	0.0450185	0	0	0	
0.126333	-0.00732165	1.6215	0.000183054	0.0450506	0	0	0	
0.1265	0.000755172	-1.61484	0.000159332	0.0450806	0	0	0	
0.126667	0.00173472	1.6085	0.000103432	0.0449904	0	0	0	
0.126833	0.00305198	-1.64878	5.29506E-05	0.0450606	0	0	0	
0.127	0.00271522	1.65922	4.48028E-05	0.0451152	0	0	0	
0.127167	0.00322761	-1.65197	5.0499E-05	0.0451902	0	0	0	
0.127333	-0.00172235	1.63545	8.91892E-05	0.0449769	0	0	0	
0.1275	0.00879071	-1.64981	0.000116145	0.044807	0	0	0	
0.127667	-0.00827622	1.6659	0.000167417	0.0447571	0	0	0	
0.127833	0.00642018	-1.68941	0.000151624	0.0449421	0	0	0	
0.128	0.00239796	1.69998	0.000145264	0.0450292	0	0	0	
0.128167	-0.00308019	-1.69362	0.000112665	0.0450465	0	0	0	
0.128333	0.00224656	1.68517	9.24755E-05	0.0449629	0	0	0	
0.1285	0.00370667	-1.71314	9.30192E-05	0.0450415	0	0	0	
0.128667	-0.00733036	1.72894	0.00011126	0.0451579	0	0	0	
0.128833	0.00408713	-1.7333	0.000129201	0.045306	0	0	0	
0.129	-0.00521383	1.73068	0.000129353	0.0452216	0	0	0	
0.129167	0.00560771	-1.72767	0.000108254	0.0450627	0	0	0	
0.129333	-0.0040019	1.73095	0.00011236	0.044867	0	0	0	
0.1295	0.00226835	-1.74997	8.62565E-05	0.0449109	0	0	0	
0.129667	-0.000749802	1.75959	7.23486E-05	0.0450293	0	0	0	
0.129833	0.00267458	-1.76143	8.05876E-05	0.0451402	0	0	0	
0.13	-0.00769746	1.76929	0.000111244	0.0450477	0	0	0	
0.130167	-0.000163366	-1.78323	0.000122382	0.0450339	0	0	0	
0.130333	0.0030899	1.78014	8.85144E-05	0.0450555	0	0	0	
0.1305	0.00268359	-1.80345	6.77567E-05	0.0452839	0	0	0	
0.130667	-0.00760968	1.81934	7.66111E-05	0.0454547	0	0	0	
0.130833	0.00175766	-1.80836	9.45406E-05	0.0455697	0	0	0	
0.131	0.0018102	1.81266	8.35369E-05	0.0454885	0	0	0	
0.131167	0.00182666	-1.8288	7.44974E-05	0.0453662	0	0	0	
0.131333	-0.00570056	1.84614	6.68535E-05	0.0452829	0	0	0	
0.1315	0.000943855	-1.85114	8.88733E-05	0.0453452	0	0	0	
0.131667	-4.00295E-05	1.83591	8.37828E-05	0.0453082	0	0	0	
0.131833	0.00416366	-1.83564	0.00011778	0.0452421	0	0	0	
0.132	-0.00580629	1.86335	0.000124182	0.0451387	0	0	0	
0.132167	0.000415027	-1.86767	0.000122218	0.0452476	0	0	0	
0.132333	-0.00302311	1.87163	8.33649E-05	0.0453916	0	0	0	
0.1325	0.00556641	-1.8816	6.8058E-05	0.0454667	0	0	0	
0.132667	-0.000661149	1.89392	7.60226E-05	0.0453688	0	0	0	
0.132833	-0.00347774	-1.89306	8.35191E-05	0.0453919	0	0	0	
0.133	-0.00351112	1.90275	9.07041E-05	0.0454272	0	0	0	
0.133167	0.00720752	-1.93353	0.000118167	0.045586	0	0	0	
0.133333	-0.00843871	1.95206	0.000147567	0.0456817	0	0	0	
0.1335	0.0073515	-1.93673	0.000163835	0.045805	0	0	0	
0.133667	-0.00362861	1.91038	0.000143828	0.0456081	0	0	0	
0.133833	-0.00456696	-1.92158	0.000134438	0.0452902	0	0	0	
0.134	0.00719116	1.94837	0.00012166	0.0450879	0	0	0	
0.134167	0.000420677	-1.95931	0.000145876	0.0453116	0	0	0	
0.134333	-0.00610793	1.96312	0.000164888	0.0455294	0	0	0	
0.1345	0.0079529	-1.97384	0.000181342	0.0455792	0	0	0	
0.134667	-0.0139379	1.97404	0.000177652	0.0454786	0	0	0	
0.134833	0.00884892	-1.96693	0.000189488	0.0454877	0	0	0	
0.135	0.00551092	1.98397	0.000256503	0.0454352	0	0	0	
0.135167	-0.0133371	-2.00332	0.000278966	0.045438	0	0	0	
0.135333	0.00378667	1.99253	0.000270367	0.0454026	0	0	0	
0.1355	0.0059591	-1.97849	0.000256693	0.0453767	0	0	0	
0.135667	-0.0134534	1.99859	0.000234901	0.0452196	0	0	0	
0.135833	0.00561524	-2.01161	0.000231541	0.0451867	0	0	0	
0.136	-0.000807311	2.0147	0.000162822	0.0452256	0	0	0	
0.136167	5.68691E-05	-2.0165	0.000115108	0.0453565	0	0	0	
0.136333	-0.00564492	2.02291	9.66628E-05	0.0453211	0	0	0	
0.1365	0.00708083	-2.02099	0.000100073	0.0452912	0	0	0	
0.136667	-0.00453315	2.03094	0.000115724	0.0452132	0	0	0	
0.136833	0.00373096	-2.0571	0.000104775	0.0453338	0	0	0	
0.137	-0.00283441	2.06552	8.68951E-05	0.0454918	0	0	0	
0.137167	0.00200158	-2.06362	7.93546E-05	0.0456335	0	0	0	
0.137333	-0.000113646	2.06792	7.06495E-05	0.0455405	0	0	0	
0.1375	-0.00185288	-2.06808	5.31518E-05	0.0454713	0	0	0	
0.137667	-0.00239277	2.08013	7.33639E-05	0.0454723	0	0	0	
0.137833	0.00731481	-2.08593	9.74699E-05	0.0455849	0	0	0	
0.138	-0.00258693	2.09006	0.000108912	0.0456088	0	0	0	
0.138167	5.94044E-05	-2.09377	9.64403E-05	0.0455799	0	0	0	
0.138333	-0.00300649	2.0977	5.53741E-05	0.0454822	0	0	0	
0.1385	0.00493649	-2.10665	8.70216E-05	0.0454651	0	0	0	
0.138667	-0.00556027	2.12419	0.000101882	0.0454792	0	0	0	
0.138833	0.00707417	-2.11972	0.00015124	0.0455347	0	0	0	
0.139	-0.00245235	2.12169	0.000137826	0.0454844	0	0	0	
0.139167	0.00390896	-2.12882	0.000120876	0.0454744	0	0	0	
0.139333	0.00293727	2.12678	8.40609E-05	0.045474	0	0	0	
0.1395	-0.00409424	-2.1136	6.69744E-05	0.0454251	0	0	0	
0.139667	0.006019	2.13009	8.9485E-05	0.045245	0	0	0	
0.139833	-0.00189583	-2.14343	9.53699E-05	0.0451902	0	0	0	
0.14	0.000971795	2.15103	0.000137592	0.045248	0	0	0	
0.140167	0.00617984	-2.15439	0.000129837	0.0454002	0	0	0	
0.140333	0.00226026	2.15346	0.000124375	0.0453924	0	0	0	
0.1405	-0.00265777	-2.14192	8.6957E-05	0.0453381	0	0	0	
0.140667	-0.00072215	2.15409	7.37767E-05	0.0452874	0	0	0	
0.140833	0.00384304	-2.15938	8.62182E-05	0.0453305	0	0	0	
0.141	-0.00336242	2.17222	8.12157E-05	0.045391	0	0	0	
0.141167	0.00674393	-2.1777	9.8828E-05	0.0454474	0	0	0	
0.141333	3.01151E-05	2.17793	8.73991E-05	0.0454105	0	0	0	
0.1415	-0.00334765	-2.17744	9.74564E-05	0.0454124	0	0	0	
0.141667	1.95198E-05	2.18312	8.04749E-05	0.0453589	0	0	0	
0.141833	0.00909369	-2.19805	0.000104797	0.0453824	0	0	0	
0.142	-0.00526327	2.2202	0.000110869	0.0454882	0	0	0	
0.142167	-0.00343728	-2.21435	0.00011029	0.0456128	0	0	0	
0.142333	0.00411556	2.22672	0.000103671	0.0456582	0	0	0	
0.1425	0.00238133	-2.23032	0.000123545	0.0456809	0	0	0	
0.142667	-0.00309526	2.22634	0.000129041	0.0456812	0	0	0	
0.142833	0.00291687	-2.22131	0.000129427	0.0456828	0	0	0	
0.143	-0.00605613	2.2223	0.000107082	0.0455457	0	0	0	
0.143167	0.00522612	-2.22259	0.000111348	0.0454242	0	0	0	
0.143333	0.000382175	2.23657	0.000104463	0.0453696	0	0	0	
0.1435	-0.00360226	-2.23062	0.000105715	0.045441	0	0	0	
0.143667	0.000889173	2.23735	8.55862E-05	0.0454763	0	0	0	
0.143833	0.00393994	-2.23461	8.3528E-05	0.0454639	0	0	0	
0.144	-0.00723235	2.24612	8.45494E-05	0.0453462	0	0	0	
0.144167	0.00484877	-2.25464	0.000104805	0.0453607	0	0	0	
0.144333	0.00119099	2.26685	0.000105815	0.0454039	0	0	0	
0.1445	0.000661996	-2.27162	7.93709E-05	0.0455559	0	0	0	
0.144667	-0.00607968	2.28844	7.79742E-05	0.0456496	0	0	0	
0.144833	0.00654328	-2.27856	8.30979E-05	0.0457642	0	0	0	
0.145	-0.000785385	2.25956	0.000102158	0.0456557	0	0	0	
0.145167	0.00451168	-2.2581	7.4246E-05	0.0454731	0	0	0	
0.145333	-0.00742077	2.28437	9.19413E-05	0.0452977	0	0	0	
0.1455	0.00466455	-2.28131	9.19325E-05	0.0453514	0	0	0	
0.145667	0.00333157	2.2747	0.000114447	0.0453772	0	0	0	
0.145833	-0.00414497	-2.26215	0.000121203	0.0453088	0	0	0	
0.146	-0.0103488	2.27345	0.000199718	0.0451227	0	0	0	
0.146167	0.0119819	-2.28183	0.000221503	0.0451176	0	0	0	
0.146333	0.00217994	2.29394	0.00023215	0.0451477	0	0	0	
0.1465	-0.00372923	-2.29066	0.000145002	0.0452604	0	0	0	
0.146667	-0.00445974	2.28875	0.000173092	0.04524	0	0	0	
0.146833	0.00260066	-2.28272	0.000135515	0.045202	0	0	0	
0.147	0.00257325	2.31572	0.000150293	0.0451829	0	0	0	
0.147167	-0.00111894	-2.32084	9.12859E-05	0.0453424	0	0	0	
0.147333	-0.00723624	2.31259	0.000131205	0.0454649	0	0	0	
0.1475	0.00964689	-2.30141	0.000148752	0.0455131	0	0	0	
0.147667	-0.00165749	2.32051	0.000169195	0.0453786	0	0	0	
0.147833	0.00022364	-2.31503	0.000100506	0.0453321	0	0	0	
0.148	0.000662675	2.31667	8.85804E-05	0.0452703	0	0	0	
0.148167	0.00484347	-2.31362	0.000103118	0.0452711	0	0	0	
0.148333	-0.00410703	2.32929	0.000134987	0.0452178	0	0	0	
0.1485	-0.00146837	-2.32715	0.000120925	0.0452681	0	0	0	
0.148667	0.00476953	2.33275	7.1052E-05	0.0453023	0	0	0	
0.148833	-3.42212E-05	-2.31988	8.29067E-05	0.0453536	0	0	0	
0.149	-0.00217842	2.33874	8.57602E-05	0.0452723	0	0	0	
0.149167	-0.00102423	-2.35773	9.88091E-05	0.0453296	0	0	0	
0.149333	0.000994657	2.35866	5.81525E-05	0.0454412	0	0	0	
0.1495	0.00406935	-2.34655	6.93665E-05	0.0456204	0	0	0	
0.149667	-0.00693608	2.3607	9.95176E-05	0.0456195	0	0	0	
0.149833	0.00738571	-2.34723	0.000124115	0.0455869	0	0	0	
0.15	-0.00699214	2.33717	0.000141233	0.0454512	0	0	0	
0.150167	0.00129215	-2.33623	0.000118245	0.0453174	0	0	0	
0.150333	-3.9196E-05	2.36829	0.000103661	0.0452077	0	0	0	
0.1505	0.0065695	-2.37627	0.000107765	0.0453572	0	0	0	
0.150667	-0.00581824	2.37336	0.000146128	0.0455881	0	0	0	
0.150833	0.00517061	-2.35929	0.000154809	0.0457011	0	0	0	
0.151	-0.00227414	2.37118	0.00012167	0.0456341	0	0	0	
0.151167	-0.00169326	-2.3503	7.94824E-05	0.0454382	0	0	0	
0.151333	0.00625851	2.36015	9.10276E-05	0.045295	0	0	0	
0.1515	-0.00100485	-2.38022	7.87778E-05	0.045319	0	0	0	
0.151667	-0.00466548	2.39272	0.000109293	0.0455295	0	0	0	
0.151833	0.00572083	-2.3695	0.000102225	0.0456624	0	0	0	
0.152	0.00457413	2.35944	0.000141625	0.0455577	0	0	0	
0.152167	-0.00525165	-2.33911	0.000108955	0.045225	0	0	0	
0.152333	-0.00432571	2.36494	0.000161331	0.0450423	0	0	0	
0.1525	0.0154354	-2.38427	0.000178856	0.0451198	0	0	0	
0.152667	-0.00500307	2.3797	0.000209284	0.0453543	0	0	0	
0.152833	0.00028291	-2.36339	0.000165642	0.0454392	0	0	0	
0.153	0.00163637	2.36885	0.000114315	0.0453032	0	0	0	
0.153167	-0.00257396	-2.37866	7.72034E-05	0.0451874	0	0	0	
0.153333	-0.00271159	2.38053	0.000107765	0.0452241	0	0	0	
0.1535	0.00902441	-2.37296	0.0001392	0.0453064	0	0	0	
0.153667	-9.24389E-05	2.38119	0.000157157	0.0453338	0	0	0	
0.153833	-0.00437243	-2.37822	0.000110804	0.045306	0	0	0	
0.154	-0.0149253	2.3694	0.00018453	0.0452311	0	0	0	
0.154167	0.0196441	-2.35954	0.000262149	0.0451395	0	0	0	
0.154333	-0.00332791	2.35802	0.000355905	0.045013	0	0	0	
0.1545	-0.0135262	-2.37467	0.000323409	0.0449988	0	0	0	
0.154667	0.00242825	2.38335	0.000273387	0.0450847	0	0	0	
0.154833	0.00214893	-2.36935	0.000254249	0.0451703	0	0	0	
0.155	-0.00339538	2.37606	0.000190977	0.0451594	0	0	0	
0.155167	-0.0030904	-2.37488	0.000152428	0.0450832	0	0	0	
0.155333	-0.00396775	2.39222	0.000113213	0.0451046	0	0	0	
0.1555	0.0087281	-2.41198	0.000140084	0.045312	0	0	0	
0.155667	-0.00550364	2.40788	0.000171852	0.0455539	0	0	0	
0.155833	-0.00818814	-2.38489	0.000178924	0.04566	0	0	0	
0.156	0.00625676	2.38749	0.000171514	0.0455251	0	0	0	
0.156167	0.00799828	-2.39618	0.000230302	0.0453867	0	0	0	
0.156333	-0.0164789	2.39978	0.000263727	0.0453803	0	0	0	
0.1565	0.0109728	-2.38659	0.000296754	0.0454594	0	0	0	
0.156667	0.00168711	2.39181	0.000232911	0.0454426	0	0	0	
0.156833	-0.00445513	-2.39776	0.000149594	0.0454467	0	0	0	
0.157	0.00186772	2.38938	0.000116947	0.0453895	0	0	0	
0.157167	0.00358101	-2.37115	0.000141495	0.0453258	0	0	0	
0.157333	-0.00259772	2.38208	0.000178933	0.0451868	0	0	0	
0.1575	0.000908742	-2.38972	0.000166363	0.0451863	0	0	0	
0.157667	0.000129102	2.3945	0.000133147	0.0452236	0	0	0	
0.157833	0.00432736	-2.37934	0.000117901	0.0452649	0	0	0	
0.158	-0.00306356	2.3776	0.000112416	0.0451949	0	0	0	
0.158167	0.00204803	-2.39085	9.2886E-05	0.0452106	0	0	0	
0.158333	0.00458613	2.40807	7.49896E-05	0.0453237	0	0	0	
0.1585	-0.00837808	-2.38047	8.39365E-05	0.0454732	0	0	0	
0.158667	0.000701396	2.38082	0.000145115	0.0453838	0	0	0	
0.158833	0.00718053	-2.39634	0.000197701	0.0453122	0	0	0	
0.159	-0.00628933	2.41579	0.000200376	0.0453872	0	0	0	
0.159167	-0.00488798	-2.39861	0.000171849	0.0456593	0	0	0	
0.159333	0.00226951	2.3871	0.000129202	0.0457143	0	0	0	
0.1595	0.00346763	-2.37741	0.000167559	0.0455722	0	0	0	
0.159667	-0.00754667	2.38453	0.000144347	0.0453265	0	0	0	
0.159833	0.000327091	-2.38693	0.000148776	0.0453033	0	0	0	
0.16	-0.00112067	2.38212	7.34513E-05	0.0453299	0	0	0	
0.160167	0.00181265	-2.37107	7.09183E-05	0.0454068	0	0	0	
0.160333	0.0001037	2.36951	5.30904E-05	0.0453213	0	0	0	
0.1605	-0.00414745	-2.35402	8.27888E-05	0.0451743	0	0	0	
0.160667	-0.00283548	2.38025	0.000110219	0.0450733	0	0	0	
0.160833	0.00684669	-2.39304	0.000138841	0.0451795	0	0	0	
0.161	-0.00548754	2.38811	0.000137762	0.0454072	0	0	0	
0.161167	0.00144973	-2.36618	0.000108655	0.0455461	0	0	0	
0.161333	0.0021124	2.36022	6.85158E-05	0.0454411	0	0	0	
0.1615	-0.00563177	-2.35089	6.80313E-05	0.0452009	0	0	0	
0.161667	-0.000520035	2.37729	8.63228E-05	0.0450785	0	0	0	
0.161833	0.00588801	-2.37257	0.000135806	0.0451549	0	0	0	
0.162	-0.00667194	2.3836	0.000142641	0.0453704	0	0	0	
0.162167	-0.00217975	-2.36456	0.000130074	0.0455269	0	0	0	
0.162333	0.00587069	2.35504	9.7488E-05	0.0454669	0	0	0	
0.1625	-0.00116589	-2.35352	0.000107607	0.0453198	0	0	0	
0.162667	-0.00337253	2.3722	0.000116372	0.0452583	0	0	0	
0.162833	-0.00144122	-2.36168	0.000114392	0.0453607	0	0	0	
0.163	0.0010162	2.36845	7.79839E-05	0.0454641	0	0	0	
0.163167	0.00190522	-2.35896	6.84937E-05	0.0455269	0	0	0	
0.163333	-0.00185662	2.36649	6.3951E-05	0.0455319	0	0	0	
0.1635	-0.00329344	-2.36039	6.92495E-05	0.0455633	0	0	0	
0.163667	0.00338306	2.34932	7.38051E-05	0.0455252	0	0	0	
0.163833	0.00340881	-2.32744	0.00013034	0.0453927	0	0	0	
0.164	-0.00522247	2.33987	0.000147564	0.0452132	0	0	0	
0.164167	-0.00162544	-2.33868	0.000135137	0.0451951	0	0	0	
0.164333	-0.000995338	2.33594	7.56359E-05	0.0452608	0	0	0	
0.1645	0.00256023	-2.32319	9.30686E-05	0.0453565	0	0	0	
0.164667	-0.00404977	2.33111	9.65598E-05	0.0453161	0	0	0	
0.164833	-0.00978574	-2.32168	0.000121297	0.0452602	0	0	0	
0.165	0.0089386	2.32958	0.000122279	0.0452492	0	0	0	
0.165167	0.00119152	-2.3131	0.000199133	0.0452791	0	0	0	
0.165333	-0.0106495	2.31326	0.000216171	0.0452693	0	0	0	
0.1655	-0.000937351	-2.29581	0.000209356	0.0451943	0	0	0	
0.165667	0.0102275	2.28448	0.000148261	0.0449496	0	0	0	
0.165833	-0.0052941	-2.28025	0.000162735	0.0447106	0	0	0	
0.166	-0.00353191	2.31652	0.000174516	0.0447005	0	0	0	
0.166167	-0.0010817	-2.31371	0.000154541	0.0449446	0	0	0	
0.166333	0.00449412	2.30569	9.88152E-05	0.0452473	0	0	0	
0.1665	0.00294549	-2.28851	0.000119206	0.0453282	0	0	0	
0.166667	-0.00707316	2.29886	0.000178792	0.0452199	0	0	0	
0.166833	0.0030479	-2.29329	0.000194869	0.0451144	0	0	0	
0.167	0.00591939	2.31086	0.000162415	0.0451802	0	0	0	
0.167167	-0.00207132	-2.3049	0.000111134	0.0454049	0	0	0	
0.167333	-0.00213171	2.30068	0.000129879	0.0456033	0	0	0	
0.1675	0.00360343	-2.27935	0.000115148	0.0456159	0	0	0	
0.167667	-0.00101548	2.27231	0.00010699	0.045448	0	0	0	
0.167833	-0.00286686	-2.26709	7.1097E-05	0.0452395	0	0	0	
0.168	0.00118845	2.27653	6.62093E-05	0.045145	0	0	0	
0.168167	0.00664487	-2.26423	0.000128341	0.0452284	0	0	0	
0.168333	-0.00999218	2.2679	0.000190521	0.0453263	0	0	0	
0.1685	0.00144682	-2.25007	0.000199114	0.0452991	0	0	0	
0.168667	0.00875518	2.24684	0.000164978	0.0451218	0	0	0	
0.168833	-0.00670125	-2.24879	0.000148658	0.045029	0	0	0	
0.169	-0.000267042	2.25149	0.000193363	0.0450793	0	0	0	
0.169167	0.000933365	-2.23388	0.000182254	0.0451722	0	0	0	
0.169333	0.00509261	2.23403	0.000153344	0.0451699	0	0	0	
0.1695	0.000250909	-2.23318	0.00011047	0.0450836	0	0	0	
0.169667	-0.00514586	2.25095	0.000111544	0.0450866	0	0	0	
0.169833	0.000737484	-2.23878	0.000102883	0.0452284	0	0	0	
0.17	0.00718755	2.22816	8.25841E-05	0.0453272	0	0	0	
0.170167	-0.00406869	-2.21238	8.01182E-05	0.0453127	0	0	0	
0.170333	-0.00113379	2.21384	0.000114896	0.0452017	0	0	0	
0.1705	0.00725353	-2.20751	0.000149023	0.045148	0	0	0	
0.170667	-0.00623962	2.20797	0.000163047	0.0451462	0	0	0	
0.170833	0.000230004	-2.19353	0.000126921	0.0451512	0	0	0	
0.171	0.0056049	2.19141	9.8448E-05	0.0451402	0	0	0	
0.171167	-0.00383046	-2.18961	8.32291E-05	0.0451932	0	0	0	
0.171333	-0.00101739	2.20322	0.000100379	0.0452775	0	0	0	
0.1715	-0.00429056	-2.1965	0.000122272	0.0453902	0	0	0	
0.171667	0.00113059	2.18195	0.000103805	0.0453574	0	0	0	
0.171833	-0.000357372	-2.16389	0.000120255	0.0452558	0	0	0	
0.172	-0.00555345	2.15554	0.000138787	0.0450874	0	0	0	
0.172167	0.00367862	-2.13937	0.000147073	0.0450073	0	0	0	
0.172333	0.00451167	2.14619	0.000125703	0.0449528	0	0	0	
0.1725	-0.0114126	-2.15354	0.000121083	0.0450057	0	0	0	
0.172667	0.00215794	2.16299	0.000166218	0.0451471	0	0	0	
0.172833	0.00316313	-2.16244	0.000251983	0.045332	0	0	0	
0.173	-0.00968722	2.15765	0.000256989	0.0454274	0	0	0	
0.173167	0.000448706	-2.13306	0.00022216	0.0453737	0	0	0	
0.173333	0.00407406	2.12668	0.000113098	0.045227	0	0	0	
0.1735	-0.004766	-2.13403	8.54122E-05	0.0451487	0	0	0	
0.173667	0.0017638	2.13855	6.38802E-05	0.0452178	0	0	0	
0.173833	-0.00702402	-2.11857	9.84262E-05	0.045337	0	0	0	
0.174	0.00435026	2.11159	9.86488E-05	0.0454102	0	0	0	
0.174167	-0.00349695	-2.10202	0.00014753	0.0454	0	0	0	
0.174333	0.000192534	2.10053	0.000170219	0.0453777	0	0	0	
0.1745	0.000879876	-2.10341	0.000174495	0.0453413	0	0	0	
0.174667	-0.00244536	2.10129	0.00013582	0.045306	0	0	0	
0.174833	-0.00230408	-2.09106	9.38679E-05	0.0453176	0	0	0	
0.175	0.00140098	2.10084	6.22884E-05	0.0453634	0	0	0	
0.175167	-0.00497014	-2.07916	7.57158E-05	0.045406	0	0	0	
0.175333	0.00653721	2.05633	8.81527E-05	0.0453223	0	0	0	
0.1755	-0.005026	-2.05301	0.000146475	0.045184	0	0	0	
0.175667	-0.00250025	2.07191	0.000166372	0.0451158	0	0	0	
0.175833	0.00415613	-2.06755	0.000163889	0.0452931	0	0	0	
0.176	-0.00404822	2.05548	0.000139527	0.0454915	0	0	0	
0.176167	-0.000443172	-2.03106	0.000105371	0.0455598	0	0	0	
0.176333	-0.00355259	2.03012	9.30457E-05	0.0453945	0	0	0	
0.1765	-0.00392699	-2.0221	6.62315E-05	0.0452218	0	0	0	
0.176667	0.00273631	2.02754	5.38153E-05	0.0450786	0	0	0	
0.176833	-0.00179972	-2.01205	8.78107E-05	0.0451058	0	0	0	
0.177	-0.00600365	1.99793	0.000124269	0.0451128	0	0	0	
0.177167	-0.00158131	-1.99242	0.000130445	0.0450855	0	0	0	
0.177333	-0.000109412	2.00296	8.80561E-05	0.045032	0	0	0	
0.1775	-0.00166951	-1.99701	7.01137E-05	0.0450821	0	0	0	
0.177667	-0.0023456	2.01019	6.16841E-05	0.0452189	0	0	0	
0.177833	-0.0082811	-2.00643	9.6111E-05	0.0454059	0	0	0	
0.178	0.00870468	1.98053	0.000124964	0.0454863	0	0	0	
0.178167	0.00902664	-1.96008	0.000315708	0.0453389	0	0	0	
0.178333	-0.0217533	1.96375	0.000424539	0.0451704	0	0	0	
0.1785	0.00845788	-1.95943	0.000443961	0.0451269	0	0	0	
0.178667	-0.00378702	1.96174	0.000309406	0.0453505	0	0	0	
0.178833	0.00384894	-1.95109	0.000190903	0.0455462	0	0	0	
0.179	0.0113449	1.95025	0.000177541	0.0456363	0	0	0	
0.179167	-0.0262568	-1.94736	0.000226022	0.0455491	0	0	0	
0.179333	0.0150227	1.93332	0.000363693	0.0454408	0	0	0	
0.1795	0.00909263	-1.90714	0.000528741	0.0452551	0	0	0	
0.179667	-0.0148066	1.90584	0.000500693	0.0451613	0	0	0	
0.179833	-0.00115407	-1.89764	0.000407451	0.0451115	0	0	0	
0.18	0.00880121	1.89385	0.000200883	0.0451831	0	0	0	
0.180167	-0.00196917	-1.87829	0.000192084	0.0452198	0	0	0	
0.180333	-0.00602007	1.88156	0.000159609	0.045215	0	0	0	
0.1805	0.00120751	-1.88298	0.000168664	0.0451889	0	0	0	
0.180667	0.00665838	1.88783	0.000136776	0.0452298	0	0	0	
0.180833	-0.00237393	-1.87816	0.000100269	0.0452562	0	0	0	
0.181	0.000701092	1.86754	0.000107892	0.0452916	0	0	0	
0.181167	0.000993208	-1.84588	8.29971E-05	0.0452447	0	0	0	
0.181333	0.00176687	1.8435	7.66061E-05	0.0451751	0	0	0	
0.1815	0.0012691	-1.83523	6.88788E-05	0.0451087	0	0	0	
0.181667	-0.00270269	1.8289	0.00012446	0.045133	0	0	0	
0.181833	0.0118219	-1.82932	0.000181425	0.045226	0	0	0	
0.182	0.00385409	1.82836	0.00017408	0.0453718	0	0	0	
0.182167	-0.00160387	-1.80798	0.000134666	0.0453728	0	0	0	
0.182333	0.00750104	1.80115	0.000115432	0.0452845	0	0	0	
0.1825	-0.00256866	-1.8024	0.000123056	0.0451674	0	0	0	
0.182667	0.00788522	1.79956	0.000131688	0.045191	0	0	0	
0.182833	-0.00228187	-1.77183	0.00012571	0.0452314	0	0	0	
0.183	0.0026571	1.7612	0.000165681	0.0451997	0	0	0	
0.183167	0.00679173	-1.76339	0.000192207	0.0451164	0	0	0	
0.183333	-0.00383188	1.76066	0.000193219	0.0450874	0	0	0	
0.1835	-0.00114809	-1.74072	0.000142224	0.045085	0	0	0	
0.183667	0.00387285	1.7468	9.66835E-05	0.045149	0	0	0	
0.183833	0.000295618	-1.73732	7.16185E-05	0.0452276	0	0	0	
0.184	-0.000108187	1.72234	7.74148E-05	0.0452243	0	0	0	
0.184167	-0.00121483	-1.71808	7.49681E-05	0.0451039	0	0	0	
0.184333	-0.00198419	1.71953	7.20787E-05	0.0450185	0	0	0	
0.1845	-0.00313506	-1.71607	5.11389E-05	0.045041	0	0	0	
0.184667	0.00246448	1.71756	4.56919E-05	0.0451807	0	0	0	
0.184833	-0.00104447	-1.69474	9.2061E-05	0.0452614	0	0	0	
0.185	-0.00706384	1.68019	0.000155	0.0452453	0	0	0	
0.185167	0.00641735	-1.68044	0.000187341	0.0451568	0	0	0	
0.185333	-0.0034289	1.67787	0.000164757	0.045144	0	0	0	
0.1855	-0.00176438	-1.6746	0.000115025	0.0452502	0	0	0	
0.185667	0.00229681	1.6747	7.55714E-05	0.0454666	0	0	0	
0.185833	-0.00524588	-1.65107	6.22619E-05	0.0455835	0	0	0	
0.186	0.00352508	1.65502	6.16743E-05	0.0455817	0	0	0	
0.186167	-0.0024351	-1.65364	0.000124818	0.045541	0	0	0	
0.186333	-0.00789543	1.6256	0.000198565	0.0454971	0	0	0	
0.1865	0.00710093	-1.6083	0.000223634	0.0454765	0	0	0	
0.186667	0.00127484	1.61098	0.000176729	0.0454559	0	0	0	
0.186833	-0.00206997	-1.5872	0.000101044	0.0454478	0	0	0	
0.187	0.00591711	1.59719	7.06037E-05	0.0453734	0	0	0	
0.187167	-0.00561027	-1.59885	8.72296E-05	0.0453096	0	0	0	
0.187333	0.00577777	1.58218	0.000105639	0.0453091	0	0	0	
0.1875	0.00412262	-1.56586	0.000156311	0.0454268	0	0	0	
0.187667	-0.00415165	1.5518	0.000163673	0.045459	0	0	0	
0.187833	0.00313382	-1.54908	0.000138479	0.0453621	0	0	0	
0.188	-0.00069309	1.54882	9.23745E-05	0.0452601	0	0	0	
0.188167	0.000633733	-1.53537	5.33557E-05	0.0452456	0	0	0	
0.188333	0.00360292	1.53699	5.27453E-05	0.0453717	0	0	0	
0.1885	-0.00259761	-1.52578	6.65896E-05	0.0454954	0	0	0	
0.188667	0.000288291	1.49762	0.000106629	0.0454426	0	0	0	
0.188833	-0.00364757	-1.50171	0.000127333	0.045253	0	0	0	
0.189	0.004467	1.49918	0.000114682	0.0451838	0	0	0	
0.189167	-0.0064753	-1.47393	0.000104903	0.0451637	0	0	0	
0.189333	0.00100309	1.47357	0.000109168	0.0451444	0	0	0	
0.1895	-0.00136253	-1.47269	0.000124712	0.0451301	0	0	0	
0.189667	-0.00291473	1.47134	0.000113423	0.0452649	0	0	0	
0.189833	-0.00142375	-1.46485	9.90245E-05	0.0454312	0	0	0	
0.19	-0.00467509	1.45559	7.48381E-05	0.0454856	0	0	0	
0.190167	-0.00136439	-1.44081	7.47386E-05	0.045441	0	0	0	
0.190333	0.00241315	1.42496	7.44189E-05	0.0454228	0	0	0	
0.1905	-0.00526753	-1.4031	8.33385E-05	0.0453693	0	0	0	
0.190667	0.000966187	1.4052	0.000100971	0.0453246	0	0	0	
0.190833	-0.000758498	-1.39588	0.000108876	0.045323	0	0	0	
0.191	0.00130646	1.38597	9.75126E-05	0.0453743	0	0	0	
0.191167	-0.00619243	-1.37678	6.83761E-05	0.0454276	0	0	0	
0.191333	0.000517168	1.35503	6.84767E-05	0.0454164	0	0	0	
0.1915	-0.00361552	-1.34217	7.13373E-05	0.0452516	0	0	0	
0.191667	0.00586971	1.34985	8.74878E-05	0.0450513	0	0	0	
0.191833	-0.00678941	-1.3409	9.62345E-05	0.044959	0	0	0	
0.192	0.00203759	1.33949	0.000130113	0.0450994	0	0	0	
0.192167	0.000449817	-1.32738	0.000125095	0.0452855	0	0	0	
0.192333	-0.0022312	1.3117	8.98505E-05	0.0453491	0	0	0	
0.1925	-0.00111447	-1.30797	4.77888E-05	0.0453368	0	0	0	
0.192667	0.00325009	1.29677	2.5694E-05	0.0453896	0	0	0	
0.192833	-0.00878582	-1.28194	6.9616E-05	0.0454683	0	0	0	
0.193	0.00400723	1.26958	0.000109825	0.045501	0	0	0	
0.193167	0.00268576	-1.25631	0.000154517	0.0453827	0	0	0	
0.193333	-0.000379031	1.24941	0.000116373	0.0452721	0	0	0	
0.1935	-0.00355983	-1.23989	8.7454E-05	0.0451931	0	0	0	
0.193667	0.00302151	1.22048	6.49544E-05	0.045141	0	0	0	
0.193833	-0.00069604	-1.19708	8.42628E-05	0.0450177	0	0	0	
0.194	0.00342099	1.19508	7.59273E-05	0.045018	0	0	0	
0.194167	-0.00789385	-1.26293	9.08729E-05	0.0455244	0	0	0	
0.194333	-0.00371947	1.38105	0.000135068	0.0462548	0	0	0	
0.1945	0.00624033	-1.168	0.000153678	0.0450268	0	0	0	
0.194667	0.00844472	0.174334	0.000242648	0.0387962	0	0	0	
0.194833	-0.0157102	-0.554705	0.000237565	0.0303282	0	0	0	
0.195	0.00277437	0.756127	0.000319319	0.0292326	0	0	0	
0.195167	0.00722856	-1.10021	0.000295897	0.0360047	0	0	0	
0.195333	-0.00546187	1.23259	0.000264981	0.0451175	0	0	0	
0.1955	0.00332811	-1.3597	0.000184409	0.0486239	0	0	0	
0.195667	-0.00156232	1.48824	9.13181E-05	0.0479657	0	0	0	
0.195833	-0.000317786	-2.06548	7.4013E-05	0.0453968	0	0	0	
0.196	0.00443345	1.29206	6.46709E-05	0.043832	0	0	0	
0.196167	0.00175208	-0.94036	0.00010515	0.0417976	0	0	0	
0.196333	0.00106547	0.968146	0.000136762	0.0428947	0	0	0	
0.1965	0.000452361	-1.09402	0.000125866	0.0437602	0	0	0	
0.196667	0.00169326	1.08235	7.67227E-05	0.0453966	0	0	0	
0.196833	0.00081019	-0.969901	3.58551E-05	0.0447702	0	0	0	
0.197	0.00457765	0.93399	3.94624E-05	0.0432957	0	0	0	
0.197167	-0.00457079	-1.01182	6.11912E-05	0.0429774	0	0	0	
0.197333	0.0063024	1.01717	8.11119E-05	0.0439587	0	0	0	
0.1975	-0.00128485	-0.95203	9.44023E-05	0.0450312	0	0	0	
0.197667	0.00220541	0.963138	7.7228E-05	0.045303	0	0	0	
0.197833	-0.00422018	-0.967259	5.79686E-05	0.0450894	0	0	0	
0.198	0.00701096	0.993018	7.97474E-05	0.0450972	0	0	0	
0.198167	-0.00144432	-1.03922	0.000118129	0.0456846	0	0	0	
0.198333	-0.00178781	1.00142	0.000168374	0.0462189	0	0	0	
0.1985	0.00209218	-0.931308	0.000122158	0.045962	0	0	0	
0.198667	0.00424883	0.90803	0.000124955	0.0448239	0	0	0	
0.198833	-0.00712593	-0.897507	0.000108982	0.04395	0	0	0	
0.199	0.0017745	0.930349	0.000152519	0.0441489	0	0	0	
0.199167	0.0147674	-0.894355	0.000172441	0.0448393	0	0	0	
0.199333	0.00395031	0.823413	0.000287314	0.0452451	0	0	0	
0.1995	-0.0833247	-1.07539	0.00073802	0.0466339	0	0	0	
0.199667	0.121004	1.56292	0.00121735	0.0486076	0	0	0	
0.199833	-0.0626155	-2.48186	0.00357077	0.0461592	0	0	0	
0.2	0.199389	0.81048	0.00704334	0.0421509	0	0	0	
0.200167	0.0617874	-0.203879	0.00841824	0.0307793	0	0	0	
0.200333	-0.0509473	0.168171	0.00641411	0.0289729	0	0	0	
0.2005	0.0298962	-0.52741	0.00273338	0.0317034	0	0	0	
0.200667	0.0665691	0.799818	0.0014012	0.0425458	0	0	0	
0.200833	-0.31058	-1.81941	0.00203731	0.0513382	0	0	0	
0.201	0.599919	1.61313	0.00532402	0.0602449	0	0	0	
0.201167	-0.191524	-2.05353	0.00703139	0.0614282	0	0	0	
0.201333	0.0469479	1.08356	0.00658258	0.0559673	0	0	0	
0.2015	0.0240514	-0.609976	0.00339518	0.0438967	0	0	0	
0.201667	0.014397	0.690103	0.0012442	0.0407041	0	0	0	
0.201833	-0.0364584	-0.900799	0.000776199	0.0422221	0	0	0	
0.202	0.0227086	0.936173	0.000661664	0.0448656	0	0	0	
0.202167	-8.68718E-05	-0.743318	0.000918619	0.0439108	0	0	0	
0.202333	-0.00823784	0.602805	0.000856712	0.041657	0	0	0	
0.2025	-0.00225025	-0.626846	0.000615456	0.0411654	0	0	0	
0.202667	-0.00405645	0.679088	0.000248001	0.0423133	0	0	0	
0.202833	0.00851974	-0.635891	0.000100649	0.0434086	0	0	0	
0.203	-0.106486	0.00888543	0.000398728	0.0437471	0	0	0	
0.203167	0.182257	0.994642	0.00157251	0.0431721	0	0	0	
0.203333	-0.218621	-1.10557	0.00311611	0.042928	0	0	0	
0.2035	0.0446422	-0.0893045	0.00352312	0.0404548	0	0	0	
0.203667	-0.00854338	0.465749	0.00246312	0.0425353	0	0	0	
0.203833	-0.00326809	-0.671172	0.000948843	0.044904	0	0	0	
0.204	-0.03337	0.521654	0.000358299	0.0479685	0	0	0	
0.204167	0.00322456	-0.499437	0.0010247	0.0425271	0	0	0	
0.204333	-0.0422347	0.786209	0.00190157	0.0326387	0	0	0	
0.2045	-0.0966493	-1.32461	0.00308973	0.0293483	0	0	0	
0.204667	-0.00527678	0.527576	0.00274949	0.0311476	0	0	0	
0.204833	0.0168995	-0.417823	0.00196406	0.0381004	0	0	0	
0.205	-0.00199966	0.483536	0.000694941	0.0411871	0	0	0	
0.205167	-0.00106007	-0.455191	0.000248924	0.0433684	0	0	0	
0.205333	-0.00632097	0.364902	0.000152161	0.0440119	0	0	0	
0.2055	-0.0112342	-0.377234	0.000182002	0.0431742	0	0	0	
0.205667	0.00217844	0.508239	0.000193637	0.0429398	0	0	0	
0.205833	-0.0103387	-0.517203	0.000204467	0.0438683	0	0	0	
0.206	-0.00288681	0.522922	0.000138349	0.0451233	0	0	0	
0.206167	-0.00400623	-0.524581	0.00013206	0.0457943	0	0	0	
0.206333	-0.00278426	0.509423	0.000108991	0.0456861	0	0	0	
0.2065	-0.00872326	-0.506756	0.000146926	0.0455734	0	0	0	
0.206667	-0.0140926	0.557465	0.000273205	0.0460337	0	0	0	
0.206833	-0.00298182	-0.504034	0.00031499	0.04673	0	0	0	
0.207	-0.00216942	0.47476	0.000308431	0.0468623	0	0	0	
0.207167	-0.00523269	-0.438406	0.000169482	0.0463344	0	0	0	
0.207333	-0.00271145	0.409909	0.000125838	0.0457204	0	0	0	
0.2075	0.00186632	-0.426352	8.66452E-05	0.0456589	0	0	0	
0.207667	0.00436653	0.423639	8.7031E-05	0.0457536	0	0	0	
0.207833	-0.0112214	-0.391078	0.000106725	0.0456587	0	0	0	
0.208	0.00375928	0.363445	0.000150585	0.0454609	0	0	0	
0.208167	0.00473021	-0.366301	0.000201983	0.0453598	0	0	0	
0.208333	-0.00140993	0.358071	0.000175394	0.045357	0	0	0	
0.2085	0.00151616	-0.351597	0.000142666	0.0453348	0	0	0	
0.208667	0.00477817	0.331186	7.90204E-05	0.0453328	0	0	0	
0.208833	-0.00135102	-0.302327	7.78146E-05	0.0454382	0	0	0	
0.209	0.00700734	0.289275	7.88241E-05	0.0455645	0	0	0	
0.209167	-0.00249627	-0.301041	0.000106524	0.0454837	0	0	0	
0.209333	0.000256895	0.293546	0.000111529	0.0452207	0	0	0	
0.2095	0.00441207	-0.281094	0.000104217	0.0450687	0	0	0	
0.209667	0.00530261	0.243557	8.62746E-05	0.0451547	0	0	0	
0.209833	-0.00150644	-0.218439	0.000102616	0.0452612	0	0	0	
0.21	0.00584466	0.208029	8.76198E-05	0.0452256	0	0	0	
0.210167	-0.00487443	-0.225995	0.000114612	0.0451348	0	0	0	
0.210333	0.00765682	0.232678	0.000102745	0.0451757	0	0	0	
0.2105	-0.00385508	-0.221393	0.000135165	0.0453396	0	0	0	
0.210667	0.0020807	0.185993	0.000150055	0.0454751	0	0	0	
0.210833	0.00471039	-0.170084	0.000185856	0.0454692	0	0	0	
0.211	-0.00410556	0.168046	0.000184741	0.0453492	0	0	0	
0.211167	-0.00288944	-0.180154	0.000132066	0.0452023	0	0	0	
0.211333	0.00529578	0.159449	9.19074E-05	0.0450847	0	0	0	
0.2115	-0.0100863	-0.152361	9.48926E-05	0.0450222	0	0	0	
0.211667	0.00594315	0.129801	0.000129421	0.0450074	0	0	0	
0.211833	-0.00713302	-0.103165	0.000153113	0.0449702	0	0	0	
0.212	0.00116003	0.0897493	0.000143401	0.0449011	0	0	0	
0.212167	0.000119217	-0.0936284	0.00011795	0.0448972	0	0	0	
0.212333	0.00145065	0.091851	8.50726E-05	0.0449978	0	0	0	
0.2125	-0.00504265	-0.115049	9.2334E-05	0.0451136	0	0	0	
0.212667	0.00858468	0.0909934	0.0001249	0.045181	0	0	0	
0.212833	-0.00778822	-0.0743459	0.000141099	0.0452238	0	0	0	
0.213	0.00673184	0.0622021	0.000151434	0.0452074	0	0	0	
0.213167	-0.00434904	-0.0377501	0.0001549	0.0450347	0	0	0	
0.213333	0.00330961	0.0229977	0.000185185	0.0447924	0	0	0	
0.2135	0.00644188	-0.0258759	0.000173575	0.0447464	0	0	0	
0.213667	0.00109993	0.00983972	0.00013865	0.0450002	0	0	0	
0.213833	0.000601111	-0.0132368	0.000111058	0.0453619	0	0	0	
0.214	0.00978033	-0.00139381	0.000119774	0.0455535	0	0	0	
0.214167	-0.00901345	0.0322162	0.000144629	0.0455351	0	0	0	
0.214333	0.00839678	-0.0499898	0.000178778	0.0454085	0	0	0	
0.2145	-0.000336321	0.0553064	0.000165687	0.0452455	0	0	0	
0.214667	0.00341864	-0.0656493	0.000133477	0.0451155	0	0	0	
0.214833	-0.00293141	0.0598343	0.000104153	0.0451709	0	0	0	
0.215	0.006267	-0.0659757	9.62132E-05	0.0454098	0	0	0	
0.215167	0.00140874	0.0739248	0.000100356	0.0455409	0	0	0	
0.215333	0.00288884	-0.105411	8.09169E-05	0.0453239	0	0	0	
0.2155	-0.00305815	0.11817	7.66124E-05	0.0449591	0	0	0	
0.215667	0.000999011	-0.119556	6.77243E-05	0.0448312	0	0	0	
0.215833	0.00281355	0.10646	5.6381E-05	0.0449684	0	0	0	
0.216	0.00539809	-0.130777	7.35492E-05	0.0451571	0	0	0	
0.216167	-0.0105801	0.144576	0.000110109	0.0453173	0	0	0	
0.216333	0.00181555	-0.158367	0.000209142	0.0454832	0	0	0	
0.2165	0.0151357	0.166931	0.000301482	0.0454961	0	0	0	
0.216667	-0.00903957	-0.189189	0.00032523	0.0453035	0	0	0	
0.216833	-0.00175531	0.188804	0.000300845	0.0451744	0	0	0	
0.217	0.00737064	-0.195352	0.000189806	0.0453175	0	0	0	
0.217167	-0.00507088	0.2036	0.000163829	0.0455396	0	0	0	
0.217333	0.0112423	-0.227136	0.000124473	0.0455946	0	0	0	
0.2175	-0.01175	0.227641	0.000179046	0.0454688	0	0	0	
0.217667	0.00627164	-0.232963	0.000206659	0.0453071	0	0	0	
0.217833	-0.00163455	0.248895	0.000220276	0.045154	0	0	0	
0.218	0.00294107	-0.269173	0.00017207	0.0450434	0	0	0	
0.218167	0.000859559	0.267792	0.000113087	0.0450488	0	0	0	
0.218333	0.00119915	-0.285165	6.79726E-05	0.0451702	0	0	0	
0.2185	-0.00136305	0.303283	4.90641E-05	0.0452733	0	0	0	
0.218667	0.00147827	-0.318449	3.4969E-05	0.0452778	0	0	0	
0.218833	-0.00234788	0.310809	4.3914E-05	0.0451919	0	0	0	
0.219	0.00146408	-0.30264	6.33149E-05	0.0450887	0	0	0	
0.219167	0.000920974	0.306997	7.21308E-05	0.0450153	0	0	0	
0.219333	0.000792417	-0.355086	5.19249E-05	0.0450959	0	0	0	
0.2195	-0.00422547	0.378278	4.00445E-05	0.0453216	0	0	0	
0.219667	0.0108795	-0.3781	7.59471E-05	0.0454803	0	0	0	
0.219833	-0.00585689	0.355134	0.000128641	0.0452947	0	0	0	
0.22	0.000862606	-0.35184	0.000130012	0.0448997	0	0	0	
0.220167	-0.00150188	0.375445	8.70348E-05	0.0447112	0	0	0	
0.220333	0.00234217	-0.410375	6.1927E-05	0.0449091	0	0	0	
0.2205	0.00436125	0.433741	9.60971E-05	0.0451655	0	0	0	
0.220667	0.00103812	-0.453083	0.000113777	0.0451769	0	0	0	
0.220833	-0.00264887	0.426673	0.000133507	0.0450448	0	0	0	
0.221	0.00365874	-0.4057	0.000111151	0.0450807	0	0	0	
0.221167	-0.000838466	0.424809	0.000103857	0.0453135	0	0	0	
0.221333	0.00442121	-0.473948	8.16691E-05	0.0456007	0	0	0	
0.2215	-0.00617891	0.497811	7.62378E-05	0.0457942	0	0	0	
0.221667	0.00690477	-0.506517	0.000123226	0.0457894	0	0	0	
0.221833	0.000759662	0.493996	0.000134702	0.0455587	0	0	0	
0.222	-0.00115988	-0.51017	0.000132556	0.0453227	0	0	0	
0.222167	-0.00129197	0.523284	7.82543E-05	0.0452498	0	0	0	
0.222333	0.00543728	-0.560545	6.48192E-05	0.045354	0	0	0	
0.2225	-0.00846297	0.583598	8.88649E-05	0.0454259	0	0	0	
0.222667	0.00160382	-0.593982	0.000131028	0.0453976	0	0	0	
0.222833	-0.00131657	0.571068	0.000155192	0.0452687	0	0	0	
0.223	0.00187221	-0.567217	0.000127226	0.0451973	0	0	0	
0.223167	-0.0026183	0.572598	9.97212E-05	0.0452401	0	0	0	
0.223333	0.000251559	-0.606612	5.78662E-05	0.0454434	0	0	0	
0.2235	-0.00151488	0.627106	5.23941E-05	0.0456609	0	0	0	
0.223667	0.00595838	-0.62946	6.15065E-05	0.0457365	0	0	0	
0.223833	-0.00930797	0.615731	0.000106112	0.0455265	0	0	0	
0.224	0.00343005	-0.614361	0.000121122	0.0451911	0	0	0	
0.224167	-0.0024605	0.640657	0.000123855	0.045031	0	0	0	
0.224333	0.00226658	-0.672883	7.80216E-05	0.0451373	0	0	0	
0.2245	-0.000568881	0.686982	6.46105E-05	0.0453007	0	0	0	
0.224667	0.000716416	-0.689563	4.3642E-05	0.0453522	0	0	0	
0.224833	0.00173728	0.677153	4.40299E-05	0.0453173	0	0	0	
0.225	0.00386196	-0.673053	4.00719E-05	0.045305	0	0	0	
0.225167	-0.00487901	0.697813	6.28053E-05	0.045331	0	0	0	
0.225333	0.00773136	-0.71528	8.81089E-05	0.0453692	0	0	0	
0.2255	1.38967E-05	0.714245	0.000100463	0.0453755	0	0	0	
0.225667	-0.00162817	-0.72956	7.90793E-05	0.0453306	0	0	0	
0.225833	0.00140299	0.743986	5.73676E-05	0.0452443	0	0	0	
0.226	0.00508777	-0.754586	5.98654E-05	0.0451828	0	0	0	
0.226167	-0.00274416	0.758527	6.98605E-05	0.0451781	0	0	0	
0.226333	0.00549377	-0.756093	9.13287E-05	0.0452272	0	0	0	
0.2265	0.00193107	0.749113	9.10544E-05	0.0452668	0	0	0	
0.226667	0.00283006	-0.774869	7.7405E-05	0.0452872	0	0	0	
0.226833	0.000892342	0.777282	5.95702E-05	0.045228	0	0	0	
0.227	5.79286E-05	-0.789944	4.67129E-05	0.0451963	0	0	0	
0.227167	-0.000399238	0.814533	4.66951E-05	0.045208	0	0	0	
0.227333	0.00779227	-0.838971	7.11219E-05	0.0452972	0	0	0	
0.2275	-0.00448078	0.827318	7.57332E-05	0.0453892	0	0	0	
0.227667	0.00263821	-0.839148	0.00012933	0.0455273	0	0	0	
0.227833	0.00122939	0.839543	0.000146161	0.0455993	0	0	0	
0.228	0.00154558	-0.863973	0.000133306	0.045598	0	0	0	
0.228167	-0.00627646	0.890817	9.56612E-05	0.0454505	0	0	0	
0.228333	0.00661599	-0.918346	8.73421E-05	0.0453325	0	0	0	
0.2285	-0.00207434	0.902715	0.000104088	0.0451993	0	0	0	
0.228667	0.0035785	-0.909853	0.000113642	0.0451542	0	0	0	
0.228833	-0.0110613	0.909722	0.0001195	0.0451402	0	0	0	
0.229	0.0064349	-0.919454	0.000160428	0.0452135	0	0	0	
0.229167	-0.00219485	0.93214	0.000160232	0.0452402	0	0	0	
0.229333	-0.000826814	-0.949632	0.000127043	0.0452219	0	0	0	
0.2295	0.00170906	0.934661	7.08643E-05	0.0450806	0	0	0	
0.229667	-0.00206051	-0.953858	5.70492E-05	0.0450521	0	0	0	
0.229833	-0.00185721	0.968906	4.68405E-05	0.0451261	0	0	0	
0.23	0.00227219	-0.997211	6.01049E-05	0.0453491	0	0	0	
0.230167	-0.00494804	0.993798	6.53826E-05	0.0454773	0	0	0	
0.230333	0.00478112	-0.982998	9.53931E-05	0.0454324	0	0	0	
0.2305	-0.00689882	0.952913	0.000103606	0.0449438	0	0	0	
0.230667	0.00557662	-1.07831	0.000120091	0.0445876	0	0	0	
0.230833	-0.00221415	1.11365	0.000117728	0.0446423	0	0	0	
0.231	0.00627377	-1.06744	0.000117707	0.045178	0	0	0	
0.231167	-0.00261604	1.02413	0.000102965	0.0454089	0	0	0	
0.231333	-0.00309303	-1.04364	9.67035E-05	0.04522	0	0	0	
0.2315	0.00357963	0.999984	0.000101964	0.0449557	0	0	0	
0.231667	0.00108009	-1.03457	0.00012141	0.0450262	0	0	0	
0.231833	-0.00889412	1.05504	0.000154957	0.0449284	0	0	0	
0.232	0.00841541	-1.10002	0.000169979	0.0446131	0	0	0	
0.232167	0.000194776	1.09961	0.000139858	0.0444342	0	0	0	
0.232333	0.00591487	-1.07669	9.67071E-05	0.0447544	0	0	0	
0.2325	-0.000615031	1.11687	6.54528E-05	0.044909	0	0	0	
0.232667	-0.0115902	-1.31871	7.73432E-05	0.0448167	0	0	0	
0.232833	-0.00741186	1.3051	0.000211008	0.0462778	0	0	0	
0.233	0.0947282	-1.17839	0.000573504	0.0515644	0	0	0	
0.233167	-0.142341	0.064672	0.00163333	0.0538007	0	0	0	
0.233333	0.0386393	0.0968629	0.00203761	0.0468353	0	0	0	
0.2335	-0.00124591	1.06702	0.00179281	0.0336647	0	0	0	
0.233667	-0.00838807	-1.52936	0.000754185	0.0255351	0	0	0	
0.233833	0.000567177	1.40867	0.000286894	0.02655	0	0	0	
0.234	0.00579633	-0.818333	0.000232647	0.030005	0	0	0	
0.234167	-0.0144028	0.581854	0.000370103	0.0300296	0	0	0	
0.234333	0.00586872	-0.569708	0.000476142	0.0272723	0	0	0	
0.2345	0.00343999	1.01943	0.00044538	0.0273411	0	0	0	
0.234667	0.00634329	-0.514235	0.000370713	0.0283459	0	0	0	
0.234833	-0.0079118	0.131694	0.000247	0.0267319	0	0	0	
0.235	0.000482612	-0.315684	0.000227019	0.0200275	0	0	0	
0.235167	0.011248	0.745593	0.000190824	0.0153542	0	0	0	
0.235333	0.00105131	-0.916084	0.000200482	0.0175946	0	0	0	
0.2355	0.00116352	1.14186	0.000238987	0.0271789	0	0	0	
0.235667	-0.00464482	-0.774963	0.000200226	0.0341046	0	0	0	
0.235833	0.00302399	0.228089	0.000149271	0.0320522	0	0	0	
0.236	0.00379363	-0.111624	0.000144371	0.022706	0	0	0	
0.236167	-0.0075882	0.0738029	0.000141812	0.0138573	0	0	0	
0.236333	0.0112514	-0.532707	0.000200639	0.011757	0	0	0	
0.2365	0.00105307	0.677179	0.000245599	0.0116619	0	0	0	
0.236667	-0.00666044	-1.06956	0.00027565	0.0168898	0	0	0	
0.236833	0.0050281	0.628299	0.000226663	0.0220322	0	0	0	
0.237	-0.000978706	-0.30748	0.000138157	0.0237361	0	0	0	
0.237167	-0.00441932	0.385065	0.000122867	0.0191636	0	0	0	
0.237333	0.0120086	-0.174332	0.000140076	0.0151632	0	0	0	
0.2375	-0.00709327	-0.0112095	0.000178293	0.01954	0	0	0	
0.237667	0.00479847	-0.641081	0.000187007	0.0282716	0	0	0	
0.237833	-0.00473037	0.789045	0.000174612	0.0335392	0	0	0	
0.238	0.00798248	-0.385059	0.000165197	0.0291732	0	0	0	
0.238167	-0.0028754	0.319846	0.000133519	0.0202883	0	0	0	
0.238333	0.00201438	-0.247237	0.000103551	0.0134841	0	0	0	
0.2385	-0.00326297	0.96951	8.54828E-05	0.0154143	0	0	0	
0.238667	0.00126569	-1.11585	9.42195E-05	0.0225533	0	0	0	
0.238833	0.00744972	1.08958	0.000109312	0.0304106	0	0	0	
0.239	-0.00380923	-0.520515	0.000124724	0.032741	0	0	0	
0.239167	-0.0013907	0.222366	0.000143971	0.026662	0	0	0	
0.239333	0.00319448	-0.486168	0.000130967	0.0179462	0	0	0	
0.2395	0.00370163	1.08614	0.000103444	0.0144647	0	0	0	
0.239667	0.00330421	-0.936977	6.93654E-05	0.0184231	0	0	0	
0.239833	0.00186226	1.2338	6.77601E-05	0.0278207	0	0	0	
0.24	-0.00325864	-1.019	7.69398E-05	0.0343266	0	0	0	
0.240167	0.00407929	0.352654	7.73169E-05	0.0320864	0	0	0	
0.240333	0.00237192	-0.340429	7.8408E-05	0.0232563	0	0	0	
0.2405	0.00236304	0.435484	5.8719E-05	0.0139669	0	0	0	
0.240667	0.00119006	-1.18667	6.74195E-05	0.0153733	0	0	0	
0.240833	-0.00218447	1.41179	5.64978E-05	0.0238019	0	0	0	
0.241	0.00593404	-1.02723	7.93664E-05	0.0310222	0	0	0	
0.241167	-0.00299932	0.532645	9.10571E-05	0.0316003	0	0	0	
0.241333	0.000176825	-0.282176	0.000127543	0.0239126	0	0	0	
0.2415	0.000833612	0.511887	0.000103826	0.0163103	0	0	0	
0.241667	0.00559662	-1.22118	8.57528E-05	0.0141609	0	0	0	
0.241833	-0.00154992	0.953834	5.42752E-05	0.0180647	0	0	0	
0.242	0.00734272	-0.991389	8.72512E-05	0.0258619	0	0	0	
0.242167	-0.00768344	0.984318	0.000105108	0.0319275	0	0	0	
0.242333	0.0063073	-0.335141	0.000142796	0.0302309	0	0	0	
0.2425	-0.00149729	0.321796	0.00011776	0.0227872	0	0	0	
0.242667	0.00606358	-0.397387	0.000101443	0.0135025	0	0	0	
0.242833	0.00147527	0.998977	7.74164E-05	0.013643	0	0	0	
0.243	0.000212174	-1.43117	8.52288E-05	0.0222584	0	0	0	
0.243167	-0.0039419	1.22175	0.000121324	0.0314897	0	0	0	
0.243333	0.00743799	-0.596107	0.000165914	0.0344016	0	0	0	
0.2435	-0.00239971	0.296249	0.000168848	0.0270959	0	0	0	
0.243667	0.000452976	-0.522247	0.000120569	0.0179177	0	0	0	
0.243833	0.00100846	1.28108	6.13735E-05	0.0148486	0	0	0	
0.244	-0.00063498	-1.20731	3.8872E-05	0.0203663	0	0	0	
0.244167	0.00385993	1.28349	6.40349E-05	0.028014	0	0	0	
0.244333	-0.0108104	-1.25318	8.04203E-05	0.0343566	0	0	0	
0.2445	0.00489178	0.452132	0.000132561	0.0313672	0	0	0	
0.244667	0.002579	-0.34092	0.000129569	0.0243512	0	0	0	
0.244833	-0.00291803	0.509455	0.000111426	0.0147351	0	0	0	
0.245	0.00208596	-0.979665	6.9899E-05	0.013268	0	0	0	
0.245167	-0.00372397	1.57342	4.72431E-05	0.0201845	0	0	0	
0.245333	0.00576604	-1.31711	7.86605E-05	0.0289124	0	0	0	
0.2455	-0.00158915	0.687111	0.000128955	0.0326033	0	0	0	
0.245667	-0.00391487	-0.331985	0.000172747	0.0266645	0	0	0	
0.245833	0.00146595	0.507657	0.000148873	0.0179372	0	0	0	
0.246	0.00207687	-1.19576	0.000159151	0.0143901	0	0	0	
0.246167	-0.005332	1.21213	0.000167036	0.0190871	0	0	0	
0.246333	0.0140343	-1.17108	0.000251404	0.0257252	0	0	0	
0.2465	-0.0193331	1.3189	0.000304177	0.0320665	0	0	0	
0.246667	0.0149227	-0.518017	0.000345713	0.0298593	0	0	0	
0.246833	0.00164388	0.371508	0.000315828	0.0239242	0	0	0	
0.247	-0.0210031	-0.559036	0.000246329	0.0150309	0	0	0	
0.247167	0.0153399	1.04127	0.000287733	0.0132522	0	0	0	
0.247333	0.00294614	-1.68222	0.000313167	0.020744	0	0	0	
0.2475	0.00347613	1.47255	0.000325163	0.0305002	0	0	0	
0.247667	-0.00437586	-0.74562	0.000207567	0.0349765	0	0	0	
0.247833	0.000505341	0.387429	0.000130958	0.028472	0	0	0	
0.248	0.00452572	-0.544079	6.97751E-05	0.0188321	0	0	0	
0.248167	-0.00651369	1.06909	0.000124244	0.0148738	0	0	0	
0.248333	0.00154655	-1.58953	0.000195305	0.0224343	0	0	0	
0.2485	-0.00628209	1.21318	0.000218025	0.0287263	0	0	0	
0.248667	0.0162732	-1.38733	0.000185248	0.0344246	0	0	0	
0.248833	-0.0105551	0.578757	0.000188543	0.0295495	0	0	0	
0.249	0.00349998	-0.408075	0.00020106	0.023792	0	0	0	
0.249167	-0.0112933	0.726781	0.000181351	0.0157151	0	0	0	
0.249333	0.0121306	-1.28165	0.000188344	0.0154584	0	0	0	
0.2495	-0.00503095	1.61673	0.000200995	0.0213258	0	0	0	
0.249667	0.00370629	-1.53471	0.000189627	0.0306571	0	0	0	
0.249833	-0.0063573	0.815657	0.000149263	0.0334768	0	0	0	
0.25	0.0036103	-0.418828	0.000132627	0.0284613	0	0	0	
0.250167	-0.00133065	0.5285	0.000128219	0.0188791	0	0	0	
0.250333	0.00332597	-1.09504	0.000116243	0.0140908	0	0	0	
0.2505	0.00115269	1.60807	0.000148022	0.0198252	0	0	0	
0.250667	0.000805229	-1.36933	0.000159181	0.0265544	0	0	0	
0.250833	0.00276332	1.4568	0.000126139	0.0333623	0	0	0	
0.251	-0.00324517	-0.608846	9.4938E-05	0.0308048	0	0	0	
0.251167	4.64258E-05	0.393963	0.000102716	0.024727	0	0	0	
0.251333	0.000732374	-0.721613	0.000102729	0.0160881	0	0	0	
0.2515	0.00310544	1.18078	9.1528E-05	0.0141544	0	0	0	
0.251667	0.00407323	-1.69319	7.53712E-05	0.0200001	0	0	0	
0.251833	-0.000940644	1.69702	0.000103551	0.0298497	0	0	0	
0.252	-0.0075793	-0.953702	0.000166115	0.034395	0	0	0	
0.252167	0.00751366	0.498128	0.000207062	0.0297999	0	0	0	
0.252333	-0.00341553	-0.402337	0.000189608	0.0202038	0	0	0	
0.2525	0.00385714	0.533873	0.000123811	0.0137365	0	0	0	
0.252667	-0.000899106	-0.695554	9.12806E-05	0.0146778	0	0	0	
0.252833	-0.0108993	0.97677	0.000132867	0.0163213	0	0	0	
0.253	0.0195918	-1.45573	0.000191953	0.0214212	0	0	0	
0.253167	-0.0114966	0.763846	0.000267255	0.0231271	0	0	0	
0.253333	-0.00163601	-0.517991	0.000286173	0.0223289	0	0	0	
0.2535	0.00492998	0.747234	0.000219443	0.0171786	0	0	0	
0.253667	0.00120552	-0.927386	0.000173816	0.0154572	0	0	0	
0.253833	-0.0063782	1.30297	0.000145424	0.0212551	0	0	0	
0.254	0.00287006	-1.47077	0.000179729	0.0305757	0	0	0	
0.254167	-0.00309824	0.882407	0.000171665	0.0345381	0	0	0	
0.254333	0.00609998	-0.512824	0.000153471	0.0288069	0	0	0	
0.2545	-0.00156344	0.520254	0.000113239	0.0189201	0	0	0	
0.254667	-0.00530056	-0.798142	9.29265E-05	0.0130169	0	0	0	
0.254833	0.00369501	1.70404	7.76764E-05	0.0178394	0	0	0	
0.255	0.000982418	-1.56033	0.000135648	0.0252104	0	0	0	
0.255167	-0.00266066	1.54714	0.000175016	0.0326726	0	0	0	
0.255333	0.00220235	-0.703099	0.000174069	0.03163	0	0	0	
0.2555	-0.000450834	0.406277	0.000105154	0.0249781	0	0	0	
0.255667	0.0011554	-0.733489	4.27402E-05	0.016755	0	0	0	
0.255833	-0.00619581	1.39704	3.80888E-05	0.0155328	0	0	0	
0.256	0.00417789	-1.59573	6.86015E-05	0.0201743	0	0	0	
0.256167	-0.000852852	1.86904	7.39162E-05	0.029878	0	0	0	
0.256333	0.00077637	-1.0983	6.01512E-05	0.0343069	0	0	0	
0.2565	-0.000937372	0.52503	3.16758E-05	0.030978	0	0	0	
0.256667	-0.000607188	-0.413915	3.16308E-05	0.0213578	0	0	0	
0.256833	0.00388635	0.552457	4.37805E-05	0.0129625	0	0	0	
0.257	-0.00259636	-0.874931	7.72114E-05	0.0117033	0	0	0	
0.257167	-0.00441016	1.36183	0.000166087	0.0171634	0	0	0	
0.257333	0.0104078	-1.54337	0.000233572	0.0236506	0	0	0	
0.2575	-0.00378225	0.832765	0.000237078	0.0276383	0	0	0	
0.257667	0.00202144	-0.520061	0.000157562	0.023238	0	0	0	
0.257833	-0.00263628	0.731289	7.64894E-05	0.0173831	0	0	0	
0.258	0.0057339	-0.769892	7.49035E-05	0.0153712	0	0	0	
0.258167	-0.000357993	1.38513	7.12407E-05	0.0202447	0	0	0	
0.258333	-0.00513537	-1.62698	8.81196E-05	0.0284955	0	0	0	
0.2585	0.0101793	1.07071	0.000110393	0.0333624	0	0	0	
0.258667	-0.00104845	-0.550604	0.00013632	0.0289273	0	0	0	
0.258833	-0.000900239	0.494942	0.000135343	0.0202433	0	0	0	
0.259	-0.00216237	-0.699517	7.96504E-05	0.0125723	0	0	0	
0.259167	0.00104602	1.63858	6.57204E-05	0.0154628	0	0	0	
0.259333	0.00753826	-1.75927	8.80233E-05	0.0241202	0	0	0	
0.2595	-0.00496904	1.61742	0.000113094	0.0324194	0	0	0	
0.259667	0.00115066	-0.757907	0.000128594	0.0327032	0	0	0	
0.259833	0.00226075	0.441912	0.000104154	0.0247434	0	0	0	
0.26	0.00323405	-0.71076	8.86569E-05	0.0164298	0	0	0	
0.260167	-0.0107235	1.54162	8.82827E-05	0.0157645	0	0	0	
0.260333	0.00473233	-1.46251	0.000151568	0.0212404	0	0	0	
0.2605	0.00186981	1.91884	0.00018691	0.0294381	0	0	0	
0.260667	-0.00297565	-1.29683	0.000155882	0.0339859	0	0	0	
0.260833	0.000547401	0.581748	8.4636E-05	0.0301021	0	0	0	
0.261	0.00401528	-0.471165	5.74692E-05	0.0219539	0	0	0	
0.261167	-0.0129144	0.755455	9.75577E-05	0.0133233	0	0	0	
0.261333	0.0127615	-1.43676	0.000182285	0.0146434	0	0	0	
0.2615	-0.0177432	1.90049	0.000229176	0.0228077	0	0	0	
0.261667	0.0107494	-1.74359	0.000258569	0.0311793	0	0	0	
0.261833	-0.00477729	0.853815	0.000239496	0.0327923	0	0	0	
0.262	-0.00507687	-0.468352	0.00022506	0.0255999	0	0	0	
0.262167	0.00361607	0.684692	0.000176324	0.0172195	0	0	0	
0.262333	0.00347311	-1.37539	0.000215518	0.0157312	0	0	0	
0.2625	-0.00878775	1.40232	0.000255301	0.019759	0	0	0	
0.262667	0.00229239	-1.80864	0.000262482	0.0267277	0	0	0	
0.262833	0.00414073	1.36249	0.000162608	0.0314092	0	0	0	
0.263	-0.00177875	-0.627519	0.000100463	0.0286667	0	0	0	
0.263167	0.00166799	0.507421	7.39616E-05	0.0218207	0	0	0	
0.263333	-0.00549656	-0.767928	8.12286E-05	0.013637	0	0	0	
0.2635	-0.00149004	1.57483	8.4009E-05	0.014396	0	0	0	
0.263667	0.0122613	-2.05789	0.000116629	0.0234548	0	0	0	
0.263833	-0.00702553	1.84368	0.000162131	0.0325554	0	0	0	
0.264	0.00112411	-0.860053	0.000259013	0.0347922	0	0	0	
0.264167	0.00437863	0.467841	0.000289467	0.0264782	0	0	0	
0.264333	0.0019465	-0.672481	0.000229453	0.0170984	0	0	0	
0.2645	-0.00403331	1.66111	0.00011495	0.0156429	0	0	0	
0.264667	0.00405902	-1.53676	5.68407E-05	0.0224734	0	0	0	
0.264833	-0.00709111	1.83988	0.00013044	0.0287659	0	0	0	
0.265	0.019017	-1.49034	0.000225862	0.033401	0	0	0	
0.265167	-0.0115808	0.671995	0.000304518	0.0283906	0	0	0	
0.265333	0.00259072	-0.482299	0.000260792	0.0223624	0	0	0	
0.2655	-0.00532587	0.780437	0.000172841	0.0141121	0	0	0	
0.265667	0.00650345	-1.20373	0.000134804	0.0136506	0	0	0	
0.265833	0.00211428	1.94608	0.000128986	0.020468	0	0	0	
0.266	-0.00618275	-1.82346	0.000162921	0.0289726	0	0	0	
0.266167	0.00405086	0.877539	0.000231597	0.0317171	0	0	0	
0.266333	0.00531007	-0.520783	0.00029416	0.0254575	0	0	0	
0.2665	-0.00109946	0.669575	0.000249667	0.0167794	0	0	0	
0.266667	-0.00416999	-1.47667	0.000131489	0.0149133	0	0	0	
0.266833	0.00215315	1.67489	6.43253E-05	0.0214604	0	0	0	
0.267	-0.00175536	-1.88751	7.44954E-05	0.0279667	0	0	0	
0.267167	0.0114356	1.61079	9.63569E-05	0.0336135	0	0	0	
0.267333	-0.00655184	-0.699729	0.000124732	0.0294157	0	0	0	
0.2675	-0.0022533	0.495588	0.000150684	0.0231045	0	0	0	
0.267667	0.0155233	-0.872475	0.000167669	0.0148826	0	0	0	
0.267833	-0.00930313	1.50353	0.000185445	0.0149616	0	0	0	
0.268	0.00761959	-2.15956	0.000228858	0.0226356	0	0	0	
0.268167	-0.0024586	1.96126	0.000257066	0.0317883	0	0	0	
0.268333	0.000669541	-0.923133	0.000241665	0.034078	0	0	0	
0.2685	0.00377209	0.515861	0.000181849	0.0269345	0	0	0	
0.268667	0.000526073	-0.637746	0.00013547	0.0172021	0	0	0	
0.268833	-0.00214318	1.63508	0.000160967	0.0146849	0	0	0	
0.269	0.0140999	-1.77914	0.000200676	0.022694	0	0	0	
0.269167	-0.013396	1.75629	0.000277574	0.0289701	0	0	0	
0.269333	0.0159763	-1.6265	0.000293458	0.0340198	0	0	0	
0.2695	-0.00670878	0.725816	0.000271547	0.0285051	0	0	0	
0.269667	-0.00367994	-0.418542	0.000205629	0.0224039	0	0	0	
0.269833	0.0107811	0.784973	0.000147212	0.0146528	0	0	0	
0.27	-0.000286081	-1.14466	0.000164407	0.0158531	0	0	0	
0.270167	0.00206199	1.77745	0.000188215	0.0192718	0	0	0	
0.270333	-0.00334305	-2.03053	0.000190783	0.0279047	0	0	0	
0.2705	0.00227999	0.983754	0.00018275	0.0294376	0	0	0	
0.270667	0.00471963	-0.557744	0.000175479	0.0268802	0	0	0	
0.270833	-0.000510926	0.569714	0.000152992	0.0178904	0	0	0	
0.271	-0.00967238	-1.15416	0.000186132	0.0132666	0	0	0	
0.271167	0.0101556	1.55592	0.000194332	0.0172735	0	0	0	
0.271333	-0.00541815	-1.81592	0.000244772	0.0236569	0	0	0	
0.2715	-0.00356403	1.65338	0.000191764	0.0303571	0	0	0	
0.271667	0.000460935	-0.761438	0.00013785	0.0288978	0	0	0	
0.271833	-0.00248797	0.502254	6.95027E-05	0.0229565	0	0	0	
0.272	0.00525586	-0.955566	4.64103E-05	0.0157023	0	0	0	
0.272167	-0.00640431	1.63889	7.21006E-05	0.0172856	0	0	0	
0.272333	-0.00303572	-2.11022	9.89105E-05	0.0235366	0	0	0	
0.2725	-0.00162611	2.06768	9.73257E-05	0.0328439	0	0	0	
0.272667	-0.000841009	-1.02787	7.65861E-05	0.0341982	0	0	0	
0.272833	2.67714E-05	0.616211	5.88829E-05	0.0287297	0	0	0	
0.273	-0.00121742	-0.552268	6.38965E-05	0.0186132	0	0	0	
0.273167	-0.00511036	1.00244	9.2547E-05	0.0129331	0	0	0	
0.273333	0.00533958	-1.3732	0.00011638	0.0150206	0	0	0	
0.2735	-0.00232876	1.49664	0.00013023	0.0209069	0	0	0	
0.273667	-0.00909761	-1.57078	0.000114378	0.0268607	0	0	0	
0.273833	0.00594118	0.8116	0.00013112	0.0271472	0	0	0	
0.274	-0.00053723	-0.575812	0.000129564	0.0218787	0	0	0	
0.274167	0.000498557	0.944622	0.000102527	0.0160253	0	0	0	
0.274333	-0.00553911	-1.41907	6.15207E-05	0.015909	0	0	0	
0.2745	0.00314696	1.80842	5.07738E-05	0.0218179	0	0	0	
0.274667	-0.00218856	-1.94193	6.15299E-05	0.0301474	0	0	0	
0.274833	0.00253346	0.962125	8.20026E-05	0.0329649	0	0	0	
0.275	-0.00443903	-0.603169	8.72398E-05	0.0273393	0	0	0	
0.275167	0.0017959	0.583645	9.82683E-05	0.0181421	0	0	0	
0.275333	0.00235568	-1.02279	0.000143431	0.0126472	0	0	0	
0.2755	-0.00203027	1.92222	0.000169706	0.0182322	0	0	0	
0.275667	0.000333969	-1.91655	0.000150666	0.0266445	0	0	0	
0.275833	0.00134882	1.64834	8.12979E-05	0.0340788	0	0	0	
0.276	0.000171699	-0.78721	4.70505E-05	0.0312673	0	0	0	
0.276167	-0.001442	0.4864	6.70298E-05	0.0231176	0	0	0	
0.276333	-0.0037949	-0.840634	7.07144E-05	0.0154743	0	0	0	
0.2765	0.00895958	1.52222	0.000110386	0.017005	0	0	0	
0.276667	-0.00302881	-1.76698	0.000116882	0.0226395	0	0	0	
0.276833	0.00325978	2.11407	0.000160856	0.0315252	0	0	0	
0.277	0.000754459	-1.12303	0.000182849	0.0336435	0	0	0	
0.277167	-0.00183391	0.607648	0.000196419	0.0290029	0	0	0	
0.277333	0.00114574	-0.533144	0.000167874	0.0195501	0	0	0	
0.2775	-0.00763495	1.00961	0.000152179	0.0129987	0	0	0	
0.277667	0.00762736	-1.70795	0.000175085	0.0172672	0	0	0	
0.277833	-0.000995632	1.77165	0.000159624	0.0260928	0	0	0	
0.278	-0.0081738	-1.57518	0.000118742	0.0327141	0	0	0	
0.278167	0.00116742	0.782831	9.10254E-05	0.030548	0	0	0	
0.278333	-0.000130905	-0.504189	0.000102568	0.0220865	0	0	0	
0.2785	0.00399899	0.797162	8.23466E-05	0.0151586	0	0	0	
0.278667	-0.00421124	-1.28127	8.45395E-05	0.0165431	0	0	0	
0.278833	-0.000681121	1.54622	0.000113168	0.0213964	0	0	0	
0.279	0.0040548	-2.02709	0.000148627	0.0287703	0	0	0	
0.279167	0.010014	1.11713	0.000225517	0.031283	0	0	0	
0.279333	-0.00982226	-0.611982	0.000260749	0.0274144	0	0	0	
0.2795	0.00137379	0.51362	0.00025121	0.0194599	0	0	0	
0.279667	0.00294392	-0.885769	0.000178741	0.0128527	0	0	0	
0.279833	-0.000915089	1.84765	0.000127106	0.0165933	0	0	0	
0.28	0.01876	-2.00888	0.00015001	0.0263285	0	0	0	
0.280167	-0.0180729	1.67688	0.00019336	0.0341892	0	0	0	
0.280333	0.014558	-0.806272	0.000291291	0.0328042	0	0	0	
0.2805	0.0023668	0.479417	0.000343713	0.0234226	0	0	0	
0.280667	-0.00563158	-0.729656	0.000273498	0.0151488	0	0	0	
0.280833	0.00189107	1.52899	0.000198345	0.0166843	0	0	0	
0.281	0.00716444	-1.45543	0.000150289	0.0234582	0	0	0	
0.281167	-0.00205126	2.00291	0.000219854	0.0306598	0	0	0	
0.281333	0.0101068	-1.19933	0.000278783	0.0331886	0	0	0	
0.2815	-0.0104324	0.647666	0.00031377	0.0277183	0	0	0	
0.281667	0.00199053	-0.476689	0.000252435	0.0201045	0	0	0	
0.281833	0.00898477	0.773678	0.000166086	0.0129191	0	0	0	
0.282	-0.00540417	-1.33974	0.000117035	0.014461	0	0	0	
0.282167	0.0101183	1.88894	0.000167441	0.0230218	0	0	0	
0.282333	-0.0109609	-1.68395	0.000205695	0.030976	0	0	0	
0.2825	0.00385151	0.762575	0.000252977	0.0312686	0	0	0	
0.282667	0.014251	-0.238712	0.000270988	0.0222833	0	0	0	
0.282833	-0.00329678	0.578373	0.000312268	0.0142994	0	0	0	
0.283	-0.077463	-1.95657	0.000599145	0.020704	0	0	0	
0.283167	0.139805	3.25138	0.00154419	0.0354497	0	0	0	
0.283333	-0.0391156	-3.52515	0.00203665	0.0533387	0	0	0	
0.2835	0.00485562	2.12713	0.0017981	0.0568277	0	0	0	
0.283667	0.00701022	-1.47043	0.000834051	0.0508509	0	0	0	
0.283833	-0.00674571	1.5636	0.000259037	0.0387253	0	0	0	
0.284	0.0179373	-2.24773	0.000292017	0.0339097	0	0	0	
0.284167	-0.00789929	2.40956	0.000504804	0.0377668	0	0	0	
0.284333	0.0205068	-2.25189	0.000685959	0.0429998	0	0	0	
0.2845	-0.0149692	2.06415	0.000589257	0.0451169	0	0	0	
0.284667	-0.00232119	-2.03664	0.000422369	0.0434575	0	0	0	
0.284833	0.00717299	2.15631	0.000308085	0.0429653	0	0	0	
0.285	-0.00911133	-2.23252	0.000270541	0.0437791	0	0	0	
0.285167	-0.00428103	2.24732	0.000202858	0.0447623	0	0	0	
0.285333	0.000946561	-2.18935	0.000141167	0.0450072	0	0	0	
0.2855	-0.00382218	2.16748	0.000114362	0.0447564	0	0	0	
0.285667	0.00281491	-2.21195	0.000117297	0.044756	0	0	0	
0.285833	-0.0105848	2.2432	0.000132941	0.0451466	0	0	0	
0.286	-0.00195938	-2.23046	0.000149521	0.0455578	0	0	0	
0.286167	0.0066105	2.21215	0.0001302	0.0456305	0	0	0	
0.286333	-0.00190618	-2.1767	0.000140466	0.0453629	0	0	0	
0.2865	-0.0103422	2.19755	0.000201488	0.0451801	0	0	0	
0.286667	0.00443272	-2.20382	0.000208056	0.0452716	0	0	0	
0.286833	0.00229397	2.20037	0.000180301	0.0454276	0	0	0	
0.287	-0.00514279	-2.19976	0.000117896	0.045536	0	0	0	
0.287167	-0.00486721	2.19208	0.000124029	0.0454823	0	0	0	
0.287333	0.00545831	-2.17292	0.000128941	0.0453541	0	0	0	
0.2875	-0.00380699	2.17216	0.000133795	0.0451942	0	0	0	
0.287667	-0.00247097	-2.14573	9.60051E-05	0.0450328	0	0	0	
0.287833	-0.00197766	2.13926	8.57749E-05	0.0448729	0	0	0	
0.288	-0.00093002	-2.14395	7.28811E-05	0.044804	0	0	0	
0.288167	0.00214564	2.14527	6.12269E-05	0.0448716	0	0	0	
0.288333	-0.00446997	-2.13417	7.27698E-05	0.0450439	0	0	0	
0.2885	-0.00314095	2.13331	9.69759E-05	0.045137	0	0	0	
0.288667	0.00152175	-2.1377	0.000119396	0.0451418	0	0	0	
0.288833	0.00268173	2.19076	9.68345E-05	0.0452721	0	0	0	
0.289	-0.00976185	-2.17801	8.9592E-05	0.0457907	0	0	0	
0.289167	0.00163191	2.09853	9.43125E-05	0.0457462	0	0	0	
0.289333	0.00206666	-2.09385	0.000110387	0.0453336	0	0	0	
0.2895	-0.00104901	2.08736	8.10924E-05	0.0446986	0	0	0	
0.289667	0.000187472	-2.08449	7.25571E-05	0.0446261	0	0	0	
0.289833	-0.00234439	2.0998	9.80311E-05	0.044892	0	0	0	
0.29	0.00565454	-2.08192	0.000140329	0.0453206	0	0	0	
0.290167	-0.00136887	2.10232	0.000129373	0.0454917	0	0	0	
0.290333	-0.00376725	-2.15822	8.4631E-05	0.045693	0	0	0	
0.2905	0.00125155	2.10574	7.84437E-05	0.0456667	0	0	0	
0.290667	0.00856479	-2.06122	0.000157729	0.0455761	0	0	0	
0.290833	-0.0119789	2.07153	0.000197877	0.0453123	0	0	0	
0.291	-0.0109849	-2.03524	0.000303717	0.0449841	0	0	0	
0.291167	0.0571837	2.014	0.000437304	0.0448484	0	0	0	
0.291333	-0.49975	-2.29767	0.00168768	0.0457351	0	0	0	
0.2915	0.0811049	2.21048	0.00345737	0.0478548	0	0	0	
0.291667	-0.0651383	-2.44593	0.00354156	0.0495922	0	0	0	
0.291833	-0.053726	2.43892	0.00253649	0.0506465	0	0	0	
0.292	0.0473868	-2.24582	0.000888332	0.0495409	0	0	0	
0.292167	-0.056474	2.12401	0.00108422	0.0479059	0	0	0	
0.292333	-0.0860431	-2.08591	0.00160186	0.0459029	0	0	0	
0.2925	-0.224929	1.83979	0.00343387	0.0448484	0	0	0	
0.292667	0.0288252	-2.01719	0.00399698	0.0443528	0	0	0	
0.292833	-0.0270895	2.12604	0.00358439	0.0454878	0	0	0	
0.293	-0.0198323	-2.13824	0.001704	0.0469378	0	0	0	
0.293167	-0.0367015	2.17481	0.000947909	0.0486893	0	0	0	
0.293333	0.0237083	-2.12147	0.000926666	0.0488127	0	0	0	
0.2935	-0.0310824	2.06637	0.000852762	0.0484378	0	0	0	
0.293667	0.0151712	-2.12163	0.000743584	0.0484244	0	0	0	
0.293833	-0.0228404	2.21101	0.00041742	0.0486819	0	0	0	
0.294	0.00788702	-2.14059	0.000410898	0.0487649	0	0	0	
0.294167	0.0147656	2.03034	0.000383429	0.047969	0	0	0	
0.294333	-0.0185495	-1.96599	0.000451418	0.0466282	0	0	0	
0.2945	0.00813998	1.9781	0.000388928	0.0455838	0	0	0	
0.294667	0.00762754	-1.95918	0.000329557	0.0451322	0	0	0	
0.294833	-0.0191089	1.93578	0.00035716	0.0449696	0	0	0	
0.295	0.0204923	-1.9277	0.000398566	0.0448285	0	0	0	
0.295167	-0.0021283	1.91515	0.000391411	0.0447152	0	0	0	
0.295333	-0.0131701	-1.87602	0.000398185	0.0445087	0	0	0	
0.2955	0.0184021	1.84885	0.000372857	0.044267	0	0	0	
0.295667	-0.00762299	-1.83997	0.00034294	0.0440842	0	0	0	
0.295833	0.00590642	1.83825	0.000273177	0.044252	0	0	0	
0.296	-0.00482669	-1.85131	0.000235318	0.0446483	0	0	0	
0.296167	0.0039627	1.89284	0.000239551	0.0452498	0	0	0	
0.296333	0.00574415	-1.91403	0.000261806	0.0457837	0	0	0	
0.2965	-0.00784387	1.90248	0.000286963	0.0460086	0	0	0	
0.296667	0.00339385	-1.8709	0.000219977	0.0457269	0	0	0	
0.296833	0.00604873	1.83912	0.000143388	0.0452137	0	0	0	
0.297	-0.000565867	-1.81597	7.3543E-05	0.0448005	0	0	0	
0.297167	-0.000340711	1.80237	7.19602E-05	0.044626	0	0	0	
0.297333	-0.000943878	-1.78067	5.0731E-05	0.0445487	0	0	0	
0.2975	0.00766078	1.78352	5.27789E-05	0.0445319	0	0	0	
0.297667	-0.00278294	-1.79811	8.18585E-05	0.0446681	0	0	0	
0.297833	0.0041358	1.82315	9.49367E-05	0.0449501	0	0	0	
0.298	-0.000224001	-1.80566	0.000100783	0.0452984	0	0	0	
0.298167	0.00594052	1.78701	6.84944E-05	0.0453679	0	0	0	
0.298333	-0.00199754	-1.77052	7.17488E-05	0.0451713	0	0	0	
0.2985	0.00547158	1.75879	7.54992E-05	0.0448413	0	0	0	
0.298667	-0.00219813	-1.74208	9.9719E-05	0.0447179	0	0	0	
0.298833	0.00131705	1.7561	0.0001113	0.0448379	0	0	0	
0.299	0.00428812	-1.75577	0.000121734	0.0451523	0	0	0	
0.299167	-0.00105852	1.76898	0.000118304	0.0453555	0	0	0	
0.299333	-0.00356138	-1.773	0.000135861	0.0454509	0	0	0	
0.2995	0.00721481	1.73795	0.000128387	0.0454206	0	0	0	
0.299667	-0.000440452	-1.70138	0.000177585	0.0453084	0	0	0	
0.299833	-0.00261518	1.70412	0.000176093	0.0451734	0	0	0	
0.3	0.000942358	-1.70641	0.000159513	0.0450758	0	0	0	
0.300167	2.06041E-05	1.71802	8.51206E-05	0.0451897	0	0	0	
0.300333	0.00181541	-1.71581	3.98335E-05	0.0454384	0	0	0	
0.3005	-0.00240539	1.68443	5.71037E-05	0.0456131	0	0	0	
0.300667	0.00498593	-1.6557	6.5694E-05	0.0455163	0	0	0	
0.300833	-0.00227149	1.65983	7.35899E-05	0.0452913	0	0	0	
0.301	0.00127458	-1.6571	6.97803E-05	0.0451826	0	0	0	
0.301167	0.00552464	1.65899	6.91531E-05	0.0453085	0	0	0	
0.301333	-0.00535186	-1.65688	7.50124E-05	0.045461	0	0	0	
0.3015	0.00415065	1.64867	0.000109735	0.0454971	0	0	0	
0.301667	0.0027745	-1.61732	0.000172969	0.0453413	0	0	0	
0.301833	-0.00616036	1.60703	0.000201795	0.0451042	0	0	0	
0.302	0.00376213	-1.60771	0.000188758	0.0449696	0	0	0	
0.302167	0.00390299	1.60265	0.000130116	0.0450366	0	0	0	
0.302333	-0.00473284	-1.5957	9.26431E-05	0.0451058	0	0	0	
0.3025	0.0067633	1.58533	8.20722E-05	0.0451421	0	0	0	
0.302667	-0.00680559	-1.57277	0.000124092	0.0451364	0	0	0	
0.302833	-0.00453181	1.57451	0.00018656	0.0451764	0	0	0	
0.303	0.00844031	-1.57005	0.000212307	0.0451646	0	0	0	
0.303167	-0.0028061	1.56148	0.000180058	0.045161	0	0	0	
0.303333	-0.00703878	-1.55606	0.000152987	0.0451285	0	0	0	
0.3035	0.00956927	1.54605	0.000136335	0.04512	0	0	0	
0.303667	-0.00623063	-1.54259	0.000184046	0.045164	0	0	0	
0.303833	-0.00128033	1.54293	0.000201931	0.0453396	0	0	0	
0.304	0.0064336	-1.53694	0.00018008	0.0455143	0	0	0	
0.304167	0.00123111	1.53109	0.000134423	0.0456445	0	0	0	
0.304333	-0.00974419	-1.51612	0.000111793	0.0456616	0	0	0	
0.3045	0.00846653	1.50331	0.000127894	0.0455524	0	0	0	
0.304667	-0.00336396	-1.47625	0.000169661	0.0453849	0	0	0	
0.304833	0.0024309	1.46305	0.000151649	0.0452372	0	0	0	
0.305	-0.00309177	-1.46553	0.000139319	0.0452374	0	0	0	
0.305167	0.00661045	1.46493	9.71749E-05	0.0453498	0	0	0	
0.305333	0.000937869	-1.45697	0.000115642	0.0454866	0	0	0	
0.3055	-0.00490214	1.44707	0.000115618	0.0455152	0	0	0	
0.305667	-0.00353108	-1.41987	0.00010699	0.0453991	0	0	0	
0.305833	0.00629012	1.42075	8.80077E-05	0.0452166	0	0	0	
0.306	-0.00291971	-1.42735	9.50144E-05	0.0451833	0	0	0	
0.306167	0.00151865	1.43103	9.20477E-05	0.0452969	0	0	0	
0.306333	0.00053832	-1.40867	7.05324E-05	0.0454579	0	0	0	
0.3065	0.0032626	1.37308	4.17032E-05	0.0454847	0	0	0	
0.306667	-0.00522347	-1.35753	6.85268E-05	0.0453523	0	0	0	
0.306833	-0.00212034	1.36749	0.000117718	0.0451557	0	0	0	
0.307	0.00329559	-1.36988	0.00011903	0.0449795	0	0	0	
0.307167	0.00670585	1.38947	0.000141028	0.0449927	0	0	0	
0.307333	-0.0112878	-1.38073	0.000135945	0.0452104	0	0	0	
0.3075	0.00775299	1.3345	0.000215311	0.0454032	0	0	0	
0.307667	0.00395438	-1.31182	0.000241529	0.0453914	0	0	0	
0.307833	-0.00465688	1.36867	0.00021724	0.0455308	0	0	0	
0.308	0.00341027	-1.37237	0.000166888	0.0458636	0	0	0	
0.308167	-0.000536376	1.39902	8.31458E-05	0.0459921	0	0	0	
0.308333	0.000593105	-1.32799	6.13992E-05	0.0458055	0	0	0	
0.3085	0.00200524	1.28165	4.92089E-05	0.045463	0	0	0	
0.308667	-0.00649606	-1.25587	7.64555E-05	0.0454109	0	0	0	
0.308833	0.00316594	1.24562	9.29748E-05	0.0453715	0	0	0	
0.309	0.00326033	-1.20007	0.00013888	0.0454051	0	0	0	
0.309167	-0.00233032	1.28196	0.000149025	0.0455567	0	0	0	
0.309333	-0.00221854	-1.29548	0.000132391	0.0460691	0	0	0	
0.3095	0.00281157	1.25396	8.68105E-05	0.0462665	0	0	0	
0.309667	0.00477026	-1.21112	0.000107696	0.0460427	0	0	0	
0.309833	-0.00611702	1.21999	0.000156232	0.045455	0	0	0	
0.31	0.000245484	-1.15311	0.000155926	0.0448559	0	0	0	
0.310167	-0.00299718	0.985659	0.000105188	0.0441835	0	0	0	
0.310333	-0.00785244	-1.1302	0.000120351	0.0455869	0	0	0	
0.3105	0.0651428	1.84011	0.00031309	0.0525978	0	0	0	
0.310667	-0.151117	-1.75961	0.00120887	0.059059	0	0	0	
0.310833	0.0476903	1.93915	0.00191778	0.0558681	0	0	0	
0.311	-0.0195364	-0.478573	0.00191045	0.0434657	0	0	0	
0.311167	-0.0042628	-0.302351	0.00107353	0.0283654	0	0	0	
0.311333	-5.12345E-05	0.140048	0.000308539	0.0254329	0	0	0	
0.3115	-0.0558293	0.368186	0.000218413	0.0285104	0	0	0	
0.311667	0.0246507	-0.757733	0.000455109	0.0337926	0	0	0	
0.311833	-0.0235489	0.988751	0.000586755	0.0323805	0	0	0	
0.312	-0.00424942	-0.925133	0.00056507	0.0306505	0	0	0	
0.312167	0.0096489	0.467389	0.000373736	0.0286353	0	0	0	
0.312333	-0.0151304	-0.511904	0.000291736	0.0251756	0	0	0	
0.3125	0.00387314	0.385547	0.000283801	0.0185474	0	0	0	
0.312667	-0.000820455	-0.55731	0.000315173	0.014488	0	0	0	
0.312833	-0.00902582	0.936058	0.000352102	0.0187582	0	0	0	
0.313	0.00713487	-0.870384	0.000331687	0.0277303	0	0	0	
0.313167	-0.00390787	0.558274	0.000200615	0.0338307	0	0	0	
0.313333	0.000509711	-0.385334	0.000111784	0.0296977	0	0	0	
0.3135	0.00389325	0.201032	6.44968E-05	0.0198431	0	0	0	
0.313667	-0.01561	-0.586021	9.18511E-05	0.0137376	0	0	0	
0.313833	0.0119771	0.530696	0.000165751	0.0186426	0	0	0	
0.314	-0.0103245	-0.745975	0.000228618	0.0269969	0	0	0	
0.314167	0.00247634	0.916666	0.000280097	0.0339366	0	0	0	
0.314333	0.00318077	-0.411838	0.000285281	0.0327931	0	0	0	
0.3145	-0.00705281	0.294664	0.000246107	0.0255585	0	0	0	
0.314667	-5.57239E-05	-0.118473	0.000178621	0.0167491	0	0	0	
0.314833	0.00616317	0.175404	0.000185397	0.0131871	0	0	0	
0.315	-0.0146671	-0.768794	0.000219661	0.0186572	0	0	0	
0.315167	0.0061844	0.893217	0.000261871	0.028458	0	0	0	
0.315333	0.000628739	-0.491905	0.000171968	0.0338187	0	0	0	
0.3155	0.00330796	0.34309	0.000112821	0.0297754	0	0	0	
0.315667	-0.00208131	-0.187641	4.56029E-05	0.020251	0	0	0	
0.315833	-0.0107433	0.467243	7.33522E-05	0.0137582	0	0	0	
0.316	0.00695244	-0.558195	0.00012652	0.0169357	0	0	0	
0.316167	0.00671974	0.614185	0.000171399	0.0245009	0	0	0	
0.316333	-0.00707066	-0.856653	0.000159607	0.0316329	0	0	0	
0.3165	-0.000451374	0.391199	0.000206762	0.0323888	0	0	0	
0.316667	0.0057186	-0.297045	0.000228304	0.0260111	0	0	0	
0.316833	0.00219831	0.100412	0.000218244	0.0172639	0	0	0	
0.317	-0.0130771	-0.0800911	0.000187314	0.0126701	0	0	0	
0.317167	0.000548112	0.751694	0.000263873	0.017403	0	0	0	
0.317333	0.00333047	-0.751727	0.000307066	0.0276911	0	0	0	
0.3175	0.00652921	0.342194	0.000277688	0.0342853	0	0	0	
0.317667	-0.0135961	-0.301909	0.000193918	0.0312224	0	0	0	
0.317833	0.00528852	0.1414	0.000191537	0.0212114	0	0	0	
0.318	-0.000928965	-0.344327	0.000169248	0.0138861	0	0	0	
0.318167	0.000266071	0.228072	0.000113645	0.0172097	0	0	0	
0.318333	-0.00413999	-0.105491	9.19835E-05	0.0259033	0	0	0	
0.3185	0.00117135	0.706507	0.000107547	0.0327953	0	0	0	
0.318667	-0.00576761	-0.360084	0.000162193	0.0324783	0	0	0	
0.318833	0.00345784	0.286612	0.000178755	0.0248576	0	0	0	
0.319	-0.00361132	0.00974717	0.000141541	0.0158699	0	0	0	
0.319167	0.000207327	-0.466747	0.000105093	0.0111241	0	0	0	
0.319333	-0.00153385	0.153599	0.000110822	0.0149227	0	0	0	
0.3195	-0.00897502	0.752202	0.000161705	0.0245409	0	0	0	
0.319667	0.0147854	-0.438263	0.000173777	0.0328797	0	0	0	
0.319833	-0.00838682	0.378991	0.000216196	0.0316686	0	0	0	
0.32	-0.000383781	-0.222551	0.000188669	0.0233475	0	0	0	
0.320167	-0.00252203	0.357597	0.000155269	0.0143058	0	0	0	
0.320333	-0.001191	-0.260158	7.2858E-05	0.0139386	0	0	0	
0.3205	0.00626812	0.299987	6.80166E-05	0.0191509	0	0	0	
0.320667	-0.00431223	-0.540816	9.77947E-05	0.0265048	0	0	0	
0.320833	-0.000136377	0.29655	0.000118634	0.0300864	0	0	0	
0.321	0.0014963	-0.264562	0.000118307	0.0264489	0	0	0	
0.321167	-0.000147292	0.0284055	9.80102E-05	0.0183443	0	0	0	
0.321333	-0.000561208	0.0435388	8.75186E-05	0.0139987	0	0	0	
0.3215	0.00370211	0.228142	8.32836E-05	0.0191864	0	0	0	
0.321667	-0.000325271	-0.656413	8.62316E-05	0.0292666	0	0	0	
0.321833	0.00514122	0.258617	6.99488E-05	0.0359709	0	0	0	
0.322	-0.00336948	-0.255938	7.25566E-05	0.0326913	0	0	0	
0.322167	0.00228154	0.118835	7.80769E-05	0.0230191	0	0	0	
0.322333	-0.00361137	-0.145858	8.61555E-05	0.0140795	0	0	0	
0.3225	0.00552241	-0.0503182	8.61042E-05	0.0146941	0	0	0	
0.322667	-0.000534744	0.194932	7.79883E-05	0.0226932	0	0	0	
0.322833	0.00340857	0.427612	8.03185E-05	0.0312393	0	0	0	
0.323	-0.00329426	-0.281109	7.76983E-05	0.0336224	0	0	0	
0.323167	0.00306831	0.241962	7.84506E-05	0.0273028	0	0	0	
0.323333	-0.00323668	-0.014481	7.4985E-05	0.0180108	0	0	0	
0.3235	0.0050087	-0.214633	6.60996E-05	0.0131931	0	0	0	
0.323667	-0.00697481	-0.209262	9.13928E-05	0.0162739	0	0	0	
0.323833	0.00546339	0.80164	0.000135236	0.0238945	0	0	0	
0.324	-0.00109908	-0.186908	0.000147843	0.0304216	0	0	0	
0.324167	-0.000181238	0.163295	0.000106083	0.0294604	0	0	0	
0.324333	-0.00103237	-0.122217	5.04769E-05	0.0227763	0	0	0	
0.3245	0.00267514	0.141901	2.71268E-05	0.0146424	0	0	0	
0.324667	-0.0033611	-0.516174	4.08189E-05	0.014162	0	0	0	
0.324833	0.00454684	0.0652225	7.21164E-05	0.0219606	0	0	0	
0.325	-0.00158409	-0.390032	8.83645E-05	0.0313716	0	0	0	
0.325167	0.00344204	0.269587	0.000107653	0.0351486	0	0	0	
0.325333	-0.00467534	-0.221929	0.000100266	0.0287302	0	0	0	
0.3255	0.00142533	-0.00757396	9.71848E-05	0.0185272	0	0	0	
0.325667	0.00572303	0.0635356	0.000106109	0.0135178	0	0	0	
0.325833	-0.00120068	-0.220069	0.000125745	0.0180905	0	0	0	
0.326	0.000834754	-0.521058	0.000110581	0.0274602	0	0	0	
0.326167	0.000898134	0.11591	7.537E-05	0.0346512	0	0	0	
0.326333	-0.00173988	-0.153604	4.53032E-05	0.0330967	0	0	0	
0.3265	0.00559927	0.112879	5.31576E-05	0.0248205	0	0	0	
0.326667	-0.00732765	-0.051087	8.02896E-05	0.0154559	0	0	0	
0.326833	0.0138497	0.164807	0.000176338	0.0134831	0	0	0	
0.327	0.00140194	0.0420845	0.000232983	0.0202371	0	0	0	
0.327167	0.00519259	0.150099	0.000228584	0.029536	0	0	0	
0.327333	-0.00519473	-0.130935	0.000154853	0.0336195	0	0	0	
0.3275	-0.000257918	0.177073	0.000109792	0.0284114	0	0	0	
0.327667	-0.000166473	0.0180449	8.37885E-05	0.0187411	0	0	0	
0.327833	0.0157039	-0.0597476	0.000126407	0.013589	0	0	0	
0.328	-0.00720855	0.193746	0.000183677	0.0170135	0	0	0	
0.328167	0.00282364	0.53351	0.000239899	0.0250034	0	0	0	
0.328333	0.0054259	-0.150896	0.000178338	0.031748	0	0	0	
0.3285	-0.00154495	0.111886	0.000161454	0.0309011	0	0	0	
0.328667	-0.00117079	-0.0699212	0.000129579	0.0238201	0	0	0	
0.328833	-0.00497438	-0.0246009	0.000121975	0.0151246	0	0	0	
0.329	0.0136051	-0.289998	0.000145634	0.0130951	0	0	0	
0.329167	0.0063842	0.0419503	0.000205568	0.0203542	0	0	0	
0.329333	-0.00590218	-0.13178	0.000225298	0.0306616	0	0	0	
0.3295	-0.0075835	0.0949343	0.000237871	0.0354978	0	0	0	
0.329667	0.00920502	-0.147596	0.00022857	0.029949	0	0	0	
0.329833	-0.00109177	-0.0580961	0.000219409	0.0192981	0	0	0	
0.33	0.00467056	0.0336254	0.000137903	0.0134811	0	0	0	
0.330167	0.0034669	-0.613757	0.000124648	0.0177548	0	0	0	
0.330333	-0.0012288	-0.190482	0.000143254	0.026378	0	0	0	
0.3305	0.0051465	0.00992446	0.000162847	0.0333962	0	0	0	
0.330667	-0.0056798	-0.0419851	0.000170987	0.0324611	0	0	0	
0.330833	0.000559517	0.0742745	0.0001729	0.0253076	0	0	0	
0.331	-0.000985184	0.0808377	0.000136864	0.0162079	0	0	0	
0.331167	0.00607922	-0.0959277	8.75284E-05	0.0122267	0	0	0	
0.331333	-0.0060625	-0.110346	8.3687E-05	0.0173262	0	0	0	
0.3315	0.0094797	0.019637	0.00015336	0.0269664	0	0	0	
0.331667	-0.0190234	0.0474349	0.00023062	0.0326799	0	0	0	
0.331833	0.0124685	0.0734085	0.000285367	0.0290182	0	0	0	
0.332	0.000253112	0.0563767	0.000268635	0.0196549	0	0	0	
0.332167	-0.0060999	0.0889941	0.000209032	0.0142159	0	0	0	
0.332333	0.00393599	0.321349	0.000141433	0.0174032	0	0	0	
0.3325	-0.00706499	0.0982314	0.000138964	0.0247694	0	0	0	
0.332667	0.00332341	0.0901566	0.000143645	0.0311872	0	0	0	
0.332833	-0.00283786	-0.0587395	0.000183724	0.0317092	0	0	0	
0.333	-0.00528155	-0.0311732	0.000188953	0.0258596	0	0	0	
0.333167	0.00594317	-0.15837	0.00016449	0.0172972	0	0	0	
0.333333	-0.00408888	0.122393	0.000162893	0.0132041	0	0	0	
0.3335	-0.00409349	0.0391677	0.000153126	0.0188639	0	0	0	
0.333667	0.00638646	0.0761053	0.000206989	0.0292658	0	0	0	
0.333833	-0.00959171	-0.182516	0.000217385	0.0348795	0	0	0	
0.334	0.00469852	0.00343653	0.000204677	0.0302733	0	0	0	
0.334167	0.00389832	-0.0782213	0.000169455	0.0202775	0	0	0	
0.334333	-0.0130652	-0.213847	0.000141016	0.0147041	0	0	0	
0.3345	0.0059512	-0.424622	0.000150162	0.01883	0	0	0	
0.334667	-0.00803999	0.184544	0.000177646	0.0265869	0	0	0	
0.334833	0.00749189	-0.115272	0.000192944	0.0322321	0	0	0	
0.335	-0.00410003	0.0903958	0.000197374	0.0315063	0	0	0	
0.335167	-0.00215728	0.023088	0.00015743	0.0249367	0	0	0	
0.335333	0.000133605	0.259074	0.000115138	0.0165768	0	0	0	
0.3355	0.00457956	-0.820206	0.000138157	0.0134536	0	0	0	
0.335667	-0.00996277	0.404428	0.000176738	0.0185275	0	0	0	
0.335833	0.00648696	-0.14977	0.000221698	0.0287349	0	0	0	
0.336	-0.00367705	0.242172	0.000192008	0.0347184	0	0	0	
0.336167	0.00232732	0.0283281	0.000136313	0.03148	0	0	0	
0.336333	0.00220153	0.0404488	8.45502E-05	0.0220152	0	0	0	
0.3365	-0.0128337	0.125765	7.56731E-05	0.0143108	0	0	0	
0.336667	0.0111	0.25585	0.000132159	0.0146972	0	0	0	
0.336833	-0.00521833	-0.160087	0.000165276	0.0201227	0	0	0	
0.337	0.00481774	0.22107	0.000174313	0.0268243	0	0	0	
0.337167	0.000251818	-0.141063	0.00012889	0.0296841	0	0	0	
0.337333	-0.00295546	-0.0103057	9.29244E-05	0.0258002	0	0	0	
0.3375	0.0030077	-0.234773	7.33108E-05	0.0176101	0	0	0	
0.337667	0.00151569	0.546391	0.000122115	0.0133783	0	0	0	
0.337833	-0.00233181	-0.20384	0.000178966	0.0175217	0	0	0	
0.338	0.00300344	0.343308	0.000176017	0.0277109	0	0	0	
0.338167	0.00146882	-0.479175	0.000123525	0.0345411	0	0	0	
0.338333	-0.000889499	0.0450286	6.97315E-05	0.0325453	0	0	0	
0.3385	0.00462628	0.0465505	6.03589E-05	0.0237829	0	0	0	
0.338667	-0.00941843	-0.184944	8.08185E-05	0.0150178	0	0	0	
0.338833	0.00760904	-0.616278	0.000120809	0.011966	0	0	0	
0.339	-0.00420785	0.52729	0.000140859	0.0123251	0	0	0	
0.339167	0.00451217	-0.553656	0.00014595	0.0176112	0	0	0	
0.339333	-0.0022899	0.348519	0.00011248	0.0238986	0	0	0	
0.3395	0.0013501	-0.0476828	9.30953E-05	0.0253918	0	0	0	
0.339667	4.27547E-05	0.125055	5.08583E-05	0.0204114	0	0	0	
0.339833	-5.94809E-05	-0.188957	3.19114E-05	0.0157763	0	0	0	
0.34	-0.00198227	-0.862816	2.61837E-05	0.0187726	0	0	0	
0.340167	0.00519376	0.160872	4.62343E-05	0.0273748	0	0	0	
0.340333	-0.00229141	0.525551	6.16964E-05	0.032032	0	0	0	
0.3405	0.00193283	-0.187353	7.20992E-05	0.0290431	0	0	0	
0.340667	-0.00119267	0.120068	5.80711E-05	0.0205619	0	0	0	
0.340833	-0.000542326	0.0209432	4.31926E-05	0.0142224	0	0	0	
0.341	0.000799304	0.200166	3.02496E-05	0.014887	0	0	0	
0.341167	0.00515407	-0.694057	3.84462E-05	0.0218882	0	0	0	
0.341333	-0.00340322	0.493784	6.54412E-05	0.0302091	0	0	0	
0.3415	0.00581347	-0.243661	8.89427E-05	0.0340758	0	0	0	
0.341667	-0.0033613	0.0232739	9.41997E-05	0.0285397	0	0	0	
0.341833	0.00196165	-0.267086	8.29235E-05	0.0190684	0	0	0	
0.342	8.6633E-05	0.765555	5.58584E-05	0.0142326	0	0	0	
0.342167	0.00421131	-0.577244	5.3878E-05	0.0182804	0	0	0	
0.342333	-0.00101181	0.450604	4.80603E-05	0.0277281	0	0	0	
0.3425	0.00169374	-0.643626	7.004E-05	0.0347381	0	0	0	
0.342667	0.0018786	0.132621	5.30181E-05	0.0326184	0	0	0	
