0	0.00713045	-0.000706811	7.13045E-07	7.06811E-08	0	5	0	
0.000166667	0.00838014	-0.00247296	0.000225198	3.53094E-05	0	5	0	
0.000333333	-0.027333	0.00580861	0.000559472	9.01674E-05	0	5	0	
0.0005	0.0325735	-0.00704589	0.00089372	0.000150418	0	5	0	
0.000666667	-0.0318958	0.00712543	0.000978524	0.000171457	0	5	0	
0.000833333	0.0313166	-0.0065432	0.000953765	0.000167496	0	5	0	
0.001	-0.0266891	0.00367969	0.000897745	0.000146183	0	5	0	
0.00116667	0.00753548	-0.000971091	0.000826128	0.00012362	0	5	0	
0.00133333	0.00567516	-0.000154697	0.000790652	0.000130311	0	5	0	
0.0015	-0.00417545	-0.000832523	0.000915467	0.000173918	0	5	0	
0.00166667	-0.00193456	0.00303077	0.00112276	0.000220275	0	5	0	
0.00183333	-0.00027789	-0.00315	0.00126628	0.00022845	0	5	0	
0.002	0.00324443	0.00127648	0.00127725	0.000200937	0	5	0	
0.00216667	-0.00143569	-0.000821866	0.00128496	0.000180728	0	5	0	
0.00233333	-0.00436786	0.000942133	0.00134784	0.000191425	0	5	0	
0.0025	0.00616766	-0.00266938	0.00139798	0.000218566	0	5	0	
0.00266667	-0.00434651	0.00405652	0.00138347	0.000234276	0	5	0	
0.00283333	0.00488479	-0.00333988	0.00133739	0.000223804	0	5	0	
0.003	-0.00386155	0.00173589	0.00130618	0.000199771	0	5	0	
0.00316667	0.00105511	-0.0013541	0.00129319	0.00018184	0	5	0	
0.00333333	-0.00178548	0.000481274	0.00130637	0.00018276	0	5	0	
0.0035	0.00776523	-0.00212693	0.00134131	0.000205302	0	5	0	
0.00366667	-0.0091382	0.00437999	0.00134861	0.000236052	0	5	0	
0.00383333	0.00409926	-0.00424165	0.00129564	0.000249413	0	5	0	
0.004	-0.00513281	0.00301698	0.00124368	0.000236233	0	5	0	
0.00416667	0.00979067	-0.0030944	0.00125332	0.00021835	0	5	0	
0.00433333	-0.00851701	0.00387498	0.001271	0.000218625	0	5	0	
0.0045	0.00382922	-0.00397966	0.00124664	0.00022816	0	5	0	
0.00466667	-0.00723144	0.00317463	0.00123982	0.00022772	0	5	0	
0.00483333	0.0125182	-0.00193287	0.00128264	0.000218287	0	5	0	
0.005	-0.0100823	0.00157447	0.00129373	0.000211113	0	5	0	
0.00516667	0.00153576	0.000213867	0.00125149	0.000208169	0	5	0	
0.00533333	-0.00575103	0.000115834	0.00127085	0.000210495	0	5	0	
0.0055	0.0133451	-0.00151219	0.00136698	0.000225831	0	5	0	
0.00566667	-0.00967148	0.00371811	0.0013943	0.000242856	0	5	0	
0.00583333	0.00400109	-0.0045085	0.00131748	0.0002428	0	5	0	
0.006	-0.0105731	0.00283757	0.00127936	0.000219508	0	5	0	
0.00616667	0.0108373	-5.6784E-05	0.00129802	0.000189168	0	5	0	
0.00633333	-0.00199857	-9.88682E-05	0.00127082	0.000176806	0	5	0	
0.0065	0.00057619	-0.0017174	0.00123326	0.000193392	0	5	0	
0.00666667	-0.00937201	0.00444247	0.0012784	0.00022225	0	5	0	
0.00683333	0.00895344	-0.00573543	0.00134088	0.000234049	0	5	0	
0.007	-0.00539308	0.00301591	0.00133306	0.000218141	0	5	0	
0.00716667	0.007212	-0.00153484	0.00131173	0.000192562	0	5	0	
0.00733333	-0.00940371	0.00192561	0.00133187	0.000185372	0	5	0	
0.0075	0.00585172	-0.00297824	0.0013421	0.000195548	0	5	0	
0.00766667	-0.0068923	0.00320541	0.00131992	0.000210003	0	5	0	
0.00783333	0.00829626	-0.00460772	0.00130689	0.000214992	0	5	0	
0.008	-0.00499603	0.00407254	0.00129961	0.000216437	0	5	0	
0.00816667	0.00260856	-0.00333924	0.00129228	0.000213548	0	5	0	
0.00833333	-0.00718748	0.00116012	0.00131727	0.000210241	0	5	0	
0.0085	0.0097599	-0.0026096	0.00135821	0.000216176	0	5	0	
0.00866667	-0.00814922	0.00478888	0.00135088	0.00023441	0	5	0	
0.00883333	0.00377863	-0.00522683	0.00129938	0.000238594	0	5	0	
0.009	-0.00407942	0.00220544	0.00128359	0.000214527	0	5	0	
0.00916667	0.00782157	-0.00172604	0.00132362	0.000187623	0	5	0	
0.00933333	-0.00767383	0.00142738	0.00134936	0.000190079	0	5	0	
0.0095	0.00619173	-0.0028032	0.00133475	0.00020637	0	5	0	
0.00966667	-0.00906448	0.00244341	0.00132304	0.00021693	0	5	0	
0.00983333	0.00789644	-0.00476165	0.00131103	0.000212313	0	5	0	
0.01	-0.00150813	0.00432921	0.0012679	0.000200979	0	5	0	
0.0101667	0.000997047	-0.00190616	0.00123507	0.000180837	0	5	0	
0.0103333	-0.0070694	-0.00048393	0.00126741	0.000171133	0	5	0	
0.0105	0.00803333	-0.00152082	0.00133501	0.000199327	0	5	0	
0.0106667	-0.00963905	0.00516649	0.00136636	0.000251699	0	5	0	
0.0108333	0.0100606	-0.00811371	0.00134551	0.000280761	0	5	0	
0.011	-0.00826228	0.00594647	0.0013045	0.000258053	0	5	0	
0.0111667	0.00793558	-0.00268981	0.0012791	0.000206275	0	5	0	
0.0113333	-0.0110587	-9.42019E-05	0.00128775	0.000173441	0	5	0	
0.0115	0.00732218	-0.0014667	0.00131547	0.000182157	0	5	0	
0.0116667	-0.00701474	0.0037722	0.00133257	0.000211865	0	5	0	
0.0118333	0.00782914	-0.00499177	0.00134327	0.000233467	0	5	0	
0.012	-0.00905122	0.00565667	0.0013433	0.00023092	0	5	0	
0.0121667	0.00557052	-0.00416483	0.00132877	0.000220727	0	5	0	
0.0123333	-0.00677709	0.00211264	0.00131575	0.000209119	0	5	0	
0.0125	0.00759015	-0.00271347	0.0013267	0.000210025	0	5	0	
0.0126667	-0.00833296	0.00346466	0.0013356	0.000224543	0	5	0	
0.0128333	0.00706024	-0.00464644	0.00132465	0.000242238	0	5	0	
0.013	-0.00798249	0.00457846	0.00131319	0.000240304	0	5	0	
0.0131667	0.00668387	-0.00189089	0.00132256	0.000219657	0	5	0	
0.0133333	-0.0083665	0.0013826	0.0013359	0.000200336	0	5	0	
0.0135	0.00764867	-0.00108895	0.00134115	0.000204721	0	5	0	
0.0136667	-0.00960287	0.00254582	0.00133966	0.000226016	0	5	0	
0.0138333	0.00948862	-0.00545864	0.00132931	0.000247254	0	5	0	
0.014	-0.00640682	0.00551132	0.00129899	0.000246351	0	5	0	
0.0141667	0.00261543	-0.00376297	0.00127234	0.000219115	0	5	0	
0.0143333	-0.00561828	0.00111297	0.00127994	0.000186578	0	5	0	
0.0145	0.0069025	-0.000855193	0.00130296	0.000184197	0	5	0	
0.0146667	-0.00857151	0.00328133	0.00130562	0.000219344	0	5	0	
0.0148333	0.0100286	-0.00612039	0.00130349	0.00025689	0	5	0	
0.015	-0.0130889	0.00641049	0.00131877	0.000262845	0	5	0	
0.0151667	0.00963926	-0.00585644	0.00131836	0.000236344	0	5	0	
0.0153333	-0.00515802	0.00313117	0.00127972	0.000207336	0	5	0	
0.0155	0.00846619	-0.00119421	0.00127146	0.00018683	0	5	0	
0.0156667	-0.0170249	0.000566872	0.00132105	0.000193346	0	5	0	
0.0158333	0.0133302	-0.00331446	0.00134945	0.000226251	0	5	0	
0.016	-0.00774125	0.00629058	0.00129565	0.000268955	0	5	0	
0.0161667	0.00784085	-0.00695466	0.00124644	0.000285495	0	5	0	
0.0163333	-0.0109811	0.00436134	0.00126093	0.000263184	0	5	0	
0.0165	0.00933442	-0.00176332	0.00129154	0.000217626	0	5	0	
0.0166667	-0.00764977	0.000400974	0.00129311	0.00018776	0	5	0	
0.0168333	0.010068	-0.00199149	0.00131334	0.000193482	0	5	0	
0.017	-0.0157194	0.00410811	0.00135641	0.000226616	0	5	0	
0.0171667	0.0122874	-0.00537981	0.00135346	0.000254145	0	5	0	
0.0173333	-0.00777122	0.00546571	0.00130095	0.000252777	0	5	0	
0.0175	0.0107684	-0.00374755	0.00130176	0.000224592	0	5	0	
0.0176667	-0.0166985	0.00192811	0.00136401	0.000192944	0	5	0	
0.0178333	0.0125463	-0.00290403	0.00139078	0.00019547	0	5	0	
0.018	-0.00600845	0.005541	0.00134509	0.000235043	0	5	0	
0.0181667	0.00624414	-0.00691279	0.00132471	0.000269794	0	5	0	
0.0183333	-0.0102013	0.00573139	0.00137184	0.000261074	0	5	0	
0.0185	0.00928555	-0.00430428	0.00142148	0.000219123	0	5	0	
0.0186667	-0.00921928	0.00247889	0.00141685	0.00017951	0	5	0	
0.0188333	0.00879085	-6.71204E-05	0.001381	0.000158086	0	5	0	
0.019	-0.00835048	0.000175485	0.00133814	0.000168729	0	5	0	
0.0191667	0.0040577	-0.00427621	0.0012858	0.000206599	0	5	0	
0.0193333	-0.00341356	0.00610805	0.00123878	0.00024008	0	5	0	
0.0195	0.00454624	-0.0039049	0.00125093	0.000237084	0	5	0	
0.0196667	-0.0121994	0.00149488	0.0013191	0.000215793	0	5	0	
0.0198333	0.0125834	-0.00374709	0.00135428	0.000224656	0	5	0	
0.02	-0.0071276	0.00678621	0.00130426	0.00025935	0	5	0	
0.0201667	0.00777552	-0.00813354	0.00127702	0.000278491	0	5	0	
0.0203333	-0.0197998	0.00490991	0.00133726	0.0002585	0	5	0	
0.0205	0.0143394	-0.00243563	0.00136948	0.000218612	0	5	0	
0.0206667	-0.00468119	0.00178665	0.00129703	0.000197737	0	5	0	
0.0208333	0.0101996	-0.00270364	0.00126789	0.000193359	0	5	0	
0.021	-0.018102	0.00262607	0.00132605	0.000200432	0	5	0	
0.0211667	0.00846682	-0.00332023	0.00134918	0.000209161	0	5	0	
0.0213333	-0.00521787	0.0037564	0.00129566	0.000222413	0	5	0	
0.0215	0.0138116	-0.00391866	0.00130602	0.000226291	0	5	0	
0.0216667	-0.0185098	0.00146924	0.00137244	0.000216531	0	5	0	
0.0218333	0.0125719	-0.00212212	0.00137624	0.000207684	0	5	0	
0.022	-0.00978732	0.00417787	0.00130478	0.000226343	0	5	0	
0.0221667	0.00897906	-0.00597059	0.00127232	0.000253864	0	5	0	
0.0223333	-0.010565	0.00463765	0.00128761	0.000256216	0	5	0	
0.0225	0.00998265	-0.00184444	0.00130199	0.000219215	0	5	0	
0.0226667	-0.0115913	0.00138174	0.00129817	0.000187723	0	5	0	
0.0228333	0.0107233	-0.00481178	0.00130327	0.000192103	0	5	0	
0.023	-0.0106829	0.00488762	0.00130961	0.000217283	0	5	0	
0.0231667	0.00979063	-0.00271906	0.0013044	0.000219843	0	5	0	
0.0233333	-0.0140827	0.0023653	0.00129193	0.000207386	0	5	0	
0.0235	0.0147209	-0.00438818	0.00128099	0.000204002	0	5	0	
0.0236667	-0.0118793	0.00420836	0.00125708	0.000207148	0	5	0	
0.0238333	0.0101055	-0.00227116	0.00124844	0.000199701	0	5	0	
0.024	-0.0161933	0.00164788	0.00128551	0.000198732	0	5	0	
0.0241667	0.0174669	-0.00454803	0.00134277	0.000218985	0	5	0	
0.0243333	-0.017138	0.00525431	0.00136565	0.000237827	0	5	0	
0.0245	0.0166284	-0.00509184	0.00135995	0.00023139	0	5	0	
0.0246667	-0.015589	0.00465152	0.00135177	0.000212181	0	5	0	
0.0248333	0.0130336	-0.00484091	0.00134061	0.000194872	0	5	0	
0.025	-0.01089	0.00185122	0.00131121	0.000174723	0	5	0	
0.0251667	0.00545083	-0.000757551	0.00128565	0.000153968	0	5	0	
0.0253333	-0.00584312	0.00195766	0.00129856	0.000166655	0	5	0	
0.0255	0.0116315	-0.00598883	0.00134876	0.000208739	0	5	0	
0.0256667	-0.0152651	0.00608673	0.00139209	0.000246082	0	5	0	
0.0258333	0.0135314	-0.00486516	0.00139429	0.000236428	0	5	0	
0.026	-0.0143928	0.00226217	0.00136279	0.000201169	0	5	0	
0.0261667	0.0143227	-0.00262755	0.00133367	0.000180798	0	5	0	
0.0263333	-0.0124605	0.00495575	0.00131214	0.000196193	0	5	0	
0.0265	0.012511	-0.0059054	0.00130586	0.000221283	0	5	0	
0.0266667	-0.0129479	0.00509709	0.00132268	0.000229876	0	5	0	
0.0268333	0.0116362	-0.00438998	0.00134537	0.000220288	0	5	0	
0.027	-0.0111773	0.00372393	0.00134699	0.000206748	0	5	0	
0.0271667	0.00985601	-0.00258269	0.00132703	0.000197651	0	5	0	
0.0273333	-0.00860198	0.00289562	0.00130351	0.000197787	0	5	0	
0.0275	0.00918342	-0.00377498	0.00130417	0.000215862	0	5	0	
0.0276667	-0.0126411	0.00609782	0.00132933	0.00024046	0	5	0	
0.0278333	0.0144739	-0.00595674	0.00133824	0.000248702	0	5	0	
0.028	-0.0122382	0.00342703	0.00131142	0.000218826	0	5	0	
0.0281667	0.0124874	-0.00131154	0.00129946	0.000178128	0	5	0	
0.0283333	-0.0179488	0.00227934	0.00133086	0.000170458	0	5	0	
0.0285	0.0145668	-0.00493561	0.00134584	0.000205649	0	5	0	
0.0286667	-0.0100912	0.00642613	0.00130958	0.000241138	0	5	0	
0.0288333	0.0120048	-0.00498669	0.00129877	0.000242308	0	5	0	
0.029	-0.0163053	0.00459713	0.00134021	0.000219459	0	5	0	
0.0291667	0.0118216	-0.00423823	0.00136725	0.00021122	0	5	0	
0.0293333	-0.00894445	0.00474018	0.00134709	0.000211943	0	5	0	
0.0295	0.0131867	-0.00321516	0.00134679	0.000211514	0	5	0	
0.0296667	-0.0151922	0.00361025	0.00137101	0.000204789	0	5	0	
0.0298333	0.011357	-0.00391975	0.0013606	0.000213383	0	5	0	
0.03	-0.0129557	0.00512372	0.00132146	0.000226814	0	5	0	
0.0301667	0.0150659	-0.00350763	0.0013191	0.000231046	0	5	0	
0.0303333	-0.0161081	0.00411678	0.00134076	0.000213714	0	5	0	
0.0305	0.0108094	-0.00436482	0.00131722	0.000203611	0	5	0	
0.0306667	-0.000784973	0.00600005	0.00123785	0.000207611	0	5	0	
0.0308333	0.00131426	-0.00559848	0.00126749	0.000223004	0	5	0	
0.031	-0.0319125	0.0039672	0.00152505	0.00021971	0	5	0	
0.0311667	0.052548	-0.00249844	0.00176398	0.000208873	0	5	0	
0.0313333	-0.0223785	0.00351273	0.00162874	0.000211751	0	5	0	
0.0315	-0.012192	-0.00631053	0.001172	0.000239804	0	5	0	
0.0316667	-0.00672888	0.00703103	0.00102562	0.000265026	0	5	0	
0.0318333	0.0190274	-0.00665555	0.00113491	0.000262784	0	5	0	
0.032	0.00897831	0.00475165	0.00116806	0.000234611	0	5	0	
0.0321667	-0.00900053	-0.0022866	0.00114578	0.000192961	0	5	0	
0.0323333	-0.0385268	-0.00149447	0.00145838	0.000161089	0	5	0	
0.0325	0.0477559	0.000561825	0.00177979	0.000180571	0	5	0	
0.0326667	-0.010398	0.00561586	0.00161024	0.000258224	0	5	0	
0.0328333	-0.00287484	-0.0103928	0.00115488	0.000331216	0	5	0	
0.033	-0.0207225	0.00872162	0.00113743	0.000336426	0	5	0	
0.0331667	0.0296089	-0.00600205	0.00138438	0.000274238	0	5	0	
0.0333333	-0.0185672	0.00398091	0.00149795	0.000207385	0	5	0	
0.0335	0.00836804	-0.00106265	0.00133142	0.000163313	0	5	0	
0.0336667	-0.010137	0.000490358	0.00122202	0.000163578	0	5	0	
0.0338333	0.0142098	-0.00461983	0.00125082	0.000210967	0	5	0	
0.034	-0.0142371	0.00790888	0.00128389	0.000263179	0	5	0	
0.0341667	0.00809755	-0.00544725	0.00125414	0.000263846	0	5	0	
0.0343333	-0.01287	0.00112114	0.00124936	0.000204285	0	5	0	
0.0345	0.0205043	-7.62525E-05	0.00130551	0.000164737	0	5	0	
0.0346667	-0.0168049	0.0035724	0.00132821	0.000195469	0	5	0	
0.0348333	0.0101524	-0.00781	0.0012829	0.000259895	0	5	0	
0.035	-0.0143619	0.00798122	0.00125763	0.000292924	0	5	0	
0.0351667	0.014206	-0.00555777	0.00127905	0.000265668	0	5	0	
0.0353333	-0.0102	0.00334152	0.00130527	0.000216384	0	5	0	
0.0355	0.015244	-0.0018172	0.00134999	0.0001814	0	5	0	
0.0356667	-0.0188156	0.00272148	0.00140669	0.000176187	0	5	0	
0.0358333	0.0106737	-0.00352822	0.00139555	0.000191873	0	5	0	
0.036	-0.00936212	0.00431293	0.00132225	0.000213476	0	5	0	
0.0361667	0.0159831	-0.00515313	0.00130363	0.000226981	0	5	0	
0.0363333	-0.0151523	0.00549085	0.00133278	0.000224912	0	5	0	
0.0365	0.00928226	-0.00234219	0.00132348	0.000209314	0	5	0	
0.0366667	-0.0120272	0.00320985	0.00129355	0.000199965	0	5	0	
0.0368333	0.0164323	-0.0045949	0.00130211	0.000215287	0	5	0	
0.037	-0.014242	0.00725166	0.00130783	0.000236118	0	5	0	
0.0371667	0.0100614	-0.00457075	0.00128777	0.000240577	0	5	0	
0.0373333	-0.0146702	0.00323117	0.00130499	0.000222035	0	5	0	
0.0375	0.0194224	-0.00349112	0.00135446	0.000220509	0	5	0	
0.0376667	-0.0167211	0.00652162	0.00135004	0.00023177	0	5	0	
0.0378333	0.0106473	-0.00412364	0.00130377	0.000231447	0	5	0	
0.038	-0.0155665	0.00189789	0.00132369	0.000201596	0	5	0	
0.0381667	0.0203407	-0.00169226	0.00139908	0.000190742	0	5	0	
0.0383333	-0.0167406	0.00475371	0.00140497	0.000211058	0	5	0	
0.0385	0.010861	-0.00566398	0.00133153	0.000236547	0	5	0	
0.0386667	-0.0125347	0.00542151	0.00128681	0.000237377	0	5	0	
0.0388333	0.0112916	-0.00462102	0.00130225	0.000227058	0	5	0	
0.039	-0.00913325	0.00467921	0.00132863	0.000213885	0	5	0	
0.0391667	0.0119954	-0.00347507	0.00135113	0.000199962	0	5	0	
0.0393333	-0.0150614	0.00330787	0.00136903	0.000196758	0	5	0	
0.0395	0.0135621	-0.00618853	0.00137158	0.000221509	0	5	0	
0.0396667	-0.01731	0.00746769	0.00135405	0.000249056	0	5	0	
0.0398333	0.0172682	-0.00485977	0.00132708	0.000245052	0	5	0	
0.04	-0.0106392	0.00290245	0.00129153	0.000208361	0	5	0	
0.0401667	0.0115305	-0.00235979	0.00128565	0.000190359	0	5	0	
0.0403333	-0.0200922	0.00494718	0.00133523	0.000210401	0	5	0	
0.0405	0.01913	-0.00711739	0.00137856	0.000244935	0	5	0	
0.0406667	-0.0138459	0.00634516	0.00134974	0.000252527	0	5	0	
0.0408333	0.0128594	-0.00456822	0.00130596	0.00023218	0	5	0	
0.041	-0.014098	0.00430265	0.00130956	0.000206934	0	5	0	
0.0411667	0.0114697	-0.00273136	0.00132811	0.000192332	0	5	0	
0.0413333	-0.0119392	0.00327113	0.00133526	0.000192373	0	5	0	
0.0415	0.0143422	-0.0051715	0.00135947	0.000213573	0	5	0	
0.0416667	-0.0170961	0.00644524	0.00139116	0.000237458	0	5	0	
0.0418333	0.016827	-0.00485358	0.00139026	0.000243676	0	5	0	
0.042	-0.0163685	0.0039019	0.00135707	0.000220908	0	5	0	
0.0421667	0.0154639	-0.00269315	0.00133193	0.000198538	0	5	0	
0.0423333	-0.0145371	0.00364869	0.00132212	0.000195205	0	5	0	
0.0425	0.0113336	-0.00475729	0.00131591	0.000215205	0	5	0	
0.0426667	-0.0130094	0.00568778	0.00132405	0.00023597	0	5	0	
0.0428333	0.0155181	-0.00538144	0.00135498	0.000244729	0	5	0	
0.043	-0.016624	0.00509194	0.00137857	0.000233242	0	5	0	
0.0431667	0.013656	-0.00383664	0.00137802	0.000216961	0	5	0	
0.0433333	-0.0145364	0.004327	0.00135882	0.000208174	0	5	0	
0.0435	0.0136986	-0.00393139	0.00133904	0.000216962	0	5	0	
0.0436667	-0.0133165	0.00438867	0.00132173	0.000226777	0	5	0	
0.0438333	0.0145247	-0.00535407	0.00132575	0.000232262	0	5	0	
0.044	-0.0180046	0.0045733	0.00134843	0.000223394	0	5	0	
0.0441667	0.0138601	-0.00291173	0.00135955	0.000202963	0	5	0	
0.0443333	-0.0131369	0.00116071	0.00134155	0.000183968	0	5	0	
0.0445	0.0157439	-0.00130996	0.00133271	0.000189595	0	5	0	
0.0446667	-0.0169615	0.0036904	0.00132774	0.000221288	0	5	0	
0.0448333	0.0107924	-0.00582868	0.0013045	0.000254487	0	5	0	
0.045	-0.0111538	0.00641056	0.00128927	0.000263551	0	5	0	
0.0451667	0.0150323	-0.00618359	0.00133072	0.000243897	0	5	0	
0.0453333	-0.0174376	0.00359106	0.00137203	0.000210498	0	5	0	
0.0455	0.0127008	-0.00188026	0.00135674	0.000180199	0	5	0	
0.0456667	-0.0140874	0.00123302	0.00132755	0.00017621	0	5	0	
0.0458333	0.0182214	-0.00322206	0.00135201	0.000194651	0	5	0	
0.046	-0.0202962	0.00453322	0.00136771	0.00021838	0	5	0	
0.0461667	0.0126395	-0.00487495	0.00132222	0.000227751	0	5	0	
0.0463333	-0.0116656	0.00490394	0.00126468	0.000223081	0	5	0	
0.0465	0.0128561	-0.00414203	0.00127773	0.000214077	0	5	0	
0.0466667	-0.0134253	0.00403683	0.00130393	0.000205595	0	5	0	
0.0468333	0.00814348	-0.00479201	0.00128375	0.000201558	0	5	0	
0.047	-0.00889481	0.00346589	0.00125271	0.000195451	0	5	0	
0.0471667	0.0152486	-0.00223042	0.00128868	0.000191586	0	5	0	
0.0473333	-0.0222264	0.00371843	0.00133698	0.000206681	0	5	0	
0.0475	0.0185651	-0.00601059	0.00130142	0.000236775	0	5	0	
0.0476667	-0.0129656	0.00661309	0.00119435	0.000254626	0	5	0	
0.0478333	0.0133449	-0.00468602	0.00115214	0.000244282	0	5	0	
0.048	-0.0191927	0.00519246	0.00120382	0.00021857	0	5	0	
0.0481667	0.0200744	-0.00331581	0.00126568	0.000198335	0	5	0	
0.0483333	-0.0185325	0.00133095	0.00128845	0.000182066	0	5	0	
0.0485	0.0223245	-0.00243054	0.00132921	0.000198415	0	5	0	
0.0486667	-0.0242951	0.00620711	0.00138863	0.000244701	0	5	0	
0.0488333	0.0168262	-0.00649312	0.00138183	0.000282589	0	5	0	
0.049	-0.0111317	0.00497533	0.00132164	0.000264962	0	5	0	
0.0491667	0.0149015	-0.00253601	0.00131759	0.000216796	0	5	0	
0.0493333	-0.0169109	0.00332539	0.00135214	0.000188712	0	5	0	
0.0495	0.010278	-0.00382294	0.00134572	0.000201877	0	5	0	
0.0496667	-0.0120919	0.00324295	0.00131974	0.00022747	0	5	0	
0.0498333	0.0181418	-0.00352432	0.00132872	0.000242087	0	5	0	
0.05	-0.0116179	0.00391065	0.00131631	0.000241203	0	5	0	
0.0501667	0.00658305	-0.00427576	0.00126716	0.00023393	0	5	0	
0.0503333	-0.0165924	0.00457045	0.00127959	0.000225845	0	5	0	
0.0505	0.0196685	-0.0039067	0.00135295	0.000218047	0	5	0	
0.0506667	-0.0119235	0.00353023	0.00136829	0.000213828	0	5	0	
0.0508333	0.00983562	-0.00409574	0.00132201	0.000216416	0	5	0	
0.051	-0.0136553	0.0039026	0.00131987	0.000217848	0	5	0	
0.0511667	0.014905	-0.00238915	0.00135265	0.000210767	0	5	0	
0.0513333	-0.0127823	0.00262296	0.00135023	0.000204055	0	5	0	
0.0515	0.0124415	-0.00389516	0.00131728	0.000210142	0	5	0	
0.0516667	-0.013883	0.00601377	0.00129846	0.000221333	0	5	0	
0.0518333	0.0120856	-0.00488275	0.00128928	0.00022272	0	5	0	
0.052	-0.0117712	0.00219644	0.00128115	0.000203307	0	5	0	
0.0521667	0.0130496	-0.00168282	0.0012918	0.00019244	0	5	0	
0.0523333	-0.0145645	0.00397229	0.00130755	0.000204957	0	5	0	
0.0525	0.0116043	-0.00517194	0.00130391	0.000223496	0	5	0	
0.0526667	-0.0129897	0.00410627	0.00129782	0.000222993	0	5	0	
0.0528333	0.0155829	-0.00447397	0.00131764	0.000212324	0	5	0	
0.053	-0.0159762	0.00527016	0.00133434	0.000218607	0	5	0	
0.0531667	0.0128422	-0.00516881	0.00133172	0.000224409	0	5	0	
0.0533333	-0.0160634	0.00284802	0.00132922	0.00020973	0	5	0	
0.0535	0.0158366	-0.0017121	0.00134093	0.000187681	0	5	0	
0.0536667	-0.0139319	0.00401514	0.00134145	0.000196051	0	5	0	
0.0538333	0.0173141	-0.0057831	0.00133552	0.000224725	0	5	0	
0.054	-0.0169155	0.00599257	0.00132671	0.000237435	0	5	0	
0.0541667	0.00989885	-0.00461594	0.00130829	0.000218654	0	5	0	
0.0543333	-0.0098594	0.00292959	0.00130939	0.000187719	0	5	0	
0.0545	0.0172697	-0.00240586	0.00137114	0.000171841	0	5	0	
0.0546667	-0.0192955	0.00361161	0.0014368	0.00017738	0	5	0	
0.0548333	0.0152423	-0.00313662	0.00140554	0.000200488	0	5	0	
0.055	-0.00939351	0.00562716	0.0013062	0.000223204	0	5	0	
0.0551667	0.00999076	-0.00637998	0.00126792	0.000235098	0	5	0	
0.0553333	-0.0136575	0.00458641	0.00131295	0.000218735	0	5	0	
0.0555	0.0116493	-0.00275781	0.00134872	0.00018754	0	5	0	
0.0556667	-0.00922924	0.00190664	0.00134018	0.000173923	0	5	0	
0.0558333	0.0132361	-0.00369353	0.0013486	0.00020434	0	5	0	
0.056	-0.0189938	0.00645083	0.0013867	0.000252057	0	5	0	
0.0561667	0.0164452	-0.00747075	0.00138233	0.000269288	0	5	0	
0.0563333	-0.0098922	0.00645345	0.00130434	0.000242454	0	5	0	
0.0565	0.0087865	-0.00435256	0.00124938	0.000201149	0	5	0	
0.0566667	-0.0146614	0.00194877	0.00129184	0.000175331	0	5	0	
0.0568333	0.0167543	-0.00115351	0.00137448	0.000181187	0	5	0	
0.057	-0.0138701	0.0031163	0.00139305	0.000209025	0	5	0	
0.0571667	0.0101754	-0.00530553	0.00135317	0.000234845	0	5	0	
0.0573333	-0.0115557	0.0057169	0.00133886	0.000235789	0	5	0	
0.0575	0.0143854	-0.00445679	0.00136846	0.000215004	0	5	0	
0.0576667	-0.012597	0.00224857	0.00138036	0.00019278	0	5	0	
0.0578333	0.00832288	-0.00200422	0.00135299	0.000189301	0	5	0	
0.058	-0.00944578	0.00301858	0.00133051	0.000205953	0	5	0	
0.0581667	0.0103504	-0.00444406	0.0013263	0.000229343	0	5	0	
0.0583333	-0.0108293	0.005222	0.00131574	0.000239258	0	5	0	
0.0585	0.0122311	-0.00515896	0.00130989	0.000227463	0	5	0	
0.0586667	-0.0159401	0.00365066	0.00132651	0.000206587	0	5	0	
0.0588333	0.0136872	-0.00309772	0.0013397	0.000194428	0	5	0	
0.059	-0.0119577	0.00306328	0.00131745	0.000198503	0	5	0	
0.0591667	0.0121872	-0.00383374	0.00130461	0.000205582	0	5	0	
0.0593333	-0.0170294	0.00375918	0.00133926	0.000203936	0	5	0	
0.0595	0.0169682	-0.00343527	0.00138352	0.000195039	0	5	0	
0.0596667	-0.0119215	0.00378787	0.00136935	0.000195323	0	5	0	
0.0598333	0.00932581	-0.00380388	0.00133334	0.00020607	0	5	0	
0.06	-0.0156838	0.00481548	0.00134654	0.000215456	0	5	0	
0.0601667	0.0170666	-0.00501214	0.00137772	0.000218234	0	5	0	
0.0603333	-0.0104225	0.00474909	0.00134289	0.000213914	0	5	0	
0.0605	0.00762133	-0.00353352	0.00128726	0.000203758	0	5	0	
0.0606667	-0.0151411	0.0030818	0.00131427	0.000190298	0	5	0	
0.0608333	0.0180883	-0.00291185	0.00137722	0.000192321	0	5	0	
0.061	-0.0125085	0.00591051	0.00137938	0.000220488	0	5	0	
0.0611667	0.0119189	-0.00807988	0.00136545	0.000258747	0	5	0	
0.0613333	-0.0174445	0.0075565	0.00141669	0.000270753	0	5	0	
0.0615	0.0135704	-0.00488524	0.0014596	0.000241235	0	5	0	
0.0616667	-0.00647863	0.00292287	0.00142548	0.000197284	0	5	0	
0.0618333	0.00748811	-0.00219281	0.00139048	0.000182889	0	5	0	
0.062	-0.0100733	0.0040063	0.00139926	0.000205131	0	5	0	
0.0621667	0.00534333	-0.00437224	0.0013892	0.000238278	0	5	0	
0.0623333	-0.00357436	0.00510824	0.00133508	0.000259205	0	5	0	
0.0625	0.00368184	-0.00611307	0.00128794	0.000260785	0	5	0	
0.0626667	-0.00306929	0.00300812	0.00127011	0.00023188	0	5	0	
0.0628333	0.00704771	0.00146589	0.00128166	0.00018202	0	5	0	
0.063	-0.0158088	0.0010948	0.00130315	0.0001772	0	5	0	
0.0631667	0.0135721	-0.00636238	0.00128715	0.000240879	0	5	0	
0.0633333	-0.00705962	0.00937834	0.00123188	0.000305374	0	5	0	
0.0635	0.0132416	-0.00569367	0.00123186	0.000296002	0	5	0	
0.0636667	-0.0186614	0.00209213	0.00128092	0.000222206	0	5	0	
0.0638333	0.00841178	-0.00225999	0.0012774	0.00017575	0	5	0	
0.064	-0.00755589	0.00386225	0.0012445	0.000176908	0	5	0	
0.0641667	0.0170174	-0.002998	0.00129372	0.000199083	0	5	0	
0.0643333	-0.014745	0.00216751	0.00134185	0.000206254	0	5	0	
0.0645	0.00536095	-0.00330731	0.00129454	0.000207419	0	5	0	
0.0646667	-0.0100603	0.00383761	0.00125288	0.000210049	0	5	0	
0.0648333	0.0160884	-0.00299374	0.0013133	0.000207991	0	5	0	
0.065	-0.0141756	0.00303722	0.00137448	0.000203403	0	5	0	
0.0651667	0.0107007	-0.00560571	0.00134579	0.000214512	0	5	0	
0.0653333	-0.0131404	0.00750537	0.00129883	0.000239302	0	5	0	
0.0655	0.01217	-0.00704137	0.00129896	0.000247464	0	5	0	
0.0656667	-0.0118723	0.00402818	0.00131182	0.000224535	0	5	0	
0.0658333	0.0101711	-0.00179798	0.00131797	0.000187602	0	5	0	
0.066	-0.00994604	0.00132037	0.00133204	0.000178376	0	5	0	
0.0661667	0.0126989	-0.00381086	0.00135606	0.000210368	0	5	0	
0.0663333	-0.0147097	0.00646773	0.00135924	0.000260208	0	5	0	
0.0665	0.00854784	-0.00611314	0.00132322	0.000277942	0	5	0	
0.0666667	-0.00544328	0.00280288	0.00128891	0.000248487	0	5	0	
0.0668333	0.008964	-0.00220306	0.00131878	0.000210344	0	5	0	
0.067	-0.0128438	0.00437421	0.0013706	0.000208582	0	5	0	
0.0671667	0.0102829	-0.00577986	0.00136142	0.000232026	0	5	0	
0.0673333	-0.0095086	0.00486663	0.0012934	0.000242862	0	5	0	
0.0675	0.00893971	-0.00358543	0.00125197	0.000227083	0	5	0	
0.0676667	-0.0112147	0.00229273	0.00126185	0.000208858	0	5	0	
0.0678333	0.0118324	-0.00284113	0.00128331	0.000201693	0	5	0	
0.068	-0.00980993	0.00203413	0.00128132	0.000201783	0	5	0	
0.0681667	0.00850402	-0.00206928	0.0012864	0.000210214	0	5	0	
0.0683333	-0.0150549	0.00458049	0.00132585	0.000236402	0	5	0	
0.0685	0.0162109	-0.0070464	0.00136073	0.000265939	0	5	0	
0.0686667	-0.0111088	0.00632265	0.00133655	0.00026707	0	5	0	
0.0688333	0.00752701	-0.00415986	0.00129834	0.000229819	0	5	0	
0.069	-0.0121986	0.00145497	0.00131896	0.000183487	0	5	0	
0.0691667	0.0120215	-0.00137937	0.00136114	0.000167651	0	5	0	
0.0693333	-0.0104782	0.00170418	0.00133771	0.000185813	0	5	0	
0.0695	0.00952205	-0.00290835	0.00127586	0.000218918	0	5	0	
0.0696667	-0.0101175	0.00423021	0.00125456	0.000247533	0	5	0	
0.0698333	0.00910341	-0.00619375	0.00127675	0.000258554	0	5	0	
0.07	-0.0102017	0.00440992	0.00130166	0.000246494	0	5	0	
0.0701667	0.0107923	-0.00229281	0.00132074	0.000211174	0	5	0	
0.0703333	-0.0127688	0.00119083	0.00132925	0.00018403	0	5	0	
0.0705	0.00991793	-0.00289062	0.00132661	0.000187442	0	5	0	
0.0706667	-0.00933871	0.00405407	0.00132685	0.00021709	0	5	0	
0.0708333	0.0120605	-0.00596914	0.00135022	0.000238458	0	5	0	
0.071	-0.0122609	0.00474303	0.00137388	0.000239912	0	5	0	
0.0711667	0.00982789	-0.00377656	0.00136701	0.000220957	0	5	0	
0.0713333	-0.00931276	0.00240831	0.00133724	0.000202847	0	5	0	
0.0715	0.00812301	-0.00231134	0.00130933	0.00019453	0	5	0	
0.0716667	-0.0073368	0.00264945	0.00128905	0.000207526	0	5	0	
0.0718333	0.00665465	-0.00421268	0.00128255	0.000226218	0	5	0	
0.072	-0.00770279	0.00426949	0.00130038	0.000235468	0	5	0	
0.0721667	0.00963067	-0.00340421	0.0013323	0.000226068	0	5	0	
0.0723333	-0.0100996	0.0021932	0.00134232	0.000213622	0	5	0	
0.0725	0.0096413	-0.00308178	0.00132056	0.000215061	0	5	0	
0.0726667	-0.0103622	0.00401821	0.00129863	0.000233047	0	5	0	
0.0728333	0.0105998	-0.00559705	0.00130123	0.000244287	0	5	0	
0.073	-0.0103313	0.00432369	0.00131881	0.000231009	0	5	0	
0.0731667	0.00880195	-0.00207611	0.00133403	0.000199708	0	5	0	
0.0733333	-0.00970037	0.00174956	0.00134321	0.000183292	0	5	0	
0.0735	0.0111154	-0.0030401	0.00135027	0.000194812	0	5	0	
0.0736667	-0.0113193	0.00333336	0.00134356	0.000222563	0	5	0	
0.0738333	0.00689233	-0.00478337	0.00132213	0.000242192	0	5	0	
0.074	-0.00696166	0.00430241	0.0013134	0.000244022	0	5	0	
0.0741667	0.0102227	-0.00384487	0.0013381	0.000226822	0	5	0	
0.0743333	-0.0134672	0.00314803	0.00135787	0.000204177	0	5	0	
0.0745	0.00956683	-0.00245321	0.00132611	0.000193189	0	5	0	
0.0746667	-0.00577646	0.00254458	0.00126965	0.000206992	0	5	0	
0.0748333	0.00502247	-0.00401932	0.00126828	0.000228844	0	5	0	
0.075	-0.00833278	0.00327577	0.00131797	0.000236248	0	5	0	
0.0751667	0.00560977	-0.00181694	0.00134258	0.000223861	0	5	0	
0.0753333	-0.0038773	0.0014311	0.00130949	0.000211087	0	5	0	
0.0755	0.00600729	-0.00104058	0.00128346	0.000211222	0	5	0	
0.0756667	-0.0101015	0.00216568	0.00130274	0.000227547	0	5	0	
0.0758333	0.0088652	-0.00469073	0.00131719	0.000256762	0	5	0	
0.076	-0.00697286	0.00642221	0.00128074	0.000278303	0	5	0	
0.0761667	0.00712019	-0.00588788	0.00123481	0.000265711	0	5	0	
0.0763333	-0.0121129	0.00278445	0.00122822	0.000214766	0	5	0	
0.0765	0.0129183	-0.000475271	0.0012461	0.000165302	0	5	0	
0.0766667	-0.00859668	0.00143625	0.00124032	0.000163538	0	5	0	
0.0768333	0.00424632	-0.0022797	0.0012341	0.000201839	0	5	0	
0.077	-0.0104894	0.00353107	0.00129519	0.00024052	0	5	0	
0.0771667	0.0170039	-0.0047979	0.00139087	0.00025598	0	5	0	
0.0773333	-0.0133734	0.00455344	0.00140631	0.00025249	0	5	0	
0.0775	0.00407177	-0.00378444	0.00133105	0.00023877	0	5	0	
0.0776667	-0.00676696	0.00190737	0.00128874	0.000221662	0	5	0	
0.0778333	0.00630089	-0.000434888	0.00130033	0.00021573	0	5	0	
0.078	-0.000716817	0.00232977	0.00129498	0.000234419	0	5	0	
0.0781667	0.00284306	-0.00524192	0.001295	0.000261871	0	5	0	
0.0783333	-0.0126265	0.00588023	0.00134508	0.000269016	0	5	0	
0.0785	0.00819184	-0.00471022	0.00138737	0.000244284	0	5	0	
0.0786667	-0.00526339	0.00223439	0.00135625	0.000207922	0	5	0	
0.0788333	0.00892138	-0.00099541	0.00131392	0.000191733	0	5	0	
0.079	-0.00909298	0.00283039	0.0012995	0.000203567	0	5	0	
0.0791667	0.00500062	-0.00433122	0.00129407	0.000224266	0	5	0	
0.0793333	-0.0092175	0.00391037	0.00130596	0.000231828	0	5	0	
0.0795	0.00955656	-0.00331243	0.00134245	0.000224961	0	5	0	
0.0796667	-0.00506306	0.00354552	0.00134416	0.000216254	0	5	0	
0.0798333	0.00388382	-0.00291389	0.00131477	0.000215427	0	5	0	
0.08	-0.00931277	0.00279158	0.00132903	0.000221215	0	5	0	
0.0801667	0.0103021	-0.00409086	0.00137702	0.000239596	0	5	0	
0.0803333	-0.00523882	0.00648289	0.00136442	0.000257262	0	5	0	
0.0805	-0.000727073	-0.00544109	0.00129853	0.000252593	0	5	0	
0.0806667	-0.00268606	0.00168708	0.00130001	0.000218503	0	5	0	
0.0808333	0.0102203	-0.000481474	0.00138259	0.000197425	0	5	0	
0.081	-0.00904741	0.00311415	0.00141811	0.000221077	0	5	0	
0.0811667	0.00120225	-0.00450812	0.00135155	0.000259833	0	5	0	
0.0813333	-0.002411	0.00540767	0.00128884	0.000267885	0	5	0	
0.0815	0.00708713	-0.00460746	0.00129612	0.000243755	0	5	0	
0.0816667	-0.00446691	0.00377918	0.00131467	0.000215878	0	5	0	
0.0818333	0.000805642	-0.000912234	0.00130014	0.000192746	0	5	0	
0.082	-0.00361525	-0.00030014	0.00129891	0.000177921	0	5	0	
0.0821667	0.0068616	0.000400434	0.00133992	0.000195717	0	5	0	
0.0823333	-0.0118215	0.00361917	0.00137824	0.000244661	0	5	0	
0.0825	0.0122824	-0.005782	0.00136225	0.000283979	0	5	0	
0.0826667	-0.00569274	0.00631224	0.00129895	0.000276666	0	5	0	
0.0828333	0.000482107	-0.00394378	0.00125008	0.000233092	0	5	0	
0.083	-0.00300332	0.00295191	0.00128252	0.000181224	0	5	0	
0.0831667	0.00626643	0.000266736	0.00137626	0.000143616	0	5	0	
0.0833333	-0.00852929	-0.00139376	0.00143851	0.000136387	0	5	0	
0.0835	0.00591362	-0.000439652	0.00142584	0.000175507	0	5	0	
0.0836667	-0.00324728	0.00520641	0.00139344	0.00023779	0	5	0	
0.0838333	0.00501903	-0.0065618	0.0013885	0.000281175	0	5	0	
0.084	-0.00415515	0.00728716	0.00137908	0.000273651	0	5	0	
0.0841667	-0.000884964	-0.00502835	0.00133283	0.000235233	0	5	0	
0.0843333	0.00120116	0.00187637	0.00130002	0.000187827	0	5	0	
0.0845	0.00347013	0.000550009	0.0013312	0.000165125	0	5	0	
0.0846667	-0.00650849	0.000879474	0.00136813	0.000177724	0	5	0	
0.0848333	0.00473861	-0.00221539	0.00133473	0.000221227	0	5	0	
0.085	-0.00335263	0.00439139	0.00126821	0.000255624	0	5	0	
0.0851667	0.00338443	-0.00401311	0.00124953	0.000250763	0	5	0	
0.0853333	-0.00312915	0.00317792	0.00127821	0.000213746	0	5	0	
0.0855	0.00439958	-0.00168239	0.00131446	0.000183975	0	5	0	
0.0856667	-0.00899498	0.00220187	0.00134415	0.000184247	0	5	0	
0.0858333	0.0088257	-0.00211567	0.0013524	0.000208567	0	5	0	
0.086	-0.00525627	0.00293072	0.00132202	0.000225558	0	5	0	
0.0861667	0.0015357	-0.00214337	0.00128843	0.000220879	0	5	0	
0.0863333	-0.00409988	0.00221779	0.00129729	0.000203693	0	5	0	
0.0865	0.00606031	-0.00174193	0.00132591	0.000199388	0	5	0	
0.0866667	-0.00429076	0.00233971	0.00132072	0.000214611	0	5	0	
0.0868333	0.00133899	-0.0040666	0.00129394	0.000239444	0	5	0	
0.087	-0.00513389	0.00502529	0.00130625	0.000252468	0	5	0	
0.0871667	0.00866192	-0.00292155	0.00135065	0.000240445	0	5	0	
0.0873333	-0.00628765	0.00199423	0.00134509	0.000208695	0	5	0	
0.0875	0.000200129	-0.000371608	0.00127322	0.000185232	0	5	0	
0.0876667	-0.00288738	0.00106461	0.00124661	0.000187308	0	5	0	
0.0878333	0.00851939	-0.00172785	0.00131758	0.000212333	0	5	0	
0.088	-0.00961333	0.002265	0.00137271	0.000236313	0	5	0	
0.0881667	0.00121858	-0.00291695	0.00132135	0.000245387	0	5	0	
0.0883333	0.000494264	0.00398551	0.00125612	0.000234623	0	5	0	
0.0885	0.00718836	-0.0026903	0.00127807	0.000212541	0	5	0	
0.0886667	-0.00632918	0.00186793	0.00130939	0.000196867	0	5	0	
0.0888333	-0.00244164	-0.00132406	0.00126501	0.000202528	0	5	0	
0.089	0.00200677	0.00136548	0.00122956	0.000209924	0	5	0	
0.0891667	0.00573959	-0.000714681	0.00129088	0.000202621	0	5	0	
0.0893333	-0.00849386	0.000613069	0.00135539	0.000188982	0	5	0	
0.0895	0.00447742	-0.00125974	0.00131606	0.000190379	0	5	0	
0.0896667	-0.00182181	0.000109742	0.00123361	0.000209692	0	5	0	
0.0898333	0.00480469	-0.00105742	0.00123048	0.00023959	0	5	0	
0.09	-0.00934468	0.00466816	0.00129224	0.000268528	0	5	0	
0.0901667	0.00749255	-0.00637631	0.00129966	0.000274808	0	5	0	
0.0903333	0.00187927	0.00433907	0.00122767	0.000246314	0	5	0	
0.0905	0.000406827	-0.00295735	0.00125594	0.000200938	0	5	0	
0.0906667	-0.0224368	0.00276737	0.00146483	0.000174773	0	5	0	
0.0908333	0.0255105	-0.00172005	0.00158667	0.00016743	0	5	0	
0.091	0.00155324	0.000190603	0.00139939	0.000167992	0	5	0	
0.0911667	-0.00641592	0.000946974	0.00118634	0.00017541	0	5	0	
0.0913333	-0.0213843	-0.000555922	0.00128348	0.000196586	0	5	0	
0.0915	0.0180761	0.000226244	0.00143621	0.000226586	0	5	0	
0.0916667	0.00347428	0.00111348	0.00136426	0.000251648	0	5	0	
0.0918333	0.00745101	-0.00143195	0.00128432	0.00026994	0	5	0	
0.092	-0.0254806	0.0047458	0.00140854	0.000285363	0	5	0	
0.0921667	0.0122251	-0.00636742	0.00150315	0.00029175	0	5	0	
0.0923333	0.00146174	0.00630453	0.0013897	0.000268809	0	5	0	
0.0925	0.00460294	-0.00182851	0.00136274	0.000213224	0	5	0	
0.0926667	-0.0159213	-0.00171556	0.00153157	0.000146905	0	5	0	
0.0928333	0.0128828	0.0026774	0.00166932	0.000128375	0	5	0	
0.093	-0.00522554	0.00049598	0.00159952	0.000164641	0	5	0	
0.0931667	-0.00019495	-0.00219896	0.00147085	0.000227252	0	5	0	
0.0933333	0.00193943	0.00426398	0.00141246	0.000261062	0	5	0	
0.0935	-0.00312185	-0.00433646	0.00141391	0.000262864	0	5	0	
0.0936667	0.00072062	0.00408823	0.00144095	0.000240555	0	5	0	
0.0938333	0.0052251	-0.00127094	0.00147247	0.000206237	0	5	0	
0.094	-0.00726401	-0.00196113	0.00145662	0.000178472	0	5	0	
0.0941667	0.00269529	0.000471577	0.00137482	0.000197179	0	5	0	
0.0943333	-0.000991559	0.00406875	0.00129609	0.000256535	0	5	0	
0.0945	-0.000193964	-0.00589825	0.00127924	0.000292941	0	5	0	
0.0946667	0.00242382	0.00342083	0.00130557	0.000262582	0	5	0	
0.0948333	0.000489551	-0.00120917	0.00134568	0.000200959	0	5	0	
0.095	-0.00364618	0.00187684	0.00137074	0.000174544	0	5	0	
0.0951667	-0.000683465	-0.00119842	0.00135676	0.000182453	0	5	0	
0.0953333	0.00110274	0.000145596	0.00132011	0.000197639	0	5	0	
0.0955	-0.000620404	-0.00159594	0.00128917	0.000210282	0	5	0	
0.0956667	0.00550929	0.00284346	0.00127122	0.00022254	0	5	0	
0.0958333	-0.00564777	-0.00177653	0.00127647	0.00022751	0	5	0	
0.096	-0.00210386	0.00207733	0.0013245	0.000227284	0	5	0	
0.0961667	0.00512535	-0.00376661	0.00138505	0.000240133	0	5	0	
0.0963333	-0.00732444	0.00589231	0.00139532	0.000255411	0	5	0	
0.0965	0.00638239	-0.00420314	0.0013416	0.000248433	0	5	0	
0.0966667	6.26836E-06	0.00140646	0.00126884	0.000209369	0	5	0	
0.0968333	-0.00451355	0.000881976	0.00123606	0.000175389	0	5	0	
0.097	0.00059628	-0.000682447	0.00126959	0.00017603	0	5	0	
0.0971667	0.00103731	-0.00140598	0.00133447	0.000210849	0	5	0	
0.0973333	0.000360406	0.00366104	0.00136377	0.000246085	0	5	0	
0.0975	0.000275933	-0.00411475	0.00135995	0.000254876	0	5	0	
0.0976667	-0.000884454	0.00348247	0.00136293	0.000236046	0	5	0	
0.0978333	-0.00155473	-0.00190904	0.00135951	0.000209122	0	5	0	
0.098	0.00247261	0.000635057	0.00132803	0.000192549	0	5	0	
0.0981667	-0.000494617	-0.000677954	0.00130669	0.00019898	0	5	0	
0.0983333	-0.00252805	0.0023842	0.0013232	0.000220589	0	5	0	
0.0985	0.00225046	-0.00423509	0.00133821	0.000236669	0	5	0	
0.0986667	0.00270516	0.0043762	0.00131416	0.000233869	0	5	0	
0.0988333	-0.00404325	-0.00217621	0.00128251	0.000213942	0	5	0	
0.099	-0.000438911	0.000396104	0.00129052	0.000195413	0	5	0	
0.0991667	0.00294613	0.000953014	0.00132711	0.000192505	0	5	0	
0.0993333	-0.00251926	0.00088573	0.00135102	0.000204694	0	5	0	
0.0995	0.00180734	-0.00189481	0.001348	0.000221521	0	5	0	
0.0996667	1.51389E-05	0.0022099	0.00132126	0.000230376	0	5	0	
0.0998333	-0.00143049	-0.00110764	0.00128659	0.000231566	0	5	0	
0.1	0.000671443	0.00236824	0.00127084	0.000231239	0	5	0	
0.100167	-0.001843	-0.00203116	0.00128488	0.000231806	0	5	0	
0.100333	0.00140725	0.00289537	0.00131225	0.000226121	0	5	0	
0.1005	-0.000447766	-0.00132187	0.00133354	0.000213675	0	5	0	
0.100667	-0.00248689	0.000192241	0.00134331	0.000197021	0	5	0	
0.100833	0.00230297	0.000181595	0.00134423	0.0001928	0	5	0	
0.101	-0.00151597	0.0010595	0.00133198	0.000200911	0	5	0	
0.101167	-0.00146666	-0.00105016	0.00130837	0.000213675	0	5	0	
0.101333	0.000159493	0.000830847	0.00129946	0.000218184	0	5	0	
0.1015	0.00160662	-0.000507559	0.00131829	0.000214546	0	5	0	
0.101667	-0.00130488	0.000826181	0.00133543	0.000211462	0	5	0	
0.101833	-0.00404784	-0.00117199	0.00133021	0.000211674	0	5	0	
0.102	0.00327741	0.00144348	0.00133143	0.000211719	0	5	0	
0.102167	-0.000268925	-0.00175602	0.00135866	0.000212993	0	5	0	
0.102333	0.000843194	0.0029345	0.00137016	0.000218478	0	5	0	
0.1025	-0.00419224	-0.00297255	0.00133643	0.000220957	0	5	0	
0.102667	0.00595488	0.00252829	0.00129772	0.000210585	0	5	0	
0.102833	-0.00481278	-0.000221181	0.00130647	0.00018849	0	5	0	
0.103	0.00138472	-0.00203005	0.00135678	0.000174306	0	5	0	
0.103167	-0.00172829	0.00165754	0.00137623	0.000195574	0	5	0	
0.103333	0.00920152	0.00305383	0.00131909	0.00025052	0	5	0	
0.1035	-0.0137104	-0.00469551	0.00125739	0.000291899	0	5	0	
0.103667	0.00773509	0.00278027	0.00128592	0.000281488	0	5	0	
0.103833	-0.00186364	-0.00119751	0.00137412	0.000242413	0	5	0	
0.104	0.00198606	0.00190629	0.00140078	0.000221997	0	5	0	
0.104167	-0.00299492	-0.000869512	0.00134033	0.000210291	0	5	0	
0.104333	0.00412628	-0.0010341	0.00125921	0.000190122	0	5	0	
0.1045	-0.00658644	-0.000132027	0.00121095	0.000183859	0	5	0	
0.104667	0.00637308	0.00206122	0.00119283	0.000207189	0	5	0	
0.104833	-0.00832953	-0.00129269	0.00120545	0.000224593	0	5	0	
0.105	0.00366954	-0.00162203	0.0012719	0.000213674	0	5	0	
0.105167	0.00613299	0.00066594	0.00137263	0.000212932	0	5	0	
0.105333	-0.00462685	0.00404071	0.00139076	0.000246347	0	5	0	
0.1055	-0.00857585	-0.00509161	0.00128646	0.00027081	0	5	0	
0.105667	0.0108826	0.00192283	0.00119223	0.000246983	0	5	0	
0.105833	-0.00733994	0.0012526	0.00123442	0.000198105	0	5	0	
0.106	0.00320812	-0.00189364	0.00135442	0.000189659	0	5	0	
0.106167	0.00115184	-0.00057366	0.00141859	0.000227567	0	5	0	
0.106333	-0.00246667	0.00330672	0.00138272	0.000270474	0	5	0	
0.1065	-0.00395462	-0.00317302	0.00129711	0.000273877	0	5	0	
0.106667	0.00452803	0.00336048	0.00123323	0.000244479	0	5	0	
0.106833	-0.00317538	-0.00216385	0.00122278	0.000212888	0	5	0	
0.107	0.00474135	0.000122063	0.00124096	0.000192255	0	5	0	
0.107167	-0.00480294	0.000995717	0.00126882	0.000189307	0	5	0	
0.107333	-0.000408969	0.000248074	0.00132155	0.000208158	0	5	0	
0.1075	0.000779065	-0.00306601	0.00137068	0.000243069	0	5	0	
0.107667	0.00351928	0.00401162	0.00135485	0.000257471	0	5	0	
0.107833	-0.00656749	-0.000318343	0.00131051	0.000227089	0	5	0	
0.108	0.00140274	-0.00357465	0.00133074	0.000183821	0	5	0	
0.108167	0.00312257	0.00146846	0.00139319	0.000190583	0	5	0	
0.108333	0.00156128	0.00338681	0.00137653	0.000251129	0	5	0	
0.1085	-0.0106915	-0.00443063	0.00129491	0.00029236	0	5	0	
0.108667	0.00730445	0.00165922	0.00128008	0.000270213	0	5	0	
0.108833	-0.001004	-0.00159267	0.00134643	0.000220183	0	5	0	
0.109	0.00790085	0.00216962	0.0013542	0.000195406	0	5	0	
0.109167	-0.0142288	-0.00123152	0.0013077	0.000186798	0	5	0	
0.109333	0.00541585	-0.00157631	0.00132018	0.000183686	0	5	0	
0.1095	-0.00337034	0.000629765	0.00137668	0.000200174	0	5	0	
0.109667	0.0105892	0.00157357	0.0013655	0.00023596	0	5	0	
0.109833	-0.00880678	-0.00191927	0.00132612	0.000247582	0	5	0	
0.11	0.0031262	0.000355859	0.00133329	0.000221595	0	5	0	
0.110167	-0.00676904	-0.000926344	0.00133929	0.000200116	0	5	0	
0.110333	0.00806801	0.00168896	0.00130302	0.000207642	0	5	0	
0.1105	-0.00465702	-0.000886945	0.0012872	0.000213807	0	5	0	
0.110667	0.00506511	-0.000563338	0.00130291	0.000199434	0	5	0	
0.110833	-0.00924726	0.00116584	0.00128474	0.000188832	0	5	0	
0.111	0.011592	0.00116211	0.0012572	0.000198239	0	5	0	
0.111167	-0.00998556	-0.000371835	0.00130341	0.000206306	0	5	0	
0.111333	0.00487398	-0.000143761	0.00139281	0.000197194	0	5	0	
0.1115	-0.0034757	0.000722635	0.00142166	0.000199032	0	5	0	
0.111667	0.00441337	0.0029234	0.00137368	0.000227669	0	5	0	
0.111833	-0.00378268	-0.00278854	0.00131795	0.000253671	0	5	0	
0.112	0.00349861	0.00255295	0.00128613	0.00024016	0	5	0	
0.112167	-0.00884241	-0.000612248	0.00125838	0.000200562	0	5	0	
0.112333	0.0098331	0.000554469	0.00124207	0.000170065	0	5	0	
0.1125	-0.00674283	0.00134172	0.00127836	0.000167843	0	5	0	
0.112667	0.00375766	-0.000350041	0.00134836	0.000184603	0	5	0	
0.112833	-0.00297633	-0.000613503	0.00139375	0.000215615	0	5	0	
0.113	0.00132932	0.00270088	0.00139227	0.000241418	0	5	0	
0.113167	-0.00474481	-0.00255008	0.00136342	0.000241148	0	5	0	
0.113333	0.00725473	0.000623654	0.00134378	0.000210478	0	5	0	
0.1135	-0.0062721	0.000136082	0.00135935	0.000179504	0	5	0	
0.113667	0.00457621	-0.000499328	0.00138351	0.000179979	0	5	0	
0.113833	-0.00688985	-0.00124841	0.00137563	0.000209542	0	5	0	
0.114	0.0100829	0.00197319	0.00135174	0.000241252	0	5	0	
0.114167	-0.0082522	-0.00274102	0.00135144	0.000248775	0	5	0	
0.114333	0.00737166	0.00121831	0.00136095	0.000231817	0	5	0	
0.1145	-0.0110572	-0.000627326	0.00133992	0.000209222	0	5	0	
0.114667	0.0107164	1.85995E-05	0.00131462	0.000203809	0	5	0	
0.114833	-0.00788902	-0.000759684	0.00132954	0.00021443	0	5	0	
0.115	0.00815095	0.000924115	0.00136029	0.000226656	0	5	0	
0.115167	-0.00864483	-0.00175941	0.0013658	0.000226171	0	5	0	
0.115333	0.00704742	0.00177934	0.00135299	0.00021693	0	5	0	
0.1155	-0.00739673	-0.000670524	0.00133591	0.000209053	0	5	0	
0.115667	0.0082686	-0.000402903	0.00130823	0.000210428	0	5	0	
0.115833	-0.0100045	0.000439548	0.00128392	0.000218802	0	5	0	
0.116	0.00811707	-0.000557637	0.00128678	0.00022485	0	5	0	
0.116167	-0.00955998	8.47215E-05	0.00131226	0.000225097	0	5	0	
0.116333	0.0105812	0.00109375	0.00132288	0.000225465	0	5	0	
0.1165	-0.011739	-0.00168436	0.00132042	0.000230521	0	5	0	
0.116667	0.00962037	0.00133726	0.00133018	0.000232143	0	5	0	
0.116833	-0.00570093	-0.000280884	0.00135618	0.000222178	0	5	0	
0.117	0.00221264	-0.000172875	0.00136086	0.000209174	0	5	0	
0.117167	-0.0050924	-0.0013332	0.00132067	0.000203948	0	5	0	
0.117333	0.00741505	0.00134934	0.00126179	0.000197408	0	5	0	
0.1175	-0.0102605	0.000242124	0.00124512	0.000176211	0	5	0	
0.117667	0.00915739	-0.0021727	0.0012997	0.000160821	0	5	0	
0.117833	-0.00478945	0.0012738	0.00139105	0.000181468	0	5	0	
0.118	0.00263689	0.000749347	0.00144692	0.000231247	0	5	0	
0.118167	-0.00527499	-0.00197904	0.00143388	0.000267362	0	5	0	
0.118333	0.00952276	0.00384255	0.00138344	0.000267594	0	5	0	
0.1185	-0.0142074	-0.0038792	0.00135844	0.0002372	0	5	0	
0.118667	0.013874	-0.000669464	0.00138775	0.000187879	0	5	0	
0.118833	-0.0117616	0.00382806	0.00143417	0.000156515	0	5	0	
0.119	0.0122701	-0.00202487	0.00143191	0.000181114	0	5	0	
0.119167	-0.015218	-0.00188611	0.00138088	0.000247503	0	5	0	
0.119333	0.0141327	0.00351965	0.00133962	0.000279027	0	5	0	
0.1195	-0.0118672	-0.00053341	0.00133911	0.000243645	0	5	0	
0.119667	0.0133996	-0.00222407	0.00133993	0.000185659	0	5	0	
0.119833	-0.0154185	0.00211723	0.00133791	0.000165268	0	5	0	
0.12	0.00682879	-0.0011077	0.00136942	0.000184777	0	5	0	
0.120167	-0.00317092	-0.000434869	0.00138782	0.000219209	0	5	0	
0.120333	0.0129703	0.00159612	0.00131224	0.00024032	0	5	0	
0.1205	-0.0194267	-0.00177591	0.00123973	0.000234372	0	5	0	
0.120667	0.00999227	-0.000716488	0.00128498	0.000202556	0	5	0	
0.120833	-0.00744531	0.00249038	0.00137818	0.00017561	0	5	0	
0.121	0.0131421	-0.00198226	0.00136839	0.000186521	0	5	0	
0.121167	-0.0141819	-0.000620277	0.00130815	0.000231056	0	5	0	
0.121333	0.00954299	0.00221325	0.00130384	0.000263883	0	5	0	
0.1215	-0.0130862	-0.0019507	0.00133374	0.000249346	0	5	0	
0.121667	0.0154051	-0.00213858	0.0013355	0.000203011	0	5	0	
0.121833	-0.0128986	0.00278139	0.00134984	0.000175457	0	5	0	
0.122	0.0083917	-0.00187773	0.00139038	0.000197481	0	5	0	
0.122167	-0.00953101	-0.00198607	0.00139801	0.000244583	0	5	0	
0.122333	0.0110117	0.00289077	0.00134857	0.000262628	0	5	0	
0.1225	-0.0156115	0.000125315	0.00130319	0.000230592	0	5	0	
0.122667	0.0167253	-0.00295157	0.00130613	0.000189429	0	5	0	
0.122833	-0.0163124	0.00185999	0.00134426	0.000179775	0	5	0	
0.123	0.0152611	-0.00197051	0.00137625	0.000195664	0	5	0	
0.123167	-0.0136592	0.00227929	0.00138819	0.000210679	0	5	0	
0.123333	0.0135761	-0.000544958	0.00137771	0.000227182	0	5	0	
0.1235	-0.0177815	-0.00197003	0.0013634	0.000249405	0	5	0	
0.123667	0.0144501	0.00230362	0.001371	0.000249508	0	5	0	
0.123833	-0.00952753	0.000736042	0.00138067	0.000216178	0	5	0	
0.124	0.0136624	-0.00122147	0.00133045	0.000180962	0	5	0	
0.124167	-0.0193666	0.00137845	0.00126284	0.000182933	0	5	0	
0.124333	0.013263	-1.24044E-05	0.00126048	0.000210086	0	5	0	
0.1245	-0.0123971	-0.000569563	0.00130366	0.000227842	0	5	0	
0.124667	0.0188762	-0.000106396	0.0012941	0.000220031	0	5	0	
0.124833	-0.0195793	0.00107684	0.00127109	0.00020367	0	5	0	
0.125	0.00973284	-0.000682194	0.00131448	0.000196283	0	5	0	
0.125167	-0.00807746	0.00115619	0.00137571	0.000200681	0	5	0	
0.125333	0.0125397	-0.00107992	0.00135339	0.000206748	0	5	0	
0.1255	-0.01537	0.00118432	0.00130007	0.00021548	0	5	0	
0.125667	0.0118074	0.000455195	0.00129631	0.000230694	0	5	0	
0.125833	-0.0111861	-0.00187494	0.00132356	0.000240725	0	5	0	
0.126	0.012041	0.000193987	0.00132263	0.000226627	0	5	0	
0.126167	-0.0150924	0.00190306	0.00130892	0.000200246	0	5	0	
0.126333	0.0147878	-0.00172977	0.00130557	0.000195458	0	5	0	
0.1265	-0.0148837	0.000602691	0.00131603	0.000217207	0	5	0	
0.126667	0.0135301	0.000436286	0.00131944	0.000232117	0	5	0	
0.126833	-0.0143503	2.03111E-05	0.00131327	0.000219748	0	5	0	
0.127	0.0157153	-0.00076988	0.00130042	0.000198646	0	5	0	
0.127167	-0.0186834	0.000765813	0.00130142	0.000191939	0	5	0	
0.127333	0.0168503	-0.00236242	0.00132212	0.000198536	0	5	0	
0.1275	-0.0148801	0.00228816	0.00135692	0.000204524	0	5	0	
0.127667	0.011774	-0.00163771	0.00136825	0.000214232	0	5	0	
0.127833	-0.0128215	6.86238E-05	0.00134337	0.000229847	0	5	0	
0.128	0.0157012	0.00042041	0.0013026	0.000238981	0	5	0	
0.128167	-0.0180978	0.000268845	0.00129281	0.000225283	0	5	0	
0.128333	0.0155519	-0.00168069	0.00130861	0.000201703	0	5	0	
0.1285	-0.0163811	0.00116264	0.00131218	0.000191237	0	5	0	
0.128667	0.0177845	-5.45485E-05	0.00129536	0.00019936	0	5	0	
0.128833	-0.0161264	3.50561E-05	0.00129957	0.000206054	0	5	0	
0.129	0.0146869	-0.000775096	0.00132224	0.000202751	0	5	0	
0.129167	-0.0156742	0.00132795	0.00132289	0.00019972	0	5	0	
0.129333	0.0149076	-0.000600845	0.00130397	0.000207467	0	5	0	
0.1295	-0.0129891	-3.44148E-05	0.0012885	0.000221838	0	5	0	
0.129667	0.0141786	0.000930624	0.00127035	0.000230806	0	5	0	
0.129833	-0.0184242	-9.13305E-06	0.00125467	0.000229117	0	5	0	
0.13	0.0155487	-0.001575	0.0012654	0.000218512	0	5	0	
0.130167	-0.0134525	0.00253168	0.00130054	0.000205009	0	5	0	
0.130333	0.0176671	-0.00225517	0.00131588	0.000196292	0	5	0	
0.1305	-0.0184404	0.00145886	0.00131972	0.00020301	0	5	0	
0.130667	0.0121037	-0.00097365	0.00134582	0.000224134	0	5	0	
0.130833	-0.0139202	0.000700888	0.00137183	0.000242944	0	5	0	
0.131	0.0155875	0.000235978	0.00135025	0.00024179	0	5	0	
0.131167	-0.0169045	-0.000193242	0.0013325	0.000223539	0	5	0	
0.131333	0.0153312	0.000173669	0.00135469	0.000210085	0	5	0	
0.1315	-0.0165002	0.000254927	0.00138208	0.000217556	0	5	0	
0.131667	0.0192659	0.000523587	0.00136703	0.00023787	0	5	0	
0.131833	-0.0219965	-0.00220522	0.00135078	0.000250019	0	5	0	
0.132	0.0183319	0.00167076	0.00136281	0.000231542	0	5	0	
0.132167	-0.0196143	0.00299774	0.00138422	0.000187575	0	5	0	
0.132333	0.021488	-0.00521882	0.00137168	0.0001619	0	5	0	
0.1325	-0.0218463	0.00401839	0.00134721	0.000186904	0	5	0	
0.132667	0.021283	-0.000853892	0.001333	0.000245026	0	5	0	
0.132833	-0.0193735	-0.000505485	0.00133772	0.000283206	0	5	0	
0.133	0.0146326	0.00063085	0.00134048	0.000283933	0	5	0	
0.133167	-0.0159203	-0.00259628	0.0013198	0.000264555	0	5	0	
0.133333	0.0183515	0.00167251	0.00127924	0.000234012	0	5	0	
0.1335	-0.0174713	0.00074418	0.00126414	0.000195859	0	5	0	
0.133667	0.0164263	-0.00373015	0.00127644	0.000182372	0	5	0	
0.133833	-0.020807	0.00212824	0.00129067	0.000210187	0	5	0	
0.134	0.0207912	0.000997038	0.00131339	0.00025686	0	5	0	
0.134167	-0.0152804	-0.00208476	0.00136752	0.000263835	0	5	0	
0.134333	0.0130452	-0.00151245	0.00140388	0.000223721	0	5	0	
0.1345	-0.0171121	0.00272337	0.00137535	0.000175841	0	5	0	
0.134667	0.0179878	-0.00489663	0.00131691	0.000169894	0	5	0	
0.134833	-0.0174741	0.00329843	0.00129647	0.000204135	0	5	0	
0.135	0.0166166	-0.000575523	0.00130478	0.000252211	0	5	0	
0.135167	-0.0200845	-0.000748832	0.00130484	0.000275174	0	5	0	
0.135333	0.0218609	0.0010268	0.00129529	0.000260037	0	5	0	
0.1355	-0.0217693	0.000427204	0.00131615	0.0002132	0	5	0	
0.135667	0.0157847	-0.00242174	0.00135603	0.000167782	0	5	0	
0.135833	-0.0140011	0.00395251	0.00137371	0.000159958	0	5	0	
0.136	0.0166919	-0.00243646	0.00134209	0.000194318	0	5	0	
0.136167	-0.0188923	-0.000673475	0.00131159	0.0002442	0	5	0	
0.136333	0.0154457	0.00257155	0.00131481	0.00025839	0	5	0	
0.1365	-0.0174171	0.00103989	0.00132901	0.000220594	0	5	0	
0.136667	0.0191729	-0.00316688	0.00132593	0.000170642	0	5	0	
0.136833	-0.0200085	0.0029166	0.00132824	0.000167201	0	5	0	
0.137	0.0227844	0.000154328	0.00133962	0.000205741	0	5	0	
0.137167	-0.0250641	-0.000274561	0.00139189	0.000234566	0	5	0	
0.137333	0.00923912	-0.000192034	0.00151136	0.000227507	0	5	0	
0.1375	0.00177585	0.000925492	0.001591	0.000210651	0	5	0	
0.137667	0.0123491	-0.00154452	0.00143477	0.000202641	0	5	0	
0.137833	-0.0321524	0.00231053	0.00119565	0.000203936	0	5	0	
0.138	0.0260527	-0.00184761	0.00111756	0.000213166	0	5	0	
0.138167	-0.0201355	0.000415064	0.00125263	0.000230751	0	5	0	
0.138333	0.0242429	0.000359085	0.00133349	0.000239633	0	5	0	
0.1385	-0.0256487	0.00167262	0.00135457	0.00022119	0	5	0	
0.138667	0.0105126	-0.00520175	0.00142182	0.000195761	0	5	0	
0.138833	-0.0050615	0.00487264	0.00148407	0.000196328	0	5	0	
0.139	0.0146416	-0.000952641	0.00139038	0.000234121	0	5	0	
0.139167	-0.0240321	-0.00205153	0.00125534	0.000269759	0	5	0	
0.139333	0.0192476	0.00108535	0.00125938	0.000261504	0	5	0	
0.1395	-0.0128862	0.00173425	0.00139112	0.000216402	0	5	0	
0.139667	0.0127348	-0.00410633	0.00144363	0.00018258	0	5	0	
0.139833	-0.0208666	0.00310808	0.0013724	0.000184094	0	5	0	
0.14	0.0271305	-0.00197952	0.00130438	0.000209515	0	5	0	
0.140167	-0.0256776	0.00121094	0.00133403	0.000232328	0	5	0	
0.140333	0.0205304	-0.00023264	0.00140351	0.000244278	0	5	0	
0.1405	-0.0194364	0.00101813	0.00141549	0.000238111	0	5	0	
0.140667	0.0210445	-0.00242633	0.001362	0.000214287	0	5	0	
0.140833	-0.0241832	0.00367265	0.00131181	0.000195343	0	5	0	
0.141	0.0245394	-0.00326892	0.00130615	0.000199806	0	5	0	
0.141167	-0.0236341	0.0021746	0.00132909	0.00022418	0	5	0	
0.141333	0.0221209	-0.00116658	0.00133431	0.000247389	0	5	0	
0.1415	-0.0245208	0.000545948	0.00132363	0.000255372	0	5	0	
0.141667	0.022965	0.000309582	0.00131302	0.000243689	0	5	0	
0.141833	-0.022022	0.00211485	0.00133014	0.000221613	0	5	0	
0.142	0.020239	-0.00260575	0.00134759	0.000200346	0	5	0	
0.142167	-0.0212944	0.00342627	0.00134795	0.000194421	0	5	0	
0.142333	0.0214015	-0.00271393	0.00132579	0.000205678	0	5	0	
0.1425	-0.0224863	0.000930376	0.00131354	0.000227854	0	5	0	
0.142667	0.0203832	0.000928925	0.00130582	0.000245382	0	5	0	
0.142833	-0.022721	0.000545326	0.00130046	0.00024107	0	5	0	
0.143	0.0251402	-0.00118704	0.00129682	0.000213265	0	5	0	
0.143167	-0.0240671	0.00370826	0.00131933	0.000187001	0	5	0	
0.143333	0.0198236	-0.00355934	0.00135235	0.000183149	0	5	0	
0.1435	-0.0209393	0.0023918	0.00136936	0.00020328	0	5	0	
0.143667	0.0219079	-0.00100966	0.00135137	0.000224728	0	5	0	
0.143833	-0.0232411	0.000782795	0.00132873	0.000230261	0	5	0	
0.144	0.0222352	-0.000490607	0.00132235	0.000217626	0	5	0	
0.144167	-0.0215943	0.00256218	0.00133793	0.000200258	0	5	0	
0.144333	0.0205891	-0.00240012	0.00133638	0.000196186	0	5	0	
0.1445	-0.0249138	0.00167224	0.00131587	0.000215153	0	5	0	
0.144667	0.0254597	0.000367654	0.00130066	0.000238295	0	5	0	
0.144833	-0.0234645	-0.00112668	0.00131613	0.000239198	0	5	0	
0.145	0.0237257	-0.000480486	0.0013277	0.000207681	0	5	0	
0.145167	-0.0284183	0.0041909	0.00133648	0.000171428	0	5	0	
0.145333	0.0255569	-0.00614679	0.00135836	0.000169238	0	5	0	
0.1455	-0.0226628	0.00613243	0.00139747	0.000216753	0	5	0	
0.145667	0.0249145	-0.000508464	0.00140169	0.000277566	0	5	0	
0.145833	-0.0281324	-0.00292037	0.00137501	0.000304235	0	5	0	
0.146	0.0293991	0.00230701	0.00135785	0.00027328	0	5	0	
0.146167	-0.0291385	8.36651E-05	0.00137506	0.00021547	0	5	0	
0.146333	0.0257487	-0.0020108	0.00138561	0.000166603	0	5	0	
0.1465	-0.0256547	0.00625575	0.00135615	0.000151742	0	5	0	
0.146667	0.0278718	-0.00691535	0.0013042	0.000171284	0	5	0	
0.146833	-0.0255518	0.00380693	0.00128658	0.00023256	0	5	0	
0.147	0.0225432	0.00162184	0.00128987	0.000297277	0	5	0	
0.147167	-0.0262023	-0.00291763	0.00127002	0.000309912	0	5	0	
0.147333	0.0279303	0.000203984	0.0012446	0.000249665	0	5	0	
0.1475	-0.0235229	0.0040999	0.0012626	0.000173543	0	5	0	
0.147667	0.0232096	-0.00615481	0.00130024	0.000152023	0	5	0	
0.147833	-0.0283959	0.00644567	0.00132634	0.000192391	0	5	0	
0.148	0.0255579	-0.00409915	0.00134879	0.000253786	0	5	0	
0.148167	-0.0236431	0.000236424	0.00137409	0.000305701	0	5	0	
0.148333	0.0272498	0.00368961	0.00137596	0.000326728	0	5	0	
0.1485	-0.0255288	-0.00405331	0.00136681	0.000297428	0	5	0	
0.148667	0.0223044	-0.000820523	0.00135557	0.000219271	0	5	0	
0.148833	-0.0287802	0.00560314	0.0013355	0.000151987	0	5	0	
0.149	0.0284522	-0.00636475	0.00131706	0.000153622	0	5	0	
0.149167	-0.0202112	0.00434167	0.00132864	0.000214475	0	5	0	
0.149333	0.020825	-0.00203581	0.0013328	0.000263957	0	5	0	
0.1495	-0.027364	0.000832536	0.0012984	0.000263142	0	5	0	
0.149667	0.0282031	-0.00182811	0.00127268	0.000236069	0	5	0	
0.149833	-0.0265322	0.00222616	0.00129719	0.000217917	0	5	0	
0.15	0.0247544	-0.00195742	0.00131803	0.000216098	0	5	0	
0.150167	-0.0266493	0.00405934	0.00131132	0.000223533	0	5	0	
0.150333	0.0271929	-0.00277103	0.00131668	0.00023432	0	5	0	
0.1505	-0.0239587	-0.00011335	0.00134961	0.000248669	0	5	0	
0.150667	0.0239683	-0.000229064	0.00134937	0.000241668	0	5	0	
0.150833	-0.0284096	0.00296843	0.00131919	0.000209601	0	5	0	
0.151	0.0231458	-0.0040253	0.00131608	0.000182887	0	5	0	
0.151167	-0.0188308	0.00316821	0.00134446	0.00019251	0	5	0	
0.151333	0.0245648	-0.00195988	0.00132281	0.000214015	0	5	0	
0.1515	-0.029496	0.00478973	0.00128868	0.000215681	0	5	0	
0.151667	0.0259236	-0.00580211	0.00130317	0.000213015	0	5	0	
0.151833	-0.0299027	0.00337917	0.00135795	0.000237528	0	5	0	
0.152	0.0321647	-0.00135307	0.00138801	0.000268162	0	5	0	
0.152167	-0.0256213	0.000264588	0.00140781	0.000272122	0	5	0	
0.152333	0.021804	0.00108168	0.00141235	0.000254448	0	5	0	
0.1525	-0.0277848	-0.000660844	0.00137791	0.000224244	0	5	0	
0.152667	0.0296147	-0.0027645	0.00132122	0.000177928	0	5	0	
0.152833	-0.0309176	0.00832783	0.0013008	0.000148859	0	5	0	
0.153	0.0320749	-0.00907447	0.00131228	0.000167662	0	5	0	
0.153167	-0.0303307	0.00492043	0.00133358	0.000236108	0	5	0	
0.153333	0.0266714	-0.00114425	0.00134793	0.000294008	0	5	0	
0.1535	-0.0288732	-0.00115484	0.00135658	0.000301401	0	5	0	
0.153667	0.0288859	-0.000234341	0.00134541	0.000259407	0	5	0	
0.153833	-0.0282542	0.00294012	0.0013386	0.000202945	0	5	0	
0.154	0.0269899	-0.00509006	0.00133587	0.00017523	0	5	0	
0.154167	-0.028339	0.0053611	0.00132997	0.000186336	0	5	0	
0.154333	0.0300392	-0.00393584	0.00131859	0.000216479	0	5	0	
0.1545	-0.0315563	0.000595568	0.0013302	0.000237175	0	5	0	
0.154667	0.026871	-0.000803528	0.00135351	0.000233749	0	5	0	
0.154833	-0.0247899	0.00199694	0.00136547	0.000210943	0	5	0	
0.155	0.0266255	-0.00484298	0.00132668	0.000196134	0	5	0	
0.155167	-0.032366	0.00495211	0.00128631	0.000200143	0	5	0	
0.155333	0.031999	-0.00422076	0.00129512	0.000214573	0	5	0	
0.1555	-0.0291148	0.00284043	0.00133381	0.000220828	0	5	0	
0.155667	0.0335069	-0.00275452	0.00134196	0.000224904	0	5	0	
0.155833	-0.0365239	0.00228982	0.00134207	0.000229306	0	5	0	
0.156	0.0282013	-0.00343503	0.00138732	0.000232764	0	5	0	
0.156167	-0.0237808	0.00290871	0.00143518	0.000229847	0	5	0	
0.156333	0.0290266	-0.00126115	0.00138861	0.000224968	0	5	0	
0.1565	-0.0340622	0.00125933	0.00130202	0.000215574	0	5	0	
0.156667	0.0318686	-0.00292295	0.00127831	0.000198953	0	5	0	
0.156833	-0.0279058	0.00484184	0.00131698	0.000188121	0	5	0	
0.157	0.0307255	-0.00535016	0.00133432	0.000198143	0	5	0	
0.157167	-0.03291	0.00410005	0.00132169	0.000225952	0	5	0	
0.157333	0.0272292	-0.00297041	0.00131786	0.00024793	0	5	0	
0.1575	-0.0261642	0.00397782	0.00132229	0.000246816	0	5	0	
0.157667	0.0344114	-0.00356382	0.00128707	0.000229161	0	5	0	
0.157833	-0.0458956	0.0036032	0.00128364	0.000215696	0	5	0	
0.158	0.0404662	-0.00278134	0.00139402	0.000212785	0	5	0	
0.158167	-0.0191523	0.00363301	0.00157641	0.000219019	0	5	0	
0.158333	0.0109858	-0.0048418	0.00160283	0.000224913	0	5	0	
0.1585	-0.0213236	0.00468279	0.00142004	0.000230027	0	5	0	
0.158667	0.0230976	-0.0019512	0.00121728	0.000233728	0	5	0	
0.158833	-0.02535	0.00150812	0.00113782	0.000234147	0	5	0	
0.159	0.0413495	-0.00104857	0.00115689	0.000223946	0	5	0	
0.159167	-0.0465422	0.00373242	0.0012482	0.000208909	0	5	0	
0.159333	0.0293979	-0.00528929	0.00142807	0.000193352	0	5	0	
0.1595	-0.0193936	0.00661304	0.00156674	0.000193364	0	5	0	
0.159667	0.0287541	-0.00493404	0.00151758	0.00020725	0	5	0	
0.159833	-0.0360853	0.00358393	0.00139741	0.000233496	0	5	0	
0.16	0.0350615	-0.00252306	0.00135541	0.000242173	0	5	0	
0.160167	-0.034449	0.00443999	0.00138306	0.000231102	0	5	0	
0.160333	0.0319567	-0.00416632	0.00137419	0.000212084	0	5	0	
0.1605	-0.0272664	0.00447624	0.00133503	0.000211807	0	5	0	
0.160667	0.0281955	-0.00455542	0.00128168	0.000220692	0	5	0	
0.160833	-0.0335074	0.0037482	0.00123188	0.000236263	0	5	0	
0.161	0.0308704	-0.000264348	0.00122104	0.00025462	0	5	0	
0.161167	-0.0243141	0.000525503	0.00127326	0.000251113	0	5	0	
0.161333	0.0215325	-0.00415983	0.00130963	0.000208368	0	5	0	
0.1615	-0.0243697	0.0077366	0.00129381	0.000174113	0	5	0	
0.161667	0.0265396	-0.00520183	0.00125055	0.000186744	0	5	0	
0.161833	-0.0324928	0.00213864	0.00123763	0.000233305	0	5	0	
0.162	0.0355993	-0.0022508	0.00127209	0.000243723	0	5	0	
0.162167	-0.0318463	0.00546595	0.00134174	0.000229379	0	5	0	
0.162333	0.030096	-0.00515009	0.00137237	0.000216157	0	5	0	
0.1625	-0.0368712	0.00424786	0.00135274	0.00022209	0	5	0	
0.162667	0.0340704	-0.00362044	0.00133583	0.000221258	0	5	0	
0.162833	-0.0286777	0.00443309	0.00134826	0.000215285	0	5	0	
0.163	0.0345164	-0.00353021	0.00133136	0.000215306	0	5	0	
0.163167	-0.0372605	0.00352532	0.00131424	0.000230891	0	5	0	
0.163333	0.0258091	-0.0035562	0.00133528	0.000236795	0	5	0	
0.1635	-0.0251627	0.00463954	0.00134727	0.00022973	0	5	0	
0.163667	0.0343536	-0.00391057	0.0012912	0.000220626	0	5	0	
0.163833	-0.0360489	0.00252958	0.00125511	0.000229371	0	5	0	
0.164	0.0301884	-0.000794125	0.00129247	0.00023528	0	5	0	
0.164167	-0.0321843	0.00243433	0.00134435	0.000216839	0	5	0	
0.164333	0.0336035	-0.00547422	0.00133368	0.000186571	0	5	0	
0.1645	-0.0350989	0.00693363	0.00132271	0.000181844	0	5	0	
0.164667	0.0341307	-0.00557828	0.00134087	0.000208884	0	5	0	
0.164833	-0.0327337	0.00499582	0.00137147	0.000235839	0	5	0	
0.165	0.0310205	-0.00482052	0.00137083	0.000238784	0	5	0	
0.165167	-0.0327876	0.00331524	0.00135091	0.000240466	0	5	0	
0.165333	0.0355809	-0.00116505	0.00132049	0.000256702	0	5	0	
0.1655	-0.0416013	0.00104078	0.00131483	0.000259098	0	5	0	
0.165667	0.0417071	-0.00390081	0.00134735	0.000230882	0	5	0	
0.165833	-0.0337649	0.00485584	0.00141555	0.000204813	0	5	0	
0.166	0.0294712	-0.00271074	0.00143408	0.000210993	0	5	0	
0.166167	-0.0320353	0.00296593	0.00136136	0.000227217	0	5	0	
0.166333	0.0350295	-0.00449351	0.00125233	0.000220948	0	5	0	
0.1665	-0.039196	0.00427095	0.00119761	0.000200451	0	5	0	
0.166667	0.0440243	-0.00530695	0.00122381	0.000183837	0	5	0	
0.166833	-0.040813	0.00790596	0.00131596	0.000180681	0	5	0	
0.167	0.0314945	-0.00759992	0.00140256	0.000208048	0	5	0	
0.167167	-0.0285686	0.00330441	0.00141842	0.00027044	0	5	0	
0.167333	0.0288521	0.00166634	0.00134618	0.000317409	0	5	0	
0.1675	-0.0311146	-0.000867186	0.00125972	0.000291225	0	5	0	
0.167667	0.0365759	-0.0025041	0.0012099	0.000208971	0	5	0	
0.167833	-0.0417659	0.00452289	0.00123141	0.00014747	0	5	0	
0.168	0.036736	-0.00589826	0.00129638	0.000155185	0	5	0	
0.168167	-0.0323648	0.00584566	0.0013717	0.000204739	0	5	0	
0.168333	0.0312466	-0.00460422	0.00136416	0.000243157	0	5	0	
0.1685	-0.0341449	0.0032954	0.00130515	0.00024752	0	5	0	
0.168667	0.0366193	-0.00322865	0.0012588	0.000229294	0	5	0	
0.168833	-0.0379678	0.003692	0.00128274	0.000204815	0	5	0	
0.169	0.0362386	-0.00528137	0.00133217	0.000192382	0	5	0	
0.169167	-0.0353677	0.00572312	0.00135963	0.000198012	0	5	0	
0.169333	0.0366359	-0.00362821	0.00134053	0.000217575	0	5	0	
0.1695	-0.0395826	0.00191341	0.00132515	0.000229419	0	5	0	
0.169667	0.0378024	-0.00284896	0.0013327	0.000217027	0	5	0	
0.169833	-0.0362968	0.00436332	0.0013559	0.000192645	0	5	0	
0.17	0.0366821	-0.00549076	0.00134422	0.00018342	0	5	0	
0.170167	-0.0378735	0.00408896	0.00132234	0.000198909	0	5	0	
0.170333	0.0364555	-0.00308496	0.00131134	0.000223065	0	5	0	
0.1705	-0.0369233	0.00423639	0.00132178	0.000230025	0	5	0	
0.170667	0.0373868	-0.00566688	0.00131781	0.000222402	0	5	0	
0.170833	-0.0373695	0.00525531	0.00132257	0.000216134	0	5	0	
0.171	0.0333835	-0.00463475	0.00133239	0.000223302	0	5	0	
0.171167	-0.0342259	0.00406416	0.00132823	0.000231603	0	5	0	
0.171333	0.0384721	-0.00687001	0.00128921	0.000239449	0	5	0	
0.1715	-0.0404346	0.00712143	0.00127622	0.000248279	0	5	0	
0.171667	0.0370298	-0.0050773	0.00130187	0.0002571	0	5	0	
0.171833	-0.0379681	0.00294588	0.00133611	0.00024843	0	5	0	
0.172	0.0406748	-0.00375379	0.00134183	0.000220591	0	5	0	
0.172167	-0.0390761	0.00554592	0.00134495	0.000195573	0	5	0	
0.172333	0.0359149	-0.00714532	0.00135415	0.000194542	0	5	0	
0.1725	-0.0355065	0.00706415	0.00135314	0.000214326	0	5	0	
0.172667	0.0361483	-0.00545529	0.00132701	0.000230573	0	5	0	
0.172833	-0.0395163	0.00461023	0.00131265	0.000236237	0	5	0	
0.173	0.038431	-0.0034414	0.00131721	0.000229071	0	5	0	
0.173167	-0.0359503	0.00437184	0.00133035	0.000221299	0	5	0	
0.173333	0.0395162	-0.00468693	0.00131252	0.000210806	0	5	0	
0.1735	-0.0447066	0.00618714	0.00130382	0.000210581	0	5	0	
0.173667	0.0410135	-0.00542634	0.00133856	0.000215778	0	5	0	
0.173833	-0.0366863	0.00475076	0.00138983	0.000230365	0	5	0	
0.174	0.0368617	-0.00281388	0.00137656	0.000235677	0	5	0	
0.174167	-0.0386277	0.00362908	0.0013313	0.000232175	0	5	0	
0.174333	0.0383361	-0.00360868	0.00130633	0.000215051	0	5	0	
0.1745	-0.0404537	0.00581507	0.00132159	0.000200959	0	5	0	
0.174667	0.0427556	-0.00733978	0.00134421	0.000192923	0	5	0	
0.174833	-0.0416211	0.00780096	0.00136188	0.000207102	0	5	0	
0.175	0.0422134	-0.00555773	0.00135938	0.000238256	0	5	0	
0.175167	-0.0463252	0.00450408	0.00135123	0.000263951	0	5	0	
0.175333	0.0458311	-0.0061089	0.00134889	0.000257488	0	5	0	
0.1755	-0.0461265	0.0063262	0.00136264	0.000240742	0	5	0	
0.175667	0.0453297	-0.00228557	0.00136889	0.000238352	0	5	0	
0.175833	-0.0386615	0.00145271	0.00135474	0.000236491	0	5	0	
0.176	0.0356104	-0.00489719	0.00131262	0.000212881	0	5	0	
0.176167	-0.0388886	0.00572855	0.00125718	0.000194942	0	5	0	
0.176333	0.0379443	-0.00379321	0.00122081	0.000197137	0	5	0	
0.1765	-0.0374734	0.00492201	0.0012294	0.000197047	0	5	0	
0.176667	0.0378596	-0.00885996	0.00125884	0.00018724	0	5	0	
0.176833	-0.036258	0.0094541	0.00128539	0.000208911	0	5	0	
0.177	0.0376533	-0.00461386	0.0012923	0.000261916	0	5	0	
0.177167	-0.0427929	0.00190886	0.0013016	0.000295752	0	5	0	
0.177333	0.0405071	-0.00241958	0.00131715	0.000261542	0	5	0	
0.1775	-0.0422072	0.0053537	0.00133139	0.000206682	0	5	0	
0.177667	0.0492235	-0.00669884	0.00133738	0.000181194	0	5	0	
0.177833	-0.0447678	0.00648333	0.00137049	0.000206594	0	5	0	
0.178	0.0348781	-0.00437146	0.0013998	0.000237207	0	5	0	
0.178167	-0.0397232	0.00473654	0.00136957	0.000246895	0	5	0	
0.178333	0.0441715	-0.00404116	0.00130074	0.000227169	0	5	0	
0.1785	-0.0398791	0.00485368	0.00128782	0.000206743	0	5	0	
0.178667	0.0383674	-0.0064413	0.00131455	0.000193329	0	5	0	
0.178833	-0.0417431	0.00764605	0.00132393	0.000196844	0	5	0	
0.179	0.0406369	-0.0078282	0.00130465	0.000219687	0	5	0	
0.179167	-0.0385511	0.00452378	0.00130885	0.000251489	0	5	0	
0.179333	0.0393282	-0.00171672	0.00131356	0.000264375	0	5	0	
0.1795	-0.0425608	0.00358077	0.0013226	0.000231748	0	5	0	
0.179667	0.0424803	-0.00725146	0.0013336	0.000189919	0	5	0	
0.179833	-0.0410745	0.0066856	0.0013549	0.000180377	0	5	0	
0.18	0.0414292	-0.00458995	0.00134588	0.000213547	0	5	0	
0.180167	-0.0452396	0.00377055	0.00134115	0.000232487	0	5	0	
0.180333	0.0431314	-0.00595517	0.00135113	0.000224165	0	5	0	
0.1805	-0.0401694	0.00524988	0.00136986	0.0002098	0	5	0	
0.180667	0.0450464	-0.00340379	0.00134508	0.000212597	0	5	0	
0.180833	-0.049243	0.00436363	0.00132756	0.000211182	0	5	0	
0.181	0.0428565	-0.00668151	0.00134538	0.000201027	0	5	0	
0.181167	-0.0412851	0.00672724	0.00136977	0.000203007	0	5	0	
0.181333	0.0471054	-0.00546842	0.00134453	0.000221082	0	5	0	
0.1815	-0.0443648	0.00577221	0.00132626	0.000236957	0	5	0	
0.181667	0.0373403	-0.0056494	0.0013355	0.000238784	0	5	0	
0.181833	-0.0410814	0.00348888	0.00132628	0.000238122	0	5	0	
0.182	0.047452	-0.00365765	0.00128413	0.00022556	0	5	0	
0.182167	-0.0442503	0.00584088	0.00128177	0.00020043	0	5	0	
0.182333	0.0403324	-0.00810083	0.00132396	0.000186904	0	5	0	
0.1825	-0.0429352	0.0069502	0.00134116	0.000205263	0	5	0	
0.182667	0.0460387	-0.00465062	0.00132628	0.000238623	0	5	0	
0.182833	-0.0426906	0.0039523	0.0013318	0.000248603	0	5	0	
0.183	0.0400149	-0.00467835	0.00134567	0.000227337	0	5	0	
0.183167	-0.0436077	0.00555396	0.00133499	0.000201235	0	5	0	
0.183333	0.0481468	-0.00735658	0.00131341	0.000191557	0	5	0	
0.1835	-0.0463325	0.00821305	0.00132698	0.000201441	0	5	0	
0.183667	0.0430596	-0.00775456	0.00135702	0.000223161	0	5	0	
0.183833	-0.0429106	0.00606837	0.00136397	0.000246065	0	5	0	
0.184	0.045575	-0.00305997	0.0013404	0.000251827	0	5	0	
0.184167	-0.0459122	0.0048471	0.00132581	0.000233993	0	5	0	
0.184333	0.0434519	-0.0066509	0.00132094	0.000205428	0	5	0	
0.1845	-0.0444708	0.00735721	0.00132418	0.000196199	0	5	0	
0.184667	0.0461426	-0.00671595	0.00133193	0.000206466	0	5	0	
0.184833	-0.0430237	0.00579071	0.00135986	0.000219709	0	5	0	
0.185	0.0395728	-0.00478642	0.00136188	0.000223567	0	5	0	
0.185167	-0.0433795	0.00352145	0.00131762	0.000216876	0	5	0	
0.185333	0.0504929	-0.00267481	0.00126368	0.000204792	0	5	0	
0.1855	-0.0533592	0.00498183	0.00128347	0.000184476	0	5	0	
0.185667	0.0487154	-0.00902375	0.00137705	0.000175402	0	5	0	
0.185833	-0.0430842	0.00964431	0.00145247	0.000187491	0	5	0	
0.186	0.0430024	-0.00815916	0.00143822	0.000233315	0	5	0	
0.186167	-0.0425986	0.00338128	0.00137197	0.000276919	0	5	0	
0.186333	0.0404266	-0.00194445	0.00130676	0.000293678	0	5	0	
0.1865	-0.0432342	0.00338984	0.0012656	0.000259325	0	5	0	
0.186667	0.052188	-0.00591851	0.00125259	0.000205899	0	5	0	
0.186833	-0.0542069	0.00877729	0.00130284	0.000176895	0	5	0	
0.187	0.0465856	-0.00993856	0.0013843	0.000196949	0	5	0	
0.187167	-0.0422053	0.00707175	0.00141853	0.000242035	0	5	0	
0.187333	0.0458565	-0.00354033	0.00136464	0.000267794	0	5	0	
0.1875	-0.0494365	0.00302223	0.00131664	0.000250065	0	5	0	
0.187667	0.0470834	-0.00449449	0.00131804	0.000202892	0	5	0	
0.187833	-0.0450448	0.00777673	0.00134939	0.00016995	0	5	0	
0.188	0.0470809	-0.00901023	0.00134124	0.00017451	0	5	0	
0.188167	-0.0477582	0.0080527	0.00131963	0.000211646	0	5	0	
0.188333	0.0457922	-0.00520726	0.0013121	0.000243263	0	5	0	
0.1885	-0.0448645	0.00396137	0.00132765	0.000250042	0	5	0	
0.188667	0.0440304	-0.0050488	0.0013231	0.000227207	0	5	0	
0.188833	-0.0451545	0.00729315	0.00130588	0.000200991	0	5	0	
0.189	0.0478311	-0.00789248	0.00129118	0.000198302	0	5	0	
0.189167	-0.048501	0.00715677	0.00130417	0.000220342	0	5	0	
0.189333	0.0491599	-0.00553325	0.00133421	0.00024198	0	5	0	
0.1895	-0.0497027	0.00446474	0.00137172	0.000243956	0	5	0	
0.189667	0.0479222	-0.00456502	0.00139785	0.000227607	0	5	0	
0.189833	-0.0461763	0.00579586	0.00140157	0.000202802	0	5	0	
0.19	0.0490641	-0.00800724	0.00137752	0.000190257	0	5	0	
0.190167	-0.0525254	0.00804797	0.00135592	0.00020182	0	5	0	
0.190333	0.0519551	-0.0063777	0.00134834	0.000228304	0	5	0	
0.1905	-0.0527828	0.0069453	0.00135356	0.000241692	0	5	0	
0.190667	0.054782	-0.00664362	0.00135907	0.000238827	0	5	0	
0.190833	-0.0517484	0.00522794	0.00136524	0.000236472	0	5	0	
0.191	0.0470937	-0.00420291	0.00136059	0.000228565	0	5	0	
0.191167	-0.0458038	0.00602046	0.00133408	0.00021106	0	5	0	
0.191333	0.0448884	-0.00718012	0.0012838	0.000192153	0	5	0	
0.1915	-0.045462	0.00743147	0.00124149	0.000195219	0	5	0	
0.191667	0.0464613	-0.00624856	0.00122669	0.000205983	0	5	0	
0.191833	-0.0447021	0.00675299	0.00124888	0.000209875	0	5	0	
0.192	0.0437119	-0.00607568	0.00126244	0.000202239	0	5	0	
0.192167	-0.0496867	0.00636061	0.00126613	0.000202072	0	5	0	
0.192333	0.0503742	-0.00705405	0.00128036	0.000207581	0	5	0	
0.1925	-0.0442076	0.00756953	0.00132345	0.000221773	0	5	0	
0.192667	0.0450095	-0.00539615	0.00133508	0.000229443	0	5	0	
0.192833	-0.0536476	0.00375812	0.00132118	0.00023107	0	5	0	
0.193	0.0538942	-0.00401398	0.0013189	0.000214992	0	5	0	
0.193167	-0.0485293	0.00550147	0.00136502	0.000194074	0	5	0	
0.193333	0.0461581	-0.00769402	0.00137522	0.000184777	0	5	0	
0.1935	-0.0502301	0.00725188	0.00134407	0.000189068	0	5	0	
0.193667	0.054705	-0.00646191	0.00130883	0.00020017	0	5	0	
0.193833	-0.0521258	0.00567681	0.00133062	0.000204195	0	5	0	
0.194	0.0488552	-0.00532675	0.00135728	0.000201669	0	5	0	
0.194167	-0.0511873	0.00695333	0.00136078	0.000197047	0	5	0	
0.194333	0.0512955	-0.00840276	0.00133569	0.000202317	0	5	0	
0.1945	-0.0460836	0.00615809	0.00134484	0.000212276	0	5	0	
0.194667	0.0430714	-0.00383666	0.0013304	0.000226242	0	5	0	
0.194833	-0.0514398	0.00407404	0.00130078	0.0002213	0	5	0	
0.195	0.0564766	-0.00515131	0.00127909	0.000209994	0	5	0	
0.195167	-0.0506469	0.00586197	0.00132216	0.000200166	0	5	0	
0.195333	0.0487617	-0.00654813	0.0013597	0.000200758	0	5	0	
0.1955	-0.0532448	0.00752164	0.00136198	0.000200892	0	5	0	
0.195667	0.0538959	-0.00754272	0.00135354	0.000206906	0	5	0	
0.195833	-0.0531835	0.00702673	0.0013729	0.000221136	0	5	0	
0.196	0.0530041	-0.00519217	0.00137895	0.000235473	0	5	0	
0.196167	-0.0518203	0.00530119	0.00137222	0.000231044	0	5	0	
0.196333	0.0521555	-0.00701742	0.00135931	0.000218786	0	5	0	
0.1965	-0.0530217	0.00639797	0.00136317	0.00021097	0	5	0	
0.196667	0.0511088	-0.0066139	0.00136317	0.000214856	0	5	0	
0.196833	-0.049362	0.00728654	0.00135381	0.000218445	0	5	0	
0.197	0.052111	-0.0070474	0.00132758	0.000222816	0	5	0	
0.197167	-0.0528773	0.00699731	0.00131496	0.000227854	0	5	0	
0.197333	0.0514367	-0.00616626	0.0013199	0.00023271	0	5	0	
0.1975	-0.0505616	0.00566371	0.00133566	0.000231158	0	5	0	
0.197667	0.0509967	-0.00691818	0.00132854	0.000219081	0	5	0	
0.197833	-0.0536847	0.00842762	0.00132472	0.000211102	0	5	0	
0.198	0.0553867	-0.00775485	0.00133304	0.000216519	0	5	0	
0.198167	-0.0521456	0.00592094	0.00136092	0.000229968	0	5	0	
0.198333	0.0485684	-0.00549242	0.00136288	0.000227695	0	5	0	
0.1985	-0.052743	0.00730714	0.00134189	0.00021285	0	5	0	
0.198667	0.0580276	-0.00863941	0.0013286	0.000202726	0	5	0	
0.198833	-0.0493592	0.00918201	0.00136243	0.00021506	0	5	0	
0.199	0.0352385	-0.00770184	0.00137166	0.000233058	0	5	0	
0.199167	-0.0396443	0.00660108	0.0012677	0.000242703	0	5	0	
0.199333	0.0599381	-0.00546119	0.00114774	0.000234482	0	5	0	
0.1995	-0.0675812	0.00531466	0.00117261	0.000221621	0	5	0	
0.199667	0.0618697	-0.00524076	0.00133335	0.000202999	0	5	0	
0.199833	-0.066593	0.00716552	0.00147935	0.000188453	0	5	0	
0.2	0.0689805	-0.00793574	0.00155402	0.000180263	0	5	0	
0.200167	-0.0491941	0.00874403	0.00162067	0.000193668	0	5	0	
0.200333	0.0350038	-0.00749888	0.00158743	0.000213312	0	5	0	
0.2005	-0.0495488	0.00682858	0.00141597	0.000230583	0	5	0	
0.200667	0.0637257	-0.00645722	0.00125997	0.0002283	0	5	0	
0.200833	-0.0590864	0.0072533	0.00126143	0.000221564	0	5	0	
0.201	0.0557112	-0.00632001	0.00134199	0.000215195	0	5	0	
0.201167	-0.0605445	0.00632143	0.00136808	0.00021467	0	5	0	
0.201333	0.0580753	-0.00776388	0.00134438	0.000208217	0	5	0	
0.2015	-0.05328	0.00881952	0.00134642	0.000205364	0	5	0	
0.201667	0.0542492	-0.0086002	0.00132644	0.000210794	0	5	0	
0.201833	-0.0573637	0.00686279	0.00130916	0.000225056	0	5	0	
0.202	0.0549504	-0.00609898	0.00130141	0.000223643	0	5	0	
0.202167	-0.0513983	0.00799736	0.00132018	0.000211364	0	5	0	
0.202333	0.053722	-0.00986301	0.00131529	0.000204722	0	5	0	
0.2025	-0.0575542	0.008243	0.00132123	0.000215421	0	5	0	
0.202667	0.0539785	-0.00747808	0.00134201	0.000230193	0	5	0	
0.202833	-0.0484091	0.00606786	0.00136728	0.000229961	0	5	0	
0.203	0.0490644	-0.00545951	0.00133371	0.000214901	0	5	0	
0.203167	-0.0538105	0.00651505	0.00129335	0.00019518	0	5	0	
0.203333	0.0535914	-0.00851561	0.0012839	0.000182898	0	5	0	
0.2035	-0.0520927	0.00959616	0.00130841	0.000190656	0	5	0	
0.203667	0.0548461	-0.0101966	0.00131442	0.000217181	0	5	0	
0.203833	-0.0542042	0.00670201	0.00131051	0.000239403	0	5	0	
0.204	0.0512819	-0.00576753	0.00131968	0.000245755	0	5	0	
0.204167	-0.0511242	0.00566294	0.00132908	0.000228743	0	5	0	
0.204333	0.0553295	-0.00667002	0.0013353	0.000212444	0	5	0	
0.2045	-0.0536369	0.00648717	0.00135331	0.000205313	0	5	0	
0.204667	0.0514692	-0.00703861	0.00136961	0.000201728	0	5	0	
0.204833	-0.0546068	0.00809895	0.00136302	0.000192747	0	5	0	
0.205	0.060321	-0.0116737	0.0013578	0.000194154	0	5	0	
0.205167	-0.0582119	0.00991365	0.00138503	0.000218519	0	5	0	
0.205333	0.0575793	-0.00859886	0.00142451	0.000252616	0	5	0	
0.2055	-0.056983	0.00795805	0.00142905	0.000260681	0	5	0	
0.205667	0.0581249	-0.00771544	0.00139816	0.000246882	0	5	0	
0.205833	-0.057579	0.00589395	0.00136993	0.000229102	0	5	0	
0.206	0.0556718	-0.00574075	0.00135304	0.000210864	0	5	0	
0.206167	-0.0518179	0.00798641	0.00133456	0.000193455	0	5	0	
0.206333	0.0561487	-0.0100052	0.00130474	0.000189275	0	5	0	
0.2065	-0.0584047	0.00836691	0.00129622	0.000209519	0	5	0	
0.206667	0.0533968	-0.00737633	0.00131171	0.000231186	0	5	0	
0.206833	-0.0499005	0.00786735	0.00132034	0.000229029	0	5	0	
0.207	0.0581211	-0.00931089	0.00129592	0.000212209	0	5	0	
0.207167	-0.0613839	0.00902791	0.00130573	0.000204514	0	5	0	
0.207333	0.0542372	-0.00745092	0.00135191	0.000211058	0	5	0	
0.2075	-0.0502397	0.00766008	0.00137637	0.000219692	0	5	0	
0.207667	0.0541607	-0.00814435	0.00133023	0.000217035	0	5	0	
0.207833	-0.0555084	0.00837782	0.00128817	0.000212136	0	5	0	
0.208	0.0548999	-0.00861227	0.00128313	0.000210176	0	5	0	
0.208167	-0.0554162	0.00791069	0.00130646	0.000212929	0	5	0	
0.208333	0.0567522	-0.00845087	0.00130905	0.000215307	0	5	0	
0.2085	-0.0555678	0.00934187	0.00131815	0.000220924	0	5	0	
0.208667	0.0534055	-0.00810888	0.00131825	0.000224683	0	5	0	
0.208833	-0.0533698	0.00690854	0.00130633	0.000228407	0	5	0	
0.209	0.0585324	-0.00767001	0.00128735	0.000221232	0	5	0	
0.209167	-0.0596513	0.00849773	0.00130299	0.00021307	0	5	0	
0.209333	0.0542828	-0.00749027	0.00133221	0.000206076	0	5	0	
0.2095	-0.0518824	0.00573571	0.00133871	0.000202392	0	5	0	
0.209667	0.0577052	-0.00699333	0.00130832	0.00018723	0	5	0	
0.209833	-0.0585792	0.0102969	0.00130325	0.000185048	0	5	0	
0.21	0.0541117	-0.0110605	0.00132435	0.000200707	0	5	0	
0.210167	-0.0544124	0.00853204	0.00133274	0.000241476	0	5	0	
0.210333	0.0574731	-0.00612879	0.00131337	0.000254912	0	5	0	
0.2105	-0.0553415	0.00660647	0.00130837	0.000241079	0	5	0	
0.210667	0.056316	-0.00790892	0.0013155	0.000211331	0	5	0	
0.210833	-0.0588226	0.00903205	0.00132692	0.000201985	0	5	0	
0.211	0.0586043	-0.00887934	0.00132907	0.000207352	0	5	0	
0.211167	-0.059651	0.00916826	0.00134194	0.000227094	0	5	0	
0.211333	0.0613717	-0.00720154	0.00135708	0.000235609	0	5	0	
0.2115	-0.0557303	0.00630298	0.00137283	0.000235655	0	5	0	
0.211667	0.0531159	-0.00681319	0.00135678	0.000210829	0	5	0	
0.211833	-0.0580593	0.00953893	0.00132551	0.000194612	0	5	0	
0.212	0.0617164	-0.0104141	0.00130343	0.000193816	0	5	0	
0.212167	-0.059152	0.0104478	0.00132708	0.000224904	0	5	0	
0.212333	0.058161	-0.00681592	0.00134816	0.000245932	0	5	0	
0.2125	-0.0590151	0.00689949	0.00134535	0.000246795	0	5	0	
0.212667	0.0599561	-0.00710546	0.00133178	0.000214115	0	5	0	
0.212833	-0.0587611	0.00965076	0.00133817	0.000197441	0	5	0	
0.213	0.0585447	-0.00955363	0.00133956	0.000194742	0	5	0	
0.213167	-0.0579586	0.00954392	0.00133247	0.000219979	0	5	0	
0.213333	0.058761	-0.00702428	0.0013158	0.000234638	0	5	0	
0.2135	-0.0566471	0.00671819	0.00130849	0.000236966	0	5	0	
0.213667	0.0562178	-0.00618517	0.00130272	0.000214488	0	5	0	
0.213833	-0.0584748	0.00896098	0.00130237	0.000196103	0	5	0	
0.214	0.0608896	-0.00922766	0.00131077	0.000194187	0	5	0	
0.214167	-0.0575289	0.00864617	0.00132442	0.000212148	0	5	0	
0.214333	0.0556076	-0.00778384	0.00132279	0.000225371	0	5	0	
0.2145	-0.0576425	0.00742365	0.00131037	0.00022048	0	5	0	
0.214667	0.0615254	-0.00795195	0.00130732	0.000208233	0	5	0	
0.214833	-0.0629639	0.00896691	0.00133097	0.000200227	0	5	0	
0.215	0.0623398	-0.00913953	0.00136453	0.000206858	0	5	0	
0.215167	-0.0596206	0.00959499	0.00137927	0.000218666	0	5	0	
0.215333	0.05753	-0.00950931	0.00136649	0.000233341	0	5	0	
0.2155	-0.0560302	0.00821498	0.00133337	0.000243926	0	5	0	
0.215667	0.0557776	-0.00725824	0.00129741	0.000245002	0	5	0	
0.215833	-0.0582336	0.00612883	0.00126912	0.000226946	0	5	0	
0.216	0.0638242	-0.00727377	0.00127155	0.000200589	0	5	0	
0.216167	-0.0635192	0.0106522	0.00130501	0.000188526	0	5	0	
0.216333	0.0589713	-0.0124711	0.00134474	0.000205485	0	5	0	
0.2165	-0.0555855	0.0123603	0.00134905	0.000238089	0	5	0	
0.216667	0.0563208	-0.00977264	0.00132456	0.000264196	0	5	0	
0.216833	-0.0567025	0.00592625	0.00129798	0.00026307	0	5	0	
0.217	0.0583078	-0.00429631	0.00128451	0.00023672	0	5	0	
0.217167	-0.0606721	0.00582382	0.00128571	0.000194493	0	5	0	
0.217333	0.0627419	-0.00809827	0.00130298	0.000165441	0	5	0	
0.2175	-0.0597918	0.010421	0.00133506	0.000167538	0	5	0	
0.217667	0.0595059	-0.0113059	0.00135242	0.000198638	0	5	0	
0.217833	-0.060358	0.00955148	0.00134866	0.000234736	0	5	0	
0.218	0.0614778	-0.00719189	0.00133411	0.000249111	0	5	0	
0.218167	-0.0592139	0.00759801	0.00133168	0.000235051	0	5	0	
0.218333	0.0585545	-0.00960803	0.00133328	0.000213495	0	5	0	
0.2185	-0.0569502	0.0107536	0.00132737	0.000213837	0	5	0	
0.218667	0.0598849	-0.00881086	0.0013109	0.000233913	0	5	0	
0.218833	-0.0611552	0.00565579	0.00131525	0.000248722	0	5	0	
0.219	0.0615215	-0.0045789	0.00133204	0.000234368	0	5	0	
0.219167	-0.0620199	0.00556086	0.00135575	0.000199344	0	5	0	
0.219333	0.0647537	-0.00948783	0.00136521	0.000175805	0	5	0	
0.2195	-0.064287	0.0149103	0.00138123	0.000191794	0	5	0	
0.219667	0.0647735	-0.0155769	0.00139423	0.000235243	0	5	0	
0.219833	-0.0644229	0.0112613	0.00141336	0.000292656	0	5	0	
0.22	0.0651932	-0.00667117	0.00141346	0.000318991	0	5	0	
0.220167	-0.0656298	0.00600698	0.00141351	0.000296651	0	5	0	
0.220333	0.0643691	-0.00725072	0.00139974	0.000234673	0	5	0	
0.2205	-0.0626556	0.00985596	0.00139654	0.000187251	0	5	0	
0.220667	0.0629768	-0.0109804	0.00138158	0.00018456	0	5	0	
0.220833	-0.0619156	0.0130165	0.00137148	0.000223777	0	5	0	
0.221	0.0595195	-0.00965582	0.00134693	0.000256898	0	5	0	
0.221167	-0.0624042	0.00563106	0.00132797	0.00026894	0	5	0	
0.221333	0.0664229	-0.00326753	0.00132406	0.000230823	0	5	0	
0.2215	-0.0635153	0.00849925	0.00135006	0.000183305	0	5	0	
0.221667	0.0636047	-0.0134158	0.00136785	0.000175518	0	5	0	
0.221833	-0.068396	0.0167692	0.00137808	0.000218048	0	5	0	
0.222	0.0641985	-0.0121348	0.00137925	0.000277155	0	5	0	
0.222167	-0.0583134	0.00850126	0.00137364	0.000302721	0	5	0	
0.222333	0.0625849	-0.00598587	0.00134316	0.000278521	0	5	0	
0.2225	-0.061811	0.00657472	0.00131999	0.000227679	0	5	0	
0.222667	0.0582422	-0.00793516	0.00130833	0.000182176	0	5	0	
0.222833	-0.0595871	0.0101199	0.00129645	0.000177747	0	5	0	
0.223	0.0611151	-0.0106558	0.00127228	0.000201694	0	5	0	
0.223167	-0.0590648	0.00989727	0.00126831	0.000227966	0	5	0	
0.223333	0.0647908	-0.0066995	0.00128685	0.000229245	0	5	0	
0.2235	-0.0667254	0.0064529	0.00132992	0.00021008	0	5	0	
0.223667	0.0628969	-0.0110252	0.00136429	0.000190205	0	5	0	
0.223833	-0.0594039	0.0145424	0.00137556	0.000207519	0	5	0	
0.224	0.0604978	-0.0136208	0.00133998	0.000251597	0	5	0	
0.224167	-0.0634199	0.00951086	0.00131115	0.000289763	0	5	0	
0.224333	0.0671201	-0.0080009	0.00131435	0.000277085	0	5	0	
0.2245	-0.0635937	0.00929139	0.00134448	0.000241586	0	5	0	
0.224667	0.0595353	-0.00833799	0.00135059	0.000211051	0	5	0	
0.224833	-0.0595963	0.00838545	0.00132409	0.000206078	0	5	0	
0.225	0.0585271	-0.0112037	0.00128301	0.000208271	0	5	0	
0.225167	-0.0566239	0.0106573	0.00125968	0.000216746	0	5	0	
0.225333	0.0620998	-0.00814272	0.00125306	0.000214391	0	5	0	
0.2255	-0.0663416	0.00876625	0.00127661	0.00020748	0	5	0	
0.225667	0.0638637	-0.0126439	0.00131473	0.000199887	0	5	0	
0.225833	-0.0622601	0.0154738	0.00134663	0.000231563	0	5	0	
0.226	0.0622765	-0.011147	0.0013492	0.000274831	0	5	0	
0.226167	-0.0596142	0.00568712	0.00133687	0.000291043	0	5	0	
0.226333	0.0625296	-0.00456018	0.00132387	0.000252033	0	5	0	
0.2265	-0.0663612	0.00691408	0.00132281	0.000192605	0	5	0	
0.226667	0.0649952	-0.0104498	0.00133215	0.000164254	0	5	0	
0.226833	-0.064024	0.0121844	0.00135204	0.00018326	0	5	0	
0.227	0.0656755	-0.0102414	0.00136195	0.000218978	0	5	0	
0.227167	-0.0637478	0.00862257	0.00136514	0.000235491	0	5	0	
0.227333	0.0616506	-0.00802981	0.00135481	0.000229349	0	5	0	
0.2275	-0.0620453	0.00798061	0.00133343	0.000210159	0	5	0	
0.227667	0.0639948	-0.00916318	0.00131282	0.000198143	0	5	0	
0.227833	-0.0658985	0.0117465	0.00131573	0.00019617	0	5	0	
0.228	0.0657379	-0.0125239	0.0013381	0.000217193	0	5	0	
0.228167	-0.0626616	0.00966033	0.00135177	0.000241638	0	5	0	
0.228333	0.0640463	-0.00783665	0.00134212	0.000247402	0	5	0	
0.2285	-0.066487	0.00729921	0.0013372	0.000224683	0	5	0	
0.228667	0.0661986	-0.0102081	0.00134577	0.00020157	0	5	0	
0.228833	-0.0642931	0.0115037	0.00135973	0.000203574	0	5	0	
0.229	0.0644224	-0.0100361	0.00136081	0.000221411	0	5	0	
0.229167	-0.0642589	0.00792826	0.00134775	0.000232204	0	5	0	
0.229333	0.0674645	-0.00790003	0.00134386	0.000212167	0	5	0	
0.2295	-0.06592	0.00865136	0.0013534	0.000195173	0	5	0	
0.229667	0.0621945	-0.0111698	0.00134986	0.000186741	0	5	0	
0.229833	-0.0620833	0.0109816	0.0013305	0.000209632	0	5	0	
0.23	0.0672875	-0.0104476	0.00131028	0.000218925	0	5	0	
0.230167	-0.0663627	0.00980325	0.00131926	0.000231358	0	5	0	
0.230333	0.0630926	-0.00835195	0.00133343	0.000219531	0	5	0	
0.2305	-0.0630208	0.00692644	0.00132978	0.000209089	0	5	0	
0.230667	0.0658427	-0.00914928	0.00131429	0.000187704	0	5	0	
0.230833	-0.0647028	0.0106607	0.00132098	0.000190183	0	5	0	
0.231	0.0627282	-0.0114166	0.00132519	0.0002042	0	5	0	
0.231167	-0.0639006	0.00941103	0.00132473	0.000227431	0	5	0	
0.231333	0.0682067	-0.00858356	0.00132123	0.000232157	0	5	0	
0.2315	-0.0681146	0.00734507	0.00134382	0.000223203	0	5	0	
0.231667	0.0661446	-0.00949087	0.00136484	0.000204215	0	5	0	
0.231833	-0.0617601	0.0106691	0.0013595	0.000198431	0	5	0	
0.232	0.0614588	-0.0124956	0.00131741	0.000211312	0	5	0	
0.232167	-0.0651482	0.010965	0.00129048	0.000236528	0	5	0	
0.232333	0.0670887	-0.0102306	0.00129268	0.000254752	0	5	0	
0.2325	-0.0624463	0.00867422	0.00131389	0.000253113	0	5	0	
0.232667	0.0638561	-0.00829148	0.00131063	0.000230393	0	5	0	
0.232833	-0.0666122	0.00923732	0.00130968	0.000205754	0	5	0	
0.233	0.0642751	-0.0103504	0.00131416	0.00019505	0	5	0	
0.233167	-0.0624762	0.00929948	0.00132115	0.000202683	0	5	0	
0.233333	0.0680799	-0.010529	0.00131335	0.000208767	0	5	0	
0.2335	-0.0656154	0.013831	0.00131278	0.000221181	0	5	0	
0.233667	0.0583429	-0.0134673	0.00130683	0.000239307	0	5	0	
0.233833	-0.0569992	0.010683	0.00127347	0.000258517	0	5	0	
0.234	0.0619249	-0.0101276	0.0012267	0.000257496	0	5	0	
0.234167	-0.063398	0.0118042	0.00121811	0.000247042	0	5	0	
0.234333	0.0626525	-0.0102552	0.00124201	0.000240469	0	5	0	
0.2345	-0.0602127	0.00666119	0.00126774	0.00023069	0	5	0	
0.234667	0.0645096	-0.00762937	0.00127655	0.000205805	0	5	0	
0.234833	-0.0680913	0.0119285	0.00130242	0.000185238	0	5	0	
0.235	0.0666591	-0.0117193	0.00133837	0.00019738	0	5	0	
0.235167	-0.0658952	0.00813527	0.00136858	0.00021784	0	5	0	
0.235333	0.07199	-0.00852498	0.00138111	0.000215318	0	5	0	
0.2355	-0.069548	0.0119732	0.00139763	0.000200018	0	5	0	
0.235667	0.0643168	-0.0143005	0.00139572	0.000212862	0	5	0	
0.235833	-0.0658072	0.0115882	0.00137241	0.000242926	0	5	0	
0.236	0.0657012	-0.00969184	0.00132989	0.000263037	0	5	0	
0.236167	-0.0641817	0.00775987	0.0013113	0.000241978	0	5	0	
0.236333	0.0717657	-0.00927546	0.00131849	0.000216162	0	5	0	
0.2365	-0.0743289	0.00906857	0.00135811	0.000194828	0	5	0	
0.236667	0.0637227	-0.0104817	0.00139073	0.000194713	0	5	0	
0.236833	-0.0593782	0.011191	0.00136555	0.000205186	0	5	0	
0.237	0.0684735	-0.0118588	0.00131397	0.000219727	0	5	0	
0.237167	-0.0700125	0.0100209	0.00130538	0.000231496	0	5	0	
0.237333	0.0649198	-0.00980379	0.00133525	0.000231617	0	5	0	
0.2375	-0.0646534	0.00927096	0.0013489	0.000221073	0	5	0	
0.237667	0.0692145	-0.0114025	0.00133261	0.000212393	0	5	0	
0.237833	-0.0714339	0.0118411	0.00134113	0.000215666	0	5	0	
0.238	0.0714941	-0.00952749	0.00137822	0.000223105	0	5	0	
0.238167	-0.068015	0.00936563	0.00140281	0.000221401	0	5	0	
0.238333	0.0677463	-0.0108571	0.00139087	0.000210824	0	5	0	
0.2385	-0.0658633	0.0121593	0.00136606	0.000211213	0	5	0	
0.238667	0.0633653	-0.0101088	0.00133144	0.000223341	0	5	0	
0.238833	-0.0698582	0.00930502	0.00132164	0.000224574	0	5	0	
0.239	0.077023	-0.0104792	0.00134856	0.000217969	0	5	0	
0.239167	-0.0694122	0.00985806	0.00139854	0.000209678	0	5	0	
0.239333	0.0644753	-0.00684161	0.00140234	0.000210116	0	5	0	
0.2395	-0.0702135	0.0072458	0.00136953	0.000190972	0	5	0	
0.239667	0.0685571	-0.011172	0.00134064	0.000184244	0	5	0	
0.239833	-0.0604097	0.0133513	0.00132497	0.000191949	0	5	0	
0.24	0.0659944	-0.0118084	0.00129582	0.000224888	0	5	0	
0.240167	-0.0722385	0.0115788	0.00128962	0.000239824	0	5	0	
0.240333	0.0676717	-0.0117092	0.00131703	0.000245655	0	5	0	
0.2405	-0.0623621	0.00900323	0.00133603	0.000241733	0	5	0	
0.240667	0.0652844	-0.00682012	0.00131037	0.000230768	0	5	0	
0.240833	-0.066972	0.00768474	0.00128786	0.000202652	0	5	0	
0.241	0.0667304	-0.0107669	0.0012939	0.000185282	0	5	0	
0.241167	-0.063363	0.0127694	0.00130684	0.000192869	0	5	0	
0.241333	0.0651912	-0.0118354	0.00129947	0.000219478	0	5	0	
0.2415	-0.0678563	0.0101514	0.00129455	0.000238529	0	5	0	
0.241667	0.0666467	-0.0091822	0.0013022	0.000234697	0	5	0	
0.241833	-0.0645836	0.0089352	0.00130823	0.000220812	0	5	0	
0.242	0.0719217	-0.00940494	0.00131829	0.000201717	0	5	0	
0.242167	-0.0727048	0.00911571	0.00134599	0.000193556	0	5	0	
0.242333	0.0660535	-0.0113412	0.00136599	0.000195393	0	5	0	
0.2425	-0.0634303	0.0124651	0.00134735	0.000213028	0	5	0	
0.242667	0.0669296	-0.0110991	0.00130346	0.000230927	0	5	0	
0.242833	-0.067507	0.00844205	0.00129047	0.000233919	0	5	0	
0.243	0.0689084	-0.00917724	0.00130944	0.000215739	0	5	0	
0.243167	-0.0680769	0.01131	0.00132916	0.000207091	0	5	0	
0.243333	0.0665399	-0.0129513	0.00132798	0.000212813	0	5	0	
0.2435	-0.0668245	0.0120735	0.00132235	0.000234591	0	5	0	
0.243667	0.069161	-0.0116071	0.00131699	0.000241379	0	5	0	
0.243833	-0.0665524	0.00964723	0.00132391	0.000238452	0	5	0	
0.244	0.0665476	-0.0087794	0.00132279	0.000222007	0	5	0	
0.244167	-0.0696001	0.00905871	0.0013258	0.000208083	0	5	0	
0.244333	0.0709586	-0.00974233	0.00133453	0.000192667	0	5	0	
0.2445	-0.0685623	0.0120887	0.00135151	0.000201562	0	5	0	
0.244667	0.0694385	-0.0129167	0.001354	0.000213027	0	5	0	
0.244833	-0.0683034	0.0110767	0.0013514	0.000233226	0	5	0	
0.245	0.0673061	-0.0102448	0.00134062	0.000235436	0	5	0	
0.245167	-0.0672936	0.00890772	0.00132899	0.000231491	0	5	0	
0.245333	0.0703852	-0.00911104	0.00131851	0.000215228	0	5	0	
0.2455	-0.0704214	0.0114535	0.00133161	0.000206943	0	5	0	
0.245667	0.0720666	-0.0123302	0.00135803	0.000206292	0	5	0	
0.245833	-0.0713993	0.0121795	0.00138376	0.00022394	0	5	0	
0.246	0.0703692	-0.0114427	0.00138206	0.000241212	0	5	0	
0.246167	-0.0674797	0.00875115	0.00136631	0.000251241	0	5	0	
0.246333	0.0666735	-0.00851333	0.00133624	0.000237269	0	5	0	
0.2465	-0.0664167	0.00864646	0.00131339	0.000210351	0	5	0	
0.246667	0.0689985	-0.0103287	0.00130503	0.000188274	0	5	0	
0.246833	-0.0664161	0.0120492	0.00130915	0.000192915	0	5	0	
0.247	0.0668779	-0.0131394	0.00130548	0.000211672	0	5	0	
0.247167	-0.0695743	0.0121049	0.00130947	0.000242207	0	5	0	
0.247333	0.0694943	-0.0113125	0.00131341	0.000252571	0	5	0	
0.2475	-0.0661109	0.00931159	0.0013231	0.000245595	0	5	0	
0.247667	0.0680518	-0.0102338	0.00131568	0.000216634	0	5	0	
0.247833	-0.0702348	0.0103853	0.0013187	0.000202867	0	5	0	
0.248	0.0704151	-0.0106417	0.00133125	0.000199021	0	5	0	
0.248167	-0.0713809	0.0111241	0.00135297	0.000213951	0	5	0	
0.248333	0.0743864	-0.0124122	0.001373	0.000221057	0	5	0	
0.2485	-0.069484	0.0125935	0.00138673	0.000237041	0	5	0	
0.248667	0.0643887	-0.011442	0.00136298	0.000241431	0	5	0	
0.248833	-0.0652884	0.00815444	0.00131703	0.00024117	0	5	0	
0.249	0.0695386	-0.00863644	0.00128491	0.000214961	0	5	0	
0.249167	-0.0690715	0.0106261	0.00129573	0.00019665	0	5	0	
0.249333	0.0665434	-0.00981817	0.00131004	0.00018864	0	5	0	
0.2495	-0.0630243	0.0107609	0.00128948	0.000201935	0	5	0	
0.249667	0.0645501	-0.0135546	0.0012518	0.000214391	0	5	0	
0.249833	-0.0628321	0.0138703	0.00122523	0.000238102	0	5	0	
0.25	0.0609246	-0.00955251	0.00120981	0.000245788	0	5	0	
0.250167	-0.064834	0.00756756	0.00120869	0.000234199	0	5	0	
0.250333	0.0714005	-0.0108591	0.00123518	0.00020619	0	5	0	
0.2505	-0.0660784	0.0145565	0.00127531	0.000208654	0	5	0	
0.250667	0.0657704	-0.0109808	0.00129784	0.000228334	0	5	0	
0.250833	-0.0719945	0.00820016	0.00130604	0.000240226	0	5	0	
0.251	0.0724203	-0.0085681	0.00132871	0.000213686	0	5	0	
0.251167	-0.0677809	0.0107175	0.00135236	0.000196086	0	5	0	
0.251333	0.0742351	-0.0103515	0.00136352	0.000190835	0	5	0	
0.2515	-0.0723195	0.0105236	0.00136757	0.000205844	0	5	0	
0.251667	0.0649534	-0.0119064	0.00135838	0.000214268	0	5	0	
0.251833	-0.0643461	0.0132965	0.00132201	0.000224659	0	5	0	
0.252	0.0719983	-0.0119535	0.0012965	0.000235696	0	5	0	
0.252167	-0.0706099	0.00915615	0.0013087	0.000236695	0	5	0	
0.252333	0.0686502	-0.00879032	0.00133294	0.000221641	0	5	0	
0.2525	-0.0673445	0.0103229	0.0013305	0.000204862	0	5	0	
0.252667	0.0681184	-0.0123489	0.00130874	0.000203016	0	5	0	
0.252833	-0.0696193	0.0118449	0.00130911	0.000215576	0	5	0	
0.253	0.0738111	-0.0116243	0.00132889	0.000229048	0	5	0	
0.253167	-0.0708093	0.012364	0.00135523	0.000231385	0	5	0	
0.253333	0.0670301	-0.0131228	0.00135147	0.000236899	0	5	0	
0.2535	-0.0684166	0.0100499	0.00132862	0.000235357	0	5	0	
0.253667	0.0706644	-0.00707881	0.00131424	0.000223655	0	5	0	
0.253833	-0.0704437	0.00735975	0.0013254	0.00019098	0	5	0	
0.254	0.0699754	-0.0108492	0.00133764	0.000175083	0	5	0	
0.254167	-0.0688498	0.0112513	0.00134041	0.000180059	0	5	0	
0.254333	0.0745643	-0.00970686	0.00134893	0.000200325	0	5	0	
0.2545	-0.0821909	0.0118842	0.00139936	0.000208964	0	5	0	
0.254667	0.0781047	-0.0133751	0.0014598	0.000220676	0	5	0	
0.254833	-0.0674611	0.012457	0.00146575	0.000231775	0	5	0	
0.255	0.0627676	-0.0116864	0.00139092	0.000244464	0	5	0	
0.255167	-0.0616873	0.0114873	0.00128757	0.000243773	0	5	0	
0.255333	0.0690886	-0.0087108	0.00124794	0.000235172	0	5	0	
0.2555	-0.080712	0.00679348	0.00130642	0.000212236	0	5	0	
0.255667	0.079695	-0.00691218	0.00140132	0.000178674	0	5	0	
0.255833	-0.0643205	0.0132992	0.00143429	0.000176742	0	5	0	
0.256	0.0566037	-0.0175664	0.00134945	0.000212797	0	5	0	
0.256167	-0.06021	0.0156133	0.00122645	0.0002734	0	5	0	
0.256333	0.0648549	-0.00932009	0.00116756	0.000295091	0	5	0	
0.2565	-0.0671622	0.00545421	0.0011943	0.000263908	0	5	0	
0.256667	0.0776763	-0.00600372	0.00128263	0.000194617	0	5	0	
0.256833	-0.0872402	0.010562	0.00140254	0.000161282	0	5	0	
0.257	0.0803594	-0.0131638	0.00150732	0.000173185	0	5	0	
0.257167	-0.0622991	0.0143827	0.001507	0.000222752	0	5	0	
0.257333	0.0601005	-0.0129056	0.00138534	0.000248557	0	5	0	
0.2575	-0.0720869	0.00838005	0.00128958	0.000253563	0	5	0	
0.257667	0.078503	-0.00626746	0.00129776	0.00021917	0	5	0	
0.257833	-0.0724146	0.00958744	0.00137435	0.000191331	0	5	0	
0.258	0.0667706	-0.0146176	0.00138619	0.000188412	0	5	0	
0.258167	-0.0651597	0.0161892	0.00133542	0.000232537	0	5	0	
0.258333	0.0681853	-0.0124129	0.00129023	0.000271168	0	5	0	
0.2585	-0.0699897	0.00755059	0.00128516	0.000276602	0	5	0	
0.258667	0.0705968	-0.00543928	0.00130533	0.000226929	0	5	0	
0.258833	-0.0691124	0.00832416	0.00132191	0.00018159	0	5	0	
0.259	0.0691172	-0.0136317	0.0013247	0.000170906	0	5	0	
0.259167	-0.0704203	0.0164728	0.00132443	0.000217848	0	5	0	
0.259333	0.0706695	-0.0148964	0.00132814	0.000266179	0	5	0	
0.2595	-0.0674672	0.0117847	0.00132115	0.000285052	0	5	0	
0.259667	0.0674074	-0.00800252	0.00130639	0.000256743	0	5	0	
0.259833	-0.069234	0.00864425	0.00128936	0.000215155	0	5	0	
0.26	0.0698176	-0.0110448	0.0012967	0.000188615	0	5	0	
0.260167	-0.0686136	0.0130453	0.00130598	0.00019871	0	5	0	
0.260333	0.0688382	-0.013407	0.00131234	0.000225375	0	5	0	
0.2605	-0.0702514	0.0113167	0.00131085	0.000241699	0	5	0	
0.260667	0.0720044	-0.00910821	0.00132292	0.000232188	0	5	0	
0.260833	-0.0706009	0.0103347	0.00133358	0.000212671	0	5	0	
0.261	0.071423	-0.011873	0.0013466	0.000203705	0	5	0	
0.261167	-0.069985	0.0138291	0.00134226	0.000216793	0	5	0	
0.261333	0.0702317	-0.0135824	0.00133583	0.000237822	0	5	0	
0.2615	-0.0690901	0.0113765	0.00132219	0.000246664	0	5	0	
0.261667	0.0700247	-0.0102997	0.00131756	0.000237348	0	5	0	
0.261833	-0.0688509	0.00976034	0.00131535	0.000217428	0	5	0	
0.262	0.0722356	-0.010351	0.0013254	0.000202261	0	5	0	
0.262167	-0.0725898	0.0121226	0.0013438	0.000203367	0	5	0	
0.262333	0.0717	-0.012877	0.00135679	0.000214671	0	5	0	
0.2625	-0.0676591	0.0120843	0.00134758	0.000230558	0	5	0	
0.262667	0.0683575	-0.0116439	0.00132255	0.000235575	0	5	0	
0.262833	-0.0706044	0.00941328	0.00130918	0.000228632	0	5	0	
0.263	0.0748062	-0.0107673	0.00133114	0.000213008	0	5	0	
0.263167	-0.0722302	0.0113241	0.00135953	0.00020592	0	5	0	
0.263333	0.0683306	-0.0124578	0.00135989	0.000208577	0	5	0	
0.2635	-0.0663919	0.010688	0.00132166	0.000221287	0	5	0	
0.263667	0.0712104	-0.0105299	0.00129646	0.00021808	0	5	0	
0.263833	-0.0738406	0.0101182	0.00130954	0.000215993	0	5	0	
0.264	0.0743422	-0.012587	0.00135634	0.000207159	0	5	0	
0.264167	-0.0726146	0.0118176	0.00138198	0.000216928	0	5	0	
0.264333	0.0751692	-0.0126027	0.00139346	0.000223715	0	5	0	
0.2645	-0.0730325	0.0118114	0.00138916	0.000233402	0	5	0	
0.264667	0.0718461	-0.010986	0.00138727	0.000228988	0	5	0	
0.264833	-0.0732793	0.00814766	0.00138179	0.000218971	0	5	0	
0.265	0.0763328	-0.00930733	0.00139295	0.000197445	0	5	0	
0.265167	-0.0729987	0.0138444	0.00140294	0.000204559	0	5	0	
0.265333	0.0719435	-0.0143615	0.0014018	0.000224644	0	5	0	
0.2655	-0.073619	0.0112869	0.00139181	0.000247908	0	5	0	
0.265667	0.0755699	-0.00925075	0.00139069	0.000235171	0	5	0	
0.265833	-0.0725655	0.0107256	0.00139899	0.000212257	0	5	0	
0.266	0.0713722	-0.0119699	0.00138761	0.000203449	0	5	0	
0.266167	-0.0738107	0.0128604	0.00137702	0.000213438	0	5	0	
0.266333	0.072057	-0.0110913	0.0013665	0.000225509	0	5	0	
0.2665	-0.0659069	0.0115744	0.00134504	0.000226514	0	5	0	
0.266667	0.0683384	-0.00976485	0.00131772	0.000218734	0	5	0	
0.266833	-0.0736263	0.0100542	0.00131717	0.000204636	0	5	0	
0.267	0.071712	-0.0109905	0.00133912	0.000201289	0	5	0	
0.267167	-0.0676462	0.0134227	0.00134561	0.000210046	0	5	0	
0.267333	0.0688597	-0.0141859	0.0013223	0.000236401	0	5	0	
0.2675	-0.0695361	0.0126642	0.00130288	0.000249415	0	5	0	
0.267667	0.0707753	-0.0109278	0.00131338	0.000247459	0	5	0	
0.267833	-0.0737047	0.0109686	0.00133677	0.00022768	0	5	0	
0.268	0.0744249	-0.0119857	0.00136616	0.000219382	0	5	0	
0.268167	-0.0707318	0.0124683	0.0013759	0.000219788	0	5	0	
0.268333	0.0677584	-0.0119682	0.00135681	0.000227062	0	5	0	
0.2685	-0.0661237	0.00991967	0.00131511	0.00022386	0	5	0	
0.268667	0.0693972	-0.00938366	0.00129195	0.000210715	0	5	0	
0.268833	-0.0728379	0.0112053	0.00130348	0.000200307	0	5	0	
0.269	0.0707062	-0.0126812	0.0013288	0.00020424	0	5	0	
0.269167	-0.068744	0.0121346	0.00133654	0.000219739	0	5	0	
0.269333	0.0712204	-0.012089	0.00132962	0.000228995	0	5	0	
0.2695	-0.0699034	0.0122426	0.00132083	0.000231037	0	5	0	
0.269667	0.0685405	-0.0109579	0.00131232	0.000224101	0	5	0	
0.269833	-0.072247	0.00958224	0.00131644	0.000214309	0	5	0	
0.27	0.0758717	-0.0100278	0.00134437	0.000202642	0	5	0	
0.270167	-0.0718731	0.0126807	0.00137557	0.000204637	0	5	0	
0.270333	0.0732406	-0.0128982	0.00138918	0.000219384	0	5	0	
0.2705	-0.0734526	0.0110975	0.00138621	0.000228142	0	5	0	
0.270667	0.0695243	-0.0107296	0.00137357	0.000222265	0	5	0	
0.270833	-0.0688842	0.0113007	0.00135787	0.000213967	0	5	0	
0.271	0.0755802	-0.0127277	0.00135502	0.000217182	0	5	0	
0.271167	-0.0723672	0.0117066	0.00136842	0.000222723	0	5	0	
0.271333	0.0678073	-0.00984247	0.00136231	0.000221679	0	5	0	
0.2715	-0.0673456	0.010489	0.00132947	0.000207413	0	5	0	
0.271667	0.0716042	-0.0120249	0.00130783	0.000206758	0	5	0	
0.271833	-0.0708726	0.0126152	0.00131799	0.000215769	0	5	0	
0.272	0.0683964	-0.0115767	0.00132659	0.000227364	0	5	0	
0.272167	-0.0668003	0.010451	0.00131579	0.000224919	0	5	0	
0.272333	0.0726733	-0.0120353	0.00131124	0.000217611	0	5	0	
0.2725	-0.0730179	0.0122649	0.00133128	0.000219136	0	5	0	
0.272667	0.0711731	-0.0109487	0.00135207	0.000222526	0	5	0	
0.272833	-0.0695601	0.0103408	0.00135634	0.00021721	0	5	0	
0.273	0.0708602	-0.0107377	0.00134104	0.000207858	0	5	0	
0.273167	-0.0688062	0.0120386	0.00132744	0.000208941	0	5	0	
0.273333	0.0700944	-0.0113444	0.00131967	0.000210756	0	5	0	
0.2735	-0.0698529	0.0101218	0.00132114	0.000214038	0	5	0	
0.273667	0.0705097	-0.0105591	0.00132589	0.000202492	0	5	0	
0.273833	-0.0708669	0.0106538	0.00133578	0.000204524	0	5	0	
0.274	0.0726335	-0.0116798	0.00134796	0.000203649	0	5	0	
0.274167	-0.0711643	0.0113098	0.00135786	0.000213252	0	5	0	
0.274333	0.0697934	-0.0107706	0.00135844	0.000209289	0	5	0	
0.2745	-0.068844	0.0120825	0.0013413	0.000216036	0	5	0	
0.274667	0.0705995	-0.0119437	0.00133089	0.000217123	0	5	0	
0.274833	-0.0696589	0.00981224	0.00132649	0.000223164	0	5	0	
0.275	0.0685688	-0.010183	0.00132755	0.00020544	0	5	0	
0.275167	-0.069027	0.0102015	0.00132064	0.000197905	0	5	0	
0.275333	0.0716458	-0.0123733	0.00132786	0.00019567	0	5	0	
0.2755	-0.0702498	0.0128548	0.00133748	0.000217182	0	5	0	
0.275667	0.0682167	-0.0122179	0.00133728	0.000227306	0	5	0	
0.275833	-0.0655219	0.0105867	0.00130758	0.000230777	0	5	0	
0.276	0.0668697	-0.0107854	0.00128078	0.000213932	0	5	0	
0.276167	-0.0687124	0.0102712	0.00127581	0.00020816	0	5	0	
0.276333	0.0703182	-0.0113428	0.00129503	0.000200003	0	5	0	
0.2765	-0.0684702	0.0119941	0.00131379	0.000212097	0	5	0	
0.276667	0.0706241	-0.0125327	0.00132007	0.000217833	0	5	0	
0.276833	-0.0700919	0.0115754	0.00132278	0.000227622	0	5	0	
0.277	0.0687098	-0.0120029	0.00132095	0.000222077	0	5	0	
0.277167	-0.0677057	0.0115848	0.0013142	0.00022311	0	5	0	
0.277333	0.0707932	-0.0109074	0.00131215	0.000213775	0	5	0	
0.2775	-0.0714587	0.0105994	0.00132748	0.00021363	0	5	0	
0.277667	0.0722103	-0.0113817	0.00135362	0.000204536	0	5	0	
0.277833	-0.069044	0.012296	0.00135781	0.000212309	0	5	0	
0.278	0.0681565	-0.0129484	0.00133569	0.000219563	0	5	0	
0.278167	-0.069069	0.0116957	0.00130765	0.000230542	0	5	0	
0.278333	0.0723492	-0.0111249	0.00131249	0.000225241	0	5	0	
0.2785	-0.0720658	0.0118858	0.00133782	0.000222743	0	5	0	
0.278667	0.0710836	-0.0123845	0.0013627	0.000216478	0	5	0	
0.278833	-0.0710635	0.00823128	0.00136326	0.000214968	0	5	0	
0.279	0.0728519	-0.00600225	0.00136425	0.000190171	0	5	0	
0.279167	-0.0711468	0.00925436	0.00136741	0.000174165	0	5	0	
0.279333	0.0722218	-0.0147624	0.0013881	0.000192744	0	5	0	
0.2795	-0.0745246	0.0155192	0.00140753	0.000240977	0	5	0	
0.279667	0.0750289	-0.0145385	0.00142917	0.00027324	0	5	0	
0.279833	-0.0689689	0.0144835	0.0014113	0.000279651	0	5	0	
0.28	0.0662023	-0.014494	0.00136682	0.000271382	0	5	0	
0.280167	-0.0675366	0.0100994	0.00132243	0.000260386	0	5	0	
0.280333	0.0719358	-0.00702354	0.00131803	0.000225566	0	5	0	
0.2805	-0.067443	0.00847866	0.00131964	0.000187158	0	5	0	
0.280667	0.0645897	-0.0110109	0.00130927	0.000173429	0	5	0	
0.280833	-0.0700476	0.0115896	0.00130339	0.000190701	0	5	0	
0.281	0.0748011	-0.00996494	0.00133096	0.000206408	0	5	0	
0.281167	-0.0648355	0.0110329	0.0013441	0.000211734	0	5	0	
0.281333	0.0664269	-0.0139249	0.00132616	0.000218648	0	5	0	
0.2815	-0.0759195	0.0150273	0.00133484	0.000242215	0	5	0	
0.281667	0.0727884	-0.0130141	0.00136971	0.000258459	0	5	0	
0.281833	-0.0641344	0.0103754	0.00137449	0.000251312	0	5	0	
0.282	0.070235	-0.00900446	0.001342	0.000220792	0	5	0	
0.282167	-0.0727733	0.0107254	0.00133261	0.000196776	0	5	0	
0.282333	0.0688578	-0.0119357	0.00134797	0.000195186	0	5	0	
0.2825	-0.0670306	0.0121129	0.00134553	0.000211492	0	5	0	
0.282667	0.0700461	-0.0125313	0.00133061	0.000223499	0	5	0	
0.282833	-0.0666937	0.010965	0.0013214	0.000226221	0	5	0	
0.283	0.0643602	-0.00806571	0.00130642	0.000206583	0	5	0	
0.283167	-0.0682339	0.00756252	0.0012988	0.000181867	0	5	0	
0.283333	0.0750212	-0.0101347	0.00133193	0.000169877	0	5	0	
0.2835	-0.0684313	0.0132541	0.00136048	0.000192754	0	5	0	
0.283667	0.0612642	-0.0135739	0.00133309	0.000226576	0	5	0	
0.283833	-0.0662204	0.0113501	0.0012927	0.000241876	0	5	0	
0.284	0.0753118	-0.0114141	0.00131186	0.000231556	0	5	0	
0.284167	-0.0689808	0.0129069	0.00135238	0.000224857	0	5	0	
0.284333	0.0630677	-0.0121499	0.00134043	0.000224796	0	5	0	
0.2845	-0.0682552	0.0091787	0.00130319	0.000219366	0	5	0	
0.284667	0.071308	-0.00991819	0.00129184	0.00020625	0	5	0	
0.284833	-0.0620456	0.0108733	0.00129086	0.000193437	0	5	0	
0.285	0.0622649	-0.00970528	0.00126721	0.000193475	0	5	0	
0.285167	-0.0708784	0.00855783	0.0012732	0.000187026	0	5	0	
0.285333	0.0745663	-0.00997876	0.00132198	0.000182361	0	5	0	
0.2855	-0.0716317	0.0127042	0.00137941	0.000194091	0	5	0	
0.285667	0.07161	-0.013896	0.00138894	0.000223641	0	5	0	
0.285833	-0.0684286	0.013195	0.00137238	0.000242314	0	5	0	
0.286	0.0658041	-0.0114689	0.00134309	0.000246178	0	5	0	
0.286167	-0.066616	0.0105118	0.00132565	0.00022543	0	5	0	
0.286333	0.0700993	-0.010125	0.00133126	0.00021269	0	5	0	
0.2865	-0.0703513	0.0104613	0.0013575	0.00019986	0	5	0	
0.286667	0.0699076	-0.0109116	0.00137472	0.000207545	0	5	0	
0.286833	-0.0669132	0.0124602	0.00135893	0.000215516	0	5	0	
0.287	0.0647783	-0.0126515	0.00132094	0.000229858	0	5	0	
0.287167	-0.0645174	0.0117186	0.00128649	0.000226855	0	5	0	
0.287333	0.0657982	-0.0103773	0.00127567	0.000223581	0	5	0	
0.2875	-0.065113	0.00927627	0.00127527	0.000202571	0	5	0	
0.287667	0.0665469	-0.0101694	0.00128297	0.000201707	0	5	0	
0.287833	-0.0693589	0.0119845	0.00130024	0.000205138	0	5	0	
0.288	0.0706776	-0.0131367	0.00132988	0.000225839	0	5	0	
0.288167	-0.0664235	0.0119428	0.00133648	0.000232752	0	5	0	
0.288333	0.064941	-0.0106377	0.00131701	0.000228676	0	5	0	
0.2885	-0.0679549	0.0101346	0.00129996	0.000212382	0	5	0	
0.288667	0.0711323	-0.0107759	0.00132039	0.00020703	0	5	0	
0.288833	-0.0684151	0.0107598	0.00134431	0.000204174	0	5	0	
0.289	0.0672022	-0.0108126	0.00134874	0.000206107	0	5	0	
0.289167	-0.0669056	0.0110239	0.00133522	0.000202057	0	5	0	
0.289333	0.0682069	-0.0113587	0.00132862	0.000202909	0	5	0	
0.2895	-0.0675098	0.0114363	0.00132869	0.000209107	0	5	0	
0.289667	0.0685855	-0.010424	0.00132659	0.000212281	0	5	0	
0.289833	-0.0674155	0.0105784	0.00132405	0.000208753	0	5	0	
0.29	0.0662656	-0.0108682	0.0013226	0.000202062	0	5	0	
0.290167	-0.0654907	0.012196	0.00131893	0.000203275	0	5	0	
0.290333	0.0673326	-0.0114655	0.00131475	0.000212775	0	5	0	
0.2905	-0.0682824	0.0109343	0.00132255	0.000214952	0	5	0	
0.290667	0.0698296	-0.0104366	0.00134469	0.000213141	0	5	0	
0.290833	-0.0690928	0.0113255	0.0013676	0.000204263	0	5	0	
0.291	0.0674806	-0.0124982	0.00136802	0.000213467	0	5	0	
0.291167	-0.065343	0.013017	0.00134013	0.000223761	0	5	0	
0.291333	0.0643977	-0.0126518	0.00130742	0.00023748	0	5	0	
0.2915	-0.0638855	0.0109726	0.00128623	0.000232827	0	5	0	
0.291667	0.0661461	-0.0103364	0.00129133	0.000222436	0	5	0	
0.291833	-0.0663351	0.00955696	0.00130144	0.000209217	0	5	0	
0.292	0.0662477	-0.0119473	0.00130646	0.000212157	0	5	0	
0.292167	-0.0651803	0.0128822	0.00129564	0.000223888	0	5	0	
0.292333	0.0647198	-0.0135591	0.00128623	0.000238065	0	5	0	
0.2925	-0.0652794	0.0123796	0.00128276	0.000243043	0	5	0	
0.292667	0.0682211	-0.0110034	0.00130151	0.000233958	0	5	0	
0.292833	-0.0670797	0.00795974	0.0013157	0.000212131	0	5	0	
0.293	0.0635762	-0.00750539	0.00131505	0.000180314	0	5	0	
0.293167	-0.0640666	0.00858071	0.00130735	0.000164666	0	5	0	
0.293333	0.0682553	-0.0118292	0.00131915	0.000179932	0	5	0	
0.2935	-0.0642279	0.0139173	0.00132085	0.000222037	0	5	0	
0.293667	0.059322	-0.013702	0.00128606	0.000254124	0	5	0	
0.293833	-0.0623242	0.0103538	0.00124059	0.000255927	0	5	0	
0.294	0.0667762	-0.0109813	0.00124282	0.000233347	0	5	0	
0.294167	-0.0646368	0.0139715	0.00126745	0.000222935	0	5	0	
0.294333	0.0618276	-0.0124944	0.0012675	0.000227996	0	5	0	
0.2945	-0.0620302	0.00862357	0.00123796	0.000225916	0	5	0	
0.294667	0.0680629	-0.00897099	0.00123964	0.000204688	0	5	0	
0.294833	-0.0693885	0.0106747	0.00128328	0.000192875	0	5	0	
0.295	0.0663182	-0.0108807	0.00132097	0.000194082	0	5	0	
0.295167	-0.0672629	0.00967002	0.00133964	0.000201639	0	5	0	
0.295333	0.0725736	-0.0104291	0.0013559	0.000207103	0	5	0	
0.2955	-0.0687655	0.014237	0.00137371	0.000228722	0	5	0	
0.295667	0.063739	-0.0149897	0.00136073	0.000256258	0	5	0	
0.295833	-0.0663669	0.0119269	0.00133876	0.000264664	0	5	0	
0.296	0.0664633	-0.00948829	0.00132231	0.000241237	0	5	0	
0.296167	-0.0600454	0.00877224	0.00130998	0.000207842	0	5	0	
0.296333	0.0668618	-0.0101769	0.00131094	0.000189756	0	5	0	
0.2965	-0.0728246	0.0101461	0.00134619	0.00019114	0	5	0	
0.296667	0.0661442	-0.0111779	0.00137143	0.000203257	0	5	0	
0.296833	-0.0608416	0.0125381	0.00134499	0.000216858	0	5	0	
0.297	0.0672819	-0.0136229	0.00131214	0.000228605	0	5	0	
0.297167	-0.0673393	0.0112716	0.00131593	0.000236145	0	5	0	
0.297333	0.0656984	-0.0101728	0.00133531	0.000225238	0	5	0	
0.2975	-0.0640958	0.00883972	0.00133098	0.000206401	0	5	0	
0.297667	0.0665108	-0.0116447	0.00132735	0.000198669	0	5	0	
0.297833	-0.0673762	0.0131448	0.00134223	0.000213108	0	5	0	
0.298	0.0678079	-0.0130286	0.00135211	0.000232436	0	5	0	
0.298167	-0.0645007	0.0112477	0.00134301	0.000242654	0	5	0	
0.298333	0.0658088	-0.0114715	0.00132315	0.000228587	0	5	0	
0.2985	-0.0641823	0.0101466	0.0013078	0.000217745	0	5	0	
0.298667	0.062197	-0.00909165	0.00129117	0.000197891	0	5	0	
0.298833	-0.0655351	0.0100636	0.00129274	0.000193592	0	5	0	
0.299	0.0704027	-0.011843	0.0013196	0.000202884	0	5	0	
0.299167	-0.066175	0.0113857	0.0013484	0.000214761	0	5	0	
0.299333	0.0646525	-0.0090213	0.00135315	0.000210614	0	5	0	
0.2995	-0.068426	0.00915859	0.00135854	0.000196337	0	5	0	
0.299667	0.0673579	-0.0122631	0.00137725	0.000193136	0	5	0	
0.299833	-0.0638753	0.0128713	0.00138921	0.000213929	0	5	0	
0.3	0.0681958	-0.0116846	0.00138875	0.000229974	0	5	0	
0.300167	-0.0698599	0.0128093	0.00139471	0.000236695	0	5	0	
0.300333	0.0665055	-0.0140965	0.00140171	0.000239064	0	5	0	
0.3005	-0.0633515	0.0106943	0.001371	0.00023524	0	5	0	
0.300667	0.0601795	-0.00749527	0.00131989	0.00021365	0	5	0	
0.300833	-0.0579057	0.00796803	0.00127489	0.000189598	0	5	0	
0.301	0.0627566	-0.0113008	0.00126508	0.000198137	0	5	0	
0.301167	-0.0643851	0.0138554	0.00127844	0.000238104	0	5	0	
0.301333	0.0637337	-0.0139305	0.00130608	0.000266375	0	5	0	
0.3015	-0.0643409	0.0118083	0.00132118	0.000260456	0	5	0	
0.301667	0.0648486	-0.0100264	0.00132869	0.000233713	0	5	0	
0.301833	-0.0625828	0.00906499	0.00132083	0.000214695	0	5	0	
0.302	0.0646591	-0.0082902	0.00132082	0.00020395	0	5	0	
0.302167	-0.0659386	0.0104238	0.00133102	0.000206922	0	5	0	
0.302333	0.0659837	-0.01269	0.00135629	0.00021785	0	5	0	
0.3025	-0.0649256	0.0141442	0.00136799	0.000233761	0	5	0	
0.302667	0.0650179	-0.0118724	0.00135967	0.000241873	0	5	0	
0.302833	-0.0614401	0.00829413	0.00133035	0.000224056	0	5	0	
0.303	0.0608902	-0.00669535	0.00130309	0.000188545	0	5	0	
0.303167	-0.0611524	0.00952273	0.00128599	0.000170593	0	5	0	
0.303333	0.0624241	-0.011659	0.00129039	0.00018676	0	5	0	
0.3035	-0.0620728	0.0126409	0.00130015	0.000217514	0	5	0	
0.303667	0.0639445	-0.0110241	0.00130355	0.000230774	0	5	0	
0.303833	-0.064207	0.010468	0.00130223	0.000221953	0	5	0	
0.304	0.0644237	-0.0103434	0.0013037	0.000215887	0	5	0	
0.304167	-0.0641985	0.0111477	0.0013148	0.000215587	0	5	0	
0.304333	0.0658061	-0.0116866	0.00133527	0.000223471	0	5	0	
0.3045	-0.0659206	0.0115935	0.0013582	0.000223005	0	5	0	
0.304667	0.0657079	-0.0109777	0.00137304	0.000220701	0	5	0	
0.304833	-0.065031	0.0101218	0.00137541	0.000209884	0	5	0	
0.305	0.0637393	-0.00852724	0.00136727	0.000201367	0	5	0	
0.305167	-0.0619481	0.00900892	0.00134874	0.000193656	0	5	0	
0.305333	0.0616089	-0.0110593	0.00132957	0.000200832	0	5	0	
0.3055	-0.062146	0.0112259	0.00131774	0.000214246	0	5	0	
0.305667	0.0608122	-0.0123284	0.00130841	0.000226032	0	5	0	
0.305833	-0.0597045	0.0116337	0.00129279	0.000228121	0	5	0	
0.306	0.0639943	-0.00956668	0.00129205	0.000220996	0	5	0	
0.306167	-0.0675405	0.00928691	0.00132058	0.000208215	0	5	0	
0.306333	0.0663925	-0.00972047	0.00135448	0.000199968	0	5	0	
0.3065	-0.0632122	0.0114684	0.0013603	0.000203583	0	5	0	
0.306667	0.0627363	-0.0120696	0.00134186	0.000214774	0	5	0	
0.306833	-0.0642205	0.0115663	0.00133618	0.000223703	0	5	0	
0.307	0.063874	-0.00892546	0.00134103	0.000218275	0	5	0	
0.307167	-0.0618641	0.00933041	0.00134987	0.000203232	0	5	0	
0.307333	0.0640495	-0.0096225	0.00136172	0.00019554	0	5	0	
0.3075	-0.0651064	0.0115325	0.0013789	0.000203257	0	5	0	
0.307667	0.061401	-0.0122891	0.00136713	0.000226545	0	5	0	
0.307833	-0.0579966	0.0126023	0.00132233	0.000237935	0	5	0	
0.308	0.0600977	-0.0106138	0.00128319	0.000234187	0	5	0	
0.308167	-0.0629738	0.00997726	0.001288	0.000214982	0	5	0	
0.308333	0.0635502	-0.0103669	0.00132041	0.000203228	0	5	0	
0.3085	-0.060869	0.0105638	0.00132952	0.000202949	0	5	0	
0.308667	0.0578132	-0.0111993	0.00130387	0.000210928	0	5	0	
0.308833	-0.0566953	0.00878727	0.00126966	0.000205551	0	5	0	
0.309	0.0622193	-0.00801912	0.00126597	0.000185516	0	5	0	
0.309167	-0.0635506	0.00904825	0.00128715	0.000179324	0	5	0	
0.309333	0.0592066	-0.0118239	0.00128735	0.000194999	0	5	0	
0.3095	-0.0547394	0.0114136	0.00124354	0.000223684	0	5	0	
0.309667	0.056649	-0.011953	0.00121066	0.000239403	0	5	0	
0.309833	-0.06453	0.013345	0.00124464	0.000248221	0	5	0	
0.31	0.0705821	-0.0133159	0.00133073	0.000245549	0	5	0	
0.310167	-0.0650729	0.00791864	0.0013793	0.000230787	0	5	0	
0.310333	0.0643513	-0.0068129	0.00137835	0.000190642	0	5	0	
0.3105	-0.0733342	0.00939032	0.00139505	0.000179107	0	5	0	
0.310667	0.0717922	-0.0108806	0.00143427	0.000188215	0	5	0	
0.310833	-0.0612819	0.00930082	0.00143263	0.000206837	0	5	0	
0.311	0.0620063	-0.00817184	0.00140034	0.000200805	0	5	0	
0.311167	-0.0682479	0.0107371	0.00139402	0.000197994	0	5	0	
0.311333	0.0654366	-0.0136349	0.00142499	0.000214761	0	5	0	
0.3115	-0.0633545	0.0111816	0.00143209	0.000234018	0	5	0	
0.311667	0.0662471	-0.00921773	0.00142225	0.000224762	0	5	0	
0.311833	-0.0632039	0.00944048	0.00141497	0.000203956	0	5	0	
0.312	0.062719	-0.010552	0.00142459	0.000191938	0	5	0	
0.312167	-0.0659137	0.0106333	0.0014285	0.000198615	0	5	0	
0.312333	0.0623925	-0.0101365	0.00142164	0.000206061	0	5	0	
0.3125	-0.0567375	0.00959709	0.00138287	0.000207097	0	5	0	
0.312667	0.0594297	-0.011394	0.00134934	0.000208883	0	5	0	
0.312833	-0.062867	0.0107929	0.00135323	0.00021512	0	5	0	
0.313	0.0644312	-0.0112226	0.00138855	0.000218716	0	5	0	
0.313167	-0.0617247	0.0110951	0.00138994	0.00022324	0	5	0	
0.313333	0.0568133	-0.0123908	0.00134805	0.000229103	0	5	0	
0.3135	-0.0576438	0.0124232	0.00130668	0.000239118	0	5	0	
0.313667	0.0659613	-0.0108107	0.00132097	0.000237086	0	5	0	
0.313833	-0.0670987	0.0083382	0.00136405	0.000217856	0	5	0	
0.314	0.0613858	-0.0098204	0.00137838	0.000197056	0	5	0	
0.314167	-0.0579128	0.0114738	0.00134676	0.000197146	0	5	0	
0.314333	0.0593604	-0.011356	0.00132132	0.000211609	0	5	0	
0.3145	-0.0628337	0.0103071	0.00133235	0.000218271	0	5	0	
0.314667	0.0646141	-0.0107585	0.00136472	0.000219341	0	5	0	
0.314833	-0.0592688	0.0110791	0.00136949	0.000213748	0	5	0	
0.315	0.0567798	-0.00950252	0.00135474	0.000212951	0	5	0	
0.315167	-0.0596298	0.00851936	0.00134164	0.000199156	0	5	0	
0.315333	0.056413	-0.0111965	0.00131989	0.000203034	0	5	0	
0.3155	-0.0513626	0.0124258	0.00128353	0.000215975	0	5	0	
0.315667	0.0590493	-0.0117551	0.00128748	0.000234995	0	5	0	
0.315833	-0.0650015	0.0109131	0.00134648	0.000235201	0	5	0	
0.316	0.0600943	-0.0130343	0.00139013	0.000239729	0	5	0	
0.316167	-0.056985	0.0123029	0.00135204	0.000234898	0	5	0	
0.316333	0.0582826	-0.00925641	0.00128978	0.000227089	0	5	0	
0.3165	-0.0567905	0.00778653	0.00126122	0.000196451	0	5	0	
0.316667	0.0567627	-0.00944353	0.0012741	0.000184998	0	5	0	
0.316833	-0.0590242	0.0110744	0.00129933	0.000194064	0	5	0	
0.317	0.0595752	-0.0118609	0.0013248	0.000219113	0	5	0	
0.317167	-0.0574044	0.0117869	0.00132674	0.000233593	0	5	0	
0.317333	0.0573251	-0.0119418	0.00131661	0.000238187	0	5	0	
0.3175	-0.0578535	0.0111901	0.00131543	0.000233016	0	5	0	
0.317667	0.058203	-0.00974832	0.0013279	0.00022232	0	5	0	
0.317833	-0.0575586	0.009957	0.00133417	0.000206353	0	5	0	
0.318	0.0589223	-0.0114136	0.00133632	0.000208758	0	5	0	
0.318167	-0.0583333	0.0125208	0.00132447	0.000221635	0	5	0	
0.318333	0.0550761	-0.0116774	0.00130511	0.0002361	0	5	0	
0.3185	-0.0554509	0.0100739	0.0012854	0.000231661	0	5	0	
0.318667	0.0591624	-0.00923659	0.00129405	0.000219154	0	5	0	
0.318833	-0.0590694	0.00992418	0.00130942	0.000208251	0	5	0	
0.319	0.0584971	-0.0107493	0.00132407	0.000211367	0	5	0	
0.319167	-0.0595215	0.0116602	0.00132785	0.000215917	0	5	0	
0.319333	0.0576784	-0.0118355	0.00133156	0.000227857	0	5	0	
0.3195	-0.0550459	0.010892	0.00132068	0.000233181	0	5	0	
0.319667	0.0576956	-0.0106148	0.00132246	0.000238134	0	5	0	
0.319833	-0.0605249	0.0105316	0.00133737	0.000228872	0	5	0	
0.32	0.0596965	-0.0105481	0.00136377	0.000222677	0	5	0	
0.320167	-0.0572701	0.0107062	0.00136412	0.00021572	0	5	0	
0.320333	0.0579116	-0.0116084	0.0013486	0.000225272	0	5	0	
0.3205	-0.0572928	0.0103926	0.00132621	0.000228101	0	5	0	
0.320667	0.0567596	-0.00994719	0.00131171	0.000227276	0	5	0	
0.320833	-0.0571287	0.00945104	0.00130429	0.000214529	0	5	0	
0.321	0.0580095	-0.0103289	0.00131359	0.000209718	0	5	0	
0.321167	-0.0573283	0.00918043	0.0013268	0.000207892	0	5	0	
0.321333	0.0585499	-0.00979047	0.00133796	0.000208924	0	5	0	
0.3215	-0.0582	0.00910331	0.00133989	0.000208123	0	5	0	
0.321667	0.0566828	-0.0104418	0.00133764	0.000210968	0	5	0	
0.321833	-0.0578702	0.0111277	0.00133688	0.000219288	0	5	0	
0.322	0.0581603	-0.0115376	0.00134096	0.000223199	0	5	0	
0.322167	-0.0563244	0.0102328	0.00133585	0.000223093	0	5	0	
0.322333	0.0553797	-0.00997837	0.00132828	0.000214642	0	5	0	
0.3225	-0.0576873	0.00935405	0.00133187	0.000209251	0	5	0	
0.322667	0.0597746	-0.0105424	0.00135335	0.000204374	0	5	0	
0.322833	-0.057896	0.0107523	0.00135491	0.000210886	0	5	0	
0.323	0.0550345	-0.0108108	0.00133057	0.00021206	0	5	0	
0.323167	-0.05601	0.010135	0.0013106	0.000219275	0	5	0	
0.323333	0.0575727	-0.00952122	0.00132234	0.000215599	0	5	0	
0.3235	-0.0563341	0.00986599	0.00133962	0.000217768	0	5	0	
0.323667	0.0570607	-0.0107974	0.00134791	0.000218578	0	5	0	
0.323833	-0.0590074	0.0110716	0.00135419	0.000225629	0	5	0	
0.324	0.0590357	-0.0114975	0.0013689	0.000226278	0	5	0	
0.324167	-0.0585761	0.0114275	0.00137574	0.000227834	0	5	0	
0.324333	0.0584187	-0.0101731	0.00136415	0.000218826	0	5	0	
0.3245	-0.0546583	0.00857745	0.0013383	0.000206142	0	5	0	
0.324667	0.0540288	-0.00735317	0.00132629	0.000183564	0	5	0	
0.324833	-0.0589986	0.00835055	0.00135829	0.000177026	0	5	0	
0.325	0.0608672	-0.0107118	0.0014053	0.000192911	0	5	0	
0.325167	-0.0564071	0.0112198	0.00141483	0.00022107	0	5	0	
0.325333	0.0546458	-0.0112648	0.00138129	0.000238725	0	5	0	
0.3255	-0.0554578	0.0126032	0.00135935	0.00024792	0	5	0	
0.325667	0.0548804	-0.0141294	0.00137134	0.000252661	0	5	0	
0.325833	-0.0550094	0.00974664	0.00138138	0.00024497	0	5	0	
0.326	0.053849	-0.00531893	0.00136982	0.000208638	0	5	0	
0.326167	-0.0521124	0.006942	0.00134564	0.000175006	0	5	0	
0.326333	0.0536755	-0.0112147	0.00134171	0.000182092	0	5	0	
0.3265	-0.0556638	0.0109602	0.00134587	0.000215452	0	5	0	
0.326667	0.0520753	-0.0108067	0.00133645	0.000237864	0	5	0	
0.326833	-0.048708	0.0101405	0.0012954	0.000232075	0	5	0	
0.327	0.0526325	-0.0110991	0.0012829	0.000223577	0	5	0	
0.327167	-0.0586673	0.0100999	0.00131654	0.000217585	0	5	0	
0.327333	0.0562646	-0.0086535	0.00134777	0.00021151	0	5	0	
0.3275	-0.0495012	0.00857817	0.00131307	0.000203412	0	5	0	
