0	0.00050034	-0.000509051	5.0034E-08	5.09051E-08	0	0	0	
0.000166667	-0.0053082	0.00468518	2.87158E-05	2.16819E-05	0	0	0	
0.000333333	0.00967504	-0.00547897	7.56001E-05	5.05913E-05	0	0	0	
0.0005	-0.00814617	0.00359216	0.000133846	8.19499E-05	0	0	0	
0.000666667	0.00344653	-0.00341574	0.000145863	8.63798E-05	0	0	0	
0.000833333	-0.00204482	0.00443671	0.000116901	8.69794E-05	0	0	0	
0.001	0.00669809	-0.00139943	8.61584E-05	7.49941E-05	0	0	0	
0.00116667	-0.0130903	-0.00593053	0.000109406	8.22875E-05	0	0	0	
0.00133333	0.0134584	0.00881131	0.000174061	9.88381E-05	0	0	0	
0.0015	-0.011598	0.00115486	0.000233021	0.000164727	0	0	0	
0.00166667	0.00832106	-0.00764595	0.000234616	0.000202855	0	0	0	
0.00183333	-0.00703371	0.00528397	0.000208854	0.000195493	0	0	0	
0.002	0.00900755	-0.00133831	0.00018589	0.000139481	0	0	0	
0.00216667	-0.0152554	-0.000860673	0.000206976	8.33567E-05	0	0	0	
0.00233333	0.0186512	0.00461231	0.000263026	7.4118E-05	0	0	0	
0.0025	-0.0186079	-0.00637313	0.00031847	9.5252E-05	0	0	0	
0.00266667	0.0133525	0.00483132	0.000331705	0.000112402	0	0	0	
0.00283333	-0.011473	0.00200083	0.000297134	0.000100957	0	0	0	
0.003	0.00750418	-0.00567098	0.000250066	7.67311E-05	0	0	0	
0.00316667	-0.0111061	0.00162702	0.000220855	6.81905E-05	0	0	0	
0.00333333	0.019185	0.00267586	0.000251106	6.77094E-05	0	0	0	
0.0035	-0.0175942	-0.00215969	0.000294786	5.56573E-05	0	0	0	
0.00366667	0.0114556	-0.00280977	0.000314071	4.96286E-05	0	0	0	
0.00383333	-0.0121405	0.00457267	0.000278571	5.42693E-05	0	0	0	
0.004	0.0133523	-0.00263547	0.000249405	7.37056E-05	0	0	0	
0.00416667	-0.00791535	-0.00304649	0.000228721	9.03796E-05	0	0	0	
0.00433333	0.0102393	0.00242508	0.000214965	8.49623E-05	0	0	0	
0.0045	-0.0134465	0.00226688	0.00021979	7.67082E-05	0	0	0	
0.00466667	0.0145705	-0.00438753	0.000247039	7.28536E-05	0	0	0	
0.00483333	-0.0136574	0.00327306	0.000278593	8.04921E-05	0	0	0	
0.005	0.00650303	-0.00209863	0.000247212	7.32697E-05	0	0	0	
0.00516667	-0.00569929	0.0010307	0.000193555	5.97112E-05	0	0	0	
0.00533333	0.00737481	8.20779E-05	0.000145436	4.48824E-05	0	0	0	
0.0055	-0.0110506	0.000975893	0.000155357	4.7204E-05	0	0	0	
0.00566667	0.0125956	-0.00267262	0.000203852	4.96917E-05	0	0	0	
0.00583333	-0.0164705	0.00218175	0.000258176	6.15815E-05	0	0	0	
0.006	0.0161543	-0.00406827	0.000299615	6.50437E-05	0	0	0	
0.00616667	-0.0127994	0.00621691	0.000292501	7.46083E-05	0	0	0	
0.00633333	0.0115663	1.16587E-05	0.0002723	9.96217E-05	0	0	0	
0.0065	-0.0100967	-0.010402	0.000237123	0.000160636	0	0	0	
0.00666667	0.00936635	0.0128224	0.000217458	0.000200797	0	0	0	
0.00683333	-0.0118993	-0.00606801	0.000216425	0.000239665	0	0	0	
0.007	0.0175498	-0.00307653	0.000245763	0.000253271	0	0	0	
0.00716667	-0.0137798	0.00854449	0.000281074	0.000232021	0	0	0	
0.00733333	0.0128138	-0.00505796	0.000285517	0.000186699	0	0	0	
0.0075	-0.0123238	0.00409096	0.00026885	0.000117569	0	0	0	
0.00766667	0.0109463	-0.000768721	0.000244501	0.000106901	0	0	0	
0.00783333	-0.0102228	-0.00390244	0.000234921	9.44514E-05	0	0	0	
0.008	0.0137534	0.00220859	0.000236543	8.20904E-05	0	0	0	
0.00816667	-0.0129823	0.00308623	0.0002542	6.56582E-05	0	0	0	
0.00833333	0.0146162	0.000114679	0.000259823	7.05611E-05	0	0	0	
0.0085	-0.015515	0.000356766	0.000271565	6.01784E-05	0	0	0	
0.00866667	0.0256032	-0.00686656	0.00032116	7.12631E-05	0	0	0	
0.00883333	-0.0252152	-0.00950518	0.00041169	0.000129997	0	0	0	
0.009	0.0156197	0.0221797	0.000434318	0.000245499	0	0	0	
0.00916667	-0.00983377	0.00332578	0.000377973	0.000311731	0	0	0	
0.00933333	0.0186237	-0.0164355	0.000279192	0.000320655	0	0	0	
0.0095	-0.0287323	0.00312385	0.000413663	0.000413808	0	0	0	
0.00966667	-0.00302959	-0.00411857	0.000535944	0.000479757	0	0	0	
0.00983333	0.00209379	-0.00858162	0.0005721	0.000430888	0	0	0	
0.01	0.0111042	0.00343308	0.000430453	0.000240713	0	0	0	
0.0101667	0.0390123	0.0160049	0.000432133	0.000376215	0	0	0	
0.0103333	-0.0889498	-0.0410364	0.000949603	0.00105446	0	0	0	
0.0105	0.0727127	0.0912963	0.00123226	0.0016499	0	0	0	
0.0106667	0.0229865	-0.043376	0.00138665	0.00181113	0	0	0	
0.0108333	-0.056053	-0.0103427	0.00122281	0.00145925	0	0	0	
0.011	0.111637	0.0317482	0.00150406	0.00120975	0	0	0	
0.0111667	-0.0751945	-0.0690624	0.00175575	0.00096231	0	0	0	
0.0113333	0.0210287	0.0890914	0.00180402	0.00120919	0	0	0	
0.0115	0.0457546	-0.0664348	0.00205944	0.00167171	0	0	0	
0.0116667	-0.100006	-0.0102483	0.00215446	0.00203566	0	0	0	
0.0118333	-0.0503588	0.0321063	0.00202931	0.0017341	0	0	0	
0.012	0.0467079	-0.0351389	0.00172403	0.00108435	0	0	0	
0.0121667	0.0282251	0.0258349	0.00134006	0.000792154	0	0	0	
0.0123333	-0.00226053	0.0237992	0.00119145	0.000728697	0	0	0	
0.0125	0.00434679	-0.0319835	0.000588326	0.000766443	0	0	0	
0.0126667	-0.0217142	0.0207446	0.000329197	0.000658476	0	0	0	
0.0128333	-0.0330639	-0.0130472	0.000269841	0.000661823	0	0	0	
0.013	0.0316683	0.00840567	0.000633296	0.000742495	0	0	0	
0.0131667	-0.0478637	-0.00288699	0.000880352	0.000693249	0	0	0	
0.0133333	0.0482562	0.0125493	0.000959476	0.000548722	0	0	0	
0.0135	-0.0265339	-0.0225243	0.00092009	0.00045895	0	0	0	
0.0136667	0.0140106	0.0284421	0.000819217	0.000450891	0	0	0	
0.0138333	-0.00885132	-0.0239376	0.000688959	0.000578095	0	0	0	
0.014	0.00703959	0.00327495	0.000445572	0.000525404	0	0	0	
0.0141667	-0.0203345	0.00625625	0.000386281	0.000475741	0	0	0	
0.0143333	0.0124251	0.00285129	0.000450646	0.000491896	0	0	0	
0.0145	-0.00776049	-0.0339309	0.000407845	0.00065773	0	0	0	
0.0146667	0.0093934	0.0438504	0.000300996	0.000802004	0	0	0	
0.0148333	-0.0257443	-0.00417938	0.000219346	0.000864507	0	0	0	
0.015	0.0184528	-0.0365118	0.000322015	0.0009281	0	0	0	
0.0151667	0.0128344	0.0257344	0.000505365	0.000879624	0	0	0	
0.0153333	-0.0180063	0.0292394	0.000484184	0.00093276	0	0	0	
0.0155	-0.0194947	-0.0455279	0.000626045	0.000831721	0	0	0	
0.0156667	0.0394227	0.0321771	0.000557063	0.000917526	0	0	0	
0.0158333	0.000326377	-0.00980758	0.000662701	0.000746012	0	0	0	
0.016	0.0500743	0.0176334	0.000679314	0.000583818	0	0	0	
0.0161667	-0.038818	-0.00686145	0.000830622	0.000428675	0	0	0	
0.0163333	0.0156996	0.000606933	0.000909972	0.000353029	0	0	0	
0.0165	-0.0120631	-0.0193636	0.00110386	0.000607285	0	0	0	
0.0166667	0.065241	0.0664137	0.00145935	0.000906992	0	0	0	
0.0168333	-0.121316	-0.0588151	0.00179845	0.00114061	0	0	0	
0.017	0.108311	0.0229396	0.00199777	0.00102466	0	0	0	
0.0171667	-0.0145934	0.0106249	0.00179503	0.000715448	0	0	0	
0.0173333	-0.060177	-0.013601	0.00139217	0.000500369	0	0	0	
0.0175	0.0785096	0.0101183	0.00104961	0.000328606	0	0	0	
0.0176667	-0.0709626	-0.00920468	0.00111843	0.000320783	0	0	0	
0.0178333	-0.0144433	0.022545	0.00145171	0.000286764	0	0	0	
0.018	0.0731004	0.000604669	0.00175248	0.000455842	0	0	0	
0.0181667	-0.0557993	-0.0130149	0.00168911	0.000631758	0	0	0	
0.0183333	0.0220328	0.00502011	0.00138907	0.000545777	0	0	0	
0.0185	-0.00854266	0.00878242	0.00106679	0.00051307	0	0	0	
0.0186667	0.014888	-0.0140044	0.000754733	0.000381077	0	0	0	
0.0188333	-0.0296224	0.00107473	0.000700444	0.000451729	0	0	0	
0.019	0.0118204	-0.00157016	0.000468565	0.000340109	0	0	0	
0.0191667	0.0218307	-0.00910152	0.00042276	0.000264296	0	0	0	
0.0193333	-0.00904702	0.00962568	0.000326998	0.000237881	0	0	0	
0.0195	-0.00826417	-0.0126534	0.000307824	0.000196825	0	0	0	
0.0196667	0.0127955	0.00732411	0.000267412	0.000232829	0	0	0	
0.0198333	-0.012072	0.013164	0.000251989	0.000317855	0	0	0	
0.02	0.0128928	-0.0278135	0.000227497	0.000445756	0	0	0	
0.0201667	-0.000621727	0.0179354	0.000253664	0.000544563	0	0	0	
0.0203333	-0.00221623	-0.00515926	0.000415583	0.00042396	0	0	0	
0.0205	0.017711	-0.00188561	0.000499314	0.000296397	0	0	0	
0.0206667	-0.00605584	0.00297806	0.000469934	0.000186016	0	0	0	
0.0208333	-0.00996916	-0.00862881	0.000331982	0.000209616	0	0	0	
0.021	0.0179982	0.012664	0.000243647	0.000186059	0	0	0	
0.0211667	-0.0189489	-0.0229549	0.000309965	0.000247971	0	0	0	
0.0213333	0.0195671	0.0131227	0.000340975	0.000320201	0	0	0	
0.0215	-0.0237187	-0.00122312	0.000398231	0.000332255	0	0	0	
0.0216667	0.018814	-0.00288876	0.000393099	0.000223196	0	0	0	
0.0218333	-0.00965945	-0.00135036	0.000416367	9.87564E-05	0	0	0	
0.022	0.00264609	0.00151709	0.000384615	4.57376E-05	0	0	0	
0.0221667	-0.00422681	-0.00151674	0.000309824	5.31621E-05	0	0	0	
0.0223333	0.00899108	-0.00247918	0.000209302	9.94313E-05	0	0	0	
0.0225	-0.0129098	0.00665771	0.000178101	0.00013913	0	0	0	
0.0226667	0.0137279	-0.00616778	0.000203636	0.000146985	0	0	0	
0.0228333	-0.00793298	0.00225626	0.000235981	0.000119181	0	0	0	
0.023	0.00311491	0.000924159	0.000208704	8.33719E-05	0	0	0	
0.0231667	-0.0150827	-8.04618E-05	0.000200939	5.27395E-05	0	0	0	
0.0233333	0.026188	0.000189017	0.000288193	4.17629E-05	0	0	0	
0.0235	-0.0265212	-0.00090449	0.000412192	3.14576E-05	0	0	0	
0.0236667	0.0156483	0.00115714	0.000462474	3.0235E-05	0	0	0	
0.0238333	-0.0087985	0.00036533	0.000383637	2.63756E-05	0	0	0	
0.024	0.00891425	0.00192122	0.000294791	4.12598E-05	0	0	0	
0.0241667	-0.00664892	-0.00526212	0.000243033	6.33999E-05	0	0	0	
0.0243333	0.00910917	0.00274727	0.000221406	7.37164E-05	0	0	0	
0.0245	-0.0200876	0.000388273	0.000272305	7.00991E-05	0	0	0	
0.0246667	0.0214072	-0.00233552	0.000336603	5.35722E-05	0	0	0	
0.0248333	-0.0144123	0.00360717	0.000377607	4.55045E-05	0	0	0	
0.025	0.00799335	-0.00453543	0.000349173	5.86129E-05	0	0	0	
0.0251667	-0.00881943	0.00231757	0.000274831	6.53367E-05	0	0	0	
0.0253333	0.0129471	-0.00263273	0.00022906	7.88857E-05	0	0	0	
0.0255	-0.0187151	0.00102032	0.000231706	7.23738E-05	0	0	0	
0.0256667	0.0160833	-0.00032354	0.000284082	5.92201E-05	0	0	0	
0.0258333	-0.0133139	-0.000600045	0.000314341	4.12933E-05	0	0	0	
0.026	0.013541	-8.11465E-05	0.000307887	2.48746E-05	0	0	0	
0.0261667	-0.0121783	-0.000291141	0.000276872	2.0881E-05	0	0	0	
0.0263333	0.0120794	-0.0015738	0.00025935	2.8849E-05	0	0	0	
0.0265	-0.015099	0.00263526	0.000246517	4.44256E-05	0	0	0	
0.0266667	0.015368	-0.00275262	0.00026615	5.65585E-05	0	0	0	
0.0268333	-0.0152694	0.000872051	0.000288228	5.33418E-05	0	0	0	
0.027	0.0117796	-0.00155828	0.000292272	4.07343E-05	0	0	0	
0.0271667	-0.0085132	0.00369684	0.000266585	4.23737E-05	0	0	0	
0.0273333	0.000131812	-0.00228436	0.00021297	4.77994E-05	0	0	0	
0.0275	0.00819911	0.00186233	0.000155256	6.59121E-05	0	0	0	
0.0276667	-0.00609985	-0.00406338	0.000112662	7.35622E-05	0	0	0	
0.0278333	-0.00719391	0.00495139	0.000130235	9.37894E-05	0	0	0	
0.028	0.017016	-0.00542219	0.0001914	0.000112684	0	0	0	
0.0281667	-0.0224801	0.00552488	0.000271969	0.000158503	0	0	0	
0.0283333	0.014528	-0.0122883	0.000346712	0.000219828	0	0	0	
0.0285	-0.00199699	0.0185205	0.000369558	0.000271105	0	0	0	
0.0286667	-0.00384613	-0.0102465	0.000374513	0.000295486	0	0	0	
0.0288333	0.000338023	-0.00711864	0.000334427	0.000271935	0	0	0	
0.029	0.0081741	0.0145387	0.00026867	0.0002415	0	0	0	
0.0291667	-0.0218303	-0.0101331	0.000242471	0.000238897	0	0	0	
0.0293333	0.0276473	0.00715292	0.000301457	0.000263568	0	0	0	
0.0295	-0.0217032	-0.00120177	0.000428747	0.000295714	0	0	0	
0.0296667	0.0135622	-0.0065184	0.000480704	0.000286549	0	0	0	
0.0298333	-0.0103855	0.00698372	0.00043853	0.000222118	0	0	0	
0.03	0.0103812	0.000289279	0.000352018	0.000181399	0	0	0	
0.0301667	-0.0119532	-0.00476588	0.000290741	0.000172276	0	0	0	
0.0303333	0.0144086	0.00439792	0.00026362	0.000176798	0	0	0	
0.0305	-0.0183762	-0.00289746	0.000276702	0.000141282	0	0	0	
0.0306667	0.0122882	-0.00032889	0.00029726	8.20284E-05	0	0	0	
0.0308333	-0.0104037	-0.001457	0.000286069	6.35377E-05	0	0	0	
0.031	0.0139004	0.00470175	0.000245634	5.96977E-05	0	0	0	
0.0311667	-0.0182266	-0.00727056	0.000247038	9.5837E-05	0	0	0	
0.0313333	0.0149199	-0.000822963	0.000276428	0.000109156	0	0	0	
0.0315	-0.0168839	0.00616837	0.000318319	0.000116309	0	0	0	
0.0316667	0.00806801	-0.000884973	0.000305725	0.000120357	0	0	0	
0.0318333	0.00263177	-0.00475797	0.000295923	0.000138672	0	0	0	
0.032	-0.00350719	0.00487628	0.000264128	0.000138675	0	0	0	
0.0321667	-0.0112771	-0.00590062	0.000224867	0.000119362	0	0	0	
0.0323333	0.0150345	0.000195888	0.000243872	9.6315E-05	0	0	0	
0.0325	-0.0175803	0.00320586	0.000294563	7.77314E-05	0	0	0	
0.0326667	0.0185213	-0.00472278	0.000354063	6.76493E-05	0	0	0	
0.0328333	-0.0187129	0.00326804	0.000349283	6.38338E-05	0	0	0	
0.033	0.013803	-0.000917695	0.000347303	0.000103806	0	0	0	
0.0331667	-0.00912725	-0.00383499	0.000343447	0.00012312	0	0	0	
0.0333333	0.009354	0.0065759	0.000315229	0.000123757	0	0	0	
0.0335	-0.00122151	-0.00155117	0.000254939	0.000119128	0	0	0	
0.0336667	0.00536751	-0.008803	0.000201428	0.000168901	0	0	0	
0.0338333	-0.0163117	0.0193378	0.000202807	0.000251414	0	0	0	
0.034	0.0218642	-0.0118308	0.000258509	0.000329451	0	0	0	
0.0341667	-0.0207208	0.00156996	0.000337985	0.000269886	0	0	0	
0.0343333	0.0148512	-0.00102991	0.000382911	0.000178135	0	0	0	
0.0345	-0.00240634	-0.000356922	0.000361058	6.77356E-05	0	0	0	
0.0346667	0.00566247	0.00319884	0.000245392	6.13529E-05	0	0	0	
0.0348333	-0.0143716	-8.50442E-06	0.000208699	0.000101741	0	0	0	
0.035	0.019523	-0.00214804	0.000226541	0.000180132	0	0	0	
0.0351667	-0.0345096	-0.00210375	0.000361981	0.000214805	0	0	0	
0.0353333	0.0198678	-0.000519544	0.0004682	0.000172837	0	0	0	
0.0355	-0.00537534	0.000538451	0.000474802	0.00010103	0	0	0	
0.0356667	0.000871791	8.04956E-05	0.000397562	5.20701E-05	0	0	0	
0.0358333	-0.00883794	0.00760751	0.000268642	7.94073E-05	0	0	0	
0.036	0.0122273	-0.00847075	0.000271017	0.000127084	0	0	0	
0.0361667	-0.0295495	0.00509303	0.000337743	0.000164034	0	0	0	
0.0363333	0.0204376	-0.00112557	0.000450203	0.000148084	0	0	0	
0.0365	-0.00803926	-0.000582138	0.000397172	9.62274E-05	0	0	0	
0.0366667	0.0103048	-0.00203827	0.00034893	5.21174E-05	0	0	0	
0.0368333	-0.00298328	0.00215101	0.000217529	3.951E-05	0	0	0	
0.037	0.00189765	0.00231163	0.000194121	4.43736E-05	0	0	0	
0.0371667	-0.0100947	-0.000418962	0.000140934	5.31635E-05	0	0	0	
0.0373333	0.00485674	2.05826E-05	0.000140581	4.87231E-05	0	0	0	
0.0375	-0.00645578	-0.000358629	0.000140402	3.80298E-05	0	0	0	
0.0376667	0.0100116	0.000426743	0.000163412	2.947E-05	0	0	0	
0.0378333	-0.00352096	1.26734E-05	0.000172207	1.94537E-05	0	0	0	
0.038	0.0141127	-0.000730947	0.000187804	1.98545E-05	0	0	0	
0.0381667	-0.0212107	0.00131957	0.000227071	2.43021E-05	0	0	0	
0.0383333	0.0207925	-1.754E-05	0.00030459	2.99567E-05	0	0	0	
0.0385	-0.00834655	-0.00121137	0.000396783	3.45332E-05	0	0	0	
0.0386667	0.010842	0.00120216	0.000450426	3.50509E-05	0	0	0	
0.0388333	-0.00353861	-0.000793587	0.000420852	3.43911E-05	0	0	0	
0.039	0.00433869	-0.000268075	0.000320755	2.42894E-05	0	0	0	
0.0391667	-0.00759415	0.00134275	0.000210317	2.16595E-05	0	0	0	
0.0393333	0.00986907	-0.00154755	0.00018362	3.13925E-05	0	0	0	
0.0395	-0.0189237	0.00189885	0.000218478	4.27938E-05	0	0	0	
0.0396667	0.0263567	-0.00257615	0.000309744	4.53665E-05	0	0	0	
0.0398333	-0.0221976	0.00305296	0.000395327	4.44236E-05	0	0	0	
0.04	0.0200837	-0.00338952	0.000432374	4.95681E-05	0	0	0	
0.0401667	-0.0155914	0.00147604	0.000408935	5.99601E-05	0	0	0	
0.0403333	0.0102861	0.00229737	0.000353596	6.39967E-05	0	0	0	
0.0405	-0.0117771	-0.00277424	0.000335728	6.09997E-05	0	0	0	
0.0406667	0.0106481	0.00124276	0.000317242	5.17807E-05	0	0	0	
0.0408333	-0.00443888	8.22612E-06	0.000269471	3.77617E-05	0	0	0	
0.041	0.00439869	3.35694E-06	0.000202743	2.36136E-05	0	0	0	
0.0411667	-0.0110599	0.0036627	0.000161732	2.74984E-05	0	0	0	
0.0413333	0.0162305	-0.0094381	0.000183219	6.20739E-05	0	0	0	
0.0415	-0.0172004	0.0103344	0.000247109	0.000126977	0	0	0	
0.0416667	0.0142493	-0.000423695	0.000292043	0.000264531	0	0	0	
0.0418333	-0.0094064	-0.00709829	0.000293993	0.00040415	0	0	0	
0.042	0.00620807	0.00397175	0.000240021	0.00041794	0	0	0	
0.0421667	-0.0123606	0.00497359	0.000195547	0.000281883	0	0	0	
0.0423333	0.0120473	-0.00308207	0.000199617	0.000130093	0	0	0	
0.0425	-0.0123626	0.000707141	0.000218372	6.89208E-05	0	0	0	
0.0426667	0.0123373	-0.00675268	0.000240137	7.09433E-05	0	0	0	
0.0428333	-0.00669671	0.0132931	0.000221264	0.000106754	0	0	0	
0.043	-0.000658189	-0.00763648	0.000241056	0.000175889	0	0	0	
0.0431667	0.00208794	-0.00527436	0.000262075	0.000213938	0	0	0	
0.0433333	0.00532405	0.0161705	0.000267566	0.000211399	0	0	0	
0.0435	-0.0044125	-0.015697	0.000212209	0.000235729	0	0	0	
0.0436667	0.0134161	0.00288952	0.000170108	0.000331149	0	0	0	
0.0438333	-0.0114981	0.00864672	0.000187002	0.000413375	0	0	0	
0.044	-0.00258116	-0.0052917	0.000224173	0.000325671	0	0	0	
0.0441667	0.00701607	-0.00168465	0.000243504	0.000349258	0	0	0	
0.0443333	0.00178057	0.0132957	0.000200838	0.000500566	0	0	0	
0.0445	-0.0138661	-0.0312745	0.000215226	0.000781429	0	0	0	
0.0446667	0.0220807	0.0362672	0.00025132	0.000827211	0	0	0	
0.0448333	-0.0402443	-0.0207654	0.00038826	0.000718362	0	0	0	
0.045	0.040756	0.00290792	0.000577602	0.000625945	0	0	0	
0.0451667	-0.02525	0.0152503	0.000712634	0.000469407	0	0	0	
0.0453333	0.0169216	-0.0273676	0.000828524	0.000460571	0	0	0	
0.0455	-0.0123025	0.0213689	0.000727359	0.00047154	0	0	0	
0.0456667	0.00583773	0.00407985	0.000546898	0.00047934	0	0	0	
0.0458333	-0.024102	-0.00528946	0.00033853	0.000398093	0	0	0	
0.046	-0.00106265	-0.00855543	0.00038555	0.000318837	0	0	0	
0.0461667	-0.00870098	0.00453679	0.000482159	0.000311133	0	0	0	
0.0463333	0.0347862	0.00668624	0.000568119	0.000272839	0	0	0	
0.0465	-0.0406261	-0.00332588	0.000643683	0.000162266	0	0	0	
0.0466667	0.0245301	0.00764825	0.000725111	0.000180529	0	0	0	
0.0468333	-0.0664526	-0.0126451	0.000834636	0.00021919	0	0	0	
0.047	0.0502022	0.0123889	0.00100262	0.000273429	0	0	0	
0.0471667	-0.0129531	-0.00925616	0.000866261	0.000246245	0	0	0	
0.0473333	-0.00523675	0.00209296	0.000648693	0.000239702	0	0	0	
0.0475	0.000263489	0.00536996	0.000222546	0.000201484	0	0	0	
0.0476667	-0.0173117	-0.00704722	0.000221797	0.000183157	0	0	0	
0.0478333	-0.0382845	0.00316452	0.000332727	0.00013552	0	0	0	
0.048	0.0234764	-0.00183841	0.000653253	0.000119786	0	0	0	
0.0481667	0.00381989	0.00815641	0.00082307	0.000106929	0	0	0	
0.0483333	-0.0407133	-0.00666082	0.00104372	0.000120784	0	0	0	
0.0485	-0.13612	0.00495828	0.00166818	0.000114923	0	0	0	
0.0486667	0.374186	-0.012865	0.00297281	0.000152078	0	0	0	
0.0488333	-0.47171	0.0162118	0.00544302	0.000187648	0	0	0	
0.049	0.0917863	-0.0097997	0.00855308	0.000241078	0	0	0	
0.0491667	0.270287	0.00355175	0.0110811	0.000297319	0	0	0	
0.0493333	-0.384219	0.00389218	0.0106294	0.000298051	0	0	0	
0.0495	0.230181	-0.00362483	0.00820966	0.000234835	0	0	0	
0.0496667	0.00537183	-0.00521127	0.00602804	0.000149802	0	0	0	
0.0498333	-0.323768	0.00123952	0.00630711	8.47305E-05	0	0	0	
0.05	0.540919	0.00158788	0.00754283	9.31188E-05	0	0	0	
0.0501667	-0.430654	0.00342592	0.00852213	8.25013E-05	0	0	0	
0.0503333	0.0885834	-0.0085224	0.00861112	0.000101055	0	0	0	
0.0505	0.127268	0.0041181	0.0080308	0.000126562	0	0	0	
0.0506667	-0.137331	0.00467991	0.00632914	0.000179655	0	0	0	
0.0508333	0.029634	-0.00723427	0.00392835	0.000186877	0	0	0	
0.051	-0.0118193	0.000749344	0.00175554	0.000166395	0	0	0	
0.0511667	0.0325503	0.00917358	0.000832723	0.000130072	0	0	0	
0.0513333	-0.0710429	-0.00843382	0.000752213	0.000162678	0	0	0	
0.0515	0.0551009	0.00139802	0.00102529	0.000222938	0	0	0	
0.0516667	-0.0112626	0.0040026	0.000971083	0.000243361	0	0	0	
0.0518333	-0.0321797	-0.00462909	0.000828392	0.000177449	0	0	0	
0.052	-0.0287537	0.00228656	0.000576745	0.000114597	0	0	0	
0.0521667	0.039445	-0.00234048	0.000668001	7.26806E-05	0	0	0	
0.0523333	0.0088893	0.000153527	0.000633584	6.46061E-05	0	0	0	
0.0525	-0.030281	0.00458047	0.000575931	6.09603E-05	0	0	0	
0.0526667	0.00549911	-0.00851636	0.000442951	7.82434E-05	0	0	0	
0.0528333	-0.00605904	0.00441843	0.000590924	0.000139088	0	0	0	
0.053	-0.00862653	0.00657581	0.000648159	0.000240654	0	0	0	
0.0531667	-0.0150002	-0.0155887	0.000511939	0.000333393	0	0	0	
0.0533333	0.0256974	0.0103301	0.000446462	0.000391985	0	0	0	
0.0535	-0.0341759	-0.0104895	0.000439165	0.000361354	0	0	0	
0.0536667	0.0348842	0.0109756	0.000628172	0.00028296	0	0	0	
0.0538333	-0.0249557	-0.00211327	0.000724608	0.00026348	0	0	0	
0.054	0.010207	-0.0139767	0.000780176	0.000330487	0	0	0	
0.0541667	-0.00304339	0.0264018	0.000756383	0.000404754	0	0	0	
0.0543333	-0.000486188	-0.0276346	0.000620064	0.000459266	0	0	0	
0.0545	0.00100021	0.0156801	0.000472862	0.000464846	0	0	0	
0.0546667	0.00774257	-0.00198462	0.000300851	0.000486384	0	0	0	
0.0548333	-0.0111279	-0.0128425	0.000311264	0.00047225	0	0	0	
0.055	0.0109809	0.0201831	0.000356762	0.000403436	0	0	0	
0.0551667	-0.0368701	-0.0168492	0.000544778	0.000395099	0	0	0	
0.0553333	0.0472713	0.00737038	0.0005654	0.000420469	0	0	0	
0.0555	-0.0599587	1.1609E-05	0.000851344	0.000409417	0	0	0	
0.0556667	-0.00732066	0.00178058	0.000793659	0.00036338	0	0	0	
0.0558333	0.00592703	-0.0126085	0.000701446	0.000382293	0	0	0	
0.056	0.0204203	0.0178165	0.000437495	0.000430693	0	0	0	
0.0561667	-0.0392369	-0.0177637	0.000543351	0.000445165	0	0	0	
0.0563333	-0.0211956	0.0154788	0.000600814	0.000371637	0	0	0	
0.0565	0.013649	-0.00921479	0.00064057	0.000361922	0	0	0	
0.0566667	0.00452665	0.00804787	0.000415891	0.000397434	0	0	0	
0.0568333	-0.0348216	-0.013433	0.000299485	0.000407434	0	0	0	
0.057	0.0499101	0.0189005	0.000494004	0.000413781	0	0	0	
0.0571667	-0.0513488	-0.0191935	0.000715537	0.00038134	0	0	0	
0.0573333	-0.00104612	0.0144379	0.000901981	0.000347	0	0	0	
0.0575	-0.00676594	-0.00385621	0.000803019	0.00027978	0	0	0	
0.0576667	0.00976421	0.000927046	0.000807633	0.000205409	0	0	0	
0.0578333	-0.00450838	-0.000742113	0.000839009	0.00022555	0	0	0	
0.058	0.0173747	0.00821932	0.000784662	0.000370281	0	0	0	
0.0581667	0.00453173	-0.0177769	0.000646042	0.000547645	0	0	0	
0.0583333	0.0486086	0.0307371	0.000594348	0.00061385	0	0	0	
0.0585	-0.0421025	-0.0374006	0.000648455	0.000628162	0	0	0	
0.0586667	0.0318776	0.0306565	0.000811475	0.000631807	0	0	0	
0.0588333	0.0138038	-0.015541	0.000792605	0.000586175	0	0	0	
0.059	0.0300896	-0.00725135	0.000790925	0.000461306	0	0	0	
0.0591667	0.0240468	0.0155313	0.000664973	0.000335356	0	0	0	
0.0593333	0.00895029	-0.00143751	0.000763916	0.000239096	0	0	0	
0.0595	0.00550567	-0.00920459	0.000684584	0.000242239	0	0	0	
0.0596667	-0.0261459	0.00972226	0.000659411	0.000259761	0	0	0	
0.0598333	-0.0044603	-0.0052566	0.000463	0.000253057	0	0	0	
0.06	0.0211833	-0.00628227	0.000375263	0.000217253	0	0	0	
0.0601667	-0.0097657	0.0144751	0.000434311	0.000202379	0	0	0	
0.0603333	0.021604	-0.00430661	0.000408153	0.000224593	0	0	0	
0.0605	-0.0426797	-0.0115743	0.000626179	0.000253808	0	0	0	
0.0606667	-0.00901343	0.0222212	0.000702745	0.000283915	0	0	0	
0.0608333	0.00268672	-0.0216861	0.000884647	0.000355108	0	0	0	
0.061	-0.00314626	0.0107324	0.000615007	0.000394809	0	0	0	
0.0611667	0.00745286	0.00225325	0.000408657	0.000413495	0	0	0	
0.0613333	-0.00464815	-0.00611074	0.000254527	0.000400812	0	0	0	
0.0615	-0.00891619	0.00174826	0.000237817	0.000315229	0	0	0	
0.0616667	-0.000315204	0.00547472	0.000186965	0.000211624	0	0	0	
0.0618333	0.00397395	-0.0113209	0.00013382	0.000180467	0	0	0	
0.062	-0.00498398	0.00678371	0.000140596	0.000193957	0	0	0	
0.0621667	-0.0227681	0.00444246	0.000204272	0.000177967	0	0	0	
0.0623333	0.0338784	-0.00910131	0.000318209	0.000146131	0	0	0	
0.0625	-0.0140323	0.00662924	0.000452821	0.000130055	0	0	0	
0.0626667	0.00441026	-0.00262248	0.000626717	0.000131466	0	0	0	
0.0628333	0.00740666	-0.000197432	0.000689747	0.000113687	0	0	0	
0.063	-0.00722394	0.000862303	0.00064882	8.50354E-05	0	0	0	
0.0631667	-0.00148119	0.00102302	0.000464187	7.95303E-05	0	0	0	
0.0633333	0.0144565	-0.00495154	0.000329497	7.86575E-05	0	0	0	
0.0635	-0.0122075	0.00585868	0.000272315	8.73335E-05	0	0	0	
0.0636667	0.0268632	-0.00191004	0.000347151	0.00010146	0	0	0	
0.0638333	-0.0200345	-0.00275485	0.000432585	9.81012E-05	0	0	0	
0.064	-0.0102302	0.00199147	0.000434084	8.522E-05	0	0	0	
0.0641667	-0.00116629	0.000613096	0.000350035	6.5395E-05	0	0	0	
0.0643333	0.0087769	-0.0018743	0.000212346	4.50007E-05	0	0	0	
0.0645	-0.00852061	0.000455139	0.000201811	3.41403E-05	0	0	0	
0.0646667	0.0255515	0.00137581	0.000268483	3.59147E-05	0	0	0	
0.0648333	-0.0190054	-0.000927307	0.000409234	4.11711E-05	0	0	0	
0.065	-0.0161274	-0.00317486	0.000431034	5.69609E-05	0	0	0	
0.0651667	0.0328487	0.00634308	0.000532187	8.71811E-05	0	0	0	
0.0653333	-0.0194506	-0.00419707	0.000535875	0.000128398	0	0	0	
0.0655	0.0133816	-0.00128015	0.000541491	0.000181424	0	0	0	
0.0656667	-0.0119606	0.00983008	0.000393572	0.000208889	0	0	0	
0.0658333	0.00662127	-0.0112269	0.000326485	0.000208995	0	0	0	
0.066	-0.00267535	0.00121398	0.000315307	0.000211795	0	0	0	
0.0661667	-0.0180587	0.0120078	0.000376171	0.000248482	0	0	0	
0.0663333	0.0103142	-0.015854	0.000482158	0.000274166	0	0	0	
0.0665	-0.00298821	0.00985638	0.000592748	0.000275294	0	0	0	
0.0666667	-0.0103237	-0.00182461	0.000545189	0.000256132	0	0	0	
0.0668333	0.0223798	-0.00717563	0.00049044	0.000259214	0	0	0	
0.067	-0.00552371	0.0147443	0.000456095	0.000250098	0	0	0	
0.0671667	-0.0170532	-0.0119275	0.000458822	0.000243494	0	0	0	
0.0673333	0.023525	-0.00150099	0.000473798	0.00024534	0	0	0	
0.0675	-0.0136927	0.00740841	0.000373033	0.000236171	0	0	0	
0.0676667	0.00538681	-0.00460082	0.000397211	0.000186541	0	0	0	
0.0678333	0.0207828	-0.000941108	0.000433104	0.00014397	0	0	0	
0.068	-0.00972458	0.00202998	0.000593084	0.000101707	0	0	0	
0.0681667	0.00362279	-0.00115152	0.000546972	7.91461E-05	0	0	0	
0.0683333	0.00656361	-0.000294965	0.000355129	4.09158E-05	0	0	0	
0.0685	-0.00341698	-0.00178018	0.000164061	2.89225E-05	0	0	0	
0.0686667	0.00248592	0.00312833	0.000127927	3.58452E-05	0	0	0	
0.0688333	-0.00545964	-0.00286689	0.000225252	4.41734E-05	0	0	0	
0.069	0.0163204	-2.77372E-06	0.000344911	5.23777E-05	0	0	0	
0.0691667	-0.0100847	0.000953418	0.00038615	6.35509E-05	0	0	0	
0.0693333	0.0122131	-0.00182008	0.000328073	9.78965E-05	0	0	0	
0.0695	-0.0113349	0.00210839	0.000286361	0.00015141	0	0	0	
0.0696667	0.0159037	-0.00248507	0.000361542	0.000169131	0	0	0	
0.0698333	-0.010656	0.00099114	0.00050005	0.000128678	0	0	0	
0.07	0.0023864	0.000583575	0.000542784	8.09116E-05	0	0	0	
0.0701667	-0.000341874	-0.00311408	0.000425828	5.73147E-05	0	0	0	
0.0703333	0.013694	0.00729811	0.00026479	7.46627E-05	0	0	0	
0.0705	-0.0338983	-0.0149657	0.000269098	0.000142733	0	0	0	
0.0706667	0.0357475	0.00890361	0.000419433	0.000212221	0	0	0	
0.0708333	-0.0239245	-8.87924E-05	0.000584124	0.000245455	0	0	0	
0.071	0.00977728	0.00098897	0.000605799	0.00017089	0	0	0	
0.0711667	0.00591407	-0.00710346	0.000577397	0.000126991	0	0	0	
0.0713333	-0.00930852	0.010483	0.000485182	0.000126333	0	0	0	
0.0715	-0.00302537	-0.0116828	0.000332711	0.000173953	0	0	0	
0.0716667	0.00481656	0.00781952	0.000200852	0.00018823	0	0	0	
0.0718333	-0.0019531	-0.00434311	0.000107777	0.000168404	0	0	0	
0.072	0.0117972	0.00192061	0.000168558	0.000140104	0	0	0	
0.0721667	-0.0118519	0.00132258	0.000230647	8.51731E-05	0	0	0	
0.0723333	0.00612319	0.000208041	0.000311643	8.79133E-05	0	0	0	
0.0725	-0.00672252	-0.00350505	0.000314421	0.0001246	0	0	0	
0.0726667	0.008473	0.00453893	0.000288793	0.000169883	0	0	0	
0.0728333	-0.00166128	-0.00366819	0.000324178	0.000160979	0	0	0	
0.073	4.50861E-05	0.00320591	0.000394619	0.000109027	0	0	0	
0.0731667	0.00302384	-0.000935346	0.000392427	7.36923E-05	0	0	0	
0.0733333	-0.00159745	-0.00270611	0.000300702	6.71691E-05	0	0	0	
0.0735	0.000735303	0.00490254	0.000229211	8.31057E-05	0	0	0	
0.0736667	-0.00804291	-0.00629937	0.000244051	0.000102171	0	0	0	
0.0738333	0.000616879	0.00390923	0.000258792	0.000102688	0	0	0	
0.074	0.00599844	0.00225481	0.000221948	0.000109759	0	0	0	
0.0741667	-0.00462248	-0.00857655	0.000224856	0.000112832	0	0	0	
0.0743333	-0.00377825	0.00707737	0.000267745	0.000138558	0	0	0	
0.0745	0.00305974	0.00850723	0.000265618	0.00023039	0	0	0	
0.0746667	0.0107421	-0.0254263	0.000206695	0.000303815	0	0	0	
0.0748333	-0.013589	0.016421	0.000196405	0.000423638	0	0	0	
0.075	0.00272568	0.0143686	0.000291975	0.000616055	0	0	0	
0.0751667	7.82403E-05	-0.0288366	0.000352214	0.000768144	0	0	0	
0.0753333	0.00383991	0.0205327	0.000293649	0.000750685	0	0	0	
0.0755	0.00193665	-0.00815521	0.000239924	0.0005057	0	0	0	
0.0756667	-0.00430301	-0.0066355	0.000316408	0.000335265	0	0	0	
0.0758333	0.00822682	0.0260822	0.00039481	0.000306967	0	0	0	
0.076	0.00292591	-0.029621	0.000338933	0.000389938	0	0	0	
0.0761667	-0.00541681	0.0133343	0.000204262	0.00051537	0	0	0	
0.0763333	0.00310279	0.00352898	0.000157785	0.000613996	0	0	0	
0.0765	-0.00142738	-0.00790035	0.000170704	0.000550528	0	0	0	
0.0766667	0.012811	0.000262447	0.000204303	0.000350321	0	0	0	
0.0768333	-0.0165176	0.00598578	0.000287492	0.000158032	0	0	0	
0.077	0.00888364	-0.00237864	0.000410779	8.73949E-05	0	0	0	
0.0771667	0.0032268	-0.00834932	0.000477605	0.000120056	0	0	0	
0.0773333	-0.00525938	0.0144483	0.000404715	0.00014812	0	0	0	
0.0775	-0.00228291	-0.0112372	0.000293619	0.000224136	0	0	0	
0.0776667	0.0044825	-0.000767671	0.000240356	0.000285076	0	0	0	
0.0778333	-0.00850622	0.00526032	0.000272424	0.000290264	0	0	0	
0.078	0.00405486	0.000242244	0.00029127	0.000196539	0	0	0	
0.0781667	-0.00285753	-0.0096336	0.000266781	0.000108969	0	0	0	
0.0783333	0.00299777	0.010208	0.00021593	0.000107021	0	0	0	
0.0785	-0.00554243	-0.00718459	0.000200559	0.000152197	0	0	0	
0.0786667	0.00617389	0.0082548	0.000227955	0.00017484	0	0	0	
0.0788333	-0.00385421	-0.00590715	0.000277228	0.000160279	0	0	0	
0.079	0.00198384	0.00214632	0.000328918	0.000149309	0	0	0	
0.0791667	-0.00292561	-0.00130026	0.000365915	0.000115247	0	0	0	
0.0793333	-0.000360722	0.00620903	0.0003904	0.000108922	0	0	0	
0.0795	0.0117167	-0.0026372	0.00037664	0.00011402	0	0	0	
0.0796667	-0.00839381	-0.000922621	0.00033435	0.000107178	0	0	0	
0.0798333	0.00101051	0.00237921	0.000239116	7.16757E-05	0	0	0	
0.08	0.00489349	-0.0015658	0.000189875	3.45729E-05	0	0	0	
0.0801667	-0.00932884	-0.000128605	0.000191509	3.75186E-05	0	0	0	
0.0803333	0.0192688	0.00110791	0.000266969	3.35696E-05	0	0	0	
0.0805	-0.0174237	0.00132448	0.000409457	3.1926E-05	0	0	0	
0.0806667	-0.00367544	-0.00767853	0.000689231	5.99152E-05	0	0	0	
0.0808333	0.04979	0.00841293	0.0008837	9.89841E-05	0	0	0	
0.081	-0.0285795	-0.00178582	0.000909502	0.000137076	0	0	0	
0.0811667	-0.0101735	-0.00525614	0.000714855	0.000138926	0	0	0	
0.0813333	0.0210256	0.00189315	0.000480203	0.000125792	0	0	0	
0.0815	-0.00100986	0.00580862	0.00042081	0.0001211	0	0	0	
0.0816667	0.00758336	-0.00383601	0.000353777	0.000131531	0	0	0	
0.0818333	0.0214761	-0.00218929	0.000424423	0.000252904	0	0	0	
0.082	0.0106419	0.00686207	0.000422724	0.000365679	0	0	0	
0.0821667	0.00838733	-0.00897663	0.000595012	0.000399058	0	0	0	
0.0823333	-0.0026917	0.00633121	0.000586421	0.00029064	0	0	0	
0.0825	-0.109559	0.0016714	0.00070687	0.000195793	0	0	0	
0.0826667	0.115999	-0.011764	0.00157032	0.000174431	0	0	0	
0.0828333	-0.0157248	0.0175906	0.00175989	0.000199458	0	0	0	
0.083	0.0517875	-0.0221665	0.00226094	0.000292105	0	0	0	
0.0831667	-0.0320126	0.0138824	0.00202684	0.00034312	0	0	0	
0.0833333	-0.0170458	-0.00311644	0.00226043	0.00031438	0	0	0	
0.0835	0.00415721	-0.00113065	0.00167867	0.000174126	0	0	0	
0.0836667	0.0440615	0.00136828	0.00119438	7.04167E-05	0	0	0	
0.0838333	0.0207294	-0.00423747	0.00143402	3.8045E-05	0	0	0	
0.084	0.0800534	0.00596451	0.00164073	4.68731E-05	0	0	0	
0.0841667	-0.14071	-0.00931192	0.00208233	0.000115253	0	0	0	
0.0843333	0.0560098	0.00460998	0.00189104	0.000206634	0	0	0	
0.0845	-0.00376847	0.00351294	0.00191267	0.00025986	0	0	0	
0.0846667	-0.00167717	-0.00416181	0.00126491	0.000202366	0	0	0	
0.0848333	-0.0153606	0.00126935	0.000785823	0.00013526	0	0	0	
0.085	0.00808535	0.00270093	0.000555155	9.1334E-05	0	0	0	
0.0851667	0.0108272	-0.0034023	0.000632845	8.97481E-05	0	0	0	
0.0853333	-0.0213661	0.00046721	0.000738816	7.47755E-05	0	0	0	
0.0855	0.0126791	0.00462526	0.000649422	7.47512E-05	0	0	0	
0.0856667	0.00393159	-0.0055779	0.000388657	8.86366E-05	0	0	0	
0.0858333	-0.00530769	0.00413835	0.000204328	9.78341E-05	0	0	0	
0.086	-0.00831548	-0.00398082	0.000286628	9.63679E-05	0	0	0	
0.0861667	0.030305	0.00317458	0.000470669	8.25967E-05	0	0	0	
0.0863333	-0.0172391	-0.00238331	0.000568188	7.65904E-05	0	0	0	
0.0865	-0.033024	-0.00218741	0.000836248	8.08889E-05	0	0	0	
0.0866667	0.0219624	0.0115177	0.00099923	0.000104922	0	0	0	
0.0868333	-0.0393493	-0.0109679	0.00119447	0.000147721	0	0	0	
0.087	0.0020102	0.0032983	0.000962287	0.000172183	0	0	0	
0.0871667	-0.0039903	-0.00163748	0.000648624	0.000193298	0	0	0	
0.0873333	-0.0201868	-0.00268642	0.000444178	0.000188952	0	0	0	
0.0875	0.042924	0.00625147	0.000366683	0.000174528	0	0	0	
0.0876667	-0.00278992	0.00187399	0.00067343	0.000140683	0	0	0	
0.0878333	-0.0584671	-0.0176125	0.000762395	0.000174798	0	0	0	
0.088	0.0029128	0.0217693	0.000995188	0.000250673	0	0	0	
0.0881667	0.0737323	-0.00364416	0.00103467	0.000347851	0	0	0	
0.0883333	-0.0545635	-0.0103724	0.00117787	0.000349943	0	0	0	
0.0885	0.0031203	0.00688112	0.0011113	0.000278385	0	0	0	
0.0886667	0.017009	0.00461907	0.000836386	0.000222223	0	0	0	
0.0888333	-0.0209868	-0.0110575	0.000569783	0.000184179	0	0	0	
0.089	0.0374244	0.013033	0.000465436	0.000209456	0	0	0	
0.0891667	0.0122579	-0.00752498	0.000632248	0.000203426	0	0	0	
0.0893333	-0.0225717	-0.00283698	0.000971917	0.000188741	0	0	0	
0.0895	0.0345157	0.00930463	0.00105111	0.000171977	0	0	0	
0.0896667	-0.00950851	-0.00885172	0.000870636	0.00015684	0	0	0	
0.0898333	-0.00606478	0.000433467	0.000471581	0.000171143	0	0	0	
0.09	0.00415769	0.00640312	0.000263999	0.000148118	0	0	0	
0.0901667	0.00780107	-0.00202048	0.000273428	0.000152924	0	0	0	
0.0903333	-0.00476725	-0.0109586	0.000307686	0.00021047	0	0	0	
0.0905	-0.00458396	0.020997	0.000243372	0.000292493	0	0	0	
0.0906667	0.00612283	-0.0194864	0.000140292	0.000358427	0	0	0	
0.0908333	-0.000453173	0.0118744	0.000151222	0.000345998	0	0	0	
0.091	-0.00647149	-0.00243955	0.00024033	0.000297017	0	0	0	
0.0911667	0.010706	-0.00389001	0.000296733	0.000212918	0	0	0	
0.0913333	-0.00739319	0.00430474	0.000283219	0.000143934	0	0	0	
0.0915	-0.00165764	0.000876694	0.000209031	0.000150353	0	0	0	
0.0916667	0.000142055	-0.00466005	0.000155295	0.000194997	0	0	0	
0.0918333	0.000384327	0.00636925	0.000155842	0.000242465	0	0	0	
0.092	0.002345	-0.0088152	0.000213199	0.000243392	0	0	0	
0.0921667	0.0017722	0.0074977	0.000275565	0.000212783	0	0	0	
0.0923333	-0.00990517	0.000370508	0.00032469	0.000157237	0	0	0	
0.0925	0.0133368	-0.00546862	0.000338092	9.85488E-05	0	0	0	
0.0926667	0.0098562	-6.6693E-05	0.000318448	7.74934E-05	0	0	0	
0.0928333	-0.068997	0.00388191	0.000392055	7.40233E-05	0	0	0	
0.093	0.125943	-0.00207213	0.00112053	7.82899E-05	0	0	0	
0.0931667	-0.0393922	-0.00423711	0.00153664	6.58099E-05	0	0	0	
0.0933333	-0.00555337	0.00354241	0.00167825	6.47849E-05	0	0	0	
0.0935	0.0162497	9.1094E-05	0.00103215	6.18619E-05	0	0	0	
0.0936667	-0.0148847	-0.00308721	0.000653505	5.63482E-05	0	0	0	
0.0938333	-0.00191239	0.00380661	0.000365673	5.36162E-05	0	0	0	
0.094	0.0800067	-0.000997904	0.000482765	6.91268E-05	0	0	0	
0.0941667	-0.0361703	-0.00468502	0.00101404	0.000111023	0	0	0	
0.0943333	0.0254644	0.00732056	0.00114454	0.000153028	0	0	0	
0.0945	-0.00408912	-0.00424749	0.00101073	0.000161373	0	0	0	
0.0946667	-0.0072064	0.00141323	0.000525352	0.000119542	0	0	0	
0.0948333	0.00312042	-0.00231683	0.000424178	7.0663E-05	0	0	0	
0.095	0.00339115	0.00194743	0.000313545	4.17213E-05	0	0	0	
0.0951667	-0.00654123	-0.000274904	0.000253241	3.51436E-05	0	0	0	
0.0953333	0.00259592	-0.000956193	0.00028339	3.71889E-05	0	0	0	
0.0955	0.00230052	-0.000313584	0.000313371	5.06814E-05	0	0	0	
0.0956667	-0.00213411	0.000769278	0.000278409	6.59505E-05	0	0	0	
0.0958333	-4.48161E-05	-4.29942E-05	0.000229376	6.87057E-05	0	0	0	
0.096	-0.00270249	2.08966E-06	0.000219195	6.30485E-05	0	0	0	
0.0961667	0.00642806	-0.00175961	0.00023286	7.04347E-05	0	0	0	
0.0963333	-0.00506195	0.00453851	0.000230077	8.6639E-05	0	0	0	
0.0965	0.00710207	-0.00637922	0.000203395	9.65137E-05	0	0	0	
0.0966667	-0.00377496	0.00360423	0.000182378	9.94793E-05	0	0	0	
0.0968333	-0.000330722	0.000864906	0.000185669	9.11829E-05	0	0	0	
0.097	-0.00475104	-0.00110549	0.000210221	6.39621E-05	0	0	0	
0.0971667	0.00708124	-0.00116691	0.000236616	4.29397E-05	0	0	0	
0.0973333	-0.00295836	0.000899398	0.000217865	2.98696E-05	0	0	0	
0.0975	-0.000141733	6.15056E-05	0.000152458	5.18707E-05	0	0	0	
0.0976667	0.000212631	-0.00161227	0.000117644	5.15106E-05	0	0	0	
0.0978333	0.00291006	0.000649188	0.000167208	5.22977E-05	0	0	0	
0.098	-0.0046116	0.0010487	0.000248694	4.72834E-05	0	0	0	
0.0981667	0.0084031	-0.00229368	0.000285386	5.45462E-05	0	0	0	
0.0983333	-0.00503069	0.00131447	0.000275336	5.23974E-05	0	0	0	
0.0985	0.007021	-0.00187517	0.000242996	4.67509E-05	0	0	0	
0.0986667	-0.00343806	-0.00012691	0.000214115	4.68442E-05	0	0	0	
0.0988333	-0.000229678	0.00164482	0.000179759	4.94872E-05	0	0	0	
0.099	0.0018137	-0.00213881	0.000185275	4.27121E-05	0	0	0	
0.0991667	0.00128169	0.000777174	0.00021642	4.52194E-05	0	0	0	
0.0993333	-0.00475817	0.000664619	0.000261078	5.49551E-05	0	0	0	
0.0995	0.00435493	-0.00153267	0.000281969	5.14192E-05	0	0	0	
0.0996667	-0.00253477	0.00198417	0.000266653	4.91947E-05	0	0	0	
0.0998333	0.00409969	-0.000251786	0.000231418	4.27243E-05	0	0	0	
0.1	-0.00433419	0.00142552	0.000206647	4.34418E-05	0	0	0	
0.100167	0.0038094	-0.00169959	0.000200634	3.26673E-05	0	0	0	
0.100333	-0.00448683	-0.00139432	0.000216722	5.44581E-05	0	0	0	
0.1005	0.0060813	0.0103796	0.000243314	0.000104618	0	0	0	
0.100667	-0.00389413	-0.0135341	0.00025202	0.00016428	0	0	0	
0.100833	0.00409866	0.00458575	0.000219115	0.000229512	0	0	0	
0.101	-0.0027285	0.00712957	0.000178887	0.000276213	0	0	0	
0.101167	0.00239709	-0.00718357	0.000169197	0.00024411	0	0	0	
0.101333	-0.00206032	-1.21016E-05	0.000203837	0.000212036	0	0	0	
0.1015	0.00666166	0.00467632	0.00024538	0.000168848	0	0	0	
0.101667	-0.00434129	-0.00771088	0.000248211	0.000176778	0	0	0	
0.101833	-0.0140241	0.0106866	0.000206616	0.000164177	0	0	0	
0.102	0.0128583	-0.00788695	0.000274349	0.000163617	0	0	0	
0.102167	-0.00794802	-0.00074882	0.000251488	0.00018743	0	0	0	
0.102333	-0.000600555	0.00546595	0.000313702	0.000160369	0	0	0	
0.1025	0.00556489	-0.00039464	0.000265404	0.000139018	0	0	0	
0.102667	-0.00931996	-0.00535022	0.000324834	0.000110341	0	0	0	
0.102833	0.0104801	0.00385525	0.000301807	0.000111037	0	0	0	
0.103	-0.0109302	0.00165269	0.000255385	0.00012069	0	0	0	
0.103167	0.0101139	-0.00214569	0.000286612	0.000102465	0	0	0	
0.103333	-0.000467918	-0.00231338	0.000250701	8.58382E-05	0	0	0	
0.1035	0.00157053	0.00406194	0.00023507	5.73683E-05	0	0	0	
0.103667	-0.00305762	-0.00202566	0.00016485	5.67424E-05	0	0	0	
0.103833	0.0028922	-0.000636169	0.000174679	6.51066E-05	0	0	0	
0.104	-0.00192174	0.00260763	0.000172302	5.9766E-05	0	0	0	
0.104167	0.000638571	-0.00120742	0.000178475	5.20285E-05	0	0	0	
0.104333	-0.00490452	-0.000593833	0.000227818	3.3287E-05	0	0	0	
0.1045	0.00746642	0.000850411	0.000281479	2.29808E-05	0	0	0	
0.104667	-0.0068409	-0.00156483	0.000281744	2.08743E-05	0	0	0	
0.104833	0.00429099	0.000345261	0.000222367	2.58262E-05	0	0	0	
0.105	-0.00168949	0.00181965	0.000162339	2.74E-05	0	0	0	
0.105167	0.00263113	-0.00037565	0.000171125	2.59015E-05	0	0	0	
0.105333	-0.00592706	-0.00042393	0.000227695	2.0383E-05	0	0	0	
0.1055	0.00675099	-0.00296134	0.00026841	2.77399E-05	0	0	0	
0.105667	-0.00757907	0.000477837	0.000254041	4.21906E-05	0	0	0	
0.105833	0.00738534	0.00886131	0.000221405	8.85464E-05	0	0	0	
0.106	-0.00441959	-0.0143051	0.000181084	0.000142532	0	0	0	
0.106167	0.00160408	0.0111459	0.000141923	0.000213888	0	0	0	
0.106333	-0.00224183	-0.000572814	0.00011341	0.000272942	0	0	0	
0.1065	0.00519441	-0.0090053	0.0001119	0.000292774	0	0	0	
0.106667	-0.00473085	0.0114289	0.000128762	0.000266424	0	0	0	
0.106833	0.00615854	-0.00747	0.000148043	0.000213374	0	0	0	
0.107	-0.00476828	-0.00241888	0.000176697	0.000209892	0	0	0	
0.107167	0.00602231	0.0130683	0.00020229	0.000235606	0	0	0	
0.107333	-0.00769395	-0.0144153	0.000232204	0.000265709	0	0	0	
0.1075	0.00970619	0.00736203	0.000252053	0.000253528	0	0	0	
0.107667	-0.0125165	0.000920057	0.000268934	0.000221477	0	0	0	
0.107833	0.00840122	-0.00488126	0.000270907	0.000174251	0	0	0	
0.108	-0.00684129	0.00348871	0.000244996	0.00013383	0	0	0	
0.108167	0.00142572	-0.00201472	0.000205938	9.11144E-05	0	0	0	
0.108333	-0.00186914	-0.000195919	0.000164335	5.78094E-05	0	0	0	
0.1085	0.00200585	-0.000860213	0.000172021	3.66978E-05	0	0	0	
0.108667	-0.00522543	0.00199894	0.000205411	2.94966E-05	0	0	0	
0.108833	0.00626574	-0.00283592	0.000249508	4.72908E-05	0	0	0	
0.109	-0.00627653	0.00165088	0.000269745	7.31937E-05	0	0	0	
0.109167	0.00656418	-0.00189344	0.000280442	7.83494E-05	0	0	0	
0.109333	-0.00476345	0.000452277	0.00028455	6.08166E-05	0	0	0	
0.1095	0.00539676	-0.000904404	0.000286823	4.33463E-05	0	0	0	
0.109667	-0.00705182	-0.00356	0.000291194	5.34337E-05	0	0	0	
0.109833	0.00733459	0.010625	0.000295279	7.75068E-05	0	0	0	
0.11	-0.008596	-0.0206004	0.000288201	0.000185459	0	0	0	
0.110167	0.00708714	0.00265131	0.000265177	0.000276605	0	0	0	
0.110333	-0.00293765	0.0114319	0.000230319	0.000352749	0	0	0	
0.1105	0.00424482	-0.0117466	0.000208118	0.000283427	0	0	0	
0.110667	-0.00529891	0.0057108	0.000209243	0.000233036	0	0	0	
0.110833	0.0050577	0.00263133	0.000220827	0.000206281	0	0	0	
0.111	-0.007602	-0.0129229	0.000218209	0.000232508	0	0	0	
0.111167	0.00926013	0.00457976	0.000209905	0.000260661	0	0	0	
0.111333	-0.00497373	-0.00307405	0.000197332	0.000226316	0	0	0	
0.1115	0.000981665	-0.00123075	0.000202764	0.000195206	0	0	0	
0.111667	-0.00431051	0.00288944	0.000235545	0.000120719	0	0	0	
0.111833	0.0110691	-0.000383243	0.000275211	8.8385E-05	0	0	0	
0.112	-0.0108675	0.000666237	0.000302071	4.46192E-05	0	0	0	
0.112167	0.010775	-0.00173704	0.000281766	3.7131E-05	0	0	0	
0.112333	-0.00905166	0.0033925	0.00025378	5.92506E-05	0	0	0	
0.1125	0.00504358	-0.00405713	0.000226765	9.54992E-05	0	0	0	
0.112667	-0.00327288	0.00446916	0.000194515	0.000109839	0	0	0	
0.112833	0.00618589	-0.00236071	0.000182185	9.70369E-05	0	0	0	
0.113	-0.00896193	-0.00156745	0.000203016	9.0481E-05	0	0	0	
0.113167	0.00841047	0.00302383	0.000234094	9.16832E-05	0	0	0	
0.113333	-0.00634145	-0.0027962	0.000235105	8.71288E-05	0	0	0	
0.1135	0.00659211	0.00227072	0.000214836	9.64526E-05	0	0	0	
0.113667	-0.00646801	-0.00166683	0.000220152	0.000109856	0	0	0	
0.113833	0.0076405	0.000489217	0.000234225	0.000112598	0	0	0	
0.114	-0.00849985	-0.000371025	0.000244083	7.3846E-05	0	0	0	
0.114167	0.0076031	0.000307049	0.000239639	3.45803E-05	0	0	0	
0.114333	-0.00840342	-0.000960463	0.00024132	1.67669E-05	0	0	0	
0.1145	0.00882663	0.00315313	0.000245657	2.51897E-05	0	0	0	
0.114667	-0.00835238	-0.00356412	0.000243381	5.06373E-05	0	0	0	
0.114833	0.00642596	0.000650297	0.00023167	7.09855E-05	0	0	0	
0.115	-0.00815983	0.00250865	0.000210064	6.05122E-05	0	0	0	
0.115167	0.00703432	0.000652265	0.000214293	5.923E-05	0	0	0	
0.115333	-0.00898127	-0.00676788	0.000249688	8.00382E-05	0	0	0	
0.1155	0.0142569	0.00803049	0.000307358	0.000113403	0	0	0	
0.115667	-0.0122457	0.00175387	0.000314617	0.000189407	0	0	0	
0.115833	0.00349299	-0.0175611	0.00026469	0.000277577	0	0	0	
0.116	0.00220455	0.0225122	0.000169729	0.000354774	0	0	0	
0.116167	0.00183379	-0.00877378	0.000178394	0.000377011	0	0	0	
0.116333	-0.00466838	-0.00867882	0.000250135	0.000375801	0	0	0	
0.1165	0.00925504	0.0143921	0.000324039	0.000329912	0	0	0	
0.116667	-0.0108335	-0.0128811	0.000321918	0.000293218	0	0	0	
0.116833	0.012164	0.00802715	0.000291632	0.000256703	0	0	0	
0.117	-0.0119822	0.0010991	0.000277561	0.000288302	0	0	0	
0.117167	0.0123503	-0.00919903	0.000271327	0.000288346	0	0	0	
0.117333	-0.00847748	0.00702238	0.000258905	0.000237461	0	0	0	
0.1175	0.00684212	0.00290139	0.000235362	0.000191438	0	0	0	
0.117667	-0.00836029	-0.00671864	0.000214565	0.000136784	0	0	0	
0.117833	0.00765662	0.000581906	0.000212171	0.000119732	0	0	0	
0.118	-0.00597261	0.00485705	0.00022071	7.35038E-05	0	0	0	
0.118167	0.00935209	-0.00383169	0.000244711	8.5543E-05	0	0	0	
0.118333	-0.0124075	-0.00124345	0.000296594	0.000114692	0	0	0	
0.1185	0.0109525	0.00360874	0.000347003	0.000126782	0	0	0	
0.118667	-0.00801514	-3.65357E-06	0.00032118	0.000102235	0	0	0	
0.118833	0.00734649	-0.00363785	0.00024667	7.31463E-05	0	0	0	
0.119	-0.00854753	0.00232551	0.00020327	6.94395E-05	0	0	0	
0.119167	0.0148366	0.00334867	0.000231346	8.43352E-05	0	0	0	
0.119333	-0.0131877	-0.00604849	0.000270406	8.38338E-05	0	0	0	
0.1195	0.00730151	0.00299977	0.000263592	0.000106535	0	0	0	
0.119667	-0.00416995	0.0017181	0.00021218	0.000106585	0	0	0	
0.119833	0.00963776	-0.00227952	0.00018747	9.90311E-05	0	0	0	
0.12	-0.0104557	0.00184415	0.000210404	6.4504E-05	0	0	0	
0.120167	0.010418	0.000125934	0.000255134	4.0551E-05	0	0	0	
0.120333	-0.0100841	-0.000522462	0.000284843	3.45534E-05	0	0	0	
0.1205	0.0134521	0.0026953	0.000298633	4.13818E-05	0	0	0	
0.120667	-0.0120505	-0.0026298	0.000299392	5.06823E-05	0	0	0	
0.120833	0.00753084	0.00814067	0.000261227	7.84054E-05	0	0	0	
0.121	-0.00243707	-0.0112469	0.000193489	0.000121847	0	0	0	
0.121167	0.00412535	0.00411215	0.000135262	0.000181446	0	0	0	
0.121333	-0.00433688	0.00543263	0.000130896	0.000244954	0	0	0	
0.1215	0.00840276	-0.00442254	0.000158266	0.000250416	0	0	0	
0.121667	-0.00887302	0.00157151	0.000194565	0.000179194	0	0	0	
0.121833	0.00925162	0.0010582	0.000203051	8.90145E-05	0	0	0	
0.122	-0.00889843	-0.00344847	0.000201131	4.01086E-05	0	0	0	
0.122167	0.0090052	0.00671411	0.000188354	5.75602E-05	0	0	0	
0.122333	-0.00729753	-0.00736559	0.000184009	9.44791E-05	0	0	0	
0.1225	0.0138392	0.00138958	0.000214196	0.000138984	0	0	0	
0.122667	-0.0206326	0.00217908	0.000299594	0.000162736	0	0	0	
0.122833	0.0199583	-0.00118832	0.000365282	0.000124414	0	0	0	
0.123	-0.0110256	0.000776339	0.000370731	7.67733E-05	0	0	0	
0.123167	0.00692182	-6.27241E-06	0.000289063	4.2819E-05	0	0	0	
0.123333	-0.00815405	0.00261065	0.000226892	6.44299E-05	0	0	0	
0.1235	0.00843003	-0.00516706	0.000206133	7.43103E-05	0	0	0	
0.123667	-0.00915788	0.00104807	0.000231561	7.86197E-05	0	0	0	
0.123833	0.010528	0.00363509	0.000253817	6.48396E-05	0	0	0	
0.124	-0.0125696	-0.00224448	0.00027381	5.96543E-05	0	0	0	
0.124167	0.0109445	-0.0018561	0.000278462	5.724E-05	0	0	0	
0.124333	-0.00950941	0.0027383	0.000260923	5.27193E-05	0	0	0	
0.1245	0.00875658	-0.000813365	0.000245267	5.16103E-05	0	0	0	
0.124667	-0.0120742	-0.000346379	0.00024151	5.61055E-05	0	0	0	
0.124833	0.013025	0.00172567	0.000254497	5.91715E-05	0	0	0	
0.125	-0.0115808	-0.000206103	0.00025746	5.56464E-05	0	0	0	
0.125167	0.0115225	-0.0012083	0.000261465	3.89775E-05	0	0	0	
0.125333	-0.0116057	0.00185271	0.00026141	3.81291E-05	0	0	0	
0.1255	0.00976903	-0.00050906	0.000251349	4.12085E-05	0	0	0	
0.125667	-0.00759148	0.000294834	0.000222727	4.11406E-05	0	0	0	
0.125833	0.0103453	-0.00160388	0.000205182	3.16536E-05	0	0	0	
0.126	-0.00861452	0.00188993	0.000201659	3.48462E-05	0	0	0	
0.126167	0.00684401	-0.00228322	0.000198257	4.11627E-05	0	0	0	
0.126333	-0.00649438	0.00155036	0.000197597	4.34233E-05	0	0	0	
0.1265	0.00997034	0.000329842	0.000210882	3.99357E-05	0	0	0	
0.126667	-0.0113459	-0.00174002	0.000244361	3.97028E-05	0	0	0	
0.126833	0.0143113	0.00126611	0.000262501	3.58186E-05	0	0	0	
0.127	-0.0111151	-0.000423319	0.000262723	3.93827E-05	0	0	0	
0.127167	0.00862971	-0.00124412	0.000233784	4.59995E-05	0	0	0	
0.127333	-0.00730826	0.00269309	0.000207525	5.6215E-05	0	0	0	
0.1275	0.00674417	-0.00223499	0.000184734	5.3596E-05	0	0	0	
0.127667	-0.0085201	0.000441383	0.000200011	4.28082E-05	0	0	0	
0.127833	0.0118024	0.000421745	0.000225182	3.92875E-05	0	0	0	
0.128	-0.0119504	-0.000561578	0.000254599	2.85961E-05	0	0	0	
0.128167	0.0117181	-0.000626436	0.000258564	2.84424E-05	0	0	0	
0.128333	-0.011752	0.00217986	0.000252877	2.78537E-05	0	0	0	
0.1285	0.0097684	-0.00211978	0.000237165	3.67283E-05	0	0	0	
0.128667	-0.00933449	0.000418826	0.000229552	3.51171E-05	0	0	0	
0.128833	0.00923534	-0.000339514	0.000222269	3.1816E-05	0	0	0	
0.129	-0.00985367	5.13804E-06	0.000218628	2.87365E-05	0	0	0	
0.129167	0.0109081	3.80063E-05	0.000220279	2.87735E-05	0	0	0	
0.129333	-0.0104773	-3.32613E-05	0.000228708	2.25676E-05	0	0	0	
0.1295	0.00956303	-0.00104798	0.000226397	1.77616E-05	0	0	0	
0.129667	-0.0112366	0.000330498	0.00022724	1.78728E-05	0	0	0	
0.129833	0.0113254	-0.000614413	0.000228858	2.36387E-05	0	0	0	
0.13	-0.00973882	0.000890404	0.000237176	3.09868E-05	0	0	0	
0.130167	0.010967	-0.00142855	0.000236274	3.39507E-05	0	0	0	
0.130333	-0.0127962	0.00089982	0.000238923	3.68307E-05	0	0	0	
0.1305	0.0123574	-0.00101249	0.000244507	3.76437E-05	0	0	0	
0.130667	-0.0117834	0.000595339	0.000251221	3.82751E-05	0	0	0	
0.130833	0.0113313	0.00100596	0.000255097	3.20493E-05	0	0	0	
0.131	-0.0114145	-0.0017627	0.000259193	2.84433E-05	0	0	0	
0.131167	0.0115931	-0.000871237	0.00024927	4.8956E-05	0	0	0	
0.131333	-0.00831134	0.00741448	0.000229324	8.92016E-05	0	0	0	
0.1315	0.00970177	-0.0086275	0.000206459	0.000124577	0	0	0	
0.131667	-0.0118925	-0.00164193	0.000230505	0.000189073	0	0	0	
0.131833	0.0133072	0.0123692	0.000270981	0.000246829	0	0	0	
0.132	-0.0137038	-0.010655	0.000309495	0.000266695	0	0	0	
0.132167	0.0156498	0.00116955	0.000313162	0.000240407	0	0	0	
0.132333	-0.0136992	0.00668093	0.000304512	0.000200893	0	0	0	
0.1325	0.00857211	-0.010859	0.000266931	0.000196701	0	0	0	
0.132667	-0.00474916	0.0129986	0.00022183	0.000196746	0	0	0	
0.132833	0.00504632	-0.00868869	0.000202428	0.000208459	0	0	0	
0.133	-0.00782591	0.000209515	0.000227466	0.000235733	0	0	0	
0.133167	0.0114824	0.00440575	0.000260786	0.000216478	0	0	0	
0.133333	-0.0144418	0.000435031	0.000271602	0.000158252	0	0	0	
0.1335	0.0124115	-0.00566467	0.000262726	0.000110264	0	0	0	
0.133667	-0.0103272	0.00507656	0.000250818	9.14171E-05	0	0	0	
0.133833	0.00825366	-0.000816937	0.000225891	9.42732E-05	0	0	0	
0.134	-0.00713708	-0.00173199	0.00019751	6.18055E-05	0	0	0	
0.134167	0.0106885	0.000465782	0.000180946	4.71395E-05	0	0	0	
0.134333	-0.0112341	0.00259836	0.000186832	5.09178E-05	0	0	0	
0.1345	0.0103057	-0.00319899	0.000207027	6.06062E-05	0	0	0	
0.134667	-0.0114284	0.0012001	0.000225872	5.72437E-05	0	0	0	
0.134833	0.012048	0.000297474	0.000238117	3.71151E-05	0	0	0	
0.135	-0.0120115	-0.000170936	0.000244347	2.74948E-05	0	0	0	
0.135167	0.0110059	-0.000431465	0.000242637	2.07076E-05	0	0	0	
0.135333	-0.0104166	0.000696963	0.000230908	1.92734E-05	0	0	0	
0.1355	0.010249	-0.000160441	0.000218849	1.86006E-05	0	0	0	
0.135667	-0.0118241	-0.000375236	0.000217352	1.42675E-05	0	0	0	
0.135833	0.0122561	0.000348136	0.000229068	1.47117E-05	0	0	0	
0.136	-0.0126575	0.000274378	0.000244468	1.30736E-05	0	0	0	
0.136167	0.0121188	0.00154261	0.000247194	1.6102E-05	0	0	0	
0.136333	-0.0103359	-0.00273652	0.00023901	2.75722E-05	0	0	0	
0.1365	0.00899175	0.0016326	0.000217536	4.53961E-05	0	0	0	
0.136667	-0.0111021	0.0035273	0.000208189	7.60565E-05	0	0	0	
0.136833	0.0107698	-0.00879243	0.000216658	9.59563E-05	0	0	0	
0.137	-0.0117283	0.00308765	0.000240332	0.000161614	0	0	0	
0.137167	0.0108062	0.00765764	0.000257547	0.000246474	0	0	0	
0.137333	-0.0132632	-0.0102188	0.000260429	0.000295874	0	0	0	
0.1375	0.0139103	0.00506569	0.000272864	0.000247354	0	0	0	
0.137667	-0.0179241	-0.000538595	0.000283554	0.00015138	0	0	0	
0.137833	0.014994	-0.00422412	0.00030729	8.45146E-05	0	0	0	
0.138	-0.00942788	0.00686797	0.000280623	7.683E-05	0	0	0	
0.138167	0.00761188	-0.00748301	0.000242699	0.000101678	0	0	0	
0.138333	-0.00751461	0.00366696	0.00017592	0.000151074	0	0	0	
0.1385	0.00710404	0.000257765	0.000158975	0.000174786	0	0	0	
0.138667	-0.00915664	-0.000729366	0.000171604	0.000135724	0	0	0	
0.138833	0.0163039	-0.00173286	0.000234363	8.05986E-05	0	0	0	
0.139	-0.0206391	0.000919214	0.000305305	3.84922E-05	0	0	0	
0.139167	0.0205404	0.00348254	0.000361503	7.4006E-05	0	0	0	
0.139333	-0.0168847	-0.00687819	0.000371828	0.000105264	0	0	0	
0.1395	0.0136535	0.00402204	0.000341496	0.000122452	0	0	0	
0.139667	-0.0111297	0.000494339	0.000295747	0.000104577	0	0	0	
0.139833	0.00712449	-0.00170898	0.000245052	7.25948E-05	0	0	0	
0.14	-0.00608588	-0.000495884	0.000195559	5.28912E-05	0	0	0	
0.140167	0.00624972	0.00280309	0.000178115	3.67399E-05	0	0	0	
0.140333	-0.010333	-0.00188201	0.000190367	3.93403E-05	0	0	0	
0.1405	0.0143703	7.65702E-05	0.000229585	3.3281E-05	0	0	0	
0.140667	-0.0131077	0.000157448	0.000254661	2.40265E-05	0	0	0	
0.140833	0.0091723	0.000806301	0.000244222	2.08607E-05	0	0	0	
0.141	-0.00856641	-0.00155532	0.00020855	2.32527E-05	0	0	0	
0.141167	0.0102103	0.00170402	0.000184481	2.9102E-05	0	0	0	
0.141333	-0.0083567	-0.0016133	0.000173481	2.99561E-05	0	0	0	
0.1415	0.00972234	0.000650752	0.000181468	3.09197E-05	0	0	0	
0.141667	-0.0143934	0.000297998	0.000202035	2.6928E-05	0	0	0	
0.141833	0.0146947	-0.000899287	0.000237624	1.88967E-05	0	0	0	
0.142	-0.0146649	0.00048821	0.00026893	1.91105E-05	0	0	0	
0.142167	0.0128471	2.43247E-05	0.000272402	1.9042E-05	0	0	0	
0.142333	-0.00985364	-0.00035436	0.000251011	2.43242E-05	0	0	0	
0.1425	0.0106553	-0.00204355	0.000232832	3.21491E-05	0	0	0	
0.142667	-0.0120312	0.00280324	0.000218319	4.31413E-05	0	0	0	
0.142833	0.0129416	-0.000809554	0.000227313	4.54051E-05	0	0	0	
0.143	-0.0134578	-0.00064132	0.000233854	3.76258E-05	0	0	0	
0.143167	0.0110743	-0.00039014	0.000245927	2.39426E-05	0	0	0	
0.143333	-0.0102716	0.00149648	0.000235849	2.42209E-05	0	0	0	
0.1435	0.0143747	-0.000619012	0.00024892	2.40742E-05	0	0	0	
0.143667	-0.00684505	-0.000294781	0.000242155	3.2785E-05	0	0	0	
0.143833	0.000955847	-0.000438314	0.000207382	4.2623E-05	0	0	0	
0.144	-0.00813742	0.0016963	0.000159068	4.28841E-05	0	0	0	
0.144167	0.0175549	-0.00115873	0.00017545	4.18332E-05	0	0	0	
0.144333	-0.0169624	0.00210205	0.000242138	3.2804E-05	0	0	0	
0.1445	0.0174484	-0.00200183	0.000308538	3.92276E-05	0	0	0	
0.144667	-0.0152705	0.00126573	0.000322926	3.80676E-05	0	0	0	
0.144833	0.0111977	0.000252897	0.000304975	3.0696E-05	0	0	0	
0.145	-0.00527037	0.000246247	0.000272566	2.48791E-05	0	0	0	
0.145167	0.00523644	-0.00240916	0.000206	3.12669E-05	0	0	0	
0.145333	-0.00890186	0.00300062	0.000177132	4.9133E-05	0	0	0	
0.1455	0.014064	-0.00298683	0.000179161	5.91415E-05	0	0	0	
0.145667	-0.0139367	0.0012553	0.000223847	5.46453E-05	0	0	0	
0.145833	0.0106755	0.000942129	0.000238465	4.15016E-05	0	0	0	
0.146	-0.00973654	-0.00132229	0.000232172	2.82118E-05	0	0	0	
0.146167	0.011674	-0.000827396	0.000208915	2.4579E-05	0	0	0	
0.146333	-0.0115262	0.000317664	0.000221352	2.53419E-05	0	0	0	
0.1465	0.0118835	0.00127723	0.000225375	2.40828E-05	0	0	0	
0.146667	-0.0136442	-0.00246919	0.000242201	2.76625E-05	0	0	0	
0.146833	0.0144003	0.000994118	0.000246947	4.1524E-05	0	0	0	
0.147	-0.0121961	0.00794801	0.000257389	0.000105407	0	0	0	
0.147167	0.0072427	-0.0174787	0.000237449	0.000193474	0	0	0	
0.147333	-0.00578325	0.017173	0.000201701	0.000272686	0	0	0	
0.1475	0.00703274	-0.00671018	0.000181624	0.000301225	0	0	0	
0.147667	-0.012033	-0.0035555	0.000206884	0.000287792	0	0	0	
0.147833	0.0182967	0.00616429	0.000256884	0.000208921	0	0	0	
0.148	-0.0129235	-0.00217945	0.000283293	0.000158264	0	0	0	
0.148167	-0.0036056	-0.00291539	0.000271684	0.000145603	0	0	0	
0.148333	0.0116821	0.0096574	0.000209319	0.000217311	0	0	0	
0.1485	-0.000568125	-0.0155605	0.00027849	0.000265012	0	0	0	
0.148667	-0.0113361	0.0107292	0.000383417	0.000267332	0	0	0	
0.148833	0.0170306	-0.00131549	0.000440183	0.000227004	0	0	0	
0.149	-0.0145557	-0.00165645	0.000373292	0.000146911	0	0	0	
0.149167	0.011464	-0.00260269	0.00027752	0.000104961	0	0	0	
0.149333	-0.00156274	0.00673238	0.000276365	9.0991E-05	0	0	0	
0.1495	-0.0110537	-0.00659001	0.000251168	0.000115105	0	0	0	
0.149667	0.00682013	0.00274267	0.000225013	0.000112435	0	0	0	
0.149833	0.00870346	-0.00200776	0.000231124	8.83105E-05	0	0	0	
0.15	-0.0161009	0.00264188	0.000250755	6.58777E-05	0	0	0	
0.150167	0.0140224	-0.00380876	0.00028217	5.56582E-05	0	0	0	
0.150333	-0.0111278	0.00299322	0.000265251	5.98821E-05	0	0	0	
0.1505	0.0109336	-0.000391981	0.000249131	5.5064E-05	0	0	0	
0.150667	-0.0137478	-0.000734752	0.000240715	3.81056E-05	0	0	0	
0.150833	0.0150029	-9.2536E-05	0.000241982	2.31966E-05	0	0	0	
0.151	-0.0121063	0.000816578	0.00025826	1.63578E-05	0	0	0	
0.151167	0.00942415	-0.00284884	0.000244355	3.17775E-05	0	0	0	
0.151333	-0.0095593	0.00421822	0.000219812	4.81703E-05	0	0	0	
0.1515	0.0119768	-0.00292945	0.00020027	6.46825E-05	0	0	0	
0.151667	-0.0132373	0.000778279	0.000210524	7.68429E-05	0	0	0	
0.151833	0.0124438	0.000321909	0.000230546	9.27582E-05	0	0	0	
0.152	-0.011652	-0.00377972	0.000239732	0.000104137	0	0	0	
0.152167	0.00892297	0.00387418	0.000226144	9.18642E-05	0	0	0	
0.152333	-0.00945663	0.00225558	0.000204381	9.79013E-05	0	0	0	
0.1525	0.012255	-0.00849701	0.000201213	0.000106687	0	0	0	
0.152667	-0.0125632	0.00623907	0.000220362	0.000141366	0	0	0	
0.152833	0.0129082	0.000919749	0.000244859	0.000183724	0	0	0	
0.153	-0.0112147	-0.00446555	0.000247088	0.000199765	0	0	0	
0.153167	0.012966	0.00183534	0.000241771	0.000164946	0	0	0	
0.153333	-0.0126417	0.000451386	0.000237373	9.42924E-05	0	0	0	
0.1535	0.00916658	-0.00206793	0.000231554	5.72886E-05	0	0	0	
0.153667	-0.0077844	0.0044546	0.000207713	5.5E-05	0	0	0	
0.153833	0.0105398	-0.00459248	0.000188819	7.24925E-05	0	0	0	
0.154	-0.00981609	0.000972562	0.000179527	0.000101363	0	0	0	
0.154167	0.0102593	0.00148594	0.000187412	0.000119919	0	0	0	
0.154333	-0.0106436	-0.000599411	0.000193439	9.04238E-05	0	0	0	
0.1545	0.0116063	-0.00209754	0.000201229	5.97215E-05	0	0	0	
0.154667	-0.013977	0.0028313	0.000219684	3.70818E-05	0	0	0	
0.154833	0.0149241	-0.00033536	0.000246345	5.31964E-05	0	0	0	
0.155	-0.0123361	-0.00291717	0.000259585	5.49476E-05	0	0	0	
0.155167	0.0120948	0.00309889	0.000255966	6.01297E-05	0	0	0	
0.155333	-0.0114535	-0.000499812	0.000238107	5.53992E-05	0	0	0	
0.1555	0.0113586	-0.0021902	0.000225064	4.87791E-05	0	0	0	
0.155667	-0.0127725	0.0022329	0.000225609	4.41422E-05	0	0	0	
0.155833	0.0124719	-0.000923041	0.000232948	4.61098E-05	0	0	0	
0.156	-0.00992943	-0.000445522	0.000235589	4.42291E-05	0	0	0	
0.156167	0.008318	0.0010274	0.00021445	3.96291E-05	0	0	0	
0.156333	-0.0101548	-0.000260594	0.000190586	3.15025E-05	0	0	0	
0.1565	0.0129247	-0.000483142	0.000189842	2.56808E-05	0	0	0	
0.156667	-0.0134712	-4.24567E-05	0.000218898	1.9658E-05	0	0	0	
0.156833	0.0143482	-0.00106058	0.000249814	1.31247E-05	0	0	0	
0.157	-0.0148256	0.00187253	0.000265681	1.68759E-05	0	0	0	
0.157167	0.0125288	-0.00194712	0.000272493	2.62235E-05	0	0	0	
0.157333	-0.0103226	0.000953406	0.000263791	3.27687E-05	0	0	0	
0.1575	0.0107949	-0.000446837	0.000242158	2.98334E-05	0	0	0	
0.157667	-0.012351	0.000557971	0.000226859	2.06926E-05	0	0	0	
0.157833	0.0135424	-7.23886E-05	0.00022553	1.59424E-05	0	0	0	
0.158	-0.0130269	1.6784E-05	0.000243537	1.3973E-05	0	0	0	
0.158167	0.0125445	-0.000277653	0.000245915	1.3409E-05	0	0	0	
0.158333	-0.0127027	0.000392391	0.000248661	1.27711E-05	0	0	0	
0.1585	0.0116223	-0.00138397	0.000241717	1.2464E-05	0	0	0	
0.158667	-0.0109838	0.00195629	0.000234705	2.03784E-05	0	0	0	
0.158833	0.0117423	-0.00135368	0.000221798	2.76595E-05	0	0	0	
0.159	-0.0127713	-0.000129945	0.000224023	2.68106E-05	0	0	0	
0.159167	0.0107278	0.000145518	0.000224666	1.68714E-05	0	0	0	
0.159333	-0.0124613	0.000436397	0.000230022	1.32104E-05	0	0	0	
0.1595	0.0113473	-0.00165536	0.000226537	2.06583E-05	0	0	0	
0.159667	-0.00946978	0.00189702	0.000225851	3.03272E-05	0	0	0	
0.159833	0.00933256	-0.000320125	0.000212638	3.39819E-05	0	0	0	
0.16	-0.0113913	-0.000956771	0.000203095	2.80707E-05	0	0	0	
0.160167	0.0128235	-0.000379049	0.000205216	2.17899E-05	0	0	0	
0.160333	-0.0156102	0.00083976	0.000232302	1.70877E-05	0	0	0	
0.1605	0.0155062	-0.000288688	0.000264043	2.04539E-05	0	0	0	
0.160667	-0.014456	0.00179383	0.000287259	2.86183E-05	0	0	0	
0.160833	0.00768788	-0.00222903	0.000273282	3.31196E-05	0	0	0	
0.161	-0.00493561	-0.00206888	0.000226796	4.83085E-05	0	0	0	
0.161167	0.0166945	0.00527699	0.000205759	6.59327E-05	0	0	0	
0.161333	-0.0425433	-0.00335895	0.000301395	8.29925E-05	0	0	0	
0.1615	0.0885687	0.00265553	0.000729171	7.8684E-05	0	0	0	
0.161667	-0.0376791	-0.00254029	0.00104536	5.98403E-05	0	0	0	
0.161833	0.00675586	0.000471188	0.00107895	3.854E-05	0	0	0	
0.162	-0.00233548	0.000938271	0.000687833	2.61975E-05	0	0	0	
0.162167	0.0089466	-0.00294039	0.000344079	2.76519E-05	0	0	0	
0.162333	-0.0209909	0.00401823	0.000239863	6.66406E-05	0	0	0	
0.1625	0.0531996	0.00163272	0.000360028	0.000144063	0	0	0	
0.162667	-0.01822	-0.00904209	0.000675528	0.000214567	0	0	0	
0.162833	0.0059526	0.00917054	0.000752573	0.000227071	0	0	0	
0.163	-0.0260479	0.000625573	0.0011366	0.000192408	0	0	0	
0.163167	0.00482699	-0.00659399	0.00158601	0.000157918	0	0	0	
0.163333	-0.0511709	0.0125985	0.00180576	0.000163936	0	0	0	
0.1635	0.0460596	-0.00791859	0.00149512	0.000176376	0	0	0	
0.163667	0.00235862	0.000881496	0.00109158	0.00019004	0	0	0	
0.163833	-0.0865158	0.0044225	0.00115427	0.000186486	0	0	0	
0.164	0.216838	-0.00300956	0.00183261	0.000158769	0	0	0	
0.164167	-0.195109	-0.00511088	0.00301519	0.000119868	0	0	0	
0.164333	0.0150524	0.00953194	0.00346765	0.000110116	0	0	0	
0.1645	0.0460787	-0.00586352	0.00292826	0.000141709	0	0	0	
0.164667	-0.0392743	0.00332003	0.00156351	0.000156898	0	0	0	
0.164833	0.000532853	-0.000949454	0.000967542	0.00011874	0	0	0	
0.165	0.0919348	0.00385561	0.00105028	7.64071E-05	0	0	0	
0.165167	-0.0853823	-0.00679412	0.00177058	8.47331E-05	0	0	0	
0.165333	0.0345081	0.00834909	0.00182695	0.000129634	0	0	0	
0.1655	0.00500219	-0.00350391	0.00149614	0.000133964	0	0	0	
0.165667	-0.0371971	-0.0023924	0.000700659	0.00011951	0	0	0	
0.165833	0.0216376	0.00318898	0.000599013	7.73513E-05	0	0	0	
0.166	-0.0132703	-0.000312237	0.000520302	7.407E-05	0	0	0	
0.166167	0.0117874	-0.00234449	0.000450408	7.43954E-05	0	0	0	
0.166333	-0.0171651	0.00173076	0.000281047	8.508E-05	0	0	0	
0.1665	0.0199848	-0.00175235	0.000294524	7.51632E-05	0	0	0	
0.166667	-0.0127647	0.00275592	0.000317023	5.46383E-05	0	0	0	
0.166833	0.00694127	-0.00302431	0.000340421	4.95086E-05	0	0	0	
0.167	-0.000443387	0.000251688	0.000361513	5.60844E-05	0	0	0	
0.167167	0.0124225	0.000776123	0.000304735	5.40116E-05	0	0	0	
0.167333	-0.0121634	0.00163924	0.000264348	5.32579E-05	0	0	0	
0.1675	0.00624127	-0.00276669	0.000237778	5.09812E-05	0	0	0	
0.167667	-0.00429731	0.00128327	0.000241618	5.74749E-05	0	0	0	
0.167833	0.00695382	0.00321279	0.00019485	8.15608E-05	0	0	0	
0.168	-0.0103319	-0.00814999	0.000144006	0.000101011	0	0	0	
0.168167	0.0115836	0.00616646	0.000170796	0.000133835	0	0	0	
0.168333	-0.0109268	-0.000780508	0.00021585	0.00016446	0	0	0	
0.1685	0.0103302	-0.00384781	0.000246595	0.000179701	0	0	0	
0.168667	-0.00710636	0.00407759	0.000245835	0.000151633	0	0	0	
0.168833	0.00499725	-0.00286997	0.000220541	0.000106062	0	0	0	
0.169	-0.00658376	-0.000417373	0.000186883	9.31107E-05	0	0	0	
0.169167	0.0090986	0.00570412	0.000159619	0.000115654	0	0	0	
0.169333	-0.00945429	-0.00582094	0.000173157	0.000116874	0	0	0	
0.1695	0.00832784	0.000234561	0.000189134	0.000114092	0	0	0	
0.169667	-0.0078218	0.00446127	0.00019614	0.000101297	0	0	0	
0.169833	0.00833529	-0.003494	0.000183831	9.4412E-05	0	0	0	
0.17	-0.0111027	-2.53129E-07	0.000193657	8.18442E-05	0	0	0	
0.170167	0.0103912	0.00131792	0.000204739	5.78918E-05	0	0	0	
0.170333	-0.0117477	0.000987883	0.000228646	5.77698E-05	0	0	0	
0.1705	0.0112377	-0.00413505	0.000232296	6.67384E-05	0	0	0	
0.170667	-0.00723605	0.00490115	0.000241543	8.87359E-05	0	0	0	
0.170833	0.00422469	-0.0015742	0.000226976	8.53892E-05	0	0	0	
0.171	-0.0055756	-0.00111091	0.000196226	7.13466E-05	0	0	0	
0.171167	0.00942442	0.000894246	0.000168514	5.13733E-05	0	0	0	
0.171333	-0.0139859	0.00078811	0.000180481	3.57577E-05	0	0	0	
0.1715	0.0146321	-0.00151659	0.00021895	2.69539E-05	0	0	0	
0.171667	-0.0135805	0.00197826	0.000259309	3.34621E-05	0	0	0	
0.171833	0.0110338	-0.00145547	0.000264557	3.77053E-05	0	0	0	
0.172	-0.0109561	0.00107064	0.000262687	3.7573E-05	0	0	0	
0.172167	0.0104991	-0.000915258	0.000247457	3.74977E-05	0	0	0	
0.172333	-0.0107299	0.00108238	0.000236765	3.75674E-05	0	0	0	
0.1725	0.0100332	-0.000900505	0.000224495	3.56337E-05	0	0	0	
0.172667	-0.00959786	0.00180044	0.000216984	2.97995E-05	0	0	0	
0.172833	0.010519	-0.00118609	0.000209493	2.85115E-05	0	0	0	
0.173	-0.0128714	0.000840797	0.000214972	2.62925E-05	0	0	0	
0.173167	0.0118365	-0.000398316	0.000233241	2.45039E-05	0	0	0	
0.173333	-0.0107103	0.00106485	0.000240594	2.87557E-05	0	0	0	
0.1735	0.0115239	-0.00203516	0.000239513	3.06843E-05	0	0	0	
0.173667	-0.0122683	0.00216355	0.000233706	3.64595E-05	0	0	0	
0.173833	0.0121544	-0.00110014	0.000249464	3.61284E-05	0	0	0	
0.174	-0.0106144	-1.76557E-05	0.000257564	3.05972E-05	0	0	0	
0.174167	0.0090715	0.0014174	0.000251259	2.5204E-05	0	0	0	
0.174333	-0.00831489	-0.00113436	0.000224685	2.31577E-05	0	0	0	
0.1745	0.00943914	4.85803E-05	0.000205011	2.39784E-05	0	0	0	
0.174667	-0.00914048	0.0013524	0.000196117	2.04649E-05	0	0	0	
0.174833	0.0108271	-0.00183467	0.000207173	2.05121E-05	0	0	0	
0.175	-0.0104717	0.00106515	0.000210409	2.43386E-05	0	0	0	
0.175167	0.0117233	0.00102935	0.000214082	3.18471E-05	0	0	0	
0.175333	-0.0131324	-0.00155434	0.000223466	3.33706E-05	0	0	0	
0.1755	0.0133692	0.0013022	0.000252536	3.30659E-05	0	0	0	
0.175667	-0.0124414	-0.00170833	0.000281694	3.19906E-05	0	0	0	
0.175833	0.00994493	0.000647299	0.000295313	2.81178E-05	0	0	0	
0.176	-0.00676657	-0.000592471	0.000274319	2.51225E-05	0	0	0	
0.176167	0.00738304	0.0014897	0.000232507	1.99097E-05	0	0	0	
0.176333	-0.0100189	-0.00121573	0.000193584	2.7929E-05	0	0	0	
0.1765	0.0112653	0.00266536	0.000202024	3.61341E-05	0	0	0	
0.176667	-0.00642513	-0.0031599	0.00022259	4.99322E-05	0	0	0	
0.176833	0.00505314	0.0017312	0.000221929	5.26099E-05	0	0	0	
0.177	-0.00625468	0.00139043	0.000183324	5.09486E-05	0	0	0	
0.177167	0.00834287	-0.000888524	0.000157106	6.02762E-05	0	0	0	
0.177333	-0.00852595	-0.0035931	0.000152073	8.05936E-05	0	0	0	
0.1775	0.0114931	0.0018709	0.000177731	8.25558E-05	0	0	0	
0.177667	-0.011411	0.00717524	0.000216516	0.000100511	0	0	0	
0.177833	0.00956281	-0.0148864	0.000250577	0.000126371	0	0	0	
0.178	-0.00934187	0.0101098	0.000267054	0.000209494	0	0	0	
0.178167	0.00642439	0.00099562	0.000243067	0.000268045	0	0	0	
0.178333	-0.00805044	-0.00643613	0.000209132	0.000244622	0	0	0	
0.1785	0.0112935	0.00370175	0.000186365	0.000187249	0	0	0	
0.178667	-0.0108998	0.00211755	0.000216275	0.000128359	0	0	0	
0.178833	0.00515215	-0.00671202	0.000246186	0.000138445	0	0	0	
0.179	-0.00622904	0.0124663	0.000230565	0.000173958	0	0	0	
0.179167	0.00806602	-0.0127416	0.000183708	0.000203627	0	0	0	
0.179333	-0.00946183	0.00421967	0.000150346	0.000210792	0	0	0	
0.1795	0.00860839	0.00469184	0.00016268	0.000169649	0	0	0	
0.179667	-0.0103942	-0.00524522	0.000184127	0.000137847	0	0	0	
0.179833	0.0104563	-0.000336802	0.000219327	0.000134431	0	0	0	
0.18	-0.00974049	0.0029306	0.000249961	0.000115391	0	0	0	
0.180167	0.0060839	0.000366234	0.000250019	9.94268E-05	0	0	0	
0.180333	-0.00858533	-0.00143894	0.000228112	6.2332E-05	0	0	0	
0.1805	0.00991276	0.000968715	0.000204579	6.81702E-05	0	0	0	
0.180667	-0.00951421	-0.00183115	0.000205335	7.49696E-05	0	0	0	
0.180833	0.00929526	0.00167064	0.000226411	7.73957E-05	0	0	0	
0.181	-0.00617457	-0.000908163	0.000225875	7.2909E-05	0	0	0	
0.181167	0.00688749	0.000201032	0.000212265	6.84515E-05	0	0	0	
0.181333	-0.0105828	-0.000447407	0.000192881	8.56418E-05	0	0	0	
0.1815	0.0114731	0.00102826	0.000197496	8.74958E-05	0	0	0	
0.181667	-0.00984074	-0.000663122	0.000207674	6.56833E-05	0	0	0	
0.181833	0.00936605	0.000333297	0.000218579	4.10328E-05	0	0	0	
0.182	-0.00698838	0.000513943	0.000221549	2.64293E-05	0	0	0	
0.182167	0.00510083	-0.00137646	0.000226155	2.68263E-05	0	0	0	
0.182333	-0.00487072	0.00146055	0.000212859	3.28243E-05	0	0	0	
0.1825	0.00693363	0.000604821	0.000188282	5.66489E-05	0	0	0	
0.182667	-0.00965161	-0.00264602	0.000178314	7.17006E-05	0	0	0	
0.182833	0.0111422	0.00212207	0.000194699	6.58094E-05	0	0	0	
0.183	-0.0110886	0.00477111	0.000230137	8.21864E-05	0	0	0	
0.183167	0.0118546	-0.0118902	0.000250938	0.000108317	0	0	0	
0.183333	-0.0120403	0.00991276	0.000252959	0.000174765	0	0	0	
0.1835	0.00935482	-0.00135139	0.000241506	0.000235865	0	0	0	
0.183667	-0.00708908	-0.00368433	0.00022729	0.000265708	0	0	0	
0.183833	0.0100119	0.00381507	0.000206986	0.000223685	0	0	0	
0.184	-0.0148456	-0.00173487	0.000215081	0.000138008	0	0	0	
0.184167	0.0122024	-0.00175187	0.000242037	7.12775E-05	0	0	0	
0.184333	-0.00679683	0.00674957	0.000257263	7.47341E-05	0	0	0	
0.1845	0.00601424	-0.0102186	0.000223475	0.000112385	0	0	0	
0.184667	-0.00740369	0.00744556	0.0001847	0.000152426	0	0	0	
0.184833	0.00605068	-0.00305072	0.000179445	0.000148552	0	0	0	
0.185	-0.00614039	0.00290535	0.000192973	0.000114952	0	0	0	
0.185167	0.0088063	-0.00381798	0.000192626	8.53709E-05	0	0	0	
0.185333	-0.0115022	0.00194168	0.000193474	6.97361E-05	0	0	0	
0.1855	0.0119181	0.000428308	0.000210163	6.85998E-05	0	0	0	
0.185667	-0.0102824	-0.00163227	0.000248549	6.12164E-05	0	0	0	
0.185833	0.00933058	0.00202872	0.000271436	4.92974E-05	0	0	0	
0.186	-0.00859971	-0.00098091	0.000270248	3.7429E-05	0	0	0	
0.186167	0.00886435	-0.000278542	0.000251697	2.38854E-05	0	0	0	
0.186333	-0.00947752	0.000758701	0.000243625	2.07219E-05	0	0	0	
0.1865	0.00965693	-0.000335009	0.000246947	1.49122E-05	0	0	0	
0.186667	-0.0102793	0.00118752	0.00025071	1.88515E-05	0	0	0	
0.186833	0.0105611	-0.00143408	0.000245467	2.63052E-05	0	0	0	
0.187	-0.00854867	0.00112088	0.000244352	3.04197E-05	0	0	0	
0.187167	0.0070237	-0.000803255	0.000249945	3.02051E-05	0	0	0	
0.187333	-0.00917781	0.000900409	0.000252518	2.80354E-05	0	0	0	
0.1875	0.0109059	-0.000279422	0.000249097	2.50383E-05	0	0	0	
0.187667	-0.0104447	0.00095218	0.000245837	2.4528E-05	0	0	0	
0.187833	0.00975979	-0.000281386	0.000241783	1.81808E-05	0	0	0	
0.188	-0.00830129	-0.000799688	0.000240447	1.72325E-05	0	0	0	
0.188167	0.00850179	0.000589496	0.000244842	1.75831E-05	0	0	0	
0.188333	-0.00914252	0.00092421	0.000256491	1.76261E-05	0	0	0	
0.1885	0.00849455	-0.00163477	0.000262343	2.41952E-05	0	0	0	
0.188667	-0.00764923	0.000912052	0.00025086	2.65526E-05	0	0	0	
0.188833	0.00598885	-1.02179E-05	0.000225019	2.69037E-05	0	0	0	
0.189	-0.00775899	0.000279352	0.000209415	1.83639E-05	0	0	0	
0.189167	0.00844521	-0.0010308	0.000208151	1.51902E-05	0	0	0	
0.189333	-0.00790194	0.000802465	0.000220927	2.09429E-05	0	0	0	
0.1895	0.00792793	-0.000197138	0.000227512	2.79264E-05	0	0	0	
0.189667	-0.00798885	-0.000212781	0.000221816	2.31172E-05	0	0	0	
0.189833	0.00666924	0.00032725	0.000214385	1.40157E-05	0	0	0	
0.19	-0.00679588	-0.00148994	0.0002129	1.07208E-05	0	0	0	
0.190167	0.00691665	0.00124013	0.000215478	1.79468E-05	0	0	0	
0.190333	-0.00832133	0.000402924	0.000221852	1.91254E-05	0	0	0	
0.1905	0.00892245	-0.00134202	0.000231107	1.9136E-05	0	0	0	
0.190667	-0.00904156	0.00145646	0.000243772	1.98738E-05	0	0	0	
0.190833	0.00888489	-0.000699537	0.000246016	2.9224E-05	0	0	0	
0.191	-0.0105983	-0.00181678	0.000246596	3.10226E-05	0	0	0	
0.191167	0.00915723	0.00167463	0.000252341	3.52263E-05	0	0	0	
0.191333	-0.0053282	0.000640315	0.000269818	4.17269E-05	0	0	0	
0.1915	0.00146553	-0.00278541	0.000279695	6.12682E-05	0	0	0	
0.191667	-0.00881457	0.00594319	0.000268625	8.80654E-05	0	0	0	
0.191833	0.010052	-0.00933367	0.000246976	0.000108625	0	0	0	
0.192	-0.00661019	-0.00244355	0.000224846	0.000196507	0	0	0	
0.192167	0.000275214	0.0220949	0.000229105	0.000335065	0	0	0	
0.192333	-0.00505476	-0.0212553	0.000219023	0.0004601	0	0	0	
0.1925	0.0106079	0.0102997	0.000211667	0.000429998	0	0	0	
0.192667	-0.0156177	-0.00342154	0.000254208	0.000304938	0	0	0	
0.192833	0.0106107	0.000414011	0.000335148	0.00018311	0	0	0	
0.193	-0.00424807	0.00811228	0.000375834	0.00016991	0	0	0	
0.193167	-0.000909552	-0.0125979	0.000339221	0.000187234	0	0	0	
0.193333	-0.00408867	0.0126338	0.000293932	0.000240489	0	0	0	
0.1935	0.00282179	-0.00314228	0.000269578	0.000305415	0	0	0	
0.193667	-0.0079415	-0.00402655	0.000232864	0.000325002	0	0	0	
0.193833	0.0149491	0.00488546	0.000210785	0.000264502	0	0	0	
0.194	-0.0148696	-0.00630195	0.000231524	0.000159521	0	0	0	
0.194167	0.00831592	0.010521	0.000298927	0.000119733	0	0	0	
0.194333	-0.00299953	-0.010394	0.00033591	0.000157083	0	0	0	
0.1945	0.000331103	0.00404515	0.000320114	0.000202348	0	0	0	
0.194667	0.00258007	0.000560901	0.000263771	0.000214943	0	0	0	
0.194833	-0.00195448	0.00012463	0.000191128	0.000187136	0	0	0	
0.195	-0.0013192	-0.00149631	0.000116593	0.000163683	0	0	0	
0.195167	0.00446329	-0.000745494	9.22854E-05	0.000158461	0	0	0	
0.195333	-0.00502026	0.0016614	8.68585E-05	0.000142188	0	0	0	
0.1955	0.00719665	-8.34849E-05	0.00012668	0.000100329	0	0	0	
0.195667	-0.00195269	-0.00411276	0.000184073	7.4278E-05	0	0	0	
0.195833	-0.0042586	0.00718286	0.000244082	8.24644E-05	0	0	0	
0.196	0.00528273	-0.0083055	0.000247763	0.0001181	0	0	0	
0.196167	-0.00338201	0.00479383	0.000175847	0.000130216	0	0	0	
0.196333	0.00225104	-0.00218608	0.000110407	0.000115534	0	0	0	
0.1965	-0.00167692	0.00101007	0.000115494	7.73017E-05	0	0	0	
0.196667	0.00139701	-0.000244623	0.000163389	3.72963E-05	0	0	0	
0.196833	-0.00294789	-0.00102292	0.00020187	1.86952E-05	0	0	0	
0.197	0.00779363	0.00301378	0.000205627	2.03769E-05	0	0	0	
0.197167	-0.00434806	-0.0041152	0.000187446	4.26061E-05	0	0	0	
0.197333	-0.00400632	0.00208907	0.000147707	5.64709E-05	0	0	0	
0.1975	0.00806993	0.00146183	0.000136955	6.46996E-05	0	0	0	
0.197667	-0.00338993	-0.00299836	0.000162593	5.18922E-05	0	0	0	
0.197833	0.000958031	-0.000317303	0.000244026	4.8207E-05	0	0	0	
0.198	0.00145795	0.000705695	0.000274326	3.65465E-05	0	0	0	
0.198167	0.00391533	0.00439872	0.000250993	5.86254E-05	0	0	0	
0.198333	-0.00387683	-0.00850008	0.000211872	8.14539E-05	0	0	0	
0.1985	0.0061636	0.0043895	0.000228897	0.000131053	0	0	0	
0.198667	-0.00599565	0.000128339	0.0002695	0.000163493	0	0	0	
0.198833	0.004204	-0.00179494	0.000305243	0.000163847	0	0	0	
0.199	-0.00067258	0.00137688	0.000325553	0.000119807	0	0	0	
0.199167	-0.000530297	-0.00065327	0.000302229	5.77627E-05	0	0	0	
0.199333	-0.00470655	-0.00133106	0.00021991	3.79409E-05	0	0	0	
0.1995	0.0106788	0.00534094	0.000159133	5.04961E-05	0	0	0	
0.199667	-0.0111102	-0.00706421	0.000191946	8.16322E-05	0	0	0	
0.199833	0.00851833	0.00426168	0.000287571	0.00010424	0	0	0	
0.2	-0.00470773	-0.00191744	0.000331399	0.000100368	0	0	0	
0.200167	0.00272962	0.00297479	0.000308487	7.87425E-05	0	0	0	
0.200333	-0.00272316	-0.00399754	0.000251549	5.98588E-05	0	0	0	
0.2005	0.00527058	7.03816E-05	0.000199118	7.27728E-05	0	0	0	
0.200667	-0.00863722	0.00521285	0.000176978	0.000115193	0	0	0	
0.200833	0.00940679	-0.00748195	0.000206262	0.000143185	0	0	0	
0.201	-0.00418966	0.0058529	0.00025897	0.000147204	0	0	0	
0.201167	0.000340125	-0.00170982	0.000292683	0.000126347	0	0	0	
0.201333	6.1434E-05	-0.00100053	0.000270665	0.000105635	0	0	0	
0.2015	0.00427595	0.00139661	0.000219237	7.45485E-05	0	0	0	
0.201667	-0.00779458	-0.000593787	0.000183514	5.57797E-05	0	0	0	
0.201833	0.00831579	0.000294874	0.000188432	5.65484E-05	0	0	0	
0.202	-0.00695325	0.00137013	0.000226642	7.63468E-05	0	0	0	
0.202167	0.00638575	-0.00294431	0.000254433	8.32036E-05	0	0	0	
0.202333	-0.00531928	0.00394146	0.000263244	8.30626E-05	0	0	0	
0.2025	0.00681591	-0.00376392	0.000269982	8.17183E-05	0	0	0	
0.202667	-0.00630274	0.00287378	0.000280937	7.67643E-05	0	0	0	
0.202833	0.00415812	-0.000161624	0.00027517	6.23211E-05	0	0	0	
0.203	-0.00500179	-0.000949435	0.000248218	5.35404E-05	0	0	0	
0.203167	0.00621966	0.00150459	0.000224662	4.74801E-05	0	0	0	
0.203333	-0.00579541	-0.00225303	0.000229242	4.13111E-05	0	0	0	
0.2035	0.00583876	0.00164532	0.000240641	4.67665E-05	0	0	0	
0.203667	-0.00617206	0.00159577	0.000239924	6.49907E-05	0	0	0	
0.203833	0.00544682	-0.00347754	0.000225786	7.96066E-05	0	0	0	
0.204	-0.00555959	0.00344114	0.000223551	7.5746E-05	0	0	0	
0.204167	0.00727114	-0.00150353	0.000231743	6.40931E-05	0	0	0	
0.204333	-0.00766065	0.000552283	0.000236135	5.37696E-05	0	0	0	
0.2045	0.0080932	0.000520626	0.000242199	3.8043E-05	0	0	0	
0.204667	-0.00763481	-0.00101024	0.000265793	2.35488E-05	0	0	0	
0.204833	0.00764436	0.000507653	0.000305425	1.76627E-05	0	0	0	
0.205	-0.00839734	-0.00033811	0.000318573	2.04967E-05	0	0	0	
0.205167	0.0095149	0.000723781	0.000303078	1.56203E-05	0	0	0	
0.205333	-0.00154584	-0.000721619	0.000237703	2.1627E-05	0	0	0	
0.2055	0.00788477	-0.00101094	0.000212836	4.06569E-05	0	0	0	
0.205667	-0.00404526	0.00275145	0.000185651	4.83361E-05	0	0	0	
0.205833	0.00549022	0.000198471	0.000226738	7.07129E-05	0	0	0	
0.206	-0.00620929	-0.00498478	0.000258667	9.22363E-05	0	0	0	
0.206167	0.00905559	0.00203879	0.000270165	0.000104413	0	0	0	
0.206333	-0.00166002	0.00340908	0.000236024	9.69581E-05	0	0	0	
0.2065	0.011897	-0.00694993	0.000158554	7.92743E-05	0	0	0	
0.206667	-0.00426102	0.00637925	0.000141556	0.000107165	0	0	0	
0.206833	-0.000919384	-0.00322854	0.000190354	0.000123703	0	0	0	
0.207	-0.00629936	-0.000251663	0.000290418	0.000140022	0	0	0	
0.207167	0.0086962	0.00315609	0.000334716	0.000130325	0	0	0	
0.207333	7.67273E-05	-0.00265883	0.000300856	9.70089E-05	0	0	0	
0.2075	-0.0068992	-0.00325131	0.000229465	9.49056E-05	0	0	0	
0.207667	0.00531949	0.0089265	0.000184508	0.000107282	0	0	0	
0.207833	-0.00589054	-0.00776397	0.000150414	0.000147092	0	0	0	
0.208	-0.000652979	0.0048882	0.000120355	0.000147231	0	0	0	
0.208167	0.0076219	-0.000282586	9.66843E-05	0.000138165	0	0	0	
0.208333	-0.00985371	-0.00336032	0.000131336	0.000127341	0	0	0	
0.2085	0.00961098	0.00260182	0.000157693	0.000124562	0	0	0	
0.208667	-0.0078653	0.00211587	0.000199351	0.000103362	0	0	0	
0.208833	-0.000714826	-0.00582134	0.000195527	8.82338E-05	0	0	0	
0.209	0.0119856	0.00923698	0.000203223	9.29603E-05	0	0	0	
0.209167	0.000538517	-0.00772619	0.000217778	0.000129848	0	0	0	
0.209333	0.00372003	0.00526882	0.000230213	0.00014726	0	0	0	
0.2095	-0.00239838	-0.00421314	0.000295096	0.000135814	0	0	0	
0.209667	0.0121465	0.00507045	0.000354452	0.000121601	0	0	0	
0.209833	-0.0149493	-0.00112372	0.000432049	0.000101117	0	0	0	
0.21	0.0110735	0.00216259	0.000429011	9.04945E-05	0	0	0	
0.210167	0.00502647	-0.005177	0.000338238	9.16067E-05	0	0	0	
0.210333	-0.00403308	0.00443763	0.000218119	0.000106267	0	0	0	
0.2105	0.0127399	-0.00235743	0.000173505	0.00010012	0	0	0	
0.210667	-0.0083012	0.000505663	0.000276358	6.9465E-05	0	0	0	
0.210833	0.00228225	0.00101014	0.000412507	3.58436E-05	0	0	0	
0.211	-0.00521576	5.84408E-05	0.00046239	2.28219E-05	0	0	0	
0.211167	0.00630333	-0.00232493	0.000372901	1.22106E-05	0	0	0	
0.211333	0.000850323	0.00139433	0.000219542	3.24837E-05	0	0	0	
0.2115	0.00795539	0.00569241	0.000170838	8.72353E-05	0	0	0	
0.211667	-0.0125081	-0.0133255	0.000247978	0.000145271	0	0	0	
0.211833	0.00361114	0.0130874	0.00038587	0.000209867	0	0	0	
0.212	0.00557294	-0.00300001	0.000464367	0.000257723	0	0	0	
0.212167	-0.00725876	-0.00460243	0.000440744	0.000295414	0	0	0	
0.212333	0.0207174	0.00721097	0.000374535	0.000279818	0	0	0	
0.2125	-0.0116326	-0.00946835	0.000322308	0.000215649	0	0	0	
0.212667	-0.00619037	0.00190226	0.000250219	0.000186437	0	0	0	
0.212833	0.0132964	0.0116721	0.000227291	0.000241516	0	0	0	
0.213	-0.01441	-0.016019	0.000212357	0.000314181	0	0	0	
0.213167	0.00983924	0.0105295	0.000252903	0.000313855	0	0	0	
0.213333	-0.000358682	-0.00423848	0.000252204	0.000259974	0	0	0	
0.2135	-0.00454367	7.43418E-05	0.00028926	0.000184275	0	0	0	
0.213667	0.00574619	0.00228654	0.000350272	0.000128103	0	0	0	
0.213833	-0.00198353	-0.00279758	0.00040393	7.06548E-05	0	0	0	
0.214	0.001177	0.00200637	0.000342386	4.71297E-05	0	0	0	
0.214167	-0.00140625	-0.00176337	0.000225524	4.81365E-05	0	0	0	
0.214333	0.00400198	0.00132917	0.000163277	4.82645E-05	0	0	0	
0.2145	-5.86634E-05	-0.00118343	0.000173624	3.63692E-05	0	0	0	
0.214667	0.00123217	0.000130435	0.000171194	4.13171E-05	0	0	0	
0.214833	0.00402158	0.00118624	0.000137723	4.09204E-05	0	0	0	
0.215	-0.00672839	-0.00182162	0.0001327	4.58516E-05	0	0	0	
0.215167	0.00416606	0.00194697	0.000185844	3.97515E-05	0	0	0	
0.215333	-0.00167715	-0.000316191	0.000237672	3.3397E-05	0	0	0	
0.2155	0.00290321	0.000277217	0.000242369	2.85632E-05	0	0	0	
0.215667	0.00018502	9.56131E-05	0.000232659	2.543E-05	0	0	0	
0.215833	-0.00205124	0.000606789	0.000229728	2.88802E-05	0	0	0	
0.216	-0.00305102	-0.00112682	0.000227782	3.12519E-05	0	0	0	
0.216167	0.00500835	-4.34216E-05	0.000225198	2.50918E-05	0	0	0	
0.216333	-0.00486607	0.00214055	0.000226322	2.08174E-05	0	0	0	
0.2165	0.00483049	-0.00261347	0.000230096	2.81111E-05	0	0	0	
0.216667	-0.00368367	0.000720616	0.000235545	3.55569E-05	0	0	0	
0.216833	0.00174767	0.000311789	0.000239812	4.09973E-05	0	0	0	
0.217	-0.00398728	-0.00113778	0.000244595	3.34107E-05	0	0	0	
0.217167	0.00418762	0.000558582	0.000249468	2.94351E-05	0	0	0	
0.217333	-0.00219078	0.000467284	0.000264388	2.16281E-05	0	0	0	
0.2175	0.00149231	0.000763843	0.000279569	2.25655E-05	0	0	0	
0.217667	-0.00140764	0.00098131	0.000272729	2.7278E-05	0	0	0	
0.217833	0.00278652	-0.00111197	0.000239997	2.67888E-05	0	0	0	
0.218	-0.00370652	-0.00023694	0.000205798	2.46482E-05	0	0	0	
0.218167	0.00290348	-0.00190428	0.000207666	1.81491E-05	0	0	0	
0.218333	-0.000654067	0.00262067	0.000244673	3.83872E-05	0	0	0	
0.2185	0.00155382	0.00605583	0.000284246	0.000102894	0	0	0	
0.218667	-0.00298477	-0.0145484	0.000296542	0.000176415	0	0	0	
0.218833	0.00337362	0.0117285	0.000278739	0.000229041	0	0	0	
0.219	-0.00585677	-0.00218585	0.00025688	0.000238822	0	0	0	
0.219167	0.00645052	-0.00501042	0.000267236	0.000210128	0	0	0	
0.219333	7.47531E-05	0.0065231	0.000313291	0.000163981	0	0	0	
0.2195	-0.00343002	-0.00339595	0.000349747	0.000137955	0	0	0	
0.219667	-0.000132561	-0.00262116	0.000323145	0.000165612	0	0	0	
0.219833	0.00304599	0.00789797	0.000258968	0.000213799	0	0	0	
0.22	-0.00373667	-0.00758289	0.000210122	0.000210471	0	0	0	
0.220167	0.00650468	0.00248769	0.000204129	0.000166116	0	0	0	
0.220333	-0.0051085	0.00375292	0.000212795	0.000112391	0	0	0	
0.2205	0.00186532	-0.00516083	0.000223099	9.01057E-05	0	0	0	
0.220667	-6.50759E-05	0.00094946	0.000217911	9.55088E-05	0	0	0	
0.220833	0.00124411	0.00347307	0.000198931	0.000108034	0	0	0	
0.221	-4.98875E-05	-0.00252143	0.000177806	9.41656E-05	0	0	0	
0.221167	0.00105986	0.00108795	0.00018355	8.07721E-05	0	0	0	
0.221333	0.00169817	0.00145734	0.000218318	5.20946E-05	0	0	0	
0.2215	-0.00405715	-4.36975E-05	0.00025405	5.46506E-05	0	0	0	
0.221667	0.004713	-0.00180127	0.000265951	4.68427E-05	0	0	0	
0.221833	-0.00298369	0.00166828	0.00025123	4.5377E-05	0	0	0	
0.222	0.00316451	0.00214575	0.000225261	4.1052E-05	0	0	0	
0.222167	-0.00345992	-0.000939757	0.000211899	3.26804E-05	0	0	0	
0.222333	0.00292571	0.000694656	0.000220977	3.99003E-05	0	0	0	
0.2225	1.13964E-06	0.000855183	0.000237971	4.5886E-05	0	0	0	
0.222667	-0.00118927	-0.000721057	0.000242784	4.71798E-05	0	0	0	
0.222833	0.00389456	0.000711553	0.000243531	3.63669E-05	0	0	0	
0.223	0.000736345	-0.000279262	0.000243723	2.44036E-05	0	0	0	
0.223167	-0.00284603	-0.000235483	0.000245985	1.79305E-05	0	0	0	
0.223333	0.00109288	0.000111193	0.000240128	1.24019E-05	0	0	0	
0.2235	0.00222589	-0.000848583	0.000232086	1.64717E-05	0	0	0	
0.223667	-0.00175046	-0.0033765	0.000229993	3.83559E-05	0	0	0	
0.223833	4.72077E-05	0.00730313	0.000244725	6.66505E-05	0	0	0	
0.224	0.00495486	1.67409E-05	0.000258113	0.000129666	0	0	0	
0.224167	-0.00491474	-0.0149278	0.000237251	0.000222218	0	0	0	
0.224333	0.00237602	0.0191818	0.0001845	0.000305079	0	0	0	
0.2245	-0.00376646	-0.0103332	0.000149071	0.000326782	0	0	0	
0.224667	0.00139907	0.000279389	0.000154965	0.000287893	0	0	0	
0.224833	0.00426776	0.00470857	0.000162796	0.000210361	0	0	0	
0.225	-0.00476987	-0.00528224	0.000170425	0.000143785	0	0	0	
0.225167	-0.000581221	0.00391439	0.000195561	0.000117009	0	0	0	
0.225333	0.00374013	0.0015907	0.000247369	0.000176754	0	0	0	
0.2255	-0.00414829	-0.0075414	0.000279899	0.000242575	0	0	0	
0.225667	0.00439284	0.00685046	0.000281507	0.000239357	0	0	0	
0.225833	-0.00235565	-0.00187377	0.000262808	0.000174544	0	0	0	
0.226	0.00111762	-0.00127652	0.000232832	9.14146E-05	0	0	0	
0.226167	0.000927858	-0.000322228	0.000196939	6.01762E-05	0	0	0	
0.226333	-0.00159506	0.00352514	0.000177443	5.42479E-05	0	0	0	
0.2265	0.00243852	-0.00263061	0.000201211	5.84288E-05	0	0	0	
0.226667	0.00187518	0.000222684	0.000245799	7.53465E-05	0	0	0	
0.226833	-0.00154214	0.0024272	0.000273866	8.45455E-05	0	0	0	
0.227	0.000324059	-0.000378833	0.000267367	7.68002E-05	0	0	0	
0.227167	-0.000193124	-0.00232686	0.000245465	6.713E-05	0	0	0	
0.227333	0.000691622	0.00282718	0.00022413	4.80555E-05	0	0	0	
0.2275	-6.41056E-06	0.00032594	0.000218133	6.02843E-05	0	0	0	
0.227667	0.00173938	0.000440353	0.000229055	4.75302E-05	0	0	0	
0.227833	-5.05804E-05	-0.00111809	0.000236577	4.22492E-05	0	0	0	
0.228	-0.00128009	0.000901133	0.000224602	2.99955E-05	0	0	0	
0.228167	-0.000420923	-0.000234014	0.000213251	2.31236E-05	0	0	0	
0.228333	0.003211	-0.000368609	0.000226614	1.71179E-05	0	0	0	
0.2285	-0.00516006	0.000339556	0.000252622	1.40014E-05	0	0	0	
0.228667	0.00429796	0.000997993	0.000261961	1.37348E-05	0	0	0	
0.228833	-0.00183746	-0.00123967	0.000244562	1.91759E-05	0	0	0	
0.229	0.00130909	-0.000200511	0.000220372	2.42598E-05	0	0	0	
0.229167	-0.00138816	-0.00033138	0.000203808	2.77124E-05	0	0	0	
0.229333	0.000632114	-0.000313588	0.000203314	2.54155E-05	0	0	0	
0.2295	-0.000497928	0.00050071	0.000220966	1.78686E-05	0	0	0	
0.229667	0.00169435	-0.000928332	0.000249354	1.87468E-05	0	0	0	
0.229833	-0.00140388	-5.20352E-05	0.000265147	2.08861E-05	0	0	0	
0.23	0.0015015	-0.000619167	0.000252565	2.55047E-05	0	0	0	
0.230167	-0.000674784	0.00130673	0.000236722	3.23851E-05	0	0	0	
0.230333	0.00330444	-0.000177505	0.000248705	3.97525E-05	0	0	0	
0.2305	-0.00215214	-0.000309889	0.00027501	3.59922E-05	0	0	0	
0.230667	0.00247555	0.00179085	0.000272461	2.41231E-05	0	0	0	
0.230833	-0.00122858	-9.3297E-05	0.000243001	1.61236E-05	0	0	0	
0.231	0.00111089	-0.000500924	0.00021882	1.97308E-05	0	0	0	
0.231167	-0.000796607	0.0016385	0.000223211	2.32192E-05	0	0	0	
0.231333	-0.000578504	-0.000491322	0.000238295	2.99944E-05	0	0	0	
0.2315	0.00134676	-0.000661697	0.000250964	2.94074E-05	0	0	0	
0.231667	0.0013677	0.00207274	0.000257774	3.5889E-05	0	0	0	
0.231833	-0.00135461	-0.00133684	0.000253593	3.96467E-05	0	0	0	
0.232	-0.000999896	-0.00193974	0.000232683	5.01212E-05	0	0	0	
0.232167	0.00195662	0.00579369	0.000223146	5.57321E-05	0	0	0	
0.232333	0.000791625	0.000280185	0.000253335	8.7319E-05	0	0	0	
0.2325	-0.00480467	-0.0124041	0.000297505	0.00014542	0	0	0	
0.232667	0.00633358	0.0138547	0.000313004	0.0002011	0	0	0	
0.232833	-0.00711296	0.000231653	0.000303317	0.000241296	0	0	0	
0.233	0.00683708	-0.00806646	0.000287267	0.000235035	0	0	0	
0.233167	-0.00292265	0.00689851	0.000243425	0.000197839	0	0	0	
0.233333	-0.00283657	-0.00306688	0.000184253	0.000151762	0	0	0	
0.2335	0.000760517	0.000155787	0.000185216	0.000125413	0	0	0	
0.233667	0.00381511	0.00646027	0.000257061	0.000145424	0	0	0	
0.233833	-0.00404515	-0.00955209	0.00032363	0.000158775	0	0	0	
0.234	0.00403525	0.0029065	0.00033472	0.000161782	0	0	0	
0.234167	-0.00652022	0.00574937	0.000315914	0.000171641	0	0	0	
0.234333	0.00644225	-0.00753999	0.000294317	0.000156171	0	0	0	
0.2345	-0.00245168	0.000863048	0.000263561	0.000150413	0	0	0	
0.234667	0.000929577	0.00469154	0.000238821	0.000106452	0	0	0	
0.234833	-0.00131797	-0.00220543	0.000243391	9.15891E-05	0	0	0	
0.235	0.00316593	-0.00265696	0.000269226	9.04591E-05	0	0	0	
0.235167	-0.00512857	0.00260283	0.000293417	8.7094E-05	0	0	0	
0.235333	0.00495894	0.000373501	0.000293897	7.2616E-05	0	0	0	
0.2355	-0.00325094	-0.00086473	0.000270986	4.27294E-05	0	0	0	
0.235667	0.00286627	0.000915045	0.000241083	3.44531E-05	0	0	0	
0.235833	-0.00212104	0.00268537	0.000214654	3.81518E-05	0	0	0	
0.236	0.000436961	-0.00304242	0.000194775	4.7279E-05	0	0	0	
0.236167	0.00189091	0.000745917	0.000197729	4.89249E-05	0	0	0	
0.236333	-0.000382519	0.00202969	0.000230828	4.37395E-05	0	0	0	
0.2365	-0.00230406	-0.00103661	0.000274278	3.90613E-05	0	0	0	
0.236667	0.00451752	-7.39953E-05	0.000299355	2.54288E-05	0	0	0	
0.236833	-0.00567452	0.00108688	0.000297794	2.32993E-05	0	0	0	
0.237	0.00521818	-0.000236572	0.000267628	2.70803E-05	0	0	0	
0.237167	-0.000898893	0.000424739	0.00021546	3.94965E-05	0	0	0	
0.237333	-0.002319	8.43414E-06	0.000177121	3.78552E-05	0	0	0	
0.2375	-0.000917608	-0.000776467	0.000191074	3.82368E-05	0	0	0	
0.237667	0.00177654	0.0030756	0.00022494	3.92497E-05	0	0	0	
0.237833	0.00199129	-0.000268103	0.00024649	7.8055E-05	0	0	0	
0.238	-0.000139654	-0.0109933	0.000272805	0.000156766	0	0	0	
0.238167	-0.00320275	0.0160596	0.000308656	0.000229858	0	0	0	
0.238333	0.000966885	-0.0101937	0.000291872	0.000268039	0	0	0	
0.2385	0.00177209	0.00091253	0.00021634	0.000250248	0	0	0	
0.238667	0.000878634	0.00465433	0.000181487	0.000214231	0	0	0	
0.238833	-0.00486177	-0.00805804	0.000228294	0.000166642	0	0	0	
0.239	0.000975281	0.00543931	0.000271171	0.00014299	0	0	0	
0.239167	0.00218241	0.00286762	0.00024467	0.000187475	0	0	0	
0.239333	0.000406019	-0.0101382	0.000201781	0.000249886	0	0	0	
0.2395	-0.00539686	0.00998733	0.000186827	0.000263534	0	0	0	
0.239667	0.00285366	-0.00395917	0.000197411	0.000207025	0	0	0	
0.239833	-0.00186484	-0.000310441	0.000207518	0.000129996	0	0	0	
0.24	0.00181737	0.000346452	0.000232182	6.7192E-05	0	0	0	
0.240167	-0.00327765	0.00167289	0.000247277	4.49205E-05	0	0	0	
0.240333	0.00489913	-0.00249889	0.000248593	3.47119E-05	0	0	0	
0.2405	-0.00708853	0.00171497	0.000239967	5.25652E-05	0	0	0	
0.240667	0.0042135	0.00153934	0.000242186	5.27111E-05	0	0	0	
0.240833	-0.00290171	-0.00176749	0.000241535	5.18943E-05	0	0	0	
0.241	0.00333011	0.00173792	0.000230683	5.30943E-05	0	0	0	
0.241167	-0.00328213	-0.000767321	0.000200461	5.08134E-05	0	0	0	
0.241333	0.00140806	0.00166129	0.000178363	5.02215E-05	0	0	0	
0.2415	-0.000875255	-0.000343945	0.000184709	4.59482E-05	0	0	0	
0.241667	0.00393066	-0.000495505	0.000221816	4.47835E-05	0	0	0	
0.241833	-0.00643588	-0.0012245	0.000256439	4.10073E-05	0	0	0	
0.242	0.00530734	0.00207895	0.000257876	3.98752E-05	0	0	0	
0.242167	-0.00506038	-0.00193444	0.000217016	4.09793E-05	0	0	0	
0.242333	0.00274384	0.00359716	0.000167092	5.55812E-05	0	0	0	
0.2425	2.62741E-05	-0.00400403	0.000129016	6.6029E-05	0	0	0	
0.242667	0.00262656	-0.000295458	0.000132855	7.22064E-05	0	0	0	
0.242833	-0.0038804	-0.00120836	0.000164234	6.05385E-05	0	0	0	
0.243	0.00474071	0.00266196	0.000203635	4.56229E-05	0	0	0	
0.243167	-0.00457238	-0.0026893	0.000225754	4.05065E-05	0	0	0	
0.243333	0.00550728	0.00239149	0.000226851	4.88943E-05	0	0	0	
0.2435	-0.00512382	-0.00112832	0.000219221	5.50419E-05	0	0	0	
0.243667	0.00658694	0.000666377	0.00021578	5.52702E-05	0	0	0	
0.243833	-0.00508965	-0.00259584	0.000228189	5.79182E-05	0	0	0	
0.244	0.00546931	0.00375165	0.000237965	6.81632E-05	0	0	0	
0.244167	-0.00460224	-0.00212266	0.00024303	8.43126E-05	0	0	0	
0.244333	0.00314814	-0.000643772	0.000236938	9.02269E-05	0	0	0	
0.2445	-0.00113508	-1.1606E-05	0.000234676	8.22619E-05	0	0	0	
0.244667	0.0030963	0.00248293	0.000233617	6.60589E-05	0	0	0	
0.244833	-0.00365321	-0.00261053	0.000239943	5.52932E-05	0	0	0	
0.245	0.00299604	0.00154067	0.000248633	4.66791E-05	0	0	0	
0.245167	-0.0037254	0.000226354	0.000249864	3.70051E-05	0	0	0	
0.245333	0.00475187	-0.00289805	0.000242593	3.59052E-05	0	0	0	
0.2455	-0.00375082	0.00240879	0.000236964	4.11959E-05	0	0	0	
0.245667	0.00434669	-0.00142304	0.000235298	4.49883E-05	0	0	0	
0.245833	-0.00383096	0.00013966	0.000235189	3.98049E-05	0	0	0	
0.246	0.00296044	0.00142857	0.000226928	2.74785E-05	0	0	0	
0.246167	-0.00345799	-0.00262861	0.000213447	2.85743E-05	0	0	0	
0.246333	0.00439421	0.0021951	0.00020131	3.63325E-05	0	0	0	
0.2465	-0.00473865	-0.00258847	0.000202292	4.30461E-05	0	0	0	
0.246667	0.00512667	0.00168466	0.0002172	4.45358E-05	0	0	0	
0.246833	-0.00472477	-0.000515454	0.000233141	3.69033E-05	0	0	0	
0.247	0.00401485	-0.000276088	0.000235804	3.6667E-05	0	0	0	
0.247167	-0.0036474	0.00228463	0.000224957	3.58148E-05	0	0	0	
0.247333	0.00429026	-0.00215078	0.00021269	4.1519E-05	0	0	0	
0.2475	-0.00541136	0.000210412	0.000210675	3.77816E-05	0	0	0	
0.247667	0.00692441	0.00139929	0.000219222	3.14993E-05	0	0	0	
0.247833	-0.00553952	-0.000265431	0.000229605	2.60202E-05	0	0	0	
0.248	0.00501617	-6.93955E-06	0.000227532	2.55409E-05	0	0	0	
0.248167	-0.00429887	0.00177645	0.000217151	2.49961E-05	0	0	0	
0.248333	0.0049763	-0.00254877	0.000204331	3.19711E-05	0	0	0	
0.2485	-0.00483696	0.000728096	0.000204098	3.32611E-05	0	0	0	
0.248667	0.00529212	0.00162111	0.000211869	3.06437E-05	0	0	0	
0.248833	-0.00507818	-0.00113388	0.00022465	2.744E-05	0	0	0	
0.249	0.00651529	-0.000256579	0.000237031	3.07335E-05	0	0	0	
0.249167	-0.0074163	0.00240234	0.000248219	3.29314E-05	0	0	0	
0.249333	0.00766845	-0.0020863	0.000253338	3.65842E-05	0	0	0	
0.2495	-0.00751908	0.00258387	0.000255034	3.76354E-05	0	0	0	
0.249667	0.00840322	-0.00445258	0.000250997	5.25202E-05	0	0	0	
0.249833	-0.00651163	0.00210489	0.000241692	6.92337E-05	0	0	0	
0.25	0.00449361	0.00792468	0.000218739	0.000137803	0	0	0	
0.250167	-0.00233204	-0.0171206	0.000197969	0.000206924	0	0	0	
0.250333	0.00347003	0.0135926	0.000201013	0.000267626	0	0	0	
0.2505	-0.00849415	0.000764705	0.000256453	0.000293134	0	0	0	
0.250667	0.0140021	-0.00968588	0.000327498	0.000285364	0	0	0	
0.250833	-0.0116243	0.00980292	0.000351788	0.000246507	0	0	0	
0.251	0.00512477	-0.00525883	0.000297315	0.000202462	0	0	0	
0.251167	-0.00494176	-0.00173235	0.000224534	0.00020499	0	0	0	
0.251333	0.00882497	0.0080726	0.000200753	0.000244861	0	0	0	
0.2515	-0.00939023	-0.00942796	0.000228418	0.000254082	0	0	0	
0.251667	0.00697576	0.00542452	0.000275144	0.000210382	0	0	0	
0.251833	-0.00741287	0.00325542	0.000311731	0.000181715	0	0	0	
0.252	0.00813021	-0.00305156	0.00031837	0.000139029	0	0	0	
0.252167	-0.00411008	-0.00220458	0.000282462	0.000126174	0	0	0	
0.252333	0.00311957	0.00457579	0.000231065	8.50703E-05	0	0	0	
0.2525	-0.00595927	0.000699403	0.000241317	8.5219E-05	0	0	0	
0.252667	0.00919895	-0.00646258	0.000303171	0.000101677	0	0	0	
0.252833	-0.00755212	0.00500354	0.000342777	0.000108642	0	0	0	
0.253	0.00504098	0.000303433	0.000303555	0.00010159	0	0	0	
0.253167	-0.00336265	-0.0030445	0.000238719	7.19817E-05	0	0	0	
0.253333	0.00532626	0.00175065	0.000204476	5.37029E-05	0	0	0	
0.2535	-0.00823926	-0.00096795	0.000204582	4.57408E-05	0	0	0	
0.253667	0.00670139	-0.000462743	0.000214031	4.21217E-05	0	0	0	
0.253833	-0.00761246	0.000491131	0.000221805	4.70206E-05	0	0	0	
0.254	0.00745648	-0.00113854	0.00023599	5.22967E-05	0	0	0	
0.254167	-0.00497813	-0.000823763	0.000227825	5.72381E-05	0	0	0	
0.254333	0.0035542	0.00168306	0.000201569	5.23273E-05	0	0	0	
0.2545	-0.00566991	-0.00244908	0.000183933	4.27412E-05	0	0	0	
0.254667	0.00819543	0.00256426	0.000207343	4.32663E-05	0	0	0	
0.254833	-0.00820006	-9.25806E-05	0.000246185	3.95757E-05	0	0	0	
0.255	0.00725268	-0.000499383	0.000262047	4.32774E-05	0	0	0	
0.255167	-0.00726878	-0.00114452	0.000251557	3.6128E-05	0	0	0	
0.255333	0.00766389	0.00625778	0.000234293	6.70324E-05	0	0	0	
0.2555	-0.00592148	-0.0107246	0.000202436	0.000100053	0	0	0	
0.255667	0.0055578	0.00718663	0.000167212	0.000160699	0	0	0	
0.255833	-0.00617959	9.99701E-05	0.000155022	0.000202648	0	0	0	
0.256	0.00857362	-0.00314829	0.000170832	0.000204795	0	0	0	
0.256167	-0.00690399	0.00222662	0.000186123	0.000147121	0	0	0	
0.256333	0.00305434	0.000461853	0.000176546	8.54914E-05	0	0	0	
0.2565	-0.00416334	-0.0052655	0.000173265	5.65859E-05	0	0	0	
0.256667	0.00975522	0.00769247	0.000192123	8.75661E-05	0	0	0	
0.256833	-0.0107891	-0.00590512	0.000231187	0.00010618	0	0	0	
0.257	0.0103752	0.00272449	0.000253332	0.000122399	0	0	0	
0.257167	-0.0102101	0.00123556	0.000255697	0.000102475	0	0	0	
0.257333	0.00857562	-6.8241E-05	0.000247691	6.60235E-05	0	0	0	
0.2575	-0.00512303	-0.00327103	0.000229744	3.47063E-05	0	0	0	
0.257667	0.00384693	0.0020122	0.000202119	3.61468E-05	0	0	0	
0.257833	-0.00509269	0.00241629	0.000189432	7.63532E-05	0	0	0	
0.258	0.00856742	-0.00400004	0.000205999	0.000107077	0	0	0	
0.258167	-0.00861086	0.002736	0.000234775	0.00010159	0	0	0	
0.258333	0.00637136	-3.97969E-05	0.000239779	6.97839E-05	0	0	0	
0.2585	-0.00842294	-0.00146378	0.000220803	4.24943E-05	0	0	0	
0.258667	0.00797989	0.00211018	0.000199363	3.51709E-05	0	0	0	
0.258833	-0.00616953	-0.000836367	0.00018654	4.31825E-05	0	0	0	
0.259	0.00584009	5.34405E-05	0.000186904	5.26245E-05	0	0	0	
0.259167	-0.00823818	-0.000260334	0.000191289	4.73825E-05	0	0	0	
0.259333	0.00818342	-0.000448725	0.000200643	2.97956E-05	0	0	0	
0.2595	-0.0117013	0.00186869	0.000209443	1.6292E-05	0	0	0	
0.259667	0.0135749	-0.00232451	0.000231697	2.34728E-05	0	0	0	
0.259833	-0.00915256	0.000163491	0.000235871	4.73883E-05	0	0	0	
0.26	0.00471612	0.00160245	0.000220025	6.86654E-05	0	0	0	
0.260167	-0.00520905	-0.00303082	0.00019946	6.69797E-05	0	0	0	
0.260333	0.00949753	0.000712007	0.000208394	5.53425E-05	0	0	0	
0.2605	-0.0113589	0.0016934	0.000244914	4.47522E-05	0	0	0	
0.260667	0.0132769	-0.00282676	0.000272834	4.53269E-05	0	0	0	
0.260833	-0.0112288	0.00233935	0.000285851	4.62349E-05	0	0	0	
0.261	0.00840173	-0.00173988	0.00026537	4.33053E-05	0	0	0	
0.261167	-0.00511036	0.000125633	0.000238554	3.48186E-05	0	0	0	
0.261333	0.00708509	0.000721136	0.000217299	2.14323E-05	0	0	0	
0.2615	-0.00832628	-0.0001974	0.000235935	1.47036E-05	0	0	0	
0.261667	0.0102712	-0.00209386	0.000259476	1.7254E-05	0	0	0	
0.261833	-0.0107662	0.00171308	0.000270821	3.13069E-05	0	0	0	
0.262	0.0100358	0.00136692	0.000250557	3.05405E-05	0	0	0	
0.262167	-0.00768135	-0.00327944	0.000224773	3.70203E-05	0	0	0	
0.262333	0.00514258	0.00126031	0.000195262	3.48625E-05	0	0	0	
0.2625	-0.00412189	-0.000202934	0.000176559	3.72779E-05	0	0	0	
0.262667	0.0044055	-0.0012414	0.000174428	2.97105E-05	0	0	0	
0.262833	-0.00775761	0.0014366	0.000211651	2.28119E-05	0	0	0	
0.263	0.0142652	-0.00131053	0.000281859	2.48641E-05	0	0	0	
0.263167	-0.0169655	0.00100019	0.00035661	2.32731E-05	0	0	0	
0.263333	0.0178386	0.000430831	0.000390409	2.37401E-05	0	0	0	
0.2635	-0.0146039	-0.000329523	0.000372671	2.7777E-05	0	0	0	
0.263667	0.00927841	-0.000286729	0.00030947	3.32944E-05	0	0	0	
0.263833	-0.00340991	-0.00234098	0.000232148	3.61587E-05	0	0	0	
0.264	0.0033646	0.000479993	0.000189604	3.12283E-05	0	0	0	
0.264167	-0.00551052	-0.000832659	0.000203379	2.55808E-05	0	0	0	
0.264333	0.00800435	0.000266255	0.000246403	2.0273E-05	0	0	0	
0.2645	-0.00956507	0.0010226	0.000278959	1.38557E-05	0	0	0	
0.264667	0.0112288	8.35727E-05	0.000281775	2.18526E-05	0	0	0	
0.264833	-0.0107985	-0.00393969	0.000277531	3.12297E-05	0	0	0	
0.265	0.00781543	0.00110539	0.000255084	5.57718E-05	0	0	0	
0.265167	-0.00676629	0.0106999	0.000231854	0.000104555	0	0	0	
0.265333	0.00872941	-0.0215039	0.000220274	0.000193987	0	0	0	
0.2655	-0.0117262	0.0118415	0.00023062	0.000280846	0	0	0	
0.265667	0.0101059	0.00296256	0.000238817	0.000336344	0	0	0	
0.265833	-0.00981024	-0.00715685	0.000238495	0.000279187	0	0	0	
0.266	0.0094881	0.00651614	0.000249717	0.000215546	0	0	0	
0.266167	-0.00921266	0.00149414	0.000264241	0.000167332	0	0	0	
0.266333	0.010555	-0.0180535	0.000267889	0.000208285	0	0	0	
0.2665	-0.0172081	0.0147926	0.000286045	0.000300109	0	0	0	
0.266667	0.0160971	-0.0115664	0.00032812	0.000334456	0	0	0	
0.266833	-0.0132208	0.000297258	0.000351865	0.000281691	0	0	0	
0.267	0.00617101	0.00831215	0.000312437	0.000172329	0	0	0	
0.267167	-0.00412394	-0.00525226	0.00023218	0.000120113	0	0	0	
0.267333	0.00636191	-0.00669296	0.000194051	0.000113748	0	0	0	
0.2675	-0.0119259	0.00651663	0.000216251	0.000128547	0	0	0	
0.267667	0.0105993	-0.000630851	0.000278296	0.000100747	0	0	0	
0.267833	-0.011501	-0.00641612	0.000306764	9.40958E-05	0	0	0	
0.268	0.00945753	0.00483092	0.000291789	8.11478E-05	0	0	0	
0.268167	-0.00750742	6.93499E-05	0.000230982	7.45398E-05	0	0	0	
0.268333	0.004703	-0.00499922	0.000179663	7.17718E-05	0	0	0	
0.2685	-0.00480359	0.00492324	0.000151204	6.83094E-05	0	0	0	
0.268667	0.00901119	-0.00402844	0.000175771	8.13848E-05	0	0	0	
0.268833	-0.0123594	0.00367644	0.000227808	8.96478E-05	0	0	0	
0.269	0.0118993	-0.00138117	0.000267394	7.48491E-05	0	0	0	
0.269167	-0.00896572	0.000400314	0.000262623	4.88624E-05	0	0	0	
0.269333	0.00804289	0.00119576	0.000222817	2.59384E-05	0	0	0	
0.2695	-0.00774673	-0.00182015	0.000189896	2.1004E-05	0	0	0	
0.269667	0.00724819	0.000207471	0.000173403	2.782E-05	0	0	0	
0.269833	-0.00713358	-9.09794E-05	0.000175315	3.03837E-05	0	0	0	
0.27	0.00713756	0.00111604	0.00018337	1.98788E-05	0	0	0	
0.270167	-0.00960643	-0.00196232	0.000204655	2.27454E-05	0	0	0	
0.270333	0.00963469	-0.00111118	0.000220175	4.34855E-05	0	0	0	
0.2705	-0.00948109	0.00889146	0.00022549	8.14261E-05	0	0	0	
0.270667	0.0109583	-0.0114635	0.000241908	0.000126244	0	0	0	
0.270833	-0.0145567	0.00524622	0.000283151	0.000185962	0	0	0	
0.271	0.0135025	0.00326155	0.000320735	0.000258037	0	0	0	
0.271167	-0.0136285	-0.0095423	0.000334977	0.000277938	0	0	0	
0.271333	0.0161971	0.00987052	0.00034923	0.00024716	0	0	0	
0.2715	-0.017746	-0.00515035	0.000358876	0.000184054	0	0	0	
0.271667	0.0100491	-0.0021331	0.000339705	0.000185304	0	0	0	
0.271833	-0.00532271	0.0114133	0.000265491	0.000220776	0	0	0	
0.272	0.00591666	-0.0149844	0.000215399	0.000247302	0	0	0	
0.272167	-0.0088245	0.00729939	0.000211405	0.000252388	0	0	0	
0.272333	0.00852428	0.000548577	0.000253635	0.000238982	0	0	0	
0.2725	-0.00916573	-0.00333421	0.000292205	0.000209873	0	0	0	
0.272667	0.0128854	0.00337838	0.000318795	0.000148837	0	0	0	
0.272833	-0.0152533	-0.00497117	0.000323733	9.42577E-05	0	0	0	
0.273	0.012553	0.00432794	0.000308067	7.80722E-05	0	0	0	
0.273167	-0.00973402	-0.00240382	0.000269946	7.67717E-05	0	0	0	
0.273333	0.0100577	-0.00043391	0.000238764	6.71806E-05	0	0	0	
0.2735	-0.011131	0.00194852	0.00023091	5.63073E-05	0	0	0	
0.273667	0.0106069	-0.0020195	0.000236605	4.81343E-05	0	0	0	
0.273833	-0.00736583	0.00159916	0.000231155	4.58311E-05	0	0	0	
0.274	0.00636389	-2.67462E-05	0.000203002	3.42704E-05	0	0	0	
0.274167	-0.00848962	0.00101875	0.000192665	2.63792E-05	0	0	0	
0.274333	0.0116667	-0.00177434	0.000214713	2.81171E-05	0	0	0	
0.2745	-0.012141	-0.000843378	0.000251833	2.7466E-05	0	0	0	
0.274667	0.0106995	-0.000225489	0.000269852	3.08991E-05	0	0	0	
0.274833	-0.00965833	0.00206451	0.000265371	4.08881E-05	0	0	0	
0.275	0.0100912	-0.00316005	0.000245765	5.9491E-05	0	0	0	
0.275167	-0.00931535	0.000737293	0.000231625	6.34009E-05	0	0	0	
0.275333	0.0092522	-0.000857665	0.000222702	4.93701E-05	0	0	0	
0.2755	-0.00949877	0.000854708	0.000226428	3.5776E-05	0	0	0	
0.275667	0.00980726	-0.000774686	0.00023156	2.82995E-05	0	0	0	
0.275833	-0.0101628	-0.000175427	0.000234196	2.704E-05	0	0	0	
0.276	0.00748245	0.000383875	0.000221358	2.48427E-05	0	0	0	
0.276167	-0.00598385	-0.000964862	0.000193299	3.09098E-05	0	0	0	
0.276333	0.00630435	1.90096E-05	0.000170894	3.42709E-05	0	0	0	
0.2765	-0.0092585	0.000947869	0.000177296	3.48317E-05	0	0	0	
0.276667	0.0101697	-0.000335048	0.000208571	3.09404E-05	0	0	0	
0.276833	-0.00936242	-0.00128846	0.000233498	2.53925E-05	0	0	0	
0.277	0.0087318	0.00174377	0.000242628	2.4976E-05	0	0	0	
0.277167	-0.0103479	-0.00192158	0.000231188	2.79533E-05	0	0	0	
0.277333	0.00980695	0.00213026	0.000217022	3.58708E-05	0	0	0	
0.2775	-0.00882824	-0.0024697	0.000195564	4.517E-05	0	0	0	
0.277667	0.0069264	0.00170208	0.000184974	4.83905E-05	0	0	0	
0.277833	-0.00774406	-0.00156002	0.000183578	4.44631E-05	0	0	0	
0.278	0.00904844	0.000693731	0.000206277	3.61478E-05	0	0	0	
0.278167	-0.00860024	-0.000123753	0.000222523	3.46654E-05	0	0	0	
0.278333	0.00924357	0.000493445	0.000224699	2.76805E-05	0	0	0	
0.2785	-0.00830972	-8.69511E-06	0.000210714	2.92153E-05	0	0	0	
0.278667	0.00866351	0.000314037	0.00019972	2.46367E-05	0	0	0	
0.278833	-0.00696054	-0.00198567	0.000200253	3.25751E-05	0	0	0	
0.279	0.00803612	0.00146723	0.000206265	3.3142E-05	0	0	0	
0.279167	-0.00754424	0.00682857	0.000213699	8.26168E-05	0	0	0	
0.279333	0.00783298	-0.013221	0.000206386	0.000137325	0	0	0	
0.2795	-0.00874985	0.00742482	0.000191125	0.00019484	0	0	0	
0.279667	0.00692353	0.00303795	0.000166275	0.000234684	0	0	0	
0.279833	-0.00655993	-0.00694292	0.000166229	0.000233703	0	0	0	
0.28	0.0100752	0.00348746	0.000191826	0.000196592	0	0	0	
0.280167	-0.0112824	-0.00150953	0.00022362	0.000114392	0	0	0	
0.280333	0.00862077	-0.000669052	0.000229033	9.52886E-05	0	0	0	
0.2805	-0.00669022	0.0067613	0.000205798	0.000125252	0	0	0	
0.280667	0.00749773	-0.00943628	0.000196771	0.000155418	0	0	0	
0.280833	-0.00773278	0.00450265	0.000210457	0.000170299	0	0	0	
0.281	0.00912513	0.000631281	0.000229885	0.000165613	0	0	0	
0.281167	-0.00987582	-0.00136729	0.000241567	0.00013071	0	0	0	
0.281333	0.011804	1.26788E-05	0.000240852	8.59971E-05	0	0	0	
0.2815	-0.00823985	-0.000293654	0.000232872	3.32076E-05	0	0	0	
0.281667	0.00560094	0.000388265	0.000198979	4.77491E-05	0	0	0	
0.281833	-0.00619704	-0.0017217	0.000172817	4.35609E-05	0	0	0	
0.282	0.00914592	-0.000596046	0.000159051	4.32228E-05	0	0	0	
0.282167	-0.0101679	-0.000341671	0.000173828	2.17223E-05	0	0	0	
0.282333	0.0106314	0.00110234	0.000182365	3.48224E-05	0	0	0	
0.2825	-0.00960325	-0.000298218	0.000201844	6.03324E-05	0	0	0	
0.282667	0.0118416	0.000944332	0.000226956	6.83554E-05	0	0	0	
0.282833	-0.0147229	-0.000206701	0.000268855	5.66269E-05	0	0	0	
0.283	0.015219	-0.00163118	0.000289549	4.6936E-05	0	0	0	
0.283167	-0.0131701	0.00281398	0.000288414	4.81748E-05	0	0	0	
0.283333	0.0122702	-0.0036289	0.00026513	6.18681E-05	0	0	0	
0.2835	-0.0103524	0.00273879	0.000248915	7.92373E-05	0	0	0	
0.283667	0.00802581	-0.000894564	0.000226735	9.52686E-05	0	0	0	
0.283833	-0.00936878	0.000239398	0.000223016	7.25846E-05	0	0	0	
0.284	0.0137571	3.02939E-05	0.000229606	4.71331E-05	0	0	0	
0.284167	-0.0147956	0.0024491	0.000261718	3.80226E-05	0	0	0	
0.284333	0.0150729	-0.00535937	0.000281973	5.63719E-05	0	0	0	
0.2845	-0.014423	0.00253526	0.00029416	7.01624E-05	0	0	0	
0.284667	0.0119795	-0.000129287	0.000285528	7.20067E-05	0	0	0	
0.284833	-0.00819984	-0.00013873	0.000263177	7.84259E-05	0	0	0	
0.285	0.00613624	-0.00860338	0.000223495	0.0001476	0	0	0	
0.285167	-0.00837221	0.0183393	0.000214369	0.000230148	0	0	0	
0.285333	0.00677358	-0.0167805	0.000221337	0.000307148	0	0	0	
0.2855	-0.00470807	0.00742804	0.000227909	0.000300535	0	0	0	
0.285667	0.00800585	0.00038851	0.000244329	0.000265049	0	0	0	
0.285833	-0.0155124	-0.0053162	0.000287359	0.000205271	0	0	0	
0.286	0.0142865	0.00735569	0.000326966	0.000150972	0	0	0	
0.286167	-0.00814904	-0.000862629	0.000296969	0.000160162	0	0	0	
0.286333	0.00498349	-0.00673854	0.000217971	0.00022673	0	0	0	
0.2865	-0.00477375	0.00968127	0.000139428	0.000275412	0	0	0	
0.286667	0.00493862	-0.00507403	0.000108527	0.000242198	0	0	0	
0.286833	-0.00639964	0.00189782	0.000117089	0.000150084	0	0	0	
0.287	0.00899458	-0.00143153	0.000168741	7.81179E-05	0	0	0	
0.287167	-0.0112834	0.00229011	0.000223001	5.00761E-05	0	0	0	
0.287333	0.0140427	-0.00345708	0.000256849	4.30295E-05	0	0	0	
0.2875	-0.0129578	0.00112562	0.000265375	5.42455E-05	0	0	0	
0.287667	0.0126552	0.00243883	0.000254858	6.31535E-05	0	0	0	
0.287833	-0.0120964	-0.00410366	0.00025204	6.8847E-05	0	0	0	
0.288	0.0112481	0.000849539	0.00024122	6.36144E-05	0	0	0	
0.288167	-0.0126405	5.79865E-05	0.000241438	4.97315E-05	0	0	0	
0.288333	0.0128991	-0.000544087	0.000242296	3.70583E-05	0	0	0	
0.2885	-0.0109502	0.00109461	0.000246681	3.49836E-05	0	0	0	
0.288667	0.00977047	4.16448E-06	0.000239186	3.07501E-05	0	0	0	
0.288833	-0.0125175	0.000495527	0.000231647	2.93662E-05	0	0	0	
0.289	0.0128317	3.47623E-05	0.000232762	2.79881E-05	0	0	0	
0.289167	-0.0119449	0.000154258	0.000242088	3.40147E-05	0	0	0	
0.289333	0.0106454	0.000431803	0.000241039	3.29876E-05	0	0	0	
0.2895	-0.0111675	-0.00045672	0.000228025	2.84344E-05	0	0	0	
0.289667	0.0110129	-0.00104313	0.000218045	2.73775E-05	0	0	0	
0.289833	-0.0110821	0.00200921	0.000216799	3.66367E-05	0	0	0	
0.29	0.0117074	0.000230012	0.000226055	4.1918E-05	0	0	0	
0.290167	-0.0115608	-0.00135402	0.000239584	4.71546E-05	0	0	0	
0.290333	0.0121811	0.000793334	0.000244239	4.62486E-05	0	0	0	
0.2905	-0.0143807	-9.06313E-05	0.000246932	3.39962E-05	0	0	0	
0.290667	0.0135492	-0.00275326	0.000252924	2.85226E-05	0	0	0	
0.290833	-0.0118745	0.00191572	0.000261275	3.29009E-05	0	0	0	
0.291	0.00948572	0.000733411	0.000248033	3.47609E-05	0	0	0	
0.291167	-0.00937031	-0.000844944	0.000219747	3.29005E-05	0	0	0	
0.291333	0.0106089	0.000413039	0.000202798	2.08393E-05	0	0	0	
0.2915	-0.013269	0.00176751	0.000211433	2.13899E-05	0	0	0	
0.291667	0.0149157	-0.00224711	0.000241637	2.74996E-05	0	0	0	
0.291833	-0.0136508	0.000198159	0.000259248	3.55917E-05	0	0	0	
0.292	0.0112319	0.00152042	0.000259405	3.71136E-05	0	0	0	
0.292167	-0.00922891	-0.00105108	0.000234939	3.40707E-05	0	0	0	
0.292333	0.00983736	-0.000176477	0.000206578	3.00917E-05	0	0	0	
0.2925	-0.0114125	0.000344373	0.00019711	3.12941E-05	0	0	0	
0.292667	0.0141019	-0.00108402	0.000214352	2.97497E-05	0	0	0	
0.292833	-0.0128373	-0.000243711	0.000242096	2.66436E-05	0	0	0	
0.293	0.0114166	-0.000218704	0.000252722	2.46645E-05	0	0	0	
0.293167	-0.012777	0.00105046	0.000241415	1.86089E-05	0	0	0	
0.293333	0.0115666	-6.83867E-05	0.000232106	2.57952E-05	0	0	0	
0.2935	-0.0140265	8.73842E-05	0.00023332	3.67644E-05	0	0	0	
0.293667	0.0155353	-0.000442486	0.000254753	4.73349E-05	0	0	0	
0.293833	-0.0130444	0.000673784	0.000267015	4.91164E-05	0	0	0	
0.294	0.011205	-9.58239E-05	0.000264563	4.02723E-05	0	0	0	
0.294167	-0.0104487	0.000242896	0.000235779	2.82822E-05	0	0	0	
0.294333	0.0113726	-0.000192919	0.000220977	1.62176E-05	0	0	0	
0.2945	-0.0127748	0.00129169	0.000220172	1.39921E-05	0	0	0	
0.294667	0.014197	-0.000999096	0.000241117	2.17137E-05	0	0	0	
0.294833	-0.012413	0.00235204	0.000252673	3.11981E-05	0	0	0	
0.295	0.0100305	-0.00434129	0.000250309	4.44615E-05	0	0	0	
0.295167	-0.0104898	0.00165246	0.000234502	6.11035E-05	0	0	0	
0.295333	0.0150567	0.00905797	0.000231	0.000117454	0	0	0	
0.2955	-0.0175218	-0.0145446	0.000257236	0.000168669	0	0	0	
0.295667	0.0169614	0.00275459	0.000296057	0.000226357	0	0	0	
0.295833	-0.0168572	0.0104498	0.000321504	0.000265585	0	0	0	
0.296	0.0143005	-0.0113039	0.000319624	0.000254826	0	0	0	
0.296167	-0.0086115	0.00301604	0.000283921	0.000242507	0	0	0	
0.296333	0.00739841	0.00226796	0.000229552	0.000204818	0	0	0	
0.2965	-0.0138216	-0.00703344	0.00022061	0.000200507	0	0	0	
0.296667	0.0202949	0.00888095	0.000262225	0.000191483	0	0	0	
0.296833	-0.0201072	-0.00504474	0.000334707	0.000157418	0	0	0	
0.297	0.0162911	-0.00570075	0.000357586	0.000162944	0	0	0	
0.297167	-0.012484	0.0112242	0.000331823	0.000155247	0	0	0	
0.297333	0.00905429	-0.0047383	0.000271287	0.000172543	0	0	0	
0.2975	-0.00870043	-0.00428674	0.000216295	0.000162086	0	0	0	
0.297667	0.00956864	0.00403649	0.000185128	0.000128853	0	0	0	
0.297833	-0.0118623	0.00337963	0.000191035	0.000125044	0	0	0	
0.298	0.0119744	-0.00619567	0.000206876	0.00011435	0	0	0	
0.298167	-0.0109317	0.00199066	0.000220886	0.000112748	0	0	0	
0.298333	0.00831903	0.00255749	0.000207623	8.59933E-05	0	0	0	
0.2985	-0.0100269	-0.00311569	0.000193442	6.19782E-05	0	0	0	
0.298667	0.0116242	0.000722563	0.000190604	6.25433E-05	0	0	0	
0.298833	-0.0139614	0.00123088	0.000210144	6.09307E-05	0	0	0	
0.299	0.013408	-0.00104599	0.000237062	5.06639E-05	0	0	0	
0.299167	-0.013723	-0.000948454	0.000250738	4.45829E-05	0	0	0	
0.299333	0.0116155	0.00364715	0.000256271	5.14871E-05	0	0	0	
0.2995	-0.0106962	-0.00431218	0.000243188	7.39713E-05	0	0	0	
0.299667	0.0105878	0.00206365	0.000218438	7.51021E-05	0	0	0	
0.299833	-0.0121757	0.000279312	0.000206499	5.96097E-05	0	0	0	
0.3	0.00992493	-0.000600055	0.000211099	3.63738E-05	0	0	0	
0.300167	-0.00662261	-0.00046098	0.000207807	2.0871E-05	0	0	0	
0.300333	0.0109661	0.000386711	0.000195155	1.48689E-05	0	0	0	
0.3005	-0.0143962	-0.00243074	0.000207525	2.10403E-05	0	0	0	
0.300667	0.010779	0.000393953	0.000230951	3.1784E-05	0	0	0	
0.300833	-0.0145375	0.0078756	0.000250648	7.05238E-05	0	0	0	
0.301	0.0183571	-0.0131863	0.000269434	0.000118399	0	0	0	
0.301167	-0.0166192	0.00356545	0.000302735	0.000211363	0	0	0	
0.301333	0.00811158	0.0097254	0.000300891	0.000295645	0	0	0	
0.3015	-0.00692028	-0.0112759	0.000243313	0.0003084	0	0	0	
0.301667	0.0114191	0.00414607	0.00020367	0.00025329	0	0	0	
0.301833	-0.0147924	0.001554	0.000204031	0.000181143	0	0	0	
0.302	0.0105227	-0.00735642	0.000240347	0.000157378	0	0	0	
0.302167	-0.00680316	0.0124786	0.000228715	0.000169418	0	0	0	
0.302333	0.00921792	-0.00965655	0.000214596	0.000182172	0	0	0	
0.3025	-0.0096471	-0.000285887	0.00018926	0.000206408	0	0	0	
0.302667	0.00960652	0.00439974	0.000190404	0.000192626	0	0	0	
0.302833	-0.0122987	-0.000843051	0.000201543	0.000138343	0	0	0	
0.303	0.0159553	-0.00507972	0.000231282	0.000104519	0	0	0	
0.303167	-0.0142243	0.00502946	0.00026041	8.78681E-05	0	0	0	
0.303333	0.0113469	0.000846194	0.0002626	9.7187E-05	0	0	0	
0.3035	-0.010113	-0.00384094	0.000242878	8.33744E-05	0	0	0	
0.303667	0.0120477	0.00183615	0.000220201	6.69469E-05	0	0	0	
0.303833	-0.012767	0.00202122	0.000222472	6.58774E-05	0	0	0	
0.304	0.0123449	-0.00430023	0.000230301	6.00766E-05	0	0	0	
0.304167	-0.0104388	0.00290259	0.000230197	6.92954E-05	0	0	0	
0.304333	0.0103567	-0.000266007	0.000219347	5.89472E-05	0	0	0	
0.3045	-0.0106342	-0.000338542	0.000208073	5.13412E-05	0	0	0	
0.304667	0.0113684	0.000871344	0.000206386	3.21768E-05	0	0	0	
0.304833	-0.0118257	-0.0001514	0.000211628	2.31779E-05	0	0	0	
0.305	0.0111405	-0.0018786	0.000215898	2.73589E-05	0	0	0	
0.305167	-0.00866828	0.00333326	0.000207919	4.6725E-05	0	0	0	
0.305333	0.00993906	-0.00330656	0.000196016	6.98769E-05	0	0	0	
0.3055	-0.0100874	0.00371337	0.000189866	7.62213E-05	0	0	0	
0.305667	0.0117325	0.000288804	0.000198409	6.38721E-05	0	0	0	
0.305833	-0.0134621	-0.00207007	0.000214736	5.82156E-05	0	0	0	
0.306	0.0129439	0.00235165	0.000231917	4.83894E-05	0	0	0	
0.306167	-0.0113175	-0.00210412	0.000239394	5.39544E-05	0	0	0	
0.306333	0.012584	0.000225078	0.000237079	4.17206E-05	0	0	0	
0.3065	-0.0137478	0.00103867	0.000241667	3.4407E-05	0	0	0	
0.306667	0.0122097	0.00105808	0.000250447	2.21044E-05	0	0	0	
0.306833	-0.0136047	-0.00104312	0.000253779	2.69434E-05	0	0	0	
0.307	0.0133237	-0.00115428	0.000254116	3.33963E-05	0	0	0	
0.307167	-0.0138099	0.00160904	0.000255477	4.03581E-05	0	0	0	
0.307333	0.0136544	-0.00253074	0.000263275	3.50042E-05	0	0	0	
0.3075	-0.0124358	0.00298538	0.00025615	4.47469E-05	0	0	0	
0.307667	0.0116393	-0.000590441	0.000246117	5.32461E-05	0	0	0	
0.307833	-0.012964	-0.00156166	0.000234338	7.12463E-05	0	0	0	
0.308	0.0133415	0.00146726	0.000236339	6.76561E-05	0	0	0	
0.308167	-0.0127155	-0.000347553	0.00024289	5.55934E-05	0	0	0	
0.308333	0.0109852	-0.00165393	0.000247408	4.89E-05	0	0	0	
0.3085	-0.0119272	0.00303802	0.000228302	4.68057E-05	0	0	0	
0.308667	0.0108725	-0.00136581	0.000219462	5.81052E-05	0	0	0	
0.308833	-0.00927794	-0.00070442	0.000211078	6.28973E-05	0	0	0	
0.309	0.0104607	0.00110823	0.000207337	5.47643E-05	0	0	0	
0.309167	-0.0126315	-0.00142734	0.00020929	4.67017E-05	0	0	0	
0.309333	0.0115572	0.000345502	0.000218357	3.05896E-05	0	0	0	
0.3095	-0.011428	0.00166124	0.000222333	3.12409E-05	0	0	0	
0.309667	0.014158	-0.0016004	0.000233163	2.96521E-05	0	0	0	
0.309833	-0.0139479	0.00117953	0.000239532	4.20533E-05	0	0	0	
0.31	0.010802	0.00083909	0.00025503	5.02944E-05	0	0	0	
0.310167	-0.0107655	-0.00271451	0.000244783	5.20355E-05	0	0	0	
0.310333	0.0116718	0.000518675	0.000231858	4.23791E-05	0	0	0	
0.3105	-0.0105654	0.00181137	0.000221027	3.21045E-05	0	0	0	
0.310667	0.010846	-0.00156055	0.000216984	3.05082E-05	0	0	0	
0.310833	-0.0117522	0.000390241	0.000211237	2.92327E-05	0	0	0	
0.311	0.0120463	0.000446819	0.0002195	2.81539E-05	0	0	0	
0.311167	-0.0125781	-0.00103388	0.000223327	2.07539E-05	0	0	0	
0.311333	0.012609	-0.000297519	0.000235265	1.41434E-05	0	0	0	
0.3115	-0.0114404	0.000443486	0.000235716	1.56931E-05	0	0	0	
0.311667	0.0119008	-2.44186E-05	0.000232439	1.57158E-05	0	0	0	
0.311833	-0.0130412	-0.00131248	0.000231982	1.7668E-05	0	0	0	
0.312	0.012869	-7.01047E-05	0.000239087	3.49282E-05	0	0	0	
0.312167	-0.0118496	0.00785106	0.000245486	7.29319E-05	0	0	0	
0.312333	0.0117149	-0.00931359	0.000243109	0.000113928	0	0	0	
0.3125	-0.0108405	0.00322538	0.000230374	0.000168441	0	0	0	
0.312667	0.00901105	0.00719897	0.000215898	0.000214086	0	0	0	
0.312833	-0.00995222	-0.00766837	0.000202551	0.000206608	0	0	0	
0.313	0.0131773	0.00207191	0.000208472	0.000185056	0	0	0	
0.313167	-0.0140231	0.00471315	0.000224316	0.000163681	0	0	0	
0.313333	0.0125084	-0.00859405	0.000247573	0.000185712	0	0	0	
0.3135	-0.00908199	0.010978	0.000245144	0.00018697	0	0	0	
0.313667	0.00803917	-0.00852041	0.000219717	0.000189295	0	0	0	
0.313833	-0.00839644	-3.11432E-06	0.00018213	0.000192341	0	0	0	
0.314	0.00933175	0.00467325	0.000162609	0.000167623	0	0	0	
0.314167	-0.0101239	-0.00144567	0.000166403	0.000129775	0	0	0	
0.314333	0.013233	-0.00492162	0.000188051	0.000116817	0	0	0	
0.3145	-0.0130275	0.00544896	0.000216901	0.000118234	0	0	0	
0.314667	0.0118821	-0.00169912	0.000236923	0.000113059	0	0	0	
0.314833	-0.00924802	-0.00222583	0.000232504	8.44096E-05	0	0	0	
0.315	0.00962732	0.00204636	0.000207939	6.28011E-05	0	0	0	
0.315167	-0.0104141	0.000397247	0.000193586	5.84846E-05	0	0	0	
0.315333	0.0118369	-0.00355454	0.000196039	5.82798E-05	0	0	0	
0.3155	-0.0106397	0.00308241	0.000208165	6.84438E-05	0	0	0	
0.315667	0.0103501	-0.00168773	0.000210298	6.16207E-05	0	0	0	
0.315833	-0.0107213	-0.000224369	0.000211783	4.77886E-05	0	0	0	
0.316	0.011764	-0.00111702	0.000211446	3.85339E-05	0	0	0	
0.316167	-0.0132639	-0.000909314	0.000226252	3.6659E-05	0	0	0	
0.316333	0.012914	0.00253457	0.000239495	3.91874E-05	0	0	0	
0.3165	-0.0118381	-0.00147918	0.000248571	3.55215E-05	0	0	0	
0.316667	0.00996422	-0.000866082	0.000238273	3.44573E-05	0	0	0	
0.316833	-0.010896	0.000287421	0.000224513	3.42026E-05	0	0	0	
0.317	0.0118052	-5.07458E-05	0.000219121	3.05149E-05	0	0	0	
0.317167	-0.0107308	0.000151996	0.000228662	2.88113E-05	0	0	0	
0.317333	0.00885901	-0.00300783	0.000229611	3.14807E-05	0	0	0	
0.3175	-0.012016	0.00641712	0.00022582	5.72288E-05	0	0	0	
0.317667	0.0164264	-0.000133209	0.000229594	0.000105419	0	0	0	
0.317833	-0.0193821	-0.00881248	0.000272562	0.000158966	0	0	0	
0.318	0.0167142	0.0107596	0.00032866	0.000188688	0	0	0	
0.318167	-0.0159371	-0.0075111	0.000361618	0.00019207	0	0	0	
0.318333	0.015648	0.00250823	0.000358786	0.000165244	0	0	0	
0.3185	-0.0142309	0.000486675	0.000348095	0.00013319	0	0	0	
0.318667	0.0100445	-0.00409417	0.000320501	0.000105249	0	0	0	
0.318833	-0.0148491	0.00657277	0.000296881	9.15575E-05	0	0	0	
0.319	0.019699	-0.00245688	0.000292733	0.000105897	0	0	0	
0.319167	-0.0183815	-0.00368194	0.000319677	0.000129664	0	0	0	
