0	0.0142933	0.00146493	1.42933E-06	1.46493E-07	0	0	0	
0.000166667	0.00071143	-0.00125779	0.000250197	3.36508E-05	0	0	0	
0.000333333	-0.0202634	-0.00192731	0.000601453	8.0285E-05	0	0	0	
0.0005	0.015653	0.00285601	0.000874869	0.00012246	0	0	0	
0.000666667	-0.0147765	-0.0034012	0.000903267	0.000129572	0	0	0	
0.000833333	0.0325468	0.00351401	0.000897013	0.000129853	0	0	0	
0.001	-0.0163554	-0.00182138	0.000843514	0.00012457	0	0	0	
0.00116667	-0.0300519	-0.00303232	0.000697791	0.000108797	0	0	0	
0.00133333	0.0300874	0.00486101	0.00074464	0.000103414	0	0	0	
0.0015	-0.00171572	-0.00197727	0.00104635	0.000120408	0	0	0	
0.00166667	0.00925082	-0.000406635	0.00122339	0.00015804	0	0	0	
0.00183333	-0.0250698	4.56809E-05	0.0011177	0.00019424	0	0	0	
0.002	0.0111464	0.000276603	0.00110026	0.000222222	0	0	0	
0.00216667	0.0144436	0.00191263	0.00136646	0.000209121	0	0	0	
0.00233333	-0.00955978	0.00577559	0.00141271	0.000159174	0	0	0	
0.0025	-0.03041	-0.00717559	0.00101151	0.000125528	0	0	0	
0.00266667	0.0652911	0.00223249	0.000709238	0.000126168	0	0	0	
0.00283333	-0.0180985	-0.00207325	0.000908808	0.000169394	0	0	0	
0.003	-0.053802	0.00352631	0.0015332	0.000192962	0	0	0	
0.00316667	0.0371228	-0.00226816	0.00160968	0.000231561	0	0	0	
0.00333333	0.0248016	-0.000746424	0.00121822	0.000249911	0	0	0	
0.0035	-0.00458787	-6.15984E-05	0.000925492	0.000211588	0	0	0	
0.00366667	-0.0145241	0.000849519	0.00100978	0.00013231	0	0	0	
0.00383333	-0.029226	0.00103013	0.00102765	0.000102719	0	0	0	
0.004	0.0131927	-0.00603349	0.00116779	0.000160926	0	0	0	
0.00416667	0.0639334	0.000274349	0.00175248	0.000197586	0	0	0	
0.00433333	-0.0402621	0.00442675	0.00215977	0.000153581	0	0	0	
0.0045	-0.0303926	-0.0045249	0.00176455	0.000105143	0	0	0	
0.00466667	0.0277129	0.00100092	0.00117029	9.81064E-05	0	0	0	
0.00483333	-0.00422417	-0.00264605	0.00108487	0.000118466	0	0	0	
0.005	0.0157531	0.00458212	0.0012231	0.000152106	0	0	0	
0.00516667	-0.00569414	-0.00173157	0.00124543	0.000205381	0	0	0	
0.00533333	-0.0199812	0.0015748	0.00127116	0.000225989	0	0	0	
0.0055	0.00268019	-0.00232912	0.00118034	0.000193107	0	0	0	
0.00566667	0.0377883	0.000714983	0.00088526	0.000167904	0	0	0	
0.00583333	-0.0493893	0.00109846	0.000759242	0.000188949	0	0	0	
0.006	0.0277248	0.0010793	0.00110694	0.000206891	0	0	0	
0.00616667	0.000644775	-0.0012407	0.00156084	0.000182192	0	0	0	
0.00633333	-0.00272241	0.00167409	0.00160103	0.000132693	0	0	0	
0.0065	-0.0161577	-0.00261227	0.00130973	0.00010232	0	0	0	
0.00666667	0.0166222	0.00283083	0.00104694	0.000110821	0	0	0	
0.00683333	-0.010541	-0.000558322	0.00101876	0.000135657	0	0	0	
0.007	0.00705202	0.00351481	0.00109518	0.000155193	0	0	0	
0.00716667	-0.00524524	-0.00572565	0.00107182	0.000171877	0	0	0	
0.00733333	0.0178237	0.00282683	0.000935472	0.000189276	0	0	0	
0.0075	-0.0232129	-0.000909545	0.000888841	0.000187491	0	0	0	
0.00766667	-0.0019381	0.00479992	0.00104104	0.000167523	0	0	0	
0.00783333	0.00962955	-0.00235796	0.00117311	0.000174952	0	0	0	
0.008	0.0175945	-0.000200944	0.00106296	0.000219277	0	0	0	
0.00816667	-0.0183006	-0.0025685	0.000926114	0.000221572	0	0	0	
0.00833333	-0.00136364	0.00509414	0.00102651	0.000178056	0	0	0	
0.0085	0.0003629	-0.00103002	0.00119174	0.000147821	0	0	0	
0.00866667	0.0105984	-0.00113686	0.00118528	0.0001744	0	0	0	
0.00883333	-0.000368658	-0.00111334	0.00111151	0.000181083	0	0	0	
0.009	0.00564841	0.00401949	0.00109457	0.000152868	0	0	0	
0.00916667	-0.018548	-0.00272378	0.00106408	0.000133223	0	0	0	
0.00933333	0.018705	-0.00101791	0.00106043	0.000150648	0	0	0	
0.0095	-0.00603811	0.000541505	0.00118867	0.000150879	0	0	0	
0.00966667	0.00218228	0.00110318	0.00134238	0.000128074	0	0	0	
0.00983333	0.00232245	0.000158514	0.00136034	0.000131851	0	0	0	
0.01	0.00730514	-0.0034707	0.00127383	0.000163513	0	0	0	
0.0101667	-0.0139967	-0.00177477	0.00119925	0.000160221	0	0	0	
0.0103333	0.0154251	0.00585021	0.00119211	0.000132944	0	0	0	
0.0105	-0.0104594	0.00166724	0.00125002	0.000158229	0	0	0	
0.0106667	0.00347892	-0.00805241	0.00134818	0.000229047	0	0	0	
0.0108333	0.0113945	0.000227835	0.00141344	0.000238044	0	0	0	
0.011	-0.00950719	0.00509226	0.00136371	0.000201566	0	0	0	
0.0111667	-0.0047985	0.00354597	0.00116872	0.000232867	0	0	0	
0.0113333	0.020895	-0.00191242	0.000979662	0.000237251	0	0	0	
0.0115	-0.0163462	-0.0130984	0.00098613	0.000242767	0	0	0	
0.0116667	0.00444323	0.012975	0.00118645	0.00020765	0	0	0	
0.0118333	-0.00377728	0.00718969	0.00128776	0.000361617	0	0	0	
0.012	0.0202724	-0.00898695	0.00124088	0.00041735	0	0	0	
0.0121667	-0.0106572	-0.0046502	0.00129011	0.000360976	0	0	0	
0.0123333	-0.0183516	0.000276128	0.00151803	0.000236346	0	0	0	
0.0125	0.0125707	0.00871106	0.00153686	0.000195882	0	0	0	
0.0126667	0.0184676	-0.00071602	0.00125675	0.00019158	0	0	0	
0.0128333	-0.00351211	-0.0117649	0.00111971	0.000164738	0	0	0	
0.013	-0.0234901	0.00832855	0.00129418	0.000160838	0	0	0	
0.0131667	-0.00290563	-0.00208734	0.00129237	0.000226077	0	0	0	
0.0133333	0.0314215	-0.00157961	0.00104781	0.000239795	0	0	0	
0.0135	-0.00646778	-0.00209943	0.00100847	0.000215454	0	0	0	
0.0136667	-0.00637433	0.000615007	0.00123481	0.00018865	0	0	0	
0.0138333	-0.0267432	0.00283579	0.00124389	0.000223827	0	0	0	
0.014	0.0338456	-0.00585947	0.00114624	0.000254188	0	0	0	
0.0141667	0.00351463	0.0023254	0.00129062	0.000231577	0	0	0	
0.0143333	-0.00744519	-0.000252516	0.00144157	0.000176372	0	0	0	
0.0145	-0.0218672	-0.0024263	0.00122747	0.000160749	0	0	0	
0.0146667	0.0145226	0.00452729	0.0010053	0.000173271	0	0	0	
0.0148333	0.0127456	-0.00489518	0.00110121	0.000190274	0	0	0	
0.015	0.0077004	0.00224038	0.00114819	0.00019039	0	0	0	
0.0151667	-0.025717	9.72972E-05	0.00102004	0.000181289	0	0	0	
0.0153333	-0.00295124	-0.000747496	0.00101807	0.000167439	0	0	0	
0.0155	0.0144525	-0.00161418	0.00115341	0.000162377	0	0	0	
0.0156667	0.0165656	0.000853382	0.00105668	0.000168622	0	0	0	
0.0158333	-0.0168259	-0.000507352	0.000878236	0.000164762	0	0	0	
0.016	-0.000591384	0.00057402	0.000935802	0.000148035	0	0	0	
0.0161667	-0.0145569	0.000671564	0.0010597	0.000161952	0	0	0	
0.0163333	0.0172842	-0.00351848	0.00109861	0.00021227	0	0	0	
0.0165	0.00816818	0.00127894	0.00116874	0.0002319	0	0	0	
0.0166667	0.00390771	0.00313207	0.00118627	0.000182021	0	0	0	
0.0168333	-0.0297355	-0.00514041	0.00110157	0.000125539	0	0	0	
0.017	0.00216197	0.00291983	0.00113623	0.000117958	0	0	0	
0.0171667	0.0197322	-0.00364988	0.00134142	0.000158894	0	0	0	
0.0173333	0.00829281	0.00178031	0.00128998	0.000176138	0	0	0	
0.0175	-0.0162547	-0.00163907	0.00106147	0.000166435	0	0	0	
0.0176667	-0.00294841	0.00172525	0.000992276	0.000154189	0	0	0	
0.0178333	-0.0155019	0.00068303	0.00100955	0.000172388	0	0	0	
0.018	0.0332911	0.000312562	0.0009848	0.000184244	0	0	0	
0.0181667	-0.015387	-0.00688213	0.0010338	0.000163962	0	0	0	
0.0183333	0.0273782	0.00922315	0.00119687	0.000163562	0	0	0	
0.0185	-0.0529091	8.05612E-05	0.00133537	0.000240836	0	0	0	
0.0186667	0.00652977	-0.00788818	0.00152718	0.000329469	0	0	0	
0.0188333	0.0466029	0.00482632	0.00170213	0.000294744	0	0	0	
0.019	-0.0149559	6.31706E-05	0.00144812	0.000181531	0	0	0	
0.0191667	-0.0222369	0.00645651	0.000876134	0.000103501	0	0	0	
0.0193333	-0.00402218	0.000207838	0.000668857	0.000125479	0	0	0	
0.0195	0.0117171	-0.00918914	0.000869723	0.000136692	0	0	0	
0.0196667	0.0315245	0.00756415	0.000905894	0.000140104	0	0	0	
0.0198333	-0.0362521	-0.00171978	0.000874134	0.000144163	0	0	0	
0.02	-0.0393598	-0.00435835	0.00119993	0.000187132	0	0	0	
0.0201667	0.0718047	-7.7599E-05	0.00157615	0.000186968	0	0	0	
0.0203333	0.00832285	0.00749489	0.00151661	0.000179325	0	0	0	
0.0205	-0.0779704	-0.00324037	0.00103588	0.000172075	0	0	0	
0.0206667	0.0152001	-0.00366538	0.00120075	0.00019523	0	0	0	
0.0208333	0.0535282	0.00415782	0.00163393	0.000206246	0	0	0	
0.021	-0.0109357	-0.00445745	0.00162939	0.000197599	0	0	0	
0.0211667	-0.00986705	0.00311228	0.00111512	0.000171054	0	0	0	
0.0213333	-0.0642195	-0.00574515	0.0011348	0.000138689	0	0	0	
0.0215	0.0758106	0.00342284	0.00149926	0.000130988	0	0	0	
0.0216667	0.00428455	0.00134253	0.00157455	0.000126071	0	0	0	
0.0218333	-0.0345104	0.000664203	0.00113283	0.000144347	0	0	0	
0.022	-0.0101293	-0.00177312	0.00127928	0.000159016	0	0	0	
0.0221667	0.0331819	0.000132769	0.00163764	0.000169529	0	0	0	
0.0223333	-0.00442008	0.00170316	0.00164109	0.000165806	0	0	0	
0.0225	-0.021754	-0.000870824	0.0011499	0.000174586	0	0	0	
0.0226667	0.0081427	0.000536665	0.00100067	0.000195309	0	0	0	
0.0228333	0.0168697	-0.000581698	0.0012055	0.000196436	0	0	0	
0.023	-0.00127709	0.00203567	0.00122448	0.000184997	0	0	0	
0.0231667	-0.022042	-0.00286741	0.000994028	0.000186266	0	0	0	
0.0233333	0.00575549	0.00461925	0.000971749	0.000190455	0	0	0	
0.0235	0.0148352	-0.00308994	0.00122998	0.000170158	0	0	0	
0.0236667	-0.00574865	-0.0015417	0.00135799	0.000140535	0	0	0	
0.0238333	0.00734024	0.00123445	0.00127531	0.000124587	0	0	0	
0.024	-0.018689	-1.25329E-05	0.00122092	0.000134794	0	0	0	
0.0241667	0.00968122	0.00582012	0.0012159	0.000163983	0	0	0	
0.0243333	0.00540408	-0.00325508	0.00113535	0.000162993	0	0	0	
0.0245	0.000829275	-0.00440231	0.00115302	0.000126982	0	0	0	
0.0246667	-0.0197799	0.00622818	0.00137099	0.000124024	0	0	0	
0.0248333	0.0146357	-0.00060918	0.00144762	0.000209717	0	0	0	
0.025	0.0242943	0.00191061	0.00119429	0.000272751	0	0	0	
0.0251667	-0.0293553	-0.00399575	0.00106352	0.000277094	0	0	0	
0.0253333	-0.00705275	-0.00202055	0.00133014	0.000279427	0	0	0	
0.0255	0.00365534	0.0105444	0.00153363	0.000305834	0	0	0	
0.0256667	0.0274362	-0.00324637	0.00139056	0.000285822	0	0	0	
0.0258333	0.00271367	-0.0061138	0.00132092	0.000175301	0	0	0	
0.026	-0.0442639	0.00546898	0.00152384	0.000110958	0	0	0	
0.0261667	0.0153583	0.000917274	0.00146045	0.000127388	0	0	0	
0.0263333	0.0307313	-0.00169748	0.000958099	0.000172003	0	0	0	
0.0265	-0.0135998	-0.00225276	0.000707877	0.000161524	0	0	0	
0.0266667	-0.00966016	0.00437435	0.000961259	0.000137461	0	0	0	
0.0268333	-0.00105702	-0.000649722	0.00118975	0.000158596	0	0	0	
0.027	0.00639324	-0.00381719	0.00117738	0.000201948	0	0	0	
0.0271667	0.0130643	-0.00221827	0.0012182	0.000204175	0	0	0	
0.0273333	-0.0180718	0.00454998	0.00135884	0.000195519	0	0	0	
0.0275	0.00358698	0.00176186	0.00131868	0.000231019	0	0	0	
0.0276667	0.00433931	-0.00575879	0.00115104	0.000268478	0	0	0	
0.0278333	9.97339E-05	0.00293801	0.00113555	0.000240834	0	0	0	
0.028	-0.00352816	-0.000323249	0.00124141	0.0001631	0	0	0	
0.0281667	0.00547351	-0.000895999	0.00128638	0.000128887	0	0	0	
0.0283333	-0.00196036	-0.00259902	0.00123823	0.000152814	0	0	0	
0.0285	0.00257472	0.00456139	0.0012415	0.000191474	0	0	0	
0.0286667	-0.0193877	-0.00190983	0.00135828	0.000198471	0	0	0	
0.0288333	0.02816	-0.00108971	0.00141369	0.000180409	0	0	0	
0.029	0.000510149	-0.000884645	0.0011981	0.000183433	0	0	0	
0.0291667	-0.0260509	0.00360938	0.000901452	0.000207354	0	0	0	
0.0293333	0.00691846	-0.00290404	0.000948472	0.000213328	0	0	0	
0.0295	0.0120019	-0.00241758	0.00122102	0.000182349	0	0	0	
0.0296667	0.0218023	0.00264443	0.00122253	0.000166294	0	0	0	
0.0298333	-0.0357534	0.000371392	0.00112416	0.000182664	0	0	0	
0.03	-0.0156146	-0.00108989	0.00138537	0.00018077	0	0	0	
0.0301667	0.0374112	-0.00123995	0.00168707	0.000148437	0	0	0	
0.0303333	0.0120945	-0.00345457	0.00145587	0.000137382	0	0	0	
0.0305	-0.0178751	0.00558264	0.00104682	0.00016431	0	0	0	
0.0306667	-0.029105	-0.0023037	0.0012087	0.000174822	0	0	0	
0.0308333	0.0328357	0.000594202	0.00147147	0.000155707	0	0	0	
0.031	0.00392881	-0.0031786	0.00131504	0.000158455	0	0	0	
0.0311667	0.00294124	0.00313671	0.000950597	0.000185816	0	0	0	
0.0313333	-0.0128044	0.000603494	0.000917157	0.000208861	0	0	0	
0.0315	-0.00398732	-0.000788373	0.000984095	0.000231346	0	0	0	
0.0316667	0.0120064	-0.00386923	0.00098511	0.000248699	0	0	0	
0.0318333	0.00120782	0.00102033	0.00103112	0.0002199	0	0	0	
0.032	-0.00478267	0.00292851	0.0012061	0.000158293	0	0	0	
0.0321667	0.0132808	0.00018807	0.00134499	0.000156132	0	0	0	
0.0323333	-0.014195	-0.00309795	0.00133952	0.000199817	0	0	0	
0.0325	0.00331224	0.000294704	0.00124122	0.000195563	0	0	0	
0.0326667	-0.0113086	-0.00304566	0.00119931	0.000139	0	0	0	
0.0328333	0.0287313	0.0058399	0.00122898	0.000134699	0	0	0	
0.033	-0.0100675	-0.00366127	0.00117552	0.000176969	0	0	0	
0.0331667	-0.0120631	-0.00225212	0.00100233	0.000193056	0	0	0	
0.0333333	-0.00785558	-0.000827338	0.00101646	0.000179659	0	0	0	
0.0335	0.0213461	0.00408057	0.00114678	0.000186708	0	0	0	
0.0336667	-0.00247915	-0.0034102	0.00112865	0.000210272	0	0	0	
0.0338333	-0.000410069	-0.00119333	0.00100349	0.000223834	0	0	0	
0.034	-0.0202396	0.00224286	0.00109027	0.000220065	0	0	0	
0.0341667	0.00911226	-0.00178863	0.00118307	0.000197345	0	0	0	
0.0343333	0.0130093	0.00041009	0.00107953	0.000178154	0	0	0	
0.0345	0.00336089	0.00157351	0.00105946	0.000194587	0	0	0	
0.0346667	-0.0296366	-0.00156728	0.0013113	0.000226702	0	0	0	
0.0348333	0.0243042	-0.00254547	0.00151204	0.000221616	0	0	0	
0.035	-0.0143333	0.00146308	0.00137574	0.000184065	0	0	0	
0.0351667	0.00921521	0.00315052	0.00110109	0.000173821	0	0	0	
0.0353333	0.0101528	-0.00277392	0.000889918	0.000202407	0	0	0	
0.0355	-0.0237984	-0.000299054	0.000897083	0.000229102	0	0	0	
0.0356667	0.00559236	0.000181612	0.00115061	0.000227296	0	0	0	
0.0358333	0.0153565	0.00221765	0.00142355	0.000193507	0	0	0	
0.036	-0.00510598	0.000499846	0.00135577	0.000142728	0	0	0	
0.0361667	0.00156441	-0.00111058	0.00108119	9.68696E-05	0	0	0	
0.0363333	-0.0148382	0.00376906	0.000982111	0.000108032	0	0	0	
0.0365	0.0148756	-0.00475123	0.00105315	0.000181467	0	0	0	
0.0366667	-0.00175667	-0.000609567	0.000987951	0.000230515	0	0	0	
0.0368333	-0.00216079	0.00129503	0.000761739	0.000188148	0	0	0	
0.037	-0.00664455	0.0031286	0.000683137	0.000128499	0	0	0	
0.0371667	0.0206028	0.0108587	0.000837963	0.000164426	0	0	0	
0.0373333	-0.0137081	-0.0118126	0.00103187	0.000263291	0	0	0	
0.0375	-0.00814371	-0.00607433	0.00111338	0.000257111	0	0	0	
0.0376667	0.0106526	0.0138527	0.00123792	0.000219167	0	0	0	
0.0378333	0.0136813	-0.00237487	0.00147494	0.000186708	0	0	0	
0.038	-0.0443826	-0.000648526	0.00170391	0.000241373	0	0	0	
0.0381667	0.0582111	-0.00388757	0.00173136	0.000201104	0	0	0	
0.0383333	-0.0257122	0.00678831	0.00143239	0.000196261	0	0	0	
0.0385	-0.0338611	0.00573512	0.000949929	0.000256039	0	0	0	
0.0386667	0.029901	-0.0151145	0.00086388	0.000316333	0	0	0	
0.0388333	0.0349737	0.00839968	0.00127642	0.000316586	0	0	0	
0.039	-0.0282679	0.00302209	0.00153411	0.000203472	0	0	0	
0.0391667	-0.025704	7.25077E-05	0.00125669	0.000170976	0	0	0	
0.0393333	-0.0030681	-0.00448832	0.0011291	0.000165026	0	0	0	
0.0395	0.0567805	0.00365741	0.00153378	0.000164426	0	0	0	
0.0396667	-0.0324947	-2.9288E-05	0.00176418	0.000138805	0	0	0	
0.0398333	-0.00779299	0.00117117	0.00135231	0.000136074	0	0	0	
0.04	-0.00459403	-0.0016713	0.00102422	0.000190714	0	0	0	
0.0401667	0.0276593	0.00055331	0.00114122	0.000229603	0	0	0	
0.0403333	-0.0190271	0.00151752	0.00128195	0.000213135	0	0	0	
0.0405	-0.00741582	0.00149414	0.00104563	0.000182755	0	0	0	
0.0406667	0.0101129	-0.00398639	0.000913124	0.000180845	0	0	0	
0.0408333	0.0260533	0.0052033	0.00126546	0.000197104	0	0	0	
0.041	-0.0528415	-0.00260075	0.0017212	0.000207717	0	0	0	
0.0411667	0.035854	0.00212541	0.00177598	0.000197206	0	0	0	
0.0413333	-0.0138215	-0.00120854	0.00138148	0.000175975	0	0	0	
0.0415	0.00701776	0.00201816	0.00100578	0.000163273	0	0	0	
0.0416667	0.000147271	-0.00305333	0.000896669	0.000182303	0	0	0	
0.0418333	0.00966097	0.000845997	0.00107122	0.000201488	0	0	0	
0.042	-0.0246285	0.00203519	0.00126434	0.000193137	0	0	0	
0.0421667	0.0116231	0.000847231	0.00122825	0.000179184	0	0	0	
0.0423333	-0.00204303	-0.00576741	0.0010433	0.000198174	0	0	0	
0.0425	0.024197	0.00445629	0.000983737	0.000226771	0	0	0	
0.0426667	-0.0194303	-0.000620521	0.000978142	0.00020028	0	0	0	
0.0428333	-0.00524791	0.000785873	0.000880185	0.000129502	0	0	0	
0.043	-0.0177883	-0.00156443	0.000907481	7.87905E-05	0	0	0	
0.0431667	0.0513476	0.00159203	0.00112256	8.75179E-05	0	0	0	
0.0433333	-0.0293899	-0.00255856	0.0012713	0.00013953	0	0	0	
0.0435	0.0153903	0.00496679	0.00109024	0.000188872	0	0	0	
0.0436667	-0.0291601	-0.00561036	0.000995854	0.000207468	0	0	0	
0.0438333	0.0185978	0.00536834	0.00099535	0.000204431	0	0	0	
0.044	-0.00504662	-0.00225695	0.0010532	0.000208872	0	0	0	
0.0441667	0.0309285	0.000601825	0.00116545	0.000202096	0	0	0	
0.0443333	-0.0343113	0.00392692	0.00126342	0.000167996	0	0	0	
0.0445	0.00864968	-0.00110775	0.00120371	0.000154633	0	0	0	
0.0446667	-0.020702	-0.00513578	0.00110593	0.00021656	0	0	0	
0.0448333	0.0430692	0.00304079	0.00114744	0.000256984	0	0	0	
0.045	-0.0134922	0.00395091	0.00113845	0.000206712	0	0	0	
0.0451667	0.00216658	0.000333575	0.000974557	0.000130709	0	0	0	
0.0453333	-0.0321922	-0.0092983	0.000995707	0.000130762	0	0	0	
0.0455	0.0183561	0.00643697	0.00106023	0.000170327	0	0	0	
0.0456667	0.0142923	-0.00145033	0.00103531	0.000158662	0	0	0	
0.0458333	0.0151314	0.00283083	0.00116781	0.000143661	0	0	0	
0.046	-0.0483284	-0.00604775	0.00153187	0.000148604	0	0	0	
0.0461667	0.0297128	0.00185345	0.00171455	0.000171249	0	0	0	
0.0463333	-0.0198691	-0.00226499	0.00145181	0.000174402	0	0	0	
0.0465	0.0314072	0.00291395	0.00118504	0.000181436	0	0	0	
0.0466667	-0.0122892	-0.00350436	0.00104376	0.000183058	0	0	0	
0.0468333	-0.00246541	0.00220134	0.000995415	0.000188767	0	0	0	
0.047	-0.0245803	-0.00285537	0.0011989	0.000196127	0	0	0	
0.0471667	0.0405741	0.00328775	0.00148941	0.000201444	0	0	0	
0.0473333	-0.0188866	-0.00342993	0.00152304	0.000179827	0	0	0	
0.0475	0.00640942	0.00357064	0.00121248	0.000165005	0	0	0	
0.0476667	-0.00890103	-0.00443745	0.00105143	0.000185508	0	0	0	
0.0478333	0.00327105	0.00286569	0.00112063	0.000215697	0	0	0	
0.048	-0.0034868	-0.00228818	0.00128364	0.000214739	0	0	0	
0.0481667	0.0216156	0.00481147	0.00140935	0.000205398	0	0	0	
0.0483333	-0.0324417	-0.00400368	0.00144061	0.000208916	0	0	0	
0.0485	0.0218817	0.000152307	0.00128159	0.000202504	0	0	0	
0.0486667	-0.00547151	0.00160384	0.000978371	0.000171656	0	0	0	
0.0488333	0.000184842	-9.06602E-05	0.0008188	0.000141203	0	0	0	
0.049	-0.00548619	-0.000113301	0.000912984	0.000154101	0	0	0	
0.0491667	0.016309	0.000460792	0.00116189	0.000199377	0	0	0	
0.0493333	-0.0368871	-0.00454777	0.00143727	0.000239505	0	0	0	
0.0495	0.0590166	0.00646736	0.00167285	0.00026674	0	0	0	
0.0496667	-0.053535	-0.0104432	0.00172825	0.000265255	0	0	0	
0.0498333	0.00873708	0.00188358	0.00139504	0.000209923	0	0	0	
0.05	0.0349122	0.0112139	0.000855922	0.000207831	0	0	0	
0.0501667	-0.038179	-0.0165273	0.000637454	0.000185829	0	0	0	
0.0503333	0.0124608	0.00438546	0.000937375	0.000309899	0	0	0	
0.0505	-0.00936405	0.00862325	0.00135266	0.000322474	0	0	0	
0.0506667	0.0176005	-0.00350699	0.00153275	0.000319454	0	0	0	
0.0508333	0.0235206	0.00446054	0.0017359	0.000278572	0	0	0	
0.051	-0.107817	-0.0259053	0.00207159	0.000293749	0	0	0	
0.0511667	0.120526	0.0132276	0.00225338	0.000371783	0	0	0	
0.0513333	-0.0116761	0.014287	0.0022587	0.000401351	0	0	0	
0.0515	-0.0919045	-0.00508312	0.00207247	0.000328394	0	0	0	
0.0516667	0.0558002	-0.00797268	0.00192402	0.000377986	0	0	0	
0.0518333	0.0399446	0.000831902	0.00214835	0.000332881	0	0	0	
0.052	-0.0312504	0.00584256	0.00194716	0.000310382	0	0	0	
0.0521667	-0.0185748	0.000596355	0.0016182	0.000198121	0	0	0	
0.0523333	-0.0381251	-0.00974208	0.00141436	0.00021142	0	0	0	
0.0525	0.115444	0.00412318	0.0018086	0.000238104	0	0	0	
0.0526667	-0.0449794	0.0037931	0.00207797	0.000177868	0	0	0	
0.0528333	-0.0495628	-0.0021526	0.00165647	0.000108836	0	0	0	
0.053	0.00602554	-0.00314685	0.00138625	0.00012745	0	0	0	
0.0531667	0.0734134	0.00440284	0.00179546	0.000152619	0	0	0	
0.0533333	-0.0546653	-0.00297846	0.00191097	0.000138042	0	0	0	
0.0535	0.00583012	0.00270259	0.00150734	0.000104263	0	0	0	
0.0536667	0.00200435	-0.00136934	0.000853369	0.000111995	0	0	0	
0.0538333	0.00926413	0.00203384	0.000818379	0.000143006	0	0	0	
0.054	-0.0266103	-0.00421183	0.00113046	0.000183193	0	0	0	
0.0541667	0.0340496	0.00526371	0.00133781	0.000198888	0	0	0	
0.0543333	-0.0129601	-0.00323759	0.00120327	0.000184879	0	0	0	
0.0545	0.00889254	0.00243003	0.00107857	0.000165388	0	0	0	
0.0546667	-0.0453432	-0.00327273	0.00123581	0.000175032	0	0	0	
0.0548333	0.0485918	0.00528385	0.00139774	0.000175687	0	0	0	
0.055	-0.0172018	-0.00183142	0.001265	0.000151599	0	0	0	
0.0551667	0.00300686	-0.00207122	0.000894776	0.000104193	0	0	0	
0.0553333	-0.00354623	0.00189847	0.000762386	0.000107827	0	0	0	
0.0555	-0.000174054	-0.000405985	0.000889902	0.000149824	0	0	0	
0.0556667	-0.0230777	-0.00487789	0.00122834	0.000204767	0	0	0	
0.0558333	0.0535837	0.0082215	0.00154085	0.000223115	0	0	0	
0.056	-0.0579888	-0.00761229	0.00170026	0.000213484	0	0	0	
0.0561667	0.0459814	0.00549836	0.00156756	0.000188588	0	0	0	
0.0563333	-0.030993	-0.00314028	0.00126238	0.000167657	0	0	0	
0.0565	0.0235177	0.00197081	0.00104597	0.000139172	0	0	0	
0.0566667	-0.032831	-0.00464108	0.00102607	0.000115595	0	0	0	
0.0568333	0.0300356	0.00304531	0.00107545	0.000113758	0	0	0	
0.057	-0.013086	-0.00316104	0.0010737	0.000144088	0	0	0	
0.0571667	0.0247464	0.00788595	0.0011251	0.000194132	0	0	0	
0.0573333	-0.0408949	-0.00815491	0.00123848	0.000200381	0	0	0	
0.0575	0.0187752	0.000813364	0.00122395	0.000166903	0	0	0	
0.0576667	-0.00752806	0.000749443	0.00108155	0.000116835	0	0	0	
0.0578333	0.0412818	0.00712083	0.00116285	0.000165424	0	0	0	
0.058	-0.0512338	-0.00758184	0.0013542	0.000214475	0	0	0	
0.0581667	0.0225355	0.00348621	0.00135148	0.000227355	0	0	0	
0.0583333	-0.0234316	-0.00462503	0.00113453	0.000199227	0	0	0	
0.0585	0.0383722	0.00768201	0.0010899	0.000224232	0	0	0	
0.0586667	-0.0253774	-0.00704045	0.00112911	0.00026508	0	0	0	
0.0588333	0.0216356	0.00619061	0.001159	0.000248497	0	0	0	
0.059	-0.0450789	-0.00380764	0.00125512	0.000189793	0	0	0	
0.0591667	0.0473378	0.000398267	0.00136575	0.000148562	0	0	0	
0.0593333	-0.0277532	-0.00315886	0.00129473	0.000154072	0	0	0	
0.0595	0.0201245	0.00682796	0.00106704	0.000163425	0	0	0	
0.0596667	-0.0238817	-0.00082971	0.00095918	0.000148158	0	0	0	
0.0598333	0.0123404	-0.00477427	0.000929111	0.000107813	0	0	0	
0.06	-0.00637621	-0.00266668	0.000962514	0.000109215	0	0	0	
0.0601667	0.0311622	0.00665907	0.00113505	0.000151752	0	0	0	
0.0603333	-0.044455	-0.00513358	0.00132665	0.000176413	0	0	0	
0.0605	0.0259175	0.00126366	0.00132874	0.000156279	0	0	0	
0.0606667	-0.0260031	-0.00321453	0.00115658	0.000142205	0	0	0	
0.0608333	0.0361448	0.00710126	0.00108572	0.000158213	0	0	0	
0.061	-0.0267394	-0.00956514	0.00106803	0.00018891	0	0	0	
0.0611667	0.025825	0.0086084	0.00104394	0.00020913	0	0	0	
0.0613333	-0.0356892	-0.00668776	0.00103221	0.000203007	0	0	0	
0.0615	0.0250726	0.00222132	0.00100947	0.000157338	0	0	0	
0.0616667	-0.0133605	0.000599587	0.000947526	8.86746E-05	0	0	0	
0.0618333	0.0259859	-0.00102326	0.000961167	7.95955E-05	0	0	0	
0.062	-0.0304233	0.000160961	0.00106164	0.000156681	0	0	0	
0.0621667	0.017845	0.0044548	0.001133	0.000266221	0	0	0	
0.0623333	-0.0239813	-0.00752888	0.00116812	0.000306535	0	0	0	
0.0625	0.0395055	0.00818817	0.0012737	0.000277039	0	0	0	
0.0626667	-0.0418021	-0.00829692	0.0014048	0.000246319	0	0	0	
0.0628333	0.060915	0.00959914	0.00151362	0.000238615	0	0	0	
0.063	-0.0850778	-0.008708	0.00156723	0.000219758	0	0	0	
0.0631667	0.0650283	0.00761724	0.00155406	0.00019092	0	0	0	
0.0633333	-0.0522599	-0.000639141	0.00141804	0.000144355	0	0	0	
0.0635	0.0841754	-0.0080575	0.00145186	0.000115396	0	0	0	
0.0636667	-0.0617479	0.0167789	0.00146467	0.000141736	0	0	0	
0.0638333	-0.025643	-0.00747094	0.00126468	0.000191433	0	0	0	
0.064	0.00469239	-0.0114693	0.00113926	0.000273771	0	0	0	
0.0641667	0.126134	0.0286549	0.00181064	0.000344391	0	0	0	
0.0643333	-0.164882	-0.0213001	0.00261081	0.000424665	0	0	0	
0.0645	0.0642352	0.0111516	0.00284477	0.000414653	0	0	0	
0.0646667	0.00719892	-0.00917249	0.00194581	0.000341332	0	0	0	
0.0648333	0.0584991	0.0126223	0.00185275	0.000275123	0	0	0	
0.065	-0.157694	-0.00898429	0.00235566	0.00026717	0	0	0	
0.0651667	0.120081	0.0122153	0.00297883	0.000284171	0	0	0	
0.0653333	-0.0160511	-0.0127032	0.00251192	0.000318071	0	0	0	
0.0655	0.050875	0.0132315	0.00207654	0.000340307	0	0	0	
0.0656667	-0.135716	-0.0131186	0.0023778	0.000332273	0	0	0	
0.0658333	0.0568506	0.00488587	0.00251254	0.000283654	0	0	0	
0.066	0.0539537	0.000641361	0.0019186	0.000223404	0	0	0	
0.0661667	0.0054051	0.00736844	0.00156833	0.000191168	0	0	0	
0.0663333	-0.0905771	-0.00861964	0.00194147	0.000176977	0	0	0	
0.0665	0.0457471	0.00430099	0.00217222	0.000179884	0	0	0	
0.0666667	0.0110036	-0.0053339	0.00149738	0.000185724	0	0	0	
0.0668333	0.013368	0.00757889	0.00104211	0.000207284	0	0	0	
0.067	-0.0585594	-0.00487605	0.00130225	0.00021728	0	0	0	
0.0671667	0.0692498	0.00390419	0.00171243	0.000198484	0	0	0	
0.0673333	-0.0547845	-0.00417979	0.00163308	0.000178025	0	0	0	
0.0675	0.0316859	0.00159375	0.00124927	0.000175075	0	0	0	
0.0676667	-0.0172773	-0.00144784	0.000954306	0.000161353	0	0	0	
0.0678333	0.0208086	0.00324219	0.000891278	0.000148944	0	0	0	
0.068	-0.0432906	-0.00744312	0.00110672	0.000177385	0	0	0	
0.0681667	0.0731626	0.0135852	0.00145785	0.000228469	0	0	0	
0.0683333	-0.0707557	-0.0107412	0.00161492	0.000254537	0	0	0	
0.0685	0.0288048	0.0017457	0.00142171	0.000194506	0	0	0	
0.0686667	-0.00966385	-0.00219488	0.00106273	0.000145534	0	0	0	
0.0688333	0.0374586	0.000533719	0.00103563	8.47712E-05	0	0	0	
0.069	-0.038037	0.00177205	0.0011519	0.0001062	0	0	0	
0.0691667	0.0126029	0.00105572	0.00120121	0.000165899	0	0	0	
0.0693333	-0.0220389	-0.00800788	0.00120814	0.00028394	0	0	0	
0.0695	0.0638123	0.0147365	0.00146616	0.000361007	0	0	0	
0.0696667	-0.0662963	-0.0152165	0.00172755	0.000369147	0	0	0	
0.0698333	0.0431427	0.0093078	0.00161517	0.000308204	0	0	0	
0.07	-0.0299642	-0.00609881	0.00124962	0.000237218	0	0	0	
0.0701667	0.0239632	0.00516474	0.00102499	0.000186016	0	0	0	
0.0703333	-0.0266436	-0.00583059	0.00105132	0.000157664	0	0	0	
0.0705	0.0504009	0.00464946	0.00125433	0.00015064	0	0	0	
0.0706667	-0.0511203	-0.001714	0.00138129	0.000150962	0	0	0	
0.0708333	0.0233451	-0.000986546	0.00125992	0.000155288	0	0	0	
0.071	-0.0183655	-0.00170344	0.00106347	0.00017351	0	0	0	
0.0711667	0.0376133	0.00715599	0.00108	0.000199092	0	0	0	
0.0713333	-0.0383029	-0.00780925	0.00120863	0.000229019	0	0	0	
0.0715	0.0336793	0.00432417	0.00127882	0.000234438	0	0	0	
0.0716667	-0.0447552	-0.00487547	0.00128907	0.000219805	0	0	0	
0.0718333	0.0487325	0.00430633	0.00132275	0.000194846	0	0	0	
0.072	-0.0428644	-0.00590953	0.00131838	0.000177335	0	0	0	
0.0721667	0.0425159	0.00764604	0.00123581	0.000177444	0	0	0	
0.0723333	-0.0368963	-0.00627343	0.00114757	0.000178146	0	0	0	
0.0725	0.024339	0.0026955	0.00107019	0.000160195	0	0	0	
0.0726667	-0.0341593	-0.00373889	0.00109122	0.000139808	0	0	0	
0.0728333	0.0520338	0.00493744	0.00120537	0.000142243	0	0	0	
0.073	-0.0416085	-0.00452504	0.00125911	0.000153935	0	0	0	
0.0731667	0.0238712	0.00382585	0.00114027	0.000155015	0	0	0	
0.0733333	-0.0351853	-0.00633714	0.00106834	0.000163316	0	0	0	
0.0735	0.0472024	0.00925649	0.001161	0.000196688	0	0	0	
0.0736667	-0.0453175	-0.007957	0.00127088	0.000219231	0	0	0	
0.0738333	0.0360826	0.00353037	0.00120947	0.0001937	0	0	0	
0.074	-0.0290871	-0.00366885	0.00105675	0.000165031	0	0	0	
0.0741667	0.0339944	0.0066873	0.00103109	0.000176615	0	0	0	
0.0743333	-0.0577733	-0.00725844	0.00119475	0.000206527	0	0	0	
0.0745	0.0639637	0.00510852	0.00136935	0.000205889	0	0	0	
0.0746667	-0.0497214	-0.00399107	0.00135909	0.000181015	0	0	0	
0.0748333	0.0382253	0.00600373	0.0011607	0.000162415	0	0	0	
0.075	-0.0360273	-0.00455097	0.00097406	0.000160629	0	0	0	
0.0751667	0.0221554	-0.00182626	0.000870109	0.000139455	0	0	0	
0.0753333	-0.0171409	0.00428918	0.000883153	0.000132082	0	0	0	
0.0755	0.0359417	0.00235843	0.00111221	0.00020013	0	0	0	
0.0756667	-0.0664244	-0.0177272	0.0014555	0.000334422	0	0	0	
0.0758333	0.0660842	0.0245276	0.00165183	0.000406096	0	0	0	
0.076	-0.0512898	-0.0131873	0.00152747	0.000429762	0	0	0	
0.0761667	0.0547513	0.000348637	0.00127697	0.000349911	0	0	0	
0.0763333	-0.0380816	-0.00206432	0.00104303	0.000243784	0	0	0	
0.0765	-0.000493612	-0.000944807	0.000762443	0.000108804	0	0	0	
0.0766667	-0.0249536	0.0045628	0.000764112	4.25364E-05	0	0	0	
0.0768333	0.0820918	0.00473929	0.0010651	0.000103734	0	0	0	
0.077	-0.0611824	-0.0180395	0.00137063	0.000240136	0	0	0	
0.0771667	0.0162668	0.0158528	0.00124898	0.000356602	0	0	0	
0.0773333	-0.0559589	-0.015341	0.00120296	0.000382832	0	0	0	
0.0775	0.0992014	0.0139422	0.00147232	0.000354999	0	0	0	
0.0776667	-0.0641369	-0.014927	0.00173848	0.000349175	0	0	0	
0.0778333	0.0400577	0.0198358	0.0015809	0.000369047	0	0	0	
0.078	-0.0698719	-0.0181075	0.00152737	0.000385771	0	0	0	
0.0781667	0.0896627	0.00993861	0.00179496	0.00034551	0	0	0	
0.0783333	-0.0714526	-0.00725658	0.00209312	0.000275151	0	0	0	
0.0785	0.0182322	-0.0035696	0.00187748	0.00020833	0	0	0	
0.0786667	0.0199147	0.00345174	0.00145869	0.000223936	0	0	0	
0.0788333	0.0149179	0.00678703	0.00150677	0.000276709	0	0	0	
0.079	-0.0659692	-0.00423031	0.00186379	0.00029022	0	0	0	
0.0791667	0.0256294	-0.00156049	0.00185479	0.000256887	0	0	0	
0.0793333	0.0371014	-0.00589983	0.00127471	0.000256532	0	0	0	
0.0795	-0.00760641	0.0080332	0.00102477	0.000275475	0	0	0	
0.0796667	-0.0395781	-0.00717228	0.0011977	0.000247535	0	0	0	
0.0798333	0.0068507	0.00592708	0.00117237	0.000204537	0	0	0	
0.08	0.00844745	-0.00610277	0.000777125	0.000184713	0	0	0	
0.0801667	0.0529839	0.00879701	0.000907202	0.00021032	0	0	0	
0.0803333	-0.093906	-0.00744729	0.00141318	0.000198541	0	0	0	
0.0805	0.058265	0.00364166	0.00170095	0.000159216	0	0	0	
0.0806667	-0.0211801	-0.00326678	0.00129594	0.000128708	0	0	0	
0.0808333	0.0171823	0.00569675	0.000883543	0.000149487	0	0	0	
0.081	-0.0254738	-0.0066052	0.000814911	0.000184648	0	0	0	
0.0811667	0.0411199	0.00758243	0.00100091	0.000198272	0	0	0	
0.0813333	-0.0536908	-0.00557815	0.00124047	0.000174809	0	0	0	
0.0815	0.0507039	0.00340984	0.00129426	0.00013725	0	0	0	
0.0816667	-0.046958	-0.00267514	0.00124221	0.000120779	0	0	0	
0.0818333	0.0475967	0.00499156	0.00118882	0.000130626	0	0	0	
0.082	-0.0479704	-0.00975075	0.0011959	0.000165204	0	0	0	
0.0821667	0.052916	0.0108868	0.00122885	0.000199426	0	0	0	
0.0823333	-0.0476086	-0.00971793	0.00121573	0.000215148	0	0	0	
0.0825	0.0321413	0.0098489	0.00110465	0.000214985	0	0	0	
0.0826667	-0.031942	-0.00897984	0.0010384	0.000199944	0	0	0	
0.0828333	0.0537553	0.00319715	0.00113245	0.000166814	0	0	0	
0.083	-0.0628384	-0.0053739	0.00129759	0.000151054	0	0	0	
0.0831667	0.0474296	0.00919512	0.00133153	0.000195137	0	0	0	
0.0833333	-0.040676	-0.0070234	0.00119486	0.000224442	0	0	0	
0.0835	0.0506898	0.00264299	0.00109992	0.000213054	0	0	0	
0.0836667	-0.0539825	-0.00747873	0.00111561	0.000177003	0	0	0	
0.0838333	0.0491339	0.0102593	0.00114234	0.000178266	0	0	0	
0.084	-0.0447938	-0.00523464	0.00114732	0.00018424	0	0	0	
0.0841667	0.0450321	0.00303298	0.00116631	0.000170777	0	0	0	
0.0843333	-0.0469439	-0.00711206	0.00121996	0.000157107	0	0	0	
0.0845	0.0497802	0.00591166	0.001258	0.000149389	0	0	0	
0.0846667	-0.052247	-0.00315592	0.00126805	0.000138525	0	0	0	
0.0848333	0.0509311	0.00782717	0.00124178	0.000160436	0	0	0	
0.085	-0.0447091	-0.00977123	0.00119199	0.000203139	0	0	0	
0.0851667	0.0417589	0.0054291	0.00111974	0.000221943	0	0	0	
0.0853333	-0.0371653	-0.00647304	0.00107372	0.000190539	0	0	0	
0.0855	0.0369963	0.0102784	0.00108142	0.000170547	0	0	0	
0.0856667	-0.0528911	-0.00772388	0.00119997	0.000170873	0	0	0	
0.0858333	0.0712777	0.00324729	0.00135617	0.000160759	0	0	0	
0.086	-0.0662299	-0.00380245	0.00145111	0.000137022	0	0	0	
0.0861667	0.0561377	0.00529727	0.00136737	0.0001363	0	0	0	
0.0863333	-0.0367369	-0.00509014	0.00115389	0.000151511	0	0	0	
0.0865	0.00768743	0.00555253	0.000839603	0.000163137	0	0	0	
0.0866667	-0.0068713	-0.00726455	0.000747925	0.000172929	0	0	0	
0.0868333	0.0484734	0.00871327	0.00105528	0.000188333	0	0	0	
0.087	-0.075397	-0.00923529	0.00151861	0.00020071	0	0	0	
0.0871667	0.0694655	0.00663922	0.00172209	0.000189021	0	0	0	
0.0873333	-0.0519631	-0.0016806	0.00151387	0.000158273	0	0	0	
0.0875	0.0358045	0.00463853	0.00117568	0.000148211	0	0	0	
0.0876667	-0.0323406	-0.0117394	0.000955697	0.000181115	0	0	0	
0.0878333	0.0397432	0.009218	0.000897038	0.000213745	0	0	0	
0.088	-0.0347977	-0.00421024	0.000940004	0.00020116	0	0	0	
0.0881667	0.0421399	0.0122341	0.00106604	0.000185602	0	0	0	
0.0883333	-0.0745993	-0.0148644	0.00127673	0.000206539	0	0	0	
0.0885	0.0661796	0.00242353	0.00138329	0.000218285	0	0	0	
0.0886667	-0.0261879	0.00400142	0.0012598	0.000164949	0	0	0	
0.0888333	0.0369852	0.00499272	0.00107365	0.000205602	0	0	0	
0.089	-0.0668979	-0.0123336	0.00114728	0.000269531	0	0	0	
0.0891667	0.0539872	0.00936025	0.00126764	0.000335013	0	0	0	
0.0893333	-0.0467859	-0.00892999	0.00128702	0.00029784	0	0	0	
0.0895	0.0599101	0.0116936	0.00122608	0.00027396	0	0	0	
0.0896667	-0.0403315	-0.00798592	0.00117721	0.000251747	0	0	0	
0.0898333	0.0285294	0.00232588	0.00111351	0.000184417	0	0	0	
0.09	-0.0671063	-0.00118023	0.00119422	0.000107919	0	0	0	
0.0901667	0.0689669	0.00100612	0.00131415	8.56097E-05	0	0	0	
0.0903333	-0.0266146	-0.00525565	0.0012794	0.000108055	0	0	0	
0.0905	0.0283594	0.00511638	0.00104975	0.000132716	0	0	0	
0.0906667	-0.0660679	-0.00461326	0.00106741	0.00012357	0	0	0	
0.0908333	0.05162	0.00685201	0.00116572	0.000116404	0	0	0	
0.091	-0.0268024	-0.0115891	0.0011373	0.00014989	0	0	0	
0.0911667	0.056144	0.00988116	0.0011382	0.00020117	0	0	0	
0.0913333	-0.0918243	-0.00880992	0.00139353	0.00022922	0	0	0	
0.0915	0.0697287	0.0100784	0.00161972	0.000226186	0	0	0	
0.0916667	-0.040173	-0.0139789	0.00147047	0.000227118	0	0	0	
0.0918333	0.0536665	0.00972108	0.0012423	0.000234433	0	0	0	
0.092	-0.0620276	-0.00550832	0.00120443	0.000217104	0	0	0	
0.0921667	0.0405478	0.00422368	0.00121193	0.000186703	0	0	0	
0.0923333	-0.0331086	-0.00709948	0.00116118	0.000182282	0	0	0	
0.0925	0.0524257	0.00506541	0.00118142	0.000188142	0	0	0	
0.0926667	-0.0521564	-0.00297264	0.00125115	0.000170994	0	0	0	
0.0928333	0.0427123	0.00434409	0.00124306	0.00014304	0	0	0	
0.093	-0.0549604	-0.00953932	0.00118672	0.00014604	0	0	0	
0.0931667	0.063323	0.0104329	0.00118609	0.000183261	0	0	0	
0.0933333	-0.0371	-0.00910822	0.00114714	0.000208065	0	0	0	
0.0935	0.0274045	0.00713664	0.000989678	0.000187351	0	0	0	
0.0936667	-0.0534822	-0.00755951	0.000966177	0.000154858	0	0	0	
0.0938333	0.0554512	0.00825291	0.00102415	0.000139491	0	0	0	
0.094	-0.032521	-0.00829493	0.00103502	0.000170509	0	0	0	
0.0941667	0.032746	0.00782948	0.000947317	0.000208724	0	0	0	
0.0943333	-0.059773	-0.00852481	0.00105526	0.000218693	0	0	0	
0.0945	0.0711345	0.0080402	0.00127675	0.000198799	0	0	0	
0.0946667	-0.0607695	-0.00750559	0.00136307	0.000180321	0	0	0	
0.0948333	0.0390741	0.0075091	0.00119626	0.00018063	0	0	0	
0.095	-0.0439638	-0.00653205	0.00101369	0.000187325	0	0	0	
0.0951667	0.0578949	0.00486079	0.00101737	0.000173257	0	0	0	
0.0953333	-0.0547994	-0.00495129	0.00109809	0.000151246	0	0	0	
0.0955	0.04379	0.0075547	0.0011478	0.000141638	0	0	0	
0.0956667	-0.0585279	-0.00934431	0.00116847	0.000150504	0	0	0	
0.0958333	0.0649658	0.00571401	0.0012251	0.000155292	0	0	0	
0.096	-0.0498448	-0.00560048	0.00121788	0.000148822	0	0	0	
0.0961667	0.0362114	0.0115921	0.00109514	0.000184213	0	0	0	
0.0963333	-0.0418903	-0.0140994	0.00102283	0.000222452	0	0	0	
0.0965	0.056736	0.00888316	0.00111404	0.000246203	0	0	0	
0.0966667	-0.057024	-0.00510528	0.0012269	0.000200501	0	0	0	
0.0968333	0.0338183	0.0052973	0.00115398	0.000169395	0	0	0	
0.097	-0.0244557	-0.00485384	0.00100454	0.000148763	0	0	0	
0.0971667	0.0574667	0.00326577	0.00110344	0.000142332	0	0	0	
0.0973333	-0.0744446	-0.00492312	0.00130917	0.000131679	0	0	0	
0.0975	0.0450533	0.00924354	0.00136758	0.000145437	0	0	0	
0.0976667	-0.0315881	-0.00975929	0.00114607	0.000195307	0	0	0	
0.0978333	0.0597599	0.00984977	0.00109148	0.00024111	0	0	0	
0.098	-0.0531231	-0.0118067	0.00112727	0.000255354	0	0	0	
0.0981667	0.0138999	0.011889	0.00102633	0.000242149	0	0	0	
0.0983333	-0.0166758	-0.0113475	0.0008034	0.000231689	0	0	0	
0.0985	0.0485798	0.00909337	0.000866389	0.00022072	0	0	0	
0.0986667	-0.0573294	-0.00356466	0.00110874	0.000194335	0	0	0	
0.0988333	0.0508738	0.00334678	0.00125352	0.000146509	0	0	0	
0.099	-0.0544639	-0.00585666	0.0011919	0.000122974	0	0	0	
0.0991667	0.0526762	0.00470535	0.00113898	0.000129989	0	0	0	
0.0993333	-0.0552972	-0.00568686	0.0011213	0.000153329	0	0	0	
0.0995	0.0664242	0.00861676	0.001125	0.000177997	0	0	0	
0.0996667	-0.0584035	-0.0134817	0.00112344	0.000208299	0	0	0	
0.0998333	0.0306689	0.0129802	0.00102462	0.000244063	0	0	0	
0.1	-0.0283836	-0.00727548	0.000891641	0.000239404	0	0	0	
0.100167	0.0405266	0.0104704	0.000912044	0.000219706	0	0	0	
0.100333	-0.045141	-0.0142397	0.00105409	0.000206428	0	0	0	
0.1005	0.0527481	0.00292037	0.00124173	0.000198918	0	0	0	
0.100667	-0.0715432	0.00569175	0.00138378	0.000160033	0	0	0	
0.100833	0.0743661	0.00984272	0.00148475	0.000218223	0	0	0	
0.101	-0.0566317	-0.0200332	0.00145366	0.000252041	0	0	0	
0.101167	0.0470315	0.00416063	0.00126971	0.000342034	0	0	0	
0.101333	-0.0531107	0.00541298	0.00113752	0.00025804	0	0	0	
0.1015	0.0460518	0.00902454	0.0010832	0.000276187	0	0	0	
0.101667	-0.04484	-0.0104454	0.00109014	0.000230917	0	0	0	
0.101833	0.0581678	0.00152615	0.00113816	0.00024118	0	0	0	
0.102	-0.0643272	-0.00260886	0.00119475	0.000165175	0	0	0	
0.102167	0.0368744	0.0175831	0.00112483	0.000217983	0	0	0	
0.102333	-0.0175854	-0.0194895	0.000897554	0.000270751	0	0	0	
0.1025	0.0429444	0.00858879	0.000906254	0.000327059	0	0	0	
0.102667	-0.0792076	0.00097487	0.00117773	0.000235763	0	0	0	
0.102833	0.0676733	0.00492595	0.00143984	0.000148665	0	0	0	
0.103	-0.0592324	-0.0102324	0.00141535	0.000113475	0	0	0	
0.103167	0.0743689	0.00769889	0.00130793	0.000132957	0	0	0	
0.103333	-0.0630497	-0.00325429	0.00126293	0.000139644	0	0	0	
0.1035	0.0306647	0.00668188	0.00114579	0.000152056	0	0	0	
0.103667	-0.0546581	-0.0108029	0.00110585	0.000179004	0	0	0	
0.103833	0.0878689	0.00871033	0.00126746	0.00020043	0	0	0	
0.104	-0.0718632	-0.00755451	0.00145566	0.000188639	0	0	0	
0.104167	0.0477854	0.00824068	0.00141136	0.000161958	0	0	0	
0.104333	-0.0607056	-0.00606447	0.00124011	0.000161467	0	0	0	
0.1045	0.0589612	0.00378489	0.00117608	0.000163603	0	0	0	
0.104667	-0.0455932	-0.00563456	0.0011909	0.000180096	0	0	0	
0.104833	0.0497648	0.00768722	0.00120887	0.000182221	0	0	0	
0.105	-0.0501888	-0.00810303	0.00112972	0.000178327	0	0	0	
0.105167	0.030252	0.00976196	0.00100482	0.000179406	0	0	0	
0.105333	-0.0482353	-0.0120866	0.000976089	0.000220913	0	0	0	
0.1055	0.0674612	0.0112945	0.00117567	0.000270435	0	0	0	
0.105667	-0.0453253	-0.00776152	0.00135921	0.000282281	0	0	0	
0.105833	0.0505865	0.0139017	0.00143684	0.000258334	0	0	0	
0.106	-0.0947148	-0.0133715	0.00144245	0.000245044	0	0	0	
0.106167	0.042625	0.00675909	0.00140059	0.000228831	0	0	0	
0.106333	0.035287	-0.00509661	0.00120373	0.000217799	0	0	0	
0.1065	0.0369965	0.0084875	0.00144673	0.000219577	0	0	0	
0.106667	-0.1541	-0.00586751	0.00208735	0.000208449	0	0	0	
0.106833	0.0756751	0.00434935	0.00248446	0.000187333	0	0	0	
0.107	0.0588602	-0.00760778	0.00251548	0.000179832	0	0	0	
0.107167	-0.00395961	0.0128248	0.00183569	0.000214293	0	0	0	
0.107333	-0.08589	-0.00665145	0.00182059	0.000231372	0	0	0	
0.1075	0.0225077	0.00185413	0.00131989	0.000182228	0	0	0	
0.107667	0.00558367	-0.00725745	0.00108826	0.000157524	0	0	0	
0.107833	0.0974831	0.00949297	0.00130659	0.000165861	0	0	0	
0.108	-0.13013	-0.00636662	0.00172466	0.000177917	0	0	0	
0.108167	0.0408368	0.00677127	0.00217778	0.000167067	0	0	0	
0.108333	-0.00138717	-0.0130337	0.00150619	0.000200432	0	0	0	
0.1085	0.0335758	0.0132079	0.00114689	0.00024851	0	0	0	
0.108667	-0.0658327	-0.00981157	0.00106331	0.00025856	0	0	0	
0.108833	0.091618	0.00991993	0.00142451	0.000218436	0	0	0	
0.109	-0.092813	-0.00986483	0.00159459	0.000184489	0	0	0	
0.109167	0.0372084	0.00576576	0.00152882	0.000163894	0	0	0	
0.109333	-0.019904	-0.00415439	0.00116588	0.000132864	0	0	0	
0.1095	0.0575731	0.00695957	0.0010076	0.000113569	0	0	0	
0.109667	-0.0689706	-0.00635178	0.000994263	0.000109616	0	0	0	
0.109833	0.0483504	0.00285224	0.00115924	0.000114799	0	0	0	
0.11	-0.0591612	-0.00687181	0.00116035	0.00013564	0	0	0	
0.110167	0.0747803	0.0129567	0.00122547	0.000169397	0	0	0	
0.110333	-0.0731163	-0.0112144	0.00133614	0.000210093	0	0	0	
0.1105	0.0626923	0.00855136	0.0013769	0.000211632	0	0	0	
0.110667	-0.0547166	-0.0107957	0.00125392	0.000207949	0	0	0	
0.110833	0.043075	0.00927026	0.00109942	0.000196448	0	0	0	
0.111	-0.0488786	-0.00515198	0.00101093	0.000174145	0	0	0	
0.111167	0.0724612	0.00461198	0.00111054	0.000136406	0	0	0	
0.111333	-0.0819445	-0.00859877	0.00127394	0.000125926	0	0	0	
0.1115	0.0529532	0.0109068	0.00134111	0.000150338	0	0	0	
0.111667	-0.0376617	-0.0121143	0.00117334	0.000188204	0	0	0	
0.111833	0.0620862	0.00987868	0.00113341	0.000204352	0	0	0	
0.112	-0.0773319	-0.0105657	0.00122313	0.000201354	0	0	0	
0.112167	0.0548371	0.0121631	0.00131973	0.000204883	0	0	0	
0.112333	-0.047259	-0.010147	0.00122362	0.000204664	0	0	0	
0.1125	0.0701523	0.00553255	0.00118581	0.000198222	0	0	0	
0.112667	-0.0722155	-0.0056381	0.00126454	0.000186467	0	0	0	
0.112833	0.0524255	0.0100421	0.00130755	0.000199823	0	0	0	
0.113	-0.0515669	-0.00988784	0.00117241	0.000207676	0	0	0	
0.113167	0.0467946	0.00702751	0.000994214	0.000200338	0	0	0	
0.113333	-0.0370002	-0.00712229	0.000881557	0.000170016	0	0	0	
0.1135	0.0463571	0.00507703	0.000870893	0.000141584	0	0	0	
0.113667	-0.0466675	0.00237594	0.000928117	0.000111194	0	0	0	
0.113833	0.0427969	0.00460168	0.0010158	0.000133206	0	0	0	
0.114	-0.0746558	-0.0186398	0.00121205	0.000242645	0	0	0	
0.114167	0.0844953	0.0194832	0.00137688	0.00032489	0	0	0	
0.114333	-0.0524503	-0.00795763	0.00142304	0.000352931	0	0	0	
0.1145	0.0447944	0.00544882	0.00121599	0.000267433	0	0	0	
0.114667	-0.0586542	-0.00500003	0.00103618	0.000192326	0	0	0	
0.114833	0.0341731	-0.000861155	0.000900966	0.000116974	0	0	0	
0.115	-0.035909	0.00166636	0.000856505	7.3942E-05	0	0	0	
0.115167	0.0869714	0.00753711	0.00103962	0.000125694	0	0	0	
0.115333	-0.0907084	-0.0132563	0.00129844	0.000206685	0	0	0	
0.1155	0.03537	0.015487	0.00146422	0.000285179	0	0	0	
0.115667	-0.0371825	-0.0138725	0.00120221	0.000286103	0	0	0	
0.115833	0.0809575	0.0103607	0.00115163	0.000258847	0	0	0	
0.116	-0.0776348	-0.00926965	0.00122006	0.000229209	0	0	0	
0.116167	0.0520558	0.00926617	0.00137101	0.00021162	0	0	0	
0.116333	-0.0640968	-0.0055636	0.0013123	0.000175094	0	0	0	
0.1165	0.081736	0.00507535	0.00130508	0.000144747	0	0	0	
0.116667	-0.0670183	-0.00612366	0.00134719	0.000112409	0	0	0	
0.116833	0.0515453	0.00930628	0.00129672	0.000127659	0	0	0	
0.117	-0.0601382	-0.0100028	0.00123348	0.000150552	0	0	0	
0.117167	0.0738474	0.00751324	0.00127794	0.000171293	0	0	0	
0.117333	-0.0680226	-0.00709717	0.00138312	0.000159831	0	0	0	
0.1175	0.0681134	0.0106862	0.00143029	0.0001653	0	0	0	
0.117667	-0.0765676	-0.0110953	0.00142015	0.000187366	0	0	0	
0.117833	0.0672298	0.0113942	0.00139031	0.0002137	0	0	0	
0.118	-0.0473661	-0.00878549	0.00127919	0.000216499	0	0	0	
0.118167	0.0500733	0.00829603	0.00112206	0.00020558	0	0	0	
0.118333	-0.0586623	-0.010869	0.0010433	0.000197288	0	0	0	
0.1185	0.0537471	0.00978721	0.00105081	0.000193672	0	0	0	
0.118667	-0.0541573	-0.00643435	0.00107108	0.000175366	0	0	0	
0.118833	0.0642873	0.00546365	0.00111051	0.000147355	0	0	0	
0.119	-0.0734734	-0.00617588	0.00120275	0.000145706	0	0	0	
0.119167	0.081534	0.00930734	0.00135658	0.000168232	0	0	0	
0.119333	-0.0786772	-0.0109823	0.00145465	0.000204424	0	0	0	
0.1195	0.0578697	0.00847375	0.00142113	0.000219415	0	0	0	
0.119667	-0.0528873	-0.0120752	0.00128517	0.000225077	0	0	0	
0.119833	0.070486	0.0109523	0.00123495	0.000234122	0	0	0	
0.12	-0.0698122	-0.00442265	0.00124837	0.000214009	0	0	0	
0.120167	0.0428195	0.00162991	0.00122665	0.000156745	0	0	0	
0.120333	-0.045096	-0.00714834	0.00111109	0.000102557	0	0	0	
0.1205	0.0863272	0.00912544	0.00123317	0.000104253	0	0	0	
0.120667	-0.10086	-0.00496168	0.00146717	0.000126533	0	0	0	
0.120833	0.0632347	0.00395638	0.00163373	0.00011855	0	0	0	
0.121	-0.044758	-0.00577878	0.00143046	0.000101664	0	0	0	
0.121167	0.0716643	0.00229412	0.00127707	8.96893E-05	0	0	0	
0.121333	-0.0907885	-0.00904142	0.00133731	9.99942E-05	0	0	0	
0.1215	0.0835838	0.0182261	0.0015047	0.000150258	0	0	0	
0.121667	-0.0701319	-0.00816202	0.00153614	0.000205093	0	0	0	
0.121833	0.065743	0.0094055	0.00141784	0.000230678	0	0	0	
0.122	-0.0853924	-0.0192076	0.00141674	0.00025353	0	0	0	
0.122167	0.10922	0.0210334	0.00164592	0.000299355	0	0	0	
0.122333	-0.120186	-0.0125227	0.00189052	0.000335325	0	0	0	
0.1225	0.100694	0.0120534	0.00204548	0.000328316	0	0	0	
0.122667	-0.0139546	-0.00277736	0.00202153	0.000265013	0	0	0	
0.122833	-0.0429946	0.0043025	0.00146624	0.000230762	0	0	0	
0.123	-0.0620228	-0.00963814	0.00194973	0.000208718	0	0	0	
0.123167	0.181701	0.0124534	0.00268309	0.000225355	0	0	0	
0.123333	-0.13222	-0.00740743	0.00348674	0.000235081	0	0	0	
0.1235	0.0757205	0.0138864	0.00297476	0.000215991	0	0	0	
0.123667	-0.129985	-0.0122797	0.00230731	0.000228394	0	0	0	
0.123833	0.0828431	0.00770274	0.00199001	0.00021281	0	0	0	
0.124	0.0789756	-0.00392336	0.00227647	0.000192129	0	0	0	
0.124167	-0.0759938	0.00615271	0.00202805	0.000154241	0	0	0	
0.124333	-0.0891836	-0.0145051	0.00276793	0.000189605	0	0	0	
0.1245	0.143329	0.0131811	0.00273317	0.000235529	0	0	0	
0.124667	-0.0651638	-0.00544554	0.00288409	0.000232886	0	0	0	
0.124833	0.0115456	0.003656	0.00182406	0.000177071	0	0	0	
0.125	-0.0336362	-0.00834153	0.00117767	0.000142944	0	0	0	
0.125167	0.0696621	0.0111046	0.000987072	0.000150354	0	0	0	
0.125333	-0.0710543	-0.0101142	0.00112852	0.000185627	0	0	0	
0.1255	0.0468459	0.00534532	0.00123834	0.000183301	0	0	0	
0.125667	-0.0519628	-0.00611765	0.00114158	0.000154744	0	0	0	
0.125833	0.0640709	0.00999913	0.00111474	0.00014938	0	0	0	
0.126	-0.0532963	-0.0145825	0.00113418	0.000186639	0	0	0	
0.126167	0.0567012	0.0102533	0.00117056	0.000232588	0	0	0	
0.126333	-0.0860511	-0.00813728	0.00125586	0.000233354	0	0	0	
0.1265	0.0782537	0.0138386	0.00137424	0.000210889	0	0	0	
0.126667	-0.0434386	-0.0107062	0.00138137	0.000210143	0	0	0	
0.126833	0.0483781	-0.0018425	0.00122236	0.000221539	0	0	0	
0.127	-0.0927912	-0.000751204	0.00127703	0.000203379	0	0	0	
0.127167	0.0915865	0.0128591	0.00146409	0.000266073	0	0	0	
0.127333	-0.047563	-0.0150955	0.00155082	0.00029461	0	0	0	
0.1275	0.0424239	0.0128642	0.00132744	0.000326733	0	0	0	
0.127667	-0.0819146	-0.0197178	0.00126524	0.000301123	0	0	0	
0.127833	0.0785515	0.020632	0.00135538	0.000322345	0	0	0	
0.128	-0.0480877	-0.00548413	0.00142689	0.000332324	0	0	0	
0.128167	0.057861	-0.00457834	0.00131485	0.000281026	0	0	0	
0.128333	-0.0781552	-0.00304962	0.00124902	0.000187261	0	0	0	
0.1285	0.0498587	0.00923111	0.00123623	0.00016082	0	0	0	
0.128667	-0.0286713	-0.00730892	0.00108889	0.000153126	0	0	0	
0.128833	0.0506332	0.00536193	0.000956819	0.000163923	0	0	0	
0.129	-0.0713061	-0.00780299	0.000997014	0.000153336	0	0	0	
0.129167	0.0726342	0.0134839	0.00119799	0.000170121	0	0	0	
0.129333	-0.0747083	-0.0120851	0.00134205	0.000211255	0	0	0	
0.1295	0.0760491	0.00938005	0.00138193	0.000225331	0	0	0	
0.129667	-0.0753905	-0.00912996	0.00139747	0.000200579	0	0	0	
0.129833	0.0646156	0.0118618	0.00137119	0.00018825	0	0	0	
0.13	-0.0503048	-0.00935984	0.00126501	0.000197391	0	0	0	
0.130167	0.049931	0.00973451	0.0011225	0.00021136	0	0	0	
0.130333	-0.0518879	-0.00685696	0.00101925	0.000193936	0	0	0	
0.1305	0.044008	0.00803617	0.000965652	0.000163362	0	0	0	
0.130667	-0.0587406	-0.00748215	0.00100026	0.000158039	0	0	0	
0.130833	0.0777675	0.0084721	0.00112584	0.000169183	0	0	0	
0.131	-0.0640277	-0.00356487	0.00124839	0.000172049	0	0	0	
0.131167	0.0384961	0.0058047	0.00121387	0.000138269	0	0	0	
0.131333	-0.0572192	-0.00937934	0.00109187	0.000126228	0	0	0	
0.1315	0.0756572	0.0106058	0.00109458	0.000137941	0	0	0	
0.131667	-0.0654979	-0.0063381	0.00121107	0.000162589	0	0	0	
0.131833	0.062727	0.00599037	0.00128864	0.000150188	0	0	0	
0.132	-0.0754923	-0.00686224	0.00129644	0.000135157	0	0	0	
0.132167	0.0535123	0.00746629	0.00125281	0.000136372	0	0	0	
0.132333	-0.0333239	-0.00819012	0.00111752	0.000153778	0	0	0	
0.1325	0.0408313	0.010946	0.000949984	0.000167656	0	0	0	
0.132667	-0.0597716	-0.00974054	0.000924751	0.000184161	0	0	0	
0.132833	0.0687591	0.00995861	0.00108006	0.000189727	0	0	0	
0.133	-0.0695635	-0.0106208	0.00123651	0.000191594	0	0	0	
0.133167	0.0561309	0.0102454	0.0012517	0.00019512	0	0	0	
0.133333	-0.0483693	-0.0066924	0.00114858	0.0001822	0	0	0	
0.1335	0.0535875	0.0071078	0.00104641	0.000166974	0	0	0	
0.133667	-0.0528591	-0.00859985	0.000996089	0.000163404	0	0	0	
0.133833	0.0475289	0.0162732	0.000998191	0.000206549	0	0	0	
0.134	-0.0580347	-0.0146715	0.00103488	0.000249513	0	0	0	
0.134167	0.0648163	0.00923685	0.00110845	0.000268085	0	0	0	
0.134333	-0.05826	-0.00496321	0.00116855	0.000222772	0	0	0	
0.1345	0.0627737	0.0106859	0.00119841	0.000198568	0	0	0	
0.134667	-0.0668983	-0.00843183	0.00121572	0.000176734	0	0	0	
0.134833	0.0557143	0.00403554	0.00120107	0.000166127	0	0	0	
0.135	-0.0560039	-0.00551039	0.00116023	0.000134032	0	0	0	
0.135167	0.0620811	0.0118367	0.00111234	0.000129581	0	0	0	
0.135333	-0.0484117	-0.00861197	0.00107743	0.000159629	0	0	0	
0.1355	0.0425585	0.00781715	0.00103027	0.000178564	0	0	0	
0.135667	-0.0676171	-0.00875646	0.00107833	0.000175498	0	0	0	
0.135833	0.0767558	0.00890119	0.00121145	0.00016457	0	0	0	
0.136	-0.0610699	-0.00946591	0.00134067	0.000170917	0	0	0	
0.136167	0.0622912	0.0104917	0.00131836	0.000184379	0	0	0	
0.136333	-0.069991	-0.0082714	0.00126035	0.000191058	0	0	0	
0.1365	0.0496906	0.00779576	0.00119193	0.000178526	0	0	0	
0.136667	-0.0318557	-0.0110551	0.00106329	0.000177428	0	0	0	
0.136833	0.0472223	0.0113094	0.000950657	0.000190013	0	0	0	
0.137	-0.0702678	-0.00952838	0.0010104	0.000204102	0	0	0	
0.137167	0.067265	0.00833321	0.00116697	0.000193225	0	0	0	
0.137333	-0.0606718	-0.0120566	0.00126508	0.000184647	0	0	0	
0.1375	0.0634255	0.0117541	0.00123832	0.000203011	0	0	0	
0.137667	-0.0578375	-0.00892104	0.00119628	0.000214621	0	0	0	
0.137833	0.0427206	0.00851403	0.00112455	0.000209513	0	0	0	
0.138	-0.0503649	-0.0112843	0.00105672	0.000193037	0	0	0	
0.138167	0.0586366	0.0101925	0.00104523	0.000192597	0	0	0	
0.138333	-0.0584073	-0.0104921	0.00108599	0.000207564	0	0	0	
0.1385	0.0509731	0.00690643	0.00110495	0.000207362	0	0	0	
0.138667	-0.054689	-0.00242403	0.00106755	0.000161786	0	0	0	
0.138833	0.0569237	0.00409543	0.00105592	0.000109598	0	0	0	
0.139	-0.0654241	-0.013535	0.0010964	0.000110819	0	0	0	
0.139167	0.0761471	0.0142043	0.00121274	0.000177707	0	0	0	
0.139333	-0.0831545	-0.010952	0.00135274	0.0002352	0	0	0	
0.1395	0.0699754	0.0147973	0.00144455	0.000245128	0	0	0	
0.139667	-0.0567953	-0.0134661	0.00139564	0.000252531	0	0	0	
0.139833	0.0460565	0.00267956	0.00123866	0.000267862	0	0	0	
0.14	-0.0590734	-0.00415833	0.00113897	0.000235643	0	0	0	
0.140167	0.0764126	0.0119073	0.00122293	0.00026574	0	0	0	
0.140333	-0.0633827	-0.0108396	0.00131066	0.000270269	0	0	0	
0.1405	0.045438	0.0090008	0.00128339	0.000303198	0	0	0	
0.140667	-0.0766777	-0.0175608	0.00120842	0.000280041	0	0	0	
0.140833	0.0914025	0.0180869	0.00129602	0.000291654	0	0	0	
0.141	-0.0522809	-0.00452876	0.00143049	0.000297197	0	0	0	
0.141167	0.0311254	-0.00499212	0.00131206	0.000239871	0	0	0	
0.141333	-0.0673095	-4.53112E-05	0.00114439	0.000148343	0	0	0	
0.1415	0.0832148	0.00592766	0.00113044	9.91103E-05	0	0	0	
0.141667	-0.0650453	-0.0101709	0.00130445	0.000100101	0	0	0	
0.141833	0.0593208	0.00821385	0.00136942	0.000144536	0	0	0	
0.142	-0.0754673	-0.00659718	0.00134036	0.000163963	0	0	0	
0.142167	0.0835339	0.0130547	0.00137885	0.000181531	0	0	0	
0.142333	-0.0784651	-0.0176564	0.00147486	0.000210685	0	0	0	
0.1425	0.0586823	0.0100169	0.00146567	0.000249714	0	0	0	
0.142667	-0.0517894	-0.006389	0.00131935	0.000238217	0	0	0	
0.142833	0.0717436	0.0128309	0.00123523	0.000216269	0	0	0	
0.143	-0.0866701	-0.0149034	0.00130186	0.000217982	0	0	0	
0.143167	0.0723346	0.012713	0.00144118	0.000247954	0	0	0	
0.143333	-0.0585437	-0.00997597	0.00143526	0.000245981	0	0	0	
0.1435	0.0642535	0.00949002	0.00132604	0.000210476	0	0	0	
0.143667	-0.0642699	-0.00577491	0.00122492	0.000189954	0	0	0	
0.143833	0.0438999	0.00386784	0.00117238	0.000155316	0	0	0	
0.144	-0.0377403	-0.0107897	0.00105343	0.000174762	0	0	0	
0.144167	0.0590551	0.0134469	0.000992511	0.000190594	0	0	0	
0.144333	-0.0791931	-0.0156943	0.00105314	0.000244057	0	0	0	
0.1445	0.0826318	0.0090041	0.00128337	0.000272413	0	0	0	
0.144667	-0.0741249	0.00506133	0.00147141	0.00026714	0	0	0	
0.144833	0.0280958	-0.00763809	0.00157181	0.000290918	0	0	0	
0.145	-0.000172639	0.00571998	0.00137899	0.000228362	0	0	0	
0.145167	0.0688397	0.00863778	0.00114143	0.000206584	0	0	0	
0.145333	-0.120293	-0.01784	0.0011698	0.000179703	0	0	0	
0.1455	0.0263875	0.00620091	0.00170662	0.000240311	0	0	0	
0.145667	0.0187702	-0.00584218	0.00188249	0.000254605	0	0	0	
0.145833	0.102889	0.0218241	0.00191232	0.000298766	0	0	0	
0.146	-0.14244	-0.0135767	0.00178813	0.00037092	0	0	0	
0.146167	0.035099	0.00739431	0.00218659	0.000433706	0	0	0	
0.146333	-0.0314222	-0.0130424	0.00192584	0.000381984	0	0	0	
0.1465	0.11693	0.0134064	0.00171638	0.000296937	0	0	0	
0.146667	-0.0927279	-0.00538849	0.00153386	0.000265407	0	0	0	
0.146833	0.0236843	-0.000417916	0.0018141	0.000242147	0	0	0	
0.147	-0.0292143	-0.022577	0.0015243	0.00022877	0	0	0	
0.147167	0.0369734	-0.00250148	0.00122915	0.000254328	0	0	0	
0.147333	-0.0957433	-0.014123	0.00106865	0.000249699	0	0	0	
0.1475	0.103882	0.0412578	0.00146532	0.000394376	0	0	0	
0.147667	-0.0488995	-0.036227	0.00169501	0.000634908	0	0	0	
0.147833	0.00543586	0.00520857	0.00167184	0.000669172	0	0	0	
0.148	-0.0254867	-0.0117382	0.00119204	0.000612626	0	0	0	
0.148167	0.0292755	-0.0155919	0.000798142	0.000330136	0	0	0	
0.148333	-0.0633086	-0.0108117	0.000732316	0.000358394	0	0	0	
0.1485	0.0691344	0.00165556	0.00102887	0.000294641	0	0	0	
0.148667	-0.0727043	0.0199722	0.00125031	0.00034829	0	0	0	
0.148833	0.0539635	-0.00885026	0.00130941	0.000453226	0	0	0	
0.149	-0.0399181	-0.0195784	0.00119973	0.000467545	0	0	0	
0.149167	0.0316549	0.0107668	0.00100265	0.000494537	0	0	0	
0.149333	-0.0390841	-0.00724656	0.000835709	0.00034776	0	0	0	
0.1495	0.0604579	0.0114509	0.000868034	0.000297912	0	0	0	
0.149667	-0.075736	-0.0189779	0.00108249	0.000227191	0	0	0	
0.149833	0.0947676	0.0208325	0.00137709	0.000286426	0	0	0	
0.15	-0.097255	-0.0128448	0.00161367	0.000335541	0	0	0	
0.150167	0.0437145	0.0102354	0.00171829	0.000335853	0	0	0	
0.150333	-0.00870672	-0.0067879	0.0015453	0.00025724	0	0	0	
0.1505	0.0383839	0.00394714	0.00114765	0.000189355	0	0	0	
0.150667	-0.0612762	-0.00803369	0.000921909	0.000153407	0	0	0	
0.150833	0.0469633	0.00948166	0.000896948	0.00015933	0	0	0	
0.151	-0.0627649	-0.00919922	0.00107565	0.00017983	0	0	0	
0.151167	0.0880494	0.0119409	0.00122768	0.000187265	0	0	0	
0.151333	-0.0774774	-0.023994	0.00140376	0.000246307	0	0	0	
0.1515	0.0622478	0.0208134	0.00149517	0.00033453	0	0	0	
0.151667	-0.0679798	0.0089753	0.00142949	0.000433245	0	0	0	
0.151833	0.060332	-0.0188701	0.00133181	0.000424053	0	0	0	
0.152	-0.0387284	-0.108068	0.00120807	0.0011024	0	0	0	
0.152167	0.0642594	0.300105	0.00113571	0.0019761	0	0	0	
0.152333	-0.0575294	-0.936936	0.0013766	0.00711557	0	0	0	
0.1525	0.127956	0.320735	0.00199828	0.0108068	0	0	0	
0.152667	-0.121468	0.0352105	0.00238251	0.011698	0	0	0	
0.152833	0.0702772	-0.0887959	0.00240235	0.00726642	0	0	0	
0.153	-0.0701931	0.0732468	0.00192162	0.00317712	0	0	0	
0.153167	0.0833619	0.0370358	0.00169043	0.00192435	0	0	0	
0.153333	0.0195957	-0.622818	0.00139725	0.00359786	0	0	0	
0.1535	-0.036632	0.117903	0.00121306	0.00835765	0	0	0	
0.153667	-0.0601859	-0.120793	0.00128939	0.00974588	0	0	0	
0.153833	0.122945	0.0639748	0.00160157	0.00770735	0	0	0	
0.154	-0.0950128	-0.00512693	0.00196353	0.00290713	0	0	0	
0.154167	0.0618651	0.0429199	0.00190092	0.00106034	0	0	0	
0.154333	-0.0761793	-0.102208	0.00165931	0.00104728	0	0	0	
0.1545	0.0693361	0.112144	0.00146619	0.00140373	0	0	0	
0.154667	-0.0527052	-0.0234934	0.00135023	0.0018096	0	0	0	
0.154833	0.0738239	-0.0104075	0.00133106	0.00187252	0	0	0	
0.155	-0.0980191	0.0167122	0.001404	0.00132523	0	0	0	
0.155167	0.0757967	-0.000212195	0.0015668	0.000755729	0	0	0	
0.155333	-0.0373248	-0.0385491	0.00156171	0.000364231	0	0	0	
0.1555	0.101783	-0.134421	0.00151102	0.000737627	0	0	0	
0.155667	-0.188348	0.343638	0.00205446	0.00212676	0	0	0	
0.155833	0.165552	-0.129577	0.00269054	0.00355575	0	0	0	
0.156	-0.0958327	0.0556868	0.0029282	0.00343456	0	0	0	
0.156167	0.0648255	-0.00330049	0.00234552	0.00236151	0	0	0	
0.156333	-0.0305014	-0.0222338	0.00174698	0.00105931	0	0	0	
0.1565	0.0625898	-0.0592354	0.00144593	0.000768716	0	0	0	
0.156667	-0.120678	0.0267884	0.00193689	0.00137392	0	0	0	
0.156833	0.172962	0.103255	0.00221622	0.00246636	0	0	0	
0.157	-0.0342515	-0.0709004	0.00239202	0.00332388	0	0	0	
0.157167	0.0889565	-0.0161085	0.00178679	0.0029045	0	0	0	
0.157333	-0.110613	0.0209788	0.00165166	0.00179535	0	0	0	
0.1575	0.078526	-0.00458213	0.0017588	0.000871684	0	0	0	
0.157667	-0.0606951	-0.00189324	0.00191537	0.000436589	0	0	0	
0.157833	0.105845	0.00851492	0.00184485	0.000241538	0	0	0	
0.158	-0.122833	0.0321043	0.00204536	0.000374825	0	0	0	
0.158167	0.0994649	-0.00929809	0.00216191	0.000361603	0	0	0	
0.158333	-0.0640163	-0.00562213	0.00216062	0.000416639	0	0	0	
0.1585	0.0428722	0.0140997	0.00163772	0.000284265	0	0	0	
0.158667	-0.051244	-0.0176322	0.00127633	0.00028795	0	0	0	
0.158833	0.0806748	0.00428785	0.00118281	0.000304612	0	0	0	
0.159	-0.0570938	0.0439915	0.00138278	0.000353056	0	0	0	
0.159167	0.0602614	0.0284535	0.00140832	0.000424598	0	0	0	
0.159333	-0.0695743	-0.0219506	0.0014081	0.000472705	0	0	0	
0.1595	0.0722701	0.00263287	0.00133593	0.000461729	0	0	0	
0.159667	-0.0684153	-0.00935565	0.00146042	0.00035904	0	0	0	
0.159833	0.0785401	0.0138106	0.00150411	0.000316506	0	0	0	
0.16	-0.101075	0.00268067	0.00157012	0.000225793	0	0	0	
0.160167	0.0659776	-0.00610439	0.00163748	0.000175325	0	0	0	
0.160333	0.0150883	0.00534712	0.00156275	0.000153599	0	0	0	
0.1605	-0.0468134	0.0132362	0.00114566	0.00020962	0	0	0	
0.160667	-0.0128081	-0.0169039	0.00103252	0.000307504	0	0	0	
0.160833	0.0674994	0.0138085	0.00113875	0.000327467	0	0	0	
0.161	-0.0737895	-0.0101055	0.00146707	0.000276446	0	0	0	
0.161167	0.0861209	0.0264929	0.00156179	0.000297229	0	0	0	
0.161333	-0.114476	-0.0154975	0.00163134	0.000358958	0	0	0	
0.1615	0.0684574	0.0101528	0.00190132	0.000431441	0	0	0	
0.161667	0.00321987	-0.000645339	0.00206277	0.000340518	0	0	0	
0.161833	0.00782183	0.00431376	0.00155361	0.000194159	0	0	0	
0.162	-0.0588089	-0.0065901	0.00108458	0.000114428	0	0	0	
0.162167	0.0496627	0.00566548	0.000747352	0.000101202	0	0	0	
0.162333	-0.0256633	-0.00462427	0.000944217	0.000125397	0	0	0	
0.1625	0.0463502	0.010517	0.00090888	0.000129169	0	0	0	
0.162667	-0.0676769	-0.0117034	0.000935669	0.000156759	0	0	0	
0.162833	0.0615034	0.010817	0.00107644	0.000191268	0	0	0	
0.163	-0.0618229	-0.00627457	0.00122917	0.000211639	0	0	0	
0.163167	0.0735021	0.00557236	0.00129692	0.000201128	0	0	0	
0.163333	-0.0712739	-0.00614093	0.00135148	0.000171047	0	0	0	
0.1635	0.0491133	0.0116349	0.00141369	0.000163815	0	0	0	
0.163667	-0.0356352	-0.0094418	0.00132571	0.000173026	0	0	0	
0.163833	0.049756	0.00555844	0.00115125	0.000187472	0	0	0	
0.164	-0.064104	-0.00791056	0.00105306	0.000177816	0	0	0	
0.164167	0.0582749	0.0219459	0.00110506	0.000199349	0	0	0	
0.164333	-0.0605869	-0.0166874	0.00120001	0.000282456	0	0	0	
0.1645	0.0736294	-0.0220009	0.0012688	0.000495131	0	0	0	
0.164667	-0.0713463	0.0356581	0.00132667	0.000663863	0	0	0	
0.164833	0.0600274	-0.0109164	0.00139884	0.000637246	0	0	0	
0.165	-0.0532547	-0.0064683	0.00137693	0.00043611	0	0	0	
0.165167	0.0620146	0.0037457	0.00131748	0.000237193	0	0	0	
0.165333	-0.0750737	-0.0098255	0.00129791	0.000173753	0	0	0	
0.1655	0.0785089	0.0316411	0.00137889	0.000256222	0	0	0	
0.165667	-0.0753174	-0.051955	0.00147938	0.000466568	0	0	0	
0.165833	0.087135	0.0305525	0.00157335	0.000849198	0	0	0	
0.166	-0.0897623	-0.00347442	0.00165008	0.000995736	0	0	0	
0.166167	0.0556595	0.00660922	0.00167284	0.000781105	0	0	0	
0.166333	-0.030488	-0.0197904	0.00145474	0.000466589	0	0	0	
0.1665	0.0506987	0.0142041	0.00118622	0.000288472	0	0	0	
0.166667	-0.065405	-0.00950938	0.0010534	0.000307894	0	0	0	
0.166833	0.0512618	0.0152863	0.00111981	0.000302107	0	0	0	
0.167	-0.0612841	-0.0153091	0.00117611	0.000315409	0	0	0	
0.167167	0.0745815	-0.00266273	0.00122629	0.000290511	0	0	0	
0.167333	-0.049371	0.0121902	0.0012507	0.000266745	0	0	0	
0.1675	0.0285781	-0.00180914	0.00117762	0.000168511	0	0	0	
0.167667	-0.0451406	-0.00351952	0.000990314	0.000209768	0	0	0	
0.167833	0.0531472	0.014722	0.000907444	0.000181961	0	0	0	
0.168	-0.0521664	-0.0142114	0.000989372	0.000252747	0	0	0	
0.168167	0.0570955	0.0129324	0.00112249	0.000248802	0	0	0	
0.168333	-0.0495279	-0.0123446	0.0011695	0.000284196	0	0	0	
0.1685	0.0249561	0.0147011	0.00111766	0.000293851	0	0	0	
0.168667	-0.0285437	-0.00706097	0.000942146	0.000274457	0	0	0	
0.168833	0.056443	0.00821899	0.000860476	0.000258375	0	0	0	
0.169	-0.0601453	-0.00435445	0.000918533	0.000204456	0	0	0	
0.169167	0.0448769	0.00935505	0.00107701	0.000190584	0	0	0	
0.169333	-0.0631556	-0.0105557	0.00114087	0.000177265	0	0	0	
0.1695	0.0883091	0.00558965	0.001243	0.000179278	0	0	0	
0.169667	-0.0688574	-0.00593	0.00141078	0.000221013	0	0	0	
0.169833	0.0303401	0.0239893	0.00155281	0.000313079	0	0	0	
0.17	-0.0276339	-0.0212122	0.00134168	0.000395672	0	0	0	
0.170167	0.0398808	-0.0146944	0.00106009	0.000502672	0	0	0	
0.170333	-0.0216676	0.0360202	0.00081279	0.000581114	0	0	0	
0.1705	0.0286265	-0.0167906	0.000741436	0.000571612	0	0	0	
0.170667	-0.0871756	-0.00783909	0.000896126	0.000482172	0	0	0	
0.170833	0.115092	0.0263193	0.0012692	0.000343073	0	0	0	
0.171	-0.0693106	-0.0153051	0.00176821	0.000378398	0	0	0	
0.171167	0.0196033	0.00514578	0.00190046	0.00035369	0	0	0	
0.171333	-0.0262889	-0.0357805	0.00148358	0.000379834	0	0	0	
0.1715	0.0600708	0.0415019	0.00108534	0.000514951	0	0	0	
0.171667	-0.0600997	-0.00740734	0.000940081	0.000678997	0	0	0	
0.171833	0.046983	-0.00272554	0.00111511	0.000616207	0	0	0	
0.172	-0.0586436	-0.0172723	0.00117021	0.000529628	0	0	0	
0.172167	0.0665331	0.0331512	0.00118147	0.00052943	0	0	0	
0.172333	-0.044186	-0.0668349	0.00122078	0.000764642	0	0	0	
0.1725	0.0363322	0.0340197	0.00120828	0.000975161	0	0	0	
0.172667	-0.0752572	0.258657	0.00116976	0.00268565	0	0	0	
0.172833	0.0555829	-0.274413	0.00116479	0.00624389	0	0	0	
0.173	-0.0543767	0.172185	0.00176678	0.00810603	0	0	0	
0.173167	0.0924119	-0.172413	0.0021853	0.00731802	0	0	0	
0.173333	-0.078937	-0.0342321	0.00280334	0.0042931	0	0	0	
0.1735	0.0278931	0.0848785	0.00240893	0.00269846	0	0	0	
0.173667	0.0159652	-0.18058	0.00191473	0.00223124	0	0	0	
0.173833	0.0288723	0.408446	0.00105444	0.00372296	0	0	0	
0.174	-0.133922	-0.295623	0.00106694	0.00636733	0	0	0	
0.174167	0.0611646	-0.0666002	0.00158337	0.00722651	0	0	0	
0.174333	0.0980634	0.0151066	0.00172285	0.00567669	0	0	0	
0.1745	-0.045068	-0.0157424	0.00170477	0.00256628	0	0	0	
0.174667	-0.0830896	-0.0415603	0.00118211	0.00118553	0	0	0	
0.174833	0.0938421	-0.00335302	0.00167383	0.000787524	0	0	0	
0.175	-0.0308844	0.0320735	0.00188268	0.00117476	0	0	0	
0.175167	0.023162	-0.0377196	0.0019611	0.00129549	0	0	0	
0.175333	-0.0685433	0.00746293	0.0014687	0.00108363	0	0	0	
0.1755	0.0843449	0.0196647	0.00122456	0.000659336	0	0	0	
0.175667	-0.0557413	-0.0206361	0.00134153	0.00046717	0	0	0	
0.175833	0.036099	0.00623843	0.00138755	0.00042626	0	0	0	
0.176	-0.0482499	0.00538995	0.00118391	0.000300547	0	0	0	
0.176167	0.0513109	0.00323316	0.00103759	0.000250548	0	0	0	
0.176333	-0.0557354	-0.0163149	0.00101584	0.000232386	0	0	0	
0.1765	0.0785296	0.0174221	0.00115851	0.000271974	0	0	0	
0.176667	-0.0830964	-0.0078666	0.00134459	0.00030489	0	0	0	
0.176833	0.0558721	0.00409754	0.00152116	0.000254057	0	0	0	
0.177	-0.0354254	-0.00655387	0.00147346	0.000196819	0	0	0	
0.177167	0.0225618	0.0103477	0.00121405	0.000159228	0	0	0	
0.177333	-0.0230467	-0.0141211	0.000891552	0.000186453	0	0	0	
0.1775	0.0532283	0.0173122	0.000770161	0.000237436	0	0	0	
0.177667	-0.0884804	-0.00782751	0.000952662	0.000286174	0	0	0	
0.177833	0.0752018	-0.00362007	0.00131224	0.000312175	0	0	0	
0.178	-0.0397908	0.00120762	0.00156059	0.00022785	0	0	0	
0.178167	0.0360665	0.00641485	0.00145857	0.000172253	0	0	0	
0.178333	-0.0557613	-0.00745715	0.00122367	0.000117485	0	0	0	
0.1785	0.0586713	0.0115211	0.00109701	0.00017039	0	0	0	
0.178667	-0.0482477	-0.0164526	0.00112568	0.000219008	0	0	0	
0.178833	0.0535524	0.0133498	0.00116055	0.000261029	0	0	0	
0.179	-0.0583158	0.00056963	0.00113859	0.000250052	0	0	0	
0.179167	0.0356984	-0.000896034	0.00118475	0.000171221	0	0	0	
0.179333	-0.0192015	-0.00518429	0.00115192	0.000110048	0	0	0	
0.1795	0.0330801	0.00698361	0.00100171	0.000105169	0	0	0	
0.179667	-0.0333486	-0.00566901	0.000812767	0.00012922	0	0	0	
0.179833	-0.00254987	0.00332146	0.000670373	0.000144804	0	0	0	
0.18	0.00401022	0.00631849	0.000542845	0.000169722	0	0	0	
0.180167	0.0582326	0.00193006	0.000490289	0.000194626	0	0	0	
0.180333	-0.0828765	-0.00854064	0.00080798	0.000231856	0	0	0	
0.1805	0.0267399	-0.0026383	0.0014143	0.000187775	0	0	0	
0.180667	0.00304364	-0.00603222	0.00187042	0.000134748	0	0	0	
0.180833	0.0118175	0.0125081	0.00187616	0.000116693	0	0	0	
0.181	-0.0121965	-0.0340923	0.00182907	0.000245936	0	0	0	
0.181167	0.0311619	0.0287555	0.00175623	0.000485091	0	0	0	
0.181333	-0.100065	-0.0109296	0.00176201	0.00050261	0	0	0	
0.1815	0.137211	0.0136161	0.00188241	0.000507789	0	0	0	
0.181667	-0.0935653	0.00025196	0.00221437	0.000422173	0	0	0	
0.181833	0.0524862	-0.00693348	0.0023804	0.000403563	0	0	0	
0.182	-0.0674278	-0.0309258	0.00205436	0.000359997	0	0	0	
0.182167	0.0679927	-0.000411047	0.00165689	0.000391608	0	0	0	
0.182333	-0.0535178	0.010997	0.00142751	0.00046945	0	0	0	
0.1825	0.0809102	0.0146086	0.0014339	0.000527644	0	0	0	
0.182667	-0.0962702	-0.0138426	0.00148886	0.000449714	0	0	0	
0.182833	0.0531531	0.00884215	0.0016054	0.000458107	0	0	0	
0.183	-0.0343993	-0.000808635	0.00152882	0.000504311	0	0	0	
0.183167	0.0568745	-0.0033341	0.00130431	0.000512784	0	0	0	
0.183333	-0.0494211	-0.00771862	0.00111299	0.000456802	0	0	0	
0.1835	0.0284769	-0.0123383	0.00105716	0.00030126	0	0	0	
0.183667	-0.0383372	-0.000224895	0.000981825	0.000270397	0	0	0	
0.183833	0.0521728	0.0346389	0.000911859	0.000336617	0	0	0	
0.184	-0.0448455	-0.0313822	0.000915768	0.00051912	0	0	0	
0.184167	0.042494	-0.00418962	0.000969997	0.000951199	0	0	0	
0.184333	-0.0578944	0.0839698	0.00100463	0.0013597	0	0	0	
0.1845	0.046722	-0.0712435	0.00102652	0.00167817	0	0	0	
0.184667	-0.01159	0.00933282	0.000987739	0.00132758	0	0	0	
0.184833	0.0141093	0.0254892	0.000789842	0.00109975	0	0	0	
0.185	-0.0260144	-0.0525694	0.00064515	0.000776008	0	0	0	
0.185167	0.0059633	0.038142	0.000702785	0.000874188	0	0	0	
0.185333	-0.00274165	0.0102227	0.00071097	0.000930024	0	0	0	
0.1855	-0.128988	-0.122373	0.00117454	0.00134427	0	0	0	
0.185667	-0.000715551	-0.00116091	0.00165427	0.00179981	0	0	0	
0.185833	-0.00264019	-0.0377442	0.00196021	0.00160556	0	0	0	
0.186	-0.01513	0.0157241	0.00138939	0.00125323	0	0	0	
0.186167	0.0570935	-0.000443083	0.000846085	0.000687442	0	0	0	
0.186333	-0.0747135	0.0300568	0.000746137	0.000607831	0	0	0	
0.1865	0.0605204	-0.0399322	0.00121606	0.000632708	0	0	0	
0.186667	-0.077198	0.00259531	0.00134329	0.000589054	0	0	0	
0.186833	0.057983	0.0204724	0.00147269	0.000554486	0	0	0	
0.187	-0.0169437	-0.0152378	0.00140389	0.000380447	0	0	0	
0.187167	-0.00230137	0.00461759	0.00130047	0.000374118	0	0	0	
0.187333	0.000400808	0.000642894	0.000903694	0.000341302	0	0	0	
0.1875	0.00910675	0.00313562	0.000441349	0.000232251	0	0	0	
0.187667	-0.0672738	-0.0110586	0.000430087	0.000182355	0	0	0	
0.187833	0.0991692	0.0171524	0.000833993	0.000213124	0	0	0	
0.188	-0.0914515	-0.0299295	0.00154148	0.000326391	0	0	0	
0.188167	0.020175	0.0110069	0.00191037	0.000406057	0	0	0	
0.188333	-0.00763254	0.000548261	0.00164169	0.000397842	0	0	0	
0.1885	0.0153209	0.00537867	0.00100921	0.000249743	0	0	0	
0.188667	-0.0112956	-0.0116727	0.000648561	0.000195809	0	0	0	
0.188833	0.0125236	0.0100188	0.00062178	0.0001596	0	0	0	
0.189	-0.0944692	-0.00462493	0.000919316	0.000186632	0	0	0	
0.189167	0.0899014	0.00109144	0.00128012	0.000116899	0	0	0	
0.189333	-0.0320764	-0.00426214	0.0014606	9.80642E-05	0	0	0	
0.1895	0.0144308	0.00265438	0.00126496	8.04448E-05	0	0	0	
0.189667	-0.0309675	0.00263217	0.000833115	0.000115464	0	0	0	
0.189833	0.0294353	-0.00472477	0.000863411	0.00011437	0	0	0	
0.19	0.000401813	-0.0114457	0.000966536	0.000146945	0	0	0	
0.190167	-0.00786585	0.0284021	0.000824046	0.000209776	0	0	0	
0.190333	-0.00289085	-0.0167132	0.00056895	0.000351169	0	0	0	
0.1905	0.0327873	0.00686861	0.000396644	0.000392328	0	0	0	
0.190667	-0.0730497	-0.0018741	0.000613051	0.000299285	0	0	0	
0.190833	0.111782	0.0087108	0.00115969	0.000160844	0	0	0	
0.191	-0.073168	-0.0270811	0.00171243	0.000167003	0	0	0	
0.191167	0.0196317	0.0224226	0.0020649	0.000351208	0	0	0	
0.191333	0.000286647	-0.00335216	0.00173789	0.000416388	0	0	0	
0.1915	-0.000425086	0.00115531	0.00110555	0.00033542	0	0	0	
0.191667	-0.0226991	-0.000977126	0.000587301	0.000145221	0	0	0	
0.191833	0.0672214	-0.00107031	0.000675339	0.00013115	0	0	0	
0.192	-0.0962716	-0.00503142	0.00118002	0.000239978	0	0	0	
0.192167	0.0766608	0.00703047	0.00156578	0.000322842	0	0	0	
0.192333	-0.0305092	-0.00601868	0.00168166	0.000309667	0	0	0	
0.1925	-0.0033292	0.00485654	0.00146158	0.000212629	0	0	0	
0.192667	-0.00999422	-0.00112912	0.000998239	0.000122256	0	0	0	
0.192833	0.038863	0.000735896	0.000579847	7.57974E-05	0	0	0	
0.193	-0.0619982	-0.0011267	0.000543234	7.80481E-05	0	0	0	
0.193167	0.0636231	0.00370532	0.000948181	0.0001199	0	0	0	
0.193333	-0.0553578	-0.000475283	0.00132431	0.000126712	0	0	0	
0.1935	0.0337468	0.00112997	0.00147233	9.75948E-05	0	0	0	
0.193667	-0.0153991	-0.000623839	0.00127239	4.06973E-05	0	0	0	
0.193833	0.0094228	0.00216026	0.000899237	3.32013E-05	0	0	0	
0.194	-0.000353189	-0.00472857	0.00066336	5.21811E-05	0	0	0	
0.194167	0.0419381	0.00792809	0.000724996	7.98793E-05	0	0	0	
0.194333	-0.0550977	-0.0024359	0.000987942	0.000120404	0	0	0	
0.1945	0.0689432	-0.00457466	0.00121493	0.00011754	0	0	0	
0.194667	-0.03698	0.00198232	0.0012378	0.000115758	0	0	0	
0.194833	0.0135497	0.00184369	0.00101751	7.69269E-05	0	0	0	
0.195	0.0124091	0.00357738	0.000703744	6.37175E-05	0	0	0	
0.195167	0.0464986	-0.0237739	0.000677001	0.0001465	0	0	0	
0.195333	-0.103361	-0.00242342	0.00109564	0.000231442	0	0	0	
0.1955	0.0920935	0.00286708	0.00188962	0.000322744	0	0	0	
0.195667	0.0780864	-0.0135551	0.00334624	0.000402716	0	0	0	
0.195833	-0.0795425	0.0155947	0.00366536	0.000423014	0	0	0	
0.196	0.0114849	-0.00654403	0.00295817	0.000386796	0	0	0	
0.196167	-0.075922	-0.00305518	0.00174692	0.000262875	0	0	0	
0.196333	0.071109	-0.00171361	0.00153053	0.000204632	0	0	0	
0.1965	0.10422	-0.0179487	0.00176255	0.000189245	0	0	0	
0.196667	-0.205629	0.0140203	0.0021541	0.00018788	0	0	0	
0.196833	0.142686	-0.00936159	0.00276868	0.000251921	0	0	0	
0.197	0.000300024	-0.00323153	0.0032491	0.000284697	0	0	0	
0.197167	0.00351234	0.00359549	0.00249741	0.000252552	0	0	0	
0.197333	-0.0907988	0.00920505	0.00148908	0.000158446	0	0	0	
0.1975	0.0783503	-0.00570162	0.00112089	0.000160137	0	0	0	
0.197667	-0.00913104	-0.00665893	0.00159917	0.000179195	0	0	0	
0.197833	-0.0235241	0.0124443	0.0017065	0.000256986	0	0	0	
0.198	0.00907372	-0.0119604	0.0012356	0.000247394	0	0	0	
0.198167	0.0104846	0.00328267	0.000616284	0.000240939	0	0	0	
0.198333	-0.0321478	-0.000208603	0.000307042	0.000180941	0	0	0	
0.1985	0.0513106	0.00517425	0.000479569	0.000181761	0	0	0	
0.198667	-0.0138441	-0.00100448	0.000779643	0.00021286	0	0	0	
0.198833	-0.0217745	0.00225254	0.00112206	0.000191273	0	0	0	
0.199	0.0160487	-0.00160728	0.00104276	0.000137456	0	0	0	
0.199167	0.0128363	0.00594618	0.000770213	8.50591E-05	0	0	0	
0.199333	-0.0228708	-0.00724567	0.000405017	9.77688E-05	0	0	0	
0.1995	0.0300149	0.00312897	0.000373746	0.000189135	0	0	0	
0.199667	-0.0476191	-0.00270159	0.000566253	0.000307375	0	0	0	
0.199833	0.0485588	-0.00110736	0.000891136	0.000357589	0	0	0	
0.2	-0.0267834	0.000279611	0.0011623	0.000289839	0	0	0	
0.200167	0.00940941	0.000415882	0.00113099	0.000162464	0	0	0	
0.200333	-0.0120036	-0.00391548	0.000811194	8.24891E-05	0	0	0	
0.2005	0.0211434	0.00899907	0.000483709	7.598E-05	0	0	0	
0.200667	-0.0484793	-0.00356974	0.000524702	0.000110216	0	0	0	
0.200833	0.0510374	-0.00706889	0.000798901	0.000160079	0	0	0	
0.201	-0.0422661	-0.000328979	0.00104632	0.000190073	0	0	0	
0.201167	0.0260904	0.00319115	0.00102506	0.000182405	0	0	0	
0.201333	-0.025715	-0.000319686	0.000810536	0.000151044	0	0	0	
0.2015	0.0274164	0.00124253	0.000655139	9.18429E-05	0	0	0	
0.201667	-0.0364747	-0.00829942	0.000780669	0.000114067	0	0	0	
0.201833	0.0290546	0.00961931	0.000968506	0.000147699	0	0	0	
0.202	-0.0450276	-0.0104824	0.00103561	0.000317101	0	0	0	
0.202167	0.0649813	-0.00614286	0.00105714	0.000420592	0	0	0	
0.202333	-0.0381851	0.00441706	0.00102524	0.000407298	0	0	0	
0.2025	0.0141256	-0.000906163	0.00100169	0.000243949	0	0	0	
0.202667	0.00368233	0.0111007	0.000787523	0.000120637	0	0	0	
0.202833	0.0235935	-0.0123555	0.000578466	0.00014626	0	0	0	
0.203	-0.0691928	-0.000237069	0.000635435	0.000148791	0	0	0	
0.203167	0.0707549	0.00866612	0.000922138	0.000186926	0	0	0	
0.203333	-0.0349888	-0.00323253	0.00128649	0.000254441	0	0	0	
0.2035	0.0108849	-0.00224056	0.00126861	0.000311654	0	0	0	
0.203667	-0.00614993	0.00286411	0.000977158	0.000233956	0	0	0	
0.203833	0.000430633	-0.00783184	0.000780382	0.000133115	0	0	0	
0.204	-0.018995	0.00031817	0.000719249	0.000121277	0	0	0	
0.204167	0.049663	0.0161833	0.000756393	0.00019822	0	0	0	
0.204333	-0.0742251	-0.0200958	0.000953771	0.000278492	0	0	0	
0.2045	0.035366	0.00796147	0.00114884	0.000298956	0	0	0	
0.204667	-0.00236603	0.00545621	0.00123346	0.000286558	0	0	0	
0.204833	-0.041827	-0.0139673	0.00104352	0.000216552	0	0	0	
0.205	-0.00664816	0.00447309	0.00079884	0.000192382	0	0	0	
0.205167	0.0869602	0.0102458	0.000783094	0.000159823	0	0	0	
0.205333	-0.0915392	-0.00659173	0.001132	0.000167994	0	0	0	
0.2055	0.0323355	0.0011643	0.00179965	0.00012994	0	0	0	
0.205667	0.00737751	-0.00135195	0.00198804	0.000102619	0	0	0	
0.205833	0.00980881	0.00401867	0.00146009	4.99557E-05	0	0	0	
0.206	-0.020293	-0.010796	0.000931015	8.93844E-05	0	0	0	
0.206167	0.0209854	0.00642428	0.000851431	0.000163078	0	0	0	
0.206333	-0.0538203	-0.00194934	0.00103156	0.000191115	0	0	0	
0.2065	0.101245	0.00126038	0.00125487	0.000153704	0	0	0	
0.206667	-0.0508397	-0.00131371	0.00135797	8.40518E-05	0	0	0	
0.206833	0.00921905	0.00367008	0.00140334	6.44727E-05	0	0	0	
0.207	-0.00421114	-0.00548158	0.00101865	7.19357E-05	0	0	0	
0.207167	0.0390803	0.00472991	0.000711206	0.000124636	0	0	0	
0.207333	-0.0484351	-0.00889353	0.000736379	0.000202848	0	0	0	
0.2075	0.0257304	0.00594456	0.00091673	0.00023701	0	0	0	
0.207667	-0.00917224	-0.00414201	0.00093158	0.000202197	0	0	0	
0.207833	0.00625182	0.00374776	0.000654093	0.000124306	0	0	0	
0.208	-0.015841	-0.00568747	0.000397724	8.54578E-05	0	0	0	
0.208167	0.0430237	0.00973773	0.000361693	0.000107199	0	0	0	
0.208333	-0.05526	-0.0126806	0.000625041	0.000187371	0	0	0	
0.2085	0.0168501	0.00743424	0.00108118	0.00024413	0	0	0	
0.208667	0.0222921	-0.00893533	0.00145293	0.000247556	0	0	0	
0.208833	-0.0138907	0.00484597	0.00127462	0.000190282	0	0	0	
0.209	-0.0162852	-0.00641495	0.000827074	0.000138476	0	0	0	
0.209167	0.0220407	0.0140285	0.000397836	0.000134935	0	0	0	
0.209333	-0.0286559	-0.0184918	0.000461354	0.000199698	0	0	0	
0.2095	0.0395563	0.00759679	0.000704711	0.000282389	0	0	0	
0.209667	-0.0400217	-0.00150627	0.000911446	0.000284918	0	0	0	
0.209833	0.0265211	-0.000740679	0.000979572	0.000184623	0	0	0	
0.21	-0.00823405	-0.00120478	0.000825571	7.75235E-05	0	0	0	
0.210167	0.0311374	0.00372905	0.000626304	3.59098E-05	0	0	0	
0.210333	-0.072338	-0.00839069	0.00062105	7.54327E-05	0	0	0	
0.2105	0.0426523	0.00943726	0.00102183	0.000126591	0	0	0	
0.210667	0.012127	-0.00424236	0.0015084	0.00016037	0	0	0	
0.210833	-0.023449	0.000531766	0.00135162	0.000156708	0	0	0	
0.211	-0.00994435	0.000313605	0.000987803	0.000122453	0	0	0	
0.211167	0.0321162	-0.00133785	0.000507043	9.15604E-05	0	0	0	
0.211333	-0.0433847	0.00284493	0.000585232	6.11147E-05	0	0	0	
0.2115	0.0563247	0.0130711	0.000771011	7.15662E-05	0	0	0	
0.211667	-0.0511849	-0.0127966	0.00119858	0.000138264	0	0	0	
0.211833	0.0271982	0.0124493	0.00134101	0.000199448	0	0	0	
0.212	-0.0449139	-0.00787469	0.00126606	0.000267793	0	0	0	
0.212167	0.0425118	0.00341053	0.000955955	0.000247709	0	0	0	
0.212333	-0.0555636	-0.00608621	0.000898168	0.00020773	0	0	0	
0.2125	0.121037	0.014931	0.00109143	0.000165495	0	0	0	
0.212667	-0.129836	-0.00913479	0.00176095	0.000197095	0	0	0	
0.212833	-0.00856293	0.0179007	0.00248013	0.000263323	0	0	0	
0.213	0.102465	-0.023866	0.00254992	0.000360804	0	0	0	
0.213167	-0.0547957	0.0127185	0.00224018	0.000375004	0	0	0	
0.213333	-0.0313375	-0.00342226	0.00177933	0.000326643	0	0	0	
0.2135	0.0392839	0.00327939	0.00146983	0.000187302	0	0	0	
0.213667	-0.0449476	-0.0059499	0.00112437	0.000120293	0	0	0	
0.213833	0.0523323	0.0184672	0.00083351	0.000144124	0	0	0	
0.214	-0.0350568	-0.0144221	0.000963687	0.0002308	0	0	0	
0.214167	-0.00147531	0.00503464	0.00121675	0.000252069	0	0	0	
0.214333	0.00685141	0.00118556	0.001261	0.000190027	0	0	0	
0.2145	0.00860298	0.00246677	0.000932375	0.000112965	0	0	0	
0.214667	-0.0285651	-0.0119	0.000562857	0.000164069	0	0	0	
0.214833	0.0457583	0.017636	0.000639963	0.000276082	0	0	0	
0.215	-0.0190866	-0.0132834	0.00101785	0.000359872	0	0	0	
0.215167	0.00411344	0.00304429	0.00137081	0.00031889	0	0	0	
0.215333	0.0105484	0.00255194	0.00126722	0.000242877	0	0	0	
0.2155	0.00621578	-0.00263267	0.000841463	0.000139647	0	0	0	
0.215667	-0.0404581	-0.0104921	0.000476694	0.000146838	0	0	0	
0.215833	0.0667166	0.034691	0.000552959	0.000291618	0	0	0	
0.216	-0.0514315	-0.0262017	0.000991624	0.000430968	0	0	0	
0.216167	0.0247703	0.00571389	0.00131591	0.000577636	0	0	0	
0.216333	-0.0124236	0.0155566	0.00125725	0.00064406	0	0	0	
0.2165	0.0105944	-0.0163904	0.000955802	0.000607817	0	0	0	
0.216667	-0.00298547	0.000889739	0.00064648	0.00047003	0	0	0	
0.216833	-0.00414967	0.0114983	0.000473004	0.000343814	0	0	0	
0.217	-0.0276866	-0.0141179	0.000420558	0.000311953	0	0	0	
0.217167	0.0583009	0.0168208	0.000530065	0.000329717	0	0	0	
0.217333	-0.0667637	-0.0151212	0.000895896	0.00033332	0	0	0	
0.2175	0.0265106	0.000770825	0.00135856	0.000359832	0	0	0	
0.217667	0.000168073	0.00740027	0.00139023	0.000321603	0	0	0	
0.217833	0.0180607	-0.00298129	0.000987288	0.000212645	0	0	0	
0.218	-0.0472872	-0.0134749	0.000679794	0.000195383	0	0	0	
0.218167	0.0495982	0.0197782	0.000841644	0.000245799	0	0	0	
0.218333	-0.0376314	-0.00430242	0.00125669	0.00028425	0	0	0	
0.2185	0.0204273	-0.0013837	0.00138999	0.000210471	0	0	0	
0.218667	-0.00592612	-0.00374135	0.00114199	0.000121603	0	0	0	
0.218833	0.0102725	0.0061311	0.000739372	7.92427E-05	0	0	0	
0.219	-0.02673	-0.00587301	0.00047151	0.000107512	0	0	0	
0.219167	0.0570488	0.00241303	0.000607046	0.000150119	0	0	0	
0.219333	-0.0305808	0.0102269	0.000904683	0.000210582	0	0	0	
0.2195	0.0150112	-0.007071	0.00123618	0.00022707	0	0	0	
0.219667	0.00285758	0.00302381	0.00120231	0.000187334	0	0	0	
0.219833	-0.000553981	0.00491919	0.000897422	0.000138954	0	0	0	
0.22	-0.0211119	-0.00640172	0.000498989	0.00010933	0	0	0	
0.220167	0.0582199	-0.0047678	0.000455811	0.00018458	0	0	0	
0.220333	-0.0559805	0.00125061	0.000755413	0.000286255	0	0	0	
0.2205	0.0232668	-0.00521536	0.00117716	0.000314261	0	0	0	
0.220667	-0.00536601	0.0023279	0.00126944	0.000236949	0	0	0	
0.220833	0.00168495	-2.84162E-06	0.00100264	0.000107816	0	0	0	
0.221	-0.0154219	-0.00309607	0.000579104	6.38202E-05	0	0	0	
0.221167	0.0519873	0.015206	0.000452888	8.49131E-05	0	0	0	
0.221333	-0.0718515	-0.039795	0.000671509	0.000246682	0	0	0	
0.2215	0.0230599	0.0289049	0.00102334	0.000471425	0	0	0	
0.221667	0.00951671	-0.0132119	0.0013031	0.000569753	0	0	0	
0.221833	-0.0195544	0.00394574	0.00115012	0.000490077	0	0	0	
0.222	-0.00720845	-0.00501374	0.000785009	0.000290329	0	0	0	
0.222167	0.0224559	0.00527629	0.00036512	0.000183606	0	0	0	
0.222333	-0.0211343	0.00354996	0.000361299	0.000187697	0	0	0	
0.2225	0.0189938	-0.00344701	0.000613561	0.000234534	0	0	0	
0.222667	-0.0198494	0.00205628	0.000853934	0.000223281	0	0	0	
0.222833	0.0229918	0.00325435	0.000943059	0.000152483	0	0	0	
0.223	-0.014603	-0.00157652	0.000821344	7.78572E-05	0	0	0	
0.223167	0.0275551	0.00444829	0.00063911	6.38943E-05	0	0	0	
0.223333	-0.0526523	-0.0110873	0.000600487	8.4145E-05	0	0	0	
0.2235	0.0590385	0.024974	0.000903349	0.000235476	0	0	0	
0.223667	-0.00986028	-0.00981067	0.00128081	0.000368206	0	0	0	
0.223833	-0.000864703	-0.000285778	0.00134609	0.000403913	0	0	0	
0.224	-0.00411213	0.000379628	0.000886231	0.000247384	0	0	0	
0.224167	0.0220633	0.00513939	0.00043495	0.000108349	0	0	0	
0.224333	-0.0341117	-0.00424344	0.000287897	5.42182E-05	0	0	0	
0.2245	0.0456257	0.00486587	0.000622186	8.38225E-05	0	0	0	
0.224667	-0.0245662	-0.0037168	0.000990041	9.29575E-05	0	0	0	
0.224833	0.0153972	0.00320534	0.00119738	0.000108815	0	0	0	
0.225	-0.0290435	-0.00123836	0.00108751	0.000118585	0	0	0	
0.225167	0.0221296	-0.000405368	0.000818153	0.00012622	0	0	0	
0.225333	-0.0231557	0.00147764	0.000604577	9.52605E-05	0	0	0	
0.2255	0.0266456	-0.00311728	0.000573777	7.57889E-05	0	0	0	
0.225667	-0.0337372	-0.00754775	0.000810291	0.000106165	0	0	0	
0.225833	0.00904849	0.0086693	0.00105826	0.000179496	0	0	0	
0.226	-0.0177772	-0.000532893	0.00109115	0.000214358	0	0	0	
0.226167	0.0105931	-0.000437471	0.000804085	0.000193026	0	0	0	
0.226333	-0.0077783	-0.00247195	0.000480255	0.000117582	0	0	0	
0.2265	0.0230411	0.00321537	0.000329192	9.20306E-05	0	0	0	
0.226667	-0.0651527	-0.000335435	0.000492659	0.000145277	0	0	0	
0.226833	0.0543936	0.0115113	0.00086273	0.000243026	0	0	0	
0.227	-0.0199814	-0.00183557	0.00132015	0.000256072	0	0	0	
0.227167	0.00176491	0.00402692	0.0014074	0.000216346	0	0	0	
0.227333	-0.0129161	-0.00101194	0.0010981	0.00015359	0	0	0	
0.2275	0.00192659	0.000530262	0.000695057	0.000112046	0	0	0	
0.227667	0.0400299	-0.00581918	0.000452269	7.533E-05	0	0	0	
0.227833	-0.00858595	0.00354745	0.000475538	8.02365E-05	0	0	0	
0.228	-0.0254941	0.00527736	0.000563785	0.000104176	0	0	0	
0.228167	0.0116308	-0.000166477	0.000526395	0.000162518	0	0	0	
0.228333	-0.0119918	-0.00166235	0.000479078	0.000209834	0	0	0	
0.2285	0.0416254	-9.92306E-05	0.000390012	0.00021882	0	0	0	
0.228667	0.00203191	-0.000141741	0.000732738	0.000163442	0	0	0	
0.228833	-0.101735	-0.011527	0.00174713	0.000144659	0	0	0	
0.229	0.115577	0.00676866	0.00274958	0.000172201	0	0	0	
0.229167	-0.0890999	-0.000664919	0.00321322	0.000205809	0	0	0	
0.229333	0.0503191	-0.00165252	0.00254862	0.000166187	0	0	0	
0.2295	-0.0166722	0.00580939	0.00167502	0.000155675	0	0	0	
0.229667	-0.0254885	-0.00445859	0.000872297	0.000137352	0	0	0	
0.229833	0.0544986	-0.00736249	0.000710843	0.000156268	0	0	0	
0.23	-0.0730461	-0.0033991	0.00124995	0.000170493	0	0	0	
0.230167	0.0134519	-0.0013445	0.00210618	0.000173781	0	0	0	
0.230333	0.0158754	0.0138178	0.00248202	0.000182252	0	0	0	
0.2305	0.0149393	-0.00724185	0.0019375	0.000184105	0	0	0	
0.230667	-0.0326338	-0.00111614	0.00119825	0.000186723	0	0	0	
0.230833	0.0111418	0.000626609	0.000816492	0.000150434	0	0	0	
0.231	0.00751993	0.00252738	0.000885014	0.000139359	0	0	0	
0.231167	0.0205086	0.00358257	0.000864923	0.000192078	0	0	0	
0.231333	-0.0431876	-0.0145395	0.000862617	0.000253417	0	0	0	
0.2315	0.0467039	0.0233141	0.00108209	0.000302766	0	0	0	
0.231667	-0.0146495	-0.0114277	0.00133644	0.000311829	0	0	0	
0.231833	-0.0119188	0.000481824	0.00137641	0.000293247	0	0	0	
0.232	0.0740416	-0.000808008	0.00115513	0.000216154	0	0	0	
0.232167	-0.0435457	0.00318513	0.00113062	0.000139655	0	0	0	
0.232333	-0.0332345	0.00110942	0.00100838	9.01139E-05	0	0	0	
0.2325	0.0553583	0.00547545	0.000918612	7.34514E-05	0	0	0	
0.232667	-0.0229552	-0.00557543	0.000856419	9.41066E-05	0	0	0	
0.232833	0.00883372	0.00233595	0.000835826	0.00010955	0	0	0	
0.233	-0.006365	-0.0029523	0.000745183	0.000117231	0	0	0	
0.233167	-0.00605636	0.00327095	0.000781709	0.000107973	0	0	0	
0.233333	-0.00107485	-0.00307026	0.00097352	0.000123545	0	0	0	
0.2335	0.0163591	0.00392701	0.00102277	0.000160803	0	0	0	
0.233667	-0.0391872	-0.00312085	0.00093908	0.000186175	0	0	0	
0.233833	0.0175891	-0.00129267	0.000838445	0.000164111	0	0	0	
0.234	-0.00690984	0.000736566	0.000836553	0.000111593	0	0	0	
0.234167	0.00260857	0.00568227	0.000696873	7.16688E-05	0	0	0	
0.234333	-0.0178469	-0.0187427	0.000649723	0.000135699	0	0	0	
0.2345	0.0249852	0.0191002	0.000724962	0.00022002	0	0	0	
0.234667	-0.0252531	-0.0134296	0.000788656	0.000302574	0	0	0	
0.234833	0.0167792	0.00259883	0.000705497	0.000292035	0	0	0	
0.235	-0.0191106	0.00227143	0.000514557	0.000234871	0	0	0	
0.235167	0.0340879	0.00591186	0.000425097	0.000161621	0	0	0	
0.235333	-0.0508358	-0.0266614	0.00063722	0.000148125	0	0	0	
0.2355	0.183552	0.142657	0.00173795	0.00086131	0	0	0	
0.235667	-0.0128	0.00331118	0.00246609	0.00146115	0	0	0	
0.235833	-0.0425255	0.00601723	0.00258864	0.00167521	0	0	0	
0.236	0.0349638	-0.00404474	0.00189653	0.0011076	0	0	0	
0.236167	-0.00118982	0.0108369	0.00130456	0.000564394	0	0	0	
0.236333	-0.0127899	-0.0289376	0.00106772	0.000481375	0	0	0	
0.2365	0.0361928	0.0129971	0.00107735	0.000613767	0	0	0	
0.236667	-0.043982	0.00712033	0.0013543	0.000737927	0	0	0	
0.236833	0.0765662	-0.00714023	0.00162802	0.000640116	0	0	0	
0.237	-0.0840467	0.000217097	0.00179694	0.000373303	0	0	0	
0.237167	0.0432152	0.00518846	0.00201646	0.000198209	0	0	0	
0.237333	-0.010354	-0.0043546	0.00209447	0.000151473	0	0	0	
0.2375	0.0145305	-0.00249269	0.00177589	0.000202747	0	0	0	
0.237667	-0.0234333	0.0078059	0.00132244	0.0002372	0	0	0	
0.237833	0.0200954	0.00092777	0.00108521	0.000206692	0	0	0	
0.238	-0.0192378	-0.0081107	0.00109648	0.000155189	0	0	0	
0.238167	0.0202984	0.00819136	0.00112651	0.000131275	0	0	0	
0.238333	-0.0117772	-0.0075696	0.00111213	0.000167419	0	0	0	
0.2385	0.00612091	0.00933355	0.00103774	0.000192511	0	0	0	
0.238667	-0.0249039	-0.00752066	0.000850925	0.000243859	0	0	0	
0.238833	0.0483688	0.00268429	0.00073841	0.000280244	0	0	0	
0.239	-0.0515861	-0.00333441	0.000843699	0.000268242	0	0	0	
0.239167	0.0393173	0.00695036	0.00115182	0.000219211	0	0	0	
0.239333	-0.022614	-0.00602868	0.0013824	0.000183675	0	0	0	
0.2395	-0.00539893	0.00489055	0.00145956	0.000179622	0	0	0	
0.239667	0.00404884	-0.00729013	0.00121146	0.00017944	0	0	0	
0.239833	0.045977	0.00774219	0.000877307	0.000176337	0	0	0	
0.24	-0.0662997	-0.0081048	0.000782491	0.000191968	0	0	0	
0.240167	0.0358241	0.00631364	0.00115375	0.000198336	0	0	0	
0.240333	-0.0148334	-0.00457842	0.00153561	0.000181699	0	0	0	
0.2405	0.00689398	0.00375224	0.00157105	0.000148714	0	0	0	
0.240667	0.00430746	-0.00456024	0.0013331	0.000136634	0	0	0	
0.240833	0.023733	0.00548432	0.000956401	0.000146183	0	0	0	
0.241	-0.0618521	-0.00553455	0.000796527	0.000153439	0	0	0	
0.241167	0.0520867	0.00731108	0.000929214	0.000149084	0	0	0	
0.241333	-0.0281637	-0.00829997	0.00130458	0.000140862	0	0	0	
0.2415	0.0393576	0.00760737	0.0014301	0.000187086	0	0	0	
0.241667	-0.0431004	-0.0014206	0.00143664	0.0002614	0	0	0	
0.241833	0.0015365	-0.00474739	0.0015871	0.000338258	0	0	0	
0.242	0.0195167	0.0089761	0.0016947	0.000349102	0	0	0	
0.242167	0.0264654	-0.00697032	0.0013355	0.000283783	0	0	0	
0.242333	-0.0720671	-0.00672926	0.000974981	0.000210915	0	0	0	
0.2425	0.0519979	0.0165311	0.00106645	0.000176364	0	0	0	
0.242667	-0.0134785	-0.0121757	0.00155907	0.000233912	0	0	0	
0.242833	0.0326571	0.00463105	0.00160577	0.000312143	0	0	0	
0.243	-0.0499973	-0.00391693	0.00143199	0.000351602	0	0	0	
0.243167	0.00862418	0.000100263	0.00141952	0.000321017	0	0	0	
0.243333	0.0136954	0.00275226	0.0015141	0.000275278	0	0	0	
0.2435	0.028767	-0.0128492	0.00122322	0.000267065	0	0	0	
0.243667	-0.0601654	0.00918042	0.000889434	0.000249707	0	0	0	
0.243833	0.114333	0.0734043	0.000995103	0.000524919	0	0	0	
0.244	-0.0301765	-0.0102446	0.00286477	0.00236249	0	0	0	
0.244167	0.0497393	0.00468674	0.0032784	0.00342905	0	0	0	
0.244333	-0.0560126	-0.0623806	0.00309569	0.0032083	0	0	0	
0.2445	0.0471786	0.0479896	0.00159015	0.00170428	0	0	0	
0.244667	-0.0619315	-0.0125386	0.0013708	0.00096488	0	0	0	
0.244833	0.061138	-0.016079	0.00151636	0.00114416	0	0	0	
0.245	-0.0805689	0.00470941	0.00171545	0.00110362	0	0	0	
0.245167	-0.0525932	-0.154841	0.00285641	0.00300702	0	0	0	
0.245333	-0.0132474	0.00785586	0.00295718	0.00310052	0	0	0	
0.2455	0.0202403	0.0281347	0.00275191	0.00291487	0	0	0	
0.245667	-0.0318404	-0.0261946	0.00145942	0.00082984	0	0	0	
0.245833	0.0380231	0.0235151	0.00112953	0.000562257	0	0	0	
0.246	-0.0433499	-0.0260924	0.000953301	0.000494248	0	0	0	
0.246167	0.060185	0.022884	0.000976435	0.000461849	0	0	0	
0.246333	-0.0806895	-0.0204921	0.00111088	0.000437744	0	0	0	
0.2465	0.0909854	0.0160081	0.00131427	0.000415864	0	0	0	
0.246667	-0.0863142	-0.0115738	0.00153128	0.000361753	0	0	0	
0.246833	0.0772965	0.0123686	0.00173928	0.000350223	0	0	0	
0.247	-0.0388206	-0.0111692	0.00194123	0.000351233	0	0	0	
0.247167	-0.00976568	0.00117987	0.00212542	0.000367261	0	0	0	
0.247333	0.0296249	0.00971871	0.00199284	0.00038103	0	0	0	
0.2475	0.00818617	-0.0219665	0.00142228	0.000353817	0	0	0	
0.247667	-0.0601871	0.0127844	0.000861766	0.000322875	0	0	0	
0.247833	0.0658836	0.000281909	0.000822433	0.000265294	0	0	0	
0.248	-0.0326341	-0.00982159	0.00132962	0.000193286	0	0	0	
0.248167	0.0158479	0.00657625	0.00176398	0.000181764	0	0	0	
0.248333	0.00148207	0.00807592	0.00190903	0.000245426	0	0	0	
0.2485	-0.0244132	-0.0168768	0.00178262	0.000348222	0	0	0	
0.248667	-0.00639776	0.00780589	0.00129376	0.000398305	0	0	0	
0.248833	0.0705255	-0.00561033	0.000910949	0.000373085	0	0	0	
0.249	-0.0732728	-0.00170166	0.000928906	0.000295386	0	0	0	
0.249167	0.0324256	0.0121533	0.00151005	0.000206318	0	0	0	
0.249333	-0.0105219	-0.00942251	0.00187191	0.000222326	0	0	0	
0.2495	0.0100005	0.00417004	0.00172612	0.000314447	0	0	0	
0.249667	-0.0227226	-0.00366051	0.00127281	0.000315616	0	0	0	
0.249833	0.0461627	0.00635368	0.000989547	0.000223981	0	0	0	
0.25	-0.0352166	-0.00430422	0.00101771	0.000175353	0	0	0	
0.250167	0.0126342	-0.00381761	0.00119429	0.000228131	0	0	0	
0.250333	-0.0256219	-0.000289274	0.00115418	0.000239961	0	0	0	
0.2505	0.0510383	0.00517891	0.00103753	0.00016691	0	0	0	
0.250667	-0.037446	0.001117	0.0010767	7.24301E-05	0	0	0	
0.250833	0.00529594	-0.00121312	0.00137624	7.58499E-05	0	0	0	
0.251	0.00541156	-0.00437654	0.00147476	9.68976E-05	0	0	0	
0.251167	0.0120123	0.00820364	0.00121426	0.000129324	0	0	0	
0.251333	-0.0233274	-0.00888032	0.000916596	0.000161147	0	0	0	
0.2515	0.0193198	0.00473404	0.000868595	0.000207614	0	0	0	
0.251667	-0.0254831	-0.00264561	0.000951504	0.000244554	0	0	0	
0.251833	0.0464384	0.00366235	0.00102912	0.000240235	0	0	0	
0.252	-0.031758	-0.00500732	0.00118199	0.000215898	0	0	0	
0.252167	0.00662068	0.00465421	0.0013852	0.000202631	0	0	0	
0.252333	-0.032661	-0.000599382	0.00130817	0.000219361	0	0	0	
0.2525	0.0568911	0.00157318	0.00118113	0.000219974	0	0	0	
0.252667	-0.0170587	-0.0060873	0.00129513	0.000186237	0	0	0	
0.252833	-0.00372146	0.00598345	0.00155486	0.000151603	0	0	0	
0.253	-0.0284427	-0.000312612	0.00138934	0.000150946	0	0	0	
0.253167	0.0400557	0.00273651	0.00113313	0.000139955	0	0	0	
0.253333	-0.0106281	-0.0112613	0.00113922	0.000133497	0	0	0	
0.2535	0.021422	0.0087253	0.00126317	0.00016083	0	0	0	
0.253667	-0.0541307	0.00164059	0.0012224	0.000233987	0	0	0	
0.253833	0.0370443	0.00130276	0.00123422	0.000237135	0	0	0	
0.254	-0.00103834	-0.00592202	0.00146747	0.00018658	0	0	0	
0.254167	0.0165466	0.00450104	0.00141736	0.000165638	0	0	0	
0.254333	-0.0418093	-0.000341188	0.00112912	0.000204768	0	0	0	
0.2545	0.0416344	-0.000374491	0.000952814	0.000198511	0	0	0	
0.254667	-0.0346085	-0.0038119	0.00106685	0.000130248	0	0	0	
0.254833	0.0361381	0.00789043	0.00116744	8.27153E-05	0	0	0	
0.255	-0.0361276	-0.00784457	0.00113145	0.000101611	0	0	0	
0.255167	0.0501843	0.0138093	0.00113309	0.000160418	0	0	0	
0.255333	-0.0417697	-0.0118783	0.00134251	0.000237091	0	0	0	
0.2555	-0.0159055	-0.00576722	0.00177438	0.000388046	0	0	0	
0.255667	0.0305825	0.0218281	0.00182767	0.000477514	0	0	0	
0.255833	0.0294118	-0.0164398	0.00137426	0.000476063	0	0	0	
0.256	-0.0413082	-0.00388619	0.000837184	0.000376859	0	0	0	
0.256167	0.0157687	0.00690721	0.000824106	0.000250961	0	0	0	
0.256333	-0.0399064	-0.0069798	0.00100414	0.000173462	0	0	0	
0.2565	0.0487788	0.0145488	0.0011787	0.000132603	0	0	0	
0.256667	0.000861241	-0.00716987	0.00139917	0.000220115	0	0	0	
0.256833	0.00649104	-0.0128232	0.00145438	0.000378817	0	0	0	
0.257	-0.0464872	0.00971822	0.00127309	0.000443236	0	0	0	
0.257167	0.0156516	0.000991369	0.00117501	0.000346815	0	0	0	
0.257333	0.00853552	-0.00344993	0.00130832	0.000184219	0	0	0	
0.2575	0.0486058	0.000154891	0.00123144	0.000156516	0	0	0	
0.257667	-0.0550622	-0.00241123	0.00111998	0.000203233	0	0	0	
0.257833	-0.00171167	0.00599753	0.0013571	0.000216542	0	0	0	
0.258	-0.00860813	-0.00282619	0.00146935	0.000177849	0	0	0	
0.258167	0.0648831	0.000773943	0.00126404	0.000169354	0	0	0	
0.258333	-0.0398052	-0.00428043	0.00112453	0.000166505	0	0	0	
0.2585	-0.0129602	0.00834371	0.00153748	0.000170775	0	0	0	
0.258667	-0.00696829	-0.00441559	0.00153116	0.000179069	0	0	0	
0.258833	0.0430054	0.00191558	0.00116436	0.000178644	0	0	0	
0.259	-0.0156338	-0.00389563	0.000960809	0.000139191	0	0	0	
0.259167	-0.00826794	0.00696632	0.00122361	0.000118671	0	0	0	
0.259333	-0.0212035	-0.00638637	0.00120842	0.000146422	0	0	0	
0.2595	0.0350203	0.00474767	0.00101122	0.000167517	0	0	0	
0.259667	-0.0016267	-0.00542064	0.000990712	0.000146591	0	0	0	
0.259833	-1.39068E-05	0.00960021	0.00109932	0.000161615	0	0	0	
0.26	-0.03475	-0.00546205	0.000994313	0.000212195	0	0	0	
0.260167	0.0460115	-5.25083E-05	0.000877696	0.000212332	0	0	0	
0.260333	-0.0473806	-0.00512625	0.00104719	0.000141911	0	0	0	
0.2605	0.0494444	0.00268063	0.00146141	0.000101654	0	0	0	
0.260667	0.00268031	0.00461238	0.00210823	0.000183647	0	0	0	
0.260833	-0.0870201	-0.00141804	0.00286967	0.000253019	0	0	0	
0.261	0.0874383	-0.00718091	0.00298298	0.000238728	0	0	0	
0.261167	0.0351907	0.0048773	0.00243643	0.000211547	0	0	0	
0.261333	-0.132394	-0.00816222	0.00175686	0.000153828	0	0	0	
0.2615	0.100279	0.00852647	0.00187788	0.000197386	0	0	0	
0.261667	-0.0170299	-0.00956	0.00249548	0.000182331	0	0	0	
0.261833	0.020539	0.010654	0.00256657	0.000241132	0	0	0	
0.262	-0.0421168	-0.00198355	0.00217429	0.000277299	0	0	0	
0.262167	0.000715993	-0.0113789	0.00168029	0.000294128	0	0	0	
0.262333	0.0127913	0.00199907	0.0013102	0.000259571	0	0	0	
0.2625	0.063896	0.00915635	0.00104723	0.000164258	0	0	0	
0.262667	-0.0784278	-0.00701973	0.000953728	0.000143216	0	0	0	
0.262833	0.0083249	0.00147039	0.00157335	0.000170803	0	0	0	
0.263	0.0370206	0.000757137	0.00211321	0.000232236	0	0	0	
0.263167	-0.0176386	-0.00550751	0.00193995	0.000241508	0	0	0	
0.263333	-0.0428436	-0.00539314	0.00118221	0.000182624	0	0	0	
0.2635	0.160685	0.0541404	0.00113094	0.000314076	0	0	0	
0.263667	-0.0642485	0.0766403	0.0018649	0.00116632	0	0	0	
0.263833	-0.0248505	0.0314158	0.00220132	0.00143675	0	0	0	
0.264	-0.00332041	-0.0344522	0.00182193	0.00146932	0	0	0	
0.264167	0.0550647	0.0192155	0.000958664	0.000703344	0	0	0	
0.264333	-0.063745	-0.0233114	0.000871204	0.000538979	0	0	0	
0.2645	0.0570465	0.0162264	0.00112289	0.000570747	0	0	0	
0.264667	-0.0507975	0.0022152	0.0014395	0.000449025	0	0	0	
0.264833	0.0484298	-0.0139044	0.0014383	0.000501418	0	0	0	
0.265	-0.0598495	0.0168461	0.00137184	0.000397475	0	0	0	
0.265167	0.034619	-0.0091787	0.00133704	0.000452547	0	0	0	
0.265333	-0.00213118	-0.00228739	0.00135589	0.000297489	0	0	0	
0.2655	-0.0385006	0.010317	0.0012273	0.00015133	0	0	0	
0.265667	0.0402543	-0.0150472	0.00113603	0.000170681	0	0	0	
0.265833	0.0145722	0.00785684	0.00090371	0.000294691	0	0	0	
0.266	-0.0389126	0.000433487	0.000823492	0.000408231	0	0	0	
0.266167	0.0250258	-0.00420418	0.000886632	0.000402516	0	0	0	
0.266333	-0.0141285	0.00291357	0.000999187	0.000305339	0	0	0	
0.2665	0.0073733	-0.00184349	0.000979056	0.000177293	0	0	0	
0.266667	0.0484867	-0.00232862	0.00116678	7.98394E-05	0	0	0	
0.266833	-0.043185	0.00421436	0.00151445	6.75222E-05	0	0	0	
0.267	-0.0168101	-0.0161125	0.00138811	0.000158372	0	0	0	
0.267167	0.0690936	0.016307	0.00104004	0.000236653	0	0	0	
0.267333	-0.0317954	-0.00905707	0.000875944	0.000305027	0	0	0	
0.2675	0.028212	-0.00274492	0.0010054	0.000289779	0	0	0	
0.267667	-0.0406915	0.00912783	0.00103918	0.000246749	0	0	0	
0.267833	0.00931714	4.85063E-05	0.00145532	0.000217701	0	0	0	
0.268	0.0465668	-0.0143208	0.00202679	0.000247597	0	0	0	
0.268167	0.0098704	0.0155422	0.00189106	0.00027071	0	0	0	
0.268333	-0.0677761	-0.00829314	0.00136697	0.000306085	0	0	0	
0.2685	0.048356	0.00315214	0.000852153	0.000252146	0	0	0	
0.268667	-0.0302283	0.00490098	0.000968192	0.000259394	0	0	0	
0.268833	0.0194961	-0.0243942	0.00107491	0.000292903	0	0	0	
0.269	0.00180347	0.0250725	0.00150746	0.000372586	0	0	0	
0.269167	-0.0397928	0.0010973	0.00178306	0.000404355	0	0	0	
0.269333	0.0167964	-0.0208289	0.00148209	0.000330834	0	0	0	
0.2695	0.00669228	0.0146804	0.000980673	0.000310827	0	0	0	
0.269667	-0.0352859	-0.00492736	0.000550151	0.000284712	0	0	0	
0.269833	0.0561498	0.00505305	0.000672664	0.000277601	0	0	0	
0.27	-0.0720593	-0.00459741	0.00109741	0.000267896	0	0	0	
0.270167	0.0171614	-0.00332675	0.00176002	0.000330097	0	0	0	
0.270333	0.0235346	0.00065602	0.00211368	0.000351876	0	0	0	
0.2705	-0.0121095	0.00658819	0.00169721	0.000289359	0	0	0	
0.270667	-0.00858366	-0.00173075	0.000974378	0.000172493	0	0	0	
0.270833	0.00931497	0.00290861	0.000483644	0.000103473	0	0	0	
0.271	-0.00705256	-0.00450137	0.00036571	7.2898E-05	0	0	0	
0.271167	0.0227146	0.0107877	0.000435951	0.000110726	0	0	0	
0.271333	-0.00234215	-0.00844053	0.000596324	0.000175403	0	0	0	
0.2715	-0.0125891	0.00781397	0.000921152	0.000218318	0	0	0	
0.271667	0.0126103	-0.0030115	0.00105656	0.000206271	0	0	0	
0.271833	0.00555534	0.00102843	0.000838995	0.000149481	0	0	0	
0.272	-0.00380421	-0.00125505	0.000480919	8.84925E-05	0	0	0	
0.272167	-0.00187084	0.00366694	0.000376854	6.24741E-05	0	0	0	
0.272333	-0.0215489	-0.00565134	0.00055604	0.000101534	0	0	0	
0.2725	0.0299332	0.00319777	0.000909664	0.000158267	0	0	0	
0.272667	-0.0142643	-0.000978967	0.00126478	0.000164451	0	0	0	
0.272833	0.000390949	3.18815E-06	0.00131886	0.000105592	0	0	0	
0.273	-0.00426475	-0.000807637	0.00100558	6.02244E-05	0	0	0	
0.273167	-0.0125331	0.000390505	0.000704019	6.79162E-05	0	0	0	
0.273333	-0.00910189	-0.0118065	0.000699198	0.000135767	0	0	0	
0.2735	0.0259601	0.00510766	0.000813569	0.000157614	0	0	0	
0.273667	-0.0419651	-0.00478703	0.000911353	0.000167267	0	0	0	
0.273833	0.0214703	0.00314595	0.000993097	0.000151827	0	0	0	
0.274	0.00179715	-0.00276157	0.00101606	0.000145478	0	0	0	
0.274167	0.00988168	0.00290909	0.000779064	0.000126356	0	0	0	
0.274333	-0.0321727	-0.00707217	0.000556245	0.000128208	0	0	0	
0.2745	0.0152735	-0.00447906	0.000673043	0.000126128	0	0	0	
0.274667	0.0182748	-0.00204298	0.0010286	0.000140077	0	0	0	
0.274833	-0.00399398	0.00355941	0.0010066	0.000120759	0	0	0	
0.275	-0.0186705	-0.00161996	0.000665725	0.000124216	0	0	0	
0.275167	0.0237658	0.00337258	0.000369667	0.000107421	0	0	0	
0.275333	-0.0185546	-0.00165365	0.000421101	0.00012573	0	0	0	
0.2755	0.0381263	-0.00388279	0.000644439	0.00022737	0	0	0	
0.275667	-0.00580018	0.00652855	0.000841135	0.000319683	0	0	0	
0.275833	-0.0146302	-0.0062259	0.000999076	0.000298306	0	0	0	
0.276	0.0207431	-0.00204453	0.000823545	0.000179221	0	0	0	
0.276167	0.0162664	-0.0024524	0.00061891	7.9485E-05	0	0	0	
0.276333	-0.0308331	-0.002992	0.000391609	8.08441E-05	0	0	0	
0.2765	0.00654607	0.0152251	0.000701046	0.000166079	0	0	0	
0.276667	0.029903	-0.0160196	0.00124658	0.00027606	0	0	0	
0.276833	-0.0641542	0.00806657	0.00182549	0.000331867	0	0	0	
0.277	0.064285	-0.0173135	0.0019796	0.000356738	0	0	0	
0.277167	-0.0180693	0.00892905	0.00159174	0.000308422	0	0	0	
0.277333	-0.017824	-0.00270947	0.000980036	0.000254255	0	0	0	
0.2775	-0.0166633	-0.00324773	0.000747889	0.000176666	0	0	0	
0.277667	-0.00879105	0.00586993	0.00118678	0.000157541	0	0	0	
0.277833	-0.00451042	-0.0176773	0.00175092	0.00019227	0	0	0	
0.278	-0.0140314	0.00991245	0.00175623	0.000225223	0	0	0	
0.278167	0.0241799	-0.00871817	0.00123207	0.00028246	0	0	0	
0.278333	-0.0325322	0.00156365	0.000748172	0.000285237	0	0	0	
0.2785	0.0445608	0.00199492	0.000668033	0.000247536	0	0	0	
0.278667	-0.0683596	0.00145684	0.00124937	0.000212559	0	0	0	
0.278833	-0.00207116	0.010233	0.00209234	0.000184606	0	0	0	
0.279	0.0402206	-0.0119567	0.00247071	0.000227086	0	0	0	
0.279167	-0.00862628	0.00561613	0.00188583	0.000228601	0	0	0	
0.279333	-0.0164487	-0.000836847	0.000910211	0.000213616	0	0	0	
0.2795	0.0184969	-0.00239484	0.000434149	0.000159108	0	0	0	
0.279667	0.0179382	0.0100132	0.000572611	0.00011104	0	0	0	
0.279833	-0.0188558	-0.0056013	0.000963456	0.000117429	0	0	0	
0.28	-0.00298304	0.00851349	0.00102979	0.000145587	0	0	0	
0.280167	0.0338787	-0.00415032	0.000892878	0.000164946	0	0	0	
0.280333	-0.0223344	0.00159806	0.000823499	0.000158378	0	0	0	
0.2805	-0.00661476	0.00204835	0.000909361	0.000105335	0	0	0	
0.280667	-0.00582962	-0.00247284	0.000777364	8.90298E-05	0	0	0	
0.280833	0.0414697	-0.00407982	0.00059269	0.000168105	0	0	0	
0.281	-0.0158078	0.0117069	0.000735788	0.000285512	0	0	0	
0.281167	-0.0263909	0.00155748	0.00126844	0.000312835	0	0	0	
0.281333	0.0421489	-0.0097436	0.00139317	0.000246839	0	0	0	
0.2815	-0.00486041	0.00464932	0.00108844	0.000166326	0	0	0	
0.281667	-0.0133755	-0.00861034	0.000511306	0.000136238	0	0	0	
0.281833	0.0141871	0.0141208	0.000368478	0.000159928	0	0	0	
0.282	-0.0309511	-0.000911089	0.000483	0.000252657	0	0	0	
0.282167	0.0155239	-0.0091321	0.000894653	0.000329828	0	0	0	
0.282333	0.0343446	0.000649894	0.00131343	0.000334746	0	0	0	
0.2825	-0.0297286	0.00852794	0.00149323	0.000349128	0	0	0	
0.282667	0.0190488	-0.0100284	0.0012437	0.000293717	0	0	0	
0.282833	0.00138014	0.00541291	0.000714443	0.000282829	0	0	0	
0.283	-0.0367547	-0.00365531	0.000587164	0.00021439	0	0	0	
0.283167	0.0637871	-0.00611565	0.000634825	0.000272734	0	0	0	
0.283333	-0.0100853	0.0127007	0.00120875	0.000312139	0	0	0	
0.2835	-0.0540547	-0.0135938	0.00168172	0.000307349	0	0	0	
0.283667	0.0302846	0.00152989	0.00176044	0.000233213	0	0	0	
0.283833	0.00498188	0.00713232	0.00122035	0.000161505	0	0	0	
0.284	0.0495904	-0.0135622	0.00071984	0.000135624	0	0	0	
0.284167	-0.0595154	0.0190364	0.000937737	0.000219343	0	0	0	
0.284333	0.00780832	-0.00966233	0.00109244	0.000280616	0	0	0	
0.2845	0.0447774	0.0109702	0.00100621	0.000275299	0	0	0	
0.284667	-0.0251755	-0.00619918	0.00092562	0.000228408	0	0	0	
0.284833	0.00128253	0.000263016	0.00100549	0.000198043	0	0	0	
0.285	-0.0133198	0.00320034	0.000937658	0.000189788	0	0	0	
0.285167	0.00455162	-0.00738573	0.000932349	0.000135038	0	0	0	
0.285333	0.026159	0.0169847	0.0012449	0.000178615	0	0	0	
0.2855	0.0112719	-0.00192375	0.00130767	0.000200379	0	0	0	
0.285667	-0.0696825	-0.00409982	0.0010509	0.000201432	0	0	0	
0.285833	0.0443282	0.00181019	0.000795435	0.000119293	0	0	0	
0.286	-0.0154664	-0.000238572	0.00090751	7.9386E-05	0	0	0	
0.286167	0.0166139	-0.000202272	0.000954172	7.57496E-05	0	0	0	
0.286333	-0.0231319	-0.00718028	0.00105939	9.12536E-05	0	0	0	
0.2865	-0.0023672	0.00834818	0.00136532	0.000136186	0	0	0	
0.286667	0.0130109	-0.00610783	0.00145883	0.000192931	0	0	0	
0.286833	0.00981706	0.00202341	0.00103201	0.000217174	0	0	0	
0.287	-0.0251487	0.00017234	0.000497239	0.000187073	0	0	0	
0.287167	0.0161317	0.000358377	0.000349736	0.000124098	0	0	0	
0.287333	-0.00835678	-0.00330599	0.000614811	8.21014E-05	0	0	0	
0.2875	0.027197	-0.00123468	0.000783452	9.30632E-05	0	0	0	
0.287667	-0.0607687	0.0101176	0.00086494	0.000160646	0	0	0	
0.287833	0.085859	-0.0164465	0.0010918	0.000219931	0	0	0	
0.288	-0.0324444	0.00902042	0.00146472	0.000248964	0	0	0	
0.288167	-0.0158037	-0.00166349	0.00166466	0.000197695	0	0	0	
0.288333	0.0340357	0.0022489	0.00139013	0.000123258	0	0	0	
0.2885	-0.0143554	0.00210431	0.000995234	6.33964E-05	0	0	0	
0.288667	-0.0293444	-0.00611292	0.000608331	7.00693E-05	0	0	0	
0.288833	0.0626557	0.00189613	0.000634795	0.000174499	0	0	0	
0.289	-0.0513842	0.00256677	0.000836906	0.000301345	0	0	0	
0.289167	0.022311	-0.00367512	0.00101329	0.000331623	0	0	0	
0.289333	-0.00687224	-0.00215672	0.000938416	0.000226013	0	0	0	
0.2895	-0.0166883	0.00578972	0.000743602	0.000103024	0	0	0	
0.289667	0.0111201	-0.0100319	0.000649116	8.60222E-05	0	0	0	
0.289833	0.0178584	0.0223443	0.000552062	0.00016627	0	0	0	
0.29	-0.0401819	-0.0359801	0.000676598	0.00034526	0	0	0	
0.290167	0.00870259	0.013692	0.000905959	0.000478933	0	0	0	
0.290333	0.02659	-0.00192589	0.0011504	0.000477741	0	0	0	
0.2905	-0.100378	0.00695204	0.00118432	0.000311096	0	0	0	
0.290667	0.132825	-0.00974443	0.00173398	0.00019792	0	0	0	
0.290833	-0.0103279	0.00390852	0.00181639	0.000166268	0	0	0	
0.291	-0.102921	-0.00881386	0.00172214	0.000177898	0	0	0	
0.291167	0.0795576	0.00751987	0.00141089	0.000193877	0	0	0	
0.291333	-0.0149832	-0.00369546	0.00149055	0.000183655	0	0	0	
0.2915	-0.00721128	0.00694865	0.0015367	0.000187366	0	0	0	
0.291667	0.0324299	-0.0148529	0.00151214	0.000215524	0	0	0	
0.291833	-0.0271045	0.0121074	0.00179273	0.00023212	0	0	0	
0.292	0.0147884	-0.0190019	0.00185926	0.00030555	0	0	0	
0.292167	0.027823	0.0178092	0.00144181	0.000307759	0	0	0	
0.292333	-0.0213286	-0.00853456	0.00089084	0.000339027	0	0	0	
0.2925	0.0105218	-0.00157796	0.000695206	0.000284124	0	0	0	
0.292667	0.00151366	0.00401393	0.000752565	0.000189829	0	0	0	
0.292833	-0.016283	0.000994953	0.000918502	0.000126105	0	0	0	
0.293	0.0116765	-0.00701443	0.000972103	0.000102043	0	0	0	
0.293167	0.0475009	0.000230437	0.000838187	0.000101283	0	0	0	
0.293333	-0.0735375	-0.0028372	0.000828021	9.46288E-05	0	0	0	
0.2935	0.0369069	0.00462406	0.000887621	7.31577E-05	0	0	0	
0.293667	-0.00472284	-0.00175229	0.00110718	7.8559E-05	0	0	0	
0.293833	-0.00564614	-0.00572085	0.00102838	0.000114925	0	0	0	
0.294	-0.0152593	0.00648296	0.00104605	0.000156204	0	0	0	
0.294167	0.0158126	-0.00953942	0.00102045	0.000190517	0	0	0	
0.294333	-0.0226032	0.00597482	0.00102086	0.000190633	0	0	0	
0.2945	0.0162557	-0.0041397	0.000982376	0.000160215	0	0	0	
0.294667	-0.00273922	-0.00125857	0.000916405	0.000114643	0	0	0	
0.294833	-0.0237504	0.00356312	0.000853934	6.503E-05	0	0	0	
0.295	0.0453345	-0.00338555	0.000858152	9.08973E-05	0	0	0	
0.295167	-0.00319957	0.00539145	0.00078826	0.000184435	0	0	0	
0.295333	-0.0409168	0.00584664	0.00064733	0.000258863	0	0	0	
0.2955	0.0394344	-0.00397705	0.00070338	0.000237588	0	0	0	
0.295667	-0.00102862	-0.000908044	0.000897494	0.000140327	0	0	0	
0.295833	-0.00833429	0.00171862	0.000981134	7.01481E-05	0	0	0	
0.296	-0.0166357	-0.00132023	0.00067479	6.1737E-05	0	0	0	
0.296167	0.0559176	0.0101094	0.000527767	0.000114546	0	0	0	
0.296333	-0.0419882	-0.000750449	0.000765925	0.000202025	0	0	0	
0.2965	0.0220009	-0.0113326	0.00132936	0.000283374	0	0	0	
0.296667	-0.0101838	0.0121786	0.00160454	0.00029416	0	0	0	
0.296833	-0.0150771	0.00184565	0.0015125	0.000251145	0	0	0	
0.297	0.0515783	-0.00908532	0.00114405	0.000171448	0	0	0	
0.297167	-0.0731509	0.00851452	0.00115466	0.000170408	0	0	0	
0.297333	-0.0161048	-0.00723465	0.00124559	0.000222039	0	0	0	
0.2975	0.0668561	-0.00441934	0.00118672	0.00028338	0	0	0	
0.297667	-0.0324009	0.00778302	0.00120227	0.000289945	0	0	0	
0.297833	-0.0139725	-0.00472069	0.00120948	0.000239124	0	0	0	
0.298	0.0123146	0.00174397	0.00117268	0.000166922	0	0	0	
0.298167	0.00387684	0.00126737	0.000691436	8.89267E-05	0	0	0	
0.298333	-0.0329241	-0.0102982	0.000376528	9.22712E-05	0	0	0	
0.2985	0.0522768	0.00450907	0.000522519	0.000181451	0	0	0	
0.298667	-0.0509604	0.00317737	0.000980152	0.00028497	0	0	0	
0.298833	0.0210966	-0.00326901	0.00142638	0.000286765	0	0	0	
0.299	0.013872	-0.00110286	0.00153544	0.000194146	0	0	0	
0.299167	-0.00261673	0.00449165	0.00114817	0.000106852	0	0	0	
0.299333	-0.0214591	-0.0101242	0.000628903	0.000101514	0	0	0	
0.2995	0.0249318	0.0117627	0.000464118	0.000176596	0	0	0	
0.299667	-0.0220578	-0.00833071	0.000654449	0.000227115	0	0	0	
0.299833	0.0352442	0.00369658	0.000840428	0.000254961	0	0	0	
0.3	-0.0183315	0.0010669	0.00078426	0.000224562	0	0	0	
0.300167	-0.00174354	0.000266725	0.000696529	0.000163325	0	0	0	
0.300333	0.00089107	-0.0052956	0.00053533	9.44105E-05	0	0	0	
0.3005	0.0299045	0.0130472	0.000407143	9.94725E-05	0	0	0	
0.300667	-0.0338018	-0.00595764	0.000433564	0.000130458	0	0	0	
0.300833	0.0214948	0.00386589	0.000759822	0.000155178	0	0	0	
0.301	-0.0028347	-0.000126264	0.0010756	0.000118634	0	0	0	
0.301167	0.0083289	-0.0025825	0.00101132	8.43048E-05	0	0	0	
0.301333	-0.010671	0.00179587	0.000803082	5.35711E-05	0	0	0	
0.3015	0.0139516	-0.000951967	0.000822039	5.13958E-05	0	0	0	
0.301667	-0.0189043	0.00162661	0.00107972	7.60258E-05	0	0	0	
0.301833	0.0277145	0.00316407	0.00132502	7.12471E-05	0	0	0	
0.302	-0.0251488	-0.00606254	0.0014441	8.59909E-05	0	0	0	
0.302167	0.0062425	0.000827511	0.00133837	8.14475E-05	0	0	0	
0.302333	-0.0108651	0.000617498	0.00103577	0.000107497	0	0	0	
0.3025	-0.0089969	-0.00758748	0.000781023	0.000120193	0	0	0	
0.302667	0.00491773	0.00560436	0.000852436	0.000186476	0	0	0	
0.302833	0.0114593	-0.00494455	0.000921917	0.000225889	0	0	0	
0.303	-0.044888	0.00198074	0.000878265	0.000209701	0	0	0	
0.303167	0.029478	0.000772487	0.000764871	0.000119378	0	0	0	
0.303333	-0.0109118	-0.00551614	0.000750517	6.90627E-05	0	0	0	
0.3035	0.0157792	0.00930265	0.000701996	7.40055E-05	0	0	0	
0.303667	-0.0249403	-0.0168578	0.000789647	0.000225154	0	0	0	
0.303833	-0.00375276	0.00809092	0.00113008	0.000381139	0	0	0	
0.304	0.0177079	0.00339377	0.00132299	0.000430093	0	0	0	
0.304167	0.00460726	-0.0019665	0.00104024	0.000319545	0	0	0	
0.304333	-0.0150977	0.00209306	0.000571477	0.000157585	0	0	0	
0.3045	0.00316271	0.00605704	0.000420632	9.78375E-05	0	0	0	
0.304667	0.00903819	-0.0262019	0.000529085	0.000138786	0	0	0	
0.304833	0.0155464	0.0192874	0.000589552	0.000265102	0	0	0	
0.305	-0.0184288	-0.000209831	0.000612583	0.000367212	0	0	0	
0.305167	-0.00104885	-0.00463397	0.000794723	0.000381581	0	0	0	
0.305333	0.00579217	-0.000584933	0.000958211	0.000263708	0	0	0	
0.3055	0.0103143	0.00127858	0.000803427	0.000138325	0	0	0	
0.305667	-0.0187927	-0.00158565	0.000536551	4.62078E-05	0	0	0	
0.305833	0.000739321	0.00628015	0.0005146	5.3609E-05	0	0	0	
0.306	0.00297306	-0.00941623	0.000821436	9.72618E-05	0	0	0	
0.306167	-0.0011572	0.00246737	0.00109667	0.000138536	0	0	0	
0.306333	-0.00305376	0.00287645	0.00118372	0.00017156	0	0	0	
0.3065	-0.00323025	-0.00361373	0.00104551	0.00015374	0	0	0	
0.306667	0.00529202	-0.000132898	0.000808636	0.000116923	0	0	0	
0.306833	-0.0232221	0.00888087	0.000631011	8.40606E-05	0	0	0	
0.307	-0.0012931	-0.0110609	0.000618599	0.000105539	0	0	0	
0.307167	0.0354251	0.00245808	0.000658411	0.000166217	0	0	0	
0.307333	-0.0457149	0.0078066	0.000868141	0.0002094	0	0	0	
0.3075	0.0170871	-0.00405729	0.00115425	0.000188711	0	0	0	
0.307667	-0.000388617	-0.000996722	0.00123363	0.000135014	0	0	0	
0.307833	0.0217367	0.00236564	0.000970197	6.96688E-05	0	0	0	
0.308	-0.0198713	-0.00684474	0.000948132	6.08822E-05	0	0	0	
0.308167	-0.0189285	0.0155115	0.00137824	0.000122662	0	0	0	
0.308333	-0.0018648	-0.00384295	0.00150712	0.000170805	0	0	0	
0.3085	0.0482212	-0.00523758	0.00115715	0.000307403	0	0	0	
0.308667	-0.0236044	0.00972113	0.000666392	0.000329598	0	0	0	
0.308833	0.0271242	0.00132749	0.000552443	0.000302585	0	0	0	
0.309	-0.0710215	-0.0121769	0.000670019	0.000181601	0	0	0	
0.309167	0.0716947	0.00500406	0.00115408	0.000173322	0	0	0	
0.309333	0.00553804	-0.00373618	0.00179886	0.000343978	0	0	0	
0.3095	0.000567597	-0.000751341	0.00190803	0.000472725	0	0	0	
0.309667	-0.013813	0.00251193	0.00130443	0.000451005	0	0	0	
0.309833	0.00642613	-0.00150955	0.000597507	0.000280283	0	0	0	
0.31	-0.0261642	0.00238314	0.000314813	0.000131265	0	0	0	
0.310167	0.0674412	0.00130629	0.000542966	6.80713E-05	0	0	0	
0.310333	-0.0176487	-0.0167981	0.00104222	0.000104088	0	0	0	
0.3105	-0.00959413	0.0259367	0.00152115	0.000239219	0	0	0	
0.310667	0.0073794	-0.0222638	0.0013323	0.000368444	0	0	0	
0.310833	0.00602563	0.00607805	0.00077661	0.000434131	0	0	0	
0.311	-0.0211463	-0.000811516	0.000273602	0.000346033	0	0	0	
0.311167	0.0636106	0.00709328	0.000366772	0.000230679	0	0	0	
0.311333	-0.0803692	-0.018729	0.000894125	0.000189021	0	0	0	
0.3115	0.0229165	0.0162369	0.00152416	0.000262267	0	0	0	
0.311667	0.0260867	-0.0063562	0.00185446	0.000308555	0	0	0	
0.311833	-0.0102028	0.00394025	0.00147964	0.000252979	0	0	0	
0.312	-0.00904644	-0.00428591	0.000827776	0.000138291	0	0	0	
0.312167	0.0146523	0.00506491	0.000384981	9.27106E-05	0	0	0	
0.312333	-0.0257597	-0.00832969	0.000363112	0.000118663	0	0	0	
0.3125	0.0332685	0.00629775	0.00055978	0.000180054	0	0	0	
0.312667	-0.0287919	0.00170959	0.000811232	0.000250655	0	0	0	
0.312833	0.027832	-0.00488008	0.0010747	0.000252104	0	0	0	
0.313	-0.0155398	0.00186108	0.00112154	0.000179771	0	0	0	
0.313167	0.011291	0.00654936	0.000961446	0.00010636	0	0	0	
0.313333	0.0225315	-0.00667402	0.000830572	9.03898E-05	0	0	0	
0.3135	-0.095809	-0.0224083	0.00111751	0.000273124	0	0	0	
0.313667	-0.00686736	-0.0972861	0.00201294	0.00119836	0	0	0	
0.313833	0.0219642	-0.0232322	0.00242216	0.00139547	0	0	0	
0.314	0.0136526	0.0340347	0.00212487	0.00143578	0	0	0	
0.314167	0.00767015	-0.0162312	0.0011372	0.000650945	0	0	0	
0.314333	-0.0188693	0.0175813	0.000677809	0.000504653	0	0	0	
0.3145	-0.0418201	-0.0137818	0.000969217	0.000537398	0	0	0	
0.314667	0.0447471	0.00557623	0.00132882	0.000529421	0	0	0	
0.314833	0.0127575	0.00428047	0.00124159	0.000462883	0	0	0	
0.315	-0.0197597	-0.00588553	0.00100264	0.000227268	0	0	0	
0.315167	-0.0320445	0.000342082	0.0011995	0.000152772	0	0	0	
0.315333	0.0171008	0.00554266	0.00130401	0.000203464	0	0	0	
0.3155	0.0511293	-0.00377769	0.0010952	0.00020615	0	0	0	
0.315667	-0.0518051	-0.00459402	0.000819226	0.000145484	0	0	0	
0.315833	0.0192324	0.0143068	0.00111359	0.000116737	0	0	0	
0.316	-0.0260455	-0.0155318	0.00138866	0.000176489	0	0	0	
0.316167	0.0319492	0.007636	0.00143705	0.000276986	0	0	0	
0.316333	-0.00468035	0.00021673	0.00142582	0.000349606	0	0	0	
0.3165	0.005764	5.7055E-05	0.00140515	0.000329684	0	0	0	
0.316667	-0.0281036	-0.00519379	0.00123518	0.000262479	0	0	0	
0.316833	0.0268263	0.00125786	0.00110976	0.000202666	0	0	0	
0.317	-0.00914915	-0.000231467	0.00121457	0.000194138	0	0	0	
0.317167	0.0154994	0.00685975	0.00130083	0.000196256	0	0	0	
0.317333	-0.0291733	-0.00912876	0.00120984	0.00021565	0	0	0	
0.3175	0.0193476	0.00382497	0.00117588	0.000251119	0	0	0	
0.317667	-0.000460647	-0.00171528	0.00126623	0.000249567	0	0	0	
0.317833	0.0214211	0.00455671	0.0011764	0.000191674	0	0	0	
0.318	-0.0428653	-0.00506217	0.00104409	0.000166508	0	0	0	
0.318167	0.0092318	0.00299512	0.00116006	0.000197863	0	0	0	
0.318333	0.00671711	-0.00641546	0.00135541	0.000210415	0	0	0	
0.3185	0.0450498	0.00679468	0.00121302	0.00017579	0	0	0	
0.318667	-0.0452264	-0.00189536	0.00109309	0.000165722	0	0	0	
0.318833	-0.0191829	0.00138824	0.00141637	0.000173177	0	0	0	
0.319	0.0125472	-0.00626646	0.00160806	0.000173161	0	0	0	
0.319167	0.0431426	0.00725749	0.00133579	0.000196441	0	0	0	
0.319333	-0.032388	-0.00610727	0.00105967	0.000243162	0	0	0	
0.3195	0.0295348	0.00572435	0.00114428	0.000255355	0	0	0	
0.319667	-0.0838814	-0.0067984	0.00135363	0.000270791	0	0	0	
0.319833	0.0692433	-0.00432467	0.00154131	0.000321973	0	0	0	
0.32	0.0158857	0.00878898	0.00204447	0.000356915	0	0	0	
0.320167	-0.0116055	0.000543642	0.00207794	0.000301253	0	0	0	
0.320333	-0.0461237	-0.00172485	0.00158113	0.000217683	0	0	0	
0.3205	-0.00269626	-0.00638479	0.00133545	0.00020192	0	0	0	
0.320667	0.107219	-0.00356257	0.0018686	0.000179304	0	0	0	
0.320833	-0.0565984	0.0156973	0.00214856	0.000194093	0	0	0	
0.321	-0.102261	-0.0172278	0.00223604	0.000196246	0	0	0	
0.321167	0.133727	0.0129608	0.00193966	0.000294067	0	0	0	
0.321333	-0.0287225	-0.00821082	0.00265503	0.000354696	0	0	0	
0.3215	0.00697212	0.00650991	0.00271619	0.000390863	0	0	0	
0.321667	-0.0436863	0.000891199	0.00260886	0.000404172	0	0	0	
0.321833	-0.00170328	-0.0148541	0.00232821	0.000398366	0	0	0	
0.322	0.0490951	0.00851078	0.00220948	0.000353975	0	0	0	
0.322167	0.0148088	0.0209821	0.00179158	0.000358485	0	0	0	
0.322333	-0.079991	-0.0239072	0.00115282	0.000359507	0	0	0	
0.3225	0.0783228	0.0106623	0.000985614	0.000431272	0	0	0	
0.322667	-0.0352546	-0.00207364	0.00161179	0.000413012	0	0	0	
0.322833	-0.0246457	0.0022448	0.00222612	0.000353729	0	0	0	
0.323	0.0442298	0.000752776	0.0022018	0.000290013	0	0	0	
0.323167	0.0209345	-0.00457696	0.00158163	0.000207816	0	0	0	
0.323333	-0.0549564	0.00495139	0.000974029	0.000192444	0	0	0	
0.3235	0.0101478	0.00693451	0.00102917	0.000173807	0	0	0	
0.323667	0.00224494	-0.00841816	0.00131426	0.000174197	0	0	0	
0.323833	0.0388699	0.00133466	0.00126057	0.000200831	0	0	0	
0.324	-0.0434788	0.000274351	0.00106377	0.00019447	0	0	0	
0.324167	0.025061	0.00376337	0.00121518	0.000167266	0	0	0	
0.324333	-0.0015624	-0.00793396	0.00160867	0.000121186	0	0	0	
0.3245	-0.0206224	0.00871413	0.00175758	0.000139918	0	0	0	
0.324667	0.00457887	-0.00601335	0.00145512	0.00020985	0	0	0	
0.324833	0.0340481	0.00358449	0.000999546	0.000251664	0	0	0	
0.325	-0.0359469	-0.00207456	0.000756607	0.000240791	0	0	0	
0.325167	0.0331173	0.00109113	0.000892703	0.000208733	0	0	0	
0.325333	-0.0361913	-0.00212817	0.00118924	0.000181492	0	0	0	
0.3255	0.0164861	0.00356172	0.00145793	0.000156584	0	0	0	
0.325667	0.0138327	-0.00117866	0.00163054	0.000126509	0	0	0	
0.325833	-0.00713077	0.0012306	0.00151504	0.000130313	0	0	0	
0.326	-0.00892027	-0.00146524	0.00113567	0.000155824	0	0	0	
0.326167	0.0231775	0.00419484	0.000800123	0.000166028	0	0	0	
0.326333	-0.0419423	-0.00546094	0.000770065	0.000138295	0	0	0	
0.3265	0.0483225	0.0053385	0.000980957	0.000118352	0	0	0	
0.326667	-0.0280186	-0.00508314	0.00126476	0.000153358	0	0	0	
0.326833	0.0147724	0.00665521	0.0015246	0.000223438	0	0	0	
