0	-3.03954E-05	0.00110592	3.03954E-09	1.10592E-07	0	5	0	
0.000166667	-0.00189071	-0.00218197	1.89309E-05	1.72E-05	0	5	0	
0.000333333	0.00328603	-0.00285275	3.99984E-05	3.50749E-05	0	5	0	
0.0005	-0.00225563	0.0108824	5.77489E-05	9.11388E-05	0	5	0	
0.000666667	0.00223601	-0.00754359	5.26683E-05	0.000144381	0	5	0	
0.000833333	-0.00281435	0.00463918	4.86574E-05	0.000146803	0	5	0	
0.001	0.00181506	-0.00666312	4.62591E-05	0.00015493	0	5	0	
0.00116667	0.00200774	0.00230639	4.35384E-05	0.000155834	0	5	0	
0.00133333	-0.00178117	0.00329559	4.1733E-05	0.000150509	0	5	0	
0.0015	-0.00286881	0.0037099	6.43723E-05	0.000141283	0	5	0	
0.00166667	0.00940072	-0.0111267	0.000102076	0.000164203	0	5	0	
0.00183333	-0.00887606	0.0170618	0.000147315	0.000259229	0	5	0	
0.002	0.00553808	-0.0169448	0.000153392	0.000324474	0	5	0	
0.00216667	-0.00210178	0.00762107	0.000127701	0.000322124	0	5	0	
0.00233333	0.000347193	0.00191487	9.19645E-05	0.00023602	0	5	0	
0.0025	0.0011281	0.00498204	5.89758E-05	0.00013666	0	5	0	
0.00266667	0.00166602	-0.0113406	8.13254E-05	0.000117447	0	5	0	
0.00283333	-0.00630932	0.00610196	0.000138018	0.000207391	0	5	0	
0.003	0.0106839	-0.000451938	0.00020228	0.000302024	0	5	0	
0.00316667	-0.0103878	0.00277338	0.000227003	0.000266749	0	5	0	
0.00333333	0.00695098	0.00447086	0.000195215	0.000215658	0	5	0	
0.0035	0.00140735	-0.00651631	0.000169139	0.000155765	0	5	0	
0.00366667	-0.00545297	0.000939397	0.000114259	0.000182639	0	5	0	
0.00383333	-0.00180831	0.00116891	0.000157504	0.000217702	0	5	0	
0.004	0.0120269	-0.00159382	0.000212024	0.000215039	0	5	0	
0.00416667	-0.0120648	0.00684065	0.00028689	0.000185439	0	5	0	
0.00433333	0.00953163	-0.0111403	0.000258568	0.000167543	0	5	0	
0.0045	-0.00487752	0.00583151	0.000199838	0.000152042	0	5	0	
0.00466667	-0.00274503	-0.00236394	0.00016109	0.000170582	0	5	0	
0.00483333	0.00525422	-0.015017	0.000119505	0.000177054	0	5	0	
0.005	-0.00533205	0.0320133	0.000109953	0.000272583	0	5	0	
0.00516667	0.0171222	-0.00423964	0.000121194	0.000565127	0	5	0	
0.00533333	-0.00522572	-0.0912676	0.000258121	0.00116922	0	5	0	
0.0055	-0.0216973	0.134271	0.000509985	0.00169737	0	5	0	
0.00566667	0.0196209	-0.0461062	0.000586476	0.00218058	0	5	0	
0.00583333	0.000947892	-0.0488041	0.00051081	0.00224757	0	5	0	
0.006	0.0104367	0.0474696	0.000305293	0.00185434	0	5	0	
0.00616667	-0.0288104	-0.00242687	0.000302251	0.00129031	0	5	0	
0.00633333	0.00686371	-0.00567258	0.00040527	0.000745391	0	5	0	
0.0065	0.0264079	0.0249394	0.000524337	0.000911648	0	5	0	
0.00666667	-0.0192334	-0.0541213	0.00052794	0.00120547	0	5	0	
0.00683333	0.00895024	0.0345066	0.000460025	0.00131268	0	5	0	
0.007	-0.00848404	0.0322587	0.000308845	0.00102166	0	5	0	
0.00716667	0.00660808	-0.0221817	0.000251937	0.000678477	0	5	0	
0.00733333	0.00273162	0.00963887	0.000238418	0.000510866	0	5	0	
0.0075	-0.00785211	-0.00621889	0.000270297	0.000509817	0	5	0	
0.00766667	0.0134185	-0.00775491	0.000274134	0.000384539	0	5	0	
0.00783333	-0.0141699	-0.00171453	0.000241056	0.000261733	0	5	0	
0.008	0.0109101	0.0337047	0.000281076	0.000277619	0	5	0	
0.00816667	-0.00133686	-0.0227783	0.000277874	0.000462259	0	5	0	
0.00833333	0.00169638	-0.00820791	0.000236886	0.000488855	0	5	0	
0.0085	-0.00141267	0.0214728	0.000139629	0.000428071	0	5	0	
0.00866667	-0.00278164	-0.00543891	6.97224E-05	0.000306934	0	5	0	
0.00883333	-0.000263942	-0.0278678	7.08963E-05	0.000428762	0	5	0	
0.009	0.0070237	0.0164013	0.000119418	0.000491895	0	5	0	
0.00916667	-0.0102603	0.00977036	0.000179146	0.000456291	0	5	0	
0.00933333	0.00430988	-0.021844	0.000188987	0.00041638	0	5	0	
0.0095	0.00474936	0.00747944	0.000165863	0.000352404	0	5	0	
0.00966667	-0.00486622	0.00158961	0.000120027	0.000374153	0	5	0	
0.00983333	-0.00691723	-0.0153524	0.000142347	0.000280589	0	5	0	
0.01	0.0123725	-0.00937729	0.000174404	0.000318963	0	5	0	
0.0101667	-0.00469992	0.0255713	0.000193263	0.000355233	0	5	0	
0.0103333	0.00135377	-0.0201574	0.000151602	0.000452018	0	5	0	
0.0105	-0.00396296	-0.00222157	0.000111218	0.000427187	0	5	0	
0.0106667	0.00066885	0.00313508	7.73021E-05	0.00028394	0	5	0	
0.0108333	0.00723035	-0.00209315	0.000113236	0.000279439	0	5	0	
0.011	-0.00441313	-0.00235462	0.000122353	0.000225911	0	5	0	
0.0111667	-0.0064551	-0.00217405	0.000264114	0.000224252	0	5	0	
0.0113333	0.0106938	-0.00297013	0.000298615	0.000231405	0	5	0	
0.0115	-0.000238421	0.00854389	0.000281161	0.000314414	0	5	0	
0.0116667	-0.0058837	0.00219152	0.000158989	0.000406954	0	5	0	
0.0118333	-0.0036598	-0.0126777	8.81188E-05	0.000326908	0	5	0	
0.012	0.00809165	-0.0240594	9.36228E-05	0.000431234	0	5	0	
0.0121667	0.00221483	0.040611	0.000113301	0.000525136	0	5	0	
0.0123333	-0.00991826	0.00862342	0.00013033	0.000681028	0	5	0	
0.0125	0.00537636	-0.0184056	0.000184531	0.000605295	0	5	0	
0.0126667	0.00847946	-0.00199612	0.000235206	0.000544741	0	5	0	
0.0128333	-0.00778575	0.0150867	0.000243209	0.000469814	0	5	0	
0.013	0.000689957	0.00316378	0.000204118	0.000362939	0	5	0	
0.0131667	0.000678095	-0.0127231	0.000111188	0.000261656	0	5	0	
0.0133333	0.00113601	-0.000438843	0.000109445	0.000233176	0	5	0	
0.0135	0.0023068	0.0241375	8.93892E-05	0.000321574	0	5	0	
0.0136667	-8.47267E-05	-0.00505458	9.42677E-05	0.000331812	0	5	0	
0.0138333	-0.00100757	-0.0066074	5.80879E-05	0.000353116	0	5	0	
0.014	0.00510739	0.00648329	4.13394E-05	0.000299567	0	5	0	
0.0141667	-0.0064092	0.00936473	7.19488E-05	0.000278598	0	5	0	
0.0143333	0.00484828	-0.019321	9.56439E-05	0.000254572	0	5	0	
0.0145	0.00233913	0.0146613	9.46982E-05	0.000274728	0	5	0	
0.0146667	-0.000208193	-0.00104245	6.27797E-05	0.000282551	0	5	0	
0.0148333	-0.00553648	-0.00167904	5.53075E-05	0.000182396	0	5	0	
0.015	0.00798833	-0.0105822	8.31512E-05	0.000121135	0	5	0	
0.0151667	-0.00391019	0.0152844	0.000118723	0.00017065	0	5	0	
0.0153333	-0.000534217	-0.00245592	0.000123499	0.000217395	0	5	0	
0.0155	0.00334029	-0.00905369	0.000111265	0.00017961	0	5	0	
0.0156667	0.00027977	0.0122449	8.67325E-05	0.000165931	0	5	0	
0.0158333	-0.00322817	0.00470387	8.37497E-05	0.000167561	0	5	0	
0.016	0.00329153	-0.0138284	8.66733E-05	0.00023651	0	5	0	
0.0161667	0.000988767	0.00538155	0.000103228	0.000244053	0	5	0	
0.0163333	0.00111392	0.00415746	0.00011832	0.000220076	0	5	0	
0.0165	-0.00475048	-0.00428761	0.000106247	0.000169656	0	5	0	
0.0166667	0.00398346	-0.000586576	0.000106384	9.50724E-05	0	5	0	
0.0168333	0.00218312	0.012256	0.000113769	0.000112949	0	5	0	
0.017	-0.00399658	-0.00146684	0.00010919	0.000138667	0	5	0	
0.0171667	0.0027582	-0.0166234	0.000140291	0.000181112	0	5	0	
0.0173333	0.000601497	0.0212346	0.000155042	0.000235923	0	5	0	
0.0175	-4.7955E-05	-0.00628373	0.000182694	0.000292656	0	5	0	
0.0176667	0.00557833	-0.0146497	0.000162615	0.000360083	0	5	0	
0.0178333	-0.00680503	0.0102689	0.000148767	0.000351933	0	5	0	
0.018	0.0016479	-0.000190511	0.000127122	0.000271644	0	5	0	
0.0181667	0.0045618	0.00365645	8.92817E-05	0.000160692	0	5	0	
0.0183333	-0.000231337	-0.0130294	7.97592E-05	0.000111354	0	5	0	
0.0185	-0.00201418	0.00620017	9.5939E-05	0.000186842	0	5	0	
0.0186667	0.000887894	0.010408	9.23871E-05	0.000278291	0	5	0	
0.0188333	0.000992672	-0.0180197	5.77991E-05	0.000306679	0	5	0	
0.019	0.00101548	0.000824742	5.07442E-05	0.000275267	0	5	0	
0.0191667	-0.0015563	0.0043707	8.44071E-05	0.000240133	0	5	0	
0.0193333	0.00289303	-0.00175013	0.000106185	0.000185412	0	5	0	
0.0195	-0.00133945	-0.00269997	9.45202E-05	0.000125595	0	5	0	
0.0196667	0.00245942	0.00066831	7.49769E-05	0.00010916	0	5	0	
0.0198333	-0.00784711	-0.00394925	0.000105783	0.000101146	0	5	0	
0.02	0.00319796	0.0315433	0.000117822	0.000172076	0	5	0	
0.0201667	0.0184601	-0.0264267	0.000175895	0.000428901	0	5	0	
0.0203333	-0.0141197	-0.0549141	0.000213281	0.00113017	0	5	0	
0.0205	-0.0133633	0.133383	0.00041865	0.0016199	0	5	0	
0.0206667	0.0188537	-0.0679738	0.000486874	0.00204915	0	5	0	
0.0208333	-0.000236871	-0.0405303	0.000445938	0.00195642	0	5	0	
0.021	0.00691466	0.0419822	0.000287533	0.00162204	0	5	0	
0.0211667	-0.0264814	-0.00213722	0.000292076	0.00107498	0	5	0	
0.0213333	0.0149959	0.0179193	0.000396321	0.000516325	0	5	0	
0.0215	0.0159385	0.0074916	0.000568128	0.000475595	0	5	0	
0.0216667	-0.0183353	-0.052177	0.000516416	0.000859403	0	5	0	
0.0218333	0.00468986	0.0490002	0.000448792	0.00123114	0	5	0	
0.022	-0.00799836	0.00874529	0.000252034	0.00122489	0	5	0	
0.0221667	0.0104864	-0.0358554	0.000223003	0.000884062	0	5	0	
0.0223333	0.00177872	0.0178001	0.000256809	0.00065521	0	5	0	
0.0225	-0.0192604	0.0370598	0.00034367	0.000934666	0	5	0	
0.0226667	0.022672	-0.0557313	0.000408973	0.00108249	0	5	0	
0.0228333	-0.0155285	0.0203444	0.000400342	0.00111669	0	5	0	
0.023	0.00451085	0.0420355	0.000396946	0.000883512	0	5	0	
0.0231667	0.00411133	-0.0214268	0.000361606	0.000730353	0	5	0	
0.0233333	-0.0047771	-0.018671	0.000276303	0.000662669	0	5	0	
0.0235	-0.00176041	0.028789	0.000190028	0.00061604	0	5	0	
0.0236667	0.0107856	-0.0171693	0.000173925	0.000516106	0	5	0	
0.0238333	-0.00941136	0.0205031	0.000211147	0.000509699	0	5	0	
0.024	0.00772298	0.00415025	0.000221077	0.000463133	0	5	0	
0.0241667	-0.0088172	-0.00082477	0.000227381	0.000346189	0	5	0	
0.0243333	0.0116115	-0.0128658	0.000239377	0.00029988	0	5	0	
0.0245	-0.00113785	0.00443039	0.000214273	0.000249886	0	5	0	
0.0246667	-0.00252702	-0.000769211	0.000132674	0.000312385	0	5	0	
0.0248333	-0.00770586	0.0252584	0.000156242	0.000361561	0	5	0	
0.025	0.016584	-0.0103854	0.000184001	0.000482482	0	5	0	
0.0251667	0.00812686	0.0100798	0.000310372	0.000469252	0	5	0	
0.0253333	-0.0278195	-0.0147838	0.000327903	0.000431095	0	5	0	
0.0255	0.00730922	0.0155896	0.000426368	0.000366565	0	5	0	
0.0256667	0.01874	0.000993679	0.000500792	0.000334396	0	5	0	
0.0258333	-0.0127844	-0.0222024	0.000469137	0.000343943	0	5	0	
0.026	0.00323471	0.0476616	0.000381814	0.000385974	0	5	0	
0.0261667	-0.0110706	-0.0185107	0.000227845	0.00053315	0	5	0	
0.0263333	0.0164534	0.000418835	0.000215251	0.00068739	0	5	0	
0.0265	0.00543488	-0.00196737	0.000299852	0.000632922	0	5	0	
0.0266667	-0.0221798	0.0131897	0.000332819	0.000528147	0	5	0	
0.0268333	0.00319189	-0.00799456	0.00042852	0.000303944	0	5	0	
0.027	0.0195969	-0.00951701	0.000453061	0.000200983	0	5	0	
0.0271667	-0.0102683	0.000778622	0.0004503	0.000262704	0	5	0	
0.0273333	0.000187812	0.0160275	0.000314498	0.000314384	0	5	0	
0.0275	-0.00724738	0.00872373	0.000211677	0.000434903	0	5	0	
0.0276667	0.00955041	-0.0306992	0.000165755	0.000455011	0	5	0	
0.0278333	0.0101952	-0.00579992	0.000243156	0.000549932	0	5	0	
0.028	-0.0176574	0.0262861	0.000242708	0.000640877	0	5	0	
0.0281667	0.00368896	-0.0102641	0.000322698	0.000603311	0	5	0	
0.0283333	0.00634436	-0.0151927	0.00030192	0.000605164	0	5	0	
0.0285	-0.00145258	0.00750549	0.000240297	0.000400325	0	5	0	
0.0286667	0.00363314	0.00788073	0.000131063	0.000394096	0	5	0	
0.0288333	-0.00823905	-0.00687135	7.96079E-05	0.000232734	0	5	0	
0.029	0.00119572	-0.00187549	0.000104253	0.000203975	0	5	0	
0.0291667	0.00699305	0.00225808	0.000144367	0.000130349	0	5	0	
0.0293333	-0.00235054	-0.00327489	0.000139187	0.000110624	0	5	0	
0.0295	-0.00574834	0.00337418	0.000152009	0.000112898	0	5	0	
0.0296667	0.00374976	-0.0022907	0.000124307	0.000105009	0	5	0	
0.0298333	0.00207449	0.00493812	0.000127109	0.000132636	0	5	0	
0.03	-0.00268112	-0.00977569	9.62978E-05	0.000165291	0	5	0	
0.0301667	-0.00139768	0.00550872	0.000136581	0.000183779	0	5	0	
0.0303333	0.00300773	0.00484284	0.000159733	0.000143943	0	5	0	
0.0305	-0.00381112	0.00702631	0.000188789	0.000163348	0	5	0	
0.0306667	0.00270011	-0.00777784	0.000161124	0.000174007	0	5	0	
0.0308333	-0.00240692	0.00103492	0.000120723	0.000178144	0	5	0	
0.031	0.00140929	-0.00783987	8.79065E-05	0.000164291	0	5	0	
0.0311667	-0.00334977	0.0172364	7.65478E-05	0.000240453	0	5	0	
0.0313333	0.00349777	-0.017051	8.01402E-05	0.000290633	0	5	0	
0.0315	-0.00126349	-0.00246673	7.12372E-05	0.000414142	0	5	0	
0.0316667	-0.0021596	0.0356729	5.24857E-05	0.000449699	0	5	0	
0.0318333	0.000105937	-0.0281069	3.08585E-05	0.000552534	0	5	0	
0.032	0.000918528	-0.0123732	3.32763E-05	0.000651155	0	5	0	
0.0321667	-0.000862053	0.0276056	5.28532E-05	0.000645206	0	5	0	
0.0323333	0.000113732	0.002032	8.36894E-05	0.000564124	0	5	0	
0.0325	-0.00241359	-0.0212516	0.000104704	0.000353724	0	5	0	
0.0326667	0.00318071	-0.0107202	0.000105524	0.000329097	0	5	0	
0.0328333	-0.00152422	0.0279258	8.75502E-05	0.000356763	0	5	0	
0.033	-0.00291358	-0.00233032	6.71117E-05	0.000487708	0	5	0	
0.0331667	0.00201631	-0.0198555	8.55218E-05	0.00051146	0	5	0	
0.0333333	0.00636842	0.00830443	0.000141371	0.000534858	0	5	0	
0.0335	-0.0131416	0.00669738	0.000180937	0.000517168	0	5	0	
0.0336667	0.00603205	-0.00880817	0.000200726	0.000419544	0	5	0	
0.0338333	0.00137623	-0.00182329	0.000171415	0.000349797	0	5	0	
0.034	-0.00128012	0.00282501	0.000131771	0.000201719	0	5	0	
0.0341667	0.00750827	-0.0123686	0.000113162	0.00017164	0	5	0	
0.0343333	-0.0130052	0.0169006	0.000127301	0.000179686	0	5	0	
0.0345	-0.0102762	0.00421205	0.000281379	0.000343556	0	5	0	
0.0346667	0.0219764	-0.0103097	0.000351797	0.000365685	0	5	0	
0.0348333	0.0135072	-0.0115309	0.000467875	0.00035178	0	5	0	
0.035	-0.0433947	-0.0507861	0.000439253	0.000534481	0	5	0	
0.0351667	0.0688683	0.0694007	0.000825791	0.00126943	0	5	0	
0.0353333	-0.0254829	-0.021822	0.00104375	0.00141136	0	5	0	
0.0355	0.0299813	-0.108819	0.00106698	0.00133897	0	5	0	
0.0356667	-0.0111153	0.0648075	0.000835691	0.00131128	0	5	0	
0.0358333	-0.0461652	0.0557965	0.000791505	0.00185247	0	5	0	
0.036	0.017001	-0.0236062	0.000818578	0.0017805	0	5	0	
0.0361667	0.0557395	-0.103419	0.00101401	0.00129745	0	5	0	
0.0363333	0.0052647	0.0769967	0.00109488	0.00127798	0	5	0	
0.0365	-0.0119302	-0.035756	0.00107691	0.00157864	0	5	0	
0.0366667	-0.0128372	0.024281	0.000700491	0.00152784	0	5	0	
0.0368333	0.00871616	-0.0242553	0.000348931	0.00112708	0	5	0	
0.037	-0.0069377	0.0135307	0.000291781	0.000675238	0	5	0	
0.0371667	-0.00241727	0.0214752	0.000334822	0.000701558	0	5	0	
0.0373333	0.000586813	-0.0188207	0.000321934	0.000434305	0	5	0	
0.0375	0.0047968	-0.0141279	0.000238318	0.000590073	0	5	0	
0.0376667	-0.00124593	0.0331507	0.000141386	0.000454885	0	5	0	
0.0378333	0.000119706	-0.00162227	0.000131579	0.000642241	0	5	0	
0.038	-0.0075234	-0.0115439	0.000135759	0.000541144	0	5	0	
0.0381667	0.00819087	0.0184697	0.000155691	0.000564327	0	5	0	
0.0383333	0.00600118	-0.0294036	0.000225014	0.000607762	0	5	0	
0.0385	-0.0151943	0.0406359	0.000274956	0.00065033	0	5	0	
0.0386667	0.00190186	0.00127733	0.000265427	0.000765916	0	5	0	
0.0388333	0.00181394	-0.0214078	0.000153467	0.000582048	0	5	0	
0.039	0.00528884	0.00587869	0.000127429	0.000576251	0	5	0	
0.0391667	0.000698265	-0.00673778	0.000102107	0.000411706	0	5	0	
0.0393333	-0.00981809	0.0445512	0.00014255	0.000477284	0	5	0	
0.0395	0.00278364	-0.0159456	0.000155935	0.000599664	0	5	0	
0.0396667	0.00869133	-0.0303885	0.000250482	0.000846118	0	5	0	
0.0398333	-0.00604378	0.0125552	0.000238118	0.000743928	0	5	0	
0.04	-0.00527119	0.0383721	0.000231794	0.000791273	0	5	0	
0.0401667	0.016567	-0.0452663	0.000178356	0.00069841	0	5	0	
0.0403333	-0.0162458	0.00188699	0.00024498	0.00099126	0	5	0	
0.0405	0.00594547	0.03733	0.000297655	0.0010002	0	5	0	
0.0406667	0.00227506	-0.0175978	0.00034913	0.000885351	0	5	0	
0.0408333	-0.00170456	-0.0067445	0.00031891	0.000691596	0	5	0	
0.041	0.00722867	-0.00771694	0.000287221	0.000379321	0	5	0	
0.0411667	-0.0154678	0.010334	0.000264012	0.000364596	0	5	0	
0.0413333	0.00899138	0.0145049	0.000269129	0.000268012	0	5	0	
0.0415	0.00824838	-0.0187316	0.00033879	0.000349298	0	5	0	
0.0416667	-0.0135465	0.0147316	0.000333739	0.000374845	0	5	0	
0.0418333	0.00623493	0.00865776	0.000305934	0.000391845	0	5	0	
0.042	-0.00347851	0.000354001	0.000177693	0.000321229	0	5	0	
0.0421667	0.00505818	-0.012571	0.000118332	0.000229137	0	5	0	
0.0423333	-0.00165381	0.00646466	0.000141475	0.000207754	0	5	0	
0.0425	-0.00629571	0.0193957	0.000208418	0.000231787	0	5	0	
0.0426667	0.0108841	-0.00594869	0.000249822	0.000281901	0	5	0	
0.0428333	-0.00780221	0.00620927	0.000233441	0.000231849	0	5	0	
0.043	0.00271179	0.00054064	0.000165036	0.000198469	0	5	0	
0.0431667	5.54311E-05	-0.002098	9.88281E-05	9.90607E-05	0	5	0	
0.0433333	-0.0044802	-0.00427705	5.39431E-05	0.000142187	0	5	0	
0.0435	0.00497888	0.0206476	6.01025E-05	0.000205881	0	5	0	
0.0436667	-0.000701051	-0.0193689	0.000109779	0.000296255	0	5	0	
0.0438333	-0.00310404	0.00402174	0.000141955	0.000351862	0	5	0	
0.044	-0.000463029	0.0143063	0.000134476	0.000356279	0	5	0	
0.0441667	-0.00158443	-0.00124877	0.000113728	0.000328768	0	5	0	
0.0443333	0.00207622	-0.0217904	0.000110097	0.000366851	0	5	0	
0.0445	0.00245504	0.018994	9.23961E-05	0.000392522	0	5	0	
0.0446667	-0.00601919	-0.00303287	9.23927E-05	0.000368674	0	5	0	
0.0448333	0.000703443	-0.0055836	8.47368E-05	0.000257665	0	5	0	
0.045	0.00435543	-0.0139578	0.000141679	0.000228224	0	5	0	
0.0451667	-0.00241564	0.0115335	0.000132601	0.00025127	0	5	0	
0.0453333	-0.00449041	0.00633366	0.000107878	0.000263296	0	5	0	
0.0455	0.00127054	-0.00836364	7.96419E-05	0.000188473	0	5	0	
0.0456667	0.00463186	0.000592794	8.48149E-05	0.000200888	0	5	0	
0.0458333	-0.00122127	0.00489931	0.000104972	0.000179327	0	5	0	
0.046	-0.00481282	-0.00907649	0.000110076	0.000204836	0	5	0	
0.0461667	0.00717114	0.000784362	0.000112264	0.000177502	0	5	0	
0.0463333	-0.0053347	0.00217392	0.000136574	0.000160555	0	5	0	
0.0465	0.000303749	0.00454201	0.00015702	0.000186842	0	5	0	
0.0466667	0.00689856	-0.00902359	0.000203925	0.000210204	0	5	0	
0.0468333	-0.0115489	0.00993334	0.000216171	0.000230509	0	5	0	
0.047	0.00707978	-3.0101E-05	0.000210968	0.000182274	0	5	0	
0.0471667	0.003151	-0.00285734	0.000158981	0.000153721	0	5	0	
0.0473333	-0.00476873	0.00508957	0.000122192	0.000176669	0	5	0	
0.0475	0.00262899	-0.00901913	8.42155E-05	0.000198389	0	5	0	
0.0476667	-0.00380004	-0.00444616	8.75669E-05	0.000218385	0	5	0	
0.0478333	0.00233001	-0.00123497	0.000114774	0.000181553	0	5	0	
0.048	0.00116446	0.0104617	0.000154933	0.000200561	0	5	0	
0.0481667	0.00339647	0.000803109	0.000161501	0.000297972	0	5	0	
0.0483333	-0.00283249	-0.0259013	0.000146488	0.000427128	0	5	0	
0.0485	-0.00426804	0.0296916	0.000137002	0.000526089	0	5	0	
0.0486667	0.000505239	0.010701	0.000114531	0.000593621	0	5	0	
0.0488333	0.00659435	-0.0221342	8.94152E-05	0.000475626	0	5	0	
0.049	0.00144327	-0.0211332	0.000134013	0.000637106	0	5	0	
0.0491667	-0.0066688	0.0252528	0.000174009	0.000576386	0	5	0	
0.0493333	-0.0109068	0.0166173	0.000246759	0.000801947	0	5	0	
0.0495	0.0119798	-0.0174792	0.000216275	0.000544201	0	5	0	
0.0496667	0.0180432	-0.0113739	0.000319317	0.000628048	0	5	0	
0.0498333	-0.00355982	-0.00777996	0.000318334	0.000481813	0	5	0	
0.05	-0.0451203	0.138426	0.000550641	0.000844844	0	5	0	
0.0501667	0.0337895	-0.0562843	0.000616882	0.00171171	0	5	0	
0.0503333	0.0151754	-0.0968798	0.00084234	0.00276409	0	5	0	
0.0505	-0.00604087	0.0547654	0.000594751	0.00274091	0	5	0	
0.0506667	-0.0165836	0.0402074	0.000490461	0.00210788	0	5	0	
0.0508333	-0.0118609	-0.0316522	0.000380078	0.00124259	0	5	0	
0.051	0.0378841	0.0400589	0.000508056	0.00122436	0	5	0	
0.0511667	-0.0035851	-0.0619254	0.000632549	0.00134292	0	5	0	
0.0513333	-0.0251981	0.0799928	0.000645561	0.00156293	0	5	0	
0.0515	0.00822231	-0.0219138	0.000575369	0.00158157	0	5	0	
0.0516667	0.0107225	-0.0357358	0.000435945	0.00135747	0	5	0	
0.0518333	-0.000263648	-0.0162564	0.000270227	0.00107721	0	5	0	
0.052	-0.00990064	0.0718375	0.000198704	0.00106395	0	5	0	
0.0521667	0.00305642	-0.0339482	0.000194867	0.000985894	0	5	0	
0.0523333	0.0109099	-0.0246555	0.000270273	0.00124277	0	5	0	
0.0525	-0.0102839	0.0243941	0.000292473	0.00103423	0	5	0	
0.0526667	-0.000447984	0.00583275	0.000260158	0.000922269	0	5	0	
0.0528333	0.00267298	-0.0139233	0.000156096	0.000444326	0	5	0	
0.053	-0.000812704	-0.00156329	0.00011839	0.000445147	0	5	0	
0.0531667	0.00121615	0.0237566	5.86879E-05	0.000364985	0	5	0	
0.0533333	-0.00190318	-0.00719372	5.11E-05	0.000470987	0	5	0	
0.0535	-0.000448844	-0.0132057	6.21514E-05	0.000595009	0	5	0	
0.0536667	0.0016825	0.0328109	9.8552E-05	0.000685654	0	5	0	
0.0538333	-0.00789278	-0.00637588	0.000148511	0.000725328	0	5	0	
0.054	0.0100988	-0.0258876	0.000172386	0.000613232	0	5	0	
0.0541667	-0.00263102	0.0126347	0.000177281	0.000531453	0	5	0	
0.0543333	-0.00379278	0.00775882	0.000122291	0.000473938	0	5	0	
0.0545	-0.00391723	0.0127125	0.000142376	0.000335294	0	5	0	
0.0546667	0.00419843	-0.0080669	0.000137771	0.000309452	0	5	0	
0.0548333	0.00386134	0.00239196	0.00013763	0.000216969	0	5	0	
0.055	-0.00131925	-0.0238853	0.000113907	0.000281676	0	5	0	
0.0551667	-0.00876099	0.0263212	0.000161672	0.000324431	0	5	0	
0.0553333	0.00258489	0.0148467	0.000181947	0.000548911	0	5	0	
0.0555	0.00533485	-0.0329528	0.000166157	0.000583734	0	5	0	
0.0556667	0.00150139	0.00117694	0.000104611	0.000617202	0	5	0	
0.0558333	-0.00611131	0.0134949	9.6108E-05	0.000461999	0	5	0	
0.056	-0.00532906	0.00922349	0.000133598	0.000372548	0	5	0	
0.0561667	0.0112188	-0.0121531	0.000145373	0.000270241	0	5	0	
0.0563333	-0.00492356	-0.0111429	0.00023192	0.000317662	0	5	0	
0.0565	-0.00475714	0.00947419	0.000263412	0.000300863	0	5	0	
0.0566667	0.00338697	0.0242855	0.000251504	0.000339264	0	5	0	
0.0568333	-0.000857482	-0.0128761	0.00016177	0.000321814	0	5	0	
0.057	0.00559512	-0.0142221	9.55861E-05	0.000478802	0	5	0	
0.0571667	-0.00590388	0.0201146	0.000101956	0.000470719	0	5	0	
0.0573333	-0.00426276	0.00303683	0.000112803	0.000521266	0	5	0	
0.0575	0.00826517	-0.0257166	0.000114796	0.000469481	0	5	0	
0.0576667	-0.0033982	0.0183214	0.000127652	0.000485139	0	5	0	
0.0578333	-0.0040951	0.0105417	0.000168236	0.000480773	0	5	0	
0.058	0.00386142	-0.0136525	0.000157003	0.000422018	0	5	0	
0.0581667	0.00135832	0.00824118	0.00011744	0.000379065	0	5	0	
0.0583333	-0.000162602	0.00293927	6.75276E-05	0.000287145	0	5	0	
0.0585	-0.00266832	-0.0041524	6.50284E-05	0.000211719	0	5	0	
0.0586667	-0.00057985	0.00442968	6.3444E-05	0.000192863	0	5	0	
0.0588333	0.00109852	-0.0012983	5.096E-05	0.000225742	0	5	0	
0.059	0.000771842	-0.00573332	5.26812E-05	0.000259868	0	5	0	
0.0591667	0.00259812	0.00421416	7.55147E-05	0.000240068	0	5	0	
0.0593333	-0.00326429	0.00560148	0.000103482	0.000180983	0	5	0	
0.0595	-0.00199183	0.00860196	0.00012055	0.00018553	0	5	0	
0.0596667	0.00191799	0.00207693	0.000117076	0.00019056	0	5	0	
0.0598333	0.00220137	-0.0118061	8.70172E-05	0.000166155	0	5	0	
0.06	-0.00425754	0.00128559	7.2595E-05	0.00014171	0	5	0	
0.0601667	-0.00110656	0.00873222	0.000113107	0.000233662	0	5	0	
0.0603333	0.00451014	-0.00251145	0.000150023	0.000287764	0	5	0	
0.0605	-0.0011877	0.00424048	0.00013911	0.000263134	0	5	0	
0.0606667	-0.00432337	-0.000290669	9.33292E-05	0.000160307	0	5	0	
0.0608333	0.00221091	0.0020326	6.39754E-05	0.000120512	0	5	0	
0.061	-0.00536345	0.00391452	7.44958E-05	0.000108739	0	5	0	
0.0611667	0.00707866	-0.0174052	8.32888E-05	0.000137495	0	5	0	
0.0613333	-0.00629273	0.0114989	0.000144494	0.000241073	0	5	0	
0.0615	-0.00379824	0.0128467	0.00021677	0.000394842	0	5	0	
0.0616667	0.0079075	-0.00590356	0.000262029	0.000415652	0	5	0	
0.0618333	-0.00911167	-0.00499467	0.000241702	0.000301643	0	5	0	
0.062	0.00299201	0.00107399	0.000170083	0.000156687	0	5	0	
0.0621667	0.00128531	-0.000165815	0.000126939	0.000138582	0	5	0	
0.0623333	-0.00885979	0.00942252	0.000105634	0.000163045	0	5	0	
0.0625	0.00900855	-0.0162658	0.0001271	0.000243591	0	5	0	
0.0626667	-0.00561838	0.0160265	0.000150736	0.000292867	0	5	0	
0.0628333	-0.000352392	0.0096567	0.000177723	0.000339369	0	5	0	
0.063	-0.000339323	0.000830387	0.000173593	0.000267896	0	5	0	
0.0631667	-4.94823E-05	-0.0199383	0.000146378	0.000229331	0	5	0	
0.0633333	-0.00131618	0.0132689	0.000105491	0.000226552	0	5	0	
0.0635	0.00273472	-0.0200849	7.43973E-05	0.000281812	0	5	0	
0.0636667	-0.00893143	0.020934	7.80606E-05	0.00036589	0	5	0	
0.0638333	0.00833931	0.00862412	0.000110463	0.000516725	0	5	0	
0.064	0.000218048	-0.0263415	0.000187805	0.000699787	0	5	0	
0.0641667	-0.00520117	0.0171094	0.000211519	0.000675475	0	5	0	
0.0643333	-0.00759081	0.0201587	0.000218272	0.000728353	0	5	0	
0.0645	0.00547945	-0.0122096	0.000155704	0.000559151	0	5	0	
0.0646667	0.0183491	-0.00726518	0.000222981	0.000503633	0	5	0	
0.0648333	-0.0152858	-0.0947877	0.00028157	0.000813215	0	5	0	
0.065	-0.0242556	0.197772	0.000561517	0.00167027	0	5	0	
0.0651667	0.0264494	-0.107765	0.00059498	0.00266503	0	5	0	
0.0653333	0.00784414	-0.0621883	0.000636269	0.00331577	0	5	0	
0.0655	0.000452159	0.0779696	0.000392517	0.00275774	0	5	0	
0.0656667	-0.0302922	0.0295362	0.000391264	0.00223959	0	5	0	
0.0658333	0.00386883	-0.0272693	0.000436411	0.00118309	0	5	0	
0.066	0.033314	-0.0314718	0.000654104	0.000901564	0	5	0	
0.0661667	-0.0189804	-0.0173655	0.000642953	0.001002	0	5	0	
0.0663333	-0.00465492	0.0879448	0.000567435	0.00151992	0	5	0	
0.0665	-0.00824547	-0.049859	0.000337176	0.00177792	0	5	0	
0.0666667	0.0167125	-0.0362146	0.000263866	0.00166927	0	5	0	
0.0668333	0.00261327	0.0495129	0.000276689	0.00114737	0	5	0	
0.067	-0.0192272	0.0213789	0.00033963	0.00125384	0	5	0	
0.0671667	0.0132882	-0.0682238	0.000360405	0.00100106	0	5	0	
0.0673333	-0.00543702	0.027001	0.000308566	0.00114754	0	5	0	
0.0675	0.00219981	0.0170032	0.00024375	0.000991245	0	5	0	
0.0676667	-0.00252287	-0.0189944	0.000194349	0.000803348	0	5	0	
0.0678333	-0.00407681	-0.00213226	0.00019466	0.000497476	0	5	0	
0.068	0.0133029	0.00608153	0.000234451	0.000269488	0	5	0	
0.0681667	-0.00444474	-0.00361951	0.000228636	0.000407046	0	5	0	
0.0683333	-0.00482829	0.0256265	0.000193809	0.000518535	0	5	0	
0.0685	0.00224498	0.00128993	0.000153234	0.000544264	0	5	0	
0.0686667	0.00414885	-0.0433764	0.000197372	0.000493958	0	5	0	
0.0688333	-0.00110632	0.0261879	0.000159709	0.000543343	0	5	0	
0.069	-0.00666092	-0.018721	0.000124987	0.000655818	0	5	0	
0.0691667	0.00391	0.0338949	9.65263E-05	0.000720916	0	5	0	
0.0693333	0.0018395	-0.00704662	0.000125607	0.000640494	0	5	0	
0.0695	0.00533693	-0.009889	0.000123606	0.000547829	0	5	0	
0.0696667	-0.00924052	0.0285261	0.000115638	0.000441783	0	5	0	
0.0698333	0.00463227	-0.00740704	0.000115473	0.000543712	0	5	0	
0.07	0.000462515	-0.057083	0.0001834	0.000845488	0	5	0	
0.0701667	-0.00942478	0.0589073	0.000228813	0.00106906	0	5	0	
0.0703333	0.0144407	0.0175467	0.000255508	0.00120311	0	5	0	
0.0705	-0.00445388	-0.0407653	0.000250074	0.00108601	0	5	0	
0.0706667	-0.00269669	0.00608584	0.000220701	0.000883899	0	5	0	
0.0708333	7.15143E-05	0.0323494	0.000153835	0.000755219	0	5	0	
0.071	-0.00475622	-0.0161987	9.04249E-05	0.000563558	0	5	0	
0.0711667	0.0135874	-0.0178483	8.58497E-05	0.000491655	0	5	0	
0.0713333	-0.00603226	0.0182478	0.000162806	0.000429954	0	5	0	
0.0715	-0.00532868	0.0218024	0.000287785	0.000371207	0	5	0	
0.0716667	0.010129	-0.0113814	0.000316905	0.000400797	0	5	0	
0.0718333	-0.0054179	-0.00839636	0.000275187	0.000289248	0	5	0	
0.072	-0.00310974	-0.000370058	0.000164528	0.000249823	0	5	0	
0.0721667	0.00724971	0.000321741	0.000110744	0.000206167	0	5	0	
0.0723333	-0.00561572	0.00567026	0.000107627	0.00018289	0	5	0	
0.0725	0.00216973	-0.00762504	0.000118059	0.000206936	0	5	0	
0.0726667	0.00213316	0.00324648	0.000141495	0.000177731	0	5	0	
0.0728333	-0.0045344	0.00259834	0.000133959	0.000310338	0	5	0	
0.073	0.00103492	-0.00365852	0.000115673	0.000340214	0	5	0	
0.0731667	0.00422288	-0.0066253	9.04072E-05	0.000344323	0	5	0	
0.0733333	-0.0038389	0.0051678	8.39566E-05	0.000275332	0	5	0	
0.0735	0.00346027	-0.00353812	0.00011173	0.000189371	0	5	0	
0.0736667	-0.00425562	-0.00454329	0.000137561	0.000165716	0	5	0	
0.0738333	0.000529276	-0.00330605	0.000174365	9.32572E-05	0	5	0	
0.074	0.00710269	0.00302339	0.000175929	0.000104264	0	5	0	
0.0741667	-0.00431538	0.00563799	0.00015663	9.67323E-05	0	5	0	
0.0743333	-0.00616876	-0.00609494	0.000135747	0.000117948	0	5	0	
0.0745	0.00973511	-0.00357689	0.000126108	0.000128546	0	5	0	
0.0746667	-0.00547634	0.00288116	0.000151103	0.000142751	0	5	0	
0.0748333	0.000248555	0.00676837	0.000161146	9.83686E-05	0	5	0	
0.075	0.00182006	-0.0108895	0.000150749	0.000141781	0	5	0	
0.0751667	-0.0022167	0.00451688	0.000118775	0.000143673	0	5	0	
0.0753333	0.00164839	0.0055649	0.000103906	0.000159913	0	5	0	
0.0755	-0.00221069	-0.00476611	0.000100048	0.00011257	0	5	0	
0.0756667	9.65474E-06	-0.00749918	7.91909E-05	9.56223E-05	0	5	0	
0.0758333	0.00306124	0.0170212	4.99837E-05	0.000174688	0	5	0	
0.076	-0.00544925	-0.00588554	4.77916E-05	0.000229195	0	5	0	
0.0761667	0.000520778	-0.00420633	7.69856E-05	0.000233983	0	5	0	
0.0763333	0.00265885	0.00400734	0.000114329	0.000147693	0	5	0	
0.0765	-0.000247551	0.00993512	9.73523E-05	0.000169661	0	5	0	
0.0766667	-0.00798708	-0.0147304	8.45496E-05	0.000247133	0	5	0	
0.0768333	0.00610993	-0.00531511	8.44488E-05	0.000325106	0	5	0	
0.077	-0.00521382	0.0235511	0.000108198	0.000421909	0	5	0	
0.0771667	0.00661872	-0.00921747	0.000128668	0.000406707	0	5	0	
0.0773333	-0.00435354	-0.00448684	0.000168267	0.000459837	0	5	0	
0.0775	-0.00435042	-0.00600364	0.000230107	0.00041283	0	5	0	
0.0776667	0.00968446	0.011846	0.000223803	0.000414539	0	5	0	
0.0778333	-0.0050217	0.0102982	0.000212902	0.000322364	0	5	0	
0.078	-0.00577305	-0.0311455	0.000217597	0.000314666	0	5	0	
0.0781667	0.0132838	0.0177626	0.00023391	0.000390921	0	5	0	
0.0783333	-0.0120498	0.0135359	0.0002565	0.000442073	0	5	0	
0.0785	0.00111057	-0.0247102	0.000245756	0.000416837	0	5	0	
0.0786667	0.00673188	0.0141442	0.000269442	0.000388885	0	5	0	
0.0788333	-0.00172433	0.000622414	0.000203968	0.000337144	0	5	0	
0.079	-0.00662228	0.000931962	0.000165191	0.000286846	0	5	0	
0.0791667	0.00391346	-0.0157216	0.000110052	0.00031971	0	5	0	
0.0793333	-0.00213843	0.0439157	0.000112437	0.000494738	0	5	0	
0.0795	0.0180314	-0.0334762	0.000151642	0.000675397	0	5	0	
0.0796667	-0.0211214	-0.0451912	0.000242586	0.0010068	0	5	0	
0.0798333	-0.00825961	0.124281	0.000425366	0.00137594	0	5	0	
0.08	0.0154066	-0.0394033	0.000419655	0.00166655	0	5	0	
0.0801667	0.0107478	-0.0821707	0.000435658	0.00183699	0	5	0	
0.0803333	-0.00901919	0.0546967	0.000293972	0.00166458	0	5	0	
0.0805	-0.0192971	0.0190927	0.000389376	0.00140754	0	5	0	
0.0806667	0.00866515	0.00803692	0.000356384	0.000808241	0	5	0	
0.0808333	0.0200227	-0.0253004	0.000476787	0.000525615	0	5	0	
0.081	-0.013162	-0.0222335	0.000392954	0.0008464	0	5	0	
0.0811667	-0.000682883	0.0457272	0.000398633	0.00109984	0	5	0	
0.0813333	-0.00765044	-0.00132786	0.000235887	0.00124697	0	5	0	
0.0815	0.00635105	-0.0390501	0.000185911	0.000883477	0	5	0	
0.0816667	-2.59912E-05	0.0203834	0.000122956	0.000742995	0	5	0	
0.0818333	0.001031	0.00867208	0.00010683	0.000689328	0	5	0	
0.082	-0.00741083	-0.00901782	0.000110041	0.000550056	0	5	0	
0.0821667	0.00228798	0.00643693	0.000166121	0.00040636	0	5	0	
0.0823333	0.00310026	-0.0112366	0.000266757	0.000283301	0	5	0	
0.0825	-0.012089	0.0122704	0.000306654	0.000356372	0	5	0	
0.0826667	0.00771678	-0.0195748	0.000260209	0.000401317	0	5	0	
0.0828333	0.0111781	-0.000379571	0.000254193	0.000387906	0	5	0	
0.083	-0.0207062	0.0219033	0.000307416	0.000294155	0	5	0	
0.0831667	0.0180943	-0.0134006	0.000363076	0.000285115	0	5	0	
0.0833333	-0.0107362	0.0162428	0.000403203	0.000291729	0	5	0	
0.0835	-0.00396442	-0.00303217	0.000411538	0.000408602	0	5	0	
0.0836667	0.00927775	-0.0217262	0.000382581	0.000530345	0	5	0	
0.0838333	-0.000946295	0.00737425	0.000272977	0.000476228	0	5	0	
0.084	-0.00481665	0.0239002	0.000219468	0.000477305	0	5	0	
0.0841667	0.0120041	-0.0340509	0.000186824	0.000454083	0	5	0	
0.0843333	-0.0100013	0.0231017	0.000236857	0.000569895	0	5	0	
0.0845	-0.0012507	0.0104551	0.000220467	0.000625421	0	5	0	
0.0846667	0.00768594	-0.0265045	0.000209475	0.000636706	0	5	0	
0.0848333	-0.0059197	0.00733845	0.000164097	0.000583463	0	5	0	
0.085	0.000543029	0.0209424	0.000119113	0.000562006	0	5	0	
0.0851667	0.00865382	-0.00653635	0.000139022	0.000433474	0	5	0	
0.0853333	-0.0155643	-0.0448405	0.000174331	0.000559357	0	5	0	
0.0855	0.0011191	0.0308861	0.000250452	0.000566312	0	5	0	
0.0856667	0.00923828	0.0357102	0.000288919	0.000879085	0	5	0	
0.0858333	-0.00251095	-0.0317553	0.000263672	0.000837828	0	5	0	
0.086	-0.00297117	-0.0299562	0.000183373	0.000900745	0	5	0	
0.0861667	0.00167823	0.0104375	0.00012094	0.000638816	0	5	0	
0.0863333	-0.00520291	0.0363909	9.68248E-05	0.000656183	0	5	0	
0.0865	0.00406408	-0.0131948	9.20614E-05	0.00055189	0	5	0	
0.0866667	-0.00489206	-0.0399118	9.01894E-05	0.000808258	0	5	0	
0.0868333	0.00764228	0.0324823	9.59012E-05	0.000791165	0	5	0	
0.087	-0.00872879	0.00913641	0.000128477	0.000895569	0	5	0	
0.0871667	0.00713282	-0.0505845	0.000143024	0.000731039	0	5	0	
0.0873333	-0.0145972	0.0839782	0.000188816	0.00109737	0	5	0	
0.0875	0.0119248	-0.0621604	0.000217245	0.00122606	0	5	0	
0.0876667	-0.00427404	0.0184818	0.000253525	0.00132059	0	5	0	
0.0878333	0.000945129	0.017425	0.000240704	0.00124746	0	5	0	
0.088	0.000900576	-0.035829	0.00021044	0.000986137	0	5	0	
0.0881667	-0.00360665	0.00232775	0.000185495	0.000963893	0	5	0	
0.0883333	-0.000234215	0.0260722	0.000132295	0.000949845	0	5	0	
0.0885	-0.00183199	-0.0011527	0.000122911	0.00124851	0	5	0	
0.0886667	-0.000405784	0.0266228	0.000124203	0.00123248	0	5	0	
0.0888333	0.00624453	-0.0489024	0.00015441	0.00103332	0	5	0	
0.089	-0.0118476	0.00190556	0.000169754	0.000729369	0	5	0	
0.0891667	0.0156454	0.028284	0.000195933	0.000625943	0	5	0	
0.0893333	-0.0157658	-0.0155172	0.000256906	0.000494503	0	5	0	
0.0895	0.0053218	-0.0200744	0.000297233	0.000616154	0	5	0	
0.0896667	0.0032858	0.0349051	0.000301548	0.000631232	0	5	0	
0.0898333	-0.00582203	-0.0108356	0.000245577	0.000673428	0	5	0	
0.09	0.00445611	-0.0189972	0.000176363	0.000588327	0	5	0	
0.0901667	-0.00470763	0.00299007	0.000118635	0.000463185	0	5	0	
0.0903333	-0.00280559	0.0283665	0.000109603	0.000437978	0	5	0	
0.0905	0.00686031	-0.020128	0.000111092	0.000365573	0	5	0	
0.0906667	-0.00312559	0.00096219	0.000123244	0.000448242	0	5	0	
0.0908333	-0.00225332	0.00715516	0.000128676	0.00031535	0	5	0	
0.091	-0.00168908	0.0244066	0.000109813	0.000300516	0	5	0	
0.0911667	0.00287869	-0.0266001	9.08157E-05	0.000317958	0	5	0	
0.0913333	-0.000910696	-0.00849499	8.64754E-05	0.000428742	0	5	0	
0.0915	0.00289032	0.0173449	9.63354E-05	0.000390057	0	5	0	
0.0916667	-0.00665964	0.0140863	0.00011853	0.000408751	0	5	0	
0.0918333	0.00049858	-0.00762974	0.000144551	0.000343263	0	5	0	
0.092	0.00309696	-0.00909024	0.000165198	0.000323957	0	5	0	
0.0921667	0.000300909	-0.0101736	0.000140655	0.000237218	0	5	0	
0.0923333	-0.00503043	0.0338142	9.3951E-05	0.00030436	0	5	0	
0.0925	0.00292851	-1.39773E-05	6.83643E-05	0.000399741	0	5	0	
0.0926667	-0.00588064	-0.0320732	8.24252E-05	0.000547239	0	5	0	
0.0928333	0.0104797	0.0130627	9.88289E-05	0.000514626	0	5	0	
0.093	-0.00771758	0.0113664	0.000146851	0.00055679	0	5	0	
0.0931667	0.00377686	-0.0339799	0.000169109	0.000414141	0	5	0	
0.0933333	-0.000521804	0.0269084	0.000187395	0.000577357	0	5	0	
0.0935	-0.00919278	0.00607359	0.000185363	0.000537643	0	5	0	
0.0936667	0.00470988	0.0238444	0.000170429	0.000581328	0	5	0	
0.0938333	0.0137362	-0.0647518	0.000212775	0.000553334	0	5	0	
0.094	-0.006232	-0.0192751	0.000210188	0.00109259	0	5	0	
0.0941667	-0.0108832	0.147383	0.000292441	0.00172715	0	5	0	
0.0943333	-0.00185792	-0.0780114	0.000242944	0.0022459	0	5	0	
0.0945	0.01219	-0.110065	0.000273322	0.00301736	0	5	0	
0.0946667	0.00798935	0.122472	0.00029773	0.00301827	0	5	0	
0.0948333	-0.0272464	0.00944799	0.000403512	0.00294788	0	5	0	
0.095	0.0031557	-0.0192893	0.000478165	0.00174495	0	5	0	
0.0951667	0.0281846	-0.0674029	0.000516063	0.00121437	0	5	0	
0.0953333	-0.0173917	0.0217248	0.000513903	0.00107679	0	5	0	
0.0955	-0.00860391	0.113791	0.00045988	0.00174218	0	5	0	
0.0956667	-0.0069306	-0.0808146	0.000304905	0.00206254	0	5	0	
0.0958333	0.0173213	-0.064769	0.000227514	0.00256186	0	5	0	
0.096	0.00455927	0.088464	0.000288682	0.00200524	0	5	0	
0.0961667	-0.0238471	0.0244014	0.000419167	0.00234293	0	5	0	
0.0963333	0.00923139	-0.0631529	0.000432622	0.00156148	0	5	0	
0.0965	0.00880173	-0.00892046	0.000395731	0.00179076	0	5	0	
0.0966667	-0.00938632	0.0497536	0.000282943	0.00115332	0	5	0	
0.0968333	0.000488023	0.00622755	0.000250787	0.00126401	0	5	0	
0.097	-0.00541551	-0.0175992	0.000136308	0.00095511	0	5	0	
0.0971667	0.0103588	-0.00322442	0.000126083	0.000799635	0	5	0	
0.0973333	-0.00755937	0.0226902	0.000148537	0.000565686	0	5	0	
0.0975	0.00384034	-0.0218592	0.000171778	0.00038287	0	5	0	
0.0976667	-0.00989049	0.0323625	0.000171351	0.000502336	0	5	0	
0.0978333	0.01025	-0.0175979	0.000158515	0.00053714	0	5	0	
0.098	-0.00450417	0.0163664	0.000152929	0.000549579	0	5	0	
0.0981667	-0.000441979	-0.00548137	0.000158444	0.000410385	0	5	0	
0.0983333	0.00611997	0.00832975	0.000146804	0.00026341	0	5	0	
0.0985	-0.00740327	-0.00323	0.000139767	0.000201094	0	5	0	
0.0986667	-0.00217825	0.0108706	0.000159796	0.000208377	0	5	0	
0.0988333	0.00943157	-0.00258748	0.000152587	0.000316549	0	5	0	
0.099	-0.00405198	0.00614912	0.000165788	0.000283273	0	5	0	
0.0991667	-0.000837055	0.0066386	0.000167429	0.000260513	0	5	0	
0.0993333	-0.000893425	-0.0103283	0.000153095	0.000158924	0	5	0	
0.0995	0.00106292	-0.00445506	0.000129916	0.000272154	0	5	0	
0.0996667	0.000294124	0.0192918	8.98678E-05	0.000329197	0	5	0	
0.0998333	0.00118675	-0.00382029	6.87728E-05	0.000391549	0	5	0	
0.1	-0.0077465	-0.0201735	8.54649E-05	0.000323167	0	5	0	
0.100167	0.00652353	-0.0036838	9.13689E-05	0.00042803	0	5	0	
0.100333	-0.000836088	0.0324144	0.000145521	0.000484535	0	5	0	
0.1005	-0.005027	0.00474731	0.000150568	0.000670549	0	5	0	
0.100667	9.50553E-05	-0.0399308	0.000146109	0.000664	0	5	0	
0.100833	0.00631315	0.00129906	0.000141633	0.000727998	0	5	0	
0.101	-0.00796901	0.0313332	0.000132019	0.000698329	0	5	0	
0.101167	0.0020361	0.011198	0.000187721	0.000669704	0	5	0	
0.101333	-0.00125615	-0.0304007	0.00018366	0.000704693	0	5	0	
0.1015	0.00454106	-0.00262488	0.000168173	0.000553595	0	5	0	
0.101667	-0.000507227	0.0205711	0.000114413	0.000487442	0	5	0	
0.101833	-0.00721726	-0.00404546	9.62579E-05	0.000337153	0	5	0	
0.102	0.00241285	-0.0103786	9.63136E-05	0.000406336	0	5	0	
0.102167	0.0070285	0.00622349	0.000105421	0.000324306	0	5	0	
0.102333	-0.00788416	0.0196988	0.000119932	0.000256628	0	5	0	
0.1025	0.00294574	-0.019253	0.000126639	0.000260008	0	5	0	
0.102667	0.000141647	-0.00933973	0.000105419	0.000291819	0	5	0	
0.102833	0.000479552	0.00815187	6.74432E-05	0.000316433	0	5	0	
0.103	-0.00246903	0.0124918	6.70054E-05	0.00021045	0	5	0	
0.103167	0.00150073	-0.0108507	7.97042E-05	0.000210456	0	5	0	
0.103333	-0.000903122	0.000673448	8.24491E-05	0.000186767	0	5	0	
0.1035	0.00362476	0.00635984	6.25896E-05	0.000162145	0	5	0	
0.103667	-0.00787318	-0.00312759	7.21851E-05	0.000128649	0	5	0	
0.103833	0.0108196	-0.011672	0.000105248	0.000124526	0	5	0	
0.104	-0.00838016	0.017972	0.000175653	0.000183903	0	5	0	
0.104167	0.00107119	-0.0121376	0.000224891	0.000240671	0	5	0	
0.104333	0.00185164	-0.00025352	0.000219236	0.000232205	0	5	0	
0.1045	0.000683386	0.00643927	0.000144875	0.000193164	0	5	0	
0.104667	-0.00147735	0.00311252	7.55911E-05	0.000139147	0	5	0	
0.104833	0.000419684	-0.00380271	3.88139E-05	0.000146044	0	5	0	
0.105	-0.00379224	0.000257531	5.47607E-05	0.000125872	0	5	0	
0.105167	0.00818687	-0.00473799	7.03372E-05	9.85621E-05	0	5	0	
0.105333	-0.0109779	0.00148053	0.000124151	9.19115E-05	0	5	0	
0.1055	0.00481525	-0.00152743	0.000167533	7.97384E-05	0	5	0	
0.105667	0.00207518	0.00710484	0.000204627	0.00011232	0	5	0	
0.105833	-0.00367285	-0.00799616	0.00016913	0.000138459	0	5	0	
0.106	-0.0059659	0.00871158	0.000140023	0.000186006	0	5	0	
0.106167	0.0124594	-0.00472028	0.000126359	0.000185192	0	5	0	
0.106333	-0.0113255	-0.00111578	0.000176023	0.000136761	0	5	0	
0.1065	0.00283071	-0.0079188	0.000194384	0.000103498	0	5	0	
0.106667	0.000175947	0.0091112	0.000173352	9.92387E-05	0	5	0	
0.106833	5.61091E-05	0.00257546	0.000107589	0.000185431	0	5	0	
0.107	0.000151945	-0.00668902	6.20762E-05	0.000252424	0	5	0	
0.107167	-0.00244989	-0.000756052	4.1986E-05	0.000259207	0	5	0	
0.107333	-0.00243229	0.006607	7.90709E-05	0.000228053	0	5	0	
0.1075	0.00960658	-0.000864297	0.000121446	0.000254996	0	5	0	
0.107667	-0.00654234	-0.0118096	0.00016935	0.000390333	0	5	0	
0.107833	-0.00616819	0.00782591	0.000230868	0.000394947	0	5	0	
0.108	0.00869887	0.0109867	0.000230904	0.000339317	0	5	0	
0.108167	0.00233279	-0.0101652	0.000213936	0.000210193	0	5	0	
0.108333	-0.00762538	0.00345366	0.00013666	0.000186738	0	5	0	
0.1085	0.00655198	-0.0116189	0.000132944	0.000199511	0	5	0	
0.108667	-0.0105819	0.0129761	0.000143949	0.000243852	0	5	0	
0.108833	0.0080617	-0.0132416	0.00015837	0.000276673	0	5	0	
0.109	-0.000765752	0.0284694	0.000165606	0.000319696	0	5	0	
0.109167	0.0109657	-0.00927664	0.000145019	0.000527224	0	5	0	
0.109333	-0.00290124	-0.085008	0.000175476	0.00125528	0	5	0	
0.1095	-0.0172143	0.138264	0.00023771	0.00196815	0	5	0	
0.109667	0.011926	-0.0661322	0.000319818	0.00228022	0	5	0	
0.109833	0.00606114	-0.0293796	0.000328553	0.00215311	0	5	0	
0.11	-0.00642268	0.0408769	0.000237104	0.00148684	0	5	0	
0.110167	-0.00934028	-0.0193302	0.000244929	0.00118147	0	5	0	
0.110333	0.0139936	0.0348239	0.000224612	0.00075184	0	5	0	
0.1105	0.00848068	-0.0295859	0.000305572	0.00108243	0	5	0	
0.110667	-0.0194641	-0.0300415	0.000296591	0.00147236	0	5	0	
0.110833	0.00586882	0.0528458	0.000335016	0.0015772	0	5	0	
0.111	-0.00533871	0.0111315	0.00026303	0.00128946	0	5	0	
0.111167	0.0102047	-0.0469585	0.000194238	0.000831659	0	5	0	
0.111333	-0.00625368	0.0193265	0.000143682	0.000638233	0	5	0	
0.1115	0.00144211	0.019184	0.000166556	0.000795629	0	5	0	
0.111667	0.00372351	-0.0409535	0.000177589	0.000827671	0	5	0	
0.111833	-0.00310039	0.015012	0.00013789	0.000855972	0	5	0	
0.112	-0.00901904	0.037939	0.000145154	0.000798594	0	5	0	
0.112167	0.0122535	-0.0193822	0.000139823	0.000682032	0	5	0	
0.112333	-0.00817395	-0.0526853	0.000220877	0.000971788	0	5	0	
0.1125	-0.00162496	0.0580904	0.000236331	0.00110777	0	5	0	
0.112667	0.00404529	-0.0263235	0.000241058	0.00118683	0	5	0	
0.112833	-0.00621537	-0.0119449	0.000177842	0.000848005	0	5	0	
0.113	-0.0020729	0.0110065	0.000141124	0.000476319	0	5	0	
0.113167	0.0113605	-0.00254052	0.000151922	0.000350032	0	5	0	
0.113333	-0.0152796	0.00466306	0.000201892	0.000295395	0	5	0	
0.1135	0.00926045	-0.00614548	0.000220429	0.000371518	0	5	0	
0.113667	-0.0109667	0.00204609	0.000227932	0.000498426	0	5	0	
0.113833	0.00828097	-0.0204086	0.000217471	0.000656373	0	5	0	
0.114	-0.00657371	0.0165143	0.000231105	0.000676695	0	5	0	
0.114167	0.00268268	-0.00381843	0.000227319	0.000486821	0	5	0	
0.114333	0.00139975	-0.00425108	0.00022076	0.000312849	0	5	0	
0.1145	-0.00395437	-0.0012823	0.000181466	0.00023916	0	5	0	
0.114667	-0.00209471	0.00564695	0.000120525	0.000278955	0	5	0	
0.114833	0.00557985	-0.00891445	8.40431E-05	0.000278253	0	5	0	
0.115	-0.00768986	0.0115324	8.92901E-05	0.000274213	0	5	0	
0.115167	0.00680591	-0.00817275	0.000122195	0.000229811	0	5	0	
0.115333	-0.00960722	-0.00562435	0.000133485	0.000317395	0	5	0	
0.1155	0.00777547	0.00519839	0.000163107	0.00024699	0	5	0	
0.115667	0.000352251	0.0214527	0.000180595	0.000342228	0	5	0	
0.115833	-0.00111871	-0.0183918	0.000142276	0.000292961	0	5	0	
0.116	-0.00880405	-0.00749971	0.000131404	0.000497756	0	5	0	
0.116167	0.012906	-0.00728937	0.000143175	0.000405977	0	5	0	
0.116333	-0.00983769	0.0234816	0.000208361	0.000468332	0	5	0	
0.1165	0.00356146	-0.00749348	0.000256643	0.000313813	0	5	0	
0.116667	0.0064754	-0.00155222	0.00023757	0.000415391	0	5	0	
0.116833	-0.00359301	-3.47324E-05	0.00020814	0.000264232	0	5	0	
0.117	-0.0038011	0.0161911	0.000157898	0.000338397	0	5	0	
0.117167	0.00512868	-0.0224515	0.000143068	0.00029148	0	5	0	
0.117333	-0.00509746	0.0041398	0.000127023	0.000366964	0	5	0	
0.1175	0.00694132	0.00626419	0.000117086	0.000263611	0	5	0	
0.117667	-0.000733199	0.00840962	0.000113422	0.000186642	0	5	0	
0.117833	-0.00325606	-0.012167	0.00010266	0.000176533	0	5	0	
0.118	0.0015721	0.00482228	8.10082E-05	0.000192335	0	5	0	
0.118167	0.00499374	0.00474672	9.06435E-05	0.0001763	0	5	0	
0.118333	-0.0100951	0.00500913	0.000131926	0.000112306	0	5	0	
0.1185	0.0123226	-0.0111578	0.000170811	0.000121003	0	5	0	
0.118667	-0.00316324	0.0126742	0.000200618	0.000164992	0	5	0	
0.118833	-0.0068502	-0.00546905	0.000215526	0.000233838	0	5	0	
0.119	0.00819285	-0.00396197	0.000193243	0.000195846	0	5	0	
0.119167	0.000484256	0.000949892	0.000152594	0.000159597	0	5	0	
0.119333	-0.00771546	0.0157653	0.000133406	0.000113065	0	5	0	
0.1195	0.0121662	-0.0183939	0.000147397	0.00020102	0	5	0	
0.119667	-0.011433	0.0171996	0.000189117	0.000281786	0	5	0	
0.119833	0.0092486	-0.0150174	0.000200736	0.000335776	0	5	0	
0.12	-0.00269462	0.00551147	0.000191092	0.000278459	0	5	0	
0.120167	-0.000255851	-0.000496107	0.00015739	0.000194679	0	5	0	
0.120333	3.57789E-05	0.00688955	0.000108374	0.000121029	0	5	0	
0.1205	0.00289187	-0.00862472	9.80478E-05	0.000124951	0	5	0	
0.120667	-0.00526567	0.00479699	9.16833E-05	0.00016928	0	5	0	
0.120833	0.0050304	-0.00560105	0.000109399	0.000168077	0	5	0	
0.121	-0.000758897	0.00801378	0.000118252	0.000157943	0	5	0	
0.121167	0.0030813	-0.00573352	0.000116152	0.000134777	0	5	0	
0.121333	-0.00468528	0.00698764	0.000122218	0.000184126	0	5	0	
0.1215	0.00115289	-0.00392402	8.94045E-05	0.000209807	0	5	0	
0.121667	0.000113481	-0.00355178	5.99969E-05	0.000203898	0	5	0	
0.121833	0.00637123	0.00168247	7.34876E-05	0.000146904	0	5	0	
0.122	-0.01341	0.0116528	0.000131707	0.000142617	0	5	0	
0.122167	0.0142183	-0.0124293	0.000204788	0.000175345	0	5	0	
0.122333	-0.00762144	0.00754869	0.000230779	0.00022363	0	5	0	
0.1225	0.00349929	-0.00447084	0.000208847	0.000190923	0	5	0	
0.122667	0.0020168	0.00566006	0.000148519	0.000181244	0	5	0	
0.122833	-0.00253408	-0.0055507	9.13274E-05	0.000137986	0	5	0	
0.123	-0.000175244	-0.00751346	5.8839E-05	0.000223506	0	5	0	
0.123167	0.00252714	0.00760541	5.31694E-05	0.000212166	0	5	0	
0.123333	-0.0106579	0.00875653	9.30023E-05	0.00026299	0	5	0	
0.1235	0.021962	-0.0230227	0.000187668	0.000238971	0	5	0	
0.123667	-0.0193877	0.00555203	0.000296374	0.000346105	0	5	0	
0.123833	0.00700428	0.0126306	0.000360912	0.000398662	0	5	0	
0.124	0.0026114	-0.00931243	0.000341948	0.000336571	0	5	0	
0.124167	-0.00568545	-0.019331	0.000253156	0.000339988	0	5	0	
0.124333	-0.00443275	0.0419935	0.000178339	0.000409985	0	5	0	
0.1245	0.0239863	-0.0261092	0.000216032	0.000695403	0	5	0	
0.124667	-0.024756	-0.0772278	0.000329508	0.00126476	0	5	0	
0.124833	0.00112891	0.141599	0.000448568	0.00181872	0	5	0	
0.125	0.00696018	-0.0764543	0.00043783	0.00219661	0	5	0	
0.125167	0.00647015	-0.00743841	0.000311543	0.00201829	0	5	0	
0.125333	-0.00423047	0.0199169	0.000207198	0.0013314	0	5	0	
0.1255	-0.0105257	-0.0187299	0.000163873	0.000849143	0	5	0	
0.125667	-0.00465819	0.0319019	0.000278376	0.0005792	0	5	0	
0.125833	0.0332189	-0.013494	0.000411125	0.00106526	0	5	0	
0.126	-0.0280193	-0.0323126	0.000513692	0.00156301	0	5	0	
0.126167	0.00505751	0.0292313	0.000547684	0.00166009	0	5	0	
0.126333	0.00225568	0.0104562	0.000416149	0.00118124	0	5	0	
0.1265	0.00507154	-0.041884	0.000275547	0.000625496	0	5	0	
0.126667	-0.0107478	0.0407923	0.000159889	0.00051397	0	5	0	
0.126833	0.00445337	0.00105908	0.000142977	0.000819978	0	5	0	
0.127	0.0051698	-0.0454554	0.000148772	0.000910827	0	5	0	
0.127167	0.00225911	0.00331846	0.000127276	0.000840092	0	5	0	
0.127333	-0.0120395	0.0359677	0.000124479	0.000740229	0	5	0	
0.1275	0.00199122	-0.0103511	0.000160771	0.000635805	0	5	0	
0.127667	0.0128961	-0.0182427	0.000211781	0.000657764	0	5	0	
0.127833	-0.00510951	0.0100615	0.000232742	0.00059068	0	5	0	
0.128	-0.00207723	0.00725281	0.000201338	0.000837084	0	5	0	
0.128167	0.00337943	-0.0168978	0.000127019	0.000755694	0	5	0	
0.128333	-0.0075462	0.00661085	9.96128E-05	0.000627684	0	5	0	
0.1285	0.00768761	0.00290991	0.000105243	0.000273985	0	5	0	
0.128667	0.00304865	-0.0100702	0.000169879	0.000204847	0	5	0	
0.128833	-0.00610895	0.0225129	0.000185832	0.000218299	0	5	0	
0.129	-0.0023419	-0.0207208	0.000200175	0.000379121	0	5	0	
0.129167	0.0185357	0.00217159	0.00028405	0.000420419	0	5	0	
0.129333	-0.0293471	-0.00956829	0.000404559	0.000387915	0	5	0	
0.1295	0.0211847	0.0234876	0.000483567	0.000321589	0	5	0	
0.129667	-0.00063632	-0.0215757	0.000472354	0.000350257	0	5	0	
0.129833	-0.0111342	-0.0184385	0.00036096	0.000461903	0	5	0	
0.13	0.00115162	0.0408162	0.00030657	0.000565437	0	5	0	
0.130167	0.000985546	-0.00620864	0.000229681	0.000584099	0	5	0	
0.130333	0.0089813	-0.026722	0.000201885	0.000488838	0	5	0	
0.1305	-0.0095952	-0.00495172	0.000171142	0.000366399	0	5	0	
0.130667	-0.0125997	0.0320992	0.000235618	0.000333982	0	5	0	
0.130833	0.0103596	-0.00881222	0.000276573	0.000403064	0	5	0	
0.131	0.00547539	-0.00723613	0.000322584	0.000362456	0	5	0	
0.131167	-0.00957015	-0.00061992	0.000233095	0.000370263	0	5	0	
0.131333	-0.00759763	0.00161226	0.000251319	0.000239345	0	5	0	
0.1315	0.0111955	0.010537	0.000200835	0.000237519	0	5	0	
0.131667	-0.0048985	0.00159293	0.000242065	0.000201674	0	5	0	
0.131833	-0.00622477	-0.00680871	0.000210082	0.000361968	0	5	0	
0.132	-0.00309072	0.00868013	0.000204056	0.000356954	0	5	0	
0.132167	0.014113	-0.0086672	0.000213891	0.000308354	0	5	0	
0.132333	-0.0124316	0.0116674	0.000229489	0.000189536	0	5	0	
0.1325	-0.00447712	0.00671728	0.00030602	0.000184782	0	5	0	
0.132667	0.00737017	-0.000472294	0.000280641	0.00020559	0	5	0	
0.132833	0.000246001	-0.01754	0.00025729	0.000250482	0	5	0	
0.133	-0.00888656	0.0230439	0.000179301	0.000312144	0	5	0	
0.133167	0.00478304	-0.000904537	0.00014394	0.000342581	0	5	0	
0.133333	-0.00534122	-0.00367207	0.000123561	0.000332176	0	5	0	
0.1335	0.00738755	-0.00322827	0.000109749	0.000231506	0	5	0	
0.133667	-0.00747814	0.0108894	0.00012796	0.000181874	0	5	0	
0.133833	0.000258094	-0.00953127	0.000121798	0.000164171	0	5	0	
0.134	-0.00429394	0.00632304	0.000109933	0.000205135	0	5	0	
0.134167	0.0105433	-0.00480652	0.000127667	0.000227339	0	5	0	
0.134333	-0.0133013	0.0102747	0.000173088	0.000198302	0	5	0	
0.1345	0.00522187	-0.0078899	0.000209292	0.000187774	0	5	0	
0.134667	0.000518573	0.00959602	0.000168108	0.000193072	0	5	0	
0.134833	-0.00232233	-0.00680516	0.000119585	0.000233743	0	5	0	
0.135	-0.000612972	0.00233061	8.92425E-05	0.000212236	0	5	0	
0.135167	0.00206889	0.0027448	9.06951E-05	0.000159637	0	5	0	
0.135333	-0.00875677	-0.00382323	0.000117534	0.00010922	0	5	0	
0.1355	0.0126087	-0.00182096	0.000165943	9.10424E-05	0	5	0	
0.135667	-0.00935823	0.0120045	0.000198552	0.000119578	0	5	0	
0.135833	0.00137304	-0.0045274	0.00019656	0.000139303	0	5	0	
0.136	0.000663042	0.00211906	0.00014399	0.000144351	0	5	0	
0.136167	0.00205605	-0.00492655	0.00010243	0.000131882	0	5	0	
0.136333	-0.00834728	0.00605661	9.55423E-05	0.000119539	0	5	0	
0.1365	0.00989755	-0.00911693	0.000125425	0.00016343	0	5	0	
0.136667	-0.00485028	0.00627293	0.000153623	0.000177738	0	5	0	
0.136833	0.000937539	-0.0130773	0.000151793	0.000193041	0	5	0	
0.137	-0.00274179	0.0130147	0.000112045	0.000225471	0	5	0	
0.137167	0.00437949	-0.00378277	0.000100807	0.000212053	0	5	0	
0.137333	-0.00490921	-0.00336084	8.96712E-05	0.000166312	0	5	0	
0.1375	0.00520178	-0.00327153	0.000102941	0.00010089	0	5	0	
0.137667	-0.0105202	0.00533103	0.000122882	6.99864E-05	0	5	0	
0.137833	0.0116752	-0.00626852	0.000165755	0.00011211	0	5	0	
0.138	-0.00431898	0.00337919	0.00018674	0.000151087	0	5	0	
0.138167	-0.00135182	-0.00319008	0.000156458	0.000237959	0	5	0	
0.138333	-0.000430882	0.00524915	8.8435E-05	0.000193028	0	5	0	
0.1385	0.00483668	-0.0107685	4.93684E-05	0.000203967	0	5	0	
0.138667	-0.0036357	0.013793	4.65726E-05	0.000205537	0	5	0	
0.138833	0.000570853	-0.00811255	5.67E-05	0.000297458	0	5	0	
0.139	-0.00452771	-0.00118148	7.5495E-05	0.000252	0	5	0	
0.139167	0.00940846	-0.000334126	9.64924E-05	0.00017236	0	5	0	
0.139333	-0.00671532	0.00792579	0.000137416	0.000116216	0	5	0	
0.1395	0.00138336	-0.00601742	0.000162102	0.000152606	0	5	0	
0.139667	-0.00173751	-0.00674779	0.000128893	0.00016078	0	5	0	
0.139833	0.00138957	0.0172033	8.46529E-05	0.000190192	0	5	0	
0.14	0.0150255	0.0169107	6.06043E-05	0.000539844	0	5	0	
0.140167	-0.00879917	-0.120102	0.000211475	0.00119895	0	5	0	
0.140333	-0.0266714	0.145206	0.000520994	0.00194307	0	5	0	
0.1405	0.0335304	-0.0464632	0.000705806	0.00233726	0	5	0	
0.140667	-0.0121604	-0.0410727	0.00067562	0.0024254	0	5	0	
0.140833	0.0106784	0.0367398	0.000433947	0.00183402	0	5	0	
0.141	-0.0116385	-0.0168688	0.000291161	0.00127453	0	5	0	
0.141167	-0.0126653	8.17254E-05	0.000364043	0.000787477	0	5	0	
0.141333	0.0314632	0.0271168	0.000451356	0.00105631	0	5	0	
0.1415	-0.0165763	-0.0599194	0.000542789	0.00136562	0	5	0	
0.141667	0.00215819	0.0363179	0.000474311	0.00143995	0	5	0	
0.141833	0.00259913	0.0166693	0.000368905	0.00109818	0	5	0	
0.142	-0.00226072	-0.00775573	0.000274538	0.000658312	0	5	0	
0.142167	0.00606638	0.000390448	0.000182768	0.000357281	0	5	0	
0.142333	-0.00523675	0.00607282	0.000167273	0.000273687	0	5	0	
0.1425	0.0127828	-0.0170507	0.000168089	0.000247205	0	5	0	
0.142667	-0.0167425	0.00789159	0.00020912	0.000263357	0	5	0	
0.142833	0.0106573	0.0271457	0.00028106	0.000434247	0	5	0	
0.143	0.0042665	-0.0181896	0.000323552	0.000592332	0	5	0	
0.143167	-0.00152717	-0.017332	0.000272639	0.000597693	0	5	0	
0.143333	-0.00389803	0.0313881	0.000172382	0.000516726	0	5	0	
0.1435	0.00343721	-0.00821002	8.04343E-05	0.000471335	0	5	0	
0.143667	0.00129372	-0.0132783	5.88521E-05	0.000622646	0	5	0	
0.143833	0.00299992	0.00831942	6.75617E-05	0.000501076	0	5	0	
0.144	-0.0104033	0.00902885	9.40408E-05	0.000475064	0	5	0	
0.144167	0.00410233	-0.0295719	0.000127408	0.000362831	0	5	0	
0.144333	0.00892306	0.00922246	0.000193756	0.000460062	0	5	0	
0.1445	-0.0085012	0.0101147	0.000190023	0.000410492	0	5	0	
0.144667	-0.00530684	-0.00417727	0.000252233	0.000316834	0	5	0	
0.144833	0.0147412	-0.0212286	0.000252222	0.000323629	0	5	0	
0.145	-0.00903649	0.0333604	0.000275826	0.000371324	0	5	0	
0.145167	0.00542718	-0.0219411	0.000207528	0.000501521	0	5	0	
0.145333	-0.00892495	-0.00437142	0.000164321	0.000526031	0	5	0	
0.1455	0.0021563	0.0126441	0.000145593	0.000389408	0	5	0	
0.145667	0.00746761	0.00145965	0.000159183	0.000342428	0	5	0	
0.145833	-0.00796185	-6.11736E-05	0.000161085	0.000217673	0	5	0	
0.146	-0.000276124	-0.000466177	0.000202815	0.000180623	0	5	0	
0.146167	0.00283041	-0.011914	0.000208361	0.000207999	0	5	0	
0.146333	-0.00438293	0.00922815	0.000184197	0.000251509	0	5	0	
0.1465	0.00422955	0.00424029	0.000134653	0.000394946	0	5	0	
0.146667	-0.00574675	0.000253028	0.000117664	0.000308321	0	5	0	
0.146833	0.00581422	-0.0292889	0.000122055	0.000411004	0	5	0	
0.147	0.000615205	0.0490674	0.000123106	0.000468963	0	5	0	
0.147167	-0.00347797	-0.0182615	0.000108252	0.000696818	0	5	0	
0.147333	-0.00548198	0.00163717	0.000114648	0.000568162	0	5	0	
0.1475	0.00980719	-0.0240833	0.0001427	0.000499637	0	5	0	
0.147667	-0.00632549	0.027021	0.000154421	0.000402891	0	5	0	
0.147833	-0.00127565	0.000135596	0.000148457	0.000416178	0	5	0	
0.148	0.0030331	-0.00371795	8.72704E-05	0.000289393	0	5	0	
0.148167	-0.000418523	0.000749322	5.77656E-05	0.000279591	0	5	0	
0.148333	0.00116982	0.00693453	3.32711E-05	0.00040069	0	5	0	
0.1485	-0.0010423	-0.00722323	4.42931E-05	0.000462224	0	5	0	
0.148667	-0.00666554	0.00456377	8.82686E-05	0.000319551	0	5	0	
0.148833	0.0105356	-0.00400683	0.000160266	0.000167529	0	5	0	
0.149	-0.0112842	0.0145616	0.000201239	0.00020018	0	5	0	
0.149167	0.00330333	-0.0121916	0.00021536	0.000276622	0	5	0	
0.149333	0.00137451	0.0104219	0.000182075	0.000296693	0	5	0	
0.1495	0.00197589	-0.00863332	0.000154573	0.000290758	0	5	0	
0.149667	-0.00690527	0.00081808	0.000150004	0.000265793	0	5	0	
0.149833	0.0060614	-0.00038031	0.000148935	0.000346099	0	5	0	
0.15	-0.00514034	0.0140372	0.000145747	0.000320415	0	5	0	
0.150167	0.00380885	-0.00647801	0.000111205	0.000298637	0	5	0	
0.150333	-0.00178262	-0.00128567	9.39176E-05	0.000214816	0	5	0	
0.1505	-0.00437085	0.000188673	7.51002E-05	0.000164741	0	5	0	
0.150667	0.00372787	0.00211329	6.7914E-05	0.000178934	0	5	0	
0.150833	0.00249575	0.00164855	7.09279E-05	0.000133374	0	5	0	
0.151	-0.00758408	0.00756065	9.28571E-05	0.000177552	0	5	0	
0.151167	0.00822919	-0.0102614	0.000118846	0.000179308	0	5	0	
0.151333	-0.0068686	0.00827296	0.000138291	0.000250906	0	5	0	
0.1515	0.00450084	0.00913636	0.000135672	0.000218381	0	5	0	
0.151667	-0.00304403	-0.0136095	0.000127998	0.000233951	0	5	0	
0.151833	0.00227519	-0.000120193	0.000111563	0.000235839	0	5	0	
0.152	-0.0045909	0.0203913	0.000108769	0.000386951	0	5	0	
0.152167	0.00942623	-0.0179016	0.000128402	0.000447389	0	5	0	
0.152333	-0.0137693	0.00135366	0.000173949	0.000403121	0	5	0	
0.1525	0.0192158	0.0037236	0.000239769	0.000287121	0	5	0	
0.152667	-0.0214854	0.00875597	0.00031446	0.000243397	0	5	0	
0.152833	0.00533453	-0.00251967	0.000345358	0.00030711	0	5	0	
0.153	0.00835188	-0.0244493	0.000323982	0.00029828	0	5	0	
0.153167	-0.00873432	0.0172356	0.000231817	0.000346186	0	5	0	
0.153333	-0.000827204	0.00589866	0.000207651	0.000324667	0	5	0	
0.1535	0.0141877	-0.0198457	0.000278882	0.000344619	0	5	0	
0.153667	-0.0257375	0.0183218	0.000413131	0.000311249	0	5	0	
0.153833	0.0199039	-0.0168014	0.000484678	0.000364302	0	5	0	
0.154	-0.00848415	0.00589022	0.000430768	0.000341321	0	5	0	
0.154167	-0.00175647	-0.0053409	0.000352553	0.000307957	0	5	0	
0.154333	0.00526656	-0.00571982	0.000235855	0.000270649	0	5	0	
0.1545	-0.00536834	-0.00408951	0.000178758	0.000246962	0	5	0	
0.154667	-0.00198811	0.0114541	0.000161315	0.000223521	0	5	0	
0.154833	0.0128386	0.0245188	0.000207264	0.000355494	0	5	0	
0.155	-0.00826431	-0.0954674	0.000267396	0.000688839	0	5	0	
0.155167	-0.0172174	0.0752448	0.000383978	0.00123457	0	5	0	
0.155333	0.0168427	0.0187478	0.000409004	0.00179884	0	5	0	
0.1555	0.00148228	-0.0444059	0.000396787	0.0016616	0	5	0	
0.155667	-0.00313451	-0.00062386	0.000236421	0.0014344	0	5	0	
0.155833	0.00287122	0.00830148	0.000169976	0.000732759	0	5	0	
0.156	-0.0209367	0.00497704	0.000209823	0.000574343	0	5	0	
0.156167	0.0235518	0.0299756	0.000298514	0.000587651	0	5	0	
0.156333	-0.00811991	-0.0589708	0.000414765	0.000970632	0	5	0	
0.1565	-0.00122042	0.0140226	0.000389833	0.00112868	0	5	0	
0.156667	0.00244377	0.0582492	0.000285363	0.0010978	0	5	0	
0.156833	0.000926928	-0.0230844	0.000154226	0.000866536	0	5	0	
0.157	0.00294202	-0.0555431	8.13154E-05	0.00103918	0	5	0	
0.157167	-0.0098373	0.123475	0.000112809	0.0012661	0	5	0	
0.157333	0.0116837	-0.0842012	0.000138526	0.00164367	0	5	0	
0.1575	-0.00813928	0.0271343	0.000205812	0.00159939	0	5	0	
0.157667	0.00478807	0.00275452	0.000278314	0.00146913	0	5	0	
0.157833	0.00318725	-0.0357067	0.000305192	0.00103927	0	5	0	
0.158	-0.00130002	0.0166333	0.000278571	0.000894018	0	5	0	
0.158167	0.00368794	0.0344363	0.000207738	0.000806224	0	5	0	
0.158333	-0.00382171	0.00229321	0.000152196	0.000919321	0	5	0	
0.1585	-0.000916527	-0.0158925	0.00016281	0.00086288	0	5	0	
0.158667	0.010935	-0.0128697	0.000182521	0.000575933	0	5	0	
0.158833	-0.00504625	0.00601616	0.00021219	0.000433262	0	5	0	
0.159	0.00261221	-0.0059385	0.000163539	0.000312735	0	5	0	
0.159167	-0.000655386	-0.00580197	0.000100725	0.000375005	0	5	0	
0.159333	0.0103496	-0.00316369	7.06084E-05	0.000235584	0	5	0	
0.1595	-0.0134691	0.0382183	0.000130141	0.000448263	0	5	0	
0.159667	0.0057881	-0.0322022	0.000185674	0.000569076	0	5	0	
0.159833	0.0098916	-0.00986393	0.000238734	0.000650382	0	5	0	
0.16	-0.0154263	0.029246	0.000257536	0.000542733	0	5	0	
0.160167	0.00912858	-0.00853324	0.000262406	0.000391766	0	5	0	
0.160333	-0.00313035	-0.00587514	0.000223627	0.000345712	0	5	0	
0.1605	0.0036828	0.00608403	0.000153254	0.00025112	0	5	0	
0.160667	-0.00766794	0.0198405	0.000155644	0.000217297	0	5	0	
0.160833	-0.00166358	-0.0291157	0.000189769	0.000335785	0	5	0	
0.161	0.007431	0.00787904	0.000183268	0.000436393	0	5	0	
0.161167	0.000459944	0.0126167	0.000211416	0.00041406	0	5	0	
0.161333	-0.0110571	0.00134402	0.000205881	0.000296172	0	5	0	
0.1615	0.00505144	-0.0221026	0.000228586	0.000226166	0	5	0	
0.161667	0.00122327	0.00575081	0.000144975	0.000277947	0	5	0	
0.161833	0.00163813	0.0222278	0.000113306	0.000386271	0	5	0	
0.162	-0.00756502	-0.0240755	0.000108481	0.000438733	0	5	0	
0.162167	0.00356974	-0.00476473	0.000117129	0.000466749	0	5	0	
0.162333	9.71923E-05	0.0133489	0.000102926	0.00037287	0	5	0	
0.1625	0.00054607	0.00115905	6.83175E-05	0.000287239	0	5	0	
0.162667	0.000867417	-0.00456328	7.23669E-05	0.000191171	0	5	0	
0.162833	-0.000807446	-0.00864413	7.87188E-05	0.000159057	0	5	0	
0.163	0.000259013	-0.00457557	0.000117402	0.000145013	0	5	0	
0.163167	0.00291046	0.000362982	0.000155257	0.000127023	0	5	0	
0.163333	-0.0104564	0.0119106	0.000170503	0.000145258	0	5	0	
0.1635	0.00972916	-0.00654713	0.000186556	0.000180547	0	5	0	
0.163667	-0.000508837	0.00650296	0.000169145	0.000184442	0	5	0	
0.163833	-0.00486018	-0.00269395	0.000175648	0.000181397	0	5	0	
0.164	0.00811589	-0.00975916	0.000143243	0.000140306	0	5	0	
0.164167	0.000580533	-0.00209258	0.000151138	0.000207515	0	5	0	
0.164333	-0.0123572	0.00823674	0.000161703	0.000247177	0	5	0	
0.1645	0.0126964	-0.000919973	0.000219588	0.000229582	0	5	0	
0.164667	-0.00974057	0.0021174	0.000229967	0.000144093	0	5	0	
0.164833	0.0120943	-0.0121073	0.000229637	0.000125311	0	5	0	
0.165	-0.00716882	0.00563092	0.000201386	0.000176563	0	5	0	
0.165167	4.88035E-05	0.0128128	0.000166392	0.000227909	0	5	0	
0.165333	0.000204137	-0.00793226	0.000111446	0.000203117	0	5	0	
0.1655	-1.893E-05	-0.0100521	9.29537E-05	0.000247637	0	5	0	
0.165667	-0.000535019	0.0022707	0.000112936	0.000240429	0	5	0	
0.165833	0.00309062	0.00893543	0.000162952	0.000225795	0	5	0	
0.166	-0.00242943	0.000383812	0.00017173	0.000159296	0	5	0	
0.166167	-0.00120883	-0.0127725	0.000138947	0.000190136	0	5	0	
0.166333	-0.00102626	0.00309745	0.000106948	0.000199834	0	5	0	
0.1665	0.00621658	0.00485781	0.000116205	0.000180293	0	5	0	
0.166667	-0.00751157	0.00872666	0.000156008	0.000127016	0	5	0	
0.166833	0.0035548	-0.0144391	0.000155363	0.000166899	0	5	0	
0.167	-0.00375059	0.0126434	0.000121009	0.000262292	0	5	0	
0.167167	0.0100181	0.00171935	9.45738E-05	0.000244041	0	5	0	
0.167333	-0.00873782	-0.0271398	0.000139573	0.000289435	0	5	0	
0.1675	-0.00470853	0.0203421	0.000172555	0.000309682	0	5	0	
0.167667	0.0104526	0.0122623	0.000186575	0.000535867	0	5	0	
0.167833	-0.000539804	-0.0265425	0.000220056	0.000703628	0	5	0	
0.168	-0.00642042	0.00424056	0.000225842	0.000668148	0	5	0	
0.168167	0.00366042	0.00830243	0.000196546	0.000533335	0	5	0	
0.168333	-0.00425934	-0.00141831	0.000120515	0.000289725	0	5	0	
0.1685	0.00110189	0.000605234	7.39852E-05	0.000212072	0	5	0	
0.168667	0.00996562	-0.0119078	7.45594E-05	0.000134269	0	5	0	
0.168833	-0.0103467	-0.0148796	0.000128222	0.000318694	0	5	0	
0.169	-0.00814426	0.0441429	0.000258027	0.000640561	0	5	0	
0.169167	0.0164636	-0.0348018	0.000310419	0.000821108	0	5	0	
0.169333	-0.00278887	0.00873378	0.000309414	0.000878507	0	5	0	
0.1695	-0.000619151	-0.0571267	0.000207442	0.000788968	0	5	0	
0.169667	-0.0131895	0.0594723	0.00018001	0.0009173	0	5	0	
0.169833	-0.0033321	-0.00863762	0.000279425	0.00121419	0	5	0	
0.17	0.0221505	-0.050581	0.000374587	0.00134877	0	5	0	
0.170167	0.00447167	0.00369591	0.000482823	0.00143225	0	5	0	
0.170333	-0.019471	0.057758	0.000433866	0.00118861	0	5	0	
0.1705	-0.00842656	-0.0247513	0.000441082	0.00114445	0	5	0	
0.170667	0.0140131	-0.023659	0.000403983	0.000864735	0	5	0	
0.170833	0.00999092	-0.0715272	0.000385913	0.00119694	0	5	0	
0.171	-0.0132604	0.106577	0.000317661	0.00152342	0	5	0	
0.171167	-0.00519564	-0.0200133	0.000257763	0.00179443	0	5	0	
0.171333	-0.000450459	-0.0426005	0.000195487	0.00160406	0	5	0	
0.1715	0.0181323	0.00189634	0.000238034	0.00105789	0	5	0	
0.171667	-0.0177161	0.0459989	0.000279479	0.000935056	0	5	0	
0.171833	0.00425385	-0.00599718	0.000353736	0.000579763	0	5	0	
0.172	0.000135367	-0.0402277	0.000298043	0.000685686	0	5	0	
0.172167	0.00714787	0.0165918	0.000227329	0.00058069	0	5	0	
0.172333	-0.00988463	0.0363039	0.00015371	0.000717655	0	5	0	
0.1725	-0.000652263	-0.0321955	0.000131154	0.000735656	0	5	0	
0.172667	0.00363422	-0.0119654	0.000118973	0.00101639	0	5	0	
0.172833	0.0080074	0.0452984	0.000145467	0.000916238	0	5	0	
0.173	-0.0116759	-0.0305785	0.000171255	0.00099039	0	5	0	
0.173167	0.00902158	-0.0115576	0.000219913	0.000771695	0	5	0	
0.173333	-0.00216148	0.0306939	0.000181948	0.00067557	0	5	0	
0.1735	0.00119689	-0.0275173	0.000139248	0.000567612	0	5	0	
0.173667	-9.63118E-05	0.0215363	9.68199E-05	0.000470128	0	5	0	
0.173833	0.00152936	-0.00149833	8.37313E-05	0.000473137	0	5	0	
0.174	-0.00431969	-0.0253652	9.27253E-05	0.00035799	0	5	0	
0.174167	0.0082082	0.0237793	0.000119687	0.000370968	0	5	0	
0.174333	-0.00701687	-0.00751792	0.000149212	0.000373673	0	5	0	
0.1745	0.00374479	-0.00583245	0.000147498	0.000480758	0	5	0	
0.174667	0.00270009	0.01881	0.000152875	0.000500692	0	5	0	
0.174833	-0.00403499	-0.0185518	0.000120466	0.000512392	0	5	0	
0.175	-0.00572114	-0.00950446	0.000120333	0.000508095	0	5	0	
0.175167	0.0061493	0.0106387	0.000108937	0.000380955	0	5	0	
0.175333	0.00223133	0.0157505	0.000117969	0.000476504	0	5	0	
0.1755	-0.00426354	-0.0169615	0.000110209	0.000386049	0	5	0	
0.175667	-0.00827925	-0.00920443	0.000143928	0.000485197	0	5	0	
0.175833	0.0163604	-0.0215833	0.00024578	0.000400503	0	5	0	
0.176	-0.00485843	0.0161336	0.000279703	0.000579443	0	5	0	
0.176167	-0.00121473	-0.00470616	0.000265688	0.000663267	0	5	0	
0.176333	-0.0147674	-0.000362411	0.000172295	0.000612575	0	5	0	
0.1765	-0.00166434	-0.0343289	0.000192457	0.000435769	0	5	0	
0.176667	0.0386303	0.0190352	0.000279339	0.000430144	0	5	0	
0.176833	-0.017233	-0.00378818	0.000396648	0.00047995	0	5	0	
0.177	0.00134808	-0.0210853	0.000392804	0.000500156	0	5	0	
0.177167	-0.0160346	0.0128125	0.000343101	0.000424816	0	5	0	
0.177333	0.0125479	0.0104436	0.000293563	0.000494165	0	5	0	
0.1775	0.0173308	-0.0415205	0.000294322	0.000554776	0	5	0	
0.177667	-0.0202677	0.028823	0.000270678	0.000676751	0	5	0	
0.177833	0.0343201	0.0213743	0.000409629	0.000674089	0	5	0	
0.178	-0.0401104	0.0369219	0.000634661	0.000764251	0	5	0	
0.178167	0.0185809	0.000915657	0.000751243	0.000641678	0	5	0	
0.178333	0.0121995	-0.032016	0.00079391	0.000686604	0	5	0	
0.1785	-0.0169244	0.00367508	0.000718187	0.000522406	0	5	0	
0.178667	0.0092863	0.0437108	0.000598395	0.000582918	0	5	0	
0.178833	0.00544796	0.00737194	0.00054985	0.000626255	0	5	0	
0.179	-0.0144326	0.0184554	0.000519507	0.000593105	0	5	0	
0.179167	0.0192152	-0.0346963	0.000614441	0.00054678	0	5	0	
0.179333	-0.0251253	0.0717867	0.000532917	0.000674125	0	5	0	
0.1795	0.0264665	-0.0564903	0.000473561	0.000948288	0	5	0	
0.179667	-0.0124621	0.0218079	0.000463553	0.00105675	0	5	0	
0.179833	-0.00904829	0.0270298	0.000396542	0.000832213	0	5	0	
0.18	0.00726327	-0.0312469	0.000313132	0.000568969	0	5	0	
0.180167	0.0109418	-0.00843963	0.000253304	0.000480546	0	5	0	
0.180333	-0.0155612	0.017905	0.000223788	0.000438733	0	5	0	
0.1805	-0.00644966	-0.00795123	0.000235972	0.000482096	0	5	0	
0.180667	0.0151101	-0.0129069	0.000194491	0.000409177	0	5	0	
0.180833	-0.00295004	0.0180116	0.000266118	0.00033142	0	5	0	
0.181	-0.0099499	-0.00879441	0.000351432	0.000264833	0	5	0	
0.181167	0.018624	-0.0182237	0.000393937	0.000325663	0	5	0	
0.181333	-0.0170654	0.0215603	0.000330876	0.000424245	0	5	0	
0.1815	0.00561785	0.00748817	0.000285071	0.000486275	0	5	0	
0.181667	0.000426779	0.0131066	0.000248215	0.000390458	0	5	0	
0.181833	-0.00276765	-0.0170482	0.000197363	0.000376712	0	5	0	
0.182	0.00669885	-0.00446571	0.00012979	0.000311124	0	5	0	
0.182167	-0.00697033	-0.00426533	0.00010948	0.000309594	0	5	0	
0.182333	-0.00357752	0.0157461	0.000211432	0.000299261	0	5	0	
0.1825	0.0155	0.0177886	0.000291458	0.000395873	0	5	0	
0.182667	-0.01212	-0.0193394	0.00033858	0.000559775	0	5	0	
0.182833	0.00477914	-0.00561266	0.000264441	0.000664548	0	5	0	
0.183	-0.00933842	0.0411812	0.000184705	0.000830346	0	5	0	
0.183167	0.00374803	-0.017069	0.000148878	0.000762028	0	5	0	
0.183333	0.00586022	-0.0198548	0.000139698	0.000641846	0	5	0	
0.1835	-0.000565577	-0.0144662	0.000129905	0.000523025	0	5	0	
0.183667	-0.00263637	0.0356764	0.000120932	0.000496125	0	5	0	
0.183833	0.00313466	-0.00200352	0.000128885	0.000559322	0	5	0	
0.184	-0.0152224	-0.00758262	0.000176061	0.000373458	0	5	0	
0.184167	0.00999538	-0.00422004	0.000202302	0.000299467	0	5	0	
0.184333	0.0146312	-0.0178448	0.000311185	0.000210293	0	5	0	
0.1845	-0.0160225	0.0347179	0.000323253	0.000340498	0	5	0	
0.184667	-0.00703878	0.0180273	0.00039974	0.000690439	0	5	0	
0.184833	0.00854338	-0.0615384	0.000346763	0.000950751	0	5	0	
0.185	0.00247168	0.0358359	0.000297125	0.00109763	0	5	0	
0.185167	0.00858635	-0.00401573	0.000268845	0.000918271	0	5	0	
0.185333	-0.0264963	0.0128489	0.000267134	0.000615152	0	5	0	
0.1855	0.0109359	0.00975166	0.000405119	0.000423644	0	5	0	
0.185667	0.013042	-0.0596148	0.000452188	0.000550263	0	5	0	
0.185833	-0.0127328	0.0402789	0.000447415	0.000785522	0	5	0	
0.186	-0.00546312	0.042631	0.000408661	0.00134302	0	5	0	
0.186167	0.00485586	-0.0656335	0.000266284	0.00142243	0	5	0	
0.186333	-0.000553509	0.0021595	0.000205009	0.00149681	0	5	0	
0.1865	0.00810154	0.0463138	0.000108149	0.00113706	0	5	0	
0.186667	-0.00587437	-0.00442545	0.000151545	0.000871879	0	5	0	
0.186833	-0.00519706	-0.0424553	0.000138894	0.000824555	0	5	0	
0.187	0.00398958	0.0230853	0.000131148	0.000794594	0	5	0	
0.187167	0.00279619	-0.0122733	0.000145282	0.000740615	0	5	0	
0.187333	-0.00607299	0.00974837	0.000155615	0.000494561	0	5	0	
0.1875	0.00240679	0.0165598	0.000160482	0.000313519	0	5	0	
0.187667	0.00225273	-0.0154098	9.6744E-05	0.00028106	0	5	0	
0.187833	0.00115484	0.00240762	0.000104735	0.000344783	0	5	0	
0.188	0.000736299	-0.0137869	7.25829E-05	0.000360732	0	5	0	
0.188167	-0.00311693	0.014345	5.91503E-05	0.000420102	0	5	0	
0.188333	-0.00588881	0.00140571	5.9017E-05	0.000538192	0	5	0	
0.1885	0.00750955	-0.00886021	9.13708E-05	0.000473825	0	5	0	
0.188667	0.00336395	-0.0130489	0.000130357	0.000480349	0	5	0	
0.188833	-0.00670981	0.0156994	0.000124844	0.00028874	0	5	0	
0.189	-0.0044787	0.016672	0.000170633	0.000489481	0	5	0	
0.189167	0.00909853	-0.0227569	0.000177397	0.000478524	0	5	0	
0.189333	-3.10345E-05	-0.00979646	0.000183278	0.000653234	0	5	0	
0.1895	-0.00663239	0.0342195	0.000133083	0.000641935	0	5	0	
0.189667	0.00671453	-0.0170971	0.000119709	0.000681411	0	5	0	
0.189833	-0.00569504	-0.0342544	0.000128722	0.000869691	0	5	0	
0.19	-0.000112824	0.0439519	0.000150532	0.000843633	0	5	0	
0.190167	0.00479422	-0.00301173	0.000176377	0.00091278	0	5	0	
0.190333	-0.00992274	-0.0157354	0.000182511	0.000673227	0	5	0	
0.1905	0.00976358	0.000325999	0.000178722	0.000560088	0	5	0	
0.190667	-0.00753304	0.0117443	0.000176954	0.000353913	0	5	0	
0.190833	-0.00478344	0.00685654	0.000200048	0.000245539	0	5	0	
0.191	0.0085662	-0.00368228	0.000197189	0.000220947	0	5	0	
0.191167	-0.00342388	-0.0155106	0.000182063	0.000357217	0	5	0	
0.191333	-0.00229881	0.016495	0.000127079	0.000371113	0	5	0	
0.1915	-0.00537533	0.0107818	9.36581E-05	0.000427831	0	5	0	
0.191667	0.000203108	0.00272754	0.000108911	0.000279767	0	5	0	
0.191833	0.00323793	-0.00833322	0.000190469	0.000275391	0	5	0	
0.192	-0.0042415	0.0127547	0.000251079	0.000229998	0	5	0	
0.192167	0.00691775	-0.00296236	0.000251833	0.00022905	0	5	0	
0.192333	-0.0116994	0.0296306	0.000207494	0.000295535	0	5	0	
0.1925	0.000843033	-0.00953485	0.000172002	0.000328261	0	5	0	
0.192667	0.0102737	0.00275411	0.000167868	0.000331619	0	5	0	
0.192833	-0.0165537	-0.00430154	0.000189431	0.000321441	0	5	0	
0.193	0.00678224	0.0322499	0.000240509	0.000418704	0	5	0	
0.193167	-0.000787634	-0.00397241	0.000242034	0.000473507	0	5	0	
0.193333	-0.00406925	-0.00789401	0.000225124	0.000429577	0	5	0	
0.1935	0.00717851	0.00859783	0.000195221	0.000331449	0	5	0	
0.193667	-0.00753543	0.0219232	0.000173542	0.000410123	0	5	0	
0.193833	-0.00589268	-0.00245674	0.000198476	0.000400004	0	5	0	
0.194	0.0109885	-0.0255071	0.000221001	0.00045042	0	5	0	
0.194167	-0.0105398	0.0273274	0.000245567	0.000407341	0	5	0	
0.194333	0.00313674	0.0153736	0.000256166	0.000542188	0	5	0	
0.1945	0.00281539	-0.0259457	0.000257933	0.000547006	0	5	0	
0.194667	-0.00954872	0.00551103	0.000257297	0.000473801	0	5	0	
0.194833	0.00793498	-0.00362248	0.000225934	0.000369627	0	5	0	
0.195	-0.00516514	0.0085128	0.000165947	0.000258756	0	5	0	
0.195167	-0.000444092	0.00402912	0.00013382	0.00023913	0	5	0	
0.195333	0.001581	-0.000368924	7.34411E-05	0.000178588	0	5	0	
0.1955	-0.00244603	5.84208E-05	6.18118E-05	0.000172439	0	5	0	
0.195667	-0.00028582	0.000218464	3.69195E-05	0.000187327	0	5	0	
0.195833	-0.00229134	-0.0166249	4.55245E-05	0.000201175	0	5	0	
0.196	-0.00365941	0.010952	5.96273E-05	0.000242814	0	5	0	
0.196167	0.00371636	0.00592227	8.60009E-05	0.000223942	0	5	0	
0.196333	-0.000565231	-0.00620978	8.02197E-05	0.000235467	0	5	0	
0.1965	-0.00294124	0.0018425	6.46542E-05	0.000146435	0	5	0	
0.196667	-0.00255704	0.000923855	0.000111236	0.000164927	0	5	0	
0.196833	0.010012	0.00419635	0.000184553	0.000130036	0	5	0	
0.197	-0.00567684	-0.00445739	0.000212736	0.000157079	0	5	0	
0.197167	-0.00546304	-0.0209987	0.000155557	0.000259301	0	5	0	
0.197333	-0.00615255	0.0398263	0.00014471	0.00042556	0	5	0	
0.1975	0.0192741	-0.00762968	0.00022497	0.000540532	0	5	0	
0.197667	-0.0125846	-0.0302809	0.000291684	0.00065421	0	5	0	
0.197833	-0.00315685	0.0305115	0.000304057	0.000629564	0	5	0	
0.198	-0.00577141	0.026341	0.000222364	0.000745943	0	5	0	
0.198167	0.0160601	-0.0369871	0.000206211	0.000684142	0	5	0	
0.198333	0.00417705	-0.0240394	0.000239273	0.000764522	0	5	0	
0.1985	-0.01948	0.0279457	0.000258596	0.000636823	0	5	0	
0.198667	-0.0128191	0.0441235	0.000438996	0.000859867	0	5	0	
0.198833	0.0288349	-0.0527145	0.000516899	0.000849989	0	5	0	
0.199	0.00635056	-0.0675161	0.00062125	0.00141352	0	5	0	
0.199167	-0.0218963	0.124676	0.000477507	0.00160106	0	5	0	
0.199333	-0.0132783	-0.0101467	0.000486173	0.00205122	0	5	0	
0.1995	0.0240488	-0.0941035	0.000429572	0.00170151	0	5	0	
0.199667	0.0100728	0.00808047	0.000524984	0.00171518	0	5	0	
0.199833	-0.0169678	0.0780526	0.000386351	0.00159675	0	5	0	
0.2	-0.0159366	-0.0359082	0.000505182	0.00156857	0	5	0	
0.200167	0.0279283	0.0104915	0.000415108	0.00111444	0	5	0	
0.200333	-0.00268567	-0.0208918	0.000509142	0.00110062	0	5	0	
0.2005	-0.00187067	0.0396041	0.00032419	0.00116212	0	5	0	
0.200667	-0.0104221	0.017037	0.000288539	0.00140902	0	5	0	
0.200833	0.00582441	-0.0744746	0.000161352	0.00131097	0	5	0	
0.201	0.00777561	0.0368334	0.000212342	0.00138673	0	5	0	
0.201167	-0.0132539	0.0586855	0.000194781	0.00165148	0	5	0	
0.201333	0.00280544	-0.0269683	0.000290653	0.00157579	0	5	0	
0.2015	0.0137242	-0.0181463	0.000332626	0.00130231	0	5	0	
0.201667	-0.00938127	0.0091367	0.00034902	0.000681166	0	5	0	
0.201833	0.00180374	0.0120199	0.000251382	0.000427847	0	5	0	
0.202	-0.00370717	-0.000549414	0.000152963	0.000252017	0	5	0	
0.202167	-0.00172208	-0.00521025	9.54132E-05	0.000251343	0	5	0	
0.202333	0.00481159	0.00792235	0.000103573	0.000194846	0	5	0	
0.2025	-0.002868	-0.0166958	8.81056E-05	0.000384501	0	5	0	
0.202667	0.000230146	0.0282725	0.000109036	0.000468214	0	5	0	
0.202833	-0.00206556	-0.00715412	7.68365E-05	0.000513858	0	5	0	
0.203	0.00142286	-0.0108918	8.76143E-05	0.000428566	0	5	0	
0.203167	0.00751784	-0.00435697	0.00011878	0.000297903	0	5	0	
0.203333	-0.00738367	0.00412049	0.000159491	0.000220716	0	5	0	
0.2035	-0.000954124	0.0165664	0.000154406	0.000197114	0	5	0	
0.203667	0.00191259	-0.00381125	0.000110951	0.000382213	0	5	0	
0.203833	0.00427318	-0.018149	0.000119408	0.000594699	0	5	0	
0.204	0.00303327	0.0133245	0.000122421	0.000644558	0	5	0	
0.204167	-0.00529912	-0.00291849	0.000131389	0.000518521	0	5	0	
0.204333	0.00085997	-0.00673283	0.000101677	0.000354939	0	5	0	
0.2045	-0.00105325	0.00446675	8.49153E-05	0.000274527	0	5	0	
0.204667	0.00693338	0.00977794	7.95518E-05	0.000312615	0	5	0	
0.204833	-0.00788003	-0.00832167	9.94372E-05	0.000254695	0	5	0	
0.205	0.00800872	-0.0140108	0.000174876	0.000227435	0	5	0	
0.205167	3.93313E-06	0.00710795	0.000198302	0.000203932	0	5	0	
0.205333	-0.0121307	0.0209316	0.000251521	0.000276116	0	5	0	
0.2055	0.0203941	-0.0154617	0.000290877	0.00035508	0	5	0	
0.205667	-0.0120395	-0.00455633	0.000333947	0.000289267	0	5	0	
0.205833	-0.00753943	0.00758686	0.000358193	0.000230912	0	5	0	
0.206	0.0179273	0.00267107	0.00033369	0.000200042	0	5	0	
0.206167	-0.0143212	-0.00896644	0.000329235	0.000193952	0	5	0	
0.206333	0.00486932	-0.000769461	0.000297588	0.000223461	0	5	0	
0.2065	0.00669861	0.00616718	0.000327097	0.000186832	0	5	0	
0.206667	-0.0154821	0.000677213	0.000359323	0.00019774	0	5	0	
0.206833	0.0128885	-0.0018796	0.00034605	0.000163888	0	5	0	
0.207	-0.000790772	0.0120636	0.000275389	0.000172847	0	5	0	
0.207167	-0.00914437	-0.00606177	0.0002185	0.000201592	0	5	0	
0.207333	0.0065182	-5.48811E-05	0.000177816	0.000258913	0	5	0	
0.2075	-0.00236816	-0.015487	0.000188067	0.000322493	0	5	0	
0.207667	-0.00286452	0.0299714	0.000195722	0.000392029	0	5	0	
0.207833	0.000615606	-0.0182637	0.000199942	0.000445225	0	5	0	
0.208	-0.00262547	-0.000264213	0.000133983	0.000525325	0	5	0	
0.208167	-0.00159913	0.0265451	8.00933E-05	0.00053939	0	5	0	
0.208333	0.00398551	-0.00934575	6.30527E-05	0.000477657	0	5	0	
0.2085	-0.00196841	-0.0134024	8.40897E-05	0.000486782	0	5	0	
0.208667	-0.00482806	0.021854	0.000133242	0.000480576	0	5	0	
0.208833	0.00782847	-0.0134564	0.000162616	0.000497612	0	5	0	
0.209	-0.0072779	0.0125958	0.000177336	0.000356266	0	5	0	
0.209167	0.00596803	-0.0133066	0.000148453	0.00026415	0	5	0	
0.209333	-0.00476674	0.0127438	0.000125816	0.000244376	0	5	0	
0.2095	0.00599706	0.0101548	0.000123519	0.000220005	0	5	0	
0.209667	-0.00646014	-0.00652528	0.00011847	0.000258446	0	5	0	
0.209833	0.00241937	-0.0194296	0.000103536	0.000286019	0	5	0	
0.21	0.00301961	0.0257505	8.78861E-05	0.000373478	0	5	0	
0.210167	-0.000872847	-0.00233064	6.62132E-05	0.000375411	0	5	0	
0.210333	-0.00238408	-0.00889961	9.36526E-05	0.000341363	0	5	0	
0.2105	0.00603491	0.00587272	0.000104385	0.000255978	0	5	0	
0.210667	-0.00780101	0.0117638	0.000137123	0.000261152	0	5	0	
0.210833	0.0116705	-0.019349	0.000158577	0.000267585	0	5	0	
0.211	-0.0190762	0.00212495	0.000210456	0.00028246	0	5	0	
0.211167	0.0224619	-0.0224111	0.0003939	0.000333051	0	5	0	
0.211333	0.00294849	0.00205369	0.000423965	0.000404135	0	5	0	
0.2115	-0.0110327	0.0195742	0.00041275	0.000539784	0	5	0	
0.211667	-0.00271907	-0.0106984	0.000270258	0.000535119	0	5	0	
0.211833	0.00754598	-0.00187166	0.000278764	0.000415143	0	5	0	
0.212	-0.0201547	0.0178383	0.00029018	0.000291263	0	5	0	
0.212167	0.022302	-0.0355341	0.000379588	0.00029735	0	5	0	
0.212333	0.0025783	-0.0109065	0.000394721	0.000481923	0	5	0	
0.2125	-0.00857124	0.0263729	0.000412577	0.000606808	0	5	0	
0.212667	-0.00229792	-0.0178466	0.000274422	0.000651504	0	5	0	
0.212833	-0.00749246	0.00368249	0.000212426	0.000603072	0	5	0	
0.213	0.000985855	0.00901476	0.000142798	0.00048321	0	5	0	
0.213167	0.0051307	-0.00471551	0.000209756	0.000457586	0	5	0	
0.213333	0.0011081	0.0120952	0.000174475	0.000527094	0	5	0	
0.2135	-0.01373	-0.0408252	0.000191959	0.000580614	0	5	0	
0.213667	-0.00527217	0.02995	0.00018096	0.000674096	0	5	0	
0.213833	0.0183354	-0.0104424	0.00022392	0.000573396	0	5	0	
0.214	0.00636279	-0.00825858	0.000341849	0.000486935	0	5	0	
0.214167	-0.0250577	0.0245773	0.000370923	0.000333813	0	5	0	
0.214333	0.00666402	-0.0269764	0.000409578	0.000362804	0	5	0	
0.2145	0.00251318	-0.00284929	0.000322383	0.000477716	0	5	0	
0.214667	0.001372	0.00754055	0.00021902	0.000606613	0	5	0	
0.214833	0.00723032	0.012949	0.000170998	0.000594246	0	5	0	
0.215	-0.0150962	-0.00904976	0.000185712	0.00054132	0	5	0	
0.215167	0.0121999	-0.014899	0.000235493	0.000407092	0	5	0	
0.215333	-0.00368944	0.0209481	0.000253677	0.000354922	0	5	0	
0.2155	-0.00466184	0.00194768	0.000175333	0.000338438	0	5	0	
0.215667	0.00563241	-0.0160849	0.000162005	0.000289195	0	5	0	
0.215833	-0.000554074	-0.00431046	0.000158048	0.000271199	0	5	0	
0.216	-0.00386977	0.00500858	0.00018279	0.000200564	0	5	0	
0.216167	-0.00383169	0.0151674	0.000136972	0.000181409	0	5	0	
0.216333	0.0108593	0.000103983	9.22792E-05	0.000176075	0	5	0	
0.2165	-0.0216004	-0.00484834	0.000183957	0.00037887	0	5	0	
0.216667	0.00143844	0.0200901	0.000245812	0.000431971	0	5	0	
0.216833	0.00722893	-0.0353943	0.000256036	0.000609889	0	5	0	
0.217	-0.00136711	0.0143421	0.00017665	0.000591479	0	5	0	
0.217167	0.000791642	-0.0105236	0.000178002	0.000697828	0	5	0	
0.217333	-0.00917316	0.00124385	0.000205771	0.000524689	0	5	0	
0.2175	-0.000649465	0.0290353	0.000212154	0.000390593	0	5	0	
0.217667	-0.000183463	-0.0257516	0.000336432	0.000432113	0	5	0	
0.217833	-0.0163393	0.00976338	0.000414145	0.0004959	0	5	0	
0.218	0.0255461	-0.0218716	0.000484549	0.00080722	0	5	0	
0.218167	-0.0102525	0.015328	0.000421786	0.000830835	0	5	0	
0.218333	-0.00288112	0.00291531	0.000308355	0.000749176	0	5	0	
0.2185	-0.000716736	-0.0161775	0.000192869	0.000455326	0	5	0	
0.218667	-0.00492342	0.00650964	9.31511E-05	0.000280585	0	5	0	
0.218833	0.00971191	0.00679879	0.000102246	0.000227656	0	5	0	
0.219	-0.00164241	-0.00983468	0.000159693	0.000186755	0	5	0	
0.219167	-0.0059727	-0.00910801	0.00020462	0.000160515	0	5	0	
0.219333	-0.00393452	0.0221767	0.000191789	0.000243107	0	5	0	
0.2195	0.0040832	0.011425	0.000182002	0.000280292	0	5	0	
0.219667	0.000541875	-0.0294181	0.000119962	0.000389985	0	5	0	
0.219833	-0.00230711	0.00709857	0.000108385	0.000455944	0	5	0	
0.22	-0.000409817	0.00830586	6.2688E-05	0.000416746	0	5	0	
0.220167	-0.000311681	-0.00456334	4.64708E-05	0.00031517	0	5	0	
0.220333	0.00119862	-0.0044678	6.88489E-05	0.000180416	0	5	0	
0.2205	-0.00742205	0.00310368	7.06874E-05	0.000178234	0	5	0	
0.220667	0.00291764	0.000950141	0.00011388	0.000176119	0	5	0	
0.220833	0.0025842	0.001026	0.000139492	0.000176007	0	5	0	
0.221	-0.00189145	0.00307717	0.000141492	0.000169877	0	5	0	
0.221167	-0.00171552	-0.00924638	0.00010201	0.000192859	0	5	0	
0.221333	0.000150216	0.00154708	5.34996E-05	0.000240018	0	5	0	
0.2215	0.00197965	-0.00658504	4.02059E-05	0.000243026	0	5	0	
0.221667	0.00198921	-9.63847E-05	5.28496E-05	0.000212869	0	5	0	
0.221833	-0.00765615	0.00766026	7.45823E-05	0.000170647	0	5	0	
0.222	-0.00144459	-0.00405491	0.000145515	0.000223694	0	5	0	
0.222167	0.00842646	-0.0036198	0.000206154	0.000207989	0	5	0	
0.222333	-0.00974976	-0.00181755	0.000208465	0.000186029	0	5	0	
0.2225	0.00584426	-0.00750247	0.000185323	0.000123731	0	5	0	
0.222667	-0.000547724	0.0105459	0.000133604	0.000179376	0	5	0	
0.222833	-0.00481384	-0.00150993	0.000123855	0.00023803	0	5	0	
0.223	0.00219694	-0.0081921	9.50121E-05	0.000235035	0	5	0	
0.223167	-0.00373125	0.00141975	0.000101823	0.000176526	0	5	0	
0.223333	-0.00286569	0.00197411	0.000142249	0.000124988	0	5	0	
0.2235	0.00887716	0.00654485	0.000179873	0.000130374	0	5	0	
0.223667	-0.00727821	-0.0145415	0.00018531	0.000162131	0	5	0	
0.223833	-0.00702405	0.0137551	0.000171535	0.000192789	0	5	0	
0.224	0.0120069	-0.00827046	0.000163107	0.000286522	0	5	0	
0.224167	-0.0092538	-0.00439778	0.000216884	0.000369792	0	5	0	
0.224333	-0.00087196	0.00285214	0.000276502	0.000460658	0	5	0	
0.2245	0.00555039	0.00665647	0.000300483	0.00041639	0	5	0	
0.224667	-0.00484219	-0.0103129	0.000247029	0.000317868	0	5	0	
0.224833	0.000830211	-0.000715479	0.000171158	0.000227218	0	5	0	
0.225	-0.00578239	0.00760695	0.000156812	0.000226582	0	5	0	
0.225167	0.00585142	0.00236662	0.000184903	0.000192937	0	5	0	
0.225333	-0.00310088	-0.023644	0.000167042	0.000245304	0	5	0	
0.2255	-0.00397652	0.0265743	0.000131946	0.000308569	0	5	0	
0.225667	0.0035841	-0.0186711	8.14263E-05	0.000431221	0	5	0	
0.225833	-0.00604017	0.0121062	9.26187E-05	0.000427014	0	5	0	
0.226	0.00881109	-0.00535089	0.000107293	0.000419948	0	5	0	
0.226167	-0.0108753	-0.00596291	0.000184074	0.000436528	0	5	0	
0.226333	-0.00217303	0.00867474	0.000253216	0.00043312	0	5	0	
0.2265	0.0111518	-0.00534782	0.000293345	0.000382213	0	5	0	
0.226667	-0.0113078	0.000655304	0.000262738	0.000236911	0	5	0	
0.226833	-0.00227796	0.0156721	0.000222285	0.000242197	0	5	0	
0.227	0.00788012	-0.0241099	0.00015916	0.00027763	0	5	0	
0.227167	-0.000649464	0.00377881	0.000173909	0.000420338	0	5	0	
0.227333	-0.0133458	0.0208818	0.000170422	0.000533364	0	5	0	
0.2275	0.00868074	-0.0093994	0.000223928	0.000491482	0	5	0	
0.227667	-0.00359333	-0.00907183	0.00019929	0.000520353	0	5	0	
0.227833	-0.00065434	0.0161247	0.000146971	0.000344944	0	5	0	
0.228	0.0102154	0.00725683	0.000100357	0.000447312	0	5	0	
0.228167	-0.0115483	-0.00527219	0.000126827	0.000370103	0	5	0	
0.228333	-0.00984036	-0.014764	0.000275683	0.000364626	0	5	0	
0.2285	0.0189619	0.00869792	0.000361064	0.000341157	0	5	0	
0.228667	-0.010959	0.0278502	0.000362859	0.000512884	0	5	0	
0.228833	0.00120739	-0.014749	0.000244125	0.00060452	0	5	0	
0.229	0.00140811	-0.0250999	0.000141757	0.000586806	0	5	0	
0.229167	-0.00779161	0.028808	9.74269E-05	0.000460263	0	5	0	
0.229333	0.0096457	0.0017181	0.00010691	0.000516161	0	5	0	
0.2295	-0.00286576	-0.00100835	0.000186451	0.000420937	0	5	0	
0.229667	-0.00819882	-0.0104172	0.000240081	0.000351404	0	5	0	
0.229833	0.00234654	0.00835877	0.000239405	0.000246985	0	5	0	
0.23	0.00206816	-0.0113105	0.000170762	0.000269929	0	5	0	
0.230167	-0.0056535	0.0191464	0.000119126	0.000276571	0	5	0	
0.230333	0.00731066	-0.0164295	0.000110528	0.000299618	0	5	0	
0.2305	-0.0074668	-0.000651704	0.000139408	0.000314457	0	5	0	
0.230667	0.000482981	0.0162647	0.000159921	0.000293774	0	5	0	
0.230833	0.00208322	-0.00842683	0.000171734	0.000254662	0	5	0	
0.231	-0.00498452	-0.00245025	0.00013345	0.000229396	0	5	0	
0.231167	0.00502743	0.00309548	0.000100602	0.000184662	0	5	0	
0.231333	-0.00373421	-0.00101051	8.87114E-05	0.000138818	0	5	0	
0.2315	-5.98427E-05	-0.00593145	9.33163E-05	0.000111624	0	5	0	
0.231667	0.00208754	0.00470749	6.42706E-05	0.000100769	0	5	0	
0.231833	-0.00347036	0.00582782	6.46829E-05	0.000116613	0	5	0	
0.232	0.000267249	-0.00633654	0.000106551	0.00011017	0	5	0	
0.232167	0.00812416	0.00473178	0.000187215	0.000158926	0	5	0	
0.232333	-0.0114752	-0.00286479	0.000218093	0.000202118	0	5	0	
0.2325	0.00275012	-0.00386191	0.000199379	0.000227745	0	5	0	
0.232667	0.0051008	0.00860154	0.000155924	0.000198778	0	5	0	
0.232833	-0.00570628	-0.000310735	0.000134467	0.000165432	0	5	0	
0.233	0.00136902	-0.0102623	0.000131491	0.000140774	0	5	0	
0.233167	-0.00233749	0.00882564	0.00011776	0.000148631	0	5	0	
0.233333	-0.00293732	-0.000600008	0.000131838	0.00013108	0	5	0	
0.2335	0.00937675	0.00170686	0.000156079	0.000129979	0	5	0	
0.233667	-0.00368986	0.00682655	0.000169273	0.000142166	0	5	0	
0.233833	-0.00722636	-0.0172999	0.000147102	0.000176238	0	5	0	
0.234	0.00522211	0.000654433	0.000118477	0.000203356	0	5	0	
0.234167	-0.00288723	0.0152735	0.000130176	0.000206906	0	5	0	
0.234333	0.00367873	-0.0132785	0.000136851	0.000234598	0	5	0	
0.2345	-5.95315E-05	0.00198529	0.000162419	0.000307617	0	5	0	
0.234667	-0.00686894	0.00419112	0.000185505	0.0003126	0	5	0	
0.234833	0.00302903	-0.00156677	0.000167993	0.000241959	0	5	0	
0.235	0.00524061	-0.0114884	0.000160136	0.000153228	0	5	0	
0.235167	-0.00983823	0.00440898	0.000135078	0.000125629	0	5	0	
0.235333	0.00716481	0.00416421	0.000159931	0.000127645	0	5	0	
0.2355	-0.00224262	-0.00305422	0.000148786	0.000108972	0	5	0	
0.235667	0.00280643	-0.00374913	0.000130915	9.6214E-05	0	5	0	
0.235833	-0.00275036	0.00857321	0.000118755	0.00011532	0	5	0	
0.236	-0.0029845	-0.00113871	0.000128427	0.000133414	0	5	0	
0.236167	0.00684591	-0.0102427	0.000136046	0.000126342	0	5	0	
0.236333	-0.00230326	0.00538601	0.000125147	0.000139189	0	5	0	
0.2365	-0.00503708	0.00611685	0.000110347	0.000140028	0	5	0	
0.236667	0.00374602	-0.00511954	9.65955E-05	0.000194059	0	5	0	
0.236833	0.000778655	0.00123805	0.000126867	0.000180542	0	5	0	
0.237	-0.00258469	-0.00456561	0.000121252	0.000163818	0	5	0	
0.237167	-0.00202525	0.00458542	0.000102776	0.000134019	0	5	0	
0.237333	0.00410166	-0.000830492	6.38577E-05	0.000148074	0	5	0	
0.2375	-0.00180244	-0.00310657	6.22211E-05	0.000167184	0	5	0	
0.237667	0.000950181	0.000825583	7.12228E-05	0.00014408	0	5	0	
0.237833	-0.00779202	0.00126441	8.79901E-05	8.9037E-05	0	5	0	
0.238	0.00338905	-0.00535558	0.000121785	5.42975E-05	0	5	0	
0.238167	0.00429569	0.008349	0.000202797	7.47241E-05	0	5	0	
0.238333	-0.00800527	-0.00485256	0.000222159	0.000128751	0	5	0	
0.2385	0.00261206	-0.00228808	0.000186333	0.000180235	0	5	0	
0.238667	0.000988416	-0.00111429	0.000124122	0.000202346	0	5	0	
0.238833	-0.00350575	0.00361307	8.3004E-05	0.000179902	0	5	0	
0.239	0.000656579	-0.00160426	6.76016E-05	0.000134065	0	5	0	
0.239167	-0.00364499	0.00159841	4.83469E-05	0.000104352	0	5	0	
0.239333	0.00430107	0.000609375	6.27551E-05	0.000122864	0	5	0	
0.2395	-0.00031303	0.00133733	0.000103808	0.000114589	0	5	0	
0.239667	-0.0048716	-0.00430038	0.000129851	8.45294E-05	0	5	0	
0.239833	-0.00295172	-0.00327326	0.000118038	6.70068E-05	0	5	0	
0.24	0.00699077	0.00613633	9.16173E-05	9.41675E-05	0	5	0	
0.240167	-0.00299334	-0.00147377	0.000108096	0.00010676	0	5	0	
0.240333	-0.00770111	0.00582695	0.000185435	0.000101547	0	5	0	
0.2405	0.0104524	-0.00892817	0.000224969	0.000110175	0	5	0	
0.240667	-0.00638698	-0.00269442	0.000224545	0.000168823	0	5	0	
0.240833	0.000312031	0.0129289	0.000179387	0.000212735	0	5	0	
0.241	-0.00325929	-0.00301195	0.000141826	0.000256243	0	5	0	
0.241167	-0.00226961	-0.0165818	0.000168981	0.000342886	0	5	0	
0.241333	0.0204387	0.0223399	0.000237555	0.000383298	0	5	0	
0.2415	-0.0268431	0.0196958	0.000354555	0.000472947	0	5	0	
0.241667	0.0110191	-0.0985505	0.000551596	0.000634165	0	5	0	
0.241833	0.0141714	0.0483584	0.00067496	0.00103647	0	5	0	
0.242	-0.00278622	0.0215983	0.000707983	0.00123509	0	5	0	
0.242167	0.0142969	-0.028609	0.00056156	0.00125345	0	5	0	
0.242333	-0.0188474	0.0242642	0.000424273	0.000897536	0	5	0	
0.2425	-0.0101862	-0.00361136	0.000428096	0.000608664	0	5	0	
0.242667	0.0319158	-0.0287022	0.000498528	0.000374205	0	5	0	
0.242833	-0.0189205	-0.00532171	0.000507823	0.000651434	0	5	0	
0.243	0.0201682	-0.00950153	0.000501322	0.000875014	0	5	0	
0.243167	-0.00578689	0.0365843	0.00038324	0.00093224	0	5	0	
0.243333	-0.000488501	-0.0130296	0.000301477	0.000756056	0	5	0	
0.2435	-0.00281847	-0.00673205	0.000144865	0.000610873	0	5	0	
0.243667	-0.00117173	-0.00538296	6.7133E-05	0.000476139	0	5	0	
0.243833	-0.00184818	0.0109985	7.8693E-05	0.000303339	0	5	0	
0.244	-0.00119385	-0.00744475	8.82069E-05	0.00018973	0	5	0	
0.244167	-0.00466767	0.00406283	9.83962E-05	0.000290952	0	5	0	
0.244333	0.00639498	0.000833463	9.52181E-05	0.000276014	0	5	0	
0.2445	-0.00577681	0.00460036	0.000105602	0.000245677	0	5	0	
0.244667	0.000729864	-0.0187333	9.99501E-05	0.000184609	0	5	0	
0.244833	0.00070263	0.0229351	0.000104831	0.000254868	0	5	0	
0.245	-0.00339524	-0.014941	0.000111202	0.00039292	0	5	0	
0.245167	0.00078234	0.00400617	0.000132381	0.000457645	0	5	0	
0.245333	-0.00526574	0.00481927	0.000104834	0.000419908	0	5	0	
0.2455	0.00400974	0.00128172	9.00647E-05	0.000306251	0	5	0	
0.245667	0.00385319	-0.00849724	0.000118434	0.000209652	0	5	0	
0.245833	-0.0109951	0.0065091	0.000147401	0.000143824	0	5	0	
0.246	0.00163758	0.00157804	0.000199339	0.00013667	0	5	0	
0.246167	0.00392819	0.00721996	0.000227367	0.000130381	0	5	0	
0.246333	0.00145155	-0.017987	0.00022139	0.000167488	0	5	0	
0.2465	-0.00512811	0.0183788	0.000185524	0.000278025	0	5	0	
0.246667	-0.00212571	-0.000402782	0.00018757	0.000472259	0	5	0	
0.246833	0.00583732	-0.0147421	0.000238417	0.000577693	0	5	0	
0.247	-0.0047817	0.00642334	0.000220655	0.000473166	0	5	0	
0.247167	-0.0071347	0.0213609	0.000170128	0.000317142	0	5	0	
0.247333	0.0162595	-0.0208949	0.000146239	0.000286357	0	5	0	
0.2475	-0.0111322	0.00588189	0.000221799	0.000405697	0	5	0	
0.247667	-0.000976557	-0.00618348	0.000261018	0.000390449	0	5	0	
0.247833	-0.000579613	0.0146968	0.000229926	0.000304809	0	5	0	
0.248	0.00145765	-0.00874622	0.000142875	0.000226625	0	5	0	
0.248167	0.00161379	0.000833029	0.00011302	0.000262481	0	5	0	
0.248333	-8.68791E-05	-0.0027156	0.000107218	0.000235203	0	5	0	
0.2485	-0.00856776	0.00694394	0.000119373	0.000178473	0	5	0	
0.248667	0.00839041	-0.00524298	0.000109462	0.000135117	0	5	0	
0.248833	-0.00114481	-0.00224714	0.000158142	0.000122426	0	5	0	
0.249	-0.00445693	0.000290839	0.000213249	0.000107981	0	5	0	
0.249167	0.00077633	0.00554662	0.000199619	8.07532E-05	0	5	0	
0.249333	0.00277235	-0.00996997	0.000142117	0.000119282	0	5	0	
0.2495	-0.0031111	-0.00176034	7.19905E-05	0.000140284	0	5	0	
0.249667	-0.000923987	0.0111035	5.64984E-05	0.000152286	0	5	0	
0.249833	-0.00147053	-0.0108979	5.07797E-05	0.000168888	0	5	0	
0.25	0.00504927	-0.00635362	6.07522E-05	0.000184478	0	5	0	
0.250167	-0.00587886	0.0112244	8.87328E-05	0.000202167	0	5	0	
0.250333	-0.000365695	-0.00604689	0.000101439	0.000180965	0	5	0	
0.2505	0.00197238	-0.00615922	0.000102822	0.000178298	0	5	0	
0.250667	-0.00159288	0.0014537	7.80455E-05	0.000178515	0	5	0	
0.250833	-0.00395624	0.00419815	6.18377E-05	0.000150837	0	5	0	
0.251	0.0064422	-0.00948291	6.35407E-05	0.000168988	0	5	0	
0.251167	-0.00291078	0.00124213	9.12201E-05	0.00016159	0	5	0	
0.251333	-0.0045182	0.00801094	0.00013072	0.000155932	0	5	0	
0.2515	0.00476969	-0.00175387	0.00013824	0.000131789	0	5	0	
0.251667	-0.00310385	-0.0042713	0.000120124	0.000116147	0	5	0	
0.251833	0.00231791	-0.000955708	8.25721E-05	9.3717E-05	0	5	0	
0.252	0.000783605	-0.00301823	5.67866E-05	6.7473E-05	0	5	0	
0.252167	-0.00669071	0.00754244	8.24327E-05	7.66558E-05	0	5	0	
0.252333	0.0115826	-0.00444905	0.00012208	0.000110908	0	5	0	
0.2525	-0.00964359	-0.000234766	0.000192531	0.000157262	0	5	0	
0.252667	-0.00188596	0.00272757	0.00025933	0.000186418	0	5	0	
0.252833	0.00816055	0.000848687	0.000298515	0.000211638	0	5	0	
0.253	-0.00439592	-0.0031277	0.00026027	0.000192908	0	5	0	
0.253167	0.000578565	-0.00545915	0.000154756	0.00016193	0	5	0	
0.253333	0.00121566	0.00012545	8.22139E-05	0.000144419	0	5	0	
0.2535	-0.00711301	0.0056042	6.89504E-05	0.000167061	0	5	0	
0.253667	0.0084801	-0.00413532	9.4942E-05	0.000213931	0	5	0	
0.253833	-0.00483793	0.00522125	0.000156485	0.000208493	0	5	0	
0.254	-0.000386088	-0.00479905	0.000205344	0.000169891	0	5	0	
0.254167	-0.000360603	-0.00232059	0.000187601	0.000147675	0	5	0	
0.254333	5.79868E-05	-0.00288337	0.000125283	0.000160644	0	5	0	
0.2545	-0.00158305	0.00999953	6.84844E-05	0.000207644	0	5	0	
0.254667	0.00484335	-0.00412177	6.69123E-05	0.000206273	0	5	0	
0.254833	-0.00892897	-0.00115356	9.0104E-05	0.00016158	0	5	0	
0.255	0.0027996	-0.00390241	0.000137053	0.000161141	0	5	0	
0.255167	0.00478946	-0.000744661	0.000196812	0.000165813	0	5	0	
0.255333	-0.00649419	0.0111893	0.000183509	0.000201822	0	5	0	
0.2555	-0.00816422	0.000445997	0.000160608	0.000267516	0	5	0	
0.255667	0.00947893	-0.0346324	0.000144782	0.00034091	0	5	0	
0.255833	0.0112359	0.0308947	0.000295368	0.000543202	0	5	0	
0.256	-0.0381686	0.0584893	0.000375219	0.00102209	0	5	0	
0.256167	0.0666403	-0.191256	0.000775673	0.00143666	0	5	0	
0.256333	-0.0267329	0.0443425	0.000985017	0.00214109	0	5	0	
0.2565	0.0063921	0.113718	0.00115521	0.00286912	0	5	0	
0.256667	0.00465291	-0.0937188	0.000860539	0.0030336	0	5	0	
0.256833	-0.0195742	-0.0312052	0.000588533	0.00242842	0	5	0	
0.257	0.014421	0.01167	0.000377709	0.00135793	0	5	0	
0.257167	0.0328325	0.039076	0.000519166	0.000830821	0	5	0	
0.257333	-0.0427252	0.0238079	0.000963336	0.00129699	0	5	0	
0.2575	0.0509957	-0.159123	0.00123176	0.00168456	0	5	0	
0.257667	-0.013546	0.0297585	0.00109473	0.00246671	0	5	0	
0.257833	-0.00760674	0.101194	0.000622757	0.00251311	0	5	0	
0.258	-0.0113078	-0.00591223	0.00031545	0.00234862	0	5	0	
0.258167	0.00594648	-0.0951438	0.000218278	0.00206278	0	5	0	
0.258333	0.0144228	0.0587783	0.000287648	0.00171311	0	5	0	
0.2585	-0.011999	0.0324169	0.000312284	0.00185806	0	5	0	
0.258667	-0.00800393	-0.0477778	0.000345652	0.00142605	0	5	0	
0.258833	0.0089082	0.00916301	0.000254164	0.00115225	0	5	0	
0.259	0.0044371	0.0318489	0.000256859	0.000696021	0	5	0	
0.259167	-0.00590556	0.00905241	0.000188163	0.000719985	0	5	0	
0.259333	0.00584906	-0.0232026	0.00014654	0.000665771	0	5	0	
0.2595	-0.00637617	0.0106633	0.000106904	0.000593175	0	5	0	
0.259667	0.00741219	0.0117199	0.000116395	0.000401666	0	5	0	
0.259833	6.00205E-05	-0.00596205	0.000133089	0.000259353	0	5	0	
0.26	0.000388176	-0.00200652	0.000133093	0.00018854	0	5	0	
0.260167	-0.000978315	0.00366117	0.000101511	0.000178054	0	5	0	
0.260333	0.00510737	0.00839552	0.000127856	0.000284119	0	5	0	
0.2605	-0.0116271	0.0103871	0.000159746	0.000372214	0	5	0	
0.260667	0.0167159	-0.017085	0.000222347	0.00036067	0	5	0	
0.260833	-0.0142809	0.00840494	0.000255312	0.000404146	0	5	0	
0.261	0.0108746	0.0209704	0.000340626	0.00054984	0	5	0	
0.261167	0.00914605	-0.0406312	0.000421251	0.000623768	0	5	0	
0.261333	-0.0239233	0.0273883	0.000427584	0.000720016	0	5	0	
0.2615	0.0112178	0.0140672	0.000390774	0.000608539	0	5	0	
0.261667	0.00916262	-0.0112586	0.000373687	0.000549578	0	5	0	
0.261833	-0.0180161	-0.000343678	0.000372431	0.000330415	0	5	0	
0.262	0.0150724	-0.00370687	0.00035337	0.000174065	0	5	0	
0.262167	-0.0092209	0.00439296	0.000289948	0.000133087	0	5	0	
0.262333	0.00116901	0.010391	0.000269347	0.000120709	0	5	0	
0.2625	0.00483522	-0.000407554	0.000266715	0.000167191	0	5	0	
0.262667	-0.00209895	-0.0116275	0.000195105	0.000163712	0	5	0	
0.262833	-0.00787249	0.00576289	0.000180155	0.000204107	0	5	0	
0.263	0.00659679	0.0144736	0.000132882	0.00024891	0	5	0	
0.263167	-0.00482453	-0.0130701	0.000161333	0.000283018	0	5	0	
0.263333	0.00617931	-0.00564661	0.000137429	0.000291359	0	5	0	
0.2635	-0.00297665	0.0101802	0.000136788	0.000226384	0	5	0	
0.263667	-0.00400171	-0.00295586	0.000141761	0.00025431	0	5	0	
0.263833	0.00508725	-0.00995708	0.0001229	0.0002307	0	5	0	
0.264	-0.00463846	0.00862791	0.000106807	0.000259671	0	5	0	
0.264167	-0.000229548	0.00319245	7.82029E-05	0.000279825	0	5	0	
0.264333	0.00449691	-0.00684952	7.27871E-05	0.000320731	0	5	0	
0.2645	-0.00602361	0.00848347	6.88569E-05	0.000291165	0	5	0	
0.264667	0.00418561	-0.00405103	8.75467E-05	0.00023513	0	5	0	
0.264833	-0.00424292	-0.00897548	0.000101285	0.000157896	0	5	0	
0.265	0.00315056	0.00357917	0.000110287	0.000167244	0	5	0	
0.265167	-0.00226987	-0.00103958	0.000111368	0.000114957	0	5	0	
0.265333	0.00104598	0.00568443	8.931E-05	8.10052E-05	0	5	0	
0.2655	-0.00451488	0.000293276	9.31223E-05	5.15934E-05	0	5	0	
0.265667	0.0110911	-0.0102972	0.00010496	7.96982E-05	0	5	0	
0.265833	-0.00722082	0.00539136	0.000161274	0.000136688	0	5	0	
0.266	-0.00188246	-0.0273683	0.000210273	0.000194114	0	5	0	
0.266167	-0.00234998	0.117401	0.000197288	0.000564798	0	5	0	
0.266333	0.00920337	-0.104299	0.000158475	0.00122138	0	5	0	
0.2665	-0.00464902	0.0319157	0.000122861	0.00161488	0	5	0	
0.266667	-0.00344673	0.0434092	0.000159531	0.00166676	0	5	0	
0.266833	0.00348366	-0.0521117	0.000161245	0.00121338	0	5	0	
0.267	0.00131645	-0.00898543	0.000119843	0.00112566	0	5	0	
0.267167	-0.00348603	0.0742839	6.63125E-05	0.00108693	0	5	0	
0.267333	0.00130286	-0.0322977	5.847E-05	0.00138093	0	5	0	
0.2675	0.000246629	0.0174482	6.7214E-05	0.00126214	0	5	0	
0.267667	0.00334138	-0.0208959	7.99296E-05	0.000923207	0	5	0	
0.267833	-0.0087413	0.00903045	7.95271E-05	0.000561229	0	5	0	
0.268	0.00349105	0.0208993	0.00015382	0.000566738	0	5	0	
0.268167	0.0132851	-0.0120361	0.000274954	0.000558555	0	5	0	
0.268333	-0.022469	-0.0115264	0.0004049	0.00055656	0	5	0	
0.2685	0.00223789	0.0395639	0.000395597	0.000411591	0	5	0	
0.268667	0.0054546	-0.0353559	0.00026697	0.000610241	0	5	0	
0.268833	-0.00455852	0.0134724	0.000140766	0.000576518	0	5	0	
0.269	0.0144636	-0.01652	0.000107166	0.000582215	0	5	0	
0.269167	-0.0193526	0.0357759	0.000194143	0.000451291	0	5	0	
0.269333	0.00970582	-0.0202284	0.000332838	0.000487032	0	5	0	
0.2695	-0.00361603	0.00429038	0.000515874	0.000635088	0	5	0	
0.269667	-0.00957549	0.00909483	0.000503643	0.000610166	0	5	0	
0.269833	0.00873671	-0.00902734	0.000411441	0.000579515	0	5	0	
0.27	0.00222827	-0.00794274	0.000260373	0.000526655	0	5	0	
0.270167	-0.0112318	0.00147735	0.000250693	0.000428687	0	5	0	
0.270333	0.0157064	0.0176583	0.000273192	0.000388289	0	5	0	
0.2705	-0.00750391	-0.00877419	0.000259421	0.000278667	0	5	0	
0.270667	-0.00779888	-0.0281337	0.000266579	0.000632844	0	5	0	
0.270833	0.00787377	0.0136957	0.000217536	0.000776335	0	5	0	
0.271	0.00506376	0.00593216	0.000179345	0.000701234	0	5	0	
0.271167	-0.00187734	-0.00846053	0.000155335	0.000385656	0	5	0	
0.271333	-0.0093347	-0.00850388	0.000165574	0.000239764	0	5	0	
0.2715	-0.00150195	-0.0253725	0.000186456	0.000445895	0	5	0	
0.271667	0.00820351	0.0463087	0.000134072	0.000584466	0	5	0	
0.271833	2.52314E-05	-0.02089	0.000169875	0.000755586	0	5	0	
0.272	0.00139278	-0.0120007	0.000171393	0.000583203	0	5	0	
0.272167	-0.0111964	-0.0114037	0.000205476	0.000608467	0	5	0	
0.272333	0.0106723	0.00918667	0.000172452	0.000475159	0	5	0	
0.2725	-0.00570568	0.010261	0.000182626	0.00052171	0	5	0	
0.272667	0.00512717	-0.017021	0.000168793	0.000446941	0	5	0	
0.272833	-0.00659007	0.0147658	0.000148658	0.000368144	0	5	0	
0.273	-0.000208907	-0.00416344	0.000123473	0.000303689	0	5	0	
0.273167	0.0081341	0.000783498	0.000116273	0.000195879	0	5	0	
0.273333	-0.0134474	0.00358895	0.000154442	0.000217246	0	5	0	
0.2735	-0.00772749	-0.00416221	0.000182292	0.000289236	0	5	0	
0.273667	0.00589328	0.00983178	0.000228451	0.000331417	0	5	0	
0.273833	-0.00249686	-0.010405	0.000202937	0.000442776	0	5	0	
0.274	0.0136989	-0.00995331	0.000176393	0.00036561	0	5	0	
0.274167	-0.0136615	0.0122464	0.000201086	0.000463129	0	5	0	
0.274333	-0.00525503	0.00242455	0.000305173	0.000403502	0	5	0	
0.2745	0.00855031	-0.00138502	0.000410188	0.00042009	0	5	0	
0.274667	-0.0197936	-0.00311108	0.000394211	0.000344834	0	5	0	
0.274833	0.0144285	-0.0211832	0.000363434	0.000316776	0	5	0	
0.275	0.00568057	0.0218113	0.000281107	0.000485484	0	5	0	
0.275167	-0.0182683	0.00200278	0.000293599	0.000506056	0	5	0	
0.275333	0.0119034	-0.0103776	0.000293588	0.000497227	0	5	0	
0.2755	-0.0105608	0.00581611	0.00028264	0.000328796	0	5	0	
0.275667	0.00522726	-0.00767561	0.000274234	0.000293061	0	5	0	
0.275833	0.0042847	0.010299	0.000245949	0.000331358	0	5	0	
0.276	-0.002396	-0.00590861	0.000249842	0.000459018	0	5	0	
0.276167	0.000804125	0.00868871	0.000177335	0.000505037	0	5	0	
0.276333	-0.0125231	-0.00962662	0.000178855	0.000447206	0	5	0	
0.2765	-0.00484087	0.0150675	0.000249953	0.000342984	0	5	0	
0.276667	0.0194456	-0.00317893	0.000320479	0.000304061	0	5	0	
0.276833	-0.013194	-0.0107225	0.000329266	0.000276938	0	5	0	
0.277	-0.00326274	-0.00555108	0.000334894	0.000246567	0	5	0	
0.277167	0.00759222	0.00347193	0.000314856	0.000175273	0	5	0	
0.277333	-0.0068348	0.0147789	0.000248545	0.000178344	0	5	0	
0.2775	0.00240986	-0.0142076	0.000147099	0.000205752	0	5	0	
0.277667	0.00255866	-0.00770611	0.000113708	0.000346796	0	5	0	
0.277833	-0.0136793	0.021648	0.000149475	0.000330207	0	5	0	
0.278	0.0161195	-0.018582	0.00020188	0.000458901	0	5	0	
0.278167	-0.00699656	-0.00305873	0.000269581	0.000431487	0	5	0	
0.278333	-0.00466152	0.00905976	0.000265613	0.000404047	0	5	0	
0.2785	7.00697E-05	-0.00184046	0.000198819	0.000253995	0	5	0	
0.278667	0.00980002	-0.000266639	0.000124377	0.000147446	0	5	0	
0.278833	-0.00927986	-0.0137336	0.000151028	0.000226628	0	5	0	
0.279	-0.00400445	0.0211274	0.000350485	0.000275898	0	5	0	
0.279167	0.0153123	-0.0057794	0.000499817	0.000342516	0	5	0	
0.279333	-0.0118902	-0.025595	0.000462511	0.000302828	0	5	0	
0.2795	-0.0032487	0.0332805	0.000376708	0.000411248	0	5	0	
0.279667	0.0174954	-0.0109141	0.00030696	0.000466793	0	5	0	
0.279833	-0.025943	-0.00236967	0.000374053	0.000451633	0	5	0	
0.28	0.0298835	-0.0152785	0.000411846	0.000265636	0	5	0	
0.280167	-0.0222839	0.038524	0.000498784	0.00028798	0	5	0	
0.280333	0.00173261	-0.031601	0.000556577	0.000488729	0	5	0	
0.2805	0.0149096	0.00410858	0.000525076	0.000575719	0	5	0	
0.280667	-0.0106336	0.00785626	0.000407727	0.000445973	0	5	0	
0.280833	-0.00422892	0.000484795	0.000283074	0.000215388	0	5	0	
0.281	0.00884224	-0.00138833	0.000185979	9.59278E-05	0	5	0	
0.281167	-0.00370988	0.00703993	0.000159649	0.000109364	0	5	0	
0.281333	-0.000282116	-0.0129092	0.000105806	0.00015095	0	5	0	
0.2815	-0.00112461	0.0143379	8.82135E-05	0.000218204	0	5	0	
0.281667	0.00148273	-0.00825419	4.36819E-05	0.000298585	0	5	0	
0.281833	-0.00180979	-0.00504927	6.07908E-05	0.000354051	0	5	0	
0.282	-0.000851442	0.00872444	5.86489E-05	0.000299344	0	5	0	
0.282167	0.0023622	0.00426107	6.1104E-05	0.000240906	0	5	0	
0.282333	-0.00124229	-0.017881	5.7925E-05	0.000161504	0	5	0	
0.2825	-0.00335538	0.0156291	6.36233E-05	0.000263644	0	5	0	
0.282667	0.00571648	-0.00954409	8.62898E-05	0.000249886	0	5	0	
0.282833	-0.00301278	0.00987313	0.000134165	0.000300404	0	5	0	
0.283	-0.00267205	-0.00630332	0.000167852	0.000303341	0	5	0	
0.283167	0.00150956	0.00273053	0.000145165	0.000271892	0	5	0	
0.283333	0.00228265	-0.0104969	9.33174E-05	0.000282508	0	5	0	
0.2835	-0.00505776	0.0134739	5.74669E-05	0.000261699	0	5	0	
0.283667	0.00549422	-0.0171958	7.95656E-05	0.000310515	0	5	0	
0.283833	-0.00340644	0.00810528	0.000125815	0.000326915	0	5	0	
0.284	-0.00568797	0.0136224	0.000179807	0.000308783	0	5	0	
0.284167	0.00467507	-0.00670361	0.000176942	0.000310539	0	5	0	
0.284333	0.00221465	-0.0162801	0.000164429	0.000299494	0	5	0	
0.2845	-0.00162834	0.00867878	0.000124765	0.000312748	0	5	0	
0.284667	-0.00469778	0.0290499	0.000137607	0.000382692	0	5	0	
0.284833	-0.00246003	0.0117902	0.000153598	0.000372215	0	5	0	
0.285	0.0109263	-0.0538859	0.000231989	0.000562357	0	5	0	
0.285167	0.000861313	0.035344	0.000267749	0.000673202	0	5	0	
0.285333	-0.000880987	0.000548367	0.000228156	0.00074711	0	5	0	
0.2855	-0.0128061	0.0234693	0.000208047	0.000552968	0	5	0	
0.285667	0.0112281	-0.0508883	0.000180229	0.000528139	0	5	0	
0.285833	-0.0146637	0.0469545	0.0003197	0.000762768	0	5	0	
0.286	0.0205383	0.0077383	0.00040759	0.00100117	0	5	0	
0.286167	-0.00395869	-0.00164128	0.000432389	0.000890878	0	5	0	
0.286333	-0.00510902	-0.0378202	0.000288164	0.000845803	0	5	0	
0.2865	0.000486995	0.0443935	0.000145615	0.000791388	0	5	0	
0.286667	0.00823588	-0.00686598	0.000148215	0.000790776	0	5	0	
0.286833	-0.0127575	0.00696335	0.000181102	0.000520302	0	5	0	
0.287	0.000385895	-0.031375	0.000230388	0.000364091	0	5	0	
0.287167	0.00773526	0.0280972	0.000186329	0.000447864	0	5	0	
0.287333	0.000858117	0.0134857	0.000176624	0.000435955	0	5	0	
0.2875	-0.00806036	-0.0136075	0.000136859	0.000508027	0	5	0	
0.287667	0.00568108	-0.0118246	0.000141496	0.000490409	0	5	0	
0.287833	-0.00204503	0.0159887	0.000121303	0.000489524	0	5	0	
0.288	0.0021103	-0.00457113	8.04709E-05	0.000476795	0	5	0	
0.288167	-0.00330372	-0.00838885	7.746E-05	0.000428653	0	5	0	
0.288333	-0.00224128	0.0137206	8.4626E-05	0.000417327	0	5	0	
0.2885	-0.00196114	-0.00365508	8.29712E-05	0.000314558	0	5	0	
0.288667	0.00709171	-0.0149554	7.73517E-05	0.000228654	0	5	0	
0.288833	-0.00294814	0.0105267	8.25546E-05	0.000254184	0	5	0	
0.289	-0.00532189	-0.00240229	0.000133999	0.000219661	0	5	0	
0.289167	0.00138681	0.0053973	0.000126393	0.000215322	0	5	0	
0.289333	-0.00084758	-0.010431	0.000102638	0.00017163	0	5	0	
0.2895	0.000883231	0.0088657	4.78743E-05	0.000187605	0	5	0	
0.289667	0.00421712	-0.00646819	6.71054E-05	0.000185277	0	5	0	
0.289833	-0.0156957	0.00863543	0.000127492	0.00018298	0	5	0	
0.29	0.0124411	-0.00864833	0.000201034	0.00021702	0	5	0	
0.290167	0.00424794	0.0187945	0.000279689	0.000227759	0	5	0	
0.290333	-0.0109043	0.00297742	0.000261369	0.000357566	0	5	0	
0.2905	0.00623333	-0.0223381	0.000240113	0.000450159	0	5	0	
0.290667	-0.000312512	0.0130524	0.0001641	0.000485643	0	5	0	
0.290833	-0.00456586	0.00706582	0.000151082	0.000419722	0	5	0	
0.291	0.0135198	-0.00935291	0.000173166	0.000271434	0	5	0	
0.291167	-0.0149963	0.00396682	0.000212067	0.000229572	0	5	0	
0.291333	0.00424872	-0.00613935	0.000250226	0.000216621	0	5	0	
0.2915	0.00374114	0.0220424	0.000240941	0.000290204	0	5	0	
0.291667	-0.00512916	-0.0201091	0.000194358	0.000370449	0	5	0	
0.291833	0.00288871	-0.00639747	0.000128629	0.00040846	0	5	0	
0.292	-0.000530842	0.0077499	8.34735E-05	0.000362246	0	5	0	
0.292167	-0.00673198	0.00100866	0.000107248	0.000268051	0	5	0	
0.292333	0.00898708	-0.00268894	0.000150019	0.000169114	0	5	0	
0.2925	-0.006363	-0.00566864	0.000166911	0.000135502	0	5	0	
0.292667	-0.000936714	-0.0068605	0.000154158	0.000114705	0	5	0	
0.292833	-0.00365169	0.0122741	0.000112949	0.000137004	0	5	0	
0.293	0.00829545	-0.0158734	0.000102985	0.000195965	0	5	0	
0.293167	-0.00913886	0.0121049	0.000119434	0.000261594	0	5	0	
0.293333	0.000470198	-0.0112476	0.000160182	0.00031946	0	5	0	
0.2935	0.00255576	-0.000211121	0.000152558	0.000277901	0	5	0	
0.293667	-0.000461799	0.000467996	0.000111789	0.000214252	0	5	0	
0.293833	-0.000757144	-0.00129586	5.80083E-05	0.000113271	0	5	0	
0.294	-0.00303713	0.00742786	5.69518E-05	9.22536E-05	0	5	0	
0.294167	0.00166528	-0.0115023	4.88398E-05	0.000135536	0	5	0	
0.294333	0.000370179	0.00604529	9.02342E-05	0.000145521	0	5	0	
0.2945	-0.00552755	-0.0116223	0.000141666	0.000201949	0	5	0	
0.294667	0.00869932	0.00737127	0.000174209	0.000230029	0	5	0	
0.294833	-0.010709	0.00911003	0.000189578	0.000249472	0	5	0	
0.295	0.0065116	-0.0160287	0.000213449	0.000249162	0	5	0	
0.295167	-0.00210512	0.0107639	0.000275076	0.000257392	0	5	0	
0.295333	-0.0024466	-0.00986415	0.000283131	0.000344405	0	5	0	
0.2955	0.00245488	-0.000501676	0.000209169	0.000337047	0	5	0	
0.295667	-0.00203819	-0.00144717	0.000127127	0.000243716	0	5	0	
0.295833	-0.00660238	0.0141156	0.000103065	0.000139018	0	5	0	
0.296	0.0131339	-0.0142343	0.000141528	0.000157264	0	5	0	
0.296167	-0.0111674	0.00848276	0.000195533	0.000201846	0	5	0	
0.296333	0.00379103	-0.0066288	0.000202468	0.000216147	0	5	0	
0.2965	-0.00162535	-0.00113034	0.000163951	0.000134701	0	5	0	
0.296667	0.00399152	0.00237218	0.000110934	8.56263E-05	0	5	0	
0.296833	-0.00674971	0.00569395	8.69092E-05	9.94965E-05	0	5	0	
0.297	0.00692375	-0.0163534	0.000101819	0.000208674	0	5	0	
0.297167	-0.00964834	0.0179515	0.000130589	0.000309767	0	5	0	
0.297333	0.00942813	-0.0105762	0.000148039	0.000330088	0	5	0	
0.2975	-0.00595196	0.00356681	0.000165438	0.000242478	0	5	0	
0.297667	-0.00132709	-0.00247519	0.000141018	0.000170042	0	5	0	
0.297833	0.00102843	-0.00191877	0.000110063	0.000112796	0	5	0	
0.298	0.0060184	-0.00670931	0.000134731	0.000194717	0	5	0	
0.298167	-0.0115756	0.0208447	0.000193876	0.000275038	0	5	0	
0.298333	0.0042894	-0.0150963	0.000227465	0.000355841	0	5	0	
0.2985	-0.00330774	-0.013492	0.000174704	0.000403233	0	5	0	
0.298667	0.0120641	0.0195318	0.000141747	0.000391148	0	5	0	
0.298833	-0.015527	0.0166584	0.000185116	0.000536079	0	5	0	
0.299	0.00931619	-0.0777522	0.000322691	0.000842345	0	5	0	
0.299167	-0.00516177	0.10917	0.000340338	0.00120598	0	5	0	
0.299333	0.0118595	-0.0385518	0.000341436	0.0014755	0	5	0	
0.2995	-0.00577669	-0.00267739	0.00023408	0.00130923	0	5	0	
0.299667	-0.010057	0.0155636	0.000215197	0.000992155	0	5	0	
0.299833	-0.00252013	-0.00508852	0.00022612	0.000509844	0	5	0	
0.3	0.0200494	0.00650611	0.000325443	0.000472637	0	5	0	
0.300167	-0.00409455	0.022274	0.000406291	0.000903147	0	5	0	
0.300333	-0.000295191	-0.0509207	0.000395039	0.00154305	0	5	0	
0.3005	-0.0132084	0.0380141	0.000331027	0.00163632	0	5	0	
0.300667	0.00260744	-0.00654585	0.00024358	0.00118796	0	5	0	
0.300833	0.00661244	-0.0121251	0.000208988	0.000561818	0	5	0	
0.301	-0.00677608	0.0157616	0.000159281	0.000398449	0	5	0	
0.301167	0.000341849	0.00121854	0.000142567	0.000507404	0	5	0	
0.301333	0.000171738	-0.0148901	0.000119064	0.00062479	0	5	0	
0.3015	-0.00335683	-0.0170063	0.000106298	0.000564009	0	5	0	
0.301667	0.00214014	0.0119784	9.16052E-05	0.000405929	0	5	0	
0.301833	-0.00420791	-0.010422	7.76405E-05	0.000314951	0	5	0	
0.302	0.00236289	-0.00683175	7.98812E-05	0.000244224	0	5	0	
0.302167	-0.00129414	0.0260118	8.75475E-05	0.000272635	0	5	0	
0.302333	-0.000766596	-0.0288934	6.99095E-05	0.000392349	0	5	0	
0.3025	0.003872	0.0105269	5.45426E-05	0.000442525	0	5	0	
0.302667	-0.0052928	0.00578354	5.58429E-05	0.000430731	0	5	0	
0.302833	-0.00243993	-0.00957	9.61342E-05	0.00027872	0	5	0	
0.303	0.011328	-0.00144484	0.000156871	0.000280862	0	5	0	
0.303167	-0.0123386	0.0131753	0.000204119	0.000354497	0	5	0	
0.303333	0.00498387	-0.0165636	0.000212303	0.000482878	0	5	0	
0.3035	-0.00294377	0.0160429	0.000162366	0.000494719	0	5	0	
0.303667	0.00405603	-0.0145693	0.000113749	0.000423912	0	5	0	
0.303833	0.00056268	0.0085226	9.63338E-05	0.000327731	0	5	0	
0.304	-0.00308447	-0.00567075	7.92325E-05	0.00023246	0	5	0	
0.304167	-0.00825123	-0.00181281	0.000143114	0.000151717	0	5	0	
0.304333	0.0137819	-0.00403951	0.000198742	0.000148164	0	5	0	
0.3045	-0.0114961	0.0138892	0.000258617	0.000222871	0	5	0	
0.304667	0.00399148	-0.0104547	0.000250664	0.000264557	0	5	0	
0.304833	0.00224022	-0.0157892	0.000233716	0.000282611	0	5	0	
0.305	-0.010987	0.0105418	0.000236104	0.00024255	0	5	0	
0.305167	0.0131239	-0.000146095	0.00022042	0.000319339	0	5	0	
0.305333	-0.00103055	-0.00501536	0.000272751	0.000359838	0	5	0	
0.3055	-0.0151263	0.00378557	0.000331684	0.000331113	0	5	0	
0.305667	0.0161678	-0.0127349	0.000366975	0.000246551	0	5	0	
0.305833	-0.0106861	0.0054234	0.000320648	0.000166401	0	5	0	
0.306	0.00278107	-0.00358265	0.000253535	0.00016955	0	5	0	
0.306167	0.00288241	-0.00636278	0.000229495	0.000130913	0	5	0	
0.306333	-0.0061999	0.00189215	0.000203892	0.000124961	0	5	0	
0.3065	0.00238687	0.00996442	0.000160411	0.000125339	0	5	0	
0.306667	0.00668399	-0.0087532	0.000151434	0.000186584	0	5	0	
0.306833	-0.0130827	-0.00943376	0.00015393	0.000202176	0	5	0	
0.307	0.00666447	4.97096E-05	0.00019971	0.000197416	0	5	0	
0.307167	-0.0013387	0.00969691	0.000206625	0.000140694	0	5	0	
0.307333	-0.00207659	-0.0141052	0.000166116	0.000156429	0	5	0	
0.3075	0.00239	0.00487824	0.000129455	0.000189402	0	5	0	
0.307667	7.82299E-05	0.00432668	0.000101385	0.000189726	0	5	0	
0.307833	-0.00632957	-0.00754266	0.000151259	0.000161746	0	5	0	
0.308	0.0108961	-0.00428309	0.000197708	0.000118558	0	5	0	
0.308167	-0.00948094	0.00071656	0.00020405	0.000116348	0	5	0	
0.308333	-0.000155835	-3.83603E-05	0.000191659	7.06288E-05	0	5	0	
0.3085	0.00405076	0.00194273	0.000149476	5.51336E-05	0	5	0	
0.308667	0.00107705	-0.00947883	0.000125857	7.56187E-05	0	5	0	
0.308833	-0.00714336	0.010619	0.000111826	0.000131719	0	5	0	
0.309	0.0076483	-0.00329887	0.000114804	0.000183787	0	5	0	
0.309167	-0.00732377	-0.00478521	0.000166756	0.000205328	0	5	0	
0.309333	0.00449302	-0.0074124	0.000206704	0.000191755	0	5	0	
0.3095	0.00351798	0.014841	0.000246349	0.00021359	0	5	0	
0.309667	-0.0156212	-0.00984559	0.000228057	0.000243868	0	5	0	
0.309833	0.0159233	-0.00428914	0.00024741	0.000246378	0	5	0	
0.31	-0.000228463	-0.0081989	0.000308937	0.000211724	0	5	0	
0.310167	-0.0226969	0.0272434	0.00044127	0.000229724	0	5	0	
0.310333	0.0316668	-0.0305049	0.000519582	0.000361717	0	5	0	
0.3105	-0.0176289	0.00169044	0.000529009	0.000398885	0	5	0	
0.310667	-0.00650455	0.00814719	0.000522723	0.000309867	0	5	0	
0.310833	0.0154292	0.000774348	0.000480027	0.000166025	0	5	0	
0.311	-0.009516	-0.0092185	0.000409987	0.000106579	0	5	0	
0.311167	0.00423402	0.00709847	0.00025736	0.00015839	0	5	0	
0.311333	-0.00168704	-0.00533232	0.000174804	0.000177312	0	5	0	
0.3115	-0.00735005	4.30662E-05	0.000187239	0.000227341	0	5	0	
0.311667	0.0133257	-0.000393958	0.000230443	0.000157082	0	5	0	
0.311833	-0.00734186	-0.0027117	0.000241835	0.000122251	0	5	0	
0.312	-0.00165405	0.000133389	0.000239445	0.000104395	0	5	0	
0.312167	0.00487912	0.00536831	0.000180074	0.00016462	0	5	0	
0.312333	0.00492144	-0.0036238	0.000196746	0.000199865	0	5	0	
0.3125	-0.0146197	0.00676888	0.000192761	0.000228371	0	5	0	
0.312667	0.0054337	-0.016868	0.000243876	0.000275719	0	5	0	
0.312833	0.00869231	0.0179035	0.000263253	0.000300383	0	5	0	
0.313	0.000962072	0.00346633	0.000212694	0.000557192	0	5	0	
0.313167	-0.0137354	-0.0614388	0.000216206	0.000962574	0	5	0	
0.313333	0.00333938	0.0389012	0.000186315	0.00135827	0	5	0	
0.3135	0.00940592	0.00300774	0.000180486	0.0011019	0	5	0	
0.313667	0.00721047	-0.0166889	0.000265059	0.000695925	0	5	0	
0.313833	-0.0188852	0.0132066	0.000312172	0.000354224	0	5	0	
0.314	0.00384072	-0.0332555	0.000367017	0.000450916	0	5	0	
0.314167	0.00316996	0.0570493	0.000235576	0.000607236	0	5	0	
0.314333	0.0109302	-0.0612511	0.000197882	0.000938589	0	5	0	
0.3145	-0.00533066	0.014393	0.000158015	0.001197	0	5	0	
0.314667	-0.00602612	0.00961087	0.000190503	0.00105983	0	5	0	
0.314833	0.003582	-0.00388389	0.000136159	0.000737917	0	5	0	
0.315	0.00562227	9.98038E-06	0.000134126	0.000438496	0	5	0	
0.315167	-0.00432373	0.00101449	0.000105597	0.000330018	0	5	0	
0.315333	0.00190202	0.00441049	9.59469E-05	0.00022091	0	5	0	
0.3155	0.00197732	0.0140108	6.74929E-05	0.000124923	0	5	0	
0.315667	0.00269825	-0.0225955	6.82621E-05	0.000225807	0	5	0	
0.315833	-0.00388804	0.00180573	8.83085E-05	0.000274027	0	5	0	
0.316	0.00533673	0.00856858	0.000104052	0.000260546	0	5	0	
0.316167	-0.00282995	-0.00270046	0.000103802	0.000187946	0	5	0	
0.316333	0.00425439	0.0106854	9.96794E-05	0.000143744	0	5	0	
0.3165	-0.00198665	-0.0216682	8.45705E-05	0.000244669	0	5	0	
0.316667	0.00144375	0.0229035	7.04982E-05	0.000317413	0	5	0	
0.316833	-0.00320194	-0.00257998	5.68241E-05	0.000355242	0	5	0	
0.317	0.00717544	-0.00745535	7.41225E-05	0.000296162	0	5	0	
0.317167	-0.00302326	0.00270064	8.78195E-05	0.000203156	0	5	0	
0.317333	0.000231955	0.0113154	8.3032E-05	0.000175144	0	5	0	
0.3175	-0.00148745	0.000768924	6.80277E-05	0.000166261	0	5	0	
0.317667	0.00315904	-0.00980224	5.3839E-05	0.000187799	0	5	0	
0.317833	-0.000554386	0.0123725	4.87068E-05	0.000253182	0	5	0	
0.318	-0.00102217	0.0128176	4.08433E-05	0.000284834	0	5	0	
0.318167	-0.0053897	-0.0197028	3.92596E-05	0.000322354	0	5	0	
0.318333	0.00367602	0.00140839	6.12617E-05	0.000303504	0	5	0	
0.3185	-0.00202619	0.0145183	7.1464E-05	0.00025159	0	5	0	
0.318667	0.00470552	0.00298269	9.11753E-05	0.000251463	0	5	0	
0.318833	-0.00473564	-0.0159671	7.86912E-05	0.000202448	0	5	0	
0.319	1.78205E-05	-0.00172107	9.11319E-05	0.000259428	0	5	0	
0.319167	-0.00580953	0.0141226	7.00205E-05	0.000233464	0	5	0	
0.319333	0.00719769	-0.00329523	0.000105624	0.000288339	0	5	0	
0.3195	-0.00112054	-0.012341	9.41634E-05	0.00026213	0	5	0	
0.319667	-0.000426152	0.00301272	8.36999E-05	0.000277537	0	5	0	
0.319833	-0.00731291	0.00750361	6.74571E-05	0.000278816	0	5	0	
0.32	0.0104048	-0.00836486	0.000112362	0.000248244	0	5	0	
0.320167	-0.00497802	-0.00228168	0.000151559	0.000216275	0	5	0	
0.320333	0.00186006	-0.00107223	0.000135722	0.000137958	0	5	0	
0.3205	-0.00146825	0.000891348	8.46792E-05	0.000172871	0	5	0	
0.320667	-0.000602961	-0.00577726	6.51846E-05	0.000133371	0	5	0	
0.320833	2.06504E-05	0.00152439	5.00063E-05	0.000179157	0	5	0	
