0	-0.00274958	0.000137611	2.74958E-07	1.37611E-08	0	5	0	
0.000166667	0.0156921	-0.000471716	4.01978E-05	1.90179E-06	0	5	0	
0.000333333	-0.0233765	0.000299614	0.000162368	3.89366E-06	0	5	0	
0.0005	0.0234294	-0.000297739	0.000320694	5.76407E-06	0	5	0	
0.000666667	-0.0186105	0.000703865	0.000434166	6.99654E-06	0	5	0	
0.000833333	0.0128079	-0.00059861	0.000415713	1.08026E-05	0	5	0	
0.001	-0.0137719	-0.000468209	0.000336401	1.49801E-05	0	5	0	
0.00116667	0.0170066	0.000145679	0.000283409	1.37399E-05	0	5	0	
0.00133333	-0.0242632	0.00101494	0.000323963	1.37366E-05	0	5	0	
0.0015	0.0310468	-0.000953801	0.000428427	1.52251E-05	0	5	0	
0.00166667	-0.0352728	0.000287673	0.00054211	1.72839E-05	0	5	0	
0.00183333	0.0266067	-0.00052142	0.000594444	1.41513E-05	0	5	0	
0.002	-0.0219187	-0.000362214	0.000556701	9.57988E-06	0	5	0	
0.00216667	0.0231675	0.000331128	0.000500937	7.39328E-06	0	5	0	
0.00233333	-0.0263973	0.00139715	0.000477264	1.3843E-05	0	5	0	
0.0025	0.0321811	-0.00243608	0.000534273	2.43387E-05	0	5	0	
0.00266667	-0.0368022	0.000358288	0.000592171	3.34622E-05	0	5	0	
0.00283333	0.0335365	0.00110569	0.000639578	3.32267E-05	0	5	0	
0.003	-0.0295231	0.000493141	0.000638325	2.89459E-05	0	5	0	
0.00316667	0.0253324	-0.00215482	0.00061024	2.78096E-05	0	5	0	
0.00333333	-0.0205817	0.000792511	0.000545481	2.72676E-05	0	5	0	
0.0035	0.0208668	-0.00151454	0.000498205	2.63487E-05	0	5	0	
0.00366667	-0.0263847	0.00150062	0.000485682	2.62413E-05	0	5	0	
0.00383333	0.0311147	-0.000491991	0.000528285	2.70124E-05	0	5	0	
0.004	-0.0371527	-0.000628081	0.000577352	2.44449E-05	0	5	0	
0.00416667	0.0332392	-4.06634E-05	0.000626476	1.83203E-05	0	5	0	
0.00433333	-0.0251041	0.000224281	0.000619225	1.6395E-05	0	5	0	
0.0045	0.0226771	-0.00146834	0.00056921	2.19146E-05	0	5	0	
0.00466667	-0.028564	0.00227908	0.000517912	3.22146E-05	0	5	0	
0.00483333	0.0275957	-0.00117264	0.000511554	3.67766E-05	0	5	0	
0.005	-0.0282634	-0.000922439	0.000522098	4.19989E-05	0	5	0	
0.00516667	0.0259578	0.000438745	0.000531469	3.2568E-05	0	5	0	
0.00533333	-0.0220558	0.00143819	0.00049941	2.99611E-05	0	5	0	
0.0055	0.0248533	-0.00155487	0.000482794	2.22248E-05	0	5	0	
0.00566667	-0.0281185	-0.000345357	0.00047029	2.82008E-05	0	5	0	
0.00583333	0.0296801	0.000247424	0.00050043	2.07583E-05	0	5	0	
0.006	-0.0310934	0.00174429	0.000543961	2.30801E-05	0	5	0	
0.00616667	0.0252262	-0.00250954	0.000570608	2.50159E-05	0	5	0	
0.00633333	-0.0189879	0.000470153	0.000506412	3.97779E-05	0	5	0	
0.0065	0.0239158	0.000529793	0.000459916	3.56166E-05	0	5	0	
0.00666667	-0.0251507	0.00110702	0.000431718	3.20436E-05	0	5	0	
0.00683333	0.031296	-0.00185799	0.000494831	2.36846E-05	0	5	0	
0.007	-0.0377325	0.000559046	0.000591897	2.7752E-05	0	5	0	
0.00716667	0.0325445	-1.35298E-05	0.000658226	2.32969E-05	0	5	0	
0.00733333	-0.0223648	0.00103204	0.000628366	2.1812E-05	0	5	0	
0.0075	0.0250752	-0.000975759	0.000549946	1.6509E-05	0	5	0	
0.00766667	-0.0305296	-0.000508907	0.000498713	1.95996E-05	0	5	0	
0.00783333	0.0384577	-0.00065204	0.000562965	1.777E-05	0	5	0	
0.008	-0.0325819	0.00245251	0.000629167	2.32581E-05	0	5	0	
0.00816667	0.0201528	-0.00037587	0.000613694	2.90852E-05	0	5	0	
0.00833333	-0.0182538	-0.00135829	0.000527498	3.44699E-05	0	5	0	
0.0085	0.0216835	-0.00233305	0.000453717	4.38245E-05	0	5	0	
0.00866667	-0.0283924	0.00377427	0.000451606	4.88779E-05	0	5	0	
0.00883333	0.0371506	0.000543659	0.00053396	6.88669E-05	0	5	0	
0.009	-0.0369632	-0.00184361	0.000607149	6.18528E-05	0	5	0	
0.00916667	0.0352289	-0.00175769	0.000679894	6.84684E-05	0	5	0	
0.00933333	-0.0278934	0.00274263	0.000675983	5.27984E-05	0	5	0	
0.0095	0.019794	0.000332962	0.000601897	5.62232E-05	0	5	0	
0.00966667	-0.0142762	-0.000417258	0.000460372	3.27636E-05	0	5	0	
0.00983333	0.0205089	-0.0023582	0.000375075	4.01991E-05	0	5	0	
0.01	-0.0337226	0.00317955	0.000410692	3.95075E-05	0	5	0	
0.0101667	0.050423	-0.000331216	0.000578324	5.56842E-05	0	5	0	
0.0103333	-0.0399487	-0.00159088	0.000741569	4.45044E-05	0	5	0	
0.0105	0.0255926	0.000449994	0.000764046	3.97211E-05	0	5	0	
0.0106667	-0.0246304	0.00156537	0.000664489	3.4451E-05	0	5	0	
0.0108333	0.0333975	-0.000149727	0.000568093	2.87437E-05	0	5	0	
0.011	-0.0306428	-0.000122133	0.000551815	2.01646E-05	0	5	0	
0.0111667	0.0268373	-0.00051082	0.000567061	1.41273E-05	0	5	0	
0.0113333	-0.0247582	0.00114538	0.000565867	1.72277E-05	0	5	0	
0.0115	0.0297964	-0.000642327	0.000556496	1.95924E-05	0	5	0	
0.0116667	-0.0381494	0.000428395	0.000580084	1.7705E-05	0	5	0	
0.0118333	0.0371484	-1.37631E-05	0.000638497	1.31089E-05	0	5	0	
0.012	-0.0270176	0.000925295	0.00066917	1.15931E-05	0	5	0	
0.0121667	0.0300502	-0.000984855	0.000646314	1.51503E-05	0	5	0	
0.0123333	-0.0336272	0.000618829	0.000597156	1.82329E-05	0	5	0	
0.0125	0.025117	-0.000248545	0.000565596	1.74525E-05	0	5	0	
0.0126667	-0.0214684	0.000991636	0.000565756	1.47515E-05	0	5	0	
0.0128333	0.0282652	-0.000906028	0.000552176	1.33162E-05	0	5	0	
0.013	-0.0327252	0.00162933	0.000590959	1.87218E-05	0	5	0	
0.0131667	0.0294947	-0.00195396	0.000596363	2.49067E-05	0	5	0	
0.0133333	-0.026983	0.000381946	0.000593024	2.89476E-05	0	5	0	
0.0135	0.029361	0.000557251	0.000541634	2.41225E-05	0	5	0	
0.0136667	-0.0386913	0.00132164	0.000573527	2.41704E-05	0	5	0	
0.0138333	0.0379696	-0.00172504	0.000644789	2.6046E-05	0	5	0	
0.014	-0.0259287	0.000534744	0.000680223	3.08759E-05	0	5	0	
0.0141667	0.020725	-0.000174551	0.000617311	2.19479E-05	0	5	0	
0.0143333	-0.0266032	0.000663116	0.000505657	1.68237E-05	0	5	0	
0.0145	0.0257764	-0.000222101	0.000464923	1.06482E-05	0	5	0	
0.0146667	-0.0318453	-0.00078268	0.000484237	1.13012E-05	0	5	0	
0.0148333	0.0433037	0.000474355	0.000611671	1.29905E-05	0	5	0	
0.015	-0.0462074	0.00105749	0.000747205	2.37678E-05	0	5	0	
0.0151667	0.0323785	-0.00126691	0.000814673	2.908E-05	0	5	0	
0.0153333	-0.0202495	0.00152564	0.000704033	3.0371E-05	0	5	0	
0.0155	0.031485	-0.000764035	0.000586484	2.46222E-05	0	5	0	
0.0156667	-0.0364586	0.000803663	0.000582063	2.06525E-05	0	5	0	
0.0158333	0.0346631	-7.06593E-05	0.00065134	1.6907E-05	0	5	0	
0.016	-0.0276293	-2.55813E-05	0.000676202	1.23769E-05	0	5	0	
0.0161667	0.0196089	3.58682E-05	0.000608352	1.09197E-05	0	5	0	
0.0163333	-0.0286291	0.000520823	0.000498654	1.20691E-05	0	5	0	
0.0165	0.0404525	-0.00102618	0.000533246	1.79821E-05	0	5	0	
0.0166667	-0.0350759	0.00148598	0.0006333	2.36154E-05	0	5	0	
0.0168333	0.0337395	-0.000388908	0.000745033	2.41058E-05	0	5	0	
0.017	-0.0389933	-0.000738605	0.000739412	1.79857E-05	0	5	0	
0.0171667	0.0244988	-0.000467392	0.000667783	1.51398E-05	0	5	0	
0.0173333	-0.0255288	0.000796625	0.000581837	1.20239E-05	0	5	0	
0.0175	0.0353689	-8.99404E-05	0.000578463	1.5039E-05	0	5	0	
0.0176667	-0.0224388	0.000885481	0.000585293	1.46122E-05	0	5	0	
0.0178333	0.0280956	-0.00111988	0.000581315	1.97628E-05	0	5	0	
0.018	-0.0307221	0.00150201	0.000563464	2.11299E-05	0	5	0	
0.0181667	0.0243649	-0.00096569	0.000528146	2.55136E-05	0	5	0	
0.0183333	-0.0330742	0.000370049	0.000560411	2.23996E-05	0	5	0	
0.0185	0.0283648	-0.00079676	0.000563558	2.13145E-05	0	5	0	
0.0186667	-0.0221598	0.000789399	0.000548529	1.78911E-05	0	5	0	
0.0188333	0.0365294	0.000257994	0.000549236	1.50802E-05	0	5	0	
0.019	-0.0323409	2.75769E-05	0.000578053	1.2793E-05	0	5	0	
0.0191667	0.0198967	-0.000992653	0.000569261	1.84737E-05	0	5	0	
0.0193333	-0.0316381	0.00106941	0.000564668	2.42754E-05	0	5	0	
0.0195	0.0380946	1.57968E-05	0.000573471	2.6384E-05	0	5	0	
0.0196667	-0.0341959	-0.000682305	0.000645682	1.66685E-05	0	5	0	
0.0198333	0.0392393	-0.000692225	0.00071722	1.93066E-05	0	5	0	
0.02	-0.0400136	0.00214946	0.000716322	2.48862E-05	0	5	0	
0.0201667	0.0327734	-0.00116853	0.000711029	3.37322E-05	0	5	0	
0.0203333	-0.0308165	-7.02524E-05	0.000696203	3.15767E-05	0	5	0	
0.0205	0.027049	-0.00106479	0.000626734	2.52333E-05	0	5	0	
0.0206667	-0.0390557	0.00134173	0.000630624	2.01681E-05	0	5	0	
0.0208333	0.0441217	0.000807931	0.000662449	2.77954E-05	0	5	0	
0.021	-0.0302251	-0.00185148	0.000700745	3.16912E-05	0	5	0	
0.0211667	0.0206198	-0.00102134	0.000655212	4.73761E-05	0	5	0	
0.0213333	-0.0302883	0.00318172	0.000565247	5.17191E-05	0	5	0	
0.0215	0.0356976	-0.00147664	0.00055557	5.7514E-05	0	5	0	
0.0216667	-0.0352009	-0.000247787	0.000603438	4.05611E-05	0	5	0	
0.0218333	0.0258668	-0.00159494	0.000641155	3.04804E-05	0	5	0	
0.022	-0.0279013	0.00206861	0.000614955	2.71877E-05	0	5	0	
0.0221667	0.0320321	0.000547729	0.000599415	3.93708E-05	0	5	0	
0.0223333	-0.0303899	-0.00102697	0.000589376	3.52321E-05	0	5	0	
0.0225	0.0250877	-0.00116377	0.00057038	3.753E-05	0	5	0	
0.0226667	-0.0313331	0.00174288	0.000548672	3.01865E-05	0	5	0	
0.0228333	0.0352038	0.000142048	0.000572403	3.48126E-05	0	5	0	
0.023	-0.0396339	-0.00135789	0.00062556	2.74096E-05	0	5	0	
0.0231667	0.0304225	-0.000285836	0.000678386	2.82021E-05	0	5	0	
0.0233333	-0.0250044	0.00220708	0.000636492	2.71471E-05	0	5	0	
0.0235	0.0319409	-0.00140669	0.000584631	3.21E-05	0	5	0	
0.0236667	-0.0375237	0.000426286	0.000573999	2.7948E-05	0	5	0	
0.0238333	0.0264222	-0.000474001	0.000607381	2.03575E-05	0	5	0	
0.024	-0.0244366	0.000282648	0.000594194	1.17931E-05	0	5	0	
0.0241667	0.0317596	-3.97985E-05	0.000576308	1.03981E-05	0	5	0	
0.0243333	-0.0358842	0.000541931	0.000625477	1.0929E-05	0	5	0	
0.0245	0.0387233	-0.000882	0.000690795	1.3361E-05	0	5	0	
0.0246667	-0.0393683	0.000572334	0.000734485	1.37656E-05	0	5	0	
0.0248333	0.0308684	-2.47796E-05	0.000704533	1.5136E-05	0	5	0	
0.025	-0.0293133	0.00100331	0.00066937	1.64456E-05	0	5	0	
0.0251667	0.0316938	-0.00177791	0.000621975	1.8916E-05	0	5	0	
0.0253333	-0.0350134	0.00026666	0.000613791	2.73371E-05	0	5	0	
0.0255	0.0255085	0.00127492	0.000612629	2.83794E-05	0	5	0	
0.0256667	-0.0192351	0.00118275	0.000551083	3.1516E-05	0	5	0	
0.0258333	0.0262135	-0.00143778	0.000481272	2.6808E-05	0	5	0	
0.026	-0.0396515	-0.000581401	0.000517655	2.94167E-05	0	5	0	
0.0261667	0.0358466	0.000495754	0.000618729	2.51625E-05	0	5	0	
0.0263333	-0.0290792	0.00231221	0.000669558	3.56801E-05	0	5	0	
0.0265	0.021572	-0.0022985	0.000620715	4.11081E-05	0	5	0	
0.0266667	-0.0190318	0.000211469	0.000512525	4.92383E-05	0	5	0	
0.0268333	0.0255106	0.000674604	0.000437977	3.49216E-05	0	5	0	
0.027	-0.0255523	0.0006168	0.000426655	2.92354E-05	0	5	0	
0.0271667	0.0267012	-0.00107102	0.000464483	2.29952E-05	0	5	0	
0.0273333	-0.0386251	0.000177364	0.000543722	2.19505E-05	0	5	0	
0.0275	0.042191	0.000550976	0.00063556	1.71903E-05	0	5	0	
0.0276667	-0.023945	-9.47698E-05	0.000670494	1.40059E-05	0	5	0	
0.0278333	0.0163894	-0.00124567	0.000621009	2.10823E-05	0	5	0	
0.028	-0.0210351	0.00163901	0.000504556	2.3763E-05	0	5	0	
0.0281667	0.0358662	-0.000493144	0.000497869	2.94246E-05	0	5	0	
0.0283333	-0.0436831	-0.000552412	0.000606304	2.45418E-05	0	5	0	
0.0285	0.0309573	-0.00082644	0.000692262	2.26471E-05	0	5	0	
0.0286667	-0.0192488	0.00221176	0.000653489	2.10065E-05	0	5	0	
0.0288333	0.0212385	-0.000952414	0.000515028	2.76076E-05	0	5	0	
0.029	-0.0331519	0.000412371	0.000464633	2.80274E-05	0	5	0	
0.0291667	0.0344792	-0.00212326	0.000525102	3.0111E-05	0	5	0	
0.0293333	-0.0274695	0.0028681	0.000602307	3.33373E-05	0	5	0	
0.0295	0.0272112	-0.000751354	0.00060072	4.23993E-05	0	5	0	
0.0296667	-0.0304584	-5.23722E-05	0.000576233	4.032E-05	0	5	0	
0.0298333	0.0271264	-0.00124461	0.000531636	3.2914E-05	0	5	0	
0.03	-0.0266704	0.00189218	0.000574435	2.62431E-05	0	5	0	
0.0301667	0.0249508	0.00052289	0.000590161	3.17014E-05	0	5	0	
0.0303333	-0.0277339	-0.00085026	0.000605533	2.52595E-05	0	5	0	
0.0305	0.0345714	-0.0027783	0.000585697	4.32119E-05	0	5	0	
0.0306667	-0.0279266	0.00396259	0.000585719	4.7364E-05	0	5	0	
0.0308333	0.0224562	0.000337632	0.000559659	7.44371E-05	0	5	0	
0.031	-0.0309606	-0.00205989	0.000519298	6.21385E-05	0	5	0	
0.0311667	0.0369815	-0.00189958	0.000526873	6.49278E-05	0	5	0	
0.0313333	-0.0306285	0.00404555	0.00060127	5.44452E-05	0	5	0	
0.0315	0.0300594	-0.000647446	0.000640342	6.33562E-05	0	5	0	
0.0316667	-0.0340909	-0.00187228	0.000624905	6.10167E-05	0	5	0	
0.0318333	0.0337081	0.000253133	0.000611501	5.03506E-05	0	5	0	
0.032	-0.0267111	0.00154929	0.00061292	3.62701E-05	0	5	0	
0.0321667	0.0206186	-0.000190007	0.000559457	2.80405E-05	0	5	0	
0.0323333	-0.0215569	-0.000570026	0.000508701	2.87598E-05	0	5	0	
0.0325	0.0210783	-0.00187527	0.000453144	3.30628E-05	0	5	0	
0.0326667	-0.0281856	0.0031053	0.000466556	3.69893E-05	0	5	0	
0.0328333	0.0346988	-0.000484232	0.000506835	4.89867E-05	0	5	0	
0.033	-0.0324877	-0.00101239	0.000572225	5.06802E-05	0	5	0	
0.0331667	0.0275538	-0.000918825	0.0005948	4.3403E-05	0	5	0	
0.0333333	-0.0338432	0.0021376	0.000595918	3.20992E-05	0	5	0	
0.0335	0.0303057	-0.000859209	0.000593084	2.796E-05	0	5	0	
0.0336667	-0.0252074	0.000151785	0.000585981	2.48998E-05	0	5	0	
0.0338333	0.024494	-0.0004507	0.000546756	1.76883E-05	0	5	0	
0.034	-0.0320114	0.000554296	0.000523108	1.10464E-05	0	5	0	
0.0341667	0.0319907	-0.000989601	0.000543414	1.26823E-05	0	5	0	
0.0343333	-0.0299135	0.00194582	0.0005737	2.16266E-05	0	5	0	
0.0345	0.0286884	-0.00153365	0.00059002	2.72756E-05	0	5	0	
0.0346667	-0.0298546	0.000218742	0.000572639	3.13764E-05	0	5	0	
0.0348333	0.0270529	-4.77376E-05	0.000559734	2.57233E-05	0	5	0	
0.035	-0.0264969	0.00165186	0.00053271	2.30541E-05	0	5	0	
0.0351667	0.0280614	-0.00190041	0.000538859	2.33536E-05	0	5	0	
0.0353333	-0.0278888	0.000483	0.00053693	2.73895E-05	0	5	0	
0.0355	0.0280275	7.31297E-06	0.000541763	2.26048E-05	0	5	0	
0.0356667	-0.0222305	0.00123652	0.000511984	2.21758E-05	0	5	0	
0.0358333	0.02739	-0.00202887	0.000486533	2.24903E-05	0	5	0	
0.036	-0.036946	0.00147374	0.000526241	3.42663E-05	0	5	0	
0.0361667	0.0333268	-0.00015989	0.000602709	3.07123E-05	0	5	0	
0.0363333	-0.0247892	0.000923811	0.000628465	2.63282E-05	0	5	0	
0.0365	0.026241	-0.00156332	0.000570068	1.97983E-05	0	5	0	
0.0366667	-0.0278114	0.000366778	0.000499701	1.99395E-05	0	5	0	
0.0368333	0.0338965	0.000234067	0.000528022	1.93857E-05	0	5	0	
0.037	-0.0347	0.00100115	0.000599002	1.77444E-05	0	5	0	
0.0371667	0.0313617	-0.00145663	0.000653109	1.86904E-05	0	5	0	
0.0373333	-0.0274566	0.000711953	0.000635765	2.14196E-05	0	5	0	
0.0375	0.0264756	0.000492871	0.00057231	2.33514E-05	0	5	0	
0.0376667	-0.0307133	-9.20719E-05	0.000536193	1.65652E-05	0	5	0	
0.0378333	0.03303	-0.00100263	0.000550296	1.49443E-05	0	5	0	
0.038	-0.0290672	0.00141166	0.000591168	1.50232E-05	0	5	0	
0.0381667	0.0299715	-0.000901601	0.000590889	2.10144E-05	0	5	0	
0.0383333	-0.0280171	0.000471383	0.000575544	2.00979E-05	0	5	0	
0.0385	0.0258737	-0.00043566	0.000538353	1.57841E-05	0	5	0	
0.0386667	-0.0328614	0.000989001	0.000542279	1.26223E-05	0	5	0	
0.0388333	0.0295469	-0.000814895	0.000583315	1.28622E-05	0	5	0	
0.039	-0.0273284	-0.000252022	0.000592026	1.36136E-05	0	5	0	
0.0391667	0.0256482	0.00023514	0.000564358	1.13866E-05	0	5	0	
0.0393333	-0.0289913	0.000372582	0.000508753	1.13969E-05	0	5	0	
0.0395	0.0274658	-0.000405108	0.000520327	1.15117E-05	0	5	0	
0.0396667	-0.0282463	0.000273712	0.000533457	1.15963E-05	0	5	0	
0.0398333	0.0275417	-0.000596735	0.000541889	1.17804E-05	0	5	0	
0.04	-0.0281194	0.00140276	0.000534278	1.39966E-05	0	5	0	
0.0401667	0.0286243	-0.000954635	0.000546507	1.91642E-05	0	5	0	
0.0403333	-0.0321739	0.00062535	0.000548429	2.26565E-05	0	5	0	
0.0405	0.0324275	-0.000391986	0.000581969	2.14851E-05	0	5	0	
0.0406667	-0.0266402	0.000266564	0.000578039	1.81195E-05	0	5	0	
0.0408333	0.0258351	-0.000455198	0.000573368	1.22496E-05	0	5	0	
0.041	-0.0271608	0.00119894	0.000535125	1.26152E-05	0	5	0	
0.0411667	0.030604	-0.00129362	0.000542849	1.6689E-05	0	5	0	
0.0413333	-0.0363008	0.000628229	0.000584132	2.30705E-05	0	5	0	
0.0415	0.03714	-0.000225009	0.000642737	2.32772E-05	0	5	0	
0.0416667	-0.0311399	0.000421581	0.000663104	1.96907E-05	0	5	0	
0.0418333	0.0248679	-0.00047333	0.000623098	1.49114E-05	0	5	0	
0.042	-0.0214534	0.000911935	0.000546312	1.36046E-05	0	5	0	
0.0421667	0.0216272	-0.00146438	0.000480413	1.7833E-05	0	5	0	
0.0423333	-0.0387414	0.000915782	0.000489552	2.00572E-05	0	5	0	
0.0425	0.0521896	0.000147629	0.0006198	2.48299E-05	0	5	0	
0.0426667	-0.0559273	0.000512076	0.000802619	2.15577E-05	0	0	0	
0.0428333	0.0421203	-0.00257452	0.000964721	2.68765E-05	0	0	0	
0.043	-0.0205677	0.000462505	0.000914886	3.22361E-05	0	0	0	
0.0431667	0.0138222	0.00240008	0.000701183	4.62702E-05	0	0	0	
0.0433333	-0.0262045	0.000277021	0.000498791	5.32382E-05	0	0	0	
0.0435	0.0450383	-0.0034491	0.000500367	6.10642E-05	0	0	0	
0.0436667	-0.0541079	-8.70938E-05	0.000696673	5.94525E-05	0	0	0	
0.0438333	0.0517649	0.00207062	0.000900155	5.00469E-05	0	0	0	
0.044	-0.0369188	0.00222644	0.000943168	5.57984E-05	0	0	0	
0.0441667	0.0304584	-0.00315971	0.000846218	5.34461E-05	0	0	0	
0.0443333	-0.0339084	-0.00118386	0.000731176	6.75648E-05	0	0	0	
0.0445	0.0420058	0.00149235	0.0006962	4.71968E-05	0	0	0	
0.0446667	-0.0478573	0.00185927	0.000763209	5.49729E-05	0	0	0	
0.0448333	0.0394791	-0.000915827	0.000812456	3.91693E-05	0	0	0	
0.045	-0.0243766	-0.000692194	0.000768192	3.93199E-05	0	0	0	
0.0451667	0.0219618	-0.000410476	0.000643482	2.3632E-05	0	0	0	
0.0453333	-0.0310197	0.00113934	0.00056932	2.15156E-05	0	0	0	
0.0455	0.0433106	-0.000117312	0.00060846	1.78378E-05	0	0	0	
0.0456667	-0.0419694	0.000661117	0.000717791	1.38821E-05	0	0	0	
0.0458333	0.0319178	-0.000944846	0.000748139	1.34783E-05	0	0	0	
0.046	-0.0181784	-0.000171064	0.000665823	1.56964E-05	0	0	0	
0.0461667	0.0153154	0.00103565	0.00052629	1.62495E-05	0	0	0	
0.0463333	-0.0282615	0.000360197	0.000412596	2.09134E-05	0	0	0	
0.0465	0.0352378	-0.00183367	0.000445425	2.5476E-05	0	0	0	
0.0466667	-0.0343679	0.00117828	0.000530891	3.14651E-05	0	0	0	
0.0468333	0.0342803	-7.07975E-05	0.000632148	2.8424E-05	0	0	0	
0.047	-0.0274109	0.000349031	0.000641221	1.85104E-05	0	0	0	
0.0471667	0.0267815	-0.00126435	0.000593802	1.4356E-05	0	0	0	
0.0473333	-0.0304603	0.000812713	0.00052383	1.33614E-05	0	0	0	
0.0475	0.0387665	-8.02718E-05	0.000565441	1.56635E-05	0	0	0	
0.0476667	-0.0343836	0.00126828	0.00066439	1.44586E-05	0	0	0	
0.0478333	0.0260235	-0.00180417	0.000761453	1.72627E-05	0	0	0	
0.048	-0.0160909	7.28192E-07	0.000679401	2.59895E-05	0	0	0	
0.0481667	0.0231274	0.00187358	0.000553579	3.11288E-05	0	0	0	
0.0483333	-0.0397923	0.000190069	0.000494518	4.02811E-05	0	0	0	
0.0485	0.046182	-0.00282646	0.00059544	4.77372E-05	0	0	0	
0.0486667	-0.0422083	0.000761498	0.000762081	5.09174E-05	0	0	0	
0.0488333	0.0318793	0.000639859	0.00081989	4.33985E-05	0	0	0	
0.049	-0.0255491	0.00220011	0.000754205	4.01741E-05	0	0	0	
0.0491667	0.0253397	-0.00259716	0.000616739	4.21943E-05	0	0	0	
0.0493333	-0.0376877	-0.00203819	0.000563796	5.47121E-05	0	0	0	
0.0495	0.0434172	0.00177941	0.000620108	4.87977E-05	0	0	0	
0.0496667	-0.0436645	0.0016706	0.000739807	5.52659E-05	0	0	0	
0.0498333	0.0340214	-0.00147514	0.000799803	4.108E-05	0	0	0	
0.05	-0.0239226	-0.000496377	0.000743859	3.95907E-05	0	0	0	
0.0501667	0.0219955	-0.00103044	0.000604638	2.92383E-05	0	0	0	
0.0503333	-0.0288682	0.00147707	0.000507723	3.2185E-05	0	0	0	
0.0505	0.0348333	0.000803497	0.000500239	3.20596E-05	0	0	0	
0.0506667	-0.0335224	-0.0010211	0.000581865	2.61559E-05	0	0	0	
0.0508333	0.0275283	-0.00158962	0.000629419	3.16172E-05	0	0	0	
0.051	-0.0189728	0.00137099	0.000601725	3.06252E-05	0	0	0	
0.0511667	0.00198695	0.00100169	0.000455847	3.72857E-05	0	0	0	
0.0513333	0.0208716	-0.000576727	0.000317324	3.19821E-05	0	0	0	
0.0515	-0.0345476	-0.00145293	0.000395549	4.57053E-05	0	0	0	
0.0516667	0.00294577	0.000856315	0.000649507	4.09379E-05	0	0	0	
0.0518333	0.0297533	-2.49502E-05	0.000849582	3.28362E-05	0	0	0	
0.052	-0.0476961	0.000157917	0.00080872	1.80189E-05	0	0	0	
0.0521667	0.0350357	-0.000339726	0.000815854	1.59996E-05	0	0	0	
0.0523333	-0.00467224	0.000121716	0.000828182	1.61386E-05	0	0	0	
0.0525	-0.00149434	-0.00126547	0.000821214	1.45003E-05	0	0	0	
0.0526667	0.00260951	0.000324986	0.000585571	1.71362E-05	0	0	0	
0.0528333	0.0160581	0.00130098	0.000426494	1.72219E-05	0	0	0	
0.053	-0.0289973	0.00051425	0.000400862	3.31211E-05	0	0	0	
0.0531667	0.0574703	-0.00263918	0.000596738	3.98446E-05	0	0	0	
0.0533333	-0.0553062	-2.48564E-05	0.000863391	5.47268E-05	0	0	0	
0.0535	0.0572529	0.00146224	0.0010566	4.57438E-05	0	0	0	
0.0536667	-0.0548715	0.00171566	0.0011421	4.95231E-05	0	0	0	
0.0538333	0.0379838	-0.00339839	0.00105327	4.87079E-05	0	0	0	
0.054	-0.0139625	0.00066361	0.000857767	5.27148E-05	0	0	0	
0.0541667	-0.0174822	0.000980752	0.000593924	4.94527E-05	0	0	0	
0.0543333	0.0192295	0.000756018	0.000459492	4.05265E-05	0	0	0	
0.0545	0.0333542	-0.00224936	0.000763058	3.73161E-05	0	0	0	
0.0546667	-0.0824196	0.000926478	0.00117818	3.50153E-05	0	0	0	
0.0548333	0.0781674	0.00116185	0.00150102	3.6618E-05	0	0	0	
0.055	-0.0425776	0.00010516	0.0014294	3.58083E-05	0	0	0	
0.0551667	0.00436724	-0.00210454	0.00127767	3.75766E-05	0	0	0	
0.0553333	0.0186227	0.00138509	0.00109049	3.95843E-05	0	0	0	
0.0555	-0.0056862	0.000381915	0.000827305	3.69844E-05	0	0	0	
0.0556667	-0.0207833	-7.18813E-05	0.000576914	2.67743E-05	0	0	0	
0.0558333	0.0469973	-0.000637599	0.000556184	2.48823E-05	0	0	0	
0.056	-0.0522501	0.0013205	0.000748889	2.40569E-05	0	0	0	
0.0561667	0.0340516	-0.00147952	0.000881159	2.72664E-05	0	0	0	
0.0563333	-0.0139383	0.0003282	0.000757071	3.26622E-05	0	0	0	
0.0565	0.016609	0.00140818	0.000533578	3.79298E-05	0	0	0	
0.0566667	-0.0237422	-0.000182797	0.000409224	3.95662E-05	0	0	0	
0.0568333	0.0312558	-0.00159085	0.000413713	3.98919E-05	0	0	0	
0.057	-0.0303844	0.000720121	0.000530701	3.17082E-05	0	0	0	
0.0571667	0.0214521	0.000284403	0.00054741	2.64887E-05	0	0	0	
0.0573333	-0.0265246	0.00135335	0.000535208	1.85409E-05	0	0	0	
0.0575	0.0338383	-0.00176165	0.000491821	2.22038E-05	0	0	0	
0.0576667	-0.0349819	-0.000484651	0.000564414	3.11143E-05	0	0	0	
0.0578333	0.0216362	0.000260254	0.000637916	2.56008E-05	0	0	0	
0.058	-0.0216768	0.00175018	0.000651807	3.17838E-05	0	0	0	
0.0581667	0.0198272	-0.00108319	0.00055073	2.6713E-05	0	0	0	
0.0583333	-0.0287239	-0.000125281	0.000486623	3.09419E-05	0	0	0	
0.0585	0.0314497	-0.00117221	0.000487688	2.40923E-05	0	0	0	
0.0586667	-0.038447	0.00190882	0.00057142	2.63703E-05	0	0	0	
0.0588333	0.039982	0.000797973	0.000673101	2.86536E-05	0	0	0	
0.059	-0.0378649	-9.91451E-05	0.000721386	2.87415E-05	0	0	0	
0.0591667	0.0334779	-0.00252514	0.000744578	3.6562E-05	0	0	0	
0.0593333	-0.0287093	0.000555575	0.000689524	3.93755E-05	0	0	0	
0.0595	0.0223243	0.00122652	0.000624921	4.44803E-05	0	0	0	
0.0596667	-0.0311144	0.00198496	0.00055824	4.12131E-05	0	0	0	
0.0598333	0.0374189	-0.00228031	0.000577407	4.10144E-05	0	0	0	
0.06	-0.0394294	-0.00192579	0.000634486	5.25134E-05	0	0	0	
0.0601667	0.0371952	0.00206831	0.000710949	4.73566E-05	0	0	0	
0.0603333	-0.0331385	0.00276302	0.000709877	6.94735E-05	0	0	0	
0.0605	0.0264924	-0.00324712	0.000671955	6.0654E-05	0	0	0	
0.0606667	-0.025389	-0.000569289	0.000588289	7.70754E-05	0	0	0	
0.0608333	0.0319062	0.000851234	0.000548232	4.64874E-05	0	0	0	
0.061	-0.0338327	0.00272031	0.000557923	5.14681E-05	0	0	0	
0.0611667	0.0212439	-0.00289281	0.000562216	4.34625E-05	0	0	0	
0.0613333	-0.0165568	0.000125916	0.000498886	5.23339E-05	0	0	0	
0.0615	0.0195821	0.000110538	0.000423778	3.4697E-05	0	0	0	
0.0616667	-0.0347362	0.00186611	0.000445663	2.80925E-05	0	0	0	
0.0618333	0.034923	-0.000797746	0.000557645	2.61184E-05	0	0	0	
0.062	-0.0372591	-0.00165929	0.000668632	3.63402E-05	0	0	0	
0.0621667	0.0302969	0.00100956	0.000680456	3.53506E-05	0	0	0	
0.0623333	-0.0234928	0.00159229	0.000619028	4.70304E-05	0	0	0	
0.0625	0.0141872	-0.0018528	0.000548255	4.83697E-05	0	0	0	
0.0626667	-0.0171897	0.00103561	0.00045182	4.62763E-05	0	0	0	
0.0628333	0.028632	0.000583808	0.000486399	3.35199E-05	0	0	0	
0.063	-0.0427889	-0.000392914	0.000579208	2.09793E-05	0	0	0	
0.0631667	0.0443861	-0.00113747	0.000744871	2.55672E-05	0	0	0	
0.0633333	-0.0318068	0.0013915	0.000771336	2.1938E-05	0	0	0	
0.0635	0.0218021	-0.000429251	0.000689918	2.78297E-05	0	0	0	
0.0636667	-0.019249	0.000501519	0.000556023	1.71146E-05	0	0	0	
0.0638333	0.0225057	-0.00138219	0.000460712	1.83582E-05	0	0	0	
0.064	-0.0215889	0.000694817	0.000433748	1.74443E-05	0	0	0	
0.0641667	0.0287533	0.000365697	0.000467155	2.05667E-05	0	0	0	
0.0643333	-0.0305861	-2.12215E-06	0.000534606	1.92018E-05	0	0	0	
0.0645	0.0341028	-0.00100464	0.000576108	2.02575E-05	0	0	0	
0.0646667	-0.031206	0.00097799	0.000610723	2.30787E-05	0	0	0	
0.0648333	0.0241946	-0.000991651	0.000592885	2.38291E-05	0	0	0	
0.065	-0.0245279	0.000952891	0.000570645	2.03298E-05	0	0	0	
0.0651667	0.0254025	-0.00188601	0.000539846	2.34741E-05	0	0	0	
0.0653333	-0.0264211	0.00139068	0.000513555	2.60985E-05	0	0	0	
0.0655	0.0320292	0.000736595	0.000525908	3.06674E-05	0	0	0	
0.0656667	-0.033527	-0.000916049	0.000559459	2.50006E-05	0	0	0	
0.0658333	0.0301936	-0.00131611	0.000604331	2.9874E-05	0	0	0	
0.066	-0.0279401	0.00191492	0.000606248	3.03945E-05	0	0	0	
0.0661667	0.0273926	-0.000227924	0.000579537	3.52803E-05	0	0	0	
0.0663333	-0.0295493	-0.000401281	0.000548766	2.3113E-05	0	0	0	
0.0665	0.037665	-0.00151995	0.0005622	2.80459E-05	0	0	0	
0.0666667	-0.0305671	0.00136798	0.000595665	2.80741E-05	0	0	0	
0.0668333	0.0255233	-0.000383704	0.000609353	3.10823E-05	0	0	0	
0.067	-0.0276806	0.00149363	0.000574692	2.57103E-05	0	0	0	
0.0671667	0.029515	-0.00200132	0.000541818	2.60292E-05	0	0	0	
0.0673333	-0.0224673	-0.000493654	0.000514947	3.69797E-05	0	0	0	
0.0675	0.0205387	0.000302923	0.000483398	2.88138E-05	0	0	0	
0.0676667	-0.0290631	0.00117713	0.000463501	2.90546E-05	0	0	0	
0.0678333	0.038075	-6.01255E-05	0.000512701	1.73299E-05	0	0	0	
0.068	-0.038386	0.000145078	0.000620355	1.78626E-05	0	0	0	
0.0681667	0.0368464	-0.00206915	0.000690723	1.85327E-05	0	0	0	
0.0683333	-0.0314426	0.00107135	0.000691632	2.4707E-05	0	0	0	
0.0685	0.0265148	0.00102038	0.000652542	2.99211E-05	0	0	0	
0.0686667	-0.0277169	0.00145705	0.000596928	3.46045E-05	0	0	0	
0.0688333	0.0329764	-0.00286365	0.000577987	3.92994E-05	0	0	0	
0.069	-0.0392575	0.000232297	0.000606866	5.03966E-05	0	0	0	
0.0691667	0.0308548	0.00155861	0.000636507	4.72008E-05	0	0	0	
0.0693333	-0.0299489	0.000442713	0.000651182	4.31674E-05	0	0	0	
0.0695	0.0234379	-0.00156231	0.000608474	3.17876E-05	0	0	0	
0.0696667	-0.0243748	0.000484235	0.000545786	2.90752E-05	0	0	0	
0.0698333	0.0308816	0.000207621	0.000535938	2.3283E-05	0	0	0	
0.07	-0.0320754	0.000907993	0.000567721	1.90037E-05	0	0	0	
0.0701667	0.0312072	-0.000925128	0.000614202	1.48918E-05	0	0	0	
0.0703333	-0.0366111	-0.00019681	0.000622507	1.39525E-05	0	0	0	
0.0705	0.0315147	-0.000751169	0.000641872	1.60659E-05	0	0	0	
0.0706667	-0.0256523	0.00235625	0.000630564	1.9804E-05	0	0	0	
0.0708333	0.0276269	-0.00112827	0.000603607	2.77566E-05	0	0	0	
0.071	-0.0181008	-0.000549518	0.000511861	3.3655E-05	0	0	0	
0.0711667	0.0120946	-0.000348889	0.000415616	2.59028E-05	0	0	0	
0.0713333	-0.0256178	0.000692162	0.00035002	2.0584E-05	0	0	0	
0.0715	0.0384917	-0.000908094	0.000423218	1.62585E-05	0	0	0	
0.0716667	-0.0369067	0.00191452	0.000571452	2.2225E-05	0	0	0	
0.0718333	0.0301533	-0.00107385	0.000677416	2.68825E-05	0	0	0	
0.072	-0.0201773	-0.00129158	0.000620043	3.12414E-05	0	0	0	
0.0721667	0.0253326	-0.000271011	0.000531062	3.29944E-05	0	0	0	
0.0723333	-0.0331474	0.00263758	0.000489664	3.84916E-05	0	0	0	
0.0725	0.0315838	-0.000755873	0.000532913	3.78104E-05	0	0	0	
0.0726667	-0.0281767	-0.00146054	0.000585534	4.31527E-05	0	0	0	
0.0728333	0.030953	-0.000380502	0.000600471	3.59591E-05	0	0	0	
0.073	-0.0332974	0.00223307	0.000599296	3.71155E-05	0	0	0	
0.0731667	0.0271398	-5.1076E-05	0.000585154	3.4269E-05	0	0	0	
0.0733333	-0.0223697	-0.00129152	0.000560836	3.12182E-05	0	0	0	
0.0735	0.0334212	-0.00147958	0.000543774	3.75283E-05	0	0	0	
0.0736667	-0.0427553	0.00294853	0.000591924	3.67253E-05	0	0	0	
0.0738333	0.0272306	0.000207654	0.000650461	5.39039E-05	0	0	0	
0.074	-0.0124127	-0.00219121	0.000630108	4.9646E-05	0	0	0	
0.0741667	0.0183331	-0.00107515	0.000509629	5.79839E-05	0	0	0	
0.0743333	-0.0345253	0.00333309	0.00048007	5.05617E-05	0	0	0	
0.0745	0.0419652	-0.000309889	0.000539947	5.59615E-05	0	0	0	
0.0746667	-0.0354782	-0.0019133	0.000676307	5.04705E-05	0	0	0	
0.0748333	0.0294663	-0.000995149	0.000696439	5.0976E-05	0	0	0	
0.075	-0.0304606	0.00285629	0.000661727	4.80146E-05	0	0	0	
0.0751667	0.0334647	-0.000758394	0.000624348	4.77506E-05	0	0	0	
0.0753333	-0.0324682	-0.00029532	0.000629187	3.91952E-05	0	0	0	
0.0755	0.0322455	-0.00144151	0.000641463	3.33022E-05	0	0	0	
0.0756667	-0.0315879	0.00220329	0.000646578	3.20805E-05	0	0	0	
0.0758333	0.0306348	-3.89989E-05	0.000616738	3.2581E-05	0	0	0	
0.076	-0.0314289	0.000534391	0.000595579	2.54478E-05	0	0	0	
0.0761667	0.0372807	-0.00220436	0.000598316	2.83688E-05	0	0	0	
0.0763333	-0.0396133	0.00205319	0.000651463	3.15931E-05	0	0	0	
0.0765	0.0375296	0.000451343	0.000716508	4.53163E-05	0	0	0	
0.0766667	-0.0327357	6.92459E-05	0.000733254	3.11684E-05	0	0	0	
0.0768333	0.0213251	-0.00178568	0.000668034	4.11267E-05	0	0	0	
0.077	-0.021849	0.00233376	0.00055228	3.98972E-05	0	0	0	
0.0771667	0.0280039	-0.000348985	0.000486059	4.84946E-05	0	0	0	
0.0773333	-0.0352374	-0.00086512	0.000493137	3.43388E-05	0	0	0	
0.0775	0.0421336	-0.000525815	0.000609248	2.74033E-05	0	0	0	
0.0776667	-0.034774	0.00230777	0.000699279	2.44083E-05	0	0	0	
0.0778333	0.0256866	0.000143619	0.000711446	3.49283E-05	0	0	0	
0.078	-0.0319289	-0.0023385	0.000639385	4.1879E-05	0	0	0	
0.0781667	0.0364431	-0.000258185	0.000622211	4.90659E-05	0	0	0	
0.0783333	-0.0313868	0.00323025	0.000616924	4.41096E-05	0	0	0	
0.0785	0.0275164	-0.000111709	0.00063008	4.87989E-05	0	0	0	
0.0786667	-0.0247883	-0.00237464	0.000572635	5.1175E-05	0	0	0	
0.0788333	0.0159902	-0.00126045	0.000520533	5.9382E-05	0	0	0	
0.079	-0.0172323	0.00411646	0.000445932	6.10006E-05	0	0	0	
0.0791667	0.0320958	-0.000471972	0.000443042	6.04146E-05	0	0	0	
0.0793333	-0.0370242	-0.00102674	0.000518132	4.82149E-05	0	0	0	
0.0795	0.0338755	-0.00210887	0.00061497	4.20859E-05	0	0	0	
0.0796667	-0.0338167	0.00218115	0.00067119	3.86333E-05	0	0	0	
0.0798333	0.0298735	0.00134235	0.000677198	4.60488E-05	0	0	0	
0.08	-0.0307274	-0.001234	0.000649079	3.75337E-05	0	0	0	
0.0801667	0.040971	-0.000307814	0.000642952	4.20143E-05	0	0	0	
0.0803333	-0.0400479	0.000334107	0.000686092	2.6789E-05	0	0	0	
0.0805	0.035064	0.000760118	0.000737573	2.25413E-05	0	0	0	
0.0806667	-0.0356441	0.00152361	0.000724502	2.11155E-05	0	0	0	
0.0808333	0.0272954	-0.00224046	0.000665878	3.27133E-05	0	0	0	
0.081	-0.0262188	-0.000313158	0.000592038	4.13495E-05	0	0	0	
0.0811667	0.0373629	0.000329482	0.000589207	2.8198E-05	0	0	0	
0.0813333	-0.0331613	0.00222147	0.000614727	2.57353E-05	0	0	0	
0.0815	0.0292703	-0.0012601	0.000632051	2.79898E-05	0	0	0	
0.0816667	-0.0285523	-0.00244402	0.000606477	4.81699E-05	0	0	0	
0.0818333	0.0283208	0.000996132	0.00055414	4.68741E-05	0	0	0	
0.082	-0.0314062	0.00258015	0.000568385	5.49002E-05	0	0	0	
0.0821667	0.0274351	-0.00212989	0.000584173	4.61319E-05	0	0	0	
0.0823333	-0.0271684	-0.00040519	0.000560811	5.39872E-05	0	0	0	
0.0825	0.0294399	-0.000952478	0.000550208	3.59852E-05	0	0	0	
0.0826667	-0.0292339	0.00173212	0.000596321	3.52995E-05	0	0	0	
0.0828333	0.0231227	-0.00137705	0.000646599	2.65433E-05	0	0	0	
0.083	-0.0277662	0.000857005	0.000630276	3.3513E-05	0	0	0	
0.0831667	0.0307564	-0.000366749	0.000587527	2.7249E-05	0	0	0	
0.0833333	-0.0276585	0.000258309	0.000550279	2.41483E-05	0	0	0	
0.0835	0.032172	-0.00130599	0.000569895	2.09575E-05	0	0	0	
0.0836667	-0.0374531	0.00139246	0.000583788	2.23209E-05	0	0	0	
0.0838333	0.0373022	0.00144839	0.000660051	3.249E-05	0	0	0	
0.084	-0.0337292	-0.000629357	0.000705495	2.88717E-05	0	0	0	
0.0841667	0.0317951	-0.00287446	0.000704067	4.44799E-05	0	0	0	
0.0843333	-0.0253528	0.002637	0.00063513	4.4511E-05	0	0	0	
0.0845	0.0227335	0.00177323	0.000557241	7.16473E-05	0	0	0	
0.0846667	-0.0247208	-0.0011684	0.000489023	5.57787E-05	0	0	0	
0.0848333	0.0318376	-0.00312871	0.000484059	6.70881E-05	0	0	0	
0.085	-0.0432476	0.00199565	0.000561181	5.09327E-05	0	0	0	
0.0851667	0.0367974	0.00181193	0.00066437	6.69585E-05	0	0	0	
0.0853333	-0.0242248	-0.00074478	0.000691339	5.06458E-05	0	0	0	
0.0855	0.0197823	-0.00253443	0.000605788	5.86391E-05	0	0	0	
0.0856667	-0.0261896	0.00201855	0.000495713	4.69145E-05	0	0	0	
0.0858333	0.0268643	0.000922378	0.000471028	5.41997E-05	0	0	0	
0.086	-0.0332884	-0.00100976	0.000514366	3.93261E-05	0	0	0	
0.0861667	0.0322689	-0.000352987	0.000588493	3.56362E-05	0	0	0	
0.0863333	-0.0337783	0.00164516	0.000611221	2.92132E-05	0	0	0	
0.0865	0.0330296	-0.00170202	0.000632945	2.93804E-05	0	0	0	
0.0866667	-0.0321465	0.000149854	0.000616876	3.50713E-05	0	0	0	
0.0868333	0.0272915	0.00145617	0.000610089	3.47567E-05	0	0	0	
0.087	-0.0272989	-0.000358531	0.000562725	3.40731E-05	0	0	0	
0.0871667	0.027331	-0.00184026	0.000530859	3.44371E-05	0	0	0	
0.0873333	-0.0262489	0.00163646	0.000505834	3.35297E-05	0	0	0	
0.0875	0.0282421	-0.00121343	0.000519955	3.51177E-05	0	0	0	
0.0876667	-0.0287914	0.00178016	0.000540161	3.13925E-05	0	0	0	
0.0878333	0.0273592	-0.00140371	0.000547638	3.06236E-05	0	0	0	
0.088	-0.028773	0.000152041	0.000546248	2.99584E-05	0	0	0	
0.0881667	0.0311326	-0.000203853	0.000539535	2.50512E-05	0	0	0	
0.0883333	-0.0340234	0.000846876	0.000585621	1.93974E-05	0	0	0	
0.0885	0.0304392	-0.00132945	0.00060856	1.74885E-05	0	0	0	
0.0886667	-0.0286663	0.0013791	0.000623829	1.97062E-05	0	0	0	
0.0888333	0.0231772	-0.00128278	0.000576653	2.42328E-05	0	0	0	
0.089	-0.0282862	0.000752119	0.000539802	2.43875E-05	0	0	0	
0.0891667	0.033329	-0.000871481	0.00052979	2.21216E-05	0	0	0	
0.0893333	-0.0300971	0.0018053	0.000556694	2.47187E-05	0	0	0	
0.0895	0.0214509	-0.00172501	0.000572452	2.70361E-05	0	0	0	
0.0896667	-0.0168817	0.000117455	0.000534514	3.44358E-05	0	0	0	
0.0898333	0.0166333	0.000623759	0.000442723	2.97606E-05	0	0	0	
0.09	-0.0250674	0.000327199	0.000405252	2.79939E-05	0	0	0	
0.0901667	0.0362134	-0.00139415	0.000454081	2.38455E-05	0	0	0	
0.0903333	-0.0400579	0.000681489	0.000588192	2.32684E-05	0	0	0	
0.0905	0.0371207	0.000583781	0.00067516	2.62398E-05	0	0	0	
0.0906667	-0.0289468	-0.00025827	0.000708346	1.92289E-05	0	0	0	
0.0908333	0.0200275	-0.00132028	0.000645667	1.93096E-05	0	0	0	
0.091	-0.0222025	0.001415	0.000565913	1.7531E-05	0	0	0	
0.0911667	0.0335536	-0.000585759	0.000512198	2.28657E-05	0	0	0	
0.0913333	-0.038798	0.000439501	0.000563231	2.27266E-05	0	0	0	
0.0915	0.0286051	-0.000577258	0.000620285	1.69942E-05	0	0	0	
0.0916667	-0.0191882	0.000736623	0.000593907	1.30859E-05	0	0	0	
0.0918333	0.0168969	-0.000839905	0.000479624	1.31065E-05	0	0	0	
0.092	-0.027003	-0.00124419	0.00040846	2.22505E-05	0	0	0	
0.0921667	0.0389957	0.00173502	0.000456547	2.64728E-05	0	0	0	
0.0923333	-0.0363731	0.00222944	0.00058134	4.70521E-05	0	0	0	
0.0925	0.0263957	-0.00434371	0.000647541	5.81272E-05	0	0	0	
0.0926667	-0.0205229	0.000502996	0.000605075	7.55093E-05	0	0	0	
0.0928333	0.0175833	0.00239917	0.000483207	6.89694E-05	0	0	0	
0.093	-0.0272895	0.00182883	0.000395611	6.84423E-05	0	0	0	
0.0931667	0.0313471	-0.00395935	0.000446757	6.03682E-05	0	0	0	
0.0933333	-0.0267367	-0.0011444	0.000540239	7.47882E-05	0	0	0	
0.0935	0.0294825	0.00274677	0.000662406	6.38722E-05	0	0	0	
0.0936667	-0.032239	0.00310157	0.000668456	8.76069E-05	0	0	0	
0.0938333	0.0356502	-0.00469589	0.000685009	7.98707E-05	0	0	0	
0.094	-0.0397927	0.000288085	0.000678192	9.58153E-05	0	0	0	
0.0941667	0.0473263	0.000422329	0.00075172	5.87101E-05	0	0	0	
0.0943333	-0.0374106	0.00350568	0.000793576	5.39717E-05	0	0	0	
0.0945	0.0356525	-0.00191236	0.000857613	4.26968E-05	0	0	0	
0.0946667	-0.024234	-0.00162341	0.000788869	6.2533E-05	0	0	0	
0.0948333	0.0268801	0.000617687	0.000692832	4.84963E-05	0	0	0	
0.095	-0.0342915	0.00174323	0.000639784	4.65562E-05	0	0	0	
0.0951667	0.0455921	-0.00182557	0.000686708	3.45708E-05	0	0	0	
0.0953333	-0.0467031	0.00249788	0.000783867	4.14519E-05	0	0	0	
0.0955	0.0414082	-0.00264167	0.000839207	4.137E-05	0	0	0	
0.0956667	-0.023744	4.09315E-06	0.000807217	4.32957E-05	0	0	0	
0.0958333	0.0171424	4.404E-05	0.000685047	3.27945E-05	0	0	0	
0.096	-0.0207918	0.00256376	0.000533664	3.76402E-05	0	0	0	
0.0961667	0.0314446	-0.000999383	0.000474692	3.43098E-05	0	0	0	
0.0963333	-0.0368623	-0.000922927	0.0005461	3.99529E-05	0	0	0	
0.0965	0.0344808	-0.00128338	0.000626949	3.59701E-05	0	0	0	
0.0966667	-0.0264808	0.00303379	0.000641248	4.34614E-05	0	0	0	
0.0968333	0.0234184	-0.000945178	0.000562074	4.61574E-05	0	0	0	
0.097	-0.0260337	-0.000637712	0.000489207	4.00689E-05	0	0	0	
0.0971667	0.0310124	0.00102792	0.000482552	2.54584E-05	0	0	0	
0.0973333	-0.0375941	-0.000353758	0.000559056	2.0472E-05	0	0	0	
0.0975	0.0276011	-0.00211059	0.000620994	2.22881E-05	0	0	0	
0.0976667	-0.0232328	0.00206587	0.000605685	3.07669E-05	0	0	0	
0.0978333	0.0273437	0.00116153	0.00054716	4.40356E-05	0	0	0	
0.098	-0.0343055	6.50193E-05	0.000524507	4.27205E-05	0	0	0	
0.0981667	0.0366563	-0.00425093	0.000595406	5.58656E-05	0	0	0	
0.0983333	-0.0336114	0.00100139	0.000660564	5.68911E-05	0	0	0	
0.0985	0.0283511	0.0035465	0.000688355	7.93736E-05	0	0	0	
0.0986667	-0.0178355	1.23134E-05	0.000605738	7.3469E-05	0	0	0	
0.0988333	0.0103936	-0.00477195	0.000467542	7.98391E-05	0	0	0	
0.099	-0.0179432	0.00178098	0.000341241	6.97877E-05	0	0	0	
0.0991667	0.0424824	0.00178844	0.00036028	7.52137E-05	0	0	0	
0.0993333	-0.0478513	4.39039E-05	0.000569315	5.7442E-05	0	0	0	
0.0995	0.03359	-0.00281131	0.000791291	5.26103E-05	0	0	0	
0.0996667	-0.0167469	0.00099964	0.000796807	3.97273E-05	0	0	0	
0.0998333	0.0130965	0.00149743	0.000587479	4.8549E-05	0	0	0	
0.1	-0.0203038	-0.000820836	0.000380636	3.53908E-05	0	0	0	
0.100167	0.031	-0.00188616	0.0003603	4.25332E-05	0	0	0	
0.100333	-0.0361406	0.0023858	0.000500402	3.59026E-05	0	0	0	
0.1005	0.0335598	-0.000514581	0.000624937	4.46738E-05	0	0	0	
0.100667	-0.0256124	-0.000989297	0.000645205	3.49927E-05	0	0	0	
0.100833	0.0171144	0.000123744	0.000554995	2.61255E-05	0	0	0	
0.101	-0.0206609	0.00133872	0.000443065	2.12679E-05	0	0	0	
0.101167	0.0329201	-0.00181042	0.000443287	2.02339E-05	0	0	0	
0.101333	-0.0341326	0.00041305	0.000509115	2.41553E-05	0	0	0	
0.1015	0.025072	0.000390579	0.000593887	2.25342E-05	0	0	0	
0.101667	-0.012719	-0.000168585	0.000567143	1.66719E-05	0	0	0	
0.101833	0.0271996	-0.000242695	0.000517297	1.04555E-05	0	0	0	
0.102	-0.0439113	-0.000303823	0.000576333	6.25292E-06	0	0	0	
0.102167	0.0436811	0.000253353	0.000688477	7.0836E-06	0	0	0	
0.102333	-0.00744617	0.000492992	0.000734062	1.18602E-05	0	0	0	
0.1025	-0.0062887	-0.000864999	0.000527595	1.57258E-05	0	0	0	
0.102667	-0.0135152	0.00204012	0.000444637	2.11775E-05	0	0	0	
0.102833	0.0310589	-0.00212718	0.000472537	2.94197E-05	0	0	0	
0.103	-0.00486571	-0.000356865	0.000491757	4.70194E-05	0	0	0	
0.103167	-0.0250715	0.0019454	0.000475677	5.32575E-05	0	0	0	
0.103333	0.0188941	0.000418129	0.000407426	4.85083E-05	0	0	0	
0.1035	0.0102216	-0.00145742	0.000408263	3.38263E-05	0	0	0	
0.103667	-0.0153124	0.000138433	0.000308821	2.59122E-05	0	0	0	
0.103833	0.0111653	-0.00020687	0.000279922	1.98694E-05	0	0	0	
0.104	-0.0110613	0.00295356	0.00026904	2.96095E-05	0	0	0	
0.104167	0.038864	-0.00341922	0.000394554	4.20727E-05	0	0	0	
0.104333	-0.029182	0.000517171	0.000563652	6.5008E-05	0	0	0	
0.1045	0.0155364	0.00211556	0.000845858	6.88405E-05	0	0	0	
0.104667	-0.0110695	-0.000696934	0.000802717	5.82602E-05	0	0	0	
0.104833	0.037798	-0.00116669	0.000657218	5.09998E-05	0	0	0	
0.105	-0.048912	0.000778898	0.000572986	3.67151E-05	0	0	0	
0.105167	0.0383195	-0.000137894	0.000735021	3.24826E-05	0	0	0	
0.105333	-0.0227371	0.00030899	0.000809139	1.59271E-05	0	0	0	
0.1055	0.0274086	-0.00208105	0.000745826	1.56695E-05	0	0	0	
0.105667	-0.0470257	0.00201231	0.000709816	2.60263E-05	0	0	0	
0.105833	0.0461445	0.00110259	0.000758301	4.3342E-05	0	0	0	
0.106	-0.0343556	-0.00230825	0.000838044	4.52486E-05	0	0	0	
0.106167	0.0266696	-0.00218192	0.000765017	5.49046E-05	0	0	0	
0.106333	-0.0401978	0.00394069	0.000721047	5.112E-05	0	0	0	
0.1065	0.0420212	-0.000235987	0.000691537	7.69682E-05	0	0	0	
0.106667	-0.0179087	-0.00268457	0.000706686	7.82622E-05	0	0	0	
0.106833	0.00466447	0.000464107	0.000632657	7.80152E-05	0	0	0	
0.107	-0.028209	0.00179047	0.000501568	6.59278E-05	0	0	0	
0.107167	0.040757	-0.00304042	0.000506488	5.62859E-05	0	0	0	
0.107333	-0.0341051	0.00176721	0.000602083	5.4738E-05	0	0	0	
0.1075	0.0241002	-0.000267885	0.000705343	4.4224E-05	0	0	0	
0.107667	-0.0235525	0.000115472	0.000643204	3.01669E-05	0	0	0	
0.107833	0.0307651	-0.00141834	0.000551229	2.35059E-05	0	0	0	
0.108	-0.0485066	0.000398043	0.000589781	1.75641E-05	0	0	0	
0.108167	0.0583692	0.00058012	0.000781549	2.30939E-05	0	0	0	
0.108333	-0.0569125	0.00157461	0.000975685	3.2727E-05	0	0	0	
0.1085	0.040808	-0.00326347	0.00103826	4.17605E-05	0	0	0	
0.108667	-0.0163492	-0.000221855	0.000920897	5.6691E-05	0	0	0	
0.108833	0.00622036	0.00194097	0.000667752	5.19836E-05	0	0	0	
0.109	-0.0185554	0.00161458	0.000449276	5.48818E-05	0	0	0	
0.109167	0.033305	-0.00277958	0.000427563	4.71614E-05	0	0	0	
0.109333	-0.0423335	0.00010168	0.000564199	5.10761E-05	0	0	0	
0.1095	0.0402701	0.000821513	0.000706774	3.7746E-05	0	0	0	
0.109667	-0.0290859	0.000730159	0.000743874	3.34095E-05	0	0	0	
0.109833	0.0182454	-0.000662978	0.000701388	2.09465E-05	0	0	0	
0.11	-0.0192851	0.000298052	0.00059295	2.01163E-05	0	0	0	
0.110167	0.033702	-0.00185386	0.000495267	2.22783E-05	0	0	0	
0.110333	-0.0373528	0.00284197	0.00052874	3.20622E-05	0	0	0	
0.1105	0.0282868	-0.000385252	0.000640541	4.23868E-05	0	0	0	
0.110667	-0.0229156	-0.000132486	0.000672859	3.35318E-05	0	0	0	
0.110833	0.0297143	-0.00245638	0.000618874	3.24579E-05	0	0	0	
0.111	-0.0301937	0.00193937	0.000582923	3.07359E-05	0	0	0	
0.111167	0.033493	0.00213102	0.000576441	5.58742E-05	0	0	0	
0.111333	-0.0413191	-0.00286656	0.000644072	5.57059E-05	0	0	0	
0.1115	0.0338197	-0.00055105	0.00066473	7.24515E-05	0	0	0	
0.111667	-0.0197032	0.00300775	0.000686797	6.2496E-05	0	0	0	
0.111833	0.0144224	-0.00099092	0.000594264	6.30562E-05	0	0	0	
0.112	-0.0203096	0.000780811	0.000487728	3.74696E-05	0	0	0	
0.112167	0.0304115	-0.00277039	0.000441248	3.07088E-05	0	0	0	
0.112333	-0.0326789	0.0010707	0.000484116	3.4202E-05	0	0	0	
0.1125	0.0267588	0.00187017	0.000548606	5.3981E-05	0	0	0	
0.112667	-0.0223714	-0.00149811	0.000570132	5.33712E-05	0	0	0	
0.112833	0.0225774	-0.00011416	0.000548108	4.38646E-05	0	0	0	
0.113	-0.0335292	-0.000664892	0.000547716	2.38366E-05	0	0	0	
0.113167	0.0435089	-0.00120274	0.000626545	3.21554E-05	0	0	0	
0.113333	-0.0453855	0.00554391	0.00073225	6.00907E-05	0	0	0	
0.1135	0.037699	-0.00744844	0.000804354	9.24992E-05	0	0	0	
0.113667	-0.027516	0.00244601	0.000784133	0.000122311	0	0	0	
0.113833	0.0209752	0.00450664	0.00067722	0.000150929	0	0	0	
0.114	-0.0302428	-0.00570812	0.000581857	0.000147829	0	0	0	
0.114167	0.0386636	0.00159206	0.000575279	0.000122803	0	0	0	
0.114333	-0.0333341	-0.000691263	0.000620472	7.09721E-05	0	0	0	
0.1145	0.0295119	-0.000192051	0.000645523	5.67454E-05	0	0	0	
0.114667	-0.0310882	0.00630729	0.000608984	8.12742E-05	0	0	0	
0.114833	0.0368464	-0.00870848	0.000611693	0.000112192	0	0	0	
0.115	-0.0460044	0.00200118	0.000677703	0.00014613	0	0	0	
0.115167	0.0370624	0.00238518	0.000756002	0.000141152	0	0	0	
0.115333	-0.0283661	-0.000804564	0.000747483	0.000107149	0	0	0	
0.1155	0.026554	-0.00114215	0.000660982	5.73164E-05	0	0	0	
0.115667	-0.0300109	-0.000198888	0.000584334	2.07995E-05	0	0	0	
0.115833	0.0345326	0.00137067	0.000585448	1.66336E-05	0	0	0	
0.116	-0.0437851	9.24498E-05	0.000656609	2.60825E-05	0	0	0	
0.116167	0.0416911	-0.00268563	0.000727387	4.24828E-05	0	0	0	
0.116333	-0.0296862	0.00342562	0.000745486	5.55542E-05	0	0	0	
0.1165	0.0183173	-0.000976123	0.000675258	6.31479E-05	0	0	0	
0.116667	-0.0238339	-0.000370566	0.000553273	5.20787E-05	0	0	0	
0.116833	0.0336742	0.00019766	0.000511564	3.72665E-05	0	0	0	
0.117	-0.0340084	5.1106E-05	0.000544929	1.95432E-05	0	0	0	
0.117167	0.0319995	0.000510397	0.000611211	1.39937E-05	0	0	0	
0.117333	-0.0337805	-0.000319323	0.00063227	1.3072E-05	0	0	0	
0.1175	0.0344767	-0.00128604	0.000637043	1.99789E-05	0	0	0	
0.117667	-0.0346507	0.00223877	0.00065822	2.51439E-05	0	0	0	
0.117833	0.0290734	-0.000953521	0.000656225	3.33829E-05	0	0	0	
0.118	-0.0320619	-0.000130126	0.000632929	3.4852E-05	0	0	0	
0.118167	0.03291	-0.000290169	0.000612066	2.43671E-05	0	0	0	
0.118333	-0.0204424	2.43362E-05	0.000572344	1.97121E-05	0	0	0	
0.1185	0.0152042	-0.000214712	0.000497924	1.28464E-05	0	0	0	
0.118667	-0.0237312	0.00219227	0.000426796	2.30986E-05	0	0	0	
0.118833	0.0369076	-0.0018884	0.000456651	2.91089E-05	0	0	0	
0.119	-0.0365085	-0.00165913	0.000562499	4.58557E-05	0	0	0	
0.119167	0.02295	0.00117864	0.000628679	4.21586E-05	0	0	0	
0.119333	-0.0201213	0.00232896	0.000567324	4.91116E-05	0	0	0	
0.1195	0.0273026	-0.00182853	0.000506246	3.95479E-05	0	0	0	
0.119667	-0.0252226	-0.000624641	0.000454246	4.39216E-05	0	0	0	
0.119833	0.0257067	-0.000323789	0.000503648	3.31855E-05	0	0	0	
0.12	-0.0265682	0.00201393	0.000525431	2.9778E-05	0	0	0	
0.120167	0.03198	-0.000709663	0.000557032	2.80968E-05	0	0	0	
0.120333	-0.0343268	0.000546504	0.000563451	2.88145E-05	0	0	0	
0.1205	0.0269297	-0.0014802	0.000592429	2.83196E-05	0	0	0	
0.120667	-0.0220741	0.00181383	0.000540218	2.77195E-05	0	0	0	
0.120833	0.0307572	-0.000509032	0.000532352	2.64485E-05	0	0	0	
0.121	-0.0281916	0.000917448	0.000517584	2.27565E-05	0	0	0	
0.121167	0.0299403	-0.001176	0.000565701	1.95178E-05	0	0	0	
0.121333	-0.0347683	-0.000146839	0.00059195	1.80053E-05	0	0	0	
0.1215	0.0335345	0.000456714	0.000615959	1.46336E-05	0	0	0	
0.121667	-0.0324405	0.00223628	0.00063569	2.37468E-05	0	0	0	
0.121833	0.0310575	-0.00322673	0.000658792	3.38353E-05	0	0	0	
0.122	-0.0180424	-0.00025767	0.000591303	5.10177E-05	0	0	0	
0.122167	0.0176153	0.000601651	0.000497501	3.93267E-05	0	0	0	
0.122333	-0.0198134	0.00184376	0.000393818	3.54655E-05	0	0	0	
0.1225	0.0215949	-0.000595741	0.000362044	2.56331E-05	0	0	0	
0.122667	-0.0340271	-0.00151871	0.000433129	3.86516E-05	0	0	0	
0.122833	0.0345651	0.000235516	0.000532161	3.17072E-05	0	0	0	
0.123	-0.0214343	0.00172583	0.000586513	4.09449E-05	0	0	0	
0.123167	0.0200365	-0.00184666	0.000537584	3.36334E-05	0	0	0	
0.123333	-0.0281164	0.000708958	0.000509935	3.69719E-05	0	0	0	
0.1235	0.0211918	-0.000592298	0.000512982	2.47975E-05	0	0	0	
0.123667	-0.0237094	0.00133628	0.000551811	1.94974E-05	0	0	0	
0.123833	0.0225732	-0.00135373	0.000515176	2.13837E-05	0	0	0	
0.124	-0.0247949	-2.01626E-05	0.00048335	2.67332E-05	0	0	0	
0.124167	0.0302874	-0.000479534	0.000485193	2.3923E-05	0	0	0	
0.124333	-0.0324196	0.000380148	0.000522865	1.83624E-05	0	0	0	
0.1245	0.0276879	0.000728204	0.000565358	1.02117E-05	0	0	0	
0.124667	-0.0264905	-0.000526455	0.000565387	1.29339E-05	0	0	0	
0.124833	0.0282894	-0.00138787	0.00054625	1.8673E-05	0	0	0	
0.125	-0.0315238	0.00152286	0.00054598	2.5487E-05	0	0	0	
0.125167	0.0334734	9.85575E-05	0.000577043	2.98119E-05	0	0	0	
0.125333	-0.0264478	0.00103359	0.000586446	2.39658E-05	0	0	0	
0.1255	0.0234405	-0.00227608	0.000558073	2.50083E-05	0	0	0	
0.125667	-0.0270843	0.00121226	0.000542385	3.03186E-05	0	0	0	
0.125833	0.0309956	-1.56197E-05	0.000530982	3.7811E-05	0	0	0	
0.126	-0.0287385	0.000426106	0.000553553	3.02066E-05	0	0	0	
0.126167	0.019523	-0.00145649	0.00053617	2.14937E-05	0	0	0	
0.126333	-0.019964	0.000567372	0.000467719	1.59282E-05	0	0	0	
0.1265	0.0344977	-0.000739293	0.000453773	1.70274E-05	0	0	0	
0.126667	-0.0352523	0.00240151	0.000517013	2.00427E-05	0	0	0	
0.126833	0.0308356	-0.00103376	0.000594378	2.50958E-05	0	0	0	
0.127	-0.0346757	-0.00154885	0.000645901	3.26427E-05	0	0	0	
0.127167	0.0354273	-0.000362146	0.000644966	3.52097E-05	0	0	0	
0.127333	-0.0237854	0.00217267	0.000636523	3.78124E-05	0	0	0	
0.1275	0.0161635	0.000413709	0.000564764	3.71314E-05	0	0	0	
0.127667	-0.0188813	-0.000324114	0.000467117	2.72183E-05	0	0	0	
0.127833	0.0297546	-0.00319634	0.00045624	3.56661E-05	0	0	0	
0.128	-0.0364708	0.00340555	0.000509831	4.41313E-05	0	0	0	
0.128167	0.026929	0.000909295	0.000574156	7.14745E-05	0	0	0	
0.128333	-0.0206778	-0.00157187	0.000564504	5.49725E-05	0	0	0	
0.1285	0.0243478	-0.00102942	0.000521732	5.45845E-05	0	0	0	
0.128667	-0.0257513	0.00144043	0.000485557	3.15134E-05	0	0	0	
0.128833	0.0243852	0.000391185	0.000478461	3.24519E-05	0	0	0	
0.129	-0.0217427	0.00126289	0.000469286	2.23605E-05	0	0	0	
0.129167	0.0291099	-0.00241596	0.000475325	2.93039E-05	0	0	0	
0.129333	-0.0313129	0.000799151	0.000534458	3.42271E-05	0	0	0	
0.1295	0.0298794	0.000759975	0.000614282	3.5719E-05	0	0	0	
0.129667	-0.0259311	0.00104562	0.000654273	3.15972E-05	0	0	0	
0.129833	0.0273109	-0.00233908	0.000613168	3.23152E-05	0	0	0	
0.13	-0.0351004	0.00026454	0.00057802	3.23735E-05	0	0	0	
0.130167	0.0333718	7.56357E-05	0.000575791	2.99588E-05	0	0	0	
0.130333	-0.0320238	0.00165196	0.000647012	2.3959E-05	0	0	0	
0.1305	0.0288537	-0.00139927	0.000661948	2.3031E-05	0	0	0	
0.130667	-0.0314141	0.00017813	0.000653943	2.23411E-05	0	0	0	
0.130833	0.0257179	-0.00108299	0.000600271	2.13822E-05	0	0	0	
0.131	-0.0208151	0.00131823	0.00055081	2.06171E-05	0	0	0	
0.131167	0.0222814	-0.000634272	0.000509555	2.25286E-05	0	0	0	
0.131333	-0.0306528	0.000485539	0.000490481	2.25095E-05	0	0	0	
0.1315	0.0391432	-0.000767889	0.000549204	1.84435E-05	0	0	0	
0.131667	-0.037165	0.000601089	0.000645033	1.66447E-05	0	0	0	
0.131833	0.0309798	-0.00173707	0.000690364	2.54435E-05	0	0	0	
0.132	-0.0293681	0.00378529	0.00063635	3.65216E-05	0	0	0	
0.132167	0.0295521	-0.00134478	0.000585627	6.14303E-05	0	0	0	
0.132333	-0.0244065	-0.00306146	0.000553202	9.11594E-05	0	0	0	
0.1325	0.0248543	0.00481707	0.000557104	9.74679E-05	0	0	0	
0.132667	-0.0281069	-0.00150162	0.000538006	9.3448E-05	0	0	0	
0.132833	0.026966	-0.00173442	0.000533111	8.28885E-05	0	0	0	
0.133	-0.0261906	0.00378858	0.000520161	8.74629E-05	0	0	0	
0.133167	0.0285155	-0.00500052	0.000518252	8.61923E-05	0	0	0	
0.133333	-0.0305204	0.00537777	0.000537208	8.6211E-05	0	0	0	
0.1335	0.0302437	-0.00125473	0.000584739	9.13731E-05	0	0	0	
0.133667	-0.029819	-0.0034301	0.000602353	0.00010437	0	0	0	
0.133833	0.0294418	0.00345249	0.000600183	8.93215E-05	0	0	0	
0.134	-0.0325759	-5.21137E-05	0.000588803	8.95613E-05	0	0	0	
0.134167	0.0365428	-0.00240432	0.000620519	7.5123E-05	0	0	0	
0.134333	-0.035272	0.00179359	0.000640503	6.96587E-05	0	0	0	
0.1345	0.0327107	-0.000902269	0.000673289	4.83067E-05	0	0	0	
0.134667	-0.0336074	0.000170576	0.000668087	3.17614E-05	0	0	0	
0.134833	0.0320567	-0.000277407	0.000682697	2.52667E-05	0	0	0	
0.135	-0.0294871	0.000675832	0.000661579	2.26801E-05	0	0	0	
0.135167	0.0316178	-0.00147737	0.000636595	2.17336E-05	0	0	0	
0.135333	-0.0298441	0.00270288	0.0005967	2.84557E-05	0	0	0	
0.1355	0.0348575	-0.00220173	0.000598058	3.78704E-05	0	0	0	
0.135667	-0.0346787	0.000112224	0.000620578	4.73687E-05	0	0	0	
0.135833	0.0309671	0.0025923	0.000645837	4.63816E-05	0	0	0	
0.136	-0.0305128	-0.00225259	0.000631824	4.36249E-05	0	0	0	
0.136167	0.0287984	-0.00120983	0.000594183	5.24853E-05	0	0	0	
0.136333	-0.0330007	0.00447475	0.000568951	7.45181E-05	0	0	0	
0.1365	0.0371091	-0.00959908	0.000601242	0.000102862	0	0	0	
0.136667	-0.031237	0.00391198	0.000634013	0.000119229	0	0	0	
0.136833	0.025158	0.00477452	0.000631428	0.000151685	0	0	0	
0.137	-0.0217234	-0.00985217	0.000561027	0.000137639	0	0	0	
0.137167	0.0242776	0.00485354	0.000502037	0.000205291	0	0	0	
0.137333	-0.0387038	0.00895497	0.000501149	0.000269286	0	0	0	
0.1375	0.0333887	-0.0148107	0.000588886	0.00033968	0	0	0	
0.137667	-0.0130967	0.0123234	0.000578545	0.000322213	0	0	0	
0.137833	0.00983683	0.00100199	0.000518526	0.000233955	0	0	0	
0.138	-0.0314775	-0.00878517	0.000447341	0.00015497	0	0	0	
0.138167	0.039791	0.00902822	0.000575252	0.000139219	0	0	0	
0.138333	-0.0322015	-0.00187288	0.000705018	0.000151322	0	0	0	
0.1385	0.0366834	0.0016518	0.000767747	0.000145145	0	0	0	
0.138667	-0.0367022	-0.00456012	0.000689766	9.60892E-05	0	0	0	
0.138833	0.0310955	0.00337108	0.000698668	0.000115793	0	0	0	
0.139	-0.0289255	0.00206919	0.000764165	0.000168846	0	0	0	
0.139167	0.0338375	0.00154742	0.000820375	0.000159846	0	0	0	
0.139333	-0.0371453	-0.00226994	0.000800462	9.64121E-05	0	0	0	
0.1395	0.0281549	-0.00792864	0.000703138	8.36367E-05	0	0	0	
0.139667	-0.0269705	0.00844609	0.000630222	0.000113932	0	0	0	
0.139833	0.0295751	0.00712859	0.000568147	0.000218594	0	0	0	
0.14	-0.0305459	-0.0115775	0.000543914	0.000230161	0	0	0	
0.140167	0.0240688	-0.000670262	0.000557527	0.000260944	0	0	0	
0.140333	-0.0294182	0.00907668	0.000543812	0.000209404	0	0	0	
0.1405	0.0394004	-0.00385729	0.00059648	0.000182795	0	0	0	
0.140667	-0.0406591	-0.0017942	0.000659472	0.000145324	0	0	0	
0.140833	0.0218209	0.00128445	0.000700454	8.8305E-05	0	0	0	
0.141	-0.00935829	0.00320319	0.000558775	7.30427E-05	0	0	0	
0.141167	0.0233171	-0.0022855	0.000396386	4.75977E-05	0	0	0	
0.141333	-0.033765	-0.00237962	0.000377592	7.63739E-05	0	0	0	
0.1415	0.0280066	0.0036801	0.000540283	6.85062E-05	0	0	0	
0.141667	-0.0189345	0.000123912	0.000624048	8.34249E-05	0	0	0	
0.141833	0.0196444	-0.00135993	0.000615957	5.91727E-05	0	0	0	
0.142	-0.0163454	-0.000662941	0.000544542	4.92846E-05	0	0	0	
0.142167	0.0259704	-0.00370017	0.000477687	5.26872E-05	0	0	0	
0.142333	-0.0353248	0.00897081	0.000498299	0.000128534	0	0	0	
0.1425	0.0421465	-0.00603861	0.00060769	0.000194431	0	0	0	
0.142667	-0.0327238	0.00253071	0.000768919	0.000187248	0	0	0	
0.142833	0.0139227	0.0016327	0.00072703	0.0001937	0	0	0	
0.143	-0.0045813	-0.0104601	0.000500861	0.000188444	0	0	0	
0.143167	0.0124043	0.00448818	0.000267381	0.000222937	0	0	0	
0.143333	-0.0268367	0.00675024	0.000232931	0.000225708	0	0	0	
0.1435	0.0391836	0.00353652	0.000396749	0.000197809	0	0	0	
0.143667	-0.0339621	-0.00597567	0.000606534	0.000170071	0	0	0	
0.143833	0.0266233	-0.00716669	0.000683917	0.000111975	0	0	0	
0.144	-0.0261297	0.00796252	0.000615626	0.000121047	0	0	0	
0.144167	0.0275128	0.00107143	0.000537961	0.000140453	0	0	0	
0.144333	-0.0344824	-0.000511973	0.00053772	0.000109387	0	0	0	
0.1445	0.0388983	-0.00659861	0.000634691	9.99466E-05	0	0	0	
0.144667	-0.0385544	0.00277436	0.000733497	7.88234E-05	0	0	0	
0.144833	0.040823	0.00582067	0.000794603	0.000103652	0	0	0	
0.145	-0.0406374	-0.00162387	0.000795888	0.000115254	0	0	0	
0.145167	0.0365409	-0.00614636	0.000764632	0.000135442	0	0	0	
0.145333	-0.0265545	0.00355618	0.000699773	0.000131802	0	0	0	
0.1455	0.00897592	-0.000422874	0.000574729	0.000100028	0	0	0	
0.145667	-0.00845994	-0.000161857	0.000396053	5.82352E-05	0	0	0	
0.145833	0.0338458	0.00471846	0.00038242	5.13984E-05	0	0	0	
0.146	-0.0585526	-0.00609059	0.000617473	6.77508E-05	0	0	0	
0.146167	0.0612571	-0.003231	0.0009348	0.000125368	0	0	0	
0.146333	-0.0432343	0.00877413	0.00106724	0.0001516	0	0	0	
0.1465	0.0150785	-0.00411259	0.00106165	0.000163648	0	0	0	
0.146667	-0.00569599	-0.00361424	0.000970439	0.000147388	0	0	0	
0.146833	0.0284172	0.00385807	0.000825583	0.000119707	0	0	0	
0.147	-0.0497985	8.41873E-05	0.00077243	0.000101238	0	0	0	
0.147167	0.0508113	-0.00424667	0.000849556	7.2695E-05	0	0	0	
0.147333	-0.0441902	0.00270323	0.000959038	7.4748E-05	0	0	0	
0.1475	0.0389175	-1.00628E-05	0.000925152	5.7479E-05	0	0	0	
0.147667	-0.0344541	-4.3752E-05	0.000789946	3.6009E-05	0	0	0	
0.147833	0.038521	-0.00127216	0.000736817	2.27593E-05	0	0	0	
0.148	-0.0413826	0.00076166	0.000715243	1.71185E-05	0	0	0	
0.148167	0.0442968	-0.00163951	0.000750105	2.26983E-05	0	0	0	
0.148333	-0.0534742	0.00102102	0.000817515	3.0451E-05	0	0	0	
0.1485	0.0446592	-0.000758992	0.000903849	3.54789E-05	0	0	0	
0.148667	-0.0154937	0.000922312	0.000832887	3.15462E-05	0	0	0	
0.148833	0.0126582	-0.000481116	0.000624895	1.81843E-05	0	0	0	
0.149	-0.0226528	-0.000880412	0.0004079	1.33925E-05	0	0	0	
0.149167	0.0335686	0.00122962	0.000388142	1.70396E-05	0	0	0	
0.149333	-0.0439123	0.00113896	0.000537408	3.48022E-05	0	0	0	
0.1495	0.040812	-0.0026751	0.000709614	4.50661E-05	0	0	0	
0.149667	-0.0320187	9.59827E-05	0.000790895	5.75425E-05	0	0	0	
0.149833	0.039771	0.00235441	0.000802992	5.31301E-05	0	0	0	
0.15	-0.044318	0.00122503	0.000774237	5.74478E-05	0	0	0	
0.150167	0.031262	-0.00303026	0.000752592	5.40828E-05	0	0	0	
0.150333	-0.0165161	-0.000477133	0.000761385	6.38448E-05	0	0	0	
0.1505	0.0141208	0.00187369	0.000675701	5.66878E-05	0	0	0	
0.150667	-0.0278066	0.0023992	0.000586434	6.10797E-05	0	0	0	
0.150833	0.0431562	-0.00289414	0.000545368	5.20635E-05	0	0	0	
0.151	-0.0313195	0.000195774	0.00060207	5.26273E-05	0	0	0	
0.151167	0.0150926	0.000209287	0.000721421	3.39022E-05	0	0	0	
0.151333	-0.00825744	0.000558446	0.000657704	2.35147E-05	0	0	0	
0.1515	0.0219481	0.00153368	0.000531399	3.05751E-05	0	0	0	
0.151667	-0.0372611	-0.00156572	0.000456421	3.50497E-05	0	0	0	
0.151833	0.0363748	-0.000998051	0.00053633	4.84438E-05	0	0	0	
0.152	-0.0374027	0.00265129	0.000669328	4.47967E-05	0	0	0	
0.152167	0.0388146	-0.00275351	0.000763063	5.55773E-05	0	0	0	
0.152333	-0.0319148	0.00128755	0.000828413	5.16752E-05	0	0	0	
0.1525	0.0158936	-0.00101971	0.000784677	4.55447E-05	0	0	0	
0.152667	-0.0226973	0.00274516	0.000640791	4.04432E-05	0	0	0	
0.152833	0.0410318	-0.000496116	0.000578117	4.71974E-05	0	0	0	
0.153	-0.051845	-0.00335535	0.000658823	6.83982E-05	0	0	0	
0.153167	0.043664	0.00106335	0.000826863	6.92122E-05	0	0	0	
0.153333	-0.0199972	0.00354905	0.000847733	8.17574E-05	0	0	0	
0.1535	0.00484234	-0.00230113	0.00069047	6.57441E-05	0	0	0	
0.153667	-0.016094	-0.00116921	0.000455007	6.57555E-05	0	0	0	
0.153833	0.033904	-0.0028647	0.000358888	5.33679E-05	0	0	0	
0.154	-0.0414078	0.00529006	0.00046592	6.22036E-05	0	0	0	
0.154167	0.0386591	0.000640471	0.000660634	9.20635E-05	0	0	0	
0.154333	-0.030433	-0.00596987	0.000715387	9.55128E-05	0	0	0	
0.1545	0.0262674	0.00246723	0.000691545	0.000111157	0	0	0	
0.154667	-0.0256892	0.00275269	0.00060243	0.000106282	0	0	0	
0.154833	0.0375849	-0.00260619	0.000594331	9.45478E-05	0	0	0	
0.155	-0.0421972	0.00150477	0.000637106	6.73219E-05	0	0	0	
0.155167	0.0379009	-0.000221072	0.00073068	4.48187E-05	0	0	0	
0.155333	-0.0271878	-0.000959955	0.000719764	3.91619E-05	0	0	0	
0.1555	0.0274301	0.00124491	0.000636559	3.5802E-05	0	0	0	
0.155667	-0.0203603	3.34448E-06	0.000519854	2.81938E-05	0	0	0	
0.155833	0.0236209	0.00102993	0.000460859	3.20697E-05	0	0	0	
0.156	-0.032529	-0.00132851	0.000494994	2.93748E-05	0	0	0	
0.156167	0.037738	-0.00190216	0.000554864	3.54342E-05	0	0	0	
0.156333	-0.0304584	0.00134697	0.000638968	3.28999E-05	0	0	0	
0.1565	0.0122462	0.00101631	0.000643508	3.11122E-05	0	0	0	
0.156667	-0.0117843	0.000790824	0.0005375	3.2274E-05	0	0	0	
0.156833	0.0340578	-0.00347703	0.000456102	3.81243E-05	0	0	0	
0.157	-0.049287	0.00190287	0.000515808	5.13513E-05	0	0	0	
0.157167	0.038713	0.000721143	0.000705002	6.16954E-05	0	0	0	
0.157333	-0.0281414	-0.000553345	0.000798816	5.0322E-05	0	0	0	
0.1575	0.0240116	-0.00151235	0.000714931	4.55922E-05	0	0	0	
0.157667	-0.022456	0.0025368	0.00056811	3.14607E-05	0	0	0	
0.157833	0.0226147	-0.00093841	0.00046645	4.36493E-05	0	0	0	
0.158	-0.0272776	-0.00128836	0.00044055	4.60947E-05	0	0	0	
0.158167	0.0382316	0.00141947	0.000502056	4.34748E-05	0	0	0	
0.158333	-0.0381188	-0.000377113	0.000624808	3.33116E-05	0	0	0	
0.1585	0.0199496	0.000337921	0.000704509	2.50919E-05	0	0	0	
0.158667	-0.00715987	0.000779485	0.000668424	3.11746E-05	0	0	0	
0.158833	0.0107908	-0.00344054	0.000496171	4.15601E-05	0	0	0	
0.159	-0.0274673	0.00320525	0.000377387	5.23479E-05	0	0	0	
0.159167	0.0396733	0.000274872	0.000423641	6.58843E-05	0	0	0	
0.159333	-0.0403363	-0.000859113	0.000618638	6.1695E-05	0	0	0	
0.1595	0.0313146	-0.000259571	0.000781441	4.76185E-05	0	0	0	
0.159667	-0.0341499	9.98019E-05	0.000789062	2.70956E-05	0	0	0	
0.159833	0.0321709	0.00126364	0.000732378	2.56314E-05	0	0	0	
0.16	-0.0216941	0.00052153	0.000632934	2.92941E-05	0	0	0	
0.160167	0.0201159	-0.00187951	0.000569094	3.01504E-05	0	0	0	
0.160333	-0.0299972	-0.000223275	0.000514751	3.05276E-05	0	0	0	
0.1605	0.0368418	0.000600322	0.000559775	2.52825E-05	0	0	0	
0.160667	-0.0321088	0.00292195	0.000601597	4.25663E-05	0	0	0	
0.160833	0.0303958	-0.0028962	0.000639105	4.51165E-05	0	0	0	
0.161	-0.0283862	-0.00181084	0.000603237	7.54404E-05	0	0	0	
0.161167	0.0265903	0.00297595	0.000590598	6.50367E-05	0	0	0	
0.161333	-0.0285739	0.00131669	0.000587418	7.50779E-05	0	0	0	
0.1615	0.0290307	-0.00259877	0.000597986	5.29484E-05	0	0	0	
0.161667	-0.023338	-0.00126562	0.000582401	6.03352E-05	0	0	0	
0.161833	0.0136781	0.0032698	0.000543244	5.22664E-05	0	0	0	
0.162	-0.0109918	-0.000485346	0.000454005	5.8845E-05	0	0	0	
0.162167	0.0676424	-0.00583788	0.000582257	7.59578E-05	0	0	0	
0.162333	-0.0495084	-0.0143052	0.0011242	0.000150417	0	0	0	
0.1625	0.0947999	-0.00870929	0.00204866	0.000291588	0	0	0	
0.162667	-0.0630277	0.00454285	0.00222033	0.000290096	0	0	0	
0.162833	0.032976	-0.0045372	0.00179746	0.000224728	0	0	0	
0.163	-0.0220493	0.00214051	0.000948317	9.56366E-05	0	0	0	
0.163167	0.00849122	0.00218696	0.000584228	7.90657E-05	0	0	0	
0.163333	0.0293278	-0.00798922	0.000535579	8.61081E-05	0	0	0	
0.1635	0.0564217	-0.0339415	0.000943002	0.000213562	0	0	0	
0.163667	-0.0265547	-0.00553598	0.00142674	0.000260001	0	0	0	
0.163833	0.0413094	0.0079501	0.00145537	0.000268469	0	0	0	
0.164	-0.0153772	0.000200425	0.00102622	0.000171053	0	0	0	
0.164167	0.0198662	-0.00609538	0.00053804	0.000156886	0	0	0	
0.164333	-0.0346954	0.00443583	0.000455284	0.000145824	0	0	0	
0.1645	0.0346622	-0.00356535	0.000517858	0.000110725	0	0	0	
0.164667	-0.0451345	0.00585416	0.000662397	8.33304E-05	0	0	0	
0.164833	0.0469742	-0.00340237	0.000795088	8.99112E-05	0	0	0	
0.165	-0.0360913	-0.00141396	0.000830338	0.000113604	0	0	0	
0.165167	0.037105	0.00200508	0.000800235	0.000106885	0	0	0	
0.165333	-0.0187565	-0.000891851	0.000730255	7.74983E-05	0	0	0	
0.1655	0.0244691	-0.00362619	0.000889879	8.33136E-05	0	0	0	
0.165667	-0.0124896	-0.000266656	0.00111278	0.000131001	0	0	0	
0.165833	0.0369573	0.00143507	0.00112316	0.000148539	0	0	0	
0.166	-0.0486731	-0.000470939	0.000957702	0.000126413	0	0	0	
0.166167	0.0508324	-0.00462579	0.000858442	0.000105111	0	0	0	
0.166333	-0.038417	0.00400973	0.000913038	0.00010154	0	0	0	
0.1665	-0.00497048	0.00457398	0.000895383	0.000114524	0	0	0	
0.166667	-0.0751635	0.00738012	0.00120653	0.000143021	0	0	0	
0.166833	0.0431128	-0.00685911	0.00111924	0.000155587	0	0	0	
0.167	-0.033431	0.00173698	0.00118761	0.000141038	0	0	0	
0.167167	0.0495219	0.00125954	0.000806622	8.11947E-05	0	0	0	
0.167333	-0.0444092	0.000897306	0.000870205	5.58068E-05	0	0	0	
0.1675	0.0258558	-0.00228498	0.000811061	3.5343E-05	0	0	0	
0.167667	-0.0142804	-0.00129949	0.000746202	4.03696E-05	0	0	0	
0.167833	0.0285066	-0.00108716	0.000617486	3.65456E-05	0	0	0	
0.168	0.00598343	-0.00557364	0.000591198	0.000100657	0	0	0	
0.168167	0.0233757	-0.000768675	0.000469511	9.36823E-05	0	0	0	
0.168333	-0.0282899	-0.00205173	0.000470014	0.000104743	0	0	0	
0.1685	0.0366898	0.00203131	0.000452897	4.14192E-05	0	0	0	
0.168667	-0.0344189	0.00175072	0.000614936	5.49065E-05	0	0	0	
0.168833	0.0227515	-0.00125752	0.00067004	5.00888E-05	0	0	0	
0.169	0.0209049	-0.0153283	0.000632515	6.97417E-05	0	0	0	
0.169167	0.0330499	0.000410447	0.000581484	0.000102017	0	0	0	
0.169333	-0.0266708	0.00272668	0.000565416	0.000101757	0	0	0	
0.1695	0.0250793	0.00119634	0.000604449	9.67325E-05	0	0	0	
0.169667	-0.0218914	-0.00271163	0.000570759	5.28761E-05	0	0	0	
0.169833	0.027937	-0.00265883	0.000534524	6.89461E-05	0	0	0	
0.17	-0.0343309	0.00313231	0.000529869	6.04267E-05	0	0	0	
0.170167	0.0259373	0.00334417	0.000572012	8.45593E-05	0	0	0	
0.170333	-0.029137	-0.00349486	0.000578433	7.4793E-05	0	0	0	
0.1705	0.0492477	-0.00158245	0.000616702	9.32207E-05	0	0	0	
0.170667	-0.0380324	0.00148744	0.000698755	6.15909E-05	0	0	0	
0.170833	0.0137033	0.00160175	0.000764693	6.18581E-05	0	0	0	
0.171	-0.0090389	0.00269563	0.000657257	5.67745E-05	0	0	0	
0.171167	0.0221311	-0.00780541	0.00047066	8.045E-05	0	0	0	
0.171333	-0.0337198	0.00120086	0.000414158	0.000112993	0	0	0	
0.1715	0.0253239	0.00465815	0.000482647	0.000123799	0	0	0	
0.171667	-0.020568	0.000380671	0.000524692	0.000121312	0	0	0	
0.171833	0.0327821	-0.00537495	0.000505742	0.000100211	0	0	0	
0.172	-0.0467056	0.0015267	0.000563474	8.36548E-05	0	0	0	
0.172167	0.0331625	0.000837195	0.000698199	7.60556E-05	0	0	0	
0.172333	-0.018676	0.00133161	0.000758732	5.4421E-05	0	0	0	
0.1725	0.0156873	-0.000364825	0.000635042	3.47549E-05	0	0	0	
0.172667	-0.0218339	-0.00228552	0.000468348	2.30598E-05	0	0	0	
0.172833	0.027789	0.000312497	0.000402765	3.12158E-05	0	0	0	
0.173	-0.0328203	0.00348729	0.000512257	5.06663E-05	0	0	0	
0.173167	0.0290157	-0.00359711	0.00061321	6.45188E-05	0	0	0	
0.173333	-0.0366274	0.00261236	0.000652008	6.70774E-05	0	0	0	
0.1735	0.0329969	-0.00182015	0.000650121	5.93627E-05	0	0	0	
0.173667	-0.0182782	-0.000926805	0.000614963	6.13502E-05	0	0	0	
0.173833	0.0207606	0.00113732	0.000558728	5.22268E-05	0	0	0	
0.174	-0.0374116	0.00206831	0.000503173	5.23246E-05	0	0	0	
0.174167	0.0355684	-0.00265352	0.000555507	4.15185E-05	0	0	0	
0.174333	-0.0230341	-0.0014573	0.000636616	5.40074E-05	0	0	0	
0.1745	0.0187076	0.00173695	0.000618196	4.4963E-05	0	0	0	
0.174667	-0.0257714	0.0026744	0.000511381	6.00337E-05	0	0	0	
0.174833	0.0326868	-0.00358602	0.000493696	5.90695E-05	0	0	0	
0.175	-0.0221683	0.00110978	0.000511184	6.79669E-05	0	0	0	
0.175167	0.0276865	-3.77627E-05	0.000558469	4.69471E-05	0	0	0	
0.175333	-0.0350678	0.00141602	0.000570512	3.05511E-05	0	0	0	
0.1755	0.0293497	-0.00118464	0.000604455	2.37455E-05	0	0	0	
0.175667	-0.0239256	-0.000498232	0.000627137	3.47268E-05	0	0	0	
0.175833	0.0263799	0.00114997	0.000592959	4.14293E-05	0	0	0	
0.176	-0.0290648	-0.000203492	0.000541689	3.67034E-05	0	0	0	
0.176167	0.0314056	-0.00148513	0.000543803	2.87847E-05	0	0	0	
0.176333	-0.0270203	0.00257984	0.000582511	2.87384E-05	0	0	0	
0.1765	0.0279239	-0.00188214	0.000590669	4.10942E-05	0	0	0	
0.176667	-0.0313261	0.000261512	0.000577887	4.98502E-05	0	0	0	
0.176833	0.0258572	-0.00022784	0.00056181	5.1777E-05	0	0	0	
0.177	-0.0162794	-0.000133615	0.000543472	3.94321E-05	0	0	0	
0.177167	0.0199098	-3.81453E-05	0.000477589	2.08412E-05	0	0	0	
0.177333	-0.0313415	0.00156286	0.000443325	1.72226E-05	0	0	0	
0.1775	0.0312678	-0.00334321	0.000485462	2.72621E-05	0	0	0	
0.177667	-0.0241494	0.00175395	0.000559336	4.23212E-05	0	0	0	
0.177833	0.024145	-1.02962E-05	0.000561215	5.35235E-05	0	0	0	
0.178	-0.0258435	0.000477453	0.000544449	4.63626E-05	0	0	0	
0.178167	0.0176291	-0.000809824	0.000489472	3.5593E-05	0	0	0	
0.178333	-0.0216262	0.00102053	0.000435545	2.17511E-05	0	0	0	
0.1785	0.032415	-0.00580518	0.000426056	4.17402E-05	0	0	0	
0.178667	-0.0375983	0.00887697	0.000514977	8.03729E-05	0	0	0	
0.178833	0.030097	-0.00455519	0.000642777	0.000129639	0	0	0	
0.179	-0.0221496	-0.00449172	0.000686102	0.000175378	0	0	0	
0.179167	0.0153509	0.00624825	0.000593112	0.000166703	0	0	0	
0.179333	-0.0207772	-0.00233983	0.000456255	0.00013929	0	0	0	
0.1795	0.0287488	0.000414013	0.000392164	7.92228E-05	0	0	0	
0.179667	-0.0341422	-0.000449883	0.000464045	6.88645E-05	0	0	0	
0.179833	0.0359526	-0.00580262	0.000616478	9.8208E-05	0	0	0	
0.18	-0.0316567	0.0101657	0.000705532	0.000136242	0	0	0	
0.180167	0.0196872	-0.00482172	0.000684223	0.000166688	0	0	0	
0.180333	-0.00973422	-0.00217799	0.000537386	0.000176949	0	0	0	
0.1805	0.0125871	0.00325908	0.000377205	0.000152778	0	0	0	
0.180667	-0.0249514	-0.000548509	0.000298059	0.000107871	0	0	0	
0.180833	0.0413119	0.000517934	0.000400808	4.63099E-05	0	0	0	
0.181	-0.0373149	-0.0009579	0.000574773	2.30866E-05	0	0	0	
0.181167	0.0327887	-0.000449062	0.000719234	2.05342E-05	0	0	0	
0.181333	-0.0260068	0.000341855	0.000728561	2.05551E-05	0	0	0	
0.1815	0.0183028	0.000755059	0.000661902	1.85195E-05	0	0	0	
0.181667	-0.0155233	-0.000181055	0.000561645	1.69052E-05	0	0	0	
0.181833	0.0250833	-0.0016063	0.000490158	2.05228E-05	0	0	0	
0.182	-0.0327833	0.000960254	0.000494848	2.41577E-05	0	0	0	
0.182167	0.0365793	0.00110639	0.000567633	3.02957E-05	0	0	0	
0.182333	-0.0381479	-0.00129166	0.000674875	2.62154E-05	0	0	0	
0.1825	0.0328898	-0.0011753	0.000726	3.30369E-05	0	0	0	
0.182667	-0.0270757	0.00254663	0.000712329	3.17049E-05	0	0	0	
0.182833	0.0196898	-0.000887166	0.000631107	3.69929E-05	0	0	0	
0.183	-0.0248189	0.000279737	0.000528647	2.95785E-05	0	0	0	
0.183167	0.0449936	-0.00144542	0.000577367	2.87122E-05	0	0	0	
0.183333	-0.0547012	-0.000671972	0.000715462	4.48594E-05	0	0	0	
0.1835	0.0465226	0.00501341	0.00088899	6.34267E-05	0	0	0	
0.183667	-0.0273107	-0.00285536	0.000879251	8.27187E-05	0	0	0	
0.183833	0.0172548	-0.00239956	0.000735054	0.000101307	0	0	0	
0.184	-0.0190382	0.00313001	0.000546981	9.47486E-05	0	0	0	
0.184167	0.0230384	-0.000902486	0.000441578	8.39618E-05	0	0	0	
0.184333	-0.0175777	0.000594938	0.000417161	4.47945E-05	0	0	0	
0.1845	0.028839	-0.00213918	0.00042346	3.67109E-05	0	0	0	
0.184667	-0.0331533	0.00135954	0.000479614	2.63041E-05	0	0	0	
0.184833	0.0231943	-0.00108279	0.00055131	2.91683E-05	0	0	0	
0.185	-0.0182483	0.000512589	0.000592305	2.62268E-05	0	0	0	
0.185167	0.0225097	0.000362352	0.000532558	2.81245E-05	0	0	0	
0.185333	-0.0333603	-0.000372742	0.000484504	2.64499E-05	0	0	0	
0.1855	0.0355667	-0.000117515	0.000533244	2.06336E-05	0	0	0	
0.185667	-0.0289711	-3.15472E-05	0.00066075	1.85229E-05	0	0	0	
0.185833	0.0206121	-0.000878747	0.000703981	2.814E-05	0	0	0	
0.186	-0.0251422	0.00243003	0.000646389	4.601E-05	0	0	0	
0.186167	0.0307836	-0.00178952	0.000568017	4.84263E-05	0	0	0	
0.186333	-0.032462	-7.45913E-05	0.000553955	5.04962E-05	0	0	0	
0.1865	0.030874	-0.00062889	0.000588242	3.50404E-05	0	0	0	
0.186667	-0.0285725	0.00215518	0.000609918	3.41298E-05	0	0	0	
0.186833	0.0217036	0.000361803	0.000601182	3.27467E-05	0	0	0	
0.187	-0.0281681	-0.00284398	0.000570262	4.36477E-05	0	0	0	
0.187167	0.0464843	-0.00156792	0.000611695	6.12313E-05	0	0	0	
0.187333	-0.0492052	0.00398927	0.000722976	6.44452E-05	0	0	0	
0.1875	0.0369149	0.00144848	0.000904116	7.67465E-05	0	0	0	
0.187667	-0.0193656	-0.00248182	0.000919665	6.00376E-05	0	0	0	
0.187833	0.019851	-0.0049942	0.000769382	8.42527E-05	0	0	0	
0.188	-0.0350643	0.00551838	0.000611341	8.91794E-05	0	0	0	
0.188167	0.0385031	0.00199906	0.000570647	0.000121228	0	0	0	
0.188333	-0.0438104	-0.00121053	0.000672645	8.33223E-05	0	0	0	
0.1885	0.0482229	-0.0047272	0.00077927	8.44109E-05	0	0	0	
0.188667	-0.035646	9.55999E-05	0.000845461	7.10102E-05	0	0	0	
0.188833	0.0197453	0.00591079	0.000818434	0.000111895	0	0	0	
0.189	-0.0247568	-0.00260125	0.000683722	0.000104769	0	0	0	
0.189167	0.0291555	-0.00264477	0.000595641	0.000120749	0	0	0	
0.189333	-0.0383289	0.00291803	0.000565073	8.95688E-05	0	0	0	
0.1895	0.0335909	-0.00192861	0.000642899	7.99419E-05	0	0	0	
0.189667	-0.020608	0.00230847	0.000659117	4.8472E-05	0	0	0	
0.189833	0.0183791	-0.00241508	0.000636835	4.36523E-05	0	0	0	
0.19	-0.0250411	0.000663391	0.000546171	4.41885E-05	0	0	0	
0.190167	0.0361357	-8.98798E-05	0.00052121	4.62783E-05	0	0	0	
0.190333	-0.0355457	-0.00110752	0.000577285	4.74506E-05	0	0	0	
0.1905	0.0178756	0.00146361	0.000627723	4.39191E-05	0	0	0	
0.190667	-0.0099067	-5.43064E-05	0.000548215	3.46918E-05	0	0	0	
0.190833	0.0209817	-0.00261188	0.000470501	3.67781E-05	0	0	0	
0.191	-0.0414332	0.0014274	0.000528233	3.8438E-05	0	0	0	
0.191167	0.0484015	0.00217826	0.00069345	6.2967E-05	0	0	0	
0.191333	-0.0457546	-0.001919	0.000832087	5.90231E-05	0	0	0	
0.1915	0.0289203	-0.000804092	0.000877461	5.20883E-05	0	0	0	
0.191667	-0.00273177	0.000141256	0.000841336	3.4922E-05	0	0	0	
0.191833	-0.00496695	0.00218994	0.000650354	3.58329E-05	0	0	0	
0.192	-0.0126041	-0.000496776	0.000486625	4.42426E-05	0	0	0	
0.192167	0.0393461	-0.00274531	0.000480082	5.24601E-05	0	0	0	
0.192333	-0.045424	0.00376714	0.00062907	5.83669E-05	0	0	0	
0.1925	0.0319972	-0.000826618	0.00077178	6.90884E-05	0	0	0	
0.192667	-0.0195717	-0.00132607	0.000778966	7.48897E-05	0	0	0	
0.192833	0.018118	-0.000561689	0.000685661	6.16817E-05	0	0	0	
0.193	-0.0270951	0.00278437	0.0005516	4.84759E-05	0	0	0	
0.193167	0.040199	0.000865819	0.000533444	4.78598E-05	0	0	0	
0.193333	-0.0523698	-0.00404866	0.000661933	6.67197E-05	0	0	0	
0.1935	0.0421426	-0.000677473	0.000806256	8.08953E-05	0	0	0	
0.193667	-0.0232402	0.00411627	0.000884323	7.76565E-05	0	0	0	
0.193833	0.00894693	-0.00070101	0.000793446	7.20572E-05	0	0	0	
0.194	-0.0137455	-0.000951876	0.000585479	5.0403E-05	0	0	0	
0.194167	0.0254224	-0.00292551	0.000422617	4.83226E-05	0	0	0	
0.194333	-0.0298637	0.00326219	0.000399663	4.7003E-05	0	0	0	
0.1945	0.0294651	-0.000730473	0.000493292	5.78574E-05	0	0	0	
0.194667	-0.0311382	0.000319181	0.000546418	4.03882E-05	0	0	0	
0.194833	0.0326488	-0.00142041	0.000582489	3.06744E-05	0	0	0	
0.195	-0.0331815	0.00171228	0.000618903	2.32183E-05	0	0	0	
0.195167	0.0309311	-0.00105831	0.00064053	2.92338E-05	0	0	0	
0.195333	-0.0238378	-0.000338018	0.000651427	2.92238E-05	0	0	0	
0.1955	0.0163801	0.000831471	0.000640374	2.21599E-05	0	0	0	
0.195667	-0.0164268	0.000933201	0.000607726	2.06575E-05	0	0	0	
0.195833	0.0163748	-0.00254808	0.000525077	2.47787E-05	0	0	0	
0.196	-0.0170653	0.0013096	0.000447741	3.43226E-05	0	0	0	
0.196167	0.01886	0.000898796	0.000398498	4.2166E-05	0	0	0	
0.196333	-0.0250358	-0.00078765	0.000423562	3.43755E-05	0	0	0	
0.1965	0.0372911	-0.00083229	0.000508668	3.12349E-05	0	0	0	
0.196667	-0.0473265	0.000646998	0.00067188	1.77371E-05	0	0	0	
0.196833	0.0574875	-0.00372532	0.000836756	2.68147E-05	0	0	0	
0.197	-0.194587	0.0326175	0.00158511	0.000149356	0	0	0	
0.197167	0.0539054	-0.00714424	0.0022962	0.00031411	0	0	0	
0.197333	-0.0428999	0.00288533	0.00220095	0.000340283	0	0	0	
0.1975	0.0278222	0.000915957	0.00158939	0.000223969	0	0	0	
0.197667	-0.0207514	1.46739E-05	0.000783022	7.0911E-05	0	0	0	
0.197833	0.00101071	0.00239211	0.000685122	5.83031E-05	0	0	0	
0.198	-0.0375245	0.00180868	0.000566856	5.8158E-05	0	0	0	
0.198167	0.021011	-0.00177339	0.000621417	7.65459E-05	0	0	0	
0.198333	-0.00932796	-0.00118502	0.000683781	8.90641E-05	0	0	0	
0.1985	0.0020653	0.00183493	0.000515047	9.34957E-05	0	0	0	
0.198667	-0.00594738	-6.78556E-05	0.000275863	6.41267E-05	0	0	0	
0.198833	0.0134306	-0.000459834	0.000152599	2.56015E-05	0	0	0	
0.199	-0.0229735	-0.0014124	0.000210424	1.58423E-05	0	0	0	
0.199167	0.0306102	0.00278835	0.000362422	2.38461E-05	0	0	0	
0.199333	-0.0309058	-0.000494563	0.00049215	3.409E-05	0	0	0	
0.1995	0.0246781	-0.00173872	0.00053939	4.11442E-05	0	0	0	
0.199667	-0.0176167	0.00115712	0.000522012	4.01748E-05	0	0	0	
0.199833	0.0102302	0.000190761	0.000426112	3.19837E-05	0	0	0	
0.2	-0.00846219	0.000433003	0.000334878	2.3172E-05	0	0	0	
0.200167	0.0173976	-0.00422617	0.00027914	3.27058E-05	0	0	0	
0.200333	-0.027836	0.00481492	0.000318116	5.84195E-05	0	0	0	
0.2005	0.0319216	0.000613248	0.000423138	9.7191E-05	0	0	0	
0.200667	-0.0229326	-0.00559242	0.000498799	0.000119962	0	0	0	
0.200833	0.00676185	0.0038325	0.00047599	0.000119243	0	0	0	
0.201	-0.00620846	-0.0010613	0.000342903	9.0619E-05	0	0	0	
0.201167	0.0173216	0.00119996	0.000247268	5.52884E-05	0	0	0	
0.201333	-0.0339811	-0.00103246	0.000283856	4.77606E-05	0	0	0	
0.2015	0.0333375	-0.00173474	0.000488659	6.72728E-05	0	0	0	
0.201667	-0.0170121	0.00461045	0.000626307	8.22981E-05	0	0	0	
0.201833	0.0121208	-0.00381333	0.000614128	8.92559E-05	0	0	0	
0.202	-0.0105488	0.00187741	0.000431237	7.00602E-05	0	0	0	
0.202167	0.0120966	-0.00115597	0.000283829	6.08622E-05	0	0	0	
0.202333	-0.0193731	-0.00190553	0.000255971	6.41027E-05	0	0	0	
0.2025	0.0265089	0.00594695	0.000380505	7.86469E-05	0	0	0	
0.202667	-0.0198507	-0.00279265	0.000484734	9.21585E-05	0	0	0	
0.202833	0.0213613	-0.00367348	0.000524434	0.000116567	0	0	0	
0.203	-0.0130643	0.00367397	0.00044343	0.000119828	0	0	0	
0.203167	0.016458	-0.0012521	0.000358504	0.000103901	0	0	0	
0.203333	-0.0210819	0.00188981	0.000313568	5.85316E-05	0	0	0	
0.2035	0.0246641	-0.00246209	0.000381853	4.38346E-05	0	0	0	
0.203667	-0.0187654	-0.00318515	0.000527143	6.69465E-05	0	0	0	
0.203833	0.0129737	0.00759906	0.000646747	8.90086E-05	0	0	0	
0.204	-0.00649065	-0.00541428	0.000601417	0.000122272	0	0	0	
0.204167	0.00800571	-0.000630408	0.000424347	0.000146822	0	0	0	
0.204333	-0.0189514	0.00372893	0.000293988	0.000141863	0	0	0	
0.2045	0.0213172	-0.00557156	0.000271661	0.000115739	0	0	0	
0.204667	-0.019983	0.00354337	0.00042323	8.07687E-05	0	0	0	
0.204833	0.0168871	-0.00213746	0.000528953	8.09981E-05	0	0	0	
0.205	-0.0268198	-0.000818071	0.00059016	8.32071E-05	0	0	0	
0.205167	0.0213252	0.0020216	0.000556074	7.49058E-05	0	0	0	
0.205333	-0.0133927	-0.001412	0.000448627	5.69717E-05	0	0	0	
0.2055	0.0122451	0.000193538	0.000355895	3.52541E-05	0	0	0	
0.205667	-0.0197607	-0.000685213	0.000279343	3.53398E-05	0	0	0	
0.205833	0.024918	-0.000803757	0.000393186	4.42987E-05	0	0	0	
0.206	-0.00755583	0.00221999	0.000530878	5.3992E-05	0	0	0	
0.206167	0.00331997	-0.00271411	0.000570033	5.8403E-05	0	0	0	
0.206333	-0.00270374	0.00220545	0.000385086	5.65348E-05	0	0	0	
0.2065	0.0100007	-0.00108552	0.000215228	4.71015E-05	0	0	0	
0.206667	-0.0149002	-0.000684396	0.000148739	3.65148E-05	0	0	0	
0.206833	0.0284314	0.000801205	0.000261867	2.58577E-05	0	0	0	
0.207	-0.0270942	0.00178372	0.000400445	3.15925E-05	0	0	0	
0.207167	0.017924	-0.00301016	0.000533803	3.46903E-05	0	0	0	
0.207333	-0.00970134	0.001394	0.000634245	5.45882E-05	0	0	0	
0.2075	0.000764618	0.00062441	0.000568892	5.99659E-05	0	0	0	
0.207667	-0.00350427	-0.000103765	0.000390745	4.84701E-05	0	0	0	
0.207833	0.00550181	3.37033E-05	0.000179964	2.31415E-05	0	0	0	
0.208	-0.00946728	-0.000374013	0.000112348	3.5991E-06	0	0	0	
0.208167	0.021708	-0.00380928	0.000194068	2.02032E-05	0	0	0	
0.208333	-0.0369032	0.00636907	0.000383959	5.17598E-05	0	0	0	
0.2085	0.0291774	-0.00395464	0.000572248	8.68686E-05	0	0	0	
0.208667	-0.0123078	-0.000608067	0.00059934	9.42828E-05	0	0	0	
0.208833	0.00610356	-0.00132622	0.000451417	6.76382E-05	0	0	0	
0.209	-0.0132114	0.00583752	0.000278123	5.11175E-05	0	0	0	
0.209167	0.0200996	-0.00339897	0.000280916	7.56515E-05	0	0	0	
0.209333	-0.0224885	-0.00593352	0.000405186	0.000103618	0	0	0	
0.2095	0.0171165	0.00238804	0.000488127	0.000120172	0	0	0	
0.209667	-0.00969998	0.00254515	0.000444228	0.00012877	0	0	0	
0.209833	0.0127506	-0.00402895	0.000317356	0.00012344	0	0	0	
0.21	-0.0141745	0.0025241	0.000242748	0.000108756	0	0	0	
0.210167	0.0229269	-0.00149809	0.000269593	7.54949E-05	0	0	0	
0.210333	-0.0313281	0.00146163	0.000382217	5.62948E-05	0	0	0	
0.2105	0.0235772	-0.00397221	0.000489907	5.5172E-05	0	0	0	
0.210667	-0.0152481	0.00503116	0.000559131	5.60065E-05	0	0	0	
0.210833	0.00622179	-0.00108819	0.000493449	7.49135E-05	0	0	0	
0.211	-0.00609098	0.00112531	0.000353939	6.35737E-05	0	0	0	
0.211167	0.0118123	-0.00160455	0.000217632	5.24186E-05	0	0	0	
0.211333	-0.0287238	-0.00201798	0.000236624	8.70139E-05	0	0	0	
0.2115	0.028694	0.00625947	0.000392991	0.000119798	0	0	0	
0.211667	-0.021205	-0.000581223	0.000526279	0.000156287	0	0	0	
0.211833	0.0153092	-0.00752865	0.000551631	0.000171679	0	0	0	
0.212	-0.00976177	0.00487038	0.000430947	0.000167212	0	0	0	
0.212167	0.0125062	-0.000493446	0.000309701	0.00013774	0	0	0	
0.212333	-0.0251066	0.00304092	0.000252288	7.12533E-05	0	0	0	
0.2125	0.0352011	-0.00500616	0.000396975	5.90476E-05	0	0	0	
0.212667	-0.0196886	0.000475791	0.000541275	6.38866E-05	0	0	0	
0.212833	0.0124814	0.00257408	0.00061611	7.65049E-05	0	0	0	
0.213	-0.00578769	-0.0025131	0.00049916	6.99504E-05	0	0	0	
0.213167	0.0055369	-0.000408315	0.000327251	6.48401E-05	0	0	0	
0.213333	-0.0137686	0.00277742	0.000206704	5.8044E-05	0	0	0	
0.2135	0.0249095	-0.00413507	0.00022233	6.20023E-05	0	0	0	
0.213667	-0.0266242	0.00105194	0.000381827	6.06284E-05	0	0	0	
0.213833	0.0191259	0.00134248	0.000515039	6.54364E-05	0	0	0	
0.214	-0.0205111	-0.00199692	0.000580657	5.10494E-05	0	0	0	
0.214167	0.0112376	0.000661667	0.000505495	4.26896E-05	0	0	0	
0.214333	-0.00869086	-0.000153868	0.000376904	2.63362E-05	0	0	0	
0.2145	0.00836361	-0.00137969	0.000243626	2.98039E-05	0	0	0	
0.214667	-0.0232776	0.00226297	0.00027125	4.0159E-05	0	0	0	
0.214833	0.0218974	-0.00217854	0.000388826	4.49418E-05	0	0	0	
0.215	-0.0246487	0.000332939	0.000498545	5.31352E-05	0	0	0	
0.215167	0.0182311	0.00154854	0.000535899	4.72135E-05	0	0	0	
0.215333	-0.00662828	-0.000999522	0.00043891	4.50289E-05	0	0	0	
0.2155	0.00833416	0.000297467	0.000315109	2.93341E-05	0	0	0	
0.215667	-0.0271866	-7.00201E-05	0.000224219	2.01853E-05	0	0	0	
0.215833	0.0362038	-0.000530565	0.000360844	1.84759E-05	0	0	0	
0.216	-0.0282725	0.000901718	0.000540804	2.45661E-05	0	0	0	
0.216167	0.0254219	0.00077565	0.000693184	3.31675E-05	0	0	0	
0.216333	-0.00985186	-0.000753236	0.000623793	3.4717E-05	0	0	0	
0.2165	0.005933	0.000363194	0.000460016	2.86714E-05	0	0	0	
0.216667	-0.00828998	-0.0019382	0.000258238	1.83872E-05	0	0	0	
0.216833	0.0161501	0.00215444	0.000182998	2.78364E-05	0	0	0	
0.217	-0.0247425	0.00401337	0.000249338	5.42206E-05	0	0	0	
0.217167	0.0318428	-0.00650904	0.000381255	8.25858E-05	0	0	0	
0.217333	-0.0293859	0.00253891	0.000538656	9.95002E-05	0	0	0	
0.2175	0.0104086	0.00143327	0.000569215	0.000104011	0	0	0	
0.217667	-0.00383566	-0.00105648	0.00045654	7.73052E-05	0	0	0	
0.217833	0.0107118	-0.000404138	0.000269072	4.98218E-05	0	0	0	
0.218	-0.0276458	-0.000350299	0.000233045	2.41563E-05	0	0	0	
0.218167	0.0324582	0.00181293	0.000407166	2.49968E-05	0	0	0	
0.218333	-0.0193476	-0.000684449	0.000592163	3.60908E-05	0	0	0	
0.2185	0.00952366	-0.00193808	0.000612423	5.19063E-05	0	0	0	
0.218667	-0.00772064	0.00128188	0.000426471	5.29809E-05	0	0	0	
0.218833	0.0133799	7.07217E-05	0.000260723	3.90836E-05	0	0	0	
0.219	-0.0248844	0.000979366	0.000225406	2.98086E-05	0	0	0	
0.219167	0.0389242	-0.00437239	0.000400606	3.70455E-05	0	0	0	
0.219333	-0.0267784	0.00180174	0.000591578	5.20515E-05	0	0	0	
0.2195	0.00432241	0.00152806	0.000673171	6.14379E-05	0	0	0	
0.219667	0.00530015	-0.00162719	0.000569594	5.42054E-05	0	0	0	
0.219833	0.00291714	-0.000727717	0.000336605	4.98031E-05	0	0	0	
0.22	-0.0166856	0.000837413	0.000205821	2.90966E-05	0	0	0	
0.220167	0.0309961	0.00237198	0.000234473	4.24345E-05	0	0	0	
0.220333	-0.0342728	-0.00210371	0.000447666	4.58196E-05	0	0	0	
0.2205	0.0252639	-0.000724593	0.000599551	6.41666E-05	0	0	0	
0.220667	-0.017658	0.00386038	0.000614936	6.13988E-05	0	0	0	
0.220833	0.00750555	-0.00162241	0.00049712	6.13311E-05	0	0	0	
0.221	-0.00398841	-0.000235513	0.000364237	4.85543E-05	0	0	0	
0.221167	0.00910136	-0.00106001	0.000258517	3.02672E-05	0	0	0	
0.221333	-0.0232958	0.00199021	0.000241464	2.60392E-05	0	0	0	
0.2215	0.0337359	0.000105866	0.000349084	3.82295E-05	0	0	0	
0.221667	-0.0247444	-0.0015681	0.000492336	5.18082E-05	0	0	0	
0.221833	0.00885425	0.00018671	0.00051266	4.35709E-05	0	0	0	
0.222	-0.00814807	0.0015416	0.000383751	3.45226E-05	0	0	0	
0.222167	0.0104239	-0.000743149	0.000245726	2.63665E-05	0	0	0	
0.222333	-0.00876782	-0.00120405	0.000226635	4.23414E-05	0	0	0	
0.2225	0.0164737	0.00123225	0.000319357	3.82852E-05	0	0	0	
0.222667	-0.0188491	0.00380152	0.000394819	4.70345E-05	0	0	0	
0.222833	0.0201669	-0.000947738	0.000425661	5.86399E-05	0	0	0	
0.223	-0.0121547	-0.00179299	0.000400975	9.29521E-05	0	0	0	
0.223167	0.00811612	0.000673699	0.000328073	8.50527E-05	0	0	0	
0.223333	-0.0137868	0.00304819	0.000260032	6.07358E-05	0	0	0	
0.2235	0.0247875	-0.00168238	0.000276142	4.6758E-05	0	0	0	
0.223667	-0.0235768	-0.0013147	0.00044044	7.9676E-05	0	0	0	
0.223833	0.0211466	0.00131676	0.000667766	7.95682E-05	0	0	0	
0.224	-0.0190174	0.00249149	0.000760128	7.19099E-05	0	0	0	
0.224167	0.00846234	-0.00233421	0.000616036	4.69334E-05	0	0	0	
0.224333	-0.00967066	0.000614541	0.000379544	5.19244E-05	0	0	0	
0.2245	0.00968009	0.00239143	0.000211757	4.78141E-05	0	0	0	
0.224667	-0.0214511	-0.00394296	0.000271809	5.27716E-05	0	0	0	
0.224833	0.035696	0.000729267	0.000467574	5.59875E-05	0	0	0	
0.225	-0.0321915	0.00278499	0.000646681	5.38093E-05	0	0	0	
0.225167	0.0197368	-0.00164381	0.000676547	5.34641E-05	0	0	0	
0.225333	-0.00781206	0.00106039	0.000524385	4.42192E-05	0	0	0	
0.2255	0.00375006	0.000147261	0.000347972	4.19381E-05	0	0	0	
0.225667	-0.015314	-0.00157691	0.000242995	2.91271E-05	0	0	0	
0.225833	0.0321533	0.000535813	0.000335773	3.46E-05	0	0	0	
0.226	-0.026925	-0.000981167	0.000474916	2.83729E-05	0	0	0	
0.226167	0.0265875	0.000683142	0.000570802	3.51717E-05	0	0	0	
0.226333	-0.0164568	0.00129307	0.000521975	4.69584E-05	0	0	0	
0.2265	0.00725647	-0.000889222	0.000384777	4.53651E-05	0	0	0	
0.226667	-0.00241171	-0.00293214	0.000275323	4.51392E-05	0	0	0	
0.226833	0.00877487	0.00244991	0.000180331	4.57372E-05	0	0	0	
0.227	-0.023338	0.00149434	0.000213423	7.95811E-05	0	0	0	
0.227167	0.0292907	-0.00244053	0.000292079	7.34614E-05	0	0	0	
0.227333	-0.0253016	-0.000944445	0.000460383	7.34443E-05	0	0	0	
0.2275	0.00735673	0.00182353	0.00048007	4.61877E-05	0	0	0	
0.227667	-0.000760469	-0.000122431	0.000416423	4.68124E-05	0	0	0	
0.227833	-0.00369931	-0.000372592	0.000263673	2.7522E-05	0	0	0	
0.228	-0.00955044	-0.000301599	0.000212534	1.89035E-05	0	0	0	
0.228167	0.0192919	0.00109832	0.000235913	2.26257E-05	0	0	0	
0.228333	-0.0318269	-0.00254214	0.000338451	3.21628E-05	0	0	0	
0.2285	0.0264551	0.00258092	0.000482243	4.50786E-05	0	0	0	
0.228667	-0.0119235	0.0005108	0.000509154	4.83193E-05	0	0	0	
0.228833	0.0054312	-0.00138533	0.000426941	3.91729E-05	0	0	0	
0.229	-0.0134359	-0.000474031	0.000293443	3.93476E-05	0	0	0	
0.229167	0.0219982	0.00130373	0.000300232	3.62824E-05	0	0	0	
0.229333	-0.0238986	0.00238449	0.000391354	3.97613E-05	0	0	0	
0.2295	0.0247443	-0.00188632	0.000492791	3.82804E-05	0	0	0	
0.229667	-0.0141128	0.000354008	0.00049789	4.73152E-05	0	0	0	
0.229833	0.0087743	0.000560107	0.000402027	4.57381E-05	0	0	0	
0.23	-0.0134089	-0.000252454	0.000291255	3.30351E-05	0	0	0	
0.230167	0.0245185	0.00128442	0.000279891	2.05314E-05	0	0	0	
0.230333	-0.0258122	-4.06534E-05	0.000385822	2.07105E-05	0	0	0	
0.2305	0.0178175	-0.00239639	0.000476346	3.09133E-05	0	0	0	
0.230667	-0.0134605	0.00468552	0.000490656	4.13433E-05	0	0	0	
0.230833	0.0049567	-0.00179286	0.000404695	5.63935E-05	0	0	0	
0.231	-0.0059032	-0.000486551	0.000288868	6.02003E-05	0	0	0	
0.231167	0.0178774	0.000259266	0.000216914	4.51812E-05	0	0	0	
0.231333	-0.031393	0.00181817	0.000279788	2.86486E-05	0	0	0	
0.2315	0.0266524	-0.0041433	0.000415836	4.26373E-05	0	0	0	
0.231667	-0.0248144	0.00318784	0.000535483	5.34311E-05	0	0	0	
0.231833	0.0190229	0.000246123	0.000559409	7.78979E-05	0	0	0	
0.232	-0.0116064	-0.00273738	0.000492649	7.22619E-05	0	0	0	
0.232167	0.00874375	0.000693558	0.000386754	6.89332E-05	0	0	0	
0.232333	-0.00826807	0.00123323	0.000290686	6.84135E-05	0	0	0	
0.2325	0.00852847	-0.00467261	0.000278843	7.64521E-05	0	0	0	
0.232667	-0.0108188	0.000844819	0.000288787	0.000103108	0	0	0	
0.232833	0.0167363	-0.00347646	0.000314407	8.58952E-05	0	0	0	
0.233	-0.0136402	0.00288245	0.000319609	8.10665E-05	0	0	0	
0.233167	0.00883285	0.000864979	0.000297113	6.98332E-05	0	0	0	
0.233333	-0.00942547	-0.000705708	0.000260002	6.01106E-05	0	0	0	
0.2335	0.0138869	-0.00167031	0.000255362	4.86168E-05	0	0	0	
0.233667	-0.0170908	-2.19034E-05	0.000310269	3.66138E-05	0	0	0	
0.233833	0.0245163	-0.000552758	0.000401652	3.62248E-05	0	0	0	
0.234	-0.0271986	0.00140246	0.000507836	2.84328E-05	0	0	0	
0.234167	0.0128694	-0.00181041	0.000519973	2.44515E-05	0	0	0	
0.234333	-0.011828	0.00154088	0.000448416	3.04248E-05	0	0	0	
0.2345	0.0145324	-0.00112717	0.00033583	3.0801E-05	0	0	0	
0.234667	-0.020601	0.000669301	0.000338431	2.64339E-05	0	0	0	
0.234833	0.0247918	-0.000916773	0.000426074	2.38097E-05	0	0	0	
0.235	-0.0251055	0.000930507	0.00053447	2.17013E-05	0	0	0	
0.235167	0.0150529	-0.00100375	0.000572714	2.05102E-05	0	0	0	
0.235333	-0.00559652	0.00049293	0.000480245	1.79827E-05	0	0	0	
0.2355	0.00612679	-0.000301112	0.000322022	1.30051E-05	0	0	0	
0.235667	-0.0200084	0.00101991	0.000223716	1.1386E-05	0	0	0	
0.235833	0.0270746	-0.00111223	0.000308857	2.19673E-05	0	0	0	
0.236	-0.0187713	1.80505E-05	0.000449197	4.33398E-05	0	0	0	
0.236167	0.014842	0.000972571	0.000553292	5.08358E-05	0	0	0	
0.236333	-0.00814317	6.23226E-05	0.000488741	4.34692E-05	0	0	0	
0.2365	0.00414275	0.000189441	0.000351893	2.17502E-05	0	0	0	
0.236667	-0.00132628	-0.00353892	0.000230852	2.0315E-05	0	0	0	
0.236833	-0.00438764	0.00275505	0.000223057	4.13659E-05	0	0	0	
0.237	-0.00616349	0.00462717	0.000331485	8.59462E-05	0	0	0	
0.237167	0.0166751	-0.00501017	0.000493654	0.000106707	0	0	0	
0.237333	-0.0261762	-0.000235019	0.000652386	0.000115125	0	0	0	
0.2375	0.0102544	0.0023499	0.000668031	9.54573E-05	0	0	0	
0.237667	9.08152E-05	-0.00148412	0.000538919	7.42814E-05	0	0	0	
0.237833	-0.00783033	0.00287688	0.000352999	5.0481E-05	0	0	0	
0.238	-0.000691365	-0.00167787	0.000248783	3.6806E-05	0	0	0	
0.238167	0.027555	-0.000308393	0.00028416	4.30107E-05	0	0	0	
0.238333	-0.0477232	0.00143065	0.000462497	3.6866E-05	0	0	0	
0.2385	0.0354665	-0.000213779	0.000710153	3.81743E-05	0	0	0	
0.238667	-0.0128296	-0.001266	0.000757105	3.35143E-05	0	0	0	
0.238833	-0.00737635	0.000119363	0.000664657	3.20683E-05	0	0	0	
0.239	0.0264649	0.00179908	0.000491267	2.96656E-05	0	0	0	
0.239167	-0.0209777	-0.00146876	0.000467059	2.89587E-05	0	0	0	
0.239333	-0.0104815	-0.00184614	0.000408629	4.0999E-05	0	0	0	
0.2395	0.0373763	0.00277349	0.000427118	4.27481E-05	0	0	0	
0.239667	-0.0276231	-0.00117848	0.000470309	4.89265E-05	0	0	0	
0.239833	0.00743922	-0.000518721	0.00049842	4.32002E-05	0	0	0	
0.24	0.0023808	0.00122935	0.000407896	3.58382E-05	0	0	0	
0.240167	0.00387529	-0.00246772	0.000245211	3.03447E-05	0	0	0	
0.240333	-0.0183337	0.000672219	0.000229149	3.08997E-05	0	0	0	
0.2405	0.024043	0.00162006	0.000360484	3.86133E-05	0	0	0	
0.240667	-0.0193103	-0.00229087	0.000539892	3.86862E-05	0	0	0	
0.240833	0.00516958	0.000698515	0.000542533	3.6434E-05	0	0	0	
0.241	0.0013036	0.000348133	0.000397184	2.97271E-05	0	0	0	
0.241167	-0.00285342	0.000179527	0.000200165	1.86899E-05	0	0	0	
0.241333	-0.0105652	0.000184754	0.000120178	1.04109E-05	0	0	0	
0.2415	0.023143	-0.00173074	0.000181964	1.16622E-05	0	0	0	
0.241667	-0.0208741	0.00190827	0.00035074	2.20946E-05	0	0	0	
0.241833	0.0129124	-1.06447E-05	0.000460024	3.86084E-05	0	0	0	
0.242	-0.0122515	-0.000519807	0.000429578	4.43698E-05	0	0	0	
0.242167	0.00508408	0.000731235	0.000308807	3.85804E-05	0	0	0	
0.242333	0.000204334	-0.000886884	0.000268492	2.57261E-05	0	0	0	
0.2425	-0.0030955	-0.00114575	0.000316775	1.93244E-05	0	0	0	
0.242667	-0.00255575	0.00452577	0.000361325	3.25742E-05	0	0	0	
0.242833	0.00666324	-0.00331222	0.000318344	5.40789E-05	0	0	0	
0.243	-0.0103157	0.00048991	0.000233991	8.26064E-05	0	0	0	
0.243167	0.0124879	0.00139569	0.000197314	8.17518E-05	0	0	0	
0.243333	-0.0125015	-0.000482737	0.000202778	5.97765E-05	0	0	0	
0.2435	0.0150655	7.73464E-06	0.000281456	2.6425E-05	0	0	0	
0.243667	-0.0113494	-0.000952677	0.000383559	2.0863E-05	0	0	0	
0.243833	0.004893	0.00196716	0.000487776	2.50663E-05	0	0	0	
0.244	-0.00125994	-0.00105864	0.000467844	3.88072E-05	0	0	0	
0.244167	0.00131811	-0.00106933	0.000334264	4.62448E-05	0	0	0	
0.244333	-0.00259949	0.00101186	0.000192446	4.16521E-05	0	0	0	
0.2445	-0.00260734	0.000540779	0.000136433	3.46165E-05	0	0	0	
0.244667	-0.00996238	0.000619079	0.000175184	1.7286E-05	0	0	0	
0.244833	0.0283429	-0.00135971	0.000294244	1.6696E-05	0	0	0	
0.245	-0.0321263	-0.000700536	0.000429615	3.02097E-05	0	0	0	
0.245167	0.0215822	0.00322122	0.000537737	5.73856E-05	0	0	0	
0.245333	-0.00968408	-0.0015257	0.000495932	6.62474E-05	0	0	0	
0.2455	0.00667502	-0.000996549	0.000385711	5.44289E-05	0	0	0	
0.245667	-0.0110847	0.00144624	0.000286975	3.55253E-05	0	0	0	
0.245833	0.022817	0.000680107	0.000350643	4.82084E-05	0	0	0	
0.246	-0.0127109	-0.000194409	0.000407036	5.33569E-05	0	0	0	
0.246167	0.0128049	0.000345308	0.000430443	4.44063E-05	0	0	0	
0.246333	-0.00963213	-0.000342316	0.000353061	2.15592E-05	0	0	0	
0.2465	0.00779807	-0.00123231	0.000295508	1.26053E-05	0	0	0	
0.246667	-0.00445502	0.00346184	0.000271106	2.2293E-05	0	0	0	
0.246833	-0.00733343	-0.000542533	0.000266173	4.7216E-05	0	0	0	
0.247	0.145135	-0.0291865	0.000755589	0.000147687	0	0	0	
0.247167	-0.00153818	0.00626877	0.00147994	0.000302928	0	0	0	
0.247333	-0.00529663	-0.00516245	0.0015661	0.000329647	0	0	0	
0.2475	0.00719046	0.000398351	0.00107728	0.000246273	0	0	0	
0.247667	-0.0122148	0.00380898	0.000348149	9.27587E-05	0	0	0	
0.247833	0.0498801	-0.00939887	0.000368677	7.26663E-05	0	0	0	
0.248	-0.0276854	-0.000756967	0.000482364	7.97374E-05	0	0	0	
0.248167	0.0283183	0.0048353	0.000585799	8.30654E-05	0	0	0	
0.248333	-0.0290838	-0.00148469	0.00054534	7.86966E-05	0	0	0	
0.2485	0.0387152	-0.00089251	0.000592681	7.42457E-05	0	0	0	
0.248667	-0.0300701	0.000682777	0.000669308	6.63193E-05	0	0	0	
0.248833	0.0210457	-0.000448781	0.000727637	4.14586E-05	0	0	0	
0.249	-0.0254114	0.001083	0.000687103	2.60609E-05	0	0	0	
0.249167	0.026064	-0.00259604	0.000623621	2.94951E-05	0	0	0	
0.249333	-0.026391	0.00232421	0.000636052	4.11715E-05	0	0	0	
0.2495	0.018518	-2.07577E-05	0.000655538	4.86286E-05	0	0	0	
0.249667	-0.0111861	0.000227366	0.000586703	4.17385E-05	0	0	0	
0.249833	0.0192032	-0.00293621	0.000470253	3.41073E-05	0	0	0	
0.25	-0.0261779	0.00233157	0.000427159	3.45975E-05	0	0	0	
0.250167	0.0195609	0.00229694	0.000493383	6.87881E-05	0	0	0	
0.250333	-0.0158532	-0.00432667	0.000573492	8.88684E-05	0	0	0	
0.2505	0.0158109	0.00147425	0.000554934	8.97404E-05	0	0	0	
0.250667	-0.0183312	0.00271996	0.000504401	7.77893E-05	0	0	0	
0.250833	0.0225324	-0.00173264	0.00050227	5.98232E-05	0	0	0	
0.251	-0.0207373	-0.00083746	0.000530817	5.49915E-05	0	0	0	
0.251167	0.022942	-0.000838532	0.000555893	3.41304E-05	0	0	0	
0.251333	-0.026286	0.00348645	0.000548818	4.08734E-05	0	0	0	
0.2515	0.0247153	-0.00259381	0.000556999	4.413E-05	0	0	0	
0.251667	-0.0211766	-0.00116835	0.000596541	6.05717E-05	0	0	0	
0.251833	0.0192727	0.00155651	0.000600902	5.12939E-05	0	0	0	
0.252	-0.0184177	0.00191138	0.000545747	4.66315E-05	0	0	0	
0.252167	0.0261884	-0.00270096	0.000485761	3.66267E-05	0	0	0	
0.252333	-0.0290165	-0.000101723	0.000483214	4.74232E-05	0	0	0	
0.2525	0.0219787	0.000275902	0.000534341	3.60623E-05	0	0	0	
0.252667	-0.0197428	0.00213539	0.000617821	3.6748E-05	0	0	0	
0.252833	0.0156522	-0.000994865	0.000627283	2.84569E-05	0	0	0	
0.253	-0.01343	-0.0017263	0.000567313	5.10847E-05	0	0	0	
0.253167	0.0156838	0.00154324	0.000462727	4.58027E-05	0	0	0	
0.253333	-0.0171396	0.00194758	0.000390982	5.43986E-05	0	0	0	
0.2535	0.0274243	-0.00311058	0.000425396	4.54549E-05	0	0	0	
0.253667	-0.0342146	0.0015042	0.000539533	5.23417E-05	0	0	0	
0.253833	0.0264851	0.000627577	0.000675029	4.35151E-05	0	0	0	
0.254	-0.0167462	0.000259863	0.000702567	2.96176E-05	0	0	0	
0.254167	0.0230747	-0.00151762	0.000619453	2.08864E-05	0	0	0	
0.254333	-0.0272462	0.000371019	0.000534159	2.20811E-05	0	0	0	
0.2545	0.0287526	0.000826865	0.000562821	2.876E-05	0	0	0	
0.254667	-0.0206907	0.00117069	0.000623032	3.56154E-05	0	0	0	
0.254833	0.0119523	-0.00220804	0.000607442	3.17122E-05	0	0	0	
0.255	-0.0155583	-0.000946811	0.00051181	4.42958E-05	0	0	0	
0.255167	0.027116	0.00242722	0.000467716	4.42274E-05	0	0	0	
0.255333	-0.0262134	0.00065272	0.000500087	5.13499E-05	0	0	0	
0.2555	0.0245639	-0.00267753	0.00056819	4.12553E-05	0	0	0	
0.255667	-0.0190415	0.000482272	0.000571986	4.49969E-05	0	0	0	
0.255833	0.0166757	0.00107021	0.000550733	4.44737E-05	0	0	0	
0.256	-0.0166997	0.00158534	0.000517973	4.15667E-05	0	0	0	
0.256167	0.023323	-0.00272057	0.000518932	3.65239E-05	0	0	0	
0.256333	-0.0228686	-0.000293253	0.00053043	4.59955E-05	0	0	0	
0.2565	0.0267512	0.00240038	0.000553595	5.23504E-05	0	0	0	
0.256667	-0.0264222	0.000995854	0.000580802	5.886E-05	0	0	0	
0.256833	0.0239991	-0.00419869	0.000604739	5.15622E-05	0	0	0	
0.257	-0.0183849	0.00146784	0.000611412	6.2739E-05	0	0	0	
0.257167	0.0178543	0.00281384	0.000572274	7.41309E-05	0	0	0	
0.257333	-0.0215166	-0.000817005	0.000559934	6.77577E-05	0	0	0	
0.2575	0.00784296	-0.00123223	0.00055052	5.41711E-05	0	0	0	
0.257667	-0.00284268	-0.0015014	0.000479947	3.54783E-05	0	0	0	
0.257833	0.0934374	-0.0131592	0.000619571	8.53913E-05	0	0	0	
0.258	0.157932	-0.0344476	0.00232201	0.000460552	0	0	0	
0.258167	0.0108487	0.00110387	0.00312262	0.000682484	0	0	0	
0.258333	-0.030501	-0.00121501	0.00298885	0.0006416	0	0	0	
0.2585	-0.00689762	0.00742733	0.00120227	0.000286232	0	0	0	
0.258667	0.0109809	-0.00407035	0.000559665	0.000104382	0	0	0	
0.258833	-0.0123346	-0.00316821	0.000678959	0.000169819	0	0	0	
0.259	-0.0204914	0.0132071	0.000873997	0.000307043	0	0	0	
0.259167	-0.104835	0.021575	0.00255168	0.000650583	0	0	0	
0.259333	0.025593	6.44913E-05	0.00247676	0.000625958	0	0	0	
0.2595	-0.0314156	0.000840104	0.00245182	0.000513033	0	0	0	
0.259667	-0.00776566	-0.011369	0.00083269	0.000202408	0	0	0	
0.259833	0.0380358	0.0113983	0.000938047	0.000202081	0	0	0	
0.26	-0.0503848	0.00114067	0.00101659	0.000250732	0	0	0	
0.260167	0.0481744	-0.00983551	0.00106971	0.000267753	0	0	0	
0.260333	-0.00602759	0.00928643	0.000900038	0.000274537	0	0	0	
0.2605	0.0114578	-0.00770913	0.000679343	0.000220842	0	0	0	
0.260667	-0.0336036	0.00504362	0.000629676	0.000158802	0	0	0	
0.260833	0.0208833	0.00200093	0.000735372	0.000140028	0	0	0	
0.261	-0.0148296	-0.0043536	0.000755868	0.000107809	0	0	0	
0.261167	0.0130724	-0.00261773	0.000523256	0.000111494	0	0	0	
0.261333	-0.0194456	0.00692785	0.000350878	9.92818E-05	0	0	0	
0.2615	0.0373832	-0.00303339	0.000465869	0.000113505	0	0	0	
0.261667	-0.0318553	-0.000935693	0.000651053	0.000102431	0	0	0	
0.261833	0.0208449	-0.000425209	0.000730581	7.30325E-05	0	0	0	
0.262	-0.0152485	0.00141495	0.000713931	4.70017E-05	0	0	0	
0.262167	-2.05353E-05	0.00147568	0.000666798	4.45574E-05	0	0	0	
0.262333	-0.00264725	-0.00491676	0.000592235	6.51956E-05	0	0	0	
0.2625	0.0248271	0.00325398	0.000456965	8.35733E-05	0	0	0	
0.262667	-0.0335014	0.00114063	0.00042282	9.72885E-05	0	0	0	
0.262833	0.0336827	-0.00339861	0.000521884	9.94238E-05	0	0	0	
0.263	-0.0311454	0.00322368	0.000657765	9.35775E-05	0	0	0	
0.263167	0.0273968	-0.00269427	0.000697094	6.8533E-05	0	0	0	
0.263333	-0.0287423	0.00258065	0.000711731	5.49551E-05	0	0	0	
0.2635	0.0274568	-0.00240902	0.00073624	5.12777E-05	0	0	0	
0.263667	-0.0187078	0.00171205	0.000763389	4.98964E-05	0	0	0	
0.263833	0.0165704	-0.000649146	0.000732929	5.13595E-05	0	0	0	
0.264	-0.014846	-0.00131148	0.000602861	5.72723E-05	0	0	0	
0.264167	0.0211503	0.00348253	0.000498751	6.34695E-05	0	0	0	
0.264333	-0.0210444	-0.00362718	0.000480093	6.6274E-05	0	0	0	
0.2645	0.0195533	0.000582331	0.000491305	7.23914E-05	0	0	0	
0.264667	-0.0319797	0.00215627	0.000506569	8.38365E-05	0	0	0	
0.264833	0.0428347	-0.00388478	0.000579186	9.03141E-05	0	0	0	
0.265	-0.0337146	0.00550956	0.000688918	9.10194E-05	0	0	0	
0.265167	0.0255879	-0.00561117	0.000795159	9.08168E-05	0	0	0	
0.265333	-0.0162714	0.00109925	0.000807715	0.000106904	0	0	0	
0.2655	0.00698152	0.00335298	0.000729179	0.000121853	0	0	0	
0.265667	-0.012196	-0.00343642	0.00057439	0.000108092	0	0	0	
0.265833	0.0215573	-0.000190233	0.000441633	8.1523E-05	0	0	0	
0.266	-0.0216637	0.00185836	0.000391405	4.34254E-05	0	0	0	
0.266167	0.0249308	-0.000374007	0.000436656	3.3745E-05	0	0	0	
0.266333	-0.0217702	-0.000980458	0.000528262	2.68035E-05	0	0	0	
0.2665	0.0139799	0.000821744	0.000624	2.71457E-05	0	0	0	
0.266667	-0.00916088	-0.00079042	0.000643742	2.18866E-05	0	0	0	
0.266833	0.0173616	-0.00118393	0.000559125	2.705E-05	0	0	0	
0.267	-0.0243696	0.00348126	0.000462853	3.86657E-05	0	0	0	
0.267167	0.0315658	-0.00295071	0.000454947	5.17931E-05	0	0	0	
0.267333	-0.0266974	0.0015845	0.000539	5.68268E-05	0	0	0	
0.2675	0.011256	-0.000949558	0.000645144	5.98376E-05	0	0	0	
0.267667	-0.0127067	-0.000942564	0.000671528	6.75318E-05	0	0	0	
0.267833	0.0249618	0.00340843	0.000621162	7.29934E-05	0	0	0	
0.268	-0.0263679	-0.00236125	0.000544516	6.74926E-05	0	0	0	
0.268167	0.0240779	-0.00146308	0.000517497	6.7337E-05	0	0	0	
0.268333	-0.0167227	0.00188596	0.000534546	5.24068E-05	0	0	0	
0.2685	0.0149019	0.000791733	0.000562428	4.94084E-05	0	0	0	
0.268667	-0.0242334	0.000211166	0.000605793	3.16239E-05	0	0	0	
0.268833	0.0245822	-0.00347352	0.000643232	4.22667E-05	0	0	0	
0.269	-0.0125547	0.0031718	0.000590885	5.06751E-05	0	0	0	
0.269167	0.0207406	0.000748665	0.000520349	7.08945E-05	0	0	0	
0.269333	-0.0211336	-0.00200474	0.000461557	6.42157E-05	0	0	0	
0.2695	0.0187975	0.00165356	0.0004487	5.37584E-05	0	0	0	
0.269667	-0.0334369	-0.00127846	0.000504618	3.78664E-05	0	0	0	
0.269833	0.0333304	-0.000459166	0.000625876	4.30136E-05	0	0	0	
0.27	-0.0167942	0.00278374	0.000739931	5.52319E-05	0	0	0	
0.270167	0.0200897	-0.00446444	0.000742814	6.77066E-05	0	0	0	
0.270333	-0.0191893	0.00523955	0.000646313	7.69033E-05	0	0	0	
0.2705	0.0088358	-0.00134555	0.000571107	9.0366E-05	0	0	0	
0.270667	-0.0123257	-0.00396989	0.000535054	0.00011665	0	0	0	
0.270833	0.0214797	0.00520903	0.000498791	0.000117838	0	0	0	
0.271	-0.0276946	-0.00165036	0.000497694	0.000110868	0	0	0	
0.271167	0.027619	-0.00153788	0.000531249	8.46645E-05	0	0	0	
0.271333	-0.0203111	0.000960343	0.000593823	6.31508E-05	0	0	0	
0.2715	0.0221736	-0.000799111	0.000636106	4.35328E-05	0	0	0	
0.271667	-0.0258102	0.00397029	0.000645172	3.86235E-05	0	0	0	
0.271833	0.0188408	-0.00452445	0.000628134	5.75202E-05	0	0	0	
0.272	-0.0141854	5.87764E-05	0.000619608	8.04445E-05	0	0	0	
0.272167	0.0154884	0.000919233	0.000593375	7.06586E-05	0	0	0	
0.272333	-0.0162046	0.00261801	0.000541439	5.53795E-05	0	0	0	
0.2725	0.0258082	-0.00130511	0.000526301	4.41508E-05	0	0	0	
0.272667	-0.027398	-0.00357768	0.000545258	7.47853E-05	0	0	0	
0.272833	0.0217897	0.00214416	0.00061564	7.83558E-05	0	0	0	
0.273	-0.0138057	0.00244647	0.000627148	8.65003E-05	0	0	0	
0.273167	0.0201922	-0.00247374	0.000573544	6.05388E-05	0	0	0	
0.273333	-0.0320861	2.26478E-05	0.000552987	5.60719E-05	0	0	0	
0.2735	0.0318988	-0.00128809	0.000630212	3.06709E-05	0	0	0	
0.273667	-0.0159881	0.00184213	0.00071751	2.58025E-05	0	0	0	
0.273833	0.0144391	0.00126348	0.000690858	4.07945E-05	0	0	0	
0.274	-0.0166925	-0.0008484	0.000560063	4.17936E-05	0	0	0	
0.274167	0.0161499	-0.00289607	0.000494319	5.4241E-05	0	0	0	
0.274333	-0.0137175	0.00182192	0.000516808	4.22691E-05	0	0	0	
0.2745	0.021046	0.00248544	0.000539789	6.47896E-05	0	0	0	
0.274667	-0.0258693	-0.000408067	0.000529039	5.34937E-05	0	0	0	
0.274833	0.0262943	-0.00360888	0.00053576	6.2065E-05	0	0	0	
0.275	-0.0138171	0.000874985	0.000593732	5.62812E-05	0	0	0	
0.275167	0.00698245	0.00277266	0.000628286	7.1825E-05	0	0	0	
0.275333	-0.0132103	-0.000336864	0.000603827	6.23649E-05	0	0	0	
0.2755	0.0203935	-0.00281491	0.000561094	5.63036E-05	0	0	0	
0.275667	-0.0202917	5.68632E-05	0.000541604	4.13656E-05	0	0	0	
0.275833	0.0220157	0.00189053	0.000574777	4.04476E-05	0	0	0	
0.276	-0.0168551	0.000180236	0.00062514	3.45373E-05	0	0	0	
0.276167	0.01187	-0.00297746	0.000650979	3.3502E-05	0	0	0	
0.276333	-0.0202483	0.00145282	0.000640798	4.20615E-05	0	0	0	
0.2765	0.0278468	0.00357531	0.000636743	6.61636E-05	0	0	0	
0.276667	-0.0243364	-0.00409531	0.000642299	7.60165E-05	0	0	0	
0.276833	0.0235124	-0.000910445	0.000660231	8.90583E-05	0	0	0	
0.277	-0.0164503	0.00379893	0.00065927	8.01299E-05	0	0	0	
0.277167	0.0170077	-0.00282949	0.000665719	7.85058E-05	0	0	0	
0.277333	-0.0189652	0.00240338	0.000630811	6.22238E-05	0	0	0	
0.2775	0.0294148	-0.000736043	0.00060021	5.31642E-05	0	0	0	
0.277667	-0.0366699	-0.00231576	0.000615515	6.31573E-05	0	0	0	
0.277833	0.0288488	0.00235121	0.000670321	6.08715E-05	0	0	0	
0.278	-0.0173167	0.00118426	0.000723997	6.73813E-05	0	0	0	
0.278167	0.0124273	-0.00370628	0.000725376	5.48861E-05	0	0	0	
0.278333	-0.01098	0.0012374	0.000661784	5.89133E-05	0	0	0	
0.2785	0.0132002	0.00168224	0.000544034	5.75063E-05	0	0	0	
0.278667	-0.0256081	-0.000436865	0.000474063	4.80146E-05	0	0	0	
0.278833	0.0240941	-0.001579	0.000520414	3.59444E-05	0	0	0	
0.279	0.0332181	-0.00532713	0.000742861	4.13191E-05	0	0	0	
0.279167	0.0172196	-0.0109434	0.00148953	0.000189208	0	0	0	
0.279333	-0.022366	0.00628583	0.0020477	0.000318586	0	0	0	
0.2795	-0.00809767	-0.00162111	0.00192907	0.000340214	0	0	0	
0.279667	-0.00242367	0.00177083	0.00110235	0.00020922	0	0	0	
0.279833	0.0223603	-0.00152827	0.00041884	8.93571E-05	0	0	0	
0.28	0.0103257	-0.00119596	0.000360049	6.34346E-05	0	0	0	
0.280167	-0.00013031	0.00555209	0.000352741	6.50995E-05	0	0	0	
0.280333	-0.00469256	-0.00411275	0.000305139	7.91311E-05	0	0	0	
0.2805	0.0151815	0.00224707	0.000227513	7.60701E-05	0	0	0	
0.280667	-0.00895231	-0.00171192	0.000242662	8.17048E-05	0	0	0	
0.280833	0.00568009	-0.00282652	0.000244872	8.4932E-05	0	0	0	
0.281	-0.0134676	0.00741221	0.000218924	9.26491E-05	0	0	0	
0.281167	0.0264845	-0.00657723	0.000286893	0.000121421	0	0	0	
0.281333	-0.029001	5.98499E-05	0.000508375	0.000155711	0	0	0	
0.2815	0.0166012	0.00323479	0.000701719	0.00015356	0	0	0	
0.281667	-0.00784114	-0.000914402	0.0007561	0.000117879	0	0	0	
0.281833	-0.00100247	-3.76051E-06	0.000597827	6.57107E-05	0	0	0	
0.282	-0.00449235	0.00140205	0.000370001	5.15848E-05	0	0	0	
0.282167	0.0162572	-0.00757036	0.000221489	5.81075E-05	0	0	0	
0.282333	-0.038731	0.00531555	0.000326606	7.93764E-05	0	0	0	
0.2825	0.034013	0.00222788	0.000581057	0.000110966	0	0	0	
0.282667	-0.0182541	-0.00429374	0.000764094	9.96121E-05	0	0	0	
0.282833	0.007665	-0.00113279	0.000729761	0.000109326	0	0	0	
0.283	-0.00221714	0.00313882	0.000537313	9.91636E-05	0	0	0	
0.283167	0.0062764	-0.00158651	0.00035276	9.37876E-05	0	0	0	
0.283333	-0.0176626	0.00199594	0.000270556	6.23293E-05	0	0	0	
0.2835	0.0267524	-0.00272439	0.00035098	4.14103E-05	0	0	0	
0.283667	-0.0215722	-0.00212169	0.000450299	5.75988E-05	0	0	0	
0.283833	0.0203605	0.0038024	0.000505335	6.33663E-05	0	0	0	
0.284	-0.0086404	-0.00236176	0.000460924	8.1576E-05	0	0	0	
0.284167	0.00517073	-0.00113132	0.000381748	7.97647E-05	0	0	0	
0.284333	-0.00916596	0.0021243	0.000288653	6.99556E-05	0	0	0	
0.2845	0.0211824	-0.00216304	0.000286466	5.38099E-05	0	0	0	
0.284667	-0.0222868	-0.000473543	0.000382944	3.96048E-05	0	0	0	
0.284833	0.0182833	0.00217934	0.000493915	4.60078E-05	0	0	0	
0.285	-0.0163017	-0.00286142	0.000524811	4.58038E-05	0	0	0	
0.285167	0.00898162	0.00112786	0.000444521	4.76531E-05	0	0	0	
0.285333	-0.00731496	0.000528	0.000334398	4.19483E-05	0	0	0	
0.2855	0.01108	-0.00361064	0.00023556	4.82926E-05	0	0	0	
0.285667	-0.0239976	0.00392283	0.000252926	5.75041E-05	0	0	0	
0.285833	0.0307715	-0.00105637	0.000361842	5.74433E-05	0	0	0	
0.286	-0.0288943	-0.0012151	0.000518418	5.05166E-05	0	0	0	
0.286167	0.0155314	0.00104567	0.000596479	3.32803E-05	0	0	0	
0.286333	-0.00529091	8.05724E-05	0.000532835	3.0852E-05	0	0	0	
0.2865	0.003315	-0.000993239	0.000383567	2.71734E-05	0	0	0	
0.286667	-0.00463443	0.00230652	0.000271604	3.39968E-05	0	0	0	
0.286833	0.0086236	-0.00246504	0.000272134	3.76511E-05	0	0	0	
0.287	-0.0112175	-0.00182542	0.000309447	4.79079E-05	0	0	0	
0.287167	0.017465	0.00242862	0.000355754	4.72356E-05	0	0	0	
0.287333	-0.0121145	-0.00136924	0.00036323	4.821E-05	0	0	0	
0.2875	0.00630336	0.000179385	0.000339897	3.76401E-05	0	0	0	
0.287667	-0.00741259	0.000410422	0.000279525	3.11445E-05	0	0	0	
0.287833	0.0140406	-0.00150694	0.00026128	2.93791E-05	0	0	0	
0.288	-0.0171539	-0.0013113	0.000335136	2.9954E-05	0	0	0	
0.288167	0.0199065	0.00210439	0.000465782	4.3664E-05	0	0	0	
0.288333	-0.0174003	-0.00220584	0.000561782	4.16991E-05	0	0	0	
0.2885	0.00606054	0.000477993	0.000527221	4.41003E-05	0	0	0	
0.288667	-0.0045376	0.000128762	0.000398019	2.85123E-05	0	0	0	
0.288833	0.00284789	-0.00214805	0.000270713	3.56773E-05	0	0	0	
0.289	-0.0115864	0.00285067	0.000275919	5.10765E-05	0	0	0	
0.289167	0.0168816	-0.000708752	0.000365971	5.66109E-05	0	0	0	
0.289333	-0.0195484	-0.00265933	0.000446119	7.28589E-05	0	0	0	
0.2895	0.0164841	0.00334021	0.000463763	6.57869E-05	0	0	0	
0.289667	-0.0110289	-0.000970573	0.000391197	6.76678E-05	0	0	0	
0.289833	0.00619906	-0.000766917	0.000336242	4.65257E-05	0	0	0	
0.29	-0.006338	0.00142326	0.00032762	4.33409E-05	0	0	0	
0.290167	0.011666	-0.00116518	0.000399391	3.61326E-05	0	0	0	
0.290333	-0.0140517	-0.0021145	0.000441193	4.27989E-05	0	0	0	
0.2905	0.0153008	0.00287837	0.000454175	4.22481E-05	0	0	0	
0.290667	-0.00722152	-0.000958965	0.000430203	5.25329E-05	0	0	0	
0.290833	0.00139459	-0.000121743	0.000391571	4.05872E-05	0	0	0	
0.291	-0.0110629	0.000317361	0.00033536	3.13232E-05	0	0	0	
0.291167	0.0206023	-0.00290803	0.000404919	4.6417E-05	0	0	0	
0.291333	-0.00326899	0.00208886	0.00058674	7.09015E-05	0	0	0	
0.2915	-0.00245796	2.05895E-05	0.00073369	7.94705E-05	0	0	0	
0.291667	0.00171736	-0.00338982	0.000623978	7.11148E-05	0	0	0	
0.291833	0.010508	0.00129234	0.000397922	5.20436E-05	0	0	0	
0.292	-0.0193827	0.000929875	0.000246372	4.82434E-05	0	0	0	
0.292167	0.0277846	-0.000107272	0.000311863	2.82203E-05	0	0	0	
0.292333	-0.0355672	-0.00152809	0.00053551	2.26083E-05	0	0	0	
0.2925	0.0250033	0.00187188	0.000757563	2.3368E-05	0	0	0	
0.292667	0.00413388	-0.000136161	0.000882102	2.8725E-05	0	0	0	
0.292833	-0.0102896	-0.000699492	0.00078823	2.48476E-05	0	0	0	
0.293	0.000562309	2.61855E-05	0.000516727	1.44676E-05	0	0	0	
0.293167	0.0149747	-0.000220275	0.000270423	6.57435E-06	0	0	0	
0.293333	-0.0288285	0.00111862	0.000240326	8.17529E-06	0	0	0	
0.2935	0.0197035	-0.000263236	0.000436664	1.3069E-05	0	0	0	
0.293667	-0.00130649	-0.00126766	0.000566674	2.16869E-05	0	0	0	
0.293833	-0.000519112	-0.00142158	0.000544364	3.41308E-05	0	0	0	
0.294	-0.00636895	0.00176658	0.00039656	4.33392E-05	0	0	0	
0.294167	0.0135602	-0.00138941	0.000306218	4.23786E-05	0	0	0	
0.294333	-0.014044	0.00116824	0.000284455	3.53445E-05	0	0	0	
0.2945	0.0158701	-0.000188101	0.000370758	3.8122E-05	0	0	0	
0.294667	-0.00820166	-0.00134803	0.000473502	4.96777E-05	0	0	0	
0.294833	0.00899741	0.0008477	0.000539374	4.50732E-05	0	0	0	
0.295	-0.0141566	0.0006882	0.000547555	3.84417E-05	0	0	0	
0.295167	0.00447647	-0.000675093	0.000490741	2.35802E-05	0	0	0	
0.295333	0.00178822	-0.000887858	0.0003838	2.57192E-05	0	0	0	
0.2955	5.71979E-07	0.000790316	0.000223539	1.74416E-05	0	0	0	
0.295667	-0.0192976	0.00170153	0.000170237	3.33037E-05	0	0	0	
0.295833	0.0320609	-0.00315857	0.000277376	3.97481E-05	0	0	0	
0.296	-0.0282018	1.78945E-05	0.000505001	6.10108E-05	0	0	0	
0.296167	0.00946909	0.00313569	0.000678606	7.04389E-05	0	0	0	
0.296333	0.00433578	-0.00164249	0.000686339	7.06554E-05	0	0	0	
0.2965	-0.0083393	0.000282422	0.000513954	5.02331E-05	0	0	0	
0.296667	-0.00786904	-0.00212892	0.000301219	2.61777E-05	0	0	0	
0.296833	0.02314	0.00239815	0.000217487	2.5752E-05	0	0	0	
0.297	-0.026917	0.00138617	0.00031157	2.98886E-05	0	0	0	
0.297167	0.0188539	-1.77162E-05	0.00047562	4.20288E-05	0	0	0	
0.297333	-0.00687942	-0.00122807	0.000590498	5.02176E-05	0	0	0	
0.2975	-0.00325063	0.00071457	0.000514533	4.75758E-05	0	0	0	
0.297667	-0.00466682	-0.000176699	0.000330108	3.48851E-05	0	0	0	
0.297833	0.0197496	-9.63116E-05	0.000193704	1.42183E-05	0	0	0	
0.298	-0.024613	0.00099186	0.000288894	1.34533E-05	0	0	0	
0.298167	0.0171851	-0.00202593	0.000571545	2.20113E-05	0	0	0	
0.298333	-0.0021735	0.00231856	0.000771826	3.13532E-05	0	0	0	
0.2985	-0.00624331	-0.00103784	0.000704303	3.84411E-05	0	0	0	
0.298667	-0.00374097	0.000528285	0.00042377	2.96076E-05	0	0	0	
0.298833	0.0114994	-0.00078514	0.000184285	2.36367E-05	0	0	0	
0.299	-0.0294475	-0.000640939	0.000276275	2.58137E-05	0	0	0	
0.299167	0.0289306	0.00237961	0.000562409	2.65543E-05	0	0	0	
0.299333	-0.0138682	0.000616156	0.000757001	4.28371E-05	0	0	0	
0.2995	0.00598445	-0.00357881	0.00066703	5.28895E-05	0	0	0	
0.299667	-0.00508727	0.00219469	0.000409673	6.29067E-05	0	0	0	
0.299833	0.010443	-0.000430651	0.000225832	5.20968E-05	0	0	0	
0.3	-0.0218484	0.000367306	0.000218696	3.28702E-05	0	0	0	
0.300167	0.0248026	-0.000881905	0.000384256	2.32149E-05	0	0	0	
0.300333	-0.00934337	0.000523066	0.000531465	2.03244E-05	0	0	0	
0.3005	0.00708126	-0.000589867	0.000607998	2.17793E-05	0	0	0	
0.300667	-0.00387574	0.000259999	0.00052538	1.78395E-05	0	0	0	
0.300833	0.00670228	-0.000276612	0.000387355	1.18189E-05	0	0	0	
0.301	-0.0092298	-0.000308356	0.000254863	7.15845E-06	0	0	0	
0.301167	0.00829369	-0.000158498	0.000238411	6.27458E-06	0	0	0	
0.301333	-0.0063132	0.00167343	0.000342925	1.02218E-05	0	0	0	
0.3015	0.0123093	-0.00139902	0.000445999	1.9824E-05	0	0	0	
0.301667	-0.0194446	0.000477949	0.000500596	4.24418E-05	0	0	0	
0.301833	0.0094985	0.000459976	0.000467455	5.56907E-05	0	0	0	
0.302	-0.00336748	-0.00191056	0.000388846	5.17864E-05	0	0	0	
0.302167	0.00465496	0.00225772	0.00027814	3.96937E-05	0	0	0	
0.302333	-0.0173896	-0.000662169	0.00026208	5.31841E-05	0	0	0	
0.3025	0.0185643	-0.00210364	0.000365352	7.09808E-05	0	0	0	
0.302667	-0.00763891	0.00331293	0.000492491	8.08624E-05	0	0	0	
0.302833	0.00744322	-0.00105986	0.000503233	7.55359E-05	0	0	0	
0.303	-0.00566032	-0.000715266	0.000358716	5.98473E-05	0	0	0	
0.303167	0.00909767	0.000547667	0.000222393	4.18747E-05	0	0	0	
0.303333	-0.0128917	-0.000702511	0.000192734	1.82732E-05	0	0	0	
0.3035	0.0141292	0.00195945	0.000304292	1.72596E-05	0	0	0	
0.303667	-0.00873217	-0.00228439	0.000421496	2.88194E-05	0	0	0	
0.303833	0.0141556	0.00173904	0.000494782	3.86343E-05	0	0	0	
0.304	-0.00627844	-4.38586E-05	0.0004533	5.25497E-05	0	0	0	
0.304167	0.00465693	-0.00116647	0.000351512	4.85751E-05	0	0	0	
0.304333	-0.00903858	0.00073492	0.00024378	4.06191E-05	0	0	0	
0.3045	0.0149628	-0.00180104	0.000240287	2.69952E-05	0	0	0	
0.304667	-0.0148896	0.00232044	0.0003449	2.6877E-05	0	0	0	
0.304833	0.0162467	-0.00185283	0.000479055	4.40356E-05	0	0	0	
0.305	-0.0149185	-0.00134744	0.000540417	5.92085E-05	0	0	0	
0.305167	0.00539254	0.00179802	0.000475432	5.87235E-05	0	0	0	
0.305333	-0.00442064	-0.000364318	0.000344233	4.44349E-05	0	0	0	
0.3055	0.00962551	1.28856E-05	0.000226025	2.31977E-05	0	0	0	
0.305667	-0.0197144	-0.000265189	0.000227265	2.24581E-05	0	0	0	
0.305833	0.0242171	0.000276803	0.000342343	3.4865E-05	0	0	0	
0.306	-0.0130202	-0.00135712	0.000476583	4.79656E-05	0	0	0	
0.306167	0.00640933	0.0012474	0.000532018	4.63875E-05	0	0	0	
0.306333	-0.00377713	-0.00103279	0.00043511	3.32515E-05	0	0	0	
0.3065	0.00704952	0.00177766	0.000312167	2.37673E-05	0	0	0	
0.306667	-0.00435337	-0.000747411	0.000254371	3.92915E-05	0	0	0	
0.306833	0.0053891	-0.00304049	0.000327951	6.48577E-05	0	0	0	
0.307	-0.00303481	0.0058041	0.000424745	9.18827E-05	0	0	0	
0.307167	0.0093445	-0.000252009	0.00048755	0.000107349	0	0	0	
0.307333	-0.00443218	-0.00235025	0.000452577	0.00010005	0	0	0	
0.3075	0.00553965	0.00193317	0.000346587	7.91384E-05	0	0	0	
0.307667	-0.0136498	-0.00242542	0.000248286	5.16367E-05	0	0	0	
0.307833	0.0234184	0.00152065	0.000282811	5.09814E-05	0	0	0	
0.308	-0.0208561	-0.00103673	0.000481025	6.54087E-05	0	0	0	
0.308167	0.00843709	0.00108927	0.000689939	6.61915E-05	0	0	0	
0.308333	-0.00172298	-0.00139487	0.000736478	5.44432E-05	0	0	0	
0.3085	-0.00182332	-0.00168046	0.000571924	4.64471E-05	0	0	0	
0.308667	-0.00463791	0.00174338	0.000327943	4.22526E-05	0	0	0	
0.308833	0.010733	0.00226763	0.000172789	5.7665E-05	0	0	0	
0.309	-0.0215805	-0.00585564	0.000206735	6.9091E-05	0	0	0	
0.309167	0.0197731	0.00410442	0.000360829	8.90627E-05	0	0	0	
0.309333	-0.00947458	0.000908939	0.000506647	9.52465E-05	0	0	0	
0.3095	0.00325902	-0.00316035	0.000562113	8.81128E-05	0	0	0	
0.309667	-0.000612474	0.00214581	0.0004722	7.63937E-05	0	0	0	
0.309833	0.00690406	-0.00232626	0.00032238	5.32138E-05	0	0	0	
0.31	-0.0192145	0.00265779	0.000236809	5.93919E-05	0	0	0	
0.310167	0.0202237	0.0017777	0.000327274	8.98091E-05	0	0	0	
0.310333	-0.00984858	-0.00536145	0.000505473	0.000100464	0	0	0	
0.3105	0.00582945	0.000102526	0.000627679	0.000105595	0	0	0	
0.310667	0.000209036	0.00318903	0.000567838	9.0648E-05	0	0	0	
0.310833	0.00436739	-0.000721272	0.00038494	7.90435E-05	0	0	0	
0.311	-0.0120237	-0.00200923	0.00022276	5.73279E-05	0	0	0	
0.311167	0.0148114	-0.000868766	0.000221939	5.08586E-05	0	0	0	
0.311333	-0.012794	0.00364244	0.000372089	7.68498E-05	0	0	0	
0.3115	0.00757537	-0.00236356	0.000515477	8.14149E-05	0	0	0	
0.311667	-0.00505631	-0.00214647	0.000533573	9.2901E-05	0	0	0	
0.311833	0.00498427	0.00168194	0.000418874	6.89873E-05	0	0	0	
0.312	-0.00605622	0.000650518	0.0002873	6.1351E-05	0	0	0	
0.312167	-0.00222596	0.00128147	0.000267202	3.33853E-05	0	0	0	
0.312333	-0.0100923	-0.00369057	0.00038271	3.72524E-05	0	0	0	
0.3125	0.0160513	0.00101687	0.000513377	5.4388E-05	0	0	0	
0.312667	-0.0119872	0.0045546	0.000562352	9.18086E-05	0	0	0	
0.312833	0.00774556	-0.00528171	0.000511619	0.000107609	0	0	0	
0.313	-0.00819432	0.000116407	0.000396871	0.000105495	0	0	0	
0.313167	0.0122964	0.000949272	0.000310854	6.92989E-05	0	0	0	
0.313333	-0.0180716	0.00451016	0.000366332	5.65925E-05	0	0	0	
0.3135	0.0136205	-0.00612924	0.000554712	6.48299E-05	0	0	0	
0.313667	-0.00131472	-0.00182365	0.000659002	0.000101145	0	0	0	
0.313833	0.0127884	0.006133	0.000599561	0.00011158	0	0	0	
0.314	-0.0102455	-0.00339138	0.000431885	0.000119695	0	0	0	
0.314167	0.00750284	-0.00293204	0.000303827	0.000113407	0	0	0	
0.314333	-0.0127186	0.00374005	0.000242866	0.000100408	0	0	0	
0.3145	0.0253376	-0.00177408	0.000309714	8.42902E-05	0	0	0	
0.314667	-0.0214119	0.00293902	0.000497436	5.74277E-05	0	0	0	
0.314833	0.0125126	-0.00520602	0.00067859	6.88057E-05	0	0	0	
0.315	-0.00470891	0.00464499	0.000669852	7.25835E-05	0	0	0	
0.315167	0.00193517	-0.00061323	0.000473074	9.58162E-05	0	0	0	
0.315333	-0.00443211	-0.000181889	0.000252388	8.2229E-05	0	0	0	
0.3155	0.00265899	-0.00126229	0.000158086	5.82125E-05	0	0	0	
0.315667	-0.0178263	-0.00101296	0.000245603	5.1683E-05	0	0	0	
0.315833	0.0271101	0.00309993	0.00041351	5.82335E-05	0	0	0	
0.316	-0.0183115	0.000134211	0.000522558	8.91843E-05	0	0	0	
0.316167	0.00893229	-0.00570472	0.000525221	0.000109853	0	0	0	
0.316333	-0.0034916	0.0043456	0.000400536	0.000116131	0	0	0	
0.3165	0.00690177	0.000249618	0.000267706	0.000109138	0	0	0	
0.316667	-0.0171288	-0.0011768	0.000228418	8.19034E-05	0	0	0	
0.316833	0.0260785	0.000828793	0.000376796	5.88553E-05	0	0	0	
0.317	-0.00818162	0.000219114	0.000527537	3.82744E-05	0	0	0	
0.317167	0.00125463	-0.00156368	0.000589183	1.95086E-05	0	0	0	
0.317333	-0.00307736	0.0018197	0.00047657	3.19887E-05	0	0	0	
0.3175	0.002555	4.23332E-06	0.000331757	4.44344E-05	0	0	0	
0.317667	-0.00764581	-0.00290646	0.0002079	6.05897E-05	0	0	0	
0.317833	0.0198439	0.00428639	0.000188402	6.51113E-05	0	0	0	
0.318	-0.0223551	0.00121926	0.000305346	6.46426E-05	0	0	0	
0.318167	0.019427	-0.00362656	0.000462493	6.00403E-05	0	0	0	
0.318333	-0.0217078	0.00149284	0.000644678	6.13768E-05	0	0	0	
0.3185	0.0012455	0.000772651	0.000644994	6.23718E-05	0	0	0	
0.318667	6.09992E-05	-0.000340416	0.000496767	4.83102E-05	0	0	0	
0.318833	0.0133704	0.000986216	0.000261513	3.08077E-05	0	0	0	
0.319	-0.0281573	-0.00059159	0.000241899	2.70777E-05	0	0	0	
0.319167	0.0224063	0.000578184	0.000388267	3.24639E-05	0	0	0	
0.319333	-0.00799463	0.000288346	0.000529017	3.09084E-05	0	0	0	
0.3195	0.000304302	-0.000917625	0.000498004	1.65641E-05	0	0	0	
0.319667	-0.00140474	0.000148819	0.000355427	1.42902E-05	0	0	0	
0.319833	0.00442563	4.38143E-05	0.000218546	1.42051E-05	0	0	0	
0.32	-0.00828166	0.00134767	0.000160164	1.54818E-05	0	0	0	
0.320167	0.0140939	-0.00121373	0.000200658	2.16396E-05	0	0	0	
