0	-0.000856103	0.000311258	8.56103E-08	3.11258E-08	0	0	0	
0.000166667	-0.00105996	-0.00212456	1.03587E-05	9.27183E-06	0	0	0	
0.000333333	0.00410037	0.00535799	3.90581E-05	3.25887E-05	0	0	0	
0.0005	-0.00593982	-0.00586492	7.05622E-05	7.6391E-05	0	0	0	
0.000666667	0.00234625	0.00517863	8.96123E-05	0.000105939	0	0	0	
0.000833333	0.00194504	-0.00421575	7.70533E-05	0.000114273	0	0	0	
0.001	0.00342427	0.00421293	6.80762E-05	9.99118E-05	0	0	0	
0.00116667	-0.00713826	-0.00377474	6.70783E-05	8.66715E-05	0	0	0	
0.00133333	0.00147437	0.00659495	0.000101432	9.06908E-05	0	0	0	
0.0015	0.00989373	-0.00765504	0.000145534	0.000112695	0	0	0	
0.00166667	-0.0154021	0.00662884	0.000186038	0.0001327	0	0	0	
0.00183333	0.00339405	-0.00487303	0.000283573	0.00014114	0	0	0	
0.002	0.0350103	0.00611425	0.000458772	0.000134147	0	0	0	
0.00216667	-0.0522322	-0.00605639	0.000619751	0.000134742	0	0	0	
0.00233333	0.0486518	0.00452692	0.000952683	0.000122372	0	0	0	
0.0025	-0.00801399	-0.00460273	0.00118611	0.000112603	0	0	0	
0.00266667	-9.83174E-06	0.00636996	0.00105251	0.000100277	0	0	0	
0.00283333	-0.0295253	-0.00795964	0.000748998	0.000121429	0	0	0	
0.003	0.0351086	0.00715011	0.000480805	0.000134523	0	0	0	
0.00316667	-0.0119876	-0.0067577	0.000543778	0.000146496	0	0	0	
0.00333333	0.0436487	0.00599631	0.000565713	0.000135995	0	0	0	
0.0035	-0.0430575	-0.00514212	0.000690238	0.000130719	0	0	0	
0.00366667	0.00287277	0.00574865	0.000684728	0.000122575	0	0	0	
0.00383333	0.0125386	-0.00452201	0.000581242	0.000118376	0	0	0	
0.004	0.0273704	0.00624991	0.000681145	0.000119325	0	0	0	
0.00416667	-0.0507547	-0.00986738	0.00106579	0.000143959	0	0	0	
0.00433333	0.0492622	0.00871833	0.00122347	0.000166052	0	0	0	
0.0045	-0.0160181	-0.00340212	0.00109843	0.000159103	0	0	0	
0.00466667	-0.0106649	0.00353111	0.000780894	0.000120007	0	0	0	
0.00483333	0.00967334	-0.00364637	0.000571458	8.79562E-05	0	0	0	
0.005	0.00118484	0.00297525	0.000393726	7.79642E-05	0	0	0	
0.00516667	0.00379667	-0.00493664	0.000338237	8.2963E-05	0	0	0	
0.00533333	0.00436894	0.00469842	0.000420931	9.81387E-05	0	0	0	
0.0055	-0.00965951	-0.00501547	0.000360453	9.67444E-05	0	0	0	
0.00566667	0.00329902	0.0054084	0.000221841	0.000105829	0	0	0	
0.00583333	-0.00148647	-0.00530344	0.000121051	0.000101196	0	0	0	
0.006	0.00411083	0.00467194	8.35191E-05	0.00010613	0	0	0	
0.00616667	-0.00231346	-0.00534493	0.000102073	9.9181E-05	0	0	0	
0.00633333	0.000977705	0.00343334	0.000122335	9.60494E-05	0	0	0	
0.0065	-0.00575529	-0.00491886	0.000160952	8.8357E-05	0	0	0	
0.00666667	0.0129905	0.00541911	0.000205095	9.36674E-05	0	0	0	
0.00683333	-0.0142821	-0.00485787	0.000246732	9.13776E-05	0	0	0	
0.007	0.0102495	0.00552878	0.000244236	0.000102049	0	0	0	
0.00716667	-0.00481747	-0.00438088	0.000217318	9.54244E-05	0	0	0	
0.00733333	-0.000174442	0.00303986	0.000180934	8.69793E-05	0	0	0	
0.0075	0.000735878	-0.00358789	0.000133041	7.34128E-05	0	0	0	
0.00766667	0.00228838	0.00473503	9.03615E-05	7.56126E-05	0	0	0	
0.00783333	-0.0050444	-0.00430343	8.64639E-05	7.91962E-05	0	0	0	
0.008	0.00553057	0.00453834	0.000122272	8.71838E-05	0	0	0	
0.00816667	-0.00596359	-0.00676197	0.000141772	9.47616E-05	0	0	0	
0.00833333	0.0048833	0.00766701	0.00013377	0.000119114	0	0	0	
0.0085	-0.00430466	-0.00786169	0.000109731	0.000139901	0	0	0	
0.00866667	0.00526036	0.00637403	0.000105851	0.000152337	0	0	0	
0.00883333	-0.00733446	-0.0047483	0.000116003	0.000133945	0	0	0	
0.009	0.00775342	0.00712251	0.000144719	0.000124937	0	0	0	
0.00916667	-0.00883678	-0.00652448	0.000158672	0.000122201	0	0	0	
0.00933333	0.00580589	0.00457428	0.000163258	0.000123476	0	0	0	
0.0095	-0.00270396	-0.0073782	0.000134069	0.000120112	0	0	0	
0.00966667	0.00524694	0.00596935	0.000121113	0.000119599	0	0	0	
0.00983333	-0.00630823	-0.00560471	0.000112348	0.00011971	0	0	0	
0.01	0.00526829	0.00791305	0.000122354	0.000128647	0	0	0	
0.0101667	-0.00598283	-0.00707818	0.000130593	0.00013006	0	0	0	
0.0103333	0.00891261	0.00541155	0.000141691	0.000135174	0	0	0	
0.0105	-0.00754302	-0.00807983	0.000147659	0.000131457	0	0	0	
0.0106667	0.00595439	0.00808213	0.000147934	0.000135016	0	0	0	
0.0108333	-0.00648002	-0.00858562	0.000129871	0.000145769	0	0	0	
0.011	0.00498892	0.00728394	0.000117366	0.000159166	0	0	0	
0.0111667	-0.000477677	-0.00657111	9.06273E-05	0.000149457	0	0	0	
0.0113333	0.00335721	0.00585185	7.33999E-05	0.000142277	0	0	0	
0.0115	-0.00801894	-0.00661728	0.00010248	0.00012354	0	0	0	
0.0116667	0.0128036	0.00923221	0.000157254	0.000131407	0	0	0	
0.0118333	-0.0114958	-0.0105286	0.000204345	0.00014789	0	0	0	
0.012	0.0050777	0.00908219	0.000196265	0.00017723	0	0	0	
0.0121667	0.00091243	-0.00670138	0.000162412	0.000178444	0	0	0	
0.0123333	0.000311876	0.00589593	0.000121989	0.000164491	0	0	0	
0.0125	-0.000922516	-0.00620093	9.93735E-05	0.000137535	0	0	0	
0.0126667	0.00592498	0.00545011	0.000106114	0.000119874	0	0	0	
0.0128333	-0.00822946	-0.00522081	0.000131948	0.000112753	0	0	0	
0.013	0.00762493	0.00757918	0.000143789	0.000121034	0	0	0	
0.0131667	-0.00395313	-0.00944697	0.000136465	0.000143137	0	0	0	
0.0133333	0.00476395	0.00476824	0.000103811	0.00014988	0	0	0	
0.0135	-0.00152219	-0.00161359	0.000110278	0.00012338	0	0	0	
0.0136667	-0.000905482	0.00537165	8.52243E-05	8.81539E-05	0	0	0	
0.0138333	0.000904818	-0.00661938	7.60129E-05	8.83336E-05	0	0	0	
0.014	0.00742622	0.00603113	6.52577E-05	0.000103244	0	0	0	
0.0141667	-0.0105477	-0.00802626	0.0001413	0.000131665	0	0	0	
0.0143333	0.0215796	0.00678246	0.000219619	0.000136795	0	0	0	
0.0145	-0.0122535	-0.00652058	0.000338191	0.000140159	0	0	0	
0.0146667	-0.0570991	0.00612882	0.000584575	0.000136031	0	0	0	
0.0148333	0.102251	-0.00318987	0.00102866	0.000120927	0	0	0	
0.015	-0.0364594	0.00569579	0.00134572	0.000109565	0	0	0	
0.0151667	-0.0359452	-0.00643455	0.00157529	0.000108546	0	0	0	
0.0153333	0.0525064	0.00467707	0.00139931	0.000110182	0	0	0	
0.0155	-0.0447309	-0.00629444	0.00122484	0.000113713	0	0	0	
0.0156667	0.0189475	0.00668863	0.000876017	0.000116498	0	0	0	
0.0158333	0.010145	-0.00644977	0.000970808	0.000120893	0	0	0	
0.016	-0.0327895	0.00730168	0.00125079	0.000136551	0	0	0	
0.0161667	0.0372819	-0.0053171	0.0012891	0.000134944	0	0	0	
0.0163333	-0.00628307	0.00277282	0.00108708	0.000124159	0	0	0	
0.0165	-0.0305764	-0.00627413	0.000772234	0.000101133	0	0	0	
0.0166667	0.0231924	0.00735515	0.000666411	0.000100626	0	0	0	
0.0168333	0.000548321	-0.0060433	0.000554843	0.000109974	0	0	0	
0.017	-0.014144	0.00724809	0.000364803	0.000129095	0	0	0	
0.0171667	0.00626481	-0.00698632	0.000305807	0.000135377	0	0	0	
0.0173333	0.0129213	0.00244467	0.000327293	0.000130767	0	0	0	
0.0175	-0.0259878	-0.00218454	0.000394482	0.000113838	0	0	0	
0.0176667	0.0179939	0.00493235	0.000442815	8.96299E-05	0	0	0	
0.0178333	-0.00399101	-0.00629178	0.000365434	9.44576E-05	0	0	0	
0.018	-0.000719285	0.00855861	0.000250315	0.0001172	0	0	0	
0.0181667	-0.00524817	-0.00892562	0.000146908	0.000151761	0	0	0	
0.0183333	0.0116337	0.00771376	0.000121824	0.000165391	0	0	0	
0.0185	-0.0114348	-0.00580841	0.000163772	0.000160578	0	0	0	
0.0186667	0.00698399	0.00413339	0.000195521	0.000130427	0	0	0	
0.0188333	-0.00481972	-0.00324339	0.000179565	9.84403E-05	0	0	0	
0.019	0.00441103	0.0045157	0.000137672	8.2683E-05	0	0	0	
0.0191667	-0.00609325	-0.00540286	0.00010549	8.69019E-05	0	0	0	
0.0193333	0.00397179	0.00339965	9.18427E-05	9.53312E-05	0	0	0	
0.0195	-0.00429575	-0.00326148	9.06514E-05	9.03167E-05	0	0	0	
0.0196667	0.00538246	0.00384738	9.08622E-05	7.96914E-05	0	0	0	
0.0198333	-0.00683227	-0.00560156	0.000103592	7.68781E-05	0	0	0	
0.02	0.00834403	0.00552759	0.000116854	0.000103557	0	0	0	
0.0201667	-0.0113193	-0.00327814	0.000147747	9.79042E-05	0	0	0	
0.0203333	0.0077078	0.00420719	0.000177423	9.86371E-05	0	0	0	
0.0205	-0.00485961	-0.00377918	0.000197894	7.37646E-05	0	0	0	
0.0206667	-0.00182535	0.00551813	0.0001717	8.48935E-05	0	0	0	
0.0208333	-0.00110067	-0.00625087	0.000114193	9.75934E-05	0	0	0	
0.021	0.00685834	0.00485659	0.000102854	0.000115923	0	0	0	
0.0211667	-0.0122342	-0.0033222	0.00014732	9.77208E-05	0	0	0	
0.0213333	0.0104995	0.00759269	0.00022347	9.51707E-05	0	0	0	
0.0215	-0.0113394	-0.0064572	0.0002437	0.000102107	0	0	0	
0.0216667	0.00921871	0.00714173	0.000211337	0.000130891	0	0	0	
0.0218333	-0.00678243	-0.00678072	0.000194321	0.000140456	0	0	0	
0.022	0.00162854	0.00612356	0.000159218	0.00013508	0	0	0	
0.0221667	-0.00356157	-0.00342274	0.000136542	0.000125359	0	0	0	
0.0223333	0.00551025	0.00505097	0.000103788	0.000100574	0	0	0	
0.0225	-0.00286784	-0.00500625	9.57902E-05	9.42039E-05	0	0	0	
0.0226667	-0.00235999	0.00376638	9.71828E-05	0.000102326	0	0	0	
0.0228333	0.000347147	-0.00515541	6.16076E-05	0.000114499	0	0	0	
0.023	0.00493281	0.00756168	6.60219E-05	0.000119438	0	0	0	
0.0231667	-0.00439314	-0.00674759	6.61941E-05	0.000127802	0	0	0	
0.0233333	0.00496012	0.00696075	9.67032E-05	0.00013177	0	0	0	
0.0235	-0.00725477	-0.00788416	0.000101849	0.00013663	0	0	0	
0.0236667	0.00900945	0.00985299	0.000124023	0.00015132	0	0	0	
0.0238333	-0.00377956	-0.00660768	0.000141606	0.000168587	0	0	0	
0.024	0.00399505	0.00366527	0.000139268	0.000160973	0	0	0	
0.0241667	-0.00843324	-0.00403011	0.000136986	0.00012292	0	0	0	
0.0243333	0.00543536	0.00361956	0.000133333	9.37642E-05	0	0	0	
0.0245	0.000889287	-0.0048171	0.000123361	7.90168E-05	0	0	0	
0.0246667	0.00569272	0.00693069	0.000173526	9.15176E-05	0	0	0	
0.0248333	-0.0135191	-0.00605246	0.000256194	0.000105614	0	0	0	
0.025	0.0132529	0.00570177	0.000309027	0.000119349	0	0	0	
0.0251667	-0.00887116	-0.00678983	0.000285132	0.000117598	0	0	0	
0.0253333	0.00781084	0.00436871	0.000206959	0.000111221	0	0	0	
0.0255	-0.00572157	-0.00314382	0.000179638	9.76975E-05	0	0	0	
0.0256667	-0.00379578	0.00471959	0.000148618	9.22818E-05	0	0	0	
0.0258333	0.00789928	-0.00503658	0.000143066	9.02558E-05	0	0	0	
0.026	0.00321035	0.00379728	0.000189403	0.000104882	0	0	0	
0.0261667	-0.012027	-0.00244015	0.00022848	0.000102084	0	0	0	
0.0263333	0.011672	0.0031118	0.000261788	8.78529E-05	0	0	0	
0.0265	-0.00813558	-0.00508764	0.000231475	7.44201E-05	0	0	0	
0.0266667	0.00496491	0.00585113	0.000185815	8.79681E-05	0	0	0	
0.0268333	-0.00208943	-0.00469549	0.000135115	0.000121811	0	0	0	
0.027	0.00194452	0.00495168	8.83527E-05	0.000139867	0	0	0	
0.0271667	-0.00156177	-0.00589082	6.23545E-05	0.000141473	0	0	0	
0.0273333	0.00677747	0.00562577	6.36998E-05	0.000138456	0	0	0	
0.0275	-0.00820774	-0.00528502	0.00010092	0.000140841	0	0	0	
0.0276667	0.00813828	0.00883059	0.000136267	0.000148919	0	0	0	
0.0278333	-0.00396758	-0.0106139	0.000146765	0.000166779	0	0	0	
0.028	0.00239991	0.00737509	0.000128967	0.000178209	0	0	0	
0.0281667	-0.00117513	-0.00466865	0.000100631	0.000175784	0	0	0	
0.0283333	0.00566997	0.00618149	9.88099E-05	0.000152858	0	0	0	
0.0285	-0.00544562	-0.00703154	0.000108075	0.00014577	0	0	0	
0.0286667	0.00738912	0.00661088	0.000136183	0.000140613	0	0	0	
0.0288333	-0.0094307	-0.00579836	0.000146173	0.000137097	0	0	0	
0.029	0.0111756	0.00440221	0.000173684	0.000111593	0	0	0	
0.0291667	-0.00267058	-0.00525541	0.000189918	0.000103726	0	0	0	
0.0293333	-0.00231066	0.00553826	0.000188281	0.000102345	0	0	0	
0.0295	0.00261126	-0.00616614	0.00012774	0.000120916	0	0	0	
0.0296667	0.00349414	0.0063059	8.62029E-05	0.000124305	0	0	0	
0.0298333	-0.00169471	-0.00660321	5.01058E-05	0.000130364	0	0	0	
0.03	0.000672306	0.00554331	5.05339E-05	0.000116468	0	0	0	
0.0301667	-0.000680926	-0.0064789	4.91253E-05	0.000135409	0	0	0	
0.0303333	0.0060257	0.00196858	6.88359E-05	0.000136797	0	0	0	
0.0305	-0.00698619	-0.00324684	9.84299E-05	0.000135836	0	0	0	
0.0306667	0.00937795	0.00769083	0.000129926	0.000115718	0	0	0	
0.0308333	-0.00734398	-0.00634281	0.000150068	0.000114955	0	0	0	
0.031	0.00637006	0.00499903	0.000161545	0.000125784	0	0	0	
0.0311667	-0.00353864	-0.00736483	0.000144101	0.000139687	0	0	0	
0.0313333	0.00424195	0.00768203	0.000126108	0.000148736	0	0	0	
0.0315	-0.00630909	-0.00635822	0.000104988	0.000160611	0	0	0	
0.0316667	0.0128369	0.00461386	0.000131088	0.000148159	0	0	0	
0.0318333	-0.0107486	-0.0055962	0.000197508	0.000126201	0	0	0	
0.032	0.00142586	0.00779985	0.000256023	0.00011612	0	0	0	
0.0321667	0.000782663	-0.00705287	0.000209618	0.000123939	0	0	0	
0.0323333	0.00667565	0.00730184	0.000149678	0.000141652	0	0	0	
0.0325	-0.00793397	-0.00439588	0.000105698	0.000138947	0	0	0	
0.0326667	0.00838227	0.00279751	0.000148087	0.000123092	0	0	0	
0.0328333	-0.0136667	-0.00352832	0.000187234	0.000102747	0	0	0	
0.033	0.0148684	0.00286585	0.000229903	9.0793E-05	0	0	0	
0.0331667	-0.00836123	-0.00257309	0.000247286	8.43661E-05	0	0	0	
0.0333333	0.00101268	0.00248371	0.000218676	7.93674E-05	0	0	0	
0.0335	0.00384522	-0.00335588	0.000149349	8.25929E-05	0	0	0	
0.0336667	-0.00227394	0.00660775	0.000106875	9.83878E-05	0	0	0	
0.0338333	0.0008992	-0.00551822	7.33384E-05	0.000113509	0	0	0	
0.034	0.00498405	0.00374719	7.07168E-05	0.000113572	0	0	0	
0.0341667	-0.0109957	-0.00459164	8.99135E-05	0.0001113	0	0	0	
0.0343333	0.00392531	0.00342082	0.000152774	0.000109943	0	0	0	
0.0345	0.00999967	-0.00202757	0.00024584	0.000112898	0	0	0	
0.0346667	-0.00882937	0.00186354	0.000249904	9.84759E-05	0	0	0	
0.0348333	-0.0167392	-0.00198388	0.00034137	7.1731E-05	0	0	0	
0.035	0.0336544	0.00349442	0.000423661	5.67011E-05	0	0	0	
0.0351667	-0.0254418	-0.00514559	0.000538134	6.6169E-05	0	0	0	
0.0353333	0.00223608	0.00359421	0.000513317	8.82363E-05	0	0	0	
0.0355	0.0163168	-0.00388237	0.000423092	0.000104791	0	0	0	
0.0356667	-0.0143854	0.00661128	0.000336035	0.000120117	0	0	0	
0.0358333	0.000727796	-0.00793601	0.000299186	0.000143659	0	0	0	
0.036	0.00931105	0.00620967	0.000299533	0.000166589	0	0	0	
0.0361667	-0.013948	-0.00488221	0.000294804	0.000171146	0	0	0	
0.0363333	0.0120456	0.00272228	0.000260804	0.000155038	0	0	0	
0.0365	-0.00331697	-0.00276057	0.000263075	0.000132965	0	0	0	
0.0366667	-0.00915843	0.000744708	0.000340191	0.000101327	0	0	0	
0.0368333	0.016332	-0.00290126	0.000358671	7.55895E-05	0	0	0	
0.037	-0.00628884	0.00689098	0.000331737	6.89331E-05	0	0	0	
0.0371667	-0.00345297	-0.00948637	0.000307555	0.00010219	0	0	0	
0.0373333	0.00515304	0.00697844	0.000316036	0.000137658	0	0	0	
0.0375	-0.00731811	-0.00555352	0.000279466	0.000165273	0	0	0	
0.0376667	0.00268954	0.00340439	0.000183456	0.000159968	0	0	0	
0.0378333	-0.00507514	-0.00654262	0.000104448	0.000163039	0	0	0	
0.038	0.0134507	0.00824428	0.000113079	0.000165506	0	0	0	
0.0381667	-0.0120074	-0.00706309	0.000159351	0.000178196	0	0	0	
0.0383333	-0.0039492	0.00390018	0.000268471	0.000155203	0	0	0	
0.0385	0.00827749	-0.00404984	0.000332589	0.000129003	0	0	0	
0.0386667	-0.00314153	0.00416855	0.000271399	9.646E-05	0	0	0	
0.0388333	-0.00527054	-0.00469664	0.000198434	9.61105E-05	0	0	0	
0.039	0.00607825	0.00417768	0.000111027	9.85638E-05	0	0	0	
0.0391667	-0.00107625	-0.00342402	0.000139154	0.000104236	0	0	0	
0.0393333	-0.000788728	0.00345971	8.95345E-05	9.25197E-05	0	0	0	
0.0395	-0.00390513	-0.0049719	9.52962E-05	9.32666E-05	0	0	0	
0.0396667	0.0063677	0.00346269	8.63365E-05	9.2442E-05	0	0	0	
0.0398333	-0.00550519	-0.00149395	0.000108837	9.28882E-05	0	0	0	
0.04	0.00305301	0.00328382	0.000113223	9.10552E-05	0	0	0	
0.0401667	-0.00448953	-0.00352549	0.000116995	9.79216E-05	0	0	0	
0.0403333	0.00601447	0.00391951	0.000124899	0.000108508	0	0	0	
0.0405	-0.00653207	-0.00459727	0.000129962	0.000107108	0	0	0	
0.0406667	0.00923579	0.00432532	0.000135101	0.00010062	0	0	0	
0.0408333	-0.00863362	-0.00402697	0.000146189	0.000101874	0	0	0	
0.041	0.00377006	0.00646861	0.000162772	0.000110572	0	0	0	
0.0411667	-0.00337274	-0.00438557	0.000154848	0.000117008	0	0	0	
0.0413333	0.00718544	0.00252611	0.00014584	0.000121959	0	0	0	
0.0415	-0.0100425	-0.000630333	0.000146702	0.000113669	0	0	0	
0.0416667	0.00868616	0.00154401	0.000166722	9.34476E-05	0	0	0	
0.0418333	-0.00420968	-0.00233171	0.00016242	6.90099E-05	0	0	0	
0.042	0.00635422	0.00254653	0.000145026	4.98057E-05	0	0	0	
0.0421667	-0.00410301	-0.000450338	0.000129503	4.64207E-05	0	0	0	
0.0423333	5.96951E-05	0.0027905	0.000129671	6.00896E-05	0	0	0	
0.0425	0.000879424	-0.00506121	9.72528E-05	9.0468E-05	0	0	0	
0.0426667	0.00220287	0.00406525	6.39093E-05	0.000128097	0	0	0	
0.0428333	-0.00124893	-0.00212802	3.442E-05	0.000153006	0	0	0	
0.043	0.00750296	0.0029227	5.05847E-05	0.000150517	0	0	0	
0.0431667	-0.00959597	-0.00352882	9.12656E-05	0.000130027	0	0	0	
0.0433333	0.00542525	0.00644649	0.000137213	0.000122482	0	0	0	
0.0435	-0.00376832	-0.00654963	0.00015456	0.000136653	0	0	0	
0.0436667	0.0110853	0.00512327	0.000145597	0.000156874	0	0	0	
0.0438333	-0.0117579	-0.00239634	0.000164097	0.000151406	0	0	0	
0.044	0.00483943	0.00399041	0.000206449	0.000128933	0	0	0	
0.0441667	0.000688149	-0.00352998	0.000233915	0.000103851	0	0	0	
0.0443333	0.0016263	0.00381604	0.000173638	9.5523E-05	0	0	0	
0.0445	-0.00504173	-0.00251765	0.000107955	9.44705E-05	0	0	0	
0.0446667	0.00275373	0.00581688	6.40017E-05	0.000111632	0	0	0	
0.0448333	-0.00123607	-0.00436357	7.00409E-05	0.000130369	0	0	0	
0.045	0.00189446	0.00489784	6.59736E-05	0.000152641	0	0	0	
0.0451667	-0.0059208	-0.00179932	6.16418E-05	0.000154457	0	0	0	
0.0453333	0.00466351	0.00332081	7.62841E-05	0.000153468	0	0	0	
0.0455	-0.00405404	-0.00417871	9.73863E-05	0.000146566	0	0	0	
0.0456667	0.00562539	0.00735908	0.00011224	0.000156229	0	0	0	
0.0458333	-0.008408	-0.00358853	0.000134762	0.000156363	0	0	0	
0.046	0.0040329	0.0043143	0.000159014	0.00013938	0	0	0	
0.0461667	-0.00111911	-0.00554565	0.000176423	0.000117779	0	0	0	
0.0463333	0.0044875	0.00453082	0.000153967	0.00011089	0	0	0	
0.0465	-0.00562224	-0.00229037	0.000127851	0.000116077	0	0	0	
0.0466667	0.00105143	0.00309084	0.000117552	0.000117441	0	0	0	
0.0468333	-0.000275744	-0.000776561	0.000101991	0.000107479	0	0	0	
0.047	0.00439048	0.00196627	8.98452E-05	0.00010965	0	0	0	
0.0471667	-0.00528358	-0.00233647	7.32354E-05	0.000110078	0	0	0	
0.0473333	0.00503811	0.00284825	8.88837E-05	0.000111836	0	0	0	
0.0475	-0.00309507	-0.00277315	8.5366E-05	0.000114046	0	0	0	
0.0476667	0.00610636	0.00319734	9.35817E-05	0.000125349	0	0	0	
0.0478333	-0.00478613	-0.00375045	0.000104465	0.000135241	0	0	0	
0.048	-0.00126455	0.0042687	0.000124605	0.000132167	0	0	0	
0.0481667	0.00326465	-0.00438828	0.000105282	0.000119804	0	0	0	
0.0483333	0.00212751	0.00471647	6.87519E-05	0.000111581	0	0	0	
0.0485	-0.0046602	-0.00331942	5.09665E-05	0.000109616	0	0	0	
0.0486667	0.00767935	0.000872379	8.00238E-05	0.000115912	0	0	0	
0.0488333	-0.00400115	-0.00055825	0.000115482	0.00011557	0	0	0	
0.049	-0.00111348	0.000914298	0.000121313	9.84322E-05	0	0	0	
0.0491667	-0.00590392	-0.00235714	0.000124153	8.00182E-05	0	0	0	
0.0493333	0.017682	0.00137936	0.000166838	7.21666E-05	0	0	0	
0.0495	-0.0197348	-0.00368975	0.000253869	8.03217E-05	0	0	0	
0.0496667	0.0134992	0.00426889	0.000323901	8.99298E-05	0	0	0	
0.0498333	-0.012917	-0.00210037	0.000347229	0.000110633	0	0	0	
0.05	0.00417075	0.000364097	0.000338801	0.000131901	0	0	0	
0.0501667	0.0115314	-0.000395169	0.000386673	0.000130463	0	0	0	
0.0503333	-0.0252211	0.00176393	0.000386037	0.000112241	0	0	0	
0.0505	0.0163712	-0.00301394	0.000430196	9.64997E-05	0	0	0	
0.0506667	-9.65317E-05	0.002208	0.00046552	9.00464E-05	0	0	0	
0.0508333	-0.0169253	-0.0037005	0.000537106	9.31239E-05	0	0	0	
0.051	0.0250429	0.00398554	0.000539752	0.000102709	0	0	0	
0.0511667	-0.0264881	-0.00568253	0.000483384	0.000130534	0	0	0	
0.0513333	0.0145641	0.00436994	0.000477902	0.00015294	0	0	0	
0.0515	-0.00113117	-0.00299923	0.000499335	0.000156101	0	0	0	
0.0516667	-0.00936819	0.0028987	0.00050566	0.000149148	0	0	0	
0.0518333	0.0107809	-0.00296632	0.000438932	0.000136854	0	0	0	
0.052	-0.00588916	0.00303356	0.000312628	0.000122482	0	0	0	
0.0521667	-0.00266947	-0.00527334	0.000203571	0.000103477	0	0	0	
0.0523333	0.00625073	0.00379497	0.000121887	9.40541E-05	0	0	0	
0.0525	-0.00372718	-0.00368789	0.000102038	0.000106102	0	0	0	
0.0526667	0.00363957	0.00407684	8.27417E-05	0.000133043	0	0	0	
0.0528333	-0.00674729	-0.00333717	8.07891E-05	0.000148074	0	0	0	
0.053	0.00727091	0.00273585	9.45105E-05	0.000138958	0	0	0	
0.0531667	-0.00435423	-0.0014306	0.000120638	0.000105408	0	0	0	
0.0533333	0.00158817	0.004002	0.000131216	8.67511E-05	0	0	0	
0.0535	-0.00388805	-0.00408569	0.000111153	8.85549E-05	0	0	0	
0.0536667	0.00592443	0.00434557	0.000101714	0.000105739	0	0	0	
0.0538333	-0.00407311	-0.00433733	0.000106516	0.00012108	0	0	0	
0.054	0.0035116	0.00337213	0.000121741	0.000130638	0	0	0	
0.0541667	-0.00478612	-0.00102252	0.000115579	0.000123184	0	0	0	
0.0543333	0.00388934	0.00340051	0.000102606	0.000105212	0	0	0	
0.0545	-0.00567525	-0.00229631	9.71109E-05	9.37592E-05	0	0	0	
0.0546667	0.00819431	0.00310897	0.000114112	0.000105591	0	0	0	
0.0548333	-0.00876747	-0.00245411	0.000132632	0.00012228	0	0	0	
0.055	0.00558784	0.00286287	0.000158568	0.000119776	0	0	0	
0.0551667	-0.00359809	-0.0020296	0.000160233	0.000104953	0	0	0	
0.0553333	0.00088446	0.00296528	0.000133593	0.000103818	0	0	0	
0.0555	-0.00423357	-0.00084266	9.44809E-05	0.000115296	0	0	0	
0.0556667	0.00519306	0.00307779	7.4279E-05	0.000123878	0	0	0	
0.0558333	-0.00553469	-0.00268815	8.56256E-05	0.000115293	0	0	0	
0.056	0.0029527	0.00130711	9.99029E-05	0.000104903	0	0	0	
0.0561667	-0.00145241	-0.00242533	9.00756E-05	0.000106848	0	0	0	
0.0563333	0.00183114	0.00381159	8.00794E-05	0.00011407	0	0	0	
0.0565	-0.000224863	-0.00269785	7.75131E-05	0.000118649	0	0	0	
0.0566667	-0.000942622	0.00485547	7.98762E-05	0.000129072	0	0	0	
0.0568333	-0.00821874	-0.0021661	9.8918E-05	0.00013069	0	0	0	
0.057	0.0108593	0.00200467	0.000125641	0.000136147	0	0	0	
0.0571667	-0.00567399	-0.0040769	0.000153693	0.000139685	0	0	0	
0.0573333	0.00217286	0.00526026	0.000177654	0.000157431	0	0	0	
0.0575	0.00556634	-0.00325433	0.000168035	0.000164352	0	0	0	
0.0576667	0.00198659	0.00255526	0.000144029	0.000153527	0	0	0	
0.0578333	-0.0194257	0.000772907	0.000152692	0.000121787	0	0	0	
0.058	0.007271	0.00195556	0.000198637	0.000101222	0	0	0	
0.0581667	0.0113091	-0.00598081	0.000234901	0.000100411	0	0	0	
0.0583333	0.0183851	0.00721632	0.000303452	0.000123824	0	0	0	
0.0585	-0.0568208	-0.00188307	0.000432528	0.000128579	0	0	0	
0.0586667	0.0598114	0.00163851	0.000839698	0.000127896	0	0	0	
0.0588333	0.0175182	0.000367545	0.0014238	0.000115295	0	0	0	
0.059	-0.0708257	0.000929732	0.00165613	0.000116515	0	0	0	
0.0591667	0.0505754	-0.000926408	0.00158255	0.000109037	0	0	0	
0.0593333	0.00561492	0.000212996	0.00121988	9.56557E-05	0	0	0	
0.0595	-0.0191625	0.0014328	0.000982297	7.79355E-05	0	0	0	
0.0596667	0.0390045	0.00263815	0.000819238	7.41628E-05	0	0	0	
0.0598333	-0.0587369	-0.00171219	0.000812236	8.69311E-05	0	0	0	
0.06	0.0489485	0.000124446	0.000906481	0.000109591	0	0	0	
0.0601667	0.0216793	-2.64876E-06	0.00126529	0.000109703	0	0	0	
0.0603333	-0.0566071	0.00123335	0.00137877	9.63697E-05	0	0	0	
0.0605	0.0160675	-0.00241413	0.0012673	9.49061E-05	0	0	0	
0.0606667	0.0310362	0.00141965	0.000940689	0.000115248	0	0	0	
0.0608333	-0.0214568	0.000544201	0.000647454	0.000138887	0	0	0	
0.061	-0.0112429	0.000158786	0.000742026	0.00013486	0	0	0	
0.0611667	0.0133263	-0.00161533	0.000587932	0.00011177	0	0	0	
0.0613333	0.00541875	0.00251824	0.000457904	9.50343E-05	0	0	0	
0.0615	-0.011024	-0.00459516	0.000217117	0.000102284	0	0	0	
0.0616667	0.00221126	0.00333741	0.000171365	0.000109999	0	0	0	
0.0618333	-0.00370867	0.000105798	0.000169757	0.00012607	0	0	0	
0.062	0.00452418	-0.00370455	0.000148407	0.000139339	0	0	0	
0.0621667	-0.00320202	-0.000877794	0.000126678	0.000121227	0	0	0	
0.0623333	0.0021361	0.010938	0.000127867	0.000121062	0	0	0	
0.0625	-0.00290871	-0.0100897	0.000131598	0.000144739	0	0	0	
0.0626667	0.00345157	0.00603837	0.000127246	0.000172173	0	0	0	
0.0628333	-0.00239622	-0.00263421	0.000129259	0.000194851	0	0	0	
0.063	-2.5281E-06	6.61863E-05	0.000128124	0.000186705	0	0	0	
0.0631667	-0.000153143	0.00064736	0.000106012	0.000210886	0	0	0	
0.0633333	0.00130821	-0.00246212	7.31343E-05	0.000184248	0	0	0	
0.0635	-0.002629	0.00518081	5.73281E-05	0.000139184	0	0	0	
0.0636667	0.00328974	0.00262011	6.38714E-05	9.20349E-05	0	0	0	
0.0638333	-0.00271874	-0.00506267	8.49907E-05	7.80095E-05	0	0	0	
0.064	0.000731246	0.00362948	9.38637E-05	9.74216E-05	0	0	0	
0.0641667	-0.000797479	-0.0027781	8.06856E-05	0.000134491	0	0	0	
0.0643333	0.00173845	0.0041868	5.61364E-05	0.000151079	0	0	0	
0.0645	-0.00372246	-0.00594858	6.26698E-05	0.000142773	0	0	0	
0.0646667	0.00407992	0.00718445	9.34213E-05	0.000131745	0	0	0	
0.0648333	-0.00358446	-0.00218199	0.000120355	0.000123664	0	0	0	
0.065	0.000219007	0.00156829	0.00012634	0.000134009	0	0	0	
0.0651667	0.000949581	-0.00202633	0.000128553	0.00011755	0	0	0	
0.0653333	-0.000517052	0.00385153	0.000129099	0.00011026	0	0	0	
0.0655	0.000634071	-0.00252782	0.000135115	0.0001042	0	0	0	
0.0656667	-0.00371971	-0.000751601	0.000139768	0.000109077	0	0	0	
0.0658333	0.00156891	0.00163471	0.00012718	0.000105352	0	0	0	
0.066	0.00440374	-0.000200953	8.90413E-05	9.01906E-05	0	0	0	
0.0661667	-0.007292	0.000889514	7.6325E-05	8.70519E-05	0	0	0	
0.0663333	0.00401601	-0.000859606	0.000101681	9.75225E-05	0	0	0	
0.0665	-0.000898225	0.000632421	0.000150489	0.000103332	0	0	0	
0.0666667	0.000748202	-8.93221E-05	0.000165595	0.000103419	0	0	0	
0.0668333	-0.00208734	-0.000364607	0.000160528	0.000104461	0	0	0	
0.067	0.00202915	-0.000666966	0.000155435	0.000105049	0	0	0	
0.0671667	0.000730793	-0.00317824	0.000161468	0.000106262	0	0	0	
0.0673333	-0.000770961	0.00148649	0.000154233	0.000118927	0	0	0	
0.0675	-0.00274338	0.00271507	0.000125511	0.000153155	0	0	0	
0.0676667	0.00480762	-0.001638	9.97829E-05	0.000168688	0	0	0	
0.0678333	-0.00631896	-0.00028091	0.000106899	0.000144675	0	0	0	
0.068	0.00621706	-0.00222239	0.000119262	0.000109384	0	0	0	
0.0681667	-0.00699588	0.000952855	0.000135306	8.75342E-05	0	0	0	
0.0683333	0.00626264	0.00116715	0.000146835	7.47412E-05	0	0	0	
0.0685	-0.00315275	-0.00092025	0.000156963	7.15847E-05	0	0	0	
0.0686667	0.00206157	0.000279785	0.000139614	8.77894E-05	0	0	0	
0.0688333	-0.00370321	0.000778085	0.000105896	0.000114507	0	0	0	
0.069	0.00208635	-0.00138839	8.41225E-05	0.000123732	0	0	0	
0.0691667	-0.0028323	0.00160422	8.6157E-05	0.000117857	0	0	0	
0.0693333	0.00245764	-0.000899371	8.90051E-05	0.000119318	0	0	0	
0.0695	-0.00246706	0.00113286	8.59742E-05	0.000129998	0	0	0	
0.0696667	0.0016999	0.00144972	8.15866E-05	0.000137664	0	0	0	
0.0698333	-0.00300701	-0.00225392	9.69025E-05	0.00013116	0	0	0	
0.07	0.00347765	-0.00129957	0.000109814	0.00011473	0	0	0	
0.0701667	-0.00320043	0.000750112	9.83036E-05	0.000109728	0	0	0	
0.0703333	0.00186036	-0.000204114	6.84687E-05	0.000111758	0	0	0	
0.0705	-0.0032859	-0.000470003	4.99299E-05	0.000120229	0	0	0	
0.0706667	0.00538282	0.000730285	6.15249E-05	0.000118396	0	0	0	
0.0708333	-0.00535159	0.000895147	0.000102673	0.000100795	0	0	0	
0.071	0.0028193	-0.00245025	0.000131483	8.11799E-05	0	0	0	
0.0711667	-0.001089	1.14903E-05	0.000119187	6.87941E-05	0	0	0	
0.0713333	-0.000338177	-0.00229944	8.22333E-05	7.68119E-05	0	0	0	
0.0715	-0.00122016	0.00152156	6.3249E-05	9.18245E-05	0	0	0	
0.0716667	0.00382635	-0.00272084	6.94626E-05	9.86576E-05	0	0	0	
0.0718333	-0.00535188	0.00162405	8.21353E-05	0.000107434	0	0	0	
0.072	0.00339083	0.000800558	0.00010154	0.000112867	0	0	0	
0.0721667	-0.00150994	-0.000842558	0.000134915	0.000118551	0	0	0	
0.0723333	0.00280006	-0.000213185	0.000142913	0.000126597	0	0	0	
0.0725	-0.00421541	0.000893622	0.000124729	0.000143236	0	0	0	
0.0726667	0.00216899	-0.00341241	0.000110296	0.000162034	0	0	0	
0.0728333	0.000892881	0.00127024	0.000114646	0.000174995	0	0	0	
0.073	-0.000777444	-9.1143E-05	0.000121233	0.000161047	0	0	0	
0.0731667	-0.00228151	0.000402661	0.000104569	0.000123736	0	0	0	
0.0733333	0.000522434	0.00129756	8.7782E-05	8.45131E-05	0	0	0	
0.0735	-0.000147455	-0.000225263	9.6393E-05	8.06839E-05	0	0	0	
0.0736667	0.000151614	-0.000640439	0.000114498	0.000112395	0	0	0	
0.0738333	-0.00215155	0.00118985	0.00011787	0.000141284	0	0	0	
0.074	0.00485737	-0.00167597	0.000111802	0.000141243	0	0	0	
0.0741667	-0.00497462	0.00743871	0.000126215	0.00012156	0	0	0	
0.0743333	0.00575273	-0.00421958	0.000170631	0.000125337	0	0	0	
0.0745	-0.0115155	0.00187988	0.000211278	0.000122226	0	0	0	
0.0746667	0.00706108	-7.99973E-05	0.00021259	0.000127296	0	0	0	
0.0748333	-0.0118056	0.00039368	0.000216149	0.000118741	0	0	0	
0.075	0.0069174	0.00147656	0.00024137	0.00013507	0	0	0	
0.0751667	0.0164681	0.00370474	0.000325286	0.000157587	0	0	0	
0.0753333	-0.0148407	-0.00269888	0.00032725	0.000187312	0	0	0	
0.0755	-0.0220913	0.001124	0.000631353	0.000195027	0	0	0	
0.0756667	0.0680604	0.00304788	0.00104963	0.000178565	0	0	0	
0.0758333	-0.0764627	-0.00358664	0.00138193	0.000148259	0	0	0	
0.076	0.0302182	0.00289024	0.0013838	0.000130943	0	0	0	
0.0761667	0.013404	0.000623775	0.00124457	0.000117105	0	0	0	
0.0763333	-0.0286491	-0.00356744	0.00110002	0.000107836	0	0	0	
0.0765	0.0437333	0.00257664	0.000879754	0.000123608	0	0	0	
0.0766667	-0.0454879	-0.00239894	0.000762551	0.000150345	0	0	0	
0.0768333	0.0107534	0.00489785	0.000895522	0.000155524	0	0	0	
0.077	0.0309673	-0.00187931	0.00110567	0.000132562	0	0	0	
0.0771667	-0.0398664	0.000157814	0.00100554	9.90473E-05	0	0	0	
0.0773333	0.0127398	-0.000292006	0.000821978	8.62142E-05	0	0	0	
0.0775	0.00556628	0.00132116	0.000584649	8.61906E-05	0	0	0	
0.0776667	0.000551389	0.000284217	0.000391187	9.83622E-05	0	0	0	
0.0778333	-0.014369	0.000343354	0.000239897	0.000108415	0	0	0	
0.078	0.0114608	0.00040569	0.000153068	0.000120952	0	0	0	
0.0781667	-0.00355007	0.00232518	0.000249695	0.0001322	0	0	0	
0.0783333	-0.00607116	-0.00310897	0.00029483	0.000129242	0	0	0	
0.0785	0.0033116	0.0058339	0.000263111	0.000111802	0	0	0	
0.0786667	0.002463	-0.00296589	0.000182409	0.000107606	0	0	0	
0.0788333	-0.00525246	0.0031622	9.71972E-05	0.000106357	0	0	0	
0.079	-0.00160826	-0.00257812	0.00011135	0.000117803	0	0	0	
0.0791667	0.00191875	0.0017257	0.000126746	0.000117379	0	0	0	
0.0793333	0.000992178	-0.00137564	0.000118714	0.000124028	0	0	0	
0.0795	-0.0041481	0.00492756	8.88515E-05	0.000127664	0	0	0	
0.0796667	0.00211685	-0.0062817	8.77448E-05	0.000143944	0	0	0	
0.0798333	0.000276898	0.00508104	0.000134143	0.000156385	0	0	0	
0.08	-0.00569531	-0.00397967	0.000177511	0.000159983	0	0	0	
0.0801667	0.00402959	0.00206831	0.000177247	0.000144266	0	0	0	
0.0803333	0.00251437	-0.000738897	0.000138913	0.000117723	0	0	0	
0.0805	-0.00532904	0.00127252	9.33625E-05	9.01953E-05	0	0	0	
0.0806667	0.00328564	-0.000104901	9.35442E-05	8.91994E-05	0	0	0	
0.0808333	-0.000812358	0.000980777	0.000128488	0.00012165	0	0	0	
0.081	-0.00096112	-0.00187466	0.000156855	0.000158187	0	0	0	
0.0811667	0.00204041	0.00274073	0.000161167	0.000166178	0	0	0	
0.0813333	-0.00535653	-0.00437664	0.000132765	0.000151427	0	0	0	
0.0815	0.00284482	0.0044685	0.000103183	0.000130447	0	0	0	
0.0816667	0.00194365	-0.00088987	6.83067E-05	0.000109541	0	0	0	
0.0818333	-0.00333292	-0.000787152	5.61726E-05	9.48016E-05	0	0	0	
0.082	0.00490002	0.00110204	7.74461E-05	0.000100698	0	0	0	
0.0821667	-0.000838227	0.00238408	0.000124668	0.000116409	0	0	0	
0.0823333	-0.00609781	-0.00188586	0.000155784	0.000136336	0	0	0	
0.0825	0.000437273	0.000159395	0.000156704	0.000143296	0	0	0	
0.0826667	-0.00557481	-0.00171097	0.000118064	0.000144455	0	0	0	
0.0828333	0.000738957	0.000698944	9.49606E-05	0.000136456	0	0	0	
0.083	0.0129549	-0.00133607	8.81093E-05	0.000124631	0	0	0	
0.0831667	-0.00329806	0.00313659	0.000172409	0.00012415	0	0	0	
0.0833333	-0.0432474	0.00017192	0.000484936	0.000130903	0	0	0	
0.0835	0.0769205	-0.000942179	0.000834969	0.000130625	0	0	0	
0.0836667	-0.0315368	-0.00125797	0.0011355	0.000118766	0	0	0	
0.0838333	-0.0407808	0.00155307	0.00132313	0.000101646	0	0	0	
0.084	0.0474393	-0.000508844	0.00117769	9.83292E-05	0	0	0	
0.0841667	0.000573185	-0.00040254	0.00110447	0.000116385	0	0	0	
0.0843333	-0.0159696	-0.000339715	0.000768195	0.000137952	0	0	0	
0.0845	-0.00390219	0.00246906	0.000593007	0.000137534	0	0	0	
0.0846667	0.00136017	-0.00199263	0.000498999	0.000122749	0	0	0	
0.0848333	0.0337252	0.00434831	0.000610184	0.000125829	0	0	0	
0.085	-0.018454	-0.00481647	0.000691254	0.000153597	0	0	0	
0.0851667	-0.0215472	0.00269681	0.000714325	0.000160406	0	0	0	
0.0853333	0.0163056	0.000264835	0.000509078	0.000139866	0	0	0	
0.0855	0.0222589	0.000790524	0.000665293	0.000138832	0	0	0	
0.0856667	-0.0270045	-0.00243016	0.000570963	0.000159597	0	0	0	
0.0858333	-0.00744262	0.00269321	0.000684096	0.000167902	0	0	0	
0.086	0.0276546	-0.00247505	0.000556007	0.000150302	0	0	0	
0.0861667	-0.0134743	0.00336899	0.000520661	0.000144936	0	0	0	
0.0863333	-0.0118071	-0.00318098	0.000494437	0.00014983	0	0	0	
0.0865	0.0142024	-0.000215475	0.000400958	0.00013199	0	0	0	
0.0866667	0.00768479	0.00140993	0.000383663	9.6922E-05	0	0	0	
0.0868333	-0.0240294	0.000760336	0.000339651	8.47483E-05	0	0	0	
0.087	0.0157729	-0.00273377	0.000366014	0.000102611	0	0	0	
0.0871667	-0.00375486	0.00174084	0.000369662	0.000125048	0	0	0	
0.0873333	0.00142925	-0.00293261	0.000324936	0.000133396	0	0	0	
0.0875	-0.00360613	0.00432299	0.000287602	0.000144219	0	0	0	
0.0876667	0.00430355	-0.00398697	0.000245142	0.000159316	0	0	0	
0.0878333	-0.0130649	0.00547053	0.000219704	0.000166259	0	0	0	
0.088	0.0178597	-0.00579236	0.00026349	0.000159064	0	0	0	
0.0881667	-0.012171	0.00450213	0.00028583	0.000136787	0	0	0	
0.0883333	-0.0052223	-0.00523559	0.000448202	0.000120946	0	0	0	
0.0885	0.0181832	0.00353265	0.00047625	0.000117087	0	0	0	
0.0886667	-0.00817438	-0.000425306	0.000454571	0.000126772	0	0	0	
0.0888333	-0.00103541	0.00219147	0.000286227	0.000138804	0	0	0	
0.089	-0.00595826	-0.00638223	0.00021608	0.000136115	0	0	0	
0.0891667	-0.00899557	0.00636766	0.000265198	0.000138785	0	0	0	
0.0893333	0.0322592	-0.00560762	0.000326034	0.000139852	0	0	0	
0.0895	-0.0220431	0.00227152	0.000459249	0.000144193	0	0	0	
0.0896667	-0.00389665	-0.00123113	0.000586238	0.000135066	0	0	0	
0.0898333	0.0110328	0.0027218	0.000616806	0.000134603	0	0	0	
0.09	-0.00590817	-0.00657903	0.000471054	0.000149296	0	0	0	
0.0901667	0.00228533	0.00526318	0.000257019	0.000175565	0	0	0	
0.0903333	-0.000588557	-0.0047925	0.000134685	0.000173292	0	0	0	
0.0905	-0.00156133	0.00299211	8.77303E-05	0.000147444	0	0	0	
0.0906667	0.00063172	-0.00176847	5.98202E-05	0.000107756	0	0	0	
0.0908333	-0.00217563	0.00125973	5.05133E-05	9.45073E-05	0	0	0	
0.091	0.00346027	-0.00220592	6.65804E-05	9.94912E-05	0	0	0	
0.0911667	-0.00258101	0.00334367	0.000106637	0.000110399	0	0	0	
0.0913333	-0.00266904	-0.00687324	0.000152005	0.000112399	0	0	0	
0.0915	0.00505241	0.00729024	0.000165081	0.000124721	0	0	0	
0.0916667	-0.00256327	-0.00525432	0.000140585	0.000128351	0	0	0	
0.0918333	0.00220346	0.00321048	9.54724E-05	0.000127986	0	0	0	
0.092	-0.00669872	-0.00332237	9.49053E-05	0.000112639	0	0	0	
0.0921667	0.00748898	0.00401895	0.000118119	0.000112338	0	0	0	
0.0923333	-0.00316014	-0.00664478	0.000127883	0.000133695	0	0	0	
0.0925	0.00153924	0.00607239	0.000103585	0.000162299	0	0	0	
0.0926667	-0.00206012	-0.00428792	8.51013E-05	0.000173223	0	0	0	
0.0928333	-0.000105267	0.00190111	0.000100494	0.000160976	0	0	0	
0.093	0.00076255	-0.00336693	0.000131903	0.000132806	0	0	0	
0.0931667	0.000772617	0.00338504	0.000147942	0.000112793	0	0	0	
0.0933333	-0.00141245	-0.00296827	0.000149083	0.000104113	0	0	0	
0.0935	0.00283212	0.00160049	0.000144589	0.000106477	0	0	0	
0.0936667	2.09798E-05	-0.00470046	0.000121073	0.00010739	0	0	0	
0.0938333	-0.00193365	0.00432714	7.99983E-05	0.000111112	0	0	0	
0.094	-0.000865742	-0.00344752	4.83503E-05	0.000106547	0	0	0	
0.0941667	0.00156168	0.00465984	4.01429E-05	0.000112432	0	0	0	
0.0943333	0.00055807	-0.0046983	4.29243E-05	0.000117487	0	0	0	
0.0945	-0.00408038	0.00361376	6.08498E-05	0.000110003	0	0	0	
0.0946667	-0.00293395	-0.00429034	0.000110475	9.51371E-05	0	0	0	
0.0948333	0.00836115	0.00326733	0.000154207	8.60788E-05	0	0	0	
0.095	-0.00245345	-0.00216064	0.000153533	9.55107E-05	0	0	0	
0.0951667	-0.0033492	0.00231686	0.000104708	9.92794E-05	0	0	0	
0.0953333	0.00076793	-0.00158568	9.09466E-05	9.7549E-05	0	0	0	
0.0955	-0.000630815	0.00385362	0.000110763	0.000101566	0	0	0	
0.0956667	-0.00264132	-0.00731342	0.000143162	0.000121323	0	0	0	
0.0958333	0.00426809	0.00444067	0.000152957	0.000135159	0	0	0	
0.096	-0.0018653	-0.0028297	0.000136502	0.000126749	0	0	0	
0.0961667	-0.000915164	0.00193851	9.36681E-05	0.000102952	0	0	0	
0.0963333	0.00241058	-0.0025244	5.39971E-05	8.41191E-05	0	0	0	
0.0965	-0.000739959	0.00277297	5.27617E-05	8.23459E-05	0	0	0	
0.0966667	-0.00169934	-0.0063504	7.96462E-05	9.48462E-05	0	0	0	
0.0968333	0.00177273	0.00597289	8.16746E-05	0.000124837	0	0	0	
0.097	0.000295072	-0.00490168	6.43691E-05	0.000138285	0	0	0	
0.0971667	0.00150471	0.00597882	6.37211E-05	0.000131909	0	0	0	
0.0973333	-0.00172474	-0.00454208	7.68666E-05	0.00011062	0	0	0	
0.0975	0.000750554	0.00543933	8.91887E-05	0.000107447	0	0	0	
0.0976667	-0.00672189	-0.00480698	0.000115979	0.000129978	0	0	0	
0.0978333	0.0102812	0.00562516	0.000158752	0.000146469	0	0	0	
0.098	-0.00352563	-0.00317229	0.00016922	0.000148479	0	0	0	
0.0981667	-0.00251214	0.00273452	0.000144174	0.000127913	0	0	0	
0.0983333	0.00204864	-0.00247237	8.76442E-05	0.000119333	0	0	0	
0.0985	7.23247E-05	0.00484375	9.10212E-05	0.000122335	0	0	0	
0.0986667	-0.00295818	-0.00295473	0.000103479	0.00013496	0	0	0	
0.0988333	0.00367793	0.00456277	0.000129235	0.000130107	0	0	0	
0.099	-0.00312951	-0.00404877	0.000106832	0.000127755	0	0	0	
0.0991667	-6.94828E-05	0.00461428	7.13698E-05	0.000116449	0	0	0	
0.0993333	-0.00358779	-0.00387897	8.11921E-05	0.000109479	0	0	0	
0.0995	0.00902652	0.0058419	0.000131855	0.000103298	0	0	0	
0.0996667	-0.00912626	-0.0051395	0.000175741	0.000123934	0	0	0	
0.0998333	0.0026806	0.00501709	0.000164674	0.000137958	0	0	0	
0.1	-0.00236031	-0.00499011	0.00011317	0.000132954	0	0	0	
0.100167	0.00133113	0.00606994	8.43104E-05	0.000112514	0	0	0	
0.100333	0.00157564	-0.00336363	6.28225E-05	0.000103029	0	0	0	
0.1005	-0.000151386	0.00261728	9.38905E-05	0.000104194	0	0	0	
0.100667	-0.00653045	-0.00145339	0.000158161	0.000112397	0	0	0	
0.100833	0.00782865	0.00328485	0.000214733	0.000115514	0	0	0	
0.101	-0.000905382	-0.00551408	0.000193027	0.000119852	0	0	0	
0.101167	-0.00115819	0.00444102	0.000114377	0.000126223	0	0	0	
0.101333	0.000467962	-0.00361971	8.06444E-05	0.000131732	0	0	0	
0.1015	0.000903255	0.00449336	9.74327E-05	0.0001286	0	0	0	
0.101667	0.00145203	-0.00614916	0.00011952	0.000110911	0	0	0	
0.101833	0.00061391	0.00614406	0.000100287	0.00010679	0	0	0	
0.102	0.00136112	-0.00459258	7.09405E-05	0.00010865	0	0	0	
0.102167	-0.00184297	0.00257701	6.68551E-05	0.000110658	0	0	0	
0.102333	-0.000429466	-0.00346056	0.000103247	9.76081E-05	0	0	0	
0.1025	0.00355993	0.00416274	0.000143715	9.33811E-05	0	0	0	
0.102667	-0.00337788	-0.00586788	0.000161794	9.30004E-05	0	0	0	
0.102833	0.00715584	0.00478643	0.000194691	0.000105984	0	0	0	
0.103	-0.00996666	-0.00268042	0.000273072	0.000110901	0	0	0	
0.103167	0.0105707	0.00301612	0.00031004	0.000103848	0	0	0	
0.103333	-0.000476569	-0.00274097	0.000247182	8.95622E-05	0	0	0	
0.1035	-0.00142203	0.00134346	0.000114663	7.06327E-05	0	0	0	
0.103667	-0.0018474	-0.00305426	7.58615E-05	6.24314E-05	0	0	0	
0.103833	-0.00251005	0.00651122	9.40437E-05	6.81476E-05	0	0	0	
0.104	0.00746864	-0.00646721	0.000151227	9.55582E-05	0	0	0	
0.104167	-1.35775E-05	0.00277905	0.000174546	0.000103008	0	0	0	
0.104333	-0.00387217	-0.00304278	0.00019956	9.50997E-05	0	0	0	
0.1045	0.00728744	0.00456049	0.000196679	7.86398E-05	0	0	0	
0.104667	-0.0115923	-0.00662412	0.000178704	8.89854E-05	0	0	0	
0.104833	0.00544712	0.00617546	0.000170601	0.000104832	0	0	0	
0.105	0.00217919	-0.00762425	0.000128374	0.000122706	0	0	0	
0.105167	-0.000833999	0.00421139	0.000137957	0.000125434	0	0	0	
0.105333	-0.00825072	-0.00194376	0.000171142	0.000101602	0	0	0	
0.1055	0.00893249	0.00132832	0.000220728	7.84408E-05	0	0	0	
0.105667	-0.00595451	-0.00390113	0.000210603	7.8865E-05	0	0	0	
0.105833	0.00619617	0.00256016	0.000200207	0.000106115	0	0	0	
0.106	-0.0104125	-0.00419326	0.000230898	0.00011538	0	0	0	
0.106167	0.00739638	0.00531032	0.000232338	0.000114561	0	0	0	
0.106333	-0.00168243	-0.00484126	0.000169318	0.00010392	0	0	0	
0.1065	0.00255215	0.00418561	0.000128332	0.000100327	0	0	0	
0.106667	-0.00740134	-0.0038072	0.000164118	8.89279E-05	0	0	0	
0.106833	0.00798217	0.00326536	0.000200265	8.02932E-05	0	0	0	
0.107	-0.0040202	-0.00284477	0.000182119	6.5216E-05	0	0	0	
0.107167	0.00343236	0.00316948	0.00012323	5.87149E-05	0	0	0	
0.107333	-0.00264329	-0.00451356	9.38391E-05	6.44142E-05	0	0	0	
0.1075	2.8446E-05	0.00560018	7.74666E-05	8.87737E-05	0	0	0	
0.107667	-4.90204E-05	-0.00494759	8.5526E-05	0.000115663	0	0	0	
0.107833	0.00281148	0.00444362	0.000108717	0.000128919	0	0	0	
0.108	-0.00366566	-0.0054785	0.000127376	0.000136364	0	0	0	
0.108167	0.00423429	0.00742138	0.000123201	0.000130479	0	0	0	
0.108333	-0.00350991	-0.00729659	0.000102648	0.000144379	0	0	0	
0.1085	0.00258673	0.00484262	9.20608E-05	0.000152026	0	0	0	
0.108667	-0.00234208	-0.00473232	8.98006E-05	0.000157066	0	0	0	
0.108833	0.00488647	0.0048346	9.73416E-05	0.000137854	0	0	0	
0.109	-0.00713318	-0.00426423	0.000114271	0.000125511	0	0	0	
0.109167	0.0069677	0.00449646	0.000140696	0.000116295	0	0	0	
0.109333	-0.00644803	-0.00463442	0.000165536	0.00012275	0	0	0	
0.1095	0.00982073	0.00402542	0.000193694	0.000119234	0	0	0	
0.109667	-0.0110458	-0.00384144	0.000199795	0.00010676	0	0	0	
0.109833	0.00366307	0.00331238	0.000187645	8.6731E-05	0	0	0	
0.11	0.0031377	-0.00403651	0.000152075	7.92522E-05	0	0	0	
0.110167	-0.00520136	0.00539721	0.00011706	8.52194E-05	0	0	0	
0.110333	0.000740523	-0.00588417	0.000106795	9.8697E-05	0	0	0	
0.1105	0.0018093	0.00695676	9.795E-05	0.000112013	0	0	0	
0.110667	-0.00415797	-0.00676625	0.000116623	0.000124645	0	0	0	
0.110833	0.0108512	0.00501953	0.000170569	0.000124052	0	0	0	
0.111	-0.0190318	-0.00277519	0.000244075	0.000111376	0	0	0	
0.111167	0.0137721	0.00376887	0.000291451	9.88996E-05	0	0	0	
0.111333	-0.0098736	-0.00874571	0.000293386	0.000106486	0	0	0	
0.1115	0.00196905	0.0091773	0.000251944	0.000137509	0	0	0	
0.111667	0.00534055	-0.00647062	0.000211353	0.000163986	0	0	0	
0.111833	-0.0209033	0.00251674	0.000184045	0.000161007	0	0	0	
0.112	0.0162388	-0.00262814	0.000275639	0.000133813	0	0	0	
0.112167	0.00590729	0.00606871	0.000547489	0.000119347	0	0	0	
0.112333	-0.0267275	-0.00982567	0.000870558	0.000126225	0	0	0	
0.1125	0.0504512	0.00982654	0.000992221	0.00015417	0	0	0	
0.112667	-0.0393362	-0.00671977	0.000944701	0.000163985	0	0	0	
0.112833	-0.00517219	0.000649985	0.000950199	0.000134815	0	0	0	
0.113	0.0341743	0.000617999	0.000981236	8.61607E-05	0	0	0	
0.113167	-0.0361376	-4.55039E-05	0.000894949	5.5253E-05	0	0	0	
0.113333	0.022235	-0.002515	0.00075965	9.24665E-05	0	0	0	
0.1135	0.00903976	0.00871701	0.000640668	0.000137943	0	0	0	
0.113667	-0.0197988	-0.00933968	0.000554004	0.000185945	0	0	0	
0.113833	0.0179203	0.00775035	0.000421979	0.000179984	0	0	0	
0.114	-0.00389194	-0.00702399	0.000331055	0.000168586	0	0	0	
0.114167	-0.00674519	0.00342997	0.000288303	0.000130279	0	0	0	
0.114333	0.00481516	-0.00146952	0.000209369	9.90007E-05	0	0	0	
0.1145	0.00953352	0.00463628	0.000261421	7.12866E-05	0	0	0	
0.114667	-0.0272463	-0.00560725	0.000340206	7.54971E-05	0	0	0	
0.114833	0.0241977	0.00596759	0.000458552	9.31978E-05	0	0	0	
0.115	-0.00244844	-0.00547961	0.000459272	0.000114261	0	0	0	
0.115167	-0.0090445	0.00625921	0.000384313	0.000117461	0	0	0	
0.115333	0.000469382	-0.00576734	0.000275814	0.000120012	0	0	0	
0.1155	0.00751319	0.00743776	0.000210993	0.000115904	0	0	0	
0.115667	-0.00684029	-0.00875648	0.000192534	0.000125327	0	0	0	
0.115833	0.00402347	0.00668136	0.000164065	0.000141388	0	0	0	
0.116	-0.0014994	-0.00362359	9.58423E-05	0.000137163	0	0	0	
0.116167	0.000877604	0.00399897	8.54473E-05	0.000113601	0	0	0	
0.116333	-0.00410271	-0.00432083	8.93619E-05	8.49076E-05	0	0	0	
0.1165	0.00299391	0.00531506	9.61392E-05	8.57074E-05	0	0	0	
0.116667	0.00107208	-0.00682473	7.33612E-05	9.79393E-05	0	0	0	
0.116833	-0.00231962	0.00274104	5.62875E-05	0.000110207	0	0	0	
0.117	-0.000900576	-0.00176473	0.000111754	9.19277E-05	0	0	0	
0.117167	0.0126652	0.0047491	0.000196137	7.82302E-05	0	0	0	
0.117333	-0.0125213	-0.0101143	0.000256417	8.42573E-05	0	0	0	
0.1175	0.00925539	0.00824906	0.000248791	0.000128392	0	0	0	
0.117667	-0.00382146	-0.00676016	0.000211039	0.000151102	0	0	0	
0.117833	-0.00289357	0.00635065	0.000167411	0.000148525	0	0	0	
0.118	0.0054778	-0.00680054	0.000122631	0.000130514	0	0	0	
0.118167	0.00198978	0.00590413	0.000105753	0.000128684	0	0	0	
0.118333	-0.00541584	-0.00876473	0.000138493	0.000134231	0	0	0	
0.1185	0.00976595	0.00590847	0.000172754	0.000143999	0	0	0	
0.118667	-0.00851453	-0.00738434	0.000185999	0.000144688	0	0	0	
0.118833	0.00462257	0.00793391	0.000157056	0.000146528	0	0	0	
0.119	-0.00437315	-0.00704393	0.000132125	0.000147476	0	0	0	
0.119167	0.00492941	0.00610559	0.000108201	0.000144314	0	0	0	
0.119333	-0.00448272	-0.0054378	0.000101396	0.000130151	0	0	0	
0.1195	0.00276108	0.0047667	0.000100328	0.000119822	0	0	0	
0.119667	-0.00201534	-0.00513139	0.000116035	0.000130249	0	0	0	
0.119833	0.00821198	0.0047628	0.000145101	0.000138554	0	0	0	
0.12	-0.0103566	-0.00563842	0.000179833	0.000141204	0	0	0	
0.120167	0.00580011	0.00890521	0.000182385	0.000134688	0	0	0	
0.120333	-0.00482067	-0.00835004	0.000150249	0.000140254	0	0	0	
0.1205	0.00667364	0.0073348	0.000123743	0.000150592	0	0	0	
0.120667	-0.000686503	-0.00343211	9.82836E-05	0.000144986	0	0	0	
0.120833	-0.00294066	0.00301668	8.84948E-05	0.000105482	0	0	0	
0.121	-0.00226259	-0.00552754	6.79725E-05	9.01854E-05	0	0	0	
0.121167	0.00472272	0.00668966	8.0158E-05	8.94002E-05	0	0	0	
0.121333	-0.00248138	-0.00658498	9.8316E-05	0.000122444	0	0	0	
0.1215	0.00811873	0.00602434	0.000130275	0.00012893	0	0	0	
0.121667	-0.0110588	-0.00409267	0.000168961	0.000127466	0	0	0	
0.121833	0.00809976	0.00414986	0.000188343	0.000105734	0	0	0	
0.122	-0.00484776	-0.00779193	0.000185875	0.000100048	0	0	0	
0.122167	0.00156168	0.00936524	0.000142365	0.000114823	0	0	0	
0.122333	0.00157041	-0.00752728	9.69747E-05	0.000152134	0	0	0	
0.1225	-0.000646137	0.00403598	5.00221E-05	0.000155256	0	0	0	
0.122667	-0.0013169	-0.00635152	6.50757E-05	0.000133347	0	0	0	
0.122833	0.00977541	0.00858606	0.000137003	0.000125198	0	0	0	
0.123	-0.0144141	-0.00901021	0.000209707	0.000145332	0	0	0	
0.123167	0.0128136	0.00911928	0.000244813	0.000179615	0	0	0	
0.123333	-0.0061433	-0.00828652	0.000233802	0.000190127	0	0	0	
0.1235	0.000840823	0.00296011	0.000194997	0.000163989	0	0	0	
0.123667	-0.00197163	-0.00386472	0.000130474	0.000120582	0	0	0	
0.123833	0.00850772	0.00469993	9.74039E-05	9.26113E-05	0	0	0	
0.124	-0.00730596	-0.0049436	0.000105213	9.15634E-05	0	0	0	
0.124167	0.00129513	0.0299714	0.000124088	0.000227698	0	0	0	
0.124333	0.00536299	-0.0567662	0.000103729	0.000430058	0	0	0	
0.1245	0.0069021	-0.0428152	0.000181577	0.00115123	0	0	0	
0.124667	-0.074822	0.406092	0.000461638	0.00248505	0	0	0	
0.124833	0.130473	-0.371168	0.00100456	0.00470584	0	0	0	
0.125	-0.0676906	0.22857	0.00186899	0.00665313	0	0	0	
0.125167	0.0358183	0.0252057	0.00176455	0.00660913	0	0	0	
0.125333	-0.0151648	-0.0873953	0.0014385	0.00485453	0	0	0	
0.1255	-0.000900716	0.103714	0.000593661	0.00270121	0	0	0	
0.125667	-0.0118687	-0.0666577	0.000477556	0.00190272	0	0	0	
0.125833	-0.00915323	0.349453	0.00052656	0.00356004	0	0	0	
0.126	0.0516985	0.101929	0.000947308	0.00554507	0	0	0	
0.126167	0.00357756	-0.110005	0.00122528	0.00633619	0	0	0	
0.126333	-0.0078427	0.0539365	0.0010375	0.00440378	0	0	0	
0.1265	0.00116411	0.0204606	0.000580296	0.00235815	0	0	0	
0.126667	-0.00904453	-0.0123353	0.000362524	0.0010177	0	0	0	
0.126833	0.0226872	-0.0355368	0.000539655	0.000855743	0	0	0	
0.127	-0.0381559	0.0484945	0.000708941	0.000613591	0	0	0	
0.127167	0.0343945	-0.0137494	0.000775594	0.000790546	0	0	0	
0.127333	-0.014551	-0.0147621	0.000660202	0.000753643	0	0	0	
0.1275	0.00526157	0.00772314	0.000503819	0.000596174	0	0	0	
0.127667	0.000601147	-0.0281163	0.000352801	0.000495355	0	0	0	
0.127833	-0.0199302	0.114295	0.000263573	0.000642517	0	0	0	
0.128	-0.00644879	-0.304495	0.000493188	0.00257588	0	0	0	
0.128167	0.077776	0.073653	0.000868414	0.00361793	0	0	0	
0.128333	-0.0695362	0.0686326	0.00127193	0.00395559	0	0	0	
0.1285	0.016534	-0.0209375	0.00111538	0.00219989	0	0	0	
0.128667	0.00663202	0.014356	0.000771973	0.00106561	0	0	0	
0.128833	-0.0087115	0.00772242	0.000377121	0.000548161	0	0	0	
0.129	-0.000775808	-0.167135	0.000381107	0.00122074	0	0	0	
0.129167	0.0371855	-0.085731	0.000676074	0.00268929	0	0	0	
0.129333	-0.0620054	0.134402	0.000980586	0.00333822	0	0	0	
0.1295	-0.00481016	-0.00181694	0.00113507	0.00293403	0	0	0	
0.129667	-0.0133832	0.0102756	0.000794634	0.00152941	0	0	0	
0.129833	0.00352551	0.00744459	0.000555061	0.000794401	0	0	0	
0.13	0.0183237	-0.0319186	0.000376756	0.000421072	0	0	0	
0.130167	-0.0177761	0.0377687	0.000465981	0.000504825	0	0	0	
0.130333	-0.0451843	-0.0147664	0.00099619	0.000558813	0	0	0	
0.1305	0.065016	0.00244645	0.00170322	0.000455165	0	0	0	
0.130667	-0.0960202	-0.000359084	0.00203983	0.000252939	0	0	0	
0.130833	0.0231011	0.00607657	0.00184065	0.000116196	0	0	0	
0.131	0.0307474	-0.00775442	0.00144213	0.000100932	0	0	0	
0.131167	-0.0507189	0.000761496	0.00120145	0.000124337	0	0	0	
0.131333	0.0636642	-0.000569055	0.00103884	0.000134247	0	0	0	
0.1315	-0.125921	0.0106686	0.00119539	0.000113578	0	0	0	
0.131667	0.0290701	-0.00865778	0.00140277	0.000123992	0	0	0	
0.131833	0.0113556	0.00602422	0.00153563	0.000131763	0	0	0	
0.132	-0.0333767	-0.0037467	0.00106369	0.000167674	0	0	0	
0.132167	0.00356469	0.00259277	0.000795011	0.000148625	0	0	0	
0.132333	0.0141828	-0.00328613	0.000470602	0.000139975	0	0	0	
0.1325	0.000813789	0.00398622	0.000419611	0.000102277	0	0	0	
0.132667	-0.0186093	-0.00869109	0.000384032	0.000105609	0	0	0	
0.132833	0.0178069	0.00876265	0.000373068	0.000122677	0	0	0	
0.133	-0.00119317	-0.00801087	0.000455049	0.000151519	0	0	0	
0.133167	-0.00985231	0.00869046	0.000423357	0.00016394	0	0	0	
0.133333	0.000964793	-0.00786594	0.000357005	0.000166947	0	0	0	
0.1335	0.0129298	0.0059251	0.000257943	0.000159598	0	0	0	
0.133667	-0.015583	-0.00373343	0.000224232	0.000137373	0	0	0	
0.133833	0.00459309	0.00194228	0.00026743	9.96323E-05	0	0	0	
0.134	0.00417543	-0.00478801	0.000231844	7.51636E-05	0	0	0	
0.134167	0.00290588	0.00661141	0.000178156	7.81647E-05	0	0	0	
0.134333	-0.0113053	-0.00688135	0.000158142	0.000101449	0	0	0	
0.1345	0.00758738	0.00599423	0.000150962	0.000136901	0	0	0	
0.134667	0.000249241	-0.00287764	0.000178973	0.000140089	0	0	0	
0.134833	-0.00181272	0.00252271	0.000131147	0.000133648	0	0	0	
0.135	-0.0030674	-0.00455846	9.91059E-05	0.000108322	0	0	0	
0.135167	0.00411948	0.00618893	6.70967E-05	9.88818E-05	0	0	0	
0.135333	-0.00293488	-0.00846567	7.09513E-05	0.000115685	0	0	0	
0.1355	0.00137829	0.0101442	6.44391E-05	0.00016229	0	0	0	
0.135667	-0.00444967	-0.00773411	6.47201E-05	0.000201493	0	0	0	
0.135833	0.00449818	0.00649067	6.5952E-05	0.000212423	0	0	0	
0.136	-0.00685473	-0.00631151	9.29803E-05	0.000184504	0	0	0	
0.136167	0.0104497	0.00718453	0.000136774	0.000161294	0	0	0	
0.136333	-0.0135716	-0.0083557	0.000185845	0.000153791	0	0	0	
0.1365	0.0101428	0.0100337	0.000218908	0.000169841	0	0	0	
0.136667	-0.00446021	-0.0103677	0.000221489	0.00018714	0	0	0	
0.136833	0.000410148	0.00938285	0.000201763	0.000194912	0	0	0	
0.137	9.97043E-05	-0.0067162	0.000153888	0.00018544	0	0	0	
0.137167	-7.10985E-05	0.00630976	8.7753E-05	0.000165336	0	0	0	
0.137333	-0.00266833	-0.00629803	5.49758E-05	0.00014408	0	0	0	
0.1375	0.00512158	0.00767802	6.43854E-05	0.000139035	0	0	0	
0.137667	-0.004838	-0.00605854	8.62393E-05	0.000147497	0	0	0	
0.137833	0.0049307	0.0036889	9.18925E-05	0.000155243	0	0	0	
0.138	-0.00752574	-0.00358135	0.00010324	0.000135292	0	0	0	
0.138167	0.00833242	0.00646667	0.000127469	0.000113386	0	0	0	
0.138333	-0.00799657	-0.00641516	0.000150941	0.000103547	0	0	0	
0.1385	0.00655755	0.00700697	0.000140755	0.000116479	0	0	0	
0.138667	-0.00560821	-0.00677847	0.000129951	0.000135962	0	0	0	
0.138833	0.0040517	0.0074475	0.000116445	0.000138902	0	0	0	
0.139	-0.00565255	-0.00689821	0.000111987	0.000142801	0	0	0	
0.139167	0.00626575	0.00405624	0.000110186	0.000131445	0	0	0	
0.139333	-0.00409041	-0.00349178	0.000110747	0.000115872	0	0	0	
0.1395	0.0034021	0.00470764	0.00010411	0.000100422	0	0	0	
0.139667	-0.00617832	-0.00283021	0.00010051	8.41898E-05	0	0	0	
0.139833	0.00514034	0.00230169	0.000103982	7.63618E-05	0	0	0	
0.14	-0.00127726	-0.00319278	0.000104226	7.13769E-05	0	0	0	
0.140167	0.00273647	0.00302242	8.94186E-05	7.24877E-05	0	0	0	
0.140333	-0.00652102	-0.00278528	9.68358E-05	6.89711E-05	0	0	0	
0.1405	0.0057704	0.00362898	0.000107848	7.07679E-05	0	0	0	
0.140667	-0.00422329	-0.00186018	0.000116215	7.34332E-05	0	0	0	
0.140833	0.00357144	0.00335126	0.000102217	8.78144E-05	0	0	0	
0.141	-0.00191443	-0.00565695	9.72292E-05	9.22908E-05	0	0	0	
0.141167	0.00176005	0.00581045	9.19264E-05	0.00011069	0	0	0	
0.141333	-0.00554551	-0.00309963	8.78625E-05	0.000118732	0	0	0	
0.1415	0.00463216	0.00549877	8.11906E-05	0.00012148	0	0	0	
0.141667	-0.00433221	-0.00796479	9.39249E-05	0.00011854	0	0	0	
0.141833	0.00671633	0.00734272	0.000103203	0.00014707	0	0	0	
0.142	-0.00913899	-0.00518844	0.000127845	0.000161672	0	0	0	
0.142167	0.00871412	0.00764777	0.000163101	0.000169507	0	0	0	
0.142333	-0.00799413	-0.00656136	0.00018715	0.000149343	0	0	0	
0.1425	0.00534046	0.00683703	0.000185555	0.000148188	0	0	0	
0.142667	-0.00434613	-0.00658689	0.000156219	0.000139262	0	0	0	
0.142833	0.000903911	0.00719535	0.000106629	0.000144491	0	0	0	
0.143	-0.00144783	-0.0054577	7.58428E-05	0.000138177	0	0	0	
0.143167	0.00685489	0.00757099	6.3608E-05	0.000152484	0	0	0	
0.143333	-0.00781337	-0.00475119	9.27956E-05	0.000139832	0	0	0	
0.1435	0.00502981	0.00612749	0.000121238	0.000140532	0	0	0	
0.143667	-0.000690217	-0.00427922	0.000114882	0.000119078	0	0	0	
0.143833	8.55404E-05	0.00496124	7.53206E-05	0.000112782	0	0	0	
0.144	-0.002538	-0.00624023	4.2913E-05	0.000107201	0	0	0	
0.144167	0.00717673	0.00759248	5.53459E-05	0.000123265	0	0	0	
0.144333	-0.0107755	-0.00537376	0.000120405	0.000127419	0	0	0	
0.1445	0.0103829	0.0065061	0.000162497	0.000136775	0	0	0	
0.144667	-0.00598929	-0.00434074	0.000180138	0.000123189	0	0	0	
0.144833	0.00280424	0.00527562	0.000200984	0.000138738	0	0	0	
0.145	0.0114987	-0.00218379	0.000252647	0.000147307	0	0	0	
0.145167	-0.0116235	0.00219373	0.0002779	0.000152859	0	0	0	
0.145333	0.00141162	-0.00219057	0.000314639	0.000120937	0	0	0	
0.1455	0.0132366	0.00551591	0.000359841	9.65172E-05	0	0	0	
0.145667	-0.0128081	-0.00569557	0.000400018	8.2689E-05	0	0	0	
0.145833	0.0129554	0.00658745	0.000375552	0.000109163	0	0	0	
0.146	-0.0218555	-0.00506684	0.000344001	0.000121024	0	0	0	
0.146167	0.0225016	0.00522186	0.000352966	0.000129149	0	0	0	
0.146333	-0.000598404	-0.00449052	0.000369887	0.000119573	0	0	0	
0.1465	-0.0108601	0.00407621	0.000350646	0.000118421	0	0	0	
0.146667	0.0114899	-0.00391541	0.000280016	0.000121523	0	0	0	
0.146833	-0.00386907	0.00323736	0.000238578	0.000122972	0	0	0	
0.147	0.00131548	-0.0043438	0.00016899	0.000123116	0	0	0	
0.147167	-0.00281355	0.00416777	0.000148587	0.000130996	0	0	0	
0.147333	-0.00335642	-0.00600682	0.000132235	0.000145195	0	0	0	
0.1475	0.010108	0.00527001	0.000144423	0.0001485	0	0	0	
0.147667	-0.00805552	-0.00562882	0.000167649	0.000136842	0	0	0	
0.147833	0.00517404	0.00488197	0.000154393	0.000127303	0	0	0	
0.148	-0.00433142	-0.0061499	0.000142359	0.00013012	0	0	0	
0.148167	0.00673863	0.00511944	0.0001189	0.000135687	0	0	0	
0.148333	-0.0108878	-0.00485295	0.000127918	0.000123614	0	0	0	
0.1485	0.0112322	0.00506568	0.000157667	0.000108368	0	0	0	
0.148667	-0.0073844	-0.00708252	0.000181564	0.000104703	0	0	0	
0.148833	0.00361363	0.00628986	0.000163116	0.00012388	0	0	0	
0.149	-0.00260238	-0.00509177	0.000125128	0.000136314	0	0	0	
0.149167	0.00320238	0.00438721	8.58552E-05	0.000141561	0	0	0	
0.149333	-0.00431119	-0.00205657	7.35281E-05	0.000132827	0	0	0	
0.1495	0.00305587	0.00169554	7.03137E-05	0.000125411	0	0	0	
0.149667	-0.00374863	0.000333302	7.26909E-05	0.000102584	0	0	0	
0.149833	0.0037488	-0.000103444	6.73764E-05	6.77579E-05	0	0	0	
0.15	-0.00504146	-0.000919858	7.50993E-05	3.58851E-05	0	0	0	
0.150167	0.0031884	0.00454935	8.08825E-05	4.23686E-05	0	0	0	
0.150333	-0.0026493	-0.0042783	8.54082E-05	7.8049E-05	0	0	0	
0.1505	0.00297539	0.0045383	7.8562E-05	0.000119278	0	0	0	
0.150667	-0.00403509	-0.00245141	7.81717E-05	0.000140756	0	0	0	
0.150833	0.00327158	0.00310128	7.56711E-05	0.000156729	0	0	0	
0.151	-0.00363387	-0.00144139	7.90701E-05	0.000156192	0	0	0	
0.151167	0.00281165	0.00257064	9.18849E-05	0.000144321	0	0	0	
0.151333	-0.00327184	-0.00414825	0.000106119	0.000125521	0	0	0	
0.1515	0.00408113	0.00562949	0.00010702	0.000120138	0	0	0	
0.151667	-0.00577643	-0.0059711	9.61279E-05	0.000126618	0	0	0	
0.151833	0.00180129	0.00503754	0.000107703	0.00013404	0	0	0	
0.152	0.000492209	-0.00279107	0.000123026	0.000137423	0	0	0	
0.152167	0.00436037	0.00365671	0.000124726	0.00013611	0	0	0	
0.152333	-0.00464151	-0.00352887	0.00011529	0.000121614	0	0	0	
0.1525	0.000658735	0.0046407	9.24239E-05	0.000107438	0	0	0	
0.152667	-0.00397658	-0.00525786	6.98117E-05	0.000101883	0	0	0	
0.152833	0.00770522	0.00490344	6.41689E-05	0.000103185	0	0	0	
0.153	-0.00765652	-0.00471667	9.57287E-05	0.000116088	0	0	0	
0.153167	0.00680616	0.00521676	0.000142965	0.000123683	0	0	0	
0.153333	-0.00595459	-0.00186737	0.0001635	0.000130098	0	0	0	
0.1535	0.00430426	0.000289054	0.000149543	0.000132564	0	0	0	
0.153667	-0.00361297	-0.00122996	0.000121136	0.00011481	0	0	0	
0.153833	0.00397262	0.00539439	0.000108699	0.000102597	0	0	0	
0.154	-0.000730461	-0.0058863	0.000128705	0.000104293	0	0	0	
0.154167	-0.003558	0.00398716	0.000152191	0.000125163	0	0	0	
0.154333	-0.000655954	-0.00299574	0.000123377	0.00014332	0	0	0	
0.1545	0.00786557	0.00455548	9.39174E-05	0.000147662	0	0	0	
0.154667	-0.00608609	-0.00422787	8.36494E-05	0.000155695	0	0	0	
0.154833	0.0040929	0.00315701	0.000126131	0.000156058	0	0	0	
0.155	-0.00512488	-0.00353672	0.000132395	0.000139971	0	0	0	
0.155167	0.00626342	0.00461429	0.000138847	0.000124491	0	0	0	
0.155333	0.000218989	-0.00565449	0.000150219	0.00013519	0	0	0	
0.1555	-0.0024967	0.00736922	0.000171191	0.000157719	0	0	0	
0.155667	-0.00258266	-0.0080907	0.000139011	0.000173272	0	0	0	
0.155833	0.00989583	0.00657393	0.000116095	0.000167275	0	0	0	
0.156	-0.00550238	-0.00629687	0.000111088	0.000172922	0	0	0	
0.156167	-0.00127727	0.00501587	0.000172444	0.000172361	0	0	0	
0.156333	-0.00101374	-0.00498639	0.000167884	0.000172727	0	0	0	
0.1565	0.00880255	0.0029773	0.000155751	0.000149643	0	0	0	
0.156667	-0.00599341	-0.000782773	0.000133209	0.000121899	0	0	0	
0.156833	-0.00158214	0.0013868	0.000152009	9.28356E-05	0	0	0	
0.157	0.00318797	-0.00295497	0.00014212	7.72203E-05	0	0	0	
0.157167	0.00410808	0.00318475	0.000110631	7.68602E-05	0	0	0	
0.157333	-0.00649648	-0.00492923	8.96355E-05	0.000101406	0	0	0	
0.1575	0.00556346	0.00346085	9.7919E-05	0.000127412	0	0	0	
0.157667	-0.00414501	-0.00348764	0.000111036	0.000149231	0	0	0	
0.157833	0.00463743	0.00452597	0.000133681	0.000146508	0	0	0	
0.158	0.00119792	-0.00975995	0.000165328	0.000144497	0	0	0	
0.158167	-0.00145438	0.017129	0.000170418	0.000189643	0	0	0	
0.158333	-0.00348355	0.0229793	0.000131259	0.000448514	0	0	0	
0.1585	0.0141615	-0.104358	0.000118834	0.000806787	0	0	0	
0.158667	-0.0111985	0.00137522	0.00018025	0.00171799	0	0	0	
0.158833	-0.0470761	0.521468	0.000504569	0.00476172	0	0	0	
0.159	-0.0414375	-0.606418	0.0011558	0.00822915	0	0	0	
0.159167	-0.00525429	0.330565	0.00142513	0.0100871	0	0	0	
0.159333	0.00747587	-0.0181933	0.0011404	0.00836724	0	0	0	
0.1595	0.00587151	-0.0825424	0.00047735	0.0053562	0	0	0	
0.159667	-0.0143407	0.000849754	0.000152977	0.00285062	0	0	0	
0.159833	-0.0152223	0.104163	0.000236707	0.00162354	0	0	0	
0.16	0.0172433	-0.0937095	0.000309355	0.00151937	0	0	0	
0.160167	-0.0106181	-0.0189991	0.000371449	0.00218397	0	0	0	
0.160333	-2.62051E-05	0.0715731	0.000258968	0.00237526	0	0	0	
0.1605	0.00319776	-0.0305755	0.000161005	0.0019185	0	0	0	
0.160667	-0.00233778	-0.0188787	6.92669E-05	0.00120266	0	0	0	
0.160833	0.00199991	0.0167273	5.95844E-05	0.000699071	0	0	0	
0.161	-0.00498754	0.00829351	5.95003E-05	0.000670863	0	0	0	
0.161167	0.00537334	-0.0314876	7.44372E-05	0.000595783	0	0	0	
0.161333	-0.00709082	0.0150729	9.5052E-05	0.000641068	0	0	0	
0.1615	0.00426421	0.00974324	0.000104915	0.000579294	0	0	0	
0.161667	-0.00263302	-0.013171	9.71726E-05	0.000434052	0	0	0	
0.161833	0.00341145	0.00246355	7.35522E-05	0.000360398	0	0	0	
0.162	-0.00425832	0.0067028	6.74259E-05	0.000193219	0	0	0	
0.162167	0.002075	-0.00845223	8.02002E-05	0.000156474	0	0	0	
0.162333	0.00371109	-0.0081727	0.000134301	0.000154671	0	0	0	
0.1625	-0.00958419	0.0130474	0.000167404	0.000167994	0	0	0	
0.162667	0.00447118	-0.00437474	0.000169337	0.000204643	0	0	0	
0.162833	0.000650006	-0.000832938	0.000118415	0.000198656	0	0	0	
0.163	-6.90073E-05	-0.00633267	6.93853E-05	0.00015849	0	0	0	
0.163167	-0.000115066	0.0145974	5.3521E-05	0.000137359	0	0	0	
0.163333	-0.00598637	-0.0137062	7.41498E-05	0.000164867	0	0	0	
0.1635	0.00688492	0.00428108	0.000125446	0.000239564	0	0	0	
0.163667	-0.00427742	0.0033094	0.0001651	0.00026152	0	0	0	
0.163833	0.0015409	-0.00220283	0.000161293	0.000217759	0	0	0	
0.164	-0.00365243	-0.0015365	0.000124664	0.000131446	0	0	0	
0.164167	0.00630504	0.00459092	9.35987E-05	6.59539E-05	0	0	0	
0.164333	-0.00517905	-0.00390051	0.000107226	7.61282E-05	0	0	0	
0.1645	0.0016343	-0.00064596	0.000126563	0.000121011	0	0	0	
0.164667	0.00147582	0.000937419	0.000137188	0.000135956	0	0	0	
0.164833	-0.00173722	-0.000581167	0.000121987	9.67918E-05	0	0	0	
0.165	-0.0031421	-0.000731321	9.28356E-05	4.86144E-05	0	0	0	
0.165167	-0.000208188	-0.000677901	8.3155E-05	1.53489E-05	0	0	0	
0.165333	0.0360907	-0.00105545	0.000209623	2.88532E-05	0	0	0	
0.1655	-0.0391456	0.00353874	0.000442674	5.93264E-05	0	0	0	
0.165667	-0.0112658	-0.00488077	0.00142096	9.22829E-05	0	0	0	
0.165833	0.066803	0.00277243	0.0025293	9.96674E-05	0	0	0	
0.166	-0.0545339	-0.00115787	0.00280414	8.8113E-05	0	0	0	
0.166167	-0.00440378	-3.9191E-05	0.00202061	7.76188E-05	0	0	0	
0.166333	0.00386502	-0.0015595	0.000811187	6.81148E-05	0	0	0	
0.1665	-0.000172808	0.00327154	0.000324732	6.39783E-05	0	0	0	
0.166667	0.0934714	-0.00201183	0.000409798	7.34332E-05	0	0	0	
0.166833	-0.166374	5.20175E-05	0.00123693	9.86472E-05	0	0	0	
0.167	0.0903562	0.00011827	0.00211571	0.000105593	0	0	0	
0.167167	-0.000292115	0.00132047	0.0023606	7.75689E-05	0	0	0	
0.167333	0.00447502	-0.00314224	0.00159411	4.8237E-05	0	0	0	
0.1675	-0.0321567	0.00520159	0.000836596	4.95685E-05	0	0	0	
0.167667	0.00929363	-0.00559442	0.000474063	0.000110058	0	0	0	
0.167833	0.0197934	0.00574809	0.00062885	0.000187468	0	0	0	
0.168	-0.0199735	-0.00167165	0.00057865	0.000227102	0	0	0	
0.168167	2.84766E-05	-0.000286472	0.000546621	0.000189968	0	0	0	
0.168333	0.02141	9.64182E-05	0.000432861	0.000112408	0	0	0	
0.1685	-0.015795	0.000948652	0.000489625	7.29604E-05	0	0	0	
0.168667	-0.00250289	-0.0029906	0.000364069	9.42714E-05	0	0	0	
0.168833	0.0081254	0.000949624	0.000240475	0.000132609	0	0	0	
0.169	-0.00496194	-0.00101268	0.000135776	0.000139193	0	0	0	
0.169167	-0.00491201	0.000540878	0.000128491	0.000100248	0	0	0	
0.169333	0.00355874	-0.000666311	0.000111086	5.88269E-05	0	0	0	
0.1695	-0.00150684	-0.000203259	8.36027E-05	3.67864E-05	0	0	0	
0.169667	-0.00303329	0.000330444	8.08534E-05	3.86102E-05	0	0	0	
0.169833	0.00509442	0.00157548	9.53708E-05	5.84207E-05	0	0	0	
0.17	-0.0064191	-0.000467763	0.000106138	9.37681E-05	0	0	0	
0.170167	0.00366172	-0.00206414	0.000117458	0.000121716	0	0	0	
0.170333	-0.000343884	0.00247763	9.85196E-05	0.000115159	0	0	0	
0.1705	-0.000116163	-0.00116602	6.30641E-05	8.32232E-05	0	0	0	
0.170667	-0.00148373	0.000104952	4.17093E-05	6.37131E-05	0	0	0	
0.170833	0.00637436	0.0016992	5.69141E-05	7.33921E-05	0	0	0	
0.171	-0.00641454	-0.00188176	9.65735E-05	9.14472E-05	0	0	0	
0.171167	-0.00204747	-0.000171847	0.00012419	0.000107344	0	0	0	
0.171333	0.00208189	-0.000447773	0.000115461	0.000115457	0	0	0	
0.1715	0.00138069	0.000625176	8.52879E-05	0.000109471	0	0	0	
0.171667	-1.83137E-05	-0.000914473	7.80595E-05	8.995E-05	0	0	0	
0.171833	-0.00124581	0.00166516	0.000102173	7.28473E-05	0	0	0	
0.172	0.000719591	-0.00180082	9.30685E-05	9.33809E-05	0	0	0	
0.172167	0.00511041	-0.00074333	9.40313E-05	0.000155975	0	0	0	
0.172333	-0.0122665	0.00481784	9.88605E-05	0.00022169	0	0	0	
0.1725	0.00575628	-0.00476945	0.000165107	0.00021894	0	0	0	
0.172667	-0.00250253	-0.000570658	0.000171561	0.000146918	0	0	0	
0.172833	0.0033379	0.00456761	0.000150357	7.07384E-05	0	0	0	
0.173	-0.000164082	-0.00241075	8.51241E-05	7.9325E-05	0	0	0	
0.173167	0.00182426	-0.00236595	5.16281E-05	0.000134304	0	0	0	
0.173333	-0.00423263	0.000161395	4.01491E-05	0.000170908	0	0	0	
0.1735	-0.000750181	0.000101068	5.39322E-05	0.000145516	0	0	0	
0.173667	-0.00109236	0.00111597	5.11735E-05	9.81686E-05	0	0	0	
0.173833	0.00424144	-0.000780262	5.18368E-05	5.55561E-05	0	0	0	
0.174	-0.00267537	-0.00141832	5.17733E-05	3.46055E-05	0	0	0	
0.174167	-0.000108753	0.00396393	9.71534E-05	3.74861E-05	0	0	0	
0.174333	0.000123595	-0.000791349	0.000115808	6.92123E-05	0	0	0	
0.1745	-0.00120198	-0.00288378	0.000108374	0.000107742	0	0	0	
0.174667	0.000377468	0.00149732	7.6751E-05	0.000113292	0	0	0	
0.174833	-0.00226327	0.000204915	6.52347E-05	8.17396E-05	0	0	0	
0.175	0.000729107	0.000669796	5.89108E-05	5.73858E-05	0	0	0	
0.175167	0.00323073	-0.00279206	4.99821E-05	7.77685E-05	0	0	0	
0.175333	-0.00439119	0.00683862	4.73984E-05	0.000132124	0	0	0	
0.1755	0.000909477	-0.00171377	8.76159E-05	0.000170228	0	0	0	
0.175667	-0.000454276	0.000583708	0.000131263	0.000147804	0	0	0	
0.175833	-0.00135645	-0.000633317	0.000144586	0.000100561	0	0	0	
0.176	9.20172E-05	0.00184111	0.000105329	5.8391E-05	0	0	0	
0.176167	0.0050715	-0.000926208	5.8816E-05	5.58532E-05	0	0	0	
0.176333	-0.00671716	-0.00201675	5.61297E-05	5.88185E-05	0	0	0	
0.1765	0.00354844	0.00051663	0.000100728	5.25239E-05	0	0	0	
0.176667	-0.00141098	-0.00100836	0.000137137	3.89359E-05	0	0	0	
0.176833	-0.000274577	0.0013996	0.000118583	2.89206E-05	0	0	0	
0.177	-0.00100429	-0.00033302	7.75172E-05	3.78192E-05	0	0	0	
0.177167	0.000203919	-0.00391282	3.20997E-05	7.15814E-05	0	0	0	
0.177333	0.000406808	0.00549785	3.17233E-05	0.00011174	0	0	0	
0.1775	0.00415245	-0.00691264	6.16252E-05	0.000141615	0	0	0	
0.177667	-0.00767411	0.000727101	9.36333E-05	0.000152477	0	0	0	
0.177833	0.00583652	-0.000365742	0.000118456	0.000145273	0	0	0	
0.178	-0.00216674	0.000743792	0.00011743	0.000116942	0	0	0	
0.178167	-0.00313878	-0.000294018	0.000133378	8.06755E-05	0	0	0	
0.178333	0.00676007	0.00183872	0.00015028	7.30451E-05	0	0	0	
0.1785	-0.00619571	0.00133469	0.000163654	9.12105E-05	0	0	0	
0.178667	0.00123461	-0.00187126	0.000149199	9.58724E-05	0	0	0	
0.178833	0.00627663	0.00170387	0.000123467	7.67355E-05	0	0	0	
0.179	-0.00267293	5.49066E-05	0.000100885	5.39151E-05	0	0	0	
0.179167	-0.00184824	-0.00107651	0.000116422	5.58565E-05	0	0	0	
0.179333	0.00147132	0.0041113	0.000112029	7.64251E-05	0	0	0	
0.1795	-0.0017999	-0.00430883	0.000104318	0.000107203	0	0	0	
0.179667	0.00119431	0.00616345	7.25334E-05	0.000122414	0	0	0	
0.179833	0.00230427	-0.00279247	6.29448E-05	0.000130927	0	0	0	
0.18	-0.00364529	0.000383163	6.69128E-05	0.000119201	0	0	0	
0.180167	0.00323029	-0.000174379	7.56784E-05	0.000104871	0	0	0	
0.180333	0.00070915	-0.000141953	0.000104565	8.28032E-05	0	0	0	
0.1805	-0.00445355	-0.000201267	0.000119728	7.96005E-05	0	0	0	
0.180667	0.00121337	0.00327623	0.000106848	0.00010157	0	0	0	
0.180833	0.00401103	-0.00130318	7.13426E-05	0.000128453	0	0	0	
0.181	-0.00751063	0.000840527	7.33958E-05	0.00012533	0	0	0	
0.181167	0.00301037	-0.000542478	0.000106796	9.28404E-05	0	0	0	
0.181333	0.0026418	-0.000654688	0.000146102	5.23715E-05	0	0	0	
0.1815	-0.00506936	0.00114435	0.00014623	3.47186E-05	0	0	0	
0.181667	0.00401	-0.00242983	0.00013496	5.78786E-05	0	0	0	
0.181833	-0.00247412	0.000325969	0.000104474	0.000117516	0	0	0	
0.182	-0.00180062	0.0017895	8.44928E-05	0.000179496	0	0	0	
0.182167	0.00394241	-0.0015032	7.51438E-05	0.000190991	0	0	0	
0.182333	-0.00357732	0.000343435	6.98454E-05	0.000145252	0	0	0	
0.1825	0.00264263	-0.000932729	8.43812E-05	8.21901E-05	0	0	0	
0.182667	-0.0025366	0.00115937	0.000108432	4.98923E-05	0	0	0	
0.182833	0.00014925	0.000278345	0.000147087	4.61339E-05	0	0	0	
0.183	0.0040945	-0.000934362	0.000172086	5.6658E-05	0	0	0	
0.183167	-0.00457344	0.00230608	0.00017946	7.02964E-05	0	0	0	
0.183333	0.00184329	-0.000783299	0.000150385	7.57343E-05	0	0	0	
0.1835	0.00262635	3.62799E-05	9.55412E-05	6.68552E-05	0	0	0	
0.183667	-0.00099621	0.000801541	6.40181E-05	5.49028E-05	0	0	0	
0.183833	-0.00393716	-0.00133677	9.14393E-05	6.16749E-05	0	0	0	
0.184	0.00271016	0.005565	0.000107406	8.51453E-05	0	0	0	
0.184167	0.0062288	-0.00249545	9.80903E-05	0.000106934	0	0	0	
0.184333	-0.00860082	0.000944448	9.59994E-05	0.000100523	0	0	0	
0.1845	0.00333277	-0.0008632	0.000121482	7.54316E-05	0	0	0	
0.184667	-0.000730117	0.000109132	0.000147164	3.81046E-05	0	0	0	
0.184833	-0.000364017	0.00272273	0.000139591	2.55078E-05	0	0	0	
0.185	0.002656	-0.000439275	0.000152842	4.85177E-05	0	0	0	
0.185167	-0.00199289	0.000240462	0.000163728	0.00010493	0	0	0	
0.185333	-0.000773388	0.0019278	0.000136453	0.000149236	0	0	0	
0.1855	0.00105641	-0.00275848	8.20117E-05	0.000141536	0	0	0	
0.185667	-0.000779176	0.00153833	4.42925E-05	9.97933E-05	0	0	0	
0.185833	-0.000311878	-0.00118925	5.07934E-05	6.18912E-05	0	0	0	
0.186	0.00108879	0.00116938	7.0758E-05	6.06459E-05	0	0	0	
0.186167	0.00100873	0.00233844	9.3736E-05	7.73457E-05	0	0	0	
0.186333	0.000781822	-0.00188016	0.000105522	9.76962E-05	0	0	0	
0.1865	0.000560593	-6.47668E-06	0.000102079	0.000105182	0	0	0	
0.186667	-0.00170716	0.000361431	9.2573E-05	9.81922E-05	0	0	0	
0.186833	0.000318666	-0.000490268	9.86641E-05	7.54702E-05	0	0	0	
0.187	0.000614031	0.00155445	0.000118231	4.6522E-05	0	0	0	
0.187167	0.00125556	-0.000625892	0.000128342	3.71859E-05	0	0	0	
0.187333	-0.00081945	0.00121169	0.000124736	3.74352E-05	0	0	0	
0.1875	0.000608471	0.000594901	0.000124052	5.05693E-05	0	0	0	
0.187667	0.00122574	-0.00053644	0.000114945	5.28448E-05	0	0	0	
0.187833	0.0020489	-0.000523189	8.30522E-05	5.04185E-05	0	0	0	
0.188	-0.00677565	0.00184664	6.34218E-05	5.03643E-05	0	0	0	
0.188167	0.00298213	-0.00573913	9.59318E-05	6.20985E-05	0	0	0	
0.188333	0.00393111	0.00998271	0.00016553	9.79315E-05	0	0	0	
0.1885	-0.00556622	-0.00596986	0.000180941	0.00014401	0	0	0	
0.188667	0.00224393	0.000853897	0.000136286	0.000135434	0	0	0	
0.188833	0.000618051	-6.36071E-05	7.4992E-05	9.67502E-05	0	0	0	
0.189	-0.00254864	0.000186906	5.66772E-05	5.16135E-05	0	0	0	
0.189167	0.000888124	-0.000996889	8.30275E-05	4.34527E-05	0	0	0	
0.189333	0.00623646	0.00374905	0.000144919	5.86669E-05	0	0	0	
0.1895	-0.00871269	-0.00273049	0.000187185	7.76297E-05	0	0	0	
0.189667	0.00238462	0.000385177	0.00018001	0.000101872	0	0	0	
0.189833	0.00208447	-0.00103334	0.00011267	0.000100007	0	0	0	
0.19	-0.0015011	0.000305913	7.11207E-05	7.06828E-05	0	0	0	
0.190167	0.00236725	4.40936E-06	4.4226E-05	3.95656E-05	0	0	0	
0.190333	-0.00703917	0.00511253	5.88414E-05	5.2531E-05	0	0	0	
0.1905	0.0067757	-0.0098217	0.000121717	9.57087E-05	0	0	0	
0.190667	0.00883881	0.0061601	0.000280993	0.000154833	0	0	0	
0.190833	-0.0196389	-0.00190983	0.000406137	0.000136253	0	0	0	
0.191	0.00780347	0.000284499	0.000392479	9.65669E-05	0	0	0	
0.191167	0.00152365	-0.000778201	0.000258029	4.87972E-05	0	0	0	
0.191333	0.000199059	0.00493879	0.000168365	5.15465E-05	0	0	0	
0.1915	-0.00101139	-0.00349081	0.000157895	7.88841E-05	0	0	0	
0.191667	-0.00675012	0.00135696	0.000144657	8.87263E-05	0	0	0	
0.191833	0.0148415	-0.00101422	0.00015169	9.44687E-05	0	0	0	
0.192	-0.00942488	0.00203361	0.000230845	7.16404E-05	0	0	0	
0.192167	-0.0049749	-0.00151896	0.000315	5.45963E-05	0	0	0	
0.192333	0.000386817	0.00304614	0.000268263	4.64488E-05	0	0	0	
0.1925	0.00954879	-0.00492803	0.000167685	6.95906E-05	0	0	0	
0.192667	-0.00765037	0.00615728	0.000117245	9.3838E-05	0	0	0	
0.192833	0.00309658	-0.00535441	0.000162022	0.000121589	0	0	0	
0.193	0.00183485	0.00219726	0.000177925	0.000100936	0	0	0	
0.193167	-0.0037299	-0.000891389	0.000130881	7.9463E-05	0	0	0	
0.193333	-0.00143626	0.00244587	8.06206E-05	6.56167E-05	0	0	0	
0.1935	-0.000427527	-0.0056239	5.35579E-05	8.73184E-05	0	0	0	
0.193667	0.00473084	0.00957721	9.38199E-05	0.000117445	0	0	0	
0.193833	-0.00515794	-0.00277673	0.000122142	0.000131065	0	0	0	
0.194	0.00128042	0.000142222	0.00011805	9.99306E-05	0	0	0	
0.194167	0.00155753	0.000283044	7.71706E-05	5.80597E-05	0	0	0	
0.194333	0.000279409	-8.65585E-05	6.91814E-05	1.76873E-05	0	0	0	
0.1945	-0.00524234	0.000220556	7.96994E-05	2.17174E-05	0	0	0	
0.194667	0.000230631	0.00263228	9.19679E-05	4.68786E-05	0	0	0	
0.194833	0.00321983	-0.00235565	6.39253E-05	8.84828E-05	0	0	0	
0.195	-0.00217386	0.00575628	8.2876E-05	0.000117467	0	0	0	
0.195167	-0.00343871	-0.00407668	0.000135488	0.000132933	0	0	0	
0.195333	0.00244921	0.00154466	0.000167333	0.000106276	0	0	0	
0.1955	-4.27408E-05	-0.00149554	0.000119521	7.7092E-05	0	0	0	
0.195667	-0.00206991	0.00327828	7.48686E-05	6.24236E-05	0	0	0	
0.195833	-0.00122277	-0.00819841	9.8848E-05	8.87988E-05	0	0	0	
0.196	0.00536573	0.00907828	0.000151142	0.000129099	0	0	0	
0.196167	-0.00521748	-0.00238827	0.000175649	0.000142092	0	0	0	
0.196333	0.00205046	2.16137E-05	0.000142884	0.000104126	0	0	0	
0.1965	-0.00136295	-0.000222811	9.33276E-05	5.78758E-05	0	0	0	
0.196667	-0.000786451	-0.000742184	4.33995E-05	2.82966E-05	0	0	0	
0.196833	0.00267403	-1.50144E-05	2.41007E-05	5.80054E-05	0	0	0	
0.197	-0.00445069	0.0049031	4.80003E-05	0.000114722	0	0	0	
0.197167	0.000270329	-0.00352989	0.000117598	0.000155256	0	0	0	
0.197333	-0.000209156	0.000368818	0.000190089	0.000128611	0	0	0	
0.1975	-0.00309016	0.000864336	0.000203839	6.79829E-05	0	0	0	
0.197667	0.00221884	-0.000931454	0.000159277	2.65324E-05	0	0	0	
0.197833	0.00272386	0.00131474	0.000128186	2.97012E-05	0	0	0	
0.198	0.00387029	0.00267726	0.000202212	5.02997E-05	0	0	0	
0.198167	-0.0265276	-0.00458518	0.000328743	9.31581E-05	0	0	0	
0.198333	0.0257613	0.00766363	0.000418908	0.00012135	0	0	0	
0.1985	-0.0122924	-0.0034294	0.00064222	0.000131213	0	0	0	
0.198667	-0.0313784	-0.00187728	0.00084105	9.69232E-05	0	0	0	
0.198833	0.0379618	0.00291602	0.000926925	6.92377E-05	0	0	0	
0.199	-0.0519587	-0.0019469	0.000901337	6.12513E-05	0	0	0	
0.199167	0.0198848	0.00177189	0.000915804	8.14592E-05	0	0	0	
0.199333	0.0343333	0.00310452	0.00117695	0.00010904	0	0	0	
0.1995	-0.077717	-0.00187994	0.00128373	0.000119164	0	0	0	
0.199667	0.0454978	0.00169861	0.0012799	9.31533E-05	0	0	0	
0.199833	-0.023225	-0.00158547	0.00104992	5.80543E-05	0	0	0	
0.2	-0.00951928	0.000600208	0.000801897	3.59895E-05	0	0	0	
0.200167	0.0262738	-0.00243336	0.000599639	4.1001E-05	0	0	0	
0.200333	-0.0243242	-0.000581256	0.000487809	4.96579E-05	0	0	0	
0.2005	-0.0010351	-0.00150378	0.000493025	6.21295E-05	0	0	0	
0.200667	0.00712622	0.00203446	0.000477553	6.94898E-05	0	0	0	
0.200833	0.000245778	-0.00255415	0.000351467	6.70636E-05	0	0	0	
0.201	-0.00451084	0.0019036	0.000182993	5.505E-05	0	0	0	
0.201167	0.00448119	-0.00259534	0.000111611	4.70719E-05	0	0	0	
0.201333	0.00121611	0.00271113	0.000157828	6.09287E-05	0	0	0	
0.2015	-0.00447239	-0.00462643	0.000193341	8.70492E-05	0	0	0	
0.201667	0.00715878	0.00404635	0.000175839	0.000108441	0	0	0	
0.201833	-0.00381153	-0.00235632	0.000167471	0.000102441	0	0	0	
0.202	0.00553481	0.00187622	0.000164651	7.90772E-05	0	0	0	
0.202167	-0.0110428	-0.0014094	0.000173453	5.03004E-05	0	0	0	
0.202333	0.00343747	-0.00111571	0.000188732	4.40819E-05	0	0	0	
0.2025	-0.00152928	3.47411E-05	0.000163684	5.34701E-05	0	0	0	
0.202667	0.00312579	0.000253629	0.00011052	7.85358E-05	0	0	0	
0.202833	-0.000811111	-0.000505195	5.97772E-05	9.11301E-05	0	0	0	
0.203	-0.00122142	0.00261193	4.88746E-05	8.28614E-05	0	0	0	
0.203167	0.00129946	-0.00359182	4.28753E-05	6.52489E-05	0	0	0	
0.203333	0.000693999	0.00585577	5.9409E-05	7.08825E-05	0	0	0	
0.2035	-0.00645704	-0.00428204	9.6552E-05	8.82476E-05	0	0	0	
0.203667	0.00442959	0.00472222	0.000134386	0.000101602	0	0	0	
0.203833	-0.00198282	-0.0026117	0.000137562	9.39161E-05	0	0	0	
0.204	0.00501699	0.00175943	0.000127333	7.5963E-05	0	0	0	
0.204167	-0.00450709	-0.00150988	0.000105584	5.80638E-05	0	0	0	
0.204333	-0.00120224	0.00309363	9.31255E-05	5.36765E-05	0	0	0	
0.2045	0.00655834	-0.00214868	8.30716E-05	6.32013E-05	0	0	0	
0.204667	-0.000222085	0.00368964	0.000152042	8.18332E-05	0	0	0	
0.204833	-0.010939	-0.00422257	0.000221382	9.23665E-05	0	0	0	
0.205	0.00761712	0.00138503	0.000260018	9.78963E-05	0	0	0	
0.205167	-0.00236521	-0.00118091	0.000196164	8.0882E-05	0	0	0	
0.205333	0.00261467	0.00207489	0.000111496	6.27536E-05	0	0	0	
0.2055	-0.00522778	-0.00252779	6.94433E-05	4.88268E-05	0	0	0	
0.205667	0.00159559	0.0056189	6.57603E-05	6.11883E-05	0	0	0	
0.205833	0.0028251	-0.00427376	5.95825E-05	7.25474E-05	0	0	0	
0.206	-0.00520779	0.00341268	9.59065E-05	8.70472E-05	0	0	0	
0.206167	-0.000784881	-0.00265338	0.000149339	7.85879E-05	0	0	0	
0.206333	0.00344469	0.00127297	0.00018112	6.48099E-05	0	0	0	
0.2065	-0.00248473	-0.000245589	0.000138123	4.01632E-05	0	0	0	
0.206667	0.000927525	-0.00097714	8.50046E-05	3.95116E-05	0	0	0	
0.206833	-0.00207146	-0.00400254	0.000103453	5.6569E-05	0	0	0	
0.207	0.00314646	0.00667906	0.000135503	9.03151E-05	0	0	0	
0.207167	-0.00129237	-0.00288961	0.00012358	0.000103835	0	0	0	
0.207333	0.00173013	0.000791907	7.94845E-05	8.62871E-05	0	0	0	
0.2075	-0.00358787	-0.000995841	5.82377E-05	4.97856E-05	0	0	0	
0.207667	0.0056321	0.00196194	6.67436E-05	2.60367E-05	0	0	0	
0.207833	-0.00211535	-0.00346451	8.34314E-05	3.62636E-05	0	0	0	
0.208	-0.00239181	0.0100217	6.36217E-05	9.12263E-05	0	0	0	
0.208167	0.00395458	-0.0183819	7.34456E-05	0.00015395	0	0	0	
0.208333	0.00155836	-0.0235717	0.000110083	0.000410353	0	0	0	
0.2085	-0.0111323	0.110988	0.000180892	0.000778665	0	0	0	
0.208667	0.0119235	-0.00668771	0.000206736	0.0017674	0	0	0	
0.208833	0.0432772	-0.537176	0.000419119	0.00508459	0	0	0	
0.209	0.0517062	0.640933	0.00101076	0.00878938	0	0	0	
0.209167	0.00171902	-0.349158	0.00130747	0.0107181	0	0	0	
0.209333	-0.00850983	0.0160322	0.0010987	0.00899025	0	0	0	
0.2095	-0.00319624	0.0904904	0.000455615	0.00588591	0	0	0	
0.209667	0.0114351	-0.00378779	0.000141985	0.00323339	0	0	0	
0.209833	0.0167916	-0.113078	0.000218415	0.00171311	0	0	0	
0.21	-0.0184559	0.0856094	0.000311006	0.00145248	0	0	0	
0.210167	0.00796665	0.0183238	0.000338153	0.00206025	0	0	0	
0.210333	0.00508993	-0.0609666	0.000276489	0.0022099	0	0	0	
0.2105	-0.00556745	0.0188992	0.000220659	0.00170155	0	0	0	
0.210667	0.00508345	0.0253096	0.000184456	0.00106377	0	0	0	
0.210833	-0.00682787	-0.021923	0.000133991	0.000691295	0	0	0	
0.211	0.00875939	-0.00775294	0.000137324	0.000644042	0	0	0	
0.211167	-0.0113557	0.0243095	0.000170641	0.000479952	0	0	0	
0.211333	0.00671129	-0.00895767	0.000186604	0.000500525	0	0	0	
0.2115	-0.00257534	-0.0132227	0.000150611	0.00049201	0	0	0	
0.211667	0.00356514	0.0138899	0.000103458	0.000442731	0	0	0	
0.211833	-0.00722236	-0.00641394	0.000115345	0.000363911	0	0	0	
0.212	0.00875907	-0.000843299	0.000152926	0.000188087	0	0	0	
0.212167	-0.00648478	-0.00144097	0.000182002	0.000138948	0	0	0	
0.212333	0.00458139	0.00823323	0.0001571	0.000161601	0	0	0	
0.2125	-0.00707466	-0.0108493	0.000141267	0.000208371	0	0	0	
0.212667	0.00809865	0.00552273	0.000154172	0.000214566	0	0	0	
0.212833	-0.00365816	-0.00421521	0.000161573	0.0001609	0	0	0	
0.213	0.00019609	0.00184699	0.000140306	0.000119289	0	0	0	
0.213167	0.00138614	-0.00299067	0.000113916	0.000100726	0	0	0	
0.213333	-0.000884744	0.00457597	0.00010086	9.5192E-05	0	0	0	
0.2135	0.000518991	-0.00608748	0.000120025	9.96757E-05	0	0	0	
0.213667	0.0061419	0.0020464	0.000167853	9.18876E-05	0	0	0	
0.213833	-0.0101917	-0.00264834	0.0002121	8.2435E-05	0	0	0	
0.214	0.00564594	0.00476961	0.00021484	6.8837E-05	0	0	0	
0.214167	-0.00102681	-0.00545393	0.000150964	8.05488E-05	0	0	0	
0.214333	0.00145829	0.00572024	8.51303E-05	8.75294E-05	0	0	0	
0.2145	-0.00388028	-0.00697331	5.58721E-05	0.000112329	0	0	0	
0.214667	0.00416056	0.00505571	6.94819E-05	0.000115014	0	0	0	
0.214833	-0.00327534	-0.00689892	7.27834E-05	0.000130858	0	0	0	
0.215	0.00177836	0.00889408	6.81798E-05	0.000136632	0	0	0	
0.215167	-0.00339805	-0.0067644	6.54334E-05	0.000148518	0	0	0	
0.215333	0.00256878	0.00483179	8.08833E-05	0.000139204	0	0	0	
0.2155	-0.000830585	-0.00448842	7.74967E-05	0.000125031	0	0	0	
0.215667	0.00194464	0.00632013	6.0577E-05	0.000122765	0	0	0	
0.215833	-0.00674867	-0.0073315	6.27895E-05	0.000138201	0	0	0	
0.216	0.00867977	0.0032126	9.84636E-05	0.000132948	0	0	0	
0.216167	-0.0040568	-0.00104247	0.000130903	0.000108641	0	0	0	
0.216333	0.00377351	0.00439385	0.000136665	9.33518E-05	0	0	0	
0.2165	-0.0109583	-0.0052885	0.000147164	9.68814E-05	0	0	0	
0.216667	0.0170882	0.00331003	0.000180161	9.9195E-05	0	0	0	
0.216833	-0.000692039	-0.00175285	0.000233852	8.1787E-05	0	0	0	
0.217	-0.0303041	0.00222369	0.000282666	6.00326E-05	0	0	0	
0.217167	0.0226424	0.00241496	0.000754384	7.68603E-05	0	0	0	
0.217333	-0.169541	-0.00731026	0.00307497	0.000294624	0	0	0	
0.2175	0.0232758	0.0230696	0.00339533	0.000413202	0	0	0	
0.217667	0.0307413	-0.0238018	0.00331414	0.000568083	0	0	0	
0.217833	-0.0293053	0.0388014	0.0012809	0.000553351	0	0	0	
0.218	0.013043	-0.02733	0.00114858	0.000655559	0	0	0	
0.218167	0.0414448	0.0200222	0.000793225	0.000662139	0	0	0	
0.218333	-0.0708173	0.00569212	0.00209481	0.000682127	0	0	0	
0.2185	-0.0280271	0.0151921	0.00273368	0.000560768	0	0	0	
0.218667	0.00555246	0.0138589	0.00272942	0.000475374	0	0	0	
0.218833	0.0194939	0.0073186	0.00121037	0.000469602	0	0	0	
0.219	-0.0306025	-0.0175395	0.000367965	0.000650117	0	0	0	
0.219167	0.0328384	0.0231649	0.000466844	0.00077106	0	0	0	
0.219333	-0.0468878	-0.0150846	0.000573958	0.000664678	0	0	0	
0.2195	0.0493684	0.0109771	0.000872315	0.000445766	0	0	0	
0.219667	-0.0182588	-0.00202186	0.00104238	0.00027647	0	0	0	
0.219833	-0.010722	-0.00769345	0.00115105	0.000224486	0	0	0	
0.22	0.0224495	0.00981116	0.00102685	0.000212128	0	0	0	
0.220167	-0.0220316	-0.00531246	0.00078684	0.000197478	0	0	0	
0.220333	-0.001549	-0.00189465	0.000501008	0.000141671	0	0	0	
0.2205	0.0213276	0.00319075	0.000296591	9.21834E-05	0	0	0	
0.220667	0.00775475	-0.00186932	0.00039196	6.23876E-05	0	0	0	
0.220833	-0.0733053	0.00346449	0.000638763	8.33613E-05	0	0	0	
0.221	0.0955581	0.000538053	0.00114603	9.94024E-05	0	0	0	
0.221167	-0.00761482	-0.00270351	0.00162165	9.82665E-05	0	0	0	
0.221333	-0.0361102	0.00508855	0.00168187	8.85051E-05	0	0	0	
0.2215	0.00388789	-0.00718752	0.00120726	0.000104526	0	0	0	
0.221667	-0.00316615	0.00859364	0.00053936	0.000130432	0	0	0	
0.221833	0.0170797	-0.00789688	0.000200234	0.000148091	0	0	0	
0.222	0.0369643	0.00857274	0.000531998	0.00015625	0	0	0	
0.222167	-0.0742827	-0.00958954	0.00113067	0.000164576	0	0	0	
0.222333	0.0475411	0.0096111	0.00137468	0.000179865	0	0	0	
0.2225	0.000808698	-0.00390947	0.00126707	0.000167042	0	0	0	
0.222667	-0.00517913	0.00252455	0.000722627	0.000127844	0	0	0	
0.222833	-0.0114767	-0.00532282	0.000538678	9.00221E-05	0	0	0	
0.223	0.0199603	0.00586683	0.000325909	8.58189E-05	0	0	0	
0.223167	-0.0154106	-0.00500738	0.000342631	0.000102116	0	0	0	
0.223333	0.00469717	0.00437835	0.000314127	0.000115271	0	0	0	
0.2235	-2.30416E-05	-0.00399257	0.000239581	0.000106956	0	0	0	
0.223667	0.00667282	0.0046245	0.000155106	9.78035E-05	0	0	0	
0.223833	-0.00361357	-0.00513619	9.08223E-05	8.50951E-05	0	0	0	
0.224	-0.00364292	0.00802027	0.000110002	0.000101734	0	0	0	
0.224167	0.00720065	-0.0112435	0.000128493	0.000138698	0	0	0	
0.224333	-0.00321153	0.00974768	0.000145593	0.000177153	0	0	0	
0.2245	-0.00912614	-0.00880578	0.000173843	0.000189334	0	0	0	
0.224667	0.0141914	0.00673592	0.000208399	0.000178248	0	0	0	
0.224833	-0.00936271	-0.00595684	0.000228847	0.000156743	0	0	0	
0.225	0.00651093	0.00687439	0.000203504	0.000141757	0	0	0	
0.225167	-0.00393975	-0.00595852	0.000161398	0.000132832	0	0	0	
0.225333	0.000996	0.00457091	0.000125786	0.000131927	0	0	0	
0.2255	-0.00469706	-0.00541752	0.000116424	0.000125286	0	0	0	
0.225667	0.006296	0.00413475	0.000148692	0.000111748	0	0	0	
0.225833	-0.0055682	-0.00356869	0.00016007	9.2319E-05	0	0	0	
0.226	0.00318429	0.00407711	0.000138566	7.6254E-05	0	0	0	
0.226167	-0.00121528	-0.00559195	0.000102942	7.88677E-05	0	0	0	
0.226333	0.00761063	0.00452912	0.00012967	9.19059E-05	0	0	0	
0.2265	-0.0112539	-0.00503515	0.00017495	0.00010266	0	0	0	
0.226667	0.00581084	0.0072631	0.000190576	0.000110373	0	0	0	
0.226833	-0.00189767	-0.00778613	0.000155612	0.000123485	0	0	0	
0.227	0.00427198	0.00595256	0.000103708	0.000134128	0	0	0	
0.227167	-0.00296736	-0.00839966	8.01331E-05	0.000147307	0	0	0	
0.227333	0.00321668	0.0061341	7.58327E-05	0.000143194	0	0	0	
0.2275	-0.00151651	-0.00559071	8.44012E-05	0.000136143	0	0	0	
0.227667	0.00694336	0.00583274	0.000126653	0.000120244	0	0	0	
0.227833	-0.0102713	-0.00528446	0.000177654	0.00011435	0	0	0	
0.228	0.00744807	0.00366795	0.000206232	0.000103028	0	0	0	
0.228167	-0.00163449	-0.00556835	0.000169574	0.000105566	0	0	0	
0.228333	-0.000207315	0.00304828	0.000100451	9.1667E-05	0	0	0	
0.2285	0.00300119	-0.00386801	6.41139E-05	9.57585E-05	0	0	0	
0.228667	0.00078458	0.00389221	7.79248E-05	7.98413E-05	0	0	0	
0.228833	-0.00491073	-0.00780545	0.000141073	9.10719E-05	0	0	0	
0.229	0.0106501	0.00746371	0.000177878	0.000108049	0	0	0	
0.229167	-0.0100498	-0.00825155	0.000189481	0.000135989	0	0	0	
0.229333	0.00324423	0.0059496	0.000174678	0.000141138	0	0	0	
0.2295	0.001605	-0.00731673	0.000158583	0.000143184	0	0	0	
0.229667	0.000947541	0.00545161	0.000111098	0.000129899	0	0	0	
0.229833	-0.00467256	-0.00502896	0.000104185	0.000125153	0	0	0	
0.23	0.0100903	0.00417677	0.000118741	0.000109748	0	0	0	
0.230167	-0.00818729	-0.00574608	0.000161708	0.000105999	0	0	0	
0.230333	0.00646171	0.00502428	0.000162783	0.000106327	0	0	0	
0.2305	-0.00617464	-0.00826281	0.000139301	0.000115549	0	0	0	
0.230667	0.00469122	0.00776649	0.000125549	0.000132097	0	0	0	
0.230833	-0.00283568	-0.00516107	0.000104748	0.000138774	0	0	0	
0.231	0.00721004	0.00494605	0.000108881	0.000128909	0	0	0	
0.231167	-0.00950679	-0.00466505	0.000123938	0.00011096	0	0	0	
0.231333	0.0110034	0.00435706	0.000159275	9.30541E-05	0	0	0	
0.2315	-0.00558999	-0.00841622	0.000171122	0.000106954	0	0	0	
0.231667	0.00118186	0.00812295	0.000149167	0.000127107	0	0	0	
0.231833	-0.00547883	-0.00706281	0.000123674	0.000144966	0	0	0	
0.232	0.0117841	0.00646329	0.000159875	0.000141111	0	0	0	
0.232167	-0.0119416	-0.00301485	0.000203524	0.000119388	0	0	0	
0.232333	0.00710199	0.00492843	0.000220432	0.000104453	0	0	0	
0.2325	-0.00208112	-0.0084971	0.000165601	0.000107323	0	0	0	
0.232667	0.00325387	0.006694	0.000111797	0.000123529	0	0	0	
0.232833	-0.00705655	-0.00562284	8.46571E-05	0.00013593	0	0	0	
0.233	0.00343744	0.00546144	9.07653E-05	0.000123718	0	0	0	
0.233167	-0.00512344	-0.00681059	0.000109296	0.00011716	0	0	0	
0.233333	0.0089171	0.00783677	0.000137845	0.000125564	0	0	0	
0.2335	-0.0112119	-0.0061585	0.000175251	0.000142026	0	0	0	
0.233667	0.0132244	0.00590048	0.00021839	0.000135166	0	0	0	
0.233833	-0.0118326	-0.00337352	0.000238112	0.00012142	0	0	0	
0.234	0.00540535	0.00314299	0.000222471	0.000111011	0	0	0	
0.234167	-0.00179916	-0.00713102	0.000168406	0.000118554	0	0	0	
0.234333	0.00140178	0.00815173	0.000114337	0.000138336	0	0	0	
0.2345	-0.00239831	-0.00656579	9.2912E-05	0.000147158	0	0	0	
0.234667	0.000463671	0.00700824	9.76532E-05	0.000152202	0	0	0	
0.234833	-0.0028972	-0.00826788	0.000125172	0.000147999	0	0	0	
0.235	0.00957516	0.00822254	0.000142985	0.000160045	0	0	0	
0.235167	-0.00786957	-0.00784287	0.000160119	0.000179689	0	0	0	
0.235333	0.00171667	0.0083446	0.000149423	0.000189288	0	0	0	
0.2355	-0.00108958	-0.00875978	0.000114807	0.000187249	0	0	0	
0.235667	0.00590866	0.00553138	0.000104002	0.00017213	0	0	0	
0.235833	-0.0105169	-0.00813519	0.000120985	0.000154807	0	0	0	
0.236	0.00594108	0.0153444	0.000150782	0.000161215	0	0	0	
0.236167	-0.00382299	0.0081126	0.000141954	0.000297765	0	0	0	
0.236333	0.0102524	-0.0682545	0.000127364	0.000515587	0	0	0	
0.2365	-0.014792	0.0108258	0.000152141	0.0011116	0	0	0	
0.236667	-0.0336397	0.146089	0.000433716	0.00291078	0	0	0	
0.236833	-0.0762065	-0.594392	0.00109258	0.00444124	0	0	0	
0.237	-0.000593359	0.248876	0.00130411	0.00617981	0	0	0	
0.237167	0.0034771	-0.00458635	0.00103932	0.00549975	0	0	0	
0.237333	0.0083813	-0.0667909	0.000375568	0.00434227	0	0	0	
0.2375	-0.0136898	-0.0104506	0.000151546	0.00234385	0	0	0	
0.237667	-0.0178119	0.13509	0.000249063	0.00148119	0	0	0	
0.237833	0.0131639	-0.192407	0.000309797	0.00225207	0	0	0	
0.238	-0.00674335	0.0240858	0.000320925	0.00274514	0	0	0	
0.238167	0.00236355	0.0582952	0.000211918	0.00296126	0	0	0	
0.238333	-2.32685E-05	-0.0258649	0.000123638	0.0017809	0	0	0	
0.2385	-0.002309	-0.0450104	6.56122E-05	0.00127904	0	0	0	
0.238667	0.00754519	0.0293129	6.66894E-05	0.000865653	0	0	0	
0.238833	-0.0117717	0.182449	0.000122677	0.00203105	0	0	0	
0.239	0.00842455	-0.0253316	0.000172636	0.00360322	0	0	0	
0.239167	-0.00831638	0.0664283	0.000197033	0.0039926	0	0	0	
0.239333	0.00405163	-0.0131351	0.000163444	0.00291114	0	0	0	
0.2395	-0.0021325	-0.0224751	0.000121415	0.00121354	0	0	0	
0.239667	0.00492156	0.0046058	8.20371E-05	0.000669032	0	0	0	
0.239833	-0.00879481	0.0332431	8.52061E-05	0.000559822	0	0	0	
0.24	0.00618962	-0.0416619	0.000116078	0.000522531	0	0	0	
0.240167	-0.0011292	0.0054002	0.000137018	0.000660482	0	0	0	
0.240333	-0.00434022	0.0205225	0.000125923	0.000648548	0	0	0	
0.2405	0.00135295	-0.0123983	8.50287E-05	0.000511827	0	0	0	
0.240667	0.00176561	-0.00176838	5.62782E-05	0.000369392	0	0	0	
0.240833	-0.00216891	0.000887385	5.10254E-05	0.000196716	0	0	0	
0.241	0.0042311	0.00952789	7.20466E-05	0.000184842	0	0	0	
0.241167	-0.00405123	-0.0144313	9.65226E-05	0.000195805	0	0	0	
0.241333	0.00374531	0.0116802	0.00010423	0.000261419	0	0	0	
0.2415	-0.00482387	-0.00160964	0.000103415	0.000279135	0	0	0	
0.241667	0.00621419	-0.00221044	9.81219E-05	0.000227682	0	0	0	
0.241833	-0.00487807	-0.00182929	0.000108615	0.000153525	0	0	0	
0.242	0.00256917	0.00800259	0.000106261	8.54139E-05	0	0	0	
0.242167	-0.00212547	-0.00576591	9.2922E-05	8.41042E-05	0	0	0	
0.242333	0.00368487	0.00167069	7.96306E-05	0.000143063	0	0	0	
0.2425	-0.00308686	0.003171	7.71256E-05	0.000154496	0	0	0	
0.242667	0.00152253	-0.000626705	8.33534E-05	0.00011899	0	0	0	
0.242833	-0.000675501	-0.00201162	7.796E-05	6.40519E-05	0	0	0	
0.243	8.17812E-05	-0.000434836	6.08883E-05	3.22924E-05	0	0	0	
0.243167	-0.00582852	-0.000291038	6.11584E-05	2.77836E-05	0	0	0	
0.243333	0.00593043	0.00391083	9.25943E-05	3.23039E-05	0	0	0	
0.2435	-0.00788776	-0.00661234	0.000127266	5.69903E-05	0	0	0	
0.243667	0.00716809	0.00470375	0.000163115	8.96583E-05	0	0	0	
0.243833	0.00013091	-0.00193625	0.00012975	9.33554E-05	0	0	0	
0.244	-0.00113693	0.00192809	9.55203E-05	7.46285E-05	0	0	0	
0.244167	0.00291878	-0.0021365	0.00017882	4.98177E-05	0	0	0	
0.244333	0.0109135	0.00242322	0.000387309	5.04825E-05	0	0	0	
0.2445	-0.025664	-0.00487334	0.0005502	6.12764E-05	0	0	0	
0.244667	0.0247264	0.00286653	0.000567214	7.09358E-05	0	0	0	
0.244833	-0.0110006	-0.00278491	0.00043909	7.63344E-05	0	0	0	
0.245	-0.00806008	0.00264975	0.000414658	7.09226E-05	0	0	0	
0.245167	0.0419605	-0.000981186	0.000388843	5.98695E-05	0	0	0	
0.245333	-0.0341406	-0.000767725	0.000568131	5.01788E-05	0	0	0	
0.2455	0.0137947	-0.000870725	0.000544653	5.12397E-05	0	0	0	
0.245667	-0.00246578	0.00302074	0.000559574	5.59319E-05	0	0	0	
0.245833	-0.00625854	-0.00458861	0.000457393	7.49473E-05	0	0	0	
0.246	0.0137595	0.00225701	0.000437411	7.46278E-05	0	0	0	
0.246167	-0.00616962	-0.00262976	0.000343374	7.19869E-05	0	0	0	
0.246333	0.00721051	0.00535065	0.00026299	6.05172E-05	0	0	0	
0.2465	-0.00752989	-0.00693024	0.000235713	8.589E-05	0	0	0	
0.246667	0.00307406	0.00546903	0.000242238	0.000145534	0	0	0	
0.246833	0.00710254	0.00100982	0.000222701	0.000163491	0	0	0	
0.247	-0.00814815	-0.00085945	0.000198092	0.000122522	0	0	0	
0.247167	-0.000800761	-0.00270838	0.000160824	6.12498E-05	0	0	0	
0.247333	0.00783979	0.00420302	0.000104669	4.03734E-05	0	0	0	
0.2475	-0.00474997	-0.00960285	0.000108249	8.25878E-05	0	0	0	
0.247667	0.0094233	0.0129412	0.000142067	0.000139927	0	0	0	
0.247833	-0.022883	-0.00806705	0.000251954	0.000191351	0	0	0	
0.248	0.0255789	0.00354853	0.000357143	0.000201099	0	0	0	
0.248167	-0.00445317	-0.000109337	0.000401011	0.000167867	0	0	0	
0.248333	-0.000321721	0.0020203	0.000303077	0.000108546	0	0	0	
0.2485	-0.00986723	-0.00663307	0.000236866	8.80842E-05	0	0	0	
0.248667	0.0103068	0.00799603	0.000197907	0.000105043	0	0	0	
0.248833	0.00567757	-0.00611029	0.00022166	0.000141511	0	0	0	
0.249	-0.00990404	0.00511687	0.000176739	0.000144172	0	0	0	
0.249167	0.0019412	-0.00431095	0.000245658	0.000130578	0	0	0	
0.249333	0.00681879	0.00324661	0.000262303	0.00011352	0	0	0	
0.2495	0.00174962	-0.00116242	0.000236734	8.99882E-05	0	0	0	
0.249667	-0.00580793	0.0033309	0.000137951	6.75714E-05	0	0	0	
0.249833	-0.000277225	-0.00177647	8.67238E-05	6.59609E-05	0	0	0	
0.25	0.00196578	0.00365567	6.51218E-05	9.42292E-05	0	0	0	
0.250167	0.00206838	-0.00258705	7.46935E-05	0.000112997	0	0	0	
0.250333	-0.004619	0.00148625	0.000100422	0.000102052	0	0	0	
0.2505	0.00257395	-0.00269301	0.00011735	6.87542E-05	0	0	0	
0.250667	0.00252404	0.0070227	8.32314E-05	5.87013E-05	0	0	0	
0.250833	-0.00643993	-0.00742917	7.40723E-05	8.97179E-05	0	0	0	
0.251	0.00964797	0.00547152	0.000103456	0.000133924	0	0	0	
0.251167	-0.0072812	-0.00640056	0.000161826	0.000176915	0	0	0	
0.251333	0.00189756	0.00394762	0.000211418	0.000190055	0	0	0	
0.2515	0.000149513	-0.000980817	0.00020551	0.000160734	0	0	0	
0.251667	0.00300809	0.00191366	0.000143824	0.000101741	0	0	0	
0.251833	-0.00727449	-0.00315526	0.000102593	5.55242E-05	0	0	0	
0.252	0.00560819	0.00292096	8.99223E-05	4.76114E-05	0	0	0	
0.252167	-0.00602018	-0.00321377	0.000117371	6.96358E-05	0	0	0	
0.252333	0.00803653	0.00248573	0.000123745	7.90709E-05	0	0	0	
0.2525	-0.00304982	-0.00148792	0.000126776	7.44793E-05	0	0	0	
0.252667	0.0022253	0.0014924	0.000113294	4.98005E-05	0	0	0	
0.252833	-0.00648958	-0.00384898	0.000100357	4.16831E-05	0	0	0	
0.253	0.00517101	0.00514498	0.000104685	5.18777E-05	0	0	0	
0.253167	-0.00299606	-0.00532537	0.000119896	9.52645E-05	0	0	0	
0.253333	-0.00191099	0.00182201	9.96622E-05	0.00013381	0	0	0	
0.2535	0.00193302	-0.00134288	8.21062E-05	0.000151235	0	0	0	
0.253667	-0.00195253	7.23922E-05	5.6237E-05	0.000116435	0	0	0	
0.253833	0.00190106	-0.00069507	5.37445E-05	6.57249E-05	0	0	0	
0.254	0.0067189	0.002964	0.000101612	3.08698E-05	0	0	0	
0.254167	-0.0134391	-0.00596167	0.000158725	5.43175E-05	0	0	0	
0.254333	0.00585018	0.00384581	0.000218966	0.000104582	0	0	0	
0.2545	0.00402854	-2.31094E-05	0.000249834	0.000138225	0	0	0	
0.254667	-0.00355419	0.000558151	0.000219927	0.000109462	0	0	0	
0.254833	-0.000363912	-0.00279147	0.00015165	6.67631E-05	0	0	0	
0.255	-0.00152621	0.00254523	5.67297E-05	4.13348E-05	0	0	0	
0.255167	-0.00157065	-0.00444193	5.7139E-05	6.45646E-05	0	0	0	
0.255333	0.0108796	0.00376207	0.000112175	9.03523E-05	0	0	0	
0.2555	-0.0122888	-0.00167999	0.000172469	0.000110875	0	0	0	
0.255667	0.00553354	0.00154734	0.000211306	0.00010205	0	0	0	
0.255833	0.000610538	-0.00085058	0.000202619	7.75973E-05	0	0	0	
0.256	-0.00322044	0.000297413	0.000159833	4.64441E-05	0	0	0	
0.256167	0.00413332	-0.00254485	0.000108994	3.4135E-05	0	0	0	
0.256333	-0.00194768	0.00499369	7.57231E-05	5.18171E-05	0	0	0	
0.2565	-0.00541728	-0.00150492	8.68094E-05	7.14693E-05	0	0	0	
0.256667	0.0102515	0.00246434	0.000106623	8.30207E-05	0	0	0	
0.256833	-0.0055024	-0.000893874	0.000135268	6.37119E-05	0	0	0	
0.257	0.00156025	0.000600545	0.00015024	4.97051E-05	0	0	0	
0.257167	0.000239573	-0.000516713	0.000139341	3.20815E-05	0	0	0	
0.257333	0.00024661	-0.00195361	0.000116082	2.56455E-05	0	0	0	
0.2575	0.00163481	-0.00376498	7.35111E-05	4.00944E-05	0	0	0	
0.257667	0.00125197	0.00611151	5.97334E-05	7.59272E-05	0	0	0	
0.257833	-0.00374491	-0.00194508	7.08405E-05	0.000105834	0	0	0	
0.258	0.00572661	0.000269144	9.02677E-05	0.000101513	0	0	0	
0.258167	-0.000989702	-0.000483259	0.000105604	6.50223E-05	0	0	0	
0.258333	-0.00192302	0.0025313	0.000113256	4.34432E-05	0	0	0	
0.2585	0.00184459	-0.00850179	0.000111273	6.40675E-05	0	0	0	
0.258667	0.00305875	0.00494173	8.56956E-05	9.96107E-05	0	0	0	
0.258833	-0.00574617	-0.00245981	6.79346E-05	0.00010613	0	0	0	
0.259	0.00513765	0.000961719	8.26419E-05	8.24584E-05	0	0	0	
0.259167	-0.00262839	-0.00104008	0.000101609	5.49914E-05	0	0	0	
0.259333	0.00188513	-0.00067705	0.000104993	4.84275E-05	0	0	0	
0.2595	0.000424646	0.0018202	9.55688E-05	4.97815E-05	0	0	0	
0.259667	-0.000877657	-0.0017015	7.02534E-05	5.48924E-05	0	0	0	
0.259833	-0.00190161	-0.000921403	6.75288E-05	6.17573E-05	0	0	0	
0.26	0.00587773	0.001283	7.51867E-05	6.39211E-05	0	0	0	
0.260167	-0.00326364	-0.00129838	9.22552E-05	5.86004E-05	0	0	0	
0.260333	-0.000343015	0.0010039	9.17698E-05	5.0786E-05	0	0	0	
0.2605	-0.000121477	-0.000266157	6.21603E-05	5.26028E-05	0	0	0	
0.260667	0.0052278	0.00324621	5.98657E-05	7.76405E-05	0	0	0	
0.260833	-0.00761661	-0.0032266	7.34784E-05	0.000107962	0	0	0	
0.261	0.00648333	0.00190506	0.000118879	0.000119134	0	0	0	
0.261167	-0.00217866	-0.00134996	0.000131886	0.000103035	0	0	0	
0.261333	0.00321526	0.00128098	0.000110317	7.6402E-05	0	0	0	
0.2615	-0.000670298	0.000130639	7.53065E-05	5.87268E-05	0	0	0	
0.261667	1.348E-05	-0.000510894	7.52388E-05	5.11273E-05	0	0	0	
0.261833	-0.00103661	0.00304847	7.20582E-05	4.18913E-05	0	0	0	
0.262	0.0036185	0.000920049	7.5138E-05	4.31155E-05	0	0	0	
0.262167	-0.00384406	-0.00451608	7.18493E-05	5.83604E-05	0	0	0	
0.262333	0.00341369	0.00180047	7.36211E-05	7.57253E-05	0	0	0	
0.2625	-0.0015583	0.000618769	7.05132E-05	7.85781E-05	0	0	0	
0.262667	0.00755939	-0.000562543	6.82346E-05	6.10991E-05	0	0	0	
0.262833	-0.0117278	-0.00208849	0.000103633	5.5572E-05	0	0	0	
0.263	0.00814309	0.00452295	0.000156852	7.89882E-05	0	0	0	
0.263167	0.00171398	-0.00370949	0.000208484	0.000115482	0	0	0	
0.263333	-0.00341009	0.000386754	0.000205038	0.000111069	0	0	0	
0.2635	0.001448	-0.00128025	0.000143054	7.62487E-05	0	0	0	
0.263667	-0.00117749	0.000114331	7.32501E-05	4.96571E-05	0	0	0	
0.263833	0.0039187	-0.00380654	4.14184E-05	7.96728E-05	0	0	0	
0.264	0.000421688	-0.000874147	4.41409E-05	9.61256E-05	0	0	0	
0.264167	-0.00200197	-0.00331636	4.78224E-05	9.13248E-05	0	0	0	
0.264333	0.00258178	0.0032037	5.26826E-05	7.16791E-05	0	0	0	
0.2645	0.000735181	-0.00197959	7.03908E-05	6.88619E-05	0	0	0	
0.264667	0.00281713	0.00228222	6.45899E-05	6.5562E-05	0	0	0	
0.264833	-0.00992755	-0.00495599	7.78536E-05	6.9981E-05	0	0	0	
0.265	0.0121462	0.00701358	0.000123545	9.45265E-05	0	0	0	
0.265167	-0.00360056	-0.00664622	0.000230118	0.000127116	0	0	0	
0.265333	0.00102089	0.00547472	0.000304451	0.000152071	0	0	0	
0.2655	0.00202306	0.000185148	0.000284837	0.000121904	0	0	0	
0.265667	-0.00474693	0.00027565	0.000188169	7.59355E-05	0	0	0	
0.265833	0.00679321	-0.0045122	0.000113003	3.56903E-05	0	0	0	
0.266	0.00670739	0.00487179	0.000108013	4.09403E-05	0	0	0	
0.266167	-0.0128774	-0.0032717	0.000153448	6.66979E-05	0	0	0	
0.266333	0.0080519	0.00171456	0.000208629	8.43475E-05	0	0	0	
0.2665	0.00229667	-0.00179577	0.00023232	7.67388E-05	0	0	0	
0.266667	-0.00183669	0.00153486	0.000181872	6.06543E-05	0	0	0	
0.266833	-0.00263902	-0.000511661	9.92586E-05	4.25067E-05	0	0	0	
0.267	0.00742097	0.000201627	7.11323E-05	4.5142E-05	0	0	0	
0.267167	-0.00354686	-0.00340435	0.00012438	6.46988E-05	0	0	0	
0.267333	0.00161778	0.00274942	0.000172637	9.59843E-05	0	0	0	
0.2675	0.00018257	-0.00269768	0.000171159	0.000134061	0	0	0	
0.267667	0.000858117	-0.000727447	0.000127286	0.000132821	0	0	0	
0.267833	-0.00215713	-0.000693038	8.13122E-05	9.23556E-05	0	0	0	
0.268	0.00734559	0.00390072	6.35036E-05	5.37152E-05	0	0	0	
0.268167	-0.0104094	-0.00529983	9.84476E-05	6.21086E-05	0	0	0	
0.268333	0.00622504	0.00338072	0.000158904	0.000108307	0	0	0	
0.2685	-0.00112537	-0.00230186	0.000213246	0.000131628	0	0	0	
0.268667	-0.0015897	0.00263383	0.000194198	0.000121483	0	0	0	
0.268833	-0.00122719	-0.00232666	0.000133531	9.124E-05	0	0	0	
0.269	0.00535597	0.00181189	8.13314E-05	6.83517E-05	0	0	0	
0.269167	-0.00434541	-0.00259111	8.55225E-05	6.43237E-05	0	0	0	
0.269333	0.00274925	0.00395743	0.000107124	7.54517E-05	0	0	0	
0.2695	0.00230759	-0.0025105	0.000147325	8.78112E-05	0	0	0	
0.269667	-0.00476328	0.00265801	0.000156108	9.75193E-05	0	0	0	
0.269833	0.000833299	-0.000699369	0.000140191	8.74721E-05	0	0	0	
0.27	0.00272856	3.90341E-06	8.84392E-05	6.90539E-05	0	0	0	
0.270167	-0.00437173	-7.04147E-05	6.41752E-05	4.19323E-05	0	0	0	
0.270333	0.00643609	-0.0020513	8.30971E-05	2.93085E-05	0	0	0	
0.2705	-0.00433372	0.00112557	0.00012299	4.61994E-05	0	0	0	
0.270667	0.00214203	-5.06387E-05	0.000156272	5.88241E-05	0	0	0	
0.270833	-0.00108147	-0.000913465	0.000147003	6.26771E-05	0	0	0	
0.271	0.00528912	0.000525692	0.000111674	4.74405E-05	0	0	0	
0.271167	-0.00545024	0.00131624	8.3452E-05	4.4525E-05	0	0	0	
0.271333	0.00211103	-0.000998567	0.000125724	3.76996E-05	0	0	0	
0.2715	-0.000378687	-0.00191925	0.00017988	3.40681E-05	0	0	0	
0.271667	0.00298872	0.0067258	0.000191065	6.16394E-05	0	0	0	
0.271833	-0.00326685	-0.00248491	0.000162227	0.000100234	0	0	0	
0.272	0.00108476	-0.00116009	0.00012501	0.000129033	0	0	0	
0.272167	-0.00204529	0.000249835	9.6491E-05	9.75408E-05	0	0	0	
0.272333	0.0135002	0.000315288	0.000101147	6.27528E-05	0	0	0	
0.2725	-0.0192158	-0.00165057	0.000177822	4.72921E-05	0	0	0	
0.272667	0.00745762	-8.34223E-05	0.000271469	5.25969E-05	0	0	0	
0.272833	0.00205915	-0.0013393	0.000314886	7.0925E-05	0	0	0	
0.273	-0.000466409	0.00114293	0.000219675	8.86982E-05	0	0	0	
0.273167	-0.00123365	0.000183823	0.000115415	9.63046E-05	0	0	0	
0.273333	-5.73452E-05	0.000470368	3.5885E-05	7.85047E-05	0	0	0	
0.2735	-0.00124571	0.000109317	4.49707E-05	5.52819E-05	0	0	0	
0.273667	0.00928924	-0.00114851	0.000114817	5.84018E-05	0	0	0	
0.273833	-0.0153369	-0.000928567	0.00017746	7.93851E-05	0	0	0	
0.274	0.00522742	0.00109547	0.000248738	8.48863E-05	0	0	0	
0.274167	0.00302078	-0.000950741	0.00028093	6.81212E-05	0	0	0	
0.274333	-0.00472737	0.00219484	0.000244414	4.85517E-05	0	0	0	
0.2745	0.00295479	-0.002419	0.000168048	4.57301E-05	0	0	0	
0.274667	0.0012733	0.00287037	7.5868E-05	7.4954E-05	0	0	0	
0.274833	-0.00779258	-0.00096543	7.57771E-05	0.000112118	0	0	0	
0.275	0.00675082	-0.00112091	9.06696E-05	0.000128049	0	0	0	
0.275167	-0.00565475	0.000388908	0.000136758	0.000104363	0	0	0	
0.275333	0.00103704	0.000896493	0.000140523	6.36823E-05	0	0	0	
0.2755	0.00130501	-0.00111854	0.000132493	3.4793E-05	0	0	0	
0.275667	-0.00113401	0.00238185	8.79295E-05	2.71144E-05	0	0	0	
0.275833	-0.00573822	-0.003453	6.67643E-05	4.04152E-05	0	0	0	
0.276	0.00788358	0.00248377	7.74447E-05	6.25857E-05	0	0	0	
0.276167	-0.0073153	-0.000584155	0.000104742	8.3983E-05	0	0	0	
0.276333	0.00477164	0.000910062	0.000138417	8.36064E-05	0	0	0	
0.2765	-0.00292091	-0.000625338	0.000127101	6.54175E-05	0	0	0	
0.276667	0.00361589	0.000779594	0.000103564	4.05183E-05	0	0	0	
0.276833	-0.00421315	-0.000958224	7.3658E-05	3.60929E-05	0	0	0	
0.277	0.000494013	0.000154983	6.62371E-05	6.3029E-05	0	0	0	
0.277167	-0.00046067	-0.0020117	6.85381E-05	0.000108964	0	0	0	
0.277333	0.00182849	0.000746397	5.96102E-05	0.000130167	0	0	0	
0.2775	-0.000796816	0.000440616	4.72912E-05	0.000108318	0	0	0	
0.277667	0.0014484	0.000116638	3.30891E-05	6.13386E-05	0	0	0	
0.277833	0.000607854	-0.000598414	4.30699E-05	3.14912E-05	0	0	0	
0.278	-0.00154858	-5.28284E-05	7.2096E-05	3.15851E-05	0	0	0	
0.278167	-0.00131797	-0.00303963	9.75443E-05	5.66784E-05	0	0	0	
0.278333	0.00424067	0.00149372	0.000102319	7.83632E-05	0	0	0	
0.2785	-0.00604842	-0.000306832	0.000124767	8.47646E-05	0	0	0	
0.278667	0.021666	0.00132216	0.000186934	6.13746E-05	0	0	0	
0.278833	-0.0286097	-0.00264322	0.000304084	4.35845E-05	0	0	0	
0.279	0.0160885	0.00401821	0.000528512	6.26621E-05	0	0	0	
0.279167	0.0119254	-0.00511022	0.00069929	0.000116403	0	0	0	
0.279333	-0.00824489	0.00141011	0.00062667	0.000146971	0	0	0	
0.2795	-0.00306306	-0.00206331	0.000386664	0.000135833	0	0	0	
0.279667	-0.00257645	-3.33405E-05	0.000144326	8.94618E-05	0	0	0	
0.279833	-0.00649392	-0.000866067	0.000142129	5.44524E-05	0	0	0	
0.28	0.0402167	0.00414396	0.000319894	4.0676E-05	0	0	0	
0.280167	-0.0298788	-0.00311292	0.000491573	4.61063E-05	0	0	0	
0.280333	0.00771082	0.00204064	0.000600068	6.95979E-05	0	0	0	
0.2805	2.35219E-05	-0.000633502	0.000507847	8.56969E-05	0	0	0	
0.280667	0.00881494	-0.000784763	0.000377136	7.355E-05	0	0	0	
0.280833	-0.00860709	-0.00123244	0.000269017	4.52506E-05	0	0	0	
0.281	0.0100589	0.000506929	0.000200407	2.33499E-05	0	0	0	
0.281167	-0.00694224	0.000652586	0.000196807	4.42919E-05	0	0	0	
0.281333	0.00300632	0.00244045	0.000199158	8.52875E-05	0	0	0	
0.2815	-0.0056359	0.0012667	0.000184796	0.000123922	0	0	0	
0.281667	0.0158845	-0.00198844	0.000196113	0.000144492	0	0	0	
0.281833	-0.00994608	0.00145734	0.000206579	0.000130866	0	0	0	
0.282	0.00541529	-0.000439358	0.000205232	9.51681E-05	0	0	0	
0.282167	-0.00759974	-0.000783313	0.000188352	5.57759E-05	0	0	0	
0.282333	0.00527184	0.00389631	0.00014151	5.1825E-05	0	0	0	
0.2825	-0.0063698	-0.00520734	0.00012662	9.03101E-05	0	0	0	
0.282667	0.00264837	0.00372866	0.000130676	0.000134945	0	0	0	
0.282833	-0.00067824	-0.00124415	0.000173317	0.000151448	0	0	0	
0.283	-0.0010015	0.000491999	0.000183415	0.000117499	0	0	0	
0.283167	-0.00278648	-0.000222835	0.000133301	7.33296E-05	0	0	0	
0.283333	0.00206812	-0.000282592	6.54595E-05	5.38024E-05	0	0	0	
0.2835	-0.000416959	0.000484302	7.55501E-05	6.86096E-05	0	0	0	
0.283667	-0.00667047	-0.00183134	0.000140321	9.20339E-05	0	0	0	
0.283833	0.00772479	0.00114642	0.0001734	0.000102179	0	0	0	
0.284	0.00142	-0.000181041	0.000159762	8.91143E-05	0	0	0	
0.284167	-0.00673831	0.000933257	0.000108235	7.01576E-05	0	0	0	
0.284333	0.000503098	-0.00307625	0.00011988	6.18846E-05	0	0	0	
0.2845	-0.00109983	-0.00298879	0.000153428	8.09134E-05	0	0	0	
0.284667	0.00284342	0.00127274	0.000183854	0.000105721	0	0	0	
0.284833	-0.00238366	-0.00275194	0.000210623	0.000131291	0	0	0	
0.285	-0.000947647	-4.58069E-05	0.000255971	0.000116209	0	0	0	
0.285167	0.00562462	-0.00162767	0.00027921	8.15638E-05	0	0	0	
0.285333	-0.00154946	0.00187537	0.000210382	5.11195E-05	0	0	0	
0.2855	-0.00317172	0.00135755	0.000112267	8.83045E-05	0	0	0	
0.285667	0.0040209	-0.00370895	6.17778E-05	0.000155248	0	0	0	
0.285833	-0.00255526	0.00721596	6.7964E-05	0.000204091	0	0	0	
0.286	0.00875918	-0.0187029	7.65261E-05	0.000215591	0	0	0	
0.286167	-0.00600129	-0.0204296	0.00010889	0.000423636	0	0	0	
0.286333	-0.0067268	0.123382	0.00017473	0.000861897	0	0	0	
0.2865	0.0176302	-0.0526	0.000214896	0.00177931	0	0	0	
0.286667	0.0366124	-0.311485	0.000492095	0.00539724	0	0	0	
0.286833	0.0717268	0.574549	0.00115296	0.00915583	0	0	0	
0.287	0.0120488	-0.330187	0.00138911	0.0108842	0	0	0	
0.287167	-0.0104961	0.0465211	0.00110958	0.00855146	0	0	0	
0.287333	-0.00778231	0.0770748	0.000447358	0.0053232	0	0	0	
0.2875	0.0135383	-0.0090021	0.000206643	0.00288752	0	0	0	
0.287667	0.0236497	-0.123207	0.000309227	0.00176681	0	0	0	
0.287833	-0.0176194	0.1002	0.000356817	0.0014692	0	0	0	
0.288	0.013768	0.00627514	0.000366209	0.00207517	0	0	0	
0.288167	-0.00902323	-0.0624464	0.000270998	0.00218625	0	0	0	
0.288333	0.00415033	0.0283003	0.000196536	0.0017037	0	0	0	
0.2885	0.000531016	0.018529	0.000196656	0.00115797	0	0	0	
0.288667	0.000588104	-0.0225236	0.000173258	0.000730276	0	0	0	
0.288833	-0.00203038	-0.007041	0.000123634	0.000655439	0	0	0	
0.289	-0.00257355	0.0275012	8.02129E-05	0.000483778	0	0	0	
0.289167	0.00266156	-0.0151682	9.44903E-05	0.00049267	0	0	0	
0.289333	-0.0014389	-0.00650698	0.000117041	0.000506377	0	0	0	
0.2895	-0.000829336	0.00835635	9.87558E-05	0.000433269	0	0	0	
0.289667	-0.00414441	0.000483014	6.43419E-05	0.000328584	0	0	0	
0.289833	0.00119592	-0.00634164	9.33517E-05	0.000167606	0	0	0	
0.29	0.00428837	0.00575863	0.000112605	0.000147146	0	0	0	
0.290167	-0.00753578	0.0027381	0.000156568	0.000229895	0	0	0	
0.290333	0.00188167	-0.00909038	0.000173925	0.000290355	0	0	0	
0.2905	0.000343567	0.00173998	0.000196095	0.000264848	0	0	0	
0.290667	-0.00536449	0.0049439	0.000192206	0.000175859	0	0	0	
0.290833	0.00599145	-0.00375592	0.000188502	0.000130134	0	0	0	
0.291	-0.000948197	-0.000713782	0.000161411	0.000142651	0	0	0	
0.291167	-0.00568153	0.00312674	0.000120234	0.000157404	0	0	0	
0.291333	0.00260597	7.29174E-05	9.26985E-05	0.000128676	0	0	0	
0.2915	-0.00163505	-0.00353783	0.00012654	9.74989E-05	0	0	0	
0.291667	-0.000859653	0.00208321	0.000166759	0.00010337	0	0	0	
0.291833	0.00388153	-0.0013529	0.00017566	0.000130269	0	0	0	
0.292	0.000926817	-0.00175942	0.000142898	0.000154575	0	0	0	
0.292167	-0.00593401	0.00376819	0.000107112	0.000161797	0	0	0	
0.292333	0.00679711	-0.000807275	0.000111352	0.000145523	0	0	0	
0.2925	-0.00523367	-0.00212316	0.000162048	0.000117806	0	0	0	
0.292667	0.00346713	0.000939798	0.000205386	0.000109802	0	0	0	
0.292833	-0.00160482	0.00121681	0.000241705	0.000123434	0	0	0	
0.293	-0.0072813	-0.00275589	0.000288612	0.000137169	0	0	0	
0.293167	0.0132392	0.00221923	0.000295049	0.000134035	0	0	0	
0.293333	-0.00463644	-0.0020589	0.000293777	0.000124162	0	0	0	
0.2935	-0.014423	0.00280426	0.00031243	0.000117206	0	0	0	
0.293667	0.0221776	-0.00216769	0.000342502	0.000109335	0	0	0	
0.293833	-0.013733	0.00359107	0.000369629	9.89798E-05	0	0	0	
0.294	0.00350706	-0.00296768	0.000361629	0.000100326	0	0	0	
0.294167	0.00482953	0.000503525	0.000387908	0.000113356	0	0	0	
0.294333	-0.0114219	0.000958769	0.000347858	0.000139669	0	0	0	
0.2945	0.00615603	-0.00056276	0.000269395	0.000147145	0	0	0	
0.294667	0.00512731	-0.000380635	0.000171499	0.000137628	0	0	0	
0.294833	-0.00840317	0.00317369	0.000144369	0.00012287	0	0	0	
0.295	0.00412047	-0.00415374	0.0001515	0.000124618	0	0	0	
0.295167	0.000609778	0.00180474	0.000180405	0.000126565	0	0	0	
0.295333	-0.00281548	-0.000369047	0.00015108	0.000119392	0	0	0	
0.2955	0.00334655	0.00149473	0.000110743	9.64215E-05	0	0	0	
0.295667	0.000638836	-0.00391394	7.77708E-05	7.09275E-05	0	0	0	
0.295833	-0.00955419	0.00587506	0.000104528	7.25556E-05	0	0	0	
0.296	0.0103468	-0.00472407	0.000124087	9.57062E-05	0	0	0	
0.296167	-0.00269799	0.00265043	0.000177996	0.000119797	0	0	0	
0.296333	-0.0075495	-0.00125014	0.000225439	0.000127331	0	0	0	
0.2965	0.00816779	0.00256934	0.000224677	0.000127838	0	0	0	
0.296667	-0.000610885	-0.00529613	0.000166606	0.000145895	0	0	0	
0.296833	-0.00105635	0.00755408	8.91545E-05	0.000172327	0	0	0	
0.297	-0.00355299	-0.00463456	8.96632E-05	0.000186038	0	0	0	
0.297167	-0.00183512	0.00237237	7.70479E-05	0.00016403	0	0	0	
0.297333	0.010073	-0.00184688	9.11642E-05	0.000127963	0	0	0	
0.2975	-0.00739312	0.00142276	0.000126019	0.000101457	0	0	0	
0.297667	-0.00476591	0.000630199	0.000254865	0.000100289	0	0	0	
0.297833	0.0108666	-6.83903E-05	0.000325394	0.000104757	0	0	0	
0.298	-0.00808723	-0.000457149	0.000297891	0.000110775	0	0	0	
0.298167	0.00153241	0.00132387	0.000207121	0.000116378	0	0	0	
0.298333	0.00497464	-0.00355767	0.000136908	0.000118207	0	0	0	
0.2985	-0.00451044	0.00171067	0.000114123	0.000117694	0	0	0	
0.298667	0.00208395	-0.00219629	0.000103298	0.000113494	0	0	0	
0.298833	-0.00269475	0.00408713	0.000107957	0.00011165	0	0	0	
0.299	-0.000418633	-0.00209656	0.00010459	0.000102126	0	0	0	
0.299167	0.00492082	0.00102699	9.13175E-05	8.0933E-05	0	0	0	
0.299333	-0.000326018	-0.00243765	7.04191E-05	6.26937E-05	0	0	0	
0.2995	-0.00619235	0.00154874	7.14028E-05	6.94299E-05	0	0	0	
0.299667	0.00440503	-0.00300181	9.90388E-05	0.000101848	0	0	0	
0.299833	0.00749479	0.00388095	0.000200239	0.000132291	0	0	0	
0.3	-0.0138223	-0.00357571	0.000272438	0.000133269	0	0	0	
0.300167	0.00984604	0.00446819	0.000292547	0.000122822	0	0	0	
0.300333	-0.00314041	-0.00351371	0.000225219	0.000122696	0	0	0	
0.3005	0.000464447	0.00275127	0.000142884	0.000139923	0	0	0	
0.300667	-0.00166554	-0.00153535	7.67285E-05	0.000159094	0	0	0	
0.300833	-0.00388615	0.000425283	3.39061E-05	0.000163595	0	0	0	
0.301	0.0141018	-0.00125829	7.00179E-05	0.000163408	0	0	0	
0.301167	-0.0115192	0.00348865	0.0001571	0.00016718	0	0	0	
0.301333	0.00263762	-0.00280183	0.000286361	0.000162029	0	0	0	
0.3015	0.00651543	0.00138154	0.000366148	0.000129204	0	0	0	
0.301667	-0.00688448	0.000925151	0.000330031	8.80036E-05	0	0	0	
0.301833	0.000601238	-0.00111767	0.000216376	6.26247E-05	0	0	0	
0.302	0.00376537	0.000120474	0.00010856	6.05591E-05	0	0	0	
0.302167	0.000916973	-0.00089823	6.67964E-05	6.7564E-05	0	0	0	
0.302333	0.00259542	0.00144026	5.09831E-05	7.85194E-05	0	0	0	
0.3025	-0.00200569	0.00252281	4.05827E-05	0.000101022	0	0	0	
0.302667	-0.00128391	-0.0046496	5.41349E-05	0.000136598	0	0	0	
0.302833	0.00206466	0.00533756	5.75998E-05	0.00015629	0	0	0	
0.303	0.0057916	-0.00298679	6.76165E-05	0.000147177	0	0	0	
0.303167	-0.00784464	0.000281577	7.49667E-05	0.000112314	0	0	0	
0.303333	0.00357221	-0.00186031	0.000129415	9.96556E-05	0	0	0	
0.3035	0.001998	0.0022984	0.000201283	0.000106713	0	0	0	
0.303667	-0.00439263	-0.00146211	0.000249361	0.000114127	0	0	0	
0.303833	0.00884946	0.00166098	0.000248189	0.000112985	0	0	0	
0.304	-0.00413402	-0.00343926	0.000192037	0.00011241	0	0	0	
0.304167	-0.00376622	0.00201916	0.000157465	0.000113666	0	0	0	
0.304333	0.00583238	-0.000506318	0.000113973	9.7423E-05	0	0	0	
0.3045	0.00118027	-0.00135947	0.000148331	7.54822E-05	0	0	0	
0.304667	-0.00406377	-0.00307698	0.000124035	5.74999E-05	0	0	0	
0.304833	-0.0050837	0.00244659	0.000164032	7.08551E-05	0	0	0	
0.305	0.0139162	-0.00258929	0.000140224	8.91752E-05	0	0	0	
0.305167	-0.00358229	0.00378029	0.000195517	0.000116355	0	0	0	
0.305333	-0.00498797	-0.00459438	0.00024212	0.000126748	0	0	0	
0.3055	0.0099878	0.00406805	0.000256087	0.000130858	0	0	0	
0.305667	-0.00808602	-0.00599239	0.000219428	0.000126747	0	0	0	
0.305833	0.00552305	0.00539313	0.000165901	0.000128623	0	0	0	
0.306	-0.000737709	-0.00595957	0.000149511	0.000122905	0	0	0	
0.306167	-0.00430616	0.0017431	0.0001465	0.000115706	0	0	0	
0.306333	0.00675855	-0.00189196	0.000121681	0.000101271	0	0	0	
0.3065	0.000422638	0.00166576	0.000167985	0.000107041	0	0	0	
0.306667	-0.00936939	-0.00282774	0.000247715	0.000103379	0	0	0	
0.306833	0.0106909	0.00309354	0.0003017	0.000106939	0	0	0	
0.307	-0.00371819	-0.00554989	0.000245714	0.000118229	0	0	0	
0.307167	0.000543606	0.00416714	0.000159301	0.000147564	0	0	0	
0.307333	-0.00511795	-0.00594192	0.000142177	0.000148704	0	0	0	
0.3075	0.00467497	0.00464269	0.000136613	0.000136986	0	0	0	
0.307667	0.00138488	-0.00560737	0.000129812	0.000113926	0	0	0	
0.307833	-0.0102113	0.00520385	0.000105112	0.000124297	0	0	0	
0.308	0.0073018	-0.00166478	0.000161009	0.000126754	0	0	0	
0.308167	-0.000658715	0.00185128	0.000219551	0.000125998	0	0	0	
0.308333	-0.00179552	-0.00588102	0.000267591	0.000120587	0	0	0	
0.3085	0.0105952	0.00675441	0.000239971	0.000137799	0	0	0	
0.308667	-0.0117346	-0.00770535	0.000231562	0.000171007	0	0	0	
0.308833	-0.000363811	0.00646956	0.000197562	0.000190042	0	0	0	
0.309	0.00256688	-0.00124598	0.000154221	0.000165483	0	0	0	
0.309167	-0.00318413	0.000988855	9.50863E-05	0.000110301	0	0	0	
0.309333	0.0074841	-0.00548951	8.2549E-05	8.5871E-05	0	0	0	
0.3095	0.00188152	0.00314389	0.000148935	0.000104394	0	0	0	
0.309667	-0.0175091	0.00012505	0.000251674	0.000128058	0	0	0	
0.309833	0.0154859	0.000186462	0.000324651	0.000131565	0	0	0	
0.31	-0.0019925	-0.00351936	0.000271141	0.000130279	0	0	0	
0.310167	-0.0042931	0.0037041	0.000164737	0.000139156	0	0	0	
0.310333	0.000874932	-0.00490928	0.000113056	0.000132472	0	0	0	
0.3105	0.000566333	0.00476912	0.000126414	0.000127127	0	0	0	
0.310667	0.00166299	-0.00671547	0.000119872	0.000126121	0	0	0	
0.310833	-0.000899372	0.00562494	9.60659E-05	0.000129221	0	0	0	
0.311	-0.00639877	-0.00449625	0.000130908	0.000120741	0	0	0	
0.311167	0.00899924	0.00280876	0.000174034	0.000108238	0	0	0	
0.311333	0.000154557	-0.00299728	0.000183448	9.64788E-05	0	0	0	
0.3115	-0.00477333	0.00297899	0.000147033	9.21686E-05	0	0	0	
0.311667	0.00120363	-0.00436789	0.000114765	0.000111794	0	0	0	
0.311833	0.000159446	0.00289988	0.000120306	0.000141925	0	0	0	
0.312	-0.00241308	-0.00213605	0.000145239	0.00015106	0	0	0	
0.312167	0.00633075	0.00150229	0.000182038	0.000142932	0	0	0	
0.312333	-0.00639374	-0.00422947	0.000164861	0.000136123	0	0	0	
0.3125	0.00489402	0.00538	0.000134997	0.000143467	0	0	0	
0.312667	-0.0059398	-0.00423318	0.000129345	0.000150873	0	0	0	
0.312833	0.00179352	0.00389894	0.000135977	0.000145026	0	0	0	
0.313	0.00308011	-0.00535236	0.000120899	0.000131785	0	0	0	
0.313167	-0.00262154	0.00397182	9.57633E-05	0.000111983	0	0	0	
0.313333	-0.00155361	-0.00287048	9.6204E-05	9.61955E-05	0	0	0	
0.3135	0.000175192	0.00158364	0.000121817	8.75748E-05	0	0	0	
0.313667	-0.000615315	-0.00177068	0.000146767	9.09546E-05	0	0	0	
0.313833	0.0010784	0.00391897	0.000170981	9.84615E-05	0	0	0	
0.314	-0.00528053	-0.00655629	0.000178966	0.000113972	0	0	0	
0.314167	0.00497872	0.00452147	0.000161419	0.000133503	0	0	0	
0.314333	-0.000992972	-0.0050619	0.0001062	0.00014498	0	0	0	
0.3145	-0.00167829	0.00452935	7.05564E-05	0.000145475	0	0	0	
0.314667	0.000280417	-0.00597766	7.82014E-05	0.000131775	0	0	0	
0.314833	-0.000504003	0.00629399	0.000102937	0.000131915	0	0	0	
0.315	-0.00043013	-0.00644443	0.000116704	0.000132549	0	0	0	
0.315167	0.00228779	0.00332958	0.000111129	0.000138332	0	0	0	
0.315333	-0.00108967	-0.00415232	0.000108249	0.000126033	0	0	0	
0.3155	0.00290896	0.00352263	0.00010352	0.000119978	0	0	0	
0.315667	-7.58591E-05	-0.00449593	9.52982E-05	0.000117393	0	0	0	
0.315833	-0.000836831	0.00499206	9.32927E-05	0.000134841	0	0	0	
0.316	-0.00405883	-0.00606122	0.000142025	0.0001453	0	0	0	
0.316167	0.0114471	0.00706137	0.000191617	0.000152154	0	0	0	
0.316333	-0.00459002	-0.00725702	0.000201659	0.000150615	0	0	0	
0.3165	-0.00567944	0.00532197	0.000176207	0.0001457	0	0	0	
0.316667	0.0055415	-0.00341182	0.000141227	0.00012916	0	0	0	
0.316833	0.00106354	0.00207511	0.000177015	0.000107479	0	0	0	
0.317	-0.00217953	-0.00365799	0.000176223	9.28544E-05	0	0	0	
0.317167	0.00240548	0.00506666	0.000181877	9.66896E-05	0	0	0	
0.317333	-0.00375863	-0.00503742	0.000164935	0.000109503	0	0	0	
0.3175	0.00507803	0.0033097	0.000151633	0.00011644	0	0	0	
0.317667	-0.00136758	-0.00219998	0.000120613	0.000109992	0	0	0	
0.317833	-0.00121374	0.00233504	6.67053E-05	8.93471E-05	0	0	0	
0.318	0.0013862	-0.00524332	3.8887E-05	7.8073E-05	0	0	0	
0.318167	-0.00208412	0.0059465	4.7633E-05	8.69867E-05	0	0	0	
