0	-0.00272355	-6.7757E-06	2.72355E-07	6.7757E-10	0	0	0	
0.000166667	-0.000262318	-0.00142193	4.20315E-05	1.58032E-05	0	0	0	
0.000333333	0.00572455	0.00248419	9.60638E-05	3.20607E-05	0	0	0	
0.0005	0.0048875	-0.00152083	0.000145306	4.55627E-05	0	0	0	
0.000666667	-0.0303187	0.00145094	0.000212379	4.08777E-05	0	0	0	
0.000833333	0.0250824	-0.00171288	0.000383225	3.55438E-05	0	0	0	
0.001	0.0148326	0.000784975	0.000856923	3.36301E-05	0	0	0	
0.00116667	-0.0415912	-4.74452E-05	0.00130405	3.93863E-05	0	0	0	
0.00133333	0.0300217	0.00164314	0.00144632	5.1414E-05	0	0	0	
0.0015	-0.0027638	-0.000713404	0.00110412	4.87773E-05	0	0	0	
0.00166667	-0.0167707	-0.00207709	0.0007088	4.01556E-05	0	0	0	
0.00183333	0.0224063	0.00195242	0.000577634	3.23584E-05	0	0	0	
0.002	-0.0270788	-0.000102504	0.000722543	4.0462E-05	0	0	0	
0.00216667	0.0306962	0.00279386	0.00104182	4.36506E-05	0	0	0	
0.00233333	-0.0201397	-0.00374709	0.00139766	5.04868E-05	0	0	0	
0.0025	0.00583504	0.0034109	0.00163244	5.93836E-05	0	0	0	
0.00266667	-0.00689423	-0.000626563	0.00157107	6.43399E-05	0	0	0	
0.00283333	0.00716133	0.000490327	0.00130422	5.09476E-05	0	0	0	
0.003	0.000768288	-0.000920342	0.00107232	4.06129E-05	0	0	0	
0.00316667	-0.00900006	0.00263946	0.000945705	3.90555E-05	0	0	0	
0.00333333	0.0037338	-0.00222033	0.000799366	4.6061E-05	0	0	0	
0.0035	0.0113447	0.000964768	0.000584452	4.12308E-05	0	0	0	
0.00366667	-0.0231512	-0.000651975	0.000465661	4.06189E-05	0	0	0	
0.00383333	0.0185699	0.00318918	0.000541673	5.88721E-05	0	0	0	
0.004	0.00170574	-0.00262054	0.000748756	6.91851E-05	0	0	0	
0.00416667	-0.0140225	0.00156921	0.000830895	7.10393E-05	0	0	0	
0.00433333	0.00625817	-0.00165137	0.00069855	5.1874E-05	0	0	0	
0.0045	-7.63447E-05	0.00597337	0.000485122	5.86089E-05	0	0	0	
0.00466667	0.00824118	-0.00347225	0.000405887	7.08315E-05	0	0	0	
0.00483333	-0.0106839	-0.000581725	0.000378941	8.34098E-05	0	0	0	
0.005	-0.00128971	0.00139676	0.000308435	6.11697E-05	0	0	0	
0.00516667	0.00482949	0.00194667	0.000154482	4.46168E-05	0	0	0	
0.00533333	-0.00272803	-0.0027967	0.000113874	3.38117E-05	0	0	0	
0.0055	0.0128209	0.00118347	0.000128535	5.05455E-05	0	0	0	
0.00566667	-0.0212488	0.00120723	0.000210855	4.59207E-05	0	0	0	
0.00583333	0.00325119	0.00483201	0.000309671	6.25969E-05	0	0	0	
0.006	0.0149909	-0.00849862	0.000374289	8.37912E-05	0	0	0	
0.00616667	-0.000248132	0.00368684	0.000386928	0.000128782	0	0	0	
0.00633333	-0.0216436	0.0016485	0.00039565	0.000146744	0	0	0	
0.0065	0.0152717	0.000559658	0.000386151	0.000122161	0	0	0	
0.00666667	-0.00098402	-0.00276869	0.000389724	0.000117411	0	0	0	
0.00683333	0.000357721	0.00433312	0.000270919	9.94525E-05	0	0	0	
0.007	-0.00356189	-0.00478412	0.000185729	0.00011639	0	0	0	
0.00716667	0.00141139	0.00335497	8.59859E-05	9.78188E-05	0	0	0	
0.00733333	-0.00864313	-0.000489575	9.59362E-05	7.47844E-05	0	0	0	
0.0075	0.0125192	0.000522662	0.000144688	5.23818E-05	0	0	0	
0.00766667	-0.00714132	0.00400766	0.000191917	3.70718E-05	0	0	0	
0.00783333	-2.47176E-05	-0.00369262	0.000218803	5.09036E-05	0	0	0	
0.008	0.00312484	-0.000883534	0.000211528	7.12575E-05	0	0	0	
0.00816667	-0.00851111	0.00263636	0.000173347	7.01971E-05	0	0	0	
0.00833333	-0.00410187	0.00349108	0.000193156	8.30326E-05	0	0	0	
0.0085	0.0258915	-0.00199577	0.000289443	7.98E-05	0	0	0	
0.00866667	-0.0242411	-0.00322021	0.000400764	8.94823E-05	0	0	0	
0.00883333	-0.00477845	0.00486152	0.000553197	7.54115E-05	0	0	0	
0.009	0.0184091	-0.000406634	0.00058942	8.68567E-05	0	0	0	
0.00916667	-0.00717631	-0.00144342	0.000516113	9.89483E-05	0	0	0	
0.00933333	-0.00639332	-0.00215224	0.000299566	8.40701E-05	0	0	0	
0.0095	0.00547367	0.00426838	0.00015403	6.18234E-05	0	0	0	
0.00966667	-0.00943353	-0.0021573	0.000138766	5.82637E-05	0	0	0	
0.00983333	0.0166636	0.000536206	0.000183561	6.17198E-05	0	0	0	
0.01	-0.0102528	-0.00270538	0.000261947	5.29349E-05	0	0	0	
0.0101667	-0.000792936	0.0012945	0.000356621	3.65685E-05	0	0	0	
0.0103333	-0.00684383	-0.000526841	0.000333796	3.23616E-05	0	0	0	
0.0105	0.0187561	0.0041025	0.000292861	4.78854E-05	0	0	0	
0.0106667	-0.0114474	-0.0067603	0.000307095	6.80244E-05	0	0	0	
0.0108333	-0.00850902	0.0034376	0.000458821	9.47305E-05	0	0	0	
0.011	0.0105026	-0.00198143	0.000463273	8.98955E-05	0	0	0	
0.0111667	0.00846052	0.0021478	0.000379433	6.98931E-05	0	0	0	
0.0113333	-0.0211765	-0.000424514	0.000253581	4.84111E-05	0	0	0	
0.0115	0.0111607	0.000693094	0.000304109	3.44467E-05	0	0	0	
0.0116667	-0.00394457	-0.00429325	0.000320953	4.55413E-05	0	0	0	
0.0118333	0.0173098	0.0047767	0.000319512	6.2218E-05	0	0	0	
0.012	-0.0233083	-0.00388058	0.000295136	8.22199E-05	0	0	0	
0.0121667	0.00483657	0.00293288	0.000349428	7.81877E-05	0	0	0	
0.0123333	0.00225176	-0.00335154	0.000337119	7.15489E-05	0	0	0	
0.0125	0.0140892	0.00315437	0.00028996	6.7232E-05	0	0	0	
0.0126667	-0.0158298	-0.0034779	0.000233094	6.96353E-05	0	0	0	
0.0128333	-0.00577953	0.00263787	0.000319463	6.65056E-05	0	0	0	
0.013	0.0112617	-0.000810578	0.000303865	5.40292E-05	0	0	0	
0.0131667	0.0074976	0.00212185	0.000330197	4.14607E-05	0	0	0	
0.0133333	-0.0175468	-0.00264308	0.000256718	4.11423E-05	0	0	0	
0.0135	0.00689734	0.00215762	0.000299668	5.22787E-05	0	0	0	
0.0136667	0.000841404	-0.00125304	0.000270682	5.86847E-05	0	0	0	
0.0138333	0.00380091	0.00205907	0.000205493	6.23959E-05	0	0	0	
0.014	-0.0111982	-0.000689961	0.000151664	5.70951E-05	0	0	0	
0.0141667	0.00697116	-0.00232038	0.000136594	5.01745E-05	0	0	0	
0.0143333	-0.00128451	0.0046995	0.000182462	4.74821E-05	0	0	0	
0.0145	0.00379484	-0.00277501	0.000164052	5.99293E-05	0	0	0	
0.0146667	-0.00722758	0.00110334	0.000133857	7.33399E-05	0	0	0	
0.0148333	-0.000102506	-0.00190367	0.000155132	6.41524E-05	0	0	0	
0.015	0.00361436	0.00412852	0.000215793	5.31227E-05	0	0	0	
0.0151667	-0.000943592	-0.00445124	0.000213201	5.79613E-05	0	0	0	
0.0153333	-0.000350716	0.00486097	0.000158758	7.96629E-05	0	0	0	
0.0155	0.000172703	-0.00274069	0.000102178	8.54511E-05	0	0	0	
0.0156667	-0.00866581	0.000978683	8.83845E-05	6.96713E-05	0	0	0	
0.0158333	0.0148754	0.000864034	0.000134207	4.14212E-05	0	0	0	
0.016	-0.00920361	0.000217691	0.000201707	3.35914E-05	0	0	0	
0.0161667	0.000480472	-0.000663865	0.000268092	3.95488E-05	0	0	0	
0.0163333	-0.005674	0.00181959	0.000224402	5.11186E-05	0	0	0	
0.0165	0.0102557	-0.00137878	0.000179123	6.28231E-05	0	0	0	
0.0166667	-0.00528331	0.00398244	0.000152306	6.23832E-05	0	0	0	
0.0168333	0.00643554	-0.000881471	0.000164983	6.57477E-05	0	0	0	
0.017	-0.017488	-0.00197713	0.000192418	4.75993E-05	0	0	0	
0.0171667	0.00729511	-0.00101186	0.000237953	6.74585E-05	0	0	0	
0.0173333	0.0289879	0.00804141	0.000494353	7.98782E-05	0	0	0	
0.0175	-0.0462352	-0.00376677	0.00070226	0.000120747	0	0	0	
0.0176667	0.0285832	-0.00143612	0.000829134	0.000140081	0	0	0	
0.0178333	-0.0134144	-0.000757888	0.000679427	0.000118706	0	0	0	
0.018	0.00944643	0.00198173	0.000522924	7.84796E-05	0	0	0	
0.0181667	0.0167664	0.00576246	0.000342153	6.39658E-05	0	0	0	
0.0183333	-0.0409605	-0.00665723	0.000381445	9.0359E-05	0	0	0	
0.0185	0.0177417	-0.00313408	0.000645054	0.000150823	0	0	0	
0.0186667	0.0185157	0.0126617	0.00110727	0.000176758	0	0	0	
0.0188333	-0.0141215	-0.0099676	0.00122728	0.000207673	0	0	0	
0.019	-0.0089707	0.00337367	0.000981581	0.000193605	0	0	0	
0.0191667	0.014291	-0.00124243	0.000650639	0.000156665	0	0	0	
0.0193333	-0.0141038	0.00100376	0.000499591	0.000109728	0	0	0	
0.0195	0.0187632	0.000919144	0.000467188	7.12826E-05	0	0	0	
0.0196667	-0.0159931	-0.000488695	0.000384535	4.54835E-05	0	0	0	
0.0198333	0.000543241	-0.00141541	0.000380556	3.84831E-05	0	0	0	
0.02	0.00490495	0.00282948	0.000360333	4.33714E-05	0	0	0	
0.0201667	0.0113102	-0.00216273	0.000300286	5.53745E-05	0	0	0	
0.0203333	-0.0267525	0.000703068	0.000259162	5.38799E-05	0	0	0	
0.0205	0.0228652	0.00357516	0.000339951	5.36856E-05	0	0	0	
0.0206667	-0.00298873	-0.00328418	0.000503231	5.50214E-05	0	0	0	
0.0208333	-0.00825246	-0.0021373	0.000561897	8.32777E-05	0	0	0	
0.021	0.00194003	0.00383092	0.000442447	7.87905E-05	0	0	0	
0.0211667	0.00819474	0.00430917	0.000265625	9.42983E-05	0	0	0	
0.0213333	-0.0103133	-0.00509325	0.000145522	8.20779E-05	0	0	0	
0.0215	0.00732266	-0.00163321	0.000154298	0.000108121	0	0	0	
0.0216667	-0.00744114	0.00355738	0.000179735	9.53433E-05	0	0	0	
0.0218333	0.00993086	0.00272015	0.000182838	9.02949E-05	0	0	0	
0.022	-0.0128246	-0.00206254	0.00020698	5.87119E-05	0	0	0	
0.0221667	0.00587662	-0.00168167	0.000263894	6.87442E-05	0	0	0	
0.0223333	0.00376336	-0.000244842	0.000318692	4.9259E-05	0	0	0	
0.0225	-0.00586771	0.00400297	0.000280721	5.01066E-05	0	0	0	
0.0226667	-0.00325818	-0.00171028	0.000200606	4.61827E-05	0	0	0	
0.0228333	0.0137973	0.000295081	0.000159986	8.21537E-05	0	0	0	
0.023	-0.0181501	-9.04812E-05	0.000202546	8.91884E-05	0	0	0	
0.0231667	0.01598	0.00144195	0.00028057	8.20937E-05	0	0	0	
0.0233333	-0.0150798	0.000237545	0.000319149	6.91585E-05	0	0	0	
0.0235	0.0137255	-0.00102795	0.000324582	6.77939E-05	0	0	0	
0.0236667	-0.00853607	0.000705389	0.00031447	6.02002E-05	0	0	0	
0.0238333	0.00191139	0.000435788	0.000290969	4.47585E-05	0	0	0	
0.024	-0.00657324	-0.00142161	0.000223085	3.93383E-05	0	0	0	
0.0241667	0.0158391	0.00116753	0.000189166	4.22535E-05	0	0	0	
0.0243333	-0.00925155	-0.0018994	0.000207413	5.03755E-05	0	0	0	
0.0245	-0.00615928	0.00174545	0.000288387	5.54626E-05	0	0	0	
0.0246667	0.00322894	-0.000565226	0.000243333	6.08989E-05	0	0	0	
0.0248333	0.0191292	0.00075386	0.000279434	5.81028E-05	0	0	0	
0.025	-0.0313633	-0.00201163	0.0003157	5.05476E-05	0	0	0	
0.0251667	0.0183303	0.00142242	0.000483301	4.45631E-05	0	0	0	
0.0253333	-0.000486189	-0.000148822	0.00053005	5.42464E-05	0	0	0	
0.0255	0.00238048	-0.00176804	0.000442429	5.69266E-05	0	0	0	
0.0256667	-0.0124342	-0.000814823	0.000302704	4.62493E-05	0	0	0	
0.0258333	0.0073823	0.00181749	0.000230327	2.72484E-05	0	0	0	
0.026	0.000771695	-0.000928468	0.00027859	2.37576E-05	0	0	0	
0.0261667	0.00549654	0.00127522	0.000251806	2.63512E-05	0	0	0	
0.0263333	-0.0126699	-0.0031839	0.000199786	3.52557E-05	0	0	0	
0.0265	0.00401364	0.00216118	0.000209134	4.14042E-05	0	0	0	
0.0266667	0.000116107	-0.00171563	0.000277136	5.10348E-05	0	0	0	
0.0268333	0.00971788	0.00113805	0.000256235	4.64316E-05	0	0	0	
0.027	-0.0153367	-0.00196506	0.000220135	4.12009E-05	0	0	0	
0.0271667	0.00552694	0.00277414	0.000261771	3.47389E-05	0	0	0	
0.0273333	-0.00111062	-0.00334103	0.000328173	4.55377E-05	0	0	0	
0.0275	0.0115953	0.00207215	0.000298655	5.28661E-05	0	0	0	
0.0276667	-0.0169926	-0.00140292	0.00026691	5.49886E-05	0	0	0	
0.0278333	-0.00933525	0.00288635	0.000367941	5.05707E-05	0	0	0	
0.028	0.0376346	-0.00380703	0.000542033	5.77789E-05	0	0	0	
0.0281667	-0.0357123	0.00246095	0.000649656	6.11052E-05	0	0	0	
0.0283333	0.0143444	0.000880551	0.000648801	6.9614E-05	0	0	0	
0.0285	-0.00270984	-0.00311377	0.000530622	6.51319E-05	0	0	0	
0.0286667	0.00803832	0.00315609	0.000414466	6.5992E-05	0	0	0	
0.0288333	-0.0283188	-0.0027269	0.000419053	5.96082E-05	0	0	0	
0.029	0.0401071	0.000973304	0.000552196	4.90194E-05	0	0	0	
0.0291667	-0.0221485	0.00165419	0.000644501	5.43086E-05	0	0	0	
0.0293333	-0.00229886	-0.00513633	0.000508365	5.61893E-05	0	0	0	
0.0295	0.0148418	0.00267864	0.000366013	7.44646E-05	0	0	0	
0.0296667	-0.0152368	0.001026	0.00041058	9.62182E-05	0	0	0	
0.0298333	0.00231713	-0.00244466	0.000650343	0.000109251	0	0	0	
0.03	0.0144093	0.00100999	0.000878606	9.93063E-05	0	0	0	
0.0301667	-0.0177239	0.000425326	0.000888155	5.82561E-05	0	0	0	
0.0303333	0.00884829	-0.00307316	0.000727092	3.67548E-05	0	0	0	
0.0305	0.00282786	0.00213958	0.000503839	3.45866E-05	0	0	0	
0.0306667	-0.00937385	0.00106487	0.000345168	5.57945E-05	0	0	0	
0.0308333	0.0142521	-9.69911E-05	0.000279873	5.24363E-05	0	0	0	
0.031	-0.0151266	-0.00124156	0.000290638	4.35783E-05	0	0	0	
0.0311667	0.0187522	-0.000928788	0.00034646	3.89693E-05	0	0	0	
0.0313333	-0.0304413	0.000801847	0.000442026	3.62384E-05	0	0	0	
0.0315	0.025871	0.00300175	0.000631504	3.58661E-05	0	0	0	
0.0316667	0.00343347	-0.00181804	0.000900789	3.42907E-05	0	0	0	
0.0318333	-0.0188495	0.00103659	0.000970635	4.03088E-05	0	0	0	
0.032	-0.0034185	-0.00360102	0.000725999	4.79583E-05	0	0	0	
0.0321667	0.0298911	0.00245965	0.000461716	5.29176E-05	0	0	0	
0.0323333	-0.0300107	0.0018181	0.000393153	7.57123E-05	0	0	0	
0.0325	0.0112707	-0.000217299	0.000578693	7.37219E-05	0	0	0	
0.0326667	-0.00489775	-0.00255697	0.000631623	6.13411E-05	0	0	0	
0.0328333	0.00870353	0.000119875	0.000569145	4.9442E-05	0	0	0	
0.033	-0.00923616	0.00248932	0.000458911	5.51161E-05	0	0	0	
0.0331667	-0.00320598	0.00146628	0.000422085	5.25041E-05	0	0	0	
0.0333333	0.00988327	-0.00184219	0.000419387	3.908E-05	0	0	0	
0.0335	-0.00459044	-0.00115072	0.000343421	6.054E-05	0	0	0	
0.0336667	-0.000966966	0.00172559	0.000204158	8.01582E-05	0	0	0	
0.0338333	0.00181689	0.00124188	9.79876E-05	7.42988E-05	0	0	0	
0.034	-0.0121056	-0.00155427	0.000103202	4.40388E-05	0	0	0	
0.0341667	0.0276332	0.000154019	0.000215202	4.04701E-05	0	0	0	
0.0343333	-0.0256291	0.000482318	0.000366813	5.0249E-05	0	0	0	
0.0345	0.00651839	0.00227858	0.000515169	4.83998E-05	0	0	0	
0.0346667	0.00280641	-0.00175863	0.000518388	3.64802E-05	0	0	0	
0.0348333	0.00810177	0.00186005	0.000377885	3.69756E-05	0	0	0	
0.035	-0.018834	-0.00107502	0.000245074	3.6356E-05	0	0	0	
0.0351667	0.0105518	0.00106501	0.000230968	3.40525E-05	0	0	0	
0.0353333	-0.00107886	0.000207592	0.000326757	2.97339E-05	0	0	0	
0.0355	0.00581725	0.000565711	0.000280927	3.3653E-05	0	0	0	
0.0356667	-0.0194184	0.00097859	0.000245643	2.97925E-05	0	0	0	
0.0358333	0.0189779	0.00075133	0.000240187	2.35554E-05	0	0	0	
0.036	-0.00997528	-0.000753708	0.000330003	2.39756E-05	0	0	0	
0.0361667	0.00649213	0.00187338	0.000354381	2.40184E-05	0	0	0	
0.0363333	-0.010289	-0.000703499	0.0003269	2.89964E-05	0	0	0	
0.0365	0.0134222	0.00128971	0.000313256	2.20042E-05	0	0	0	
0.0366667	-0.00966145	-0.00160508	0.000340214	2.5969E-05	0	0	0	
0.0368333	0.00227198	0.00176578	0.000372866	2.56282E-05	0	0	0	
0.037	0.00448264	-4.50371E-05	0.000297548	2.80133E-05	0	0	0	
0.0371667	0.00421305	-0.00208979	0.000209922	3.29729E-05	0	0	0	
0.0373333	-0.00716242	0.00225986	0.000145551	4.44291E-05	0	0	0	
0.0375	-0.00418259	-0.00139278	0.000139309	6.27532E-05	0	0	0	
0.0376667	0.000293714	0.00309269	0.000114807	8.82455E-05	0	0	0	
0.0378333	0.0169829	-0.00125869	0.000180058	0.000107148	0	0	0	
0.038	-0.0295223	-0.000706252	0.000315208	9.78673E-05	0	0	0	
0.0381667	0.0185618	0.00254193	0.000443686	8.31599E-05	0	0	0	
0.0383333	0.00895565	-0.00142401	0.000530582	8.54783E-05	0	0	0	
0.0385	-0.0219604	0.00295958	0.000473798	0.000112708	0	0	0	
0.0386667	-0.00420514	-0.00379026	0.00047816	0.000128573	0	0	0	
0.0388333	0.0289667	0.00446667	0.000440106	0.000134351	0	0	0	
0.039	-0.00586345	-0.00318846	0.000455957	0.000138204	0	0	0	
0.0391667	-0.0240389	0.00151821	0.000528963	0.000129115	0	0	0	
0.0393333	0.0184608	-0.00143048	0.000484155	9.98577E-05	0	0	0	
0.0395	0.0118045	0.00492192	0.000616646	7.62958E-05	0	0	0	
0.0396667	-0.0185507	-0.00302851	0.000540294	6.82874E-05	0	0	0	
0.0398333	0.00924107	0.00279393	0.00052544	7.61584E-05	0	0	0	
0.04	-0.0272778	-0.00133534	0.000434261	6.97973E-05	0	0	0	
0.0401667	0.0421299	0.00168227	0.000471951	6.23559E-05	0	0	0	
0.0403333	-0.0110916	-0.000882564	0.000670384	5.74409E-05	0	0	0	
0.0405	-0.0263745	0.00145365	0.000784867	5.50765E-05	0	0	0	
0.0406667	0.0162179	-0.000775995	0.000717166	5.53333E-05	0	0	0	
0.0408333	0.0107092	0.00273571	0.000689393	4.70875E-05	0	0	0	
0.041	-0.0226512	0.00107614	0.000598896	4.17575E-05	0	0	0	
0.0411667	0.013827	-0.00278523	0.000570039	3.58388E-05	0	0	0	
0.0413333	0.00811365	-0.0011121	0.000418433	5.84465E-05	0	0	0	
0.0415	-0.0141894	0.00453055	0.000296512	8.78807E-05	0	0	0	
0.0416667	-0.00864985	-0.00444663	0.000321892	0.000105955	0	0	0	
0.0418333	0.0135613	0.00314372	0.000247878	9.05623E-05	0	0	0	
0.042	0.0141934	-0.00481367	0.000393741	8.10743E-05	0	0	0	
0.0421667	-0.0273125	-0.00109621	0.000433398	9.78137E-05	0	0	0	
0.0423333	-0.00411258	0.00400098	0.00051154	0.000113888	0	0	0	
0.0425	0.0208065	-0.00156964	0.000375189	9.91383E-05	0	0	0	
0.0426667	-0.00393672	0.000196867	0.000394561	5.7686E-05	0	0	0	
0.0428333	-0.00472855	-0.0019567	0.000377503	2.84973E-05	0	0	0	
0.043	-0.0145606	-0.000746314	0.000370778	2.53036E-05	0	0	0	
0.0431667	0.0132078	0.0021761	0.000266351	3.04819E-05	0	0	0	
0.0433333	0.00476216	0.00035014	0.000328543	4.25732E-05	0	0	0	
0.0435	-0.0119528	-0.000109899	0.000352474	3.87514E-05	0	0	0	
0.0436667	-0.00425048	-0.00326317	0.000333	4.10611E-05	0	0	0	
0.0438333	0.0119411	0.00172013	0.000201103	3.80534E-05	0	0	0	
0.044	8.55796E-05	0.00114547	0.000233427	5.64916E-05	0	0	0	
0.0441667	-0.0112971	-0.000307465	0.000277593	5.00422E-05	0	0	0	
0.0443333	-0.00113037	-0.0028024	0.000260229	4.45512E-05	0	0	0	
0.0445	0.0151401	-0.000103278	0.00020142	4.85271E-05	0	0	0	
0.0446667	-0.0140382	0.00214004	0.000194497	7.16029E-05	0	0	0	
0.0448333	0.00289412	-0.00150007	0.000295822	7.12175E-05	0	0	0	
0.045	-0.00522062	0.00046684	0.000299868	4.95412E-05	0	0	0	
0.0451667	0.0162623	-0.00255974	0.000278645	2.99741E-05	0	0	0	
0.0453333	-0.0133504	0.00132278	0.000275757	3.95634E-05	0	0	0	
0.0455	-0.0044121	0.0023436	0.000392986	5.75231E-05	0	0	0	
0.0456667	0.00980666	-0.000680556	0.000411941	5.66671E-05	0	0	0	
0.0458333	0.00283618	-0.00100124	0.000350697	4.147E-05	0	0	0	
0.046	-0.0147391	-0.00214403	0.00023673	3.49797E-05	0	0	0	
0.0461667	0.0107978	0.00345208	0.00022399	4.51583E-05	0	0	0	
0.0463333	-0.00673661	-0.00146154	0.000231182	7.03053E-05	0	0	0	
0.0465	0.0110744	-0.000388682	0.000219489	8.43993E-05	0	0	0	
0.0466667	-0.0131063	0.000315242	0.000229763	7.23571E-05	0	0	0	
0.0468333	0.000286579	0.0012928	0.000268399	5.20376E-05	0	0	0	
0.047	0.00798228	0.0010193	0.000301181	3.80054E-05	0	0	0	
0.0471667	-0.00159982	-0.000778477	0.000235301	3.6576E-05	0	0	0	
0.0473333	-0.0107095	-0.0032468	0.000166343	4.08024E-05	0	0	0	
0.0475	0.0142977	0.00309225	0.000148631	3.93448E-05	0	0	0	
0.0476667	-0.00677233	0.000446007	0.000247238	5.50862E-05	0	0	0	
0.0478333	-0.00295039	-0.000876047	0.000314827	4.8871E-05	0	0	0	
0.048	-0.000174544	-0.0016259	0.000276427	3.52852E-05	0	0	0	
0.0481667	0.00703204	0.000808264	0.000184825	3.17355E-05	0	0	0	
0.0483333	-0.00392696	0.000185627	0.000149047	5.00727E-05	0	0	0	
0.0485	-0.00500594	-0.000428208	0.000207212	5.8948E-05	0	0	0	
0.0486667	0.000980671	-0.000172035	0.000209485	4.83507E-05	0	0	0	
0.0488333	0.00724691	-0.00106811	0.000153513	3.42087E-05	0	0	0	
0.049	-0.00690146	0.000817912	0.000127886	3.81437E-05	0	0	0	
0.0491667	-0.0049935	0.000309452	0.000243064	4.85022E-05	0	0	0	
0.0493333	0.00934103	-0.0001779	0.00033679	5.33922E-05	0	0	0	
0.0495	-0.0048	-0.000331908	0.000301437	4.45049E-05	0	0	0	
0.0496667	-0.00598989	-0.00080425	0.000188273	3.1092E-05	0	0	0	
0.0498333	0.0103156	-0.000217005	0.000123975	2.00787E-05	0	0	0	
0.05	-0.00911542	0.00077492	0.000176515	1.43659E-05	0	0	0	
0.0501667	0.00755559	0.00345151	0.000261864	2.81785E-05	0	0	0	
0.0503333	-0.00628515	-0.00593939	0.000340125	5.59703E-05	0	0	0	
0.0505	-0.00185534	0.00195511	0.000390685	7.88574E-05	0	0	0	
0.0506667	0.0135144	0.00262047	0.000412792	7.13267E-05	0	0	0	
0.0508333	-0.0127409	0.00242163	0.000361401	5.99719E-05	0	0	0	
0.051	-0.0119327	-0.00192038	0.000349797	5.54154E-05	0	0	0	
0.0511667	0.0296817	0.00348385	0.000330325	6.34241E-05	0	0	0	
0.0513333	-0.01344	-0.00545511	0.000447616	7.62879E-05	0	0	0	
0.0515	-0.00804569	0.00371636	0.000506031	8.14999E-05	0	0	0	
0.0516667	-0.000830067	0.00261883	0.000399481	7.84015E-05	0	0	0	
0.0518333	0.0123067	-0.00345305	0.00026321	7.06233E-05	0	0	0	
0.052	-0.00708596	0.000716371	0.000156412	0.000100045	0	0	0	
0.0521667	0.0041753	0.0038995	0.000206064	0.000144553	0	0	0	
0.0523333	-0.0173405	-0.00526208	0.00021784	0.000176577	0	0	0	
0.0525	0.0183441	0.00651277	0.000249653	0.00016966	0	0	0	
0.0526667	-0.00183751	-0.00454057	0.000328787	0.000142834	0	0	0	
0.0528333	-0.00594952	-9.27946E-05	0.000354785	9.87265E-05	0	0	0	
0.053	-0.0046211	0.0025188	0.000260333	6.4759E-05	0	0	0	
0.0531667	0.013423	-0.00498784	0.000171523	5.45721E-05	0	0	0	
0.0533333	-0.0129549	0.00507935	0.00016808	7.2035E-05	0	0	0	
0.0535	0.00832165	0.00019582	0.000250395	0.000119878	0	0	0	
0.0536667	-0.0030244	-0.00442573	0.000293261	0.000161087	0	0	0	
0.0538333	-0.00268029	0.0033418	0.00029584	0.000165341	0	0	0	
0.054	-0.00106911	-0.000812693	0.000229388	0.000122572	0	0	0	
0.0541667	0.0108523	0.00251817	0.000167408	7.40517E-05	0	0	0	
0.0543333	-0.0109626	-0.000873985	0.000155347	5.36435E-05	0	0	0	
0.0545	8.22378E-05	-0.00398772	0.000237661	7.0986E-05	0	0	0	
0.0546667	-0.00108369	0.00439799	0.000243563	7.71169E-05	0	0	0	
0.0548333	0.0137334	-0.00106942	0.000206347	9.23208E-05	0	0	0	
0.055	-0.0164213	0.00210137	0.00019519	6.72836E-05	0	0	0	
0.0551667	0.00148494	-0.00303712	0.00031265	6.8229E-05	0	0	0	
0.0553333	0.00585016	0.000740269	0.000385481	5.2033E-05	0	0	0	
0.0555	0.00481009	0.000673615	0.00030001	5.7532E-05	0	0	0	
0.0556667	-0.0152945	-9.31385E-05	0.000200577	6.89858E-05	0	0	0	
0.0558333	0.00845829	0.00168333	0.000200034	7.4493E-05	0	0	0	
0.056	0.00153297	-0.00279283	0.000310644	8.40975E-05	0	0	0	
0.0561667	0.000644502	0.000173162	0.000292624	9.44522E-05	0	0	0	
0.0563333	-0.00768996	0.00176068	0.000209335	9.82057E-05	0	0	0	
0.0565	0.00375968	0.00256229	0.000158537	7.85131E-05	0	0	0	
0.0566667	0.00296348	-0.0039132	0.000207395	5.4977E-05	0	0	0	
0.0568333	0.000285229	0.00216212	0.000196404	6.41539E-05	0	0	0	
0.057	-0.0103238	-0.00119227	0.000150093	7.98836E-05	0	0	0	
0.0571667	0.0118145	0.0016774	0.00013421	7.47802E-05	0	0	0	
0.0573333	-0.0038299	-0.000855081	0.00021521	5.64732E-05	0	0	0	
0.0575	-0.00242264	1.86459E-05	0.00025553	4.83417E-05	0	0	0	
0.0576667	-0.0046429	0.00062409	0.000197528	4.29229E-05	0	0	0	
0.0578333	0.0113787	-4.87603E-05	0.000140703	3.10261E-05	0	0	0	
0.058	-0.0112226	-0.000267456	0.000153547	1.88788E-05	0	0	0	
0.0581667	0.00417036	-0.000807335	0.000238421	1.61224E-05	0	0	0	
0.0583333	0.00106087	-0.00102236	0.000268766	1.81291E-05	0	0	0	
0.0585	-0.000313903	0.00182028	0.000209017	2.56377E-05	0	0	0	
0.0586667	-0.0040961	-0.00256683	0.0001199	3.31921E-05	0	0	0	
0.0588333	0.0056959	0.000936199	7.36086E-05	3.80264E-05	0	0	0	
0.059	-0.00866715	-0.00272581	9.72666E-05	3.96236E-05	0	0	0	
0.0591667	0.0123369	0.00261462	0.000151888	4.42594E-05	0	0	0	
0.0593333	-0.0134785	-0.00154923	0.000200553	4.69557E-05	0	0	0	
0.0595	0.00792753	-0.00123357	0.000237648	4.23484E-05	0	0	0	
0.0596667	-0.00248474	-0.00110642	0.000253545	4.18586E-05	0	0	0	
0.0598333	0.00185103	0.00261613	0.000219322	4.5926E-05	0	0	0	
0.06	-0.0113409	-0.00136191	0.000180642	5.09237E-05	0	0	0	
0.0601667	0.019005	0.00134178	0.00019519	4.60759E-05	0	0	0	
0.0603333	-0.0220211	-0.000769971	0.000274147	4.43701E-05	0	0	0	
0.0605	0.0110451	-0.00115807	0.000365241	4.08644E-05	0	0	0	
0.0606667	0.0020907	-0.00131155	0.000417747	4.31523E-05	0	0	0	
0.0608333	-0.00453156	0.00528847	0.000351574	4.87086E-05	0	0	0	
0.061	-0.0121659	-0.00265015	0.000275138	6.60736E-05	0	0	0	
0.0611667	0.0178227	0.00220455	0.000215936	7.09946E-05	0	0	0	
0.0613333	-0.00693044	-0.00517802	0.000267835	7.63139E-05	0	0	0	
0.0615	-0.0032677	0.00654997	0.000300929	8.64005E-05	0	0	0	
0.0616667	-0.000660198	0.00140292	0.00022258	0.000119034	0	0	0	
0.0618333	0.00600239	-0.00265749	0.000147496	0.00010474	0	0	0	
0.062	-0.0129724	-0.0040169	0.000115129	0.00011044	0	0	0	
0.0621667	0.0168235	0.0040722	0.000188723	7.75157E-05	0	0	0	
0.0623333	-0.00878545	0.000483469	0.000279089	9.18909E-05	0	0	0	
0.0625	-0.0067238	0.000885956	0.000385179	5.75995E-05	0	0	0	
0.0626667	0.00710473	-0.00397884	0.000382601	6.17145E-05	0	0	0	
0.0628333	-0.00133647	-0.000500171	0.000272312	4.97607E-05	0	0	0	
0.063	-0.00407717	0.00189949	0.000127562	5.36508E-05	0	0	0	
0.0631667	0.0134585	0.00181564	0.000102525	5.19675E-05	0	0	0	
0.0633333	-0.0193365	-0.00539804	0.000183562	5.90536E-05	0	0	0	
0.0635	0.00536131	0.000862677	0.000306762	7.90125E-05	0	0	0	
0.0636667	0.00820076	0.00093387	0.000377232	8.23835E-05	0	0	0	
0.0638333	0.000971087	0.000254705	0.000303638	6.22507E-05	0	0	0	
0.064	-0.0166898	-0.00143901	0.000207359	3.70342E-05	0	0	0	
0.0641667	0.0124582	-0.0014637	0.000190064	2.12983E-05	0	0	0	
0.0643333	-0.00528442	4.09295E-05	0.000283752	2.9297E-05	0	0	0	
0.0645	0.00851192	0.00209323	0.000293533	4.44805E-05	0	0	0	
0.0646667	-0.0101355	-0.00151453	0.000247762	4.37695E-05	0	0	0	
0.0648333	0.00364671	-0.00131692	0.000217104	4.13138E-05	0	0	0	
0.065	-0.00780399	-0.00111687	0.00022222	3.8271E-05	0	0	0	
0.0651667	0.0162094	0.00479615	0.000240135	5.73099E-05	0	0	0	
0.0653333	-0.0113244	-0.00139342	0.000293984	7.0033E-05	0	0	0	
0.0655	-0.00186655	-0.00465022	0.000374354	8.54914E-05	0	0	0	
0.0656667	-0.00582562	0.00394102	0.000318119	7.81541E-05	0	0	0	
0.0658333	0.023624	7.57458E-05	0.000266771	8.44479E-05	0	0	0	
0.066	-0.0191774	0.000762149	0.000286374	5.40608E-05	0	0	0	
0.0661667	-0.00556086	-0.00219249	0.000501312	4.08971E-05	0	0	0	
0.0663333	0.0101163	-0.00148646	0.000532256	3.70197E-05	0	0	0	
0.0665	0.00761914	0.000680107	0.000418685	3.51667E-05	0	0	0	
0.0666667	-0.0165123	0.00288117	0.000246641	5.93246E-05	0	0	0	
0.0668333	0.00638338	-0.00373735	0.0002344	6.40685E-05	0	0	0	
0.067	-0.00553386	0.00213915	0.000233478	7.79509E-05	0	0	0	
0.0671667	0.0172382	-0.000106823	0.000234549	5.09899E-05	0	0	0	
0.0673333	-0.0183049	-0.00234809	0.000247553	3.37619E-05	0	0	0	
0.0675	0.00273546	0.00234946	0.000377247	3.33064E-05	0	0	0	
0.0676667	0.000279148	-0.000157126	0.00042343	4.81362E-05	0	0	0	
0.0678333	0.00865868	0.000622646	0.00034448	4.98188E-05	0	0	0	
0.068	-0.0108176	-0.00115474	0.000237467	4.13388E-05	0	0	0	
0.0681667	-0.00121318	0.000170036	0.000240776	3.94097E-05	0	0	0	
0.0683333	0.00782595	0.000771274	0.000286088	3.6122E-05	0	0	0	
0.0685	0.000615299	0.00346799	0.000239292	4.75604E-05	0	0	0	
0.0686667	-0.0142885	-0.00440663	0.000186827	5.42096E-05	0	0	0	
0.0688333	0.0195334	0.00365344	0.000203127	7.35455E-05	0	0	0	
0.069	-0.0162648	-0.00219396	0.000291963	7.16365E-05	0	0	0	
0.0691667	0.0122683	0.00228156	0.000330249	6.05738E-05	0	0	0	
0.0693333	-0.00579631	-0.0025452	0.000333131	4.72692E-05	0	0	0	
0.0695	-0.0046572	0.00177721	0.000331347	4.55806E-05	0	0	0	
0.0696667	0.0088972	-0.00059433	0.00029495	4.32654E-05	0	0	0	
0.0698333	-0.00150278	0.00124667	0.000216456	3.28757E-05	0	0	0	
0.07	-0.00902212	-0.0020009	0.000169557	2.7911E-05	0	0	0	
0.0701667	0.0144456	0.00206389	0.000169232	3.12416E-05	0	0	0	
0.0703333	-0.0152555	-0.000903476	0.000235058	4.90201E-05	0	0	0	
0.0705	0.0112484	0.00142533	0.000276744	5.50057E-05	0	0	0	
0.0706667	-0.00669337	-0.00243216	0.000306805	4.92605E-05	0	0	0	
0.0708333	0.00666832	0.00142854	0.000285554	4.12846E-05	0	0	0	
0.071	-0.00958586	-0.00147401	0.0002376	3.62165E-05	0	0	0	
0.0711667	0.00746534	0.00251678	0.000199552	3.9438E-05	0	0	0	
0.0713333	-0.00712514	-0.00493729	0.00019167	4.87165E-05	0	0	0	
0.0715	0.011728	0.00496443	0.000193202	7.13803E-05	0	0	0	
0.0716667	-0.0136193	-0.00091052	0.000212076	8.51757E-05	0	0	0	
0.0718333	0.00922509	0.000999232	0.000244541	7.39466E-05	0	0	0	
0.072	-0.00820966	-0.00308438	0.000250165	4.84548E-05	0	0	0	
0.0721667	0.0140191	0.00110738	0.000240129	4.16114E-05	0	0	0	
0.0723333	-0.0107874	0.00191719	0.000256498	6.09666E-05	0	0	0	
0.0725	-0.00304689	-0.00114282	0.000338919	6.00566E-05	0	0	0	
0.0726667	0.00249664	-0.0061537	0.000309513	6.88944E-05	0	0	0	
0.0728333	0.0137858	0.00883357	0.000271456	8.18512E-05	0	0	0	
0.073	-0.0195735	-0.00628461	0.000218179	0.000127285	0	0	0	
0.0731667	0.0139696	0.00475545	0.000298921	0.000149443	0	0	0	
0.0733333	-0.0184815	-0.00390159	0.000337001	0.000150434	0	0	0	
0.0735	0.0153578	-0.00084806	0.00037431	0.000147539	0	0	0	
0.0736667	0.0118892	0.0018268	0.000458073	0.000142161	0	0	0	
0.0738333	-0.00282435	-0.000884572	0.000384622	0.000108206	0	0	0	
0.074	-0.0700179	-0.00488233	0.000579617	8.39364E-05	0	0	0	
0.0741667	0.0818937	0.00810538	0.000839511	7.569E-05	0	0	0	
0.0743333	0.0192818	-0.00395502	0.00178955	0.000107627	0	0	0	
0.0745	-0.087116	3.29339E-07	0.00228679	0.000109257	0	0	0	
0.0746667	0.0351419	-0.00259715	0.00213462	8.68874E-05	0	0	0	
0.0748333	0.0169663	0.000634973	0.00144638	6.02855E-05	0	0	0	
0.075	-0.00891989	-0.0012069	0.000687479	4.71306E-05	0	0	0	
0.0751667	0.0173266	0.00327273	0.000477166	4.50294E-05	0	0	0	
0.0753333	-0.0679975	-0.00265961	0.00047536	4.89574E-05	0	0	0	
0.0755	0.0697098	-0.000875405	0.000838042	6.02052E-05	0	0	0	
0.0756667	-0.0131049	0.000273498	0.00127995	5.65069E-05	0	0	0	
0.0758333	-0.0156169	0.000887677	0.00123626	5.32687E-05	0	0	0	
0.076	-0.0186045	0.00606119	0.000965123	7.80343E-05	0	0	0	
0.0761667	0.042444	-0.00675193	0.000587563	0.000106945	0	0	0	
0.0763333	-0.0146512	0.00141924	0.00066798	0.000135167	0	0	0	
0.0765	-0.0330315	0.000958783	0.000929169	0.000104637	0	0	0	
0.0766667	0.0439999	0.00293821	0.000989853	7.76659E-05	0	0	0	
0.0768333	-0.0105887	-2.66911E-05	0.000920241	4.96308E-05	0	0	0	
0.077	-0.0227554	-0.00393625	0.000772988	5.19821E-05	0	0	0	
0.0771667	0.0174149	0.000311503	0.000655272	6.5478E-05	0	0	0	
0.0773333	0.000263169	0.00397659	0.000491038	7.38698E-05	0	0	0	
0.0775	0.00395379	0.000924352	0.00027278	7.26644E-05	0	0	0	
0.0776667	-0.0313724	-0.00347867	0.000350504	6.81186E-05	0	0	0	
0.0778333	0.0375842	0.0011909	0.000443518	7.38219E-05	0	0	0	
0.078	-0.0128223	0.0108528	0.000655408	0.000113031	0	0	0	
0.0781667	-0.0255528	-0.0321587	0.000735205	0.000261199	0	0	0	
0.0783333	-0.0589189	0.0445467	0.00128489	0.00042749	0	0	0	
0.0785	0.0239659	-0.0134597	0.00140693	0.000542285	0	0	0	
0.0786667	-0.00680325	-0.00501696	0.00130738	0.00050636	0	0	0	
0.0788333	0.0176963	0.013967	0.000652365	0.000382002	0	0	0	
0.079	-0.0533339	-0.0145639	0.000523361	0.000312729	0	0	0	
0.0791667	0.0726498	0.0057061	0.000740801	0.000233831	0	0	0	
0.0793333	0.00412351	-0.0165612	0.000984331	0.000296799	0	0	0	
0.0795	0.0809027	0.0053088	0.00174504	0.000314237	0	0	0	
0.0796667	-0.0321139	-0.00813408	0.00174647	0.000330942	0	0	0	
0.0798333	0.00996835	0.0165433	0.00166641	0.000275427	0	0	0	
0.08	0.00125438	-0.0182214	0.000837901	0.000270893	0	0	0	
0.0801667	-0.0118987	0.00994198	0.000476528	0.000295299	0	0	0	
0.0803333	-0.0019188	-0.0141548	0.000425312	0.000310076	0	0	0	
0.0805	0.0233525	0.012777	0.000526133	0.000317101	0	0	0	
0.0806667	-0.0446782	-0.0128331	0.000786075	0.000353768	0	0	0	
0.0808333	0.0520169	0.0180469	0.000898923	0.000370916	0	0	0	
0.081	-0.0557504	-0.0166236	0.000916536	0.000368659	0	0	0	
0.0811667	0.0407936	0.0174205	0.00101288	0.000348474	0	0	0	
0.0813333	0.004414	-0.0394759	0.00109097	0.000359967	0	0	0	
0.0815	-0.0225103	0.0213506	0.00112117	0.000496106	0	0	0	
0.0816667	0.0410813	-0.0208526	0.000935122	0.000545346	0	0	0	
0.0818333	-0.0234628	0.0114891	0.000716223	0.000497103	0	0	0	
0.082	0.00385701	-0.00932972	0.000511405	0.000306453	0	0	0	
0.0821667	0.00874393	0.00722874	0.000404296	0.00020249	0	0	0	
0.0823333	-0.0132859	-0.0108435	0.000295063	0.000184661	0	0	0	
0.0825	0.0133982	0.00773559	0.000256473	0.000265608	0	0	0	
0.0826667	-0.0102326	-0.00577398	0.000329344	0.000260917	0	0	0	
0.0828333	0.00453103	-0.00227728	0.000425031	0.000260074	0	0	0	
0.083	-0.00111349	-0.00444709	0.000483095	0.000125861	0	0	0	
0.0831667	0.000367637	0.00563466	0.000433273	0.000107811	0	0	0	
0.0833333	-0.00363819	-0.00549189	0.0003722	8.6268E-05	0	0	0	
0.0835	0.00693819	0.00813695	0.000294763	0.000115629	0	0	0	
0.0836667	-0.0221035	-0.00788473	0.000279157	0.000135696	0	0	0	
0.0838333	0.0195087	0.00881101	0.000554174	0.000193899	0	0	0	
0.084	-0.00899413	-0.00452972	0.000527584	0.000250487	0	0	0	
0.0841667	0.00675352	0.00205884	0.000521389	0.000235401	0	0	0	
0.0843333	0.00144937	8.04194E-05	0.000257964	0.000154322	0	0	0	
0.0845	-0.0153236	-0.0036333	0.000309074	7.58035E-05	0	0	0	
0.0846667	0.00919248	0.00470831	0.000286346	7.25786E-05	0	0	0	
0.0848333	0.0284594	-0.00815749	0.000387793	0.000102244	0	0	0	
0.085	0.00497986	-0.00152559	0.000584297	0.000144445	0	0	0	
0.0851667	0.0112095	-0.00571392	0.000554304	0.000130433	0	0	0	
0.0853333	-0.0106776	0.00479872	0.00041327	0.000122161	0	0	0	
0.0855	0.00822005	-0.00158126	0.000180245	8.37073E-05	0	0	0	
0.0856667	0.0026013	0.0015855	0.000260444	0.000119336	0	0	0	
0.0858333	-0.00820529	-0.00703603	0.000275381	0.000166721	0	0	0	
0.086	-0.00852878	0.00709518	0.000251165	0.000215801	0	0	0	
0.0861667	0.0178065	-0.00725376	0.00021299	0.000221187	0	0	0	
0.0863333	-0.00439873	0.0079025	0.000239628	0.000192432	0	0	0	
0.0865	-0.00574958	-0.00319734	0.000266752	0.000151543	0	0	0	
0.0866667	-0.0105103	-0.00159578	0.00028647	0.000107947	0	0	0	
0.0868333	0.0298223	0.00161991	0.000322248	7.76639E-05	0	0	0	
0.087	-0.0337447	0.00429779	0.000443489	8.19158E-05	0	0	0	
0.0871667	0.0304962	-0.00202747	0.000559824	7.3748E-05	0	0	0	
0.0873333	-0.0273827	-0.00293868	0.000627817	9.76636E-05	0	0	0	
0.0875	0.0121349	0.00534529	0.000648347	9.36828E-05	0	0	0	
0.0876667	0.0071763	-0.00313324	0.000622959	0.000109926	0	0	0	
0.0878333	-0.00832399	0.00208962	0.000462941	8.15397E-05	0	0	0	
0.088	-0.00811076	-0.00241683	0.000362701	6.03169E-05	0	0	0	
0.0881667	0.0236405	-0.000180376	0.000313606	4.59523E-05	0	0	0	
0.0883333	-0.0286755	0.0020207	0.000414057	3.38886E-05	0	0	0	
0.0885	0.0227947	-0.000183938	0.000466774	4.38141E-05	0	0	0	
0.0886667	-0.0139215	-0.00183081	0.000468239	6.2837E-05	0	0	0	
0.0888333	0.0102604	0.00245355	0.00042048	8.20161E-05	0	0	0	
0.089	-0.0149683	-0.00180168	0.000349927	7.45279E-05	0	0	0	
0.0891667	0.0161172	0.000691928	0.000320485	5.06101E-05	0	0	0	
0.0893333	-0.00734232	0.000521528	0.000344591	3.06965E-05	0	0	0	
0.0895	0.00183341	0.00172528	0.0003438	2.98127E-05	0	0	0	
0.0896667	-0.00637318	-0.0022144	0.000267452	3.24859E-05	0	0	0	
0.0898333	0.00798186	-0.000157191	0.000201504	4.15107E-05	0	0	0	
0.09	-0.000778152	-0.00275378	0.000203051	3.80302E-05	0	0	0	
0.0901667	0.00115817	0.00672306	0.000193102	5.96692E-05	0	0	0	
0.0903333	-0.0123611	-0.00494385	0.000182305	8.36724E-05	0	0	0	
0.0905	0.0179384	0.00036029	0.000180628	0.000112404	0	0	0	
0.0906667	-0.0142068	0.000638233	0.000259188	9.67813E-05	0	0	0	
0.0908333	0.00881941	0.00162877	0.000308083	6.33734E-05	0	0	0	
0.091	-0.00795923	-0.00136745	0.00032132	3.78581E-05	0	0	0	
0.0911667	0.00699565	-0.000233011	0.000309231	3.22038E-05	0	0	0	
0.0913333	-0.00612206	-0.00264614	0.000283955	4.0654E-05	0	0	0	
0.0915	0.00487349	0.00356279	0.0002319	4.19128E-05	0	0	0	
0.0916667	-0.0105003	-0.000896964	0.000187496	5.04561E-05	0	0	0	
0.0918333	0.0146527	0.00134931	0.000184639	4.37699E-05	0	0	0	
0.092	-0.0085488	-0.00284623	0.000229882	4.29307E-05	0	0	0	
0.0921667	-0.00390485	0.00112184	0.000292663	3.61031E-05	0	0	0	
0.0923333	0.00274524	-0.000119675	0.000240064	4.20762E-05	0	0	0	
0.0925	0.0104457	0.00182384	0.000214938	3.69181E-05	0	0	0	
0.0926667	-0.0179763	-0.000675285	0.000180859	5.46562E-05	0	0	0	
0.0928333	0.00982707	-0.00256108	0.000278498	7.35679E-05	0	0	0	
0.093	-0.00147106	0.000399059	0.000306996	7.12519E-05	0	0	0	
0.0931667	0.00281169	0.00251869	0.000272718	5.79373E-05	0	0	0	
0.0933333	-0.00522306	-0.00105371	0.000197234	3.9898E-05	0	0	0	
0.0935	0.00295998	0.000418843	0.000147988	4.40315E-05	0	0	0	
0.0936667	-0.00609145	-0.00239661	0.00013977	3.69644E-05	0	0	0	
0.0938333	0.012361	0.00237156	0.000150135	4.43247E-05	0	0	0	
0.094	-0.0131551	0.000516829	0.000186658	5.33532E-05	0	0	0	
0.0941667	0.00799969	-0.000879041	0.000242188	4.76886E-05	0	0	0	
0.0943333	-0.00652758	-0.00118546	0.000253676	4.3504E-05	0	0	0	
0.0945	0.00745075	0.00102584	0.000215719	3.63655E-05	0	0	0	
0.0946667	-0.00850761	5.30067E-05	0.000178755	3.46131E-05	0	0	0	
0.0948333	0.00656305	-0.000689435	0.000156935	2.11166E-05	0	0	0	
0.095	-0.006669	0.000405178	0.000152293	1.40024E-05	0	0	0	
0.0951667	0.0050632	0.000744718	0.000138607	2.36074E-05	0	0	0	
0.0953333	-0.00486159	-0.00181443	0.000128784	3.12612E-05	0	0	0	
0.0955	0.00640077	-4.33611E-05	0.000118719	2.98694E-05	0	0	0	
0.0956667	-0.012019	0.00183495	0.000136955	2.39992E-05	0	0	0	
0.0958333	0.0104151	-0.000876675	0.000165725	2.38569E-05	0	0	0	
0.096	-0.00708498	-0.00121326	0.000197169	3.26794E-05	0	0	0	
0.0961667	0.0046696	0.00104462	0.000188884	3.13581E-05	0	0	0	
0.0963333	-0.00847368	0.000748385	0.000174779	3.64352E-05	0	0	0	
0.0965	0.00847478	-0.000660617	0.000177236	2.46822E-05	0	0	0	
0.0966667	-0.0067193	0.000210261	0.000197927	2.64667E-05	0	0	0	
0.0968333	0.00428746	-0.00156601	0.000191277	1.97131E-05	0	0	0	
0.097	-0.00672587	0.00256465	0.000160202	2.75767E-05	0	0	0	
0.0971667	0.00811569	-0.000537872	0.000137703	4.029E-05	0	0	0	
0.0973333	-0.0109427	-0.00166354	0.000150941	4.5129E-05	0	0	0	
0.0975	0.0102122	0.000801004	0.00017872	4.39722E-05	0	0	0	
0.0976667	-0.0121211	0.000171507	0.000202846	3.93011E-05	0	0	0	
0.0978333	0.0117353	-0.000286888	0.000220372	3.94425E-05	0	0	0	
0.098	-0.00767333	0.00131335	0.000237007	4.16449E-05	0	0	0	
0.0981667	0.000738561	-0.000733798	0.000224704	3.34497E-05	0	0	0	
0.0983333	-0.00502166	-0.0012366	0.000171813	2.33204E-05	0	0	0	
0.0985	0.0150576	0.00111869	0.000167758	2.41128E-05	0	0	0	
0.0986667	-0.0221059	0.000992861	0.000224515	3.64639E-05	0	0	0	
0.0988333	0.0196546	0.000370867	0.000330091	4.0331E-05	0	0	0	
0.099	-0.0176952	-0.000131227	0.000368321	3.35792E-05	0	0	0	
0.0991667	0.0152843	0.000130848	0.000358423	1.73811E-05	0	0	0	
0.0993333	-0.0148198	-0.00160587	0.000328498	1.79126E-05	0	0	0	
0.0995	0.0166429	0.00191303	0.000316321	2.24528E-05	0	0	0	
0.0996667	-0.0155403	0.0011136	0.00033105	3.43594E-05	0	0	0	
0.0998333	-0.000778487	-0.00269933	0.000342826	4.82546E-05	0	0	0	
0.1	0.0105675	0.00392451	0.000295405	6.28461E-05	0	0	0	
0.100167	0.00367095	-0.00496129	0.00027133	7.97683E-05	0	0	0	
0.100333	-0.0238248	5.24146E-05	0.000308761	7.2162E-05	0	0	0	
0.1005	0.0247107	0.00490677	0.000389184	5.99252E-05	0	0	0	
0.100667	-0.0181029	-0.00113028	0.000444074	6.44067E-05	0	0	0	
0.100833	0.0151241	-0.00356901	0.000420917	0.000106285	0	0	0	
0.101	-0.00853314	0.00280219	0.000412	0.000149477	0	0	0	
0.101167	-0.00436288	-0.00336433	0.000412804	0.000164969	0	0	0	
0.101333	0.00262306	0.00327885	0.00032815	0.000150231	0	0	0	
0.1015	0.0145487	0.00230796	0.000295701	0.000114354	0	0	0	
0.101667	-0.0289918	-0.00380847	0.000272784	8.98482E-05	0	0	0	
0.101833	0.023292	0.000999839	0.000404922	7.37606E-05	0	0	0	
0.102	-0.00966004	-0.0033438	0.000494787	7.21728E-05	0	0	0	
0.102167	0.000468425	0.00777551	0.000524487	8.43007E-05	0	0	0	
0.102333	-0.0010974	-0.00578945	0.000442446	0.000107834	0	0	0	
0.1025	0.00599261	0.00175047	0.000299923	0.000149061	0	0	0	
0.102667	-0.00879363	-0.00202228	0.000199779	0.000142081	0	0	0	
0.102833	0.00596554	0.00317773	0.000168123	0.000113663	0	0	0	
0.103	-0.00996763	0.000719036	0.000173398	8.31293E-05	0	0	0	
0.103167	0.0179465	-0.00235845	0.000197292	6.80303E-05	0	0	0	
0.103333	-0.0154751	-0.000637012	0.000248858	6.88954E-05	0	0	0	
0.1035	0.00715474	0.00295455	0.000304192	5.11332E-05	0	0	0	
0.103667	-0.00758245	-0.000917963	0.000276613	4.89603E-05	0	0	0	
0.103833	0.0179872	0.00157083	0.000253787	3.9836E-05	0	0	0	
0.104	-0.0240003	-0.00342405	0.00027222	4.78677E-05	0	0	0	
0.104167	0.0156322	0.00207117	0.000366652	4.82843E-05	0	0	0	
0.104333	-4.20689E-05	-0.00292469	0.000437304	5.38759E-05	0	0	0	
0.1045	-0.00136357	0.00360923	0.000374651	5.4108E-05	0	0	0	
0.104667	-0.0129414	-0.00154428	0.000269995	7.10668E-05	0	0	0	
0.104833	0.0191874	-6.20938E-05	0.000207312	7.1582E-05	0	0	0	
0.105	-0.0103956	-0.00236043	0.000269109	6.4294E-05	0	0	0	
0.105167	0.00757249	0.0049008	0.000302027	5.38681E-05	0	0	0	
0.105333	-0.0162172	-0.0024712	0.000280719	7.26919E-05	0	0	0	
0.1055	0.0152183	0.00151487	0.000273234	8.22526E-05	0	0	0	
0.105667	-0.00429385	-0.00346789	0.000318217	7.66766E-05	0	0	0	
0.105833	0.00140832	0.00463339	0.000292586	6.52464E-05	0	0	0	
0.106	-0.0113023	-0.00268277	0.000231967	6.78629E-05	0	0	0	
0.106167	0.019469	0.00328485	0.00020489	6.88503E-05	0	0	0	
0.106333	-0.0173286	-0.00484131	0.000273432	7.35101E-05	0	0	0	
0.1065	0.0109423	0.00476178	0.000337867	7.90963E-05	0	0	0	
0.106667	-0.00974751	-0.0034157	0.000326023	8.83082E-05	0	0	0	
0.106833	0.01218	0.00268056	0.000285838	7.98706E-05	0	0	0	
0.107	-0.00936885	-0.00293991	0.000260222	6.99617E-05	0	0	0	
0.107167	0.0051501	0.00326887	0.000274501	5.90176E-05	0	0	0	
0.107333	-0.00695034	-0.00410385	0.000269161	6.41969E-05	0	0	0	
0.1075	0.00850348	0.00317532	0.000245818	6.72087E-05	0	0	0	
0.107667	-0.00553936	-0.00426897	0.000239999	7.56548E-05	0	0	0	
0.107833	0.000169137	0.00566822	0.000241906	7.96554E-05	0	0	0	
0.108	-0.00861033	-0.00472833	0.000202529	8.93955E-05	0	0	0	
0.108167	0.0243169	0.000857977	0.000205285	9.63638E-05	0	0	0	
0.108333	-0.0148051	0.000107438	0.000313891	8.56363E-05	0	0	0	
0.1085	-0.0378129	0.000673023	0.000615037	5.91452E-05	0	0	0	
0.108667	0.0676516	-0.000550404	0.000800576	4.65723E-05	0	0	0	
0.108833	-0.0219397	0.000711787	0.00137511	4.15916E-05	0	0	0	
0.109	-0.0410173	-0.00276565	0.00196542	5.78684E-05	0	0	0	
0.109167	0.0366912	0.00348965	0.00211197	5.94169E-05	0	0	0	
0.109333	-0.000377018	-0.00257192	0.00143913	6.71934E-05	0	0	0	
0.1095	-0.00912711	0.000458347	0.000542415	6.99096E-05	0	0	0	
0.109667	0.013371	0.000490477	0.000221736	6.32555E-05	0	0	0	
0.109833	-0.0419678	-0.00130951	0.00033915	5.84029E-05	0	0	0	
0.11	0.0461225	0.0013428	0.000683128	5.73036E-05	0	0	0	
0.110167	-0.0107939	-0.00189171	0.000959646	5.51332E-05	0	0	0	
0.110333	-0.00962859	-0.00212237	0.000874301	4.45555E-05	0	0	0	
0.1105	-0.0251006	0.00540802	0.000765798	4.26638E-05	0	0	0	
0.110667	0.0569614	-0.00632923	0.000653686	7.21579E-05	0	0	0	
0.110833	-0.0296595	0.00592922	0.000915414	0.000107432	0	0	0	
0.111	-0.0389583	-0.00540089	0.00134604	0.000132055	0	0	0	
0.111167	0.0756888	0.00297126	0.00159012	0.000124965	0	0	0	
0.111333	-0.048156	-0.00221411	0.00156716	0.000108092	0	0	0	
0.1115	0.00623321	0.00131665	0.00114449	7.93412E-05	0	0	0	
0.111667	-0.00589488	-0.000256601	0.000698868	5.85333E-05	0	0	0	
0.111833	0.0275782	0.00511958	0.00050802	0.000123211	0	0	0	
0.112	-0.0785309	0.0218045	0.00113783	0.000322554	0	0	0	
0.112167	0.00259102	0.00110652	0.0012872	0.000377198	0	0	0	
0.112333	0.0110702	-0.00237806	0.00122276	0.00029439	0	0	0	
0.1125	-0.00285184	-0.00332836	0.000356414	9.60815E-05	0	0	0	
0.112667	0.00306406	0.00760753	0.000206163	8.34503E-05	0	0	0	
0.112833	0.0194771	0.00566445	0.000376861	0.000218363	0	0	0	
0.113	-0.0439365	-0.0138112	0.000534346	0.000393972	0	0	0	
0.113167	0.00437371	0.0190019	0.00104105	0.000496545	0	0	0	
0.113333	0.0631737	-0.01896	0.00163871	0.000467478	0	0	0	
0.1135	-0.0557343	0.00893805	0.00186611	0.000358324	0	0	0	
0.113667	0.00352078	0.000534915	0.00155049	0.000237408	0	0	0	
0.113833	0.0164231	-0.0121732	0.000846729	0.000151729	0	0	0	
0.114	-0.0199954	0.00526733	0.00053482	0.00013392	0	0	0	
0.114167	0.0627277	0.00601629	0.000546153	0.000195777	0	0	0	
0.114333	-0.0786092	-0.0114399	0.000874426	0.000225466	0	0	0	
0.1145	0.0200068	0.00105839	0.00143272	0.000215785	0	0	0	
0.114667	0.0339334	0.00332152	0.00165007	0.000162538	0	0	0	
0.114833	-0.0156752	-0.00167959	0.00128323	0.000115129	0	0	0	
0.115	-0.0219384	0.00250631	0.000879095	7.47317E-05	0	0	0	
0.115167	0.0277712	-0.00615965	0.000538203	6.74732E-05	0	0	0	
0.115333	0.0115232	0.0064859	0.000487573	0.000101868	0	0	0	
0.1155	-0.0108693	-0.00638086	0.000343866	0.000122734	0	0	0	
0.115667	-0.0108485	0.00179244	0.000458813	0.000115551	0	0	0	
0.115833	0.0178838	0.000987223	0.000508326	9.24715E-05	0	0	0	
0.116	0.00461133	-8.87327E-05	0.000489926	5.56423E-05	0	0	0	
0.116167	-0.0162016	-0.00275068	0.000308484	4.76297E-05	0	0	0	
0.116333	-0.00581536	-0.000226593	0.000296693	5.70862E-05	0	0	0	
0.1165	0.0203338	0.000347605	0.000279467	8.92552E-05	0	0	0	
0.116667	-0.0100302	0.00216332	0.000311	0.00011414	0	0	0	
0.116833	-0.00591722	-0.00352311	0.000324823	0.000113171	0	0	0	
0.117	0.0079408	-0.000880033	0.00030224	9.05058E-05	0	0	0	
0.117167	-0.000992972	0.0051057	0.000222897	6.05492E-05	0	0	0	
0.117333	-0.0138396	-0.00517465	0.000139713	7.56206E-05	0	0	0	
0.1175	0.00992269	0.00518414	0.000156958	0.0001323	0	0	0	
0.117667	-0.00899698	-0.00571882	0.000216923	0.000160644	0	0	0	
0.117833	0.00826469	0.00357981	0.000235353	0.000149921	0	0	0	
0.118	-0.00742827	1.00491E-05	0.000204174	0.000110007	0	0	0	
0.118167	0.00152749	0.000107967	0.000170649	7.3519E-05	0	0	0	
0.118333	0.000901407	-0.00172796	0.000159959	6.10451E-05	0	0	0	
0.1185	0.00278141	0.00556463	0.000133269	5.84489E-05	0	0	0	
0.118667	-0.0116698	-0.00198292	0.000140813	7.41237E-05	0	0	0	
0.118833	0.00408396	-0.000869781	0.000166418	6.65473E-05	0	0	0	
0.119	0.000678425	0.000359443	0.00018318	4.35647E-05	0	0	0	
0.119167	0.00627589	-0.000210258	0.000147766	2.783E-05	0	0	0	
0.119333	-0.0149244	-7.04649E-05	0.000131489	2.1218E-05	0	0	0	
0.1195	0.0160212	-0.00278268	0.000211773	3.6513E-05	0	0	0	
0.119667	-0.0092275	0.00265483	0.000319362	4.94871E-05	0	0	0	
0.119833	0.00394577	-0.00244879	0.000356164	5.6644E-05	0	0	0	
0.12	-0.00545202	0.00347623	0.00029638	5.81434E-05	0	0	0	
0.120167	0.00438691	-0.00165837	0.000194607	5.39031E-05	0	0	0	
0.120333	-0.00342223	0.000344102	0.000124981	5.04358E-05	0	0	0	
0.1205	0.00688997	-0.00048017	0.000101766	3.67447E-05	0	0	0	
0.120667	-0.0111901	-0.00119025	0.000122791	2.32738E-05	0	0	0	
0.120833	0.0140808	0.00251521	0.000164227	2.60859E-05	0	0	0	
0.121	-0.0168634	-0.00247418	0.000239076	3.94948E-05	0	0	0	
0.121167	0.0112117	0.00227311	0.000283277	5.18038E-05	0	0	0	
0.121333	-0.0037202	-0.00120879	0.000273709	5.27152E-05	0	0	0	
0.1215	0.00254367	-0.000492051	0.000189683	3.75185E-05	0	0	0	
0.121667	-0.00563409	0.00240046	0.000112054	3.66015E-05	0	0	0	
0.121833	0.00634099	-0.00658149	9.07389E-05	4.61649E-05	0	0	0	
0.122	-0.00541378	0.003305	0.000105936	7.24298E-05	0	0	0	
0.122167	0.00499795	-0.00107666	0.000116572	6.93922E-05	0	0	0	
0.122333	-0.00335317	0.00169507	0.000119945	5.21822E-05	0	0	0	
0.1225	0.00355843	-0.00207017	0.000113652	3.66399E-05	0	0	0	
0.122667	-0.00556848	-0.000151131	0.000106724	3.02956E-05	0	0	0	
0.122833	0.0109553	-0.00220307	0.00011416	4.48546E-05	0	0	0	
0.123	-0.0137235	0.00355653	0.000164291	7.41946E-05	0	0	0	
0.123167	0.0103899	-0.00242502	0.000214704	9.76047E-05	0	0	0	
0.123333	-0.00340101	0.00222598	0.000244074	8.76775E-05	0	0	0	
0.1235	-2.75384E-05	-0.00203138	0.000202163	5.75592E-05	0	0	0	
0.123667	-0.00297552	-0.000243328	0.000134997	3.55111E-05	0	0	0	
0.123833	0.00163583	0.0042492	8.74154E-05	3.57941E-05	0	0	0	
0.124	-0.00295708	-0.00292016	0.000118127	4.54568E-05	0	0	0	
0.124167	-0.000371011	0.00180882	0.00014516	7.47735E-05	0	0	0	
0.124333	-0.00506159	0.000825344	0.000133905	7.44642E-05	0	0	0	
0.1245	0.00806153	0.00298621	0.000111776	7.98535E-05	0	0	0	
0.124667	-0.0069365	-0.00262304	0.000113462	5.99667E-05	0	0	0	
0.124833	0.00680443	-0.00104986	0.000137708	6.10318E-05	0	0	0	
0.125	-0.0127298	-0.00212805	0.00016402	4.78104E-05	0	0	0	
0.125167	0.00961689	0.00236538	0.000225232	7.10529E-05	0	0	0	
0.125333	-0.0032473	-0.000947074	0.000239373	8.81833E-05	0	0	0	
0.1255	0.0101951	-0.000951221	0.000222783	0.000114028	0	0	0	
0.125667	-0.011875	0.000784947	0.000218607	0.000134722	0	0	0	
0.125833	0.00816165	0.00138696	0.000210498	0.000135053	0	0	0	
0.126	-0.00232662	-5.32713E-05	0.000206924	9.81332E-05	0	0	0	
0.126167	0.000869437	-0.00267162	0.000122303	5.43142E-05	0	0	0	
0.126333	0.00299163	-0.000989828	8.82146E-05	5.34363E-05	0	0	0	
0.1265	-0.00125262	-0.000322866	5.61958E-05	5.37934E-05	0	0	0	
0.126667	-0.00327711	0.00614896	9.45634E-05	6.07027E-05	0	0	0	
0.126833	0.00849605	-0.00511501	0.000145379	6.59413E-05	0	0	0	
0.127	-0.00883488	0.00248565	0.000173616	8.35703E-05	0	0	0	
0.127167	-0.000813126	-9.53287E-05	0.000186888	8.38844E-05	0	0	0	
0.127333	0.00276927	-0.000573151	0.000189175	7.657E-05	0	0	0	
0.1275	-0.00596243	0.000425975	0.000206192	6.40283E-05	0	0	0	
0.127667	-0.00053109	0.00256303	0.000180859	4.67993E-05	0	0	0	
0.127833	0.00391239	-0.00148126	0.000137619	3.51018E-05	0	0	0	
0.128	-0.00316061	-0.000372162	9.50146E-05	3.24066E-05	0	0	0	
0.128167	0.00195329	0.00039365	7.20438E-05	3.03303E-05	0	0	0	
0.128333	-0.0118157	0.00155117	9.68705E-05	1.83975E-05	0	0	0	
0.1285	0.0165023	-0.000169153	0.000165424	1.96903E-05	0	0	0	
0.128667	-0.0202505	0.000126629	0.000291376	2.8407E-05	0	0	0	
0.128833	0.00533155	-0.00316796	0.000391181	5.00264E-05	0	0	0	
0.129	0.000642224	0.00123788	0.000368246	5.94381E-05	0	0	0	
0.129167	0.00417492	0.000102858	0.000236491	5.74229E-05	0	0	0	
0.129333	-0.00489923	-0.0012234	0.000125546	5.19207E-05	0	0	0	
0.1295	-0.00310649	0.0029865	0.000136537	5.59939E-05	0	0	0	
0.129667	-0.00067023	-0.00176014	0.000181702	7.05058E-05	0	0	0	
0.129833	0.00513686	9.5451E-05	0.000183337	6.81257E-05	0	0	0	
0.13	-0.00754435	-0.0020895	0.000174813	5.47887E-05	0	0	0	
0.130167	0.00677619	0.00109309	0.000173783	3.81609E-05	0	0	0	
0.130333	-0.00933583	0.00219629	0.000182259	3.50621E-05	0	0	0	
0.1305	0.0123511	-0.00254599	0.000169912	4.44911E-05	0	0	0	
0.130667	-0.010951	0.00078061	0.000194906	8.62734E-05	0	0	0	
0.130833	0.00811309	-0.000600421	0.000254293	0.000108257	0	0	0	
0.131	0.000371928	0.0035303	0.000260268	0.000103293	0	0	0	
0.131167	-0.00370399	-0.00216822	0.000205827	7.11766E-05	0	0	0	
0.131333	-0.00127808	-0.00129775	0.000105022	4.69108E-05	0	0	0	
0.1315	0.00270275	0.00177047	5.13205E-05	4.53982E-05	0	0	0	
0.131667	-0.0010588	-0.00244027	4.05355E-05	4.40672E-05	0	0	0	
0.131833	0.00466095	0.00326356	5.75936E-05	5.23242E-05	0	0	0	
0.132	-0.0144462	-0.00375208	0.000130454	6.98356E-05	0	0	0	
0.132167	0.0182337	0.000787932	0.000217119	7.38649E-05	0	0	0	
0.132333	-0.0118686	0.000990586	0.000289848	6.10915E-05	0	0	0	
0.1325	0.00251574	-0.001333	0.000269303	4.25202E-05	0	0	0	
0.132667	-0.000508775	-4.17004E-05	0.000186435	3.70202E-05	0	0	0	
0.132833	0.00428623	0.00233769	0.000111199	6.08883E-05	0	0	0	
0.133	-0.010322	-0.0049594	0.000114992	9.15419E-05	0	0	0	
0.133167	0.0156567	0.00489783	0.000187787	0.000104607	0	0	0	
0.133333	-0.0195078	-0.00185686	0.000272725	9.46542E-05	0	0	0	
0.1335	0.0108812	7.8647E-05	0.000298905	6.69563E-05	0	0	0	
0.133667	0.000705971	-0.000384816	0.000285674	4.90818E-05	0	0	0	
0.133833	-0.00794568	-9.31753E-05	0.000220137	3.93795E-05	0	0	0	
0.134	0.000151502	-0.00278465	0.000170067	3.74017E-05	0	0	0	
0.134167	0.0053848	0.00468109	0.000159964	5.27368E-05	0	0	0	
0.134333	-0.00833495	-0.00681775	0.0001574	8.54021E-05	0	0	0	
0.1345	0.00401128	0.00616836	0.000154064	0.000117453	0	0	0	
0.134667	-0.00630181	-0.00327909	0.000119941	0.000117282	0	0	0	
0.134833	0.00946497	0.00140557	0.000125256	8.8227E-05	0	0	0	
0.135	-0.00873761	-0.00123666	0.000158992	6.57251E-05	0	0	0	
0.135167	-0.000474854	0.00206621	0.00022263	5.79284E-05	0	0	0	
0.135333	0.00240519	-0.0052285	0.000257222	6.75566E-05	0	0	0	
0.1355	0.000403792	0.00633605	0.000235682	8.15851E-05	0	0	0	
0.135667	0.00100942	-0.00355475	0.000167632	9.37046E-05	0	0	0	
0.135833	-0.000601353	0.000843397	8.99387E-05	8.13919E-05	0	0	0	
0.136	-0.0065158	-0.000933716	7.34584E-05	5.23569E-05	0	0	0	
0.136167	0.0175635	0.00172752	0.000127828	3.48381E-05	0	0	0	
0.136333	-0.0192304	-0.00258944	0.000232257	4.72498E-05	0	0	0	
0.1365	0.0138677	0.00121069	0.000314919	7.30331E-05	0	0	0	
0.136667	-0.0041879	-0.00190174	0.000334725	8.51499E-05	0	0	0	
0.136833	0.00221441	0.00157883	0.000267288	7.71066E-05	0	0	0	
0.137	-0.0074374	0.00163857	0.000177505	5.1096E-05	0	0	0	
0.137167	0.00371754	-0.00615838	0.000119198	4.72043E-05	0	0	0	
0.137333	0.0027084	0.00776647	0.000163847	7.30338E-05	0	0	0	
0.1375	0.000820527	-0.00502471	0.000170297	0.000118489	0	0	0	
0.137667	-0.0197556	0.00139692	0.000293222	0.000119281	0	0	0	
0.137833	0.0286431	0.000125458	0.000386639	8.67368E-05	0	0	0	
0.138	-0.0128729	0.00233536	0.000466514	4.41372E-05	0	0	0	
0.138167	0.00127595	-0.00330035	0.000366686	4.01132E-05	0	0	0	
0.138333	-0.00641323	0.00114551	0.000217493	4.74229E-05	0	0	0	
0.1385	0.00608066	5.54606E-05	0.00013981	5.93782E-05	0	0	0	
0.138667	0.00157217	0.00211976	8.72151E-05	5.27822E-05	0	0	0	
0.138833	0.00386417	-0.00136547	0.000136979	5.17415E-05	0	0	0	
0.139	-0.0105842	0.00276749	0.000263014	8.76951E-05	0	0	0	
0.139167	0.0132899	0.001081	0.000333191	0.000108012	0	0	0	
0.139333	-0.000286892	0.00310155	0.000307351	0.000104928	0	0	0	
0.1395	-0.00744893	-0.00714971	0.000175686	8.37362E-05	0	0	0	
0.139667	0.00429089	0.00205371	0.000148516	9.95715E-05	0	0	0	
0.139833	0.00496712	-0.00100717	0.000124668	0.000112676	0	0	0	
0.14	-0.00325334	0.00817402	0.000122786	0.000127889	0	0	0	
0.140167	0.00139042	-0.00553496	7.44871E-05	0.000123738	0	0	0	
0.140333	-0.00134614	0.0016819	5.88484E-05	0.000124658	0	0	0	
0.1405	-0.000641738	0.000243049	3.96651E-05	8.63824E-05	0	0	0	
0.140667	-0.00838283	0.00114514	6.09083E-05	6.88148E-05	0	0	0	
0.140833	0.00376037	0.000733066	8.20125E-05	9.88992E-05	0	0	0	
0.141	-0.00409382	0.00360069	0.000158906	0.000139019	0	0	0	
0.141167	-0.00022302	-0.0020935	0.000183112	0.000137651	0	0	0	
0.141333	0.00142393	0.00117348	0.000156536	9.00866E-05	0	0	0	
0.1415	-0.000103013	-0.00169354	8.46585E-05	5.04404E-05	0	0	0	
0.141667	-0.00785401	0.00379994	7.82593E-05	3.74346E-05	0	0	0	
0.141833	0.0109603	-0.00139833	0.000156751	5.30239E-05	0	0	0	
0.142	-0.016096	-0.000957674	0.000227265	6.5717E-05	0	0	0	
0.142167	0.0053313	-0.00404121	0.000298459	0.000116706	0	0	0	
0.142333	0.0010244	0.00362347	0.000290538	0.000152163	0	0	0	
0.1425	0.00350495	-0.00184424	0.000215705	0.000142851	0	0	0	
0.142667	-0.011491	0.000344714	0.000137039	8.64618E-05	0	0	0	
0.142833	0.013173	-0.001986	0.000152709	3.26686E-05	0	0	0	
0.143	-0.00884228	-1.80172E-05	0.000227369	2.5378E-05	0	0	0	
0.143167	0.00682055	-0.00072994	0.000235069	2.54108E-05	0	0	0	
0.143333	-0.00944527	-0.000837949	0.000204218	1.98871E-05	0	0	0	
0.1435	0.00514624	-9.09349E-05	0.000162653	1.36923E-05	0	0	0	
0.143667	-0.00626072	0.0014467	0.000149476	1.72968E-05	0	0	0	
0.143833	0.0218057	-0.00108647	0.000183031	2.3618E-05	0	0	0	
0.144	-0.0287551	-0.000725417	0.0002889	2.89062E-05	0	0	0	
0.144167	0.0179601	0.00265746	0.000412132	2.80795E-05	0	0	0	
0.144333	0.00110531	-3.1305E-05	0.000506379	5.193E-05	0	0	0	
0.1445	-0.0109583	-0.00257047	0.000449449	7.08121E-05	0	0	0	
0.144667	0.00149478	0.000787361	0.000317026	7.28279E-05	0	0	0	
0.144833	0.0045009	0.00111889	0.000160593	4.37557E-05	0	0	0	
0.145	-0.00551008	-0.0029744	0.000104045	3.07276E-05	0	0	0	
0.145167	0.0107062	0.00343576	0.000141813	4.07819E-05	0	0	0	
0.145333	-0.0192967	-0.00350418	0.00021859	6.19061E-05	0	0	0	
0.1455	0.0179169	0.00151643	0.000283943	6.61432E-05	0	0	0	
0.145667	-0.00924712	-0.000565405	0.000321519	6.38775E-05	0	0	0	
0.145833	-0.00063946	-0.000504862	0.000284431	4.90586E-05	0	0	0	
0.146	-0.00132328	-0.000592935	0.000188377	3.95957E-05	0	0	0	
0.146167	0.00735663	0.00328167	0.000113897	4.51734E-05	0	0	0	
0.146333	-0.00450109	-0.00291253	8.72367E-05	6.7798E-05	0	0	0	
0.1465	0.00126956	0.00201798	0.000117125	7.3339E-05	0	0	0	
0.146667	-0.00270419	-0.00339969	0.000108325	6.35838E-05	0	0	0	
0.146833	0.00526189	0.00250776	9.52142E-05	5.12362E-05	0	0	0	
0.147	-0.00564593	-0.000374624	8.92712E-05	4.58071E-05	0	0	0	
0.147167	0.00320725	-0.000197789	9.79134E-05	3.71807E-05	0	0	0	
0.147333	-0.00386395	-0.00136308	8.85679E-05	5.14263E-05	0	0	0	
0.1475	0.00883974	0.000520424	8.42011E-05	8.56116E-05	0	0	0	
0.147667	-0.0138507	-0.000865962	0.000140467	0.00010646	0	0	0	
0.147833	0.0104345	0.00063513	0.000197937	9.43548E-05	0	0	0	
0.148	-0.00894245	0.000392184	0.000225447	6.93853E-05	0	0	0	
0.148167	0.00457693	-0.000314206	0.000184085	5.50019E-05	0	0	0	
0.148333	0.000744862	0.000260706	0.000165527	5.98977E-05	0	0	0	
0.1485	-0.00276511	-0.00343839	0.000137362	8.79031E-05	0	0	0	
0.148667	-0.00913724	0.00437853	0.000129741	0.000122256	0	0	0	
0.148833	0.0114748	-0.00369388	0.000138203	0.000130901	0	0	0	
0.149	-0.00758392	0.00218287	0.000166709	0.000114667	0	0	0	
0.149167	0.00401903	-0.00168082	0.000169533	8.10584E-05	0	0	0	
0.149333	-0.00395143	0.00219669	0.000124947	5.86795E-05	0	0	0	
0.1495	0.00784288	-0.00241686	0.000112552	6.08696E-05	0	0	0	
0.149667	-0.0161402	0.000183378	0.000147741	7.59062E-05	0	0	0	
0.149833	0.0196523	-0.000501997	0.000240628	6.77151E-05	0	0	0	
0.15	-0.0172451	0.00178227	0.000311616	4.46782E-05	0	0	0	
0.150167	0.00833157	-2.66863E-05	0.000320818	2.24741E-05	0	0	0	
0.150333	-0.00400962	0.00304514	0.000251194	3.95403E-05	0	0	0	
0.1505	0.000930853	-0.0116374	0.000173448	7.16319E-05	0	0	0	
0.150667	-0.00188397	0.00636265	0.000124959	0.000123839	0	0	0	
0.150833	0.00312527	-0.0012709	9.5436E-05	0.000150127	0	0	0	
0.151	-0.00620571	0.00432022	9.66534E-05	0.000135171	0	0	0	
0.151167	0.00581992	-0.0089629	0.000105223	0.000150518	0	0	0	
0.151333	-0.00641117	0.00476489	0.000124692	0.000145173	0	0	0	
0.1515	0.00868831	-0.000459351	0.000128858	0.000133689	0	0	0	
0.151667	-0.0161635	0.00226816	0.000178854	0.000111124	0	0	0	
0.151833	0.00775434	-0.001148	0.000272995	0.000128127	0	0	0	
0.152	-0.00656267	-0.00786054	0.000338787	0.000147586	0	0	0	
0.152167	0.00642459	0.00853579	0.00029563	0.00014181	0	0	0	
0.152333	-0.00517694	-0.00459412	0.000218494	0.000152705	0	0	0	
0.1525	0.00641936	-0.00218022	0.000148191	0.00017778	0	0	0	
0.152667	-0.00779627	0.000806725	0.000135494	0.000149543	0	0	0	
0.152833	0.0135437	0.00710931	0.000161097	0.000111128	0	0	0	
0.153	-0.0174016	-0.00180291	0.0002149	8.97333E-05	0	0	0	
0.153167	0.00986627	-0.00120098	0.000271251	8.4654E-05	0	0	0	
0.153333	0.0012288	-0.00256907	0.000238094	7.74674E-05	0	0	0	
0.1535	-0.0034533	0.00314576	0.000162733	6.26726E-05	0	0	0	
0.153667	-0.00352639	-0.00139234	0.000113101	6.25828E-05	0	0	0	
0.153833	0.00986612	0.00222542	0.000105115	5.06738E-05	0	0	0	
0.154	-0.00875718	-0.00696779	0.000149858	6.11025E-05	0	0	0	
0.154167	0.00757944	0.00790021	0.000178557	8.01458E-05	0	0	0	
0.154333	-0.0139935	-0.00592673	0.00024659	0.000122819	0	0	0	
0.1545	0.016483	-0.00069847	0.000297594	0.000127662	0	0	0	
0.154667	-0.00849076	0.00387875	0.000293797	0.000111859	0	0	0	
0.154833	0.00598853	-0.0017295	0.00022906	8.15015E-05	0	0	0	
0.155	-0.0141499	-0.00354103	0.000180856	0.000114355	0	0	0	
0.155167	0.0231038	0.00688827	0.000213057	0.000180978	0	0	0	
0.155333	-0.00630342	-0.00862546	0.000265004	0.000207729	0	0	0	
0.1555	-0.00225202	0.00339405	0.000297937	0.000171939	0	0	0	
0.155667	0.00394117	-0.00121632	0.000249582	0.00010796	0	0	0	
0.155833	0.0027654	-0.00219038	0.000191606	7.60777E-05	0	0	0	
0.156	-0.015114	0.00330243	0.000174509	5.31215E-05	0	0	0	
0.156167	0.0204002	-0.00480654	0.000234319	9.41748E-05	0	0	0	
0.156333	-0.0122468	0.00232765	0.000319739	0.000138033	0	0	0	
0.1565	0.0133897	-0.00157706	0.000305738	0.000155234	0	0	0	
0.156667	-0.0202276	0.00464752	0.000294983	0.000121853	0	0	0	
0.156833	0.0112182	-0.00150179	0.000276575	8.56498E-05	0	0	0	
0.157	-0.00352943	-0.00128532	0.000266538	8.0167E-05	0	0	0	
0.157167	0.0108333	0.000664571	0.000209814	6.55998E-05	0	0	0	
0.157333	-0.0158529	0.00114605	0.00019965	4.41104E-05	0	0	0	
0.1575	0.0164125	0.000236564	0.000237786	2.66498E-05	0	0	0	
0.157667	-0.0178101	0.000197789	0.000300705	1.75081E-05	0	0	0	
0.157833	0.0171223	0.000582788	0.000326945	1.95166E-05	0	0	0	
0.158	-0.00905857	-0.00177546	0.000309584	2.76839E-05	0	0	0	
0.158167	0.00455903	0.00216281	0.000242156	4.05795E-05	0	0	0	
0.158333	-0.00925534	-0.00250929	0.000178399	5.23396E-05	0	0	0	
0.1585	0.0161068	0.00496891	0.00019794	7.82802E-05	0	0	0	
0.158667	-0.0146424	-0.00116341	0.000260854	8.41982E-05	0	0	0	
0.158833	0.0114971	0.00247051	0.000286101	7.70924E-05	0	0	0	
0.159	-0.00588152	-0.00373243	0.000258106	5.98171E-05	0	0	0	
0.159167	0.00396588	0.004546	0.000180412	6.46203E-05	0	0	0	
0.159333	-0.00151408	-0.00416189	0.000116082	7.64916E-05	0	0	0	
0.1595	0.00553225	0.0039615	9.75269E-05	8.67484E-05	0	0	0	
0.159667	-0.0151705	0.000285802	0.000187434	7.23935E-05	0	0	0	
0.159833	0.0203293	-0.000768792	0.000307271	6.44376E-05	0	0	0	
0.16	-0.0183675	-0.00176205	0.000379667	5.7713E-05	0	0	0	
0.160167	0.00820879	0.0012662	0.000341784	6.5706E-05	0	0	0	
0.160333	-0.00220378	-0.00201793	0.00025521	6.39177E-05	0	0	0	
0.1605	0.00146423	0.00166568	0.000149979	4.81525E-05	0	0	0	
0.160667	-0.00327189	0.000374093	0.000103145	4.81179E-05	0	0	0	
0.160833	0.00219948	-0.00308653	0.000102319	5.28995E-05	0	0	0	
0.161	-0.00521621	0.00206141	0.000143875	6.16519E-05	0	0	0	
0.161167	0.00775605	0.00076791	0.000181044	6.31366E-05	0	0	0	
0.161333	-0.00931622	-0.00167995	0.000187344	5.04619E-05	0	0	0	
0.1615	0.00604046	0.00246814	0.000175286	4.3174E-05	0	0	0	
0.161667	-0.00310836	-0.00489808	0.000164618	4.48011E-05	0	0	0	
0.161833	-0.00559349	0.00228059	0.0002889	0.000136357	0	0	0	
0.162	0.0635489	-0.0326905	0.00102234	0.000388998	0	0	0	
0.162167	-0.00173987	0.00665027	0.00110195	0.000469932	0	0	0	
0.162333	-0.0216133	-0.00129936	0.00102021	0.000434992	0	0	0	
0.1625	0.0213486	-0.00333427	0.000366149	0.000213152	0	0	0	
0.162667	-0.0216413	0.000305147	0.000361631	0.000159438	0	0	0	
0.162833	0.0223972	-0.0100404	0.000488495	0.000183484	0	0	0	
0.163	-0.0140111	0.00794545	0.000487738	0.000282573	0	0	0	
0.163167	0.00605157	-0.00807852	0.000431465	0.000356715	0	0	0	
0.163333	0.0023644	0.0081793	0.000301989	0.000374556	0	0	0	
0.1635	-0.00871465	-0.0136281	0.000243323	0.000314237	0	0	0	
0.163667	0.000359147	0.00806975	0.000215791	0.000257989	0	0	0	
0.163833	0.00667597	0.000331778	0.000201141	0.000196674	0	0	0	
0.164	-0.00756325	-0.00106212	0.000194456	0.000120093	0	0	0	
0.164167	0.0126095	-0.000798125	0.000254977	7.53445E-05	0	0	0	
0.164333	-0.0325921	0.000813017	0.000376899	3.50818E-05	0	0	0	
0.1645	0.0356794	-0.00465596	0.000520287	5.52608E-05	0	0	0	
0.164667	-0.0133918	0.00783756	0.000616323	8.61232E-05	0	0	0	
0.164833	-0.00483133	-0.00908236	0.000576208	0.000128332	0	0	0	
0.165	-0.00448501	0.00249315	0.000392363	0.000161037	0	0	0	
0.165167	0.0104135	0.00584938	0.000237586	0.000165867	0	0	0	
0.165333	0.000945637	-0.00402533	0.00011434	0.000151528	0	0	0	
0.1655	-0.000362732	-0.000462877	0.000135495	0.000102149	0	0	0	
0.165667	-0.0177715	-0.00291812	0.000207115	5.43031E-05	0	0	0	
0.165833	0.0169889	0.00214681	0.000268223	4.91677E-05	0	0	0	
0.166	-0.00172549	2.23807E-05	0.000308795	7.38682E-05	0	0	0	
0.166167	0.0034807	0.00302234	0.00022062	7.61608E-05	0	0	0	
0.166333	-0.0187438	-0.00568374	0.000237073	7.60357E-05	0	0	0	
0.1665	0.0186257	0.00343571	0.000266094	7.65812E-05	0	0	0	
0.166667	-0.00788284	-0.00071245	0.000329971	8.60039E-05	0	0	0	
0.166833	0.00599646	0.00104011	0.000260766	6.66197E-05	0	0	0	
0.167	-0.0146372	-0.0023266	0.000227565	4.43021E-05	0	0	0	
0.167167	0.014316	0.00259734	0.000210529	3.56827E-05	0	0	0	
0.167333	-0.000959107	-0.00358735	0.000256419	4.46526E-05	0	0	0	
0.1675	-0.00897046	0.0027332	0.000232205	5.876E-05	0	0	0	
0.167667	-0.00132185	0.000252552	0.000247049	6.26628E-05	0	0	0	
0.167833	0.0220899	0.00154266	0.000307416	5.18832E-05	0	0	0	
0.168	-0.0264336	-0.00229716	0.000405093	3.66149E-05	0	0	0	
0.168167	0.0148904	-0.00104035	0.000442052	3.64413E-05	0	0	0	
0.168333	-0.0118429	-0.00228641	0.000378299	5.12177E-05	0	0	0	
0.1685	0.0211336	0.00834762	0.000334866	8.75909E-05	0	0	0	
0.168667	-0.0247484	-0.00611607	0.000340419	0.000112756	0	0	0	
0.168833	0.0133517	0.0030564	0.000393085	0.000127344	0	0	0	
0.169	-0.000643204	-0.00361784	0.000414741	0.000103339	0	0	0	
0.169167	-0.000878252	0.00573103	0.000293131	8.97391E-05	0	0	0	
0.169333	-0.00920524	-0.00252735	0.000226014	8.09037E-05	0	0	0	
0.1695	0.013275	0.00138575	0.000193285	7.15448E-05	0	0	0	
0.169667	-0.0131282	-0.00345943	0.000280234	6.52374E-05	0	0	0	
0.169833	0.0223079	0.00330198	0.000361011	6.1962E-05	0	0	0	
0.17	-0.0365723	-0.00136075	0.00046277	6.90766E-05	0	0	0	
0.170167	0.0255878	0.00234665	0.000547789	7.03838E-05	0	0	0	
0.170333	-0.00214278	-0.00318023	0.000577485	6.84678E-05	0	0	0	
0.1705	-0.00218057	0.00235242	0.000455241	6.24543E-05	0	0	0	
0.170667	-0.00187917	-0.00460217	0.000291487	6.02666E-05	0	0	0	
0.170833	0.00083536	0.00707252	0.00015472	7.3792E-05	0	0	0	
0.171	-0.0822425	0.0117367	0.000500026	0.000154375	0	0	0	
0.171167	-0.203097	0.0424422	0.00245473	0.000537704	0	0	0	
0.171333	0.00906544	7.69463E-05	0.00342364	0.000728126	0	0	0	
0.1715	0.00547548	-0.0105628	0.00321116	0.000712242	0	0	0	
0.171667	0.0543155	0.010446	0.00141784	0.000393557	0	0	0	
0.171833	-0.0990885	-0.00781624	0.000888265	0.000303379	0	0	0	
0.172	0.108065	0.0105897	0.00130508	0.000405614	0	0	0	
0.172167	-0.15408	-0.00675744	0.00218259	0.000627667	0	0	0	
0.172333	0.148929	-0.0117138	0.00417755	0.000845176	0	0	0	
0.1725	-0.0225581	-0.00490319	0.00417355	0.000739881	0	0	0	
0.172667	-0.00383665	0.000930718	0.00344811	0.00051282	0	0	0	
0.172833	-0.0118122	0.00261124	0.00105772	0.000251521	0	0	0	
0.173	-0.0103823	-0.0121783	0.000495686	0.000323922	0	0	0	
0.173167	0.0348728	-0.00346741	0.000292875	0.000459174	0	0	0	
0.173333	-0.023544	0.0135123	0.000529389	0.00064989	0	0	0	
0.1735	-0.0247367	-0.0201247	0.000860245	0.000694943	0	0	0	
0.173667	0.0381846	0.0184725	0.000988112	0.000584201	0	0	0	
0.173833	-0.052705	-0.0106269	0.000903004	0.000430745	0	0	0	
0.174	0.0506609	0.0106367	0.000945508	0.000348172	0	0	0	
0.174167	0.00127007	-0.0112385	0.00138934	0.000328005	0	0	0	
0.174333	-0.0766875	0.00795085	0.00201391	0.00027538	0	0	0	
0.1745	0.103145	-0.00711287	0.00225528	0.000215644	0	0	0	
0.174667	-0.066621	0.0125908	0.00204845	0.000197087	0	0	0	
0.174833	0.0208816	-0.0196373	0.00149713	0.0002291	0	0	0	
0.175	-0.00726977	0.0211591	0.000956685	0.000302233	0	0	0	
0.175167	0.00243336	-0.0178973	0.000499652	0.000357025	0	0	0	
0.175333	0.00344846	0.0151826	0.00019089	0.000360329	0	0	0	
0.1755	0.00382438	-0.0115188	0.000158732	0.000336615	0	0	0	
0.175667	-0.0212021	0.00298625	0.000285208	0.000306851	0	0	0	
0.175833	0.025344	0.00180045	0.00041591	0.000261652	0	0	0	
0.176	-0.0170525	-0.0019054	0.000458788	0.000176916	0	0	0	
0.176167	0.00696536	-0.000362545	0.000405841	8.91478E-05	0	0	0	
0.176333	-0.00311841	-0.000250179	0.000337084	2.49851E-05	0	0	0	
0.1765	-0.00454423	0.000103257	0.000281042	2.41136E-05	0	0	0	
0.176667	0.0169901	0.00439447	0.000253656	6.88438E-05	0	0	0	
0.176833	-0.0182991	-0.00893246	0.000294671	0.000118	0	0	0	
0.177	-0.0039402	0.00601686	0.000456891	0.000143809	0	0	0	
0.177167	0.0282321	-0.000201573	0.00065338	0.000159795	0	0	0	
0.177333	-0.0367814	-0.00781951	0.000767956	0.00018869	0	0	0	
0.1775	0.0322446	0.0116868	0.000718213	0.000228617	0	0	0	
0.177667	-0.0246456	-0.0111341	0.000628608	0.000235465	0	0	0	
0.177833	0.00315644	0.00885165	0.000592462	0.000218693	0	0	0	
0.178	0.0238894	-0.0011843	0.000592855	0.000176342	0	0	0	
0.178167	-0.0286309	-0.00603773	0.000543181	0.000139906	0	0	0	
0.178333	0.00370221	0.00574406	0.000578828	0.000120329	0	0	0	
0.1785	0.0224293	-0.00235791	0.000649544	0.000165829	0	0	0	
0.178667	-0.0308101	0.00114469	0.000705635	0.000182105	0	0	0	
0.178833	0.029632	-0.00207118	0.000661828	0.000167438	0	0	0	
0.179	-0.0223156	-0.000584512	0.000547903	0.000144848	0	0	0	
0.179167	0.0046243	0.00694304	0.000506685	0.000145125	0	0	0	
0.179333	0.0092553	-0.00297521	0.000455623	0.000144738	0	0	0	
0.1795	-0.00135386	-0.00114127	0.000338001	9.69067E-05	0	0	0	
0.179667	-0.0121268	-0.00223525	0.000287412	5.39983E-05	0	0	0	
0.179833	0.0117976	0.00359183	0.000231734	4.8048E-05	0	0	0	
0.18	-0.0073232	-0.000125747	0.000260486	5.69173E-05	0	0	0	
0.180167	0.0139892	0.000955045	0.000252474	5.36739E-05	0	0	0	
0.180333	-0.0233252	-0.00226048	0.000319416	4.78596E-05	0	0	0	
0.1805	0.0221573	0.00391652	0.000388952	4.71748E-05	0	0	0	
0.180667	-0.0133959	-0.00433372	0.000398386	6.66094E-05	0	0	0	
0.180833	0.00699277	0.00149709	0.000319167	6.91073E-05	0	0	0	
0.181	-0.00575072	0.00108246	0.000227306	6.44764E-05	0	0	0	
0.181167	0.00523292	0.000911695	0.000150358	4.30502E-05	0	0	0	
0.181333	-0.00355506	-0.00183411	0.000125133	3.30282E-05	0	0	0	
0.1815	0.00230574	0.000578549	0.000145421	2.9287E-05	0	0	0	
0.181667	-0.0119142	0.000919974	0.000238406	2.95974E-05	0	0	0	
0.181833	0.0220101	0.00289062	0.000345025	3.90684E-05	0	0	0	
0.182	-0.0206568	-0.00171801	0.00040605	3.71013E-05	0	0	0	
0.182167	0.00979225	-4.37007E-05	0.000382013	5.93702E-05	0	0	0	
0.182333	-0.00560322	0.00028524	0.00030184	5.66141E-05	0	0	0	
0.1825	0.00653021	0.0015407	0.00021666	5.51476E-05	0	0	0	
0.182667	-0.00640508	-0.000967368	0.000153258	3.86262E-05	0	0	0	
0.182833	0.00249556	0.0022374	0.00011386	3.3748E-05	0	0	0	
0.183	-0.00172737	-0.00160203	0.000105822	3.91225E-05	0	0	0	
0.183167	0.00970344	8.15654E-05	0.000151553	4.99726E-05	0	0	0	
0.183333	-0.018086	5.00381E-05	0.000248919	5.11425E-05	0	0	0	
0.1835	0.0199751	0.00215157	0.000344635	4.33458E-05	0	0	0	
0.183667	-0.0171594	-0.00139436	0.000375876	3.46181E-05	0	0	0	
0.183833	0.0159699	0.00106717	0.000351184	3.82374E-05	0	0	0	
0.184	-0.0141432	-0.000783002	0.000313664	3.70347E-05	0	0	0	
0.184167	0.00540029	0.00180369	0.000274914	3.69871E-05	0	0	0	
0.184333	0.00346659	-0.000903334	0.000228673	4.01787E-05	0	0	0	
0.1845	-0.00308747	0.00140381	0.00018266	5.26086E-05	0	0	0	
0.184667	-0.0062187	-0.000329633	0.000223168	6.72963E-05	0	0	0	
0.184833	0.0147985	-0.00170949	0.000289035	8.17275E-05	0	0	0	
0.185	-0.0171983	0.000803635	0.00035004	7.56464E-05	0	0	0	
0.185167	0.0150777	0.00158198	0.000326676	5.96503E-05	0	0	0	
0.185333	-0.00865129	-0.00179955	0.000284152	3.70495E-05	0	0	0	
0.1855	0.00468748	0.000706281	0.000225771	3.24134E-05	0	0	0	
0.185667	-0.00820376	-0.00137356	0.000207965	3.59624E-05	0	0	0	
0.185833	0.0152573	0.00263362	0.000246225	4.21382E-05	0	0	0	
0.186	-0.0172033	-0.00150592	0.000316165	4.4023E-05	0	0	0	
0.186167	0.0157434	0.000305625	0.000341904	3.60982E-05	0	0	0	
0.186333	-0.014113	-0.00125218	0.000318094	2.79587E-05	0	0	0	
0.1865	0.0125362	0.00227118	0.000282757	3.03361E-05	0	0	0	
0.186667	-0.0057553	-0.000906567	0.000238196	3.15343E-05	0	0	0	
0.186833	0.00212135	-0.000162142	0.000186894	2.75213E-05	0	0	0	
0.187	-0.00700693	4.50021E-05	0.000192389	1.88782E-05	0	0	0	
0.187167	0.0156144	0.000904578	0.000253254	2.24929E-05	0	0	0	
0.187333	-0.017764	-0.00182427	0.000338853	3.01261E-05	0	0	0	
0.1875	0.0191099	0.00169778	0.000364929	4.25772E-05	0	0	0	
0.187667	-0.0174728	-0.00221487	0.000362376	4.7457E-05	0	0	0	
0.187833	0.0131655	0.00189905	0.000325699	5.0882E-05	0	0	0	
0.188	-0.00619675	-0.00156236	0.000280372	5.21399E-05	0	0	0	
0.188167	0.00231522	0.00286056	0.000192915	5.43013E-05	0	0	0	
0.188333	-0.00622031	-0.000420949	0.000177703	4.67658E-05	0	0	0	
0.1885	0.0148636	-0.0017158	0.000216594	3.34208E-05	0	0	0	
0.188667	-0.0160974	-5.28439E-05	0.000284302	2.89196E-05	0	0	0	
0.188833	0.0093915	0.00209882	0.000283912	3.26123E-05	0	0	0	
0.189	-0.00533229	0.000380484	0.000228635	3.84038E-05	0	0	0	
0.189167	0.00724261	-0.000528411	0.000180707	2.64647E-05	0	0	0	
0.189333	-0.0095984	-0.00212931	0.000178078	4.44866E-05	0	0	0	
0.1895	0.00721319	0.00524361	0.000177759	6.45044E-05	0	0	0	
0.189667	-0.00314985	-0.00517459	0.000167474	9.34627E-05	0	0	0	
0.189833	0.0123456	0.00371532	0.00019423	9.12132E-05	0	0	0	
0.19	-0.0267856	-0.0016061	0.000287424	8.65534E-05	0	0	0	
0.190167	0.130307	-0.0180367	0.000596037	9.82077E-05	0	0	0	
0.190333	-0.0630629	0.0265158	0.0014236	0.000312653	0	0	0	
0.1905	0.0126622	-0.00912378	0.00145718	0.000363363	0	0	0	
0.190667	0.00615149	0.0013402	0.0012561	0.00037992	0	0	0	
0.190833	-0.0213391	-0.00171435	0.000460851	0.000163016	0	0	0	
0.191	0.0336924	0.00791946	0.000436832	0.000129022	0	0	0	
0.191167	-0.00241047	0.000325445	0.000641321	0.000179774	0	0	0	
0.191333	-0.0308901	-0.00954164	0.000972627	0.000339051	0	0	0	
0.1915	0.0569716	0.017098	0.00113718	0.000442493	0	0	0	
0.191667	-0.0392579	-0.0130737	0.00107279	0.000436823	0	0	0	
0.191833	0.0151065	0.00488595	0.000791455	0.000305679	0	0	0	
0.192	0.00350347	-0.00146885	0.000627884	0.000177055	0	0	0	
0.192167	-0.0202852	-0.00226153	0.000431819	8.07342E-05	0	0	0	
0.192333	0.0210626	-0.000616428	0.000403748	6.41595E-05	0	0	0	
0.1925	0.00645576	0.00898983	0.000463945	0.000124878	0	0	0	
0.192667	-0.021081	-0.0154499	0.0005495	0.000212684	0	0	0	
0.192833	0.0169765	0.00699877	0.000517663	0.000239497	0	0	0	
0.193	-0.00631316	-0.000905107	0.000371491	0.000193448	0	0	0	
0.193167	-0.00120442	-0.00145053	0.000222598	0.000117164	0	0	0	
0.193333	0.00758414	0.00722161	0.000147048	7.6834E-05	0	0	0	
0.1935	0.000336032	-0.00678049	0.000153042	9.63939E-05	0	0	0	
0.193667	-0.0133248	0.00133402	0.000205484	9.96224E-05	0	0	0	
0.193833	0.0131454	0.000646005	0.000266514	8.9709E-05	0	0	0	
0.194	-0.00875446	-0.00120329	0.000284158	4.71191E-05	0	0	0	
0.194167	0.00987781	0.00261157	0.000261608	3.72048E-05	0	0	0	
0.194333	-0.000578587	-0.00323778	0.00019494	4.09445E-05	0	0	0	
0.1945	-0.00828258	0.00097333	0.00017853	9.14104E-05	0	0	0	
0.194667	0.00190653	-0.00257257	0.000143482	0.000132627	0	0	0	
0.194833	0.00478921	0.00355184	0.000232563	0.000130149	0	0	0	
0.195	-0.00920241	-0.00617081	0.000303351	0.000109946	0	0	0	
0.195167	0.00709633	-0.000460359	0.00034418	8.36015E-05	0	0	0	
0.195333	-0.000407993	0.000812161	0.000240371	7.88157E-05	0	0	0	
0.1955	0.00166119	0.00310806	0.000110086	4.86172E-05	0	0	0	
0.195667	-0.0131201	-0.00168162	0.000131996	3.28209E-05	0	0	0	
0.195833	0.0117436	5.52979E-05	0.000186195	4.11448E-05	0	0	0	
0.196	-0.00125403	-0.00542502	0.000216306	5.74313E-05	0	0	0	
0.196167	-0.00522794	0.00385443	0.000174513	7.89654E-05	0	0	0	
0.196333	0.000868315	-0.00168047	0.000127232	7.44876E-05	0	0	0	
0.1965	-0.00440531	0.000542108	0.000117825	6.69374E-05	0	0	0	
0.196667	0.0119245	0.00159979	0.000114191	4.22144E-05	0	0	0	
0.196833	-0.00682559	0.00253996	0.00016092	4.12705E-05	0	0	0	
0.197	-0.0134333	-0.00335878	0.000207062	4.74081E-05	0	0	0	
0.197167	0.0123748	0.00195243	0.000232852	6.6226E-05	0	0	0	
0.197333	-0.00595655	9.92459E-05	0.000234507	7.39572E-05	0	0	0	
0.1975	0.00266097	-0.000239147	0.000189111	5.57626E-05	0	0	0	
0.197667	-0.00804972	-0.000279933	0.000154631	2.90621E-05	0	0	0	
0.197833	0.0129675	0.000995025	0.000144979	1.13741E-05	0	0	0	
0.198	-0.014154	-0.00242995	0.000200299	1.83407E-05	0	0	0	
0.198167	0.0123668	0.00123539	0.00025573	2.57753E-05	0	0	0	
0.198333	-0.0111367	0.00196556	0.000265071	3.09397E-05	0	0	0	
0.1985	0.00590347	-0.000630795	0.000220784	2.70828E-05	0	0	0	
0.198667	-0.00577669	-0.00060169	0.000167912	2.08169E-05	0	0	0	
0.198833	0.0126133	-0.000209954	0.000149162	1.52191E-05	0	0	0	
0.199	-0.0140481	-0.00176937	0.000197193	1.20034E-05	0	0	0	
0.199167	0.0111984	0.00112643	0.0002418	2.77711E-05	0	0	0	
0.199333	-0.00756003	-0.0020801	0.000241056	3.99496E-05	0	0	0	
0.1995	0.0028172	0.0016335	0.000176328	5.20745E-05	0	0	0	
0.199667	-0.00333017	-0.000760326	0.000124785	4.60829E-05	0	0	0	
0.199833	0.00783894	0.000128539	0.000112029	3.37961E-05	0	0	0	
0.2	-0.0122263	0.00115031	0.000143151	2.01188E-05	0	0	0	
0.200167	0.00971677	-0.00504722	0.000191261	3.54971E-05	0	0	0	
0.200333	-0.0058023	0.00152625	0.000203834	5.44293E-05	0	0	0	
0.2005	0.00721651	-0.000856375	0.000213667	5.45967E-05	0	0	0	
0.200667	-0.00772101	0.00250187	0.000216678	4.2309E-05	0	0	0	
0.200833	0.00688909	-0.00270884	0.000203249	4.0095E-05	0	0	0	
0.201	-0.00253414	0.00292821	0.000158768	5.08147E-05	0	0	0	
0.201167	0.00256952	-0.00429095	0.000108117	6.43468E-05	0	0	0	
0.201333	-0.00591187	0.00110279	0.000130605	6.81106E-05	0	0	0	
0.2015	0.00489508	0.00191777	0.000168268	7.56403E-05	0	0	0	
0.201667	-0.001701	-0.000446298	0.000182849	6.35461E-05	0	0	0	
0.201833	0.00438568	0.00133627	0.000149088	5.93885E-05	0	0	0	
0.202	-0.00295996	-0.000388097	0.00010176	5.88864E-05	0	0	0	
0.202167	-0.00799456	-0.00338699	0.000104789	6.77572E-05	0	0	0	
0.202333	0.00947764	0.000493535	0.000119571	6.86351E-05	0	0	0	
0.2025	0.00590701	-0.000320051	0.000263427	6.19347E-05	0	0	0	
0.202667	-0.0206079	-0.00181928	0.000390176	5.40026E-05	0	0	0	
0.202833	0.0166325	0.00324296	0.000455462	5.07636E-05	0	0	0	
0.203	-0.00424636	-0.00197248	0.000356781	5.41988E-05	0	0	0	
0.203167	-0.000829911	0.000930081	0.000219895	4.54473E-05	0	0	0	
0.203333	0.00151997	-0.000792281	0.00012831	3.61966E-05	0	0	0	
0.2035	-0.00925336	-0.00226008	0.000101331	2.79855E-05	0	0	0	
0.203667	-0.00281108	0.00568544	0.000223766	4.59773E-05	0	0	0	
0.203833	0.0241054	-0.00298391	0.000471648	6.82834E-05	0	0	0	
0.204	-0.0216482	0.00182851	0.000642741	0.000105534	0	0	0	
0.204167	0.00920573	0.00155148	0.000564524	0.000111123	0	0	0	
0.204333	-0.00194631	-0.00125908	0.000345067	8.95765E-05	0	0	0	
0.2045	0.002384	-0.00100153	0.000159789	5.8784E-05	0	0	0	
0.204667	0.010094	0.00179348	0.000114962	5.32238E-05	0	0	0	
0.204833	-0.00995462	-0.0025814	0.000129093	7.65522E-05	0	0	0	
0.205	0.00452056	0.00338486	0.000250011	8.2638E-05	0	0	0	
0.205167	0.00801538	-0.00235747	0.000363482	7.13685E-05	0	0	0	
0.205333	-0.0098017	-0.00205299	0.000367114	5.5244E-05	0	0	0	
0.2055	0.00796059	0.00689163	0.000273615	6.05985E-05	0	0	0	
0.205667	-0.00657203	-0.00665449	0.000172835	8.28024E-05	0	0	0	
0.205833	0.00278983	0.00447406	0.000139224	0.000113054	0	0	0	
0.206	-0.00166344	-0.00356216	0.000126387	0.00011554	0	0	0	
0.206167	-7.57339E-05	0.00343162	0.000107622	0.000118323	0	0	0	
0.206333	-0.00238621	-0.00350338	0.000132427	9.84957E-05	0	0	0	
0.2065	0.00786373	0.00263666	0.000150058	8.58809E-05	0	0	0	
0.206667	-0.0155046	-0.00204703	0.00018616	5.96266E-05	0	0	0	
0.206833	0.0121836	-8.21282E-05	0.000212705	6.10889E-05	0	0	0	
0.207	-0.00811419	0.00651927	0.000219312	7.20161E-05	0	0	0	
0.207167	0.00751145	-0.00716385	0.000211058	9.70733E-05	0	0	0	
0.207333	-0.0039103	0.00281838	0.000173771	0.00012161	0	0	0	
0.2075	0.00393917	0.0036013	0.000134617	0.00014253	0	0	0	
0.207667	-0.00971087	-0.00556341	0.000118224	0.000130461	0	0	0	
0.207833	0.0183665	0.00440571	0.000198112	0.000124404	0	0	0	
0.208	-0.021131	0.00083036	0.000316701	0.00011484	0	0	0	
0.208167	0.0189428	-0.0031552	0.000401638	0.000104044	0	0	0	
0.208333	-0.00850712	-0.000830371	0.000356478	6.82142E-05	0	0	0	
0.2085	0.000356107	0.00115242	0.000247682	3.50169E-05	0	0	0	
0.208667	-0.00210763	0.000148091	0.000138977	2.06184E-05	0	0	0	
0.208833	0.0108495	0.000982403	0.000122395	1.55485E-05	0	0	0	
0.209	-0.00818894	0.00169817	0.000193248	2.00271E-05	0	0	0	
0.209167	0.0127234	-0.00107255	0.000289933	3.17409E-05	0	0	0	
0.209333	-0.0174914	0.000747085	0.000351989	5.47128E-05	0	0	0	
0.2095	0.0145301	0.0014565	0.000353477	9.4528E-05	0	0	0	
0.209667	-0.00474926	-0.00325394	0.000294138	0.000118676	0	0	0	
0.209833	0.00178699	0.0012282	0.000184359	0.000101284	0	0	0	
0.21	-0.00482191	0.00241082	0.000117389	7.75727E-05	0	0	0	
0.210167	0.00655793	-0.00690373	0.000110149	6.76427E-05	0	0	0	
0.210333	-0.000428457	0.00277901	0.000144622	8.19054E-05	0	0	0	
0.2105	0.00421712	-0.000274063	0.000187951	7.74347E-05	0	0	0	
0.210667	-0.0075133	0.00126424	0.000234843	6.23191E-05	0	0	0	
0.210833	0.00905149	-0.00228799	0.000245701	5.1216E-05	0	0	0	
0.211	-0.0073161	0.0021026	0.000213338	4.11515E-05	0	0	0	
0.211167	0.00448073	-0.00432261	0.000154313	4.78836E-05	0	0	0	
0.211333	0.00551001	0.00348961	0.000119671	6.37851E-05	0	0	0	
0.2115	-0.000642956	0.000151701	0.00012265	5.88604E-05	0	0	0	
0.211667	-0.00425313	0.000893571	0.000186644	6.06004E-05	0	0	0	
0.211833	0.00566061	0.0011118	0.00023685	3.93096E-05	0	0	0	
0.212	-0.00279985	-4.11291E-05	0.000228044	4.67037E-05	0	0	0	
0.212167	0.00569254	-0.00535091	0.000184431	5.47564E-05	0	0	0	
0.212333	-0.00976417	0.00558017	0.000194543	8.68543E-05	0	0	0	
0.2125	0.0122762	-0.0020659	0.000200377	9.81487E-05	0	0	0	
0.212667	-0.00413241	0.00144444	0.000206239	9.22881E-05	0	0	0	
0.212833	-0.00344764	0.000267953	0.000131623	7.16918E-05	0	0	0	
0.213	0.00279782	-0.00130439	0.000110808	5.3598E-05	0	0	0	
0.213167	-0.00298522	0.00155327	7.91635E-05	3.95872E-05	0	0	0	
0.213333	0.00427674	0.00030506	0.000123466	5.80536E-05	0	0	0	
0.2135	0.00315914	-0.00222431	0.00021709	9.96653E-05	0	0	0	
0.213667	-0.0180393	0.0030981	0.000337231	0.000109271	0	0	0	
0.213833	0.0167556	-0.000352062	0.000405634	8.77606E-05	0	0	0	
0.214	-0.00810583	-0.000822595	0.000350409	4.37947E-05	0	0	0	
0.214167	-0.000431552	8.92591E-05	0.000243049	3.08994E-05	0	0	0	
0.214333	0.00478547	0.000153907	0.000128401	2.32239E-05	0	0	0	
0.2145	-0.00594298	2.97042E-05	9.81609E-05	2.94541E-05	0	0	0	
0.214667	0.00874211	0.00238799	0.000110752	2.85953E-05	0	0	0	
0.214833	-0.00509119	-0.00150492	0.000182965	4.28481E-05	0	0	0	
0.215	0.00181807	-0.00265956	0.000277368	5.72032E-05	0	0	0	
0.215167	0.00557653	0.00141807	0.000331759	6.42523E-05	0	0	0	
0.215333	-0.00566254	0.00089966	0.000293638	5.52104E-05	0	0	0	
0.2155	0.00554216	-0.00251876	0.000198703	4.09968E-05	0	0	0	
0.215667	-0.00897515	0.0035142	0.000144877	4.72579E-05	0	0	0	
0.215833	0.00920206	-0.00138857	0.000147403	4.77761E-05	0	0	0	
0.216	0.00720054	0.00088822	0.000225636	4.57488E-05	0	0	0	
0.216167	-0.0169265	-0.00156801	0.000281606	4.20714E-05	0	0	0	
0.216333	0.00910917	0.00129835	0.000296851	3.85115E-05	0	0	0	
0.2165	0.00164916	0.00292292	0.000268959	4.3748E-05	0	0	0	
0.216667	-0.0122055	-0.00453937	0.000252889	6.63982E-05	0	0	0	
0.216833	0.0197902	0.00901559	0.000324471	9.3658E-05	0	0	0	
0.217	-0.0296698	-0.00602693	0.000397699	0.000126602	0	0	0	
0.217167	0.0208997	0.00285405	0.000463501	0.000121761	0	0	0	
0.217333	-0.00277076	-0.000523021	0.000467122	0.000105286	0	0	0	
0.2175	-0.00359282	0.00231007	0.000359324	7.61823E-05	0	0	0	
0.217667	-0.00590631	-0.00370179	0.000248156	7.87735E-05	0	0	0	
0.217833	0.0111724	0.00689654	0.000172512	9.81095E-05	0	0	0	
0.218	0.000617627	-0.00455417	0.000168664	0.000132811	0	0	0	
0.218167	0.00377886	0.000916868	0.000180106	0.000128436	0	0	0	
0.218333	-0.0146806	-0.000188084	0.000232289	0.000115893	0	0	0	
0.2185	0.0117352	0.000591329	0.000278406	8.48597E-05	0	0	0	
0.218667	-0.00488795	-0.00176107	0.000265932	7.23299E-05	0	0	0	
0.218833	0.00867352	0.00561122	0.000199413	7.09781E-05	0	0	0	
0.219	-0.00426764	-0.00383263	0.00017072	7.9653E-05	0	0	0	
0.219167	-0.00375905	-0.00125415	0.000154331	7.38486E-05	0	0	0	
0.219333	0.00291959	0.00215282	0.000129388	5.95491E-05	0	0	0	
0.2195	0.00735657	-0.00087505	0.000209056	6.46043E-05	0	0	0	
0.219667	-0.0130822	-0.0011708	0.000298547	7.419E-05	0	0	0	
0.219833	0.00290245	0.00155093	0.000313548	6.95235E-05	0	0	0	
0.22	0.0149341	-0.00129094	0.00022114	4.58517E-05	0	0	0	
0.220167	-0.0177714	0.00249077	0.00021847	3.53063E-05	0	0	0	
0.220333	-0.00952312	0.00314139	0.000316224	4.59157E-05	0	0	0	
0.2205	0.0165836	-0.00435865	0.000390845	5.40422E-05	0	0	0	
0.220667	-0.00587782	0.000704964	0.000346437	7.97853E-05	0	0	0	
0.220833	0.00260395	0.00350016	0.000231806	9.20619E-05	0	0	0	
0.221	-0.00872427	-0.00437326	0.000140122	8.968E-05	0	0	0	
0.221167	0.0115726	0.00367971	0.000138936	9.09893E-05	0	0	0	
0.221333	-0.00996001	-0.000410003	0.000180589	9.42571E-05	0	0	0	
0.2215	0.0012458	-0.00143745	0.000186571	9.16797E-05	0	0	0	
0.221667	0.00500205	0.000118083	0.000132386	5.67749E-05	0	0	0	
0.221833	-0.00286899	-0.000770944	0.000108271	3.6223E-05	0	0	0	
0.222	-0.0017075	-0.00175305	0.000119931	4.27652E-05	0	0	0	
0.222167	0.00855739	0.00794504	0.000180301	7.23549E-05	0	0	0	
0.222333	-0.0102058	-0.00291561	0.000259668	8.53514E-05	0	0	0	
0.2225	0.0172294	0.00118018	0.000324054	9.33274E-05	0	0	0	
0.222667	-0.0159593	-0.000136231	0.000340039	7.45443E-05	0	0	0	
0.222833	0.00638003	0.00203594	0.000297549	0.000101589	0	0	0	
0.223	0.00315184	-0.00371407	0.000225571	0.000104903	0	0	0	
0.223167	0.00127101	0.00156443	0.000166367	0.000105394	0	0	0	
0.223333	-0.0123	0.00183283	0.000157268	6.71497E-05	0	0	0	
0.2235	0.0104123	-0.00115605	0.000178497	4.32155E-05	0	0	0	
0.223667	0.00198898	0.00235956	0.000164918	3.92039E-05	0	0	0	
0.223833	-0.00188382	-0.00169321	0.00013173	4.44378E-05	0	0	0	
0.224	-0.00234356	0.000762346	0.000135232	6.34501E-05	0	0	0	
0.224167	0.00415039	0.00163447	0.000151839	8.16569E-05	0	0	0	
0.224333	-0.00281159	-0.00178645	0.000142631	7.33626E-05	0	0	0	
0.2245	0.00422581	0.0019084	0.000132755	5.5759E-05	0	0	0	
0.224667	-0.00500574	-0.00205831	0.000203306	4.55878E-05	0	0	0	
0.224833	0.0122814	0.00277785	0.00029713	5.61E-05	0	0	0	
0.225	-0.0153574	-0.00226932	0.000344245	6.54543E-05	0	0	0	
0.225167	0.00879029	-2.03617E-06	0.000303089	5.70824E-05	0	0	0	
0.225333	0.000490877	0.000860281	0.000209177	4.45479E-05	0	0	0	
0.2255	-0.00448263	0.000202983	0.000114293	4.22833E-05	0	0	0	
0.225667	0.00697779	-2.81161E-05	0.00011821	7.06375E-05	0	0	0	
0.225833	-0.00375649	-0.000295157	0.000187349	0.000112922	0	0	0	
0.226	-0.00137633	-0.0027116	0.000283467	0.000147488	0	0	0	
0.226167	0.00415305	0.00137789	0.00032595	0.000155515	0	0	0	
0.226333	-0.00567802	-0.000959618	0.000305542	0.000126974	0	0	0	
0.2265	0.00259927	-0.000124454	0.000228801	7.66856E-05	0	0	0	
0.226667	1.99591E-05	0.00125577	0.000140197	3.7201E-05	0	0	0	
0.226833	0.00232641	-0.00631313	0.000109411	3.62471E-05	0	0	0	
0.227	-0.00646001	0.00321102	0.000123754	6.55453E-05	0	0	0	
0.227167	-0.00117825	-0.0010885	0.000125302	9.16335E-05	0	0	0	
0.227333	0.00507468	-0.000439704	0.000122496	9.02486E-05	0	0	0	
0.2275	0.00216701	-0.000590474	0.000146393	6.03121E-05	0	0	0	
0.227667	-0.0118159	0.00100728	0.000188487	3.23729E-05	0	0	0	
0.227833	0.0126366	-0.00298891	0.000230696	2.21926E-05	0	0	0	
0.228	-0.0038398	0.004433	0.00021366	4.69849E-05	0	0	0	
0.228167	-0.00588293	-0.00412078	0.000160092	7.1535E-05	0	0	0	
0.228333	0.00654186	0.0044204	0.000137361	8.60605E-05	0	0	0	
0.2285	-0.000983433	-0.0021383	0.000144348	7.83806E-05	0	0	0	
0.228667	0.000746383	7.08328E-06	0.000159364	5.58668E-05	0	0	0	
0.228833	0.00204966	-0.000698469	0.000160837	3.73238E-05	0	0	0	
0.229	-0.00862825	0.00283394	0.000242619	4.7813E-05	0	0	0	
0.229167	0.0201657	-0.00327647	0.000342512	8.7014E-05	0	0	0	
0.229333	-0.016719	0.00508203	0.000389177	0.00011174	0	0	0	
0.2295	0.00483657	-0.00277018	0.000331344	0.000106004	0	0	0	
0.229667	-0.000315128	-0.00178588	0.000229754	7.99177E-05	0	0	0	
0.229833	-0.00294326	0.00119227	0.000144131	6.1137E-05	0	0	0	
0.23	0.0118217	0.0011413	0.000126689	9.45993E-05	0	0	0	
0.230167	-0.0215374	-0.00841358	0.00020307	0.00012579	0	0	0	
0.230333	-0.0114171	0.00303828	0.000372413	0.000133323	0	0	0	
0.2305	0.0256036	-0.00216502	0.000538829	0.00013972	0	0	0	
0.230667	-0.0147653	-9.89783E-06	0.000577477	0.000138775	0	0	0	
0.230833	0.00424812	0.00233555	0.000431719	0.000144666	0	0	0	
0.231	-0.00151862	-0.0031835	0.00021434	9.37132E-05	0	0	0	
0.231167	0.00463326	-0.00155929	9.97731E-05	6.44533E-05	0	0	0	
0.231333	-0.00698712	0.00406854	9.13851E-05	7.14393E-05	0	0	0	
0.2315	-0.00112323	-0.00674393	0.000119999	8.97212E-05	0	0	0	
0.231667	0.00828612	0.0046807	0.000152529	0.000126942	0	0	0	
0.231833	-0.00191134	-7.19933E-05	0.000185004	0.000128612	0	0	0	
0.232	-0.00249003	-0.000531068	0.000192708	0.000114914	0	0	0	
0.232167	-0.00176321	-0.000241121	0.000142215	6.76859E-05	0	0	0	
0.232333	0.00375982	-0.00185716	7.74749E-05	3.63309E-05	0	0	0	
0.2325	0.00129727	0.00198135	7.28242E-05	3.34846E-05	0	0	0	
0.232667	-0.00247931	-0.00276011	0.000106457	4.33545E-05	0	0	0	
0.232833	-0.00179019	0.00092625	0.000110323	5.62205E-05	0	0	0	
0.233	0.00027539	0.00198822	8.54602E-05	4.479E-05	0	0	0	
0.233167	0.00726406	-0.0012229	8.53264E-05	4.80191E-05	0	0	0	
0.233333	-0.0156228	-0.0067976	0.00015497	0.000107316	0	0	0	
0.2335	0.0050207	0.00853361	0.000236773	0.000190916	0	0	0	
0.233667	0.00529666	-0.00365209	0.000217464	0.000209498	0	0	0	
0.233833	-0.00323104	0.00097948	0.000195262	0.000164941	0	0	0	
0.234	-0.0039795	-0.000118403	0.000148302	0.000104816	0	0	0	
0.234167	0.00534902	-0.00101866	0.000159089	6.55915E-05	0	0	0	
0.234333	-0.00649935	0.00336968	0.000130474	4.54681E-05	0	0	0	
0.2345	0.00533573	-0.00357566	0.000131925	6.45447E-05	0	0	0	
0.234667	-0.00979811	0.00408981	0.000173962	0.000120743	0	0	0	
0.234833	0.0110456	-0.00195391	0.000259419	0.000157345	0	0	0	
0.235	-0.0118343	0.0040916	0.000269587	0.000161038	0	0	0	
0.235167	0.00446072	-0.000414809	0.00023945	0.000126939	0	0	0	
0.235333	-0.00250196	-0.000886705	0.000144298	8.61148E-05	0	0	0	
0.2355	0.00348558	0.000135766	8.89528E-05	4.08521E-05	0	0	0	
0.235667	-0.000802058	-0.00165138	5.69335E-05	2.82036E-05	0	0	0	
0.235833	-0.00187665	0.00118445	5.57138E-05	2.94451E-05	0	0	0	
0.236	-0.00349706	-0.00254758	0.000118805	3.69084E-05	0	0	0	
0.236167	0.00783617	0.00167428	0.000178634	3.67777E-05	0	0	0	
0.236333	-0.00383125	-0.000187573	0.00019136	4.30614E-05	0	0	0	
0.2365	-0.00188247	0.000419137	0.000130414	3.72976E-05	0	0	0	
0.236667	0.00482685	-0.00165102	9.11926E-05	2.89261E-05	0	0	0	
0.236833	-0.0020413	0.00355089	0.000137352	2.95776E-05	0	0	0	
0.237	5.50724E-05	-0.00308745	0.000203459	4.59025E-05	0	0	0	
0.237167	0.00503282	0.00221253	0.000249659	6.1473E-05	0	0	0	
0.237333	-0.00556392	-0.00176756	0.000245112	6.19697E-05	0	0	0	
0.2375	0.0053864	0.0023059	0.000196868	5.07691E-05	0	0	0	
0.237667	-0.00215041	0.000248919	0.000134051	3.7791E-05	0	0	0	
0.237833	-0.00250778	-0.00128975	6.81183E-05	3.5791E-05	0	0	0	
0.238	0.00743114	-0.00239991	6.834E-05	3.84255E-05	0	0	0	
0.238167	-0.00781111	0.00394201	0.000110652	5.75754E-05	0	0	0	
0.238333	0.00507713	-0.00353068	0.000209976	6.87697E-05	0	0	0	
0.2385	0.00311035	0.00151684	0.000272746	6.84401E-05	0	0	0	
0.238667	-0.00611377	-0.000708713	0.000260398	4.79145E-05	0	0	0	
0.238833	0.0044485	-0.000894954	0.000190771	2.61663E-05	0	0	0	
0.239	0.000322206	-0.000218165	0.00012593	2.24367E-05	0	0	0	
0.239167	-0.0011163	0.000151696	0.000125626	1.79942E-05	0	0	0	
0.239333	-0.00563267	-0.00132344	0.000163118	3.17876E-05	0	0	0	
0.2395	0.00665313	0.00142215	0.000160608	3.62714E-05	0	0	0	
0.239667	0.0179996	-0.00130077	0.000253108	4.05172E-05	0	0	0	
0.239833	-0.0466445	0.000540336	0.000350253	3.21943E-05	0	0	0	
0.24	0.0479178	-0.00198373	0.00085575	2.48991E-05	0	0	0	
0.240167	-0.0814909	0.0192991	0.00187182	7.83069E-05	0	0	0	
0.240333	0.00684058	-0.0256128	0.00267626	0.000322862	0	0	0	
0.2405	0.0169416	0.00584828	0.00260904	0.000373176	0	0	0	
0.240667	-0.0148158	0.00608616	0.0017241	0.000377311	0	0	0	
0.240833	-0.00513318	-0.0114966	0.000814404	0.000204389	0	0	0	
0.241	0.0431157	0.00848219	0.000473278	0.000225514	0	0	0	
0.241167	-0.0672353	-0.0101069	0.000602252	0.000270946	0	0	0	
0.241333	0.0470454	0.0116245	0.00114461	0.000349642	0	0	0	
0.2415	-0.0364846	-0.0170987	0.00152637	0.000468713	0	0	0	
0.241667	0.038377	0.0161016	0.00140731	0.000520834	0	0	0	
0.241833	-0.0386138	-0.00683779	0.00103465	0.00046181	0	0	0	
0.242	0.0222922	0.00211092	0.000734042	0.000343238	0	0	0	
0.242167	-0.00623841	-0.00839171	0.000669745	0.00027424	0	0	0	
0.242333	-0.00556038	0.00853406	0.000679747	0.000240537	0	0	0	
0.2425	0.0273646	-0.00094431	0.000760143	0.000191902	0	0	0	
0.242667	-0.0351454	0.000577422	0.000781786	0.000116265	0	0	0	
0.242833	0.0158955	-0.00183103	0.000692962	7.82721E-05	0	0	0	
0.243	-0.00466926	0.000739732	0.000485019	5.87776E-05	0	0	0	
0.243167	0.0197806	0.00177504	0.000398522	9.65135E-05	0	0	0	
0.243333	-0.0216386	0.000731016	0.000377483	0.000113314	0	0	0	
0.2435	0.00442392	-0.00505301	0.000391016	0.000132884	0	0	0	
0.243667	0.00808261	0.00463627	0.000288053	0.000125152	0	0	0	
0.243833	-0.00547309	-3.60132E-05	0.000206779	0.000144725	0	0	0	
0.244	0.00197331	-0.000605253	0.000203421	0.000149743	0	0	0	
0.244167	0.00302589	-0.00454933	0.000262023	0.00012292	0	0	0	
0.244333	-0.00502139	0.00301093	0.0003032	8.80116E-05	0	0	0	
0.2445	0.000873033	-0.00129275	0.00025956	7.57939E-05	0	0	0	
0.244667	0.00446682	0.00444219	0.000196258	7.90611E-05	0	0	0	
0.244833	-0.00155338	-0.00448044	0.000191249	7.6668E-05	0	0	0	
0.245	-0.00135967	0.00232812	0.000257975	7.43443E-05	0	0	0	
0.245167	0.00623626	-0.00291029	0.000344594	6.87941E-05	0	0	0	
0.245333	-0.0142481	0.00220996	0.000406225	5.99886E-05	0	0	0	
0.2455	0.0161343	0.00195773	0.000403415	4.82019E-05	0	0	0	
0.245667	-0.00206764	-0.00271045	0.00032157	4.82203E-05	0	0	0	
0.245833	-0.0113518	-0.00105263	0.000203925	9.18915E-05	0	0	0	
0.246	0.00610087	0.00354821	0.000198985	0.000141981	0	0	0	
0.246167	0.00981213	-0.00240857	0.000318112	0.000160381	0	0	0	
0.246333	-0.0124959	0.00291412	0.00038914	0.000127041	0	0	0	
0.2465	0.00158197	-0.00303698	0.000327235	8.64232E-05	0	0	0	
0.246667	0.00434448	-0.00099316	0.000196076	7.62011E-05	0	0	0	
0.246833	0.00244636	0.00503738	0.000207237	7.29448E-05	0	0	0	
0.247	-0.00633953	-0.00297407	0.00028665	7.73784E-05	0	0	0	
0.247167	0.00691582	0.00157196	0.000333998	8.34178E-05	0	0	0	
0.247333	-0.00819907	-0.00149264	0.000303151	7.97936E-05	0	0	0	
0.2475	0.0130319	0.000736329	0.000275185	7.13562E-05	0	0	0	
0.247667	-0.00702667	-0.00116941	0.000248093	5.25771E-05	0	0	0	
0.247833	-0.00501914	3.94758E-05	0.000199958	4.14369E-05	0	0	0	
0.248	0.00898652	0.00105632	0.000154233	4.99893E-05	0	0	0	
0.248167	0.00205967	-0.00229699	0.000200494	6.21227E-05	0	0	0	
0.248333	-0.00712399	0.000247677	0.000245041	6.64025E-05	0	0	0	
0.2485	0.00180256	-0.00114943	0.00023878	4.6351E-05	0	0	0	
0.248667	0.00222404	0.00152033	0.000194723	3.12416E-05	0	0	0	
0.248833	0.00393657	-0.00145808	0.000229509	2.56456E-05	0	0	0	
0.249	-0.00717179	0.000479047	0.000274907	3.12362E-05	0	0	0	
0.249167	0.00366311	7.37682E-05	0.000251817	2.55404E-05	0	0	0	
0.249333	0.000587599	-0.00119207	0.000156424	2.14917E-05	0	0	0	
0.2495	-0.00153569	0.000608311	0.000116186	1.91072E-05	0	0	0	
0.249667	0.00439384	-0.00035926	0.000137339	1.67995E-05	0	0	0	
0.249833	-0.00742348	0.000736507	0.000185441	1.84648E-05	0	0	0	
0.25	0.00509204	-0.00115891	0.00023267	2.85392E-05	0	0	0	
0.250167	0.00456173	0.000142702	0.000288343	4.09731E-05	0	0	0	
0.250333	-0.00801813	-0.00124463	0.000308222	4.3411E-05	0	0	0	
0.2505	0.00551394	0.0010593	0.000265796	3.20374E-05	0	0	0	
0.250667	-0.00204085	-0.00165633	0.000188235	2.72797E-05	0	0	0	
0.250833	0.0036747	0.00246675	0.000147432	3.25584E-05	0	0	0	
0.251	-0.00411131	-0.00507604	0.000142044	5.13768E-05	0	0	0	
0.251167	0.00274145	0.00349712	0.000144842	6.70532E-05	0	0	0	
0.251333	-0.00193006	-0.00242635	0.000163407	7.16077E-05	0	0	0	
0.2515	0.00557915	0.00144698	0.000222405	6.66274E-05	0	0	0	
0.251667	-0.00714455	-0.00290518	0.000292223	6.77245E-05	0	0	0	
0.251833	0.0052078	0.00287371	0.000311966	7.16965E-05	0	0	0	
0.252	-0.00254775	-0.00152501	0.000283026	6.78035E-05	0	0	0	
0.252167	0.00453585	0.000526141	0.00027536	5.55458E-05	0	0	0	
0.252333	-0.00739425	-0.000633644	0.000304929	4.67313E-05	0	0	0	
0.2525	0.00420457	-0.00110206	0.000309484	4.18901E-05	0	0	0	
0.252667	0.00182557	0.00359451	0.000269468	4.58402E-05	0	0	0	
0.252833	0.00162449	-0.00338475	0.000271552	6.04113E-05	0	0	0	
0.253	-0.00849284	0.000901877	0.000331083	8.23612E-05	0	0	0	
0.253167	0.0068088	-0.000261432	0.000359025	7.99052E-05	0	0	0	
0.253333	-0.000425994	0.00223008	0.000296368	5.82425E-05	0	0	0	
0.2535	0.00248779	-0.00173512	0.000248411	4.92448E-05	0	0	0	
0.253667	-0.00856146	-0.00197197	0.000291081	6.12359E-05	0	0	0	
0.253833	0.0115257	0.00146921	0.00036061	7.2731E-05	0	0	0	
0.254	-0.0123495	0.0048839	0.000376782	9.13064E-05	0	0	0	
0.254167	0.0146568	-0.00558876	0.000342072	9.66618E-05	0	0	0	
0.254333	-0.0103198	-0.000108912	0.000283526	0.000113477	0	0	0	
0.2545	-0.00951908	0.00350863	0.000289253	0.000115429	0	0	0	
0.254667	0.0228622	-0.00319804	0.000274943	0.00013214	0	0	0	
0.254833	-0.00818056	0.00741265	0.000408778	0.000150258	0	0	0	
0.255	-0.0106004	-0.00866319	0.00055073	0.000165481	0	0	0	
0.255167	0.0133048	0.00125444	0.000647021	0.00013962	0	0	0	
0.255333	-0.0185579	0.00078216	0.000623852	9.55232E-05	0	0	0	
0.2555	0.0295479	-1.04268E-05	0.000551553	7.03348E-05	0	0	0	
0.255667	-0.0188595	0.00021499	0.000510528	9.43071E-05	0	0	0	
0.255833	-0.00559435	-0.00223739	0.000455958	0.000123418	0	0	0	
0.256	0.00984524	0.00134149	0.000311484	0.00013459	0	0	0	
0.256167	-0.000137711	-0.00127869	0.000265136	0.000123567	0	0	0	
0.256333	0.00297169	0.00357434	0.000192288	0.000104868	0	0	0	
0.2565	-0.00811999	-0.00295993	0.000204415	8.40126E-05	0	0	0	
0.256667	0.00170375	-0.000775505	0.000225179	7.95601E-05	0	0	0	
0.256833	0.00867918	6.99255E-05	0.000323876	6.07476E-05	0	0	0	
0.257	-0.0102113	0.00300642	0.000377683	4.61301E-05	0	0	0	
0.257167	0.00549581	7.66421E-05	0.000328155	3.3943E-05	0	0	0	
0.257333	-0.00211252	-0.00150109	0.000226471	3.99098E-05	0	0	0	
0.2575	0.00448483	-0.0013782	0.000189004	5.23368E-05	0	0	0	
0.257667	-0.00736672	8.26885E-05	0.000193489	3.4256E-05	0	0	0	
0.257833	0.00492311	0.0029542	0.000184792	4.58608E-05	0	0	0	
0.258	0.00462013	7.45724E-05	0.000131946	3.61892E-05	0	0	0	
0.258167	-0.00472723	-0.00359273	0.000119483	4.72856E-05	0	0	0	
0.258333	-0.000401237	0.000787188	0.00017107	5.54117E-05	0	0	0	
0.2585	-0.00134582	0.00204846	0.00018471	6.74154E-05	0	0	0	
0.258667	0.0126298	0.000444949	0.000170375	5.9344E-05	0	0	0	
0.258833	-0.00876261	0.000573464	0.000170859	4.1978E-05	0	0	0	
0.259	-0.00686412	-0.00230756	0.000305508	3.55418E-05	0	0	0	
0.259167	0.0150971	0.000554845	0.000383833	3.8393E-05	0	0	0	
0.259333	-0.00600095	0.00133615	0.000350235	3.14701E-05	0	0	0	
0.2595	-0.00305026	-0.000419203	0.000209275	2.75647E-05	0	0	0	
0.259667	0.00407663	0.00149506	0.000129299	3.31753E-05	0	0	0	
0.259833	-0.000563666	-0.00144883	0.00012744	4.58288E-05	0	0	0	
0.26	0.0045179	-0.000783405	0.000134828	6.79499E-05	0	0	0	
0.260167	-0.00766365	0.00201774	0.000155622	8.60744E-05	0	0	0	
0.260333	0.000247793	9.41625E-05	0.000246901	8.53615E-05	0	0	0	
0.2605	0.0119401	0.000792567	0.000374704	7.54723E-05	0	0	0	
0.260667	-0.00646239	-0.002742	0.000379926	7.78864E-05	0	0	0	
0.260833	-0.00613027	0.00193367	0.000264016	7.48523E-05	0	0	0	
0.261	0.00748102	0.000505299	0.000166874	5.5117E-05	0	0	0	
0.261167	0.00243013	-0.000841113	0.000229995	3.48264E-05	0	0	0	
0.261333	-0.00294529	-0.000755862	0.000279359	4.02013E-05	0	0	0	
0.2615	-0.00497182	-1.24424E-05	0.000242244	4.60098E-05	0	0	0	
0.261667	0.00496711	0.000187679	0.000185705	4.81597E-05	0	0	0	
0.261833	0.00751624	0.00087824	0.000260298	5.05472E-05	0	0	0	
0.262	-0.0128328	-0.000212863	0.000375829	5.2807E-05	0	0	0	
0.262167	0.00719622	-0.000400434	0.000386599	4.80298E-05	0	0	0	
0.262333	-0.000121794	0.000583197	0.000272588	4.13166E-05	0	0	0	
0.2625	0.00167415	-0.00045223	0.000184405	3.83557E-05	0	0	0	
0.262667	-0.00277736	-0.000165249	0.000155421	4.18167E-05	0	0	0	
0.262833	-0.000750219	-0.000238361	0.00015503	5.14239E-05	0	0	0	
0.263	0.00260738	-0.000939346	0.000171272	6.47376E-05	0	0	0	
0.263167	0.00334033	0.00186294	0.000234736	6.91374E-05	0	0	0	
0.263333	-0.00474137	0.000255128	0.000291737	5.41672E-05	0	0	0	
0.2635	-0.000485842	-0.000704255	0.000256273	3.14587E-05	0	0	0	
0.263667	0.00433734	0.000256745	0.000179521	1.77534E-05	0	0	0	
0.263833	0.00176663	-0.000444773	0.000179014	2.06735E-05	0	0	0	
0.264	-0.00422974	0.000805248	0.000240056	2.75719E-05	0	0	0	
0.264167	0.00259294	0.000154105	0.00026598	3.60765E-05	0	0	0	
0.264333	-0.00223353	-0.000368259	0.00024942	4.79223E-05	0	0	0	
0.2645	0.00375985	0.000994339	0.000229937	5.26607E-05	0	0	0	
0.264667	-0.000140242	-0.000203233	0.000204456	4.61557E-05	0	0	0	
0.264833	0.000621376	0.00153185	0.00018208	3.6232E-05	0	0	0	
0.265	0.000570391	-0.00149065	0.000169735	3.49632E-05	0	0	0	
0.265167	-0.0126818	-0.00017669	0.000170259	3.40084E-05	0	0	0	
0.265333	0.0260232	0.00518381	0.000228693	3.71887E-05	0	0	0	
0.2655	-0.00335254	-0.00540676	0.00039152	6.76903E-05	0	0	0	
0.265667	-0.0372099	0.00494657	0.0007184	9.74293E-05	0	0	0	
0.265833	0.0486922	-0.00694251	0.000855969	0.000117173	0	0	0	
0.266	-0.00709118	0.00539296	0.000938386	0.000120448	0	0	0	
0.266167	-0.0444534	-0.00162025	0.000969057	0.000113103	0	0	0	
0.266333	0.0566953	0.00566875	0.00101654	0.000100111	0	0	0	
0.2665	-0.0276655	-0.00774254	0.00102274	0.00010135	0	0	0	
0.266667	-0.00918304	0.00507045	0.00103802	0.000112755	0	0	0	
0.266833	0.0401549	-0.00480029	0.00109688	0.000123517	0	0	0	
0.267	-0.043902	0.00336021	0.0010275	0.000108055	0	0	0	
0.267167	0.0104582	0.00132568	0.000858002	8.07051E-05	0	0	0	
0.267333	0.027582	0.000202488	0.000783542	6.91478E-05	0	0	0	
0.2675	-0.0333771	-0.00216646	0.00071122	6.28547E-05	0	0	0	
0.267667	0.0130604	-0.000362978	0.000681452	6.40233E-05	0	0	0	
0.267833	0.0146021	0.00272172	0.000673341	6.94667E-05	0	0	0	
0.268	-0.0287754	-0.000820462	0.000705961	5.45121E-05	0	0	0	
0.268167	0.0150662	0.00111071	0.000609095	5.83027E-05	0	0	0	
0.268333	0.0170977	-0.00362278	0.000530216	7.51489E-05	0	0	0	
0.2685	-0.0286347	0.00373938	0.000453689	9.59747E-05	0	0	0	
0.268667	0.00779402	-0.000886482	0.000542	9.49097E-05	0	0	0	
0.268833	0.0132816	-0.000806358	0.000581373	6.94466E-05	0	0	0	
0.269	-0.0133989	-0.00121471	0.000574648	8.10387E-05	0	0	0	
0.269167	0.00420647	0.00300639	0.000416642	0.000104173	0	0	0	
0.269333	0.00179624	-0.00109621	0.000187529	9.712E-05	0	0	0	
0.2695	-0.00326277	-0.00177091	7.98287E-05	5.77095E-05	0	0	0	
0.269667	-0.00129732	-0.00122036	8.76416E-05	4.96013E-05	0	0	0	
0.269833	0.00400579	0.00422466	0.0001381	7.37921E-05	0	0	0	
0.27	0.00155233	-0.000132665	0.000146976	8.16726E-05	0	0	0	
0.270167	0.00231595	-0.00309183	0.000166359	6.07931E-05	0	0	0	
0.270333	-0.0125743	0.000236643	0.000197038	5.87703E-05	0	0	0	
0.2705	-0.0145696	-0.000889569	0.000264199	6.20784E-05	0	0	0	
0.270667	0.0293794	0.00332966	0.000325673	6.80374E-05	0	0	0	
0.270833	0.0383698	-0.00353528	0.000856301	5.76893E-05	0	0	0	
0.271	-0.100133	0.0026116	0.00150737	9.58345E-05	0	0	0	
0.271167	0.0568142	-0.000293337	0.0018111	0.0001227	0	0	0	
0.271333	0.0171748	-0.00256533	0.00159687	0.000132186	0	0	0	
0.2715	-0.0200971	0.00250607	0.000956752	9.50804E-05	0	0	0	
0.271667	0.00304228	-0.000356797	0.000649546	7.80376E-05	0	0	0	
0.271833	-0.0145548	-0.00187121	0.000286802	5.95062E-05	0	0	0	
0.272	0.0295151	-0.000104976	0.000457532	7.66903E-05	0	0	0	
0.272167	0.00480518	0.00339445	0.000865219	7.55548E-05	0	0	0	
0.272333	-0.0303601	-0.00243899	0.00120482	8.26728E-05	0	0	0	
0.2725	0.011213	0.00604219	0.00103803	7.43295E-05	0	0	0	
0.272667	0.0167325	-0.00657672	0.000609328	8.65952E-05	0	0	0	
0.272833	-0.00488864	-0.0122613	0.000357602	0.00018747	0	0	0	
0.273	-0.0269411	0.0533227	0.000507917	0.000379123	0	0	0	
0.273167	0.0372893	-0.0546721	0.000558551	0.000786416	0	0	0	
0.273333	-0.0122787	0.0378216	0.000739854	0.000988833	0	0	0	
0.2735	-0.000575944	-0.0388052	0.000804884	0.00107167	0	0	0	
0.273667	-0.00377241	0.0342442	0.000729981	0.000889206	0	0	0	
0.273833	0.0142803	-0.0291408	0.000459286	0.000792534	0	0	0	
0.274	-0.00665638	0.0337883	0.000294971	0.000766367	0	0	0	
0.274167	0.00396844	-0.0394658	0.000306588	0.00091964	0	0	0	
0.274333	-0.0272563	0.0159251	0.000386993	0.00109115	0	0	0	
0.2745	0.0750274	-0.0219085	0.000532867	0.00106598	0	0	0	
0.274667	-0.0427035	0.0110162	0.000888969	0.000838929	0	0	0	
0.274833	-0.021383	-0.000474717	0.000999073	0.000542658	0	0	0	
0.275	0.0292555	-0.00447498	0.000967247	0.000391619	0	0	0	
0.275167	-0.0119422	0.000359853	0.00109805	0.000353951	0	0	0	
0.275333	-0.0218726	0.0154197	0.00129261	0.000416699	0	0	0	
0.2755	0.0464085	-0.025242	0.00124217	0.000484992	0	0	0	
0.275667	-0.0538479	0.0270904	0.000988756	0.000498467	0	0	0	
0.275833	0.0125532	-0.0245571	0.000745874	0.000482044	0	0	0	
0.276	0.0453898	0.0182309	0.000760248	0.000487049	0	0	0	
0.276167	-0.099059	-0.0023933	0.000880949	0.000475265	0	0	0	
0.276333	0.0682377	0.000340154	0.00121872	0.000410897	0	0	0	
0.2765	0.00463406	-0.00333013	0.00147328	0.000261956	0	0	0	
0.276667	-0.119243	0.000871835	0.00173509	0.000136875	0	0	0	
0.276833	0.127678	0.0119484	0.00229792	0.000112629	0	0	0	
0.277	-0.0884518	-0.00444082	0.00245595	0.00017483	0	0	0	
0.277167	0.0243619	0.000713882	0.00207896	0.000176381	0	0	0	
0.277333	0.000911096	-0.00629023	0.00106081	0.000155862	0	0	0	
0.2775	-0.0397957	0.00866347	0.00052011	0.000120224	0	0	0	
0.277667	0.0555588	-0.000664769	0.00049763	0.000118335	0	0	0	
0.277833	0.00955641	-0.00284151	0.00138751	0.000102126	0	0	0	
0.278	-0.0317427	0.000717566	0.00265478	8.7869E-05	0	0	0	
0.278167	0.065514	-0.00628127	0.00324015	0.000122885	0	0	0	
0.278333	-0.0287339	0.00146855	0.0027293	0.000132638	0	0	0	
0.2785	-0.0061907	0.00195564	0.00159712	0.000126685	0	0	0	
0.278667	-0.000763815	-0.00168907	0.000906913	8.43241E-05	0	0	0	
0.278833	-0.00599288	-0.00349621	0.000535173	9.8277E-05	0	0	0	
0.279	0.0477991	0.00579466	0.00044783	0.00014586	0	0	0	
0.279167	-0.0505911	-0.00531869	0.000552951	0.000165921	0	0	0	
0.279333	0.0179651	0.00623391	0.000871521	0.000159849	0	0	0	
0.2795	-0.0122404	-0.00416972	0.00112763	0.000111268	0	0	0	
0.279667	0.000844641	-2.02236E-05	0.00107054	0.000108208	0	0	0	
0.279833	0.010795	0.00588861	0.00083559	9.86432E-05	0	0	0	
0.28	-0.0169758	-0.00416499	0.000497868	0.000112751	0	0	0	
0.280167	-0.000583689	-0.00241893	0.000306713	0.000122704	0	0	0	
0.280333	0.0134527	0.00119204	0.000202668	0.000106585	0	0	0	
0.2805	-0.00757091	0.0047046	0.000221178	7.96044E-05	0	0	0	
0.280667	-0.00501469	-0.00232253	0.000344628	6.13361E-05	0	0	0	
0.280833	0.0107557	-0.00196704	0.000445322	8.42591E-05	0	0	0	
0.281	-0.00297142	-3.89843E-05	0.000378091	8.62058E-05	0	0	0	
0.281167	-0.00974854	0.00205115	0.000220956	7.09569E-05	0	0	0	
0.281333	-0.00675031	0.0044866	0.000174865	8.80095E-05	0	0	0	
0.2815	0.00853335	-0.00776733	0.000348414	0.000127001	0	0	0	
0.281667	0.00375626	0.00478054	0.000458953	0.00015945	0	0	0	
0.281833	-0.00701348	0.000170305	0.000573879	0.000152669	0	0	0	
0.282	-0.00604136	0.0037457	0.000608141	0.000113633	0	0	0	
0.282167	0.00594846	-0.00182405	0.00054533	9.06236E-05	0	0	0	
0.282333	-0.0222598	0.000945213	0.000530632	5.91148E-05	0	0	0	
0.2825	0.041316	0.000954255	0.000772373	9.21362E-05	0	0	0	
0.282667	-0.0483098	0.0051196	0.00132979	0.000119	0	0	0	
0.282833	0.0416801	-0.00698441	0.00136582	0.000156509	0	0	0	
0.283	0.0556633	0.00628477	0.00149291	0.000158009	0	0	0	
0.283167	-0.220032	-0.00138974	0.00189915	0.000133327	0	0	0	
0.283333	0.22079	0.00614085	0.00340027	0.00011243	0	0	0	
0.2835	-0.090281	0.0023037	0.00366658	0.000117397	0	0	0	
0.283667	0.0219082	0.000492633	0.00345691	0.000142509	0	0	0	
0.283833	0.0676269	-0.00120491	0.00260759	0.000124949	0	0	0	
0.284	-0.0910348	-0.00247561	0.00223307	7.92761E-05	0	0	0	
0.284167	0.0233199	0.00261803	0.00201516	4.70991E-05	0	0	0	
0.284333	0.0516052	0.0046498	0.00248341	4.98429E-05	0	0	0	
0.2845	-0.00881593	-0.00112568	0.00342743	8.60725E-05	0	0	0	
0.284667	0.0156551	-0.00380339	0.00348209	9.37842E-05	0	0	0	
0.284833	-0.00679114	0.000220617	0.00218243	8.31526E-05	0	0	0	
0.285	-0.0236615	0.00122389	0.00101768	3.99901E-05	0	0	0	
0.285167	0.0162871	-0.000510041	0.000447062	3.14119E-05	0	0	0	
0.285333	0.0391002	-0.00203402	0.000764791	5.00487E-05	0	0	0	
0.2855	-0.0664087	0.00159052	0.000805127	6.7815E-05	0	0	0	
0.285667	0.0190245	-4.48514E-05	0.0010824	6.04541E-05	0	0	0	
0.285833	0.0200291	-0.000201792	0.00103481	3.81797E-05	0	0	0	
0.286	-0.0138054	-0.00014618	0.000838096	2.3317E-05	0	0	0	
0.286167	0.00532028	-0.000346175	0.00050642	1.78585E-05	0	0	0	
0.286333	-0.00314368	-0.00101217	0.00019607	1.67059E-05	0	0	0	
0.2865	-0.00657907	-0.000650586	0.000120747	1.83657E-05	0	0	0	
0.286667	0.0124486	0.000537551	0.000123356	2.36978E-05	0	0	0	
0.286833	-0.0073281	0.0001492	0.000172084	2.33207E-05	0	0	0	
0.287	0.00526292	-0.000219063	0.000177731	1.89512E-05	0	0	0	
0.287167	-0.0111378	0.00148694	0.000182895	1.98626E-05	0	0	0	
0.287333	0.0116364	-0.000982294	0.000185943	2.38941E-05	0	0	0	
0.2875	-0.0138624	0.00158212	0.000249468	3.00815E-05	0	0	0	
0.287667	0.0129985	0.00145699	0.000312603	2.91417E-05	0	0	0	
0.287833	-0.00564884	0.00036899	0.000374882	2.77291E-05	0	0	0	
0.288	-0.00100559	2.31573E-05	0.00038967	3.05842E-05	0	0	0	
0.288167	-0.00677245	0.00229653	0.00033574	2.68862E-05	0	0	0	
0.288333	0.00839229	-0.00109488	0.00026557	3.48365E-05	0	0	0	
0.2885	-0.0067647	6.25291E-05	0.000228605	2.40213E-05	0	0	0	
0.288667	0.0136743	0.000943276	0.000236465	1.9311E-05	0	0	0	
0.288833	-0.0278367	0.000346714	0.000291701	1.48333E-05	0	0	0	
0.289	0.0236594	-0.0010166	0.000407205	2.14076E-05	0	0	0	
0.289167	7.83481E-05	-0.00145464	0.000614213	3.10198E-05	0	0	0	
0.289333	-0.012888	0.00136902	0.00071633	3.4529E-05	0	0	0	
0.2895	0.00882433	0.00513844	0.000622554	8.7279E-05	0	0	0	
0.289667	-0.00426705	-0.00679621	0.000398689	0.000124478	0	0	0	
0.289833	-0.00472791	0.00301297	0.000191401	0.000142609	0	0	0	
0.29	0.0181783	0.000445352	0.000159321	9.54729E-05	0	0	0	
0.290167	-0.00843473	0.00076729	0.00020797	5.73056E-05	0	0	0	
0.290333	-0.0204248	8.60352E-05	0.000365937	2.95049E-05	0	0	0	
0.2905	0.0179648	-0.00200801	0.000413942	1.88686E-05	0	0	0	
0.290667	0.0107594	0.00377273	0.000517282	4.30199E-05	0	0	0	
0.290833	-0.00237323	0.00189499	0.000448664	9.58407E-05	0	0	0	
0.291	-0.0495016	-0.00680754	0.000608457	0.000141034	0	0	0	
0.291167	0.0691778	0.00482588	0.000762917	0.000142384	0	0	0	
0.291333	-0.0635745	-0.00024639	0.00108423	0.000107571	0	0	0	
0.2915	0.06558	0.00134182	0.00122404	6.89134E-05	0	0	0	
0.291667	-0.0456936	-0.00173674	0.00131935	4.24709E-05	0	0	0	
0.291833	-0.0143456	-0.00132772	0.00132083	3.13402E-05	0	0	0	
0.292	0.0210074	0.000192778	0.00102372	2.83911E-05	0	0	0	
0.292167	0.0350092	0.00244889	0.000886631	3.83639E-05	0	0	0	
0.292333	-0.0591483	-0.00153081	0.000839718	4.04865E-05	0	0	0	
0.2925	0.0378878	0.000565287	0.00100574	4.10645E-05	0	0	0	
0.292667	-0.0191409	-0.000851444	0.000854887	2.57439E-05	0	0	0	
0.292833	0.0193117	-0.00139856	0.000607855	1.90446E-05	0	0	0	
0.293	-0.0137991	-0.00276301	0.000430808	4.45726E-05	0	0	0	
0.293167	0.0148667	0.00684268	0.00035265	8.83744E-05	0	0	0	
0.293333	-0.0344236	-0.00510757	0.00039305	0.000117125	0	0	0	
0.2935	0.0349596	0.00028084	0.000482604	0.000111973	0	0	0	
0.293667	0.0165775	-0.00138339	0.000774818	7.28769E-05	0	0	0	
0.293833	-0.0588406	7.02379E-05	0.000926486	4.87169E-05	0	0	0	
0.294	0.0349483	0.000631327	0.00101787	2.5614E-05	0	0	0	
0.294167	0.00171491	-0.000338252	0.000961333	4.29874E-05	0	0	0	
0.294333	0.00783925	-0.00295191	0.00071464	6.36092E-05	0	0	0	
0.2945	-0.0149679	0.00140071	0.000500015	6.94772E-05	0	0	0	
0.294667	0.00200698	-0.000159287	0.00025848	5.37609E-05	0	0	0	
0.294833	-0.0064321	0.00114081	0.00022236	2.79281E-05	0	0	0	
0.295	0.0294798	-0.00473423	0.000310615	3.60677E-05	0	0	0	
0.295167	-0.034935	0.00376377	0.000407744	5.64205E-05	0	0	0	
0.295333	-0.00863568	-0.00172359	0.000584275	8.53913E-05	0	0	0	
0.2955	0.0159985	-0.00292773	0.000457628	0.000104053	0	0	0	
0.295667	0.0307719	0.00559704	0.000599873	0.00011456	0	0	0	
0.295833	-0.0599871	-0.00720507	0.000716961	0.000114795	0	0	0	
0.296	0.0364851	-0.000100675	0.000947938	0.000126143	0	0	0	
0.296167	-0.0118361	0.00662507	0.000907825	0.000141977	0	0	0	
0.296333	-0.0122995	-0.00875851	0.000805304	0.000154258	0	0	0	
0.2965	0.0238538	0.00249448	0.000722622	0.000143204	0	0	0	
0.296667	-0.000234513	0.00340961	0.000488407	0.000136286	0	0	0	
0.296833	0.0143361	-0.0069062	0.000586122	0.0001361	0	0	0	
0.297	0.00508117	0.00359828	0.000659022	0.000132565	0	0	0	
0.297167	-0.00921678	0.00133618	0.000730569	9.47121E-05	0	0	0	
0.297333	0.027409	-0.00201689	0.000647661	6.75987E-05	0	0	0	
0.2975	-0.0548382	0.000868117	0.000774001	4.29829E-05	0	0	0	
0.297667	0.0634089	0.000874472	0.000937595	3.82316E-05	0	0	0	
0.297833	-0.0133412	-0.00215656	0.00104066	3.68255E-05	0	0	0	
0.298	-0.0123428	0.000772078	0.00109261	3.55094E-05	0	0	0	
0.298167	0.0503134	3.00619E-05	0.00128492	3.91578E-05	0	0	0	
0.298333	-0.0639245	-0.00241725	0.00123787	4.19883E-05	0	0	0	
0.2985	0.00145248	-0.00166716	0.00133076	5.49745E-05	0	0	0	
0.298667	0.0680231	-0.00107412	0.00145247	5.40839E-05	0	0	0	
0.298833	-0.0695431	-0.00109406	0.00155872	4.95904E-05	0	0	0	
0.299	0.0171107	-0.000873961	0.00147812	5.48005E-05	0	0	0	
0.299167	-0.00965888	0.00050219	0.00117587	6.33586E-05	0	0	0	
0.299333	-0.00574683	-0.00235329	0.00106328	5.86709E-05	0	0	0	
0.2995	0.0454865	-8.7248E-05	0.000907251	3.89326E-05	0	0	0	
0.299667	-0.0213476	0.000514893	0.000852828	3.94512E-05	0	0	0	
0.299833	-0.0531668	0.00131144	0.00106491	6.91888E-05	0	0	0	
0.3	0.060673	-0.00374365	0.00109018	9.08117E-05	0	0	0	
0.300167	-0.0145053	-0.00196923	0.00121374	8.13238E-05	0	0	0	
0.300333	0.00506056	0.00450972	0.000954533	6.48514E-05	0	0	0	
0.3005	0.000971012	-0.00609689	0.00085455	7.07489E-05	0	0	0	
0.300667	-0.0264189	0.00551667	0.000829054	0.000131217	0	0	0	
0.300833	0.0276265	-0.00266702	0.000770744	0.000194749	0	0	0	
0.301	0.00200757	-0.00191471	0.000658764	0.000237047	0	0	0	
0.301167	-0.00526481	0.00288193	0.000326803	0.000223331	0	0	0	
0.301333	0.0069905	-0.00227901	0.00019315	0.000159425	0	0	0	
0.3015	-0.0263527	-0.00479438	0.000175494	0.000107537	0	0	0	
0.301667	0.0234511	0.0116666	0.000395972	9.78062E-05	0	0	0	
0.301833	0.0171705	-0.00258818	0.000795958	0.000155107	0	0	0	
0.302	-0.0262011	-0.00775543	0.000950996	0.000224512	0	0	0	
0.302167	-0.00186957	0.00542703	0.000801748	0.00021324	0	0	0	
0.302333	0.00586962	-0.000564453	0.000379647	0.00016493	0	0	0	
0.3025	0.0136464	0.0028274	0.000282986	8.33089E-05	0	0	0	
0.302667	0.00288974	-0.00111311	0.000262939	7.514E-05	0	0	0	
0.302833	-0.0407467	-0.00164907	0.000382838	5.84695E-05	0	0	0	
0.303	0.0346972	-0.00804732	0.000474981	0.000111525	0	0	0	
0.303167	-0.00295983	0.0146457	0.000702488	0.000157354	0	0	0	
0.303333	-0.00934988	-0.00507693	0.000755356	0.000222711	0	0	0	
0.3035	0.00744253	-0.00142361	0.000620661	0.000211066	0	0	0	
0.303667	-0.00303738	-0.00521079	0.000356396	0.000174896	0	0	0	
0.303833	-0.016877	0.00842159	0.000254278	0.00013961	0	0	0	
0.304	0.0317797	-0.00518462	0.000285316	0.00013264	0	0	0	
0.304167	-0.0206936	0.00930265	0.000437996	0.000153536	0	0	0	
0.304333	0.00330247	-0.0119512	0.000491255	0.000167049	0	0	0	
0.3045	-0.00267234	0.0071415	0.000459406	0.000192151	0	0	0	
0.304667	-0.00106127	-0.00166765	0.000377561	0.000176647	0	0	0	
0.304833	-0.000574018	0.00144311	0.000290498	0.000126347	0	0	0	
0.305	0.00420618	-0.00260792	0.000203528	7.51878E-05	0	0	0	
0.305167	-0.00689778	0.00464302	0.000166496	6.29826E-05	0	0	0	
0.305333	-0.0139119	-0.0023895	0.000143653	7.65217E-05	0	0	0	
0.3055	-0.000372694	-0.00378823	0.000264971	7.66739E-05	0	0	0	
0.305667	0.0466915	0.00380735	0.000519699	6.75614E-05	0	0	0	
0.305833	-0.0570419	-0.00240312	0.000747901	7.3651E-05	0	0	0	
0.306	0.00995035	0.00442107	0.00105603	0.000100454	0	0	0	
0.306167	0.0287353	-0.0104675	0.00115951	0.00014657	0	0	0	
0.306333	-0.0450597	0.00677682	0.00108595	0.000166397	0	0	0	
0.3065	0.0377494	-0.00341792	0.000902206	0.000149419	0	0	0	
0.306667	0.0134087	0.00290362	0.000970364	0.000105309	0	0	0	
0.306833	-0.0932393	0.00460813	0.00133403	8.0582E-05	0	0	0	
0.307	0.171091	-0.0389789	0.00212015	0.000210575	0	0	0	
0.307167	0.00723574	0.00633016	0.00192522	0.000374604	0	0	0	
0.307333	-0.0611038	-0.00555639	0.00167836	0.000393931	0	0	0	
0.3075	0.0647552	0.000853298	0.00113011	0.000283597	0	0	0	
0.307667	-0.0361991	-0.00220864	0.0011562	0.000135712	0	0	0	
0.307833	-0.00532129	-0.00293401	0.00125655	0.000126122	0	0	0	
0.308	0.0629428	-0.00555467	0.00116062	0.00014915	0	0	0	
0.308167	-0.0419914	0.00508529	0.00109558	0.000222944	0	0	0	
0.308333	-0.0281083	0.000453876	0.00127792	0.000333937	0	0	0	
0.3085	0.0563532	-0.0050949	0.0013093	0.000397519	0	0	0	
0.308667	-0.0257894	0.00588468	0.0012529	0.000348845	0	0	0	
0.308833	-0.00428522	-0.00156149	0.000873209	0.000222113	0	0	0	
0.309	0.0128319	-0.00412978	0.000695613	9.85518E-05	0	0	0	
0.309167	-0.0241397	0.00652742	0.000692935	6.88741E-05	0	0	0	
0.309333	0.0208416	-0.00164371	0.00059589	0.000103872	0	0	0	
0.3095	-0.0047565	-0.000832307	0.000559171	0.000155227	0	0	0	
0.309667	-0.00768893	0.00179791	0.000534633	0.000160448	0	0	0	
0.309833	0.0112775	-0.00321877	0.00048154	0.000124395	0	0	0	
0.31	-0.00746987	0.004797	0.000301315	8.3323E-05	0	0	0	
0.310167	-0.00207062	-0.000638955	0.000236722	0.000103424	0	0	0	
0.310333	0.0157483	-0.00864359	0.000238533	0.000174286	0	0	0	
0.3105	-0.0167072	0.00580037	0.000299937	0.000210364	0	0	0	
0.310667	0.00307078	0.00138061	0.00032169	0.000167486	0	0	0	
0.310833	0.00642754	-0.00120005	0.000339452	9.92178E-05	0	0	0	
0.311	-0.00982381	0.00328011	0.000288287	4.82832E-05	0	0	0	
0.311167	0.00065275	-0.0092692	0.000220729	6.80661E-05	0	0	0	
0.311333	0.0186894	0.00514128	0.000305902	9.75052E-05	0	0	0	
0.3115	-0.0424618	-0.000897212	0.000466398	0.000159996	0	0	0	
0.311667	0.032272	-0.00237951	0.000649694	0.000142473	0	0	0	
0.311833	-0.000493041	0.000106334	0.00084388	0.000132894	0	0	0	
0.312	-0.0201268	0.000214492	0.000903479	9.55414E-05	0	0	0	
0.312167	0.0179142	-0.00142771	0.00077912	9.21351E-05	0	0	0	
0.312333	-0.0267839	0.00223592	0.00053693	8.76042E-05	0	0	0	
0.3125	0.0133526	-0.00326981	0.000418511	9.08951E-05	0	0	0	
0.312667	0.0012495	-0.000612066	0.000470414	0.000110119	0	0	0	
0.312833	-0.0200222	-0.00167631	0.000417471	0.000128652	0	0	0	
0.313	0.024497	6.69349E-05	0.000439102	0.00015147	0	0	0	
0.313167	0.00302982	-0.00359219	0.000482255	0.00014589	0	0	0	
0.313333	-0.0302194	0.00534252	0.000553596	0.000117411	0	0	0	
0.3135	0.0284162	-0.00240735	0.000605278	0.000121213	0	0	0	
0.313667	-0.00177444	-0.00229831	0.000544886	0.000161941	0	0	0	
0.313833	-0.00980097	0.00479063	0.000454041	0.000151837	0	0	0	
0.314	0.00248364	-0.000697761	0.000471298	0.000142832	0	0	0	
0.314167	0.00647246	-0.00197853	0.000454056	0.00010228	0	0	0	
0.314333	-0.00718823	0.0032413	0.000431889	0.000103298	0	0	0	
0.3145	0.032106	-0.00682709	0.000309541	7.5423E-05	0	0	0	
0.314667	-0.0282175	0.00603198	0.000339969	9.10502E-05	0	0	0	
0.314833	-0.0102717	3.02034E-05	0.00060009	0.000110111	0	0	0	
0.315	0.0558685	0.00353439	0.000806555	0.000113088	0	0	0	
0.315167	-0.0482743	-0.00482004	0.00098436	0.00011247	0	0	0	
0.315333	0.00656619	0.00417391	0.000882051	9.90509E-05	0	0	0	
0.3155	0.00699949	-0.00279224	0.00070065	9.49957E-05	0	0	0	
0.315667	0.00161921	1.97593E-05	0.000512629	9.44579E-05	0	0	0	
0.315833	0.00965911	0.00322032	0.000476418	0.000114162	0	0	0	
0.316	-0.0024417	-0.00506635	0.00039534	0.000130237	0	0	0	
0.316167	-0.00957818	-0.0021928	0.000282497	0.000114823	0	0	0	
0.316333	0.00143188	0.0030348	0.000179838	9.06038E-05	0	0	0	
0.3165	-0.00525054	-0.00111111	0.000130582	6.10446E-05	0	0	0	
0.316667	0.0175249	0.00120954	0.000142868	4.08631E-05	0	0	0	
0.316833	-0.0238934	-0.00358097	0.000264001	4.24868E-05	0	0	0	
0.317	0.0191858	-0.00144495	0.000440968	5.66966E-05	0	0	0	
0.317167	-0.00938587	-0.00689222	0.000545598	7.58432E-05	0	0	0	
0.317333	0.00230667	0.0123127	0.000439107	0.000116352	0	0	0	
0.3175	0.000155755	-0.00578118	0.000284969	0.000143508	0	0	0	
0.317667	0.00360808	-0.000103929	0.000141601	0.00015715	0	0	0	
0.317833	-0.0164646	0.00502861	0.000124228	0.000129913	0	0	0	
0.318	0.0194521	-0.00454271	0.000192039	0.000107354	0	0	0	
0.318167	-0.00874103	0.000293657	0.00036899	8.62067E-05	0	0	0	
0.318333	-0.0133894	0.00423337	0.000525636	8.53278E-05	0	0	0	
0.3185	0.0163699	-0.00348273	0.000539489	8.92343E-05	0	0	0	
0.318667	-0.00185094	0.000992059	0.000394765	8.01292E-05	0	0	0	
