0	0.00185229	9.75258E-05	1.85229E-07	9.75258E-09	0	0	0	
0.000166667	0.00376764	0.00424038	0.000135117	3.82025E-05	0	0	0	
0.000333333	-0.00888146	-0.00628723	0.000312013	7.02509E-05	0	0	0	
0.0005	0.0086175	0.00141314	0.000395945	0.000115387	0	0	0	
0.000666667	-0.00806027	0.00634236	0.000398114	0.000142693	0	0	0	
0.000833333	0.016689	-0.00757779	0.000481001	0.000145879	0	0	0	
0.001	0.00598336	0.00184402	0.000482425	0.000164262	0	0	0	
0.00116667	-0.0080624	0.00388528	0.000402659	0.00016948	0	0	0	
0.00133333	0.00902525	-0.00596875	0.000277731	0.000178454	0	0	0	
0.0015	0.0114274	0.00553976	0.000397991	0.000148317	0	0	0	
0.00166667	-0.00222143	-0.00198498	0.000371448	0.000113334	0	0	0	
0.00183333	0.0308502	-0.00345474	0.000359035	0.000115707	0	0	0	
0.002	-0.0036753	0.00809364	0.00031294	0.000122797	0	0	0	
0.00216667	-0.00665243	-0.00643672	0.000327578	0.000132929	0	0	0	
0.00233333	0.0145406	-0.0029854	0.000274235	0.000154018	0	0	0	
0.0025	0.000889786	0.0105555	0.000243772	0.000169473	0	0	0	
0.00266667	0.0133185	-0.00693881	0.000261183	0.000178126	0	0	0	
0.00283333	-0.0138928	-0.00311606	0.000293328	0.00019127	0	0	0	
0.003	0.0107286	0.00764656	0.00025946	0.000184112	0	0	0	
0.00316667	-0.00610835	-0.00408465	0.000271189	0.00016722	0	0	0	
0.00333333	0.00933579	-0.00161739	0.000223781	0.000139046	0	0	0	
0.0035	-0.0378113	0.00541082	0.00029944	0.00012868	0	0	0	
0.00366667	0.00750581	-0.00590088	0.00053395	0.000125425	0	0	0	
0.00383333	-0.0185012	0.00354921	0.000571927	0.000106024	0	0	0	
0.004	0.0170042	0.000648556	0.000538438	0.000102067	0	0	0	
0.00416667	-0.00898211	-0.00333927	0.00036997	9.32224E-05	0	0	0	
0.00433333	0.00741776	0.00401194	0.000363275	8.30084E-05	0	0	0	
0.0045	-0.0145237	-0.00379964	0.000300021	7.38182E-05	0	0	0	
0.00466667	0.0200393	-0.00122738	0.000276175	9.75811E-05	0	0	0	
0.00483333	-0.0147635	0.00949547	0.000327819	0.000130594	0	0	0	
0.005	0.00880931	-0.00780891	0.000372205	0.000156842	0	0	0	
0.00516667	-0.00815005	-0.00187547	0.000338674	0.000182325	0	0	0	
0.00533333	0.00936179	0.00371844	0.000276042	0.000164365	0	0	0	
0.0055	-0.00843253	-0.000682589	0.000244487	0.000128584	0	0	0	
0.00566667	0.00712065	0.00822005	0.000244132	0.000110261	0	0	0	
0.00583333	-0.0077435	-0.0163555	0.000231948	0.000145451	0	0	0	
0.006	0.0104168	0.00287507	0.00021186	0.00024759	0	0	0	
0.00616667	-0.0108531	0.0188602	0.000204761	0.000358984	0	0	0	
0.00633333	0.011713	-0.0183617	0.000221548	0.000387593	0	0	0	
0.0065	-0.013317	-0.00104409	0.000248954	0.00042165	0	0	0	
0.00666667	0.0120035	0.00996984	0.000283303	0.000357276	0	0	0	
0.00683333	-0.00855745	-0.00627004	0.00030146	0.000301207	0	0	0	
0.007	0.00940718	0.00427953	0.000284776	0.000181759	0	0	0	
0.00716667	-0.011617	-0.0026419	0.000249466	0.000104952	0	0	0	
0.00733333	0.0129868	-0.00543505	0.000231799	0.000133888	0	0	0	
0.0075	-0.0127484	0.0126925	0.000244799	0.000175342	0	0	0	
0.00766667	0.00976137	-0.00805655	0.000264744	0.000213302	0	0	0	
0.00783333	-0.00849369	-0.00617556	0.00026351	0.000248798	0	0	0	
0.008	0.0101339	0.0136551	0.000243052	0.000250994	0	0	0	
0.00816667	-0.0083778	-0.00483514	0.000220383	0.000258513	0	0	0	
0.00833333	0.011886	-0.00876268	0.000210421	0.000253899	0	0	0	
0.0085	-0.0320196	0.00891679	0.000275571	0.000229058	0	0	0	
0.00866667	0.0302953	0.00108644	0.000416821	0.000220975	0	0	0	
0.00883333	0.0587803	-0.00598382	0.001097	0.000153271	0	0	0	
0.009	0.0295867	0.00523565	0.00213593	0.000141865	0	0	0	
0.00916667	0.0239309	-0.00376108	0.00254078	0.000117632	0	0	0	
0.00933333	-0.0213041	0.00414418	0.00192067	0.000119758	0	0	0	
0.0095	-0.00629579	-0.000623749	0.000943623	9.01736E-05	0	0	0	
0.00966667	0.0346302	-0.00631477	0.000514337	0.000111501	0	0	0	
0.00983333	-0.0491885	0.0124282	0.000617441	0.00014834	0	0	0	
0.01	0.147939	-0.00720078	0.00124847	0.000191904	0	0	0	
0.0101667	-0.0650435	-0.00385399	0.00206023	0.000231439	0	0	0	
0.0103333	-0.00524508	0.00770333	0.00220671	0.000222808	0	0	0	
0.0105	0.0125829	0.000318355	0.00154705	0.000195236	0	0	0	
0.0106667	0.00578195	-0.00333076	0.000605429	0.000108171	0	0	0	
0.0108333	-0.0126602	-0.00613755	0.000299868	8.64084E-05	0	0	0	
0.011	0.00247607	0.00991184	0.00024102	0.000106756	0	0	0	
0.0111667	0.0088377	0.0027933	0.000314411	0.00021849	0	0	0	
0.0113333	-0.00294212	-0.0134514	0.000318069	0.000265264	0	0	0	
0.0115	-0.0117957	0.00610299	0.000247186	0.000292112	0	0	0	
0.0116667	0.0203166	0.00637723	0.000218955	0.000283037	0	0	0	
0.0118333	-0.0163644	-0.00676525	0.000267533	0.000234775	0	0	0	
0.012	0.00879174	-0.000639908	0.000330295	0.000208989	0	0	0	
0.0121667	-0.00696221	0.00379768	0.000286715	0.000130605	0	0	0	
0.0123333	0.0129992	-0.00131269	0.00022623	9.88785E-05	0	0	0	
0.0125	-0.0168169	-0.00132561	0.000222205	6.24326E-05	0	0	0	
0.0126667	0.00841346	-0.000612742	0.000280738	3.50584E-05	0	0	0	
0.0128333	0.007874	0.00146192	0.000307956	2.74436E-05	0	0	0	
0.013	-0.0520687	0.0039952	0.000435617	4.72696E-05	0	0	0	
0.0131667	0.0148813	-0.00741643	0.000680295	6.87999E-05	0	0	0	
0.0133333	0.0177753	-0.00312084	0.000749984	0.000164215	0	0	0	
0.0135	-0.022441	0.0134321	0.000641674	0.000217673	0	0	0	
0.0136667	0.0171641	-0.00527009	0.00040824	0.000262409	0	0	0	
0.0138333	-0.00712958	-0.0114674	0.000374194	0.000291356	0	0	0	
0.014	-0.0225691	0.012429	0.000406195	0.000275047	0	0	0	
0.0141667	0.0546405	-0.00182046	0.000658478	0.000285576	0	0	0	
0.0143333	-0.0270055	-0.00425899	0.000724502	0.000227804	0	0	0	
0.0145	-0.00246746	0.00396519	0.00066183	0.000188788	0	0	0	
0.0146667	0.0179809	-0.00306729	0.000350996	0.000120401	0	0	0	
0.0148333	-0.0167574	0.000891577	0.00026092	7.41929E-05	0	0	0	
0.015	0.0103931	0.0020142	0.000274571	7.72474E-05	0	0	0	
0.0151667	-0.00729728	-0.00365287	0.000271154	7.82556E-05	0	0	0	
0.0153333	0.005002	0.0026473	0.000216073	7.29281E-05	0	0	0	
0.0155	-0.00491963	0.000287406	0.00014224	7.5093E-05	0	0	0	
0.0156667	0.0119785	-0.00388391	0.000160646	9.0266E-05	0	0	0	
0.0158333	-0.0120403	0.00333921	0.000203703	8.78011E-05	0	0	0	
0.016	0.0123518	0.00147381	0.000266866	9.29616E-05	0	0	0	
0.0161667	-0.0122121	-0.00593192	0.000268552	9.50909E-05	0	0	0	
0.0163333	0.0132696	0.00454739	0.000267382	0.000107122	0	0	0	
0.0165	-0.01375	0.000191398	0.000266286	0.0001029	0	0	0	
0.0166667	0.0134411	-0.00310788	0.000265591	8.96544E-05	0	0	0	
0.0168333	-0.0125852	0.00296501	0.000266311	7.74387E-05	0	0	0	
0.017	0.0119777	-0.000520051	0.000268864	6.71524E-05	0	0	0	
0.0171667	-0.0118166	-0.00581322	0.000264376	8.95847E-05	0	0	0	
0.0173333	0.0133763	0.0087751	0.000256889	0.000111688	0	0	0	
0.0175	-0.0141212	0.00118816	0.000252019	0.000172436	0	0	0	
0.0176667	0.0149571	-0.0142736	0.000263581	0.000218322	0	0	0	
0.0178333	-0.0142715	0.0095865	0.000281828	0.000252271	0	0	0	
0.018	0.0134392	0.00802336	0.000296343	0.000304648	0	0	0	
0.0181667	-0.0118608	-0.014084	0.000292999	0.000296143	0	0	0	
0.0183333	0.0111448	0.00564422	0.000272086	0.000293362	0	0	0	
0.0185	-0.0122494	0.00123805	0.000247233	0.000228795	0	0	0	
0.0186667	0.0140997	-0.00321265	0.000243443	0.000189248	0	0	0	
0.0188333	-0.0137461	0.00814155	0.000258439	0.000170965	0	0	0	
0.019	0.0127918	-0.010943	0.000274662	0.000150691	0	0	0	
0.0191667	-0.0123475	0.00231397	0.000273959	0.000195264	0	0	0	
0.0193333	0.0123255	0.0122171	0.000263553	0.00025857	0	0	0	
0.0195	-0.0127671	-0.0142601	0.00025288	0.000279346	0	0	0	
0.0196667	0.0135019	0.000772742	0.000254783	0.000297597	0	0	0	
0.0198333	-0.0131115	0.0131571	0.000257347	0.000293796	0	0	0	
0.02	0.0150998	-0.0102751	0.000269141	0.000284645	0	0	0	
0.0201667	-0.0148054	-0.00408897	0.000282567	0.00027824	0	0	0	
0.0203333	0.0121006	0.00737813	0.00028987	0.000209181	0	0	0	
0.0205	-0.0110739	0.00134174	0.000275864	0.000190319	0	0	0	
0.0206667	0.012742	-0.00276607	0.000252862	9.88631E-05	0	0	0	
0.0208333	-0.0120717	-0.00519223	0.000240515	0.000110598	0	0	0	
0.021	0.0133169	0.00605833	0.000246764	9.47079E-05	0	0	0	
0.0211667	-0.0145426	0.00275274	0.000259828	0.000150285	0	0	0	
0.0213333	0.0138268	-0.00763867	0.000270658	0.000138675	0	0	0	
0.0215	-0.0117984	0.00315859	0.000270576	0.000146567	0	0	0	
0.0216667	0.0120861	0.00280832	0.000256589	0.000132741	0	0	0	
0.0218333	-0.0133263	-0.00278381	0.000247014	0.000109589	0	0	0	
0.022	0.01303	-0.00152809	0.000246053	8.6748E-05	0	0	0	
0.0221667	-0.0109919	0.000425599	0.000246264	5.23318E-05	0	0	0	
0.0223333	0.011978	0.00572048	0.00024084	7.14105E-05	0	0	0	
0.0225	-0.0139735	-0.00352154	0.000241419	8.72909E-05	0	0	0	
0.0226667	0.0155794	-0.00737782	0.000258648	0.000146639	0	0	0	
0.0228333	-0.0145715	0.00947837	0.000278327	0.000154389	0	0	0	
0.023	0.0134943	0.00147002	0.000284698	0.000207183	0	0	0	
0.0231667	-0.0122446	-0.00878312	0.00027058	0.000195721	0	0	0	
0.0233333	0.0122094	0.00261582	0.00025604	0.000188811	0	0	0	
0.0235	-0.0122124	0.00569378	0.000248673	0.000162447	0	0	0	
0.0236667	0.0143868	-0.00461358	0.000254412	0.000126805	0	0	0	
0.0238333	-0.0145397	-0.00127678	0.000264322	0.000131118	0	0	0	
0.024	0.013068	0.00216181	0.000270258	8.72408E-05	0	0	0	
0.0241667	-0.0125181	0.00123177	0.00026389	7.46078E-05	0	0	0	
0.0243333	0.0138848	-0.00191083	0.000253731	3.94429E-05	0	0	0	
0.0245	-0.0143698	-0.000473543	0.000254407	3.57725E-05	0	0	0	
0.0246667	0.0144954	-2.70962E-05	0.000265439	2.20919E-05	0	0	0	
0.0248333	-0.0141588	0.00246867	0.000274745	2.6962E-05	0	0	0	
0.025	0.013276	-0.00221544	0.000274713	3.10834E-05	0	0	0	
0.0251667	-0.012304	-0.00193742	0.000264812	5.79072E-05	0	0	0	
0.0253333	0.0134348	0.00359159	0.00025667	6.23995E-05	0	0	0	
0.0255	-0.0139562	-0.000474453	0.000253378	7.35335E-05	0	0	0	
0.0256667	0.0127959	-0.00336345	0.000258117	7.5298E-05	0	0	0	
0.0258333	-0.0119576	0.00272835	0.000251082	7.33342E-05	0	0	0	
0.026	0.0137468	0.001481	0.000247558	7.92922E-05	0	0	0	
0.0261667	-0.0145868	-0.00356096	0.000250156	6.71488E-05	0	0	0	
0.0263333	0.0146044	0.000638088	0.000265811	6.84893E-05	0	0	0	
0.0265	-0.0132613	0.00332662	0.000273775	6.44405E-05	0	0	0	
0.0266667	0.013328	-0.00347087	0.00027158	6.52458E-05	0	0	0	
0.0268333	-0.0140713	-0.000643447	0.000266542	7.48088E-05	0	0	0	
0.027	0.0144435	0.00332677	0.000266497	6.63109E-05	0	0	0	
0.0271667	-0.0126644	-0.0011309	0.000267845	6.43393E-05	0	0	0	
0.0273333	0.0124085	-0.00178571	0.00026016	5.83957E-05	0	0	0	
0.0275	-0.0145677	0.00149652	0.000252737	4.93514E-05	0	0	0	
0.0276667	0.0154008	-3.07141E-05	0.000259153	4.1196E-05	0	0	0	
0.0278333	-0.0146609	-0.000418034	0.000276321	2.06083E-05	0	0	0	
0.028	0.0130436	-0.000804909	0.000281769	2.07804E-05	0	0	0	
0.0281667	-0.0124751	0.00144888	0.000267988	1.74599E-05	0	0	0	
0.0283333	0.0123854	0.00120964	0.000249393	3.43933E-05	0	0	0	
0.0285	-0.0140838	-0.00484964	0.000242665	4.51565E-05	0	0	0	
0.0286667	0.0158208	0.000898062	0.000257426	8.00587E-05	0	0	0	
0.0288333	-0.0155479	0.0108362	0.000276748	0.000143452	0	0	0	
0.029	0.0137261	-0.011817	0.000289518	0.000185397	0	0	0	
0.0291667	-0.0119151	-0.00367903	0.000276866	0.000266317	0	0	0	
0.0293333	0.00960369	0.0148818	0.00024937	0.000275917	0	0	0	
0.0295	-0.00964534	-0.00590512	0.000215685	0.000289671	0	0	0	
0.0296667	0.0129067	-0.00660771	0.000206458	0.000266077	0	0	0	
0.0298333	-0.0155725	0.00437825	0.00022643	0.00020696	0	0	0	
0.03	0.015579	0.000474759	0.000263334	0.000150975	0	0	0	
0.0301667	-0.0137717	0.00431286	0.000282806	7.52655E-05	0	0	0	
0.0303333	0.0125308	-0.00588386	0.000276918	7.292E-05	0	0	0	
0.0305	-0.0116685	-0.00212956	0.000255204	0.000113151	0	0	0	
0.0306667	0.0116711	0.00788559	0.000238286	0.000135965	0	0	0	
0.0308333	-0.0133276	-0.00372339	0.000233662	0.000150085	0	0	0	
0.031	0.0142329	-0.00509253	0.00024327	0.000154821	0	0	0	
0.0311667	-0.0138314	0.0070018	0.000253917	0.000143187	0	0	0	
0.0313333	0.0125078	-0.000135332	0.000259765	0.000147876	0	0	0	
0.0315	-0.0126466	-0.00362377	0.000252513	0.00010784	0	0	0	
0.0316667	0.0129216	-0.00280114	0.000248522	0.00010889	0	0	0	
0.0318333	-0.0127512	0.0059619	0.000246154	8.49567E-05	0	0	0	
0.032	0.0120248	0.0018932	0.000246983	0.000117672	0	0	0	
0.0321667	-0.0118919	-0.00823942	0.000237671	0.000128992	0	0	0	
0.0323333	0.0136914	0.00253505	0.000236759	0.000149833	0	0	0	
0.0325	-0.0144478	0.00491435	0.000243912	0.000160247	0	0	0	
0.0326667	0.0148783	-0.00583431	0.000264274	0.000147974	0	0	0	
0.0328333	-0.0135137	0.0027011	0.000272339	0.000131969	0	0	0	
0.033	0.0124871	-0.000728836	0.000268181	8.52004E-05	0	0	0	
0.0331667	-0.0120077	0.000237737	0.000249437	6.18441E-05	0	0	0	
0.0333333	0.0120874	0.000791931	0.000237427	4.69353E-05	0	0	0	
0.0335	-0.0121957	-0.00325638	0.000232807	4.72831E-05	0	0	0	
0.0336667	0.014211	0.00297646	0.000239745	5.58346E-05	0	0	0	
0.0338333	-0.0138038	0.00054653	0.000250993	5.45597E-05	0	0	0	
0.034	0.0114078	-0.000926814	0.000253168	4.42009E-05	0	0	0	
0.0341667	-0.00949814	-0.0027502	0.00023871	5.10472E-05	0	0	0	
0.0343333	0.0111783	0.00174147	0.000221349	5.86409E-05	0	0	0	
0.0345	-0.0142002	0.00559081	0.000224325	0.000105458	0	0	0	
0.0346667	0.015163	-0.00851118	0.000247331	0.000118832	0	0	0	
0.0348333	-0.0150875	0.0015315	0.000271371	0.000163865	0	0	0	
0.035	0.0142402	0.00571358	0.000279735	0.000179104	0	0	0	
0.0351667	-0.0127355	-0.00472291	0.000271863	0.00017013	0	0	0	
0.0353333	0.0119356	0.00117806	0.000255414	0.00013351	0	0	0	
0.0355	-0.0131038	-0.000480744	0.00024393	7.86781E-05	0	0	0	
0.0356667	0.0142155	0.000840099	0.000251605	6.35981E-05	0	0	0	
0.0358333	-0.0152325	0.00202714	0.000264086	6.29494E-05	0	0	0	
0.036	0.0155115	-0.00528905	0.000279706	7.15071E-05	0	0	0	
0.0361667	-0.0121751	0.00332756	0.000275669	8.40372E-05	0	0	0	
0.0363333	0.0107318	0.00179124	0.000258718	9.87825E-05	0	0	0	
0.0365	-0.0135395	-0.00303284	0.000246588	8.88759E-05	0	0	0	
0.0366667	0.0155141	-0.000244746	0.000258889	8.71572E-05	0	0	0	
0.0368333	-0.0139796	0.00249146	0.000276664	6.03035E-05	0	0	0	
0.037	0.0132118	0.00111994	0.000278712	6.6343E-05	0	0	0	
0.0371667	-0.0142344	-0.00523812	0.000268164	6.75394E-05	0	0	0	
0.0373333	0.0155935	0.00212101	0.000270124	7.93458E-05	0	0	0	
0.0375	-0.015218	0.00512266	0.000280535	0.000108521	0	0	0	
0.0376667	0.0133231	-0.00586102	0.000284032	0.000111381	0	0	0	
0.0378333	-0.0128859	-0.00152608	0.000270716	0.000137643	0	0	0	
0.038	0.0129541	0.00617784	0.000257529	0.000126256	0	0	0	
0.0381667	-0.014046	-0.00204471	0.000250399	0.000124697	0	0	0	
0.0383333	0.0148826	-0.0034288	0.000260479	0.000105614	0	0	0	
0.0385	-0.0140225	0.00193768	0.000272232	8.07481E-05	0	0	0	
0.0386667	0.0132227	0.00212034	0.000281056	7.89021E-05	0	0	0	
0.0388333	-0.0151766	-0.00104411	0.000283523	5.20473E-05	0	0	0	
0.039	0.0161459	-0.00257254	0.000287922	5.50465E-05	0	0	0	
0.0391667	-0.0128874	0.00135708	0.000284903	4.46264E-05	0	0	0	
0.0393333	0.0110109	0.0036646	0.000268918	7.83271E-05	0	0	0	
0.0395	-0.0135058	-0.0059386	0.000255388	8.88985E-05	0	0	0	
0.0396667	0.0157428	0.00141538	0.000264753	0.000106275	0	0	0	
0.0398333	-0.0154426	0.00342213	0.000282406	0.000102803	0	0	0	
0.04	0.0133354	-0.00354635	0.000286215	9.17433E-05	0	0	0	
0.0401667	-0.0118221	0.000565684	0.00026898	8.47047E-05	0	0	0	
0.0403333	0.0122261	0.00202904	0.00025441	7.22528E-05	0	0	0	
0.0405	-0.0138848	-0.00226506	0.000252175	6.60396E-05	0	0	0	
0.0406667	0.0142482	-0.00190559	0.000258405	6.03564E-05	0	0	0	
0.0408333	-0.0136547	0.00474553	0.000265593	5.36785E-05	0	0	0	
0.041	0.0150029	0.000845019	0.000272081	8.74969E-05	0	0	0	
0.0411667	-0.0149464	-0.00681073	0.000277158	0.000111775	0	0	0	
0.0413333	0.0107264	0.00145272	0.000270426	0.000129487	0	0	0	
0.0415	-0.00935415	0.00544298	0.000242451	0.000139076	0	0	0	
0.0416667	0.0134269	-0.00174085	0.000233789	0.000112994	0	0	0	
0.0418333	-0.0165204	-0.00251362	0.000251368	9.65394E-05	0	0	0	
0.042	0.0141448	-0.00338471	0.000281579	7.90525E-05	0	0	0	
0.0421667	-0.0115413	0.00652476	0.000279844	8.99765E-05	0	0	0	
0.0423333	0.0121486	0.00239232	0.000261684	0.000129196	0	0	0	
0.0425	-0.0120003	-0.00870274	0.000245592	0.000133047	0	0	0	
0.0426667	0.0127029	0.00141154	0.000244063	0.000156806	0	0	0	
0.0428333	-0.0142439	0.00661691	0.000251184	0.000157115	0	0	0	
0.043	0.0143735	-0.00466948	0.000263647	0.00014702	0	0	0	
0.0431667	-0.0126792	-0.00264951	0.000267361	0.000139747	0	0	0	
0.0433333	0.0119153	0.00342524	0.000260871	9.45597E-05	0	0	0	
0.0435	-0.0131256	0.0023829	0.000254117	0.000100376	0	0	0	
0.0436667	0.014943	-0.00550173	0.000262361	7.50336E-05	0	0	0	
0.0438333	-0.0136779	-0.00124936	0.000273884	0.000109466	0	0	0	
0.044	0.0105693	0.0104473	0.000266831	0.000129225	0	0	0	
0.0441667	-0.0112252	-0.0113922	0.000242962	0.000172178	0	0	0	
0.0443333	0.0133893	0.00377178	0.000233565	0.000207015	0	0	0	
0.0445	-0.0131052	0.00286109	0.000246597	0.000230594	0	0	0	
0.0446667	0.0137258	-0.0061228	0.000269654	0.000212915	0	0	0	
0.0448333	-0.015069	0.00665978	0.000286529	0.000166205	0	0	0	
0.045	0.0134955	-0.00546139	0.000285038	0.000122809	0	0	0	
0.0451667	-0.010803	0.00130599	0.000266673	0.000127811	0	0	0	
0.0453333	0.0111691	0.00506511	0.000240235	0.000165021	0	0	0	
0.0455	-0.0127926	-0.00983299	0.000237206	0.000191383	0	0	0	
0.0456667	0.0124568	0.00747615	0.00024498	0.000189602	0	0	0	
0.0458333	-0.0108426	-0.00273261	0.000247484	0.000156197	0	0	0	
0.046	0.0107767	0.00238518	0.000239849	0.000114988	0	0	0	
0.0461667	-0.0128905	-0.00211762	0.000247482	9.86317E-05	0	0	0	
0.0463333	0.0138043	-0.00580737	0.00026823	0.000135379	0	0	0	
0.0465	-0.0142375	0.0128178	0.000284643	0.000184188	0	0	0	
0.0466667	0.0139219	-0.0067342	0.000286425	0.000216563	0	0	0	
0.0468333	-0.0146082	-0.0056052	0.000282257	0.000238001	0	0	0	
0.047	0.0126599	0.00757796	0.000275387	0.000211507	0	0	0	
0.0471667	-0.0106097	2.82854E-05	0.000260195	0.000183932	0	0	0	
0.0473333	0.0104537	-0.00149542	0.000248007	8.94314E-05	0	0	0	
0.0475	-0.0112287	-0.00505063	0.000245679	8.35581E-05	0	0	0	
0.0476667	0.0120334	0.00530435	0.000259528	7.35503E-05	0	0	0	
0.0478333	-0.0138526	0.00315975	0.000269512	0.000132012	0	0	0	
0.048	0.0135256	-0.00628195	0.000275867	0.00013061	0	0	0	
0.0481667	-0.0117118	0.000226999	0.00027021	0.000137465	0	0	0	
0.0483333	0.0127458	0.00328435	0.000273028	0.000102536	0	0	0	
0.0485	-0.0143743	0.0011883	0.000281193	8.42316E-05	0	0	0	
0.0486667	0.012739	-0.00373866	0.000285355	6.6978E-05	0	0	0	
0.0488333	-0.0101633	-0.000852028	0.000265236	6.7587E-05	0	0	0	
0.049	0.0114334	0.00495715	0.000238906	7.82618E-05	0	0	0	
0.0491667	-0.0120214	-0.00336062	0.000233059	8.60471E-05	0	0	0	
0.0493333	0.0111261	-0.000445851	0.000243245	8.12929E-05	0	0	0	
0.0495	-0.0115039	0.000968516	0.000251484	5.67437E-05	0	0	0	
0.0496667	0.0122889	0.000812809	0.000258038	3.76358E-05	0	0	0	
0.0498333	-0.012513	-0.00109455	0.000265543	2.08265E-05	0	0	0	
0.05	0.0129358	-0.0013787	0.000269693	3.43198E-05	0	0	0	
0.0501667	-0.0122208	0.00327095	0.000264306	4.23183E-05	0	0	0	
0.0503333	0.0107429	-0.00172746	0.000251917	5.81859E-05	0	0	0	
0.0505	-0.0106997	-0.00251144	0.000245955	7.57534E-05	0	0	0	
0.0506667	0.011576	0.00321824	0.00025209	7.91842E-05	0	0	0	
0.0508333	-0.0125011	0.000486058	0.000264835	8.03558E-05	0	0	0	
0.051	0.0121892	-0.00230299	0.000271035	5.57809E-05	0	0	0	
0.0511667	-0.0118783	-0.00116187	0.000263101	6.23968E-05	0	0	0	
0.0513333	0.0112694	0.00381059	0.000254458	5.69233E-05	0	0	0	
0.0515	-0.0114775	-0.000587557	0.000250561	7.22322E-05	0	0	0	
0.0516667	0.010614	-0.0042014	0.000253045	8.71527E-05	0	0	0	
0.0518333	-0.0112064	0.0041649	0.00025113	9.10334E-05	0	0	0	
0.052	0.0117278	-0.000639925	0.000255818	9.36972E-05	0	0	0	
0.0521667	-0.0143275	-0.000970387	0.000269621	7.47465E-05	0	0	0	
0.0523333	0.0181809	0.000175451	0.000303126	5.64308E-05	0	0	0	
0.0525	-0.0111617	-0.000142182	0.000301155	2.95451E-05	0	0	0	
0.0526667	-0.0300897	0.00158379	0.000342555	1.96674E-05	0	0	0	
0.0528333	0.0323983	-0.00402803	0.000652202	3.036E-05	0	0	0	
0.053	-0.00670226	0.00406897	0.000717402	5.4393E-05	0	0	0	
0.0531667	-0.00672141	0.000626274	0.000709015	8.14012E-05	0	0	0	
0.0533333	0.016838	-0.00499358	0.000467146	9.69752E-05	0	0	0	
0.0535	-0.0209349	0.00353501	0.000455099	9.57673E-05	0	0	0	
0.0536667	0.00909555	0.00216859	0.000415017	0.000100364	0	0	0	
0.0538333	0.0151499	-0.0044502	0.000520064	9.29284E-05	0	0	0	
0.054	0.0250345	0.00158918	0.000784563	9.01784E-05	0	0	0	
0.0541667	-0.00183075	0.00154771	0.000814574	6.49523E-05	0	0	0	
0.0543333	0.0017897	-0.000907198	0.00061954	5.39457E-05	0	0	0	
0.0545	-0.0114269	-0.000518183	0.000333974	5.02302E-05	0	0	0	
0.0546667	0.0130316	0.00260672	0.000294826	5.40531E-05	0	0	0	
0.0548333	-0.00611297	-0.00591962	0.000253665	7.02161E-05	0	0	0	
0.055	0.0146159	0.00426282	0.000207349	8.63611E-05	0	0	0	
0.0551667	-0.0203453	0.00474463	0.000233596	0.000147713	0	0	0	
0.0553333	0.0480306	-0.00930988	0.00038677	0.000170017	0	0	0	
0.0555	-0.0360463	0.00190103	0.000759481	0.000193369	0	0	0	
0.0556667	0.00398889	0.00507273	0.000805762	0.000177028	0	0	0	
0.0558333	0.00490681	-0.00214511	0.000632158	0.000145684	0	0	0	
0.056	8.04018E-05	-0.000506151	0.000271534	9.57753E-05	0	0	0	
0.0561667	-0.0153902	-0.00290938	0.000287369	4.44224E-05	0	0	0	
0.0563333	0.0422376	0.00280783	0.000472225	4.48595E-05	0	0	0	
0.0565	-0.0875292	0.00328511	0.000867088	8.07995E-05	0	0	0	
0.0566667	0.0592535	-0.00461561	0.00102844	8.73954E-05	0	0	0	
0.0568333	-0.026467	-0.00117745	0.00108344	0.000115632	0	0	0	
0.057	0.00214985	0.00453175	0.000709177	9.84854E-05	0	0	0	
0.0571667	-0.00391705	-0.000206322	0.000423654	0.000116672	0	0	0	
0.0573333	0.0112291	-0.00683065	0.00024748	0.000125532	0	0	0	
0.0575	-0.0143254	0.00535409	0.000234256	0.000129193	0	0	0	
0.0576667	0.0222791	0.00236608	0.000301426	0.000145276	0	0	0	
0.0578333	-0.0304119	-0.00452347	0.000443294	0.000117867	0	0	0	
0.058	0.0166161	-0.00154526	0.000526556	0.000110411	0	0	0	
0.0581667	-0.0104381	0.0038695	0.000499391	7.3719E-05	0	0	0	
0.0583333	0.00636732	-0.000271983	0.000325942	6.20613E-05	0	0	0	
0.0585	-0.00843586	2.48866E-05	0.000228033	4.20312E-05	0	0	0	
0.0586667	0.0125381	-0.00328684	0.000241698	4.71447E-05	0	0	0	
0.0588333	-0.0135743	0.00165395	0.000269429	4.24459E-05	0	0	0	
0.059	0.00922412	0.00236319	0.000268712	6.91132E-05	0	0	0	
0.0591667	-0.00546752	-0.00222429	0.000229152	6.09819E-05	0	0	0	
0.0593333	0.00634121	9.15472E-05	0.000218087	6.40104E-05	0	0	0	
0.0595	-0.00867073	0.00138881	0.00022714	5.13336E-05	0	0	0	
0.0596667	0.0101693	-0.00119903	0.000248137	4.66169E-05	0	0	0	
0.0598333	-0.0116924	-0.00110791	0.000256707	3.72298E-05	0	0	0	
0.06	0.0117956	0.00242053	0.000264585	3.06355E-05	0	0	0	
0.0601667	-0.00976417	0.00140324	0.000267515	3.64824E-05	0	0	0	
0.0603333	0.00722236	-0.00421322	0.000253562	5.01073E-05	0	0	0	
0.0605	-0.00636521	0.00185562	0.0002333	6.18895E-05	0	0	0	
0.0606667	0.00814267	0.00218853	0.000235589	7.51499E-05	0	0	0	
0.0608333	-0.0116237	-0.00012931	0.000263589	6.22936E-05	0	0	0	
0.061	0.0128839	-0.00485328	0.000295124	6.18876E-05	0	0	0	
0.0611667	-0.0108173	0.00283428	0.000296398	6.43024E-05	0	0	0	
0.0613333	0.00684162	0.00475811	0.0002673	0.00011361	0	0	0	
0.0615	-0.00669873	-0.0051321	0.000235805	0.000118173	0	0	0	
0.0616667	0.00966457	-0.000542316	0.000241085	0.000127472	0	0	0	
0.0618333	-0.0111314	0.00263252	0.000263557	9.00201E-05	0	0	0	
0.062	0.00946231	4.5964E-05	0.000275085	7.10894E-05	0	0	0	
0.0621667	-0.0089967	0.00061499	0.000261017	3.72921E-05	0	0	0	
0.0623333	0.00983811	-0.00362995	0.000254021	3.88046E-05	0	0	0	
0.0625	-0.00899308	0.00259799	0.000252796	4.7236E-05	0	0	0	
0.0626667	0.00734929	0.000555318	0.000253788	6.01464E-05	0	0	0	
0.0628333	-0.00862086	-2.28497E-05	0.000257791	4.12748E-05	0	0	0	
0.063	0.0110317	-0.00309873	0.000274991	4.48776E-05	0	0	0	
0.0631667	-0.0108493	0.00356558	0.000283528	4.27178E-05	0	0	0	
0.0633333	0.00890701	0.000843274	0.00027343	7.62804E-05	0	0	0	
0.0635	-0.00845324	-0.0044062	0.000257708	8.3866E-05	0	0	0	
0.0636667	0.00927754	0.00266686	0.00025684	8.83171E-05	0	0	0	
0.0638333	-0.00921834	0.00174601	0.000257215	8.64581E-05	0	0	0	
0.064	0.00828914	-0.0014863	0.000253517	6.95153E-05	0	0	0	
0.0641667	-0.00900287	-0.00170932	0.000254634	6.24452E-05	0	0	0	
0.0643333	0.0104079	0.00237067	0.000275412	3.95587E-05	0	0	0	
0.0645	-0.0103168	0.000973897	0.000296077	5.92317E-05	0	0	0	
0.0646667	0.00756567	-0.00412811	0.000294968	7.36917E-05	0	0	0	
0.0648333	-0.0082683	0.0030442	0.000270495	8.21952E-05	0	0	0	
0.065	0.00816164	0.000107342	0.000253969	7.64791E-05	0	0	0	
0.0651667	-0.00784255	-0.00145679	0.000247391	6.04219E-05	0	0	0	
0.0653333	0.00786778	0.000591512	0.000248904	4.7407E-05	0	0	0	
0.0655	-0.0079474	0.000917915	0.000249944	3.01495E-05	0	0	0	
0.0656667	0.00779066	-0.000825044	0.000258703	2.13527E-05	0	0	0	
0.0658333	-0.00866571	-0.000550025	0.000263739	2.73908E-05	0	0	0	
0.066	0.00792765	0.00125535	0.000264599	2.44779E-05	0	0	0	
0.0661667	-0.00778662	0.000356808	0.000257311	3.18175E-05	0	0	0	
0.0663333	0.00871642	-0.00173119	0.000255215	3.09289E-05	0	0	0	
0.0665	-0.00902293	0.000256824	0.000255558	3.10941E-05	0	0	0	
0.0666667	0.00852968	0.00010559	0.000260174	1.91545E-05	0	0	0	
0.0668333	-0.00794385	0.00144476	0.000263311	2.23687E-05	0	0	0	
0.067	0.00738217	-0.00257207	0.000261453	2.95994E-05	0	0	0	
0.0671667	-0.00834034	0.000649131	0.000261592	4.26652E-05	0	0	0	
0.0673333	0.00919446	0.000571256	0.000262055	4.22945E-05	0	0	0	
0.0675	-0.00483027	-0.000286418	0.000239445	3.08519E-05	0	0	0	
0.0676667	-0.00377347	-4.56251E-05	0.000201992	2.08155E-05	0	0	0	
0.0678333	0.0220087	-0.000915974	0.000290135	9.93221E-06	0	0	0	
0.068	-0.00999701	0.00154197	0.000459247	1.53639E-05	0	0	0	
0.0681667	-0.011903	-0.000175374	0.000569807	2.85604E-05	0	0	0	
0.0683333	0.0161172	-0.00169024	0.000534675	3.96628E-05	0	0	0	
0.0685	-0.0120607	0.000690992	0.000418147	4.26526E-05	0	0	0	
0.0686667	0.00485554	0.00266074	0.000324989	4.61124E-05	0	0	0	
0.0688333	0.0114669	-0.00266935	0.000221913	4.60205E-05	0	0	0	
0.069	-0.0269142	-0.00105737	0.000268657	6.47954E-05	0	0	0	
0.0691667	0.000751767	0.00235331	0.00026021	6.43483E-05	0	0	0	
0.0693333	0.00785384	-0.00025446	0.000334565	5.81301E-05	0	0	0	
0.0695	-0.00892277	-0.00109368	0.000296526	4.41304E-05	0	0	0	
0.0696667	0.00658509	0.00256281	0.000330965	3.82003E-05	0	0	0	
0.0698333	-0.00672576	-0.00424543	0.000303353	4.8635E-05	0	0	0	
0.07	0.0073281	-0.000121198	0.000271081	7.13926E-05	0	0	0	
0.0701667	-0.00719932	0.00913716	0.000267028	0.000121921	0	0	0	
0.0703333	0.00746239	-0.00888646	0.000276707	0.000153238	0	0	0	
0.0705	-0.00880264	-0.00211854	0.000281963	0.000196752	0	0	0	
0.0706667	0.00769989	0.00823987	0.000275494	0.000185172	0	0	0	
0.0708333	-0.00554953	-0.00275661	0.000259099	0.000170509	0	0	0	
0.071	0.00787554	-0.000237947	0.000260673	0.00010926	0	0	0	
0.0711667	-0.0117166	-0.00336928	0.000283922	7.02124E-05	0	0	0	
0.0713333	0.00849288	0.00186937	0.000292207	6.35112E-05	0	0	0	
0.0715	-0.00497834	0.00553567	0.000255956	0.000106495	0	0	0	
0.0716667	0.00536401	-0.00511761	0.000219541	0.000122069	0	0	0	
0.0718333	-0.00537568	-0.00193445	0.000210151	0.000135665	0	0	0	
0.072	0.00550727	0.00140942	0.000228773	8.07332E-05	0	0	0	
0.0721667	-0.00865147	0.00517449	0.000261203	8.63147E-05	0	0	0	
0.0723333	0.00916004	-0.00621882	0.000287563	7.55391E-05	0	0	0	
0.0725	-0.00665353	-0.000258074	0.000282307	0.000124177	0	0	0	
0.0726667	0.0060205	0.00734706	0.000251083	0.000144785	0	0	0	
0.0728333	-0.00772119	-0.00627032	0.000234559	0.000151427	0	0	0	
0.073	0.00699699	-0.00158688	0.000238841	0.000151886	0	0	0	
0.0731667	-0.00479622	0.00403093	0.000239266	0.000125607	0	0	0	
0.0733333	0.00422969	0.000277545	0.000247119	0.000104603	0	0	0	
0.0735	-0.00750853	-0.00173577	0.00027713	5.46938E-05	0	0	0	
0.0736667	0.00761149	-0.00265875	0.00029663	7.04894E-05	0	0	0	
0.0738333	-0.00532605	0.00512723	0.000271556	8.39794E-05	0	0	0	
0.074	0.00508779	-0.00132854	0.000237788	0.000105653	0	0	0	
0.0741667	-0.00790342	-0.00356015	0.000241408	9.78585E-05	0	0	0	
0.0743333	0.0067734	0.0029014	0.000265507	8.4591E-05	0	0	0	
0.0745	-0.00307683	0.00131082	0.00026495	8.53802E-05	0	0	0	
0.0746667	0.0037625	-0.00193293	0.000252601	6.48352E-05	0	0	0	
0.0748333	-0.00744329	-0.00137743	0.000258014	6.29299E-05	0	0	0	
0.075	0.00831535	0.00185438	0.000273226	4.33073E-05	0	0	0	
0.0751667	-0.00573633	0.00202956	0.000265342	4.73536E-05	0	0	0	
0.0753333	0.00277619	-0.00131636	0.000239195	4.1561E-05	0	0	0	
0.0755	-0.00247278	-0.0048172	0.000237463	6.90614E-05	0	0	0	
0.0756667	0.00483438	0.00459251	0.00026381	7.37676E-05	0	0	0	
0.0758333	-0.00702481	0.00442517	0.000286818	0.000136747	0	0	0	
0.076	0.00591395	-0.00959029	0.000285359	0.000149117	0	0	0	
0.0761667	-0.00536142	0.00224888	0.000270619	0.000180519	0	0	0	
0.0763333	0.00455438	0.0058604	0.000263319	0.000170663	0	0	0	
0.0765	-0.00454835	-0.00312495	0.000256527	0.000145345	0	0	0	
0.0766667	0.00490158	-0.00249112	0.000248552	0.000120929	0	0	0	
0.0768333	-0.00588119	0.000111376	0.000240376	7.00548E-05	0	0	0	
0.077	0.00650224	0.00368162	0.000241432	6.69798E-05	0	0	0	
0.0771667	-0.00503371	-0.000979188	0.000247789	5.49299E-05	0	0	0	
0.0773333	0.00351583	-0.00297901	0.000249578	7.28028E-05	0	0	0	
0.0775	-0.00428179	0.00151564	0.000247297	6.47553E-05	0	0	0	
0.0776667	0.00705776	0.00224214	0.000250712	5.91374E-05	0	0	0	
0.0778333	-0.00884911	-0.000855008	0.000261361	4.44686E-05	0	0	0	
0.078	0.006013	-0.00402466	0.000260728	6.21196E-05	0	0	0	
0.0781667	-0.00245944	0.00431147	0.000247704	7.01034E-05	0	0	0	
0.0783333	0.00311713	0.00217564	0.000255247	0.000105814	0	0	0	
0.0785	-0.00655654	-0.00726952	0.000284321	0.00011614	0	0	0	
0.0786667	0.00731774	0.00338763	0.000300475	0.000131616	0	0	0	
0.0788333	-0.00664543	0.00392403	0.000283925	0.000137867	0	0	0	
0.079	0.00607134	-0.00392088	0.000262894	0.00011705	0	0	0	
0.0791667	-0.00579566	-0.00144443	0.000257774	0.000114239	0	0	0	
0.0793333	0.00224253	0.00161831	0.000253289	6.38213E-05	0	0	0	
0.0795	0.000709915	0.003478	0.000240078	7.49026E-05	0	0	0	
0.0796667	0.000286174	-0.00452297	0.000243817	6.08332E-05	0	0	0	
0.0798333	-0.00531547	-0.00111934	0.000275724	9.85815E-05	0	0	0	
0.08	0.00772994	0.00526781	0.000314287	9.8622E-05	0	0	0	
0.0801667	-0.00570494	-0.00223063	0.000318277	0.000108554	0	0	0	
0.0803333	0.0019345	-0.00328117	0.000278979	0.000110323	0	0	0	
0.0805	-0.000197335	0.0031744	0.000228816	9.93377E-05	0	0	0	
0.0806667	-0.000545671	-0.000856377	0.000204559	8.06826E-05	0	0	0	
0.0808333	-0.00113683	0.00252401	0.000221756	4.76263E-05	0	0	0	
0.081	0.0021271	-0.00386681	0.000267214	4.5679E-05	0	0	0	
0.0811667	-0.00313516	0.000260735	0.000310598	5.69959E-05	0	0	0	
0.0813333	0.00428397	0.000885068	0.000325771	6.60337E-05	0	0	0	
0.0815	-0.00662324	-0.000520837	0.000304927	6.01864E-05	0	0	0	
0.0816667	0.00490201	0.00277494	0.000269571	6.01606E-05	0	0	0	
0.0818333	-0.00175478	-0.00485464	0.000235854	5.93078E-05	0	0	0	
0.082	0.000724672	0.000613336	0.000226463	8.20445E-05	0	0	0	
0.0821667	-0.00213856	0.00291973	0.000238805	9.39528E-05	0	0	0	
0.0823333	0.00295798	-0.00291135	0.000259944	8.82912E-05	0	0	0	
0.0825	-0.00346968	0.00340347	0.00026652	7.26543E-05	0	0	0	
0.0826667	0.00217915	-0.0044032	0.000262454	6.0439E-05	0	0	0	
0.0828333	-0.00247624	-5.91426E-05	0.000268799	8.29622E-05	0	0	0	
0.083	0.00512804	0.00503605	0.000281623	0.000100836	0	0	0	
0.0831667	-0.0054459	-0.00364832	0.000274266	0.000101273	0	0	0	
0.0833333	0.00278503	-0.00134287	0.000245402	0.000102521	0	0	0	
0.0835	-0.00261298	0.0033232	0.000233348	8.4461E-05	0	0	0	
0.0836667	0.00418393	-0.000767906	0.000260998	8.0558E-05	0	0	0	
0.0838333	-0.00491171	-0.00249471	0.000289357	6.35767E-05	0	0	0	
0.084	0.00381022	0.00181374	0.000277318	5.60783E-05	0	0	0	
0.0841667	-0.00293039	0.000901578	0.000237276	5.3989E-05	0	0	0	
0.0843333	0.00392798	-0.00110473	0.000224545	3.6872E-05	0	0	0	
0.0845	-0.00578727	-0.00251891	0.0002519	4.48654E-05	0	0	0	
0.0846667	0.00515076	0.00552747	0.000267608	4.79874E-05	0	0	0	
0.0848333	-0.00315409	0.00171683	0.000222207	0.000117793	0	0	0	
0.085	-0.00351284	-0.0158492	0.00015527	0.000203369	0	0	0	
0.0851667	0.00588682	0.0106333	0.000163278	0.000258346	0	0	0	
0.0853333	1.00341E-05	0.0155421	0.00026448	0.000356183	0	0	0	
0.0855	-0.00721082	-0.0262297	0.000362542	0.00037485	0	0	0	
0.0856667	0.00886527	0.00228322	0.000372599	0.000480441	0	0	0	
0.0858333	-0.0103083	0.0211581	0.00032461	0.000495091	0	0	0	
0.086	0.00868417	-0.0140142	0.000282206	0.00046761	0	0	0	
0.0861667	0.000168024	-0.00196108	0.000228775	0.000394088	0	0	0	
0.0863333	-0.00650001	0.00199724	0.000178541	0.000232895	0	0	0	
0.0865	0.00221484	-0.000721321	0.000171563	0.000163856	0	0	0	
0.0866667	0.00336523	0.0133931	0.000245837	0.000159396	0	0	0	
0.0868333	-0.00495982	-0.0174213	0.000327557	0.000216956	0	0	0	
0.087	0.0049338	-0.00313061	0.000366193	0.000352967	0	0	0	
0.0871667	-0.00576099	0.0222345	0.000350331	0.000407303	0	0	0	
0.0873333	0.00579257	-0.0150689	0.000305772	0.000428685	0	0	0	
0.0875	-0.00407351	-0.00255884	0.000254717	0.000380786	0	0	0	
0.0876667	0.000482436	0.00543581	0.000218787	0.00025738	0	0	0	
0.0878333	-3.80347E-05	0.00312245	0.000202753	0.000198526	0	0	0	
0.088	-0.00104079	-0.00317466	0.000212149	9.77098E-05	0	0	0	
0.0881667	0.0064818	-0.00844144	0.000227974	0.000140448	0	0	0	
0.0883333	-0.0150117	0.0125684	0.000303225	0.000152208	0	0	0	
0.0885	-0.0138527	0.00181134	0.000612217	0.000255315	0	0	0	
0.0886667	0.137552	-0.0154365	0.00120361	0.000297283	0	0	0	
0.0888333	-0.342881	0.0131513	0.00251607	0.00031781	0	0	0	
0.089	0.56291	-0.00911313	0.00534972	0.000294441	0	0	0	
0.0891667	-0.266719	0.00741449	0.00737831	0.000263157	0	0	0	
0.0893333	0.067613	0.000865142	0.00793322	0.000259401	0	0	0	
0.0895	0.0467483	-0.0106613	0.00616013	0.000222454	0	0	0	
0.0896667	-0.0116502	0.00966841	0.00354151	0.000194184	0	0	0	
0.0898333	-0.211571	-0.000497802	0.00298444	0.00021898	0	0	0	
0.09	0.54528	-0.00695696	0.00430372	0.0002319	0	0	0	
0.0901667	-0.364735	0.00958124	0.00807984	0.000221166	0	0	0	
0.0903333	0.243115	-0.00906193	0.00823304	0.000195294	0	0	0	
0.0905	-0.145286	0.00913727	0.00673973	0.000178923	0	0	0	
0.0906667	0.0557003	-0.0050717	0.00360561	0.00018899	0	0	0	
0.0908333	-0.00188997	-0.0118744	0.00228427	0.000250194	0	0	0	
0.091	-0.0264713	0.030804	0.00147005	0.000352789	0	0	0	
0.0911667	0.0529168	-0.0279469	0.0013999	0.000468865	0	0	0	
0.0913333	-0.0202422	-0.00436601	0.00166179	0.000507926	0	0	0	
0.0915	-0.0193312	0.0295018	0.00188115	0.000535918	0	0	0	
0.0916667	-0.00899056	-0.0329587	0.00214274	0.00053906	0	0	0	
0.0918333	-0.0533812	0.0159182	0.00222801	0.000563407	0	0	0	
0.092	0.050229	-0.000461589	0.00198421	0.000543892	0	0	0	
0.0921667	0.149318	-0.00733591	0.00249235	0.000489927	0	0	0	
0.0923333	-0.128909	0.0097239	0.00360573	0.000452283	0	0	0	
0.0925	0.204859	-0.00949705	0.00410785	0.000425872	0	0	0	
0.0926667	-0.136457	-0.00711783	0.0038426	0.000336542	0	0	0	
0.0928333	-0.0222418	0.0238403	0.00277563	0.000285853	0	0	0	
0.093	0.0187784	-0.00711825	0.00228092	0.000260445	0	0	0	
0.0931667	0.0589849	-0.011667	0.00154714	0.00031065	0	0	0	
0.0933333	-0.0531907	-0.00608607	0.00124348	0.000346537	0	0	0	
0.0935	0.0400222	0.034267	0.0012739	0.000433152	0	0	0	
0.0936667	0.0207674	-0.0247322	0.0015167	0.000541548	0	0	0	
0.0938333	-0.167852	-0.00841089	0.00165253	0.000710285	0	0	0	
0.094	0.193465	0.0157371	0.00264786	0.000634974	0	0	0	
0.0941667	-0.0150553	0.00690055	0.00249195	0.000545698	0	0	0	
0.0943333	-0.0696729	-0.0110152	0.00284202	0.000293614	0	0	0	
0.0945	0.125258	-0.00630744	0.00207695	0.000247787	0	0	0	
0.0946667	-0.0683533	0.00701982	0.00217862	0.000197911	0	0	0	
0.0948333	0.0117359	0.00160088	0.00181667	0.000157133	0	0	0	
0.095	0.0351748	-0.00331146	0.00141903	0.000122157	0	0	0	
0.0951667	0.0426646	-0.00259545	0.00123523	0.000137015	0	0	0	
0.0953333	-0.0154966	0.000330582	0.00112007	0.000122186	0	0	0	
0.0955	-0.0120186	0.00347857	0.00117295	0.000103227	0	0	0	
0.0956667	0.0172437	0.00230975	0.00093721	6.04694E-05	0	0	0	
0.0958333	-0.00406357	-0.00991263	0.000624534	9.28163E-05	0	0	0	
0.096	0.000748357	0.00688613	0.000352877	0.000131069	0	0	0	
0.0961667	-0.0132313	0.00235924	0.00029115	0.00018504	0	0	0	
0.0963333	0.00760155	-0.00692963	0.000309042	0.000191057	0	0	0	
0.0965	0.0164475	0.00520144	0.000278671	0.000163672	0	0	0	
0.0966667	-0.0117441	-0.00080758	0.00023264	0.000110846	0	0	0	
0.0968333	0.00529033	-0.000631975	0.000210539	7.03104E-05	0	0	0	
0.097	-0.0166321	-0.00368599	0.000209822	6.11576E-05	0	0	0	
0.0971667	0.0309498	0.00499626	0.00031411	5.59197E-05	0	0	0	
0.0973333	-0.00641425	0.00477084	0.000419928	0.000120274	0	0	0	
0.0975	-0.00869585	-0.0133406	0.000547735	0.000155718	0	0	0	
0.0976667	-0.0103548	0.00396045	0.000629252	0.000222596	0	0	0	
0.0978333	0.0745495	0.0121055	0.000678521	0.000293727	0	0	0	
0.098	-0.0501833	-0.0114861	0.0011248	0.000308318	0	0	0	
0.0981667	0.0290629	0.0011729	0.00106557	0.000267151	0	0	0	
0.0983333	-0.00641279	-0.000399983	0.00101146	0.000150363	0	0	0	
0.0985	-0.0619166	0.00117908	0.000660756	0.000100485	0	0	0	
0.0986667	0.104137	0.00908874	0.00090521	0.000125995	0	0	0	
0.0988333	-0.207088	-0.0131579	0.00192966	0.000171083	0	0	0	
0.099	0.0519679	0.000642024	0.00278751	0.000224704	0	0	0	
0.0991667	-0.000996638	0.0117617	0.00316118	0.000234316	0	0	0	
0.0993333	-0.0658295	-0.00969721	0.00223174	0.000226073	0	0	0	
0.0995	0.0482652	0.00713819	0.00147766	0.000200672	0	0	0	
0.0996667	0.00508975	-0.0108279	0.000989107	0.000176931	0	0	0	
0.0998333	-0.103797	0.000394839	0.00106104	0.000229299	0	0	0	
0.1	0.127248	0.0187886	0.00193359	0.000347929	0	0	0	
0.100167	-0.0153167	-0.0174572	0.00216397	0.000385573	0	0	0	
0.100333	-0.0602906	-0.00673434	0.00231816	0.000484483	0	0	0	
0.1005	0.0626832	0.0199714	0.00156602	0.000466794	0	0	0	
0.100667	-0.0372741	-0.0110599	0.00127562	0.000452566	0	0	0	
0.100833	-0.0134802	0.00105239	0.000973411	0.000314228	0	0	0	
0.101	-0.00023072	-0.00102539	0.000659335	0.000201529	0	0	0	
0.101167	0.0410935	-0.00204176	0.000752415	0.000182386	0	0	0	
0.101333	-0.0309374	0.00851112	0.000775514	0.000184134	0	0	0	
0.1015	-0.0533127	-0.00910794	0.000917253	0.000186969	0	0	0	
0.101667	0.0353452	0.00356195	0.000810398	0.000197507	0	0	0	
0.101833	-0.0105026	0.00319887	0.000760175	0.000204753	0	0	0	
0.102	0.00261339	-0.00574457	0.000555485	0.000200877	0	0	0	
0.102167	-0.0336821	0.00589356	0.000501249	0.000158525	0	0	0	
0.102333	-0.00832456	-0.00544492	0.000595104	0.000117967	0	0	0	
0.1025	0.0746014	0.00233501	0.000714033	0.000131018	0	0	0	
0.102667	-0.0539149	0.00489273	0.00110003	0.000144973	0	0	0	
0.102833	-0.0129798	-0.00746812	0.00139293	0.000138914	0	0	0	
0.103	0.0410879	0.00331755	0.00144471	0.000129754	0	0	0	
0.103167	-0.0307196	0.000974185	0.00103882	0.000124787	0	0	0	
0.103333	0.0325082	-0.00477644	0.000814969	0.000113333	0	0	0	
0.1035	-0.00437763	0.00409137	0.000774411	9.66626E-05	0	0	0	
0.103667	0.0104231	0.00103227	0.000707348	8.36793E-05	0	0	0	
0.103833	-0.0115633	-0.000677253	0.00046386	7.66513E-05	0	0	0	
0.104	0.00741496	-0.00520712	0.00028293	9.38913E-05	0	0	0	
0.104167	0.00842362	0.00370926	0.000237343	8.73249E-05	0	0	0	
0.104333	-0.0172905	0.00500577	0.000306719	0.000140479	0	0	0	
0.1045	0.0138	-0.0110339	0.000374922	0.000155016	0	0	0	
0.104667	-0.00573949	0.00566634	0.000404519	0.000192446	0	0	0	
0.104833	0.00351085	0.00717493	0.000330345	0.0002242	0	0	0	
0.105	-0.00557775	-0.0126873	0.000262731	0.000234186	0	0	0	
0.105167	0.00375878	0.00575483	0.00022277	0.000238568	0	0	0	
0.105333	-0.0045145	0.00386682	0.000234293	0.000212512	0	0	0	
0.1055	0.00396464	-0.00589352	0.000261354	0.000174808	0	0	0	
0.105667	0.000641218	0.00214386	0.000293472	0.000140846	0	0	0	
0.105833	-0.00325839	-7.78571E-05	0.000297572	8.62591E-05	0	0	0	
0.106	0.0016133	0.000536351	0.000258185	6.42643E-05	0	0	0	
0.106167	0.0030593	0.000761692	0.000194056	5.08737E-05	0	0	0	
0.106333	-0.00780567	-0.00130518	0.000161116	4.4069E-05	0	0	0	
0.1065	0.00869657	0.00012893	0.000188239	3.57396E-05	0	0	0	
0.106667	-0.00270159	0.000907042	0.000262187	2.13664E-05	0	0	0	
0.106833	-0.00177992	0.000789717	0.000306837	2.0318E-05	0	0	0	
0.107	-0.00310356	-0.00262648	0.000272054	3.01407E-05	0	0	0	
0.107167	0.0089034	0.000746776	0.000223171	4.68088E-05	0	0	0	
0.107333	-0.00772842	0.00309702	0.000222174	6.12871E-05	0	0	0	
0.1075	0.00338982	-0.0025091	0.00027622	6.37298E-05	0	0	0	
0.107667	-0.000172954	-0.00118411	0.000301997	7.11783E-05	0	0	0	
0.107833	0.0013596	0.00166876	0.000274954	5.33164E-05	0	0	0	
0.108	-0.00403806	0.00140189	0.000235229	5.47442E-05	0	0	0	
0.108167	0.00500433	-0.00242091	0.000225111	4.0796E-05	0	0	0	
0.108333	-0.00595681	-0.000417162	0.000244678	4.67744E-05	0	0	0	
0.1085	0.00752734	0.00248242	0.000268888	4.26762E-05	0	0	0	
0.108667	-0.00536725	-0.000483717	0.000287743	4.31387E-05	0	0	0	
0.108833	0.00158491	-0.0016827	0.000306976	4.14805E-05	0	0	0	
0.109	0.00102728	0.000673904	0.000304628	3.57735E-05	0	0	0	
0.109167	0.00340679	-0.000146739	0.00026518	2.47908E-05	0	0	0	
0.109333	-0.00799315	0.00106623	0.000223584	1.32561E-05	0	0	0	
0.1095	0.00774441	0.000362222	0.000223172	1.81122E-05	0	0	0	
0.109667	-0.00565148	-0.00350155	0.00026835	3.42982E-05	0	0	0	
0.109833	0.00484761	0.00178879	0.000294488	4.93571E-05	0	0	0	
0.11	-0.00497817	0.00300289	0.00028338	6.66456E-05	0	0	0	
0.110167	0.00548565	-0.00180904	0.000272554	6.48215E-05	0	0	0	
0.110333	-0.00350593	-0.0021829	0.00028004	7.67325E-05	0	0	0	
0.1105	0.00348527	-0.000716363	0.000280308	5.61473E-05	0	0	0	
0.110667	-0.00466022	0.00357502	0.000252409	5.0839E-05	0	0	0	
0.110833	0.00580016	0.0047692	0.000223618	8.32912E-05	0	0	0	
0.111	-0.00612452	-0.011557	0.000217628	0.000132412	0	0	0	
0.111167	0.00746465	0.00272752	0.0002315	0.000193119	0	0	0	
0.111333	-0.00764956	0.00994309	0.00024057	0.000224103	0	0	0	
0.1115	0.00737079	-0.00825917	0.000249046	0.000216781	0	0	0	
0.111667	-0.00375538	0.000525568	0.000260922	0.00020437	0	0	0	
0.111833	0.00117733	-0.000298385	0.000270366	0.000134363	0	0	0	
0.112	-0.00266299	0.000560668	0.000247421	0.00010193	0	0	0	
0.112167	0.00717339	0.0050188	0.000209175	8.42548E-05	0	0	0	
0.112333	-0.00816078	-0.00504887	0.000190711	8.89434E-05	0	0	0	
0.1125	0.00706402	-0.00169664	0.000214282	0.000114385	0	0	0	
0.112667	-0.00471935	0.00372369	0.000258155	9.97471E-05	0	0	0	
0.112833	0.00113311	-0.000334467	0.000279968	8.92956E-05	0	0	0	
0.113	-0.00235523	-0.00263956	0.000261386	6.32625E-05	0	0	0	
0.113167	0.00522001	0.00186634	0.000219835	5.4317E-05	0	0	0	
0.113333	-0.0055455	0.00238316	0.000201067	6.97456E-05	0	0	0	
0.1135	0.00550604	-0.00476931	0.000213828	7.85635E-05	0	0	0	
0.113667	-0.0065096	0.00174011	0.000233766	8.1382E-05	0	0	0	
0.113833	0.00655703	0.00207439	0.000247664	7.66832E-05	0	0	0	
0.114	-0.00601821	-0.00257721	0.00026317	6.61987E-05	0	0	0	
0.114167	0.00529066	0.000894599	0.000267016	5.64054E-05	0	0	0	
0.114333	-0.00583663	-0.000160543	0.000249361	3.28144E-05	0	0	0	
0.1145	0.00832101	0.000519055	0.000235673	1.97243E-05	0	0	0	
0.114667	-0.00822364	-0.000979325	0.000253756	1.33859E-05	0	0	0	
0.114833	0.0052267	0.00137303	0.000288245	1.50965E-05	0	0	0	
0.115	-0.0042774	-0.00116878	0.000294096	2.12747E-05	0	0	0	
0.115167	0.00651355	-0.000210763	0.000258842	2.20561E-05	0	0	0	
0.115333	-0.00692635	0.000955631	0.000218203	1.92986E-05	0	0	0	
0.1155	0.00755992	4.49139E-05	0.000215926	2.17338E-05	0	0	0	
0.115667	-0.00771848	-0.00227232	0.000247085	3.61197E-05	0	0	0	
0.115833	0.00845731	0.002993	0.000273346	4.5777E-05	0	0	0	
0.116	-0.00863232	0.000533049	0.000276013	6.32092E-05	0	0	0	
0.116167	0.00819274	-0.00464018	0.000273938	7.34245E-05	0	0	0	
0.116333	-0.00642999	0.00336454	0.0002767	8.49126E-05	0	0	0	
0.1165	0.0065687	0.00188678	0.000267514	9.83997E-05	0	0	0	
0.116667	-0.0085199	-0.00356619	0.000252951	8.82786E-05	0	0	0	
0.116833	0.00925267	-0.000400956	0.000257724	8.78849E-05	0	0	0	
0.117	-0.00796307	0.00357468	0.000280125	6.93614E-05	0	0	0	
0.117167	0.00647401	-0.000335258	0.000288927	6.22333E-05	0	0	0	
0.117333	-0.00632596	-0.00350411	0.00027542	5.78861E-05	0	0	0	
0.1175	0.0074271	0.00252491	0.000253656	5.40498E-05	0	0	0	
0.117667	-0.00891094	0.00133851	0.00024665	7.69437E-05	0	0	0	
0.117833	0.0084362	-0.0028199	0.000255107	7.74325E-05	0	0	0	
0.118	-0.00713847	0.00128816	0.000267358	6.9226E-05	0	0	0	
0.118167	0.00801708	-0.000606666	0.000263348	3.99282E-05	0	0	0	
0.118333	-0.00863033	0.00109122	0.000254977	2.22294E-05	0	0	0	
0.1185	0.00651929	0.000883134	0.000262857	2.4703E-05	0	0	0	
0.118667	-0.00598877	-0.00373277	0.000277041	3.77268E-05	0	0	0	
0.118833	0.00771186	0.00288154	0.000270616	5.49016E-05	0	0	0	
0.119	-0.00860065	0.00134434	0.00025801	7.36039E-05	0	0	0	
0.119167	0.0070283	-0.00319682	0.000260485	7.20326E-05	0	0	0	
0.119333	-0.00501711	0.000190879	0.000263869	7.07478E-05	0	0	0	
0.1195	0.00664628	0.00285926	0.000244956	5.61664E-05	0	0	0	
0.119667	-0.00978037	-0.00110275	0.000227109	5.53028E-05	0	0	0	
0.119833	0.0105684	-0.00249018	0.000244362	6.39804E-05	0	0	0	
0.12	-0.00821961	0.00265088	0.000280154	5.98592E-05	0	0	0	
0.120167	0.00819264	-0.000154181	0.000294016	6.51019E-05	0	0	0	
0.120333	-0.00821204	-0.00191559	0.000273645	5.76882E-05	0	0	0	
0.1205	0.00846751	0.00134142	0.00025663	5.31921E-05	0	0	0	
0.120667	-0.00736544	-0.000744478	0.000261767	3.77045E-05	0	0	0	
0.120833	0.00749104	0.00303254	0.000267541	3.26914E-05	0	0	0	
0.121	-0.0083659	-0.00367021	0.000256219	4.2889E-05	0	0	0	
0.121167	0.00931678	-0.00125949	0.0002477	6.95164E-05	0	0	0	
0.121333	-0.00788889	0.00585183	0.000258691	8.46578E-05	0	0	0	
0.1215	0.00866379	-0.00247311	0.00026701	9.59003E-05	0	0	0	
0.121667	-0.0108572	-0.0039941	0.000263883	0.000118737	0	0	0	
0.121833	0.00980595	0.00540374	0.000260354	0.000124809	0	0	0	
0.122	-0.00759729	-0.00213379	0.000266012	0.000115544	0	0	0	
0.122167	0.0085595	-0.00108876	0.000269475	7.95529E-05	0	0	0	
0.122333	-0.00945332	0.00360729	0.000274415	6.3856E-05	0	0	0	
0.1225	0.00843241	-0.00385876	0.000281965	6.27656E-05	0	0	0	
0.122667	-0.00813764	-0.00200784	0.000273642	8.51815E-05	0	0	0	
0.122833	0.0101367	0.00649341	0.000250145	9.48718E-05	0	0	0	
0.123	-0.0100485	0.00130331	0.000234256	0.000132961	0	0	0	
0.123167	0.00961753	-0.0123979	0.00024682	0.000165676	0	0	0	
0.123333	-0.00977312	0.00723404	0.000269153	0.000198029	0	0	0	
0.1235	0.00915054	0.00800343	0.000284463	0.000254286	0	0	0	
0.123667	-0.00636164	-0.0113991	0.000280803	0.00023974	0	0	0	
0.123833	0.00568302	0.00396124	0.000255372	0.000238344	0	0	0	
0.124	-0.00829584	-0.00151924	0.000222259	0.000166573	0	0	0	
0.124167	0.011851	-0.000353165	0.000217982	0.000144486	0	0	0	
0.124333	-0.0131332	0.00794489	0.000256355	0.00013927	0	0	0	
0.1245	0.0102256	-0.00762919	0.000307368	0.000138957	0	0	0	
0.124667	-0.00487497	-0.00333165	0.000325594	0.000187857	0	0	0	
0.124833	0.00488478	0.00778834	0.000290788	0.000184087	0	0	0	
0.125	-0.0124911	-0.00232348	0.000240067	0.000173015	0	0	0	
0.125167	0.0217174	-0.00107489	0.000246243	0.000111879	0	0	0	
0.125333	-0.0132745	9.01228E-05	0.000337006	6.17125E-05	0	0	0	
0.1255	-0.0349676	0.000919744	0.000592592	3.28108E-05	0	0	0	
0.125667	0.0526861	-0.000257624	0.000996294	1.3788E-05	0	0	0	
0.125833	-0.0231609	-0.00259271	0.00120355	3.43088E-05	0	0	0	
0.126	-0.000736176	0.00520945	0.000958844	5.94812E-05	0	0	0	
0.126167	-0.00284458	-0.00179258	0.000514176	7.78723E-05	0	0	0	
0.126333	0.0878811	-0.00569177	0.000554586	0.000104534	0	0	0	
0.1265	-0.0196818	0.0104483	0.00164614	0.000125031	0	0	0	
0.126667	0.0139881	-0.00619879	0.0024057	0.000153856	0	0	0	
0.126833	0.0066851	-0.000789797	0.00240263	0.000137924	0	0	0	
0.127	-0.00571849	0.0049966	0.00140089	0.000110167	0	0	0	
0.127167	-0.0068289	-0.00326086	0.000609882	8.09886E-05	0	0	0	
0.127333	0.00201308	-0.000462545	0.000373097	7.37877E-05	0	0	0	
0.1275	0.036271	0.000364993	0.000785685	5.56932E-05	0	0	0	
0.127667	-0.108462	0.00592489	0.00180559	4.44954E-05	0	0	0	
0.127833	0.0604086	-0.00510893	0.00226391	6.00807E-05	0	0	0	
0.128	0.0130227	-0.000465323	0.00221433	0.000115458	0	0	0	
0.128167	0.038455	0.00530156	0.00183559	0.000121789	0	0	0	
0.128333	0.00267046	-0.000112268	0.00155446	0.000121573	0	0	0	
0.1285	-0.0201579	-0.00672738	0.00116864	0.000106201	0	0	0	
0.128667	0.0172886	0.00800393	0.000632519	0.000130233	0	0	0	
0.128833	0.0224973	-0.000925014	0.000502023	0.00014905	0	0	0	
0.129	-0.0568162	-0.0115588	0.000701702	0.00019644	0	0	0	
0.129167	0.117391	0.0228255	0.00100294	0.000238024	0	0	0	
0.129333	-0.0150399	-0.0271748	0.00148844	0.000474021	0	0	0	
0.1295	0.0501178	0.0491444	0.00180269	0.000999402	0	0	0	
0.129667	-0.0153622	0.00643583	0.00170283	0.0012215	0	0	0	
0.129833	0.0219174	-0.0194738	0.00116124	0.00104801	0	0	0	
0.13	-0.0228247	0.0115802	0.000691087	0.000531239	0	0	0	
0.130167	0.005945	0.0100249	0.000546522	0.000374922	0	0	0	
0.130333	0.00302102	-0.0387314	0.000540733	0.000386734	0	0	0	
0.1305	-0.0738415	0.0891621	0.000666227	0.000723287	0	0	0	
0.130667	-0.0440565	-0.0213908	0.00116139	0.000968587	0	0	0	
0.130833	0.0218177	0.00472532	0.00116812	0.000897808	0	0	0	
0.131	-0.0069474	-0.00464117	0.00098906	0.0004992	0	0	0	
0.131167	0.00514855	0.00961848	0.000368049	0.000156708	0	0	0	
0.131333	-0.0261673	-0.0103078	0.000304984	0.000150407	0	0	0	
0.1315	0.0339018	0.00387103	0.000366087	0.000194494	0	0	0	
0.131667	0.0471327	0.00207526	0.000946006	0.000254799	0	0	0	
0.131833	0.0109352	-0.00341037	0.00193977	0.000268847	0	0	0	
0.132	0.0329022	0.00347939	0.00242757	0.000202207	0	0	0	
0.132167	-0.0196188	-0.00565263	0.00197608	0.000122159	0	0	0	
0.132333	-0.00869341	0.00894315	0.00096817	0.000101761	0	0	0	
0.1325	0.00630258	-0.032992	0.000397233	0.000201077	0	0	0	
0.132667	-0.0490053	0.0118522	0.00041173	0.000321235	0	0	0	
0.132833	0.122299	-0.0160778	0.00101739	0.000478762	0	0	0	
0.133	-0.0633671	0.000440963	0.0018158	0.000413228	0	0	0	
0.133167	0.00597859	-0.00101316	0.00207369	0.000269344	0	0	0	
0.133333	0.000350684	0.00383694	0.00159873	8.47256E-05	0	0	0	
0.1335	0.00996269	-0.00895684	0.000769495	8.04347E-05	0	0	0	
0.133667	-0.0229247	0.00508432	0.000416758	0.000214772	0	0	0	
0.133833	0.00711236	-0.0217898	0.000388173	0.000298135	0	0	0	
0.134	0.00659629	-0.0107614	0.000418713	0.000429087	0	0	0	
0.134167	-0.000822917	0.0050656	0.000340056	0.000361771	0	0	0	
0.134333	-0.0101346	0.00277288	0.000181551	0.0003271	0	0	0	
0.1345	0.0123743	-0.0147013	0.000150828	0.00023213	0	0	0	
0.134667	-0.00775489	0.0140945	0.000191417	0.000239971	0	0	0	
0.134833	0.0170019	0.0062578	0.000233594	0.000342842	0	0	0	
0.135	-0.00882733	-0.01843	0.000498184	0.000418376	0	0	0	
0.135167	0.0136281	0.00781015	0.000558219	0.000410457	0	0	0	
0.135333	-0.0140764	0.0133701	0.000569054	0.000391547	0	0	0	
0.1355	0.0121654	-0.0137858	0.00032466	0.000313349	0	0	0	
0.135667	-0.010318	-0.000526486	0.000270741	0.000331487	0	0	0	
0.135833	0.0106523	0.00504773	0.000273622	0.000232096	0	0	0	
0.136	-0.0290451	-0.00581964	0.000291975	0.000193935	0	0	0	
0.136167	-0.0140771	0.004871	0.000472494	0.000155266	0	0	0	
0.136333	-0.0124203	-0.00696701	0.000432929	0.000140226	0	0	0	
0.1365	0.0186885	-0.00675616	0.000421753	0.000211535	0	0	0	
0.136667	-0.0137467	0.0157803	0.000266124	0.000232835	0	0	0	
0.136833	0.00915323	-0.00574729	0.000315505	0.00028176	0	0	0	
0.137	-0.00936971	-0.0107902	0.000282059	0.000307075	0	0	0	
0.137167	0.0142603	0.0149214	0.000248842	0.000305778	0	0	0	
0.137333	-0.0143532	-0.00256143	0.000251784	0.000300437	0	0	0	
0.1375	0.0148352	-0.00759791	0.000280101	0.000242956	0	0	0	
0.137667	-0.0175723	0.00318526	0.000303178	0.000197237	0	0	0	
0.137833	0.0166962	0.00417575	0.000313473	0.000154337	0	0	0	
0.138	-0.00227451	1.29176E-05	0.000350375	0.000105812	0	0	0	
0.138167	-0.0098394	-0.00747088	0.000325506	0.000119073	0	0	0	
0.138333	0.0219443	0.00424912	0.000436905	0.000114141	0	0	0	
0.1385	-0.00485934	0.00356974	0.000637081	0.000147894	0	0	0	
0.138667	-0.00621056	-0.00587134	0.000718064	0.000141704	0	0	0	
0.138833	0.00999291	0.00361396	0.000578684	0.000129183	0	0	0	
0.139	-0.0161182	-0.000475189	0.000388243	9.72749E-05	0	0	0	
0.139167	0.0198746	-0.004849	0.000385664	0.000101219	0	0	0	
0.139333	0.00715105	0.0108356	0.000396349	0.000122577	0	0	0	
0.1395	-0.0304302	-0.0106259	0.00041914	0.000163386	0	0	0	
0.139667	0.011987	0.000601001	0.000418233	0.000218686	0	0	0	
0.139833	0.0038043	0.0122199	0.000447352	0.000288174	0	0	0	
0.14	0.0380681	-0.0195697	0.000593136	0.000317367	0	0	0	
0.140167	-0.0552984	0.0155809	0.00103535	0.000338528	0	0	0	
0.140333	0.0197313	0.00464556	0.00112435	0.000400631	0	0	0	
0.1405	0.0043341	-0.0238406	0.00101669	0.000449963	0	0	0	
0.140667	-0.0214034	0.0207254	0.000610457	0.000459579	0	0	0	
0.140833	0.0251595	8.66746E-05	0.000535503	0.000462091	0	0	0	
0.141	-0.0123153	-0.0140879	0.00051988	0.000455657	0	0	0	
0.141167	-0.0218767	0.0131244	0.000716931	0.000403635	0	0	0	
0.141333	-0.0482699	-0.00707475	0.00111799	0.000291436	0	0	0	
0.1415	0.0159411	0.00232442	0.00110665	0.0001944	0	0	0	
0.141667	-0.0113016	0.00455691	0.000799028	0.000166998	0	0	0	
0.141833	0.00982381	-0.0117911	0.000311801	0.000155273	0	0	0	
0.142	-0.00931719	0.00837765	0.000205039	0.000169458	0	0	0	
0.142167	0.00378867	0.00508941	0.000217935	0.000218806	0	0	0	
0.142333	0.000457038	-0.0120983	0.000218718	0.000230879	0	0	0	
0.1425	-0.00617136	0.00575909	0.000206734	0.000232134	0	0	0	
0.142667	-0.00452304	0.00391605	0.000196203	0.000210159	0	0	0	
0.142833	0.000930645	-0.00466053	0.000161566	0.000165649	0	0	0	
0.143	-0.00567686	0.000803127	0.000120514	0.000129275	0	0	0	
0.143167	0.0367765	-0.00272411	0.000268939	6.47413E-05	0	0	0	
0.143333	-0.0340889	0.00715307	0.000723881	7.01805E-05	0	0	0	
0.1435	0.0457044	-0.00484379	0.000887934	8.58583E-05	0	0	0	
0.143667	-0.034814	-0.00354137	0.000969453	0.000124352	0	0	0	
0.143833	0.0184286	0.00794374	0.000773767	0.000126714	0	0	0	
0.144	-0.00748184	-0.00333882	0.000730322	0.000135207	0	0	0	
0.144167	-0.000177291	-0.00492855	0.000470244	0.000157127	0	0	0	
0.144333	0.0137909	0.0083361	0.000428877	0.000165898	0	0	0	
0.1445	-0.00561626	-0.00153226	0.000591882	0.000158741	0	0	0	
0.144667	-0.0362473	-0.00553725	0.00067326	0.000132556	0	0	0	
0.144833	0.0342933	0.00541734	0.000681996	0.000122324	0	0	0	
0.145	-0.0183557	-0.000402924	0.000569587	0.000121698	0	0	0	
0.145167	0.0100939	-0.00306925	0.000533327	0.000109277	0	0	0	
0.145333	-0.0147171	0.00318339	0.000376439	9.33134E-05	0	0	0	
0.1455	0.0192416	-0.00119433	0.000285259	7.19248E-05	0	0	0	
0.145667	-0.0152073	0.00139709	0.000307009	5.71427E-05	0	0	0	
0.145833	0.00898534	0.000494703	0.000337636	6.49756E-05	0	0	0	
0.146	-0.00971456	-0.00697969	0.000316148	8.67931E-05	0	0	0	
0.146167	0.0152457	0.0110911	0.000278204	0.000117231	0	0	0	
0.146333	-0.0183513	0.000650216	0.000267646	0.000206805	0	0	0	
0.1465	0.0165151	-0.0179335	0.00030115	0.000301573	0	0	0	
0.146667	-0.0137815	0.016636	0.000325562	0.000347055	0	0	0	
0.146833	0.0120756	0.00408157	0.000318988	0.000401002	0	0	0	
0.147	-0.0110065	-0.0168226	0.000291258	0.000391308	0	0	0	
0.147167	0.0127415	0.0120706	0.000265687	0.000376563	0	0	0	
0.147333	-0.0150248	-0.00429419	0.00025477	0.000288343	0	0	0	
0.1475	0.0159701	0.000730645	0.000267916	0.000219362	0	0	0	
0.147667	-0.0148704	0.00637123	0.000284905	0.000211294	0	0	0	
0.147833	0.0154924	-0.0126221	0.000299813	0.000197533	0	0	0	
0.148	-0.0144286	0.00826499	0.000304123	0.000211844	0	0	0	
0.148167	0.0118623	0.00425753	0.000295142	0.000247956	0	0	0	
0.148333	-0.0121118	-0.0115586	0.000270848	0.000257363	0	0	0	
0.1485	0.0155164	0.00854705	0.000253538	0.000241936	0	0	0	
0.148667	-0.0151853	-1.75846E-06	0.000264107	0.000201462	0	0	0	
0.148833	0.013637	-0.005162	0.000282687	0.000180408	0	0	0	
0.149	-0.0124748	0.00570223	0.000284218	0.000156578	0	0	0	
0.149167	0.0121971	-0.00607169	0.000271141	0.000122673	0	0	0	
0.149333	-0.0111696	0.00583016	0.000255141	0.000110815	0	0	0	
0.1495	0.0114243	-0.000336196	0.000247095	0.00013926	0	0	0	
0.149667	-0.0118069	-0.00779758	0.000236063	0.000179046	0	0	0	
0.149833	0.012538	0.0102844	0.000230369	0.000189585	0	0	0	
0.15	-0.0140053	-0.00462882	0.000236356	0.000191262	0	0	0	
0.150167	0.0150618	-0.00474575	0.000259503	0.000205087	0	0	0	
0.150333	-0.0146085	0.0108657	0.000282178	0.000219768	0	0	0	
0.1505	0.0152397	-0.00873267	0.000293847	0.000212203	0	0	0	
0.150667	-0.013286	0.00192436	0.000284225	0.000180238	0	0	0	
0.150833	0.0111504	0.0037198	0.000269676	0.000163318	0	0	0	
0.151	-0.0108231	-0.00635767	0.000252509	0.000140988	0	0	0	
0.151167	0.0117806	0.00546634	0.000239675	0.000121475	0	0	0	
0.151333	-0.0144302	0.000911418	0.000241261	0.000126643	0	0	0	
0.1515	0.0168677	-0.00690814	0.00025735	0.000144852	0	0	0	
0.151667	-0.0147849	0.0055375	0.000283621	0.000142149	0	0	0	
0.151833	0.0131139	0.00188006	0.000295811	0.000142907	0	0	0	
0.152	-0.0134641	-0.00609005	0.000288564	0.000124467	0	0	0	
0.152167	0.0125442	0.00222187	0.00026838	0.000121398	0	0	0	
0.152333	-0.0111217	0.00206226	0.000248227	0.000100329	0	0	0	
0.1525	0.0123166	-0.00127377	0.000236838	7.49874E-05	0	0	0	
0.152667	-0.014659	-0.0010851	0.000240874	5.14519E-05	0	0	0	
0.152833	0.0154603	-0.00105181	0.000262368	3.15718E-05	0	0	0	
0.153	-0.0140813	0.00299115	0.000277103	3.94386E-05	0	0	0	
0.153167	0.0121283	-0.00123218	0.000273956	4.96913E-05	0	0	0	
0.153333	-0.0124072	-0.00276758	0.000256239	6.41406E-05	0	0	0	
0.1535	0.0151207	0.00271036	0.000253891	6.3548E-05	0	0	0	
0.153667	-0.0157437	0.000392947	0.000266658	6.77702E-05	0	0	0	
0.153833	0.0127198	-0.00177827	0.000283228	4.81232E-05	0	0	0	
0.154	-0.00947608	-0.000412834	0.000267989	4.43275E-05	0	0	0	
0.154167	0.0115018	0.00051828	0.000238166	2.499E-05	0	0	0	
0.154333	-0.0146231	0.00283094	0.000222309	3.36355E-05	0	0	0	
0.1545	0.0144936	-0.00347589	0.000242083	3.821E-05	0	0	0	
0.154667	-0.0129475	-0.00135058	0.000262645	7.65541E-05	0	0	0	
0.154833	0.0140532	0.00503461	0.000269076	8.80596E-05	0	0	0	
0.155	-0.0141801	-0.00172851	0.000265066	0.000100353	0	0	0	
0.155167	0.0131794	-0.00433591	0.000264665	0.000104692	0	0	0	
0.155333	-0.011901	0.00455405	0.000258087	9.93132E-05	0	0	0	
0.1555	0.0116396	0.00055242	0.000246183	0.000104659	0	0	0	
0.155667	-0.013433	-0.00308281	0.000237577	8.25176E-05	0	0	0	
0.155833	0.0159143	0.000873411	0.00024903	7.29667E-05	0	0	0	
0.156	-0.0139815	0.00119796	0.000266631	5.41565E-05	0	0	0	
0.156167	0.0127152	0.000261678	0.000272753	3.88378E-05	0	0	0	
0.156333	-0.013416	-0.00163434	0.000264719	3.32862E-05	0	0	0	
0.1565	0.013345	-4.10533E-05	0.000254254	2.63673E-05	0	0	0	
0.156667	-0.0118933	0.00189692	0.000248766	2.86735E-05	0	0	0	
0.156833	0.012369	-0.00124943	0.000242048	2.9998E-05	0	0	0	
0.157	-0.0134686	8.8093E-05	0.000241456	3.1855E-05	0	0	0	
0.157167	0.013668	-0.00024134	0.000248297	2.8527E-05	0	0	0	
0.157333	-0.0136373	-0.000268847	0.00025583	2.38228E-05	0	0	0	
0.1575	0.0131348	0.00104943	0.000258377	1.91953E-05	0	0	0	
0.157667	-0.0133053	-0.000515944	0.000256759	1.68599E-05	0	0	0	
0.157833	0.0143275	0.000715002	0.000259361	1.63121E-05	0	0	0	
0.158	-0.0142629	-0.000969729	0.000262516	2.09417E-05	0	0	0	
0.158167	0.0129672	-0.00412236	0.000263854	5.57096E-05	0	0	0	
0.158333	-0.0124875	0.0106336	0.000256603	9.87814E-05	0	0	0	
0.1585	0.0136491	-0.00584885	0.000253196	0.000153591	0	0	0	
0.158667	-0.012798	-0.00797542	0.000250863	0.000226271	0	0	0	
0.158833	0.0110649	0.0119634	0.000246019	0.000240141	0	0	0	
0.159	-0.0106668	-0.00295989	0.000230109	0.000242923	0	0	0	
0.159167	0.0141441	-0.00270817	0.000229689	0.000188351	0	0	0	
0.159333	-0.0185678	0.00123492	0.0002558	0.000147515	0	0	0	
0.1595	0.016107	-0.00474089	0.0002947	0.000119426	0	0	0	
0.159667	-0.0110972	0.0103602	0.000301044	0.000113219	0	0	0	
0.159833	0.0100129	-0.00507939	0.000267518	0.000152054	0	0	0	
0.16	-0.0110793	-0.0050544	0.000227314	0.000192811	0	0	0	
0.160167	0.0120318	0.00556955	0.000214867	0.000172981	0	0	0	
0.160333	-0.0139161	-0.000519479	0.000231034	0.000146159	0	0	0	
0.1605	0.0152351	0.000373345	0.000255027	7.35202E-05	0	0	0	
0.160667	-0.0166524	-0.0039173	0.000277932	6.26577E-05	0	0	0	
0.160833	0.0152521	0.00354572	0.000294754	5.01613E-05	0	0	0	
0.161	-0.0124055	0.0026624	0.000286694	9.13824E-05	0	0	0	
0.161167	0.0110402	-0.00718041	0.000260212	0.000112843	0	0	0	
0.161333	-0.0123889	0.00242005	0.000234811	0.000126789	0	0	0	
0.1615	0.0148284	0.00535783	0.000239182	0.000133112	0	0	0	
0.161667	-0.0153618	-0.00561646	0.000261643	0.00012237	0	0	0	
0.161833	0.0135578	-0.000697107	0.000278302	0.000129758	0	0	0	
0.162	-0.0114926	0.0022466	0.000268688	8.98425E-05	0	0	0	
0.162167	0.0111202	0.000144345	0.000249582	7.49593E-05	0	0	0	
0.162333	-0.0150038	-0.000668344	0.000254245	3.83075E-05	0	0	0	
0.1625	0.0320083	0.000660311	0.00030151	2.65368E-05	0	0	0	
0.162667	-0.190252	-0.0278586	0.000876749	7.66046E-05	0	0	0	
0.162833	0.0400318	0.016408	0.00146726	0.000300948	0	0	0	
0.163	-0.0182539	-0.0172056	0.00146156	0.000395447	0	0	0	
0.163167	0.00664517	0.00721309	0.00103713	0.000433597	0	0	0	
0.163333	-0.00182407	-0.00890275	0.000424975	0.000262819	0	0	0	
0.1635	0.00801491	0.027307	0.000367899	0.000281831	0	0	0	
0.163667	-0.028899	-0.0259507	0.000294151	0.000346395	0	0	0	
0.163833	0.0186508	0.0032469	0.000393375	0.000455588	0	0	0	
0.164	-0.00797825	0.0154904	0.000463838	0.000531204	0	0	0	
0.164167	0.00173411	-0.0175957	0.000359576	0.000492885	0	0	0	
0.164333	-0.0029184	0.00411541	0.00020538	0.000381333	0	0	0	
0.1645	0.00705764	-0.00061908	0.000105446	0.000203617	0	0	0	
0.164667	-0.0086388	0.0105739	0.000102785	0.000139942	0	0	0	
0.164833	0.0103407	-0.0123897	0.000141632	0.000146398	0	0	0	
0.165	-0.0117274	0.0044772	0.000182716	0.000229964	0	0	0	
0.165167	0.0111919	0.00730586	0.000208104	0.00028281	0	0	0	
0.165333	-0.00649884	-0.00691658	0.000206732	0.000288868	0	0	0	
0.1655	0.00443381	0.0025301	0.000166269	0.000213108	0	0	0	
0.165667	-0.00631684	0.00315934	0.00012572	0.000131552	0	0	0	
0.165833	0.0145079	-0.00528343	0.000140537	8.81718E-05	0	0	0	
0.166	-0.0188485	0.00375735	0.000207372	9.92012E-05	0	0	0	
0.166167	0.018437	0.000799061	0.000298566	9.96098E-05	0	0	0	
0.166333	-0.0130842	-0.00347053	0.000323954	0.000104975	0	0	0	
0.1665	0.00468054	0.00351743	0.000277679	9.39417E-05	0	0	0	
0.166667	-0.00235234	-0.00289009	0.000177661	7.37647E-05	0	0	0	
0.166833	0.00984365	0.00366698	0.000123815	6.05345E-05	0	0	0	
0.167	-0.0166087	-0.00212074	0.000166351	5.9523E-05	0	0	0	
0.167167	0.0164638	-0.00104177	0.000262781	5.9999E-05	0	0	0	
0.167333	-0.0155047	0.000455223	0.000318803	6.96195E-05	0	0	0	
0.1675	0.00967275	-0.00345246	0.000304137	7.9441E-05	0	0	0	
0.167667	-0.00455473	0.00323934	0.00022533	8.78198E-05	0	0	0	
0.167833	0.0031659	-0.00232727	0.00014988	7.49925E-05	0	0	0	
0.168	-0.00770702	0.001045	0.000110238	5.7039E-05	0	0	0	
0.168167	0.0128656	0.000944146	0.000154198	3.75453E-05	0	0	0	
0.168333	-0.016147	-3.53547E-05	0.000223078	3.38627E-05	0	0	0	
0.1685	0.012625	-0.00196255	0.00027308	2.97062E-05	0	0	0	
0.168667	-0.0054485	0.00177533	0.000246521	3.63967E-05	0	0	0	
0.168833	0.00397617	0.00034962	0.0001809	3.57771E-05	0	0	0	
0.169	-0.00476146	-0.000932192	0.000116407	2.95669E-05	0	0	0	
0.169167	0.0107435	0.000603939	0.000116293	2.14489E-05	0	0	0	
0.169333	-0.0138905	7.63151E-05	0.000187397	1.35962E-05	0	0	0	
0.1695	0.0137684	0.000275221	0.000248056	1.54085E-05	0	0	0	
0.169667	-0.00962149	-0.00156126	0.000264286	1.83267E-05	0	0	0	
0.169833	0.00414348	0.00124486	0.0002047	2.27315E-05	0	0	0	
0.17	-0.00347005	0.000561794	0.000139624	2.65411E-05	0	0	0	
0.170167	0.00654298	-0.000278392	0.000101149	1.89759E-05	0	0	0	
0.170333	-0.0110026	-0.00156112	0.00012837	2.39343E-05	0	0	0	
0.1705	0.01169	0.00265099	0.000187992	3.74962E-05	0	0	0	
0.170667	-0.0137929	-0.00166731	0.000240162	5.3874E-05	0	0	0	
0.170833	0.00925594	0.00126644	0.000251964	5.59665E-05	0	0	0	
0.171	-0.00468229	-0.00143578	0.000204556	4.15868E-05	0	0	0	
0.171167	0.00439883	-0.000260374	0.000146895	3.21377E-05	0	0	0	
0.171333	-0.00926423	0.00355261	0.000111966	4.00353E-05	0	0	0	
0.1715	0.0131672	-0.00448061	0.000151512	5.20054E-05	0	0	0	
0.171667	-0.0126077	0.00345153	0.000209734	7.28085E-05	0	0	0	
0.171833	0.0106985	-0.000350816	0.00024416	7.22445E-05	0	0	0	
0.172	-0.0059602	-6.654E-05	0.000222805	5.96716E-05	0	0	0	
0.172167	0.00483288	-0.000350518	0.000167841	3.18311E-05	0	0	0	
0.172333	-0.00469316	0.00148069	0.00012211	1.57657E-05	0	0	0	
0.1725	0.00927074	-0.00214502	0.000120503	2.09841E-05	0	0	0	
0.172667	-0.0147714	-0.00104927	0.000186462	4.08779E-05	0	0	0	
0.172833	0.0179655	0.00460811	0.000263918	5.11671E-05	0	0	0	
0.173	-0.0160236	-0.00337403	0.000314073	9.73317E-05	0	0	0	
0.173167	0.00698227	-0.00211318	0.000287456	0.000136551	0	0	0	
0.173333	-0.00334805	0.00142974	0.000210124	0.000128712	0	0	0	
0.1735	0.00409759	0.00311743	0.000130971	9.16216E-05	0	0	0	
0.173667	-0.00506152	-0.000629142	0.000105898	4.46037E-05	0	0	0	
0.173833	0.0095885	4.58257E-05	0.000162733	4.21188E-05	0	0	0	
0.174	-0.0169451	-0.00649894	0.000261929	8.50391E-05	0	0	0	
0.174167	0.0165305	0.0149762	0.000342729	0.000170743	0	0	0	
0.174333	-0.00826304	-0.00761329	0.000323273	0.000227474	0	0	0	
0.1745	0.00476772	-0.00143015	0.000238535	0.000214644	0	0	0	
0.174667	-0.00627826	0.0034695	0.000148921	0.000143099	0	0	0	
0.174833	0.0113094	-6.32462E-05	0.000153424	9.25289E-05	0	0	0	
0.175	-0.0122405	0.00467018	0.0002338	4.93593E-05	0	0	0	
0.175167	0.0163888	-0.00715593	0.00029562	6.2812E-05	0	0	0	
0.175333	-0.00995886	0.00466293	0.000301019	0.000113727	0	0	0	
0.1755	0.00182944	0.00398251	0.000226239	0.000165933	0	0	0	
0.175667	-0.00348918	-0.00368091	0.000147586	0.000144511	0	0	0	
0.175833	0.0108257	-0.00155984	0.000136795	0.000138809	0	0	0	
0.176	-0.00905786	0.00429195	0.000198732	0.000115789	0	0	0	
0.176167	0.0133181	-0.00105372	0.000273428	0.000116574	0	0	0	
0.176333	-0.0189467	-0.00393974	0.000306762	8.25545E-05	0	0	0	
0.1765	0.0112484	0.00185411	0.000293854	6.16238E-05	0	0	0	
0.176667	-0.00384604	0.000424485	0.000243819	5.23209E-05	0	0	0	
0.176833	0.00892992	0.000458681	0.000185262	3.33109E-05	0	0	0	
0.177	-0.0169432	-0.0020851	0.000200821	2.21945E-05	0	0	0	
0.177167	0.0182177	0.00202437	0.000296002	3.09447E-05	0	0	0	
0.177333	-0.0157511	0.00132142	0.000360101	5.48483E-05	0	0	0	
0.1775	0.00827894	-0.00311615	0.000328383	7.07895E-05	0	0	0	
0.177667	-0.00366281	0.00195473	0.00022203	6.43249E-05	0	0	0	
0.177833	0.0042762	-0.000577199	0.000143524	4.96284E-05	0	0	0	
0.178	-0.00885438	0.000499077	0.000113926	3.8964E-05	0	0	0	
0.178167	0.00886714	0.00112204	0.000144137	5.20346E-05	0	0	0	
0.178333	-0.00672366	-0.00547419	0.000174343	7.52867E-05	0	0	0	
0.1785	0.00724248	0.00651351	0.00018713	9.63997E-05	0	0	0	
0.178667	-0.00604472	-0.00215591	0.00018606	0.000114264	0	0	0	
0.178833	0.00598152	-0.00241534	0.000170021	0.000109156	0	0	0	
0.179	-0.00502167	-0.000226831	0.000140597	8.62958E-05	0	0	0	
0.179167	0.00741296	0.00598901	0.000126219	6.28425E-05	0	0	0	
0.179333	-0.0122096	-0.00206255	0.000154802	6.13075E-05	0	0	0	
0.1795	0.0135152	-0.000989306	0.000230277	7.74973E-05	0	0	0	
0.179667	-0.00901547	-0.000150376	0.000261596	7.55458E-05	0	0	0	
0.179833	0.00424504	0.00291762	0.000229944	7.49923E-05	0	0	0	
0.18	-0.00258897	0.000178331	0.000145784	6.01626E-05	0	0	0	
0.180167	0.00189752	-0.00645635	8.49355E-05	6.41559E-05	0	0	0	
0.180333	-0.0055753	0.00433348	8.21503E-05	7.49675E-05	0	0	0	
0.1805	0.0081428	0.00270542	0.0001343	0.000105293	0	0	0	
0.180667	-0.0119034	-0.00133214	0.000205977	0.000114286	0	0	0	
0.180833	0.00964978	0.000177965	0.000255507	8.29259E-05	0	0	0	
0.181	-0.00608928	9.15421E-05	0.000228338	4.90512E-05	0	0	0	
0.181167	0.00338984	0.000672403	0.000166366	2.64201E-05	0	0	0	
0.181333	-0.00553006	-0.000932764	0.000102391	2.8965E-05	0	0	0	
0.1815	0.0073341	0.000571296	0.000110854	5.1703E-05	0	0	0	
0.181667	-0.0123772	0.00409479	0.00015183	6.679E-05	0	0	0	
0.181833	0.0107985	-0.00378413	0.000212534	8.09635E-05	0	0	0	
0.182	-0.004684	0.0017021	0.000209545	7.93235E-05	0	0	0	
0.182167	0.00329477	0.000132375	0.000166441	7.39386E-05	0	0	0	
0.182333	-0.00474197	0.000757128	0.000116514	5.45791E-05	0	0	0	
0.1825	0.0095319	-0.00104216	0.000120172	4.39432E-05	0	0	0	
0.182667	-0.01134	-0.00268035	0.000178404	5.68351E-05	0	0	0	
0.182833	0.01312	0.00379862	0.000229004	7.21856E-05	0	0	0	
0.183	-0.0122548	-0.00176398	0.000260305	7.4574E-05	0	0	0	
0.183167	0.00646109	-0.00117123	0.000232323	6.24832E-05	0	0	0	
0.183333	-0.00322494	0.00130999	0.000177466	4.84412E-05	0	0	0	
0.1835	0.00553138	-0.000401098	0.000125541	3.75595E-05	0	0	0	
0.183667	-0.00899842	-0.000692783	0.000144046	3.06584E-05	0	0	0	
0.183833	0.0092048	0.00152268	0.000203927	3.42562E-05	0	0	0	
0.184	-0.0110623	-0.00134161	0.000251979	3.11226E-05	0	0	0	
0.184167	0.00807903	-0.000271696	0.000253709	2.56445E-05	0	0	0	
0.184333	-0.00457649	0.000712665	0.00020852	2.16771E-05	0	0	0	
0.1845	0.00364644	-0.000193013	0.000154395	1.73151E-05	0	0	0	
0.184667	-0.00645298	0.000587724	0.000114094	1.2708E-05	0	0	0	
0.184833	0.00703154	-0.00208708	0.000134232	1.54885E-05	0	0	0	
0.185	-0.00899069	0.000329762	0.000174668	1.86163E-05	0	0	0	
0.185167	0.00932728	0.000933696	0.000216654	1.94678E-05	0	0	0	
0.185333	-0.00489191	-0.000733626	0.000214768	1.8227E-05	0	0	0	
0.1855	0.00330438	0.00042369	0.000175843	1.91381E-05	0	0	0	
0.185667	-0.00463099	-0.000470877	0.000126901	1.80006E-05	0	0	0	
0.185833	0.00957018	0.00147658	0.000122709	2.04898E-05	0	0	0	
0.186	-0.0125195	-0.000784059	0.00016408	2.89248E-05	0	0	0	
0.186167	0.0113177	0.000215469	0.000224082	3.4258E-05	0	0	0	
0.186333	-0.00621267	-0.00089508	0.000234621	2.88512E-05	0	0	0	
0.1865	0.00325401	-9.25847E-06	0.000200388	2.11484E-05	0	0	0	
0.186667	-0.00301749	0.000995442	0.000135686	2.27859E-05	0	0	0	
0.186833	0.00433811	-0.000467566	9.93114E-05	2.22061E-05	0	0	0	
0.187	-0.00630165	-0.00100204	0.000121744	2.55073E-05	0	0	0	
0.187167	0.0106398	0.00164015	0.000185554	3.10465E-05	0	0	0	
0.187333	-0.0115197	-0.000233126	0.000254005	2.9779E-05	0	0	0	
0.1875	0.0086484	0.000880947	0.000272719	2.26705E-05	0	0	0	
0.187667	-0.00482147	-0.00283878	0.000226531	1.84648E-05	0	0	0	
0.187833	0.00339939	-0.000498056	0.00015159	4.73587E-05	0	0	0	
0.188	-0.00487035	0.0119928	9.54649E-05	0.00012518	0	0	0	
0.188167	0.00402667	-0.0142262	9.50013E-05	0.000192382	0	0	0	
0.188333	-0.00744712	0.00519129	0.000120775	0.000242624	0	0	0	
0.1885	0.00716967	0.0048788	0.000164482	0.000262124	0	0	0	
0.188667	-0.0033652	-0.00512359	0.000180436	0.000239082	0	0	0	
0.188833	0.00443412	0.00603342	0.000173269	0.000188004	0	0	0	
0.189	-0.00664943	-0.00741292	0.000145942	0.000131991	0	0	0	
0.189167	0.0105358	0.00701825	0.000150621	0.000208754	0	0	0	
0.189333	-0.0121152	0.00931223	0.000174962	0.000339484	0	0	0	
0.1895	0.0106083	-0.0114951	0.00022156	0.000368742	0	0	0	
0.189667	-0.00487109	0.00109173	0.000220305	0.000308672	0	0	0	
0.189833	0.00141895	0.00583527	0.000175811	0.000210699	0	0	0	
0.19	-0.000572322	-0.00498374	0.000103948	0.000166686	0	0	0	
0.190167	-0.00117141	0.00693683	5.89494E-05	0.000129496	0	0	0	
0.190333	-0.00239133	-0.00454334	7.69444E-05	0.000109266	0	0	0	
0.1905	0.00516282	0.00194433	0.000143972	0.000109418	0	0	0	
0.190667	-0.0101231	-0.00149318	0.000218533	9.23462E-05	0	0	0	
0.190833	0.00755871	0.00197446	0.000253981	6.82244E-05	0	0	0	
0.191	-0.00477829	-0.000622873	0.000210282	5.14624E-05	0	0	0	
0.191167	0.00106757	0.00193268	0.000134608	4.54918E-05	0	0	0	
0.191333	-0.00168914	-0.00402086	7.80808E-05	4.32633E-05	0	0	0	
0.1915	-0.00274986	0.00169776	6.50993E-05	5.44129E-05	0	0	0	
0.191667	-0.00672798	-0.000157408	9.67453E-05	7.71004E-05	0	0	0	
0.191833	0.00558964	0.00061514	0.000151243	7.14208E-05	0	0	0	
0.192	-0.00247926	-0.00134875	0.000193328	5.46141E-05	0	0	0	
0.192167	0.00351767	-0.00123629	0.000188575	3.4754E-05	0	0	0	
0.192333	-0.0030923	0.00161215	0.000142764	2.93622E-05	0	0	0	
0.1925	0.00417919	-0.0016085	0.000115779	4.52318E-05	0	0	0	
0.192667	-0.00565729	-0.00228508	0.000142071	4.7615E-05	0	0	0	
0.192833	0.00940084	0.00363902	0.000213786	6.43589E-05	0	0	0	
0.193	-0.00939361	-0.00169725	0.000269372	5.75271E-05	0	0	0	
0.193167	0.00526668	-0.00108882	0.000252057	5.79239E-05	0	0	0	
0.193333	-0.00255506	0.00169821	0.000175873	4.17294E-05	0	0	0	
0.1935	0.00472991	0.00188153	0.000110511	5.17035E-05	0	0	0	
0.193667	-0.00301403	-0.00524334	0.00011632	6.31156E-05	0	0	0	
0.193833	0.00105111	0.00212904	0.000155989	7.80878E-05	0	0	0	
0.194	-0.00390603	0.00643536	0.000214489	8.5671E-05	0	0	0	
0.194167	0.00682575	-0.00486996	0.000253027	9.31103E-05	0	0	0	
0.194333	-0.004448	-0.00199197	0.000249353	0.000105943	0	0	0	
0.1945	0.00407405	0.00343041	0.000206705	8.69587E-05	0	0	0	
0.194667	-0.0100498	0.00337844	0.000204287	0.000101655	0	0	0	
0.194833	0.0153657	-0.00886798	0.000261769	0.000126485	0	0	0	
0.195	-0.0161002	0.00376023	0.000323646	0.000150263	0	0	0	
0.195167	0.0138108	0.00299379	0.000325544	0.000165457	0	0	0	
0.195333	-0.00389737	-0.00588737	0.000264729	0.000155362	0	0	0	
0.1955	-0.00152494	0.00559252	0.000168392	0.000149928	0	0	0	
0.195667	0.000400833	-0.00477783	0.000115594	0.000118439	0	0	0	
0.195833	0.00744236	0.000380121	0.000163776	0.000153455	0	0	0	
0.196	-0.0175205	0.0119924	0.000291763	0.00023973	0	0	0	
0.196167	0.019559	-0.01597	0.000387598	0.000273701	0	0	0	
0.196333	-0.0127203	0.00995993	0.000397595	0.000329197	0	0	0	
0.1965	0.00394135	0.00596725	0.000311119	0.0003477	0	0	0	
0.196667	-0.00154605	-0.00809209	0.000198696	0.000321275	0	0	0	
0.196833	0.00460361	-0.00274985	0.000125051	0.00025089	0	0	0	
0.197	-0.0064578	0.00988769	0.000147271	0.000176198	0	0	0	
0.197167	0.00919756	-0.00826553	0.000211358	0.000189881	0	0	0	
0.197333	-0.0106539	0.000259825	0.000260051	0.000170923	0	0	0	
0.1975	0.00514343	0.00244987	0.000252407	0.000129377	0	0	0	
0.197667	-0.00142255	-0.00174132	0.000187469	8.59795E-05	0	0	0	
0.197833	6.54428E-05	0.000645172	0.000117842	5.39621E-05	0	0	0	
0.198	-0.00326157	0.00438174	9.44805E-05	7.72555E-05	0	0	0	
0.198167	0.00289166	-0.0094643	0.000139121	0.000124301	0	0	0	
0.198333	-0.00673683	0.00846268	0.00019188	0.000160088	0	0	0	
0.1985	0.00597759	-0.00229561	0.000224492	0.000161853	0	0	0	
0.198667	-0.00260003	-0.00156497	0.000210498	0.000151218	0	0	0	
0.198833	0.00224878	0.00246093	0.00016749	0.0001143	0	0	0	
0.199	-0.00287806	-0.000869072	0.000116191	8.13959E-05	0	0	0	
0.199167	0.00621639	-0.000288486	0.000112563	4.96061E-05	0	0	0	
0.199333	-0.00674551	0.00199036	0.000166228	4.18017E-05	0	0	0	
0.1995	0.00906097	-0.00172952	0.00023372	3.73779E-05	0	0	0	
0.199667	-0.00553821	0.00241277	0.000255892	3.34961E-05	0	0	0	
0.199833	0.0022796	-0.00160188	0.000202479	3.42485E-05	0	0	0	
0.2	-0.0013215	-0.00111889	0.000128007	4.13949E-05	0	0	0	
0.200167	0.00402632	0.00434432	9.16444E-05	4.69875E-05	0	0	0	
0.200333	-0.00317702	-0.00364149	0.000134367	6.4759E-05	0	0	0	
0.2005	0.00318209	-0.000794457	0.00020487	9.17403E-05	0	0	0	
0.200667	-0.00657327	0.00508203	0.000260792	9.64036E-05	0	0	0	
0.200833	0.0063811	-0.0027027	0.000268625	9.58573E-05	0	0	0	
0.201	-0.00340011	6.07339E-05	0.000220278	8.04193E-05	0	0	0	
0.201167	0.000812675	0.00235199	0.000149532	8.25659E-05	0	0	0	
0.201333	-0.00364579	-0.00789435	0.000125864	9.6369E-05	0	0	0	
0.2015	0.00661335	0.00893247	0.000184435	0.000112767	0	0	0	
0.201667	-0.010122	0.00485083	0.000253384	0.00017258	0	0	0	
0.201833	0.00666535	-0.0163198	0.000277467	0.000226439	0	0	0	
0.202	-0.00143161	0.0112116	0.00022971	0.000265663	0	0	0	
0.202167	0.000976958	0.00462485	0.000161547	0.000281455	0	0	0	
0.202333	-0.00128787	-0.00907175	0.000106255	0.000228423	0	0	0	
0.2025	0.00389081	0.00679094	0.000114535	0.000230169	0	0	0	
0.202667	-0.00762891	0.00170188	0.000187294	0.000217387	0	0	0	
0.202833	0.00815671	-0.00858774	0.00027031	0.000247737	0	0	0	
0.203	-0.00574887	0.0102559	0.000302543	0.000253649	0	0	0	
0.203167	0.00381286	-0.00948446	0.000249933	0.000228818	0	0	0	
0.203333	0.00047441	1.63599E-05	0.000150495	0.00021045	0	0	0	
0.2035	-0.00373242	0.0150692	8.04054E-05	0.000187659	0	0	0	
0.203667	0.000460926	-0.0153954	0.000113884	0.000231092	0	0	0	
0.203833	-0.00134372	0.0041163	0.000210982	0.000249056	0	0	0	
0.204	-0.00408071	0.00204903	0.000285978	0.000269476	0	0	0	
0.204167	0.00430094	-0.00453125	0.000298267	0.00023153	0	0	0	
0.204333	-0.00109656	0.00348977	0.000227364	0.000190429	0	0	0	
0.2045	-0.00963582	-0.00205491	0.000152868	0.000114218	0	0	0	
0.204667	-0.00122708	0.0025461	0.000182099	6.28874E-05	0	0	0	
0.204833	0.064987	-0.00282422	0.000474741	8.00353E-05	0	0	0	
0.205	-0.128379	0.000538639	0.00147483	0.000134339	0	0	0	
0.205167	0.0510167	0.00162572	0.00190927	0.000150997	0	0	0	
0.205333	-0.00559441	-0.00232949	0.00167872	0.000128686	0	0	0	
0.2055	-0.00512484	-0.00110178	0.000709133	0.000102002	0	0	0	
0.205667	-0.0229069	0.003267	0.000313422	8.92237E-05	0	0	0	
0.205833	0.0684441	-0.00351743	0.000655162	8.43355E-05	0	0	0	
0.206	-0.112886	0.00241447	0.00140543	7.35406E-05	0	0	0	
0.206167	-0.0363778	0.000401491	0.00220558	7.60939E-05	0	0	0	
0.206333	0.00904158	-0.00399284	0.00220405	6.21628E-05	0	0	0	
0.2065	0.00078715	0.00414806	0.00149786	6.09351E-05	0	0	0	
0.206667	0.00148936	-0.000911395	0.000572024	6.23893E-05	0	0	0	
0.206833	0.0240707	-0.00342686	0.000385238	8.23558E-05	0	0	0	
0.207	-0.0226852	0.00511767	0.000769852	7.86763E-05	0	0	0	
0.207167	0.0185827	-0.000463824	0.00108914	0.000104078	0	0	0	
0.207333	0.00066288	-0.00742474	0.000914219	0.00014944	0	0	0	
0.2075	-0.010738	0.00807084	0.000505098	0.000183006	0	0	0	
0.207667	0.00430538	-0.00298011	0.000189728	0.000162261	0	0	0	
0.207833	0.00866383	-0.000793394	0.000189045	0.000117893	0	0	0	
0.208	-0.0142928	0.00320154	0.000197727	8.43068E-05	0	0	0	
0.208167	0.00611857	-0.00187262	0.000229954	7.89918E-05	0	0	0	
0.208333	-0.000241782	0.00183081	0.000201169	5.80718E-05	0	0	0	
0.2085	0.00146906	-0.000162393	0.000203748	5.45565E-05	0	0	0	
0.208667	-0.00454705	-0.00125212	0.000202512	5.3595E-05	0	0	0	
0.208833	0.00330526	0.00227984	0.000182551	5.52613E-05	0	0	0	
0.209	0.000366205	0.000356719	0.000106364	5.30315E-05	0	0	0	
0.209167	-0.00137562	-0.00158549	5.86926E-05	5.24771E-05	0	0	0	
0.209333	-0.00213061	0.000520547	0.000102911	4.75153E-05	0	0	0	
0.2095	0.00594379	0.000521726	0.000202272	3.95226E-05	0	0	0	
0.209667	-0.00590215	-0.0008425	0.000269247	2.4168E-05	0	0	0	
0.209833	0.00248959	-0.000667513	0.00023304	3.07986E-05	0	0	0	
0.21	0.000373755	-0.000759141	0.000140437	2.87907E-05	0	0	0	
0.210167	0.00290453	0.00462124	9.12921E-05	3.54282E-05	0	0	0	
0.210333	-0.00391231	-0.00380197	0.000136306	5.74047E-05	0	0	0	
0.2105	0.0061054	-0.0024178	0.000225853	9.45486E-05	0	0	0	
0.210667	-0.00430817	0.00524613	0.00028273	0.000112731	0	0	0	
0.210833	0.00180899	-0.00370592	0.000258056	0.000109091	0	0	0	
0.211	-0.000593603	0.000567261	0.000178301	7.90292E-05	0	0	0	
0.211167	1.19472E-05	0.000381114	0.000102935	5.09852E-05	0	0	0	
0.211333	1.43676E-05	0.000612366	8.50395E-05	2.43506E-05	0	0	0	
0.2115	-0.000626238	-0.000340342	0.000128252	2.12462E-05	0	0	0	
0.211667	-0.00032615	-0.00105843	0.000196584	3.4448E-05	0	0	0	
0.211833	0.00206114	0.00157103	0.000245496	3.84979E-05	0	0	0	
0.212	-0.00195317	-4.10587E-05	0.000246812	4.11142E-05	0	0	0	
0.212167	0.00424139	-0.00131427	0.000198012	3.74235E-05	0	0	0	
0.212333	-0.00167759	0.00112309	0.000127464	3.56162E-05	0	0	0	
0.2125	-0.0132269	-0.00272194	7.77792E-05	3.6128E-05	0	0	0	
0.212667	0.170031	0.0313022	0.000624791	0.000100738	0	0	0	
0.212833	-0.0242774	-0.033016	0.0011833	0.000402385	0	0	0	
0.213	0.00822238	0.0440656	0.00128992	0.000587459	0	0	0	
0.213167	0.00131516	-0.0255087	0.000986497	0.000763457	0	0	0	
0.213333	-0.00764225	0.0174079	0.000568859	0.000579202	0	0	0	
0.2135	0.00930734	-0.0391958	0.000507772	0.000538279	0	0	0	
0.213667	0.00932318	0.0344235	0.000369499	0.000543298	0	0	0	
0.213833	-0.00131398	-0.0130489	0.000413049	0.000599466	0	0	0	
0.214	-0.00503495	-0.00776179	0.000527171	0.000648428	0	0	0	
0.214167	0.00545606	0.0215968	0.000498619	0.000551942	0	0	0	
0.214333	-0.00172995	-0.0173531	0.000373162	0.000482988	0	0	0	
0.2145	-0.000224967	0.000771749	0.00027269	0.00038635	0	0	0	
0.214667	-0.00411357	0.00334465	0.000273643	0.000267503	0	0	0	
0.214833	0.00703915	0.00402809	0.000314724	0.000186363	0	0	0	
0.215	-0.00288733	-0.000114346	0.000310536	0.000114316	0	0	0	
0.215167	-0.00187205	-0.0123728	0.000242763	0.000156603	0	0	0	
0.215333	0.00226824	0.0109351	0.000200496	0.000194385	0	0	0	
0.2155	-0.000720576	0.00367945	0.000220067	0.000265216	0	0	0	
0.215667	-0.000874856	-0.0100235	0.000266212	0.000248556	0	0	0	
0.215833	0.00219561	0.00323952	0.000286241	0.000224168	0	0	0	
0.216	-0.00119269	0.00205521	0.000278731	0.000140554	0	0	0	
0.216167	-0.00152617	0.0026322	0.000258041	9.3548E-05	0	0	0	
0.216333	0.00103604	-0.00593821	0.000249449	7.7025E-05	0	0	0	
0.2165	0.00139465	0.0016108	0.000265679	9.15022E-05	0	0	0	
0.216667	-0.00166017	0.00601547	0.000279322	0.000132653	0	0	0	
0.216833	-0.000651893	-0.00837048	0.000269153	0.000149228	0	0	0	
0.217	0.00165247	0.00260792	0.000258847	0.00015848	0	0	0	
0.217167	0.00137975	0.00195144	0.000266467	0.000142414	0	0	0	
0.217333	-0.00107942	0.000398818	0.000261454	0.000109675	0	0	0	
0.2175	-0.00194365	-0.00163108	0.000227128	6.49774E-05	0	0	0	
0.217667	0.00279158	-0.000614845	0.000213622	3.55372E-05	0	0	0	
0.217833	0.000523634	0.00120461	0.000252686	3.67027E-05	0	0	0	
0.218	-0.0027027	-0.000434678	0.000296499	3.42528E-05	0	0	0	
0.218167	0.00172951	-0.000243516	0.000282252	2.23164E-05	0	0	0	
0.218333	-2.48294E-05	0.00143565	0.00023044	1.86969E-05	0	0	0	
0.2185	-0.000374961	-0.00034783	0.000203652	2.01155E-05	0	0	0	
0.218667	0.00060276	-0.00163567	0.000213385	1.70787E-05	0	0	0	
0.218833	-0.00194707	0.000603775	0.000227815	2.98865E-05	0	0	0	
0.219	0.00127856	0.00205837	0.000241585	5.34597E-05	0	0	0	
0.219167	0.00156212	-0.00360193	0.000275276	6.92413E-05	0	0	0	
0.219333	-0.00314064	0.00468006	0.000303671	7.42761E-05	0	0	0	
0.2195	-0.000135863	-0.00389821	0.000283048	7.62518E-05	0	0	0	
0.219667	0.0026516	-0.00142831	0.000228667	0.000105292	0	0	0	
0.219833	-0.00180479	0.00657336	0.000203545	0.000124327	0	0	0	
0.22	-0.000619691	-0.00487461	0.000223966	0.000125064	0	0	0	
0.220167	-0.00102172	-0.00101864	0.000249131	0.00012172	0	0	0	
0.220333	0.0021253	0.00324755	0.000257629	0.000106968	0	0	0	
0.2205	0.00196167	-0.00211014	0.000279242	9.10034E-05	0	0	0	
0.220667	-0.0101103	0.00254418	0.000305761	6.18358E-05	0	0	0	
0.220833	0.00150642	-0.00141768	0.000247989	4.53204E-05	0	0	0	
0.221	0.0462999	-0.00785598	0.000283204	6.43054E-05	0	0	0	
0.221167	-0.486566	0.0984887	0.00138109	0.000284315	0	0	0	
0.221333	0.0802245	-0.0178769	0.00325194	0.000668852	0	0	0	
0.2215	-0.0342388	0.00347393	0.00336505	0.000682814	0	0	0	
0.221667	0.000412653	0.0115942	0.00242293	0.000579565	0	0	0	
0.221833	0.00998303	-0.0254438	0.000679039	0.000312011	0	0	0	
0.222	0.00118054	0.0227896	0.000445991	0.000408341	0	0	0	
0.222167	-0.0804329	0.00234422	0.000431644	0.000455639	0	0	0	
0.222333	-0.0738962	0.0110375	0.00205729	0.000696876	0	0	0	
0.2225	0.00263222	0.00870216	0.00295199	0.00089783	0	0	0	
0.222667	0.0204306	-0.0262057	0.00280959	0.000859153	0	0	0	
0.222833	-0.00738351	0.0237502	0.00117279	0.000642258	0	0	0	
0.223	0.00186324	-0.00637397	0.000350988	0.000504113	0	0	0	
0.223167	-0.0112141	-0.0123077	0.000300748	0.00059705	0	0	0	
0.223333	0.0224918	0.0204626	0.000285902	0.000628303	0	0	0	
0.2235	-0.0236569	-0.0225635	0.000432083	0.000578278	0	0	0	
0.223667	0.00647827	0.0250154	0.000596622	0.000491178	0	0	0	
0.223833	-0.000369999	-0.0218857	0.000612239	0.00044761	0	0	0	
0.224	0.00462321	0.00730652	0.000430885	0.000465276	0	0	0	
0.224167	-0.00926869	0.0120562	0.000274426	0.00054062	0	0	0	
0.224333	0.00873591	-0.0226615	0.000233385	0.000566169	0	0	0	
0.2245	-0.00589387	0.0215344	0.000301086	0.000519303	0	0	0	
0.224667	0.00299818	-0.0179323	0.00035972	0.00042326	0	0	0	
0.224833	-0.00226005	0.0131237	0.000368436	0.00039252	0	0	0	
0.225	0.00095541	-0.0029942	0.000344505	0.000426359	0	0	0	
0.225167	0.00057959	-0.0103868	0.000316971	0.000480091	0	0	0	
0.225333	-0.000315575	0.019367	0.000285633	0.000485526	0	0	0	
0.2255	-0.00117728	-0.0195595	0.000246711	0.00043656	0	0	0	
0.225667	0.00275986	0.0139794	0.000207865	0.000366757	0	0	0	
0.225833	-0.00798547	-0.00421565	0.000188685	0.000348122	0	0	0	
0.226	0.000419033	-0.0067105	0.000162524	0.000358133	0	0	0	
0.226167	-0.00290947	0.00899315	0.000171434	0.000323258	0	0	0	
0.226333	0.00579984	-0.00448458	0.000203832	0.000245004	0	0	0	
0.2265	-0.00517853	0.00638352	0.000261747	0.000167425	0	0	0	
0.226667	0.00438518	-0.01438	0.000288857	0.000162304	0	0	0	
0.226833	-0.00641786	0.0123934	0.000282082	0.000201735	0	0	0	
0.227	0.0020172	0.000246122	0.000294668	0.000279204	0	0	0	
0.227167	-0.00590608	-0.00823045	0.000379675	0.000312726	0	0	0	
0.227333	-0.00830639	0.00894365	0.000441825	0.000294612	0	0	0	
0.2275	0.0352161	-0.0110996	0.000435148	0.000234439	0	0	0	
0.227667	-0.00439958	0.0124627	0.000415172	0.000199561	0	0	0	
0.227833	-0.0116591	-0.00393483	0.000313891	0.000225191	0	0	0	
0.228	0.0173192	-0.00727621	0.000294761	0.000265524	0	0	0	
0.228167	-0.0281646	0.00923614	0.000302119	0.000252417	0	0	0	
0.228333	0.00373403	-0.00424821	0.000388513	0.000204215	0	0	0	
0.2285	0.0144174	0.0014886	0.000455128	0.000124417	0	0	0	
0.228667	-0.00732417	-0.00383178	0.000508715	8.68587E-05	0	0	0	
0.228833	-0.00197778	0.00563464	0.000515896	6.92136E-05	0	0	0	
0.229	0.00272631	-0.001644	0.000417842	0.000103553	0	0	0	
0.229167	-0.00345888	-0.00507599	0.000252994	0.000158256	0	0	0	
0.229333	0.00249978	0.00597503	0.000209188	0.000171532	0	0	0	
0.2295	-0.00081085	-0.00268452	0.000262585	0.000139602	0	0	0	
0.229667	0.00146754	0.00199302	0.000287171	8.49543E-05	0	0	0	
0.229833	-0.00374058	-0.00265164	0.000246425	6.35688E-05	0	0	0	
0.23	0.00670175	-0.00072386	0.000206891	6.57925E-05	0	0	0	
0.230167	-0.00588419	0.0041148	0.000224589	7.91202E-05	0	0	0	
0.230333	0.00316224	-0.0041009	0.000279884	8.64765E-05	0	0	0	
0.2305	-0.00217617	0.0019146	0.000300416	7.64465E-05	0	0	0	
0.230667	0.00570602	-9.11133E-05	0.000273268	6.04771E-05	0	0	0	
0.230833	-0.00596944	-0.00108847	0.000239453	4.72228E-05	0	0	0	
0.231	0.00371036	0.000977029	0.000240544	3.79454E-05	0	0	0	
0.231167	-0.00320171	-0.00122491	0.000256642	3.18806E-05	0	0	0	
0.231333	0.0056979	0.0018444	0.000256607	2.80774E-05	0	0	0	
0.2315	-0.00673887	0.000586486	0.000249582	3.90459E-05	0	0	0	
0.231667	0.00640344	-0.0035685	0.000262246	4.74049E-05	0	0	0	
0.231833	-0.00306081	0.00018601	0.000288042	6.1733E-05	0	0	0	
0.232	0.00115523	0.00502839	0.000298886	7.61013E-05	0	0	0	
0.232167	-0.00263527	-0.00212437	0.000278007	8.01461E-05	0	0	0	
0.232333	0.0061895	-0.00545784	0.000249307	0.000112387	0	0	0	
0.2325	-0.00743622	0.00541476	0.00024058	0.000107732	0	0	0	
0.232667	0.00591245	0.00117087	0.000262262	0.000129997	0	0	0	
0.232833	-0.00314738	-0.00221986	0.000292124	8.87271E-05	0	0	0	
0.233	0.00254398	-0.00227097	0.000293276	8.52198E-05	0	0	0	
0.233167	-0.00600806	0.00190662	0.00027055	5.1418E-05	0	0	0	
0.233333	0.00714898	0.00285353	0.00025012	7.14485E-05	0	0	0	
0.2335	-0.00755782	-0.00270121	0.000255472	5.87862E-05	0	0	0	
0.233667	0.0071874	-0.00163209	0.00026583	7.82287E-05	0	0	0	
0.233833	-0.0063301	0.00264346	0.000275671	6.02599E-05	0	0	0	
0.234	0.00403145	0.000304302	0.000285524	6.09912E-05	0	0	0	
0.234167	-0.00319279	-0.00154197	0.000288184	3.74643E-05	0	0	0	
0.234333	0.00575108	-0.00109482	0.000265079	3.65961E-05	0	0	0	
0.2345	-0.0088577	0.00313941	0.000240105	3.36976E-05	0	0	0	
0.234667	0.00750615	-0.00138859	0.000240538	4.83716E-05	0	0	0	
0.234833	-0.00506896	-0.00250504	0.000264633	6.0196E-05	0	0	0	
0.235	0.00507783	0.00268655	0.000269975	6.26048E-05	0	0	0	
0.235167	-0.0070707	0.00096036	0.00025553	6.45012E-05	0	0	0	
0.235333	0.00788236	-0.00296803	0.000248391	5.68696E-05	0	0	0	
0.2355	-0.00555934	0.00164385	0.000260392	5.6661E-05	0	0	0	
0.235667	0.0046569	0.00146194	0.000270945	5.38774E-05	0	0	0	
0.235833	-0.00654182	-0.0025975	0.000259939	4.61403E-05	0	0	0	
0.236	0.00828923	0.00022069	0.000246561	5.01025E-05	0	0	0	
0.236167	-0.00847857	0.00186165	0.000253939	4.70762E-05	0	0	0	
0.236333	0.00770606	-0.000995608	0.000272795	4.37349E-05	0	0	0	
0.2365	-0.00614171	-0.000424675	0.000278302	3.1995E-05	0	0	0	
0.236667	0.00571792	2.74897E-05	0.00026861	2.11736E-05	0	0	0	
0.236833	-0.00613678	0.00128622	0.000260165	2.0603E-05	0	0	0	
0.237	0.00613091	-0.000330244	0.000256426	2.42356E-05	0	0	0	
0.237167	-0.00768129	-0.00206082	0.000253742	3.63423E-05	0	0	0	
0.237333	0.00848454	0.00316128	0.000252185	4.39126E-05	0	0	0	
0.2375	-0.00706381	-0.000219888	0.000256831	5.86461E-05	0	0	0	
0.237667	0.00583241	-0.00280956	0.000264489	6.88381E-05	0	0	0	
0.237833	-0.00621585	0.00271594	0.000265538	6.95514E-05	0	0	0	
0.238	0.00721411	-0.000290552	0.000264893	6.44055E-05	0	0	0	
0.238167	-0.00640359	-0.00160847	0.000262159	5.2158E-05	0	0	0	
0.238333	0.00693506	0.000769148	0.000261084	4.26381E-05	0	0	0	
0.2385	-0.00646264	0.00241694	0.0002585	4.2784E-05	0	0	0	
0.238667	0.0057445	-0.00390456	0.00026166	4.30876E-05	0	0	0	
0.238833	-0.00492549	-0.00245402	0.000255547	8.42656E-05	0	0	0	
0.239	0.00746788	0.0115055	0.000237784	0.000123463	0	0	0	
0.239167	-0.00991126	-0.00888452	0.000223313	0.00017247	0	0	0	
0.239333	0.0104353	-0.00638342	0.000233905	0.000249628	0	0	0	
0.2395	-0.0100309	0.0154484	0.000262182	0.000279048	0	0	0	
0.239667	0.00956825	-0.0087566	0.000287223	0.000291468	0	0	0	
0.239833	-0.0075938	-0.00154896	0.00030396	0.000262663	0	0	0	
0.24	0.00430351	0.00602351	0.000303278	0.000236964	0	0	0	
0.240167	-0.00567895	-0.0092482	0.000281116	0.000211875	0	0	0	
0.240333	0.00981007	0.00933772	0.000248866	0.000169877	0	0	0	
0.2405	-0.0117265	-0.000667743	0.000231996	0.000182783	0	0	0	
0.240667	0.0128882	-0.00881201	0.000243019	0.000209902	0	0	0	
0.240833	-0.00970557	0.00864113	0.000281409	0.000206947	0	0	0	
0.241	0.00407585	-0.00351038	0.000312354	0.000177134	0	0	0	
0.241167	-0.00556901	-0.00131974	0.000298644	0.00013338	0	0	0	
0.241333	0.0110771	0.00364572	0.000260197	0.00010367	0	0	0	
0.2415	-0.00988219	-0.000735022	0.000235155	7.36849E-05	0	0	0	
0.241667	0.00780207	-0.00183043	0.000239007	4.6814E-05	0	0	0	
0.241833	-0.00980732	-0.00289196	0.000243592	6.30998E-05	0	0	0	
0.242	0.0111975	0.00780873	0.000247994	8.01955E-05	0	0	0	
0.242167	-0.012659	-0.00250863	0.000269065	0.000127017	0	0	0	
0.242333	0.0117611	-0.0062791	0.00030529	0.000163391	0	0	0	
0.2425	0.0283388	0.0116925	0.000475774	0.000181064	0	0	0	
0.242667	0.0853508	0.0170341	0.00114528	0.000249114	0	0	0	
0.242833	-0.00647171	-0.00954628	0.00145184	0.000310605	0	0	0	
0.243	-0.0277299	0.00874338	0.00138859	0.000372962	0	0	0	
0.243167	0.00785433	-0.0054217	0.000735825	0.000334481	0	0	0	
0.243333	0.0090982	0.00376094	0.000347452	0.000263819	0	0	0	
0.2435	0.000891141	-0.000153677	0.000237224	0.000271836	0	0	0	
0.243667	-0.00403114	-0.0132921	0.000270486	0.000316065	0	0	0	
0.243833	0.00615547	0.0228853	0.000324384	0.000353562	0	0	0	
0.244	0.00375605	-0.0131496	0.000270979	0.000356534	0	0	0	
0.244167	-0.00683424	0.0028194	0.000164143	0.000349974	0	0	0	
0.244333	0.00263502	0.000116804	0.000118837	0.000284848	0	0	0	
0.2445	0.00423566	0.00906343	0.000116861	0.00018285	0	0	0	
0.244667	-0.00180239	-0.011795	0.000113962	0.000159002	0	0	0	
0.244833	-0.0148878	-0.00610033	0.000156856	0.000265207	0	0	0	
0.245	0.0216416	0.0123824	0.000235098	0.000313839	0	0	0	
0.245167	-0.0164397	-0.00385264	0.00032602	0.00029959	0	0	0	
0.245333	0.00292777	-0.00748222	0.000345804	0.000238785	0	0	0	
0.2455	0.00326393	0.000375823	0.000307403	0.00022063	0	0	0	
0.245667	-0.00420329	0.0204351	0.00022348	0.000260605	0	0	0	
0.245833	-0.00263676	-0.0201459	0.000160153	0.000292645	0	0	0	
0.246	0.00380876	-0.00300661	0.000120489	0.000402234	0	0	0	
0.246167	-0.00716928	0.0172377	0.000113389	0.000417136	0	0	0	
0.246333	0.00740035	-0.0103159	0.00012556	0.000389193	0	0	0	
0.2465	-0.00641002	0.00273509	0.000135734	0.000270547	0	0	0	
0.246667	0.00534866	-0.00193295	0.000141125	0.000158065	0	0	0	
0.246833	-0.00719971	-0.00186525	0.000138575	0.000138287	0	0	0	
0.247	0.0107052	0.0120398	0.000165986	0.000204942	0	0	0	
0.247167	-0.0110191	-0.0108616	0.00019987	0.000255608	0	0	0	
0.247333	0.00821985	0.00226914	0.000230629	0.000298416	0	0	0	
0.2475	-0.00342735	0.00823274	0.00021452	0.000309169	0	0	0	
0.247667	0.00318766	-0.00814017	0.000158942	0.000277673	0	0	0	
0.247833	-0.00416064	0.00256779	0.000103171	0.000217179	0	0	0	
0.248	0.00782974	-0.000174518	0.000103765	0.000135012	0	0	0	
0.248167	-0.00616165	-0.00396355	0.000140336	0.000115528	0	0	0	
0.248333	0.0073784	0.00707354	0.000168716	0.000117963	0	0	0	
0.2485	-0.00916304	-0.0106277	0.000180214	0.000137214	0	0	0	
0.248667	0.00564678	0.00346732	0.000164198	0.00014784	0	0	0	
0.248833	-0.00484415	0.00386466	0.0001466	0.000138161	0	0	0	
0.249	0.00558802	-0.00133875	0.000124035	0.000100564	0	0	0	
0.249167	-0.00840851	-0.00424712	0.000145817	0.00014726	0	0	0	
0.249333	0.00812814	0.0108574	0.000180375	0.000182985	0	0	0	
0.2495	-0.00770798	-0.0105595	0.000211672	0.000225272	0	0	0	
0.249667	0.00532028	0.00269966	0.000198705	0.000209135	0	0	0	
0.249833	-0.00435265	0.00462514	0.00015871	0.000192161	0	0	0	
0.25	0.00611251	-0.00372663	0.00012022	0.000153195	0	0	0	
0.250167	-0.00976096	-0.000165596	0.000121075	0.000117839	0	0	0	
0.250333	0.0111573	0.00185971	0.000169885	8.71078E-05	0	0	0	
0.2505	-0.00794136	-0.00242551	0.000209345	7.46617E-05	0	0	0	
0.250667	0.0071708	0.00207816	0.000231297	5.52038E-05	0	0	0	
0.250833	-0.00360756	-0.000286038	0.000207979	3.3657E-05	0	0	0	
0.251	0.00167305	-0.000535264	0.000161997	2.43681E-05	0	0	0	
0.251167	-0.00483567	-0.0031488	0.000107189	3.2135E-05	0	0	0	
0.251333	0.00973263	0.00790242	9.68123E-05	5.78239E-05	0	0	0	
0.2515	-0.00749249	-0.0029383	0.000124314	0.000104255	0	0	0	
0.251667	0.0113492	-0.00737749	0.000178971	0.000156775	0	0	0	
0.251833	-0.0125354	0.00892827	0.000225312	0.000172719	0	0	0	
0.252	0.00633928	0.00130005	0.000233644	0.000181402	0	0	0	
0.252167	-0.00310191	-0.00138148	0.000200814	0.000115396	0	0	0	
0.252333	0.0041998	-0.0115032	0.000140359	0.000121848	0	0	0	
0.2525	-0.00830446	0.00462521	0.000125878	0.000120244	0	0	0	
0.252667	0.010792	0.00417293	0.000144669	0.000148722	0	0	0	
0.252833	-0.0129909	0.000481399	0.00019498	0.000113585	0	0	0	
0.253	0.00882787	-0.00575816	0.000225973	0.000134853	0	0	0	
0.253167	-0.00301308	0.00558867	0.00020163	0.000133346	0	0	0	
0.253333	0.00212414	0.00158063	0.000138121	0.00014916	0	0	0	
0.2535	-0.00833895	-0.011311	0.000113676	0.000108559	0	0	0	
0.253667	0.0199897	0.00467528	0.000173002	0.000160036	0	0	0	
0.253833	-0.0124592	0.00838618	0.000232705	0.000223646	0	0	0	
0.254	0.010475	-0.0114526	0.00026009	0.000257761	0	0	0	
0.254167	-0.00562463	0.00413528	0.000215875	0.000219255	0	0	0	
0.254333	0.00234472	0.000540481	0.000172375	0.0001481	0	0	0	
0.2545	0.00205622	0.00285702	0.000115168	8.64017E-05	0	0	0	
0.254667	0.00163179	-0.00457132	7.45064E-05	6.79279E-05	0	0	0	
0.254833	0.000448377	-0.00252323	7.73185E-05	0.000100665	0	0	0	
0.255	0.0115404	0.00712779	8.88998E-05	0.000116179	0	0	0	
0.255167	-0.0165501	-0.000881518	0.000168151	0.000140864	0	0	0	
0.255333	0.00754469	-0.00440683	0.000200613	0.000133136	0	0	0	
0.2555	-0.00522064	0.00295331	0.000205406	0.000130117	0	0	0	
0.255667	0.0129622	-9.49442E-05	0.000174619	9.41044E-05	0	0	0	
0.255833	-0.0179172	-0.00095939	0.000195598	4.73006E-05	0	0	0	
0.256	0.0135627	-0.000836351	0.000256732	3.34912E-05	0	0	0	
0.256167	-0.00910426	0.00117467	0.000285156	2.16962E-05	0	0	0	
0.256333	0.00487011	0.000180122	0.000251391	2.219E-05	0	0	0	
0.2565	-0.00321378	-0.00175271	0.00017223	2.04395E-05	0	0	0	
0.256667	0.00536484	-0.000603048	0.000113775	3.13146E-05	0	0	0	
0.256833	-0.00902287	0.00394304	0.000110924	4.95726E-05	0	0	0	
0.257	0.0195909	-0.00250494	0.000179768	6.27118E-05	0	0	0	
0.257167	-0.0150396	-0.00264303	0.000240878	8.41885E-05	0	0	0	
0.257333	0.0125496	0.00562941	0.00028133	8.22788E-05	0	0	0	
0.2575	-0.0062303	-0.00178186	0.000267599	9.89279E-05	0	0	0	
0.257667	0.00310239	-0.00197595	0.00021557	8.64358E-05	0	0	0	
0.257833	-0.00388387	0.00189339	0.0001448	7.28968E-05	0	0	0	
0.258	0.00903338	3.55459E-05	0.00010764	5.34508E-05	0	0	0	
0.258167	-0.0085724	-0.000408526	0.000125925	3.75064E-05	0	0	0	
0.258333	0.0107237	-0.00199636	0.000169095	3.72659E-05	0	0	0	
0.2585	-0.00877336	0.00469408	0.000199241	4.25922E-05	0	0	0	
0.258667	0.00486033	-0.00168447	0.000184966	5.05539E-05	0	0	0	
0.258833	-0.00407882	0.000566878	0.000147366	4.7899E-05	0	0	0	
0.259	0.00481329	-0.00306113	0.00010775	3.78563E-05	0	0	0	
0.259167	-0.00932989	0.00352165	0.000124211	3.75264E-05	0	0	0	
0.259333	0.0124931	-0.000413185	0.000171712	6.13881E-05	0	0	0	
0.2595	-0.0124417	-0.00363365	0.000227713	6.45284E-05	0	0	0	
0.259667	0.00754161	0.00162255	0.000242058	7.20282E-05	0	0	0	
0.259833	-0.00322516	0.000989694	0.000203077	6.51722E-05	0	0	0	
0.26	0.00385893	-0.000299716	0.000139637	5.55095E-05	0	0	0	
0.260167	-0.0104502	-0.00113854	0.000108884	3.68524E-05	0	0	0	
0.260333	0.0148902	-0.00316998	0.000159562	3.70957E-05	0	0	0	
0.2605	-0.0123638	0.00605966	0.000214218	6.77778E-05	0	0	0	
0.260667	0.00922947	-0.00626079	0.00025132	9.50197E-05	0	0	0	
0.260833	-0.00338571	0.0022838	0.000204607	0.00011281	0	0	0	
0.261	0.00270923	0.00216291	0.000144941	0.00010707	0	0	0	
0.261167	-0.00433785	-0.00138223	8.70681E-05	8.24794E-05	0	0	0	
0.261333	0.0100103	-0.000978869	8.80969E-05	5.42012E-05	0	0	0	
0.2615	-0.0095388	0.00159283	0.000132726	3.48147E-05	0	0	0	
0.261667	0.0120088	-0.00158128	0.000188054	3.70347E-05	0	0	0	
0.261833	-0.00771275	0.00116531	0.000222205	3.19983E-05	0	0	0	
0.262	0.00351089	-0.000487223	0.000200414	2.62442E-05	0	0	0	
0.262167	-0.00378961	-0.000214461	0.00014696	2.1837E-05	0	0	0	
0.262333	0.00566745	0.00292444	9.56862E-05	2.88457E-05	0	0	0	
0.2625	-0.00880019	-0.00202879	0.000108149	3.98782E-05	0	0	0	
0.262667	0.0126862	9.6654E-05	0.000154646	4.38477E-05	0	0	0	
0.262833	-0.0122291	-8.78054E-05	0.000219496	3.58724E-05	0	0	0	
0.263	0.00752028	0.000571133	0.000238247	2.46859E-05	0	0	0	
0.263167	-0.00433439	0.000631016	0.000207954	1.58934E-05	0	0	0	
0.263333	0.00478786	-0.00172885	0.000144842	1.51277E-05	0	0	0	
0.2635	-0.009473	0.0023209	0.000115973	3.89024E-05	0	0	0	
0.263667	0.0125909	0.00168744	0.00014951	8.59916E-05	0	0	0	
0.263833	-0.0164781	-0.00637736	0.000226478	0.000116469	0	0	0	
0.264	0.0134545	0.0050831	0.000278085	0.00011954	0	0	0	
0.264167	-0.00619274	-0.00212801	0.000270142	9.85607E-05	0	0	0	
0.264333	0.00158696	-0.000118263	0.000197414	7.51974E-05	0	0	0	
0.2645	-0.00174812	0.00218806	0.000113924	5.40462E-05	0	0	0	
0.264667	0.00904447	-0.00629161	7.90464E-05	6.70394E-05	0	0	0	
0.264833	-0.00983188	0.00661042	0.000119827	9.27869E-05	0	0	0	
0.265	0.0130621	-0.0055637	0.000180174	0.000116972	0	0	0	
0.265167	-0.00997252	0.00322004	0.000225968	0.000119116	0	0	0	
0.265333	0.00481208	-0.000449136	0.000198781	0.000114059	0	0	0	
0.2655	-0.00278818	-0.00229748	0.000154442	0.000106188	0	0	0	
0.265667	0.00320957	0.00333587	0.000103481	7.38498E-05	0	0	0	
0.265833	-0.00581827	-0.00477419	0.000102732	8.84275E-05	0	0	0	
0.266	0.010253	-0.000617058	0.000110848	0.000131716	0	0	0	
0.266167	-0.0146375	0.00551708	0.000165122	0.000187219	0	0	0	
0.266333	0.00975983	-0.00472758	0.00020755	0.000191436	0	0	0	
0.2665	-0.00420152	0.00278764	0.000210672	0.000142757	0	0	0	
0.266667	0.00328665	-0.00073115	0.000153855	9.00657E-05	0	0	0	
0.266833	-0.00775053	9.72337E-05	0.000113894	4.37175E-05	0	0	0	
0.267	0.0133843	-0.000354432	0.000141225	3.30203E-05	0	0	0	
0.267167	-0.0107526	-0.00408354	0.000188168	3.82801E-05	0	0	0	
0.267333	0.00871757	0.00469597	0.000209412	5.67631E-05	0	0	0	
0.2675	-0.00388752	-0.00241894	0.000179111	7.40836E-05	0	0	0	
0.267667	0.00256772	-0.000460152	0.000127001	7.12745E-05	0	0	0	
0.267833	0.00197204	0.000474537	6.82812E-05	5.60371E-05	0	0	0	
0.268	0.00324366	-0.000496609	5.46171E-05	4.19211E-05	0	0	0	
0.268167	-0.00664469	0.00213816	8.39417E-05	3.13586E-05	0	0	0	
0.268333	0.0133134	0.000505588	0.000136844	3.79708E-05	0	0	0	
0.2685	-0.00919759	-0.00364077	0.000191912	4.74836E-05	0	0	0	
0.268667	0.00425056	0.00298382	0.000182552	5.88435E-05	0	0	0	
0.268833	-0.00410369	-0.000671892	0.00014575	5.81848E-05	0	0	0	
0.269	0.00597638	-0.00205751	9.11958E-05	5.70662E-05	0	0	0	
0.269167	-0.00931841	0.00312631	0.000109564	5.48129E-05	0	0	0	
0.269333	0.0117567	-0.00176814	0.000156461	5.70253E-05	0	0	0	
0.2695	-0.011829	-0.000151066	0.000210112	3.99215E-05	0	0	0	
0.269667	0.00735457	-0.00155551	0.000218558	4.15929E-05	0	0	0	
0.269833	-0.00485457	0.00239956	0.000183947	3.35933E-05	0	0	0	
0.27	0.00543835	0.00234355	0.000139011	5.85451E-05	0	0	0	
0.270167	-0.0106396	-0.00816618	0.00012308	7.29431E-05	0	0	0	
0.270333	0.0128947	0.00417933	0.000157513	0.000112434	0	0	0	
0.2705	-0.0121254	0.00459694	0.000192679	0.00016215	0	0	0	
0.270667	0.0127118	-0.00693904	0.000224036	0.000167258	0	0	0	
0.270833	-0.00775988	0.00224238	0.000215044	0.000157478	0	0	0	
0.271	0.00652232	0.000864995	0.000189616	0.000101907	0	0	0	
0.271167	-0.0108529	0.0010775	0.000158323	6.87352E-05	0	0	0	
0.271333	0.0147238	-0.00123642	0.000182455	4.51021E-05	0	0	0	
0.2715	-0.0149792	-0.000971523	0.000228799	4.03187E-05	0	0	0	
0.271667	0.0130325	-0.000263678	0.000269786	5.96469E-05	0	0	0	
0.271833	-0.00837918	0.00710602	0.000252878	8.94721E-05	0	0	0	
0.272	0.00348917	-0.00478811	0.000200033	0.000105465	0	0	0	
0.272167	-0.00429257	0.000686046	0.000134265	0.000103693	0	0	0	
0.272333	0.00948479	-0.000699302	0.00010586	6.26419E-05	0	0	0	
0.2725	-0.0140673	0.0014794	0.000147495	5.9223E-05	0	0	0	
0.272667	0.0158778	-0.00186916	0.000221672	6.51411E-05	0	0	0	
0.272833	-0.0156935	0.00161189	0.000278537	6.56167E-05	0	0	0	
0.273	0.00941391	0.00057621	0.000282178	4.65947E-05	0	0	0	
0.273167	-0.00437681	-0.00137021	0.000222983	2.71599E-05	0	0	0	
0.273333	0.00448173	-0.00027283	0.000152044	3.61171E-05	0	0	0	
0.2735	-0.0100056	0.00217971	0.00011435	5.43759E-05	0	0	0	
0.273667	0.0123876	-0.00234824	0.000149273	5.73685E-05	0	0	0	
0.273833	-0.0124732	0.000318004	0.00019778	6.78116E-05	0	0	0	
0.274	0.0100978	0.0018555	0.000229984	5.37158E-05	0	0	0	
0.274167	-0.00533053	-0.000390747	0.000202355	5.22965E-05	0	0	0	
0.274333	0.00446048	-0.000711232	0.000153321	3.26236E-05	0	0	0	
0.2745	-0.00502952	-0.000595101	0.00010753	1.98587E-05	0	0	0	
0.274667	0.0113421	0.00203559	0.000112562	2.05507E-05	0	0	0	
0.274833	-0.0147584	-0.000746344	0.000176456	2.90137E-05	0	0	0	
0.275	0.0159764	-0.00240311	0.000243106	4.91962E-05	0	0	0	
0.275167	-0.010397	0.00428909	0.000275757	6.15649E-05	0	0	0	
0.275333	0.00420641	-0.00149127	0.000226637	6.37091E-05	0	0	0	
0.2755	-0.00384445	0.000477197	0.000154515	4.64969E-05	0	0	0	
0.275667	0.0078097	-0.00372488	0.000102921	3.93374E-05	0	0	0	
0.275833	-0.0106416	0.00228415	0.000123279	4.00945E-05	0	0	0	
0.276	0.010691	-0.000297667	0.000172373	5.5838E-05	0	0	0	
0.276167	-0.0117168	-0.00147794	0.000209081	5.52918E-05	0	0	0	
0.276333	0.00818634	0.00049689	0.000210466	4.5553E-05	0	0	0	
0.2765	-0.00493662	0.000285022	0.000175777	3.15978E-05	0	0	0	
0.276667	0.00475016	0.000256152	0.000134897	1.96182E-05	0	0	0	
0.276833	-0.00960416	-4.19071E-05	0.000115344	2.61661E-05	0	0	0	
0.277	0.0120229	-0.00240227	0.000154977	4.53789E-05	0	0	0	
0.277167	-0.0143735	0.00421566	0.000213825	6.59283E-05	0	0	0	
0.277333	0.0111862	-0.00316354	0.000249155	7.56397E-05	0	0	0	
0.2775	-0.00500085	0.000141435	0.000219613	7.57407E-05	0	0	0	
0.277667	0.00404824	0.00256086	0.000158936	7.18204E-05	0	0	0	
0.277833	-0.00860966	-0.000800781	0.000117443	5.79486E-05	0	0	0	
0.278	0.0129253	-0.00452497	0.000139984	6.5971E-05	0	0	0	
0.278167	-0.00998539	0.00799717	0.000187373	7.84064E-05	0	0	0	
0.278333	0.0114952	-0.00108611	0.000218076	0.000148197	0	0	0	
0.2785	-0.0109806	-0.00993144	0.00021991	0.000219084	0	0	0	
0.278667	0.00556936	0.00767532	0.000194123	0.000242588	0	0	0	
0.278833	-0.0046445	-0.000428973	0.000155459	0.000198868	0	0	0	
0.279	0.00985894	4.1681E-05	0.000124206	9.83169E-05	0	0	0	
0.279167	-0.01356	-0.00152518	0.000152666	5.76282E-05	0	0	0	
0.279333	0.0130274	-0.00298198	0.000198295	3.30163E-05	0	0	0	
0.2795	-0.011642	0.0116451	0.000240043	8.73975E-05	0	0	0	
0.279667	0.00674685	-0.00598886	0.000245768	0.000154055	0	0	0	
0.279833	-0.00497146	-0.00345681	0.000213295	0.00021317	0	0	0	
0.28	0.00492352	0.000942214	0.000166347	0.000162664	0	0	0	
0.280167	-0.00922458	0.00390192	0.000145921	0.000112344	0	0	0	
0.280333	0.0136528	-0.00298299	0.000196581	7.42513E-05	0	0	0	
0.2805	-0.0127421	-0.003249	0.000254365	0.000131332	0	0	0	
0.280667	0.0144998	0.0067416	0.00028326	0.00012933	0	0	0	
0.280833	-0.0094516	-0.00177247	0.000260045	0.000139769	0	0	0	
0.281	0.00257778	-0.000715047	0.000205592	9.7085E-05	0	0	0	
0.281167	-0.00264617	-0.00423375	0.000132331	7.66352E-05	0	0	0	
0.281333	0.00705517	0.00719327	0.000111378	8.32497E-05	0	0	0	
0.2815	-0.00415395	-0.000253903	0.000135909	0.0001066	0	0	0	
0.281667	0.0115948	-0.00537588	0.000178621	0.000131364	0	0	0	
0.281833	-0.0137869	0.00473148	0.000216516	0.000116422	0	0	0	
0.282	0.0088857	0.00052848	0.000221393	0.000101676	0	0	0	
0.282167	-0.00455546	-0.00133322	0.000197866	7.84654E-05	0	0	0	
0.282333	0.00350017	0.00120224	0.000132742	5.38928E-05	0	0	0	
0.2825	-0.0057793	6.18818E-05	0.000107787	4.01572E-05	0	0	0	
0.282667	0.0141684	0.00474331	0.000132857	7.13271E-05	0	0	0	
0.282833	-0.0117463	-0.0134286	0.00019842	0.000140962	0	0	0	
0.283	0.00636209	0.00864198	0.000212438	0.000201276	0	0	0	
0.283167	-0.00598788	-0.0026067	0.000185406	0.000190588	0	0	0	
0.283333	0.00636786	-0.00211657	0.000131906	0.00014552	0	0	0	
0.2835	-0.0129818	0.00701465	0.000145752	0.000101862	0	0	0	
0.283667	0.00833362	-0.0068386	0.000180243	0.000112171	0	0	0	
0.283833	-0.0119478	-0.00343374	0.000231897	0.000128361	0	0	0	
0.284	0.00861752	0.00507781	0.000221914	0.000199042	0	0	0	
0.284167	-0.00428292	-0.00605421	0.000185933	0.000235016	0	0	0	
0.284333	0.0044383	0.00152473	0.000130781	0.000208442	0	0	0	
0.2845	-0.008976	0.00927636	0.000111044	0.000161163	0	0	0	
0.284667	0.0112417	-0.013131	0.000161998	0.000163278	0	0	0	
0.284833	-0.0119452	0.00122988	0.00020674	0.0002118	0	0	0	
0.285	0.0109463	0.00732629	0.000244124	0.00022031	0	0	0	
0.285167	-0.0082213	-0.00579405	0.000225136	0.000184654	0	0	0	
0.285333	0.00472443	0.00195641	0.000186834	0.000135403	0	0	0	
0.2855	-0.00245777	0.00175724	0.000128626	8.86364E-05	0	0	0	
0.285667	0.004261	-0.00628402	8.99189E-05	7.2997E-05	0	0	0	
0.285833	-0.00935238	0.00172279	0.000112381	8.41091E-05	0	0	0	
0.286	0.0121261	0.0013333	0.000161908	7.38257E-05	0	0	0	
0.286167	-0.0113164	0.00085	0.000210463	5.30689E-05	0	0	0	
0.286333	0.00608426	-0.00153436	0.000207591	3.25141E-05	0	0	0	
0.2865	-0.00454781	0.0014128	0.000167607	3.06124E-05	0	0	0	
0.286667	0.00519875	-0.000533811	0.000123818	3.21638E-05	0	0	0	
0.286833	-0.0115005	-0.00219746	0.000117118	3.17795E-05	0	0	0	
0.287	0.0110225	0.00266819	0.000164344	4.544E-05	0	0	0	
0.287167	-0.012512	-0.0010095	0.000216773	4.82431E-05	0	0	0	
0.287333	0.00902179	0.000170464	0.000238497	5.10529E-05	0	0	0	
0.2875	-0.00458258	0.00110749	0.000201043	4.33755E-05	0	0	0	
0.287667	0.00419263	-0.000668684	0.000145755	3.63102E-05	0	0	0	
0.287833	-0.00713044	-0.000246734	0.000109985	2.9546E-05	0	0	0	
0.288	0.0102201	-0.000857019	0.000144227	1.91754E-05	0	0	0	
0.288167	-0.0115326	0.00153677	0.000199604	3.41089E-05	0	0	0	
0.288333	0.0120636	-0.00152426	0.000247833	2.8633E-05	0	0	0	
0.2885	-0.0111378	-0.00121057	0.000252123	4.48813E-05	0	0	0	
0.288667	0.00635591	0.00210287	0.000220124	4.29684E-05	0	0	0	
0.288833	-0.0037459	-0.000477129	0.000166234	4.61927E-05	0	0	0	
0.289	0.00646208	-0.00131854	0.000122245	3.548E-05	0	0	0	
0.289167	-0.00773541	0.00149709	0.000127007	2.67267E-05	0	0	0	
0.289333	0.0101029	-6.56789E-05	0.00015767	3.20352E-05	0	0	0	
0.2895	-0.0111055	-0.00222462	0.000198745	3.10453E-05	0	0	0	
0.289667	0.00668853	0.00155444	0.000215599	3.44864E-05	0	0	0	
0.289833	-0.00447997	-2.57255E-06	0.000193393	2.96029E-05	0	0	0	
0.29	0.00452114	-0.000149082	0.000148837	2.31746E-05	0	0	0	
0.290167	-0.00946582	0.000565524	0.000124264	1.43144E-05	0	0	0	
0.290333	0.0122367	-0.00134637	0.000160345	1.40842E-05	0	0	0	
0.2905	-0.0116392	-0.000650163	0.000213232	1.60009E-05	0	0	0	
0.290667	0.00822041	0.000384413	0.000236805	2.18887E-05	0	0	0	
0.290833	-0.00353649	-0.000639104	0.000204985	1.87207E-05	0	0	0	
0.291	0.00278406	0.000416118	0.000146493	1.74949E-05	0	0	0	
0.291167	-0.0044512	0.00102655	0.000105227	1.71426E-05	0	0	0	
0.291333	0.00961818	-0.00150784	0.000125756	1.92938E-05	0	0	0	
0.2915	-0.0110332	-0.000164176	0.00019285	2.51968E-05	0	0	0	
0.291667	0.0129544	0.00015889	0.000245319	2.45577E-05	0	0	0	
0.291833	-0.00879903	0.00025123	0.000253971	2.57224E-05	0	0	0	
0.292	0.00423884	0.000275733	0.00019635	2.50926E-05	0	0	0	
0.292167	0.00059973	0.00139119	0.000125607	3.63227E-05	0	0	0	
0.292333	-0.0012312	-0.00776786	5.7883E-05	6.92025E-05	0	0	0	
0.2925	-0.0394686	0.0047992	0.000226448	9.899E-05	0	0	0	
0.292667	-0.0704918	-0.0195029	0.000948832	0.00031531	0	0	0	
0.292833	-0.0118067	-0.00472374	0.00135054	0.000627545	0	0	0	
0.293	0.0438729	0.00608802	0.00136501	0.000849259	0	0	0	
0.293167	-0.0237997	0.00464234	0.000847256	0.000678502	0	0	0	
0.293333	0.011927	-0.0114654	0.000548917	0.000383917	0	0	0	
0.2935	-0.0267176	0.00754908	0.000463221	0.0003747	0	0	0	
0.293667	0.0292415	0.013792	0.000440996	0.000588317	0	0	0	
0.293833	-0.0247353	-0.0176564	0.000505556	0.000656135	0	0	0	
0.294	0.00992844	0.012181	0.000476659	0.000488845	0	0	0	
0.294167	-0.00146889	-0.00913828	0.000321024	0.000281559	0	0	0	
0.294333	0.005051	0.00580412	0.000232654	0.00022843	0	0	0	
0.2945	-0.0124758	-0.000465175	0.000255793	0.000226438	0	0	0	
0.294667	0.0128646	-0.00866042	0.000318491	0.000248666	0	0	0	
0.294833	-0.0102703	0.0142214	0.000314162	0.000248658	0	0	0	
0.295	0.00991083	-0.00560128	0.000267644	0.000245507	0	0	0	
0.295167	-0.010304	-0.00656208	0.000239908	0.000255177	0	0	0	
0.295333	0.00789382	0.00979789	0.000230791	0.000239324	0	0	0	
0.2955	-0.00863184	-0.00664811	0.000231275	0.000209948	0	0	0	
0.295667	0.0105041	0.00398299	0.000251573	0.000151157	0	0	0	
0.295833	-0.0110751	0.000917576	0.000267435	0.000150594	0	0	0	
0.296	0.00956434	-0.00819873	0.000266847	0.000162833	0	0	0	
0.296167	-0.00979442	0.00929765	0.000254168	0.000166651	0	0	0	
0.296333	0.0107965	-0.000135284	0.000257349	0.000183504	0	0	0	
0.2965	-0.0104032	-0.00799404	0.00025989	0.000191623	0	0	0	
0.296667	0.00721954	0.00718819	0.000249104	0.00018704	0	0	0	
0.296833	-0.00492839	-0.000310086	0.000228144	0.000156255	0	0	0	
0.297	0.00453109	-0.00483167	0.00024466	0.000130751	0	0	0	
0.297167	-0.0095921	0.00555804	0.000289294	0.000128908	0	0	0	
0.297333	0.0133947	-0.00634467	0.000320321	0.000124317	0	0	0	
0.2975	-0.0110674	0.00756525	0.000302918	0.000119133	0	0	0	
0.297667	0.00702929	-0.00233702	0.000249515	0.000145298	0	0	0	
0.297833	-0.0037521	-0.0111112	0.000205824	0.000230557	0	0	0	
0.298	0.00211574	0.0179358	0.000187204	0.000281993	0	0	0	
0.298167	-0.00301601	-0.00607082	0.000187911	0.000340374	0	0	0	
0.298333	0.00747447	-0.0150677	0.000206095	0.000401869	0	0	0	
0.2985	-0.0124706	0.0191603	0.000242703	0.000416229	0	0	0	
0.298667	0.0136128	-0.00442065	0.00028474	0.00039981	0	0	0	
0.298833	-0.0111404	-0.0064529	0.000301867	0.000317866	0	0	0	
0.299	0.00890973	0.00434557	0.000278689	0.000249375	0	0	0	
0.299167	-0.00801405	-0.00134412	0.000247029	0.000155117	0	0	0	
0.299333	0.00783422	0.00354645	0.000235672	6.57747E-05	0	0	0	
0.2995	-0.00888312	-0.0021578	0.000247543	5.87925E-05	0	0	0	
0.299667	0.00934522	-0.00590834	0.000262534	0.000107494	0	0	0	
0.299833	-0.00882607	0.00845451	0.000261841	0.000134732	0	0	0	
0.3	0.00848937	0.000392908	0.000255558	0.000173138	0	0	0	
0.300167	-0.0107037	-0.00866286	0.000259637	0.000171387	0	0	0	
0.300333	0.0112113	0.00478569	0.0002725	0.000170576	0	0	0	
0.3005	-0.00913385	0.00144938	0.000269418	0.000140715	0	0	0	
0.300667	0.0075266	-0.000173195	0.000247044	8.41316E-05	0	0	0	
0.300833	-0.00811431	-0.00146076	0.000233813	4.75771E-05	0	0	0	
0.301	0.0094968	-0.00208079	0.000245665	3.57632E-05	0	0	0	
0.301167	-0.0102004	0.00522534	0.000267026	5.5112E-05	0	0	0	
0.301333	0.00862932	-0.00193114	0.000273026	8.57628E-05	0	0	0	
0.3015	-0.00805783	-0.00458252	0.000260037	0.000118485	0	0	0	
0.301667	0.00882722	0.0078806	0.000248452	0.000130913	0	0	0	
0.301833	-0.00933879	-0.00222228	0.000247073	0.00014511	0	0	0	
0.302	0.00891084	-0.00629828	0.000249667	0.000147785	0	0	0	
0.302167	-0.00712856	0.00661762	0.000249566	0.000145819	0	0	0	
0.302333	0.0065708	0.000560237	0.000246331	0.00015386	0	0	0	
0.3025	-0.00804001	-0.00482177	0.000245322	0.000131726	0	0	0	
0.302667	0.00867928	0.00292012	0.00024449	0.000118494	0	0	0	
0.302833	-0.00814716	0.000495142	0.000245131	8.92196E-05	0	0	0	
0.303	0.0080225	-0.00152171	0.000249822	6.22813E-05	0	0	0	
0.303167	-0.00940889	0.00114089	0.000260225	4.8797E-05	0	0	0	
0.303333	0.0087512	-0.000502356	0.000270276	2.85118E-05	0	0	0	
0.3035	-0.00809559	0.00100705	0.000269827	2.11369E-05	0	0	0	
0.303667	0.00786464	-0.00124274	0.000256523	2.01262E-05	0	0	0	
0.303833	-0.00714647	0.000257575	0.000239272	2.31213E-05	0	0	0	
0.304	0.00647441	0.00231565	0.000232658	3.3503E-05	0	0	0	
0.304167	-0.00783042	-0.00222907	0.000242922	3.8129E-05	0	0	0	
0.304333	0.00814266	0.000382162	0.000262162	4.74934E-05	0	0	0	
0.3045	-0.007417	0.00169641	0.000269744	4.76011E-05	0	0	0	
0.304667	0.00672911	-0.00116775	0.000260397	4.38889E-05	0	0	0	
0.304833	-0.00833048	-0.000275916	0.000247996	3.84459E-05	0	0	0	
0.305	0.0086071	0.000624756	0.000253616	2.95132E-05	0	0	0	
0.305167	-0.00848345	-0.000655248	0.000266478	2.40649E-05	0	0	0	
0.305333	0.006603	0.000321617	0.00027148	1.81665E-05	0	0	0	
0.3055	-0.00637581	0.00218939	0.000256887	2.62374E-05	0	0	0	
0.305667	0.00667086	-0.00183026	0.000244937	3.68155E-05	0	0	0	
0.305833	-0.00797909	-0.0040863	0.000249357	6.61483E-05	0	0	0	
0.306	0.0091602	0.00333446	0.000270266	7.13269E-05	0	0	0	
0.306167	-0.00794249	0.00784351	0.000278684	0.000135867	0	0	0	
0.306333	0.00612735	-0.0126035	0.000264451	0.000158998	0	0	0	
0.3065	-0.0062666	0.000831609	0.000239204	0.000230023	0	0	0	
0.306667	0.00609075	0.0115315	0.000219007	0.000252159	0	0	0	
0.306833	-0.00484234	-0.00954712	0.000212822	0.000250193	0	0	0	
0.307	0.00629516	0.000804059	0.000231266	0.000228172	0	0	0	
0.307167	-0.00893258	0.00315528	0.000268328	0.000179304	0	0	0	
0.307333	0.00799375	-0.00544352	0.000291584	0.000165141	0	0	0	
0.3075	-0.00665878	0.00950589	0.000281347	0.000146635	0	0	0	
0.307667	0.00628095	-0.00659507	0.000253066	0.000146962	0	0	0	
0.307833	-0.00553986	-0.00395636	0.00023457	0.000187693	0	0	0	
0.308	0.00493012	0.00942183	0.000236848	0.000196213	0	0	0	
0.308167	-0.00636161	-0.00526579	0.00025516	0.000190135	0	0	0	
0.308333	0.00616858	-0.00251056	0.000270143	0.00016735	0	0	0	
0.3085	-0.00583603	0.00514153	0.000268695	0.000141878	0	0	0	
0.308667	0.00666148	0.000701521	0.000263556	0.000123629	0	0	0	
0.308833	-0.00650794	-0.00639541	0.000264667	9.05722E-05	0	0	0	
0.309	0.00468431	0.00190058	0.000261917	9.61385E-05	0	0	0	
0.309167	-0.00368514	0.00594425	0.000248127	0.000126313	0	0	0	
0.309333	0.00404053	-0.00365422	0.000240646	0.000123322	0	0	0	
0.3095	-0.00565582	-0.00449083	0.000252112	0.000139984	0	0	0	
0.309667	0.00656294	0.00523531	0.000273144	0.000109767	0	0	0	
0.309833	-0.00614213	0.000352816	0.000286536	0.000118271	0	0	0	
0.31	0.00476134	-0.00200139	0.000283566	7.31001E-05	0	0	0	
0.310167	-0.00353792	-0.000827121	0.000269973	6.28915E-05	0	0	0	
0.310333	0.00435745	0.00185405	0.00026171	3.99644E-05	0	0	0	
0.3105	-0.00501713	-0.000521343	0.000262757	3.68104E-05	0	0	0	
0.310667	0.00429978	-0.000253793	0.000262346	2.55103E-05	0	0	0	
0.310833	-0.0049708	-0.000462305	0.000262651	1.59906E-05	0	0	0	
0.311	0.00682997	-1.21755E-05	0.000271231	1.99615E-05	0	0	0	
0.311167	-0.00573904	0.00325577	0.00027076	4.01516E-05	0	0	0	
0.311333	0.00235608	-0.00516508	0.000241503	6.01935E-05	0	0	0	
0.3115	-0.00110884	-0.000273227	0.000208556	9.64875E-05	0	0	0	
0.311667	0.00282302	0.00763176	0.000213768	0.000122403	0	0	0	
0.311833	-0.00489592	-0.00552825	0.000250498	0.000139024	0	0	0	
0.312	0.00579934	-0.00361633	0.000279418	0.000166929	0	0	0	
0.312167	-0.00563272	0.00742052	0.000280241	0.000156304	0	0	0	
0.312333	0.00484511	-0.00154876	0.000264618	0.000157839	0	0	0	
0.3125	-0.00378777	-0.00364018	0.0002478	0.000121685	0	0	0	
0.312667	0.0034073	0.00193652	0.000239154	9.58191E-05	0	0	0	
0.312833	-0.00390507	0.00170788	0.000241551	7.75167E-05	0	0	0	
0.313	0.00389395	-0.000506783	0.00024979	4.46675E-05	0	0	0	
0.313167	-0.00375331	-0.00332802	0.000257644	4.79959E-05	0	0	0	
0.313333	0.00449236	0.00241526	0.000262062	4.28726E-05	0	0	0	
0.3135	-0.00454574	0.00163664	0.000260239	6.6799E-05	0	0	0	
0.313667	0.00288499	-0.00221751	0.000254026	6.02562E-05	0	0	0	
0.313833	-0.0030086	-0.000831507	0.000257762	6.17886E-05	0	0	0	
0.314	0.00532138	0.00174843	0.000275445	3.87085E-05	0	0	0	
0.314167	-0.00549901	0.000813272	0.000286517	4.32511E-05	0	0	0	
0.314333	0.00448983	-0.00193505	0.000272891	3.04565E-05	0	0	0	
0.3145	-0.00366656	-0.000942062	0.00025148	4.82941E-05	0	0	0	
0.314667	0.00276402	0.00268627	0.000247403	4.71331E-05	0	0	0	
0.314833	-0.00275323	-8.25847E-06	0.000262326	5.9043E-05	0	0	0	
0.315	0.00311684	-0.0029141	0.00027681	5.26942E-05	0	0	0	
0.315167	-0.00363598	0.00106417	0.000279549	5.23516E-05	0	0	0	
0.315333	0.00398859	0.00264033	0.00027706	5.99387E-05	0	0	0	
0.3155	-0.00478035	-0.00219818	0.000275042	5.41289E-05	0	0	0	
0.315667	0.00414258	-0.00223424	0.000270907	7.05908E-05	0	0	0	
0.315833	-0.00287775	0.00411388	0.00026014	6.57835E-05	0	0	0	
0.316	0.00176563	-0.00144045	0.000251243	7.85601E-05	0	0	0	
0.316167	-0.00164188	-0.00154832	0.000252803	7.22076E-05	0	0	0	
0.316333	0.00215303	0.00111986	0.000261079	5.81439E-05	0	0	0	
0.3165	-0.00281398	0.000889108	0.000268359	4.73354E-05	0	0	0	
0.316667	0.00344474	-0.000803172	0.000275166	2.57395E-05	0	0	0	
0.316833	-0.004014	-0.000950715	0.000279827	2.96104E-05	0	0	0	
0.317	0.00260154	0.000719967	0.000275209	2.0196E-05	0	0	0	
0.317167	-0.00155222	0.00137965	0.000258589	3.35557E-05	0	0	0	
0.317333	0.00172333	-0.0024575	0.000245464	3.73157E-05	0	0	0	
0.3175	-0.00195194	0.00169103	0.000244166	4.3906E-05	0	0	0	
0.317667	0.00157109	-0.000931779	0.000251031	3.68416E-05	0	0	0	
0.317833	-0.00171803	0.00023723	0.000258744	3.04301E-05	0	0	0	
0.318	0.00315476	0.00137419	0.000266077	2.70691E-05	0	0	0	
0.318167	-0.00258194	-0.00176863	0.000270987	2.67607E-05	0	0	0	
0.318333	0.00243096	0.00063622	0.000271111	2.83392E-05	0	0	0	
0.3185	-0.00270596	0.000744701	0.000272722	3.27505E-05	0	0	0	
0.318667	0.00243228	-0.00123009	0.000272381	3.43396E-05	0	0	0	
0.318833	-0.00101127	0.00196356	0.000264533	3.44891E-05	0	0	0	
0.319	0.00113635	-0.000154852	0.000256781	3.3847E-05	0	0	0	
0.319167	-0.00340683	-0.0027471	0.000267724	4.08508E-05	0	0	0	
0.319333	0.00436962	-0.000202891	0.000283921	5.43237E-05	0	0	0	
0.3195	-0.0028936	0.00758158	0.00027701	9.53992E-05	0	0	0	
