0	-0.00563674	0.24511	5.63674E-07	2.4511E-05	0	0	0	
0.000166667	0.00592645	-0.278784	3.67493E-05	0.00379892	0	0	0	
0.000333333	0.00399897	0.2258	0.000118893	0.0113058	0	0	0	
0.0005	-0.01116	-0.0602521	0.000165527	0.0199439	0	0	0	
0.000666667	0.00592445	-0.00748714	0.000234177	0.0245009	0	0	0	
0.000833333	-0.000231745	0.0184165	0.00022368	0.0247691	0	0	0	
0.001	0.0040189	0.0989619	0.000225117	0.0230281	0	0	0	
0.00116667	-0.00650044	-0.53548	0.000142909	0.0213996	0	0	0	
0.00133333	-6.70003E-05	1.03479	0.000137225	0.0221425	0	0	0	
0.0015	-0.00664683	-1.18067	0.000142482	0.0252844	0	0	0	
0.00166667	0.0274248	1.15007	0.000275492	0.0294504	0	0	0	
0.00183333	-0.018091	-1.11239	0.000367641	0.0317925	0	0	0	
0.002	-0.00628092	1.14517	0.000396539	0.0323932	0	0	0	
0.00216667	-0.00173628	-1.17507	0.000282244	0.0324054	0	0	0	
0.00233333	0.00213186	1.14484	0.00016782	0.0327385	0	0	0	
0.0025	0.0117778	-1.13661	0.000159765	0.033717	0	0	0	
0.00266667	0.00346334	1.09684	0.000194605	0.034442	0	0	0	
0.00283333	-0.00836781	-1.06883	0.000298412	0.0346435	0	0	0	
0.003	0.0222143	1.06342	0.000273153	0.0342177	0	0	0	
0.00316667	-0.0127996	-1.07204	0.000429486	0.0337868	0	0	0	
0.00333333	-0.0224598	1.05784	0.000616353	0.03355	0	0	0	
0.0035	0.0477981	-1.07929	0.000845928	0.0336137	0	0	0	
0.00366667	-0.00848554	1.06513	0.00077018	0.033608	0	0	0	
0.00383333	-0.00012907	-1.0597	0.000703017	0.0336734	0	0	0	
0.004	0.0138923	1.05023	0.000526554	0.0337752	0	0	0	
0.00416667	-0.00121998	-1.04463	0.00044092	0.0341066	0	0	0	
0.00433333	0.0444747	1.02517	0.000309258	0.0343519	0	0	0	
0.0045	-0.0291903	-1.0106	0.000475367	0.0343079	0	0	0	
0.00466667	-0.00912182	1.0113	0.000699331	0.0339921	0	0	0	
0.00483333	0.0308066	-1.03265	0.000807518	0.0337715	0	0	0	
0.005	-0.00630901	1.06079	0.000713046	0.0338237	0	0	0	
0.00516667	0.00105	-1.05693	0.000534034	0.0340601	0	0	0	
0.00533333	0.0218516	1.03082	0.000546179	0.0341102	0	0	0	
0.0055	0.0149255	-1.02922	0.000545993	0.0339204	0	0	0	
0.00566667	-0.0306204	1.04555	0.000606867	0.0337113	0	0	0	
0.00583333	-0.00478781	-1.04188	0.000574768	0.0337225	0	0	0	
0.006	0.0283987	1.01991	0.000578659	0.0338513	0	0	0	
0.00616667	-0.0193078	-1.00122	0.000528989	0.0339555	0	0	0	
0.00633333	0.0167431	0.968988	0.000460859	0.0338379	0	0	0	
0.0065	-0.00451815	-0.981213	0.000329592	0.0337839	0	0	0	
0.00666667	4.75955E-06	0.997322	0.000248775	0.033792	0	0	0	
0.00683333	0.0090699	-0.997535	0.00016845	0.033866	0	0	0	
0.007	-0.00659391	1.00469	0.000155695	0.0338305	0	0	0	
0.00716667	0.00419172	-1.01499	0.000156106	0.0338478	0	0	0	
0.00733333	-0.00657486	0.991769	0.000111391	0.0339541	0	0	0	
0.0075	0.0118424	-1.00039	0.000184694	0.0342154	0	0	0	
0.00766667	-0.0166373	0.999589	0.000303408	0.0343327	0	0	0	
0.00783333	0.0105261	-0.973625	0.000388975	0.0342345	0	0	0	
0.008	-0.00190346	0.977672	0.000347715	0.0339463	0	0	0	
0.00816667	0.00151708	-0.975927	0.000257498	0.033717	0	0	0	
0.00833333	0.00502103	0.966845	0.000230646	0.0336682	0	0	0	
0.0085	0.00869627	-0.988439	0.000345685	0.0337965	0	0	0	
0.00866667	-0.00126293	0.985956	0.000377638	0.0339325	0	0	0	
0.00883333	-0.00984253	-0.968438	0.000388139	0.0340608	0	0	0	
0.009	0.0148191	0.957637	0.000286353	0.0340663	0	0	0	
0.00916667	-0.00206422	-0.959369	0.000268871	0.034045	0	0	0	
0.00933333	-0.000387341	0.944299	0.000237194	0.0339355	0	0	0	
0.0095	3.3456E-05	-0.964533	0.000222381	0.033884	0	0	0	
0.00966667	0.0122752	0.971544	0.000162273	0.0338881	0	0	0	
0.00983333	0.0167846	-0.950441	0.000149392	0.0339885	0	0	0	
0.01	-0.012305	0.936674	0.000207547	0.0340012	0	0	0	
0.0101667	-0.00601106	-0.942141	0.000272096	0.0339152	0	0	0	
0.0103333	0.0102288	0.944123	0.000274408	0.0338366	0	0	0	
0.0105	0.00370104	-0.952385	0.000258047	0.033897	0	0	0	
0.0106667	-0.01244	0.941566	0.000253856	0.0339697	0	0	0	
0.0108333	0.0107475	-0.939541	0.000257725	0.0339579	0	0	0	
0.011	-0.00678511	0.924638	0.000212147	0.0337949	0	0	0	
0.0111667	-0.00211323	-0.919085	0.000195009	0.0336983	0	0	0	
0.0113333	0.0125247	0.937553	0.000258515	0.0337476	0	0	0	
0.0115	-0.0103624	-0.930338	0.000291454	0.0338367	0	0	0	
0.0116667	0.00627933	0.911885	0.000273017	0.0338749	0	0	0	
0.0118333	-0.0125111	-0.907171	0.000261831	0.0338597	0	0	0	
0.012	0.00772359	0.88944	0.00027527	0.033792	0	0	0	
0.0121667	0.0260959	-0.890244	0.000382526	0.033765	0	0	0	
0.0123333	-0.0547149	0.897715	0.000585564	0.0337931	0	0	0	
0.0125	0.0523661	-0.887627	0.000804595	0.0338218	0	0	0	
0.0126667	-0.00945735	0.884674	0.000964622	0.0338232	0	0	0	
0.0128333	-0.0242404	-0.896913	0.00102165	0.0338657	0	0	0	
0.013	0.025344	0.874305	0.000977287	0.0338582	0	0	0	
0.0131667	-0.0204991	-0.902586	0.000758922	0.0338695	0	0	0	
0.0133333	0.0216964	0.906783	0.000603943	0.0338403	0	0	0	
0.0135	0.00467773	-0.90143	0.000621322	0.0339877	0	0	0	
0.0136667	-0.0352658	0.894227	0.000743299	0.0342064	0	0	0	
0.0138333	0.0359221	-0.891715	0.00073767	0.0343515	0	0	0	
0.014	-0.0238479	0.848366	0.000633496	0.0342402	0	0	0	
0.0141667	0.00663357	-0.869518	0.000537033	0.0340819	0	0	0	
0.0143333	0.00693337	0.864064	0.000410346	0.033871	0	0	0	
0.0145	0.0046749	-0.871556	0.000309124	0.0338287	0	0	0	
0.0146667	-0.0079203	0.868135	0.000239196	0.0337466	0	0	0	
0.0148333	0.0119754	-0.862671	0.000252907	0.0337028	0	0	0	
0.015	-0.000511197	0.844398	0.000289911	0.033623	0	0	0	
0.0151667	-0.00366948	-0.872303	0.000313848	0.03371	0	0	0	
0.0153333	-0.0042273	0.872354	0.000265798	0.0339448	0	0	0	
0.0155	0.0202087	-0.841913	0.000229326	0.0342061	0	0	0	
0.0156667	-0.00596263	0.818876	0.000258467	0.0341214	0	0	0	
0.0158333	0.0152683	-0.818856	0.000275148	0.033825	0	0	0	
0.016	-0.0114338	0.811544	0.000289651	0.0335189	0	0	0	
0.0161667	0.00761216	-0.833791	0.000253399	0.0334866	0	0	0	
0.0163333	-0.00125129	0.84309	0.000221672	0.0335124	0	0	0	
0.0165	0.00057444	-0.826094	0.000141568	0.0335845	0	0	0	
0.0166667	0.00297243	0.804969	0.000126068	0.0336431	0	0	0	
0.0168333	-0.00425163	-0.80684	0.00016861	0.0337852	0	0	0	
0.017	0.00553533	0.80881	0.000207431	0.0338937	0	0	0	
0.0171667	-0.00839474	-0.808619	0.000209106	0.0339435	0	0	0	
0.0173333	-0.000258182	0.792624	0.00018421	0.0338842	0	0	0	
0.0175	0.00236593	-0.794722	0.000169463	0.0338853	0	0	0	
0.0176667	0.00220609	0.783795	0.000168578	0.033867	0	0	0	
0.0178333	-0.00572657	-0.771112	0.000130822	0.0338108	0	0	0	
0.018	0.00576256	0.780496	0.000129005	0.0336812	0	0	0	
0.0181667	0.00763374	-0.790943	9.51975E-05	0.0335903	0	0	0	
0.0183333	-0.01993	0.783208	0.000198497	0.0336607	0	0	0	
0.0185	0.0142294	-0.800597	0.000269426	0.0338866	0	0	0	
0.0186667	-0.0064765	0.780025	0.000319706	0.0340004	0	0	0	
0.0188333	-0.00282127	-0.769024	0.000304122	0.0340092	0	0	0	
0.019	0.0100182	0.776358	0.00023808	0.0340026	0	0	0	
0.0191667	0.00587222	-0.780338	0.000208478	0.034091	0	0	0	
0.0193333	-0.00636963	0.774954	0.000162532	0.0341062	0	0	0	
0.0195	-0.00993082	-0.784888	0.000141753	0.0340035	0	0	0	
0.0196667	0.0151909	0.744627	0.00018827	0.0338116	0	0	0	
0.0198333	0.00265794	-0.732252	0.00020321	0.0336814	0	0	0	
0.02	-0.0170369	0.743303	0.00025656	0.0335803	0	0	0	
0.0201667	0.0107444	-0.775185	0.000260497	0.0336773	0	0	0	
0.0203333	-0.0069589	0.760103	0.000243003	0.033836	0	0	0	
0.0205	0.00218583	-0.745573	0.000211253	0.0339252	0	0	0	
0.0206667	0.00528009	0.731513	0.000187891	0.0338753	0	0	0	
0.0208333	-0.000229263	-0.744673	0.000235238	0.0339502	0	0	0	
0.021	0.00037383	0.722054	0.000197241	0.0340676	0	0	0	
0.0211667	-0.00226869	-0.709753	0.000344222	0.0340253	0	0	0	
0.0213333	-0.020629	0.715797	0.000589099	0.0336261	0	0	0	
0.0215	0.0400024	-0.738535	0.000864614	0.0331958	0	0	0	
0.0216667	-0.0399102	0.742482	0.000869484	0.0331111	0	0	0	
0.0218333	0.00960792	-0.740955	0.000723886	0.0334523	0	0	0	
0.022	0.0136866	0.706638	0.000557861	0.0338271	0	0	0	
0.0221667	-0.0302345	-0.678086	0.000443258	0.0340252	0	0	0	
0.0223333	0.0312987	0.678623	0.000453003	0.0340534	0	0	0	
0.0225	-0.0201096	-0.682692	0.000536237	0.0339788	0	0	0	
0.0226667	-0.0043348	0.683756	0.000714331	0.0337424	0	0	0	
0.0228333	0.0127213	-0.725651	0.000770827	0.0335674	0	0	0	
0.023	-0.0178273	0.71176	0.000649731	0.0335731	0	0	0	
0.0231667	0.00584412	-0.711553	0.000498886	0.0338275	0	0	0	
0.0233333	0.00985995	0.690347	0.000382774	0.0339042	0	0	0	
0.0235	-0.00761033	-0.700894	0.000352341	0.0338839	0	0	0	
0.0236667	0.00558713	0.6945	0.000310222	0.0338516	0	0	0	
0.0238333	-0.00128546	-0.699649	0.000226444	0.0340347	0	0	0	
0.024	0.0014649	0.675106	0.000175954	0.0341594	0	0	0	
0.0241667	0.00822158	-0.66809	9.8332E-05	0.0340489	0	0	0	
0.0243333	-0.0250722	0.648144	0.000124428	0.0337112	0	0	0	
0.0245	0.0202988	-0.671302	0.000276566	0.0336225	0	0	0	
0.0246667	0.0118552	0.668356	0.000474196	0.0338196	0	0	0	
0.0248333	-0.0300589	-0.67602	0.000513369	0.0341012	0	0	0	
0.025	0.0175002	0.662419	0.00053355	0.0341089	0	0	0	
0.0251667	0.00221876	-0.638709	0.000475296	0.0339497	0	0	0	
0.0253333	-0.000759819	0.625529	0.000402902	0.0338116	0	0	0	
0.0255	0.00831464	-0.661554	0.000274908	0.033769	0	0	0	
0.0256667	-0.0220029	0.67164	0.000221456	0.0337786	0	0	0	
0.0258333	0.012216	-0.666221	0.00027002	0.0339421	0	0	0	
0.026	0.00544965	0.616232	0.000413027	0.0341118	0	0	0	
0.0261667	-0.0173216	-0.607168	0.000468687	0.0341547	0	0	0	
0.0263333	0.00292084	0.612872	0.000417341	0.0338868	0	0	0	
0.0265	0.0130374	-0.658345	0.000275679	0.0336475	0	0	0	
0.0266667	-0.00520113	0.648189	0.00017605	0.0336627	0	0	0	
0.0268333	-0.0168855	-0.634144	0.000157345	0.034015	0	0	0	
0.027	0.00717247	0.618973	0.000197943	0.034338	0	0	0	
0.0271667	0.0059842	-0.62065	0.000246427	0.0344463	0	0	0	
0.0273333	-0.013364	0.58531	0.000256695	0.0342908	0	0	0	
0.0275	-0.00456634	-0.602419	0.000217916	0.0341109	0	0	0	
0.0276667	0.00294146	0.594869	0.000237471	0.033849	0	0	0	
0.0278333	0.00542788	-0.605056	0.000319183	0.0337486	0	0	0	
0.028	-0.00749883	0.600446	0.000317824	0.0338279	0	0	0	
0.0281667	-0.0062717	-0.5842	0.000311357	0.0339913	0	0	0	
0.0283333	0.000737539	0.559844	0.000212894	0.0339238	0	0	0	
0.0285	0.00178045	-0.566074	0.000249206	0.0336536	0	0	0	
0.0286667	-0.00106275	0.568997	0.000209011	0.0334159	0	0	0	
0.0288333	-0.0125544	-0.608569	0.000258651	0.0334942	0	0	0	
0.029	0.0098778	0.603694	0.000228675	0.0338034	0	0	0	
0.0291667	-0.0134036	-0.595452	0.000232878	0.0341752	0	0	0	
0.0293333	-0.000226765	0.580155	0.000199606	0.0342399	0	0	0	
0.0295	-0.00804008	-0.57667	0.000171667	0.0341643	0	0	0	
0.0296667	0.005862	0.547108	0.000137011	0.0341732	0	0	0	
0.0298333	0.00380626	-0.544577	0.000142509	0.03425	0	0	0	
0.03	-0.0124891	0.566133	0.00018647	0.0341543	0	0	0	
0.0301667	0.00448131	-0.562752	0.000346422	0.0340388	0	0	0	
0.0303333	0.00641347	0.482017	0.000478066	0.0340943	0	0	0	
0.0305	0.00186976	-0.480807	0.000442219	0.0341984	0	0	0	
0.0306667	-0.00149566	0.493581	0.000256255	0.0337891	0	0	0	
0.0308333	0.00089207	-0.543426	0.000109107	0.0333301	0	0	0	
0.031	-0.00997508	0.559235	0.000149058	0.0334308	0	0	0	
0.0311667	0.0312367	-0.524561	0.00026882	0.0340609	0	0	0	
0.0313333	-0.0200112	0.538607	0.000376161	0.0345724	0	0	0	
0.0315	0.00962626	-0.557378	0.000452978	0.0347857	0	0	0	
0.0316667	0.00601545	0.496169	0.000427411	0.0349646	0	0	0	
0.0318333	-0.00987572	-0.482701	0.000341013	0.0350373	0	0	0	
0.032	0.0116072	0.526065	0.000261861	0.0346874	0	0	0	
0.0321667	-0.0102321	-0.553643	0.000211636	0.0342687	0	0	0	
0.0323333	0.000732654	0.537923	0.000213759	0.0342309	0	0	0	
0.0325	0.00713118	-0.496934	0.000182317	0.0344615	0	0	0	
0.0326667	-0.00253487	0.484644	0.000151565	0.0344908	0	0	0	
0.0328333	0.00236084	-0.519592	9.86722E-05	0.0341825	0	0	0	
0.033	-0.000962128	0.528957	6.44322E-05	0.0339288	0	0	0	
0.0331667	0.00625199	-0.507506	4.90272E-05	0.0340943	0	0	0	
0.0333333	-0.00863755	0.468296	0.000111323	0.0343879	0	0	0	
0.0335	-0.000284232	-0.47628	0.00020581	0.034402	0	0	0	
0.0336667	0.00653679	0.492047	0.000269006	0.0341149	0	0	0	
0.0338333	-0.00132358	-0.493574	0.000232802	0.03398	0	0	0	
0.034	-0.00222999	0.43827	0.000149057	0.0340647	0	0	0	
0.0341667	0.00524368	-0.4581	9.13417E-05	0.0341635	0	0	0	
0.0343333	-0.000470594	0.471172	6.73162E-05	0.0340412	0	0	0	
0.0345	0.00120176	-0.456907	6.70122E-05	0.0339872	0	0	0	
0.0346667	0.00259529	0.442864	4.63891E-05	0.0340703	0	0	0	
0.0348333	-0.00664451	-0.446383	7.13376E-05	0.0340754	0	0	0	
0.035	0.00566348	0.444887	0.000155688	0.0339116	0	0	0	
0.0351667	-0.00281945	-0.46656	0.000255958	0.0338689	0	0	0	
0.0353333	0.00876005	0.431163	0.000297982	0.0340291	0	0	0	
0.0355	-0.00714729	-0.408919	0.000281428	0.0342273	0	0	0	
0.0356667	0.0124608	0.424897	0.000262076	0.0342107	0	0	0	
0.0358333	-0.0135082	-0.428954	0.000258549	0.0340831	0	0	0	
0.036	0.00713997	0.41316	0.000227626	0.0340449	0	0	0	
0.0361667	-0.00017274	-0.417793	0.000181949	0.0341729	0	0	0	
0.0363333	-0.000267092	0.398487	0.000215084	0.0343546	0	0	0	
0.0365	0.000865449	-0.408362	0.000260018	0.0344456	0	0	0	
0.0366667	-0.00223188	0.424527	0.000260195	0.0343789	0	0	0	
0.0368333	-0.000596979	-0.408601	0.000172433	0.0343119	0	0	0	
0.037	-0.000863691	0.38759	0.00010862	0.0343267	0	0	0	
0.0371667	-0.00151397	-0.400249	0.000113512	0.0343531	0	0	0	
0.0373333	0.00590442	0.412617	0.000113002	0.034332	0	0	0	
0.0375	-0.00462785	-0.409283	0.000122425	0.0342708	0	0	0	
0.0376667	-0.000759059	0.39107	0.000151886	0.0342171	0	0	0	
0.0378333	0.00647683	-0.380264	0.000178845	0.0342191	0	0	0	
0.038	-0.00790008	0.376691	0.000173906	0.0342761	0	0	0	
0.0381667	0.0125954	-0.373224	0.000159123	0.0343464	0	0	0	
0.0383333	-0.0100152	0.374883	0.000189329	0.0343625	0	0	0	
0.0385	0.00317886	-0.374031	0.000202754	0.0342825	0	0	0	
0.0386667	0.00568534	0.373778	0.000189107	0.0341708	0	0	0	
0.0388333	-0.00589564	-0.376621	0.000163152	0.0340976	0	0	0	
0.039	0.00222754	0.372382	0.000125776	0.0340654	0	0	0	
0.0391667	0.00417425	-0.361209	9.2882E-05	0.0340639	0	0	0	
0.0393333	-0.00381762	0.357422	7.81703E-05	0.034104	0	0	0	
0.0395	-0.00372559	-0.353367	8.2815E-05	0.0341375	0	0	0	
0.0396667	-0.00458617	0.350769	8.96126E-05	0.0341515	0	0	0	
0.0398333	0.0113367	-0.343	0.000122313	0.0341245	0	0	0	
0.04	-0.00775706	0.3195	0.000226243	0.03408	0	0	0	
0.0401667	-0.0127333	-0.322344	0.000340717	0.0340177	0	0	0	
0.0403333	0.0114704	0.32205	0.000335431	0.0339536	0	0	0	
0.0405	0.00056066	-0.335894	0.000303909	0.0339703	0	0	0	
0.0406667	-0.0164453	0.324815	0.00023561	0.0340005	0	0	0	
0.0408333	0.016437	-0.317488	0.00028052	0.0340221	0	0	0	
0.041	-0.0119461	0.31093	0.000267676	0.0340285	0	0	0	
0.0411667	0.00871482	-0.317602	0.0002697	0.0341109	0	0	0	
0.0413333	-0.000389343	0.296628	0.00022937	0.0342081	0	0	0	
0.0415	-0.0127824	-0.299082	0.000236367	0.0342004	0	0	0	
0.0416667	0.0161956	0.292492	0.000236366	0.0340585	0	0	0	
0.0418333	-0.00574545	-0.278184	0.000263656	0.0339515	0	0	0	
0.042	-0.00179741	0.282885	0.000280624	0.0339118	0	0	0	
0.0421667	0.00897738	-0.288587	0.000312634	0.0338816	0	0	0	
0.0423333	-0.0089978	0.288719	0.000316162	0.0339175	0	0	0	
0.0425	0.0111894	-0.283353	0.000252826	0.0340575	0	0	0	
0.0426667	0.0055174	0.276446	0.000313188	0.0342319	0	0	0	
0.0428333	-0.0211747	-0.27386	0.000390529	0.0343285	0	0	0	
0.043	0.0202057	0.261559	0.000442597	0.0343854	0	0	0	
0.0431667	-0.0153984	-0.249066	0.000406715	0.0343977	0	0	0	
0.0433333	0.0137966	0.26765	0.000357827	0.0343096	0	0	0	
0.0435	-0.000156553	-0.278894	0.000373985	0.0341538	0	0	0	
0.0436667	-0.0102945	0.260899	0.000339731	0.0340517	0	0	0	
0.0438333	0.00681906	-0.273109	0.000255467	0.034048	0	0	0	
0.044	0.00250335	0.268967	0.000227514	0.0340517	0	0	0	
0.0441667	-0.00825997	-0.267427	0.000173916	0.034061	0	0	0	
0.0443333	-0.000436283	0.248986	0.000158055	0.0340511	0	0	0	
0.0445	0.00626189	-0.23615	0.000122363	0.034067	0	0	0	
0.0446667	-0.00366359	0.23425	0.000116736	0.034109	0	0	0	
0.0448333	-0.00435914	-0.242401	0.000158664	0.0341629	0	0	0	
0.045	0.00922037	0.219136	0.000191381	0.034133	0	0	0	
0.0451667	-0.00584595	-0.220295	0.000201629	0.0339902	0	0	0	
0.0453333	-0.000490658	0.214991	0.000164025	0.033822	0	0	0	
0.0455	-0.00765974	-0.222697	0.000139076	0.0338095	0	0	0	
0.0456667	0.016773	0.214532	0.000175291	0.0339229	0	0	0	
0.0458333	-0.00527616	-0.219247	0.000216719	0.0340507	0	0	0	
0.046	-0.00252857	0.19889	0.000174962	0.0341108	0	0	0	
0.0461667	-0.000981285	-0.196965	0.000145795	0.0341616	0	0	0	
0.0463333	-0.000155203	0.189904	0.000117539	0.034202	0	0	0	
0.0465	0.0106946	-0.192928	0.000155381	0.0341583	0	0	0	
0.0466667	-0.0133434	0.177203	0.000165979	0.0339721	0	0	0	
0.0468333	0.00784096	-0.198214	0.000229531	0.0337927	0	0	0	
0.047	-0.00122268	0.199952	0.000246708	0.0337552	0	0	0	
0.0471667	0.00872	-0.192638	0.000227443	0.033899	0	0	0	
0.0473333	-0.00944781	0.176431	0.000183587	0.0340867	0	0	0	
0.0475	0.0035626	-0.168172	0.000160376	0.0341845	0	0	0	
0.0476667	0.00156615	0.145603	0.00016422	0.0341408	0	0	0	
0.0478333	-0.0034907	-0.161825	0.00016057	0.0340299	0	0	0	
0.048	0.00653527	0.159778	0.00017842	0.0339428	0	0	0	
0.0481667	-0.010773	-0.157629	0.000187822	0.0339391	0	0	0	
0.0483333	0.00987739	0.152732	0.000189593	0.0339725	0	0	0	
0.0485	-0.00107479	-0.162367	0.000209318	0.0340059	0	0	0	
0.0486667	-0.0100612	0.144191	0.000274408	0.0339752	0	0	0	
0.0488333	0.0221135	-0.156147	0.000318063	0.033869	0	0	0	
0.049	-0.0160923	0.136268	0.000357559	0.0337399	0	0	0	
0.0491667	-0.0021304	-0.131902	0.000371471	0.0337379	0	0	0	
0.0493333	0.00916653	0.115886	0.000377397	0.0338311	0	0	0	
0.0495	-0.00750866	-0.131979	0.000305397	0.0339078	0	0	0	
0.0496667	0.00938287	0.12342	0.000234212	0.0338551	0	0	0	
0.0498333	0.000575868	-0.123402	0.000185532	0.0337646	0	0	0	
0.05	-0.00607763	0.101177	0.000151431	0.0337124	0	0	0	
0.0501667	0.00189119	-0.119815	0.000144246	0.0337484	0	0	0	
0.0503333	0.00796768	0.128881	0.000169143	0.0338763	0	0	0	
0.0505	-0.0117998	-0.121441	0.000233363	0.0341027	0	0	0	
0.0506667	0.00968841	0.0949714	0.000249331	0.0342938	0	0	0	
0.0508333	-0.00712423	-0.0892842	0.00023688	0.0343158	0	0	0	
0.051	-0.00768639	0.0636014	0.000241287	0.0342096	0	0	0	
0.0511667	0.0161486	-0.0599324	0.000242757	0.03409	0	0	0	
0.0513333	-0.00820592	0.0755291	0.000273344	0.0339451	0	0	0	
0.0515	0.00215983	-0.0914744	0.000314092	0.0337942	0	0	0	
0.0516667	-0.00125885	0.0868439	0.000324797	0.033758	0	0	0	
0.0518333	-0.00578716	-0.098239	0.000278987	0.0338879	0	0	0	
0.052	0.00915512	0.0840266	0.000223488	0.0340803	0	0	0	
0.0521667	-0.00779234	-0.0691891	0.000192373	0.0342564	0	0	0	
0.0523333	-0.00498063	0.0708301	0.000246503	0.0343353	0	0	0	
0.0525	0.0140525	-0.0957488	0.000268963	0.0341823	0	0	0	
0.0526667	-0.00791182	0.0846966	0.000280553	0.0338274	0	0	0	
0.0528333	0.001457	-0.0739086	0.000234582	0.0336042	0	0	0	
0.053	0.000862529	0.0536768	0.000196668	0.0337072	0	0	0	
0.0531667	-0.00715078	-0.0303741	0.000202654	0.0339167	0	0	0	
0.0533333	0.0111154	0.0196938	0.000221505	0.0339403	0	0	0	
0.0535	-0.00937585	-0.0223963	0.000219376	0.0337984	0	0	0	
0.0536667	0.000677726	-0.00100768	0.000213186	0.0336477	0	0	0	
0.0538333	0.00525819	-0.00346867	0.000153873	0.0335342	0	0	0	
0.054	-0.00310889	0.0279426	0.000131334	0.0334986	0	0	0	
0.0541667	0.00364173	-0.0266953	8.61494E-05	0.0335729	0	0	0	
0.0543333	-0.00350878	0.0127933	7.39968E-05	0.0337515	0	0	0	
0.0545	-0.00130352	-0.0248141	6.90284E-05	0.0339495	0	0	0	
0.0546667	0.00543997	-0.00189506	8.50591E-05	0.0340398	0	0	0	
0.0548333	-0.00434659	-0.00499972	0.000109008	0.0339408	0	0	0	
0.055	0.00452849	0.00620603	0.000148459	0.0337885	0	0	0	
0.0551667	-0.00491372	-0.000762501	0.000173151	0.0338331	0	0	0	
0.0553333	-0.000763328	-0.0281641	0.000157943	0.0340242	0	0	0	
0.0555	0.00300131	0.0059749	0.000125989	0.0340807	0	0	0	
0.0556667	0.00264214	-0.0112334	8.82145E-05	0.0339646	0	0	0	
0.0558333	0.00359593	0.0102848	9.8895E-05	0.0339028	0	0	0	
0.056	-0.0137808	-0.0219572	0.000126846	0.0339705	0	0	0	
0.0561667	0.0152889	0.00750782	0.000193244	0.0340218	0	0	0	
0.0563333	-0.00854606	-0.0089259	0.000247553	0.0340072	0	0	0	
0.0565	-0.00123582	0.00563252	0.000222479	0.0340118	0	0	0	
0.0566667	0.00387117	-0.0238687	0.000162166	0.0340386	0	0	0	
0.0568333	-0.00120827	0.0316134	8.46225E-05	0.0339599	0	0	0	
0.057	0.00697863	-0.0325401	0.000105917	0.0337962	0	0	0	
0.0571667	-0.0115176	0.0248432	0.000166587	0.0337257	0	0	0	
0.0573333	0.0060429	-0.040285	0.000199358	0.0337768	0	0	0	
0.0575	-0.00210341	0.0497813	0.000192488	0.0337895	0	0	0	
0.0576667	0.00276383	-0.0544472	0.000149394	0.0337396	0	0	0	
0.0578333	-0.00320127	0.0603159	0.000160336	0.0337293	0	0	0	
0.058	-0.00812888	-0.0660333	0.000130747	0.0337728	0	0	0	
0.0581667	0.012336	0.0475043	0.000143318	0.0337504	0	0	0	
0.0583333	-0.00555343	-0.0675425	0.000179709	0.0337016	0	0	0	
0.0585	-0.0107742	0.0743379	0.000243864	0.0337376	0	0	0	
0.0586667	0.00465162	-0.0856773	0.000235338	0.0338433	0	0	0	
0.0588333	0.0151873	0.0792451	0.000217675	0.0339842	0	0	0	
0.059	-0.0144862	-0.0840703	0.000230266	0.0341238	0	0	0	
0.0591667	-0.000642172	0.085014	0.000247136	0.0341597	0	0	0	
0.0593333	0.00613788	-0.0953128	0.000243925	0.0340154	0	0	0	
0.0595	-0.00524347	0.0899044	0.000167764	0.0337824	0	0	0	
0.0596667	-0.00232896	-0.0921492	0.000130503	0.0337136	0	0	0	
0.0598333	-0.000586691	0.0750906	7.60313E-05	0.0338941	0	0	0	
0.06	0.00207112	-0.0836659	7.57938E-05	0.0340918	0	0	0	
0.0601667	0.0101326	0.0879606	7.09932E-05	0.0341002	0	0	0	
0.0603333	-0.00744243	-0.107676	0.000163584	0.0339978	0	0	0	
0.0605	-0.0123499	0.108324	0.000334038	0.0339645	0	0	0	
0.0606667	0.0273135	-0.121031	0.000459625	0.0339409	0	0	0	
0.0608333	-0.0232857	0.11888	0.000518639	0.0337917	0	0	0	
0.061	0.00530512	-0.114334	0.00040929	0.0336105	0	0	0	
0.0611667	-0.00299103	0.107965	0.000286759	0.0336094	0	0	0	
0.0613333	-0.00366024	-0.119101	0.000139554	0.0337781	0	0	0	
0.0615	0.00830889	0.116383	9.11119E-05	0.0338653	0	0	0	
0.0616667	-0.00144977	-0.144759	0.000176373	0.0337652	0	0	0	
0.0618333	-0.00674529	0.143864	0.00034613	0.0337008	0	0	0	
0.062	0.00718933	-0.148403	0.000437639	0.0338092	0	0	0	
0.0621667	-0.00494832	0.122367	0.000347645	0.03393	0	0	0	
0.0623333	-0.012873	-0.119409	0.000188778	0.0338423	0	0	0	
0.0625	0.0169089	0.142751	0.000153241	0.0337341	0	0	0	
0.0626667	-0.0139985	-0.169779	0.000292208	0.0338687	0	0	0	
0.0628333	0.00493154	0.174931	0.000444452	0.0341062	0	0	0	
0.063	0.00462342	-0.175588	0.000477965	0.0341312	0	0	0	
0.0631667	-0.0117747	0.159908	0.000378856	0.033921	0	0	0	
0.0633333	0.00533461	-0.174093	0.000255005	0.0337083	0	0	0	
0.0635	-0.00288102	0.19088	0.000157538	0.0336672	0	0	0	
0.0636667	-0.00375819	-0.185604	0.000130049	0.0337516	0	0	0	
0.0638333	0.00870615	0.177211	0.000124564	0.0338655	0	0	0	
0.064	-0.00603668	-0.18058	0.000150648	0.0339314	0	0	0	
0.0641667	0.0032501	0.185941	0.000140112	0.0339076	0	0	0	
0.0643333	-0.00832256	-0.205248	0.00012607	0.033867	0	0	0	
0.0645	0.00629215	0.212079	0.000116557	0.0339233	0	0	0	
0.0646667	0.000770197	-0.213635	0.000146376	0.0340843	0	0	0	
0.0648333	-0.0110461	0.206323	0.000227096	0.0342262	0	0	0	
0.065	0.0193937	-0.224208	0.000290447	0.0342089	0	0	0	
0.0651667	-0.0133703	0.228932	0.000330279	0.0340772	0	0	0	
0.0653333	0.00821537	-0.239723	0.000358833	0.0339764	0	0	0	
0.0655	0.00189448	0.215765	0.00036466	0.0340447	0	0	0	
0.0656667	-0.00628282	-0.219903	0.000314364	0.0342024	0	0	0	
0.0658333	0.00911398	0.229081	0.00020813	0.0343394	0	0	0	
0.066	-0.00243794	-0.239687	0.000145994	0.0343812	0	0	0	
0.0661667	-0.00216595	0.239421	0.000154011	0.0343765	0	0	0	
0.0663333	0.00917131	-0.25559	0.000170527	0.0343535	0	0	0	
0.0665	-0.00219935	0.242677	0.000178515	0.0343227	0	0	0	
0.0666667	0.00108576	-0.247253	0.000156548	0.0342389	0	0	0	
0.0668333	-0.0010832	0.256964	0.000139156	0.0341336	0	0	0	
0.067	0.00942121	-0.256987	0.000137172	0.0340257	0	0	0	
0.0671667	-0.0124235	0.247536	0.000177937	0.0339483	0	0	0	
0.0673333	0.00421495	-0.246429	0.000182147	0.0339154	0	0	0	
0.0675	0.00240877	0.250316	0.000173804	0.033938	0	0	0	
0.0676667	0.00134824	-0.267386	0.000116357	0.0339934	0	0	0	
0.0678333	-0.000691283	0.290742	7.79017E-05	0.0340092	0	0	0	
0.068	-0.00661785	-0.280704	4.71806E-05	0.0339867	0	0	0	
0.0681667	0.00315353	0.276999	7.36681E-05	0.0339849	0	0	0	
0.0683333	0.00613332	-0.284675	0.000124399	0.0340384	0	0	0	
0.0685	-0.00396795	0.289131	0.000155771	0.0340149	0	0	0	
0.0686667	0.00106859	-0.30096	0.000144355	0.0339017	0	0	0	
0.0688333	-0.00372053	0.300996	0.000136176	0.0338354	0	0	0	
0.069	0.00560582	-0.29393	0.000104777	0.0338633	0	0	0	
0.0691667	-0.00282006	0.316498	0.000146474	0.0338848	0	0	0	
0.0693333	-0.00214662	-0.318072	0.000156163	0.0338553	0	0	0	
0.0695	0.00625391	0.313499	0.000170911	0.0337894	0	0	0	
0.0696667	0.000622215	-0.330591	0.000168136	0.0337366	0	0	0	
0.0698333	-0.00491658	0.328923	0.000151101	0.0336694	0	0	0	
0.07	0.00826391	-0.336248	0.00015053	0.0335929	0	0	0	
0.0701667	-0.00424592	0.339547	0.000139611	0.0336176	0	0	0	
0.0703333	0.00361773	-0.338409	0.000117571	0.0337543	0	0	0	
0.0705	-0.00302922	0.343827	0.000108862	0.0339607	0	0	0	
0.0706667	0.00194269	-0.35146	7.99334E-05	0.0341076	0	0	0	
0.0708333	-0.0055157	0.350613	0.000104284	0.0341132	0	0	0	
0.071	0.00781148	-0.360906	0.000127791	0.0340517	0	0	0	
0.0711667	-0.00245891	0.344303	0.000141864	0.034059	0	0	0	
0.0713333	-0.00090774	-0.352014	0.000114608	0.0340886	0	0	0	
0.0715	0.00145315	0.365901	6.91073E-05	0.0340786	0	0	0	
0.0716667	0.00381996	-0.361532	6.99029E-05	0.0339669	0	0	0	
0.0718333	-0.0128408	0.368196	0.000132315	0.0338715	0	0	0	
0.072	0.0120158	-0.384448	0.000213827	0.0339233	0	0	0	
0.0721667	9.12335E-05	0.377948	0.000215116	0.0340849	0	0	0	
0.0723333	-0.00648922	-0.38095	0.000200538	0.0341809	0	0	0	
0.0725	0.00674832	0.401254	0.000156323	0.0341567	0	0	0	
0.0726667	-0.00185658	-0.397613	0.000137162	0.0341264	0	0	0	
0.0728333	-0.00200575	0.383867	8.14928E-05	0.0341574	0	0	0	
0.073	0.00183172	-0.378278	4.70662E-05	0.0341689	0	0	0	
0.0731667	-0.00749483	0.379876	5.29643E-05	0.0340794	0	0	0	
0.0733333	0.00749741	-0.39199	7.67763E-05	0.0339943	0	0	0	
0.0735	-0.00251833	0.396314	0.000136578	0.0339952	0	0	0	
0.0736667	-0.0035732	-0.400668	0.000165427	0.0340293	0	0	0	
0.0738333	-0.00259086	0.400458	0.000142503	0.0340411	0	0	0	
0.074	0.00501264	-0.417977	0.00011524	0.0339844	0	0	0	
0.0741667	-0.00241524	0.425668	9.19355E-05	0.0339438	0	0	0	
0.0743333	-0.00288226	-0.432201	0.000133258	0.0339613	0	0	0	
0.0745	-0.00622298	0.422831	0.000178418	0.0340308	0	0	0	
0.0746667	0.00993752	-0.431944	0.000232378	0.0340517	0	0	0	
0.0748333	-0.0133992	0.4415	0.000240296	0.0340742	0	0	0	
0.075	0.00893638	-0.439594	0.000243734	0.0341182	0	0	0	
0.0751667	0.00701808	0.434658	0.000278334	0.0341569	0	0	0	
0.0753333	-0.0246353	-0.432422	0.000381959	0.0340729	0	0	0	
0.0755	0.0316712	0.432135	0.000519909	0.0339268	0	0	0	
0.0756667	-0.0318708	-0.438614	0.000592868	0.0338465	0	0	0	
0.0758333	0.0191869	0.449694	0.000576562	0.0338711	0	0	0	
0.076	0.00232393	-0.454847	0.000552982	0.0339505	0	0	0	
0.0761667	-0.0170901	0.462511	0.000526087	0.0339991	0	0	0	
0.0763333	0.0202679	-0.466018	0.000479453	0.0339592	0	0	0	
0.0765	-0.0241691	0.480302	0.000443593	0.0338684	0	0	0	
0.0766667	0.018146	-0.482299	0.000484897	0.0338387	0	0	0	
0.0768333	0.0030107	0.48051	0.000544844	0.0339118	0	0	0	
0.077	-0.0148147	-0.47199	0.000459156	0.0340713	0	0	0	
0.0771667	0.0083039	0.481099	0.000319574	0.0342038	0	0	0	
0.0773333	-0.00203911	-0.498525	0.000200787	0.0342639	0	0	0	
0.0775	-0.00264032	0.488685	0.000150267	0.0341938	0	0	0	
0.0776667	0.00704698	-0.488273	0.000133242	0.0340273	0	0	0	
0.0778333	-0.00637492	0.475113	0.000138163	0.0339333	0	0	0	
0.078	0.00245664	-0.475414	0.000136383	0.0339218	0	0	0	
0.0781667	0.00313304	0.486036	9.86455E-05	0.0339718	0	0	0	
0.0783333	-0.00344221	-0.515246	8.57951E-05	0.0340141	0	0	0	
0.0785	-0.00350008	0.513051	0.000149909	0.0340733	0	0	0	
0.0786667	0.010503	-0.539024	0.00023767	0.0339907	0	0	0	
0.0788333	-0.00959645	0.506609	0.000293974	0.0337088	0	0	0	
0.079	0.00397657	-0.500545	0.000255166	0.0332078	0	0	0	
0.0791667	0.00376635	0.510938	0.000163458	0.0330143	0	0	0	
0.0793333	-0.00618863	-0.537741	9.91808E-05	0.0333079	0	0	0	
0.0795	0.00365314	0.532095	8.63636E-05	0.0339332	0	0	0	
0.0796667	-0.00928906	-0.555815	0.000119399	0.0342883	0	0	0	
0.0798333	0.00980501	0.554119	0.000175913	0.0342658	0	0	0	
0.08	-0.000495983	-0.572845	0.000247229	0.0340288	0	0	0	
0.0801667	-0.0105111	0.575669	0.000273317	0.0339347	0	0	0	
0.0803333	0.0073096	-0.556121	0.000242481	0.0338995	0	0	0	
0.0805	-0.00127539	0.532587	0.000233297	0.0339043	0	0	0	
0.0806667	-0.0137075	-0.556429	0.000252276	0.0338719	0	0	0	
0.0808333	0.0201899	0.566514	0.000310065	0.0338826	0	0	0	
0.081	-0.0159738	-0.554852	0.000314571	0.0339088	0	0	0	
0.0811667	0.00134783	0.568801	0.000314661	0.0340104	0	0	0	
0.0813333	0.00349545	-0.584534	0.000287106	0.0342329	0	0	0	
0.0815	-0.00555934	0.598418	0.000269189	0.0344633	0	0	0	
0.0816667	0.00989364	-0.605247	0.000262429	0.0344536	0	0	0	
0.0818333	-0.00734821	0.596028	0.000233515	0.0341503	0	0	0	
0.082	-0.0102162	-0.563389	0.000297664	0.0338555	0	0	0	
0.0821667	0.0148053	0.571823	0.000353853	0.0337846	0	0	0	
0.0823333	-0.0102831	-0.569816	0.000377639	0.0339155	0	0	0	
0.0825	0.00872501	0.578992	0.000287563	0.0340007	0	0	0	
0.0826667	-0.0112135	-0.597279	0.000234989	0.0340824	0	0	0	
0.0828333	0.0135005	0.609964	0.000253126	0.0341743	0	0	0	
0.083	-0.0140979	-0.597364	0.000269851	0.0342576	0	0	0	
0.0831667	0.00347671	0.598306	0.000262923	0.0341968	0	0	0	
0.0833333	0.00172364	-0.618358	0.000253718	0.0340708	0	0	0	
0.0835	-0.00215009	0.631855	0.000251743	0.0340437	0	0	0	
0.0836667	0.0175406	-0.634526	0.00028655	0.0341022	0	0	0	
0.0838333	-0.034453	0.632833	0.000355482	0.0341578	0	0	0	
0.084	0.0228879	-0.623617	0.000468865	0.0341693	0	0	0	
0.0841667	0.00308142	0.628911	0.000566581	0.0341539	0	0	0	
0.0843333	-0.0182214	-0.651696	0.000578143	0.0341057	0	0	0	
0.0845	0.0235149	0.6587	0.000522817	0.034131	0	0	0	
0.0846667	-0.0143513	-0.649593	0.000420702	0.0342303	0	0	0	
0.0848333	-0.00333842	0.64965	0.000393324	0.0343342	0	0	0	
0.085	0.0162253	-0.645685	0.000446239	0.0343443	0	0	0	
0.0851667	-0.0144668	0.637601	0.000474213	0.0342725	0	0	0	
0.0853333	0.00634572	-0.659088	0.000385837	0.0341689	0	0	0	
0.0855	0.00494269	0.661684	0.000250741	0.0341927	0	0	0	
0.0856667	-0.00296604	-0.645719	0.000127778	0.0342929	0	0	0	
0.0858333	-0.00146468	0.668429	0.000170682	0.0343547	0	0	0	
0.086	0.00664523	-0.667868	0.000223617	0.0343031	0	0	0	
0.0861667	-0.00452283	0.665846	0.000238203	0.0341937	0	0	0	
0.0863333	0.00467351	-0.677861	0.000197802	0.0341572	0	0	0	
0.0865	0.000563295	0.675373	0.000142379	0.0341285	0	0	0	
0.0866667	-0.00499539	-0.674197	0.000139523	0.0340948	0	0	0	
0.0868333	0.0114095	0.683505	0.000127429	0.0340903	0	0	0	
0.087	-0.00673277	-0.681841	0.000151203	0.0341619	0	0	0	
0.0871667	-0.00361235	0.686916	0.000180541	0.0342717	0	0	0	
0.0873333	0.00847191	-0.678678	0.000171237	0.03431	0	0	0	
0.0875	0.00378585	0.696246	0.000156035	0.0341899	0	0	0	
0.0876667	-0.0128726	-0.710094	0.000161445	0.0341661	0	0	0	
0.0878333	0.00244125	0.705336	0.000175631	0.0342259	0	0	0	
0.088	0.00243561	-0.707592	0.0001318	0.0342664	0	0	0	
0.0881667	-0.00312003	0.693928	9.48706E-05	0.0341526	0	0	0	
0.0883333	0.00430487	-0.691489	7.74037E-05	0.0339644	0	0	0	
0.0885	-0.00797503	0.718426	0.000104768	0.0339011	0	0	0	
0.0886667	0.00225349	-0.705808	0.000121481	0.0340344	0	0	0	
0.0888333	-0.00235453	0.706499	0.000171763	0.0342138	0	0	0	
0.089	-0.00196872	-0.714066	0.000163501	0.0343523	0	0	0	
0.0891667	0.000352289	0.720972	0.000132795	0.0342987	0	0	0	
0.0893333	-0.00421979	-0.724724	6.07317E-05	0.0341788	0	0	0	
0.0895	0.0200551	0.726923	0.000127142	0.0340714	0	0	0	
0.0896667	-0.0279958	-0.711535	0.000292303	0.0340365	0	0	0	
0.0898333	0.027061	0.716757	0.000444286	0.0340073	0	0	0	
0.09	-0.0223912	-0.733858	0.000525089	0.0339684	0	0	0	
0.0901667	0.00444569	0.747145	0.000516352	0.0340035	0	0	0	
0.0903333	0.013768	-0.752076	0.000478697	0.034136	0	0	0	
0.0905	-0.0161184	0.769468	0.000374124	0.0342007	0	0	0	
0.0906667	0.014228	-0.761005	0.000339288	0.0341332	0	0	0	
0.0908333	0.0018539	0.753255	0.000404214	0.0340144	0	0	0	
0.091	-0.0236744	-0.759694	0.000521669	0.033972	0	0	0	
0.0911667	0.0261033	0.756879	0.000565501	0.0339679	0	0	0	
0.0913333	-0.0142893	-0.766744	0.000484316	0.0339939	0	0	0	
0.0915	0.0091654	0.785333	0.000398114	0.0341573	0	0	0	
0.0916667	-0.00687688	-0.798314	0.000292422	0.0343708	0	0	0	
0.0918333	0.00555501	0.79602	0.000230725	0.0344576	0	0	0	
0.092	-0.00874931	-0.788147	0.000154448	0.0342797	0	0	0	
0.0921667	0.00333152	0.796529	0.000122931	0.0340161	0	0	0	
0.0923333	-0.00254801	-0.810797	9.30509E-05	0.0339162	0	0	0	
0.0925	0.0028602	0.786056	8.07151E-05	0.0340208	0	0	0	
0.0926667	-0.00112929	-0.794236	5.41379E-05	0.0341377	0	0	0	
0.0928333	0.0033024	0.809705	8.92102E-05	0.0342941	0	0	0	
0.093	0.00175649	-0.813922	8.46378E-05	0.0343724	0	0	0	
0.0931667	0.00363713	0.818685	9.54183E-05	0.0343861	0	0	0	
0.0933333	-0.00490726	-0.825635	7.43262E-05	0.0343461	0	0	0	
0.0935	0.00166189	0.827308	8.80833E-05	0.0344265	0	0	0	
0.0936667	-0.0069385	-0.84282	0.000131157	0.0345627	0	0	0	
0.0938333	0.0188829	0.829138	0.000177748	0.0345102	0	0	0	
0.094	-0.00329686	-0.813011	0.000220679	0.0342106	0	0	0	
0.0941667	-0.00472972	0.82691	0.000211206	0.0340174	0	0	0	
0.0943333	-8.23388E-05	-0.843277	0.000146761	0.0341063	0	0	0	
0.0945	-2.12477E-05	0.824543	9.27852E-05	0.0343249	0	0	0	
0.0946667	0.00615975	-0.8355	6.08281E-05	0.034439	0	0	0	
0.0948333	-0.00065083	0.843569	0.000107193	0.0344888	0	0	0	
0.095	-0.004985	-0.849454	0.000140037	0.0343938	0	0	0	
0.0951667	-0.00277343	0.834773	0.00016097	0.0342256	0	0	0	
0.0953333	0.00907636	-0.83174	0.000174	0.0340573	0	0	0	
0.0955	-0.00374707	0.82496	0.000167934	0.0341226	0	0	0	
0.0956667	-0.000973869	-0.856429	0.000197297	0.0342228	0	0	0	
0.0958333	0.00134048	0.856087	0.000200669	0.0343301	0	0	0	
0.096	-0.0051886	-0.860817	0.000213529	0.0343152	0	0	0	
0.0961667	0.00466485	0.853263	0.000150425	0.0343394	0	0	0	
0.0963333	0.00358467	-0.861613	0.000161206	0.0342175	0	0	0	
0.0965	-0.0131751	0.860934	0.000183321	0.0341469	0	0	0	
0.0966667	0.0091038	-0.872364	0.000216812	0.034116	0	0	0	
0.0968333	-0.00205936	0.877163	0.000197826	0.0342285	0	0	0	
0.097	0.000701076	-0.87579	0.000157388	0.0342707	0	0	0	
0.0971667	0.000503547	0.855106	0.00013486	0.0342071	0	0	0	
0.0973333	0.00115514	-0.868069	0.000121086	0.0339882	0	0	0	
0.0975	-0.00624793	0.87488	0.000158288	0.0339198	0	0	0	
0.0976667	0.00532151	-0.882264	0.000197645	0.0339471	0	0	0	
0.0978333	-0.00689994	0.90165	0.000199579	0.0341039	0	0	0	
0.098	-0.00208285	-0.911163	0.000246714	0.03422	0	0	0	
0.0981667	0.00897696	0.900366	0.000313369	0.0343228	0	0	0	
0.0983333	-0.00886034	-0.886	0.000370428	0.0342381	0	0	0	
0.0985	0.0059973	0.890377	0.000323531	0.034051	0	0	0	
0.0986667	-0.00272492	-0.895563	0.000245503	0.0339114	0	0	0	
0.0988333	0.0125107	0.902554	0.000182534	0.0339812	0	0	0	
0.099	-0.0197824	-0.901145	0.00020799	0.0341565	0	0	0	
0.0991667	0.00625716	0.907812	0.000289663	0.0343354	0	0	0	
0.0993333	0.015803	-0.911954	0.000422476	0.0343572	0	0	0	
0.0995	-0.0184088	0.93041	0.000472851	0.0341923	0	0	0	
0.0996667	0.0130018	-0.918131	0.00042979	0.0339368	0	0	0	
0.0998333	-0.00300545	0.915242	0.0002909	0.0336977	0	0	0	
0.1	-0.0020877	-0.91912	0.000239583	0.0336432	0	0	0	
0.100167	0.0117681	0.923989	0.000286043	0.0337452	0	0	0	
0.100333	-0.0142493	-0.92701	0.000363364	0.0339284	0	0	0	
0.1005	0.0203716	0.939831	0.000359007	0.0340611	0	0	0	
0.100667	-0.0162249	-0.944106	0.000359153	0.0341387	0	0	0	
0.100833	0.00350028	0.960038	0.000309495	0.0342119	0	0	0	
0.101	0.00603349	-0.955598	0.000270198	0.0342963	0	0	0	
0.101167	-0.0066314	0.933442	0.000185743	0.0342748	0	0	0	
0.101333	0.00536039	-0.929916	0.000151729	0.0341443	0	0	0	
0.1015	0.00353052	0.947133	0.000113207	0.0340132	0	0	0	
0.101667	-0.00744871	-0.959465	0.000109562	0.0340059	0	0	0	
0.101833	0.00424406	0.967321	0.00010118	0.0341225	0	0	0	
0.102	0.000839026	-0.954533	0.000104208	0.0341872	0	0	0	
0.102167	-0.00168985	0.963991	6.83331E-05	0.0341189	0	0	0	
0.102333	0.000352383	-0.963853	8.62278E-05	0.0339937	0	0	0	
0.1025	-0.006639	0.974429	0.000139384	0.0338989	0	0	0	
0.102667	0.0175844	-0.961248	0.000194491	0.0339235	0	0	0	
0.102833	-0.015382	0.969582	0.00025473	0.0340152	0	0	0	
0.103	0.00785253	-0.970619	0.000248605	0.034176	0	0	0	
0.103167	-0.0104709	0.985568	0.000243509	0.0342726	0	0	0	
0.103333	0.00481658	-0.978651	0.000184211	0.0342912	0	0	0	
0.1035	0.00301011	0.992401	0.000180754	0.0341922	0	0	0	
0.103667	-0.0121352	-0.977591	0.000201177	0.0340858	0	0	0	
0.103833	0.0109876	0.991458	0.000215259	0.0339444	0	0	0	
0.104	0.00142487	-0.992735	0.0002881	0.0339201	0	0	0	
0.104167	-0.0190401	1.00151	0.000324809	0.033938	0	0	0	
0.104333	0.0115705	-1.00723	0.000362505	0.0340484	0	0	0	
0.1045	-0.000254541	1.01157	0.000304716	0.0341019	0	0	0	
0.104667	-0.00503005	-1.00476	0.000229571	0.0340655	0	0	0	
0.104833	0.00195829	1.02686	0.000146548	0.0339781	0	0	0	
0.105	0.0023371	-1.02687	7.82391E-05	0.0339899	0	0	0	
0.105167	-0.00331872	1.02086	6.91692E-05	0.034086	0	0	0	
0.105333	0.00681472	-1.0146	0.000112579	0.0341993	0	0	0	
0.1055	-0.00901645	1.00568	0.000133555	0.0341918	0	0	0	
0.105667	0.00148754	-1.02554	0.000189873	0.034113	0	0	0	
0.105833	0.0072525	1.04043	0.000257602	0.0341205	0	0	0	
0.106	-0.0113045	-1.03941	0.000339088	0.0341475	0	0	0	
0.106167	0.0170293	1.0381	0.000308364	0.034199	0	0	0	
0.106333	-0.00965636	-1.03484	0.000303669	0.034098	0	0	0	
0.1065	-0.00277199	1.03743	0.000307528	0.0339749	0	0	0	
0.106667	0.00634484	-1.03839	0.000279146	0.0339483	0	0	0	
0.106833	-0.00739361	1.05602	0.000221805	0.034092	0	0	0	
0.107	0.00802848	-1.0592	0.000150169	0.0342547	0	0	0	
0.107167	-0.00988724	1.05857	0.000179087	0.034331	0	0	0	
0.107333	0.00337465	-1.06228	0.000144123	0.0342651	0	0	0	
0.1075	0.00196703	1.06044	0.000192268	0.0342055	0	0	0	
0.107667	-0.000851356	-1.0447	0.000211913	0.0340935	0	0	0	
0.107833	-0.00592503	1.05531	0.000227669	0.0339855	0	0	0	
0.108	0.000210828	-1.04934	0.000156806	0.0339077	0	0	0	
0.108167	0.0102223	1.06515	0.000149084	0.0338852	0	0	0	
0.108333	-0.0137441	-1.06674	0.000176092	0.0338972	0	0	0	
0.1085	0.00168482	1.06388	0.000200433	0.033936	0	0	0	
0.108667	0.00467698	-1.06928	0.000165913	0.0340399	0	0	0	
0.108833	-0.00442725	1.08554	0.000120168	0.0342189	0	0	0	
0.109	0.0068331	-1.08359	0.000104362	0.034299	0	0	0	
0.109167	-0.0115589	1.10092	0.000113894	0.0342736	0	0	0	
0.109333	0.00240639	-1.10389	0.000149732	0.0341959	0	0	0	
0.1095	0.00420708	1.08607	0.00013426	0.0341012	0	0	0	
0.109667	0.00675954	-1.06598	0.000163936	0.0339199	0	0	0	
0.109833	-0.0159347	1.05778	0.000191521	0.0336863	0	0	0	
0.11	0.0124941	-1.07186	0.000262313	0.0335172	0	0	0	
0.110167	-0.000888937	1.09784	0.000292217	0.0336	0	0	0	
0.110333	-0.00963475	-1.10384	0.000322746	0.0337921	0	0	0	
0.1105	0.0148847	1.09655	0.000372188	0.0339778	0	0	0	
0.110667	-0.024711	-1.10381	0.000372083	0.0340492	0	0	0	
0.110833	0.0251225	1.1056	0.000420548	0.0340518	0	0	0	
0.111	-0.0127777	-1.12077	0.000462088	0.0339633	0	0	0	
0.111167	0.00219339	1.12045	0.000475071	0.0339949	0	0	0	
0.111333	0.00329821	-1.11385	0.000396953	0.0340297	0	0	0	
0.1115	-0.0140877	1.11796	0.000348119	0.0340827	0	0	0	
0.111667	0.0221608	-1.11706	0.000403201	0.0340094	0	0	0	
0.111833	-0.0258142	1.12471	0.000440862	0.033932	0	0	0	
0.112	0.00855254	-1.11656	0.000469069	0.0338729	0	0	0	
0.112167	0.0141917	1.10818	0.000526038	0.0338501	0	0	0	
0.112333	-0.023842	-1.10357	0.000574238	0.0337976	0	0	0	
0.1125	0.0230742	1.12368	0.000549671	0.0337796	0	0	0	
0.112667	-0.0175763	-1.12139	0.000447854	0.0337632	0	0	0	
0.112833	0.00988692	1.13214	0.000419	0.0338199	0	0	0	
0.113	0.00285936	-1.12133	0.000426699	0.0338847	0	0	0	
0.113167	-0.00708991	1.13075	0.000366403	0.033859	0	0	0	
0.113333	-0.000662748	-1.13018	0.000242563	0.0337401	0	0	0	
0.1135	0.0136124	1.14302	0.000146204	0.0336765	0	0	0	
0.113667	-0.00689809	-1.14068	0.000145907	0.0337356	0	0	0	
0.113833	-0.00377898	1.16315	0.000251998	0.0339157	0	0	0	
0.114	0.0172531	-1.15108	0.000317191	0.0340575	0	0	0	
0.114167	-0.0188775	1.16878	0.000357808	0.0340756	0	0	0	
0.114333	0.00678919	-1.16282	0.00031368	0.0340365	0	0	0	
0.1145	0.00362844	1.16453	0.000281429	0.0339672	0	0	0	
0.114667	-0.00297795	-1.14727	0.000233121	0.0339294	0	0	0	
0.114833	0.00839497	1.15905	0.000208087	0.0338532	0	0	0	
0.115	-0.0087643	-1.14573	0.000188837	0.0337912	0	0	0	
0.115167	0.00125169	1.17615	0.000162452	0.0337529	0	0	0	
0.115333	0.00513686	-1.18583	0.000176638	0.0338805	0	0	0	
0.1155	-0.00409423	1.17923	0.000175606	0.0339827	0	0	0	
0.115667	-0.00201778	-1.17328	0.000153017	0.0339986	0	0	0	
0.115833	0.00133679	1.19412	9.34507E-05	0.0339017	0	0	0	
0.116	0.00743202	-1.20392	7.66869E-05	0.0338533	0	0	0	
0.116167	-0.0133763	1.2082	0.000123909	0.0339595	0	0	0	
0.116333	0.00722276	-1.19665	0.000176837	0.0340919	0	0	0	
0.1165	-0.000636456	1.19357	0.000187464	0.0341401	0	0	0	
0.116667	-0.00756791	-1.21155	0.000172346	0.0341063	0	0	0	
0.116833	0.00484657	1.21741	0.000155115	0.0341015	0	0	0	
0.117	-0.00652619	-1.23424	0.000130313	0.0342023	0	0	0	
0.117167	0.00610259	1.21761	0.000119161	0.0343912	0	0	0	
0.117333	-0.00870583	-1.2019	0.000150124	0.0343592	0	0	0	
0.1175	-0.00122348	1.21643	0.000231948	0.0342076	0	0	0	
0.117667	0.00622516	-1.2167	0.000285979	0.0340605	0	0	0	
0.117833	-0.00101555	1.21294	0.000229925	0.0340656	0	0	0	
0.118	-0.00768256	-1.2325	0.000149785	0.0341681	0	0	0	
0.118167	0.00516368	1.22649	9.54105E-05	0.0342503	0	0	0	
0.118333	0.00230364	-1.22404	0.000124734	0.0342106	0	0	0	
0.1185	-0.00284048	1.2188	0.00014611	0.0341043	0	0	0	
0.118667	-1.25328E-05	-1.21891	0.000112796	0.0338825	0	0	0	
0.118833	0.00788222	1.23885	8.19624E-05	0.0338155	0	0	0	
0.119	-0.00615298	-1.24566	8.10276E-05	0.0338614	0	0	0	
0.119167	0.00217289	1.25533	0.000108061	0.0340571	0	0	0	
0.119333	-0.00259422	-1.24638	0.000104116	0.034189	0	0	0	
0.1195	0.00751012	1.23565	0.000123811	0.0341699	0	0	0	
0.119667	-0.00155659	-1.24135	0.000212064	0.0339826	0	0	0	
0.119833	-0.00394825	1.26294	0.000277947	0.0339182	0	0	0	
0.12	-0.00108796	-1.25362	0.000253054	0.0340429	0	0	0	
0.120167	0.0124266	1.26273	0.000242522	0.0342489	0	0	0	
0.120333	-0.0132735	-1.25988	0.000223526	0.0343214	0	0	0	
0.1205	0.00880672	1.26347	0.000284646	0.034194	0	0	0	
0.120667	-0.00424249	-1.26523	0.000288463	0.0340396	0	0	0	
0.120833	0.000499411	1.27833	0.000274497	0.0339628	0	0	0	
0.121	0.00379874	-1.27231	0.000181373	0.034062	0	0	0	
0.121167	-0.00190795	1.26955	8.15048E-05	0.0341333	0	0	0	
0.121333	-0.00016423	-1.27852	3.48138E-05	0.0341869	0	0	0	
0.1215	0.00111584	1.28766	4.29035E-05	0.0341825	0	0	0	
0.121667	0.00492448	-1.29322	5.58573E-05	0.0342287	0	0	0	
0.121833	-0.00428328	1.28951	9.14556E-05	0.0342576	0	0	0	
0.122	0.0036213	-1.27071	9.39041E-05	0.0342183	0	0	0	
0.122167	-0.00320527	1.26321	9.40716E-05	0.034104	0	0	0	
0.122333	0.00130852	-1.28666	6.3464E-05	0.0340158	0	0	0	
0.1225	0.00310134	1.30834	7.93734E-05	0.0340833	0	0	0	
0.122667	-0.00659907	-1.31111	9.21072E-05	0.0341806	0	0	0	
0.122833	0.00551299	1.3047	0.00012047	0.0342063	0	0	0	
0.123	-0.00667693	-1.28977	0.000132813	0.0340467	0	0	0	
0.123167	0.00774722	1.30325	0.00013869	0.0338751	0	0	0	
0.123333	-0.00437163	-1.30695	0.000182376	0.0337808	0	0	0	
0.1235	-0.00555877	1.30625	0.000234337	0.0339296	0	0	0	
0.123667	0.00950934	-1.31014	0.000228797	0.0341703	0	0	0	
0.123833	-0.00623542	1.33429	0.000197754	0.0343801	0	0	0	
0.124	0.00683852	-1.32459	0.000136165	0.0343614	0	0	0	
0.124167	-0.00701788	1.33596	0.000145253	0.0343156	0	0	0	
0.124333	0.000412884	-1.33429	0.000127876	0.0342772	0	0	0	
0.1245	-6.80793E-06	1.32227	9.50242E-05	0.0342699	0	0	0	
0.124667	0.00250384	-1.30108	5.33831E-05	0.0341154	0	0	0	
0.124833	-0.00291883	1.32317	3.90937E-05	0.0339253	0	0	0	
0.125	0.00529396	-1.31843	5.11233E-05	0.0339108	0	0	0	
0.125167	-0.00847194	1.31529	8.77702E-05	0.0340355	0	0	0	
0.125333	0.00779013	-1.32639	0.000117715	0.0340842	0	0	0	
0.1255	-0.00841791	1.35379	0.000152682	0.0341084	0	0	0	
0.125667	0.000731948	-1.3634	0.000160105	0.0342281	0	0	0	
0.125833	0.000951817	1.36967	0.000135346	0.0343828	0	0	0	
0.126	0.00294484	-1.34099	0.00013565	0.034325	0	0	0	
0.126167	-0.008144	1.33203	0.000203064	0.0340695	0	0	0	
0.126333	0.011906	-1.34088	0.000278	0.0338533	0	0	0	
0.1265	-0.0112268	1.34713	0.00029653	0.0338528	0	0	0	
0.126667	0.0076091	-1.34512	0.000250042	0.0339789	0	0	0	
0.126833	-0.00721934	1.34766	0.000190962	0.0341421	0	0	0	
0.127	0.00552367	-1.34602	0.000161339	0.0341266	0	0	0	
0.127167	0.00475885	1.36621	0.00011609	0.0341058	0	0	0	
0.127333	-0.00539385	-1.35685	0.000116163	0.034025	0	0	0	
0.1275	0.00262497	1.35182	0.000111985	0.0339267	0	0	0	
0.127667	0.00210887	-1.36047	0.000106118	0.0337983	0	0	0	
0.127833	-0.00278014	1.36334	8.15916E-05	0.0338029	0	0	0	
0.128	0.00583791	-1.37144	7.9451E-05	0.0338179	0	0	0	
0.128167	-0.000948551	1.39218	8.86326E-05	0.0339697	0	0	0	
0.128333	-0.0013693	-1.3803	9.90394E-05	0.0340616	0	0	0	
0.1285	-0.00389594	1.38861	7.82819E-05	0.0341748	0	0	0	
0.128667	0.00568679	-1.38122	7.61092E-05	0.0341771	0	0	0	
0.128833	-0.00325836	1.37587	8.15018E-05	0.0340764	0	0	0	
0.129	0.0025501	-1.38703	0.000107707	0.033939	0	0	0	
0.129167	-0.00681941	1.39358	0.0001239	0.0339223	0	0	0	
0.129333	0.000889205	-1.37883	0.000116142	0.033996	0	0	0	
0.1295	0.000610751	1.39984	7.89022E-05	0.0341085	0	0	0	
0.129667	-8.54044E-05	-1.40163	9.20963E-05	0.0341625	0	0	0	
0.129833	-0.00315893	1.41441	0.000155912	0.0341576	0	0	0	
0.13	0.00113893	-1.42237	0.000195009	0.0342451	0	0	0	
0.130167	0.00744168	1.41661	0.000159354	0.0343283	0	0	0	
0.130333	-0.0167029	-1.38353	0.000156405	0.0343653	0	0	0	
0.1305	0.0112589	1.39677	0.000200524	0.0341767	0	0	0	
0.130667	-0.00301864	-1.40508	0.000258022	0.0340023	0	0	0	
0.130833	0.00376178	1.41584	0.000220575	0.0339623	0	0	0	
0.131	-0.00705634	-1.42012	0.000173492	0.0341391	0	0	0	
0.131167	0.000649269	1.40434	0.000154167	0.0342045	0	0	0	
0.131333	0.0211725	-1.38916	0.000278555	0.0340912	0	0	0	
0.1315	-0.0391399	1.41504	0.000510583	0.0339635	0	0	0	
0.131667	0.0383783	-1.42464	0.000686723	0.0340035	0	0	0	
0.131833	-0.0183781	1.43781	0.000701151	0.0342142	0	0	0	
0.132	-0.000315887	-1.4254	0.000582113	0.0343266	0	0	0	
0.132167	0.00837057	1.42303	0.000439743	0.034193	0	0	0	
0.132333	-0.0191813	-1.427	0.000309369	0.0339646	0	0	0	
0.1325	0.0306402	1.42674	0.000361003	0.033869	0	0	0	
0.132667	-0.0175424	-1.39522	0.000543931	0.0338092	0	0	0	
0.132833	-0.00534209	1.4116	0.000744848	0.0337683	0	0	0	
0.133	0.0150611	-1.42086	0.000679375	0.0337265	0	0	0	
0.133167	-0.00887586	1.45327	0.000472574	0.0338066	0	0	0	
0.133333	0.00188624	-1.46514	0.000251738	0.0340309	0	0	0	
0.1335	-0.00322024	1.45726	0.000129434	0.0342327	0	0	0	
0.133667	0.00750455	-1.42867	9.55223E-05	0.0342266	0	0	0	
0.133833	-0.00313658	1.44716	9.57313E-05	0.0340303	0	0	0	
0.134	0.00285398	-1.44957	0.000102435	0.0338501	0	0	0	
0.134167	0.000671679	1.46057	7.31919E-05	0.0338608	0	0	0	
0.134333	0.0046384	-1.45607	6.66648E-05	0.0339758	0	0	0	
0.1345	-0.0151941	1.44535	0.000112735	0.0340746	0	0	0	
0.134667	0.0147447	-1.45059	0.000192403	0.0340635	0	0	0	
0.134833	0.00382827	1.47035	0.000277295	0.0340546	0	0	0	
0.135	-0.0192282	-1.47005	0.000325901	0.0340497	0	0	0	
0.135167	0.0170214	1.4731	0.000341985	0.0341654	0	0	0	
0.135333	-0.00367046	-1.46597	0.000334823	0.0342329	0	0	0	
0.1355	-0.00543174	1.45963	0.000346407	0.0341856	0	0	0	
0.135667	0.00782338	-1.45314	0.000330639	0.0340148	0	0	0	
0.135833	-0.00635796	1.46231	0.000265648	0.0339161	0	0	0	
0.136	0.00535217	-1.47261	0.000169625	0.0339358	0	0	0	
0.136167	-0.000381065	1.48716	0.000113085	0.0340813	0	0	0	
0.136333	-0.00557707	-1.47978	9.46034E-05	0.0341956	0	0	0	
0.1365	0.00391015	1.48826	8.42913E-05	0.0341997	0	0	0	
0.136667	0.00389301	-1.48333	0.000126384	0.0341627	0	0	0	
0.136833	-0.0129678	1.48155	0.000184511	0.0340295	0	0	0	
0.137	0.0066727	-1.48763	0.00021335	0.0339773	0	0	0	
0.137167	0.0116143	1.50518	0.000186733	0.0339926	0	0	0	
0.137333	-0.0120977	-1.48531	0.000182846	0.0341309	0	0	0	
0.1375	-0.00127194	1.48725	0.000184659	0.0341186	0	0	0	
0.137667	-0.00198024	-1.48604	0.000162981	0.0340669	0	0	0	
0.137833	0.0209719	1.50095	0.000157198	0.0339546	0	0	0	
0.138	-0.0284288	-1.50363	0.000274916	0.0340785	0	0	0	
0.138167	0.00452896	1.50018	0.000437898	0.0341782	0	0	0	
0.138333	0.0158217	-1.50361	0.000617157	0.0343167	0	0	0	
0.1385	-0.026194	1.50759	0.000681579	0.0343026	0	0	0	
0.138667	0.0287034	-1.50187	0.000692951	0.0342093	0	0	0	
0.138833	-0.0182028	1.51677	0.000575048	0.0340904	0	0	0	
0.139	0.00384934	-1.5145	0.000470834	0.0341456	0	0	0	
0.139167	0.00606116	1.50816	0.000401202	0.0342391	0	0	0	
0.139333	-0.0215171	-1.49112	0.000336072	0.0342447	0	0	0	
0.1395	0.0232925	1.48626	0.000369727	0.033987	0	0	0	
0.139667	-0.013231	-1.49318	0.000438296	0.0337553	0	0	0	
0.139833	0.00613929	1.50613	0.000542796	0.0336545	0	0	0	
0.14	-0.00220286	-1.49311	0.000483616	0.0337097	0	0	0	
0.140167	-0.00285238	1.49911	0.000392117	0.0337571	0	0	0	
0.140333	0.00975471	-1.50822	0.000378348	0.0338242	0	0	0	
0.1405	-0.0241207	1.53098	0.000418993	0.0338882	0	0	0	
0.140667	0.0148943	-1.52021	0.000424938	0.0339731	0	0	0	
0.140833	0.0040852	1.52949	0.00038539	0.0339311	0	0	0	
0.141	-0.0133899	-1.54377	0.000349434	0.0340082	0	0	0	
0.141167	0.0204051	1.55839	0.000333352	0.034134	0	0	0	
0.141333	-0.0093405	-1.52582	0.000384147	0.0342111	0	0	0	
0.1415	-0.0173346	1.51819	0.000466443	0.033995	0	0	0	
0.141667	0.0150492	-1.52085	0.000491778	0.033792	0	0	0	
0.141833	0.00763619	1.54558	0.000436031	0.0337083	0	0	0	
0.142	-0.0161563	-1.52791	0.00034775	0.0338108	0	0	0	
0.142167	0.0118946	1.51564	0.000328355	0.0337991	0	0	0	
0.142333	-0.00402327	-1.54532	0.000275159	0.0339434	0	0	0	
0.1425	0.00497844	1.56953	0.000213597	0.0341175	0	0	0	
0.142667	-0.000826564	-1.55158	0.000225416	0.0342268	0	0	0	
0.142833	-0.00890345	1.55006	0.000275111	0.0341299	0	0	0	
0.143	0.00547264	-1.56842	0.000312867	0.0340733	0	0	0	
0.143167	0.0020657	1.55058	0.000335631	0.0341094	0	0	0	
0.143333	-0.00110007	-1.53347	0.000292411	0.0341385	0	0	0	
0.1435	-0.00445115	1.53233	0.000270654	0.0340552	0	0	0	
0.143667	0.00858932	-1.57743	0.00027604	0.0340603	0	0	0	
0.143833	-0.0209132	1.60038	0.000315074	0.0343344	0	0	0	
0.144	0.0212944	-1.58039	0.000366252	0.0345212	0	0	0	
0.144167	-0.00175262	1.5554	0.000380527	0.0345204	0	0	0	
0.144333	-0.0142606	-1.51993	0.000359552	0.0340989	0	0	0	
0.1445	0.0142998	1.51919	0.000445545	0.0336055	0	0	0	
0.144667	-0.00989586	-1.52664	0.00051878	0.0333356	0	0	0	
0.144833	0.00278774	1.5435	0.000589591	0.0334222	0	0	0	
0.145	0.0057741	-1.5527	0.000566145	0.0337071	0	0	0	
0.145167	-0.0100335	1.55406	0.000507042	0.0338473	0	0	0	
0.145333	0.00278852	-1.53471	0.000386106	0.0336973	0	0	0	
0.1455	0.0163918	1.5703	0.000403377	0.0335454	0	0	0	
0.145667	-0.0207889	-1.57785	0.000435594	0.0336685	0	0	0	
0.145833	0.0178808	1.59537	0.000522357	0.0339698	0	0	0	
0.146	-0.00448454	-1.58886	0.000417418	0.0342607	0	0	0	
0.146167	0.000641074	1.57642	0.000318688	0.0342273	0	0	0	
0.146333	0.000490803	-1.56145	0.000216754	0.0340438	0	0	0	
0.1465	-0.00342926	1.57986	0.000174785	0.0338245	0	0	0	
0.146667	0.00738172	-1.56604	0.00013113	0.0337825	0	0	0	
0.146833	-0.00963316	1.58191	0.000191936	0.0338923	0	0	0	
0.147	0.0105236	-1.59349	0.000218328	0.0341219	0	0	0	
0.147167	0.00347001	1.59231	0.000238049	0.034208	0	0	0	
0.147333	-0.00687239	-1.58985	0.000215383	0.034168	0	0	0	
0.1475	-0.00169632	1.6078	0.000162492	0.0340709	0	0	0	
0.147667	0.0029876	-1.58673	0.000100727	0.0340596	0	0	0	
0.147833	-0.00124097	1.59431	6.19532E-05	0.034056	0	0	0	
0.148	0.00194245	-1.57809	9.63879E-05	0.0339979	0	0	0	
0.148167	-0.00405252	1.58639	0.000120131	0.0338757	0	0	0	
0.148333	0.00462292	-1.60917	0.000138697	0.0339539	0	0	0	
0.1485	0.00200682	1.62168	0.000193434	0.0341426	0	0	0	
0.148667	-0.0157144	-1.59675	0.000281461	0.0342449	0	0	0	
0.148833	0.0121125	1.60221	0.000330702	0.034145	0	0	0	
0.149	0.0102613	-1.58318	0.000355115	0.0339563	0	0	0	
0.149167	-0.0204225	1.60319	0.000393401	0.0338834	0	0	0	
0.149333	0.018922	-1.60835	0.000412446	0.0339882	0	0	0	
0.1495	-0.00728599	1.61356	0.000362997	0.0341233	0	0	0	
0.149667	0.00628025	-1.60716	0.000303954	0.0342112	0	0	0	
0.149833	-0.00337825	1.62523	0.000370013	0.0341667	0	0	0	
0.15	-0.00638411	-1.596	0.000456561	0.0339956	0	0	0	
0.150167	0.0125762	1.59101	0.000416518	0.0337529	0	0	0	
0.150333	-0.00394243	-1.59856	0.000292389	0.0335866	0	0	0	
0.1505	0.0019817	1.60345	0.000166203	0.0336083	0	0	0	
0.150667	0.0159508	-1.5971	0.000187647	0.0336848	0	0	0	
0.150833	-0.0171826	1.62305	0.000291001	0.0337474	0	0	0	
0.151	0.00733176	-1.61909	0.000390098	0.0337759	0	0	0	
0.151167	-0.00162066	1.63266	0.000340103	0.033912	0	0	0	
0.151333	0.00742949	-1.64044	0.000290566	0.0341011	0	0	0	
0.1515	-0.0101886	1.62435	0.000259904	0.0341914	0	0	0	
0.151667	0.0130243	-1.61938	0.000293916	0.0341149	0	0	0	
0.151833	-0.0065013	1.62052	0.000286226	0.033968	0	0	0	
0.152	0.0120356	-1.6171	0.000255849	0.0338854	0	0	0	
0.152167	-0.00914492	1.64342	0.000247696	0.0339706	0	0	0	
0.152333	-0.0101362	-1.64771	0.000259305	0.0341236	0	0	0	
0.1525	0.0184942	1.63031	0.00025959	0.0341337	0	0	0	
0.152667	0.000629445	-1.62967	0.000306898	0.0340425	0	0	0	
0.152833	-0.00746413	1.63501	0.000334733	0.0339094	0	0	0	
0.153	0.0104826	-1.6295	0.000302009	0.0338516	0	0	0	
0.153167	-0.00419425	1.64237	0.000280282	0.0338664	0	0	0	
0.153333	-0.00965664	-1.63372	0.00024376	0.0339327	0	0	0	
0.1535	0.00896743	1.651	0.000234789	0.0340296	0	0	0	
0.153667	0.000916345	-1.67805	0.000249971	0.0342714	0	0	0	
0.153833	0.00315751	1.68093	0.000244415	0.0344381	0	0	0	
0.154	-0.00582646	-1.65478	0.000260097	0.0345084	0	0	0	
0.154167	0.000666287	1.64244	0.000202128	0.0343407	0	0	0	
0.154333	0.00520596	-1.63892	0.000176883	0.0341622	0	0	0	
0.1545	-0.00463225	1.64697	0.000161393	0.033964	0	0	0	
0.154667	-0.00273901	-1.65246	0.000127997	0.0339117	0	0	0	
0.154833	0.00518311	1.6551	9.85898E-05	0.0339022	0	0	0	
0.155	9.36282E-05	-1.67251	9.02841E-05	0.0340902	0	0	0	
0.155167	0.000122197	1.66924	0.000134565	0.0341679	0	0	0	
0.155333	-0.00745561	-1.66364	0.000188336	0.0341745	0	0	0	
0.1555	0.00748294	1.66949	0.000194808	0.0340769	0	0	0	
0.155667	-0.000667397	-1.68095	0.000204067	0.0341217	0	0	0	
0.155833	-0.00457609	1.67856	0.000146497	0.0342053	0	0	0	
0.156	0.00468887	-1.68469	0.000140556	0.0343101	0	0	0	
0.156167	-0.0020413	1.68312	9.50714E-05	0.0343393	0	0	0	
0.156333	0.000277885	-1.67092	8.72698E-05	0.0343311	0	0	0	
0.1565	0.000445998	1.67447	0.000101798	0.0342708	0	0	0	
0.156667	0.000214989	-1.67191	0.000118577	0.0342158	0	0	0	
0.156833	-0.00357235	1.67902	0.000105656	0.0341518	0	0	0	
0.157	-0.000399911	-1.6954	8.50526E-05	0.0341807	0	0	0	
0.157167	0.00128167	1.68403	4.95281E-05	0.0342371	0	0	0	
0.157333	0.00545054	-1.67123	4.9097E-05	0.0342813	0	0	0	
0.1575	-0.00787531	1.67971	6.95513E-05	0.0342684	0	0	0	
0.157667	0.00405731	-1.69553	0.000103843	0.0342632	0	0	0	
0.157833	-0.0030772	1.70368	0.000114985	0.0343246	0	0	0	
0.158	0.00363803	-1.70159	0.000108269	0.034399	0	0	0	
0.158167	-0.000249465	1.67799	0.000110044	0.034391	0	0	0	
0.158333	-0.00734287	-1.65909	0.000110653	0.0342381	0	0	0	
0.1585	0.00235056	1.66686	0.000131162	0.0340181	0	0	0	
0.158667	0.00427486	-1.68585	0.000217996	0.033872	0	0	0	
0.158833	-0.0100805	1.70905	0.000251113	0.0340601	0	0	0	
0.159	0.0046204	-1.69529	0.00025119	0.034338	0	0	0	
0.159167	-0.000265421	1.6856	0.000149497	0.0344204	0	0	0	
0.159333	0.000645826	-1.67461	9.55176E-05	0.0341881	0	0	0	
0.1595	-0.000674203	1.68986	5.29796E-05	0.0339858	0	0	0	
0.159667	-0.0117492	-1.69126	5.7289E-05	0.0339911	0	0	0	
0.159833	0.0058305	1.69879	0.000117796	0.0341464	0	0	0	
0.16	0.00229651	-1.66987	0.000166961	0.034125	0	0	0	
0.160167	-0.00460578	1.68326	0.000171316	0.0339946	0	0	0	
0.160333	0.00202881	-1.69763	0.00012615	0.0339249	0	0	0	
0.1605	-0.000807175	1.71311	6.22598E-05	0.0340864	0	0	0	
0.160667	-0.000962605	-1.71033	3.42357E-05	0.0342402	0	0	0	
0.160833	-0.00129198	1.71129	4.14773E-05	0.0343099	0	0	0	
0.161	0.000200521	-1.69529	5.6554E-05	0.0342196	0	0	0	
0.161167	-0.00310886	1.70535	7.17239E-05	0.0341857	0	0	0	
0.161333	0.0021375	-1.68764	7.43063E-05	0.0340842	0	0	0	
0.1615	0.00319183	1.69677	6.70423E-05	0.0340358	0	0	0	
0.161667	-0.00435368	-1.69833	7.53473E-05	0.0340224	0	0	0	
0.161833	0.000735315	1.71671	6.75164E-05	0.0341472	0	0	0	
0.162	0.00221591	-1.70574	8.76183E-05	0.0342403	0	0	0	
0.162167	-0.00123759	1.70693	7.08836E-05	0.0342137	0	0	0	
0.162333	-0.00337223	-1.68064	9.7045E-05	0.0340218	0	0	0	
0.1625	0.0117524	1.70311	0.000115358	0.0338844	0	0	0	
0.162667	-0.00635514	-1.70435	0.000176746	0.0339123	0	0	0	
0.162833	0.00363073	1.71044	0.000142738	0.0339772	0	0	0	
0.163	0.00175075	-1.70905	0.000132674	0.0340023	0	0	0	
0.163167	-0.00673051	1.7321	0.000109678	0.0340512	0	0	0	
0.163333	0.0115847	-1.70523	0.000136606	0.0341438	0	0	0	
0.1635	-0.00696798	1.72142	0.000184005	0.0341874	0	0	0	
0.163667	0.00676658	-1.70847	0.000238717	0.0341311	0	0	0	
0.163833	-0.00569079	1.70609	0.000262046	0.0340261	0	0	0	
0.164	0.00680065	-1.70927	0.000203981	0.0339569	0	0	0	
0.164167	-0.0128085	1.72537	0.00016376	0.0339888	0	0	0	
0.164333	0.00512628	-1.70111	0.000164406	0.0340161	0	0	0	
0.1645	-0.00319191	1.71125	0.000194419	0.0339751	0	0	0	
0.164667	0.00669344	-1.70795	0.000186324	0.0339002	0	0	0	
0.164833	-0.0119621	1.71513	0.000193371	0.0338898	0	0	0	
0.165	0.00866097	-1.73305	0.000199827	0.0340161	0	0	0	
0.165167	-0.00371059	1.75286	0.000174007	0.034187	0	0	0	
0.165333	0.000476128	-1.73852	0.000142217	0.0343057	0	0	0	
0.1655	-0.0041054	1.72461	0.000128982	0.0342596	0	0	0	
0.165667	0.00711633	-1.697	0.000144397	0.0340242	0	0	0	
0.165833	-0.012333	1.70235	0.000178218	0.0338028	0	0	0	
0.166	0.00040077	-1.73844	0.000205668	0.0338394	0	0	0	
0.166167	-0.00332936	1.73723	0.000229195	0.0340455	0	0	0	
0.166333	0.00875935	-1.72337	0.000222165	0.0342105	0	0	0	
0.1665	-0.0088021	1.75124	0.000190855	0.0342464	0	0	0	
0.166667	0.000578569	-1.74447	0.000160812	0.0342366	0	0	0	
0.166833	-0.00295742	1.72633	0.000138563	0.0342051	0	0	0	
0.167	-0.00561551	-1.71506	0.000112956	0.034126	0	0	0	
0.167167	0.00638707	1.71925	0.000112135	0.0339713	0	0	0	
0.167333	-0.00946651	-1.72546	0.000120202	0.0339133	0	0	0	
0.1675	0.00260442	1.74436	0.000151989	0.0339456	0	0	0	
0.167667	-0.000468927	-1.73065	0.000210701	0.0340332	0	0	0	
0.167833	-0.0166842	1.73148	0.000266326	0.0340633	0	0	0	
0.168	0.0168625	-1.72338	0.000315987	0.0340652	0	0	0	
0.168167	-0.00603143	1.72494	0.000294908	0.0339426	0	0	0	
0.168333	-0.00308759	-1.7337	0.000245681	0.0338894	0	0	0	
0.1685	-0.000583977	1.74087	0.000151563	0.0339071	0	0	0	
0.168667	-0.00142869	-1.71656	9.82766E-05	0.0339505	0	0	0	
0.168833	0.00529663	1.753	5.51653E-05	0.0339955	0	0	0	
0.169	-0.00344663	-1.76519	7.64836E-05	0.0341668	0	0	0	
0.169167	-0.00170817	1.74927	6.76943E-05	0.0342955	0	0	0	
0.169333	0.000999453	-1.74264	7.03511E-05	0.0343243	0	0	0	
0.1695	-0.00291998	1.74844	7.46919E-05	0.0341946	0	0	0	
0.169667	0.00496969	-1.7211	9.44933E-05	0.0340937	0	0	0	
0.169833	0.00135427	1.73468	0.000109999	0.0339778	0	0	0	
0.17	0.00322609	-1.72255	8.70634E-05	0.0339007	0	0	0	
0.170167	-0.000824466	1.73091	6.21262E-05	0.0338207	0	0	0	
0.170333	-0.00926743	-1.74831	5.8411E-05	0.0338927	0	0	0	
0.1705	0.0108341	1.73273	0.000130947	0.0338824	0	0	0	
0.170667	-0.00370973	-1.70479	0.000213721	0.0338262	0	0	0	
0.170833	-0.000493802	1.73988	0.00029658	0.0337313	0	0	0	
0.171	0.0067951	-1.7358	0.000306204	0.0337541	0	0	0	
0.171167	-0.0189371	1.747	0.000290852	0.0338439	0	0	0	
0.171333	0.0112543	-1.75905	0.000269064	0.0339927	0	0	0	
0.1715	-0.0046388	1.7716	0.000257711	0.0341086	0	0	0	
0.171667	-0.00292111	-1.74312	0.00026175	0.0342505	0	0	0	
0.171833	0.00468829	1.73163	0.000187274	0.0341337	0	0	0	
0.172	-0.00163313	-1.7192	0.000156961	0.0338986	0	0	0	
0.172167	-0.00465913	1.74512	0.000159993	0.0336949	0	0	0	
0.172333	0.00222138	-1.74122	0.000252639	0.0337264	0	0	0	
0.1725	-0.00756907	1.76326	0.000288703	0.0338655	0	0	0	
0.172667	0.00636764	-1.73496	0.000257167	0.0340183	0	0	0	
0.172833	0.00064205	1.74156	0.000170884	0.0339352	0	0	0	
0.173	-0.00323501	-1.74475	0.000119393	0.0338781	0	0	0	
0.173167	-0.00159957	1.75586	0.000121966	0.0337966	0	0	0	
0.173333	-0.00147737	-1.75547	0.000153808	0.0339232	0	0	0	
0.1735	-0.00194281	1.77373	0.000164726	0.0340195	0	0	0	
0.173667	0.0048376	-1.74394	0.000150896	0.0341224	0	0	0	
0.173833	0.00321296	1.74015	0.000124842	0.0340506	0	0	0	
0.174	-0.00871306	-1.73394	0.000117367	0.0339332	0	0	0	
0.174167	-0.00116648	1.75579	0.000115397	0.0338073	0	0	0	
0.174333	0.000630498	-1.77179	0.000126298	0.0339746	0	0	0	
0.1745	-0.000205279	1.77452	8.92992E-05	0.0341428	0	0	0	
0.174667	0.00115887	-1.76834	7.65289E-05	0.0343044	0	0	0	
0.174833	-0.00195224	1.76474	5.87415E-05	0.0342476	0	0	0	
0.175	-0.00353864	-1.74481	0.000106978	0.0340809	0	0	0	
0.175167	0.00626118	1.7531	0.000190233	0.033887	0	0	0	
0.175333	-0.00760464	-1.75442	0.000223849	0.0338398	0	0	0	
0.1755	-0.000555705	1.75222	0.000234798	0.0338483	0	0	0	
0.175667	0.0131741	-1.75956	0.000180668	0.0339267	0	0	0	
0.175833	-0.00671282	1.75897	0.000193474	0.0339343	0	0	0	
0.176	-0.0050705	-1.75284	0.000175574	0.0339368	0	0	0	
0.176167	-0.00647765	1.75737	0.00014317	0.0339388	0	0	0	
0.176333	0.0131116	-1.7551	0.000137749	0.033909	0	0	0	
0.1765	-0.0021738	1.7713	0.000135638	0.0339497	0	0	0	
0.176667	-0.00712705	-1.77279	0.000132313	0.0340271	0	0	0	
0.176833	-0.00366452	1.77625	0.00012421	0.0341245	0	0	0	
0.177	0.00404918	-1.86231	0.000130367	0.0344674	0	0	0	
0.177167	0.000341638	1.87193	0.000121662	0.0348865	0	0	0	
0.177333	-0.00795628	-1.49423	9.20119E-05	0.0341639	0	0	0	
0.1775	0.00175917	0.802039	9.87565E-05	0.0306827	0	0	0	
0.177667	0.00286256	-0.273861	0.000118542	0.0246717	0	0	0	
0.177833	-0.00392871	1.41536	0.000148252	0.0221392	0	0	0	
0.178	-0.00957442	-1.99222	0.000173832	0.0258233	0	0	0	
0.178167	0.0106635	2.00333	0.000206753	0.0327077	0	0	0	
0.178333	-0.00283362	-1.96475	0.000203598	0.0370539	0	0	0	
0.1785	-0.00436588	1.71476	0.000161052	0.0366512	0	0	0	
0.178667	0.00516495	-1.00475	0.000124708	0.03178	0	0	0	
0.178833	-0.00768963	1.35337	0.000113136	0.0302135	0	0	0	
0.179	0.016392	-1.41045	0.000164285	0.0281207	0	0	0	
0.179167	-0.014599	1.74453	0.000221979	0.0308407	0	0	0	
0.179333	0.00745269	-1.86538	0.0002925	0.0315767	0	0	0	
0.1795	0.0114391	1.76377	0.000363635	0.0336597	0	0	0	
0.179667	-0.0195354	-1.61326	0.000405125	0.0339612	0	0	0	
0.179833	0.0115751	1.58743	0.000377549	0.0326132	0	0	0	
0.18	-0.00292397	-1.73221	0.000301373	0.0317489	0	0	0	
0.180167	0.00172542	1.84705	0.000276993	0.0325258	0	0	0	
0.180333	0.0172591	-1.84926	0.000287862	0.0340768	0	0	0	
0.1805	-0.0329062	1.80313	0.000354386	0.0350781	0	0	0	
0.180667	0.0173988	-1.79504	0.000406244	0.0349943	0	0	0	
0.180833	0.00394085	1.81621	0.000474599	0.0346864	0	0	0	
0.181	-0.0195111	-1.84164	0.000416598	0.0347466	0	0	0	
0.181167	0.0103233	1.82372	0.000367421	0.0350534	0	0	0	
0.181333	0.0101493	-1.71097	0.00034049	0.0347842	0	0	0	
0.1815	-0.0172047	1.65182	0.000330888	0.0339352	0	0	0	
0.181667	-0.00194067	-1.7082	0.000290149	0.0329401	0	0	0	
0.181833	-0.000415292	1.86777	0.000176997	0.0332026	0	0	0	
0.182	0.0205383	-2.1169	0.000137692	0.0349976	0	0	0	
0.182167	0.0201779	1.86195	0.000483516	0.0365003	0	0	0	
0.182333	-0.20765	0.02394	0.00142975	0.033706	0	0	0	
0.1825	0.189816	-1.01755	0.00362504	0.0302304	0	0	0	
0.182667	-0.0926967	0.542641	0.00400807	0.0230481	0	0	0	
0.182833	0.0374758	1.30106	0.00341719	0.0249284	0	0	0	
0.183	-0.0283588	-2.1806	0.00140916	0.0287844	0	0	0	
0.183167	0.00262578	2.33853	0.000797696	0.037846	0	0	0	
0.183333	0.0338846	-2.37227	0.000521807	0.0415016	0	0	0	
0.1835	-0.100654	2.65103	0.00121927	0.0449623	0	0	0	
0.183667	0.0922874	-1.80065	0.00267977	0.0509343	0	0	0	
0.183833	0.00597235	1.10859	0.00329357	0.052305	0	0	0	
0.184	-0.0119921	-1.14027	0.00261962	0.0441804	0	0	0	
0.184167	0.00154758	1.73166	0.00112744	0.0338113	0	0	0	
0.184333	-0.0151991	-1.87434	0.000668292	0.0296508	0	0	0	
0.1845	0.0464995	1.56074	0.000732333	0.0320639	0	0	0	
0.184667	-0.0469905	-1.32704	0.00089735	0.0315594	0	0	0	
0.184833	0.0210244	1.50362	0.00082263	0.0293805	0	0	0	
0.185	-0.00262674	-1.85796	0.000657706	0.0297604	0	0	0	
0.185167	0.00287135	1.95728	0.000417807	0.0325284	0	0	0	
0.185333	0.00994612	-1.79525	0.000345471	0.0350869	0	0	0	
0.1855	-0.049832	1.84354	0.000431798	0.0354288	0	0	0	
0.185667	-0.00952439	-1.24184	0.000953938	0.0387869	0	0	0	
0.185833	0.00622553	0.622273	0.00126332	0.0405065	0	0	0	
0.186	-0.0619176	-0.604303	0.00181194	0.0406795	0	0	0	
0.186167	0.00924248	1.68503	0.00145517	0.0340896	0	0	0	
0.186333	0.0103863	-1.87648	0.00122709	0.0318388	0	0	0	
0.1865	-0.00798347	1.71209	0.000587888	0.0314855	0	0	0	
0.186667	-0.0638623	-1.01358	0.000655189	0.0334378	0	0	0	
0.186833	0.0693529	0.323416	0.00103956	0.0238718	0	0	0	
0.187	-0.0361147	-0.369697	0.00144548	0.018323	0	0	0	
0.187167	0.0121321	1.30178	0.0015065	0.0176045	0	0	0	
0.187333	-0.0205975	-1.54449	0.00101727	0.025474	0	0	0	
0.1875	0.0117996	1.74862	0.000607323	0.0303706	0	0	0	
0.187667	0.00365143	-1.77849	0.000361055	0.0315938	0	0	0	
0.187833	-0.00340632	1.80641	0.000329356	0.0335349	0	0	0	
0.188	0.00138577	-1.91097	0.000233642	0.0346001	0	0	0	
0.188167	0.00947094	2.1463	0.000254524	0.0360586	0	0	0	
0.188333	0.00556835	-1.88439	0.00032015	0.0372999	0	0	0	
0.1885	-0.0089925	1.71322	0.000299403	0.0370717	0	0	0	
0.188667	0.00503908	-1.69057	0.000275409	0.0352306	0	0	0	
0.188833	0.00612375	1.7071	0.000232278	0.0333552	0	0	0	
0.189	9.23675E-05	-1.83353	0.000246339	0.0333104	0	0	0	
0.189167	-7.98832E-05	2.24402	0.000235589	0.0354793	0	0	0	
0.189333	0.0119957	-2.12135	0.000234011	0.0384721	0	0	0	
0.1895	-0.0106703	2.00045	0.000249796	0.0399072	0	0	0	
0.189667	0.00796192	-1.82366	0.000193213	0.0389433	0	0	0	
0.189833	-0.00258368	1.76032	0.000140657	0.0364492	0	0	0	
0.19	0.00478362	-1.79485	9.73E-05	0.0349318	0	0	0	
0.190167	-0.00362705	1.82926	8.69993E-05	0.034275	0	0	0	
0.190333	0.0037133	-1.80947	7.59945E-05	0.0344055	0	0	0	
0.1905	-0.00518829	1.7373	8.50335E-05	0.034415	0	0	0	
0.190667	-0.000651735	-1.70945	7.72591E-05	0.0339262	0	0	0	
0.190833	0.00286649	1.76075	8.58079E-05	0.0334212	0	0	0	
0.191	-0.00110352	-1.78445	8.53516E-05	0.0334043	0	0	0	
0.191167	0.000691495	1.7943	8.36316E-05	0.033784	0	0	0	
0.191333	0.00733525	-1.78816	0.000167152	0.0341395	0	0	0	
0.1915	-0.0127973	1.78026	0.000242137	0.0341606	0	0	0	
0.191667	0.00618058	-1.78312	0.000258362	0.0341323	0	0	0	
0.191833	0.000134155	1.78963	0.000201393	0.0340958	0	0	0	
0.192	0.0040657	-1.7665	0.000128262	0.0340838	0	0	0	
0.192167	-0.00715102	1.77117	0.000116751	0.0340014	0	0	0	
0.192333	0.00693904	-1.7706	0.000129647	0.0339272	0	0	0	
0.1925	-0.0029176	1.78695	0.000139558	0.0339313	0	0	0	
0.192667	0.00663311	-1.7885	0.000136713	0.0340958	0	0	0	
0.192833	-0.00701541	1.78221	0.000138637	0.034142	0	0	0	
0.193	-0.00203861	-1.77803	0.000129022	0.0341122	0	0	0	
0.193167	0.00898621	1.80397	0.000164899	0.034155	0	0	0	
0.193333	-0.00878493	-1.78958	0.00014536	0.0342435	0	0	0	
0.1935	0.00170031	1.79277	0.000220182	0.0343583	0	0	0	
0.193667	0.000439103	-1.76678	0.000220829	0.0342684	0	0	0	
0.193833	0.0042309	1.76594	0.000186307	0.0340385	0	0	0	
0.194	-0.00364029	-1.76082	0.000118501	0.0338417	0	0	0	
0.194167	-0.00531213	1.76858	6.84909E-05	0.033749	0	0	0	
0.194333	0.00163815	-1.77435	8.97583E-05	0.0338523	0	0	0	
0.1945	0.0108181	1.79058	8.23741E-05	0.0339964	0	0	0	
0.194667	-0.00862215	-1.78093	0.00013338	0.0340985	0	0	0	
0.194833	-0.00165774	1.78385	0.000130819	0.0341359	0	0	0	
0.195	0.00146104	-1.77432	0.000159341	0.0341426	0	0	0	
0.195167	0.00439195	1.78497	0.00014704	0.034115	0	0	0	
0.195333	-0.0070825	-1.77824	0.000154866	0.0341833	0	0	0	
0.1955	0.0074269	1.76377	0.000152903	0.0340838	0	0	0	
0.195667	-0.000696711	-1.76218	0.000173678	0.0339912	0	0	0	
0.195833	-0.00136962	1.76362	0.000195065	0.0338116	0	0	0	
0.196	0.0074825	-1.76294	0.000170309	0.0338279	0	0	0	
0.196167	-0.00715399	1.77947	0.000137817	0.0338394	0	0	0	
0.196333	0.000356935	-1.77413	0.000105998	0.0339843	0	0	0	
0.1965	-0.00506691	1.77266	8.9346E-05	0.0339766	0	0	0	
0.196667	0.0159456	-1.76709	9.92642E-05	0.0340524	0	0	0	
0.196833	-0.0117955	1.76215	0.000164046	0.0339313	0	0	0	
0.197	0.00618279	-1.75507	0.000212518	0.033928	0	0	0	
0.197167	-0.00647708	1.74963	0.000227452	0.0338073	0	0	0	
0.197333	0.00369688	-1.7538	0.000190065	0.0337674	0	0	0	
0.1975	0.000836584	1.77372	0.000137421	0.0337272	0	0	0	
0.197667	0.00144875	-1.76369	8.98279E-05	0.0338513	0	0	0	
0.197833	-0.0112395	1.75123	0.000118853	0.0338525	0	0	0	
0.198	0.00941907	-1.76498	0.0001995	0.0338704	0	0	0	
0.198167	0.00193288	1.77408	0.000242154	0.0338923	0	0	0	
0.198333	1.93213E-05	-1.75422	0.000248828	0.0339405	0	0	0	
0.1985	-0.0116796	1.76232	0.000246621	0.033953	0	0	0	
0.198667	0.00763955	-1.76341	0.000239951	0.0339488	0	0	0	
0.198833	-0.000352275	1.77406	0.000181967	0.0339748	0	0	0	
0.199	-0.00162142	-1.7785	0.000146492	0.0341288	0	0	0	
0.199167	-0.00541122	1.75625	0.00018574	0.0341231	0	0	0	
0.199333	0.00647551	-1.76832	0.000214214	0.0341251	0	0	0	
0.1995	0.00548305	1.77901	0.000194807	0.0340901	0	0	0	
0.199667	-0.00930425	-1.76127	0.000147349	0.0341165	0	0	0	
0.199833	-0.00307162	1.75664	0.000157765	0.0341049	0	0	0	
0.2	0.00491591	-1.7663	0.000207527	0.0340539	0	0	0	
0.200167	0.00503773	1.76779	0.00017507	0.034	0	0	0	
0.200333	-0.0142451	-1.77091	0.000169663	0.0341066	0	0	0	
0.2005	0.00334135	1.75491	0.000156499	0.0340792	0	0	0	
0.200667	0.0105598	-1.74865	0.000205279	0.034008	0	0	0	
0.200833	-0.00525101	1.75007	0.000201052	0.0338969	0	0	0	
0.201	-0.00853522	-1.74676	0.000189253	0.0338605	0	0	0	
0.201167	0.00880713	1.7554	0.000173772	0.0338686	0	0	0	
0.201333	-0.00618525	-1.75083	0.00016096	0.0338898	0	0	0	
0.2015	0.000811411	1.74841	0.000135211	0.0338599	0	0	0	
0.201667	-0.00271083	-1.74904	0.00011724	0.0338701	0	0	0	
0.201833	0.00133081	1.74757	0.000101337	0.0338396	0	0	0	
0.202	-0.00245876	-1.74798	0.000104247	0.0338823	0	0	0	
0.202167	-0.00266179	1.75469	8.97837E-05	0.0339261	0	0	0	
0.202333	0.000740104	-1.73598	7.76287E-05	0.0339176	0	0	0	
0.2025	0.00613806	1.74673	7.59274E-05	0.0338506	0	0	0	
0.202667	-0.00699432	-1.75553	9.36954E-05	0.0338499	0	0	0	
0.202833	-0.00208235	1.76003	0.000100404	0.0339285	0	0	0	
0.203	0.00138395	-1.76934	9.68469E-05	0.0341052	0	0	0	
0.203167	0.000434952	1.76454	9.0715E-05	0.0342376	0	0	0	
0.203333	0.00116427	-1.7458	8.52501E-05	0.0342453	0	0	0	
0.2035	0.00351515	1.75706	7.83349E-05	0.0341657	0	0	0	
0.203667	-0.00355283	-1.75564	6.40258E-05	0.0341156	0	0	0	
0.203833	-0.000810629	1.753	5.67974E-05	0.0341132	0	0	0	
0.204	0.0011226	-1.73924	6.79154E-05	0.0340887	0	0	0	
0.204167	0.00166931	1.73977	8.3815E-05	0.0339304	0	0	0	
0.204333	-0.00122973	-1.74562	0.000106683	0.0339161	0	0	0	
0.2045	-0.000195819	1.75046	0.00010639	0.0339174	0	0	0	
0.204667	0.00752868	-1.75486	0.000113553	0.0340702	0	0	0	
0.204833	-0.000796658	1.74978	0.000144954	0.0341091	0	0	0	
0.205	-0.00796216	-1.74074	0.000168679	0.0341385	0	0	0	
0.205167	0.00429474	1.75815	0.000159124	0.0341083	0	0	0	
0.205333	8.31557E-05	-1.75122	0.000126477	0.0341907	0	0	0	
0.2055	0.000911276	1.74931	8.00112E-05	0.0342168	0	0	0	
0.205667	0.000571575	-1.75255	7.94353E-05	0.0342605	0	0	0	
0.205833	0.00273628	1.75883	6.31454E-05	0.0341904	0	0	0	
0.206	-0.001997	-1.75742	8.96951E-05	0.0342951	0	0	0	
0.206167	0.000721347	1.73501	8.39226E-05	0.0342513	0	0	0	
0.206333	0.00303098	-1.7192	9.23793E-05	0.0340874	0	0	0	
0.2065	-0.00727295	1.73421	8.97209E-05	0.033916	0	0	0	
0.206667	0.00849003	-1.72957	0.000112523	0.0338686	0	0	0	
0.206833	0.000652799	1.72792	0.000162605	0.0339038	0	0	0	
0.207	-0.00893279	-1.72313	0.000204516	0.0338935	0	0	0	
0.207167	0.0089752	1.72304	0.000224184	0.0338125	0	0	0	
0.207333	-0.00610003	-1.73977	0.000189761	0.0338965	0	0	0	
0.2075	0.00372224	1.73383	0.000169715	0.0340312	0	0	0	
0.207667	0.00464572	-1.71989	0.000171826	0.0341328	0	0	0	
0.207833	-0.00400809	1.72297	0.000164624	0.0340828	0	0	0	
0.208	-0.000764157	-1.72001	0.000142665	0.0339518	0	0	0	
0.208167	0.00195544	1.74379	8.02057E-05	0.033954	0	0	0	
0.208333	0.00300623	-1.73313	0.000115358	0.0340621	0	0	0	
0.2085	-0.00647909	1.72755	0.000180921	0.0341231	0	0	0	
0.208667	0.00871837	-1.7348	0.000248134	0.0341727	0	0	0	
0.208833	-0.00532499	1.74064	0.000222083	0.0341938	0	0	0	
0.209	-0.00219082	-1.71238	0.000164674	0.0342235	0	0	0	
0.209167	0.000571921	1.7178	0.00011249	0.0341019	0	0	0	
0.209333	0.000364964	-1.69324	0.00014301	0.0339273	0	0	0	
0.2095	0.00395661	1.71274	0.000203897	0.033774	0	0	0	
0.209667	-0.00306708	-1.7194	0.000251609	0.0338002	0	0	0	
0.209833	0.000635537	1.72162	0.000269468	0.0338676	0	0	0	
0.21	0.0012616	-1.71996	0.000264024	0.0340011	0	0	0	
0.210167	-0.00895761	1.72328	0.000228009	0.0340294	0	0	0	
0.210333	-0.00607354	-1.71056	0.000184203	0.0340475	0	0	0	
0.2105	0.0131507	1.7116	0.000163727	0.033978	0	0	0	
0.210667	-0.000491126	-1.69963	0.000196919	0.0339713	0	0	0	
0.210833	-0.00435041	1.69776	0.000189197	0.0338809	0	0	0	
0.211	-0.00472973	-1.70612	0.000134557	0.0338727	0	0	0	
0.211167	0.00158819	1.70198	0.000133949	0.0338255	0	0	0	
0.211333	0.00113642	-1.68965	0.000121573	0.0338181	0	0	0	
0.2115	-0.000122873	1.70222	0.000115076	0.0337893	0	0	0	
0.211667	0.00131985	-1.70161	5.12615E-05	0.0338656	0	0	0	
0.211833	-0.00567795	1.69417	4.84917E-05	0.0338846	0	0	0	
0.212	0.00498946	-1.69225	6.81562E-05	0.0339243	0	0	0	
0.212167	-0.00777303	1.69916	9.56191E-05	0.0338711	0	0	0	
0.212333	0.00881332	-1.69914	0.000130912	0.0339313	0	0	0	
0.2125	-0.00542912	1.70531	0.000140367	0.0339604	0	0	0	
0.212667	0.000571934	-1.70059	0.00015413	0.0339838	0	0	0	
0.212833	0.00188746	1.71145	0.000142778	0.0339964	0	0	0	
0.213	0.000103277	-1.703	0.000104559	0.0340958	0	0	0	
0.213167	-0.00803322	1.69165	0.00012235	0.0341213	0	0	0	
0.213333	0.00992536	-1.68477	0.000138031	0.0340736	0	0	0	
0.2135	-0.00278555	1.66993	0.000169696	0.0339495	0	0	0	
0.213667	-0.00426595	-1.6256	0.000141289	0.0336874	0	0	0	
0.213833	0.00578086	1.60259	0.000106489	0.0330625	0	0	0	
0.214	0.000347914	-1.68822	0.000100078	0.0327076	0	0	0	
0.214167	-0.00276489	1.71555	0.000101716	0.0329076	0	0	0	
0.214333	0.000172923	-1.72477	0.000136455	0.0336925	0	0	0	
0.2145	0.000789853	1.70848	0.000188176	0.0342997	0	0	0	
0.214667	0.00119351	-1.66503	0.000189259	0.0343328	0	0	0	
0.214833	0.00609028	1.61805	0.000160521	0.0339824	0	0	0	
0.215	-0.0127634	-1.61389	0.00013551	0.0336111	0	0	0	
0.215167	0.0112819	1.58891	0.000179675	0.0332557	0	0	0	
0.215333	-0.00786435	-1.63909	0.000241095	0.0330455	0	0	0	
0.2155	0.00240098	1.77492	0.000249023	0.0331926	0	0	0	
0.215667	0.00360585	-1.87704	0.000190683	0.0343102	0	0	0	
0.215833	0.00262786	1.43441	0.000174396	0.0355567	0	0	0	
0.216	-0.00903908	-0.0344485	0.000163237	0.0332381	0	0	0	
0.216167	-0.0184344	-0.0875487	0.000298052	0.0245379	0	0	0	
0.216333	-0.0194049	-0.513662	0.000630581	0.0204697	0	0	0	
0.2165	-0.0140136	1.54916	0.000678339	0.0234209	0	0	0	
0.216667	0.00519014	-1.40773	0.000566789	0.0304351	0	0	0	
0.216833	-0.00277059	1.19027	0.000191756	0.0308641	0	0	0	
0.217	0.00427575	-1.69321	0.000145295	0.0281583	0	0	0	
0.217167	-0.0203583	1.80655	0.00025345	0.0285599	0	0	0	
0.217333	0.0197522	-0.800453	0.000328241	0.0286623	0	0	0	
0.2175	-0.00845068	0.456947	0.000359586	0.0235671	0	0	0	
0.217667	-0.00228841	-0.861633	0.000274645	0.0211983	0	0	0	
0.217833	0.0005664	0.943582	0.000207228	0.0195329	0	0	0	
0.218	-7.88943E-05	-0.516104	0.000127017	0.0196427	0	0	0	
0.218167	-0.00405696	0.375311	7.21164E-05	0.0157049	0	0	0	
0.218333	0.00707885	-0.399532	6.66467E-05	0.0150501	0	0	0	
0.2185	-0.0104804	0.473456	0.000112944	0.0164527	0	0	0	
0.218667	0.0122961	-0.336386	0.000167076	0.01796	0	0	0	
0.218833	-0.0105895	0.246941	0.000197293	0.0134138	0	0	0	
0.219	0.00150651	-0.0494361	0.000182438	0.00940644	0	0	0	
0.219167	-0.00511954	-0.015343	0.000142558	0.00454542	0	0	0	
0.219333	0.00723389	-0.210391	0.000123464	0.00409823	0	0	0	
0.2195	-0.00248735	0.336671	0.000119775	0.00415965	0	0	0	
0.219667	0.000648338	-0.290074	0.000117817	0.00625253	0	0	0	
0.219833	0.00053389	0.193423	0.00011073	0.00658674	0	0	0	
0.22	-0.00277732	-0.114927	0.000106889	0.00577619	0	0	0	
0.220167	0.00335422	0.0494503	0.00010762	0.00310221	0	0	0	
0.220333	-0.00538438	0.00916588	9.77353E-05	0.00228018	0	0	0	
0.2205	0.00221737	0.00253984	0.000112722	0.00183979	0	0	0	
0.220667	0.00823565	-0.0986385	0.000181282	0.00164523	0	0	0	
0.220833	-0.0094707	0.16415	0.000225138	0.00152759	0	0	0	
0.221	0.00518268	-0.230916	0.000212869	0.00270422	0	0	0	
0.221167	-0.000822118	0.132388	0.000152538	0.00340374	0	0	0	
0.221333	0.00165822	-0.121071	8.46279E-05	0.00356201	0	0	0	
0.2215	-0.00454313	0.246722	8.49895E-05	0.00369733	0	0	0	
0.221667	0.00417833	-0.0273454	0.000104547	0.00365389	0	0	0	
0.221833	-0.00655387	-0.0697591	0.000149125	0.00312799	0	0	0	
0.222	0.00704018	-0.0630035	0.000158137	0.0020496	0	0	0	
0.222167	-0.00329769	0.117083	0.000131535	0.00178475	0	0	0	
0.222333	0.000634283	-0.0705739	0.000103418	0.00201545	0	0	0	
0.2225	0.000975594	0.0528601	6.50223E-05	0.00186473	0	0	0	
0.222667	0.000201057	-0.0329644	6.83053E-05	0.00140997	0	0	0	
0.222833	-0.00349537	0.171971	0.000101334	0.00135835	0	0	0	
0.223	0.00463511	-0.240816	0.000155451	0.00257069	0	0	0	
0.223167	-0.00276676	0.227214	0.000168018	0.0042188	0	0	0	
0.223333	0.00400761	-0.0799493	0.000129899	0.00478142	0	0	0	
0.2235	-0.00306956	0.0527491	9.1951E-05	0.00356928	0	0	0	
0.223667	0.00555345	-0.190587	7.62064E-05	0.00264413	0	0	0	
0.223833	0.00118937	0.159561	9.69321E-05	0.00272127	0	0	0	
0.224	-0.00345542	-0.137707	0.000119146	0.00363752	0	0	0	
0.224167	0.0062238	0.0229259	0.000133292	0.00328131	0	0	0	
0.224333	-0.00497173	-0.0464699	0.000127726	0.00312506	0	0	0	
0.2245	-0.000392931	0.00296293	0.000112745	0.00206283	0	0	0	
0.224667	0.00685237	-0.0872641	0.000114775	0.00159382	0	0	0	
0.224833	0.000109199	0.0965407	0.000111153	0.00171136	0	0	0	
0.225	-0.0068222	-0.293117	0.00014048	0.00253418	0	0	0	
0.225167	0.0105631	0.28842	0.000153796	0.00398906	0	0	0	
0.225333	-0.00482781	-0.348423	0.0001717	0.00560942	0	0	0	
0.2255	-0.00180684	0.10656	0.000141561	0.00590378	0	0	0	
0.225667	-0.0026817	-0.0308462	9.62061E-05	0.00506616	0	0	0	
0.225833	0.00442895	0.0760856	5.91189E-05	0.00320908	0	0	0	
0.226	-0.00288412	-0.079781	6.34514E-05	0.00234473	0	0	0	
0.226167	-0.00248175	0.117806	7.21121E-05	0.00282399	0	0	0	
0.226333	0.0014253	-0.200918	8.44559E-05	0.00348071	0	0	0	
0.2265	-0.00263935	0.155412	7.13555E-05	0.00400434	0	0	0	
0.226667	-0.00128419	-0.0654622	5.94248E-05	0.00337788	0	0	0	
0.226833	0.00523862	0.0449798	8.1435E-05	0.00234801	0	0	0	
0.227	-0.00336953	-0.0444314	0.000126004	0.00154848	0	0	0	
0.227167	0.00267855	0.0319968	0.000149925	0.00136553	0	0	0	
0.227333	-0.0024742	-0.131606	0.00011176	0.00220793	0	0	0	
0.2275	0.00157086	0.184202	9.94137E-05	0.00339234	0	0	0	
0.227667	0.00704612	-0.101854	0.000120857	0.00382336	0	0	0	
0.227833	-0.00717283	0.0853343	0.000159849	0.0031422	0	0	0	
0.228	0.00244582	-0.0602547	0.000169294	0.00302554	0	0	0	
0.228167	0.00432875	-0.220806	0.000162073	0.00382912	0	0	0	
0.228333	-0.0039055	0.608122	0.000142521	0.00713078	0	0	0	
0.2285	0.00403657	-0.211714	0.000171639	0.00793113	0	0	0	
0.228667	0.00566398	-0.036007	0.000200058	0.00681961	0	0	0	
0.228833	-0.00555256	0.0797803	0.000216434	0.00336401	0	0	0	
0.229	-9.74172E-05	-0.165217	0.000144722	0.00171207	0	0	0	
0.229167	-0.00192813	0.144645	9.24721E-05	0.00235626	0	0	0	
0.229333	0.000822445	0.19185	7.72701E-05	0.00453879	0	0	0	
0.2295	0.00594715	0.339814	0.000123002	0.00936862	0	0	0	
0.229667	-0.00659719	-0.210252	0.00015552	0.0120831	0	0	0	
0.229833	0.00264181	0.0031085	0.000154129	0.0108637	0	0	0	
0.23	0.0053788	-0.00990445	0.000144589	0.00565023	0	0	0	
0.230167	-0.0112342	0.0889674	0.000146197	0.00193426	0	0	0	
0.230333	0.0119518	-0.179371	0.000194609	0.00142062	0	0	0	
0.2305	-0.0136787	0.807452	0.0002073	0.00459732	0	0	0	
0.230667	0.0126556	-0.450182	0.00025131	0.00878145	0	0	0	
0.230833	0.000452803	0.136296	0.000263346	0.00969216	0	0	0	
0.231	-0.00864245	-0.00117839	0.000248514	0.00719728	0	0	0	
0.231167	0.00917822	-0.00518022	0.000231252	0.00303194	0	0	0	
0.231333	0.00107833	-0.0902623	0.000280406	0.00169412	0	0	0	
0.2315	-0.00744496	0.35708	0.000332453	0.0019594	0	0	0	
0.231667	0.00476499	-0.311979	0.000300287	0.00616319	0	0	0	
0.231833	0.000575028	0.317897	0.000179242	0.0069983	0	0	0	
0.232	-0.00442451	-0.146349	9.03899E-05	0.00730217	0	0	0	
0.232167	0.00738097	0.0501512	7.69566E-05	0.00379623	0	0	0	
0.232333	0.000872072	0.00767529	0.000112275	0.00376703	0	0	0	
0.2325	-0.0099009	-0.134003	0.000200228	0.00357892	0	0	0	
0.232667	0.0119479	0.56819	0.000247654	0.00532261	0	0	0	
0.232833	-0.00342572	-0.164303	0.000229849	0.00603023	0	0	0	
0.233	-0.00100384	-0.0405957	0.000198824	0.00535318	0	0	0	
0.233167	0.00365609	0.0911822	0.000183349	0.00319373	0	0	0	
0.233333	-0.00842609	-0.170164	0.000176007	0.00183756	0	0	0	
0.2335	0.0138983	0.167265	0.00020133	0.00277924	0	0	0	
0.233667	-0.00549344	0.412066	0.000232027	0.00495646	0	0	0	
0.233833	-0.00121463	0.126421	0.000261633	0.00960539	0	0	0	
0.234	0.00575553	-0.10499	0.000187674	0.0115766	0	0	0	
0.234167	-0.00306104	0.00216406	0.00011481	0.0100147	0	0	0	
0.234333	-0.00383447	-0.0144879	7.20648E-05	0.0048326	0	0	0	
0.2345	0.00743417	0.0414341	8.67338E-05	0.00153777	0	0	0	
0.234667	-0.00134476	-0.0919726	7.6564E-05	0.000965144	0	0	0	
0.234833	-0.000366484	0.476202	8.8755E-05	0.00311992	0	0	0	
0.235	-0.00156805	-0.374984	9.14498E-05	0.00650407	0	0	0	
0.235167	-0.00379473	0.134505	0.000119343	0.00774447	0	0	0	
0.235333	0.00486663	-0.0132601	0.000106014	0.00621631	0	0	0	
0.2355	-0.00258865	0.00133766	0.000149399	0.00289846	0	0	0	
0.235667	-0.00413221	-0.0988557	0.000229041	0.00156476	0	0	0	
0.235833	0.00680098	0.26844	0.000299242	0.0018182	0	0	0	
0.236	-0.00928205	-0.341745	0.000260755	0.00512803	0	0	0	
0.236167	0.00358696	0.305309	0.000174452	0.00585841	0	0	0	
0.236333	-0.000949719	-0.138154	0.000117138	0.00642302	0	0	0	
0.2365	-0.00590114	0.0235744	0.000130936	0.00382184	0	0	0	
0.236667	0.016133	0.0549065	0.000165286	0.00368176	0	0	0	
0.236833	-0.0131383	-0.0738765	0.000223789	0.00304116	0	0	0	
0.237	0.00103229	0.350044	0.000237401	0.00333987	0	0	0	
0.237167	-0.00252119	-0.0719569	0.000219175	0.00357219	0	0	0	
0.237333	0.0012847	-0.069669	0.000161352	0.00315446	0	0	0	
0.2375	0.00641162	0.0948187	0.000132198	0.00241189	0	0	0	
0.237667	-0.00845597	-0.125143	0.000163867	0.00167421	0	0	0	
0.237833	0.00815019	0.137177	0.000209446	0.00254785	0	0	0	
0.238	-0.00572558	0.302278	0.000204942	0.00385572	0	0	0	
0.238167	0.000474802	-0.0383881	0.000137881	0.00695896	0	0	0	
0.238333	0.00194985	-0.0361396	8.14502E-05	0.00770578	0	0	0	
0.2385	-0.00206095	0.0306244	5.81985E-05	0.00669659	0	0	0	
0.238667	0.00579472	-0.0242914	7.54856E-05	0.00323559	0	0	0	
0.238833	-0.00731723	0.0590408	0.000115418	0.00141576	0	0	0	
0.239	0.0055925	-0.0847406	0.000148521	0.00125832	0	0	0	
0.239167	-0.00609394	0.268428	0.000156147	0.00372878	0	0	0	
0.239333	0.00941368	-0.329032	0.000154379	0.00758138	0	0	0	
0.2395	-0.00589759	0.0862379	0.000154719	0.00899387	0	0	0	
0.239667	-0.000512088	-0.000463981	0.000176698	0.00686724	0	0	0	
0.239833	0.00888246	0.0180805	0.000191889	0.0028143	0	0	0	
0.24	-0.00840614	-0.11536	0.000193441	0.00126677	0	0	0	
0.240167	0.00208433	0.203572	0.000192499	0.00158165	0	0	0	
0.240333	0.0106367	-0.436598	0.000214735	0.00456486	0	0	0	
0.2405	-0.0144702	0.259107	0.000236576	0.00538368	0	0	0	
0.240667	0.00860242	-0.11703	0.000252173	0.00608187	0	0	0	
0.240833	-0.000571724	0.00111567	0.000233997	0.00393279	0	0	0	
0.241	-0.000507853	0.0424818	0.000189639	0.00319534	0	0	0	
0.241167	0.000241834	0.0490927	0.000120431	0.00236356	0	0	0	
0.241333	0.00645641	-0.30666	8.06485E-05	0.00312168	0	0	0	
0.2415	-0.00975027	0.204683	0.000120645	0.00454982	0	0	0	
0.241667	0.0104386	-0.121732	0.000171874	0.00531972	0	0	0	
0.241833	-0.00825074	0.0604308	0.000191643	0.00414858	0	0	0	
0.242	0.00124254	-0.0692685	0.000186576	0.00249376	0	0	0	
0.242167	0.00328532	0.168125	0.000198783	0.00220707	0	0	0	
0.242333	-0.0056124	-0.0745341	0.000207217	0.0025484	0	0	0	
0.2425	0.00446858	0.0258916	0.000169808	0.00283411	0	0	0	
0.242667	-0.000180409	-0.08127	0.000118762	0.00196119	0	0	0	
0.242833	-0.00532983	0.0842661	9.03172E-05	0.00197342	0	0	0	
0.243	0.00244315	-0.0231663	9.84784E-05	0.00182515	0	0	0	
0.243167	-0.00637167	0.0469519	9.49742E-05	0.00181549	0	0	0	
0.243333	0.0153248	-0.0485384	0.000129684	0.00130889	0	0	0	
0.2435	-0.0156933	0.176874	0.000181084	0.00254332	0	0	0	
0.243667	0.00732652	-0.22845	0.000259349	0.00510932	0	0	0	
0.243833	0.00236589	0.108428	0.000282406	0.00653423	0	0	0	
0.244	-0.00743161	-0.0282066	0.000232589	0.00531295	0	0	0	
0.244167	0.00424146	0.0284158	0.000175343	0.00265904	0	0	0	
0.244333	-0.00660363	-0.128154	0.000116472	0.00153374	0	0	0	
0.2445	0.00960857	0.191256	0.000135554	0.00194983	0	0	0	
0.244667	-0.00131203	-0.322939	0.00017213	0.00410775	0	0	0	
0.244833	-0.00636781	0.172571	0.000257622	0.00441344	0	0	0	
0.245	0.00913185	-0.118781	0.000288289	0.00478528	0	0	0	
0.245167	-0.00452801	0.00852613	0.000242991	0.0033132	0	0	0	
0.245333	-0.00578598	0.0660373	0.000215842	0.00309653	0	0	0	
0.2455	0.0135175	0.0126257	0.000195132	0.00237965	0	0	0	
0.245667	-0.00764368	-0.23602	0.00023572	0.00234217	0	0	0	
0.245833	-0.00196396	0.243848	0.000235461	0.00332664	0	0	0	
0.246	-0.000236788	-0.211631	0.000197653	0.00468913	0	0	0	
0.246167	0.00675165	0.0827656	0.000169013	0.00471582	0	0	0	
0.246333	-0.00922823	-0.0542437	0.000156774	0.00356355	0	0	0	
0.2465	0.0109208	0.176204	0.000215873	0.00286031	0	0	0	
0.246667	-0.0153107	-0.0971685	0.000265992	0.00290852	0	0	0	
0.246833	0.011097	0.063388	0.000244679	0.00329798	0	0	0	
0.247	0.00264045	-0.0801734	0.000268087	0.00260607	0	0	0	
0.247167	-0.0209298	0.114272	0.000261473	0.00237309	0	0	0	
0.247333	0.0218518	-0.0368175	0.000343355	0.00202846	0	0	0	
0.2475	-0.00829066	0.0358864	0.000438773	0.00190648	0	0	0	
0.247667	-0.00414128	-0.0214957	0.000537867	0.00154848	0	0	0	
0.247833	0.00905553	0.0802282	0.000471821	0.00219749	0	0	0	
0.248	-0.00401592	-0.168669	0.00029615	0.0039783	0	0	0	
0.248167	-0.00124667	0.127385	0.00015697	0.00526751	0	0	0	
0.248333	0.00192998	-0.0412053	0.000150882	0.00460917	0	0	0	
0.2485	-0.00552574	0.0270226	0.000193886	0.00270625	0	0	0	
0.248667	0.00803421	-0.116657	0.000199036	0.00172177	0	0	0	
0.248833	-0.00710151	0.15645	0.000175201	0.00202339	0	0	0	
0.249	0.0038264	-0.289499	0.000139876	0.00370608	0	0	0	
0.249167	-0.00144247	0.0956845	0.00011571	0.00378883	0	0	0	
0.249333	-0.00136084	-0.0854121	9.34931E-05	0.00411348	0	0	0	
0.2495	0.00142909	-0.00363992	7.67224E-05	0.00291101	0	0	0	
0.249667	0.00152872	0.0121939	7.1002E-05	0.00250696	0	0	0	
0.249833	-0.00212776	0.0204541	6.82987E-05	0.00144303	0	0	0	
0.25	-0.00054452	-0.1402	6.93656E-05	0.00137388	0	0	0	
0.250167	-0.00426037	0.21045	5.97E-05	0.00287406	0	0	0	
0.250333	0.00638745	-0.226534	7.5312E-05	0.00479602	0	0	0	
0.2505	-0.00757913	0.0728032	0.000100186	0.00507472	0	0	0	
0.250667	0.00857975	-0.02679	0.000154732	0.00375895	0	0	0	
0.250833	-0.000900459	0.110411	0.000204715	0.00245554	0	0	0	
0.251	-0.0114944	-0.141763	0.000247692	0.00236374	0	0	0	
0.251167	0.0114043	0.279048	0.000253683	0.00368322	0	0	0	
0.251333	-0.00500087	-0.137992	0.000242064	0.00400636	0	0	0	
0.2515	-0.00536884	0.102883	0.000259624	0.00398506	0	0	0	
0.251667	0.00939638	-0.0136067	0.000311277	0.00282091	0	0	0	
0.251833	-0.0139955	0.0248994	0.000347389	0.00202119	0	0	0	
0.252	0.00952904	-0.01636	0.000303708	0.00129988	0	0	0	
0.252167	0.000739835	0.0101153	0.000234732	0.00142824	0	0	0	
0.252333	-0.0069639	-0.107847	0.000168695	0.00267491	0	0	0	
0.2525	-0.000819036	0.153924	0.000123523	0.00400249	0	0	0	
0.252667	0.000916192	-0.0586643	8.01593E-05	0.00393934	0	0	0	
0.252833	0.000286539	0.0231986	0.000106658	0.00277379	0	0	0	
0.253	-0.0106225	-0.0917013	0.000242826	0.00187347	0	0	0	
0.253167	0.0188865	0.16646	0.000406244	0.00212552	0	0	0	
0.253333	-0.0242242	-0.403109	0.000488594	0.00422026	0	0	0	
0.2535	0.0153532	0.105409	0.000434799	0.00486757	0	0	0	
0.253667	-0.0042142	-0.0653483	0.00039452	0.00512081	0	0	0	
0.253833	-0.00800737	-0.015642	0.000415904	0.00341638	0	0	0	
0.254	0.0120599	0.0005986	0.000441888	0.00243465	0	0	0	
0.254167	-0.00843779	0.0503	0.000361645	0.00142602	0	0	0	
0.254333	0.00514956	-0.150253	0.00026637	0.00111373	0	0	0	
0.2545	-0.00387849	0.206008	0.00025985	0.00254218	0	0	0	
0.254667	-0.00405178	-0.271869	0.000293144	0.00471719	0	0	0	
0.254833	0.0102846	0.0693858	0.000269716	0.00567082	0	0	0	
0.255	-0.0117571	-0.000641046	0.00022435	0.00462675	0	0	0	
0.255167	0.0147581	0.0542157	0.000220511	0.00275191	0	0	0	
0.255333	-0.00267367	-0.135434	0.00022108	0.00208371	0	0	0	
0.2555	-0.00448978	0.448849	0.000178624	0.00352159	0	0	0	
0.255667	0.00453963	-0.232842	0.000136042	0.00490525	0	0	0	
0.255833	-0.000483346	0.117504	0.000114907	0.00530371	0	0	0	
0.256	-0.00143759	-0.00705935	0.000110257	0.00401974	0	0	0	
0.256167	0.00440499	0.00682586	9.58307E-05	0.00241936	0	0	0	
0.256333	-0.00454239	-0.0333175	8.63499E-05	0.00147875	0	0	0	
0.2565	0.00447271	0.0278861	9.29969E-05	0.00109554	0	0	0	
0.256667	0.0015384	-0.0977986	9.35225E-05	0.00190036	0	0	0	
0.256833	0.00142245	0.174602	9.33543E-05	0.00303421	0	0	0	
0.257	5.01529E-05	-0.0706694	7.00618E-05	0.00358365	0	0	0	
0.257167	-0.00440339	0.0205336	5.45829E-05	0.00298102	0	0	0	
0.257333	0.000687432	-0.0509228	5.48593E-05	0.00228717	0	0	0	
0.2575	0.0068448	0.128076	7.58952E-05	0.00236981	0	0	0	
0.257667	-0.00534412	-0.367429	9.97718E-05	0.00406202	0	0	0	
0.257833	0.00590581	0.0812932	0.000131916	0.0047668	0	0	0	
0.258	0.00179515	-0.0328387	0.000154537	0.00481892	0	0	0	
0.258167	-0.00821206	-0.00925316	0.000159757	0.00315996	0	0	0	
0.258333	0.00910311	-0.0317755	0.00016092	0.0018745	0	0	0	
0.2585	-0.00286872	0.119091	0.00016423	0.00152749	0	0	0	
0.258667	0.000189542	-0.136893	0.000179998	0.00159545	0	0	0	
0.258833	0.00162101	0.187022	0.000138823	0.0034185	0	0	0	
0.259	-0.00173497	-0.240824	8.55748E-05	0.00533614	0	0	0	
0.259167	-0.000762908	0.0333953	3.71753E-05	0.00642786	0	0	0	
0.259333	0.00506426	0.024866	5.14667E-05	0.00509746	0	0	0	
0.2595	-0.007236	0.0604196	7.7916E-05	0.00253283	0	0	0	
0.259667	0.00698175	-0.206706	0.000118301	0.00167637	0	0	0	
0.259833	-0.00711389	0.781501	0.000132557	0.00480441	0	0	0	
0.26	0.00770444	-0.452913	0.00014509	0.00996081	0	0	0	
0.260167	-0.00375999	0.0810295	0.000122216	0.0114656	0	0	0	
0.260333	0.00336988	0.0517917	9.41086E-05	0.00885191	0	0	0	
0.2605	-0.00690584	-0.0258542	8.31043E-05	0.00380457	0	0	0	
0.260667	0.00622051	-0.090829	0.00011471	0.00182417	0	0	0	
0.260833	-0.00361344	0.274465	0.00013309	0.00158063	0	0	0	
0.261	0.00827914	-0.381934	0.000135238	0.00570906	0	0	0	
0.261167	-0.00535294	0.273319	0.000123441	0.00655486	0	0	0	
0.261333	0.00259395	-0.118045	0.000114305	0.00724096	0	0	0	
0.2615	0.000746934	0.0155901	0.000107364	0.00395881	0	0	0	
0.261667	0.00207711	0.121525	7.10995E-05	0.00421207	0	0	0	
0.261833	-0.00171304	-0.171692	8.10459E-05	0.0039881	0	0	0	
0.262	0.00426999	0.753086	8.5715E-05	0.00586282	0	0	0	
0.262167	0.0003752	-0.25024	8.12634E-05	0.00772279	0	0	0	
0.262333	-0.00191282	-0.0505164	7.01281E-05	0.0074508	0	0	0	
0.2625	0.00105394	0.0964899	5.55683E-05	0.00495182	0	0	0	
0.262667	0.00220738	-0.110544	5.72059E-05	0.0021374	0	0	0	
0.262833	-0.0034293	0.114364	5.14533E-05	0.00236581	0	0	0	
0.263	0.0016085	0.496453	6.66172E-05	0.00446856	0	0	0	
0.263167	-0.00199613	-0.0962385	9.8269E-05	0.0106975	0	0	0	
0.263333	0.000810615	0.0296447	9.87403E-05	0.0138226	0	0	0	
0.2635	-0.00254477	-0.0420617	8.62493E-05	0.0127969	0	0	0	
0.263667	0.0046407	0.00458536	7.0599E-05	0.00616595	0	0	0	
0.263833	-0.00647253	0.0199664	9.16892E-05	0.0019284	0	0	0	
0.264	0.00672926	-0.0461916	0.000122726	0.0010595	0	0	0	
0.264167	-0.00614716	0.18856	0.000135524	0.00296486	0	0	0	
0.264333	0.00276358	-0.387721	0.000122015	0.00673791	0	0	0	
0.2645	0.00308271	0.12422	0.000106959	0.00828013	0	0	0	
0.264667	-0.0056617	0.0173966	0.000108261	0.00723741	0	0	0	
0.264833	0.000393128	-0.0219724	9.80341E-05	0.00358122	0	0	0	
0.265	0.00740628	-0.0905173	0.00010614	0.0017077	0	0	0	
0.265167	-0.00777841	0.188542	0.000112375	0.00141548	0	0	0	
0.265333	0.00483414	-0.505568	0.000131936	0.0047371	0	0	0	
0.2655	-0.00135566	0.227878	0.000110003	0.00603417	0	0	0	
0.265667	0.00476257	0.00894222	9.40281E-05	0.00730545	0	0	0	
0.265833	-0.0123771	-0.145626	0.000130503	0.00450612	0	0	0	
0.266	0.0170232	-0.369191	0.000192297	0.00534516	0	0	0	
0.266167	0.0188676	0.600451	0.000387056	0.0117715	0	0	0	
0.266333	0.0124378	-1.40669	0.00073802	0.0188374	0	0	0	
0.2665	0.0182045	1.32958	0.00077581	0.0236747	0	0	0	
0.266667	-0.00466191	-0.748217	0.000624761	0.0241126	0	0	0	
0.266833	-0.00547946	-0.142511	0.000232964	0.0234691	0	0	0	
0.267	0.00579952	0.858148	0.000176461	0.0208526	0	0	0	
0.267167	0.0119474	-1.12085	0.000224267	0.0210712	0	0	0	
0.267333	-0.0132029	0.567093	0.000339729	0.0221213	0	0	0	
0.2675	0.00972698	-0.2065	0.000399279	0.0247052	0	0	0	
0.267667	-0.00343455	0.209176	0.000335556	0.024057	0	0	0	
0.267833	-0.00371781	-0.373903	0.000202572	0.0251591	0	0	0	
0.268	0.00643527	0.628763	0.000112425	0.0272454	0	0	0	
0.268167	-0.0101879	-0.895588	0.000100441	0.0264216	0	0	0	
0.268333	0.0120212	0.0341025	0.000150706	0.0233104	0	0	0	
0.2685	-0.00849276	0.894385	0.000187354	0.0196197	0	0	0	
0.268667	0.00595996	-1.05383	0.000198153	0.0219259	0	0	0	
0.268833	-0.00862	0.827927	0.000195278	0.0273924	0	0	0	
0.269	0.0120858	-0.719832	0.000190789	0.032773	0	0	0	
0.269167	-0.00961567	0.784089	0.000189245	0.0328356	0	0	0	
0.269333	0.00415194	-0.952817	0.000175353	0.0311046	0	0	0	
0.2695	0.00431049	0.997266	0.000164352	0.0313251	0	0	0	
0.269667	-0.0088769	-0.843845	0.000199575	0.0335768	0	0	0	
0.269833	0.0146936	0.76681	0.000250253	0.0354854	0	0	0	
0.27	-0.0118561	-0.780861	0.000258331	0.035502	0	0	0	
0.270167	0.00724649	0.799435	0.000244072	0.0344627	0	0	0	
0.270333	0.00103157	-0.798127	0.000207008	0.0338978	0	0	0	
0.2705	-0.00573323	0.763988	0.000178675	0.0342667	0	0	0	
0.270667	0.00785316	-0.680641	0.00014408	0.0345661	0	0	0	
0.270833	-0.00336066	0.689174	0.000152709	0.034384	0	0	0	
0.271	0.000100192	-0.710172	0.000197187	0.0338312	0	0	0	
0.271167	0.00527351	0.703128	0.000202136	0.0335779	0	0	0	
0.271333	0.000393946	-0.689417	0.000142491	0.0337358	0	0	0	
0.2715	-0.00721025	0.661298	8.54368E-05	0.0339619	0	0	0	
0.271667	0.00632042	-0.673511	9.12735E-05	0.0338508	0	0	0	
0.271833	-0.00330807	0.713036	0.000120384	0.0337455	0	0	0	
0.272	0.00372751	-0.756475	0.000130932	0.0342218	0	0	0	
0.272167	0.000881867	0.652086	0.000101454	0.0348105	0	0	0	
0.272333	-0.00551858	-0.622807	9.49176E-05	0.0348322	0	0	0	
0.2725	0.0031306	0.641476	8.67958E-05	0.0341053	0	0	0	
0.272667	0.00219475	-0.681006	0.000137891	0.0335989	0	0	0	
0.272833	-0.00309845	0.68248	0.000156961	0.0336669	0	0	0	
0.273	0.00527177	-0.73748	0.000150001	0.0339856	0	0	0	
0.273167	-0.00554458	0.680186	0.000122189	0.0341212	0	0	0	
0.273333	0.00246451	-0.641975	0.000142471	0.0344119	0	0	0	
0.2735	0.000293177	0.634869	0.000182614	0.0348508	0	0	0	
0.273667	0.00215009	-0.631857	0.000167403	0.035002	0	0	0	
0.273833	-0.00151364	0.645733	0.000131015	0.0346393	0	0	0	
0.274	0.00373345	-0.659435	0.000107095	0.0341359	0	0	0	
0.274167	-0.00271114	0.634462	0.000104574	0.0342703	0	0	0	
0.274333	0.00240415	-0.570768	8.75438E-05	0.0347244	0	0	0	
0.2745	-0.0107833	-0.126004	0.000131801	0.0347088	0	0	0	
0.274667	0.010954	-0.319006	0.000193622	0.0351063	0	0	0	
0.274833	0.00554468	0.295126	0.000270671	0.035303	0	0	0	
0.275	-0.00471583	-0.233062	0.000304847	0.0349681	0	0	0	
0.275167	0.00776562	0.298219	0.00031237	0.0325893	0	0	0	
0.275333	-0.00332017	-0.573686	0.000275669	0.0294344	0	0	0	
0.2755	0.0115451	0.536492	0.000243621	0.0278663	0	0	0	
0.275667	-0.0227444	-1.21098	0.000216343	0.0319429	0	0	0	
0.275833	0.0354231	0.887628	0.00038484	0.0383935	0	0	0	
0.276	-0.0125181	-0.602774	0.000471241	0.0438808	0	0	0	
0.276167	-0.00419573	0.379408	0.000489385	0.044459	0	0	0	
0.276333	0.00980819	-0.266687	0.000282729	0.0424082	0	0	0	
0.2765	-0.00118515	0.274485	0.000207136	0.038821	0	0	0	
0.276667	-0.0123809	-0.404053	0.000278589	0.0342791	0	0	0	
0.276833	0.0202896	0.595857	0.000436073	0.0307865	0	0	0	
0.277	-0.0159507	-0.685582	0.000475708	0.0300577	0	0	0	
0.277167	0.0136366	0.624497	0.000394394	0.0316179	0	0	0	
0.277333	-0.00573058	-0.586727	0.000337297	0.033274	0	0	0	
0.2775	-0.00437629	0.621226	0.000293612	0.0336009	0	0	0	
0.277667	0.000722723	-0.659597	0.000230349	0.0332594	0	0	0	
0.277833	0.00426074	0.627565	0.000148324	0.033523	0	0	0	
0.278	-0.00148697	-0.591277	8.77966E-05	0.0346904	0	0	0	
0.278167	0.00200777	0.513371	8.89894E-05	0.0356939	0	0	0	
0.278333	-0.00197962	-0.469438	7.79447E-05	0.0357846	0	0	0	
0.2785	0.00388138	0.435042	6.64386E-05	0.0349441	0	0	0	
0.278667	-0.000192495	-0.436573	7.56278E-05	0.0338154	0	0	0	
0.278833	-0.00780623	0.474872	7.49366E-05	0.032905	0	0	0	
0.279	0.00615884	-0.547152	0.000101536	0.0326148	0	0	0	
0.279167	-0.00340886	0.535525	0.000100792	0.0328664	0	0	0	
0.279333	0.00236214	-0.527115	0.000119666	0.0334028	0	0	0	
0.2795	-0.00271067	0.49051	0.000139282	0.0338503	0	0	0	
0.279667	-0.000981352	-0.464154	0.000147314	0.0342077	0	0	0	
0.279833	-0.00134079	0.453098	0.000107862	0.034354	0	0	0	
0.28	0.00181541	-0.465647	5.27062E-05	0.0343131	0	0	0	
0.280167	-0.00554526	0.47176	5.22035E-05	0.0342384	0	0	0	
0.280333	0.00610671	-0.459575	9.49306E-05	0.0342851	0	0	0	
0.2805	0.00136964	0.435403	0.000133476	0.0344479	0	0	0	
0.280667	-0.00753832	-0.433282	0.000121642	0.0345231	0	0	0	
0.280833	0.00643982	0.432468	0.000134362	0.0343717	0	0	0	
0.281	0.00259683	-0.442471	0.000174949	0.0341495	0	0	0	
0.281167	-0.011418	0.459793	0.000209471	0.0340959	0	0	0	
0.281333	0.00675428	-0.447932	0.000199434	0.0342145	0	0	0	
0.2815	-0.000595543	0.426712	0.00016835	0.0343777	0	0	0	
0.281667	-0.00169091	-0.419946	0.000183662	0.0344148	0	0	0	
0.281833	0.00918399	0.394807	0.000193832	0.0343005	0	0	0	
0.282	-0.00834288	-0.413375	0.000193289	0.0341444	0	0	0	
0.282167	0.0025931	0.415739	0.000160155	0.0340147	0	0	0	
0.282333	0.0016877	-0.407865	0.00013426	0.0340072	0	0	0	
0.2825	-0.00447551	0.387355	0.000103972	0.0340621	0	0	0	
0.282667	0.00102498	-0.371459	0.000128331	0.0341789	0	0	0	
0.282833	0.00364228	0.356695	0.000143719	0.0342503	0	0	0	
0.283	-0.00529906	-0.370831	0.000138785	0.0341521	0	0	0	
0.283167	0.00513218	0.383149	0.000122106	0.0339266	0	0	0	
0.283333	-8.83354E-05	-0.385667	9.36442E-05	0.033812	0	0	0	
0.2835	-0.00519986	0.355028	8.70406E-05	0.0338899	0	0	0	
0.283667	0.0090902	-0.352039	8.80926E-05	0.0340944	0	0	0	
0.283833	-0.00453707	0.356305	0.000116083	0.0342927	0	0	0	
0.284	0.00047468	-0.336165	0.000149526	0.0344395	0	0	0	
0.284167	0.00113803	0.330509	0.000135298	0.0344767	0	0	0	
0.284333	0.00368358	-0.329999	0.00013793	0.0342964	0	0	0	
0.2845	0.00073023	0.310504	0.000149612	0.0339636	0	0	0	
0.284667	0.00159371	-0.329031	0.000131325	0.0337188	0	0	0	
0.284833	-0.00846852	0.327395	0.000127289	0.0337121	0	0	0	
0.285	0.00806974	-0.31427	0.00012964	0.0338779	0	0	0	
0.285167	-0.00316122	0.297914	0.000151362	0.0340505	0	0	0	
0.285333	0.00714649	-0.294444	0.000126628	0.034175	0	0	0	
0.2855	-0.0080376	0.268483	0.000115741	0.034172	0	0	0	
0.285667	0.00194505	-0.267145	0.000124803	0.0340542	0	0	0	
0.285833	0.00330104	0.26813	0.000130464	0.0338983	0	0	0	
0.286	-0.00524829	-0.278918	0.000115279	0.0338231	0	0	0	
0.286167	0.0049582	0.294416	9.37291E-05	0.0338786	0	0	0	
0.286333	-0.00744459	-0.280254	0.000110775	0.0340833	0	0	0	
0.2865	0.00290251	0.25096	0.000123449	0.0343249	0	0	0	
0.286667	0.00419443	-0.238828	0.000140505	0.0343762	0	0	0	
0.286833	-0.00388306	0.257395	0.000122201	0.03426	0	0	0	
0.287	0.00242372	-0.268134	8.32815E-05	0.0341619	0	0	0	
0.287167	-0.00395135	0.245259	6.91011E-05	0.0341474	0	0	0	
0.287333	0.00196768	-0.227759	5.27836E-05	0.0340991	0	0	0	
0.2875	0.00219967	0.221468	7.13738E-05	0.0339866	0	0	0	
0.287667	-0.00211737	-0.212639	6.58006E-05	0.0339379	0	0	0	
0.287833	0.00131436	0.208442	6.69026E-05	0.0339927	0	0	0	
0.288	0.00121242	-0.217361	7.14968E-05	0.0340016	0	0	0	
0.288167	-0.00141965	0.193668	7.02611E-05	0.0338668	0	0	0	
0.288333	-0.00187493	-0.202025	7.39555E-05	0.0337239	0	0	0	
0.2885	0.00144354	0.193513	7.904E-05	0.0336919	0	0	0	
0.288667	0.00217935	-0.18484	0.000109163	0.0337732	0	0	0	
0.288833	-0.000917124	0.185645	9.57865E-05	0.0338692	0	0	0	
0.289	-0.00468836	-0.193313	9.66411E-05	0.0339761	0	0	0	
0.289167	0.00623184	0.180106	9.69006E-05	0.0340387	0	0	0	
0.289333	-0.00632264	-0.176871	0.000137653	0.0340103	0	0	0	
0.2895	0.00148838	0.171501	0.000132001	0.0339713	0	0	0	
0.289667	0.000504175	-0.158211	9.02797E-05	0.0339791	0	0	0	
0.289833	-0.00293172	0.148582	5.65567E-05	0.0339625	0	0	0	
0.29	0.00455145	-0.168032	5.10181E-05	0.0338514	0	0	0	
0.290167	-0.00572121	0.150571	7.75388E-05	0.0337132	0	0	0	
0.290333	0.00283276	-0.135454	9.46893E-05	0.0336555	0	0	0	
0.2905	-0.00448363	0.124574	9.61226E-05	0.0336493	0	0	0	
0.290667	0.00559975	-0.11038	0.00011204	0.033654	0	0	0	
0.290833	-0.00821005	0.0939004	0.000174103	0.0336271	0	0	0	
0.291	0.0115865	-0.126249	0.000246663	0.033477	0	0	0	
0.291167	-0.0104802	0.194686	0.000265032	0.033255	0	0	0	
0.291333	0.00285126	-0.172216	0.000208623	0.0332799	0	0	0	
0.2915	-0.00101656	0.0976849	0.000152645	0.0340567	0	0	0	
0.291667	0.000748228	-0.0787878	0.00011531	0.035186	0	0	0	
0.291833	0.00408014	0.0474085	0.000108829	0.0356844	0	0	0	
0.292	-0.00757725	-0.0613007	0.000110222	0.0352282	0	0	0	
0.292167	0.0116132	0.074395	0.000137473	0.0342896	0	0	0	
0.292333	-0.00642653	-0.0706379	0.000150408	0.0334695	0	0	0	
0.2925	-0.00183231	0.119291	0.000149473	0.033072	0	0	0	
0.292667	0.00340861	-0.147896	0.000138631	0.0333223	0	0	0	
0.292833	-0.00418878	0.0579356	0.000133376	0.0340782	0	0	0	
0.293	0.00605623	-0.0411622	0.000121872	0.0346333	0	0	0	
0.293167	-0.00906555	0.0464778	0.000121267	0.0345702	0	0	0	
0.293333	0.0061254	0.0251375	0.000138759	0.0346001	0	0	0	
0.2935	-0.00464323	-0.113167	0.000146457	0.0343158	0	0	0	
0.293667	0.0086698	-0.31896	0.000148459	0.0314349	0	0	0	
0.293833	-0.0124013	1.5467	0.000170463	0.0297251	0	0	0	
0.294	-0.0151311	-2.06122	0.000374386	0.0365302	0	0	0	
0.294167	-0.0216686	0.299701	0.000782316	0.0473396	0	0	0	
0.294333	-0.0162299	0.495723	0.000873981	0.0571613	0	0	0	
0.2945	0.0066888	0.0814694	0.00069685	0.0493567	0	0	0	
0.294667	0.00456459	-0.522257	0.00032118	0.0349338	0	0	0	
0.294833	-0.00755543	0.356481	0.000196042	0.0206922	0	0	0	
0.295	-0.0134933	-0.113727	0.000225387	0.0147947	0	0	0	
0.295167	0.0162294	0.0860456	0.000238557	0.0125351	0	0	0	
0.295333	-0.0113173	0.21599	0.00027466	0.0161221	0	0	0	
0.2955	0.00566359	-0.68933	0.000232887	0.0261591	0	0	0	
0.295667	-0.000773678	1.06641	0.000162766	0.0323637	0	0	0	
0.295833	-0.000707293	-0.525693	8.86139E-05	0.0275659	0	0	0	
0.296	-0.000224428	-0.206977	3.63569E-05	0.0180507	0	0	0	
0.296167	-0.000110334	-0.256856	2.76904E-05	0.01338	0	0	0	
0.296333	0.000937428	0.444682	4.89418E-05	0.0128323	0	0	0	
0.2965	-0.000255846	-0.202002	4.95985E-05	0.0133145	0	0	0	
0.296667	0.000150505	0.0012511	6.01873E-05	0.0105665	0	0	0	
0.296833	-0.00143682	0.0982648	5.19201E-05	0.00808733	0	0	0	
0.297	0.00165294	-0.119469	6.92384E-05	0.0034067	0	0	0	
0.297167	0.00190577	-0.0200715	5.22212E-05	0.00300096	0	0	0	
0.297333	-0.00549268	0.42463	6.68511E-05	0.00355784	0	0	0	
0.2975	0.00259697	-0.7937	8.33852E-05	0.0094588	0	0	0	
0.297667	0.00123301	0.493905	8.66528E-05	0.0129668	0	0	0	
0.297833	0.000457264	-0.101283	6.64654E-05	0.0131635	0	0	0	
0.298	-0.0031297	0.0328485	5.08801E-05	0.00695564	0	0	0	
0.298167	0.00258269	0.0341207	6.57077E-05	0.00257409	0	0	0	
0.298333	-0.000694284	-0.0347362	6.4329E-05	0.00136253	0	0	0	
0.2985	-0.00374962	-0.27942	5.08816E-05	0.00532002	0	0	0	
0.298667	0.00334562	-0.341463	4.8764E-05	0.0121358	0	0	0	
0.298833	0.0054044	-0.00363426	5.36489E-05	0.0153958	0	0	0	
0.299	-0.00818369	0.118599	9.7881E-05	0.0126068	0	0	0	
0.299167	0.00355619	-0.0566342	0.000117207	0.00614396	0	0	0	
0.299333	0.000932732	-0.203203	0.000124623	0.00255152	0	0	0	
0.2995	-0.00155562	0.458783	7.52315E-05	0.00280616	0	0	0	
0.299667	0.000971662	-1.06507	4.69341E-05	0.00986896	0	0	0	
0.299833	0.00145585	0.198248	4.62656E-05	0.0123566	0	0	0	
0.3	0.0029653	0.00604749	5.32982E-05	0.0128864	0	0	0	
0.300167	-0.00223902	-0.103494	6.92911E-05	0.00673698	0	0	0	
0.300333	0.00055754	0.134528	6.43935E-05	0.00451061	0	0	0	
0.3005	-0.00272743	0.00709438	8.11305E-05	0.00300795	0	0	0	
0.300667	0.0063559	-0.138519	8.76148E-05	0.00249349	0	0	0	
0.300833	-0.00388127	0.146682	0.000103649	0.00359969	0	0	0	
0.301	0.00552078	-0.0757248	0.000105658	0.00473751	0	0	0	
0.301167	-0.00110018	-0.00558282	9.21028E-05	0.00505572	0	0	0	
0.301333	-0.001144	0.00146882	7.53297E-05	0.00365577	0	0	0	
0.3015	0.00294433	0.184144	7.31491E-05	0.00287571	0	0	0	
0.301667	-0.00192261	-0.0690122	7.9571E-05	0.00321641	0	0	0	
0.301833	0.00212852	-0.0494745	7.41261E-05	0.00383365	0	0	0	
0.302	0.00772206	0.120168	6.42459E-05	0.00345595	0	0	0	
0.302167	-0.00631027	-0.0133471	7.67067E-05	0.00273399	0	0	0	
0.302333	0.00269252	0.0345795	0.000100206	0.00219627	0	0	0	
0.3025	-0.000259871	-0.0819636	9.32904E-05	0.00197865	0	0	0	
0.302667	0.00118329	0.0551809	7.9806E-05	0.00174585	0	0	0	
0.302833	-0.00557228	-0.0086762	9.09718E-05	0.00161221	0	0	0	
0.303	0.0126699	-0.196	0.000133797	0.00289817	0	0	0	
0.303167	-0.00593105	0.10639	0.000166578	0.00477775	0	0	0	
0.303333	-0.00367319	0.0437276	0.000153186	0.00604455	0	0	0	
0.3035	0.00946032	-0.0579145	0.0001435	0.00478788	0	0	0	
0.303667	-0.0126143	-0.0204	0.000146002	0.00288796	0	0	0	
0.303833	0.00705854	0.0581549	0.000173312	0.00197504	0	0	0	
0.304	0.000264614	-0.162196	0.000183049	0.00273618	0	0	0	
0.304167	-0.00122898	-0.107545	0.000151809	0.00353005	0	0	0	
0.304333	-0.00179967	0.0480455	0.000111515	0.0041959	0	0	0	
0.3045	0.00379993	-0.0656699	0.000105867	0.00362887	0	0	0	
0.304667	-0.00197583	0.0988331	0.000101658	0.00282048	0	0	0	
0.304833	0.00265914	-0.0537136	9.21418E-05	0.00212616	0	0	0	
0.305	-0.00490884	0.00699618	7.89667E-05	0.00187993	0	0	0	
0.305167	0.00511608	0.0968718	8.03117E-05	0.00261812	0	0	0	
0.305333	-0.00232332	-0.0767317	9.72436E-05	0.00335018	0	0	0	
0.3055	0.00307418	0.0115988	7.37853E-05	0.00380359	0	0	0	
0.305667	-0.00419324	0.0187351	6.21967E-05	0.00314593	0	0	0	
0.305833	0.00824582	-0.00772868	8.82092E-05	0.00279025	0	0	0	
0.306	-0.00338267	-0.000717104	0.000120046	0.00295855	0	0	0	
0.306167	0.000520783	-0.053207	0.000107151	0.0026086	0	0	0	
0.306333	0.000927368	0.0653691	7.56931E-05	0.00189119	0	0	0	
0.3065	0.00113889	0.00366167	7.37912E-05	0.00138331	0	0	0	
0.306667	-0.00426139	0.0270881	0.000101881	0.00179561	0	0	0	
0.306833	0.00428515	-0.0436412	0.000122617	0.00179483	0	0	0	
0.307	-0.00334595	0.0480558	0.000123262	0.00155429	0	0	0	
0.307167	0.000855416	-0.26657	9.51834E-05	0.00214709	0	0	0	
0.307333	0.00712073	0.0399621	9.67188E-05	0.00478111	0	0	0	
0.3075	-0.00947264	-0.0405801	0.000113287	0.00652524	0	0	0	
0.307667	0.00202296	0.0417214	0.000151836	0.00620599	0	0	0	
0.307833	-0.00533809	-0.0279275	0.0001633	0.00346559	0	0	0	
0.308	0.016448	0.0316993	0.000213445	0.00169244	0	0	0	
0.308167	-0.0215842	0.0302667	0.000283234	0.00146513	0	0	0	
0.308333	0.0169613	-0.211626	0.000344301	0.00274719	0	0	0	
0.3085	-0.00973364	-0.0102289	0.000326381	0.00391837	0	0	0	
0.308667	0.00154451	0.0494887	0.000244068	0.00458401	0	0	0	
0.308833	0.00465118	-0.0816514	0.000161534	0.00392837	0	0	0	
0.309	-0.00955096	0.0951926	0.000106466	0.0028417	0	0	0	
0.309167	0.00701889	-0.0683712	0.000158254	0.00212217	0	0	0	
0.309333	0.00338886	0.0582692	0.000242328	0.00178815	0	0	0	
0.3095	-0.00684161	0.0753713	0.000312273	0.00265565	0	0	0	
0.309667	0.00759133	-0.0733902	0.000282152	0.00381773	0	0	0	
0.309833	-0.00552262	-0.000646461	0.000195687	0.00453277	0	0	0	
0.31	0.00242776	0.0443681	0.000125648	0.0038393	0	0	0	
0.310167	-0.00246741	-0.122128	9.32195E-05	0.00298658	0	0	0	
0.310333	0.00634603	0.0139132	8.91116E-05	0.00269825	0	0	0	
0.3105	-0.00549403	0.108744	9.32638E-05	0.00253269	0	0	0	
0.310667	0.00171797	-0.047444	9.86724E-05	0.00205242	0	0	0	
0.310833	0.00356674	0.0132535	9.90056E-05	0.00162946	0	0	0	
0.311	-0.000878892	0.0341963	7.11387E-05	0.00188187	0	0	0	
0.311167	-0.000760647	-0.0449752	6.35982E-05	0.00178174	0	0	0	
0.311333	0.00466129	0.044093	5.53952E-05	0.00160633	0	0	0	
0.3115	-0.00838709	-0.252582	9.72367E-05	0.00186592	0	0	0	
0.311667	0.00946915	0.175509	0.000119847	0.00429207	0	0	0	
0.311833	-0.00666906	-0.0920113	0.000160149	0.00575033	0	0	0	
0.312	0.0030347	0.0309218	0.000152999	0.00550819	0	0	0	
0.312167	0.000563057	-0.0221266	0.000167607	0.00298736	0	0	0	
0.312333	-0.00188683	0.0772507	0.000141053	0.00158202	0	0	0	
0.3125	0.00106698	-0.00628165	9.93768E-05	0.00163836	0	0	0	
0.312667	0.000546964	-0.100958	7.1561E-05	0.00278072	0	0	0	
0.312833	0.000501096	0.0237285	8.54753E-05	0.00396879	0	0	0	
0.313	-0.00134013	0.0676784	0.000124833	0.00445484	0	0	0	
0.313167	-0.000177092	-0.0828541	0.000127313	0.00390428	0	0	0	
0.313333	0.00426638	0.0807435	0.000113796	0.00266874	0	0	0	
0.3135	-0.0101784	-0.0518604	0.000121598	0.00185137	0	0	0	
0.313667	0.00580031	0.0780722	0.000147259	0.00146084	0	0	0	
0.313833	0.00203601	0.0131557	0.000148043	0.00261549	0	0	0	
0.314	-0.00621966	0.018632	0.000118013	0.00425866	0	0	0	
0.314167	0.00726607	-0.0292051	0.000100302	0.00526744	0	0	0	
0.314333	-0.00678017	0.0597551	0.000115968	0.00434314	0	0	0	
0.3145	0.00242728	-0.153	0.000128885	0.00299575	0	0	0	
0.314667	0.00129969	0.0351289	0.00014191	0.00241931	0	0	0	
0.314833	-0.00413823	0.14121	0.000114793	0.00232832	0	0	0	
0.315	-1.88702E-05	-0.104706	9.77461E-05	0.00245242	0	0	0	
0.315167	0.00176588	0.0157592	6.04437E-05	0.00232657	0	0	0	
0.315333	-0.00480877	0.0385465	6.32993E-05	0.00258784	0	0	0	
0.3155	0.00195947	-0.035132	7.12078E-05	0.00202738	0	0	0	
0.315667	-0.00112694	0.0309317	6.79287E-05	0.00155767	0	0	0	
0.315833	-5.96399E-05	-0.235095	5.23902E-05	0.00152589	0	0	0	
0.316	-0.00345004	0.309163	3.88237E-05	0.00415831	0	0	0	
0.316167	0.00480108	-0.163376	6.15707E-05	0.00605141	0	0	0	
0.316333	-0.00576711	0.0373436	9.662E-05	0.00623928	0	0	0	
0.3165	0.00143451	-0.0283588	0.000124277	0.00355002	0	0	0	
0.316667	0.000346003	0.0709254	9.58303E-05	0.00158023	0	0	0	
0.316833	0.00162248	-0.0226516	6.20148E-05	0.00135676	0	0	0	
0.317	-0.00231185	-0.0305215	5.25799E-05	0.00302137	0	0	0	
0.317167	-0.000693397	0.0686501	0.000103092	0.00539155	0	0	0	
0.317333	0.00204884	0.10935	0.000144318	0.00628475	0	0	0	
0.3175	-0.000710538	-0.09604	0.000132731	0.0051707	0	0	0	
0.317667	0.000411804	0.0487635	8.30366E-05	0.00289901	0	0	0	
0.317833	0.00139421	0.0111212	4.08973E-05	0.00147712	0	0	0	
0.318	-0.000590031	0.0231262	4.00223E-05	0.000961991	0	0	0	
0.318167	-0.00305514	-0.00586553	5.56257E-05	0.00215719	0	0	0	
0.318333	0.00256162	0.12272	7.24963E-05	0.00430587	0	0	0	
0.3185	0.00139098	-0.0646457	6.27879E-05	0.00579082	0	0	0	
0.318667	-0.00278718	0.0792715	5.89319E-05	0.00492574	0	0	0	
0.318833	0.00446946	-0.120897	6.17117E-05	0.00312138	0	0	0	
0.319	-0.000484763	0.0359311	7.51705E-05	0.00205531	0	0	0	
0.319167	-0.000790431	0.115752	7.54202E-05	0.0022371	0	0	0	
0.319333	-0.0042159	-0.153045	8.52851E-05	0.00343464	0	0	0	
0.3195	0.00599774	-0.00605782	0.000116036	0.00406946	0	0	0	
0.319667	-0.00269088	0.0652275	0.000126328	0.00414188	0	0	0	
0.319833	-0.00193104	-0.0452083	0.000107163	0.00272756	0	0	0	
0.32	0.00667327	-0.00994939	9.66032E-05	0.00153196	0	0	0	
0.320167	-0.00709162	-0.0780107	0.000133318	0.000918786	0	0	0	
0.320333	0.010465	0.131267	0.000162284	0.00193798	0	0	0	
0.3205	-0.0129072	-0.147435	0.000203166	0.00313274	0	0	0	
0.320667	0.00451955	0.0328202	0.000213002	0.00387158	0	0	0	
0.320833	0.00104006	-0.0415464	0.000210209	0.00297902	0	0	0	
0.321	-0.0047529	0.0927563	0.000152145	0.00198631	0	0	0	
0.321167	0.00539957	-0.0730467	0.000101119	0.0019065	0	0	0	
0.321333	-0.0053877	0.0737074	0.000105486	0.00311734	0	0	0	
0.3215	-0.00380399	0.00965136	0.000136694	0.00469918	0	0	0	
0.321667	0.00393017	0.139178	0.000153021	0.00495554	0	0	0	
0.321833	0.000103102	-0.0902138	0.000116175	0.00403496	0	0	0	
0.322	-0.00428948	0.0393819	8.25617E-05	0.00239214	0	0	0	
0.322167	-0.000731415	0.0600253	5.29719E-05	0.00139619	0	0	0	
0.322333	-0.00338286	-0.0391421	5.93617E-05	0.00109297	0	0	0	
0.3225	0.00463877	-0.0372482	6.5166E-05	0.00258796	0	0	0	
0.322667	-0.0025124	0.281737	7.58861E-05	0.00522241	0	0	0	
0.322833	0.00168812	-0.130521	6.2177E-05	0.00723764	0	0	0	
0.323	-0.00134768	0.108441	4.39961E-05	0.00626811	0	0	0	
0.323167	0.000123761	-0.102006	3.06646E-05	0.00398356	0	0	0	
0.323333	-0.000102414	0.0473198	3.72763E-05	0.00215636	0	0	0	
0.3235	-0.00111747	0.0394544	4.81841E-05	0.0018431	0	0	0	
0.323667	0.000895642	-0.163348	8.84031E-05	0.00295291	0	0	0	
0.323833	0.00180018	0.0372958	0.000105581	0.00397806	0	0	0	
0.324	-0.00247887	0.0634587	9.85508E-05	0.00460443	0	0	0	
0.324167	0.00260692	-0.0590098	7.04173E-05	0.0033478	0	0	0	
0.324333	-0.00256465	0.00552567	5.71317E-05	0.00197146	0	0	0	
0.3245	0.000426417	-0.0514584	6.13945E-05	0.00107691	0	0	0	
0.324667	0.0021562	0.148866	8.65102E-05	0.00177863	0	0	0	
0.324833	-0.00205957	-0.20163	0.000121997	0.00286331	0	0	0	
0.325	-0.00125355	0.0495394	0.000131021	0.00389246	0	0	0	
0.325167	0.000134052	-0.0594244	9.30655E-05	0.00339548	0	0	0	
0.325333	-0.000478808	0.145577	5.53609E-05	0.00265716	0	0	0	
0.3255	0.000731181	-0.142525	4.01559E-05	0.00257934	0	0	0	
0.325667	-0.00188922	-0.039822	4.01593E-05	0.00235965	0	0	0	
0.325833	0.00468915	-0.0548025	5.02807E-05	0.00264346	0	0	0	
0.326	-0.00498743	0.0719744	7.00777E-05	0.00217913	0	0	0	
0.326167	0.000119629	-0.0148909	7.90457E-05	0.0020649	0	0	0	
0.326333	-0.00449107	0.00666334	7.68876E-05	0.00131206	0	0	0	
0.3265	0.00537013	0.0311954	8.57594E-05	0.00113035	0	0	0	
0.326667	-0.00540258	0.118032	0.000108836	0.00186055	0	0	0	
0.326833	0.000375489	-0.586702	0.000133862	0.00452069	0	0	0	
0.327	0.00294194	0.502333	0.000105924	0.00756864	0	0	0	
0.327167	-0.00420809	-0.163922	9.34927E-05	0.00889431	0	0	0	
0.327333	0.00450617	0.0650094	7.2102E-05	0.00661684	0	0	0	
0.3275	-0.00555818	-0.0290704	9.11679E-05	0.00329073	0	0	0	
0.327667	-0.000245733	0.0564597	9.88672E-05	0.00142964	0	0	0	
0.327833	-7.81654E-06	-0.302288	0.000103983	0.00253295	0	0	0	
0.328	0.00497448	-0.0290535	9.96419E-05	0.00599864	0	0	0	
0.328167	-0.00317677	-0.0836582	9.02298E-05	0.00814173	0	0	0	
0.328333	-0.000271035	0.105277	7.59073E-05	0.00751022	0	0	0	
0.3285	0.00358486	-0.0469372	7.36951E-05	0.00413652	0	0	0	
0.328667	-0.00212228	-0.0272803	6.89635E-05	0.00169205	0	0	0	
0.328833	0.000440799	0.0370894	6.64713E-05	0.00109294	0	0	0	
0.329	0.00515436	-0.248461	7.31443E-05	0.0026161	0	0	0	
0.329167	-0.00438555	-0.0745563	8.22985E-05	0.00449911	0	0	0	
0.329333	0.00142745	0.0673122	8.81079E-05	0.0056622	0	0	0	
0.3295	0.000231658	-0.11404	6.88204E-05	0.0047849	0	0	0	
0.329667	0.000987526	0.207471	5.49916E-05	0.00363503	0	0	0	
0.329833	-0.00154155	-0.167709	4.93266E-05	0.00349465	0	0	0	
0.33	-0.0020261	-0.454909	6.86213E-05	0.00510559	0	0	0	
0.330167	0.00402163	0.00154374	7.30367E-05	0.00885228	0	0	0	
0.330333	-0.0018718	-0.0762372	6.86547E-05	0.00911077	0	0	0	
0.3305	0.00353451	0.0535104	5.84386E-05	0.00692429	0	0	0	
0.330667	-0.00158854	0.0113459	6.34365E-05	0.00300471	0	0	0	
0.330833	-0.00145362	-0.0922866	5.94068E-05	0.00254843	0	0	0	
0.331	0.00333599	0.278575	5.63856E-05	0.00342686	0	0	0	
0.331167	-0.00625809	-1.31746	5.94446E-05	0.00836715	0	0	0	
0.331333	0.010154	0.721866	0.000111726	0.0129322	0	0	0	
0.3315	-0.00407685	-0.192998	0.000149003	0.0144251	0	0	0	
0.331667	-0.00029932	0.0277064	0.000167535	0.00927097	0	0	0	
0.331833	0.0014421	-0.0395797	0.000136218	0.00366133	0	0	0	
0.332	-0.000569825	0.084171	0.000100017	0.00128254	0	0	0	
0.332167	0.00110634	-0.250192	6.71468E-05	0.00182312	0	0	0	
0.332333	0.000259083	0.093862	5.5728E-05	0.00476603	0	0	0	
0.3325	-0.00553486	-0.0812518	8.36056E-05	0.00677203	0	0	0	
0.332667	0.00660881	0.0956968	0.000104565	0.00682382	0	0	0	
0.332833	-0.00282288	-0.0540069	0.000125258	0.0040638	0	0	0	
0.333	-0.0011051	0.0108528	0.000120382	0.00187207	0	0	0	
0.333167	0.00177336	0.020164	0.000103318	0.00116425	0	0	0	
0.333333	0.000230777	-0.000904712	7.53159E-05	0.00250182	0	0	0	
0.3335	-0.000927294	-0.0528415	6.02894E-05	0.00445709	0	0	0	
0.333667	-0.00145127	0.108915	6.95637E-05	0.00557535	0	0	0	
0.333833	0.00234927	-0.117429	8.15929E-05	0.00479772	0	0	0	
0.334	-0.00302323	0.156425	7.1018E-05	0.00331221	0	0	0	
0.334167	0.00386568	-0.153583	7.41998E-05	0.00302252	0	0	0	
0.334333	-0.00535887	-0.191802	8.33827E-05	0.00337476	0	0	0	
0.3345	0.00722015	0.0045947	0.000105992	0.00505598	0	0	0	
0.334667	-0.00126165	-0.018836	0.000110099	0.00459236	0	0	0	
0.334833	0.00187098	0.025346	0.000103307	0.00361461	0	0	0	
0.335	-0.00298212	0.018267	0.000119342	0.00179567	0	0	0	
0.335167	0.00525573	-0.141117	0.0001385	0.00215857	0	0	0	
0.335333	-0.00433383	0.191413	0.000136609	0.00318495	0	0	0	
0.3355	0.00144078	-0.928597	0.000118975	0.0059553	0	0	0	
0.335667	0.0062466	0.543673	0.00010734	0.00912459	0	0	0	
0.335833	-0.00594557	-0.189351	0.00014062	0.0103883	0	0	0	
0.336	0.00616451	0.0375758	0.000138554	0.00757086	0	0	0	
0.336167	-0.00208478	-0.031925	0.000117535	0.00343122	0	0	0	
0.336333	-0.00438166	0.0513535	8.06083E-05	0.00100465	0	0	0	
0.3365	0.00184196	-0.203454	7.02432E-05	0.00123067	0	0	0	
0.336667	0.00197799	0.148989	5.73218E-05	0.00367605	0	0	0	
0.336833	-0.00407135	-0.127415	5.55717E-05	0.0057086	0	0	0	
0.337	0.00423428	0.0964749	6.01463E-05	0.00605507	0	0	0	
0.337167	0.00108706	-0.0583792	8.42238E-05	0.00382908	0	0	0	
0.337333	-0.00629159	0.0581777	9.35205E-05	0.00193857	0	0	0	
0.3375	-0.00195279	0.000221973	8.234E-05	0.00131523	0	0	0	
0.337667	0.00570592	0.0840131	0.000120263	0.00227728	0	0	0	
0.337833	-0.010467	-0.0527968	0.000177762	0.00373327	0	0	0	
0.338	0.00920479	0.143617	0.000226515	0.00469	0	0	0	
0.338167	-0.00302061	-0.110562	0.000190618	0.00422811	0	0	0	
0.338333	-0.000430738	0.0889904	0.000123582	0.00293177	0	0	0	
0.3385	-0.000719874	-0.141139	6.21834E-05	0.00238934	0	0	0	
0.338667	0.00421411	0.22214	5.81558E-05	0.00251019	0	0	0	
0.338833	-0.00756802	-0.106405	9.01586E-05	0.00385225	0	0	0	
0.339	0.00556389	0.108999	0.000117617	0.00384133	0	0	0	
