0	-0.000639465	-0.0100498	6.39465E-08	1.00498E-06	0	5	0	
0.000166667	-0.000435892	0.0480899	2.46041E-05	0.000245193	0	5	0	
0.000333333	0.00184029	-0.0482093	4.45949E-05	0.000528055	0	5	0	
0.0005	0.00122446	-0.00912708	7.03464E-05	0.00096051	0	5	0	
0.000666667	-0.00808721	0.0989992	9.79375E-05	0.00134464	0	5	0	
0.000833333	0.00990436	-0.0719952	0.000140438	0.00168009	0	5	0	
0.001	0.000921186	-0.0275588	0.000165056	0.00173997	0	5	0	
0.00116667	-0.00352407	0.146787	0.000166873	0.00197602	0	5	0	
0.00133333	-0.0178581	-0.170515	0.000186484	0.00250912	0	5	0	
0.0015	0.00990944	0.101599	0.000214265	0.00273918	0	5	0	
0.00166667	0.00624525	-0.0514353	0.000197791	0.00303357	0	5	0	
0.00183333	0.00119687	0.00214247	0.000155495	0.00274016	0	5	0	
0.002	-0.00944802	0.0635616	0.000108271	0.00222461	0	5	0	
0.00216667	0.00877612	0.000725193	0.000171781	0.00190675	0	5	0	
0.00233333	-0.0126786	-0.0649631	0.000226971	0.00184259	0	5	0	
0.0025	0.00182818	0.0612191	0.000280838	0.00183604	0	5	0	
0.00266667	-0.00858998	-0.0564304	0.000248201	0.0015752	0	5	0	
0.00283333	0.0174159	0.00403341	0.0002315	0.000994332	0	5	0	
0.003	-0.0174291	0.0310502	0.000291485	0.000972077	0	5	0	
0.00316667	0.0044665	0.0176612	0.000316793	0.000557543	0	5	0	
0.00333333	-0.00279351	-0.0846424	0.000290741	0.000722263	0	5	0	
0.0035	0.00638739	0.115058	0.000170134	0.00118513	0	5	0	
0.00366667	-0.0172312	-0.0612623	0.000171578	0.00163415	0	5	0	
0.00383333	0.0175176	0.043081	0.000230747	0.00164304	0	5	0	
0.004	-0.00317794	-0.0765915	0.000321045	0.00137596	0	5	0	
0.00416667	-0.0114893	0.0631191	0.000367914	0.00119833	0	5	0	
0.00433333	0.00355835	0.0135242	0.000384504	0.00140595	0	5	0	
0.0045	-0.00359933	-0.0784796	0.000320968	0.00167652	0	5	0	
0.00466667	-0.00187197	0.0918355	0.000216727	0.00178543	0	5	0	
0.00483333	0.0172871	-0.0699155	0.000175401	0.00173673	0	5	0	
0.005	-0.0245958	-0.0284936	0.000253278	0.00199554	0	5	0	
0.00516667	0.0196982	0.132735	0.000367362	0.00244505	0	5	0	
0.00533333	-0.0181342	-0.152866	0.000453938	0.0027903	0	5	0	
0.0055	0.0102539	0.087299	0.000451215	0.0027373	0	5	0	
0.00566667	-0.00949275	-0.0050044	0.000381246	0.0027179	0	5	0	
0.00583333	0.010978	-0.0422621	0.000283235	0.00235425	0	5	0	
0.006	-0.00983523	0.0119656	0.000226148	0.00162705	0	5	0	
0.00616667	0.00910102	0.0137495	0.000201188	0.000916459	0	5	0	
0.00633333	-0.00944822	-0.00832043	0.000194202	0.000538327	0	5	0	
0.0065	0.00375899	0.00301056	0.000165031	0.000521713	0	5	0	
0.00666667	-0.00486039	-0.0114819	0.000145881	0.000436901	0	5	0	
0.00683333	0.0109149	0.0154074	0.000132101	0.000478224	0	5	0	
0.007	-0.0107811	-0.0283735	0.000154387	0.000532209	0	5	0	
0.00716667	0.0029292	0.0382076	0.000228474	0.000538532	0	5	0	
0.00733333	-0.000686901	-0.00987425	0.000228602	0.000678446	0	5	0	
0.0075	0.0125656	-0.0450256	0.000242957	0.00104379	0	5	0	
0.00766667	-0.0223394	0.0522044	0.000240141	0.00126659	0	5	0	
0.00783333	0.00855196	-0.0171505	0.000311009	0.0011265	0	5	0	
0.008	-0.00117559	-0.0178336	0.000299752	0.000743005	0	5	0	
0.00816667	0.0157925	0.0216574	0.000262018	0.000499152	0	5	0	
0.00833333	-0.0221897	-0.0395249	0.00026132	0.000599145	0	5	0	
0.0085	0.00998631	0.0781668	0.000310282	0.000921551	0	5	0	
0.00866667	-0.00283657	-0.0929052	0.000285944	0.00124158	0	5	0	
0.00883333	0.0102639	0.0635514	0.000213353	0.00158039	0	5	0	
0.009	-0.0142963	-0.00886721	0.000176641	0.00166716	0	5	0	
0.00916667	0.0101671	-0.0169332	0.000228935	0.00149354	0	5	0	
0.00933333	-0.00825816	0.0255614	0.000265754	0.000953862	0	5	0	
0.0095	0.00619268	-0.0181545	0.000259561	0.000656329	0	5	0	
0.00966667	0.00144509	-0.00938497	0.000202997	0.000626936	0	5	0	
0.00983333	-0.0109231	0.0152799	0.000154231	0.000622193	0	5	0	
0.01	0.000171557	0.0831214	0.000162606	0.000808107	0	5	0	
0.0101667	0.0143453	-0.142337	0.000251194	0.00122744	0	5	0	
0.0103333	-0.0195282	0.0440294	0.000381648	0.00207785	0	5	0	
0.0105	0.0315639	0.109735	0.000472476	0.00300471	0	5	0	
0.0106667	-0.0274265	-0.186106	0.000521985	0.00333749	0	5	0	
0.0108333	0.00331877	0.201701	0.000529613	0.00357877	0	5	0	
0.011	0.00997854	-0.0914343	0.000542236	0.00397056	0	5	0	
0.0111667	-0.0110733	-0.104637	0.000435009	0.00521611	0	5	0	
0.0113333	0.00669961	0.204492	0.000322177	0.00563469	0	5	0	
0.0115	0.00418126	-0.16231	0.000191618	0.00488684	0	5	0	
0.0116667	-0.00821778	0.0286084	0.000171285	0.00416282	0	5	0	
0.0118333	0.00566581	0.164879	0.000145974	0.00438239	0	5	0	
0.012	0.00440445	-0.281225	0.00017739	0.00510769	0	5	0	
0.0121667	-0.0026117	0.213113	0.000221174	0.00494472	0	5	0	
0.0123333	0.00177049	-0.0296563	0.000189299	0.00447563	0	5	0	
0.0125	0.0084079	-0.111689	0.000153555	0.00383678	0	5	0	
0.0126667	-0.0189313	0.110871	0.000145342	0.00306798	0	5	0	
0.0128333	0.0192513	-0.0388228	0.0002747	0.00243896	0	5	0	
0.013	-0.0144759	-0.0355458	0.000356474	0.00223493	0	5	0	
0.0131667	0.0177637	0.0776778	0.00041875	0.00234228	0	5	0	
0.0133333	-0.00831186	-0.0891427	0.000395556	0.00219047	0	5	0	
0.0135	0.00399656	0.0695652	0.000359143	0.00173208	0	5	0	
0.0136667	-0.00777145	-0.027262	0.000274454	0.0015089	0	5	0	
0.0138333	0.010587	-0.035883	0.000227006	0.00147115	0	5	0	
0.014	-0.00671648	0.0368324	0.000199085	0.00128212	0	5	0	
0.0141667	0.00336579	-0.00849292	0.000196948	0.000973313	0	5	0	
0.0143333	-0.00587355	0.0184585	0.000177221	0.000615914	0	5	0	
0.0145	0.010509	-0.0165666	0.000172149	0.000507221	0	5	0	
0.0146667	-0.0109725	-0.000840237	0.000170824	0.000516587	0	5	0	
0.0148333	0.0118917	0.0168085	0.000203231	0.000627686	0	5	0	
0.015	-0.00915011	-0.0451678	0.000218318	0.000789543	0	5	0	
0.0151667	0.00554557	0.0557737	0.00020203	0.000911848	0	5	0	
0.0153333	-0.00457802	-0.0222929	0.000158676	0.000876223	0	5	0	
0.0155	0.00721601	-0.0044722	0.000126902	0.000855345	0	5	0	
0.0156667	-0.00758343	0.0191918	0.000127731	0.000703148	0	5	0	
0.0158333	0.00806786	-0.0220245	0.000153687	0.000576294	0	5	0	
0.016	-0.00460826	8.80851E-05	0.000158549	0.000378258	0	5	0	
0.0161667	0.00304162	0.0308146	0.000152234	0.000329589	0	5	0	
0.0163333	-0.0067118	-0.0430884	0.000139181	0.000438644	0	5	0	
0.0165	0.0119846	0.0443375	0.000167908	0.000624581	0	5	0	
0.0166667	-0.0167688	-0.0389609	0.000225599	0.000865761	0	5	0	
0.0168333	0.0143254	0.0210138	0.000274062	0.000759867	0	5	0	
0.017	-0.00952154	-0.0289193	0.000277369	0.000725271	0	5	0	
0.0171667	0.00590432	0.0262135	0.000232225	0.000602026	0	5	0	
0.0173333	-0.007767	-0.0325491	0.000188008	0.000790223	0	5	0	
0.0175	0.0120315	0.0162698	0.000183693	0.000712584	0	5	0	
0.0176667	-0.00979424	0.0388534	0.000203907	0.000819953	0	5	0	
0.0178333	0.00920538	-0.028979	0.000226871	0.000897556	0	5	0	
0.018	-0.0101996	0.0106791	0.000242074	0.00100495	0	5	0	
0.0181667	0.0112331	0.0419019	0.000264238	0.00110359	0	5	0	
0.0183333	-0.00693549	-0.074051	0.000269596	0.00102489	0	5	0	
0.0185	0.00454858	0.0612273	0.000221847	0.00129362	0	5	0	
0.0186667	-0.00827822	-0.0555642	0.000168503	0.00145372	0	5	0	
0.0188333	0.019159	0.072269	0.000168055	0.00186552	0	5	0	
0.019	-0.0183828	0.00678965	0.00025925	0.00157048	0	5	0	
0.0191667	0.0125715	0.016659	0.000333852	0.00106554	0	5	0	
0.0193333	-0.00763791	-0.0601288	0.000323745	0.000769905	0	5	0	
0.0195	0.00411843	0.084252	0.000238677	0.00115327	0	5	0	
0.0196667	-0.00354178	-0.0719406	0.000174422	0.00150306	0	5	0	
0.0198333	0.00638093	0.0154286	0.000151278	0.00143063	0	5	0	
0.02	-0.0110538	0.033877	0.000166879	0.00108835	0	5	0	
0.0201667	0.0112571	-0.0250104	0.000200573	0.000813744	0	5	0	
0.0203333	-0.0103626	-0.0112089	0.000245145	0.000750552	0	5	0	
0.0205	0.00667355	0.0340314	0.000253551	0.000674533	0	5	0	
0.0206667	-0.00596396	-0.0421721	0.000222064	0.000726817	0	5	0	
0.0208333	0.00779277	0.0527675	0.000181554	0.000724977	0	5	0	
0.021	-0.0157069	-0.0517399	0.000182447	0.000944781	0	5	0	
0.0211667	0.0178309	0.0059914	0.000235872	0.000993781	0	5	0	
0.0213333	-0.0139511	-0.0182534	0.000287913	0.000988045	0	5	0	
0.0215	0.00602565	0.0346259	0.000288088	0.000835848	0	5	0	
0.0216667	-0.00570461	-0.0458494	0.000256006	0.000989702	0	5	0	
0.0218333	0.00699163	0.0549747	0.000221396	0.00113353	0	5	0	
0.022	-0.00612174	-0.065952	0.000207716	0.00131867	0	5	0	
0.0221667	0.00398273	0.0473064	0.000174383	0.00109248	0	5	0	
0.0223333	-0.00630827	-0.0306181	0.000146009	0.00113436	0	5	0	
0.0225	0.0115107	-0.0494681	0.000135858	0.00101532	0	5	0	
0.0226667	-0.0151258	0.0687904	0.000193688	0.00119183	0	5	0	
0.0228333	0.0142358	-0.0210846	0.000263261	0.00140724	0	5	0	
0.023	-0.00805502	-0.064177	0.000282503	0.00177671	0	5	0	
0.0231667	0.00807279	0.0761177	0.000231929	0.00191848	0	5	0	
0.0233333	-0.0124089	-0.012724	0.000190017	0.0015048	0	5	0	
0.0235	0.0161202	-0.0124009	0.000217491	0.000875925	0	5	0	
0.0236667	-0.0160467	-0.0125115	0.000280719	0.000500211	0	5	0	
0.0238333	0.0128803	0.0161085	0.000308261	0.000369449	0	5	0	
0.024	-0.00266477	-0.0352732	0.000267413	0.000376322	0	5	0	
0.0241667	0.00227356	0.0453649	0.000195631	0.000552283	0	5	0	
0.0243333	-0.00694981	-0.0218418	0.000141471	0.000588965	0	5	0	
0.0245	0.0107024	-0.00589581	0.000152138	0.000894676	0	5	0	
0.0246667	-0.00891654	0.0140864	0.000185847	0.0010424	0	5	0	
0.0248333	0.00996664	-0.00697175	0.000198561	0.00107792	0	5	0	
0.025	-0.00915268	-0.0229461	0.000192755	0.00085776	0	5	0	
0.0251667	0.00709379	0.0392236	0.000189108	0.000633265	0	5	0	
0.0253333	-0.00457208	-0.00901645	0.000221483	0.000577548	0	5	0	
0.0255	0.00382404	0.0294067	0.000223549	0.000656522	0	5	0	
0.0256667	-0.00976764	-0.0419944	0.00022781	0.000793014	0	5	0	
0.0258333	0.0102414	0.0622741	0.000228444	0.00111041	0	5	0	
0.026	-0.00395135	-0.0653937	0.00022515	0.00125057	0	5	0	
0.0261667	0.00644196	0.0225965	0.000187114	0.00115937	0	5	0	
0.0263333	-0.0128782	0.0166126	0.000162179	0.000813504	0	5	0	
0.0265	0.01127	0.0622621	0.000188669	0.000600969	0	5	0	
0.0266667	-0.0209899	-0.0324503	0.000273588	0.0008653	0	5	0	
0.0268333	0.0154814	-0.0289067	0.000353972	0.000952537	0	5	0	
0.027	-0.00552542	0.0450702	0.00033604	0.00123863	0	5	0	
0.0271667	-0.000377997	-0.0200936	0.000256352	0.000856604	0	5	0	
0.0273333	-0.00199557	0.00272675	0.000175672	0.00088511	0	5	0	
0.0275	0.00224717	0.0289809	0.000143458	0.000499595	0	5	0	
0.0276667	-0.0102922	-0.00435909	0.000142604	0.000504631	0	5	0	
0.0278333	0.0131743	0.000954609	0.000170666	0.000321534	0	5	0	
0.028	-0.00629199	-0.0421489	0.000182583	0.000444221	0	5	0	
0.0281667	0.00645721	0.0296184	0.000192399	0.00057722	0	5	0	
0.0283333	-0.00814416	0.00185015	0.00017261	0.000848456	0	5	0	
0.0285	0.00688829	-0.0278775	0.000190405	0.000785895	0	5	0	
0.0286667	-0.00457107	0.00938	0.000186481	0.000747584	0	5	0	
0.0288333	0.0121828	-0.0152347	0.000200566	0.000745769	0	5	0	
0.029	-0.00504738	-0.0356714	0.00020519	0.0009104	0	5	0	
0.0291667	0.00560853	0.0520245	0.000199151	0.00129287	0	5	0	
0.0293333	-0.00790752	-0.0592988	0.000148831	0.00154288	0	5	0	
0.0295	0.0122548	0.0306408	0.000166739	0.0016083	0	5	0	
0.0296667	-0.00837868	-0.0203733	0.000224476	0.00109578	0	5	0	
0.0298333	0.00848332	0.00502604	0.000283122	0.000632833	0	5	0	
0.03	-0.000144549	-0.0480525	0.000245751	0.000588685	0	5	0	
0.0301667	0.00437511	0.0614628	0.000162826	0.000895458	0	5	0	
0.0303333	-0.0401123	0.0441768	0.000248707	0.0010373	0	5	0	
0.0305	0.0553571	-0.0606637	0.000602	0.000947026	0	5	0	
0.0306667	-0.0467915	0.0349096	0.000905092	0.00110411	0	5	0	
0.0308333	0.0271632	0.0349833	0.000939964	0.00172112	0	5	0	
0.031	-0.0116244	-0.089798	0.000731853	0.00213529	0	5	0	
0.0311667	0.00195589	0.110969	0.000572946	0.00209673	0	5	0	
0.0313333	0.00318698	-0.03088	0.00041251	0.00220599	0	5	0	
0.0315	-0.0125261	-0.01228	0.000361182	0.00269512	0	5	0	
0.0316667	0.00974056	0.0733286	0.000438835	0.00280215	0	5	0	
0.0318333	0.00956278	-0.0719058	0.000537501	0.00220188	0	5	0	
0.032	-0.0174182	0.0171484	0.000467384	0.00157583	0	5	0	
0.0321667	0.0141574	0.0636916	0.000349227	0.0015209	0	5	0	
0.0323333	-0.00735701	-0.0990969	0.000281336	0.00162312	0	5	0	
0.0325	0.0116781	0.056523	0.000273517	0.00166214	0	5	0	
0.0326667	-0.0170977	-0.00858237	0.000246258	0.00150859	0	5	0	
0.0328333	0.0189219	-0.02179	0.000275148	0.00126004	0	5	0	
0.033	-0.0135899	0.0124734	0.000318828	0.000852436	0	5	0	
0.0331667	0.00814712	0.0313299	0.000323889	0.000720032	0	5	0	
0.0333333	-0.00631836	-0.0517555	0.000280522	0.000752897	0	5	0	
0.0335	0.0106435	0.0252667	0.00023665	0.0008727	0	5	0	
0.0336667	-0.0111357	-0.0147646	0.000216741	0.000691303	0	5	0	
0.0338333	0.00841435	0.0165003	0.000225164	0.000536544	0	5	0	
0.034	-0.00862366	-0.009779	0.000230797	0.000361206	0	5	0	
0.0341667	0.00760107	0.00958578	0.000225625	0.000263557	0	5	0	
0.0343333	-0.00645299	-0.0216275	0.000216879	0.000241216	0	5	0	
0.0345	0.00684034	0.0213235	0.000210491	0.000319224	0	5	0	
0.0346667	-0.00757819	-0.0156369	0.000203891	0.000375742	0	5	0	
0.0348333	0.00807507	0.0119738	0.000195986	0.000382295	0	5	0	
0.035	-0.00802876	-0.00970594	0.000191301	0.000283655	0	5	0	
0.0351667	0.00713815	0.0117471	0.0001861	0.000231312	0	5	0	
0.0353333	-0.00603235	-0.0182809	0.000181526	0.000237565	0	5	0	
0.0355	0.0073989	0.0159967	0.000179543	0.000351705	0	5	0	
0.0356667	-0.00924701	-0.00742974	0.000190123	0.000407363	0	5	0	
0.0358333	0.00898075	0.00817827	0.000206437	0.000372482	0	5	0	
0.036	-0.00779646	-0.00866427	0.000214189	0.000260563	0	5	0	
0.0361667	0.00741153	0.00986041	0.00020274	0.000197067	0	5	0	
0.0363333	-0.00716644	-0.0184142	0.000190596	0.00020741	0	5	0	
0.0365	0.00659522	0.0302694	0.000187003	0.000305014	0	5	0	
0.0366667	-0.00750452	-0.0302216	0.000194269	0.000457099	0	5	0	
0.0368333	0.00820703	0.014327	0.000201075	0.000576207	0	5	0	
0.037	-0.00879684	0.00286493	0.000198788	0.000545112	0	5	0	
0.0371667	0.0092908	-0.00437543	0.000198096	0.000360437	0	5	0	
0.0373333	-0.00877408	-0.00607394	0.000199933	0.000233487	0	5	0	
0.0375	0.00806749	0.0109444	0.000203728	0.000153155	0	5	0	
0.0376667	-0.00867917	-0.017593	0.000211208	0.000218514	0	5	0	
0.0378333	0.00710437	0.0248243	0.000213431	0.000287099	0	5	0	
0.038	-0.00686278	-0.0177816	0.000207586	0.000388239	0	5	0	
0.0381667	0.00897272	0.00781603	0.000194861	0.000435221	0	5	0	
0.0383333	-0.00867034	-0.00796484	0.00019044	0.000371706	0	5	0	
0.0385	0.00834239	0.014505	0.000197777	0.000313944	0	5	0	
0.0386667	-0.00869957	-0.0237781	0.000208521	0.000301557	0	5	0	
0.0388333	0.00765292	0.0286104	0.00021134	0.000392742	0	5	0	
0.039	-0.00623588	-0.0198644	0.000215029	0.000449335	0	5	0	
0.0391667	0.00619656	0.021501	0.000200009	0.000463248	0	5	0	
0.0393333	-0.00898268	-0.0193335	0.000186713	0.000445402	0	5	0	
0.0395	0.0111735	0.00895027	0.000189822	0.000398307	0	5	0	
0.0396667	-0.0108708	-0.00465571	0.000218948	0.000295702	0	5	0	
0.0398333	0.00960655	-0.000431195	0.000240866	0.000182065	0	5	0	
0.04	-0.00870887	0.00602195	0.000245286	0.000131532	0	5	0	
0.0401667	0.00700222	0.0064855	0.000221413	0.000121289	0	5	0	
0.0403333	-0.00742399	-0.0192898	0.00020281	0.000195224	0	5	0	
0.0405	0.00950951	0.0213769	0.000192556	0.000285987	0	5	0	
0.0406667	-0.0101755	-0.0210801	0.000202241	0.00038917	0	5	0	
0.0408333	0.00807592	0.0172819	0.000203419	0.000401109	0	5	0	
0.041	-0.00534752	-0.0156938	0.000194595	0.000382184	0	5	0	
0.0411667	0.00328657	0.0105861	0.000159499	0.000409062	0	5	0	
0.0413333	-0.00654766	-0.00176532	0.000135847	0.000396213	0	5	0	
0.0415	0.00985326	0.00108485	0.00013198	0.000308877	0	5	0	
0.0416667	-0.00910734	-0.0154699	0.000184852	0.000264584	0	5	0	
0.0418333	0.00484255	0.0425677	0.000264752	0.000394126	0	5	0	
0.042	-0.00380363	-0.0520042	0.000293068	0.000634826	0	5	0	
0.0421667	0.00666736	0.0234161	0.000261931	0.000832148	0	5	0	
0.0423333	-0.0057378	0.00290687	0.000214236	0.000814002	0	5	0	
0.0425	0.0058005	-0.0106978	0.000191032	0.000660073	0	5	0	
0.0426667	-0.0164532	0.0366085	0.000204421	0.000509926	0	5	0	
0.0428333	0.0241874	-0.0398786	0.000259231	0.000523697	0	5	0	
0.043	-0.0154034	-0.0189496	0.000359158	0.000798002	0	5	0	
0.0431667	0.0046876	0.0656775	0.000410061	0.00103163	0	5	0	
0.0433333	-0.00580743	-0.0504478	0.000340824	0.00114526	0	5	0	
0.0435	0.0119727	0.0121435	0.000243048	0.00115564	0	5	0	
0.0436667	-0.00932848	-0.000666562	0.000194096	0.00101974	0	5	0	
0.0438333	0.00690333	0.0042113	0.00020461	0.000858553	0	5	0	
0.044	-0.00885448	0.00380988	0.000203935	0.000670019	0	5	0	
0.0441667	0.0116662	-0.0118018	0.00019451	0.000465282	0	5	0	
0.0443333	-0.00779204	-0.00174554	0.000209225	0.000502135	0	5	0	
0.0445	0.00363855	0.0285532	0.000210619	0.000597598	0	5	0	
0.0446667	-0.00446808	-0.0374358	0.000181866	0.000783245	0	5	0	
0.0448333	0.00700047	0.0313657	0.000140256	0.00076389	0	5	0	
0.045	-0.00660226	-0.0169901	0.000141264	0.000665744	0	5	0	
0.0451667	0.00705997	0.0103451	0.000185895	0.000627787	0	5	0	
0.0453333	-0.00769725	0.00433078	0.000223715	0.000617609	0	5	0	
0.0455	0.0085107	-0.015815	0.000235686	0.000598181	0	5	0	
0.0456667	-0.00795224	0.0125418	0.000235147	0.000489343	0	5	0	
0.0458333	0.00767757	0.0229751	0.000239848	0.00043427	0	5	0	
0.046	-0.00889933	-0.0435993	0.000241777	0.000451818	0	5	0	
0.0461667	0.0107935	0.032606	0.000244813	0.000606573	0	5	0	
0.0463333	-0.0111877	-0.0114999	0.000253612	0.000649052	0	5	0	
0.0465	0.0103219	0.00267462	0.000258447	0.000538921	0	5	0	
0.0466667	-0.00888757	-0.00380683	0.000246243	0.000335739	0	5	0	
0.0468333	0.00885553	0.0152077	0.000226327	0.00025871	0	5	0	
0.047	-0.00637324	-0.0261743	0.000204419	0.000332676	0	5	0	
0.0471667	0.00721867	0.0231586	0.000184196	0.000445462	0	5	0	
0.0473333	-0.00909604	-0.00905732	0.000176384	0.00043819	0	5	0	
0.0475	0.00893766	0.00738786	0.000176451	0.000375134	0	5	0	
0.0476667	-0.00707595	-0.00927325	0.00018446	0.00036777	0	5	0	
0.0478333	0.00780046	0.00660351	0.000185008	0.000416743	0	5	0	
0.048	-0.00744346	-0.00973289	0.000180182	0.000391991	0	5	0	
0.0481667	0.00932867	0.0212045	0.000189201	0.000356169	0	5	0	
0.0483333	-0.0102443	-0.025756	0.000207536	0.000390089	0	5	0	
0.0485	0.00864818	0.0314197	0.000227565	0.00049543	0	5	0	
0.0486667	-0.00664162	-0.0329707	0.000224386	0.000577698	0	5	0	
0.0488333	0.00569742	0.0210494	0.000200169	0.000572632	0	5	0	
0.049	-0.00604853	-0.0140747	0.000174022	0.000519488	0	5	0	
0.0491667	0.00943424	0.00504676	0.000171625	0.000433171	0	5	0	
0.0493333	-0.011771	0.0116247	0.000200159	0.000394596	0	5	0	
0.0495	0.0102296	-0.00710763	0.000221957	0.000378105	0	5	0	
0.0496667	-0.00905513	0.00325949	0.000236441	0.000290328	0	5	0	
0.0498333	0.00769131	0.0102405	0.000231906	0.000276885	0	5	0	
0.05	-0.00713642	-0.0296446	0.000237129	0.000296957	0	5	0	
0.0501667	0.00813111	0.0294978	0.00022481	0.00045881	0	5	0	
0.0503333	-0.00890688	-0.0246337	0.000207938	0.000514718	0	5	0	
0.0505	0.00842167	0.0306095	0.000179691	0.000651419	0	5	0	
0.0506667	-0.010108	-0.00773498	0.000190751	0.000623781	0	5	0	
0.0508333	0.00967465	0.00499698	0.000201306	0.000600152	0	5	0	
0.051	-0.0101537	0.00407477	0.000233084	0.00040674	0	5	0	
0.0511667	0.00880584	-0.00635883	0.000230508	0.000276229	0	5	0	
0.0513333	-0.00875365	0.000423634	0.00022649	0.000161618	0	5	0	
0.0515	0.00832286	0.0161639	0.00021073	0.000139751	0	5	0	
0.0516667	-0.00876618	-0.0234731	0.000215563	0.000256525	0	5	0	
0.0518333	0.00819146	0.0329651	0.000218029	0.00045652	0	5	0	
0.052	-0.00936685	-0.0205066	0.000228114	0.000582474	0	5	0	
0.0521667	0.00836971	0.00869079	0.000222493	0.000550688	0	5	0	
0.0523333	-0.0075157	-0.00201445	0.000207566	0.000388605	0	5	0	
0.0525	0.00721813	0.00707241	0.000178307	0.000286264	0	5	0	
0.0526667	-0.00795882	-0.00665957	0.000162882	0.000236349	0	5	0	
0.0528333	0.00778026	0.0135767	0.000172735	0.000228452	0	5	0	
0.053	-0.00757351	-0.022063	0.000198866	0.000263035	0	5	0	
0.0531667	0.0068541	0.0117887	0.00021109	0.000308933	0	5	0	
0.0533333	-0.00560967	-0.00386862	0.000205988	0.000319885	0	5	0	
0.0535	0.000480434	0.0172032	0.000178534	0.000279774	0	5	0	
0.0536667	-0.00316791	-0.00913086	0.000148524	0.000282983	0	5	0	
0.0538333	0.00632229	0.0196421	0.000132931	0.000308038	0	5	0	
0.054	-0.00871967	-0.0295628	0.0001485	0.000381699	0	5	0	
0.0541667	0.00904445	0.0272085	0.000176084	0.000447569	0	5	0	
0.0543333	-0.00903516	-0.0180156	0.000196419	0.00057205	0	5	0	
0.0545	0.00558777	0.0187309	0.00020411	0.000644038	0	5	0	
0.0546667	-0.00712051	0.00151904	0.000221911	0.000602665	0	5	0	
0.0548333	0.00632839	-0.000615132	0.000225898	0.000426063	0	5	0	
0.055	-0.00698627	-0.00276455	0.000215848	0.000238534	0	5	0	
0.0551667	0.00603395	0.0145936	0.000183747	0.000219785	0	5	0	
0.0553333	-0.00570215	-0.0273943	0.000169039	0.000330433	0	5	0	
0.0555	0.00568456	0.0342241	0.000171414	0.000469491	0	5	0	
0.0556667	-0.00672135	-0.02665	0.000181168	0.000556786	0	5	0	
0.0558333	0.0060087	0.0139013	0.000183092	0.000533808	0	5	0	
0.056	-0.00526605	-0.0127182	0.000173122	0.000480127	0	5	0	
0.0561667	0.00699891	0.00487569	0.000164222	0.000386616	0	5	0	
0.0563333	-0.00836719	-0.00345545	0.000169195	0.000338237	0	5	0	
0.0565	0.00701594	0.00858484	0.000184774	0.000286061	0	5	0	
0.0566667	-0.00592037	-0.0124122	0.00019291	0.000270834	0	5	0	
0.0568333	0.0076562	0.0138064	0.000192997	0.000279672	0	5	0	
0.057	-0.0127338	-0.00101947	0.000203297	0.000302745	0	5	0	
0.0571667	0.0119007	0.0092935	0.000231484	0.000253228	0	5	0	
0.0573333	-0.00843498	-0.0205504	0.000256061	0.000262554	0	5	0	
0.0575	0.00528171	0.0282558	0.000274473	0.000337571	0	5	0	
0.0576667	-0.00430045	-0.0241326	0.000264555	0.000441128	0	5	0	
0.0578333	0.0059312	0.00974908	0.000242307	0.000548034	0	5	0	
0.058	-0.00474425	0.0103726	0.000209353	0.000581006	0	5	0	
0.0581667	0.00260606	-0.0282682	0.000195127	0.000627655	0	5	0	
0.0583333	-0.00378205	0.00641438	0.000173926	0.00050617	0	5	0	
0.0585	0.00763449	0.0155542	0.00016483	0.000389723	0	5	0	
0.0586667	-0.00782665	-0.0353353	0.000165008	0.000369939	0	5	0	
0.0588333	0.00629392	0.0526452	0.000181706	0.000538672	0	5	0	
0.059	-0.00770479	-0.0454062	0.000183678	0.000797693	0	5	0	
0.0591667	0.0183151	-0.00498667	0.000207377	0.000973205	0	5	0	
0.0593333	-0.0130444	-0.0226842	0.000241549	0.0011675	0	5	0	
0.0595	0.0146475	0.0126605	0.000311993	0.00105466	0	5	0	
0.0596667	-0.010002	-0.00864719	0.000343309	0.0008183	0	5	0	
0.0598333	0.00577215	0.00935636	0.00032195	0.000453587	0	5	0	
0.06	-0.0043487	-0.00593465	0.00024359	0.000338054	0	5	0	
0.0601667	0.00431387	0.00816657	0.000174278	0.00035498	0	5	0	
0.0603333	-0.00181807	-0.0358596	0.000143759	0.000367088	0	5	0	
0.0605	0.00609425	0.012897	0.000146342	0.00046491	0	5	0	
0.0606667	-0.00660168	0.00169166	0.000135428	0.000427292	0	5	0	
0.0608333	0.00819404	-0.00296132	0.000148682	0.0004138	0	5	0	
0.061	-0.00369948	-0.00945769	0.000180029	0.000261947	0	5	0	
0.0611667	-0.00114012	0.0196785	0.000244653	0.0002735	0	5	0	
0.0613333	-0.00185136	-0.0198895	0.000228747	0.000380999	0	5	0	
0.0615	0.0113916	-0.00358839	0.000200919	0.000576546	0	5	0	
0.0616667	-0.0146581	0.0253654	0.000175247	0.000604902	0	5	0	
0.0618333	0.0119836	-0.0138816	0.000242798	0.000587142	0	5	0	
0.062	-0.0104491	-0.0133091	0.000287735	0.000385755	0	5	0	
0.0621667	0.0108665	0.0150164	0.000303338	0.000350553	0	5	0	
0.0623333	-0.00806378	-0.0193252	0.00029212	0.000260435	0	5	0	
0.0625	0.00187926	0.0267866	0.000277058	0.000370567	0	5	0	
0.0626667	-0.000521247	-0.0121971	0.000219663	0.00050563	0	5	0	
0.0628333	0.00781584	-0.00916645	0.000152886	0.000701774	0	5	0	
0.063	-0.0121792	0.0119097	0.00013915	0.000727393	0	5	0	
0.0631667	0.00888488	-0.00443354	0.00017935	0.000528747	0	5	0	
0.0633333	-0.00573927	-0.0127244	0.000223165	0.000348708	0	5	0	
0.0635	0.00588763	0.0238335	0.000211754	0.000314897	0	5	0	
0.0636667	-0.00722222	-0.0245956	0.000187423	0.000444516	0	5	0	
0.0638333	0.00758314	0.0219937	0.000176646	0.000479063	0	5	0	
0.064	-0.00503308	-0.0169821	0.000177991	0.000439304	0	5	0	
0.0641667	0.00402867	0.0115326	0.000178532	0.000374849	0	5	0	
0.0643333	-0.00476748	-0.0103103	0.00016728	0.000365025	0	5	0	
0.0645	0.00618945	0.00411911	0.000163037	0.000388401	0	5	0	
0.0646667	-0.00673148	0.00168558	0.000162245	0.000455614	0	5	0	
0.0648333	0.00812182	-0.00552217	0.000174005	0.000465733	0	5	0	
0.065	-0.00556798	-0.00145084	0.000183815	0.000380641	0	5	0	
0.0651667	0.00438567	0.0134471	0.000192786	0.000283147	0	5	0	
0.0653333	-0.00463089	-0.0143989	0.000181862	0.000246866	0	5	0	
0.0655	0.00717819	0.0166015	0.000175432	0.0002989	0	5	0	
0.0656667	-0.00802385	-0.0182155	0.000175504	0.000347838	0	5	0	
0.0658333	0.00770369	0.0176079	0.000192042	0.000359227	0	5	0	
0.066	-0.00516107	-0.0207827	0.000205821	0.000366153	0	5	0	
0.0661667	0.00382393	0.0229529	0.000208396	0.00040642	0	5	0	
0.0663333	-0.0067393	-0.0183963	0.000198745	0.000449933	0	5	0	
0.0665	0.0070507	0.0211354	0.000192238	0.000476086	0	5	0	
0.0666667	-0.00528649	-0.0245081	0.000179512	0.000475036	0	5	0	
0.0668333	0.0084823	0.0139251	0.000171817	0.000454847	0	5	0	
0.067	-0.0152413	-0.00348078	0.0001804	0.00043147	0	5	0	
0.0671667	0.0133351	0.0182491	0.000241631	0.000368425	0	5	0	
0.0673333	-0.00440025	-0.0534811	0.000329934	0.000494902	0	5	0	
0.0675	-0.000370871	0.060242	0.000344385	0.000724386	0	5	0	
0.0676667	-0.00445591	-0.0220474	0.000258631	0.000934464	0	5	0	
0.0678333	0.00599642	-0.00868947	0.000158543	0.000896531	0	5	0	
0.068	-0.00477946	0.0033793	0.000116534	0.000628993	0	5	0	
0.0681667	0.00700644	-0.0032586	0.000131241	0.000372616	0	5	0	
0.0683333	-0.0117105	0.00639581	0.000153036	0.000155558	0	5	0	
0.0685	0.00940101	0.0113745	0.000194009	0.000211005	0	5	0	
0.0686667	-0.00451885	-0.0294049	0.000235374	0.00032058	0	5	0	
0.0688333	0.00379899	0.0193539	0.000223577	0.000452253	0	5	0	
0.069	-0.00653625	-0.0100853	0.000183639	0.000469605	0	5	0	
0.0691667	0.00600532	0.0125061	0.000155725	0.000426542	0	5	0	
0.0693333	-0.00631191	-0.0185131	0.00017554	0.000395379	0	5	0	
0.0695	0.00649787	0.0266329	0.000209082	0.000384198	0	5	0	
0.0696667	-0.00563246	-0.0297974	0.000225036	0.000456115	0	5	0	
0.0698333	0.00661928	0.0157989	0.000213967	0.000531277	0	5	0	
0.07	-0.00697243	-0.00562968	0.00019637	0.000530457	0	5	0	
0.0701667	0.00455138	0.0126564	0.000186718	0.000441183	0	5	0	
0.0703333	-0.00541941	-0.0145868	0.000195635	0.000348064	0	5	0	
0.0705	0.00622728	0.0177302	0.0001975	0.000311797	0	5	0	
0.0706667	-0.00561813	-0.0157345	0.000187652	0.000338974	0	5	0	
0.0708333	0.00551279	0.00409591	0.000166988	0.000338427	0	5	0	
0.071	-0.00663182	0.000164739	0.000161487	0.00029103	0	5	0	
0.0711667	0.00472924	0.00960292	0.000171443	0.000206589	0	5	0	
0.0713333	-0.0059243	-0.0140545	0.000188008	0.000212852	0	5	0	
0.0715	0.00569804	0.0214887	0.000190881	0.000254227	0	5	0	
0.0716667	-0.00482537	-0.0255893	0.000183567	0.000371323	0	5	0	
0.0718333	0.00481654	0.0189044	0.000176667	0.00041346	0	5	0	
0.072	-0.00504278	-0.0113157	0.000173065	0.000461074	0	5	0	
0.0721667	0.00444192	0.00661537	0.000176238	0.000460825	0	5	0	
0.0723333	-0.00377449	0.00169298	0.000165978	0.000434674	0	5	0	
0.0725	0.00644519	-0.00133196	0.000153923	0.000329831	0	5	0	
0.0726667	-0.00930176	-0.0118484	0.000160524	0.000238354	0	5	0	
0.0728333	0.0065889	0.0256658	0.000188445	0.000260957	0	5	0	
0.073	-0.000381114	-0.0279941	0.000221025	0.000370163	0	5	0	
0.0731667	0.000965764	0.013791	0.000220672	0.000545241	0	5	0	
0.0733333	-0.00215451	0.00482107	0.00018602	0.000670718	0	5	0	
0.0735	0.00515907	-0.0065461	0.000151314	0.000686353	0	5	0	
0.0736667	-0.00614529	-0.00365327	0.00014183	0.000482051	0	5	0	
0.0738333	0.00696883	0.0190913	0.000157275	0.000322324	0	5	0	
0.074	-0.00636838	-0.0329054	0.000180984	0.000322189	0	5	0	
0.0741667	0.00495689	0.031429	0.000203517	0.00048517	0	5	0	
0.0743333	-0.0023968	-0.0249617	0.000215265	0.00057812	0	5	0	
0.0745	0.00440769	0.0197143	0.00020377	0.000611788	0	5	0	
0.0746667	-0.00712716	-0.00503765	0.000183765	0.000571517	0	5	0	
0.0748333	0.00869216	-0.00117992	0.000188688	0.000409732	0	5	0	
0.075	-0.0065323	-0.0103086	0.00021107	0.00026427	0	5	0	
0.0751667	0.00462641	0.0133761	0.000227162	0.000176615	0	5	0	
0.0753333	-0.00427855	-0.00619325	0.000221584	0.000237669	0	5	0	
0.0755	0.00467313	0.00994063	0.000203488	0.000294542	0	5	0	
0.0756667	-0.00478583	-0.0106244	0.000177084	0.000353811	0	5	0	
0.0758333	0.0061313	0.00323117	0.00014511	0.000384069	0	5	0	
0.076	-0.0132438	0.00665016	0.000149198	0.000378054	0	5	0	
0.0761667	0.0147593	-0.00431211	0.000198521	0.000294544	0	5	0	
0.0763333	-0.0105551	-0.0136579	0.000301112	0.000248877	0	5	0	
0.0765	0.00193851	0.0442448	0.00037856	0.000338135	0	5	0	
0.0766667	-4.56193E-05	-0.0584804	0.000386297	0.000631695	0	5	0	
0.0768333	-0.00129552	0.0530126	0.000327126	0.000888306	0	5	0	
0.077	0.00185971	-0.0388851	0.000245804	0.00101958	0	5	0	
0.0771667	0.00282807	0.00455754	0.000163795	0.00105618	0	5	0	
0.0773333	-0.0127881	0.034341	0.000134001	0.00108635	0	5	0	
0.0775	0.0147237	-0.0416797	0.000163046	0.000968742	0	5	0	
0.0776667	-0.0116945	0.0230277	0.000254956	0.00086504	0	5	0	
0.0778333	0.0052822	0.0115043	0.000308877	0.000754468	0	5	0	
0.078	-0.00412419	-0.0293631	0.000288928	0.000711761	0	5	0	
0.0781667	0.00786704	0.0307688	0.000246826	0.000620068	0	5	0	
0.0783333	-0.00639886	-0.0457235	0.000220734	0.000589014	0	5	0	
0.0785	0.00691641	0.0596971	0.000228466	0.000787597	0	5	0	
0.0786667	-0.0168078	-0.00301799	0.000298408	0.000937761	0	5	0	
0.0788333	0.00115947	-0.0107211	0.000253094	0.00107147	0	5	0	
0.079	0.000271969	-0.00319386	0.000240315	0.000962547	0	5	0	
0.0791667	0.00397844	0.000644442	0.000178007	0.000730465	0	5	0	
0.0793333	-0.00450062	-0.00696066	0.00022378	0.000402865	0	5	0	
0.0795	0.0024545	0.0380487	0.00022534	0.000305588	0	5	0	
0.0796667	-0.00889381	-0.0288178	0.000212067	0.000510765	0	5	0	
0.0798333	-0.0034732	0.0347864	0.000182131	0.000604415	0	5	0	
0.08	-0.00542904	-0.0350907	0.000177105	0.000767454	0	5	0	
0.0801667	0.00845593	0.00885754	0.000205638	0.000653981	0	5	0	
0.0803333	-0.00785911	0.000211161	0.000248053	0.000611724	0	5	0	
0.0805	0.00538212	0.017646	0.000257866	0.000362179	0	5	0	
0.0806667	-0.00522679	-0.0249108	0.000231971	0.00032891	0	5	0	
0.0808333	0.00582721	0.0193922	0.000206285	0.000372758	0	5	0	
0.081	-0.00619701	-0.013324	0.000192413	0.000433432	0	5	0	
0.0811667	0.00606953	0.00654909	0.000182944	0.000439957	0	5	0	
0.0813333	-0.00478338	-0.00447705	0.000183036	0.000421733	0	5	0	
0.0815	0.00386108	0.00928247	0.000186669	0.000363508	0	5	0	
0.0816667	-0.00406502	-0.0160234	0.000185098	0.000322769	0	5	0	
0.0818333	0.00524294	0.0148346	0.000183618	0.000343139	0	5	0	
0.082	-0.00536826	-0.0204131	0.000181215	0.000391777	0	5	0	
0.0821667	0.00577974	0.0172964	0.000180497	0.000408048	0	5	0	
0.0823333	-0.00556601	-0.011783	0.000176137	0.000389209	0	5	0	
0.0825	0.00445167	0.0124573	0.000182636	0.00034009	0	5	0	
0.0826667	-0.00376996	-0.0195275	0.000190619	0.000311121	0	5	0	
0.0828333	0.00492738	0.0166941	0.00019436	0.000372221	0	5	0	
0.083	-0.00486296	-0.0166369	0.000189996	0.000457334	0	5	0	
0.0831667	0.00574705	0.01494	0.000189372	0.0004874	0	5	0	
0.0833333	-0.00545116	-0.0110406	0.000186002	0.000442401	0	5	0	
0.0835	0.00501532	0.0114487	0.000183046	0.000381983	0	5	0	
0.0836667	-0.00555424	-0.0164937	0.000182535	0.000338698	0	5	0	
0.0838333	0.00669709	0.0171386	0.000193385	0.000329755	0	5	0	
0.084	-0.00673775	-0.0156225	0.00020563	0.000330583	0	5	0	
0.0841667	0.00645892	0.00931831	0.000210101	0.000309992	0	5	0	
0.0843333	-0.00569652	-0.00267671	0.000206923	0.000235871	0	5	0	
0.0845	0.00446162	0.00505691	0.000198813	0.000200192	0	5	0	
0.0846667	-0.00472368	-0.0122611	0.000194385	0.000215399	0	5	0	
0.0848333	0.00595747	0.0145776	0.000193842	0.000280047	0	5	0	
0.085	-0.00680007	-0.0137325	0.00019567	0.000332364	0	5	0	
0.0851667	0.00696831	0.00915047	0.000193575	0.000325566	0	5	0	
0.0853333	-0.00607909	-0.0128326	0.000191748	0.000290031	0	5	0	
0.0855	0.00475673	0.0186265	0.000189529	0.000267105	0	5	0	
0.0856667	-0.00473202	-0.0256421	0.000192734	0.000342332	0	5	0	
0.0858333	0.00495711	0.0230117	0.000194479	0.000436354	0	5	0	
0.086	-0.00587838	-0.0150853	0.000195562	0.000481554	0	5	0	
0.0861667	0.00568833	0.000933329	0.000183866	0.000399477	0	5	0	
0.0863333	-0.00537172	0.00670691	0.000164347	0.000293206	0	5	0	
0.0865	0.00549835	-0.00729474	0.000151614	0.000209225	0	5	0	
0.0866667	-0.00568645	-0.0018564	0.000158911	0.000160332	0	5	0	
0.0868333	0.0060136	0.0157476	0.000186263	0.000157929	0	5	0	
0.087	-0.00540427	-0.0250207	0.00021039	0.00023689	0	5	0	
0.0871667	0.00431062	0.0205081	0.000211968	0.000385266	0	5	0	
0.0873333	-0.00332877	-0.0153528	0.000187179	0.00050693	0	5	0	
0.0875	0.00391439	0.0132688	0.000161935	0.000522637	0	5	0	
0.0876667	-0.00476347	-0.0129033	0.000157377	0.000461145	0	5	0	
0.0878333	0.00427698	0.0137272	0.000169353	0.000372925	0	5	0	
0.088	-0.00347533	-0.0189103	0.000169208	0.000343799	0	5	0	
0.0881667	0.00477663	0.0175772	0.000153385	0.000354387	0	5	0	
0.0883333	-0.00479915	-0.0226263	0.000141254	0.000370143	0	5	0	
0.0885	0.00416686	0.0259215	0.000159549	0.000409627	0	5	0	
0.0886667	-0.0028376	-0.010605	0.00019498	0.000544974	0	5	0	
0.0888333	0.00203255	-0.016069	0.000216201	0.000793123	0	5	0	
0.089	-0.00468615	0.0241547	0.000220334	0.000909192	0	5	0	
0.0891667	0.00534613	-0.0176758	0.000225146	0.000765586	0	5	0	
0.0893333	-0.00505035	-0.00268931	0.000246252	0.000546306	0	5	0	
0.0895	0.00306693	0.0410667	0.000260231	0.000505813	0	5	0	
0.0896667	-0.00205306	-0.0664025	0.000252434	0.000728979	0	5	0	
0.0898333	0.00300005	0.061023	0.000226493	0.000993435	0	5	0	
0.09	-0.00605681	-0.0346626	0.000201831	0.00111643	0	5	0	
0.0901667	0.00782538	0.00698034	0.000186602	0.00108145	0	5	0	
0.0903333	-0.00894625	0.0128574	0.000189024	0.000911618	0	5	0	
0.0905	0.00711357	0.00101793	0.000209175	0.00057716	0	5	0	
0.0906667	-0.00452869	-0.0256156	0.000230478	0.000433157	0	5	0	
0.0908333	0.00363312	0.0265454	0.000233622	0.000372039	0	5	0	
0.091	-0.00364066	-0.0174943	0.000217379	0.000469056	0	5	0	
0.0911667	0.00235214	0.0183353	0.00019019	0.000446849	0	5	0	
0.0913333	-0.00564629	-0.0108576	0.00017144	0.000437693	0	5	0	
0.0915	0.00785938	0.00789862	0.000177408	0.000401609	0	5	0	
0.0916667	-0.00440386	-0.0169126	0.000205741	0.000381683	0	5	0	
0.0918333	0.00115089	0.0192105	0.000231632	0.000374436	0	5	0	
0.092	-0.00239064	-0.0166703	0.000220491	0.000389331	0	5	0	
0.0921667	0.00347675	0.0132215	0.000187235	0.000365368	0	5	0	
0.0923333	-0.00745212	-0.00799306	0.000173815	0.000323062	0	5	0	
0.0925	0.00639785	0.00638773	0.000198612	0.000317811	0	5	0	
0.0926667	0.000587233	-0.014246	0.000234605	0.00029532	0	5	0	
0.0928333	-7.99291E-06	0.0114548	0.000202543	0.000286049	0	5	0	
0.093	-0.0106676	0.0165014	0.000166194	0.000409822	0	5	0	
0.0931667	0.0178121	-0.0279131	0.000169748	0.000477072	0	5	0	
0.0933333	-0.0149935	-0.00595634	0.000247431	0.00059579	0	5	0	
0.0935	0.00901275	0.0423519	0.000322919	0.000667838	0	5	0	
0.0936667	-0.00250629	-0.0559163	0.00033574	0.000812914	0	5	0	
0.0938333	-0.00279093	0.050373	0.00031262	0.000946962	0	5	0	
0.094	0.00607996	-0.0264193	0.000239648	0.00113256	0	5	0	
0.0941667	-0.000721203	-0.0175338	0.000156829	0.00145039	0	5	0	
0.0943333	-0.00843577	0.043467	9.74674E-05	0.00148128	0	5	0	
0.0945	0.0128631	-0.0213219	0.000119101	0.00119087	0	5	0	
0.0946667	-0.00915354	-0.0258838	0.000197302	0.000997769	0	5	0	
0.0948333	0.00248576	0.0560455	0.000258343	0.000988237	0	5	0	
0.095	0.00145275	-0.0682017	0.000264404	0.00119155	0	5	0	
0.0951667	0.000188942	0.0489186	0.000217039	0.00113849	0	5	0	
0.0953333	-0.00543486	-0.012731	0.000164533	0.00108116	0	5	0	
0.0955	0.0100798	-0.0162885	0.000151209	0.000914124	0	5	0	
0.0956667	-0.0076404	0.0149935	0.000185904	0.000628333	0	5	0	
0.0958333	0.00226588	-9.13505E-05	0.000220063	0.000404752	0	5	0	
0.096	-0.0020322	-0.00831436	0.000214201	0.000221998	0	5	0	
0.0961667	0.00477889	0.00104246	0.000192613	0.000223441	0	5	0	
0.0963333	-0.00393649	-0.00120018	0.000199214	0.000241467	0	5	0	
0.0965	0.0032832	0.0110161	0.00022319	0.000269709	0	5	0	
0.0966667	-0.00118534	-0.0206909	0.000216741	0.000312793	0	5	0	
0.0968333	0.00255817	0.0170186	0.000179073	0.000360423	0	5	0	
0.097	-0.00467088	-0.00952109	0.00014547	0.000463126	0	5	0	
0.0971667	0.00602414	0.0025922	0.000144665	0.000499977	0	5	0	
0.0973333	-0.00587096	0.00193978	0.000164406	0.000470916	0	5	0	
0.0975	0.0070643	0.00392934	0.000193012	0.00034341	0	5	0	
0.0976667	-0.00391943	-0.0206051	0.000218257	0.00027253	0	5	0	
0.0978333	0.00375361	0.0262575	0.000232649	0.000290614	0	5	0	
0.098	-0.00393021	-0.0178185	0.000222791	0.00040647	0	5	0	
0.0981667	0.00331584	0.0124601	0.000208584	0.000489137	0	5	0	
0.0983333	-0.00277754	-0.00601034	0.00019739	0.000528248	0	5	0	
0.0985	0.00359819	-0.000437739	0.000186202	0.000541925	0	5	0	
0.0986667	-0.00325025	-0.00198308	0.00017249	0.000460819	0	5	0	
0.0988333	0.00410836	0.00580717	0.00016493	0.000312148	0	5	0	
0.099	-0.00491177	-0.00460998	0.000166167	0.000170863	0	5	0	
0.0991667	0.00519334	0.0130443	0.000173569	0.000145541	0	5	0	
0.0993333	-0.00492368	-0.0192739	0.000179174	0.000206373	0	5	0	
0.0995	0.00484739	0.0189353	0.000181044	0.000300014	0	5	0	
0.0996667	-0.00462073	-0.0122934	0.000184827	0.000378613	0	5	0	
0.0998333	0.00404902	0.00624088	0.000192475	0.000407963	0	5	0	
0.1	-0.00325021	-0.00289495	0.000199165	0.000399618	0	5	0	
0.100167	0.00327505	0.00170022	0.000196258	0.000376874	0	5	0	
0.100333	-0.0044317	-0.00253027	0.000187163	0.000358893	0	5	0	
0.1005	0.00476156	0.0053805	0.000183354	0.000332151	0	5	0	
0.100667	-0.00412615	-0.0050679	0.000182633	0.000301701	0	5	0	
0.100833	0.00614466	0.00990491	0.000173461	0.000276798	0	5	0	
0.101	-0.00946245	-0.0256686	0.000180616	0.000302024	0	5	0	
0.101167	0.00545392	0.0428289	0.000233462	0.000439747	0	5	0	
0.101333	0.00653023	-0.01542	0.000305652	0.000738457	0	5	0	
0.1015	-0.00514838	-0.0450197	0.000291619	0.00115796	0	5	0	
0.101667	-0.00497446	0.0861533	0.00020222	0.00140731	0	5	0	
0.101833	0.00645771	-0.0761327	0.000117106	0.00147397	0	5	0	
0.102	-0.00402796	0.0378767	0.000134868	0.00148776	0	5	0	
0.102167	0.00588507	0.0251581	0.000181486	0.00155454	0	5	0	
0.102333	-0.00873789	-0.0612523	0.000221497	0.00142202	0	5	0	
0.1025	0.00610016	0.0614871	0.000244312	0.00127308	0	5	0	
0.102667	-0.002092	-0.0300251	0.00025993	0.00139314	0	5	0	
0.102833	0.00319675	-0.0151067	0.000227918	0.0017955	0	5	0	
0.103	-0.00783967	0.0491355	0.000186479	0.00189762	0	5	0	
0.103167	0.00795965	-0.0288233	0.000194193	0.00150841	0	5	0	
0.103333	-0.00309583	-0.00463614	0.000246233	0.000860099	0	5	0	
0.1035	-0.00164491	0.0127657	0.000257582	0.000456932	0	5	0	
0.103667	0.000714548	0.00386189	0.000191228	0.000382397	0	5	0	
0.103833	0.0045124	-0.0183296	0.000116549	0.000465226	0	5	0	
0.104	-0.00835086	0.0178294	0.000103073	0.000447729	0	5	0	
0.104167	0.00588829	0.0117712	0.000158804	0.000415664	0	5	0	
0.104333	-5.84241E-05	-0.0368677	0.000230979	0.00042953	0	5	0	
0.1045	-0.00133931	0.0288215	0.000252031	0.000579271	0	5	0	
0.104667	-0.00186155	9.82828E-05	0.000198479	0.000776379	0	5	0	
0.104833	0.00862289	-0.000489399	0.000144767	0.000839184	0	5	0	
0.105	-0.0110684	-0.0206022	0.00014608	0.000707538	0	5	0	
0.105167	0.00697267	0.0446381	0.000209489	0.000570994	0	5	0	
0.105333	-0.00343146	-0.0496856	0.000260949	0.000635916	0	5	0	
0.1055	0.00165817	0.0355104	0.000262196	0.000807523	0	5	0	
0.105667	-0.00183119	-0.00299557	0.000222205	0.000833307	0	5	0	
0.105833	0.00378911	-0.0158377	0.000164842	0.000677775	0	5	0	
0.106	-0.00665062	0.0166892	0.000134175	0.000507248	0	5	0	
0.106167	0.00595743	-0.00224991	0.000143237	0.000427946	0	5	0	
0.106333	-0.00285011	-0.0207016	0.000183991	0.000452614	0	5	0	
0.1065	0.00090587	0.0385818	0.000214493	0.000510691	0	5	0	
0.106667	2.61949E-06	-0.0247781	0.000212987	0.000603737	0	5	0	
0.106833	0.00207991	-0.00237837	0.000179268	0.000725498	0	5	0	
0.107	-0.00583279	0.00234485	0.000151434	0.00069044	0	5	0	
0.107167	0.00692254	0.0102331	0.000155793	0.000473634	0	5	0	
0.107333	-0.00599463	-0.0187766	0.000196363	0.000304059	0	5	0	
0.1075	0.00383796	0.029574	0.000230947	0.00032691	0	5	0	
0.107667	-0.00115285	-0.0215566	0.000234117	0.000446409	0	5	0	
0.107833	0.00316856	-0.000199139	0.000204919	0.00048418	0	5	0	
0.108	-0.00495482	0.0063331	0.000174311	0.00040053	0	5	0	
0.108167	0.00529114	-0.00861263	0.000161449	0.000278581	0	5	0	
0.108333	-0.00556576	0.0107075	0.000169399	0.000185643	0	5	0	
0.1085	0.0039383	0.000730823	0.000174949	0.000163082	0	5	0	
0.108667	-0.00249471	-0.016489	0.000184963	0.000207777	0	5	0	
0.108833	0.00314997	0.0200469	0.000198631	0.000332234	0	5	0	
0.109	-0.00321889	-0.0175374	0.00021579	0.000502897	0	5	0	
0.109167	0.00313969	0.0186576	0.000217336	0.000632929	0	5	0	
0.109333	-0.00337188	-0.0136319	0.000197074	0.000643812	0	5	0	
0.1095	0.00392761	0.0124213	0.000170933	0.000566326	0	5	0	
0.109667	-0.00370414	-0.0174017	0.00016064	0.000439247	0	5	0	
0.109833	0.00361166	0.0195588	0.000166788	0.000363932	0	5	0	
0.11	-0.00441861	-0.0165994	0.000175084	0.000345258	0	5	0	
0.110167	0.00409327	0.0189366	0.000173216	0.000377387	0	5	0	
0.110333	-0.00322855	-0.0167644	0.000172415	0.000362433	0	5	0	
0.1105	0.00197177	0.0114906	0.000175919	0.000342623	0	5	0	
0.110667	-0.00148422	0.00146236	0.000175917	0.000392799	0	5	0	
0.110833	0.00329888	-0.0123017	0.00017546	0.000450479	0	5	0	
0.111	-0.0029599	0.0123108	0.000188356	0.000439144	0	5	0	
0.111167	0.00108682	-0.00202212	0.000208614	0.000307104	0	5	0	
0.111333	-0.00132096	-0.00224546	0.000208068	0.000163537	0	5	0	
0.1115	0.00241105	0.0137656	0.000186366	0.000132489	0	5	0	
0.111667	-0.00358139	-0.0328329	0.000172683	0.000249885	0	5	0	
0.111833	0.00490638	0.0283801	0.000176054	0.000424778	0	5	0	
0.112	-0.00686712	-0.017342	0.000187742	0.000545925	0	5	0	
0.112167	0.00694417	0.00914828	0.000197323	0.000540992	0	5	0	
0.112333	-0.00398783	-0.00115282	0.00021375	0.000460105	0	5	0	
0.1125	0.0025812	-0.00347181	0.000236767	0.000367705	0	5	0	
0.112667	-0.00139019	-0.000687133	0.00024809	0.000252622	0	5	0	
0.112833	0.00267525	0.00209777	0.000243354	0.00014858	0	5	0	
0.113	-0.00148793	-0.0102524	0.000215342	9.81092E-05	0	5	0	
0.113167	0.00332866	0.0149335	0.000184089	0.00014577	0	5	0	
0.113333	-0.00424694	-0.00226686	0.000168973	0.000336856	0	5	0	
0.1135	0.00236452	-0.0151305	0.000185456	0.000566068	0	5	0	
0.113667	-0.0019327	0.00979732	0.000199752	0.000555175	0	5	0	
0.113833	0.0119811	0.0159544	0.000205199	0.000674901	0	5	0	
0.114	-0.0181274	-0.0572758	0.000237719	0.000900181	0	5	0	
0.114167	0.0140579	0.0782466	0.000306537	0.00124728	0	5	0	
0.114333	-0.0064185	-0.0452275	0.000367797	0.00136307	0	5	0	
0.1145	-0.000506338	-0.0234043	0.000347568	0.00137064	0	5	0	
0.114667	0.00373146	0.0729548	0.00026839	0.00129062	0	5	0	
0.114833	-0.00975997	-0.116614	0.000179814	0.00146099	0	5	0	
0.115	0.00133159	0.164594	0.000216229	0.00176481	0	5	0	
0.115167	0.00583473	-0.220083	0.000301371	0.00286632	0	5	0	
0.115333	-0.0103433	0.00485023	0.000305597	0.00409205	0	5	0	
0.1155	0.00813788	0.121882	0.00024853	0.00513874	0	5	0	
0.115667	-0.0183009	-0.0762063	0.000223778	0.00427551	0	5	0	
0.115833	0.0178069	0.105137	0.00030458	0.00374477	0	5	0	
0.116	0.00224007	-0.00250032	0.000326223	0.00337716	0	5	0	
0.116167	0.000702939	-0.171418	0.000380552	0.0043304	0	5	0	
0.116333	-0.00124456	0.199911	0.000399762	0.00479851	0	5	0	
0.1165	-0.00603515	-0.220904	0.000424287	0.00443041	0	5	0	
0.116667	0.0108435	0.108431	0.000325584	0.00428211	0	5	0	
0.116833	-0.0152309	0.1344	0.000288284	0.00333644	0	5	0	
0.117	0.00767279	-0.128585	0.000331242	0.00314341	0	5	0	
0.117167	0.0213765	0.12374	0.000337443	0.00246002	0	5	0	
0.117333	-0.00662586	-0.113763	0.000352287	0.00244344	0	5	0	
0.1175	-0.0075333	0.064271	0.000325068	0.00207778	0	5	0	
0.117667	0.00392299	0.0100353	0.000362678	0.00200446	0	5	0	
0.117833	-0.00108671	-0.0332689	0.000342568	0.00212157	0	5	0	
0.118	0.00400606	0.0824407	0.000379611	0.00233361	0	5	0	
0.118167	-0.0128766	-0.0634152	0.00043461	0.002145	0	5	0	
0.118333	0.0105244	0.0405571	0.000464481	0.00169864	0	5	0	
0.1185	-0.00604078	0.00804917	0.00041618	0.00171207	0	5	0	
0.118667	0.000272879	-0.0756364	0.000349136	0.00187291	0	5	0	
0.118833	0.0086892	0.123748	0.000290414	0.00201839	0	5	0	
0.119	-0.0158523	-0.0662895	0.0002811	0.00194622	0	5	0	
0.119167	0.0182774	0.0435364	0.000389973	0.00210786	0	5	0	
0.119333	-0.0115395	-0.0321782	0.000575546	0.00207329	0	5	0	
0.1195	0.00454552	-0.0127405	0.000635878	0.00185319	0	5	0	
0.119667	-0.00945089	0.0499825	0.000539066	0.00154867	0	5	0	
0.119833	0.0121276	-0.0350459	0.000433659	0.00138754	0	5	0	
0.12	-0.00412031	0.0258516	0.000417881	0.00115598	0	5	0	
0.120167	0.0046524	-0.0410729	0.000438271	0.000946851	0	5	0	
0.120333	0.00245408	-0.0106087	0.00039604	0.000689216	0	5	0	
0.1205	-0.00907786	0.0504938	0.000307064	0.000643079	0	5	0	
0.120667	0.00608881	-0.0719757	0.000227471	0.000808531	0	5	0	
0.120833	0.0126603	0.0600417	0.000202138	0.00109773	0	5	0	
0.121	-0.012637	-0.0193968	0.00021588	0.00135319	0	5	0	
0.121167	0.00938115	-0.0199326	0.000253082	0.00149308	0	5	0	
0.121333	-0.0090706	0.0338836	0.000243324	0.00166382	0	5	0	
0.1215	0.0118992	-0.0483434	0.000230819	0.00167538	0	5	0	
0.121667	-0.00995022	0.0288867	0.000211068	0.00130829	0	5	0	
0.121833	-0.00305816	0.051347	0.000288396	0.00133547	0	5	0	
0.122	0.0141896	-0.129512	0.000336189	0.00129208	0	5	0	
0.122167	-0.00274936	0.0888866	0.000307165	0.0024709	0	5	0	
0.122333	0.000901181	0.0288394	0.000223346	0.00351818	0	5	0	
0.1225	-0.0115025	-0.0264289	0.000168143	0.00392044	0	5	0	
0.122667	0.0170998	0.00699724	0.000243599	0.00275179	0	5	0	
0.122833	-0.00355311	-0.0425451	0.000236494	0.00117997	0	5	0	
0.123	-0.00515253	0.000972285	0.000199346	0.000659996	0	5	0	
0.123167	-0.00639958	0.112514	0.000209446	0.00128691	0	5	0	
0.123333	0.0222852	-0.144339	0.000274919	0.00202783	0	5	0	
0.1235	-0.00410497	0.0823481	0.000334072	0.00244431	0	5	0	
0.123667	-0.00841307	-0.0121286	0.000226726	0.00197156	0	5	0	
0.123833	0.00856364	0.00568492	0.000248832	0.00117593	0	5	0	
0.124	0.0097122	-0.048965	0.000350671	0.000552915	0	5	0	
0.124167	-0.00921957	-0.0109306	0.000419652	0.000997839	0	5	0	
0.124333	0.00253899	0.132539	0.000308249	0.00231525	0	5	0	
0.1245	0.00613176	-0.186595	0.000151575	0.00323763	0	5	0	
0.124667	-0.00164462	0.0855393	0.00014787	0.00331872	0	5	0	
0.124833	-0.00229195	0.0103953	0.000208003	0.00276391	0	5	0	
0.125	0.000638689	-0.0820594	0.000214786	0.00227248	0	5	0	
0.125167	0.0216996	0.0811203	0.000203321	0.00186027	0	5	0	
0.125333	-0.0331636	-0.0591084	0.000275104	0.00155858	0	5	0	
0.1255	0.0225217	0.0688002	0.000547131	0.00169852	0	5	0	
0.125667	0.0232502	-0.0159572	0.000863378	0.00177732	0	5	0	
0.125833	-0.0301158	-0.089221	0.000983151	0.00197435	0	5	0	
0.126	0.00231335	0.107717	0.000841307	0.00195651	0	5	0	
0.126167	0.0258155	-0.0139566	0.000811209	0.00229626	0	5	0	
0.126333	-0.0245157	-0.182178	0.000737687	0.00245956	0	5	0	
0.1265	0.0178841	0.299444	0.000738307	0.00358992	0	5	0	
0.126667	-0.0132639	-0.0422577	0.000489613	0.00495252	0	5	0	
0.126833	0.0182235	-0.172996	0.000512177	0.00583291	0	5	0	
0.127	0.0129879	0.101581	0.000681893	0.00487488	0	5	0	
0.127167	-0.0438793	-0.0794361	0.000696822	0.00357446	0	5	0	
0.127333	0.00466392	-0.1011	0.000717886	0.00236468	0	5	0	
0.1275	0.044861	0.320022	0.000572458	0.00287645	0	5	0	
0.127667	-0.041773	-0.427297	0.000791877	0.00484998	0	5	0	
0.127833	0.0191792	0.188613	0.000962518	0.00618128	0	5	0	
0.128	-0.000926315	0.0217981	0.000890902	0.00621811	0	5	0	
0.128167	-0.00628214	0.191155	0.00069536	0.00486846	0	5	0	
0.128333	0.0114449	-0.105427	0.000363179	0.00468154	0	5	0	
0.1285	-0.0143377	-0.0375452	0.000372655	0.00400659	0	5	0	
0.128667	0.016254	-0.169697	0.000343334	0.00435024	0	5	0	
0.128833	0.027636	-0.181534	0.000501887	0.00355324	0	5	0	
0.129	-0.0219228	0.212406	0.00058213	0.00459656	0	5	0	
0.129167	0.0235811	0.107247	0.000664825	0.00370728	0	5	0	
0.129333	0.028787	0.0162202	0.000567382	0.00479679	0	5	0	
0.1295	-0.00328659	0.161125	0.000548611	0.00386545	0	5	0	
0.129667	0.00872452	-0.437847	0.000403791	0.00617155	0	5	0	
0.129833	0.038417	-0.217612	0.000352951	0.00605485	0	5	0	
0.13	-0.104584	0.32956	0.00076638	0.00759239	0	5	0	
0.130167	0.0863693	0.0273102	0.00119422	0.0050159	0	5	0	
0.130333	-0.0199574	-0.155399	0.00141172	0.00355505	0	5	0	
0.1305	0.00378985	0.157776	0.00138772	0.00254943	0	5	0	
0.130667	0.0384656	-0.205374	0.00140188	0.00384005	0	5	0	
0.130833	-0.039053	-0.0544328	0.00130068	0.0052006	0	5	0	
0.131	-0.00543552	0.166305	0.00122912	0.0058529	0	5	0	
0.131167	0.0108598	-0.170547	0.001471	0.00489952	0	5	0	
0.131333	-0.0580906	0.135782	0.00159871	0.00461297	0	5	0	
0.1315	0.0578215	0.0718296	0.00154013	0.00456762	0	5	0	
0.131667	-0.0015854	-0.23774	0.00110335	0.00502843	0	5	0	
0.131833	-0.0172896	0.20801	0.000979669	0.00503431	0	5	0	
0.132	0.00174102	0.13971	0.000575637	0.0045444	0	5	0	
0.132167	0.00832822	-0.167149	0.000458944	0.00529523	0	5	0	
0.132333	-0.0225212	0.167373	0.00041851	0.00513595	0	5	0	
0.1325	0.0421856	-0.130335	0.000607581	0.00446871	0	5	0	
0.132667	-0.00802852	0.0823063	0.000553281	0.00312704	0	5	0	
0.132833	-0.00925502	0.0370271	0.000685431	0.00235775	0	5	0	
0.133	0.012866	-0.036931	0.000759518	0.00180953	0	5	0	
0.133167	-0.0178646	0.158714	0.000685876	0.00261721	0	5	0	
0.133333	0.00865164	0.0424542	0.000527174	0.00398075	0	5	0	
0.1335	0.0149408	-0.168071	0.000303427	0.00494499	0	5	0	
0.133667	2.65136E-05	0.2209	0.000326902	0.00428061	0	5	0	
0.133833	-0.00641619	-0.136608	0.000248897	0.00360812	0	5	0	
0.134	-0.0100482	-0.0703639	0.00022128	0.0031993	0	5	0	
0.134167	0.0208181	0.147186	0.0002596	0.00308205	0	5	0	
0.134333	-0.00757963	-0.122612	0.000261609	0.00260797	0	5	0	
0.1345	0.0263461	0.0656747	0.000299621	0.00248697	0	5	0	
0.134667	-0.0468779	0.0136416	0.000452926	0.00182293	0	5	0	
0.134833	0.0334318	-0.0323602	0.000605551	0.00124218	0	5	0	
0.135	0.00849051	-0.025803	0.000770387	0.000872427	0	5	0	
0.135167	-0.0366617	0.0483127	0.000720281	0.00116974	0	5	0	
0.135333	0.0171255	0.0711055	0.000698124	0.00143995	0	5	0	
0.1355	-0.000360624	-0.13756	0.00056871	0.00184673	0	5	0	
0.135667	-0.0135063	0.101259	0.000443456	0.00200128	0	5	0	
0.135833	0.00560323	-0.104775	0.000515846	0.00227445	0	5	0	
0.136	-0.0111507	0.0975243	0.000849064	0.00245575	0	5	0	
0.136167	0.0364113	0.00129731	0.00092933	0.00194314	0	5	0	
0.136333	-0.0429906	-0.0708679	0.00106128	0.00156008	0	5	0	
0.1365	-0.00559211	-0.0526648	0.000834483	0.00162668	0	5	0	
0.136667	-0.00106811	0.215787	0.000792848	0.00297117	0	5	0	
0.136833	-0.00682292	-0.188153	0.000586173	0.00375417	0	5	0	
0.137	0.0473615	-0.0138122	0.000589948	0.00373434	0	5	0	
0.137167	-0.0288819	0.0866176	0.000720883	0.00258522	0	5	0	
0.137333	-0.0112742	-0.10254	0.000728434	0.00216679	0	5	0	
0.1375	0.000460539	0.0358133	0.000564628	0.00217934	0	5	0	
0.137667	0.0121873	0.0319635	0.000380096	0.00259843	0	5	0	
0.137833	-0.00896112	-0.0415529	0.000258895	0.00235241	0	5	0	
0.138	0.0218084	-0.0082944	0.000353868	0.00156889	0	5	0	
0.138167	-0.0235164	-0.00777277	0.000523559	0.000827599	0	5	0	
0.138333	0.00302922	-0.0220304	0.000559017	0.000390084	0	5	0	
0.1385	0.00389898	-0.00102103	0.000476718	0.000718945	0	5	0	
0.138667	0.00541814	0.107503	0.000305316	0.0017086	0	5	0	
0.138833	0.00565755	-0.159688	0.00022645	0.00274517	0	5	0	
0.139	-0.0254103	0.0578731	0.000254829	0.00282631	0	5	0	
0.139167	0.0141468	0.0615785	0.000275417	0.00290133	0	5	0	
0.139333	0.00442291	-0.152041	0.000346451	0.00275621	0	5	0	
0.1395	-0.00773611	0.13684	0.000273715	0.00317824	0	5	0	
0.139667	-0.00204472	0.000751671	0.000200064	0.00361572	0	5	0	
0.139833	0.00733015	-0.0879629	0.000127082	0.00365777	0	5	0	
0.14	-0.0110478	0.0844138	0.000158528	0.0031236	0	5	0	
0.140167	0.00947328	-0.0328672	0.000181221	0.00230468	0	5	0	
0.140333	0.00140439	-0.0621219	0.000208268	0.00207257	0	5	0	
0.1405	-0.00893345	0.123374	0.000183156	0.00214202	0	5	0	
0.140667	0.00215265	-0.0591076	0.000164473	0.0020019	0	5	0	
0.140833	0.00271726	-0.0368618	0.000110827	0.0019943	0	5	0	
0.141	0.0024152	0.104939	0.000130816	0.00200544	0	5	0	
0.141167	0.00180896	-0.100501	0.000140407	0.00199137	0	5	0	
0.141333	-0.00432363	0.0318857	0.000160541	0.00164405	0	5	0	
0.1415	-0.0043763	0.0712381	0.000217489	0.00181195	0	5	0	
0.141667	0.0158004	-0.16337	0.00032204	0.00187211	0	5	0	
0.141833	-0.0124363	0.11742	0.000369262	0.0024797	0	5	0	
0.142	-0.0115076	-0.0540585	0.000397132	0.00358395	0	5	0	
0.142167	0.0634891	-0.489821	0.000608854	0.00424568	0	5	0	
0.142333	-0.0749976	0.0180626	0.00108696	0.00585664	0	5	0	
0.1425	0.0777735	0.361055	0.00155857	0.00607036	0	5	0	
0.142667	-0.0539272	-0.268065	0.00167167	0.007567	0	5	0	
0.142833	0.0226066	0.0980583	0.00144028	0.00716696	0	5	0	
0.143	0.0301821	-0.290149	0.00134637	0.00717931	0	5	0	
0.143167	-0.0425978	-0.44872	0.00116182	0.00698393	0	5	0	
0.143333	0.0277382	-0.176952	0.001345	0.00723202	0	5	0	
0.1435	-0.0344804	0.353217	0.00145285	0.00787937	0	5	0	
0.143667	0.0325364	-0.36792	0.00157783	0.00794679	0	5	0	
0.143833	0.0133993	0.30426	0.00134419	0.0074421	0	5	0	
0.144	-0.0461062	-0.14101	0.000936327	0.0064477	0	5	0	
0.144167	0.0229408	-0.428909	0.000767165	0.00531699	0	5	0	
0.144333	0.00250604	0.0874297	0.00080733	0.00569083	0	5	0	
0.1445	-0.0116752	-0.0267376	0.000709201	0.00419707	0	5	0	
0.144667	-0.0202983	-0.0640128	0.000565047	0.00279698	0	5	0	
0.144833	0.0299967	0.0664573	0.000399444	0.00115489	0	5	0	
0.145	-0.00433948	-0.02005	0.000453286	0.00183265	0	5	0	
0.145167	-0.016147	-0.0412604	0.000492464	0.00241847	0	5	0	
0.145333	-0.00402389	0.0382664	0.000387123	0.0020187	0	5	0	
0.1455	0.0159565	0.00797275	0.000282771	0.00150641	0	5	0	
0.145667	-0.0140239	-0.0821496	0.000238575	0.00110415	0	5	0	
0.145833	0.00618917	0.0885544	0.000272838	0.00130876	0	5	0	
0.146	0.00273501	-0.0582342	0.000280067	0.00146906	0	5	0	
0.146167	-0.0100836	0.0257919	0.000225593	0.00163801	0	5	0	
0.146333	0.011244	0.00883582	0.000211596	0.0020652	0	5	0	
0.1465	-0.00791332	-0.0407273	0.000216562	0.00280607	0	5	0	
0.146667	-0.00155291	0.134242	0.00021334	0.00330332	0	5	0	
0.146833	-0.00325397	-0.0846573	0.000222872	0.00325549	0	5	0	
0.147	0.00336988	-0.0597318	0.000261895	0.00242734	0	5	0	
0.147167	-0.000409245	0.136429	0.0003957	0.00196976	0	5	0	
0.147333	-0.00125105	-0.15865	0.000449494	0.00206801	0	5	0	
0.1475	-0.00136213	0.13976	0.000383933	0.00288532	0	5	0	
0.147667	0.00184674	-0.0808627	0.000262954	0.00319968	0	5	0	
0.147833	-0.00763584	0.0610995	0.000188447	0.00298311	0	5	0	
0.148	-0.00374539	-0.0141632	0.00022381	0.00226647	0	5	0	
0.148167	0.00809539	-0.0227685	0.000277765	0.00168423	0	5	0	
0.148333	-0.00702482	-0.0530865	0.000316135	0.00135258	0	5	0	
0.1485	0.000286078	0.0612358	0.000265213	0.00109635	0	5	0	
0.148667	0.00413847	-0.00866151	0.000203241	0.00120887	0	5	0	
0.148833	-0.00624485	-0.034515	0.000152125	0.00117078	0	5	0	
0.149	-0.000277333	0.0245023	0.000175155	0.0010915	0	5	0	
0.149167	0.000223025	0.0099235	0.000194284	0.000693629	0	5	0	
0.149333	-0.00132161	-0.0423666	0.000192012	0.000463787	0	5	0	
0.1495	0.00521856	0.0348993	0.000168518	0.000534538	0	5	0	
0.149667	-0.00491767	-0.00671445	0.000162038	0.000776542	0	5	0	
0.149833	0.00400253	0.00318023	0.000177767	0.000785544	0	5	0	
0.15	-0.00240642	-0.0184184	0.000197058	0.000638989	0	5	0	
0.150167	-0.00256299	0.0141487	0.000204531	0.000553199	0	5	0	
0.150333	0.00479425	0.0043073	0.000189227	0.000595268	0	5	0	
0.1505	0.0013186	-0.0227219	0.000171192	0.00061266	0	5	0	
0.150667	0.000139727	0.0132936	0.000172717	0.000517511	0	5	0	
0.150833	-0.00296405	0.00838487	0.000207478	0.000382497	0	5	0	
0.151	0.00206359	-0.0447139	0.000232424	0.00037144	0	5	0	
0.151167	-0.00216732	0.052766	0.000220197	0.000569335	0	5	0	
0.151333	0.000522831	-0.0256515	0.000179035	0.000850789	0	5	0	
0.1515	0.00129866	-0.0108037	0.000161141	0.000935443	0	5	0	
0.151667	-0.00115679	0.013633	0.000193569	0.000712596	0	5	0	
0.151833	0.000677017	-0.00256109	0.000243774	0.000378705	0	5	0	
0.152	-0.00197066	-0.00656091	0.000268481	0.000170295	0	5	0	
0.152167	0.00209423	0.00252058	0.000252967	0.00010076	0	5	0	
0.152333	-0.00353208	-0.0134708	0.000225066	0.000120454	0	5	0	
0.1525	0.00362563	0.0154414	0.000216335	0.000194461	0	5	0	
0.152667	-0.00559884	0.00472435	0.000242781	0.000346426	0	5	0	
0.152833	0.00383673	-0.0196308	0.000266943	0.000453662	0	5	0	
0.153	-0.00192773	0.00633021	0.000252497	0.000441157	0	5	0	
0.153167	0.000910398	0.019807	0.000197641	0.000334213	0	5	0	
0.153333	0.000745984	-0.0381092	0.000147143	0.000355187	0	5	0	
0.1535	-0.000684669	0.0248925	0.000121621	0.000585084	0	5	0	
0.153667	-0.00300509	0.00939994	0.000124256	0.000747511	0	5	0	
0.153833	0.000265749	-0.00250085	0.000177162	0.000631994	0	5	0	
0.154	0.0131684	-0.0171172	0.00029892	0.000353263	0	5	0	
0.154167	-0.013624	0.0237483	0.000428383	0.00026921	0	5	0	
0.154333	0.00758171	-0.0126508	0.000447487	0.000414591	0	5	0	
0.1545	-0.00207972	0.000607287	0.000354783	0.00058729	0	5	0	
0.154667	-0.00350095	0.00615377	0.000241513	0.000560688	0	5	0	
0.154833	0.00805592	-0.00517304	0.000212256	0.000426249	0	5	0	
0.155	-0.00813098	0.0165916	0.000252764	0.000267536	0	5	0	
0.155167	0.0118047	-0.0114971	0.000319179	0.000352011	0	5	0	
0.155333	-0.0116012	-0.0810525	0.000338499	0.000541939	0	5	0	
0.1555	0.00994884	0.128704	0.000323008	0.00112832	0	5	0	
0.155667	-0.0066186	-0.0907115	0.000278105	0.00190376	0	5	0	
0.155833	0.00107377	-0.0101924	0.000263469	0.00252069	0	5	0	
0.156	0.00382332	0.0580207	0.000262983	0.00238049	0	5	0	
0.156167	-0.0061082	-0.0634703	0.000256115	0.00172728	0	5	0	
0.156333	0.00755302	-0.00633483	0.00024279	0.00119891	0	5	0	
0.1565	-0.00426333	0.0650366	0.000215307	0.0013376	0	5	0	
0.156667	0.00375484	-0.101293	0.000175257	0.00172212	0	5	0	
0.156833	0.00137514	0.0664045	0.000125406	0.0018989	0	5	0	
0.157	-0.00494821	-0.0160522	0.00010422	0.00155637	0	5	0	
0.157167	0.00173435	-0.0350838	0.000134598	0.00124739	0	5	0	
0.157333	-0.00014925	0.0548103	0.000192893	0.00108366	0	5	0	
0.1575	0.00172286	-0.0248729	0.000250449	0.00102625	0	5	0	
0.157667	0.000947117	-0.0127743	0.000305477	0.000766144	0	5	0	
0.157833	-0.00402667	0.0208846	0.000342757	0.000493114	0	5	0	
0.158	0.00681544	-0.00521092	0.000322214	0.000414133	0	5	0	
0.158167	-0.00454088	-0.00966544	0.000246166	0.000508489	0	5	0	
0.158333	-0.000544925	0.016002	0.000158523	0.000612899	0	5	0	
0.1585	0.0030794	0.00339733	0.000143269	0.000494632	0	5	0	
0.158667	-0.00389219	-0.0202712	0.000181587	0.000367024	0	5	0	
0.158833	0.0028074	0.0212258	0.000225529	0.000290082	0	5	0	
0.159	0.000536892	-0.0337329	0.000240825	0.000640422	0	5	0	
0.159167	-0.000419408	0.0625624	0.000234464	0.00112004	0	5	0	
0.159333	0.00274933	-0.0146139	0.000210658	0.00121505	0	5	0	
0.1595	-0.00439506	0.0233597	0.000180764	0.000930634	0	5	0	
0.159667	0.00540372	-0.0197789	0.000183024	0.000474674	0	5	0	
0.159833	-0.00511806	0.0124898	0.000227413	0.000363992	0	5	0	
0.16	0.0029201	-0.0251876	0.000271456	0.00039173	0	5	0	
0.160167	-0.00254144	0.0404507	0.000267877	0.000633182	0	5	0	
0.160333	0.00574237	-0.00308377	0.000226736	0.000791937	0	5	0	
0.1605	0.00108143	0.00806408	0.000185494	0.000713909	0	5	0	
0.160667	-0.0067622	-0.00877731	0.000195537	0.000408283	0	5	0	
0.160833	-0.00381356	0.0371797	0.000292813	0.000359055	0	5	0	
0.161	0.0154065	-0.0453271	0.000391402	0.000522156	0	5	0	
0.161167	-0.0133344	0.0290015	0.00040152	0.00079126	0	5	0	
0.161333	0.00365327	-0.00772318	0.000310355	0.000744192	0	5	0	
0.1615	0.00495694	0.0130459	0.000183501	0.000907108	0	5	0	
0.161667	-0.0057922	-0.0286244	0.000128366	0.00107613	0	5	0	
0.161833	0.00356845	0.0176569	9.58952E-05	0.00103023	0	5	0	
0.162	-0.00445416	-0.00916222	0.000172897	0.0007796	0	5	0	
0.162167	-0.000342122	0.00911591	0.000323764	0.000650644	0	5	0	
0.162333	0.0106001	0.0239861	0.000477926	0.00102442	0	5	0	
0.1625	-0.0103462	0.000333447	0.0005077	0.000992337	0	5	0	
0.162667	0.00170733	0.0348903	0.000409894	0.000700673	0	5	0	
0.162833	-4.25692E-05	-0.0261138	0.00029994	0.000520951	0	5	0	
0.163	-0.00225001	-0.0130555	0.000239167	0.000510613	0	5	0	
0.163167	0.00949256	-0.031821	0.000227451	0.000520713	0	5	0	
0.163333	-0.00415938	0.0738118	0.000227499	0.000677335	0	5	0	
0.1635	-0.00041984	0.0187433	0.000229951	0.000813922	0	5	0	
0.163667	-0.00388547	-0.0357192	0.000210939	0.000964938	0	5	0	
0.163833	0.00384233	0.0392514	0.00018876	0.000681131	0	5	0	
0.164	-0.00054056	-0.0263107	0.000170333	0.00091467	0	5	0	
0.164167	0.00169656	-0.0124649	0.000156871	0.00112396	0	5	0	
0.164333	-0.00183227	0.0467407	0.000149327	0.00126777	0	5	0	
0.1645	0.000131167	-0.0312763	0.000166949	0.00107125	0	5	0	
0.164667	0.00316716	0.00481933	0.000228551	0.000800851	0	5	0	
0.164833	-0.00884763	0.0356951	0.000327868	0.000935158	0	5	0	
0.165	0.0109659	-0.0792129	0.000404845	0.00125567	0	5	0	
0.165167	-0.00383421	0.081843	0.000384271	0.00155687	0	5	0	
0.165333	-0.00480793	-0.0490972	0.00027973	0.00151835	0	5	0	
0.1655	0.00715181	-0.00121262	0.000206965	0.00153572	0	5	0	
0.165667	-0.00373779	0.047886	0.000213827	0.00163915	0	5	0	
0.165833	0.00144986	-0.0742012	0.000260155	0.00169803	0	5	0	
0.166	-0.00493222	0.0550245	0.000274855	0.00144826	0	5	0	
0.166167	0.00622616	-0.0248136	0.000281306	0.00131442	0	5	0	
0.166333	0.00109909	-0.0302067	0.000279271	0.00111315	0	5	0	
0.1665	0.00126085	0.0291584	0.000257698	0.0009727	0	5	0	
0.166667	4.68273E-05	0.00886705	0.00019817	0.000642382	0	5	0	
0.166833	-0.00150831	-0.00623841	0.000148348	0.000597864	0	5	0	
0.167	-0.000914584	0.0115851	0.00012218	0.000696941	0	5	0	
0.167167	0.00484479	-0.0270677	0.000134208	0.000774026	0	5	0	
0.167333	-0.00111592	-0.00391826	0.000173287	0.000624995	0	5	0	
0.1675	-0.00382588	0.0312116	0.000224451	0.000433717	0	5	0	
0.167667	0.00791185	-0.0436254	0.000231983	0.000417466	0	5	0	
0.167833	-0.00757654	0.0543821	0.000206011	0.000815032	0	5	0	
0.168	0.00322116	-0.0185819	0.000163136	0.00134998	0	5	0	
0.168167	0.00107072	-0.0113203	0.000122793	0.00153969	0	5	0	
0.168333	-0.000763909	0.00989166	0.000125025	0.00108675	0	5	0	
0.1685	-0.00133859	-0.00388838	0.000147297	0.000526191	0	5	0	
0.168667	0.00390409	0.00156967	0.000214642	0.000273665	0	5	0	
0.168833	-0.0098633	0.0218955	0.00026437	0.000468733	0	5	0	
0.169	0.0100799	-0.0464688	0.000290627	0.000686523	0	5	0	
0.169167	-0.00509081	0.0380952	0.000265367	0.000774426	0	5	0	
0.169333	0.00188139	-0.00118815	0.000211179	0.000750768	0	5	0	
0.1695	-0.000536268	-0.0378198	0.000180625	0.000709641	0	5	0	
0.169667	0.0014091	0.0393096	0.00020415	0.00076688	0	5	0	
0.169833	-0.00399787	-0.00789594	0.000239799	0.000703492	0	5	0	
0.17	0.00307879	-0.00820872	0.000234868	0.000463388	0	5	0	
0.170167	-0.0016054	0.00887369	0.000203248	0.000244646	0	5	0	
0.170333	0.00317473	-0.00418009	0.000201554	0.000168646	0	5	0	
0.1705	-0.0017869	0.00136523	0.000236249	0.000237282	0	5	0	
0.170667	0.0012552	-0.0022861	0.000254047	0.000361411	0	5	0	
0.170833	-0.000984872	-0.00437663	0.000234205	0.000559006	0	5	0	
0.171	2.43828E-05	0.0174845	0.000208661	0.000706219	0	5	0	
0.171167	-0.000281718	-0.00756358	0.000203351	0.00064238	0	5	0	
0.171333	-0.00216331	-0.00912269	0.000207448	0.000407702	0	5	0	
0.1715	0.00205141	0.0185996	0.00022725	0.00028265	0	5	0	
0.171667	0.00395575	-0.0259659	0.000271015	0.00038544	0	5	0	
0.171833	-0.00178913	0.0219789	0.000282461	0.000637212	0	5	0	
0.172	-0.00333458	0.000995729	0.000228294	0.000815586	0	5	0	
0.172167	0.00169071	-0.00783832	0.000182545	0.000817838	0	5	0	
0.172333	0.00183653	0.00350854	0.000183298	0.000600475	0	5	0	
0.1725	0.00458777	0.0176693	0.000167592	0.000361854	0	5	0	
0.172667	-0.0170386	-0.0213365	0.000148129	0.000362634	0	5	0	
0.172833	0.00648857	-0.0132	0.000189753	0.000712932	0	5	0	
0.173	0.00754942	-0.0188754	0.000276276	0.00108859	0	5	0	
0.173167	0.0116164	0.00849883	0.000267363	0.00103789	0	5	0	
0.173333	-0.0262089	-0.0161757	0.000268127	0.0008119	0	5	0	
0.1735	0.00367342	0.084807	0.000274466	0.000805196	0	5	0	
0.173667	0.0187319	-0.118856	0.000391203	0.00125092	0	5	0	
0.173833	-0.0140191	0.0495836	0.000354367	0.00168091	0	5	0	
0.174	-0.00605699	-0.0175274	0.000363179	0.00190153	0	5	0	
0.174167	0.0108702	-0.0334072	0.000251585	0.00144633	0	5	0	
0.174333	0.000684862	0.0344376	0.0002015	0.00108927	0	5	0	
0.1745	-0.0037766	0.0199413	0.00012551	0.000903916	0	5	0	
0.174667	-0.00688626	-0.0925546	0.000107176	0.00141096	0	5	0	
0.174833	-0.000689184	0.106614	0.000174061	0.00171854	0	5	0	
0.175	0.00987887	-0.0516569	0.000224174	0.00189083	0	5	0	
0.175167	-0.0115408	0.0009499	0.000267222	0.00182676	0	5	0	
0.175333	0.00330885	0.0246162	0.000222765	0.00152864	0	5	0	
0.1755	-0.000244819	-0.0206471	0.000145769	0.00102729	0	5	0	
0.175667	-0.00256291	-0.00921553	0.000100993	0.000843305	0	5	0	
0.175833	-0.0028165	0.0396424	9.33604E-05	0.00111064	0	5	0	
0.176	0.00299655	-0.0455575	0.000123841	0.001378	0	5	0	
0.176167	-0.00462718	0.0288159	0.000137149	0.00117143	0	5	0	
0.176333	0.000920691	-0.000663378	0.000143857	0.000759578	0	5	0	
0.1765	-0.00365357	-0.0121424	0.00018328	0.000473867	0	5	0	
0.176667	0.0072704	-0.001664	0.000250249	0.000312159	0	5	0	
0.176833	-0.00709951	0.00192497	0.000269221	0.000274821	0	5	0	
0.177	0.00247542	0.0159258	0.000216052	0.000367083	0	5	0	
0.177167	0.000571346	-0.0131653	0.000130214	0.000421141	0	5	0	
0.177333	0.000662582	-0.0121495	0.000107012	0.000378278	0	5	0	
0.1775	-0.00154892	0.0187587	0.000123906	0.00029664	0	5	0	
0.177667	-0.00166343	-0.0023717	0.000132811	0.000414549	0	5	0	
0.177833	0.0007348	-0.0100409	0.000118724	0.000543173	0	5	0	
0.178	0.00671014	0.00434377	0.000139857	0.000507688	0	5	0	
0.178167	-0.00888848	0.00978564	0.000202166	0.000385878	0	5	0	
0.178333	0.00570703	-0.00450338	0.000238339	0.000459879	0	5	0	
0.1785	-0.00371673	-0.00846399	0.000224915	0.00065094	0	5	0	
0.178667	0.00439065	0.00290313	0.000209684	0.000652043	0	5	0	
0.178833	-0.00594241	0.00548834	0.00021433	0.000411383	0	5	0	
0.179	0.00396853	-0.0191777	0.00022282	0.000196657	0	5	0	
0.179167	-0.00328868	0.0332856	0.00022166	0.000258909	0	5	0	
0.179333	0.00316883	-0.0292809	0.000237898	0.000480129	0	5	0	
0.1795	-0.00228325	0.00906514	0.000252266	0.00062303	0	5	0	
0.179667	-0.00275269	0.0112245	0.000237458	0.000641051	0	5	0	
0.179833	0.0033736	-0.0355986	0.000206104	0.000555643	0	5	0	
0.18	0.00110089	0.0257115	0.00021097	0.000541497	0	5	0	
0.180167	-0.00814336	0.00734574	0.00025046	0.000528867	0	5	0	
0.180333	0.00650821	-0.0195759	0.000268222	0.000450251	0	5	0	
0.1805	-0.00103173	0.0100723	0.000216596	0.000443614	0	5	0	
0.180667	-0.00162774	0.00229553	0.000139803	0.00053992	0	5	0	
0.180833	0.000250326	-0.0131149	0.000105582	0.000742383	0	5	0	
0.181	0.000345338	0.0232575	0.000133521	0.000808057	0	5	0	
0.181167	-0.000987977	-0.0346174	0.00017605	0.000826977	0	5	0	
0.181333	0.000800754	0.0326476	0.000184345	0.000843525	0	5	0	
0.1815	-0.000484768	-0.0132639	0.00017571	0.000739234	0	5	0	
0.181667	0.00290753	-0.0161271	0.000175392	0.000537769	0	5	0	
0.181833	-0.00373001	0.0388442	0.000180442	0.000411437	0	5	0	
0.182	-0.00120132	-0.0383392	0.000173605	0.000502068	0	5	0	
0.182167	0.00025895	0.0170548	0.00016475	0.00071196	0	5	0	
0.182333	0.00137463	0.00355528	0.00017414	0.00094403	0	5	0	
0.1825	-0.00273441	-0.0173374	0.000190264	0.000994173	0	5	0	
0.182667	0.00417836	0.0151001	0.000196836	0.000834071	0	5	0	
0.182833	-0.00480045	-0.00374416	0.000186768	0.000484853	0	5	0	
0.183	0.000351829	-0.0179004	0.000169269	0.000298076	0	5	0	
0.183167	0.000808209	0.0353495	0.000157135	0.00029048	0	5	0	
0.183333	0.000641811	-0.0235058	0.000168804	0.000559473	0	5	0	
0.1835	-0.00398829	0.00367664	0.000195708	0.000818961	0	5	0	
0.183667	0.00429767	0.00641793	0.000210921	0.000947019	0	5	0	
0.183833	-0.00159015	-0.0124893	0.00019497	0.000849344	0	5	0	
0.184	-0.000334081	0.0101017	0.000175271	0.000623113	0	5	0	
0.184167	8.27872E-05	0.00916245	0.000172188	0.000416805	0	5	0	
0.184333	-0.00136908	-0.013602	0.000175006	0.000300966	0	5	0	
0.1845	0.00133427	0.00887269	0.000184529	0.000215134	0	5	0	
0.184667	0.00155405	-0.00860533	0.00021217	0.000199653	0	5	0	
0.184833	-0.00391788	0.00802431	0.000244203	0.000193717	0	5	0	
0.185	0.00308747	-0.00061981	0.000241707	0.00030898	0	5	0	
0.185167	-0.000983691	-0.00559984	0.000202767	0.000400121	0	5	0	
0.185333	-0.000116038	0.0051085	0.000178128	0.000405781	0	5	0	
0.1855	-0.00140189	-0.000724232	0.000182192	0.000365743	0	5	0	
0.185667	0.00232098	-0.000474908	0.000189935	0.000376022	0	5	0	
0.185833	-0.00114314	-0.00349389	0.000183378	0.000428845	0	5	0	
0.186	0.00124636	0.00314377	0.000172106	0.00045232	0	5	0	
0.186167	-0.00240019	0.00138291	0.000172436	0.000396165	0	5	0	
0.186333	0.00118168	-0.00655122	0.000182178	0.000299875	0	5	0	
0.1865	-0.00188224	0.00257942	0.000191935	0.000250891	0	5	0	
0.186667	0.00329	0.00500868	0.00019001	0.000299753	0	5	0	
0.186833	-0.00326861	-0.0113549	0.000171933	0.000341109	0	5	0	
0.187	0.00303876	0.00383158	0.000153967	0.000313172	0	5	0	
0.187167	-0.00291739	0.00769019	0.000156672	0.000235929	0	5	0	
0.187333	0.00236055	-0.00742245	0.00017435	0.00024989	0	5	0	
0.1875	-0.0019609	-0.00221937	0.000183399	0.000354597	0	5	0	
0.187667	0.00246463	0.00376322	0.000177292	0.000475844	0	5	0	
0.187833	-0.00273572	-0.00778158	0.000180573	0.000495304	0	5	0	
0.188	0.00321198	0.00207033	0.000204428	0.000429364	0	5	0	
0.188167	-0.00415748	0.00777689	0.000226899	0.000330887	0	5	0	
0.188333	0.00398972	-0.0150256	0.00022521	0.00028154	0	5	0	
0.1885	-0.00249926	0.0139321	0.000206539	0.000281383	0	5	0	
0.188667	0.00206411	-0.00898341	0.000188354	0.00035647	0	5	0	
0.188833	-0.00146734	-0.00532043	0.000179399	0.000447873	0	5	0	
0.189	0.00257222	0.00420087	0.000176112	0.000452	0	5	0	
0.189167	-0.0032445	0.00649226	0.00018217	0.000338353	0	5	0	
0.189333	0.002784	-0.00761213	0.000193429	0.000219155	0	5	0	
0.1895	-0.00298858	0.00403717	0.00020108	0.000229175	0	5	0	
0.189667	0.00337431	-0.00218091	0.000195644	0.000330474	0	5	0	
0.189833	-0.00327702	0.00315262	0.000185959	0.000409337	0	5	0	
0.19	0.00371059	-0.00159752	0.00018925	0.000400383	0	5	0	
0.190167	-0.00256078	0.00456888	0.000204433	0.000323458	0	5	0	
0.190333	0.00209608	-0.0056615	0.000209584	0.000227166	0	5	0	
0.1905	-0.00262131	0.00807273	0.000201112	0.000185735	0	5	0	
0.190667	0.00302527	-0.00990858	0.000190545	0.000226249	0	5	0	
0.190833	-0.00250036	0.0052707	0.000190624	0.00032685	0	5	0	
0.191	0.00152551	0.00750956	0.000196157	0.000422392	0	5	0	
0.191167	-0.00269811	-0.00919467	0.000198016	0.000438233	0	5	0	
0.191333	0.00315189	0.00314028	0.000193252	0.000364337	0	5	0	
0.1915	-0.00314576	-0.000632598	0.000182502	0.000235174	0	5	0	
0.191667	0.00343531	-0.00433431	0.000176192	0.000157807	0	5	0	
0.191833	-0.00346603	0.0055416	0.000178631	0.000157314	0	5	0	
0.192	0.00395216	-0.000192932	0.000170588	0.00026099	0	5	0	
0.192167	-0.000286929	-0.0163331	0.000129713	0.000442237	0	5	0	
0.192333	-0.00552397	0.0301219	7.98835E-05	0.000590354	0	5	0	
0.1925	0.00706542	-0.0273032	9.92128E-05	0.000606448	0	5	0	
0.192667	-0.00180101	-0.00629411	0.000199841	0.000591887	0	5	0	
0.192833	-0.0025664	0.0325263	0.000309326	0.000536532	0	5	0	
0.193	0.0061483	-0.0294841	0.0003333	0.000576559	0	5	0	
0.193167	-0.00961836	0.0135683	0.000302616	0.000661539	0	5	0	
0.193333	0.011251	0.00254251	0.000264527	0.000821603	0	5	0	
0.1935	-0.00466761	-0.0252154	0.000221901	0.000976183	0	5	0	
0.193667	-0.00374876	0.0381743	0.000155145	0.000990008	0	5	0	
0.193833	0.00363405	-0.0213579	0.000106377	0.00082757	0	5	0	
0.194	0.00147426	-0.0114402	0.000138377	0.000673812	0	5	0	
0.194167	-0.0038222	0.0283165	0.000198305	0.000503625	0	5	0	
0.194333	0.00224619	-0.0153586	0.000224619	0.000494825	0	5	0	
0.1945	-0.001895	-0.0050077	0.000195978	0.000585247	0	5	0	
0.194667	-9.63939E-05	0.0245632	0.000174353	0.00071997	0	5	0	
0.194833	-0.00131854	-0.0170192	0.000184429	0.000706177	0	5	0	
0.195	0.0029045	-0.0128	0.000208152	0.000506733	0	5	0	
0.195167	-0.00227149	0.0294369	0.000208521	0.000364506	0	5	0	
0.195333	0.00129001	-0.0278708	0.00018578	0.000403629	0	5	0	
0.1955	-0.000964167	0.0177641	0.000173637	0.000545609	0	5	0	
0.195667	0.0021806	0.00279477	0.000180771	0.000740097	0	5	0	
0.195833	-0.00379177	-0.0166385	0.000180018	0.000887336	0	5	0	
0.196	0.00295612	0.0174786	0.000166174	0.000886489	0	5	0	
0.196167	-0.0030141	-0.0135378	0.000159458	0.000663662	0	5	0	
0.196333	0.00394991	-0.00868374	0.000172583	0.00045662	0	5	0	
0.1965	-0.0033624	0.0260537	0.000175283	0.00032824	0	5	0	
0.196667	0.00286189	-0.0214031	0.00016172	0.000407199	0	5	0	
0.196833	-0.0038016	0.0130419	0.00015543	0.000513784	0	5	0	
0.197	0.003613	-0.0120009	0.000168294	0.000575437	0	5	0	
0.197167	-0.00283988	0.00127196	0.000176136	0.000560042	0	5	0	
0.197333	0.0022005	0.00337364	0.000169801	0.00044952	0	5	0	
0.1975	-0.00228552	0.00577434	0.000164202	0.000294216	0	5	0	
0.197667	0.0043011	-0.00945103	0.000171901	0.000212943	0	5	0	
0.197833	-0.00598805	0.00189964	0.00017994	0.000295784	0	5	0	
0.198	0.00455743	0.00715942	0.000181958	0.000459082	0	5	0	
0.198167	-0.00346612	-0.0155052	0.000180798	0.000522207	0	5	0	
0.198333	0.00230908	0.0125323	0.000179336	0.000443429	0	5	0	
0.1985	-0.00181632	-0.00142532	0.000167486	0.000311695	0	5	0	
0.198667	0.0027291	-0.00984794	0.000163219	0.000193153	0	5	0	
0.198833	-0.00462472	0.019662	0.000179719	0.000182505	0	5	0	
0.199	0.00471978	-0.0210955	0.000208955	0.00026408	0	5	0	
0.199167	-0.00449352	0.00604801	0.000220868	0.00045002	0	5	0	
0.199333	0.00326771	0.0180137	0.000205187	0.000629261	0	5	0	
0.1995	-0.00323692	-0.0275248	0.000182641	0.000695477	0	5	0	
0.199667	0.00296699	0.0214754	0.000175361	0.000649919	0	5	0	
0.199833	-0.00401471	-0.0114731	0.000178003	0.000475851	0	5	0	
0.2	0.00564802	-0.000874669	0.000180782	0.000324005	0	5	0	
0.200167	-0.00612387	0.00965079	0.000181388	0.000191856	0	5	0	
0.200333	0.00455193	-0.00666364	0.00018446	0.000139125	0	5	0	
0.2005	-0.00312387	0.00288001	0.000189449	0.000226651	0	5	0	
0.200667	0.0032527	0.0103092	0.00019112	0.000451325	0	5	0	
0.200833	-0.0038487	-0.0216387	0.000188468	0.000710779	0	5	0	
0.201	0.00440198	0.0188605	0.000190303	0.000799249	0	5	0	
0.201167	-0.00539762	-0.0136804	0.000203818	0.000640567	0	5	0	
0.201333	0.00589615	0.00807924	0.000221667	0.000417609	0	5	0	
0.2015	-0.00514909	0.0054142	0.000224598	0.000256492	0	5	0	
0.201667	0.00523573	-0.0112042	0.000208545	0.000266665	0	5	0	
0.201833	-0.00397492	0.00935148	0.000191023	0.000358125	0	5	0	
0.202	0.0026103	-0.00434795	0.000177673	0.000476858	0	5	0	
0.202167	-0.00189988	-0.00739843	0.000172511	0.000521627	0	5	0	
0.202333	0.00434739	0.0065292	0.000175981	0.000484826	0	5	0	
0.2025	-0.0064298	0.000396388	0.000197375	0.000384721	0	5	0	
0.202667	0.00536879	-0.000638591	0.000220948	0.000297127	0	5	0	
0.202833	-0.00327051	-0.00778611	0.000221586	0.000276652	0	5	0	
0.203	0.00472565	0.00879229	0.000198114	0.000306437	0	5	0	
0.203167	-0.0052011	-0.00010814	0.000179289	0.000325084	0	5	0	
0.203333	0.00507532	-0.00862033	0.000177825	0.000343539	0	5	0	
0.2035	-0.00274643	0.00125898	0.000186549	0.000386954	0	5	0	
0.203667	0.00208359	0.00227314	0.000190351	0.000436732	0	5	0	
0.203833	-0.00440663	-0.00727966	0.000194252	0.000437438	0	5	0	
0.204	0.00632427	0.0112933	0.000196405	0.000403081	0	5	0	
0.204167	-0.00397742	-0.0130498	0.000191652	0.000376962	0	5	0	
0.204333	0.00274789	0.00786871	0.000178349	0.000337684	0	5	0	
0.2045	-0.00446501	0.00170741	0.000173145	0.000259796	0	5	0	
0.204667	0.00579008	-0.00860282	0.000180534	0.000212899	0	5	0	
0.204833	-0.00449147	-0.000668149	0.000192694	0.000267823	0	5	0	
0.205	0.00429725	0.0096757	0.000191882	0.000421428	0	5	0	
0.205167	-0.00503716	-0.0146834	0.000183424	0.000547031	0	5	0	
0.205333	0.00535408	0.0149707	0.000175723	0.000595932	0	5	0	
0.2055	-0.00547417	-0.00897422	0.000173864	0.00056851	0	5	0	
0.205667	0.00458066	-0.000454989	0.000178624	0.000463823	0	5	0	
0.205833	-0.00438482	0.00979926	0.000185387	0.000333383	0	5	0	
0.206	0.00542422	-0.0130787	0.000189785	0.000286429	0	5	0	
0.206167	-0.00606053	0.0085591	0.000192102	0.000366295	0	5	0	
0.206333	0.00508602	0.00320299	0.000197985	0.000490906	0	5	0	
0.2065	-0.00477093	-0.0035727	0.000205007	0.00055452	0	5	0	
0.206667	0.00544463	0.00202881	0.000199715	0.000511716	0	5	0	
0.206833	-0.00549348	-0.00126888	0.000192031	0.000396172	0	5	0	
0.207	0.00475637	0.00131446	0.00019382	0.000265625	0	5	0	
0.207167	-0.0042411	0.00708037	0.000202196	0.00018072	0	5	0	
0.207333	0.00368309	-0.00408114	0.000200318	0.000157877	0	5	0	
0.2075	-0.00412735	0.0049491	0.000191068	0.000229563	0	5	0	
0.207667	0.0062265	-0.00309174	0.000190078	0.00031235	0	5	0	
0.207833	-0.00631002	0.000673496	0.000199093	0.000381097	0	5	0	
0.208	0.00471044	0.00663064	0.00019537	0.00041778	0	5	0	
0.208167	-0.0041074	-0.00508394	0.000176076	0.00041751	0	5	0	
0.208333	0.00574329	0.00066358	0.00016351	0.00035256	0	5	0	
0.2085	-0.00606963	0.00296564	0.000177935	0.00025127	0	5	0	
0.208667	0.00414905	-0.00412818	0.000200429	0.00018143	0	5	0	
0.208833	-0.00413476	0.00837159	0.000207422	0.000179726	0	5	0	
0.209	0.00488422	-0.00566166	0.000201707	0.000210918	0	5	0	
0.209167	-0.0056435	0.00212227	0.000197393	0.000270827	0	5	0	
0.209333	0.00605009	0.00152567	0.000198485	0.00034895	0	5	0	
0.2095	-0.00528257	-0.00522769	0.000197831	0.000407552	0	5	0	
0.209667	0.00449583	0.0027824	0.000195232	0.000391531	0	5	0	
0.209833	-0.00580867	-0.00130587	0.000195993	0.000288513	0	5	0	
0.21	0.00371541	0.00195575	0.000200529	0.000180197	0	5	0	
0.210167	-0.00297291	-0.00417801	0.000195138	0.00014108	0	5	0	
0.210333	0.00407894	0.0029489	0.000187287	0.000158815	0	5	0	
0.2105	-0.00557704	0.00390429	0.000190476	0.000157939	0	5	0	
0.210667	0.00549783	-0.00569532	0.000209967	0.000135579	0	5	0	
0.210833	-0.00525067	0.00227856	0.000221048	0.000101645	0	5	0	
0.211	0.00188155	0.00063726	0.000211509	7.85499E-05	0	5	0	
0.211167	-0.00316029	-0.00529134	0.000186933	9.33779E-05	0	5	0	
0.211333	0.00257003	0.0125614	0.000167455	0.000164764	0	5	0	
0.2115	-0.00139113	-0.0130496	0.000152945	0.000283034	0	5	0	
0.211667	0.00216667	0.0158985	0.000156801	0.000360584	0	5	0	
0.211833	-0.00471255	-0.016175	0.000177586	0.000370121	0	5	0	
0.212	0.00456949	0.0113265	0.00020326	0.000329218	0	5	0	
0.212167	-0.00725448	-0.00693729	0.000198021	0.000290337	0	5	0	
0.212333	0.00508578	0.00137708	0.000175401	0.000321548	0	5	0	
0.2125	-0.00605549	-0.000926865	0.000148256	0.000426249	0	5	0	
0.212667	0.00938342	0.00559157	0.000168912	0.000570102	0	5	0	
0.212833	-0.0137983	-0.0150378	0.000208377	0.000682619	0	5	0	
0.213	0.0132081	0.0278171	0.000245644	0.000704331	0	5	0	
0.213167	-0.0101529	-0.0216628	0.000249129	0.000629926	0	5	0	
0.213333	0.00736315	-0.0126682	0.000230838	0.000488869	0	5	0	
0.2135	-0.006027	0.0296752	0.000215792	0.000396192	0	5	0	
0.213667	0.00116033	-0.0188152	0.000211122	0.000419598	0	5	0	
0.213833	-0.00387577	0.00830217	0.000246454	0.000502804	0	5	0	
0.214	0.0118675	-0.000345317	0.000321369	0.000533758	0	5	0	
0.214167	-0.015654	-0.0165182	0.000382097	0.000558534	0	5	0	
0.214333	0.00901942	0.029863	0.000358511	0.000573339	0	5	0	
0.2145	-0.00225926	-0.0226308	0.000258179	0.000569745	0	5	0	
0.214667	-0.000997887	0.00086252	0.000163475	0.00057251	0	5	0	
0.214833	0.000862228	0.00446745	0.00013229	0.000492496	0	5	0	
0.215	0.00189348	0.00565513	0.000158522	0.000377735	0	5	0	
0.215167	-0.00861937	-0.00688847	0.000215509	0.000318327	0	5	0	
0.215333	0.0106559	0.00964203	0.000263508	0.000467582	0	5	0	
0.2155	-0.00788365	-0.0380367	0.000262949	0.000836404	0	5	0	
0.215667	0.00372878	0.0548618	0.000209083	0.00109034	0	5	0	
0.215833	-0.0058202	-0.0365759	0.000159204	0.00109244	0	5	0	
0.216	0.00515063	0.0040954	0.00015523	0.000820708	0	5	0	
0.216167	-0.00447906	0.00811523	0.000169755	0.000451754	0	5	0	
0.216333	0.0036553	-0.0169944	0.000175963	0.000281161	0	5	0	
0.2165	-0.00581379	0.0257885	0.000169325	0.000293795	0	5	0	
0.216667	0.00527553	-0.012244	0.000172457	0.000518145	0	5	0	
0.216833	-0.0022789	-0.0190276	0.000164119	0.000764479	0	5	0	
0.217	-0.000823147	0.0330723	0.000154834	0.00086643	0	5	0	
0.217167	-0.00162861	-0.0318079	0.000169189	0.000802045	0	5	0	
0.217333	0.00532847	0.0159712	0.000211513	0.000603447	0	5	0	
0.2175	-0.00706517	0.0060884	0.000249619	0.000520268	0	5	0	
0.217667	0.0053132	-0.0180269	0.000240773	0.000427107	0	5	0	
0.217833	-0.00480882	0.0206018	0.000194891	0.000406481	0	5	0	
0.218	0.00557242	-0.0196695	0.000150368	0.000477558	0	5	0	
0.218167	-0.00529645	0.000264963	0.000129996	0.000678424	0	5	0	
0.218333	0.00235431	0.0324864	0.000127227	0.000856706	0	5	0	
0.2185	-0.00210426	-0.0458096	0.000132511	0.000853338	0	5	0	
0.218667	0.0040745	0.0318507	0.000152621	0.000817482	0	5	0	
0.218833	-0.00692123	-0.00280505	0.000175277	0.000682337	0	5	0	
0.219	0.00723487	-0.0119672	0.000191113	0.000487721	0	5	0	
0.219167	-0.00548738	0.00589448	0.000187043	0.000365682	0	5	0	
0.219333	0.005658	0.0134288	0.00018133	0.000420886	0	5	0	
0.2195	-0.00492339	-0.0248742	0.000179416	0.000560066	0	5	0	
0.219667	0.00473897	0.016296	0.000184837	0.000552245	0	5	0	
0.219833	-0.00499666	-0.00014558	0.000187326	0.000388459	0	5	0	
0.22	0.00489195	-0.00896034	0.000178052	0.000282474	0	5	0	
0.220167	-0.00399266	0.0158917	0.000164136	0.000304683	0	5	0	
0.220333	0.00660479	-0.00912264	0.000156433	0.000443411	0	5	0	
0.2205	-0.00633516	-0.0108904	0.000163552	0.00062157	0	5	0	
0.220667	0.00477158	0.0248135	0.000167242	0.000707865	0	5	0	
0.220833	-0.00343916	-0.0225637	0.000160448	0.000663561	0	5	0	
0.221	0.00410065	0.00667536	0.000150535	0.000504632	0	5	0	
0.221167	-0.00462013	0.00916179	0.000156811	0.000289729	0	5	0	
0.221333	0.00695537	-0.0120933	0.000173927	0.0001934	0	5	0	
0.2215	-0.00733521	0.013155	0.000191874	0.000181064	0	5	0	
0.221667	0.00730221	-0.00630532	0.000197495	0.000260185	0	5	0	
0.221833	-0.00722946	-0.00680708	0.000192539	0.00037757	0	5	0	
0.222	0.00779631	0.0141761	0.000183691	0.000484205	0	5	0	
0.222167	-0.00501278	-0.0138105	0.000176679	0.000533186	0	5	0	
0.222333	0.00545866	0.0116303	0.000165238	0.000469452	0	5	0	
0.2225	-0.00643238	-0.00396916	0.000157434	0.000382064	0	5	0	
0.222667	0.00762942	0.00321065	0.000158098	0.000331569	0	5	0	
0.222833	-0.00707952	-0.00129651	0.000182913	0.000306518	0	5	0	
0.223	0.0076773	0.00165729	0.000202509	0.000280192	0	5	0	
0.223167	-0.00695091	-0.00335135	0.000217184	0.000277975	0	5	0	
0.223333	0.00831236	0.00613884	0.000222031	0.000295979	0	5	0	
0.2235	-0.00941685	-0.00256439	0.000229712	0.000315603	0	5	0	
0.223667	0.00825686	0.00693397	0.000231137	0.000324904	0	5	0	
0.223833	-0.00662504	-0.012031	0.000227003	0.000327278	0	5	0	
0.224	0.0066419	0.00557838	0.000211654	0.000309033	0	5	0	
0.224167	-0.00625476	0.00535958	0.000205743	0.000255415	0	5	0	
0.224333	0.0053068	-0.00171958	0.000211838	0.000262099	0	5	0	
0.2245	-0.00505586	-0.0046717	0.000226239	0.000345133	0	5	0	
0.224667	0.00632763	0.00883135	0.000226917	0.000462554	0	5	0	
0.224833	-0.00753891	-0.0120366	0.000217536	0.000501211	0	5	0	
0.225	0.00639492	0.00390508	0.000211484	0.000431805	0	5	0	
0.225167	-0.00514976	0.000774557	0.000210719	0.000281513	0	5	0	
0.225333	0.00327989	0.00741188	0.000200424	0.000187877	0	5	0	
0.2255	-0.0023355	-0.0122255	0.000174653	0.000212556	0	5	0	
0.225667	0.00481386	0.0131989	0.000157901	0.000308023	0	5	0	
0.225833	-0.00817042	-0.012336	0.000171672	0.000355114	0	5	0	
0.226	0.00691908	0.00575216	0.00020404	0.000307735	0	5	0	
0.226167	-0.00463884	-0.00161882	0.000210869	0.00022265	0	5	0	
0.226333	0.00259168	0.007607	0.000180746	0.000235999	0	5	0	
0.2265	-0.00326766	-0.0197984	0.000135373	0.000393299	0	5	0	
0.226667	0.00473602	0.0245664	0.000120647	0.000593391	0	5	0	
0.226833	-0.0054476	-0.0220019	0.000139535	0.000645915	0	5	0	
0.227	0.00522375	0.015162	0.000172782	0.000536423	0	5	0	
0.227167	-0.00579644	-0.000155247	0.000191995	0.000370443	0	5	0	
0.227333	0.00713478	-0.00869708	0.00019488	0.000273169	0	5	0	
0.2275	-0.00901069	0.00685313	0.000186537	0.000301738	0	5	0	
0.227667	0.00877148	-0.00347089	0.000184448	0.000407508	0	5	0	
0.227833	-0.00586518	-0.0108325	0.000177932	0.000517774	0	5	0	
0.228	0.00528022	0.0189158	0.000167635	0.000560294	0	5	0	
0.228167	-0.00518092	-0.015071	0.000154591	0.000534169	0	5	0	
0.228333	0.00557946	0.0120339	0.00014937	0.000455054	0	5	0	
0.2285	-0.00596782	-0.0161192	0.000161403	0.000386749	0	5	0	
0.228667	0.00801523	0.0158259	0.00018537	0.000350362	0	5	0	
0.228833	-0.00944785	-0.0107014	0.000217016	0.000316395	0	5	0	
0.229	0.00953461	0.000144506	0.000232974	0.000242134	0	5	0	
0.229167	-0.00835691	0.00713163	0.000225307	0.000190115	0	5	0	
0.229333	0.00568654	-0.0037741	0.000196331	0.000267382	0	5	0	
0.2295	-0.00433253	-0.0113026	0.000172106	0.000472753	0	5	0	
0.229667	0.00481336	0.0201321	0.000159167	0.000678876	0	5	0	
0.229833	-0.00668885	-0.018997	0.000168611	0.000729079	0	5	0	
0.23	0.00891801	0.0163179	0.000194978	0.000642209	0	5	0	
0.230167	-0.00892338	-0.0180048	0.000216745	0.000518477	0	5	0	
0.230333	0.0070323	0.0147244	0.000213728	0.000406892	0	5	0	
0.2305	-0.00525277	0.00678709	0.000183248	0.000309677	0	5	0	
0.230667	0.00580392	-0.0288278	0.000153955	0.00026898	0	5	0	
0.230833	-0.00554916	0.0249589	0.000141691	0.00041297	0	5	0	
0.231	0.0027337	-0.00169306	0.00014442	0.000657852	0	5	0	
0.231167	-0.00429988	-0.0220501	0.000158757	0.000824063	0	5	0	
0.231333	0.00693394	0.0252163	0.000188201	0.00077937	0	5	0	
0.2315	-0.00800065	-0.013688	0.000207017	0.000603344	0	5	0	
0.231667	0.00707478	0.0114607	0.000199341	0.00043099	0	5	0	
0.231833	-0.00574233	-0.013062	0.000169475	0.000319345	0	5	0	
0.232	0.00572047	-0.00207111	0.000156724	0.000225557	0	5	0	
0.232167	-0.00724139	0.00836383	0.000160007	0.000154111	0	5	0	
0.232333	0.00706611	0.00423239	0.000173534	0.000286223	0	5	0	
0.2325	-0.00842454	-0.0169531	0.000190557	0.000496158	0	5	0	
0.232667	0.00978495	0.0129092	0.000209549	0.000623559	0	5	0	
0.232833	-0.00719627	-0.0173485	0.000215342	0.000540383	0	5	0	
0.233	0.00514396	0.0198409	0.000204945	0.000428281	0	5	0	
0.233167	-0.00533535	-0.010937	0.000192791	0.000373189	0	5	0	
0.233333	0.00450737	0.00454351	0.000178378	0.000325843	0	5	0	
0.2335	-0.00276106	-0.00218642	0.000175533	0.000281406	0	5	0	
0.233667	0.00613056	-0.00825656	0.000192994	0.000232865	0	5	0	
0.233833	-0.00800863	-0.000342645	0.000218262	0.000323305	0	5	0	
0.234	0.00662741	0.0247593	0.000218008	0.000563053	0	5	0	
0.234167	-0.0062865	-0.029991	0.000197677	0.000756929	0	5	0	
0.234333	0.00738498	0.0168132	0.000182897	0.000729817	0	5	0	
0.2345	-0.00634265	-0.0102341	0.000179854	0.000504934	0	5	0	
0.234667	0.00618277	0.00718186	0.000171795	0.000323559	0	5	0	
0.234833	-0.00640734	-0.00024062	0.000169931	0.000216713	0	5	0	
0.235	0.00726721	0.00254698	0.000180142	0.000209852	0	5	0	
0.235167	-0.00652202	-0.0103837	0.000200281	0.000247164	0	5	0	
0.235333	0.0083722	0.00887645	0.000205982	0.000295325	0	5	0	
0.2355	-0.00809787	-0.00970986	0.000205124	0.000346276	0	5	0	
0.235667	0.00715572	0.0168614	0.000190797	0.000404334	0	5	0	
0.235833	-0.00578347	-0.00993183	0.000182821	0.000423261	0	5	0	
0.236	0.00580376	0.000815	0.000177678	0.000352369	0	5	0	
0.236167	-0.00652887	-0.00772583	0.00017929	0.000334476	0	5	0	
0.236333	0.00814571	0.0157448	0.000175255	0.00038603	0	5	0	
0.2365	-0.0080795	-0.0149717	0.000177474	0.000448566	0	5	0	
0.236667	0.0085546	0.00904959	0.000185115	0.000401998	0	5	0	
0.236833	-0.00832681	0.00293452	0.000200217	0.000279346	0	5	0	
0.237	0.00699171	-0.00733962	0.00020166	0.00018888	0	5	0	
0.237167	-0.00813643	0.0047797	0.000197805	0.000170801	0	5	0	
0.237333	0.00842955	0.00151916	0.000196347	0.000240143	0	5	0	
0.2375	-0.00804528	-0.0106941	0.000194973	0.000359071	0	5	0	
0.237667	0.00732372	0.0197724	0.000194615	0.000471565	0	5	0	
0.237833	-0.00675603	-0.0167536	0.000194329	0.000491621	0	5	0	
0.238	0.00559767	0.00786381	0.000197592	0.000390744	0	5	0	
0.238167	-0.00575003	-0.00064265	0.000192525	0.0002334	0	5	0	
0.238333	0.00626764	0.00522811	0.000183391	0.000172393	0	5	0	
0.2385	-0.00805717	-0.00996857	0.000179982	0.00022796	0	5	0	
0.238667	0.00887745	0.0148007	0.000190201	0.000336002	0	5	0	
0.238833	-0.00787619	-0.0118106	0.000198842	0.000411015	0	5	0	
0.239	0.00736222	0.00972866	0.000198739	0.000419788	0	5	0	
0.239167	-0.00731462	-0.0121397	0.00019177	0.000406785	0	5	0	
0.239333	0.00735122	0.0126635	0.000184771	0.000392728	0	5	0	
0.2395	-0.0076137	-0.0111261	0.000184381	0.000383932	0	5	0	
0.239667	0.00814106	0.00520456	0.00018651	0.000373869	0	5	0	
0.239833	-0.0078458	0.00543036	0.000190544	0.000361681	0	5	0	
0.24	0.00769728	-0.00972422	0.00019151	0.000367914	0	5	0	
0.240167	-0.00811402	0.00534016	0.000195085	0.000368612	0	5	0	
0.240333	0.00733227	-0.00164406	0.000201513	0.000360449	0	5	0	
0.2405	-0.00724798	-0.00783734	0.000205771	0.00032338	0	5	0	
0.240667	0.00733101	0.0127999	0.000204457	0.000300348	0	5	0	
0.240833	-0.00814431	-0.0148302	0.00019721	0.000300278	0	5	0	
0.241	0.00793789	0.0145146	0.000193878	0.000304	0	5	0	
0.241167	-0.00828816	-0.00977039	0.000189188	0.000299924	0	5	0	
0.241333	0.00719194	0.00605714	0.000187976	0.000278194	0	5	0	
0.2415	-0.0067297	-0.0116221	0.000183238	0.000285137	0	5	0	
0.241667	0.00599151	0.0142434	0.000186881	0.000319155	0	5	0	
0.241833	-0.00731307	-0.0114825	0.000182406	0.000369267	0	5	0	
0.242	0.00738383	0.00913305	0.000179093	0.000412205	0	5	0	
0.242167	-0.00786236	-0.00788266	0.000170646	0.000424667	0	5	0	
0.242333	0.00828684	0.0028629	0.000174857	0.000405072	0	5	0	
0.2425	-0.00800859	-0.00770741	0.000182942	0.000378454	0	5	0	
0.242667	0.00645984	0.0129392	0.00018717	0.000375849	0	5	0	
0.242833	-0.0068891	-0.00956613	0.000178118	0.000362312	0	5	0	
0.243	0.00854594	0.00538582	0.000175196	0.000308977	0	5	0	
0.243167	-0.00829434	-0.00871018	0.000182834	0.000242057	0	5	0	
0.243333	0.00858653	0.00159893	0.000193606	0.000225898	0	5	0	
0.2435	-0.00871195	-0.00375898	0.000196739	0.000256515	0	5	0	
0.243667	0.00798325	0.00855039	0.000194715	0.000315959	0	5	0	
0.243833	-0.00780586	-0.0170097	0.000191822	0.000354522	0	5	0	
0.244	0.00701974	0.0215792	0.000188418	0.000399828	0	5	0	
0.244167	-0.00577656	-0.0237019	0.000180273	0.000430843	0	5	0	
0.244333	0.00600747	0.00996262	0.00018465	0.000420072	0	5	0	
0.2445	-0.0104622	-0.00260098	0.000209508	0.000340486	0	5	0	
0.244667	0.0153452	0.00853223	0.000239575	0.000331666	0	5	0	
0.244833	-0.00797494	-0.03093	0.000246582	0.000516924	0	5	0	
0.245	0.00537678	0.0434594	0.000206344	0.000765803	0	5	0	
0.245167	-0.00879937	-0.0091876	0.000193327	0.000807235	0	5	0	
0.245333	0.0136187	-0.0255422	0.000194519	0.000736145	0	5	0	
0.2455	-0.0053801	0.00578533	0.000212707	0.00111908	0	5	0	
0.245667	0.0020614	0.0209691	0.000182916	0.00150884	0	5	0	
0.245833	-0.011443	0.020058	0.000231691	0.00140282	0	5	0	
0.246	0.01649	-0.0349907	0.000262139	0.000902779	0	5	0	
0.246167	-0.00434401	0.0142619	0.000290584	0.000547128	0	5	0	
0.246333	0.00343518	-0.0366207	0.000215902	0.000601938	0	5	0	
0.2465	-0.00977572	0.0758288	0.000215156	0.000797479	0	5	0	
0.246667	0.00891066	-0.0409564	0.000221403	0.000949546	0	5	0	
0.246833	-0.0064526	-0.00287855	0.000225029	0.00103174	0	5	0	
0.247	0.00726912	0.0187463	0.000189941	0.000753144	0	5	0	
0.247167	-0.00807414	-0.0325145	0.000179098	0.000529308	0	5	0	
0.247333	0.00828904	0.0257458	0.000196192	0.000464069	0	5	0	
0.2475	-0.00919867	-0.000277017	0.00020239	0.000469544	0	5	0	
0.247667	0.00791194	0.000641949	0.000192398	0.000505598	0	5	0	
0.247833	-0.00497678	-0.012199	0.000166771	0.000555814	0	5	0	
0.248	0.00478365	-0.00582393	0.000147625	0.000501409	0	5	0	
0.248167	-0.00535653	0.00814754	0.00014394	0.000403467	0	5	0	
0.248333	0.00670722	0.0110311	0.000153776	0.000310794	0	5	0	
0.2485	-0.0059797	-0.0147179	0.000165953	0.000337874	0	5	0	
0.248667	0.00607571	0.0119847	0.000172695	0.000353161	0	5	0	
0.248833	-0.00745812	-0.0181672	0.000192855	0.000316301	0	5	0	
0.249	0.00914693	0.00771936	0.000217238	0.000318352	0	5	0	
0.249167	-0.00943835	-0.00106015	0.000229664	0.000339797	0	5	0	
0.249333	0.00961291	0.0145601	0.000223048	0.000512177	0	5	0	
0.2495	-0.008108	-0.0195943	0.000208645	0.000663251	0	5	0	
0.249667	0.00783666	0.00944182	0.000193167	0.000731714	0	5	0	
0.249833	-0.00621146	-0.0103456	0.000178037	0.00062732	0	5	0	
0.25	0.00565416	0.00693816	0.000157992	0.0004709	0	5	0	
0.250167	-0.00622458	0.0102836	0.0001496	0.000309816	0	5	0	
0.250333	0.00777697	-0.0108341	0.00015659	0.000218165	0	5	0	
0.2505	-0.00768854	-0.00172478	0.00017506	0.000219201	0	5	0	
0.250667	0.00863831	0.00798047	0.000192731	0.000259863	0	5	0	
0.250833	-0.00923391	-0.0110506	0.000201234	0.000297696	0	5	0	
0.251	0.00897689	0.0146128	0.000198859	0.000339704	0	5	0	
0.251167	-0.00766361	-0.00634644	0.000192333	0.000336931	0	5	0	
0.251333	0.00881848	0.000927101	0.000185307	0.000246053	0	5	0	
0.2515	-0.0112993	-0.00840395	0.000188317	0.000243123	0	5	0	
0.251667	0.0106074	0.022168	0.000202611	0.000389338	0	5	0	
0.251833	-0.00962525	-0.0201896	0.00021364	0.000560057	0	5	0	
0.252	0.00985851	0.00547259	0.000223536	0.000529184	0	5	0	
0.252167	-0.00913927	0.00391001	0.000226845	0.000329204	0	5	0	
0.252333	0.00823583	0.00112074	0.000222637	0.000135615	0	5	0	
0.2525	-0.00879475	-0.00176158	0.00020896	8.81293E-05	0	5	0	
0.252667	0.00772413	-0.0027027	0.000199827	0.000161993	0	5	0	
0.252833	-0.00729146	-0.00191271	0.000195105	0.000333321	0	5	0	
0.253	0.00678604	0.0189558	0.00018934	0.000518431	0	5	0	
0.253167	-0.00687192	-0.0233914	0.00018366	0.000603416	0	5	0	
0.253333	0.00864201	0.0153734	0.000186708	0.000535603	0	5	0	
0.2535	-0.00911385	-2.05784E-05	0.000194592	0.000355333	0	5	0	
0.253667	0.0101084	-0.00155689	0.00019691	0.000240809	0	5	0	
0.253833	-0.0103775	-0.0015529	0.000209317	0.000239334	0	5	0	
0.254	0.00897649	0.010983	0.000215789	0.00029719	0	5	0	
0.254167	-0.00767298	-0.0101462	0.000217058	0.000337532	0	5	0	
0.254333	0.00736373	0.00916467	0.00020028	0.000304746	0	5	0	
0.2545	-0.00740515	-0.00603777	0.000187243	0.000253816	0	5	0	
0.254667	0.00704686	0.00969257	0.000176094	0.00023021	0	5	0	
0.254833	-0.00637813	-0.00954592	0.000173741	0.000271114	0	5	0	
0.255	0.00723652	0.0137706	0.000171558	0.000335622	0	5	0	
0.255167	-0.00809531	-0.0135061	0.000177606	0.000400667	0	5	0	
0.255333	0.0085018	0.0174392	0.000181043	0.00042947	0	5	0	
0.2555	-0.00986776	-0.0179288	0.000195245	0.000428796	0	5	0	
0.255667	0.010479	0.00749315	0.000209159	0.00038386	0	5	0	
0.255833	-0.00952732	0.00308056	0.000218813	0.000295077	0	5	0	
0.256	0.00695035	-0.00275774	0.000207474	0.000274863	0	5	0	
0.256167	-0.00598732	-0.00478128	0.000178855	0.000325676	0	5	0	
0.256333	0.00643013	0.0185838	0.000157766	0.000426833	0	5	0	
0.2565	-0.00626502	-0.0211721	0.000156173	0.000484331	0	5	0	
0.256667	0.00733426	0.0138754	0.000169007	0.000446945	0	5	0	
0.256833	-0.00793129	-0.00577822	0.000181699	0.000336658	0	5	0	
0.257	0.00704771	-0.00313598	0.000185891	0.000189724	0	5	0	
0.257167	-0.00802272	0.00542573	0.000174479	0.000130064	0	5	0	
0.257333	0.011375	0.00525625	0.000172769	0.000235829	0	5	0	
0.2575	-0.0108036	-0.0140655	0.000190793	0.000494983	0	5	0	
0.257667	0.011993	0.0227807	0.000219683	0.000704709	0	5	0	
0.257833	-0.0121004	-0.0204101	0.000242706	0.000687219	0	5	0	
0.258	0.0110936	0.00510592	0.000243268	0.000485542	0	5	0	
0.258167	-0.0102276	0.00781154	0.000228442	0.000263829	0	5	0	
0.258333	0.00966369	-0.0121532	0.000204226	0.000176308	0	5	0	
0.2585	-0.00768915	0.00894072	0.000193641	0.000227381	0	5	0	
0.258667	0.0073116	0.00668901	0.000197542	0.000429994	0	5	0	
0.258833	-0.0084763	-0.028473	0.000205027	0.000661277	0	5	0	
0.259	0.00976368	0.0273678	0.000208283	0.000754894	0	5	0	
0.259167	-0.0123326	-0.00854666	0.000217347	0.000603427	0	5	0	
0.259333	0.0112587	-0.00576349	0.000226459	0.000382718	0	5	0	
0.2595	-0.00966982	0.00540909	0.000226815	0.000195502	0	5	0	
0.259667	0.00905124	0.000979186	0.000225989	0.000202665	0	5	0	
0.259833	-0.0110561	-0.00667249	0.000222811	0.000288747	0	5	0	
0.26	0.00819699	0.00982464	0.000222868	0.000394338	0	5	0	
0.260167	-0.00921719	-0.0137639	0.000209996	0.000367744	0	5	0	
0.260333	0.00867776	0.0100757	0.000206113	0.000286013	0	5	0	
0.2605	-0.00897155	-0.00516821	0.000199316	0.000214571	0	5	0	
0.260667	0.00830341	0.00605787	0.000202681	0.000197511	0	5	0	
0.260833	-0.00902442	-0.00827789	0.000194923	0.000257793	0	5	0	
0.261	0.00810256	0.01639	0.000184499	0.000410426	0	5	0	
0.261167	-0.00809351	-0.0250533	0.000164252	0.000544771	0	5	0	
0.261333	0.0051699	0.0187709	0.000145844	0.000548649	0	5	0	
0.2615	-0.00360839	-0.00598787	0.000125808	0.000414976	0	5	0	
0.261667	0.00541535	0.0138866	0.000132214	0.000347628	0	5	0	
0.261833	-0.0067414	-0.0309802	0.00015583	0.000433823	0	5	0	
0.262	0.0110835	0.0299615	0.000190892	0.000567503	0	5	0	
0.262167	-0.0103761	-0.0187055	0.000220036	0.000590911	0	5	0	
0.262333	0.010865	0.0130716	0.000212684	0.000470943	0	5	0	
0.2625	-0.00804376	-0.00756364	0.0002013	0.000361808	0	5	0	
0.262667	0.00693664	0.00857172	0.000160935	0.000350893	0	5	0	
0.262833	-0.00854367	-0.00641026	0.00015027	0.000431654	0	5	0	
0.263	0.0111558	-0.00121524	0.000160863	0.000520709	0	5	0	
0.263167	-0.00978283	-0.00136502	0.000192025	0.00059087	0	5	0	
0.263333	0.00954977	0.0161087	0.000200534	0.000616161	0	5	0	
0.2635	-0.00869788	-0.0216499	0.000196776	0.000572583	0	5	0	
0.263667	0.00974495	0.0130341	0.000184951	0.000492459	0	5	0	
0.263833	-0.00990779	-0.00996299	0.000198178	0.000383533	0	5	0	
0.264	0.00740108	0.0139117	0.000208695	0.000298278	0	5	0	
0.264167	-0.00794706	-0.00673231	0.000216833	0.000249706	0	5	0	
0.264333	0.00730078	0.00441687	0.000212394	0.000186815	0	5	0	
0.2645	-0.00677762	-0.0142551	0.000192091	0.000213704	0	5	0	
0.264667	0.00938247	0.0118207	0.00017907	0.000281407	0	5	0	
0.264833	-0.00946569	-0.0117751	0.000176804	0.000427913	0	5	0	
0.265	0.00734439	0.0271054	0.000175597	0.000545088	0	5	0	
0.265167	-0.0072105	-0.0252823	0.000173948	0.00059224	0	5	0	
0.265333	0.00809476	0.00789756	0.000165158	0.000518881	0	5	0	
0.2655	-0.00768117	-0.00683145	0.000161101	0.000380479	0	5	0	
0.265667	0.00896642	0.00965453	0.000159495	0.000286392	0	5	0	
0.265833	-0.0102603	-0.0112267	0.000175238	0.000254378	0	5	0	
0.266	0.0104047	0.0108768	0.000196262	0.000251209	0	5	0	
0.266167	-0.00911094	-0.0119688	0.000214341	0.000244427	0	5	0	
0.266333	0.00841964	0.0103116	0.000205951	0.000299655	0	5	0	
0.2665	-0.00872983	-0.0208674	0.000191018	0.000386226	0	5	0	
0.266667	0.00763278	0.0228255	0.000179922	0.000452201	0	5	0	
0.266833	-0.00856463	-0.00709803	0.000180441	0.000428743	0	5	0	
0.267	0.00936324	-0.00252357	0.000185213	0.000347329	0	5	0	
0.267167	-0.00987144	-0.00728923	0.000191283	0.00035137	0	5	0	
0.267333	0.00904007	0.0107536	0.000193321	0.000399271	0	5	0	
0.2675	-0.00893071	-0.00888796	0.000188615	0.00040346	0	5	0	
0.267667	0.00840184	0.0069769	0.000186263	0.000306638	0	5	0	
0.267833	-0.00843082	-0.00605801	0.000177546	0.000239385	0	5	0	
0.268	0.00860606	0.00738915	0.000173858	0.000242845	0	5	0	
0.268167	-0.010568	-0.0106625	0.000176271	0.000257895	0	5	0	
0.268333	0.0109252	0.0122906	0.000193353	0.000268289	0	5	0	
0.2685	-0.0104304	-0.0152584	0.000208466	0.000296928	0	5	0	
0.268667	0.0104727	0.0130753	0.000208589	0.000324472	0	5	0	
0.268833	-0.00754039	-0.00908817	0.000197602	0.000301901	0	5	0	
0.269	0.00808157	0.000930689	0.000179395	0.00022527	0	5	0	
0.269167	-0.0105652	-0.000159856	0.000182213	0.000147241	0	5	0	
0.269333	0.0115756	0.00720362	0.000195899	0.000182699	0	5	0	
0.2695	-0.0107914	-0.0131486	0.000217367	0.000286712	0	5	0	
0.269667	0.00863163	0.0168295	0.000212426	0.000352394	0	5	0	
0.269833	-0.00660821	-0.0200426	0.000195609	0.000354809	0	5	0	
0.27	0.00897456	0.0224873	0.000170446	0.000352834	0	5	0	
0.270167	-0.00816456	-0.0248221	0.000163667	0.000437098	0	5	0	
0.270333	0.00899787	0.024754	0.000160321	0.000517952	0	5	0	
0.2705	-0.0101506	-0.0125007	0.000178158	0.00053461	0	5	0	
0.270667	0.00967035	0.00690615	0.000187481	0.000448779	0	5	0	
0.270833	-0.00897445	-0.0104843	0.000187141	0.000372083	0	5	0	
0.271	0.00960405	0.0106133	0.000178296	0.00034918	0	5	0	
0.271167	-0.0101097	-0.00671324	0.000177464	0.00036884	0	5	0	
0.271333	0.0107648	0.0117493	0.000190861	0.000371077	0	5	0	
0.2715	-0.0104088	-0.0150339	0.000208447	0.000373224	0	5	0	
0.271667	0.00965242	0.0118015	0.000215328	0.000357743	0	5	0	
0.271833	-0.00972801	-0.0145795	0.000212124	0.000316238	0	5	0	
0.272	0.00952462	0.0150336	0.000204313	0.000275915	0	5	0	
0.272167	-0.00914494	-0.00830228	0.000192868	0.000264609	0	5	0	
0.272333	0.00864324	0.00184995	0.000186504	0.000273041	0	5	0	
0.2725	-0.00906982	-0.00033594	0.000180203	0.000329816	0	5	0	
0.272667	0.00911971	0.000641647	0.000184683	0.000412373	0	5	0	
0.272833	-0.00954995	-0.00822838	0.00018727	0.000477822	0	5	0	
0.273	0.0105357	0.0158495	0.000195485	0.0004504	0	5	0	
0.273167	-0.0115349	-0.0112764	0.000200262	0.000369418	0	5	0	
0.273333	0.0126842	0.00287751	0.000218106	0.000256896	0	5	0	
0.2735	-0.011335	-0.00613777	0.000227652	0.000164594	0	5	0	
0.273667	0.008281	0.00774449	0.000228913	0.000117191	0	5	0	
0.273833	-0.00796102	-0.00625511	0.000212671	0.000115498	0	5	0	
0.274	0.00970181	0.0108401	0.000204532	0.000141841	0	5	0	
0.274167	-0.00971224	-0.0124914	0.000205779	0.0001928	0	5	0	
0.274333	0.00814566	0.0125215	0.0002129	0.000232639	0	5	0	
0.2745	-0.00715323	-0.0145575	0.000212146	0.000272771	0	5	0	
0.274667	0.0075938	0.0165148	0.000200544	0.000338863	0	5	0	
0.274833	-0.0072217	-0.0228605	0.000179542	0.00042	0	5	0	
0.275	0.00669639	0.0220094	0.000159036	0.000474767	0	5	0	
0.275167	-0.0082379	-0.0112228	0.000150914	0.000417163	0	5	0	
0.275333	0.00794017	0.00541623	0.000157395	0.000316347	0	5	0	
0.2755	-0.00831936	-0.00124912	0.000166056	0.000248898	0	5	0	
0.275667	0.00982296	0.00337483	0.000176392	0.000296022	0	5	0	
0.275833	-0.010181	-0.0165257	0.000184519	0.000465032	0	5	0	
0.276	0.00896899	0.0297274	0.000187058	0.000626876	0	5	0	
0.276167	-0.00935889	-0.0202761	0.000176943	0.000622818	0	5	0	
0.276333	0.00986237	-0.000770714	0.000173098	0.0004776	0	5	0	
0.2765	-0.00907796	0.0126564	0.00017753	0.000278999	0	5	0	
0.276667	0.00915305	-0.0100271	0.000190349	0.000212871	0	5	0	
0.276833	-0.0100972	0.0105355	0.0001962	0.000253396	0	5	0	
0.277	0.0102052	0.0024454	0.00018968	0.000432503	0	5	0	
0.277167	-0.00411115	-0.0282947	0.000170355	0.000587924	0	5	0	
0.277333	0.000668708	0.0150574	0.000142545	0.000597415	0	5	0	
0.2775	-0.00812845	0.0432	0.000218057	0.00059389	0	5	0	
0.277667	0.0232785	-0.0866586	0.000322525	0.00078102	0	5	0	
0.277833	-0.0136685	0.0487141	0.000399347	0.00115524	0	5	0	
0.278	0.00909324	0.00266822	0.000330706	0.00127432	0	5	0	
0.278167	-0.00782045	-0.0274969	0.000234924	0.00102315	0	5	0	
0.278333	0.00285256	0.0493293	0.000156215	0.000781184	0	5	0	
0.2785	0.00580745	-0.0549621	0.00013394	0.000728252	0	5	0	
0.278667	-0.000632634	-0.0128756	0.000127824	0.00116078	0	5	0	
0.278833	-0.00539787	0.0754094	0.000208418	0.00166597	0	5	0	
0.279	0.0115856	-0.0620775	0.000237413	0.00181645	0	5	0	
0.279167	-0.00850815	0.0118532	0.000249082	0.0014685	0	5	0	
0.279333	0.00852859	0.00661729	0.000181108	0.000908691	0	5	0	
0.2795	-0.00924662	-0.0151025	0.000169688	0.0007238	0	5	0	
0.279667	0.00650366	0.0183987	0.000169239	0.000727689	0	5	0	
0.279833	-0.00844175	-0.00172963	0.000176474	0.000599461	0	5	0	
0.28	0.0102104	-0.00955794	0.000172716	0.000395292	0	5	0	
0.280167	-0.00867831	-0.0133284	0.000167307	0.000247369	0	5	0	
0.280333	0.00491529	0.0271483	0.000149404	0.000275543	0	5	0	
0.2805	-0.0038572	-0.0251927	0.000117868	0.000389408	0	5	0	
0.280667	0.00361717	0.0170672	9.89728E-05	0.000451921	0	5	0	
0.280833	-0.00691142	0.00414569	0.000100147	0.000491109	0	5	0	
0.281	0.00821735	-0.0166435	0.000124947	0.000422332	0	5	0	
0.281167	-0.00713592	0.00967344	0.00014014	0.000330969	0	5	0	
0.281333	0.00893986	0.0106408	0.000152269	0.000299315	0	5	0	
0.2815	-0.0115082	-0.0366407	0.000161818	0.000368485	0	5	0	
0.281667	0.0110014	0.0336723	0.000183977	0.000529169	0	5	0	
0.281833	-0.0110923	-0.0107268	0.000199781	0.000571502	0	5	0	
0.282	0.0119477	0.00686747	0.000211404	0.000588146	0	5	0	
0.282167	-0.0116466	-0.0135758	0.000211357	0.000599602	0	5	0	
0.282333	0.0109805	0.0172875	0.000211645	0.000600038	0	5	0	
0.2825	-0.00938135	-0.0183796	0.00020394	0.000528537	0	5	0	
0.282667	0.00953251	0.00375117	0.00020155	0.000349027	0	5	0	
0.282833	-0.0114225	0.0117089	0.000215741	0.000217821	0	5	0	
0.283	0.0107793	-0.0186866	0.000235736	0.000221649	0	5	0	
0.283167	-0.01081	0.00253463	0.000239301	0.000303202	0	5	0	
0.283333	0.0119004	0.0161157	0.000229337	0.000439824	0	5	0	
0.2835	-0.0123249	-0.0275194	0.000221923	0.000477136	0	5	0	
0.283667	0.0100178	0.0276318	0.000221056	0.00049554	0	5	0	
0.283833	-0.0090145	-0.0118139	0.000215452	0.000453465	0	5	0	
0.284	0.0121728	0.0169476	0.000226643	0.000399195	0	5	0	
0.284167	-0.0142882	-0.0299168	0.000242492	0.000440871	0	5	0	
0.284333	0.0104003	0.0369528	0.000249136	0.00053199	0	5	0	
0.2845	-0.00560661	-0.0212715	0.00021283	0.00061029	0	5	0	
0.284667	0.00650183	-0.0172076	0.000178022	0.000562587	0	5	0	
0.284833	-0.010053	0.0386821	0.000185156	0.000514326	0	5	0	
0.285	0.0103712	-0.00685973	0.000194406	0.000562946	0	5	0	
0.285167	0.000234815	-0.0372734	0.000169586	0.000723815	0	5	0	
0.285333	-0.00687759	0.0531217	0.000112325	0.000805272	0	5	0	
0.2855	0.00118215	-0.0179981	0.000158626	0.000866783	0	5	0	
0.285667	0.0106893	-0.0281225	0.000279224	0.000774748	0	5	0	
0.285833	-0.00975075	0.0258989	0.000357632	0.000690368	0	5	0	
0.286	0.00917938	0.015503	0.000310549	0.000608884	0	5	0	
0.286167	-0.0119372	-0.04909	0.000235012	0.000586341	0	5	0	
0.286333	0.0156285	0.0633116	0.000224575	0.000803457	0	5	0	
0.2865	-0.00479712	-0.0772995	0.000236702	0.00105921	0	5	0	
0.286667	-0.00637012	0.0606304	0.000240303	0.0012619	0	5	0	
0.286833	0.00225286	0.0122806	0.000180609	0.00139669	0	5	0	
0.287	0.0120472	-0.0609566	0.000175538	0.00123966	0	5	0	
0.287167	-0.0132968	0.0245378	0.00017693	0.00122142	0	5	0	
0.287333	0.00345285	0.0349277	0.000214968	0.00132949	0	5	0	
0.2875	-0.00401391	-0.0349046	0.000165739	0.00140166	0	5	0	
0.287667	0.0201102	0.00696754	0.000173526	0.00109708	0	5	0	
0.287833	-0.0283124	-0.0160506	0.000269125	0.000605439	0	5	0	
0.288	0.0230083	0.00132106	0.000411315	0.0003621	0	5	0	
0.288167	-0.0152004	0.00308792	0.000453845	0.000425504	0	5	0	
0.288333	0.0182488	-0.0457404	0.000369005	0.000603354	0	5	0	
0.2885	-0.027626	-0.0253253	0.000390897	0.000667232	0	5	0	
0.288667	0.0248243	0.0876735	0.000444915	0.000969446	0	5	0	
0.288833	-0.0194356	-0.0939667	0.00053997	0.00126348	0	5	0	
0.289	0.00906144	0.0627047	0.000510214	0.00165253	0	5	0	
0.289167	-0.00706676	-0.00354723	0.000400449	0.00169556	0	5	0	
0.289333	0.0249242	-0.0321596	0.000321009	0.00158092	0	5	0	
0.2895	-0.0352865	-0.0369067	0.000394997	0.00118541	0	5	0	
0.289667	0.0288888	0.0477713	0.000535866	0.000958726	0	5	0	
0.289833	-0.0143419	-0.0447875	0.000606968	0.000809386	0	5	0	
0.29	0.00979701	-0.0339147	0.000474341	0.000925031	0	5	0	
0.290167	-0.0111551	0.1034	0.000313424	0.00128794	0	5	0	
0.290333	0.0168957	-0.0687592	0.000235959	0.00167458	0	5	0	
0.2905	-0.0202974	-0.000247539	0.000261518	0.00200364	0	5	0	
0.290667	0.0194495	0.0675605	0.000341129	0.00169735	0	5	0	
0.290833	-0.00770267	-0.0937324	0.000365655	0.00155213	0	5	0	
0.291	0.0119338	0.0148854	0.000327843	0.00124831	0	5	0	
0.291167	-0.0157055	-0.00748024	0.000295834	0.00134213	0	5	0	
0.291333	0.0154503	0.00147096	0.000264044	0.00116702	0	5	0	
0.2915	-0.0123043	-0.0150932	0.000278302	0.000936964	0	5	0	
0.291667	0.00936755	0.0543544	0.000249034	0.000806894	0	5	0	
0.291833	-0.0060616	-0.0385268	0.000232155	0.000671439	0	5	0	
0.292	0.00991802	-0.0148551	0.000229676	0.000789142	0	5	0	
0.292167	-0.0203061	0.0136347	0.000304351	0.00068712	0	5	0	
0.292333	0.0265062	0.0252321	0.000387006	0.000955657	0	5	0	
0.2925	-0.00643499	-0.0427402	0.000402631	0.00138398	0	5	0	
0.292667	-0.0074315	0.0585437	0.000325649	0.00184048	0	5	0	
0.292833	0.00139973	-0.0548716	0.000226684	0.00174182	0	5	0	
0.293	-0.00107057	0.0150447	0.000170798	0.00132631	0	5	0	
0.293167	0.00723006	-0.0106803	0.000152539	0.000817548	0	5	0	
0.293333	0.00487012	0.0174114	0.000241719	0.000589971	0	5	0	
0.2935	-0.019857	0.0133436	0.000336382	0.000480257	0	5	0	
0.293667	0.0190464	-0.00388173	0.000395577	0.000595	0	5	0	
0.293833	-0.00773583	-0.0304832	0.000375217	0.000773988	0	5	0	
0.294	0.00434324	0.0165599	0.000284015	0.000778697	0	5	0	
0.294167	-0.00641552	0.0240157	0.000213657	0.000734852	0	5	0	
0.294333	0.00690897	-0.0422739	0.000134276	0.000524191	0	5	0	
0.2945	-0.0119208	0.0490013	0.000146047	0.000772308	0	5	0	
0.294667	0.0161151	-0.0203199	0.000206221	0.00109808	0	5	0	
0.294833	-0.0128816	-0.0466565	0.000277631	0.00159476	0	5	0	
0.295	0.0101023	0.0831409	0.000285327	0.00175426	0	5	0	
0.295167	-0.00696163	-0.0427641	0.000233131	0.00162651	0	5	0	
0.295333	0.00615518	0.0100417	0.000177683	0.00111381	0	5	0	
0.2955	-0.0103602	0.0105137	0.00016624	0.000644597	0	5	0	
0.295667	0.00579718	-0.0373152	0.000152433	0.000408419	0	5	0	
0.295833	0.00301728	0.0373378	0.000141553	0.00045172	0	5	0	
0.296	-0.00519486	-0.0051828	0.000135659	0.000791108	0	5	0	
0.296167	-0.00652891	-0.00987598	0.000121704	0.000859435	0	5	0	
0.296333	0.0116816	-0.0139816	0.000152842	0.000827906	0	5	0	
0.2965	-0.0177681	0.0477551	0.000193484	0.000751515	0	5	0	
0.296667	0.0204962	-0.0487747	0.000294146	0.000845194	0	5	0	
0.296833	-0.0175659	0.0132508	0.000342722	0.000896499	0	5	0	
0.297	0.00759963	0.0301097	0.000322579	0.000995851	0	5	0	
0.297167	-0.0166833	-0.0400416	0.000288381	0.000842404	0	5	0	
0.297333	0.0352438	-0.0087174	0.00035279	0.00100936	0	5	0	
0.2975	-0.0394899	0.0261434	0.000492678	0.000666311	0	5	0	
0.297667	0.01074	0.0446479	0.00061055	0.000940215	0	5	0	
0.297833	0.00868686	-0.089149	0.000545861	0.000949817	0	5	0	
0.298	0.00326921	0.012395	0.000422662	0.00147158	0	5	0	
0.298167	-0.0176678	0.0757078	0.000363257	0.00169954	0	5	0	
0.298333	0.0132181	-0.0386731	0.000347045	0.00163504	0	5	0	
0.2985	-0.0132888	-0.0246126	0.000359137	0.0015324	0	5	0	
0.298667	0.0255845	0.0115133	0.000396172	0.00102707	0	5	0	
0.298833	-0.0217704	-0.037016	0.000424654	0.00101855	0	5	0	
0.299	-0.00316093	0.130894	0.000451491	0.00120458	0	5	0	
0.299167	0.00782584	-0.10606	0.000289726	0.00171648	0	5	0	
0.299333	0.0120201	-0.0335551	0.000339179	0.00232759	0	5	0	
0.2995	-0.0176949	0.095774	0.000347095	0.002212	0	5	0	
0.299667	0.00619601	-0.0320999	0.000402664	0.00203987	0	5	0	
0.299833	0.00077164	-0.0401982	0.000273689	0.00170386	0	5	0	
0.3	0.00583315	0.0537485	0.000151716	0.00148181	0	5	0	
0.300167	-0.00177158	-0.0464615	0.000105035	0.00127966	0	5	0	
0.300333	-0.00523524	0.0300329	6.77524E-05	0.000886437	0	5	0	
0.3005	-0.00302895	0.00341787	0.000134129	0.000748863	0	5	0	
0.300667	0.0167792	-0.0171414	0.000173806	0.000481737	0	5	0	
0.300833	-0.00737273	-0.0353544	0.000253472	0.000701512	0	5	0	
0.301	0.00316552	0.0765705	0.00027022	0.000947035	0	5	0	
0.301167	-0.0107866	-0.0455031	0.000259273	0.0012469	0	5	0	
0.301333	0.0140356	-0.000360467	0.000232782	0.00113467	0	5	0	
0.3015	-0.00653454	0.00249744	0.000206926	0.000769624	0	5	0	
0.301667	0.00114626	-0.0126341	0.000171337	0.000531662	0	5	0	
0.301833	-0.0060789	0.0362324	0.000152777	0.000376732	0	5	0	
0.302	0.0179996	-0.0196672	0.000168216	0.000475206	0	5	0	
0.302167	-0.0211816	-0.0206471	0.000276325	0.000634622	0	5	0	
0.302333	0.0140476	0.0424437	0.000322683	0.000757259	0	5	0	
0.3025	-0.00666891	-0.0616004	0.000304908	0.000846634	0	5	0	
0.302667	0.00297032	0.0524998	0.000209185	0.00100001	0	5	0	
0.302833	-0.00839622	-0.00553299	0.000175049	0.00117179	0	5	0	
0.303	0.0134039	-0.00688542	0.000183223	0.00107903	0	5	0	
0.303167	-0.0134258	-0.0180961	0.000228123	0.000765564	0	5	0	
0.303333	0.00944538	0.0295177	0.000235282	0.000518159	0	5	0	
0.3035	-0.0105375	-0.0401359	0.000220404	0.000566478	0	5	0	
0.303667	0.0100288	0.0428368	0.000216156	0.000729246	0	5	0	
0.303833	-0.00744863	-0.0240877	0.000189738	0.000730167	0	5	0	
0.304	0.00618408	0.011255	0.000170985	0.000607085	0	5	0	
0.304167	-0.00870559	-0.0391375	0.000180184	0.000544281	0	5	0	
0.304333	0.00939745	0.0138654	0.000242963	0.000754504	0	5	0	
0.3045	-0.00974413	0.00426418	0.000263624	0.00126393	0	5	0	
0.304667	0.00553047	0.00427229	0.000219856	0.00171514	0	5	0	
0.304833	-0.00775417	0.0270252	0.000149224	0.00166016	0	5	0	
0.305	0.0124741	-0.0631119	0.000147522	0.0014009	0	5	0	
0.305167	-0.0106275	0.0674931	0.000192411	0.00114474	0	5	0	
0.305333	0.00771328	-0.0856052	0.000221707	0.00126033	0	5	0	
0.3055	-0.00931707	0.0864453	0.000201376	0.00145187	0	5	0	
0.305667	0.00838319	-0.0502924	0.000163959	0.00149626	0	5	0	
0.305833	-0.0104671	0.0306627	0.000160935	0.00129564	0	5	0	
0.306	0.0119431	-0.0028412	0.000187747	0.00105917	0	5	0	
0.306167	-0.0100236	-0.0311088	0.000225529	0.00103771	0	5	0	
0.306333	0.010377	0.053741	0.000244455	0.00125809	0	5	0	
0.3065	-0.00733695	-0.0355262	0.00024054	0.00137421	0	5	0	
0.306667	0.00695117	0.00900842	0.000186472	0.00111802	0	5	0	
0.306833	-0.00865941	0.00714192	0.000154325	0.000654371	0	5	0	
0.307	0.0144139	0.000689918	0.000157672	0.000312084	0	5	0	
0.307167	-0.0170577	-0.0114644	0.000218409	0.000233371	0	5	0	
0.307333	0.0122012	0.0162672	0.000264961	0.000250577	0	5	0	
0.3075	0.00209316	-0.0267282	0.000236486	0.000329068	0	5	0	
0.307667	0.0175912	-0.000248687	0.000213616	0.000335074	0	5	0	
0.307833	-0.0343142	-0.0555814	0.000264642	0.00064886	0	5	0	
0.308	0.0168683	0.0821417	0.000311116	0.00111431	0	5	0	
0.308167	-0.0170483	-0.0716483	0.000369976	0.0015988	0	5	0	
0.308333	0.0205894	0.0543306	0.000370759	0.00163248	0	5	0	
0.3085	-0.017416	-0.0409209	0.000397653	0.0013547	0	5	0	
0.308667	0.01207	0.0242808	0.00034299	0.00101562	0	5	0	
0.308833	-0.00351888	-0.0859158	0.000305115	0.000978391	0	5	0	
0.309	-0.00126586	0.0546971	0.000268729	0.00116825	0	5	0	
0.309167	-0.0185073	-0.013995	0.000302107	0.00116589	0	5	0	
0.309333	0.0207053	0.0178413	0.000325335	0.0010223	0	5	0	
0.3095	-0.01058	-0.00857369	0.000355123	0.0006235	0	5	0	
0.309667	0.0135356	-0.00264076	0.000331044	0.000408294	0	5	0	
0.309833	-0.0164771	-0.0114369	0.000290691	0.000308782	0	5	0	
0.31	0.0119649	0.0348175	0.000241534	0.00036081	0	5	0	
0.310167	-0.00609861	-0.0501322	0.000227077	0.000595365	0	5	0	
0.310333	0.00899441	0.0435677	0.000186441	0.000873958	0	5	0	
0.3105	-0.00712857	-0.0116621	0.000184031	0.0008678	0	5	0	
0.310667	0.0113925	0.003037	0.000171994	0.000658232	0	5	0	
0.310833	-0.0116627	-0.0113989	0.000195565	0.000338277	0	5	0	
0.311	0.00826124	0.0213627	0.000182681	0.000316326	0	5	0	
0.311167	-0.00620654	-0.0235901	0.000199997	0.000404223	0	5	0	
0.311333	0.00841931	0.00721464	0.000173091	0.000470279	0	5	0	
0.3115	-0.0087929	0.000986072	0.000183631	0.000445931	0	5	0	
0.311667	0.00963557	-0.00397083	0.000175217	0.000371641	0	5	0	
0.311833	-0.0124812	-0.00801326	0.000193289	0.0002412	0	5	0	
0.312	0.0150113	0.0481484	0.000227107	0.000292422	0	5	0	
0.312167	-0.0143054	-0.043083	0.000252253	0.000582547	0	5	0	
0.312333	0.0125514	0.0269993	0.000270442	0.000800879	0	5	0	
0.3125	-0.0114374	-0.0233963	0.000249377	0.000738622	0	5	0	
0.312667	0.0118336	0.00643926	0.000229821	0.000507248	0	5	0	
0.312833	-0.00876487	-0.0088248	0.000205649	0.000502518	0	5	0	
0.313	0.00350398	0.0117093	0.00021499	0.000999179	0	5	0	
0.313167	0.00405589	-0.0366117	0.000194362	0.00134713	0	5	0	
0.313333	0.000656886	0.02878	0.000168522	0.00127849	0	5	0	
0.3135	-0.0117155	-0.0159567	0.000184577	0.000866069	0	5	0	
0.313667	0.0177488	-0.00500834	0.000251644	0.000511718	0	5	0	
0.313833	-0.0139912	0.042756	0.000302728	0.000488432	0	5	0	
0.314	0.0160864	-0.0693591	0.00029443	0.000635951	0	5	0	
0.314167	-0.0201951	-0.0257165	0.000291345	0.000957695	0	5	0	
0.314333	0.0061985	0.0749473	0.000334297	0.00143433	0	5	0	
0.3145	0.00616743	-0.0782386	0.000314685	0.0014919	0	5	0	
0.314667	-0.00292138	0.0431069	0.000241556	0.00149066	0	5	0	
0.314833	-0.00310925	0.0351755	0.00017942	0.00152244	0	5	0	
0.315	0.0128469	-0.0855414	0.00019166	0.00157343	0	5	0	
0.315167	-0.00847679	0.0733069	0.000224991	0.00161817	0	5	0	
0.315333	-0.00802161	-0.0107699	0.000203147	0.00151005	0	5	0	
0.3155	0.00177437	-0.0362179	0.000173147	0.00162771	0	5	0	
0.315667	0.00835291	0.0757418	0.00015574	0.00151402	0	5	0	
0.315833	-0.00620046	-0.0313733	0.000162165	0.00134432	0	5	0	
0.316	0.00553719	0.0168677	0.000152664	0.00094056	0	5	0	
0.316167	-0.00221122	-0.0326757	0.000126377	0.000845775	0	5	0	
0.316333	0.00637296	0.0299051	0.000110398	0.000753806	0	5	0	
0.3165	-0.0103198	-0.00452673	0.000143135	0.000744607	0	5	0	
0.316667	0.0114259	0.0130566	0.000204918	0.000720564	0	5	0	
0.316833	-0.00762194	-0.00389032	0.000230071	0.00054521	0	5	0	
0.317	0.00640034	-0.00118431	0.000191587	0.000458045	0	5	0	
0.317167	-0.0134831	-0.00610021	0.000173113	0.000342654	0	5	0	
0.317333	0.0203895	0.0246116	0.000219449	0.000474373	0	5	0	
0.3175	-0.0178095	-0.0325313	0.000298764	0.000663433	0	5	0	
0.317667	0.00940864	0.0379108	0.000310847	0.000759949	0	5	0	
0.317833	-0.00451037	-0.0189881	0.000252201	0.000729693	0	5	0	
0.318	0.00648759	-0.0275747	0.000203593	0.000749257	0	5	0	
0.318167	-0.0095061	0.0392374	0.000181144	0.000717345	0	5	0	
0.318333	0.0119752	0.0183615	0.000196281	0.000903404	0	5	0	
0.3185	-0.0139031	-0.0518162	0.000211753	0.00114228	0	5	0	
0.318667	0.0093391	0.0735797	0.000227261	0.00149273	0	5	0	
0.318833	-0.00323497	-0.0755607	0.000199257	0.00155313	0	5	0	
0.319	0.00232398	0.0380058	0.000144085	0.00136868	0	5	0	
0.319167	-0.00783376	0.0104836	0.000109558	0.00110819	0	5	0	
0.319333	0.00980725	-0.0216791	0.000130024	0.000745503	0	5	0	
0.3195	-0.0095464	0.0152954	0.000160233	0.000630249	0	5	0	
0.319667	0.00908201	0.0107318	0.000178116	0.000697545	0	5	0	
0.319833	-0.0111176	-0.0275079	0.000183883	0.000968752	0	5	0	
0.32	0.0103506	0.042034	0.000187026	0.00109087	0	5	0	
0.320167	-0.00532821	-0.0465694	0.000173242	0.00106871	0	5	0	
0.320333	0.00185105	0.0342826	0.000131	0.000959944	0	5	0	
0.3205	-0.00567216	-0.0232231	0.000119213	0.000764757	0	5	0	
0.320667	0.011762	0.0234925	0.000137707	0.000608162	0	5	0	
0.320833	-0.0153659	0.0116251	0.000184831	0.000485158	0	5	0	
0.321	0.00994224	0.0194628	0.000225771	0.000653162	0	5	0	
0.321167	-0.00489472	-0.0573313	0.000207346	0.00086268	0	5	0	
0.321333	0.00584657	0.0761426	0.000163588	0.00121013	0	5	0	
0.3215	-0.00873069	-0.0597759	0.000120718	0.0013807	0	5	0	
0.321667	0.00784941	0.0417899	0.00011763	0.00144746	0	5	0	
0.321833	-0.0151552	-0.0197052	0.000164984	0.00123911	0	5	0	
0.322	0.0179313	0.0470168	0.000240079	0.000909374	0	5	0	
0.322167	-0.0145891	-0.0438554	0.000289543	0.000938802	0	5	0	
0.322333	0.00755368	0.0366494	0.000298181	0.00131886	0	5	0	
0.3225	-0.00689518	-0.0142138	0.000231688	0.0016973	0	5	0	
0.322667	0.0136403	-0.00746653	0.000221689	0.00147545	0	5	0	
0.322833	-0.0234574	0.0271339	0.000254617	0.000990431	0	5	0	
0.323	0.0214855	-0.0145455	0.000339773	0.000596682	0	5	0	
0.323167	-0.0136177	-0.027928	0.000367179	0.0005713	0	5	0	
0.323333	0.0079719	0.0614076	0.000338375	0.000711872	0	5	0	
0.3235	0.000793856	-0.0714578	0.000280342	0.000945149	0	5	0	
