0	0.0037107	0.515205	3.7107E-07	5.15205E-05	0	0	0	
0.000166667	0.075991	-2.08268	0.000780652	0.00675393	0	0	0	
0.000333333	-0.157998	3.46681	0.00186484	0.0262945	0	0	0	
0.0005	0.177884	-3.37405	0.00306865	0.0522758	0	0	0	
0.000666667	-0.165647	2.99718	0.00347088	0.0725598	0	0	0	
0.000833333	0.151682	-2.75761	0.00348006	0.0783408	0	0	0	
0.001	-0.123223	2.57863	0.00325867	0.0761921	0	0	0	
0.00116667	0.084256	-3.02934	0.00295447	0.071619	0	0	0	
0.00133333	-0.0800121	4.3211	0.00289379	0.0737302	0	0	0	
0.0015	0.106575	-5.138	0.00334654	0.081054	0	0	0	
0.00166667	-0.130619	5.53927	0.00405848	0.0935605	0	0	0	
0.00183333	0.129205	-5.42781	0.00454801	0.101556	0	0	0	
0.002	-0.113739	5.33997	0.00456593	0.105531	0	0	0	
0.00216667	0.114802	-5.44805	0.00446403	0.105637	0	0	0	
0.00233333	-0.130568	5.74221	0.00455255	0.106641	0	0	0	
0.0025	0.146792	-5.854	0.00475519	0.108836	0	0	0	
0.00266667	-0.148649	5.79484	0.00490015	0.111726	0	0	0	
0.00283333	0.145064	-5.66124	0.00487408	0.112649	0	0	0	
0.003	-0.139955	5.68227	0.00478988	0.112189	0	0	0	
0.00316667	0.142138	-5.70684	0.00473195	0.111383	0	0	0	
0.00333333	-0.143939	5.75619	0.00475154	0.11127	0	0	0	
0.0035	0.144527	-5.69059	0.0047607	0.111616	0	0	0	
0.00366667	-0.138272	5.65391	0.00474254	0.111424	0	0	0	
0.00383333	0.138334	-5.64282	0.0046983	0.111047	0	0	0	
0.004	-0.141114	5.67248	0.00472091	0.110612	0	0	0	
0.00416667	0.147108	-5.6555	0.00476907	0.110632	0	0	0	
0.00433333	-0.143885	5.64867	0.00480557	0.110586	0	0	0	
0.0045	0.14143	-5.59112	0.00477138	0.110174	0	0	0	
0.00466667	-0.140148	5.60723	0.00474415	0.1098	0	0	0	
0.00483333	0.140772	-5.61625	0.00472932	0.109431	0	0	0	
0.005	-0.13855	5.63979	0.00474715	0.109735	0	0	0	
0.00516667	0.139723	-5.63147	0.0047442	0.109724	0	0	0	
0.00533333	-0.136371	5.62734	0.00474923	0.110001	0	0	0	
0.0055	0.137288	-5.61744	0.00472983	0.109577	0	0	0	
0.00566667	-0.134797	5.63678	0.00473119	0.109912	0	0	0	
0.00583333	0.13288	-5.61658	0.00472026	0.109565	0	0	0	
0.006	-0.132799	5.6276	0.00473761	0.11009	0	0	0	
0.00616667	0.135776	-5.60612	0.00474527	0.109479	0	0	0	
0.00633333	-0.136749	5.61758	0.00476557	0.109922	0	0	0	
0.0065	0.140053	-5.62111	0.00476166	0.109367	0	0	0	
0.00666667	-0.136167	5.65112	0.00475771	0.110023	0	0	0	
0.00683333	0.133066	-5.64687	0.00472387	0.109872	0	0	0	
0.007	-0.133125	5.63688	0.00471224	0.11054	0	0	0	
0.00716667	0.132463	-5.62987	0.00470502	0.109959	0	0	0	
0.00733333	-0.131848	5.66513	0.00471849	0.110312	0	0	0	
0.0075	0.131868	-5.64716	0.00472502	0.110134	0	0	0	
0.00766667	-0.13081	5.67489	0.00473807	0.110862	0	0	0	
0.00783333	0.133099	-5.64652	0.00474373	0.110756	0	0	0	
0.008	-0.133995	5.65234	0.00475545	0.110862	0	0	0	
0.00816667	0.131842	-5.65668	0.00474093	0.110527	0	0	0	
0.00833333	-0.129687	5.66737	0.00473047	0.110706	0	0	0	
0.0085	0.128403	-5.63388	0.00471794	0.110744	0	0	0	
0.00866667	-0.129811	5.65577	0.00471236	0.110826	0	0	0	
0.00883333	0.12941	-5.62864	0.00469098	0.110554	0	0	0	
0.009	-0.128753	5.65305	0.00468483	0.110444	0	0	0	
0.00916667	0.133167	-5.63577	0.00471501	0.110494	0	0	0	
0.00933333	-0.131673	5.64703	0.00476825	0.110495	0	0	0	
0.0095	0.13107	-5.62043	0.00475324	0.110453	0	0	0	
0.00966667	-0.128974	5.61628	0.00470538	0.110281	0	0	0	
0.00983333	0.129939	-5.58878	0.00464998	0.109818	0	0	0	
0.01	-0.128777	5.61854	0.00465777	0.109726	0	0	0	
0.0101667	0.12741	-5.60899	0.0046701	0.109602	0	0	0	
0.0103333	-0.12781	5.6134	0.00470657	0.109935	0	0	0	
0.0105	0.1341	-5.60427	0.00474239	0.109662	0	0	0	
0.0106667	-0.133096	5.61162	0.00477941	0.10979	0	0	0	
0.0108333	0.131591	-5.6142	0.00475357	0.109379	0	0	0	
0.011	-0.127154	5.62383	0.00471834	0.1099	0	0	0	
0.0111667	0.129265	-5.61659	0.0046892	0.109615	0	0	0	
0.0113333	-0.128069	5.60923	0.00471533	0.110153	0	0	0	
0.0115	0.127927	-5.61256	0.00472242	0.109531	0	0	0	
0.0116667	-0.127732	5.60962	0.00472867	0.109974	0	0	0	
0.0118333	0.128617	-5.61291	0.0047256	0.109456	0	0	0	
0.012	-0.126699	5.61224	0.00472742	0.110056	0	0	0	
0.0121667	0.126294	-5.60929	0.0047034	0.109487	0	0	0	
0.0123333	-0.1228	5.60706	0.00469474	0.110076	0	0	0	
0.0125	0.128409	-5.61249	0.00471235	0.109476	0	0	0	
0.0126667	-0.129398	5.6468	0.00476812	0.110168	0	0	0	
0.0128333	0.125461	-5.65446	0.00476672	0.110092	0	0	0	
0.013	-0.122328	5.66992	0.00473529	0.110952	0	0	0	
0.0131667	0.126504	-5.65209	0.0047005	0.110831	0	0	0	
0.0133333	-0.128448	5.66551	0.00471507	0.111141	0	0	0	
0.0135	0.124042	-5.62362	0.00471566	0.110759	0	0	0	
0.0136667	-0.119076	5.64716	0.00469408	0.110905	0	0	0	
0.0138333	0.123035	-5.60755	0.0046715	0.110632	0	0	0	
0.014	-0.124946	5.63016	0.00469108	0.110631	0	0	0	
0.0141667	0.125199	-5.62882	0.00469065	0.110482	0	0	0	
0.0143333	-0.122552	5.63753	0.00469407	0.110464	0	0	0	
0.0145	0.124328	-5.61381	0.00470597	0.110555	0	0	0	
0.0146667	-0.126079	5.61627	0.00474938	0.110435	0	0	0	
0.0148333	0.128641	-5.57298	0.00476331	0.11004	0	0	0	
0.015	-0.125397	5.5903	0.00475061	0.109809	0	0	0	
0.0151667	0.118394	-5.59185	0.00467894	0.109504	0	0	0	
0.0153333	-0.101026	5.5841	0.0046036	0.109751	0	0	0	
0.0155	0.0977883	-5.593	0.00458723	0.10953	0	0	0	
0.0156667	-0.125047	5.58841	0.00467503	0.109757	0	0	0	
0.0158333	0.161515	-5.60502	0.00485147	0.109379	0	0	0	
0.016	-0.144136	5.6073	0.00498681	0.109884	0	0	0	
0.0161667	0.131809	-5.5931	0.00492167	0.109531	0	0	0	
0.0163333	-0.117291	5.59596	0.00475818	0.110092	0	0	0	
0.0165	0.113565	-5.60499	0.00454391	0.109477	0	0	0	
0.0166667	-0.122635	5.60247	0.00445804	0.110075	0	0	0	
0.0168333	0.129103	-5.60257	0.00456223	0.109542	0	0	0	
0.017	-0.121132	5.58315	0.00483892	0.110092	0	0	0	
0.0171667	0.133671	-5.59219	0.00507033	0.109421	0	0	0	
0.0173333	-0.121363	5.63391	0.00505301	0.110064	0	0	0	
0.0175	0.11404	-5.63807	0.00483574	0.109998	0	0	0	
0.0176667	-0.118182	5.65735	0.00473575	0.110907	0	0	0	
0.0178333	0.122721	-5.63901	0.00474327	0.110796	0	0	0	
0.018	-0.124273	5.64339	0.0047885	0.111113	0	0	0	
0.0181667	0.122945	-5.63654	0.0047663	0.1108	0	0	0	
0.0183333	-0.115494	5.63201	0.00471339	0.111013	0	0	0	
0.0185	0.116325	-5.59434	0.00467432	0.110766	0	0	0	
0.0186667	-0.116674	5.61275	0.00468693	0.110694	0	0	0	
0.0188333	0.121326	-5.59347	0.00472529	0.110435	0	0	0	
0.019	-0.122788	5.61837	0.0047832	0.110369	0	0	0	
0.0191667	0.123236	-5.60008	0.00478966	0.110463	0	0	0	
0.0193333	-0.116864	5.60285	0.00476339	0.110422	0	0	0	
0.0195	0.118577	-5.57621	0.00472267	0.110254	0	0	0	
0.0196667	-0.120088	5.60071	0.00473859	0.110136	0	0	0	
0.0198333	0.121833	-5.58946	0.00475462	0.110039	0	0	0	
0.02	-0.114293	5.60796	0.00474765	0.110199	0	0	0	
0.0201667	0.113756	-5.59987	0.00469346	0.110265	0	0	0	
0.0203333	-0.114261	5.61059	0.00469117	0.110398	0	0	0	
0.0205	0.117927	-5.60299	0.00472357	0.11034	0	0	0	
0.0206667	-0.114574	5.59529	0.004767	0.11039	0	0	0	
0.0208333	0.115761	-5.56998	0.00476673	0.109953	0	0	0	
0.021	-0.113915	5.56242	0.00477548	0.109936	0	0	0	
0.0211667	0.117164	-5.55749	0.00477303	0.109408	0	0	0	
0.0213333	-0.113947	5.56014	0.00478217	0.109668	0	0	0	
0.0215	0.114751	-5.57147	0.00475351	0.109307	0	0	0	
0.0216667	-0.112896	5.56739	0.00473043	0.109679	0	0	0	
0.0218333	0.11332	-5.58563	0.00470235	0.109305	0	0	0	
0.022	-0.111224	5.57875	0.00470977	0.10985	0	0	0	
0.0221667	0.113647	-5.59008	0.00471359	0.109481	0	0	0	
0.0223333	-0.111584	5.56597	0.00472514	0.11008	0	0	0	
0.0225	0.114237	-5.58358	0.00472009	0.109466	0	0	0	
0.0226667	-0.115343	5.62378	0.0047357	0.110134	0	0	0	
0.0228333	0.116625	-5.61513	0.00473675	0.110077	0	0	0	
0.023	-0.112929	5.58146	0.0047362	0.110762	0	0	0	
0.0231667	0.112354	-5.5851	0.00470988	0.110097	0	0	0	
0.0233333	-0.111333	5.59181	0.00470806	0.110226	0	0	0	
0.0235	0.112065	-5.60111	0.00471898	0.109956	0	0	0	
0.0236667	-0.112076	5.62113	0.00474556	0.110653	0	0	0	
0.0238333	0.113882	-5.58043	0.00475596	0.110651	0	0	0	
0.024	-0.111973	5.60276	0.0047724	0.110771	0	0	0	
0.0241667	0.113459	-5.61856	0.00477287	0.110523	0	0	0	
0.0243333	-0.113129	5.61377	0.00477428	0.110694	0	0	0	
0.0245	0.113014	-5.57137	0.00475475	0.110752	0	0	0	
0.0246667	-0.111704	5.59529	0.00474836	0.110744	0	0	0	
0.0248333	0.110351	-5.57774	0.00473448	0.110524	0	0	0	
0.025	-0.108857	5.60237	0.00472851	0.110493	0	0	0	
0.0251667	0.109645	-5.57202	0.00472142	0.110581	0	0	0	
0.0253333	-0.110117	5.59158	0.00473793	0.11049	0	0	0	
0.0255	0.112495	-5.56897	0.0047564	0.110479	0	0	0	
0.0256667	-0.109735	5.57414	0.0047655	0.110372	0	0	0	
0.0258333	0.108318	-5.55409	0.00473931	0.110177	0	0	0	
0.026	-0.110195	5.58628	0.00473042	0.110121	0	0	0	
0.0261667	0.112959	-5.57059	0.00473814	0.11022	0	0	0	
0.0263333	-0.108769	5.58846	0.00474897	0.110435	0	0	0	
0.0265	0.107794	-5.56777	0.00473014	0.11042	0	0	0	
0.0266667	-0.108688	5.56274	0.00472983	0.110314	0	0	0	
0.0268333	0.111038	-5.56564	0.00474559	0.109945	0	0	0	
0.027	-0.109632	5.55735	0.00476813	0.110004	0	0	0	
0.0271667	0.108356	-5.53968	0.004767	0.109753	0	0	0	
0.0273333	-0.107687	5.53339	0.00477091	0.109935	0	0	0	
0.0275	0.109462	-5.53511	0.0047637	0.109401	0	0	0	
0.0276667	-0.105548	5.54231	0.00474924	0.109588	0	0	0	
0.0278333	0.106637	-5.55775	0.00471423	0.109241	0	0	0	
0.028	-0.105311	5.53805	0.00470513	0.109756	0	0	0	
0.0281667	0.104707	-5.55815	0.00468215	0.109371	0	0	0	
0.0283333	-0.101322	5.54491	0.00466572	0.10992	0	0	0	
0.0285	0.102516	-5.56171	0.00465825	0.1094	0	0	0	
0.0286667	-0.106445	5.60148	0.0047112	0.11012	0	0	0	
0.0288333	0.110275	-5.59049	0.00475704	0.110096	0	0	0	
0.029	-0.105441	5.56318	0.00475833	0.11079	0	0	0	
0.0291667	0.105885	-5.56149	0.00470791	0.110094	0	0	0	
0.0293333	-0.107784	5.51847	0.00470487	0.110079	0	0	0	
0.0295	0.107987	-5.55174	0.0047153	0.109312	0	0	0	
0.0296667	-0.10204	5.56717	0.00470978	0.109906	0	0	0	
0.0298333	0.102831	-5.53815	0.00467819	0.109919	0	0	0	
0.03	-0.105659	5.57836	0.00469703	0.110492	0	0	0	
0.0301667	0.107701	-5.59682	0.00472703	0.110373	0	0	0	
0.0303333	-0.102274	5.59735	0.00473569	0.110686	0	0	0	
0.0305	0.101531	-5.59055	0.00471293	0.110753	0	0	0	
0.0306667	-0.104885	5.57147	0.0047331	0.111005	0	0	0	
0.0308333	0.107016	-5.54387	0.00476777	0.110748	0	0	0	
0.031	-0.102813	5.571	0.00477764	0.110723	0	0	0	
0.0311667	0.102193	-5.55525	0.00473953	0.110557	0	0	0	
0.0313333	-0.100233	5.56986	0.00471605	0.11054	0	0	0	
0.0315	0.103757	-5.53898	0.00471735	0.110577	0	0	0	
0.0316667	-0.102814	5.55451	0.00474897	0.110445	0	0	0	
0.0318333	0.102603	-5.54159	0.00475296	0.110413	0	0	0	
0.032	-0.101614	5.56505	0.00474993	0.11038	0	0	0	
0.0321667	0.103627	-5.54836	0.00473412	0.110494	0	0	0	
0.0323333	-0.100744	5.53152	0.0047341	0.110452	0	0	0	
0.0325	0.100407	-5.50866	0.00472448	0.110067	0	0	0	
0.0326667	-0.0979457	5.50536	0.00472924	0.109809	0	0	0	
0.0328333	0.100664	-5.50933	0.00473133	0.109379	0	0	0	
0.033	-0.0995341	5.53592	0.00475398	0.109649	0	0	0	
0.0331667	0.101702	-5.53472	0.00476397	0.109737	0	0	0	
0.0333333	-0.0988765	5.52143	0.00478034	0.110138	0	0	0	
0.0335	0.100759	-5.53754	0.00476922	0.109736	0	0	0	
0.0336667	-0.0987652	5.52083	0.00475224	0.109872	0	0	0	
0.0338333	0.0991027	-5.52781	0.00471733	0.109398	0	0	0	
0.034	-0.095524	5.52231	0.00470471	0.109945	0	0	0	
0.0341667	0.098774	-5.51965	0.00469542	0.109528	0	0	0	
0.0343333	-0.0958148	5.50637	0.00472045	0.109994	0	0	0	
0.0345	0.101204	-5.54264	0.00473723	0.109417	0	0	0	
0.0346667	-0.100196	5.57758	0.00475724	0.110051	0	0	0	
0.0348333	0.0985894	-5.56363	0.00473117	0.110152	0	0	0	
0.035	-0.0946504	5.54054	0.00471031	0.110869	0	0	0	
0.0351667	0.0990041	-5.53494	0.00469233	0.110172	0	0	0	
0.0353333	-0.0959043	5.49726	0.00470583	0.110158	0	0	0	
0.0355	0.0970229	-5.52414	0.00471211	0.109389	0	0	0	
0.0356667	-0.0970508	5.53627	0.00474218	0.109937	0	0	0	
0.0358333	0.0991153	-5.50186	0.00475916	0.109907	0	0	0	
0.036	-0.0963111	5.50773	0.00476406	0.110337	0	0	0	
0.0361667	0.0957909	-5.53985	0.00474119	0.109744	0	0	0	
0.0363333	-0.0950825	5.54425	0.00474226	0.109948	0	0	0	
0.0365	0.0994572	-5.54982	0.00475376	0.110034	0	0	0	
0.0366667	-0.0975277	5.54542	0.00476238	0.110746	0	0	0	
0.0368333	0.0972219	-5.52298	0.00473745	0.110654	0	0	0	
0.037	-0.0947145	5.54361	0.00471858	0.110766	0	0	0	
0.0371667	0.0944388	-5.56505	0.00470283	0.110538	0	0	0	
0.0373333	-0.0908379	5.55111	0.00470895	0.110728	0	0	0	
0.0375	0.0966201	-5.50881	0.00471453	0.110734	0	0	0	
0.0376667	-0.094919	5.53514	0.00474648	0.110736	0	0	0	
0.0378333	0.0957384	-5.5116	0.00476236	0.110503	0	0	0	
0.038	-0.0938908	5.54179	0.00477194	0.110491	0	0	0	
0.0381667	0.094448	-5.50942	0.00475047	0.11055	0	0	0	
0.0383333	-0.0908497	5.52118	0.004742	0.110479	0	0	0	
0.0385	0.0953945	-5.50614	0.00472694	0.110417	0	0	0	
0.0386667	-0.0934083	5.53489	0.00473608	0.110403	0	0	0	
0.0388333	0.094571	-5.51528	0.00474477	0.110506	0	0	0	
0.039	-0.0925332	5.53536	0.0047717	0.110574	0	0	0	
0.0391667	0.0939035	-5.51048	0.00476445	0.110609	0	0	0	
0.0393333	-0.0908268	5.49762	0.00474853	0.11047	0	0	0	
0.0395	0.0949394	-5.48416	0.00472406	0.110093	0	0	0	
0.0396667	-0.0920951	5.47821	0.00474382	0.109881	0	0	0	
0.0398333	0.0920035	-5.46203	0.0047595	0.109442	0	0	0	
0.04	-0.0895888	5.47207	0.00476492	0.109566	0	0	0	
0.0401667	0.0914572	-5.48076	0.00472829	0.109309	0	0	0	
0.0403333	-0.0894315	5.47296	0.00470941	0.109623	0	0	0	
0.0405	0.0927555	-5.50439	0.004709	0.109307	0	0	0	
0.0406667	-0.088779	5.48225	0.0047358	0.109711	0	0	0	
0.0408333	0.0918688	-5.50539	0.00473772	0.109352	0	0	0	
0.041	-0.0898199	5.48498	0.00473912	0.109918	0	0	0	
0.0411667	0.0920239	-5.50299	0.0047275	0.109394	0	0	0	
0.0413333	-0.0912212	5.48387	0.00474708	0.109964	0	0	0	
0.0415	0.0952449	-5.52134	0.00475786	0.109445	0	0	0	
0.0416667	-0.0892971	5.48449	0.00476084	0.110044	0	0	0	
0.0418333	0.0911911	-5.5072	0.00472821	0.10951	0	0	0	
0.042	-0.0892257	5.47963	0.00471466	0.11003	0	0	0	
0.0421667	0.0914851	-5.49841	0.00470079	0.109376	0	0	0	
0.0423333	-0.0880661	5.46712	0.00470552	0.109909	0	0	0	
0.0425	0.0886276	-5.50522	0.00468931	0.109307	0	0	0	
0.0426667	-0.0865333	5.51494	0.00469456	0.11002	0	0	0	
0.0428333	0.0893125	-5.52887	0.00470615	0.109942	0	0	0	
0.043	-0.090347	5.47893	0.0047337	0.110611	0	0	0	
0.0431667	0.092603	-5.49216	0.00473657	0.109908	0	0	0	
0.0433333	-0.0878304	5.50891	0.00472813	0.110103	0	0	0	
0.0435	0.0875767	-5.51192	0.00470181	0.109876	0	0	0	
0.0436667	-0.0884764	5.51967	0.00470997	0.110656	0	0	0	
0.0438333	0.0899402	-5.4802	0.00473035	0.110578	0	0	0	
0.044	-0.0877975	5.50275	0.00474493	0.110666	0	0	0	
0.0441667	0.0877838	-5.53369	0.00473532	0.110414	0	0	0	
0.0443333	-0.085833	5.50673	0.00475095	0.11059	0	0	0	
0.0445	0.0923479	-5.47613	0.0047743	0.110664	0	0	0	
0.0446667	-0.0881891	5.49424	0.00477344	0.110671	0	0	0	
0.0448333	0.0851356	-5.47764	0.00471944	0.110455	0	0	0	
0.045	-0.0830643	5.5154	0.00470048	0.110479	0	0	0	
0.0451667	0.0872504	-5.47856	0.00470322	0.110584	0	0	0	
0.0453333	-0.0835595	5.48578	0.00470747	0.110538	0	0	0	
0.0455	0.0841926	-5.47927	0.00467268	0.110485	0	0	0	
0.0456667	-0.0836187	5.46085	0.00466859	0.110312	0	0	0	
0.0458333	0.0872647	-5.45167	0.00469491	0.110124	0	0	0	
0.046	-0.0848928	5.48651	0.00473061	0.11004	0	0	0	
0.0461667	0.0864739	-5.48608	0.00472278	0.110238	0	0	0	
0.0463333	-0.0840478	5.4782	0.00472284	0.110487	0	0	0	
0.0465	0.0885749	-5.4656	0.0047363	0.110351	0	0	0	
0.0466667	-0.0877068	5.4687	0.00477086	0.110178	0	0	0	
0.0468333	0.0877585	-5.46778	0.00476521	0.109876	0	0	0	
0.047	-0.0843203	5.48513	0.00474616	0.110116	0	0	0	
0.0471667	0.0846593	-5.45959	0.00472101	0.11018	0	0	0	
0.0473333	-0.0819686	5.43042	0.00471586	0.110256	0	0	0	
0.0475	0.0845412	-5.46259	0.00470338	0.109794	0	0	0	
0.0476667	-0.0820974	5.45506	0.00470288	0.109749	0	0	0	
0.0478333	0.0845545	-5.45379	0.00469805	0.109428	0	0	0	
0.048	-0.0828266	5.44502	0.00471379	0.109794	0	0	0	
0.0481667	0.0850729	-5.44352	0.00471922	0.109496	0	0	0	
0.0483333	-0.0819206	5.46328	0.00472909	0.109932	0	0	0	
0.0485	0.082935	-5.48508	0.00471129	0.10981	0	0	0	
0.0486667	-0.0827562	5.4545	0.00470298	0.110154	0	0	0	
0.0488333	0.0863071	-5.47584	0.0047014	0.109726	0	0	0	
0.049	-0.0826672	5.44201	0.0047219	0.109947	0	0	0	
0.0491667	0.0844286	-5.45189	0.00472255	0.109396	0	0	0	
0.0493333	-0.0800116	5.42924	0.00472448	0.109842	0	0	0	
0.0495	0.082547	-5.44298	0.00470678	0.109266	0	0	0	
0.0496667	-0.0817102	5.42761	0.00470937	0.109687	0	0	0	
0.0498333	0.0838418	-5.4743	0.0047106	0.109189	0	0	0	
0.05	-0.0814564	5.43947	0.00473232	0.109749	0	0	0	
0.0501667	0.0839377	-5.46418	0.00473868	0.109328	0	0	0	
0.0503333	-0.0813975	5.43956	0.00474209	0.109907	0	0	0	
0.0505	0.0822027	-5.45945	0.00471679	0.109319	0	0	0	
0.0506667	-0.0790702	5.43542	0.00469862	0.109878	0	0	0	
0.0508333	0.0832109	-5.45987	0.0046897	0.109278	0	0	0	
0.051	-0.0815781	5.42268	0.00471367	0.109814	0	0	0	
0.0511667	0.082347	-5.46042	0.00471495	0.109239	0	0	0	
0.0513333	-0.0795104	5.47078	0.00470782	0.109936	0	0	0	
0.0515	0.0827032	-5.48582	0.00469655	0.109908	0	0	0	
0.0516667	-0.078917	5.49901	0.00471155	0.110757	0	0	0	
0.0518333	0.079225	-5.49718	0.00471402	0.110662	0	0	0	
0.052	-0.0765214	5.45349	0.00472741	0.110892	0	0	0	
0.0521667	0.0807588	-5.4742	0.00473082	0.110278	0	0	0	
0.0523333	-0.0800743	5.45979	0.00474014	0.11041	0	0	0	
0.0525	0.0796277	-5.42866	0.00472674	0.110229	0	0	0	
0.0526667	-0.0759282	5.46021	0.0047252	0.110547	0	0	0	
0.0528333	0.0783331	-5.43245	0.0047252	0.110406	0	0	0	
0.053	-0.0792615	5.45054	0.00473985	0.110366	0	0	0	
0.0531667	0.0815378	-5.47381	0.00473807	0.110366	0	0	0	
0.0533333	-0.0818069	5.45019	0.00472513	0.110462	0	0	0	
0.0535	0.0774197	-5.43411	0.00469393	0.110529	0	0	0	
0.0536667	-0.073615	5.44666	0.00466782	0.11054	0	0	0	
0.0538333	0.0760147	-5.44063	0.00465697	0.110479	0	0	0	
0.054	-0.0742701	5.454	0.00466804	0.110488	0	0	0	
0.0541667	0.077057	-5.4446	0.00469305	0.110564	0	0	0	
0.0543333	-0.0799139	5.43441	0.00473581	0.110475	0	0	0	
0.0545	0.0773731	-5.42555	0.00475047	0.110367	0	0	0	
0.0546667	-0.0726741	5.4093	0.00472804	0.110161	0	0	0	
0.0548333	0.0758647	-5.40541	0.00470461	0.109851	0	0	0	
0.055	-0.0761193	5.40144	0.00473366	0.109738	0	0	0	
0.0551667	0.08188	-5.41239	0.00479491	0.109569	0	0	0	
0.0553333	-0.0814709	5.40342	0.00485888	0.109783	0	0	0	
0.0555	0.0822449	-5.42776	0.00486271	0.109591	0	0	0	
0.0556667	-0.0775136	5.41449	0.00481901	0.109804	0	0	0	
0.0558333	0.0756418	-5.44248	0.00474234	0.10952	0	0	0	
0.056	-0.0756452	5.40877	0.00471167	0.109888	0	0	0	
0.0561667	0.0789857	-5.43272	0.00472566	0.109554	0	0	0	
0.0563333	-0.0758333	5.47022	0.00477129	0.110163	0	0	0	
0.0565	0.0803402	-5.49065	0.0048091	0.1103	0	0	0	
0.0566667	-0.0796281	5.495	0.00482869	0.111142	0	0	0	
0.0568333	0.0774943	-5.49973	0.00478995	0.111167	0	0	0	
0.057	-0.0755256	5.49715	0.0047646	0.111484	0	0	0	
0.0571667	0.0818681	-5.49426	0.00479592	0.111264	0	0	0	
0.0573333	-0.0796332	5.49334	0.00486571	0.1115	0	0	0	
0.0575	0.0778358	-5.42592	0.0048863	0.111307	0	0	0	
0.0576667	-0.077778	5.46257	0.00488059	0.111219	0	0	0	
0.0578333	0.0805224	-5.42793	0.00487286	0.110948	0	0	0	
0.058	-0.0763147	5.48087	0.0048767	0.110886	0	0	0	
0.0581667	0.0804953	-5.427	0.00487598	0.110991	0	0	0	
0.0583333	-0.0814781	5.46236	0.00490389	0.110959	0	0	0	
0.0585	0.0825632	-5.408	0.00490875	0.110843	0	0	0	
0.0586667	-0.0747292	5.46294	0.00487081	0.110757	0	0	0	
0.0588333	0.0741515	-5.41997	0.00481131	0.11077	0	0	0	
0.059	-0.075653	5.47637	0.00482503	0.110886	0	0	0	
0.0591667	0.0811524	-5.43347	0.00487504	0.111032	0	0	0	
0.0593333	-0.0751009	5.472	0.00490756	0.111078	0	0	0	
0.0595	0.0759973	-5.41691	0.00488395	0.110976	0	0	0	
0.0596667	-0.0756441	5.44848	0.00486601	0.110844	0	0	0	
0.0598333	0.0776988	-5.37813	0.0048519	0.110348	0	0	0	
0.06	-0.0732665	5.4202	0.00486292	0.110237	0	0	0	
0.0601667	0.0767592	-5.38428	0.00487872	0.109813	0	0	0	
0.0603333	-0.075639	5.43245	0.00491401	0.110124	0	0	0	
0.0605	0.0791651	-5.41858	0.00491907	0.110152	0	0	0	
0.0606667	-0.0776257	5.50184	0.00490177	0.110759	0	0	0	
0.0608333	0.0782535	-5.45977	0.00486415	0.11096	0	0	0	
0.061	-0.0733353	5.52244	0.00485941	0.111516	0	0	0	
0.0611667	0.0756089	-5.44069	0.00487391	0.11138	0	0	0	
0.0613333	-0.0766153	5.51248	0.00490583	0.11166	0	0	0	
0.0615	0.0797511	-5.38366	0.00491042	0.111232	0	0	0	
0.0616667	-0.076993	5.47511	0.0049026	0.111298	0	0	0	
0.0618333	0.078907	-5.3319	0.00488319	0.110607	0	0	0	
0.062	-0.0768181	5.48724	0.00489705	0.110568	0	0	0	
0.0621667	0.0778856	-5.37934	0.00492754	0.110501	0	0	0	
0.0623333	-0.0788003	5.44608	0.00497084	0.110757	0	0	0	
0.0625	0.0797123	-5.36196	0.00499261	0.110424	0	0	0	
0.0626667	-0.0767401	5.50684	0.0050035	0.110412	0	0	0	
0.0628333	0.0805417	-5.39252	0.00499576	0.110468	0	0	0	
0.063	-0.0788164	5.45915	0.00498978	0.110897	0	0	0	
0.0631667	0.077372	-5.38965	0.00496863	0.110618	0	0	0	
0.0633333	-0.0756084	5.41949	0.00496135	0.110493	0	0	0	
0.0635	0.0764276	-5.44239	0.00496391	0.110066	0	0	0	
0.0636667	-0.0753433	5.42356	0.00498112	0.110413	0	0	0	
0.0638333	0.0764767	-5.39765	0.00498322	0.110294	0	0	0	
0.064	-0.0745977	5.46091	0.00498409	0.110712	0	0	0	
0.0641667	0.0803726	-5.48136	0.00499642	0.110763	0	0	0	
0.0643333	-0.0793356	5.51857	0.00502799	0.111565	0	0	0	
0.0645	0.0771526	-5.47405	0.00501802	0.111777	0	0	0	
0.0646667	-0.0719982	5.50276	0.00499482	0.112046	0	0	0	
0.0648333	0.0773977	-5.48168	0.00499758	0.11174	0	0	0	
0.065	-0.0806129	5.43615	0.00504485	0.11176	0	0	0	
0.0651667	0.0840352	-5.40757	0.00505215	0.111152	0	0	0	
0.0653333	-0.0756216	5.40701	0.00501578	0.110817	0	0	0	
0.0655	0.0782699	-5.38513	0.00496919	0.11023	0	0	0	
0.0656667	-0.0751905	5.40489	0.00497716	0.110253	0	0	0	
0.0658333	0.0759395	-5.41009	0.00498087	0.110143	0	0	0	
0.066	-0.0718841	5.45158	0.0049886	0.110513	0	0	0	
0.0661667	0.0768046	-5.50449	0.00500961	0.110946	0	0	0	
0.0663333	-0.0739183	5.48784	0.00509345	0.111665	0	0	0	
0.0665	0.0816542	-5.5122	0.00515327	0.112006	0	0	0	
0.0666667	-0.0771663	5.49436	0.00515372	0.112281	0	0	0	
0.0668333	0.0743507	-5.50903	0.00508445	0.112152	0	0	0	
0.067	-0.0767978	5.47646	0.00505206	0.112259	0	0	0	
0.0671667	0.0787488	-5.43634	0.00505262	0.112063	0	0	0	
0.0673333	-0.0689991	5.45062	0.00503993	0.111853	0	0	0	
0.0675	0.0714581	-5.41627	0.00497824	0.1116	0	0	0	
0.0676667	-0.0700189	5.45377	0.00494917	0.111384	0	0	0	
0.0678333	0.0736774	-5.43051	0.00497164	0.111527	0	0	0	
0.068	-0.073786	5.45348	0.00502254	0.111445	0	0	0	
0.0681667	0.0739937	-5.44396	0.00502703	0.111677	0	0	0	
0.0683333	-0.0717977	5.46226	0.00501292	0.11161	0	0	0	
0.0685	0.0760249	-5.43815	0.00499922	0.11183	0	0	0	
0.0686667	-0.0751293	5.45732	0.00500763	0.111693	0	0	0	
0.0688333	0.0773806	-5.44708	0.0050206	0.111849	0	0	0	
0.069	-0.0766994	5.44514	0.00504336	0.111688	0	0	0	
0.0691667	0.0795013	-5.45206	0.00504361	0.111854	0	0	0	
0.0693333	-0.0766164	5.458	0.00503875	0.111733	0	0	0	
0.0695	0.0763703	-5.4342	0.00502591	0.111877	0	0	0	
0.0696667	-0.0736332	5.41663	0.00503374	0.111617	0	0	0	
0.0698333	0.0735978	-5.40128	0.00504506	0.111223	0	0	0	
0.07	-0.0731269	5.40246	0.00506535	0.110881	0	0	0	
0.0701667	0.0766203	-5.40074	0.00507955	0.110636	0	0	0	
0.0703333	-0.074388	5.39789	0.00509692	0.110766	0	0	0	
0.0705	0.0754284	-5.39721	0.00509569	0.110599	0	0	0	
0.0706667	-0.0738035	5.45789	0.00508997	0.110899	0	0	0	
0.0708333	0.0753174	-5.46376	0.00507798	0.11114	0	0	0	
0.071	-0.0720804	5.50593	0.005081	0.111858	0	0	0	
0.0711667	0.0752008	-5.45501	0.005079	0.112022	0	0	0	
0.0713333	-0.0722417	5.48744	0.00508171	0.11224	0	0	0	
0.0715	0.0745581	-5.46514	0.00505753	0.111989	0	0	0	
0.0716667	-0.0680773	5.49017	0.00503868	0.112178	0	0	0	
0.0718333	0.0678406	-5.40058	0.00503038	0.112084	0	0	0	
0.072	-0.0684709	5.4069	0.00506623	0.1118	0	0	0	
0.0721667	0.0751962	-5.37479	0.00509266	0.111063	0	0	0	
0.0723333	-0.0719943	5.39197	0.00509388	0.110604	0	0	0	
0.0725	0.0759107	-5.37682	0.00505947	0.110363	0	0	0	
0.0726667	-0.0719104	5.38141	0.00504097	0.110477	0	0	0	
0.0728333	0.0723225	-5.40769	0.00501964	0.110502	0	0	0	
0.073	-0.0712523	5.40202	0.00503052	0.110745	0	0	0	
0.0731667	0.0797031	-5.47222	0.00508473	0.11076	0	0	0	
0.0733333	-0.0775732	5.40255	0.0051834	0.111077	0	0	0	
0.0735	0.08056	-5.45073	0.00521675	0.110884	0	0	0	
0.0736667	-0.0742106	5.45799	0.00516666	0.1114	0	0	0	
0.0738333	0.0730823	-5.5022	0.00507736	0.111631	0	0	0	
0.074	-0.0710013	5.41797	0.0050571	0.112204	0	0	0	
0.0741667	0.0733422	-5.49778	0.00507844	0.111838	0	0	0	
0.0743333	-0.0626712	5.40911	0.00510685	0.11168	0	0	0	
0.0745	0.0705288	-5.45751	0.00511346	0.11115	0	0	0	
0.0746667	-0.0725171	5.43975	0.00514701	0.111477	0	0	0	
0.0748333	0.0736981	-5.37529	0.00515729	0.111398	0	0	0	
0.075	-0.0705562	5.42846	0.00514487	0.111632	0	0	0	
0.0751667	0.0732502	-5.49371	0.00511325	0.11161	0	0	0	
0.0753333	-0.0732222	5.46897	0.00512263	0.111939	0	0	0	
0.0755	0.0773709	-5.48237	0.00512699	0.112217	0	0	0	
0.0756667	-0.0702997	5.44749	0.00510912	0.112316	0	0	0	
0.0758333	0.0693471	-5.39131	0.00507431	0.112072	0	0	0	
0.076	-0.0699923	5.45427	0.0050844	0.11194	0	0	0	
0.0761667	0.0730819	-5.40503	0.00510682	0.111843	0	0	0	
0.0763333	-0.0695547	5.44612	0.0051265	0.111754	0	0	0	
0.0765	0.0726356	-5.40673	0.0051209	0.111868	0	0	0	
0.0766667	-0.0696701	5.43681	0.00512252	0.111709	0	0	0	
0.0768333	0.0698285	-5.41019	0.00511811	0.111886	0	0	0	
0.077	-0.0684563	5.45944	0.00511716	0.111852	0	0	0	
0.0771667	0.0721741	-5.39296	0.00512011	0.112005	0	0	0	
0.0773333	-0.0697057	5.43386	0.00515303	0.111807	0	0	0	
0.0775	0.0740782	-5.37732	0.00516591	0.111582	0	0	0	
0.0776667	-0.0697281	5.40686	0.00515315	0.11132	0	0	0	
0.0778333	0.0715294	-5.37053	0.0051183	0.111107	0	0	0	
0.078	-0.0720537	5.44148	0.00511522	0.111194	0	0	0	
0.0781667	0.07305	-5.3982	0.00512104	0.111461	0	0	0	
0.0783333	-0.0667017	5.46115	0.00513397	0.111761	0	0	0	
0.0785	0.0696671	-5.43375	0.00513462	0.11192	0	0	0	
0.0786667	-0.069095	5.46735	0.00514656	0.111978	0	0	0	
0.0788333	0.0712591	-5.43616	0.00515113	0.112069	0	0	0	
0.079	-0.0704281	5.46339	0.0051642	0.112171	0	0	0	
0.0791667	0.0739265	-5.40515	0.00517246	0.112192	0	0	0	
0.0793333	-0.070266	5.42565	0.00518809	0.11203	0	0	0	
0.0795	0.0712521	-5.402	0.00518355	0.111797	0	0	0	
0.0796667	-0.0694186	5.42069	0.0051806	0.111555	0	0	0	
0.0798333	0.0728461	-5.40108	0.00517824	0.111624	0	0	0	
0.08	-0.0701348	5.42833	0.00519135	0.11162	0	0	0	
0.0801667	0.072822	-5.42273	0.00518806	0.111886	0	0	0	
0.0803333	-0.0699076	5.42532	0.00518613	0.111865	0	0	0	
0.0805	0.0719791	-5.42768	0.00517645	0.111887	0	0	0	
0.0806667	-0.0683245	5.40257	0.00517262	0.111671	0	0	0	
0.0808333	0.0693037	-5.39409	0.0051548	0.111356	0	0	0	
0.081	-0.0656302	5.38729	0.00515556	0.111256	0	0	0	
0.0811667	0.0714724	-5.38589	0.00516475	0.111011	0	0	0	
0.0813333	-0.0691052	5.38266	0.00518964	0.111143	0	0	0	
0.0815	0.0719198	-5.39397	0.0051853	0.110894	0	0	0	
0.0816667	-0.0677367	5.45141	0.00517622	0.111259	0	0	0	
0.0818333	0.0698706	-5.41947	0.00515742	0.111462	0	0	0	
0.082	-0.0677845	5.50056	0.00515854	0.112233	0	0	0	
0.0821667	0.0686717	-5.45794	0.00515517	0.112422	0	0	0	
0.0823333	-0.0659599	5.4355	0.00517029	0.112627	0	0	0	
0.0825	0.0729013	-5.44233	0.0051833	0.112006	0	0	0	
0.0826667	-0.0691501	5.40924	0.0051935	0.111804	0	0	0	
0.0828333	0.0693354	-5.34133	0.00516911	0.111236	0	0	0	
0.083	-0.0682376	5.38328	0.00515776	0.111179	0	0	0	
0.0831667	0.0696175	-5.32963	0.00515747	0.110638	0	0	0	
0.0833333	-0.0657016	5.37066	0.00516771	0.110646	0	0	0	
0.0835	0.0693624	-5.4209	0.00515911	0.110511	0	0	0	
0.0836667	-0.0668044	5.38383	0.00515838	0.110951	0	0	0	
0.0838333	0.0696709	-5.42636	0.0051544	0.110937	0	0	0	
0.084	-0.0641292	5.38947	0.00515952	0.111398	0	0	0	
0.0841667	0.0651202	-5.4388	0.00516262	0.111121	0	0	0	
0.0843333	-0.0630713	5.45236	0.00520341	0.111745	0	0	0	
0.0845	0.0705409	-5.45273	0.00524561	0.111892	0	0	0	
0.0846667	-0.070655	5.46554	0.00527253	0.112512	0	0	0	
0.0848333	0.0721122	-5.45859	0.00525034	0.112457	0	0	0	
0.085	-0.0662277	5.45762	0.00521089	0.112599	0	0	0	
0.0851667	0.0661434	-5.44647	0.00515266	0.112435	0	0	0	
0.0853333	-0.0607698	5.44498	0.00512065	0.112491	0	0	0	
0.0855	0.0641122	-5.37623	0.00512064	0.112347	0	0	0	
0.0856667	-0.0631596	5.42264	0.00517713	0.112172	0	0	0	
0.0858333	0.0666187	-5.37075	0.00523165	0.111997	0	0	0	
0.086	-0.0654779	5.43744	0.005261	0.11185	0	0	0	
0.0861667	0.0683465	-5.37737	0.00525197	0.112036	0	0	0	
0.0863333	-0.067226	5.42287	0.00525564	0.111942	0	0	0	
0.0865	0.0731913	-5.38506	0.00525756	0.112103	0	0	0	
0.0866667	-0.0682342	5.43106	0.00523716	0.111996	0	0	0	
0.0868333	0.0631051	-5.39183	0.00516279	0.112218	0	0	0	
0.087	-0.0571291	5.44398	0.00511648	0.112159	0	0	0	
0.0871667	0.0652305	-5.38255	0.00514454	0.112336	0	0	0	
0.0873333	-0.0693362	5.42675	0.0052337	0.11214	0	0	0	
0.0875	0.0709888	-5.39638	0.00528147	0.112274	0	0	0	
0.0876667	-0.066925	5.42256	0.00527904	0.112112	0	0	0	
0.0878333	0.0701302	-5.39066	0.00525087	0.112313	0	0	0	
0.088	-0.06479	5.42372	0.00522202	0.112105	0	0	0	
0.0881667	0.0657812	-5.39017	0.00517608	0.112243	0	0	0	
0.0883333	-0.0653248	5.42641	0.00517741	0.112091	0	0	0	
0.0885	0.0694778	-5.38352	0.00522475	0.112256	0	0	0	
0.0886667	-0.0662828	5.42283	0.00527168	0.112114	0	0	0	
0.0888333	0.0667632	-5.38709	0.00524807	0.112262	0	0	0	
0.089	-0.0634287	5.41999	0.0052045	0.112103	0	0	0	
0.0891667	0.0661468	-5.40543	0.00516988	0.112323	0	0	0	
0.0893333	-0.06026	5.42847	0.00517017	0.112247	0	0	0	
0.0895	0.0646698	-5.37955	0.00519393	0.112415	0	0	0	
0.0896667	-0.0670793	5.43137	0.00525091	0.112235	0	0	0	
0.0898333	0.0688127	-5.37064	0.00526444	0.112262	0	0	0	
0.09	-0.0626308	5.41713	0.00522077	0.112086	0	0	0	
0.0901667	0.0665515	-5.38527	0.00515655	0.112196	0	0	0	
0.0903333	-0.0640543	5.41626	0.00514656	0.112106	0	0	0	
0.0905	0.0662189	-5.37238	0.00515152	0.112256	0	0	0	
0.0906667	-0.0614992	5.42362	0.00515735	0.112096	0	0	0	
0.0908333	0.0633149	-5.37046	0.00515919	0.112187	0	0	0	
0.091	-0.064453	5.42615	0.00519477	0.112084	0	0	0	
0.0911667	0.0702822	-5.3728	0.00522595	0.112226	0	0	0	
0.0913333	-0.0660603	5.41866	0.00523864	0.11212	0	0	0	
0.0915	0.0677955	-5.36742	0.00521393	0.112212	0	0	0	
0.0916667	-0.0642271	5.41785	0.00519292	0.112039	0	0	0	
0.0918333	0.0646478	-5.36695	0.00518277	0.112156	0	0	0	
0.092	-0.0637277	5.41592	0.00520392	0.112008	0	0	0	
0.0921667	0.0667993	-5.36697	0.00521896	0.112148	0	0	0	
0.0923333	-0.0609078	5.40895	0.00522348	0.112005	0	0	0	
0.0925	0.0637927	-5.37275	0.00520563	0.112144	0	0	0	
0.0926667	-0.0634542	5.41725	0.00520392	0.112042	0	0	0	
0.0928333	0.0639062	-5.38222	0.00521052	0.112251	0	0	0	
0.093	-0.0626811	5.41597	0.00522666	0.112159	0	0	0	
0.0931667	0.0667362	-5.38696	0.00523361	0.112361	0	0	0	
0.0933333	-0.0613889	5.41563	0.0052432	0.112214	0	0	0	
0.0935	0.0645418	-5.37997	0.00523008	0.112367	0	0	0	
0.0936667	-0.0616498	5.40203	0.0052072	0.11214	0	0	0	
0.0938333	0.0623824	-5.37547	0.00517315	0.112226	0	0	0	
0.094	-0.0593756	5.38424	0.00517761	0.111982	0	0	0	
0.0941667	0.0629046	-5.36239	0.0052072	0.111913	0	0	0	
0.0943333	-0.0619662	5.35352	0.00524579	0.111606	0	0	0	
0.0945	0.0648318	-5.33377	0.00524219	0.111312	0	0	0	
0.0946667	-0.06075	5.34882	0.00521638	0.111133	0	0	0	
0.0948333	0.0650104	-5.36359	0.00519324	0.1111	0	0	0	
0.095	-0.0621556	5.40387	0.00520711	0.111435	0	0	0	
0.0951667	0.0629138	-5.41679	0.00521157	0.111883	0	0	0	
0.0953333	-0.06136	5.42106	0.00521136	0.112274	0	0	0	
0.0955	0.0639729	-5.42486	0.00520447	0.11234	0	0	0	
0.0956667	-0.0606335	5.38605	0.00520461	0.112275	0	0	0	
0.0958333	0.0613885	-5.39191	0.00518416	0.111794	0	0	0	
0.096	-0.0574073	5.35531	0.00516951	0.111716	0	0	0	
0.0961667	0.0613473	-5.33986	0.00517799	0.111264	0	0	0	
0.0963333	-0.0615682	5.34462	0.00522949	0.111332	0	0	0	
0.0965	0.0661999	-5.35609	0.0052722	0.111001	0	0	0	
0.0966667	-0.0638172	5.34961	0.0052837	0.111152	0	0	0	
0.0968333	0.0650492	-5.38806	0.00525014	0.110944	0	0	0	
0.097	-0.0594063	5.34699	0.00522438	0.111244	0	0	0	
0.0971667	0.063476	-5.37198	0.00521411	0.110964	0	0	0	
0.0973333	-0.0612603	5.44576	0.00522999	0.111699	0	0	0	
0.0975	0.0619819	-5.4118	0.00522558	0.11196	0	0	0	
0.0976667	-0.0594591	5.41507	0.00521781	0.11257	0	0	0	
0.0978333	0.0609855	-5.43632	0.00521861	0.11242	0	0	0	
0.098	-0.0594521	5.42473	0.00525119	0.112526	0	0	0	
0.0981667	0.0657755	-5.39809	0.00527237	0.112432	0	0	0	
0.0983333	-0.0604877	5.36409	0.00527551	0.11232	0	0	0	
0.0985	0.0626536	-5.26627	0.00525468	0.111484	0	0	0	
0.0986667	-0.0614857	5.3138	0.00525256	0.110893	0	0	0	
0.0988333	0.0604149	-5.37268	0.00524385	0.110606	0	0	0	
0.099	-0.0562208	5.40319	0.00524247	0.111242	0	0	0	
0.0991667	0.0604685	-5.31309	0.00524523	0.11177	0	0	0	
0.0993333	-0.0574083	5.34076	0.00526173	0.111727	0	0	0	
0.0995	0.062609	-5.38837	0.00525647	0.11124	0	0	0	
0.0996667	-0.0590755	5.41006	0.00524017	0.111428	0	0	0	
0.0998333	0.0595414	-5.41477	0.00520775	0.111851	0	0	0	
0.1	-0.0541299	5.43335	0.00519547	0.112586	0	0	0	
0.100167	0.0589208	-5.3375	0.00518584	0.112577	0	0	0	
0.100333	-0.0588156	5.37165	0.00519871	0.112324	0	0	0	
0.1005	0.0635113	-5.39961	0.00520622	0.111674	0	0	0	
0.100667	-0.0607612	5.35296	0.00521545	0.111513	0	0	0	
0.100833	0.0631255	-5.29587	0.00521272	0.111196	0	0	0	
0.101	-0.0590604	5.31485	0.00521503	0.111133	0	0	0	
0.101167	0.0627396	-5.31459	0.00519587	0.110724	0	0	0	
0.101333	-0.0581175	5.39497	0.00518061	0.111093	0	0	0	
0.1015	0.0613405	-5.41261	0.00517517	0.111582	0	0	0	
0.101667	-0.058922	5.42118	0.00520589	0.112273	0	0	0	
0.101833	0.0617977	-5.40915	0.00521824	0.112516	0	0	0	
0.102	-0.0588487	5.42063	0.00521516	0.112683	0	0	0	
0.102167	0.0610984	-5.40656	0.0052023	0.112548	0	0	0	
0.102333	-0.0592909	5.40994	0.00521578	0.112652	0	0	0	
0.1025	0.0612303	-5.33521	0.00521946	0.112517	0	0	0	
0.102667	-0.0556371	5.38675	0.00521042	0.112332	0	0	0	
0.102833	0.0609259	-5.32753	0.00520111	0.112146	0	0	0	
0.103	-0.0629227	5.39033	0.00524258	0.111963	0	0	0	
0.103167	0.065608	-5.33459	0.00527887	0.112128	0	0	0	
0.103333	-0.0601209	5.38496	0.0052624	0.112028	0	0	0	
0.1035	0.0575893	-5.33888	0.00519425	0.112205	0	0	0	
0.103667	-0.0559378	5.39212	0.00516534	0.112102	0	0	0	
0.103833	0.0609704	-5.3421	0.00517843	0.11227	0	0	0	
0.104	-0.0555163	5.33931	0.00518847	0.111987	0	0	0	
0.104167	0.0566755	-5.31465	0.00517118	0.111628	0	0	0	
0.104333	-0.0575577	5.36283	0.00518868	0.111343	0	0	0	
0.1045	0.0613525	-5.32395	0.00522437	0.111555	0	0	0	
0.104667	-0.0576316	5.38852	0.0052357	0.111899	0	0	0	
0.104833	0.0595198	-5.34555	0.00519797	0.112223	0	0	0	
0.105	-0.0561956	5.39695	0.00517131	0.112221	0	0	0	
0.105167	0.0612554	-5.41069	0.00516433	0.112359	0	0	0	
0.105333	-0.0576703	5.40532	0.00517618	0.112472	0	0	0	
0.1055	0.0581035	-5.33391	0.00517601	0.112589	0	0	0	
0.105667	-0.0561781	5.38582	0.00519486	0.112434	0	0	0	
0.105833	0.0615052	-5.33266	0.00521642	0.112288	0	0	0	
0.106	-0.0602166	5.38754	0.00523186	0.112129	0	0	0	
0.106167	0.0610401	-5.32912	0.0052049	0.112259	0	0	0	
0.106333	-0.0536774	5.37441	0.00516953	0.112081	0	0	0	
0.1065	0.0567039	-5.33033	0.00514812	0.11217	0	0	0	
0.106667	-0.0549556	5.38546	0.00516874	0.112076	0	0	0	
0.106833	0.0594301	-5.33152	0.00518827	0.112268	0	0	0	
0.107	-0.0579369	5.38147	0.00520395	0.112184	0	0	0	
0.107167	0.0592033	-5.3295	0.00519219	0.11228	0	0	0	
0.107333	-0.0556466	5.37729	0.00517628	0.112132	0	0	0	
0.1075	0.0591264	-5.32994	0.00515694	0.112238	0	0	0	
0.107667	-0.0548101	5.3822	0.00516347	0.112128	0	0	0	
0.107833	0.0584599	-5.3269	0.005181	0.112246	0	0	0	
0.108	-0.0577823	5.38054	0.00522219	0.112133	0	0	0	
0.108167	0.0615155	-5.33208	0.0052549	0.112268	0	0	0	
0.108333	-0.0594584	5.37953	0.00527665	0.112186	0	0	0	
0.1085	0.0606163	-5.32357	0.00525884	0.11231	0	0	0	
0.108667	-0.057219	5.3831	0.00522529	0.112181	0	0	0	
0.108833	0.0561587	-5.32072	0.00518444	0.112264	0	0	0	
0.109	-0.0534652	5.38119	0.00518186	0.11215	0	0	0	
0.109167	0.059987	-5.33214	0.00522061	0.112313	0	0	0	
0.109333	-0.058803	5.3662	0.00525978	0.112185	0	0	0	
0.1095	0.0518599	-5.31941	0.00522249	0.112267	0	0	0	
0.109667	-0.0466005	5.37249	0.00516028	0.112061	0	0	0	
0.109833	0.0549718	-5.3181	0.00516118	0.112164	0	0	0	
0.11	-0.058818	5.38057	0.00522676	0.112072	0	0	0	
0.110167	0.0598979	-5.32258	0.00526705	0.112257	0	0	0	
0.110333	-0.0549672	5.3627	0.0052747	0.112127	0	0	0	
0.1105	0.0594075	-5.32158	0.0052711	0.112215	0	0	0	
0.110667	-0.0581666	5.37171	0.00525448	0.112055	0	0	0	
0.110833	0.0576938	-5.32142	0.00519395	0.112203	0	0	0	
0.111	-0.0534209	5.37394	0.00515406	0.112119	0	0	0	
0.111167	0.0551029	-5.32075	0.00516816	0.112261	0	0	0	
0.111333	-0.0511303	5.36776	0.00521926	0.112141	0	0	0	
0.1115	0.0576496	-5.31633	0.00523505	0.112228	0	0	0	
0.111667	-0.0547013	5.37263	0.00521305	0.112082	0	0	0	
0.111833	0.0521093	-5.31955	0.00516227	0.112218	0	0	0	
0.112	-0.0506738	5.37189	0.00514775	0.112134	0	0	0	
0.112167	0.0588926	-5.31707	0.00517105	0.112252	0	0	0	
0.112333	-0.0574613	5.36453	0.00520253	0.112109	0	0	0	
0.1125	0.0589703	-5.31201	0.0051848	0.112182	0	0	0	
0.112667	-0.0535792	5.37065	0.00515926	0.112062	0	0	0	
0.112833	0.0579517	-5.31171	0.00515671	0.112171	0	0	0	
0.113	-0.0578497	5.3652	0.00519063	0.112055	0	0	0	
0.113167	0.0608396	-5.31655	0.00520264	0.112176	0	0	0	
0.113333	-0.0559726	5.3666	0.00520721	0.112087	0	0	0	
0.1135	0.0583496	-5.3183	0.00520411	0.112247	0	0	0	
0.113667	-0.0544938	5.36317	0.00521023	0.112123	0	0	0	
0.113833	0.057354	-5.30897	0.00519343	0.112143	0	0	0	
0.114	-0.055048	5.36397	0.00517571	0.111973	0	0	0	
0.114167	0.0558257	-5.30652	0.00516189	0.112022	0	0	0	
0.114333	-0.0522558	5.35211	0.00517699	0.111907	0	0	0	
0.1145	0.0568997	-5.30394	0.00519403	0.111959	0	0	0	
0.114667	-0.0556157	5.36056	0.00521008	0.111881	0	0	0	
0.114833	0.0576526	-5.3275	0.00520505	0.112082	0	0	0	
0.115	-0.0554436	5.37889	0.00520156	0.112144	0	0	0	
0.115167	0.0583851	-5.32935	0.00520127	0.112352	0	0	0	
0.115333	-0.0553929	5.3548	0.00521377	0.112238	0	0	0	
0.1155	0.0566493	-5.30835	0.00521064	0.112101	0	0	0	
0.115667	-0.054356	5.35283	0.00520824	0.11187	0	0	0	
0.115833	0.0553651	-5.30427	0.0052147	0.111864	0	0	0	
0.116	-0.0539469	5.35159	0.00523266	0.111865	0	0	0	
0.116167	0.0600953	-5.30929	0.0052277	0.112012	0	0	0	
0.116333	-0.0529618	5.35865	0.00521803	0.111975	0	0	0	
0.1165	0.0563251	-5.33035	0.00521228	0.112079	0	0	0	
0.116667	-0.0547531	5.35237	0.00522869	0.112002	0	0	0	
0.116833	0.0548912	-5.31249	0.00522352	0.11198	0	0	0	
0.117	-0.0524955	5.35555	0.00521381	0.111909	0	0	0	
0.117167	0.0564909	-5.31226	0.0052038	0.112016	0	0	0	
0.117333	-0.0527876	5.36246	0.00520915	0.11208	0	0	0	
0.1175	0.0551787	-5.30885	0.00520693	0.112179	0	0	0	
0.117667	-0.0520289	5.33548	0.00521875	0.11196	0	0	0	
0.117833	0.05759	-5.31004	0.00524062	0.111712	0	0	0	
0.118	-0.0564529	5.35529	0.00526634	0.111619	0	0	0	
0.118167	0.0559705	-5.31015	0.00524975	0.111835	0	0	0	
0.118333	-0.0554278	5.3542	0.00522173	0.112046	0	0	0	
0.1185	0.0592094	-5.32501	0.0052017	0.112203	0	0	0	
0.118667	-0.0534621	5.35549	0.0051964	0.112097	0	0	0	
0.118833	0.053644	-5.33469	0.0051901	0.112022	0	0	0	
0.119	-0.0530051	5.34039	0.00520809	0.111919	0	0	0	
0.119167	0.0554823	-5.28898	0.00522696	0.111768	0	0	0	
0.119333	-0.0521427	5.33537	0.00522621	0.111737	0	0	0	
0.1195	0.0564113	-5.30867	0.00519659	0.111683	0	0	0	
0.119667	-0.0541696	5.33044	0.00518645	0.111732	0	0	0	
0.119833	0.0546591	-5.31881	0.00518912	0.111698	0	0	0	
0.12	-0.0500833	5.35062	0.00520245	0.11171	0	0	0	
0.120167	0.0544764	-5.33008	0.00520992	0.111844	0	0	0	
0.120333	-0.052488	5.34964	0.0052266	0.112054	0	0	0	
0.1205	0.0569066	-5.32007	0.00522534	0.112009	0	0	0	
0.120667	-0.056094	5.32911	0.00522231	0.111912	0	0	0	
0.120833	0.0571264	-5.31479	0.00521054	0.111595	0	0	0	
0.121	-0.0527975	5.31848	0.00520645	0.111544	0	0	0	
0.121167	0.0527895	-5.28822	0.00519639	0.11142	0	0	0	
0.121333	-0.0494816	5.32654	0.00518893	0.111565	0	0	0	
0.1215	0.0543059	-5.3244	0.00517556	0.111557	0	0	0	
0.121667	-0.052674	5.33225	0.00517946	0.111708	0	0	0	
0.121833	0.0542722	-5.33722	0.00519473	0.111596	0	0	0	
0.122	-0.051144	5.34941	0.0052184	0.111779	0	0	0	
0.122167	0.0536372	-5.33353	0.00521672	0.111798	0	0	0	
0.122333	-0.0537851	5.34621	0.00521	0.112102	0	0	0	
0.1225	0.0581657	-5.3224	0.00520658	0.111968	0	0	0	
0.122667	-0.0540312	5.31556	0.00521304	0.111899	0	0	0	
0.122833	0.053205	-5.32385	0.00520016	0.111482	0	0	0	
0.123	-0.0509177	5.31832	0.00517976	0.111485	0	0	0	
0.123167	0.0545376	-5.29323	0.00516679	0.11133	0	0	0	
0.123333	-0.0502591	5.30221	0.00518722	0.11152	0	0	0	
0.1235	0.0548418	-5.2994	0.00521644	0.11119	0	0	0	
0.123667	-0.05221	5.29612	0.0052412	0.111242	0	0	0	
0.123833	0.0553997	-5.33077	0.00522197	0.110957	0	0	0	
0.124	-0.049969	5.33265	0.00519269	0.11137	0	0	0	
0.124167	0.0523793	-5.33648	0.0051737	0.111459	0	0	0	
0.124333	-0.0517844	5.33616	0.00519441	0.111948	0	0	0	
0.1245	0.0571427	-5.35079	0.00520026	0.111716	0	0	0	
0.124667	-0.0520844	5.31792	0.00518556	0.111837	0	0	0	
0.124833	0.0545747	-5.33805	0.00515886	0.111399	0	0	0	
0.125	-0.0513478	5.31744	0.00516886	0.111601	0	0	0	
0.125167	0.0560284	-5.31305	0.00517842	0.111335	0	0	0	
0.125333	-0.0527326	5.30241	0.00518819	0.111614	0	0	0	
0.1255	0.0555193	-5.32206	0.0051908	0.111265	0	0	0	
0.125667	-0.0556519	5.29801	0.00521181	0.111383	0	0	0	
0.125833	0.0565916	-5.33486	0.00521643	0.111059	0	0	0	
0.126	-0.0504615	5.29845	0.00519605	0.111339	0	0	0	
0.126167	0.0513884	-5.31943	0.00517455	0.111061	0	0	0	
0.126333	-0.048556	5.29757	0.005201	0.111385	0	0	0	
0.1265	0.052648	-5.33951	0.00524277	0.111056	0	0	0	
0.126667	-0.0521728	5.30788	0.00526217	0.111449	0	0	0	
0.126833	0.0541154	-5.33633	0.00524157	0.11116	0	0	0	
0.127	-0.0518013	5.30506	0.00521899	0.11152	0	0	0	
0.127167	0.0545837	-5.33457	0.00520015	0.111106	0	0	0	
0.127333	-0.0500447	5.29888	0.00518843	0.111464	0	0	0	
0.1275	0.0517567	-5.33762	0.0051723	0.111104	0	0	0	
0.127667	-0.052493	5.35978	0.0051756	0.111691	0	0	0	
0.127833	0.053836	-5.34819	0.00517834	0.111774	0	0	0	
0.128	-0.0502648	5.31688	0.00517956	0.112224	0	0	0	
0.128167	0.0525648	-5.34371	0.00517454	0.111704	0	0	0	
0.128333	-0.0485296	5.35302	0.00519546	0.111816	0	0	0	
0.1285	0.0521536	-5.33377	0.00522285	0.111742	0	0	0	
0.128667	-0.0510915	5.36578	0.00524733	0.112304	0	0	0	
0.128833	0.0540038	-5.27492	0.00524609	0.112238	0	0	0	
0.129	-0.0519117	5.30048	0.00523617	0.112071	0	0	0	
0.129167	0.0529489	-5.3301	0.00520303	0.111419	0	0	0	
0.129333	-0.0495411	5.28544	0.0051746	0.111269	0	0	0	
0.1295	0.0532853	-5.24209	0.00516097	0.110955	0	0	0	
0.129667	-0.050477	5.30831	0.00516639	0.111166	0	0	0	
0.129833	0.0521348	-5.26736	0.00515995	0.111082	0	0	0	
0.13	-0.049054	5.30262	0.00516467	0.11139	0	0	0	
0.130167	0.0527433	-5.33148	0.00517655	0.111206	0	0	0	
0.130333	-0.051369	5.29145	0.00519849	0.111294	0	0	0	
0.1305	0.0524079	-5.32322	0.0052045	0.111023	0	0	0	
0.130667	-0.0501785	5.34332	0.00521195	0.111565	0	0	0	
0.130833	0.0547835	-5.31228	0.0052172	0.111725	0	0	0	
0.131	-0.0509339	5.36408	0.00522249	0.11234	0	0	0	
0.131167	0.0525971	-5.36323	0.00520155	0.112377	0	0	0	
0.131333	-0.0475276	5.36258	0.00518299	0.112541	0	0	0	
0.1315	0.0493326	-5.35442	0.00517642	0.112484	0	0	0	
0.131667	-0.0494278	5.34763	0.00519882	0.112534	0	0	0	
0.131833	0.0530939	-5.27341	0.00520295	0.112345	0	0	0	
0.132	-0.0485897	5.33199	0.00518323	0.112214	0	0	0	
0.132167	0.0504631	-5.27206	0.00515075	0.112048	0	0	0	
0.132333	-0.0479222	5.33701	0.00515597	0.111942	0	0	0	
0.1325	0.0529117	-5.27301	0.00518324	0.112039	0	0	0	
0.132667	-0.0525281	5.27671	0.00520571	0.111749	0	0	0	
0.132833	0.0530396	-5.26522	0.00518148	0.111389	0	0	0	
0.133	-0.048039	5.25811	0.0051546	0.11103	0	0	0	
0.133167	0.0535376	-5.25153	0.0051547	0.110808	0	0	0	
0.133333	-0.0510381	5.3223	0.00518742	0.111101	0	0	0	
0.1335	0.0518779	-5.27736	0.00519985	0.111494	0	0	0	
0.133667	-0.048919	5.35286	0.00520653	0.112014	0	0	0	
0.133833	0.0556235	-5.357	0.00520843	0.112256	0	0	0	
0.134	-0.0534124	5.3575	0.00520059	0.112431	0	0	0	
0.134167	0.0531983	-5.35544	0.00515221	0.112486	0	0	0	
0.134333	-0.0492568	5.34515	0.00512322	0.112595	0	0	0	
0.1345	0.0534038	-5.27615	0.00513805	0.112433	0	0	0	
0.134667	-0.0492416	5.33636	0.00517453	0.112333	0	0	0	
0.134833	0.0523298	-5.26694	0.00517413	0.11213	0	0	0	
0.135	-0.0497844	5.29061	0.0051781	0.111831	0	0	0	
0.135167	0.056719	-5.25283	0.00520715	0.111447	0	0	0	
0.135333	-0.058076	5.26786	0.00525631	0.111103	0	0	0	
0.1355	0.058391	-5.27328	0.00526998	0.111137	0	0	0	
0.135667	-0.0550102	5.32875	0.00525615	0.11153	0	0	0	
0.135833	0.0578989	-5.25946	0.00522127	0.11187	0	0	0	
0.136	-0.0514459	5.35067	0.00518172	0.112025	0	0	0	
0.136167	0.0492039	-5.34521	0.00513996	0.112123	0	0	0	
0.136333	-0.0466608	5.36149	0.00515059	0.112395	0	0	0	
0.1365	0.0531296	-5.31112	0.00521527	0.112537	0	0	0	
0.136667	-0.0529271	5.31586	0.00528958	0.112472	0	0	0	
0.136833	0.0553552	-5.25614	0.00530015	0.112166	0	0	0	
0.137	-0.0502532	5.35555	0.00527514	0.112062	0	0	0	
0.137167	0.0524404	-5.27756	0.00524784	0.112169	0	0	0	
0.137333	-0.0502813	5.31575	0.00522944	0.112126	0	0	0	
0.1375	0.0519731	-5.2465	0.00518703	0.112061	0	0	0	
0.137667	-0.0475826	5.31849	0.00516383	0.111822	0	0	0	
0.137833	0.0504878	-5.27067	0.00517608	0.11197	0	0	0	
0.138	-0.0481821	5.33314	0.00521774	0.112034	0	0	0	
0.138167	0.0504194	-5.26945	0.00524365	0.112206	0	0	0	
0.138333	-0.0508574	5.32433	0.00525791	0.112082	0	0	0	
0.1385	0.0568846	-5.26739	0.0052425	0.112131	0	0	0	
0.138667	-0.0512534	5.31876	0.00520372	0.112006	0	0	0	
0.138833	0.0507423	-5.27428	0.00514919	0.112138	0	0	0	
0.139	-0.046941	5.3195	0.00513478	0.112039	0	0	0	
0.139167	0.0487114	-5.26895	0.00514982	0.112165	0	0	0	
0.139333	-0.0454992	5.32652	0.00518244	0.112051	0	0	0	
0.1395	0.0520984	-5.27607	0.00521347	0.112211	0	0	0	
0.139667	-0.0516885	5.32486	0.00525812	0.112144	0	0	0	
0.139833	0.0527516	-5.27393	0.00526348	0.11228	0	0	0	
0.14	-0.0471378	5.32016	0.00522421	0.11213	0	0	0	
0.140167	0.0489044	-5.27916	0.00517613	0.112247	0	0	0	
0.140333	-0.0446699	5.31589	0.00518021	0.112127	0	0	0	
0.1405	0.0466328	-5.2612	0.00521098	0.112202	0	0	0	
0.140667	-0.0481751	5.31979	0.00526883	0.112042	0	0	0	
0.140833	0.0594771	-5.27199	0.00532594	0.112143	0	0	0	
0.141	-0.0590603	5.32261	0.00533408	0.112116	0	0	0	
0.141167	0.0547428	-5.27347	0.00525399	0.112287	0	0	0	
0.141333	-0.0466528	5.31218	0.00517149	0.11216	0	0	0	
0.1415	0.0489287	-5.26585	0.00512995	0.112191	0	0	0	
0.141667	-0.0408592	5.32017	0.00511302	0.11205	0	0	0	
0.141833	0.0400945	-5.26161	0.00510169	0.112161	0	0	0	
0.142	-0.0424718	5.31173	0.00516857	0.112079	0	0	0	
0.142167	0.0505042	-5.26793	0.00529106	0.112175	0	0	0	
0.142333	-0.049977	5.31382	0.00538402	0.112079	0	0	0	
0.1425	0.0543317	-5.27131	0.00536408	0.112216	0	0	0	
0.142667	-0.0496956	5.31802	0.00526684	0.112137	0	0	0	
0.142833	0.045336	-5.26524	0.00516117	0.112253	0	0	0	
0.143	-0.0428352	5.31741	0.00512817	0.112153	0	0	0	
0.143167	0.0462665	-5.26548	0.00515592	0.112251	0	0	0	
0.143333	-0.0430325	5.31076	0.00519397	0.112132	0	0	0	
0.1435	0.0473637	-5.26011	0.0052055	0.112173	0	0	0	
0.143667	-0.047829	5.3094	0.00521956	0.11203	0	0	0	
0.143833	0.0506705	-5.25514	0.00522043	0.112104	0	0	0	
0.144	-0.0443767	5.30607	0.00518739	0.112014	0	0	0	
0.144167	0.0438906	-5.25861	0.00513204	0.112113	0	0	0	
0.144333	-0.0422349	5.31125	0.00513101	0.11203	0	0	0	
0.1445	0.050707	-5.26422	0.00517633	0.112154	0	0	0	
0.144667	-0.0478862	5.3151	0.00521809	0.112103	0	0	0	
0.144833	0.0491342	-5.26106	0.00519892	0.112222	0	0	0	
0.145	-0.0430973	5.30847	0.00516584	0.112096	0	0	0	
0.145167	0.0461312	-5.26087	0.00514875	0.112155	0	0	0	
0.145333	-0.0441868	5.30765	0.00517104	0.112045	0	0	0	
0.1455	0.0499224	-5.25404	0.00519004	0.112143	0	0	0	
0.145667	-0.0468626	5.3109	0.0051977	0.112051	0	0	0	
0.145833	0.048211	-5.25652	0.00517967	0.112137	0	0	0	
0.146	-0.044032	5.30646	0.00516925	0.112061	0	0	0	
0.146167	0.0483644	-5.26422	0.00517132	0.112187	0	0	0	
0.146333	-0.0454894	5.31577	0.00519874	0.112163	0	0	0	
0.1465	0.0505969	-5.24362	0.00521767	0.112201	0	0	0	
0.146667	-0.0472256	5.26516	0.00522923	0.111933	0	0	0	
0.146833	0.0492207	-5.2266	0.00521545	0.111471	0	0	0	
0.147	-0.0442069	5.28631	0.00521135	0.111316	0	0	0	
0.147167	0.0494	-5.23962	0.00522295	0.111425	0	0	0	
0.147333	-0.0477381	5.30146	0.0052532	0.111786	0	0	0	
0.1475	0.0495607	-5.26488	0.00524076	0.112016	0	0	0	
0.147667	-0.043576	5.31683	0.00519636	0.112084	0	0	0	
0.147833	0.0468724	-5.31542	0.00514608	0.112174	0	0	0	
0.148	-0.0405188	5.3313	0.00511495	0.112307	0	0	0	
0.148167	0.0366685	-5.25295	0.00507533	0.112344	0	0	0	
0.148333	-0.0332702	5.29245	0.00509593	0.112238	0	0	0	
0.1485	0.0473405	-5.24281	0.0051999	0.111911	0	0	0	
0.148667	-0.0530117	5.26319	0.00530721	0.111674	0	0	0	
0.148833	0.0531438	-5.23742	0.00529738	0.111536	0	0	0	
0.149	-0.047283	5.28978	0.0052094	0.111535	0	0	0	
0.149167	0.0482701	-5.2517	0.00512811	0.111774	0	0	0	
0.149333	-0.0384223	5.31103	0.00508827	0.111991	0	0	0	
0.1495	0.0424167	-5.27572	0.00507793	0.112161	0	0	0	
0.149667	-0.044824	5.31553	0.00512617	0.112166	0	0	0	
0.149833	0.050105	-5.28303	0.00518463	0.112216	0	0	0	
0.15	-0.0437051	5.29327	0.00521274	0.112175	0	0	0	
0.150167	0.047608	-5.24617	0.00519364	0.112062	0	0	0	
0.150333	-0.044098	5.28355	0.00517784	0.111895	0	0	0	
0.1505	0.0472158	-5.2456	0.0051576	0.111773	0	0	0	
0.150667	-0.0430454	5.26961	0.00514667	0.111688	0	0	0	
0.150833	0.0489782	-5.23864	0.00513986	0.111571	0	0	0	
0.151	-0.0438616	5.28832	0.00515294	0.111557	0	0	0	
0.151167	0.0456331	-5.27004	0.00515251	0.111763	0	0	0	
0.151333	-0.0398693	5.29072	0.00517014	0.111991	0	0	0	
0.1515	0.0486593	-5.26472	0.00522107	0.112023	0	0	0	
0.151667	-0.0510523	5.27533	0.00531015	0.111881	0	0	0	
0.151833	0.0601959	-5.27083	0.00535135	0.111619	0	0	0	
0.152	-0.0573091	5.26727	0.00531239	0.111635	0	0	0	
0.152167	0.0495757	-5.23285	0.00517003	0.111437	0	0	0	
0.152333	-0.0331966	5.2551	0.00503008	0.111479	0	0	0	
0.1525	0.0392401	-5.25502	0.0050806	0.111255	0	0	0	
0.152667	-0.0688906	5.25824	0.00531387	0.111369	0	0	0	
0.152833	0.0954089	-5.27774	0.0054185	0.111289	0	0	0	
0.153	-0.0452236	5.29643	0.0052435	0.11159	0	0	0	
0.153167	0.0398961	-5.29374	0.00511322	0.111775	0	0	0	
0.153333	-0.0852203	5.29752	0.00537898	0.112178	0	0	0	
0.1535	0.0647523	-5.30284	0.00554183	0.11222	0	0	0	
0.153667	-0.0155931	5.29056	0.00524534	0.112276	0	0	0	
0.153833	0.0404104	-5.30683	0.00502675	0.112201	0	0	0	
0.154	-0.0561551	5.29773	0.00531355	0.112251	0	0	0	
0.154167	0.0442744	-5.25429	0.0055988	0.112237	0	0	0	
0.154333	-0.0134785	5.23153	0.00544894	0.111981	0	0	0	
0.1545	0.0280454	-5.22885	0.00531125	0.111406	0	0	0	
0.154667	-0.0584201	5.21888	0.00552116	0.111011	0	0	0	
0.154833	0.0620533	-5.24757	0.0055867	0.110963	0	0	0	
0.155	-0.0419681	5.2255	0.00523678	0.111224	0	0	0	
0.155167	0.0439069	-5.24337	0.0049003	0.111188	0	0	0	
0.155333	-0.0398393	5.24571	0.00489602	0.111289	0	0	0	
0.1555	0.0461706	-5.27912	0.00501191	0.110995	0	0	0	
0.155667	-0.0403223	5.24269	0.00507705	0.11128	0	0	0	
0.155833	0.047119	-5.23986	0.00509468	0.11097	0	0	0	
0.156	-0.04578	5.2502	0.00511456	0.111299	0	0	0	
0.156167	0.0437637	-5.28975	0.00505966	0.111197	0	0	0	
0.156333	-0.0286941	5.2693	0.00499364	0.111741	0	0	0	
0.1565	0.0352459	-5.28101	0.00502978	0.111467	0	0	0	
0.156667	-0.0379007	5.25491	0.00519514	0.111581	0	0	0	
0.156833	0.0426758	-5.26445	0.00531465	0.110991	0	0	0	
0.157	-0.0408237	5.24804	0.00533883	0.111361	0	0	0	
0.157167	0.0516951	-5.2194	0.00534969	0.110991	0	0	0	
0.157333	-0.0568684	5.24398	0.00543772	0.111312	0	0	0	
0.1575	0.073441	-5.28563	0.00549398	0.110947	0	0	0	
0.157667	-0.0664682	5.28351	0.00541168	0.111411	0	0	0	
0.157833	0.057707	-5.28673	0.00516121	0.111361	0	0	0	
0.158	-0.035283	5.25816	0.00489138	0.111796	0	0	0	
0.158167	0.0128125	-5.26461	0.004693	0.111278	0	0	0	
0.158333	0.000787861	5.26774	0.00473531	0.111523	0	0	0	
0.1585	0.0191664	-5.26717	0.00510675	0.111166	0	0	0	
0.158667	-0.0439344	5.23769	0.00563834	0.111547	0	0	0	
0.158833	0.0635421	-5.27018	0.0059096	0.111214	0	0	0	
0.159	-0.0531552	5.30721	0.00576457	0.111721	0	0	0	
0.159167	0.0557745	-5.27758	0.00543817	0.111782	0	0	0	
0.159333	-0.0438667	5.27102	0.00516442	0.112138	0	0	0	
0.1595	0.0173458	-5.25168	0.00489698	0.111538	0	0	0	
0.159667	-0.0104678	5.23125	0.00480043	0.111351	0	0	0	
0.159833	0.050593	-5.25807	0.00503733	0.11081	0	0	0	
0.16	-0.0619752	5.23655	0.00534702	0.111135	0	0	0	
0.160167	0.0433229	-5.21287	0.005318	0.111249	0	0	0	
0.160333	-0.024973	5.31876	0.00508262	0.111849	0	0	0	
0.1605	0.0480316	-5.30903	0.00506406	0.112144	0	0	0	
0.160667	-0.0503297	5.34523	0.0052317	0.112679	0	0	0	
0.160833	0.0437367	-5.30341	0.0052589	0.112791	0	0	0	
0.161	-0.031679	5.29267	0.00515829	0.112779	0	0	0	
0.161167	0.0259063	-5.2572	0.0050995	0.112413	0	0	0	
0.161333	-0.0161529	5.20048	0.00516461	0.111994	0	0	0	
0.1615	0.0271287	-5.16113	0.00534971	0.111146	0	0	0	
0.161667	-0.055428	5.20856	0.00559455	0.11067	0	0	0	
0.161833	0.0611031	-5.1854	0.0056682	0.110353	0	0	0	
0.162	-0.042326	5.22471	0.00546519	0.110696	0	0	0	
0.162167	0.0467152	-5.26413	0.00522599	0.110998	0	0	0	
0.162333	-0.0585962	5.28403	0.00511879	0.111654	0	0	0	
0.1625	0.0423814	-5.2825	0.00495105	0.11201	0	0	0	
0.162667	-0.0179323	5.33352	0.00465594	0.112512	0	0	0	
0.162833	0.0175168	-5.27759	0.00460028	0.112459	0	0	0	
0.163	-0.0426634	5.25475	0.00495931	0.112476	0	0	0	
0.163167	0.0535377	-5.25596	0.00537739	0.111769	0	0	0	
0.163333	-0.0347391	5.18926	0.00546564	0.111475	0	0	0	
0.1635	0.0407736	-5.1726	0.00538307	0.110833	0	0	0	
0.163667	-0.0649913	5.2798	0.00545946	0.11106	0	0	0	
0.163833	0.0809058	-5.1904	0.00555986	0.111239	0	0	0	
0.164	-0.0556415	5.23834	0.00538094	0.111609	0	0	0	
0.164167	0.034249	-5.28176	0.00496943	0.111356	0	0	0	
0.164333	-0.0200908	5.28933	0.00479343	0.111611	0	0	0	
0.1645	0.0418865	-5.27142	0.00496034	0.11184	0	0	0	
0.164667	-0.0509758	5.27573	0.00520692	0.112362	0	0	0	
0.164833	0.0426738	-5.20434	0.00526558	0.112051	0	0	0	
0.165	-0.0419098	5.27574	0.00523624	0.112004	0	0	0	
0.165167	0.0536526	-5.28824	0.00526486	0.111868	0	0	0	
0.165333	-0.0449166	5.2804	0.00528804	0.112178	0	0	0	
0.1655	0.0394074	-5.18654	0.00520853	0.11218	0	0	0	
0.165667	-0.0360814	5.26908	0.00514042	0.112004	0	0	0	
0.165833	0.0409007	-5.24339	0.00518847	0.111874	0	0	0	
0.166	-0.0492499	5.28442	0.00527931	0.112072	0	0	0	
0.166167	0.048454	-5.22951	0.00525101	0.112361	0	0	0	
0.166333	-0.0312515	5.20291	0.00512821	0.112066	0	0	0	
0.1665	0.0322821	-5.19642	0.00507679	0.111477	0	0	0	
0.166667	-0.0328075	5.26042	0.00515826	0.111199	0	0	0	
0.166833	0.0380923	-5.1993	0.00525457	0.111423	0	0	0	
0.167	-0.038041	5.25834	0.00530184	0.111811	0	0	0	
0.167167	0.0529036	-5.19775	0.00535674	0.111953	0	0	0	
0.167333	-0.0790456	5.26327	0.00556695	0.111906	0	0	0	
0.1675	0.0698111	-5.29919	0.00577314	0.112033	0	0	0	
0.167667	-0.0879185	5.30766	0.00565382	0.112361	0	0	0	
0.167833	0.0802713	-5.22381	0.00524948	0.112601	0	0	0	
0.168	-0.051075	5.25924	0.00469049	0.11253	0	0	0	
0.168167	0.044183	-5.2171	0.00432655	0.112293	0	0	0	
0.168333	-0.0369958	5.28121	0.00430853	0.112221	0	0	0	
0.1685	-0.0112736	-5.22369	0.00454912	0.112403	0	0	0	
0.168667	0.0212378	5.26596	0.00480314	0.112319	0	0	0	
0.168833	-0.0215858	-5.21589	0.00510709	0.112307	0	0	0	
0.169	-0.0302691	5.24827	0.00561373	0.112104	0	0	0	
0.169167	0.0934091	-5.20559	0.0060816	0.112104	0	0	0	
0.169333	-0.0837815	5.17371	0.00610798	0.111701	0	0	0	
0.1695	0.0807651	-5.18559	0.00570007	0.111267	0	0	0	
0.169667	-0.0699272	5.21285	0.00525538	0.111024	0	0	0	
0.169833	0.0540943	-5.20897	0.00473746	0.111324	0	0	0	
0.17	-0.0282395	5.24122	0.00426094	0.111716	0	0	0	
0.170167	0.0288709	-5.2185	0.0040986	0.111959	0	0	0	
0.170333	-0.0378403	5.25424	0.00444794	0.111902	0	0	0	
0.1705	0.0528069	-5.29515	0.00496757	0.112064	0	0	0	
0.170667	-0.0459739	5.2483	0.00519165	0.112217	0	0	0	
0.170833	0.0271797	-5.19737	0.00502493	0.112278	0	0	0	
0.171	-0.0150363	5.2391	0.00483843	0.11208	0	0	0	
0.171167	0.0254643	-5.24277	0.00494382	0.112036	0	0	0	
0.171333	-0.0408453	5.26602	0.00524456	0.112107	0	0	0	
0.1715	0.0484188	-5.21266	0.00541108	0.112288	0	0	0	
0.171667	-0.0397295	5.23049	0.00534021	0.112035	0	0	0	
0.171833	0.0490173	-5.21022	0.00523307	0.111985	0	0	0	
0.172	-0.0566339	5.25534	0.00524777	0.111957	0	0	0	
0.172167	0.0535558	-5.20678	0.00528369	0.112172	0	0	0	
0.172333	-0.0396759	5.25079	0.00524025	0.112147	0	0	0	
0.1725	0.0393113	-5.19613	0.00515073	0.112063	0	0	0	
0.172667	-0.0337967	5.26057	0.0051001	0.11194	0	0	0	
0.172833	0.0362709	-5.20746	0.00508628	0.111989	0	0	0	
0.173	-0.0249573	5.22954	0.00511326	0.111925	0	0	0	
0.173167	0.0396316	-5.17422	0.0051636	0.111821	0	0	0	
0.173333	-0.0370714	5.24278	0.00523469	0.111642	0	0	0	
0.1735	0.0464126	-5.20508	0.00523146	0.111727	0	0	0	
0.173667	-0.0439011	5.27301	0.00516184	0.111907	0	0	0	
0.173833	0.0537906	-5.21092	0.00503822	0.112144	0	0	0	
0.174	-0.0470822	5.26721	0.00495769	0.112201	0	0	0	
0.174167	0.0426547	-5.21834	0.00491915	0.112265	0	0	0	
0.174333	-0.0333109	5.26008	0.00496231	0.11218	0	0	0	
0.1745	0.03603	-5.20205	0.00502954	0.112204	0	0	0	
0.174667	-0.0424602	5.24967	0.00513679	0.112053	0	0	0	
0.174833	0.059083	-5.20039	0.00528193	0.112058	0	0	0	
0.175	-0.0624426	5.254	0.00542854	0.11196	0	0	0	
0.175167	0.055844	-5.21006	0.0054478	0.112069	0	0	0	
0.175333	-0.0417286	5.25854	0.00530234	0.112059	0	0	0	
0.1755	0.0384566	-5.19887	0.0051013	0.112151	0	0	0	
0.175667	-0.0441164	5.253	0.00501967	0.11207	0	0	0	
0.175833	0.038651	-5.20026	0.0050726	0.112115	0	0	0	
0.176	-0.0309088	5.25989	0.00515559	0.112076	0	0	0	
0.176167	0.0415955	-5.21878	0.00523504	0.112242	0	0	0	
0.176333	-0.0405692	5.24887	0.00532372	0.112172	0	0	0	
0.1765	0.0461949	-5.19918	0.0053578	0.112209	0	0	0	
0.176667	-0.0369605	5.25483	0.00528746	0.112045	0	0	0	
0.176833	0.0350699	-5.20252	0.0051607	0.112125	0	0	0	
0.177	-0.0383366	5.24911	0.00512955	0.112048	0	0	0	
0.177167	0.0428161	-5.17299	0.00519771	0.111991	0	0	0	
0.177333	-0.033511	5.20461	0.00528807	0.111802	0	0	0	
0.1775	0.0348423	-5.19795	0.00532179	0.111576	0	0	0	
0.177667	-0.0393202	5.22809	0.00532616	0.111509	0	0	0	
0.177833	0.0465793	-5.21018	0.00531177	0.111671	0	0	0	
0.178	-0.0448235	5.25394	0.00526339	0.111928	0	0	0	
0.178167	0.0297308	-5.20085	0.00515056	0.11212	0	0	0	
0.178333	-0.0142252	5.25365	0.0050594	0.112111	0	0	0	
0.1785	0.0213344	-5.21148	0.00511449	0.111895	0	0	0	
0.178667	-0.0374452	5.22942	0.0053039	0.11181	0	0	0	
0.178833	0.0402928	-5.22483	0.00546994	0.111926	0	0	0	
0.179	-0.0442416	5.27186	0.0054477	0.112281	0	0	0	
0.179167	0.0390114	-5.20062	0.00525433	0.112445	0	0	0	
0.179333	-0.0303996	5.23928	0.00504737	0.112253	0	0	0	
0.1795	0.0270315	-5.18229	0.00499344	0.112053	0	0	0	
0.179667	-0.0313612	5.22364	0.00509309	0.111828	0	0	0	
0.179833	0.0310987	-5.18388	0.00523162	0.111794	0	0	0	
0.18	-0.0377836	5.24185	0.00531601	0.111809	0	0	0	
0.180167	0.0515819	-5.18736	0.00533091	0.111923	0	0	0	
0.180333	-0.0442228	5.24553	0.00525713	0.111978	0	0	0	
0.1805	0.0331937	-5.19207	0.00510798	0.112092	0	0	0	
0.180667	-0.0174661	5.24074	0.00502044	0.112046	0	0	0	
0.180833	0.0265668	-5.19916	0.00508211	0.112031	0	0	0	
0.181	-0.0347927	5.24698	0.00523678	0.111962	0	0	0	
0.181167	0.0458906	-5.19117	0.00531818	0.112035	0	0	0	
0.181333	-0.0378038	5.20137	0.00529329	0.111965	0	0	0	
0.1815	0.0424677	-5.16316	0.00522874	0.111618	0	0	0	
0.181667	-0.0323081	5.23531	0.0051916	0.111503	0	0	0	
0.181833	0.0383273	-5.22669	0.00512839	0.111603	0	0	0	
0.182	-0.0355083	5.19801	0.00510567	0.111718	0	0	0	
0.182167	0.0682578	-4.90842	0.00523964	0.110908	0	0	0	
0.182333	-0.0398466	4.0821	0.00557803	0.106906	0	0	0	
0.1825	0.050927	-4.99867	0.00572026	0.103231	0	0	0	
0.182667	-0.044603	5.19611	0.00554779	0.103786	0	0	0	
0.182833	0.0470243	-5.22545	0.00518493	0.107938	0	0	0	
0.183	-0.0335353	5.33873	0.00499346	0.112365	0	0	0	
0.183167	0.015976	-5.18103	0.00498856	0.112784	0	0	0	
0.183333	0.0265904	4.83735	0.0051377	0.110963	0	0	0	
0.1835	0.0200383	-5.51923	0.0053353	0.10912	0	0	0	
0.183667	-0.0341332	5.17196	0.00554588	0.109501	0	0	0	
0.183833	0.0373314	-5.04811	0.00565828	0.110545	0	0	0	
0.184	-0.0353965	5.28505	0.00562144	0.111816	0	0	0	
0.184167	0.039885	-5.12806	0.00541659	0.111234	0	0	0	
0.184333	-0.0188224	5.14706	0.00512965	0.111388	0	0	0	
0.1845	0.0266645	-4.99469	0.00497466	0.110254	0	0	0	
0.184667	-0.0221603	5.19762	0.00501918	0.109895	0	0	0	
0.184833	0.0269758	-5.09157	0.00509002	0.110098	0	0	0	
0.185	-0.0288298	5.2292	0.00507998	0.111088	0	0	0	
0.185167	0.0479033	-5.14477	0.00502094	0.111165	0	0	0	
0.185333	-0.0365793	5.26228	0.00502072	0.111421	0	0	0	
0.1855	0.0427793	-5.19776	0.00497696	0.111424	0	0	0	
0.185667	-0.0282147	5.24054	0.00490152	0.111765	0	0	0	
0.185833	0.0280035	-5.12357	0.00492831	0.111455	0	0	0	
0.186	-0.035489	5.25063	0.00516509	0.111512	0	0	0	
0.186167	0.0487609	-5.21734	0.0054	0.111551	0	0	0	
0.186333	-0.0463329	5.27005	0.00545331	0.112153	0	0	0	
0.1865	0.0404357	-5.14238	0.0053403	0.112253	0	0	0	
0.186667	-0.0423452	5.39112	0.00524223	0.112766	0	0	0	
0.186833	0.034243	-5.44382	0.00519202	0.113788	0	0	0	
0.187	-0.0132925	5.2467	0.00510301	0.114	0	0	0	
0.187167	-0.0504099	-3.98838	0.00498087	0.108585	0	0	0	
0.187333	0.00730826	3.95167	0.0047597	0.0970669	0	0	0	
0.1875	0.0276058	-4.69	0.00474043	0.0921999	0	0	0	
0.187667	-0.0436569	4.9277	0.00492367	0.0951915	0	0	0	
0.187833	0.0440103	-5.34942	0.00515435	0.105964	0	0	0	
0.188	-0.0383417	5.34282	0.00520194	0.111376	0	0	0	
0.188167	0.0163976	-5.66263	0.0049835	0.114364	0	0	0	
0.188333	-0.0633753	6.08938	0.00453455	0.11456	0	0	0	
0.1885	0.0710859	-5.98674	0.00438401	0.118476	0	0	0	
0.188667	-0.0322107	4.95337	0.00442984	0.117287	0	0	0	
0.188833	0.0333925	-5.20418	0.00486755	0.116015	0	0	0	
0.189	-0.0365969	5.12658	0.00512391	0.111081	0	0	0	
0.189167	0.0339061	-5.39758	0.00524113	0.111647	0	0	0	
0.189333	-0.0180353	5.0467	0.0052255	0.111636	0	0	0	
0.1895	0.031761	-5.10011	0.00515778	0.111008	0	0	0	
0.189667	-0.0375492	5.06024	0.00516068	0.109701	0	0	0	
0.189833	0.0387633	-5.22273	0.00520691	0.109978	0	0	0	
0.19	-0.0363523	5.10559	0.00525978	0.110567	0	0	0	
0.190167	0.0384684	-5.12098	0.00529638	0.110906	0	0	0	
0.190333	-0.0931264	4.96354	0.00526378	0.112597	0	0	0	
0.1905	0.0666575	-3.94562	0.00548909	0.10981	0	0	0	
0.190667	-0.0801131	3.40077	0.00599273	0.104269	0	0	0	
0.190833	0.0148262	-4.58047	0.00659409	0.0971911	0	0	0	
0.191	-0.0408378	5.39573	0.00656261	0.100461	0	0	0	
0.191167	0.0337955	-5.25913	0.00600015	0.107039	0	0	0	
0.191333	-0.0387202	4.95863	0.00541258	0.112345	0	0	0	
0.1915	-0.0126644	-4.17262	0.00534181	0.105378	0	0	0	
0.191667	0.0111944	4.17644	0.00536742	0.0963501	0	0	0	
0.191833	-0.0541921	-4.82975	0.00521797	0.0905337	0	0	0	
0.192	-0.0115781	5.00103	0.00501207	0.0954786	0	0	0	
0.192167	0.049829	-4.9573	0.00507786	0.102829	0	0	0	
0.192333	-0.057688	5.20789	0.00528042	0.10857	0	0	0	
0.1925	0.0548498	-5.08967	0.00527585	0.109763	0	0	0	
0.192667	-0.0355018	4.94438	0.00511129	0.110039	0	0	0	
0.192833	0.0724728	-4.6049	0.00506382	0.109364	0	0	0	
0.193	-0.051263	5.01901	0.00526564	0.108229	0	0	0	
0.193167	0.0579022	-5.23953	0.0053978	0.109235	0	0	0	
0.193333	-0.0412912	5.23863	0.00538493	0.110562	0	0	0	
0.1935	0.0356336	-5.26344	0.00529523	0.112191	0	0	0	
0.193667	-0.030197	5.12663	0.00537059	0.111853	0	0	0	
0.193833	0.0584128	-5.04034	0.00550773	0.110668	0	0	0	
0.194	-0.0299748	5.09097	0.00558548	0.108721	0	0	0	
0.194167	0.0408264	-5.17702	0.00548686	0.108561	0	0	0	
0.194333	-0.0323669	5.13731	0.00533708	0.109262	0	0	0	
0.1945	0.0269111	-5.25944	0.00517409	0.111094	0	0	0	
0.194667	-0.0217547	5.15976	0.00509507	0.111405	0	0	0	
0.194833	0.0334268	-5.22675	0.00509623	0.111253	0	0	0	
0.195	-0.0404943	5.13951	0.00519016	0.111434	0	0	0	
0.195167	0.0550575	-5.19968	0.00527056	0.111257	0	0	0	
0.195333	-0.0390239	5.14021	0.00521215	0.111433	0	0	0	
0.1955	0.0235605	-5.24705	0.00504836	0.111198	0	0	0	
0.195667	-0.023665	5.14957	0.00501464	0.111335	0	0	0	
0.195833	0.0402226	-5.23241	0.00514073	0.111165	0	0	0	
0.196	-0.0570343	5.15807	0.00521781	0.111477	0	0	0	
0.196167	0.0339524	-5.22541	0.00508163	0.111313	0	0	0	
0.196333	-0.0079237	5.15078	0.00484783	0.111598	0	0	0	
0.1965	0.0159433	-5.24384	0.00479973	0.111306	0	0	0	
0.196667	-0.0353999	5.16532	0.00497381	0.111523	0	0	0	
0.196833	0.0517043	-5.23404	0.00516817	0.111404	0	0	0	
0.197	-0.0581351	5.1479	0.00524084	0.111663	0	0	0	
0.197167	0.0538027	-5.22353	0.00526014	0.111307	0	0	0	
0.197333	-0.0576937	5.14074	0.00522444	0.111355	0	0	0	
0.1975	0.0389607	-5.22244	0.00503054	0.110975	0	0	0	
0.197667	-0.0221968	5.13722	0.00476801	0.111214	0	0	0	
0.197833	0.0172134	-5.20363	0.00477823	0.111017	0	0	0	
0.198	-0.043387	5.18216	0.00510884	0.111465	0	0	0	
0.198167	0.0481158	-5.23869	0.00546549	0.111665	0	0	0	
0.198333	-0.0385642	5.22177	0.00552345	0.112249	0	0	0	
0.1985	0.0332495	-5.25224	0.00536307	0.112401	0	0	0	
0.198667	-0.0404697	5.17439	0.00521453	0.112444	0	0	0	
0.198833	0.0353007	-5.2194	0.00517826	0.111863	0	0	0	
0.199	-0.028626	5.11815	0.00516628	0.111564	0	0	0	
0.199167	0.0127377	-5.12971	0.00514886	0.110964	0	0	0	
0.199333	-0.0185375	5.15769	0.00517262	0.111104	0	0	0	
0.1995	0.0300422	-5.162	0.00528627	0.111287	0	0	0	
0.199667	-0.0285532	5.21556	0.00536982	0.111839	0	0	0	
0.199833	0.0321052	-5.24129	0.00531192	0.11217	0	0	0	
0.2	-0.0211815	5.15817	0.00515915	0.112145	0	0	0	
0.200167	0.0255551	-5.2083	0.00502587	0.111652	0	0	0	
0.200333	-0.0272562	5.12221	0.00501472	0.111447	0	0	0	
0.2005	0.0237369	-5.13828	0.00510269	0.110994	0	0	0	
0.200667	-0.0126605	5.16645	0.00519115	0.111388	0	0	0	
0.200833	0.0299988	-5.15362	0.00521989	0.111515	0	0	0	
0.201	-0.0193075	5.20487	0.00523932	0.111902	0	0	0	
0.201167	0.0433339	-5.24541	0.0052683	0.112115	0	0	0	
0.201333	-0.0342557	5.20121	0.0053082	0.112292	0	0	0	
0.2015	0.0338727	-5.21002	0.00524485	0.112289	0	0	0	
0.201667	-0.0203467	5.1692	0.00512189	0.112162	0	0	0	
0.201833	0.0272338	-5.13678	0.00501931	0.111877	0	0	0	
0.202	-0.0217615	5.18976	0.00499055	0.111927	0	0	0	
0.202167	0.0322212	-5.1604	0.00499563	0.112105	0	0	0	
0.202333	-0.0243772	5.19795	0.00507109	0.112253	0	0	0	
0.2025	0.0262075	-5.17118	0.00515894	0.112401	0	0	0	
0.202667	-0.0184071	5.1951	0.00520861	0.112071	0	0	0	
0.202833	0.0304336	-5.16244	0.00517666	0.112124	0	0	0	
0.203	-0.0250597	5.17077	0.00513159	0.111868	0	0	0	
0.203167	0.0352509	-5.12216	0.005128	0.111918	0	0	0	
0.203333	-0.0250914	5.16583	0.00514536	0.111668	0	0	0	
0.2035	0.0165878	-5.14282	0.00511284	0.111828	0	0	0	
0.203667	-0.0302184	5.21336	0.00507395	0.111988	0	0	0	
0.203833	0.0312965	-5.19359	0.00508581	0.112515	0	0	0	
0.204	-0.0321038	5.21337	0.00518834	0.112655	0	0	0	
0.204167	0.0470492	-5.17845	0.00529586	0.112929	0	0	0	
0.204333	-0.033892	5.18665	0.00528911	0.112749	0	0	0	
0.2045	0.0276878	-5.16162	0.00519461	0.112808	0	0	0	
0.204667	-0.0333156	5.14901	0.00513981	0.112501	0	0	0	
0.204833	0.0326489	-5.1207	0.00512476	0.111959	0	0	0	
0.205	-0.0263893	5.165	0.00509468	0.111588	0	0	0	
0.205167	0.0284751	-5.12691	0.00505225	0.111563	0	0	0	
0.205333	-0.0266523	5.13253	0.00506258	0.111734	0	0	0	
0.2055	0.0275718	-5.08447	0.00509407	0.11159	0	0	0	
0.205667	-0.0180812	5.09783	0.00511417	0.11122	0	0	0	
0.205833	0.0345413	-5.14458	0.00517997	0.110782	0	0	0	
0.206	-0.0373713	5.17929	0.00532718	0.111084	0	0	0	
0.206167	0.0493351	-5.13187	0.00539738	0.11152	0	0	0	
0.206333	-0.0379352	5.16548	0.00530067	0.112077	0	0	0	
0.2065	0.0275493	-5.13672	0.00511709	0.112071	0	0	0	
0.206667	-0.0213554	5.18127	0.0050659	0.112027	0	0	0	
0.206833	0.0396876	-5.16292	0.00519629	0.111873	0	0	0	
0.207	-0.0434144	5.16084	0.00538374	0.111894	0	0	0	
0.207167	0.0431063	-5.11358	0.00540123	0.111708	0	0	0	
0.207333	-0.030047	5.13155	0.00522629	0.111735	0	0	0	
0.2075	0.0266101	-5.12102	0.00503073	0.111323	0	0	0	
0.207667	-0.0193653	5.12183	0.0049914	0.111258	0	0	0	
0.207833	0.028861	-5.11159	0.00509823	0.110894	0	0	0	
0.208	-0.0260046	5.16144	0.00528055	0.111152	0	0	0	
0.208167	0.0380299	-5.1308	0.0054164	0.111205	0	0	0	
0.208333	-0.040865	5.13579	0.00539169	0.111641	0	0	0	
0.2085	0.0308563	-5.16327	0.00514979	0.11131	0	0	0	
0.208667	-0.0110015	5.14642	0.00488237	0.111465	0	0	0	
0.208833	0.0133634	-5.16056	0.00487248	0.111112	0	0	0	
0.209	-0.0269444	5.13637	0.00516468	0.111535	0	0	0	
0.209167	0.0434984	-5.11722	0.00546407	0.111145	0	0	0	
0.209333	-0.0376086	5.12099	0.00549153	0.111413	0	0	0	
0.2095	0.0376478	-5.16563	0.00528257	0.110955	0	0	0	
0.209667	-0.0310094	5.13644	0.00508298	0.111309	0	0	0	
0.209833	0.0273519	-5.14787	0.00499115	0.110981	0	0	0	
0.21	-0.0236836	5.12835	0.00499206	0.111387	0	0	0	
0.210167	0.0238776	-5.15569	0.00504326	0.110952	0	0	0	
0.210333	-0.023502	5.13752	0.00513783	0.111424	0	0	0	
0.2105	0.0331526	-5.1654	0.00522052	0.111166	0	0	0	
0.210667	-0.0294416	5.1536	0.00524576	0.111663	0	0	0	
0.210833	0.0306017	-5.16408	0.00522862	0.111426	0	0	0	
0.211	-0.0274744	5.12594	0.00522494	0.111695	0	0	0	
0.211167	0.0295522	-5.15404	0.00522993	0.111195	0	0	0	
0.211333	-0.0259319	5.14719	0.00523032	0.111443	0	0	0	
0.2115	0.0284307	-5.15061	0.00520795	0.111344	0	0	0	
0.211667	-0.0224593	5.12116	0.00518424	0.111746	0	0	0	
0.211833	0.0244146	-5.13756	0.00517398	0.111341	0	0	0	
0.212	-0.0201739	5.1099	0.00519835	0.111335	0	0	0	
0.212167	0.0297605	-5.14907	0.00522774	0.110894	0	0	0	
0.212333	-0.0253319	5.11437	0.00522574	0.111224	0	0	0	
0.2125	0.0262902	-5.12345	0.00518244	0.110963	0	0	0	
0.212667	-0.0252428	5.10652	0.0051695	0.111279	0	0	0	
0.212833	0.0323756	-5.16874	0.00519369	0.11094	0	0	0	
0.213	-0.0260425	5.11991	0.00520622	0.111326	0	0	0	
0.213167	0.027159	-5.15644	0.00516624	0.111064	0	0	0	
0.213333	-0.0195176	5.11123	0.00513235	0.111424	0	0	0	
0.2135	0.0226866	-5.15336	0.00514419	0.111009	0	0	0	
0.213667	-0.0234203	5.17597	0.00519969	0.111613	0	0	0	
0.213833	0.0291653	-5.17191	0.00524696	0.111717	0	0	0	
0.214	-0.0283181	5.1306	0.00527425	0.112218	0	0	0	
0.214167	0.0321045	-5.15632	0.00527006	0.111634	0	0	0	
0.214333	-0.0273792	5.09725	0.00523317	0.111479	0	0	0	
0.2145	0.0274747	-5.14513	0.0051679	0.110926	0	0	0	
0.214667	-0.0231809	5.15724	0.00512321	0.111441	0	0	0	
0.214833	0.0267132	-5.09656	0.00513165	0.111589	0	0	0	
0.215	-0.0256783	5.1163	0.00518458	0.11193	0	0	0	
0.215167	0.0297152	-5.16439	0.00522136	0.111457	0	0	0	
0.215333	-0.0236328	5.11629	0.0052257	0.111412	0	0	0	
0.2155	0.0291886	-5.14587	0.00521655	0.111095	0	0	0	
0.215667	-0.0262855	5.08692	0.00521884	0.111332	0	0	0	
0.215833	0.0284104	-5.0835	0.00520767	0.110921	0	0	0	
0.216	-0.0224092	5.08315	0.00518914	0.111102	0	0	0	
0.216167	0.0260625	-5.15339	0.0051784	0.110807	0	0	0	
0.216333	-0.0225474	5.16627	0.00520197	0.111405	0	0	0	
0.2165	0.0301372	-5.16357	0.00522918	0.111723	0	0	0	
0.216667	-0.025045	5.11959	0.00524194	0.112225	0	0	0	
0.216833	0.0295665	-5.16694	0.00522065	0.111722	0	0	0	
0.217	-0.0244419	5.10579	0.00519368	0.111686	0	0	0	
0.217167	0.0273467	-5.14756	0.00517225	0.111205	0	0	0	
0.217333	-0.0227573	5.07957	0.00517271	0.111418	0	0	0	
0.2175	0.0261442	-5.07019	0.00517047	0.11095	0	0	0	
0.217667	-0.0222097	5.13617	0.00517093	0.111239	0	0	0	
0.217833	0.0305358	-5.16557	0.00517919	0.11137	0	0	0	
0.218	-0.0256789	5.10648	0.00519949	0.111846	0	0	0	
0.218167	0.0271846	-5.14179	0.0051932	0.111563	0	0	0	
0.218333	-0.0253085	5.13159	0.00516315	0.111645	0	0	0	
0.2185	0.0281647	-5.19282	0.00513409	0.111832	0	0	0	
0.218667	-0.0247428	5.16145	0.00515089	0.11266	0	0	0	
0.218833	0.0293659	-5.11603	0.00520648	0.112772	0	0	0	
0.219	-0.0272053	5.1476	0.00525376	0.112617	0	0	0	
0.219167	0.0289613	-5.16108	0.00522682	0.112257	0	0	0	
0.219333	-0.0277522	5.13413	0.00512993	0.112209	0	0	0	
0.2195	0.0236514	-5.04657	0.00504376	0.112053	0	0	0	
0.219667	-0.0161233	5.0658	0.00507813	0.111697	0	0	0	
0.219833	0.0246391	-5.07682	0.0052137	0.11146	0	0	0	
0.22	-0.0332878	5.17139	0.00532593	0.111731	0	0	0	
0.220167	0.0351899	-5.15289	0.00532224	0.112284	0	0	0	
0.220333	-0.0362533	4.97927	0.00521004	0.111635	0	0	0	
0.2205	0.0112857	-4.5384	0.00503129	0.109687	0	0	0	
0.220667	0.0481454	3.66918	0.00481604	0.106926	0	0	0	
0.220833	0.0469436	-4.71779	0.00453857	0.101863	0	0	0	
0.221	-0.020996	4.11711	0.00463921	0.101132	0	0	0	
0.221167	0.0266929	-2.96477	0.00497383	0.0974603	0	0	0	
0.221333	-0.0237923	1.85498	0.00531841	0.0891611	0	0	0	
0.2215	0.0237899	-1.87963	0.00537864	0.0775163	0	0	0	
0.221667	0.0184532	3.24399	0.0054468	0.071669	0	0	0	
0.221833	0.0195505	-3.70782	0.00563379	0.0762483	0	0	0	
0.222	-0.0249585	4.07439	0.00569236	0.0808247	0	0	0	
0.222167	0.0307381	-3.50715	0.00550816	0.0843785	0	0	0	
0.222333	-0.0255375	1.70412	0.0052988	0.0720781	0	0	0	
0.2225	0.0309959	-1.16354	0.00522232	0.0534779	0	0	0	
0.222667	-0.0315143	1.74947	0.00521564	0.0337357	0	0	0	
0.222833	0.0372166	-2.18994	0.00517995	0.0373151	0	0	0	
0.223	-0.0171365	3.56938	0.00507646	0.0495185	0	0	0	
0.223167	0.0203539	-4.04841	0.00496807	0.0695213	0	0	0	
0.223333	-0.0129701	2.22775	0.00499555	0.0749499	0	0	0	
0.2235	0.0250559	-1.09378	0.00514022	0.0633121	0	0	0	
0.223667	-0.0265796	0.754817	0.00527892	0.0401998	0	0	0	
0.223833	0.0242173	-2.20509	0.00527441	0.025896	0	0	0	
0.224	-0.0142085	4.19649	0.00517803	0.0424475	0	0	0	
0.224167	0.0135641	-4.36275	0.00508735	0.0652542	0	0	0	
0.224333	-0.00903343	3.45227	0.00506563	0.0856194	0	0	0	
0.2245	0.0210341	-1.39667	0.00512256	0.073803	0	0	0	
0.224667	-0.0261832	0.664742	0.00522225	0.0514228	0	0	0	
0.224833	0.0246804	-1.68807	0.00524772	0.0298173	0	0	0	
0.225	-0.0265458	2.77788	0.00514726	0.0407025	0	0	0	
0.225167	0.0165845	-2.91899	0.00497372	0.0612349	0	0	0	
0.225333	-0.0218569	4.46349	0.00484399	0.0840691	0	0	0	
0.2255	0.0192268	-2.28524	0.00483961	0.084807	0	0	0	
0.225667	-0.0164937	1.25896	0.00494167	0.0682504	0	0	0	
0.225833	0.0227604	-0.741091	0.00510227	0.0430909	0	0	0	
0.226	-0.0269844	1.31823	0.00522652	0.024964	0	0	0	
0.226167	0.0292104	-1.90374	0.00526422	0.0290677	0	0	0	
0.226333	-0.0294716	3.80018	0.00523408	0.0461098	0	0	0	
0.2265	0.0263502	-2.6516	0.0051914	0.0633746	0	0	0	
0.226667	-0.0213447	1.44338	0.00515638	0.06259	0	0	0	
0.226833	0.0192525	-0.876545	0.0051149	0.0464513	0	0	0	
0.227	-0.00630425	1.62131	0.00506368	0.0298238	0	0	0	
0.227167	0.02519	-2.4707	0.00502873	0.036475	0	0	0	
0.227333	-0.0118153	3.41173	0.00500132	0.0528033	0	0	0	
0.2275	0.0247626	-3.88263	0.00495629	0.07166	0	0	0	
0.227667	-0.016209	2.52396	0.00495279	0.0775863	0	0	0	
0.227833	0.0215841	-1.21138	0.00499549	0.0646228	0	0	0	
0.228	-0.0203771	0.764347	0.00506475	0.0436989	0	0	0	
0.228167	0.0325663	-1.67423	0.00509504	0.0274861	0	0	0	
0.228333	-0.0220369	3.3257	0.00510985	0.0382728	0	0	0	
0.2285	0.0356145	-3.98726	0.00511849	0.0574187	0	0	0	
0.228667	-0.023093	3.37246	0.00513075	0.0765685	0	0	0	
0.228833	0.0238688	-1.47435	0.00511593	0.0693977	0	0	0	
0.229	-0.0206749	0.686678	0.00511066	0.0503623	0	0	0	
0.229167	0.0174436	-1.26372	0.00507651	0.0286655	0	0	0	
0.229333	-0.017715	2.68119	0.00500109	0.0352424	0	0	0	
0.2295	0.00744241	-2.38638	0.00490049	0.0537288	0	0	0	
0.229667	-0.0181523	4.46857	0.00485365	0.0743558	0	0	0	
0.229833	0.0199997	-2.50096	0.00491902	0.0799298	0	0	0	
0.23	-0.0179728	1.32594	0.00504439	0.0660355	0	0	0	
0.230167	0.0255952	-0.732545	0.00514787	0.0446202	0	0	0	
0.230333	-0.0325519	1.16987	0.00518374	0.0249407	0	0	0	
0.2305	0.0250752	-2.02542	0.00515538	0.0275473	0	0	0	
0.230667	-0.0310197	4.27532	0.00510454	0.04563	0	0	0	
0.230833	0.021087	-2.81896	0.00509606	0.0656643	0	0	0	
0.231	-0.0197787	1.56414	0.00513644	0.066302	0	0	0	
0.231167	0.0255036	-0.861503	0.00518099	0.0491678	0	0	0	
0.231333	-0.0108334	1.40748	0.00513656	0.0298185	0	0	0	
0.2315	0.0162972	-2.99994	0.00498913	0.0351039	0	0	0	
0.231667	0.00224711	3.43873	0.00484382	0.0554044	0	0	0	
0.231833	0.0155932	-4.08671	0.00479694	0.0747679	0	0	0	
0.232	-0.0164059	3.04119	0.00488915	0.0836151	0	0	0	
0.232167	0.0200352	-1.30455	0.00502832	0.0679475	0	0	0	
0.232333	-0.0181209	0.720281	0.00512967	0.0474038	0	0	0	
0.2325	0.0402682	-1.84122	0.00516486	0.0298499	0	0	0	
0.232667	-0.0266794	2.76284	0.00515918	0.0399337	0	0	0	
0.232833	0.0392878	-3.82558	0.0051036	0.0570539	0	0	0	
0.233	-0.0231267	3.52583	0.00507607	0.0756676	0	0	0	
0.233167	0.0237071	-1.51043	0.00507986	0.0689709	0	0	0	
0.233333	-0.0179282	0.721418	0.00512019	0.0521594	0	0	0	
0.2335	0.0151049	-0.993474	0.00510136	0.0293999	0	0	0	
0.233667	-0.0101533	2.41731	0.0050214	0.0314901	0	0	0	
0.233833	0.000373278	-2.0964	0.00494775	0.0480522	0	0	0	
0.234	-0.011123	4.24767	0.00494203	0.0652488	0	0	0	
0.234167	0.0179342	-2.45119	0.00501979	0.0727752	0	0	0	
0.234333	-0.0171299	1.25064	0.00512216	0.0601793	0	0	0	
0.2345	0.0208585	-0.672208	0.00517192	0.0425193	0	0	0	
0.234667	-0.0285679	1.17844	0.00515175	0.0243995	0	0	0	
0.234833	0.0232016	-2.10535	0.00509546	0.0276584	0	0	0	
0.235	-0.0334153	4.60125	0.00502892	0.0461289	0	0	0	
0.235167	0.0239433	-3.2983	0.00500946	0.0684433	0	0	0	
0.235333	-0.0188139	1.71162	0.00504773	0.0703839	0	0	0	
0.2355	0.0195202	-0.839761	0.00510942	0.0534038	0	0	0	
0.235667	-0.0084844	1.17874	0.00509906	0.0308655	0	0	0	
0.235833	0.0114042	-3.2005	0.00500945	0.0332899	0	0	0	
0.236	-0.0009575	3.75844	0.00494954	0.0569816	0	0	0	
0.236167	0.0122855	-4.33995	0.00495267	0.0784103	0	0	0	
0.236333	-0.0106436	3.4206	0.00501009	0.0899058	0	0	0	
0.2365	0.0158717	-1.34224	0.00508844	0.0715353	0	0	0	
0.236667	-0.0171561	0.651208	0.00515297	0.0495071	0	0	0	
0.236833	0.0327071	-2.00292	0.0051492	0.0312277	0	0	0	
0.237	-0.0188346	2.37335	0.00508442	0.0428309	0	0	0	
0.237167	0.0339407	-3.65136	0.00500408	0.0600927	0	0	0	
0.237333	-0.0214629	3.79487	0.00499633	0.0790743	0	0	0	
0.2375	0.0183648	-1.64661	0.00502005	0.0732362	0	0	0	
0.237667	-0.0127608	0.829236	0.00506547	0.0571498	0	0	0	
0.237833	0.0122214	-0.856012	0.00509403	0.0331498	0	0	0	
0.238	-0.00890476	2.13518	0.0050759	0.0296202	0	0	0	
0.238167	0.00379573	-2.17584	0.00502677	0.0442965	0	0	0	
0.238333	-0.00389376	4.08938	0.00498794	0.0605842	0	0	0	
0.2385	0.0137343	-2.38053	0.00502155	0.0702333	0	0	0	
0.238667	-0.0130666	1.20914	0.00511019	0.0585414	0	0	0	
0.238833	0.0161383	-0.674062	0.00517515	0.0420216	0	0	0	
0.239	-0.0240171	1.35046	0.00517371	0.0249458	0	0	0	
0.239167	0.0236801	-1.96052	0.00511827	0.029913	0	0	0	
0.239333	-0.0277735	4.51506	0.00501819	0.0466546	0	0	0	
0.2395	0.0226957	-3.57687	0.00493605	0.0690877	0	0	0	
0.239667	-0.0109647	1.88483	0.00492565	0.0719072	0	0	0	
0.239833	0.0131763	-0.904861	0.00499806	0.0573192	0	0	0	
0.24	-0.00682897	0.968787	0.00508856	0.0334288	0	0	0	
0.240167	0.0105919	-2.8396	0.00510531	0.0300786	0	0	0	
0.240333	-0.00519073	4.17488	0.00508693	0.0531862	0	0	0	
0.2405	0.0123506	-4.48209	0.00507671	0.0764273	0	0	0	
0.240667	-0.0124612	3.55168	0.00512372	0.092162	0	0	0	
0.240833	0.0203115	-1.33997	0.00519732	0.0743437	0	0	0	
0.241	-0.0175531	0.622515	0.00521759	0.050754	0	0	0	
0.241167	0.0269439	-1.97456	0.00512602	0.0308846	0	0	0	
0.241333	-0.0179875	2.52077	0.00498558	0.0428687	0	0	0	
0.2415	0.020017	-3.51942	0.00486978	0.0623222	0	0	0	
0.241667	-0.0113724	3.9775	0.00486472	0.0830642	0	0	0	
0.241833	0.0115334	-1.82478	0.00495998	0.0794706	0	0	0	
0.242	-0.0125573	1.14535	0.00510299	0.0628945	0	0	0	
0.242167	0.0170295	-0.852077	0.00520426	0.037982	0	0	0	
0.242333	-0.011028	0.911089	0.00519184	0.0228836	0	0	0	
0.2425	0.0102391	-2.18002	0.00511465	0.0260802	0	0	0	
0.242667	-0.00574345	3.5244	0.00504818	0.0404455	0	0	0	
0.242833	0.00840377	-2.36209	0.00505208	0.0575687	0	0	0	
0.243	-0.00913203	1.24727	0.00511109	0.0568822	0	0	0	
0.243167	0.0147003	-0.938203	0.00515841	0.0434323	0	0	0	
0.243333	-0.0100898	2.03798	0.0051438	0.0292257	0	0	0	
0.2435	0.0206212	-3.71791	0.00508292	0.0396044	0	0	0	
0.243667	-0.018415	4.60686	0.0050094	0.0587465	0	0	0	
0.243833	0.016135	-3.81451	0.00495934	0.0794847	0	0	0	
0.244	-0.00799237	1.88493	0.004952	0.0782382	0	0	0	
0.244167	0.00827734	-1.00967	0.00499176	0.0605748	0	0	0	
0.244333	-0.00670458	0.962384	0.00507315	0.0365421	0	0	0	
0.2445	0.00664956	-2.73615	0.00513101	0.0283609	0	0	0	
0.244667	0.00245353	4.41841	0.00514138	0.0493319	0	0	0	
0.244833	0.00683106	-4.50535	0.00512625	0.0725321	0	0	0	
0.245	-0.0131356	3.46272	0.00514072	0.0907564	0	0	0	
0.245167	0.0117874	-1.37385	0.00516001	0.0752654	0	0	0	
0.245333	-0.0066967	0.655667	0.00511519	0.0516581	0	0	0	
0.2455	-0.00193047	-1.9163	0.0050166	0.0307907	0	0	0	
0.245667	-0.00132151	2.42061	0.00495694	0.042598	0	0	0	
0.245833	0.0229654	-3.05705	0.00495947	0.0630011	0	0	0	
0.246	-0.0232855	4.17107	0.00495715	0.0848787	0	0	0	
0.246167	0.0101476	-2.01792	0.00494348	0.0837582	0	0	0	
0.246333	0.0234166	1.14388	0.00503316	0.0665685	0	0	0	
0.2465	-0.0111456	-0.747483	0.00524284	0.0413001	0	0	0	
0.246667	-0.00888087	1.59189	0.00541818	0.0258583	0	0	0	
0.246833	0.0137721	-2.01228	0.00540156	0.0327649	0	0	0	
0.247	-0.0137415	3.76209	0.00527902	0.0501875	0	0	0	
0.247167	0.0250995	-2.56108	0.00523084	0.0657733	0	0	0	
0.247333	0.00645181	1.3006	0.00521173	0.061992	0	0	0	
0.2475	-0.00368446	-0.821555	0.0050535	0.0452148	0	0	0	
0.247667	0.00568853	1.60565	0.00484078	0.0286094	0	0	0	
0.247833	0.00532255	-2.10195	0.00478797	0.0349279	0	0	0	
0.248	-0.00575437	3.61183	0.00491287	0.0494525	0	0	0	
0.248167	0.0173919	-3.88379	0.00501925	0.0694145	0	0	0	
0.248333	-0.00329562	2.15111	0.00505565	0.0747092	0	0	0	
0.2485	0.00437292	-1.09941	0.00511275	0.0629182	0	0	0	
0.248667	-0.00467934	0.77668	0.00521209	0.0404905	0	0	0	
0.248833	0.0165753	-2.00111	0.00526804	0.0264673	0	0	0	
0.249	-0.0137087	3.85087	0.00525545	0.0419711	0	0	0	
0.249167	0.0150364	-3.65329	0.00519499	0.0652687	0	0	0	
0.249333	-0.00630905	3.0819	0.00514477	0.0830419	0	0	0	
0.2495	0.011678	-1.44115	0.00514577	0.0720949	0	0	0	
0.249667	-0.0092095	0.729412	0.00518104	0.049257	0	0	0	
0.249833	0.00841844	-1.59271	0.00516827	0.0299075	0	0	0	
0.25	-0.00833724	2.4464	0.00509114	0.0392075	0	0	0	
0.250167	0.000241034	-2.30047	0.00499763	0.0574136	0	0	0	
0.250333	-0.00782748	4.08876	0.00496511	0.0750255	0	0	0	
0.2505	0.00814571	-2.10647	0.00500706	0.0761211	0	0	0	
0.250667	-0.00207472	1.21638	0.00508006	0.061272	0	0	0	
0.250833	0.0105542	-0.743047	0.00515319	0.0416019	0	0	0	
0.251	-0.0171879	1.32947	0.00521339	0.0248225	0	0	0	
0.251167	0.0151239	-2.03527	0.00524562	0.02968	0	0	0	
0.251333	-0.0176067	3.82591	0.0052223	0.0479449	0	0	0	
0.2515	0.013524	-2.62759	0.00516489	0.0654752	0	0	0	
0.251667	-0.00999955	1.42412	0.00511493	0.0642297	0	0	0	
0.251833	0.0095379	-0.837825	0.00508096	0.0468133	0	0	0	
0.252	0.00459581	1.57527	0.00501905	0.0296706	0	0	0	
0.252167	0.00395325	-2.55532	0.00494868	0.0364763	0	0	0	
0.252333	0.00758534	3.35101	0.00490921	0.0542328	0	0	0	
0.2525	0.00936353	-4.07022	0.00491368	0.0738235	0	0	0	
0.252667	-0.00364459	2.53013	0.00496979	0.0805283	0	0	0	
0.252833	0.00878065	-1.17356	0.00506521	0.0662258	0	0	0	
0.253	-0.0118654	0.694217	0.00516157	0.0443831	0	0	0	
0.253167	0.0262964	-1.67177	0.00519805	0.0276396	0	0	0	
0.253333	-0.0124051	3.21025	0.00517809	0.0392585	0	0	0	
0.2535	0.0250059	-4.0015	0.00514048	0.0593458	0	0	0	
0.253667	-0.011917	3.20107	0.00512874	0.0782206	0	0	0	
0.253833	0.0131508	-1.42395	0.0051196	0.0698529	0	0	0	
0.254	-0.00792065	0.654152	0.00511026	0.049939	0	0	0	
0.254167	0.00430594	-1.14685	0.00506256	0.0278868	0	0	0	
0.254333	-0.0028564	2.35928	0.00498916	0.0340122	0	0	0	
0.2545	-0.00993763	-2.25923	0.00491194	0.0521816	0	0	0	
0.254667	0.00139187	4.36067	0.00488158	0.072549	0	0	0	
0.254833	0.00221159	-2.42322	0.00494947	0.0786115	0	0	0	
0.255	-0.00678068	1.28955	0.00507814	0.0650572	0	0	0	
0.255167	0.0161103	-0.690429	0.00517321	0.0439443	0	0	0	
0.255333	-0.0194976	1.12596	0.00517089	0.0245255	0	0	0	
0.2555	0.0120469	-2.16638	0.00511006	0.0275866	0	0	0	
0.255667	-0.0214702	4.35572	0.00506958	0.0469808	0	0	0	
0.255833	0.0132387	-2.85076	0.00507907	0.0677599	0	0	0	
0.256	-0.00498605	1.53119	0.00511014	0.0681933	0	0	0	
0.256167	0.00557698	-0.819023	0.00515044	0.049743	0	0	0	
0.256333	0.00718156	1.39611	0.00516955	0.0296928	0	0	0	
0.2565	0.00303573	-3.04952	0.00513209	0.035563	0	0	0	
0.256667	0.0143741	3.37189	0.00505311	0.0573118	0	0	0	
0.256833	0.00217492	-4.11532	0.00499184	0.0773496	0	0	0	
0.257	-0.00102579	2.97457	0.00503094	0.0858166	0	0	0	
0.257167	0.0127221	-1.2743	0.00512224	0.0687165	0	0	0	
0.257333	-0.00713121	0.675104	0.00516651	0.0473791	0	0	0	
0.2575	0.0236801	-1.79287	0.00512036	0.0301778	0	0	0	
0.257667	-0.00702472	2.50978	0.00505424	0.0412046	0	0	0	
0.257833	0.0230341	-3.74333	0.0050373	0.0589079	0	0	0	
0.258	-0.00920326	3.38247	0.00509094	0.0769418	0	0	0	
0.258167	0.0136689	-1.47095	0.00515116	0.0695409	0	0	0	
0.258333	-0.00769004	0.709141	0.00517955	0.0522291	0	0	0	
0.2585	0.00516419	-0.933439	0.00512471	0.0294833	0	0	0	
0.258667	0.00107291	2.19352	0.00499148	0.0313558	0	0	0	
0.258833	-0.0144838	-2.05294	0.00485802	0.047837	0	0	0	
0.259	0.0104803	4.15828	0.00482149	0.0650707	0	0	0	
0.259167	-0.00172397	-2.33116	0.00493625	0.0726318	0	0	0	
0.259333	-0.00346084	1.2191	0.00512691	0.0599488	0	0	0	
0.2595	0.0123831	-0.639087	0.00525456	0.0421123	0	0	0	
0.259667	-0.0230032	1.18147	0.00523424	0.0243055	0	0	0	
0.259833	0.0152859	-2.09332	0.00509614	0.0281842	0	0	0	
0.26	-0.0215468	4.54007	0.00493837	0.0470615	0	0	0	
0.260167	0.00573842	-3.18885	0.00487674	0.0691141	0	0	0	
0.260333	0.00066628	1.65873	0.0049331	0.0704219	0	0	0	
0.2605	0.00353149	-0.816399	0.00505791	0.0529942	0	0	0	
0.260667	0.00429052	1.15255	0.00513083	0.0305044	0	0	0	
0.260833	-0.000271753	-3.14058	0.0050833	0.0331445	0	0	0	
0.261	0.010464	3.62272	0.0050184	0.0572092	0	0	0	
0.261167	0.0066252	-4.29845	0.00503209	0.0788799	0	0	0	
0.261333	-0.00911186	3.29653	0.00511398	0.0903314	0	0	0	
0.2615	0.00669214	-1.31632	0.00513832	0.0714886	0	0	0	
0.261667	0.000836603	0.638188	0.00507009	0.049142	0	0	0	
0.261833	0.0148073	-1.96875	0.00499507	0.0311205	0	0	0	
0.262	-0.00474332	2.1342	0.00497669	0.0432336	0	0	0	
0.262167	0.0206697	-3.57308	0.004983	0.0607339	0	0	0	
0.262333	-0.00569152	3.65308	0.00501759	0.0796195	0	0	0	
0.2625	0.00900988	-1.59814	0.00508419	0.0736173	0	0	0	
0.262667	-0.0100075	0.814818	0.00515391	0.057342	0	0	0	
0.262833	0.00380753	-0.808795	0.0051435	0.0332705	0	0	0	
0.263	0.00652681	2.0055	0.00503081	0.0297297	0	0	0	
0.263167	-0.0106558	-2.18539	0.004951	0.0444105	0	0	0	
0.263333	0.00679396	4.03191	0.00498129	0.0612981	0	0	0	
0.2635	0.00321614	-2.27189	0.00508641	0.0706856	0	0	0	
0.263667	-0.00135064	1.1693	0.00515889	0.0587574	0	0	0	
0.263833	0.00406283	-0.644413	0.00515503	0.0415001	0	0	0	
0.264	-0.00956932	1.35254	0.00510596	0.0247644	0	0	0	
0.264167	0.005233	-1.87645	0.00504623	0.0303415	0	0	0	
0.264333	-0.00985822	4.42429	0.00498942	0.0472718	0	0	0	
0.2645	0.00945956	-3.48057	0.00497713	0.0692675	0	0	0	
0.264667	-0.0036371	1.82573	0.00501622	0.0716599	0	0	0	
0.264833	0.00431757	-0.9229	0.00506785	0.0570671	0	0	0	
0.265	0.00381222	1.04797	0.00509555	0.0337596	0	0	0	
0.265167	-0.00312943	-3.17758	0.00506704	0.0311827	0	0	0	
0.265333	0.00840102	4.08195	0.00503172	0.0552849	0	0	0	
0.2655	-0.00564629	-4.40324	0.00500112	0.0778277	0	0	0	
0.265667	0.00659481	3.36982	0.00501738	0.0924868	0	0	0	
0.265833	0.00117988	-1.26878	0.0051037	0.0731751	0	0	0	
0.266	-0.00428568	0.618546	0.00519955	0.0499109	0	0	0	
0.266167	0.01277	-2.18106	0.0051819	0.0314633	0	0	0	
0.266333	-0.00298235	2.32529	0.0050361	0.0462789	0	0	0	
0.2665	0.00679193	-3.54004	0.00488148	0.066713	0	0	0	
0.266667	-0.00214952	3.91856	0.00485721	0.0869701	0	0	0	
0.266833	0.00118626	-1.75501	0.00495161	0.0812246	0	0	0	
0.267	0.00384687	1.12852	0.00507437	0.0636899	0	0	0	
0.267167	0.00235021	-0.869365	0.00515952	0.0383383	0	0	0	
0.267333	0.00150745	1.05664	0.00515286	0.0234931	0	0	0	
0.2675	-0.00051823	-2.24536	0.00509735	0.0276361	0	0	0	
0.267667	0.00401529	3.50336	0.00505803	0.0426673	0	0	0	
0.267833	0.000646257	-2.21003	0.00507601	0.0591435	0	0	0	
0.268	0.00209448	1.19618	0.00513573	0.0573043	0	0	0	
0.268167	0.005696	-0.897451	0.00517853	0.0429971	0	0	0	
0.268333	-0.0051592	2.01322	0.00515226	0.0290494	0	0	0	
0.2685	0.00304446	-3.41077	0.005054	0.0399068	0	0	0	
0.268667	0.00565125	4.43761	0.00494594	0.0586051	0	0	0	
0.268833	0.00104508	-3.69147	0.00493545	0.0788799	0	0	0	
0.269	0.00208166	1.82679	0.00502963	0.0773222	0	0	0	
0.269167	0.00346848	-0.996263	0.00511621	0.0601991	0	0	0	
0.269333	0.002423	1.0492	0.005134	0.0369586	0	0	0	
0.2695	-0.00391297	-2.71826	0.00509582	0.0291878	0	0	0	
0.269667	0.00759876	3.60484	0.00507586	0.0464838	0	0	0	
0.269833	-0.00323331	-4.39581	0.00508384	0.0652303	0	0	0	
0.27	0.00486407	3.06199	0.00511171	0.0815517	0	0	0	
0.270167	-0.000407518	-1.12942	0.00515507	0.0683754	0	0	0	
0.270333	-0.0041393	0.77065	0.00522478	0.0493814	0	0	0	
0.2705	0.0293763	-2.65519	0.00529381	0.0332877	0	0	0	
0.270667	-0.0615999	4.43404	0.00538258	0.0498551	0	0	0	
0.270833	-0.0395108	-4.36454	0.0055674	0.0736964	0	0	0	
0.271	0.00328086	4.50299	0.00556818	0.0965697	0	0	0	
0.271167	-0.00232794	-3.32444	0.00542449	0.0924976	0	0	0	
0.271333	-0.000808251	3.95598	0.00524299	0.0868471	0	0	0	
0.2715	0.00683111	-3.47597	0.00520432	0.0736047	0	0	0	
0.271667	-0.0413839	3.75096	0.00512271	0.0749022	0	0	0	
0.271833	0.0156722	-3.65275	0.00492001	0.0788363	0	0	0	
0.272	-0.00295611	4.67486	0.00480415	0.0902752	0	0	0	
0.272167	0.000930098	-4.24576	0.00487545	0.0960758	0	0	0	
0.272333	0.00980223	4.57902	0.00500513	0.101398	0	0	0	
0.2725	-0.00337176	-4.05551	0.00514347	0.100196	0	0	0	
0.272667	0.0042616	4.67085	0.00525939	0.102493	0	0	0	
0.272833	-0.0027683	-4.68335	0.00527801	0.104701	0	0	0	
0.273	0.00605781	5.00261	0.00522433	0.109126	0	0	0	
0.273167	0.00447449	-4.84289	0.00521355	0.111365	0	0	0	
0.273333	-0.000752995	4.73557	0.00525086	0.111443	0	0	0	
0.2735	-0.00444564	-4.79914	0.00522397	0.111155	0	0	0	
0.273667	0.0128068	4.8331	0.00515729	0.110911	0	0	0	
0.273833	-0.00267484	-4.96884	0.00517645	0.112516	0	0	0	
0.274	0.000356705	4.81902	0.00526498	0.112442	0	0	0	
0.274167	0.00238684	-4.93297	0.00528132	0.113256	0	0	0	
0.274333	0.00339286	4.76171	0.00521627	0.111761	0	0	0	
0.2745	0.00144579	-5.02746	0.00517154	0.112767	0	0	0	
0.274667	0.00188406	4.7915	0.00518047	0.111892	0	0	0	
0.274833	-0.000301791	-4.9735	0.00517893	0.113166	0	0	0	
0.275	0.00387665	4.66731	0.00514497	0.111469	0	0	0	
0.275167	-0.00108452	-4.95266	0.00511133	0.111912	0	0	0	
0.275333	0.00749038	4.72019	0.00511324	0.110485	0	0	0	
0.2755	-0.00513073	-4.96842	0.00516224	0.112046	0	0	0	
0.275667	0.00428284	4.7381	0.00524175	0.111305	0	0	0	
0.275833	0.00318627	-4.96711	0.00528777	0.112544	0	0	0	
0.276	-1.56608E-05	4.73049	0.00525808	0.111274	0	0	0	
0.276167	0.00100295	-5.05006	0.00518573	0.112326	0	0	0	
0.276333	0.00567869	4.70848	0.00513132	0.111309	0	0	0	
0.2765	-0.00503299	-4.93798	0.0051074	0.112063	0	0	0	
0.276667	0.00826694	4.68413	0.00510425	0.110766	0	0	0	
0.276833	-0.00238267	-4.95045	0.00512621	0.111323	0	0	0	
0.277	0.0020585	4.77432	0.00517434	0.110774	0	0	0	
0.277167	0.00161757	-4.97003	0.00521495	0.112	0	0	0	
0.277333	0.00385313	4.7025	0.00521261	0.111193	0	0	0	
0.2775	-0.00415132	-4.99326	0.00517707	0.111598	0	0	0	
0.277667	0.00846959	4.78288	0.00515903	0.110905	0	0	0	
0.277833	-0.00320188	-4.9918	0.0051801	0.112108	0	0	0	
0.278	0.0058478	4.81182	0.00521335	0.112114	0	0	0	
0.278167	-0.00303462	-4.93531	0.00521698	0.112965	0	0	0	
0.278333	0.00589225	4.80845	0.00519649	0.112277	0	0	0	
0.2785	-0.00192676	-5.0195	0.00517028	0.112653	0	0	0	
0.278667	0.0075948	4.76349	0.00515681	0.111877	0	0	0	
0.278833	-0.0043597	-4.8669	0.00516049	0.11193	0	0	0	
0.279	0.00711301	4.71142	0.00518263	0.111	0	0	0	
0.279167	-0.00275134	-4.89239	0.00522275	0.11119	0	0	0	
0.279333	-0.00416112	4.84188	0.00528023	0.111192	0	0	0	
0.2795	0.00395111	-4.84557	0.00521668	0.111702	0	0	0	
0.279667	0.0720107	4.52978	0.00489501	0.110732	0	0	0	
0.279833	-0.0744706	-4.08385	0.00530504	0.109329	0	0	0	
0.28	0.0231401	4.58503	0.00431104	0.107387	0	0	0	
0.280167	-0.0232998	-4.92445	0.00440652	0.10852	0	0	0	
0.280333	-0.00726821	4.97983	0.00410888	0.110926	0	0	0	
0.2805	0.0346834	-4.85081	0.00529303	0.113144	0	0	0	
0.280667	-0.0401615	4.75891	0.00547192	0.112376	0	0	0	
0.280833	-0.0319487	-4.22188	0.00473378	0.108773	0	0	0	
0.281	-0.15695	4.70453	0.00525219	0.10483	0	0	0	
0.281167	0.025577	-4.6303	0.00517843	0.104105	0	0	0	
0.281333	0.0189263	4.84639	0.00556257	0.106661	0	0	0	
0.2815	-0.0115537	-4.81039	0.00494655	0.110534	0	0	0	
0.281667	0.0019918	4.88937	0.0051948	0.111923	0	0	0	
0.281833	-0.00578615	-4.82737	0.00545721	0.111702	0	0	0	
0.282	0.0146152	4.74648	0.00534219	0.111303	0	0	0	
0.282167	-0.00770012	-4.77918	0.00510041	0.11098	0	0	0	
0.282333	0.000409117	4.80904	0.00504707	0.111314	0	0	0	
0.2825	0.0125171	-4.8298	0.00515113	0.111477	0	0	0	
0.282667	0.00402411	4.8157	0.00517066	0.111611	0	0	0	
0.282833	-0.0136581	-4.87988	0.0050515	0.111588	0	0	0	
0.283	0.0131277	4.82083	0.00500333	0.111765	0	0	0	
0.283167	-0.00871365	-4.85568	0.00511564	0.112079	0	0	0	
0.283333	0.0085313	4.81464	0.00526031	0.11218	0	0	0	
0.2835	-0.00227073	-4.89703	0.00531255	0.11215	0	0	0	
0.283667	0.00552048	4.78504	0.00527072	0.111878	0	0	0	
0.283833	-0.00200117	-4.85668	0.00518231	0.111615	0	0	0	
0.284	0.00766048	4.77553	0.0050938	0.111377	0	0	0	
0.284167	-0.0114246	-4.82667	0.00505621	0.111331	0	0	0	
0.284333	0.0159685	4.77018	0.00509337	0.11133	0	0	0	
0.2845	-0.00627174	-4.8434	0.00516493	0.1114	0	0	0	
0.284667	0.00762902	4.78021	0.00522784	0.111332	0	0	0	
0.284833	-0.00224613	-4.87458	0.00525672	0.111462	0	0	0	
0.285	0.00475471	4.76543	0.00523976	0.111449	0	0	0	
0.285167	-0.00443298	-4.8444	0.00517837	0.111395	0	0	0	
0.285333	0.0113688	4.7525	0.00511748	0.111299	0	0	0	
0.2855	-0.00611339	-4.85134	0.00509033	0.111198	0	0	0	
0.285667	0.0143797	4.83259	0.00510405	0.111509	0	0	0	
0.285833	-0.0125141	-4.86255	0.00513049	0.111962	0	0	0	
0.286	0.0147336	4.77161	0.00516335	0.112101	0	0	0	
0.286167	-0.00944673	-4.86583	0.00519037	0.111794	0	0	0	
0.286333	0.011437	4.8023	0.0052236	0.111579	0	0	0	
0.2865	-0.00360214	-4.86404	0.00525775	0.111756	0	0	0	
0.286667	0.00582697	4.83462	0.00526915	0.112241	0	0	0	
0.286833	-0.00402112	-4.79897	0.00521737	0.112446	0	0	0	
0.287	0.00871925	4.76067	0.00512656	0.112102	0	0	0	
0.287167	-0.00473698	-4.85553	0.0050617	0.111567	0	0	0	
0.287333	0.0120411	4.79502	0.00506091	0.111346	0	0	0	
0.2875	-0.0105851	-4.77937	0.00509811	0.111629	0	0	0	
0.287667	0.0138819	4.78989	0.00516006	0.111871	0	0	0	
0.287833	-0.00474096	-4.78286	0.0052263	0.11199	0	0	0	
0.288	0.00607093	4.82032	0.00525886	0.111986	0	0	0	
0.288167	-0.00579948	-4.86345	0.0052274	0.11224	0	0	0	
0.288333	0.0119066	4.81338	0.00518184	0.112315	0	0	0	
0.2885	-0.00704768	-4.77487	0.00517287	0.112406	0	0	0	
0.288667	0.00983087	4.79386	0.00519628	0.112195	0	0	0	
0.288833	-0.00448975	-4.77642	0.00520506	0.112108	0	0	0	
0.289	0.0100006	4.80729	0.00518617	0.112016	0	0	0	
0.289167	-0.0106403	-4.7693	0.00515068	0.112118	0	0	0	
0.289333	0.0147445	4.78681	0.00514466	0.111963	0	0	0	
0.2895	-0.00710137	-4.76237	0.00519006	0.112008	0	0	0	
0.289667	0.00746531	4.79646	0.00525817	0.111931	0	0	0	
0.289833	-0.00396359	-4.7763	0.00527313	0.112163	0	0	0	
0.29	0.0109898	4.80233	0.00522195	0.112141	0	0	0	
0.290167	-0.00855153	-4.76978	0.00515298	0.112258	0	0	0	
0.290333	0.0120321	4.79469	0.00511958	0.1121	0	0	0	
0.2905	-0.0114957	-4.75626	0.00512241	0.112122	0	0	0	
0.290667	0.0140678	4.78856	0.00515873	0.112015	0	0	0	
0.290833	-0.00754328	-4.75623	0.00521078	0.112078	0	0	0	
0.291	0.00891353	4.78806	0.00524585	0.111999	0	0	0	
0.291167	-0.00461519	-4.76588	0.00522826	0.112095	0	0	0	
0.291333	0.0100468	4.79508	0.00518092	0.112067	0	0	0	
0.2915	-0.00905619	-4.75682	0.00514301	0.112176	0	0	0	
0.291667	0.0117805	4.77926	0.00514295	0.112057	0	0	0	
0.291833	-0.00920971	-4.74614	0.00516338	0.111951	0	0	0	
0.292	0.0120307	4.78889	0.00517735	0.111872	0	0	0	
0.292167	-0.00952676	-4.75081	0.00517367	0.111976	0	0	0	
0.292333	0.0130103	4.7861	0.00517512	0.11207	0	0	0	
0.2925	-0.00814404	-4.7546	0.00518747	0.11216	0	0	0	
0.292667	0.0119196	4.76963	0.00520329	0.112061	0	0	0	
0.292833	-0.00899343	-4.75966	0.00520402	0.111961	0	0	0	
0.293	0.0123199	4.77973	0.00520351	0.111905	0	0	0	
0.293167	-0.00972563	-4.73821	0.00519701	0.111916	0	0	0	
0.293333	0.0125038	4.77623	0.00518077	0.111975	0	0	0	
0.2935	-0.0088032	-4.74166	0.00515743	0.111959	0	0	0	
0.293667	0.013458	4.74685	0.00515373	0.11186	0	0	0	
0.293833	-0.00936246	-4.75742	0.00516641	0.111665	0	0	0	
0.294	0.0155974	4.76151	0.00517818	0.111614	0	0	0	
0.294167	-0.0122464	-4.7438	0.00517389	0.111647	0	0	0	
0.294333	0.0132593	4.76625	0.00518815	0.111846	0	0	0	
0.2945	-0.00765282	-4.7456	0.00522381	0.111839	0	0	0	
0.294667	0.0115673	4.7356	0.00525105	0.111785	0	0	0	
0.294833	-0.00988622	-4.76777	0.0052365	0.111414	0	0	0	
0.295	0.0140013	4.72101	0.00520485	0.111285	0	0	0	
0.295167	-0.0108443	-4.73708	0.00518348	0.110965	0	0	0	
0.295333	0.0173807	4.71081	0.00518508	0.111128	0	0	0	
0.2955	-0.0131191	-4.74121	0.00519382	0.110898	0	0	0	
0.295667	0.0162125	4.7203	0.00520654	0.111165	0	0	0	
0.295833	-0.0138969	-4.79199	0.00520382	0.111068	0	0	0	
0.296	0.0146255	4.73382	0.00519347	0.111475	0	0	0	
0.296167	-0.0103992	-4.79581	0.00518652	0.111288	0	0	0	
0.296333	0.0164484	4.72799	0.00518846	0.111557	0	0	0	
0.2965	-0.0130378	-4.78739	0.00518965	0.111182	0	0	0	
0.296667	0.0167224	4.77944	0.00520232	0.111806	0	0	0	
0.296833	-0.00988354	-4.78083	0.00521874	0.111876	0	0	0	
0.297	0.0121464	4.72813	0.00522201	0.11215	0	0	0	
0.297167	-0.0109996	-4.78858	0.00519601	0.111459	0	0	0	
0.297333	0.0181293	4.72105	0.0051778	0.111335	0	0	0	
0.2975	-0.0125706	-4.76996	0.00517983	0.110952	0	0	0	
0.297667	0.0173255	4.68859	0.00518702	0.111214	0	0	0	
0.297833	-0.0151735	-4.67517	0.00517489	0.110704	0	0	0	
0.298	0.0199232	4.69565	0.00517721	0.110837	0	0	0	
0.298167	-0.0131481	-4.79583	0.00519485	0.110746	0	0	0	
0.298333	0.0174853	4.77708	0.00520848	0.111552	0	0	0	
0.2985	-0.0129043	-4.78313	0.00519604	0.11192	0	0	0	
0.298667	0.0148999	4.77273	0.00519353	0.112399	0	0	0	
0.298833	-0.0120087	-4.77185	0.00518963	0.112271	0	0	0	
0.299	0.0198145	4.81489	0.00517052	0.112703	0	0	0	
0.299167	-0.0122492	-4.93501	0.00518257	0.113142	0	0	0	
0.299333	-0.00963941	4.80147	0.00529109	0.113101	0	0	0	
0.2995	0.0529216	-3.95596	0.0054633	0.109027	0	0	0	
0.299667	0.0487419	3.36291	0.00567915	0.0997019	0	0	0	
0.299833	-0.0150481	-3.47323	0.00561725	0.0913099	0	0	0	
0.3	0.0182449	1.94854	0.00538167	0.0867789	0	0	0	
0.300167	-0.0121668	-1.33377	0.0051128	0.0817923	0	0	0	
0.300333	0.0211343	1.21679	0.00499079	0.0755649	0	0	0	
0.3005	0.0195552	-1.97146	0.00485908	0.0702604	0	0	0	
0.300667	0.0100338	4.48826	0.00466922	0.0778068	0	0	0	
0.300833	-0.0163622	-4.4993	0.00464561	0.0912527	0	0	0	
0.301	0.0184855	3.0213	0.00485655	0.0967652	0	0	0	
0.301167	-0.0108371	-1.6583	0.00508764	0.0805835	0	0	0	
0.301333	0.0140799	0.898215	0.00515959	0.0520898	0	0	0	
0.3015	-0.0218611	-1.4248	0.00507805	0.0313692	0	0	0	
0.301667	0.0263607	1.93418	0.00496732	0.0383596	0	0	0	
0.301833	-0.0275357	-2.38615	0.00492836	0.0567991	0	0	0	
0.302	0.0172098	3.8709	0.00497555	0.0779902	0	0	0	
0.302167	-0.0169516	-2.04912	0.00505348	0.081843	0	0	0	
0.302333	0.0194995	1.19353	0.00509245	0.0658168	0	0	0	
0.3025	-0.0185722	-0.620836	0.00509726	0.0421819	0	0	0	
0.302667	0.0173631	1.2746	0.00510715	0.024728	0	0	0	
0.302833	-0.0109502	-1.95969	0.00515392	0.0309329	0	0	0	
0.303	0.00823039	3.71907	0.00520176	0.0503946	0	0	0	
0.303167	-0.0107014	-2.42733	0.00519794	0.0675594	0	0	0	
0.303333	0.01441	1.31675	0.0051474	0.0645115	0	0	0	
0.3035	-0.0126028	-0.773591	0.00508518	0.0460947	0	0	0	
0.303667	0.0259217	1.63472	0.0050112	0.0295261	0	0	0	
0.303833	-0.0156304	-2.2515	0.0049281	0.0371073	0	0	0	
0.304	0.0307304	2.99549	0.004891	0.0543475	0	0	0	
0.304167	-0.0146451	-3.5674	0.00491405	0.0724115	0	0	0	
0.304333	0.0183255	2.1662	0.00500954	0.0770703	0	0	0	
0.3045	-0.0140082	-1.11843	0.00508619	0.0630469	0	0	0	
0.304667	0.0158536	0.714503	0.0051378	0.0423651	0	0	0	
0.304833	-0.00243226	-1.54949	0.00514751	0.0271976	0	0	0	
0.305	0.0143519	2.82012	0.00512983	0.0384878	0	0	0	
0.305167	-0.00748628	-3.78412	0.00508405	0.0568447	0	0	0	
0.305333	0.0212197	2.84308	0.00507517	0.0754284	0	0	0	
0.3055	-0.0141825	-1.29861	0.0051224	0.0672184	0	0	0	
0.305667	0.0152173	0.638818	0.00518598	0.0488056	0	0	0	
0.305833	-0.0217174	-1.22233	0.00515174	0.0278871	0	0	0	
0.306	0.0185782	2.0332	0.00504137	0.036392	0	0	0	
0.306167	-0.0284835	-2.2134	0.00493768	0.0553544	0	0	0	
0.306333	0.0216355	4.06661	0.00488491	0.0765995	0	0	0	
0.3065	-0.0241131	-2.14559	0.00492092	0.0800366	0	0	0	
0.306667	0.0246892	1.23251	0.00502388	0.0653303	0	0	0	
0.306833	-0.0159523	-0.639705	0.00514951	0.0424595	0	0	0	
0.307	0.00404786	1.05809	0.00521847	0.0242521	0	0	0	
0.307167	-0.00760483	-1.9059	0.00519571	0.0272425	0	0	0	
0.307333	0.00147939	4.00172	0.0051115	0.0463535	0	0	0	
0.3075	-0.0161724	-2.54108	0.00504134	0.065159	0	0	0	
0.307667	0.0198256	1.40602	0.00503849	0.0653437	0	0	0	
0.307833	-0.0151116	-0.760829	0.00508756	0.0471484	0	0	0	
0.308	0.0301032	1.4152	0.00508926	0.0290655	0	0	0	
0.308167	-0.020315	-2.79935	0.00499852	0.0362057	0	0	0	
0.308333	0.0374996	2.96321	0.00492043	0.0581482	0	0	0	
0.3085	-0.0200134	-3.91509	0.00489294	0.077944	0	0	0	
0.308667	0.0247262	2.67074	0.00497124	0.0854904	0	0	0	
0.308833	-0.0193251	-1.21285	0.00507557	0.0680226	0	0	0	
0.309	0.018348	0.63223	0.00516898	0.0464577	0	0	0	
0.309167	0.00512233	-1.55941	0.00517268	0.0295264	0	0	0	
0.309333	0.0140509	2.08653	0.00508969	0.0404145	0	0	0	
0.3095	0.00149361	-3.54221	0.00497479	0.0579669	0	0	0	
0.309667	0.0211909	3.00235	0.00494555	0.075839	0	0	0	
0.309833	-0.0192429	-1.34045	0.00500789	0.0684032	0	0	0	
0.31	0.0192972	0.681568	0.00511202	0.0512492	0	0	0	
0.310167	-0.0191596	-0.909745	0.00514054	0.0289777	0	0	0	
0.310333	0.0179811	1.80983	0.00504959	0.031853	0	0	0	
0.3105	-0.0337894	-1.85455	0.00490047	0.0480954	0	0	0	
0.310667	0.0342504	3.91789	0.0047962	0.0659582	0	0	0	
0.310833	-0.030367	-2.08786	0.00485709	0.0724105	0	0	0	
0.311	0.0242025	1.17961	0.00503569	0.0598107	0	0	0	
0.311167	-0.0189228	-0.602881	0.00518068	0.041065	0	0	0	
0.311333	0.00795959	1.12834	0.00519736	0.024095	0	0	0	
0.3115	-0.0183316	-2.03319	0.00513861	0.0281937	0	0	0	
0.311667	0.00427183	4.3282	0.00504573	0.0476055	0	0	0	
0.311833	-0.0203946	-2.88676	0.00496988	0.068389	0	0	0	
0.312	0.0297796	1.52822	0.00495107	0.0689963	0	0	0	
0.312167	-0.0235818	-0.757561	0.00501226	0.0508537	0	0	0	
0.312333	0.0307087	1.14735	0.00506789	0.0296961	0	0	0	
0.3125	-0.0281	-2.93148	0.0049977	0.0337436	0	0	0	
0.312667	0.0436046	3.12427	0.00489559	0.0578486	0	0	0	
0.312833	-0.0313735	-4.15528	0.00485032	0.0793138	0	0	0	
0.313	0.0308068	2.99683	0.00493717	0.089869	0	0	0	
0.313167	-0.0208026	-1.24113	0.00504274	0.0707117	0	0	0	
0.313333	0.0231171	0.57413	0.00509563	0.0481426	0	0	0	
0.3135	-0.00508712	-1.769	0.00505726	0.0308216	0	0	0	
0.313667	0.0200973	1.70292	0.00499981	0.0435169	0	0	0	
0.313833	-0.00569453	-3.47702	0.00492821	0.0619846	0	0	0	
0.314	0.0220564	3.24188	0.00490592	0.0804347	0	0	0	
0.314167	-0.0228974	-1.44524	0.00494207	0.073432	0	0	0	
0.314333	0.0251873	0.753592	0.0050219	0.0560887	0	0	0	
0.3145	-0.0239293	-0.720731	0.00506103	0.0319432	0	0	0	
0.314667	0.0280334	1.59561	0.00502649	0.0294984	0	0	0	
0.314833	-0.0331816	-1.90622	0.00499205	0.044476	0	0	0	
0.315	0.0279362	3.77952	0.00500021	0.0615885	0	0	0	
0.315167	-0.0225272	-2.09101	0.00505584	0.0701872	0	0	0	
0.315333	0.0207091	1.13399	0.00511885	0.0581484	0	0	0	
0.3155	-0.0150233	-0.591357	0.00513686	0.0406646	0	0	0	
0.315667	0.0115388	1.30655	0.00508544	0.0248491	0	0	0	
0.315833	-0.0178549	-1.8234	0.00499797	0.0307066	0	0	0	
0.316	0.00947205	4.28915	0.00492667	0.048373	0	0	0	
0.316167	-0.0180791	-3.28959	0.00492936	0.0698314	0	0	0	
0.316333	0.0255131	1.68772	0.00500501	0.0716031	0	0	0	
0.3165	-0.0219967	-0.799632	0.00510685	0.0558097	0	0	0	
0.316667	0.0292636	0.865769	0.00517044	0.0323427	0	0	0	
0.316833	-0.0235659	-2.54137	0.00513137	0.02986	0	0	0	
0.317	0.0344079	3.48069	0.00507565	0.053455	0	0	0	
0.317167	-0.0309517	-4.23669	0.00504852	0.0771968	0	0	0	
0.317333	0.0323603	3.09369	0.00510515	0.0921515	0	0	0	
0.3175	-0.0221095	-1.22893	0.00517496	0.0733986	0	0	0	
0.317667	0.0236423	0.549872	0.00519434	0.0490701	0	0	0	
0.317833	-0.0132633	-1.70194	0.00512456	0.0299979	0	0	0	
0.318	0.0231061	1.68346	0.00503524	0.0426045	0	0	0	
0.318167	-0.0135803	-3.2548	0.00495167	0.0630821	0	0	0	
0.318333	0.0271825	3.47686	0.00493187	0.083949	0	0	0	
0.3185	-0.0252822	-1.5828	0.00495658	0.0804742	0	0	0	
0.318667	0.0245562	1.06492	0.00501023	0.0630118	0	0	0	
0.318833	-0.0261366	-0.759023	0.0050424	0.0375068	0	0	0	
0.319	0.0309465	1.00817	0.00502127	0.0233571	0	0	0	
0.319167	-0.0329464	-2.11799	0.00499156	0.0288153	0	0	0	
0.319333	0.0388269	3.32813	0.00499537	0.0446592	0	0	0	
0.3195	-0.0308345	-1.98245	0.00504029	0.0605249	0	0	0	
0.319667	0.0293747	1.10677	0.00511164	0.0571694	0	0	0	
0.319833	-0.0294762	-0.793009	0.00514122	0.0420562	0	0	0	
0.32	0.0289887	1.98426	0.00512031	0.0287326	0	0	0	
0.320167	-0.0240065	-2.99876	0.00508718	0.0400464	0	0	0	
0.320333	0.0227505	4.18358	0.00506364	0.0584613	0	0	0	
0.3205	-0.0211571	-3.47092	0.00504251	0.0778794	0	0	0	
0.320667	0.0314173	1.67687	0.00504394	0.075665	0	0	0	
0.320833	-0.0211721	-0.923772	0.00506099	0.0588061	0	0	0	
0.321	0.0282164	0.913113	0.00508507	0.0357392	0	0	0	
0.321167	-0.0321065	-2.59864	0.00505489	0.0287266	0	0	0	
0.321333	0.0381537	3.67818	0.00505817	0.049395	0	0	0	
0.3215	-0.0278935	-4.22489	0.00511459	0.0717525	0	0	0	
0.321667	0.0278284	3.01567	0.00518463	0.0885377	0	0	0	
0.321833	-0.0193342	-1.23241	0.00517888	0.0726674	0	0	0	
0.322	0.0252296	0.575685	0.00512738	0.0495351	0	0	0	
0.322167	-0.0245705	-1.82927	0.00506074	0.0304178	0	0	0	
0.322333	0.0344964	1.79574	0.0050149	0.0436935	0	0	0	
0.3225	-0.0321321	-3.16079	0.00499722	0.065613	0	0	0	
0.322667	0.027906	3.71551	0.00506637	0.087764	0	0	0	
0.322833	-0.0180168	-1.73822	0.00517543	0.0851929	0	0	0	
0.323	0.0200709	1.0595	0.00521741	0.0664066	0	0	0	
0.323167	-0.0246234	-0.632118	0.00515189	0.0397879	0	0	0	
0.323333	0.0341977	1.34053	0.00505795	0.0254673	0	0	0	
0.3235	-0.0312783	-1.97051	0.00501855	0.0334847	0	0	0	
0.323667	0.0349336	3.46468	0.00505951	0.052035	0	0	0	
0.323833	-0.0288462	-2.28008	0.0051427	0.0670379	0	0	0	
0.324	0.019327	1.20377	0.00522998	0.0623372	0	0	0	
0.324167	-0.0222871	-0.720365	0.00523867	0.0445729	0	0	0	
0.324333	0.0338065	1.6039	0.00513808	0.028853	0	0	0	
0.3245	-0.0311254	-1.92202	0.00500727	0.0362062	0	0	0	
0.324667	0.0377179	3.35917	0.00496499	0.0522602	0	0	0	
0.324833	-0.0278941	-3.62241	0.00502137	0.0721767	0	0	0	
0.325	0.0284636	1.86221	0.00511405	0.0761911	0	0	0	
0.325167	-0.0287993	-0.998982	0.00513356	0.0625566	0	0	0	
0.325333	0.0322591	0.685164	0.00510734	0.0394329	0	0	0	
0.3255	-0.0256574	-1.79636	0.00508758	0.0263231	0	0	0	
0.325667	0.0267473	3.21231	0.00512421	0.0422385	0	0	0	
0.325833	-0.0212277	-3.30854	0.00516115	0.0649295	0	0	0	
0.326	0.0280317	2.60309	0.0051631	0.0817653	0	0	0	
0.326167	-0.0235552	-1.29826	0.00513532	0.0700944	0	0	0	
0.326333	0.029412	0.652308	0.00512002	0.0477632	0	0	0	
0.3265	-0.0343938	-1.481	0.00507513	0.0292367	0	0	0	
0.326667	0.0339806	1.73393	0.00502405	0.0391095	0	0	0	
0.326833	-0.0362612	-2.13841	0.00499979	0.0574503	0	0	0	
0.327	0.0279166	3.7268	0.00501112	0.0758894	0	0	0	
0.327167	-0.0277585	-1.83767	0.00504801	0.0765668	0	0	0	
0.327333	0.0319709	1.13416	0.00509079	0.061657	0	0	0	
0.3275	-0.0273742	-0.635542	0.00513872	0.0405436	0	0	0	
0.327667	0.0252669	1.18642	0.00515872	0.0243258	0	0	0	
0.327833	-0.0252888	-1.97714	0.00514477	0.0297342	0	0	0	
0.328	0.0231963	3.61442	0.00512222	0.0493343	0	0	0	
0.328167	-0.0297196	-2.34452	0.00511567	0.0667601	0	0	0	
0.328333	0.0370674	1.30548	0.00513421	0.0648024	0	0	0	
0.3285	-0.0312618	-0.753488	0.00515648	0.0460917	0	0	0	
0.328667	0.0404182	1.59181	0.00513005	0.029422	0	0	0	
0.328833	-0.0278946	-2.30044	0.00503249	0.0371983	0	0	0	
0.329	0.0429912	2.85687	0.00495838	0.0557536	0	0	0	
0.329167	-0.0313108	-3.65838	0.00493035	0.0747174	0	0	0	
0.329333	0.0372741	2.14685	0.00499983	0.0798923	0	0	0	
0.3295	-0.0295321	-1.08534	0.00507343	0.0646484	0	0	0	
0.329667	0.0286645	0.625632	0.0051351	0.0430229	0	0	0	
0.329833	-0.0149846	-1.46964	0.00512969	0.0278147	0	0	0	
0.33	0.0280743	2.59312	0.00510535	0.0399501	0	0	0	
0.330167	-0.0194029	-3.70082	0.00508237	0.0596899	0	0	0	
0.330333	0.0313907	2.63909	0.0050953	0.0773417	0	0	0	
0.3305	-0.0282224	-1.26149	0.00508148	0.0680962	0	0	0	
0.330667	0.031997	0.57246	0.00505953	0.0481928	0	0	0	
0.330833	-0.0395474	-0.983621	0.00501318	0.0268884	0	0	0	
0.331	0.0389856	1.62793	0.00496598	0.0336197	0	0	0	
0.331167	-0.0510312	-2.12257	0.00493781	0.0519965	0	0	0	
0.331333	0.0366824	3.91603	0.00492502	0.0729886	0	0	0	
0.3315	-0.0350685	-2.06618	0.0049966	0.0779876	0	0	0	
0.331667	0.0299561	1.19311	0.00510602	0.0640224	0	0	0	
0.331833	-0.025344	-0.587499	0.00520994	0.041806	0	0	0	
0.332	0.017117	1.03528	0.00522807	0.0235322	0	0	0	
0.332167	-0.0213084	-2.15518	0.00516352	0.0276126	0	0	0	
0.332333	0.015185	4.0349	0.00505946	0.048548	0	0	0	
0.3325	-0.02738	-2.56005	0.00500036	0.0685832	0	0	0	
0.332667	0.0334987	1.39686	0.00500711	0.0680726	0	0	0	
0.332833	-0.0373699	-0.719425	0.00506038	0.0482063	0	0	0	
0.333	0.0480236	1.35797	0.00508743	0.0292222	0	0	0	
0.333167	-0.0352097	-2.76084	0.00504076	0.0362538	0	0	0	
0.333333	0.0518278	2.76597	0.00498727	0.058795	0	0	0	
0.3335	-0.0346602	-3.93991	0.00492853	0.0790681	0	0	0	
0.333667	0.0436414	2.55257	0.00496806	0.086653	0	0	0	
0.333833	-0.0390293	-1.14161	0.00503853	0.0683787	0	0	0	
0.334	0.035574	0.560578	0.00510759	0.0461308	0	0	0	
0.334167	-0.0165245	-1.52892	0.00507442	0.0298459	0	0	0	
0.334333	0.0333671	1.83963	0.00500853	0.0421002	0	0	0	
0.3345	-0.0156643	-3.5073	0.0049595	0.0608319	0	0	0	
0.334667	0.0318077	2.77698	0.00499868	0.0781129	0	0	0	
0.334833	-0.0301171	-1.27624	0.00502817	0.0696053	0	0	0	
0.335	0.0375673	0.643377	0.00503314	0.0513653	0	0	0	
0.335167	-0.0438975	-0.798819	0.00500004	0.0287824	0	0	0	
0.335333	0.0400617	1.56046	0.0049663	0.0313719	0	0	0	
0.3355	-0.0486902	-1.81176	0.00494622	0.0480472	0	0	0	
0.335667	0.0432242	3.71675	0.00492766	0.0657731	0	0	0	
0.335833	-0.0394559	-1.95513	0.00498107	0.0718855	0	0	0	
0.336	0.0349518	1.11415	0.00508161	0.0587508	0	0	0	
0.336167	-0.0321248	-0.542421	0.00513496	0.0400645	0	0	0	
0.336333	0.0221595	1.10459	0.00507906	0.0240341	0	0	0	
0.3365	-0.0313345	-2.00509	0.00499782	0.0291331	0	0	0	
0.336667	0.0159406	4.27346	0.00493433	0.0492951	0	0	0	
0.336833	-0.0310412	-2.91048	0.00492929	0.0703836	0	0	0	
0.337	0.0358155	1.49761	0.00494778	0.0706644	0	0	0	
0.337167	-0.0330875	-0.72368	0.00499042	0.0518855	0	0	0	
0.337333	0.0440102	1.09506	0.00500744	0.0299857	0	0	0	
0.3375	-0.0402977	-2.89314	0.00496017	0.0336045	0	0	0	
0.337667	0.0508554	2.89903	0.00493294	0.0583893	0	0	0	
0.337833	-0.0405571	-4.02905	0.0049268	0.0803362	0	0	0	
0.338	0.0431279	2.78883	0.00499176	0.0905826	0	0	0	
0.338167	-0.0345826	-1.17548	0.0050736	0.0704425	0	0	0	
0.338333	0.037608	0.531137	0.0051489	0.0472886	0	0	0	
0.3385	-0.0211901	-1.68538	0.00513129	0.0306575	0	0	0	
0.338667	0.0364808	1.37373	0.00507205	0.0442745	0	0	0	
0.338833	-0.0208313	-3.36296	0.00497708	0.0637376	0	0	0	
0.339	0.0363486	3.02622	0.00495262	0.0821065	0	0	0	
0.339167	-0.0388513	-1.37615	0.00497984	0.0747623	0	0	0	
0.339333	0.0440341	0.721797	0.00506016	0.0565446	0	0	0	
0.3395	-0.0446848	-0.639825	0.00510702	0.0320235	0	0	0	
0.339667	0.0482352	1.40698	0.00508377	0.029447	0	0	0	
0.339833	-0.0503751	-1.89114	0.0050305	0.0447579	0	0	0	
0.34	0.0457648	3.64567	0.00500516	0.0626366	0	0	0	
0.340167	-0.0425938	-1.97745	0.00503989	0.0709438	0	0	0	
0.340333	0.0424816	1.07998	0.00511586	0.0584565	0	0	0	
0.3405	-0.0360728	-0.539338	0.00517326	0.0401431	0	0	0	
0.340667	0.026525	1.27924	0.00515807	0.0248676	0	0	0	
0.340833	-0.0306072	-1.71554	0.00506493	0.0313625	0	0	0	
0.341	0.0274472	4.10868	0.00493626	0.0494815	0	0	0	
0.341167	-0.0354377	-3.21818	0.00488898	0.0704888	0	0	0	
0.341333	0.0414255	1.63231	0.00495733	0.0719884	0	0	0	
0.3415	-0.0400536	-0.735906	0.0050584	0.0556774	0	0	0	
0.341667	0.0475334	0.636462	0.00511258	0.0316802	0	0	0	
0.341833	-0.0425001	-2.1985	0.0050903	0.0269817	0	0	0	
0.342	0.0487534	3.15984	0.00508009	0.0501024	0	0	0	
0.342167	-0.042585	-4.16162	0.0050639	0.0749676	0	0	0	
0.342333	0.0460587	2.92931	0.00508286	0.0920523	0	0	0	
0.3425	-0.0399491	-1.20843	0.00511641	0.0739647	0	0	0	
0.342667	0.0402089	0.534789	0.00514294	0.049063	0	0	0	
0.342833	-0.0291004	-1.48297	0.00508554	0.0286499	0	0	0	
0.343	0.0394468	1.36627	0.00499041	0.0401533	0	0	0	
0.343167	-0.0308042	-3.0434	0.00489983	0.0604362	0	0	0	
0.343333	0.0411883	3.21213	0.00492176	0.082395	0	0	0	
0.3435	-0.0376779	-1.46733	0.00502209	0.0798868	0	0	0	
0.343667	0.0359783	0.876829	0.00513125	0.061995	0	0	0	
0.343833	-0.0363134	-0.55178	0.00514547	0.0362252	0	0	0	
0.344	0.0465616	1.33764	0.00507819	0.0274251	0	0	0	
0.344167	-0.0462772	-2.00282	0.00502991	0.0400917	0	0	0	
0.344333	0.048937	3.47473	0.0050596	0.0591342	0	0	0	
0.3445	-0.0444191	-2.04746	0.00511607	0.0706015	0	0	0	
0.344667	0.0455389	1.08151	0.00517044	0.0606767	0	0	0	
0.344833	-0.0400567	-0.569875	0.00518513	0.0417858	0	0	0	
0.345	0.0382339	1.36017	0.0051629	0.0262187	0	0	0	
0.345167	-0.037161	-1.50925	0.00509063	0.0331647	0	0	0	
0.345333	0.0420383	3.61741	0.00501006	0.0489427	0	0	0	
0.3455	-0.0413172	-3.37271	0.00497576	0.0697003	0	0	0	
0.345667	0.0461016	1.66292	0.00502951	0.0728141	0	0	0	
0.345833	-0.0410718	-0.868015	0.0050921	0.0594271	0	0	0	
0.346	0.0444896	0.774966	0.00512509	0.0361041	0	0	0	
0.346167	-0.0435661	-2.477	0.00509786	0.0285097	0	0	0	
0.346333	0.0489917	3.53782	0.00509111	0.0501582	0	0	0	
0.3465	-0.0458581	-4.12592	0.00510061	0.0740773	0	0	0	
0.346667	0.047059	2.79626	0.00512832	0.0904785	0	0	0	
0.346833	-0.0411472	-1.17768	0.00514702	0.0733407	0	0	0	
0.347	0.0429477	0.534792	0.00516344	0.0489097	0	0	0	
0.347167	-0.0387222	-1.64044	0.0051386	0.0296768	0	0	0	
0.347333	0.044147	1.29954	0.00509098	0.0425102	0	0	0	
0.3475	-0.0408336	-2.81793	0.00502457	0.0644967	0	0	0	
0.347667	0.0431561	3.43223	0.00499782	0.0866986	0	0	0	
0.347833	-0.0441654	-1.65566	0.00501935	0.0850933	0	0	0	
0.348	0.0475546	1.0573	0.00507615	0.0665672	0	0	0	
0.348167	-0.0430038	-0.57654	0.00512277	0.0399814	0	0	0	
0.348333	0.0471647	1.17362	0.00514161	0.0251563	0	0	0	
0.3485	-0.0441644	-1.94749	0.00514179	0.03272	0	0	0	
0.348667	0.048571	3.31777	0.00515689	0.0519951	0	0	0	
0.348833	-0.0425387	-2.16212	0.0051732	0.0671238	0	0	0	
0.349	0.0399124	1.1021	0.0051957	0.0622541	0	0	0	
0.349167	-0.0408446	-0.514735	0.0051398	0.0432038	0	0	0	
0.349333	0.0742166	1.64162	0.00500427	0.0290135	0	0	0	
0.3495	-0.109694	-2.8026	0.00488943	0.0415714	0	0	0	
0.349667	0.0199896	4.64025	0.00468775	0.0689383	0	0	0	
0.349833	-0.046351	-4.26864	0.0047166	0.095668	0	0	0	
0.35	0.0469285	4.0098	0.00492482	0.103849	0	0	0	
0.350167	-0.0414067	-3.74277	0.00522643	0.0940499	0	0	0	
0.350333	0.041566	3.82576	0.00538211	0.0833786	0	0	0	
0.3505	-0.074593	-4.04676	0.00549303	0.0797408	0	0	0	
0.350667	0.0529374	3.87373	0.00566722	0.0915715	0	0	0	
0.350833	-0.0385166	-3.87196	0.00570835	0.0976877	0	0	0	
0.351	0.044672	4.09614	0.00550408	0.103577	0	0	0	
0.351167	-0.0457333	-3.66535	0.00528249	0.100207	0	0	0	
0.351333	0.0457608	3.90436	0.00522338	0.101851	0	0	0	
0.3515	-0.0351084	-3.92163	0.00524705	0.101889	0	0	0	
0.351667	0.0374827	4.33056	0.00524798	0.106283	0	0	0	
0.351833	-0.0395525	-4.20478	0.00517892	0.109036	0	0	0	
0.352	0.0475931	4.19789	0.00513108	0.110424	0	0	0	
0.352167	-0.044845	-4.1727	0.00513742	0.110475	0	0	0	
0.352333	0.047387	4.2544	0.00517876	0.110219	0	0	0	
0.3525	-0.0452775	-4.32132	0.00518569	0.111975	0	0	0	
0.352667	0.0494204	4.33223	0.00518349	0.112307	0	0	0	
0.352833	-0.0467466	-4.32109	0.00519022	0.113575	0	0	0	
0.353	0.0481312	4.2313	0.00522124	0.111873	0	0	0	
0.353167	-0.0443305	-4.38349	0.00523072	0.11244	0	0	0	
0.353333	0.0464881	4.22319	0.00522385	0.110879	0	0	0	
0.3535	-0.0422766	-4.33329	0.00519427	0.112132	0	0	0	
0.353667	0.0489308	4.24492	0.00517126	0.110893	0	0	0	
0.353833	-0.0493152	-4.31725	0.00514863	0.112437	0	0	0	
0.354	0.0508934	4.26965	0.00515906	0.111333	0	0	0	
0.354167	-0.0459274	-4.40624	0.00517296	0.113035	0	0	0	
0.354333	0.0472554	4.28357	0.00517631	0.111705	0	0	0	
0.3545	-0.0457888	-4.39429	0.00514844	0.113121	0	0	0	
0.354667	0.0509676	4.2554	0.00513042	0.111631	0	0	0	
0.354833	-0.048109	-4.31079	0.00513265	0.11281	0	0	0	
0.355	0.0499703	4.20946	0.00515936	0.111191	0	0	0	
0.355167	-0.0473974	-4.30249	0.00516054	0.112102	0	0	0	
0.355333	0.0493662	4.17526	0.00514822	0.110455	0	0	0	
0.3555	-0.0455937	-4.2905	0.00513719	0.111444	0	0	0	
0.355667	0.0484614	4.23761	0.00515914	0.110428	0	0	0	
0.355833	-0.0463576	-4.31394	0.00517452	0.112073	0	0	0	
0.356	0.050084	4.27659	0.00517836	0.111577	0	0	0	
0.356167	-0.049818	-4.37091	0.00516309	0.112977	0	0	0	
0.356333	0.0515251	4.28888	0.00515837	0.112061	0	0	0	
0.3565	-0.0477639	-4.37659	0.00516281	0.113037	0	0	0	
0.356667	0.0499845	4.25749	0.00518987	0.112058	0	0	0	
0.356833	-0.0471158	-4.29124	0.00520351	0.112719	0	0	0	
0.357	0.0510493	4.21811	0.00519963	0.11156	0	0	0	
0.357167	-0.0491398	-4.28338	0.00517086	0.111957	0	0	0	
0.357333	0.0508446	4.19815	0.00515039	0.110956	0	0	0	
0.3575	-0.0495466	-4.27866	0.00512593	0.111543	0	0	0	
0.357667	0.0546455	4.2496	0.00512253	0.111052	0	0	0	
0.357833	-0.0527125	-4.30376	0.00513868	0.112104	0	0	0	
0.358	0.0548341	4.28194	0.00518796	0.111986	0	0	0	
0.358167	-0.0487717	-4.34188	0.00522788	0.11288	0	0	0	
0.358333	0.0484295	4.28983	0.00524931	0.112481	0	0	0	
0.3585	-0.0459812	-4.34467	0.00522139	0.112997	0	0	0	
0.358667	0.051729	4.28019	0.00518584	0.112533	0	0	0	
0.358833	-0.049767	-4.26102	0.00516013	0.112864	0	0	0	
0.359	0.0539344	4.25961	0.00516722	0.112291	0	0	0	
0.359167	-0.0528682	-4.25467	0.00516632	0.112542	0	0	0	
0.359333	0.0557811	4.22974	0.00518218	0.111964	0	0	0	
0.3595	-0.0503294	-4.24486	0.00521155	0.112122	0	0	0	
0.359667	0.0518284	4.19243	0.00524523	0.111421	0	0	0	
0.359833	-0.0508817	-4.23052	0.00521854	0.111444	0	0	0	
0.36	0.0567165	4.20037	0.00517084	0.111092	0	0	0	
0.360167	-0.054128	-4.23919	0.00515079	0.111434	0	0	0	
0.360333	0.0549896	4.19672	0.00519627	0.111313	0	0	0	
0.3605	-0.0513399	-4.27429	0.00524097	0.111481	0	0	0	
0.360667	0.0549144	4.20989	0.00525816	0.111325	0	0	0	
0.360833	-0.0511601	-4.29619	0.00523141	0.111476	0	0	0	
0.361	0.0542377	4.20705	0.00520826	0.111459	0	0	0	
0.361167	-0.0510356	-4.27986	0.00518647	0.111479	0	0	0	
0.361333	0.0560882	4.25117	0.00519225	0.111681	0	0	0	
0.3615	-0.0523618	-4.2936	0.00519392	0.112092	0	0	0	
0.361667	0.0569681	4.27223	0.00520492	0.11252	0	0	0	
