0	-0.000359448	0.00220117	3.59448E-08	2.20117E-07	0	0	0	
0.000166667	-0.0274121	-0.0065883	0.000219454	3.47306E-05	0	0	0	
0.000333333	0.0453972	0.00261493	0.000545574	6.31205E-05	0	0	0	
0.0005	-0.0493355	-0.00180225	0.000891808	7.77321E-05	0	0	0	
0.000666667	0.0471393	0.00483275	0.0010136	7.52418E-05	0	0	0	
0.000833333	-0.0456695	-0.00185884	0.00101849	7.74679E-05	0	0	0	
0.001	0.0405165	-0.00438408	0.000967526	8.18959E-05	0	0	0	
0.00116667	-0.0313092	0.00198088	0.00091352	7.0415E-05	0	0	0	
0.00133333	0.0210247	-0.000190327	0.000921292	6.7352E-05	0	0	0	
0.0015	-0.0264833	-0.00380215	0.00105446	6.67964E-05	0	0	0	
0.00166667	0.0315582	0.0022534	0.00122646	7.40431E-05	0	0	0	
0.00183333	-0.0277381	-0.000789998	0.00131408	5.60616E-05	0	0	0	
0.002	0.0250752	0.00358897	0.00128466	4.55942E-05	0	0	0	
0.00216667	-0.0290125	-0.0116122	0.00127627	7.46581E-05	0	0	0	
0.00233333	0.0389323	0.0197366	0.00136091	0.000159509	0	0	0	
0.0025	-0.0432586	-0.0238491	0.00145023	0.000299403	0	0	0	
0.00266667	0.0344652	0.0174883	0.00143126	0.000386151	0	0	0	
0.00283333	-0.0255562	-0.0118765	0.00134162	0.000366968	0	0	0	
0.003	0.0287757	-0.00135946	0.00131424	0.000338382	0	0	0	
0.00316667	-0.0321203	0.0235512	0.00137037	0.000264221	0	0	0	
0.00333333	0.0358396	-0.0125838	0.0014494	0.000405412	0	0	0	
0.0035	-0.0414085	-0.0148237	0.00152558	0.000551048	0	0	0	
0.00366667	0.0439747	0.00717928	0.00158378	0.000577662	0	0	0	
0.00383333	-0.0403564	-0.00169727	0.00157562	0.000387212	0	0	0	
0.004	0.0369808	0.0216253	0.00147641	0.000213954	0	0	0	
0.00416667	-0.0329698	-0.0130537	0.00135984	0.000229342	0	0	0	
0.00433333	0.0312023	-0.0187095	0.00130358	0.00038506	0	0	0	
0.0045	-0.0304048	0.012562	0.00132407	0.000389525	0	0	0	
0.00466667	0.0297766	0.0122525	0.00135849	0.000407998	0	0	0	
0.00483333	-0.0303689	-0.00931194	0.00137133	0.000289987	0	0	0	
0.005	0.0305777	-0.00702067	0.00136491	0.000239139	0	0	0	
0.00516667	-0.0312231	-0.0010147	0.00138384	0.000206074	0	0	0	
0.00533333	0.0336725	0.00581799	0.00143667	0.000235268	0	0	0	
0.0055	-0.0332485	0.0056198	0.00148336	0.00023419	0	0	0	
0.00566667	0.0303446	-0.010514	0.00148786	0.000181164	0	0	0	
0.00583333	-0.0346337	-0.00022111	0.00147637	0.000159006	0	0	0	
0.006	0.0359963	-0.000580806	0.00148322	0.000129676	0	0	0	
0.00616667	-0.0348974	0.0110169	0.00149435	0.00016588	0	0	0	
0.00633333	0.0319642	-0.00477973	0.00148069	0.000137948	0	0	0	
0.0065	-0.0291667	-0.0101947	0.00143824	0.00019764	0	0	0	
0.00666667	0.0280662	0.00309856	0.00139836	0.000162713	0	0	0	
0.00683333	-0.0288054	0.00497753	0.0013796	0.000169833	0	0	0	
0.007	0.0276368	0.00363823	0.00138247	0.000123117	0	0	0	
0.00716667	-0.0265643	-0.0129217	0.00140319	0.000134174	0	0	0	
0.00733333	0.0288602	0.00609652	0.00142928	0.000153424	0	0	0	
0.0075	-0.0300517	-0.000816324	0.0014384	0.000159931	0	0	0	
0.00766667	0.0298805	0.00299162	0.00142045	0.000187557	0	0	0	
0.00783333	-0.0283629	-0.00337523	0.00140115	0.000138161	0	0	0	
0.008	0.0306641	-0.0060436	0.00139981	0.000159101	0	0	0	
0.00816667	-0.0297091	0.00168647	0.00141198	0.000111755	0	0	0	
0.00833333	0.0311527	0.010499	0.00139978	0.000219572	0	0	0	
0.0085	-0.0301461	-0.0135098	0.00137454	0.000236709	0	0	0	
0.00866667	0.0283686	0.00131595	0.00135384	0.000272268	0	0	0	
0.00883333	-0.0281827	0.00238795	0.00136565	0.000199711	0	0	0	
0.009	0.0284714	0.00215302	0.0013867	0.000143008	0	0	0	
0.00916667	-0.0286598	-0.00149885	0.00140504	9.69724E-05	0	0	0	
0.00933333	0.0307345	-0.00457315	0.00141417	6.77484E-05	0	0	0	
0.0095	-0.030809	0.000579147	0.00143091	7.91604E-05	0	0	0	
0.00966667	0.0312391	0.00935166	0.00144662	0.000127887	0	0	0	
0.00983333	-0.031643	-0.0147497	0.00145174	0.000188139	0	0	0	
0.01	0.0293975	0.0102008	0.00143596	0.000242859	0	0	0	
0.0101667	-0.0284406	3.37276E-05	0.0014154	0.000201098	0	0	0	
0.0103333	0.0270837	-0.0038276	0.00139922	0.000129032	0	0	0	
0.0105	-0.0268509	-0.00110735	0.00139355	8.624E-05	0	0	0	
0.0106667	0.0269931	0.00601822	0.00140382	8.18847E-05	0	0	0	
0.0108333	-0.0296106	-0.00202943	0.00142935	9.15442E-05	0	0	0	
0.011	0.0293014	0.00142187	0.00145584	7.06304E-05	0	0	0	
0.0111667	-0.0286692	-0.00326467	0.00146274	8.25171E-05	0	0	0	
0.0113333	0.0291001	0.00140353	0.00145263	7.19159E-05	0	0	0	
0.0115	-0.0296738	0.00548637	0.00143241	9.94583E-05	0	0	0	
0.0116667	0.0241235	-0.00258541	0.00140978	9.85683E-05	0	0	0	
0.0118333	-0.0236089	-0.00350136	0.00139315	0.000123118	0	0	0	
0.012	0.0265406	0.00664518	0.00141352	0.000127086	0	0	0	
0.0121667	-0.0283386	-0.00267882	0.00146632	0.000138124	0	0	0	
0.0123333	0.0306907	0.000714574	0.00150681	0.000151992	0	0	0	
0.0125	-0.0286484	0.001763	0.00149823	0.000153855	0	0	0	
0.0126667	0.0224846	-0.000761899	0.00145116	0.000139011	0	0	0	
0.0128333	-0.0282033	-0.00830336	0.00139297	0.000113857	0	0	0	
0.013	0.0270927	0.00757193	0.00131047	0.000129548	0	0	0	
0.0131667	-0.015275	-0.00821706	0.00117763	0.000226144	0	0	0	
0.0133333	0.00920213	0.0123314	0.0010797	0.000363961	0	0	0	
0.0135	-0.0181282	-0.00416585	0.00114834	0.000520009	0	0	0	
0.0136667	0.0283513	-0.0168119	0.00134306	0.000607087	0	0	0	
0.0138333	-0.0361919	-0.00238359	0.00148637	0.000512191	0	0	0	
0.014	0.0328175	0.0374621	0.00149138	0.000606862	0	0	0	
0.0141667	-0.0355331	-0.0467701	0.00143459	0.000665333	0	0	0	
0.0143333	0.0338166	0.0218277	0.00141456	0.000812017	0	0	0	
0.0145	-0.0273853	-0.0191741	0.0013888	0.000658445	0	0	0	
0.0146667	0.0208967	0.0209626	0.00136532	0.000539866	0	0	0	
0.0148333	-0.0227786	0.00537426	0.00136928	0.0004278	0	0	0	
0.015	0.0241177	-0.0308367	0.00140938	0.00037152	0	0	0	
0.0151667	-0.0241829	0.00867678	0.0014284	0.000394874	0	0	0	
0.0153333	0.0201569	0.0115628	0.00139719	0.000425139	0	0	0	
0.0155	-0.0184794	0.00107606	0.00135441	0.000430511	0	0	0	
0.0156667	0.0224542	-0.00860842	0.00136488	0.000375122	0	0	0	
0.0158333	-0.0269638	-0.00369908	0.00141146	0.000275857	0	0	0	
0.016	0.0271466	0.0134867	0.0014297	0.000223109	0	0	0	
0.0161667	-0.0214053	-0.0101469	0.00139708	0.000178599	0	0	0	
0.0163333	0.0188313	0.00948635	0.00135409	0.000208005	0	0	0	
0.0165	-0.0213314	-0.0133381	0.00135129	0.000224107	0	0	0	
0.0166667	0.0213479	0.00458352	0.00138391	0.000211171	0	0	0	
0.0168333	-0.0214562	0.00392596	0.00142294	0.000164343	0	0	0	
0.017	0.0230869	-5.01367E-05	0.0014469	0.000147688	0	0	0	
0.0171667	-0.0214187	-0.00388467	0.00144818	0.000112575	0	0	0	
0.0173333	0.0201054	0.00141646	0.00143165	0.00011113	0	0	0	
0.0175	-0.0230309	-0.010251	0.00142341	9.99126E-05	0	0	0	
0.0176667	0.0244352	0.0110704	0.00144065	0.000133623	0	0	0	
0.0178333	-0.0254667	0.0012869	0.00145471	0.00017977	0	0	0	
0.018	0.0223965	-0.00377082	0.00143628	0.000146574	0	0	0	
0.0181667	-0.0196056	-0.00700735	0.0013931	0.000152864	0	0	0	
0.0183333	0.0206936	0.00212499	0.00137366	0.00013028	0	0	0	
0.0185	-0.0206185	0.0102373	0.00138426	0.000170702	0	0	0	
0.0186667	0.0211999	0.00529792	0.00141078	0.000220397	0	0	0	
0.0188333	-0.0209278	-0.0175754	0.00145337	0.000321093	0	0	0	
0.019	0.020505	-0.00116802	0.00148831	0.000325426	0	0	0	
0.0191667	-0.0193054	0.0107615	0.00148762	0.000249235	0	0	0	
0.0193333	0.0190947	0.0088117	0.00145049	0.000227291	0	0	0	
0.0195	-0.0193481	-0.0140736	0.00142156	0.000242812	0	0	0	
0.0196667	0.0196715	-0.00315174	0.00141813	0.000301824	0	0	0	
0.0198333	-0.0182553	0.00742403	0.00142623	0.000220298	0	0	0	
0.02	0.0186508	0.00330072	0.00142488	0.000214472	0	0	0	
0.0201667	-0.0200341	-0.00400269	0.00141676	0.000137731	0	0	0	
0.0203333	0.0189118	-0.00936401	0.00139746	0.000165571	0	0	0	
0.0205	-0.0181017	0.00233158	0.00137197	0.000145745	0	0	0	
0.0206667	0.0166156	0.00991475	0.00136112	0.000203293	0	0	0	
0.0208333	-0.0179179	-0.0068727	0.0013835	0.000184995	0	0	0	
0.021	0.0197114	-0.00502248	0.00143285	0.000204542	0	0	0	
0.0211667	-0.0210015	0.00351691	0.00146578	0.000149989	0	0	0	
0.0213333	0.0192149	0.0019591	0.0014598	0.000143118	0	0	0	
0.0215	-0.0196551	-0.00410833	0.00143061	0.000120577	0	0	0	
0.0216667	0.0210667	0.000538278	0.00140658	0.000138843	0	0	0	
0.0218333	-0.0195097	-0.00128998	0.00137422	0.000149932	0	0	0	
0.022	0.0162229	0.00188753	0.00132323	0.000137977	0	0	0	
0.0221667	-0.013427	0.000156005	0.00128778	9.99938E-05	0	0	0	
0.0223333	0.0130769	-0.000237989	0.00130861	5.17955E-05	0	0	0	
0.0225	-0.0163262	0.00105945	0.0013742	2.55226E-05	0	0	0	
0.0226667	0.0202998	-0.00206178	0.00143899	4.02801E-05	0	0	0	
0.0228333	-0.023467	0.000670458	0.00147785	7.22086E-05	0	0	0	
0.023	0.0263169	0.000834125	0.00148848	7.4169E-05	0	0	0	
0.0231667	-0.0246968	0.00332003	0.00147089	0.000102355	0	0	0	
0.0233333	0.0238952	-0.00193199	0.00141672	0.000121678	0	0	0	
0.0235	-0.0152415	-0.00173073	0.00134318	0.000129795	0	0	0	
0.0236667	0.00671622	0.000849567	0.00130699	0.000182556	0	0	0	
0.0238333	-0.00772537	0.000316454	0.00142173	0.00023138	0	0	0	
0.024	0.0226216	-0.018297	0.00166002	0.000266043	0	0	0	
0.0241667	-0.0272748	0.0355333	0.00182877	0.000341788	0	0	0	
0.0243333	0.0255371	-0.00380414	0.00176524	0.000461047	0	0	0	
0.0245	-0.0179679	-0.0188128	0.00155889	0.00059399	0	0	0	
0.0246667	0.0155353	-0.00558262	0.00137337	0.000610433	0	0	0	
0.0248333	-0.00223731	0.0235661	0.00126346	0.000640979	0	0	0	
0.025	-0.00432698	0.0118522	0.00122345	0.000546714	0	0	0	
0.0251667	-0.00149521	-0.0257948	0.00131027	0.00043227	0	0	0	
0.0253333	0.0158989	-0.0155259	0.00147786	0.000503773	0	0	0	
0.0255	-0.0185523	0.0365835	0.00158768	0.00056418	0	0	0	
0.0256667	0.0190282	0.0179441	0.00155724	0.000820865	0	0	0	
0.0258333	-0.0157611	-0.0399528	0.00148125	0.000724213	0	0	0	
0.026	0.0143732	5.34598E-05	0.0014461	0.000758956	0	0	0	
0.0261667	-0.0135314	0.01502	0.00146139	0.000449791	0	0	0	
0.0263333	0.0142433	0.0166449	0.0014747	0.000488203	0	0	0	
0.0265	-0.0128188	-0.012465	0.00145754	0.000386519	0	0	0	
0.0266667	0.0110711	-0.0239551	0.00140784	0.00055658	0	0	0	
0.0268333	-0.00918258	0.0225306	0.00136399	0.00042259	0	0	0	
0.027	0.010148	0.0121329	0.001356	0.000547557	0	0	0	
0.0271667	-0.0121749	-0.0136646	0.00137575	0.000419506	0	0	0	
0.0273333	0.0128344	-0.00693853	0.00139187	0.000387968	0	0	0	
0.0275	-0.0118463	-0.000787174	0.00139636	0.000244729	0	0	0	
0.0276667	0.0101701	0.0165439	0.00140022	0.000273245	0	0	0	
0.0278333	-0.00895273	0.00194264	0.00140732	0.000278156	0	0	0	
0.028	0.00877531	-0.0177049	0.00141597	0.000338109	0	0	0	
0.0281667	-0.0109539	0.0027334	0.00143619	0.00030714	0	0	0	
0.0283333	0.0145897	0.014707	0.00147885	0.000273743	0	0	0	
0.0285	-0.0161637	-0.00265249	0.00152251	0.000232805	0	0	0	
0.0286667	0.0165308	-0.00883014	0.00151827	0.000208271	0	0	0	
0.0288333	-0.0125617	-0.00151614	0.00145702	0.00024167	0	0	0	
0.029	0.00878279	0.0115556	0.00138209	0.000250583	0	0	0	
0.0291667	-0.00684448	-0.00234483	0.00134754	0.000238245	0	0	0	
0.0293333	0.00513692	0.00175979	0.00136589	0.000149821	0	0	0	
0.0295	-0.00741876	-0.00500823	0.00142614	9.72954E-05	0	0	0	
0.0296667	0.0120836	0.000792579	0.00149933	7.65218E-05	0	0	0	
0.0298333	-0.0138545	0.00543118	0.00153722	8.80654E-05	0	0	0	
0.03	0.0126225	0.00101108	0.00150706	7.74403E-05	0	0	0	
0.0301667	-0.00819042	-0.00316014	0.00143651	0.000108811	0	0	0	
0.0303333	0.00670864	-0.00427396	0.00139044	0.000128345	0	0	0	
0.0305	-0.0078384	0.00567678	0.00140292	0.000143151	0	0	0	
0.0306667	0.00898312	-0.00036369	0.00145044	0.000150559	0	0	0	
0.0308333	-0.010666	0.00444224	0.00149249	0.000144455	0	0	0	
0.031	0.0132558	-0.00769651	0.00150374	0.000165202	0	0	0	
0.0311667	-0.0101226	-0.00565696	0.00148713	0.00017252	0	0	0	
0.0313333	0.0102772	0.0187985	0.001458	0.000241449	0	0	0	
0.0315	-0.00976817	-0.0116568	0.00142895	0.000272383	0	0	0	
0.0316667	0.00476624	-0.01073	0.00138346	0.000350778	0	0	0	
0.0318333	-0.000227773	0.000409773	0.00134467	0.00026238	0	0	0	
0.032	-0.000440393	0.0067966	0.00136552	0.000288466	0	0	0	
0.0321667	-4.03044E-05	0.00845388	0.00143186	0.000205445	0	0	0	
0.0323333	-4.24886E-05	-0.0238488	0.0014579	0.000329513	0	0	0	
0.0325	-0.000108947	-0.00144462	0.00141764	0.000300126	0	0	0	
0.0326667	0.00352622	0.0192935	0.00138844	0.000338366	0	0	0	
0.0328333	-0.00767442	-0.000567322	0.00141149	0.000399836	0	0	0	
0.033	0.00631002	-0.0231274	0.00144237	0.000521447	0	0	0	
0.0331667	-0.00559856	0.00106287	0.00143478	0.000503093	0	0	0	
0.0333333	0.00904943	0.0239527	0.00139662	0.000403351	0	0	0	
0.0335	-0.00931554	-0.0116522	0.00135229	0.000320156	0	0	0	
0.0336667	0.0100667	-0.00389003	0.00131612	0.000325107	0	0	0	
0.0338333	-0.00435667	-0.0134604	0.00129726	0.000286545	0	0	0	
0.034	0.000297126	0.0208925	0.00129585	0.000264169	0	0	0	
0.0341667	0.00299264	0.0110904	0.00133925	0.000328817	0	0	0	
0.0343333	0.00149883	-0.0257594	0.00141053	0.000380672	0	0	0	
0.0345	-0.00223303	0.00639385	0.00145919	0.000405726	0	0	0	
0.0346667	0.00230747	0.00928794	0.00145745	0.000358707	0	0	0	
0.0348333	-0.00241719	-0.00317369	0.00145036	0.000299775	0	0	0	
0.035	0.00447245	-0.0030324	0.00146814	0.00024084	0	0	0	
0.0351667	-0.00484728	-0.00806957	0.0014741	0.00016875	0	0	0	
0.0353333	0.0051055	0.0119647	0.0014365	0.000183189	0	0	0	
0.0355	-0.00272438	-0.00511902	0.00137726	0.000159077	0	0	0	
0.0356667	-8.97298E-05	-0.00183927	0.00133247	0.00015272	0	0	0	
0.0358333	0.00143229	0.0019555	0.00132171	0.000119418	0	0	0	
0.036	-0.000485389	0.00229502	0.00135522	0.000107212	0	0	0	
0.0361667	-0.00222954	-0.00640027	0.00141426	0.000117185	0	0	0	
0.0363333	0.00393342	-0.00220027	0.00145879	9.54874E-05	0	0	0	
0.0365	-0.00300932	0.00311348	0.0014659	7.15211E-05	0	0	0	
0.0366667	0.00485558	-0.0018661	0.00145039	5.95559E-05	0	0	0	
0.0368333	-0.00720551	0.00364527	0.00142782	5.92002E-05	0	0	0	
0.037	0.00636437	-0.00462149	0.00138813	7.38824E-05	0	0	0	
0.0371667	0.000660144	-0.00103922	0.00134041	7.82344E-05	0	0	0	
0.0373333	-0.0022957	0.0048497	0.00132092	0.000100781	0	0	0	
0.0375	-0.00111848	-0.00566185	0.00134659	0.000109189	0	0	0	
0.0376667	0.00244676	0.00561786	0.00138789	0.000121641	0	0	0	
0.0378333	-0.00345108	-0.00761886	0.00140841	0.000123855	0	0	0	
0.038	0.0046296	0.00213509	0.00140779	0.000114214	0	0	0	
0.0381667	-0.00177863	0.00604726	0.00139919	9.22194E-05	0	0	0	
0.0383333	0.000230887	-0.00525189	0.00139153	0.000111335	0	0	0	
0.0385	-0.00126821	-0.0047817	0.00139351	0.000170776	0	0	0	
0.0386667	0.00241779	0.00444444	0.00141105	0.000181679	0	0	0	
0.0388333	-0.00480904	0.00157691	0.00146123	0.000153654	0	0	0	
0.039	0.0132685	0.010243	0.0015513	0.000243111	0	0	0	
0.0391667	-0.0155468	-0.0229529	0.00162919	0.000419563	0	0	0	
0.0393333	0.0078883	0.00675984	0.00160666	0.000484523	0	0	0	
0.0395	0.00191147	0.00195935	0.00148945	0.000328179	0	0	0	
0.0396667	-0.00150082	-0.00322449	0.00139055	0.000166147	0	0	0	
0.0398333	0.00426039	0.0201906	0.00137071	0.000130838	0	0	0	
0.04	-0.0108892	-0.0346972	0.00139719	0.000297919	0	0	0	
0.0401667	0.0132359	0.0252062	0.00144979	0.00044269	0	0	0	
0.0403333	-0.00805199	-0.0151553	0.00153631	0.000511486	0	0	0	
0.0405	0.00348867	0.0111445	0.00159878	0.000400201	0	0	0	
0.0406667	0.000350312	-0.00152914	0.0015712	0.000274119	0	0	0	
0.0408333	2.06744E-05	-0.0120884	0.00148745	0.000175911	0	0	0	
0.041	-0.000450925	0.00857814	0.00142082	0.000210218	0	0	0	
0.0411667	0.00105101	-0.00411508	0.00139655	0.000256666	0	0	0	
0.0413333	-0.00156174	0.0161229	0.00139498	0.000284863	0	0	0	
0.0415	0.00425019	-0.0183294	0.00139645	0.000284181	0	0	0	
0.0416667	-0.00312882	0.00470513	0.00139539	0.00026268	0	0	0	
0.0418333	0.00425343	0.000700913	0.00140324	0.000216617	0	0	0	
0.042	-0.00204943	0.00608239	0.00142403	0.000183574	0	0	0	
0.0421667	0.00250608	-0.00355484	0.00143769	0.000143849	0	0	0	
0.0423333	-0.00421572	-0.00362487	0.00142001	0.00015481	0	0	0	
0.0425	0.00626165	0.00532085	0.00139004	9.77291E-05	0	0	0	
0.0426667	-0.00465577	-0.00111532	0.00137114	0.000104862	0	0	0	
0.0428333	0.00740729	0.00087221	0.00136936	0.000113879	0	0	0	
0.043	-0.00703026	0.00059726	0.00138551	0.000134749	0	0	0	
0.0431667	0.00472875	-0.00122686	0.00142688	0.000125916	0	0	0	
0.0433333	-0.00252725	-0.00177137	0.0014727	9.29722E-05	0	0	0	
0.0435	0.00137479	0.00592144	0.00148526	8.44558E-05	0	0	0	
0.0436667	0.00145063	-0.0043569	0.00145189	8.16219E-05	0	0	0	
0.0438333	0.00233649	0.00274474	0.00139617	8.87268E-05	0	0	0	
0.044	-0.00462975	0.00301926	0.00135865	8.92721E-05	0	0	0	
0.0441667	0.0048399	-0.00790195	0.00136438	9.51335E-05	0	0	0	
0.0443333	-0.00455471	0.00132536	0.00140406	0.000115614	0	0	0	
0.0445	0.00410308	0.00755945	0.00143804	0.000106737	0	0	0	
0.0446667	-0.00301216	-0.000487512	0.00144365	0.000120871	0	0	0	
0.0448333	0.006653	0.00247732	0.00143359	0.000139788	0	0	0	
0.045	-0.00739711	-0.00678287	0.00142208	0.000163482	0	0	0	
0.0451667	0.00910982	0.00560904	0.00141751	0.000141296	0	0	0	
0.0453333	-0.00914022	-0.000291875	0.00143186	0.000114508	0	0	0	
0.0455	0.00609225	0.00541332	0.0014777	0.000102076	0	0	0	
0.0456667	-0.000850894	-0.0059415	0.00152038	0.000152808	0	0	0	
0.0458333	0.00187516	0.00334245	0.00150589	0.000144951	0	0	0	
0.046	-0.00523413	0.00535726	0.00143117	0.000145467	0	0	0	
0.0461667	0.00972658	-0.0106935	0.00135719	0.000120675	0	0	0	
0.0463333	-0.0107131	0.012851	0.00133594	0.000188063	0	0	0	
0.0465	0.010784	-0.0110016	0.00136593	0.000240587	0	0	0	
0.0466667	-0.00831035	0.00453004	0.00140884	0.000222027	0	0	0	
0.0468333	0.0077378	0.00446207	0.00145144	0.000155244	0	0	0	
0.047	-0.00490483	-0.00394906	0.00148383	0.00010734	0	0	0	
0.0471667	0.00359908	0.00744747	0.00148063	0.000112836	0	0	0	
0.0473333	-0.00697123	-0.0218764	0.00142512	0.000190867	0	0	0	
0.0475	0.0121476	0.00839065	0.0013678	0.00026721	0	0	0	
0.0476667	-0.00994929	0.0155626	0.00136954	0.000352294	0	0	0	
0.0478333	0.00627109	-0.00398229	0.00142806	0.000345321	0	0	0	
0.048	-0.00635218	-0.00676816	0.00147903	0.00032283	0	0	0	
0.0481667	0.00635308	-0.0160902	0.00148783	0.000307647	0	0	0	
0.0483333	-0.00745802	0.0212487	0.00146661	0.000326986	0	0	0	
0.0485	0.00796757	0.00514348	0.00144044	0.000376738	0	0	0	
0.0486667	-0.00844506	-0.00545127	0.00142774	0.000298459	0	0	0	
0.0488333	0.00997954	-0.0183689	0.00142469	0.000379975	0	0	0	
0.049	-0.0161764	0.00434415	0.00142709	0.000298837	0	0	0	
0.0491667	0.0175534	0.0199176	0.00147105	0.000302505	0	0	0	
0.0493333	-0.0114139	-0.00361458	0.00158939	0.000290652	0	0	0	
0.0495	-0.000305083	-0.0143412	0.00169427	0.000371028	0	0	0	
0.0496667	-0.00541858	-0.00390634	0.00165176	0.000372116	0	0	0	
0.0498333	0.0121525	-0.00582745	0.00148907	0.000275173	0	0	0	
0.05	-0.014026	0.0103447	0.00137462	0.000234905	0	0	0	
0.0501667	0.0161177	0.0129429	0.00136566	0.000295434	0	0	0	
0.0503333	-0.0235594	-0.0182034	0.00138668	0.000361799	0	0	0	
0.0505	0.0231935	-0.0052338	0.00140525	0.000369575	0	0	0	
0.0506667	-0.0152835	0.00518165	0.0014709	0.000346996	0	0	0	
0.0508333	0.00743443	0.0171607	0.00153379	0.000298113	0	0	0	
0.051	-0.0123455	-0.0215645	0.00150169	0.000296375	0	0	0	
0.0511667	0.0178266	-0.00929636	0.00141131	0.000402609	0	0	0	
0.0513333	-0.0142746	0.0151406	0.00139069	0.000361778	0	0	0	
0.0515	0.00938367	0.0128593	0.00146056	0.000410168	0	0	0	
0.0516667	-0.0076058	-0.0076675	0.00149597	0.00027523	0	0	0	
0.0518333	0.0116136	-0.0170804	0.00144675	0.000391127	0	0	0	
0.052	-0.0133843	0.0132292	0.00138508	0.000326039	0	0	0	
0.0521667	0.0131055	0.014393	0.00137516	0.000445115	0	0	0	
0.0523333	-0.0140135	-0.0113286	0.00138506	0.000345162	0	0	0	
0.0525	0.0166017	-0.00669068	0.0013807	0.000349944	0	0	0	
0.0526667	-0.0165357	0.00305768	0.00138444	0.000203715	0	0	0	
0.0528333	0.0142589	0.00153151	0.00141909	0.00014054	0	0	0	
0.053	-0.0146519	0.00446657	0.00145185	9.94264E-05	0	0	0	
0.0531667	0.0159852	0.00102918	0.00144466	8.41707E-05	0	0	0	
0.0533333	-0.0163266	-0.00592811	0.00142462	9.99032E-05	0	0	0	
0.0535	0.0153435	0.000706799	0.0014291	6.77684E-05	0	0	0	
0.0536667	-0.0152326	-0.00513749	0.00144827	0.000102945	0	0	0	
0.0538333	0.0178597	0.00827905	0.00144954	0.000115536	0	0	0	
0.054	-0.0185761	0.00415709	0.00144592	0.000175419	0	0	0	
0.0541667	0.0135056	-0.00648437	0.00146486	0.000164167	0	0	0	
0.0543333	-0.0114042	-0.00956627	0.00148765	0.000193812	0	0	0	
0.0545	0.0134828	0.00446242	0.00146398	0.000148756	0	0	0	
0.0546667	-0.0175819	0.00552151	0.00140594	0.000185342	0	0	0	
0.0548333	0.0207248	0.00353077	0.00136858	0.000133182	0	0	0	
0.055	-0.0191014	-0.00788945	0.00138394	0.000132151	0	0	0	
0.0551667	0.0192802	-0.00317985	0.00142863	0.000127964	0	0	0	
0.0553333	-0.0200632	-0.000747911	0.00145714	0.000137528	0	0	0	
0.0555	0.0192212	0.00227245	0.00146057	0.000113352	0	0	0	
0.0556667	-0.0182963	0.00518251	0.00144978	9.02554E-05	0	0	0	
0.0558333	0.0193775	-0.00702847	0.00143577	0.000100931	0	0	0	
0.056	-0.0205	-0.000333387	0.00142722	0.000138063	0	0	0	
0.0561667	0.0218477	-0.00267587	0.00143665	0.000114082	0	0	0	
0.0563333	-0.0193627	0.00673293	0.00145054	0.000141874	0	0	0	
0.0565	0.0179858	-0.00269474	0.00144524	0.000122526	0	0	0	
0.0566667	-0.0188148	-0.000729881	0.00142199	0.000139611	0	0	0	
0.0568333	0.0183991	-0.00724966	0.00141615	0.000188645	0	0	0	
0.057	-0.0173808	0.00311896	0.00142428	0.00021515	0	0	0	
0.0571667	0.0202216	0.0120104	0.00141179	0.000208388	0	0	0	
0.0573333	-0.0241092	-0.00738065	0.00137829	0.000182601	0	0	0	
0.0575	0.0244171	-0.00244918	0.0013583	0.000229348	0	0	0	
0.0576667	-0.0247701	-0.00179136	0.00137359	0.000209551	0	0	0	
0.0578333	0.0240568	0.00457563	0.00141002	0.000135564	0	0	0	
0.058	-0.0190105	0.00387492	0.00144555	7.45811E-05	0	0	0	
0.0581667	0.0210719	0.00106621	0.00146692	0.00010509	0	0	0	
0.0583333	-0.0208965	-0.00813656	0.00145723	0.000174289	0	0	0	
0.0585	0.019979	-0.000641944	0.00143742	0.000176362	0	0	0	
0.0586667	-0.0192181	0.00991858	0.001407	0.000209562	0	0	0	
0.0588333	0.0229138	0.000265738	0.00137207	0.000152993	0	0	0	
0.059	-0.0240213	0.000373353	0.00135302	0.000112187	0	0	0	
0.0591667	0.0256359	-0.0095822	0.00138489	0.000122472	0	0	0	
0.0593333	-0.0231349	0.00582911	0.0014316	0.000145217	0	0	0	
0.0595	0.0237141	0.0119732	0.00145182	0.000217364	0	0	0	
0.0596667	-0.0233364	-0.0106003	0.00144302	0.000208403	0	0	0	
0.0598333	0.0206115	-0.00431051	0.00143834	0.000277429	0	0	0	
0.06	-0.0201085	0.00568146	0.00143068	0.000224931	0	0	0	
0.0601667	0.0225145	0.00461707	0.00140639	0.000192851	0	0	0	
0.0603333	-0.023807	-0.00306474	0.00138174	9.46934E-05	0	0	0	
0.0605	0.0253157	0.00200713	0.00137728	9.99288E-05	0	0	0	
0.0606667	-0.0263747	-0.00434893	0.00139358	6.968E-05	0	0	0	
0.0608333	0.0263604	0.00665464	0.00142185	9.16913E-05	0	0	0	
0.061	-0.0237661	-0.00273356	0.00143662	9.03304E-05	0	0	0	
0.0611667	0.0249768	0.00529251	0.00143972	0.000104294	0	0	0	
0.0613333	-0.0233987	-0.00502579	0.0014336	0.000103279	0	0	0	
0.0615	0.0229902	0.000920909	0.0014371	0.000101406	0	0	0	
0.0616667	-0.0223602	-0.00366517	0.00143428	8.58957E-05	0	0	0	
0.0618333	0.0212322	0.00289255	0.00143363	6.76171E-05	0	0	0	
0.062	-0.0180805	0.00654607	0.00142935	8.53199E-05	0	0	0	
0.0621667	0.0218588	0.00131419	0.00140717	9.00225E-05	0	0	0	
0.0623333	-0.0264521	-0.00350095	0.00135469	0.000119201	0	0	0	
0.0625	0.0243251	-0.00926	0.00133507	0.000139084	0	0	0	
0.0626667	-0.0201012	0.00252624	0.00141005	0.000265059	0	0	0	
0.0628333	0.0148331	0.00856109	0.00151093	0.000287686	0	0	0	
0.063	-0.0188197	-0.00478566	0.00151678	0.000347658	0	0	0	
0.0631667	0.026484	-0.0100999	0.00141504	0.00042867	0	0	0	
0.0633333	-0.0338293	0.00509884	0.00133478	0.000397925	0	0	0	
0.0635	0.0336694	0.0259631	0.00135559	0.000440735	0	0	0	
0.0636667	-0.0364217	-0.0412485	0.00147503	0.00041376	0	0	0	
0.0638333	0.0292086	0.0172648	0.00159224	0.000607745	0	0	0	
0.064	-0.0227055	0.00465955	0.00165588	0.000509802	0	0	0	
0.0641667	0.0186439	0.00454185	0.00161927	0.000339156	0	0	0	
0.0643333	-0.0223555	-0.000549347	0.00150223	0.000119799	0	0	0	
0.0645	0.0291913	-0.0158982	0.00135043	0.000102244	0	0	0	
0.0646667	-0.0364576	0.0160619	0.00126967	0.000184568	0	0	0	
0.0648333	0.0329304	0.0021909	0.00132178	0.000246378	0	0	0	
0.065	-0.02677	-0.00459185	0.00144317	0.000215818	0	0	0	
0.0651667	0.0267244	-0.00402501	0.0014966	0.000232213	0	0	0	
0.0653333	-0.0284074	0.0118753	0.00145829	0.000302089	0	0	0	
0.0655	0.0294078	-0.00256935	0.00140944	0.000352431	0	0	0	
0.0656667	-0.0276338	-0.00586474	0.00138902	0.000254905	0	0	0	
0.0658333	0.029923	0.00456236	0.00138538	0.000156491	0	0	0	
0.066	-0.0325275	-0.00290332	0.0013807	0.000118579	0	0	0	
0.0661667	0.0311695	0.00147279	0.00139132	0.000107686	0	0	0	
0.0663333	-0.0299831	0.00103945	0.00141714	7.3518E-05	0	0	0	
0.0665	0.0301008	-0.000500066	0.00144	6.42153E-05	0	0	0	
0.0666667	-0.0282554	-0.00628578	0.00144664	7.05786E-05	0	0	0	
0.0668333	0.0300061	0.0024013	0.00144032	0.000120559	0	0	0	
0.067	-0.0310467	0.00763471	0.00142086	0.000218362	0	0	0	
0.0671667	0.0315285	-0.00509116	0.00140235	0.000247834	0	0	0	
0.0673333	-0.0319639	-0.000724602	0.00140647	0.000211816	0	0	0	
0.0675	0.0308119	-0.00228723	0.00143936	0.000125241	0	0	0	
0.0676667	-0.0299314	0.0125	0.00146777	0.000156479	0	0	0	
0.0678333	0.0321537	-0.00645771	0.00145442	0.000177423	0	0	0	
0.068	-0.0344885	-0.00790132	0.00142709	0.000230673	0	0	0	
0.0681667	0.0319594	0.0119356	0.00141548	0.000204487	0	0	0	
0.0683333	-0.0327324	0.000153961	0.00142743	0.000234408	0	0	0	
0.0685	0.0351816	-0.00366159	0.00143279	0.000201737	0	0	0	
0.0686667	-0.0339956	0.00536039	0.00142989	0.000176722	0	0	0	
0.0688333	0.0341106	-0.00730351	0.00141537	0.000168066	0	0	0	
0.069	-0.0380201	0.0134132	0.00139157	0.000204245	0	0	0	
0.0691667	0.0399837	-0.0107888	0.00138165	0.000248693	0	0	0	
0.0693333	-0.0385245	-0.000968616	0.0014159	0.00022766	0	0	0	
0.0695	0.0327191	0.00795328	0.00146679	0.000198344	0	0	0	
0.0696667	-0.0291313	-0.00783937	0.00148354	0.000166806	0	0	0	
0.0698333	0.029928	-0.000107594	0.00143908	0.000193407	0	0	0	
0.07	-0.033134	-0.00295977	0.00137518	0.000203762	0	0	0	
0.0701667	0.0361595	0.00511734	0.00133785	0.00020803	0	0	0	
0.0703333	-0.0353557	-0.00310687	0.00132994	0.000190453	0	0	0	
0.0705	0.0364706	-0.00301518	0.00135364	0.000175994	0	0	0	
0.0706667	-0.0375911	-9.3899E-05	0.00138918	0.000133279	0	0	0	
0.0708333	0.0360963	0.00596918	0.00142411	0.000126017	0	0	0	
0.071	-0.0352941	-0.0120034	0.00144038	0.000122349	0	0	0	
0.0711667	0.0358625	0.00672549	0.00143443	0.000183148	0	0	0	
0.0713333	-0.0344765	-0.0021573	0.00141249	0.000176918	0	0	0	
0.0715	0.037864	0.00640099	0.0014048	0.000192613	0	0	0	
0.0716667	-0.0381452	-0.00340415	0.00141351	0.000210833	0	0	0	
0.0718333	0.0365439	-0.00130453	0.0014425	0.000229	0	0	0	
0.072	-0.034041	0.00674673	0.00145243	0.000216237	0	0	0	
0.0721667	0.0348464	-0.00499966	0.00144259	0.000178649	0	0	0	
0.0723333	-0.0347864	0.00496549	0.00141589	0.000144917	0	0	0	
0.0725	0.0358892	-0.00034973	0.00139931	0.000108562	0	0	0	
0.0726667	-0.0370813	0.000982356	0.00139552	7.70514E-05	0	0	0	
0.0728333	0.0393477	-0.00558044	0.00140514	8.07984E-05	0	0	0	
0.073	-0.0387607	0.0013752	0.00140905	9.716E-05	0	0	0	
0.0731667	0.0373249	0.000649189	0.00142134	0.000111914	0	0	0	
0.0733333	-0.0338331	0.00016694	0.00143365	9.75777E-05	0	0	0	
0.0735	0.0316953	0.00382608	0.00143863	8.84452E-05	0	0	0	
0.0736667	-0.0333158	-0.0111293	0.00141856	0.000106145	0	0	0	
0.0738333	0.0373296	0.00670957	0.00139793	0.000149217	0	0	0	
0.074	-0.0385176	0.00208686	0.00138717	0.000192677	0	0	0	
0.0741667	0.0392088	-0.0076643	0.00139619	0.000172786	0	0	0	
0.0743333	-0.0410323	0.00728447	0.00142047	0.000157562	0	0	0	
0.0745	0.0417879	-0.00841192	0.00147095	0.000145361	0	0	0	
0.0746667	-0.037506	-0.000636037	0.00150699	0.000142337	0	0	0	
0.0748333	0.0400797	0.0241693	0.00153693	0.000169331	0	0	0	
0.075	-0.0416758	-0.0262677	0.00155257	0.000282242	0	0	0	
0.0751667	0.0430309	0.0109585	0.0015673	0.000460319	0	0	0	
0.0753333	-0.0452177	-0.0014162	0.0015466	0.000522081	0	0	0	
0.0755	0.0474214	0.00701095	0.00152965	0.00043542	0	0	0	
0.0756667	-0.040343	-0.00960116	0.00151729	0.00030906	0	0	0	
0.0758333	0.0445574	0.020571	0.00151754	0.00029375	0	0	0	
0.076	-0.0496168	-0.0253405	0.00149155	0.000376124	0	0	0	
0.0761667	0.0505562	0.016262	0.00148519	0.00047188	0	0	0	
0.0763333	-0.0458176	-0.0114666	0.00147942	0.000524818	0	0	0	
0.0765	0.0467482	0.0159012	0.00147056	0.000500008	0	0	0	
0.0766667	-0.0453458	0.00264971	0.00145003	0.000382829	0	0	0	
0.0768333	0.0417179	-0.0177339	0.00144673	0.000287708	0	0	0	
0.077	-0.0380927	0.00385887	0.00143848	0.000329676	0	0	0	
0.0771667	0.0422583	0.00293061	0.00141795	0.000403474	0	0	0	
0.0773333	-0.044148	0.00905593	0.00139533	0.000368965	0	0	0	
0.0775	0.0437324	-0.0132405	0.00139869	0.00025514	0	0	0	
0.0776667	-0.0436471	-0.000996854	0.00141597	0.000187146	0	0	0	
0.0778333	0.0434746	0.00491853	0.00143125	0.00016521	0	0	0	
0.078	-0.0421797	0.005461	0.00144971	0.000191377	0	0	0	
0.0781667	0.0405262	-0.0069904	0.00146641	0.000160496	0	0	0	
0.0783333	-0.0365419	-0.00646247	0.00145686	0.000203015	0	0	0	
0.0785	0.0375275	0.00381548	0.00141245	0.000145468	0	0	0	
0.0786667	-0.0407622	0.00165864	0.0013542	0.000137529	0	0	0	
0.0788333	0.0435669	-0.00287487	0.00132769	9.11591E-05	0	0	0	
0.079	-0.0469837	-0.00201443	0.00135489	6.00957E-05	0	0	0	
0.0791667	0.0477124	-0.00100849	0.0014161	4.72944E-05	0	0	0	
0.0793333	-0.0453427	0.00373742	0.00146937	4.8237E-05	0	0	0	
0.0795	0.0452863	-0.00279566	0.00150688	6.67636E-05	0	0	0	
0.0796667	-0.0409594	0.000554268	0.00150648	8.68059E-05	0	0	0	
0.0798333	0.0395472	0.00103785	0.00148656	8.85881E-05	0	0	0	
0.08	-0.0422943	-0.00706794	0.00143482	0.000101727	0	0	0	
0.0801667	0.0447649	0.00139204	0.00139448	9.81589E-05	0	0	0	
0.0803333	-0.0458195	0.0017635	0.00137334	8.30151E-05	0	0	0	
0.0805	0.0477147	0.00333811	0.00139548	7.36187E-05	0	0	0	
0.0806667	-0.0434644	-0.00426378	0.00140884	7.23191E-05	0	0	0	
0.0808333	0.0436662	0.000372864	0.00141882	9.3807E-05	0	0	0	
0.081	-0.0435853	-0.000812272	0.00140752	8.97597E-05	0	0	0	
0.0811667	0.0428282	0.00278713	0.00141568	7.67939E-05	0	0	0	
0.0813333	-0.0420069	-0.00380794	0.00141073	8.54384E-05	0	0	0	
0.0815	0.046301	0.00304587	0.00139396	0.000134747	0	0	0	
0.0816667	-0.0481748	-0.000330977	0.00137915	0.000181206	0	0	0	
0.0818333	0.0484696	-0.000398212	0.00141887	0.00018241	0	0	0	
0.082	-0.0443065	-0.00126027	0.00147207	0.000123015	0	0	0	
0.0821667	0.0439872	0.00237021	0.00149588	8.74528E-05	0	0	0	
0.0823333	-0.0448995	-0.00544467	0.00146775	6.40055E-05	0	0	0	
0.0825	0.0460157	0.00458825	0.00143925	8.04306E-05	0	0	0	
0.0826667	-0.0459938	-0.00539796	0.0014264	9.11305E-05	0	0	0	
0.0828333	0.0490041	0.00742792	0.00142961	0.000108657	0	0	0	
0.083	-0.0491636	-0.00205167	0.00142943	0.000111558	0	0	0	
0.0831667	0.049446	-0.00122587	0.00144589	8.52745E-05	0	0	0	
0.0833333	-0.0490637	-0.00799516	0.00146192	8.26652E-05	0	0	0	
0.0835	0.0507417	0.00915097	0.00147291	0.000103936	0	0	0	
0.0836667	-0.0501271	9.99763E-05	0.00146724	0.000177171	0	0	0	
0.0838333	0.0512342	-0.000128232	0.0014708	0.000169484	0	0	0	
0.084	-0.0500942	-0.00255492	0.00147765	0.000133861	0	0	0	
0.0841667	0.0485086	0.000558939	0.00147545	6.38146E-05	0	0	0	
0.0843333	-0.0505267	-0.00133994	0.00144919	5.75112E-05	0	0	0	
0.0845	0.0541516	0.00727714	0.00142329	9.56785E-05	0	0	0	
0.0846667	-0.0485438	-0.00655155	0.00142263	0.000119075	0	0	0	
0.0848333	0.0441598	0.00585696	0.00143903	0.00019162	0	0	0	
0.085	-0.0453585	-0.00748046	0.00141371	0.000186869	0	0	0	
0.0851667	0.0480293	-8.15126E-05	0.00134966	0.000177293	0	0	0	
0.0853333	-0.0466726	0.0101069	0.00133719	0.000158028	0	0	0	
0.0855	0.0373591	-0.0164226	0.00136155	0.000171138	0	0	0	
0.0856667	-0.0409341	0.00629357	0.00134027	0.000237861	0	0	0	
0.0858333	0.0571332	-0.014198	0.00128851	0.000328579	0	0	0	
0.086	-0.0571203	0.0307736	0.00131237	0.000404192	0	0	0	
0.0861667	0.0486977	-0.00562099	0.00140865	0.000498574	0	0	0	
0.0863333	-0.0550451	-0.0332677	0.00147714	0.000456116	0	0	0	
0.0865	0.0562901	0.0069516	0.00150703	0.000528382	0	0	0	
0.0866667	-0.0448429	0.00747729	0.00154541	0.000497668	0	0	0	
0.0868333	0.0394659	0.0245719	0.00154364	0.000471306	0	0	0	
0.087	-0.0420223	-0.0195058	0.00143923	0.000389375	0	0	0	
0.0871667	0.0492648	-0.0171851	0.00131901	0.0005085	0	0	0	
0.0873333	-0.0548204	0.013069	0.00127351	0.000492203	0	0	0	
0.0875	0.0579189	0.0193244	0.00133647	0.000589329	0	0	0	
0.0876667	-0.054874	-0.0125825	0.00142317	0.000421937	0	0	0	
0.0878333	0.0509884	-0.0197335	0.00148329	0.000463373	0	0	0	
0.088	-0.0480271	0.0163023	0.0014841	0.00035394	0	0	0	
0.0881667	0.0488782	0.0108318	0.00145585	0.000377275	0	0	0	
0.0883333	-0.0491496	-0.00474285	0.00140669	0.000325632	0	0	0	
0.0885	0.0516766	-0.00967569	0.00136825	0.000352569	0	0	0	
0.0886667	-0.0526109	0.00455266	0.00134943	0.000251572	0	0	0	
0.0888333	0.0528015	0.0041974	0.00135922	0.000239601	0	0	0	
0.089	-0.0528273	0.0076937	0.00137717	0.000158871	0	0	0	
0.0891667	0.0542742	-0.0113336	0.0014037	0.000188298	0	0	0	
0.0893333	-0.0546046	-0.00533433	0.00142532	0.000265391	0	0	0	
0.0895	0.0527353	0.0202176	0.00144419	0.000278638	0	0	0	
0.0896667	-0.05219	-0.00246448	0.00143677	0.000324219	0	0	0	
0.0898333	0.0534042	-0.0057461	0.00142615	0.000248278	0	0	0	
0.09	-0.0515336	-0.00543039	0.00141774	0.00023121	0	0	0	
0.0901667	0.0524063	0.008494	0.00142583	0.000174042	0	0	0	
0.0903333	-0.0540361	0.0137003	0.00141385	0.000262808	0	0	0	
0.0905	0.054352	-0.0122879	0.00140439	0.000277565	0	0	0	
0.0906667	-0.0552908	-0.00967495	0.00139526	0.000331982	0	0	0	
0.0908333	0.0565519	0.0108291	0.00141045	0.000253951	0	0	0	
0.091	-0.0557095	0.00760089	0.00142627	0.000312694	0	0	0	
0.0911667	0.0534027	-0.000286005	0.00143652	0.000222037	0	0	0	
0.0913333	-0.0525545	-0.0151756	0.00141309	0.000255031	0	0	0	
0.0915	0.0559641	0.00450387	0.00139282	0.000182963	0	0	0	
0.0916667	-0.0566981	0.0119821	0.00138623	0.000251482	0	0	0	
0.0918333	0.0552637	0.00085614	0.00140267	0.000238208	0	0	0	
0.092	-0.0600123	-0.0155282	0.00142089	0.000226748	0	0	0	
0.0921667	0.0586075	-0.00330247	0.00144111	0.000263361	0	0	0	
0.0923333	-0.0542019	0.0130839	0.00147003	0.00026163	0	0	0	
0.0925	0.052178	0.00685359	0.00149133	0.000263948	0	0	0	
0.0926667	-0.0537003	-0.00643625	0.00146323	0.000188269	0	0	0	
0.0928333	0.054371	-0.0150249	0.00139206	0.000192151	0	0	0	
0.093	-0.0587056	0.00362261	0.00133009	0.000192194	0	0	0	
0.0931667	0.0594101	0.0143928	0.00132572	0.000260266	0	0	0	
0.0933333	-0.0640396	-0.00815049	0.00137325	0.000232186	0	0	0	
0.0935	0.0650924	-0.00660762	0.00146161	0.000277953	0	0	0	
0.0936667	-0.0553749	0.0097813	0.00151504	0.000225923	0	0	0	
0.0938333	0.0479915	-0.00353053	0.0014976	0.000229292	0	0	0	
0.094	-0.0498351	0.0112667	0.00140655	0.000274684	0	0	0	
0.0941667	0.053939	-0.0184732	0.00133733	0.000332081	0	0	0	
0.0943333	-0.0563854	0.00113222	0.00134079	0.000368088	0	0	0	
0.0945	0.057251	0.0110973	0.00138709	0.000251524	0	0	0	
0.0946667	-0.0541816	0.00362259	0.0014142	0.000271446	0	0	0	
0.0948333	0.0552059	0.000819143	0.00141959	0.000227365	0	0	0	
0.095	-0.0578028	-0.0152213	0.00141138	0.000284983	0	0	0	
0.0951667	0.0597625	0.0105847	0.0014063	0.000214889	0	0	0	
0.0953333	-0.0614714	0.00781912	0.00142421	0.000278422	0	0	0	
0.0955	0.0618447	-0.000448144	0.00144928	0.000216787	0	0	0	
0.0956667	-0.0617971	-0.0160853	0.00148815	0.000262038	0	0	0	
0.0958333	0.0604755	0.0032794	0.00150499	0.000203558	0	0	0	
0.096	-0.0582914	0.020077	0.00149811	0.000285863	0	0	0	
0.0961667	0.0568091	-0.0144516	0.00146448	0.000279354	0	0	0	
0.0963333	-0.0594815	-0.0070352	0.00142865	0.000322062	0	0	0	
0.0965	0.0609165	0.00812817	0.00141388	0.000264201	0	0	0	
0.0966667	-0.0598761	0.00617241	0.0014232	0.00024551	0	0	0	
0.0968333	0.0599107	-0.00371196	0.00143496	0.000174291	0	0	0	
0.097	-0.0610303	-0.00718574	0.00143698	0.000159818	0	0	0	
0.0971667	0.0610692	-0.00426799	0.00144759	0.000158711	0	0	0	
0.0973333	-0.0589367	0.0135052	0.00145405	0.000200779	0	0	0	
0.0975	0.057262	0.00110152	0.00144649	0.000238606	0	0	0	
0.0976667	-0.0587288	-0.00994531	0.00141657	0.000209204	0	0	0	
0.0978333	0.0615281	-0.000553529	0.00140321	0.000193323	0	0	0	
0.098	-0.0625788	0.00588491	0.00140972	0.00013839	0	0	0	
0.0981667	0.0639838	-0.000707171	0.00143837	0.000112075	0	0	0	
0.0983333	-0.0627381	0.00203306	0.0014581	0.000109635	0	0	0	
0.0985	0.0602773	-0.00490483	0.00146766	0.000149943	0	0	0	
0.0986667	-0.0607333	-0.00391694	0.00144969	0.000144482	0	0	0	
0.0988333	0.0629791	0.00575693	0.00143368	0.000113868	0	0	0	
0.099	-0.06392	0.00111216	0.00143515	0.000116374	0	0	0	
0.0991667	0.0651431	-0.00176623	0.00146527	0.000129986	0	0	0	
0.0993333	-0.0629798	-0.00687214	0.00148278	0.000123728	0	0	0	
0.0995	0.062094	0.00624079	0.00147832	0.000105585	0	0	0	
0.0996667	-0.0622395	6.31588E-06	0.00145551	0.0001039	0	0	0	
0.0998333	0.0629357	0.000383698	0.00144185	9.91249E-05	0	0	0	
0.1	-0.0608932	-0.00594008	0.00143318	8.76818E-05	0	0	0	
0.100167	0.0621122	0.00380618	0.0014277	9.16562E-05	0	0	0	
0.100333	-0.061841	0.00158634	0.00141505	8.89461E-05	0	0	0	
0.1005	0.0638662	0.00207647	0.0014112	7.38717E-05	0	0	0	
0.100667	-0.0638247	-0.000708315	0.00140685	6.61138E-05	0	0	0	
0.100833	0.0628617	-0.00350212	0.00140792	8.46257E-05	0	0	0	
0.101	-0.0633883	0.00256499	0.00140887	0.000122626	0	0	0	
0.101167	0.0645379	0.00201791	0.00142593	0.000164925	0	0	0	
0.101333	-0.0617751	0.00386413	0.00144526	0.000191443	0	0	0	
0.1015	0.0593218	-0.00298811	0.00144643	0.000182404	0	0	0	
0.101667	-0.0598227	0.00420787	0.00140782	0.00016853	0	0	0	
0.101833	0.060256	-0.00197013	0.00136775	0.000146356	0	0	0	
0.102	-0.0651372	0.000982477	0.00136308	0.000114643	0	0	0	
0.102167	0.0651785	0.000806634	0.0014067	6.55666E-05	0	0	0	
0.102333	-0.0612962	0.00237516	0.00145034	5.85304E-05	0	0	0	
0.1025	0.0591472	-0.000317233	0.00145872	5.33101E-05	0	0	0	
0.102667	-0.0602985	0.00474251	0.00142265	6.75649E-05	0	0	0	
0.102833	0.0628615	-0.000763509	0.00138822	6.89657E-05	0	0	0	
0.103	-0.0635014	-0.00550707	0.00138722	8.02865E-05	0	0	0	
0.103167	0.0623711	0.00712518	0.00140932	0.000111912	0	0	0	
0.103333	-0.0619679	-0.00412843	0.00141923	0.000142111	0	0	0	
0.1035	0.0656055	0.00597705	0.00141772	0.000189399	0	0	0	
0.103667	-0.0667537	-0.00512071	0.00142648	0.000236002	0	0	0	
0.103833	0.0661288	0.00671678	0.00144134	0.000243946	0	0	0	
0.104	-0.0668427	-0.00384609	0.00141908	0.000204677	0	0	0	
0.104167	0.0721223	0.000681756	0.00142174	0.000119573	0	0	0	
0.104333	-0.0683055	0.00911824	0.00145374	7.41445E-05	0	0	0	
0.1045	0.0641826	-0.0199839	0.0015134	0.000145216	0	0	0	
0.104667	-0.0585915	0.0273112	0.00149294	0.000286362	0	0	0	
0.104833	0.0572761	-0.00272094	0.00142065	0.000370407	0	0	0	
0.105	-0.0588525	-0.0116469	0.00133054	0.00034817	0	0	0	
0.105167	0.0653891	0.00833011	0.00131076	0.000262415	0	0	0	
0.105333	-0.0684337	-0.00659986	0.00133843	0.000228085	0	0	0	
0.1055	0.0670914	0.0278348	0.00141382	0.000251194	0	0	0	
0.105667	-0.0607532	-0.0251923	0.00143716	0.0003429	0	0	0	
0.105833	0.0623576	-0.00351947	0.00141452	0.000455945	0	0	0	
0.106	-0.0670453	0.0187501	0.00137472	0.0004086	0	0	0	
0.106167	0.0694245	0.00862655	0.00137342	0.000456169	0	0	0	
0.106333	-0.0701653	-0.00943389	0.0014111	0.000359966	0	0	0	
0.1065	0.0705333	-0.0183601	0.00145117	0.000393964	0	0	0	
0.106667	-0.0669768	0.0184197	0.00147496	0.000310123	0	0	0	
0.106833	0.0646715	0.00339002	0.00147655	0.000387913	0	0	0	
0.107	-0.0645603	-0.00233102	0.00145649	0.000319628	0	0	0	
0.107167	0.0660266	-0.00954797	0.001432	0.000314088	0	0	0	
0.107333	-0.0660803	-0.000391352	0.00141206	0.000169974	0	0	0	
0.1075	0.0670539	0.016385	0.00141155	0.000231285	0	0	0	
0.107667	-0.0660192	-0.011061	0.0014161	0.000186772	0	0	0	
0.107833	0.0681052	-0.00173125	0.00143123	0.000230343	0	0	0	
0.108	-0.0680678	0.000667837	0.00142615	0.000194945	0	0	0	
0.108167	0.0687612	0.00490633	0.0014317	0.000203586	0	0	0	
0.108333	-0.0681852	-0.00118216	0.00143439	0.000169347	0	0	0	
0.1085	0.0677275	-0.00695129	0.00144979	0.000152091	0	0	0	
0.108667	-0.0658758	0.00851006	0.00144275	0.000157921	0	0	0	
0.108833	0.0676822	-0.0063348	0.00143295	0.000193083	0	0	0	
0.109	-0.0676233	0.00977872	0.00141986	0.000215234	0	0	0	
0.109167	0.0699829	-0.00649621	0.00142726	0.000172609	0	0	0	
0.109333	-0.0715456	-0.00492511	0.00143966	0.00013492	0	0	0	
0.1095	0.0693993	0.00222788	0.00146344	0.000108439	0	0	0	
0.109667	-0.0669594	0.0004704	0.00146752	6.22701E-05	0	0	0	
0.109833	0.0675793	0.00550195	0.00145299	6.48111E-05	0	0	0	
0.11	-0.0704756	-0.00714899	0.00143477	8.55272E-05	0	0	0	
0.110167	0.0694931	-0.00130348	0.00143261	0.000103721	0	0	0	
0.110333	-0.0707948	0.00512581	0.00143718	9.78179E-05	0	0	0	
0.1105	0.0692639	-0.00186094	0.00144696	0.000103203	0	0	0	
0.110667	-0.068188	-0.00435401	0.00144863	0.000131696	0	0	0	
0.110833	0.0626173	-0.00959393	0.00143689	0.000165733	0	0	0	
0.111	-0.0656932	0.0200502	0.00139113	0.000238856	0	0	0	
0.111167	0.0694121	-0.00810475	0.00136459	0.000281947	0	0	0	
0.111333	-0.0735542	-0.00653533	0.00137378	0.000271505	0	0	0	
0.1115	0.0729805	-0.0050139	0.00144061	0.000267456	0	0	0	
0.111667	-0.0701577	0.0042989	0.00148094	0.00020936	0	0	0	
0.111833	0.0664625	0.0110957	0.00148732	0.000279135	0	0	0	
0.112	-0.0669096	-0.0171571	0.00144761	0.000231595	0	0	0	
0.112167	0.0664847	0.00227487	0.0014134	0.000317023	0	0	0	
0.112333	-0.070552	-0.006386	0.00139517	0.000225616	0	0	0	
0.1125	0.0758333	0.0139859	0.00141482	0.000216287	0	0	0	
0.112667	-0.0727321	0.00191023	0.0014448	0.00021914	0	0	0	
0.112833	0.0700536	-0.0209001	0.00147374	0.000306604	0	0	0	
0.113	-0.0698356	0.00778317	0.0014635	0.000330747	0	0	0	
0.113167	0.0703345	-0.000220959	0.00144036	0.000239274	0	0	0	
0.113333	-0.0723838	0.0113944	0.00143267	0.000243282	0	0	0	
0.1135	0.0720273	-0.00201156	0.00144091	0.000213551	0	0	0	
0.113667	-0.0679419	-0.0188799	0.00145091	0.000258387	0	0	0	
0.113833	0.0667494	0.0229564	0.00143926	0.000274679	0	0	0	
0.114	-0.0678544	-0.00602955	0.00140708	0.000355314	0	0	0	
0.114167	0.0694952	-0.000248723	0.00138965	0.000342177	0	0	0	
0.114333	-0.0721322	-0.00813244	0.00139387	0.000243281	0	0	0	
0.1145	0.0738513	0.00795945	0.00142606	0.000195235	0	0	0	
0.114667	-0.0761991	0.000877648	0.00145959	0.000217964	0	0	0	
0.114833	0.0753762	-0.00108938	0.0015011	0.000201928	0	0	0	
0.115	-0.0707081	-0.00183113	0.00150829	0.000188983	0	0	0	
0.115167	0.0679747	0.000450557	0.00148946	0.000135541	0	0	0	
0.115333	-0.0703762	-0.00161534	0.00143451	0.000125767	0	0	0	
0.1155	0.0740424	0.00821112	0.00142695	7.55255E-05	0	0	0	
0.115667	-0.0751736	-0.0154277	0.00144942	0.000126439	0	0	0	
0.115833	0.0712165	0.0113295	0.00149528	0.000212154	0	0	0	
0.116	-0.0666202	0.00252221	0.00146622	0.000225486	0	0	0	
0.116167	0.07525	-0.00444409	0.00142705	0.000177346	0	0	0	
0.116333	-0.0846892	0.00192755	0.00142897	0.0001562	0	0	0	
0.1165	0.0814024	0.00924381	0.00151627	0.000257758	0	0	0	
0.116667	-0.0712261	-0.0337383	0.00158426	0.000417604	0	0	0	
0.116833	0.0622809	0.0232641	0.00153326	0.000515904	0	0	0	
0.117	-0.0634119	0.0126212	0.00140983	0.000564864	0	0	0	
0.117167	0.0669844	-0.0280095	0.00130974	0.000524137	0	0	0	
0.117333	-0.0712162	0.0157951	0.00130248	0.00050358	0	0	0	
0.1175	0.0764487	-0.0069625	0.00135851	0.000401632	0	0	0	
0.117667	-0.0799547	0.0148258	0.00143418	0.000312426	0	0	0	
0.117833	0.0745674	-0.00530008	0.00149259	0.000257049	0	0	0	
0.118	-0.0632651	-0.0223919	0.0015076	0.000321892	0	0	0	
0.118167	0.0523809	0.0146436	0.00142129	0.000370517	0	0	0	
0.118333	-0.0718	0.0168777	0.00132285	0.000467965	0	0	0	
0.1185	0.161338	-0.00887369	0.00152966	0.000394886	0	0	0	
0.118667	-0.134539	-0.0156865	0.00232797	0.000404061	0	0	0	
0.118833	0.108288	0.0207897	0.00260707	0.000318879	0	0	0	
0.119	-0.0754429	-0.00581222	0.00252399	0.000379141	0	0	0	
0.119167	0.062787	0.00318962	0.00180532	0.000299466	0	0	0	
0.119333	-0.0592592	-0.00768263	0.0015406	0.000220066	0	0	0	
0.1195	0.0582926	0.00191567	0.00132394	0.000133362	0	0	0	
0.119667	0.00829273	-0.000743231	0.00131104	0.000126485	0	0	0	
0.119833	0.0449189	0.0150907	0.00121596	0.000213728	0	0	0	
0.12	-0.0818079	-0.0102781	0.00121578	0.000233467	0	0	0	
0.120167	0.0814115	-0.00937611	0.00124851	0.000275783	0	0	0	
0.120333	-0.0697246	-0.00343467	0.00141783	0.000251379	0	0	0	
0.1205	0.0699255	0.0188653	0.00147877	0.000285113	0	0	0	
0.120667	-0.0841535	-0.00218911	0.00145783	0.000306929	0	0	0	
0.120833	0.0893619	-0.0122832	0.00151099	0.000299988	0	0	0	
0.121	-0.0820448	-0.00222581	0.00159819	0.0002897	0	0	0	
0.121167	0.062541	0.00815527	0.00159402	0.00023256	0	0	0	
0.121333	-0.0644405	0.00957646	0.00149356	0.000263517	0	0	0	
0.1215	0.0656654	-0.0114811	0.00139719	0.000230802	0	0	0	
0.121667	-0.073388	-0.00611305	0.00133629	0.000265258	0	0	0	
0.121833	0.0775162	0.00749359	0.00136828	0.000189068	0	0	0	
0.122	-0.0780986	0.00403262	0.00142049	0.000207939	0	0	0	
0.122167	0.0774143	-0.00233079	0.00148386	0.00014234	0	0	0	
0.122333	-0.0833868	-0.0106714	0.00152778	0.000166601	0	0	0	
0.1225	0.0709829	0.00876007	0.00153364	0.000140633	0	0	0	
0.122667	-0.0646733	0.00165524	0.00146867	0.000189393	0	0	0	
0.122833	0.0668881	0.00521546	0.00138719	0.000145988	0	0	0	
0.123	-0.0650552	-0.0237712	0.00130647	0.000182944	0	0	0	
0.123167	0.0685099	0.0157769	0.00131247	0.000273521	0	0	0	
0.123333	-0.0930292	0.0532562	0.00137533	0.000701046	0	0	0	
0.1235	0.116166	-0.133316	0.00157812	0.00106918	0	0	0	
0.123667	-0.165356	0.319195	0.00220062	0.00297012	0	0	0	
0.123833	0.147624	-0.195335	0.00346694	0.005438	0	0	0	
0.124	-0.0623309	-0.0272215	0.00352443	0.00612666	0	0	0	
0.124167	0.0475055	0.0624002	0.00285753	0.00447439	0	0	0	
0.124333	-0.0542644	-0.0648613	0.00141595	0.00192511	0	0	0	
0.1245	0.0781978	0.00847347	0.00117039	0.00118188	0	0	0	
0.124667	-0.170438	0.228478	0.00148027	0.00173918	0	0	0	
0.124833	0.188747	-0.211588	0.00288198	0.00392693	0	0	0	
0.125	-0.105161	0.0565099	0.00315852	0.00463078	0	0	0	
0.125167	0.081637	-0.00665571	0.00302901	0.00397375	0	0	0	
0.125333	-0.0644309	-0.0337989	0.00179524	0.00181603	0	0	0	
0.1255	0.0681704	0.0118707	0.0015245	0.000886875	0	0	0	
0.125667	-0.0800135	0.0253499	0.00142435	0.000640361	0	0	0	
0.125833	0.0833139	-0.0509977	0.00144882	0.000583414	0	0	0	
0.126	-0.078448	0.0287026	0.00154871	0.000943562	0	0	0	
0.126167	0.0700916	-0.00387168	0.00156096	0.00128314	0	0	0	
0.126333	-0.07039	0.00352623	0.00148837	0.00107934	0	0	0	
0.1265	0.0728507	0.00328783	0.00140085	0.000653739	0	0	0	
0.126667	-0.0781773	-0.0196443	0.00139721	0.000450806	0	0	0	
0.126833	0.145606	0.0842387	0.00149034	0.000529099	0	0	0	
0.127	-0.215724	-0.094632	0.00194138	0.000985149	0	0	0	
0.127167	0.158886	0.032905	0.00231584	0.00152584	0	0	0	
0.127333	-0.0948332	-0.0332578	0.00257312	0.00153654	0	0	0	
0.1275	0.0651934	0.0137909	0.00221032	0.00111798	0	0	0	
0.127667	-0.0604989	0.0142858	0.00177228	0.000468371	0	0	0	
0.127833	0.0736415	-0.00409654	0.0013855	0.000341823	0	0	0	
0.128	-0.0679487	0.0162716	0.00155619	0.000575486	0	0	0	
0.128167	0.0881911	-0.0710523	0.00174478	0.0010885	0	0	0	
0.128333	-0.100189	0.0271396	0.00228052	0.00138023	0	0	0	
0.1285	0.0931003	-0.00659966	0.00214189	0.00109019	0	0	0	
0.128667	-0.0745603	-0.0216484	0.00206632	0.000679723	0	0	0	
0.128833	0.0631431	0.0213203	0.00156957	0.000406114	0	0	0	
0.129	-0.0696557	0.010308	0.00141354	0.000578917	0	0	0	
0.129167	0.0868644	-0.0233454	0.00138561	0.000491991	0	0	0	
0.129333	-0.0513785	-0.0443418	0.00161014	0.000676884	0	0	0	
0.1295	0.0743918	0.0262454	0.00157642	0.000675247	0	0	0	
0.129667	-0.0777983	0.0123786	0.00155283	0.000768829	0	0	0	
0.129833	0.0753823	-0.0173441	0.00136557	0.000598266	0	0	0	
0.13	-0.0736476	-0.000151128	0.0014511	0.000615245	0	0	0	
0.130167	0.0698634	-0.00585008	0.00143989	0.000530865	0	0	0	
0.130333	-0.0380414	-0.00111788	0.00139895	0.000568202	0	0	0	
0.1305	0.059812	0.00373319	0.00115624	0.000514039	0	0	0	
0.130667	-0.0693744	-0.00766825	0.00111474	0.000462494	0	0	0	
0.130833	0.0756893	-0.00757023	0.00112921	0.000431215	0	0	0	
0.131	-0.0774375	0.018169	0.00138383	0.000358251	0	0	0	
0.131167	0.0758529	-0.00121981	0.00144095	0.000368251	0	0	0	
0.131333	-0.0780421	-0.00993355	0.00145819	0.000296936	0	0	0	
0.1315	0.0756787	-0.00452102	0.001468	0.000350463	0	0	0	
0.131667	-0.0745966	0.0112438	0.00145604	0.000423399	0	0	0	
0.131833	0.075265	0.0021299	0.00145497	0.000411563	0	0	0	
0.132	-0.0745151	-0.00721069	0.00143922	0.000227922	0	0	0	
0.132167	0.0742746	-0.00886875	0.00144001	0.000149721	0	0	0	
0.132333	-0.0749467	0.0103295	0.00143626	0.000164542	0	0	0	
0.1325	0.0729457	0.00644445	0.0014232	0.000240494	0	0	0	
0.132667	-0.072305	-0.00761744	0.00141292	0.000213511	0	0	0	
0.132833	0.0727081	-0.00467774	0.00139691	0.000219787	0	0	0	
0.133	-0.0725749	0.00233298	0.00139243	0.000128138	0	0	0	
0.133167	0.075515	0.00244431	0.00139954	0.000149669	0	0	0	
0.133333	-0.0772452	0.000400248	0.00142517	7.99265E-05	0	0	0	
0.1335	0.0761113	-0.0039302	0.00144542	9.54032E-05	0	0	0	
0.133667	-0.0752724	0.00155564	0.00145764	5.75457E-05	0	0	0	
0.133833	0.0696246	0.00588644	0.00143395	9.07113E-05	0	0	0	
0.134	-0.061556	-0.00276383	0.00138082	9.95266E-05	0	0	0	
0.134167	0.0647513	-0.01634	0.00132463	0.000138893	0	0	0	
0.134333	-0.0719306	0.0378573	0.00134891	0.000268676	0	0	0	
0.1345	0.0831583	-0.035893	0.00144066	0.000470073	0	0	0	
0.134667	-0.0930181	0.00232932	0.0015612	0.00055822	0	0	0	
0.134833	0.0889856	0.00930159	0.0016466	0.000462658	0	0	0	
0.135	-0.072725	-0.00155998	0.00163158	0.000273349	0	0	0	
0.135167	0.063252	0.00668734	0.0015325	0.000244047	0	0	0	
0.135333	-0.0530995	-0.0111695	0.00134493	0.00032791	0	0	0	
0.1355	0.0567374	0.00930795	0.00118838	0.000485395	0	0	0	
0.135667	-0.0689007	0.00029676	0.00114823	0.00056293	0	0	0	
0.135833	0.0815658	-0.00615592	0.00126005	0.00046906	0	0	0	
0.136	-0.082402	-0.00273068	0.00142336	0.000315822	0	0	0	
0.136167	0.0833069	0.0116755	0.00154738	0.000186349	0	0	0	
0.136333	-0.0788004	-0.00363698	0.00157648	0.000180682	0	0	0	
0.1365	0.0794197	-0.00331839	0.00156692	0.000170361	0	0	0	
0.136667	-0.0781768	0.00329952	0.00153541	0.000208178	0	0	0	
0.136833	0.0767934	0.00670396	0.00150501	0.000216801	0	0	0	
0.137	-0.0721298	-0.00594133	0.00147003	0.000208173	0	0	0	
0.137167	0.0711272	0.00145359	0.00143525	0.000148377	0	0	0	
0.137333	-0.0721606	-0.00204974	0.00140812	0.000146726	0	0	0	
0.1375	0.0745703	0.000763567	0.00141045	0.00017052	0	0	0	
0.137667	-0.0761762	-0.00213989	0.00142477	0.000142814	0	0	0	
0.137833	0.0770964	0.00647945	0.00144784	0.000132186	0	0	0	
0.138	-0.0738467	-0.00726752	0.00145541	0.000118807	0	0	0	
0.138167	0.0703352	0.00264869	0.00143711	0.000137829	0	0	0	
0.138333	-0.0713423	-0.00151163	0.001397	0.000103828	0	0	0	
0.1385	0.0722015	0.000288132	0.0013739	7.96446E-05	0	0	0	
0.138667	-0.0747641	0.00381284	0.00138223	6.75602E-05	0	0	0	
0.138833	0.0765241	-0.00606431	0.00141962	7.75043E-05	0	0	0	
0.139	-0.0761331	-0.000256202	0.00144708	7.72097E-05	0	0	0	
0.139167	0.0737281	-0.00144718	0.00145748	6.06434E-05	0	0	0	
0.139333	-0.0734975	0.00573821	0.0014417	5.96172E-05	0	0	0	
0.1395	0.0756583	-0.00447779	0.00143489	6.61266E-05	0	0	0	
0.139667	-0.0761808	-0.0029576	0.0014444	0.000117893	0	0	0	
0.139833	0.075382	0.00402719	0.00146051	0.000111286	0	0	0	
0.14	-0.0754881	0.00690257	0.00146303	0.000143224	0	0	0	
0.140167	0.0730211	-0.0094226	0.00145666	0.000133142	0	0	0	
0.140333	-0.0710132	-0.00360447	0.00142583	0.000182949	0	0	0	
0.1405	0.0721081	0.00530964	0.00140236	0.000151716	0	0	0	
0.140667	-0.0705503	0.00440037	0.00138439	0.000165355	0	0	0	
0.140833	0.0719398	-0.000554804	0.00139018	0.000111456	0	0	0	
0.141	-0.0738755	-0.00437186	0.00140521	0.000102779	0	0	0	
0.141167	0.0729739	-0.00272403	0.00142221	0.00012665	0	0	0	
0.141333	-0.0733563	0.00648916	0.00141897	0.000151012	0	0	0	
0.1415	0.0765527	0.00130087	0.00142398	0.000186927	0	0	0	
0.141667	-0.0752349	-0.00240072	0.00143553	0.000166264	0	0	0	
0.141833	0.0720961	-0.00186722	0.00144287	0.000171243	0	0	0	
0.142	-0.072523	0.00299688	0.00143174	0.000174679	0	0	0	
0.142167	0.0722994	-0.00450595	0.00140905	0.000155613	0	0	0	
0.142333	-0.073413	0.0105089	0.00140177	0.000153831	0	0	0	
0.1425	0.0738598	-0.0115496	0.00140587	0.000166529	0	0	0	
0.142667	-0.072345	0.00185821	0.00140819	0.000196761	0	0	0	
0.142833	0.0705273	-0.00357333	0.00140485	0.000183155	0	0	0	
0.143	-0.0716414	0.00766774	0.00139627	0.000158589	0	0	0	
0.143167	0.071044	-0.00513408	0.00138979	0.000139716	0	0	0	
0.143333	-0.0744421	-0.00120943	0.00140688	0.000123128	0	0	0	
0.1435	0.0754736	-0.00487956	0.00143155	9.28298E-05	0	0	0	
0.143667	-0.0768872	0.00528113	0.0014575	6.51503E-05	0	0	0	
0.143833	0.0776132	-0.000185057	0.00148169	0.000107852	0	0	0	
0.144	-0.0765581	-0.00527057	0.00149444	0.00012115	0	0	0	
0.144167	0.0736718	-0.00380473	0.0014888	0.000116917	0	0	0	
0.144333	-0.0740041	0.0050003	0.00146844	9.31226E-05	0	0	0	
0.1445	0.0737878	-0.0059332	0.00145504	9.83689E-05	0	0	0	
0.144667	-0.0731889	0.00770094	0.00144544	0.000131664	0	0	0	
0.144833	0.0706832	-0.00840881	0.00143778	0.000155039	0	0	0	
0.145	-0.072212	-0.00518087	0.00141866	0.000164223	0	0	0	
0.145167	0.0771974	0.017701	0.00143491	0.000188801	0	0	0	
0.145333	-0.0817186	-0.0151376	0.00148073	0.000233406	0	0	0	
0.1455	0.079717	0.00841932	0.00153027	0.000275447	0	0	0	
0.145667	-0.0709408	-0.01249	0.0015209	0.000276789	0	0	0	
0.145833	0.0735307	0.0229845	0.0014699	0.000278677	0	0	0	
0.146	-0.0738565	-0.00778861	0.00143603	0.000305727	0	0	0	
0.146167	0.0665037	0.00325012	0.00141678	0.000252944	0	0	0	
0.146333	-0.068903	-0.0154595	0.00141419	0.000263982	0	0	0	
0.1465	0.0776894	0.000680796	0.00143893	0.000219924	0	0	0	
0.146667	-0.0823491	0.0250725	0.00152391	0.000266058	0	0	0	
0.146833	0.0830429	-0.0120912	0.00159208	0.000377831	0	0	0	
0.147	-0.0766803	-0.00899983	0.00161217	0.000600928	0	0	0	
0.147167	0.0727158	0.00459586	0.00155157	0.000596438	0	0	0	
0.147333	-0.0708182	0.00633213	0.00148997	0.000427676	0	0	0	
0.1475	0.0667519	-0.00343198	0.00141467	0.000177407	0	0	0	
0.147667	-0.0695826	0.0011144	0.00139118	0.000165244	0	0	0	
0.147833	0.0712146	-0.0227827	0.00139122	0.000291337	0	0	0	
0.148	-0.0725646	0.023709	0.0014211	0.000405831	0	0	0	
0.148167	0.0728844	-0.00297557	0.00144459	0.000426314	0	0	0	
0.148333	-0.0718214	-0.00196856	0.0014571	0.000288972	0	0	0	
0.1485	0.0703555	0.00109122	0.00144609	0.000221367	0	0	0	
0.148667	-0.0692055	-0.00756507	0.00143261	0.000179122	0	0	0	
0.148833	0.0709297	0.00603394	0.00142068	0.000177145	0	0	0	
0.149	-0.0707898	0.00323925	0.00142568	0.000144531	0	0	0	
0.149167	0.0682039	0.00372142	0.00141673	0.000125626	0	0	0	
0.149333	-0.0677768	-0.0146692	0.00140543	0.00014014	0	0	0	
0.1495	0.0676728	0.0103724	0.00139828	0.000190082	0	0	0	
0.149667	-0.0695885	0.00362481	0.00140714	0.000257015	0	0	0	
0.149833	0.0709331	0.00167349	0.0014184	0.000240868	0	0	0	
0.15	-0.0705718	-0.00705606	0.00142457	0.000172698	0	0	0	
0.150167	0.0689005	0.000192558	0.00142118	0.000130361	0	0	0	
0.150333	-0.0697228	-0.000518113	0.00141696	9.68711E-05	0	0	0	
0.1505	0.0673604	0.0121358	0.0014135	0.000148079	0	0	0	
0.150667	-0.0691974	-0.0113879	0.00139781	0.00018457	0	0	0	
0.150833	0.0687672	0.0023062	0.00139962	0.000219412	0	0	0	
0.151	-0.0694974	0.000403435	0.00139045	0.000141701	0	0	0	
0.151167	0.0679577	0.0024472	0.00140007	8.33357E-05	0	0	0	
0.151333	-0.0650336	-0.000459902	0.00137624	5.35958E-05	0	0	0	
0.1515	0.0654338	-0.00462124	0.00136341	7.92808E-05	0	0	0	
0.151667	-0.0713349	-0.00306854	0.00136617	0.000119011	0	0	0	
0.151833	0.0734967	0.00575299	0.00142069	0.000146867	0	0	0	
0.152	-0.0730372	-0.00307722	0.00145704	0.000139869	0	0	0	
0.152167	0.0719769	0.00464317	0.00148339	0.000106238	0	0	0	
0.152333	-0.0718249	-0.00267185	0.0014708	9.20426E-05	0	0	0	
0.1525	0.069942	-0.0058736	0.00146159	7.10869E-05	0	0	0	
0.152667	-0.0651441	0.00109683	0.00142653	9.10049E-05	0	0	0	
0.152833	0.0591329	0.00231465	0.00138842	0.000124646	0	0	0	
0.153	-0.0622523	0.00558882	0.0013599	0.000135457	0	0	0	
0.153167	0.0691935	-0.0119037	0.001389	0.000140144	0	0	0	
0.153333	-0.0718124	0.00746441	0.00143808	0.000208785	0	0	0	
0.1535	0.0658073	-0.00151398	0.00146784	0.000303063	0	0	0	
0.153667	-0.0616086	-0.00237389	0.00142437	0.000273165	0	0	0	
0.153833	0.0600392	0.000239255	0.00136325	0.000218636	0	0	0	
0.154	-0.0659896	0.00544238	0.00131934	0.000188912	0	0	0	
0.154167	0.0665652	-0.00130469	0.00133152	0.000183599	0	0	0	
0.154333	-0.0664534	-0.00167057	0.00135784	0.000115533	0	0	0	
0.1545	0.068963	-0.0108128	0.0013944	0.000186151	0	0	0	
0.154667	-0.0679812	0.0173632	0.0013969	0.000322766	0	0	0	
0.154833	0.0613931	-2.65023E-05	0.0013717	0.000449064	0	0	0	
0.155	-0.0688607	-0.0221646	0.00135614	0.000432071	0	0	0	
0.155167	0.0694459	0.00442917	0.00141512	0.000389569	0	0	0	
0.155333	-0.0770011	0.0125867	0.00146952	0.000286781	0	0	0	
0.1555	0.0723798	0.0141578	0.00152277	0.00034275	0	0	0	
0.155667	-0.0650935	-0.0184368	0.00146858	0.000341683	0	0	0	
0.155833	0.0630417	-0.0138624	0.00143402	0.000472722	0	0	0	
0.156	-0.0658026	0.0170579	0.0013856	0.000389113	0	0	0	
0.156167	0.0593183	0.00313483	0.00139169	0.000403403	0	0	0	
0.156333	-0.0677617	-0.0028322	0.00139243	0.000298755	0	0	0	
0.1565	0.0721892	-0.00462894	0.00145423	0.00025566	0	0	0	
0.156667	-0.0703732	0.00415798	0.00148463	0.000175037	0	0	0	
0.156833	0.0665761	0.00469772	0.00151046	0.000131165	0	0	0	
0.157	-0.0713317	-0.00557379	0.00147847	0.000100752	0	0	0	
0.157167	0.0799635	0.00138128	0.00151497	9.07228E-05	0	0	0	
0.157333	-0.0706752	0.00837931	0.00152318	0.000129265	0	0	0	
0.1575	-0.0114345	-0.0209393	0.00126713	0.000160244	0	0	0	
0.157667	-0.181843	0.150775	0.00141195	0.000603357	0	0	0	
0.157833	0.0813046	-0.0150335	0.00255309	0.00123593	0	0	0	
0.158	-0.0668072	-0.0142501	0.00310231	0.00134703	0	0	0	
0.158167	0.0604112	0.0213334	0.00293879	0.00101868	0	0	0	
0.158333	-0.0371495	-0.0284447	0.00164682	0.000496319	0	0	0	
0.1585	0.0336671	0.0384907	0.00118928	0.000527173	0	0	0	
0.158667	-0.0261498	-0.0502143	0.00108083	0.000725922	0	0	0	
0.158833	0.054243	0.0371498	0.00116195	0.000886189	0	0	0	
0.159	-0.0735292	-0.0297489	0.00129133	0.000929446	0	0	0	
0.159167	0.0514156	0.0215916	0.00129939	0.000775852	0	0	0	
0.159333	-0.0292307	-0.0122378	0.00112301	0.000559314	0	0	0	
0.1595	0.0262975	0.0120205	0.000877455	0.000384315	0	0	0	
0.159667	-0.0467147	-0.00884316	0.000768383	0.000262652	0	0	0	
0.159833	0.0599451	0.00997993	0.00096032	0.000206503	0	0	0	
0.16	-0.073491	-0.00481398	0.00122283	0.000178895	0	0	0	
0.160167	0.0581001	0.00165256	0.00136356	0.00015836	0	0	0	
0.160333	-0.0340592	-0.00223264	0.00122996	0.000148343	0	0	0	
0.1605	0.0268253	0.0054827	0.000972435	0.000132844	0	0	0	
0.160667	-0.0323664	-0.00456684	0.000750395	0.000119464	0	0	0	
0.160833	0.0499742	0.00713454	0.000778627	0.000140056	0	0	0	
0.161	-0.0501486	0.000448626	0.000992372	0.000144057	0	0	0	
0.161167	0.0594852	0.00170419	0.00119023	0.000116011	0	0	0	
0.161333	-0.0509985	-0.00725999	0.00127395	0.000108054	0	0	0	
0.1615	0.0327715	0.00593467	0.00112449	0.000137003	0	0	0	
0.161667	-0.0265317	-0.00504596	0.000915464	0.000182278	0	0	0	
0.161833	0.040282	0.011255	0.000779035	0.000205783	0	0	0	
0.162	-0.0498655	-0.0114119	0.000918314	0.000229585	0	0	0	
0.162167	0.0693816	0.000227951	0.00115466	0.000212445	0	0	0	
0.162333	-0.0594125	0.0124803	0.00134118	0.000193178	0	0	0	
0.1625	0.0347497	-0.00568516	0.00126768	0.000176489	0	0	0	
0.162667	-0.0309109	-0.00376038	0.00106149	0.000192442	0	0	0	
0.162833	0.0322077	-0.0124	0.000838959	0.000233723	0	0	0	
0.163	-0.0380506	0.0205186	0.000772728	0.000265172	0	0	0	
0.163167	0.0389396	-0.000204794	0.000891756	0.000318156	0	0	0	
0.163333	-0.0568792	-0.00874328	0.00107506	0.000321338	0	0	0	
0.1635	0.0592496	-0.0142962	0.00124925	0.000522745	0	0	0	
0.163667	-0.0372046	0.00176011	0.00119634	0.000440841	0	0	0	
0.163833	0.0251071	0.0449982	0.000984057	0.000559378	0	0	0	
0.164	-0.0346218	-0.0252889	0.000774568	0.000507126	0	0	0	
0.164167	0.0427252	-0.0266959	0.000812584	0.00080386	0	0	0	
0.164333	-0.0576334	-0.0171613	0.000967936	0.000819793	0	0	0	
0.1645	0.053459	0.0540691	0.00117679	0.000951191	0	0	0	
0.164667	-0.0350624	-0.00154511	0.00124967	0.000784768	0	0	0	
0.164833	0.0342174	-0.0301476	0.00117371	0.000690552	0	0	0	
0.165	-0.0340045	-0.0209832	0.000981004	0.000588411	0	0	0	
0.165167	0.0461922	0.0343277	0.000869725	0.000588657	0	0	0	
0.165333	-0.046462	0.0327842	0.000972181	0.000861087	0	0	0	
0.1655	0.0525282	-0.0429668	0.00112579	0.000817007	0	0	0	
0.165667	-0.0451823	-0.0159948	0.00121889	0.000962732	0	0	0	
0.165833	0.030917	0.0274789	0.00110204	0.000675888	0	0	0	
0.166	-0.0253988	0.00546555	0.000908872	0.000625746	0	0	0	
0.166167	0.0387287	-0.000487668	0.000775057	0.000378999	0	0	0	
0.166333	-0.0442891	-0.0220061	0.0008791	0.000435195	0	0	0	
0.1665	0.0587206	0.00297423	0.0010444	0.000333624	0	0	0	
0.166667	-0.0508531	0.0217979	0.0012131	0.000433334	0	0	0	
0.166833	0.0321656	-0.00665491	0.00118988	0.000369358	0	0	0	
0.167	-0.0265361	-0.0148911	0.00104959	0.000435418	0	0	0	
0.167167	0.0266843	0.00436129	0.000842136	0.000337789	0	0	0	
0.167333	-0.0442624	0.00744832	0.000810418	0.000254241	0	0	0	
0.1675	0.0511514	-0.00212756	0.00104112	0.000149859	0	0	0	
0.167667	-0.0576746	-0.00688957	0.00128945	0.000128933	0	0	0	
0.167833	0.0474238	-0.000396254	0.00138353	0.000176378	0	0	0	
0.168	-0.0304135	-0.00396034	0.00119148	0.000148731	0	0	0	
0.168167	0.025598	0.0123138	0.000934792	0.000185746	0	0	0	
0.168333	-0.0376951	-0.00376906	0.000781824	0.000164647	0	0	0	
0.1685	0.0428456	-0.00368929	0.000889391	0.000154779	0	0	0	
0.168667	-0.0540654	-0.00245853	0.00106572	0.000110647	0	0	0	
0.168833	0.0528781	0.00152678	0.00123004	7.2326E-05	0	0	0	
0.169	-0.0350188	-0.00217418	0.00119567	0.000110324	0	0	0	
0.169167	0.0271319	0.00120019	0.00103363	0.000143345	0	0	0	
0.169333	-0.0262013	0.00955252	0.000820085	0.000153721	0	0	0	
0.1695	0.0433554	-0.0156217	0.000762603	0.000183068	0	0	0	
0.169667	-0.0535932	0.00166352	0.000967383	0.000204498	0	0	0	
0.169833	0.0554694	0.00336581	0.00121952	0.000189153	0	0	0	
0.17	-0.0426565	0.00323009	0.00133751	0.00014668	0	0	0	
0.170167	0.0286213	-0.00403121	0.00117742	8.83231E-05	0	0	0	
0.170333	-0.0250486	-0.00765283	0.000933998	0.000119238	0	0	0	
0.1705	0.0369125	0.0043188	0.000789334	0.000110442	0	0	0	
0.170667	-0.0437758	0.00494626	0.000905601	0.000178099	0	0	0	
0.170833	0.0514735	-0.0112806	0.00108563	0.000161051	0	0	0	
0.171	-0.0525101	0.00139708	0.00125035	0.000198912	0	0	0	
0.171167	0.0353265	0.00154266	0.00121598	0.000129832	0	0	0	
0.171333	-0.0255965	0.0037994	0.00103992	0.000119688	0	0	0	
0.1715	0.0227604	-0.000867599	0.000811223	8.18359E-05	0	0	0	
0.171667	-0.0389226	-0.00870345	0.00073484	0.00011265	0	0	0	
0.171833	0.0512943	-0.00130585	0.000931724	0.000116212	0	0	0	
0.172	-0.0530999	0.0038006	0.00120471	0.000131038	0	0	0	
0.172167	0.0406457	0.00319678	0.0013458	8.74977E-05	0	0	0	
0.172333	-0.0291007	-0.00647656	0.00120954	9.4559E-05	0	0	0	
0.1725	0.0256636	0.00593594	0.000963624	0.000114776	0	0	0	
0.172667	-0.0341367	-0.0122107	0.000794731	0.000193185	0	0	0	
0.172833	0.0391021	0.018949	0.000886664	0.000292169	0	0	0	
0.173	-0.045776	-0.0102843	0.00106251	0.000327215	0	0	0	
0.173167	0.0500155	-0.0133496	0.0012387	0.000338931	0	0	0	
0.173333	-0.0336983	0.00411157	0.00123021	0.000338095	0	0	0	
0.1735	0.024897	0.0110565	0.00106759	0.000417147	0	0	0	
0.173667	-0.0216473	0.00785136	0.000850162	0.00035167	0	0	0	
0.173833	0.0333252	-0.0234683	0.000762156	0.000323654	0	0	0	
0.174	-0.0475505	-0.00224596	0.000929986	0.000244517	0	0	0	
0.174167	0.0539948	0.0174651	0.00120371	0.000272492	0	0	0	
0.174333	-0.0428197	0.00474633	0.00135978	0.000334199	0	0	0	
0.1745	0.0272125	-0.0169017	0.00123535	0.000350846	0	0	0	
0.174667	-0.0221254	-0.0036738	0.000959559	0.000359818	0	0	0	
0.174833	0.0279263	0.0135359	0.000755729	0.000245989	0	0	0	
0.175	-0.0343887	-0.00512019	0.000828471	0.000239734	0	0	0	
0.175167	0.0394159	0.0035012	0.00102445	0.000234575	0	0	0	
0.175333	-0.0449417	-0.0107598	0.00121887	0.000266014	0	0	0	
0.1755	0.0318016	0.00864957	0.00122869	0.000222971	0	0	0	
0.175667	-0.0239113	-0.00140817	0.00105989	0.000197586	0	0	0	
0.175833	0.019286	-0.00300087	0.000837573	0.000124858	0	0	0	
0.176	-0.031693	-0.00717395	0.000750296	0.000108161	0	0	0	
0.176167	0.0450732	0.00831694	0.000912775	0.000148438	0	0	0	
0.176333	-0.0518953	-0.00342046	0.00117257	0.000203651	0	0	0	
0.1765	0.0405931	0.00190888	0.00130422	0.000209535	0	0	0	
0.176667	-0.0243783	-0.0102377	0.00118104	0.000165174	0	0	0	
0.176833	0.0194581	0.00649001	0.000919965	0.000157481	0	0	0	
0.177	-0.0274005	0.000104862	0.000748209	0.000164719	0	0	0	
0.177167	0.0386589	-0.00358107	0.000843594	0.000141201	0	0	0	
0.177333	-0.0382283	0.0070115	0.00107553	0.000163198	0	0	0	
0.1775	0.0458187	-0.00290537	0.00127767	0.000211969	0	0	0	
0.177667	-0.0330173	-0.00454191	0.00131894	0.000268462	0	0	0	
0.177833	0.0253911	-0.0108509	0.00115008	0.000229188	0	0	0	
0.178	-0.0156387	0.0102291	0.000914829	0.000201563	0	0	0	
0.178167	0.0203115	0.00186684	0.00077685	0.000302443	0	0	0	
0.178333	-0.033079	0.0191188	0.000920136	0.000359803	0	0	0	
0.1785	0.0472017	-0.0450214	0.00117059	0.00049358	0	0	0	
0.178667	-0.030392	0.0206015	0.00126708	0.000524223	0	0	0	
0.178833	0.0156502	0.0234554	0.00107593	0.000583284	0	0	0	
0.179	-0.0154324	-0.0153757	0.000812342	0.000627597	0	0	0	
0.179167	0.0236914	-0.0220334	0.000661615	0.000785312	0	0	0	
0.179333	-0.0356176	0.00350685	0.000765634	0.000698453	0	0	0	
0.1795	0.0381439	0.0221454	0.000996898	0.000518397	0	0	0	
0.179667	-0.0465585	0.00564895	0.00119327	0.000480774	0	0	0	
0.179833	0.0332539	-0.0220225	0.00121517	0.000557755	0	0	0	
0.18	-0.0205998	-0.0245925	0.00100637	0.000807311	0	0	0	
0.180167	0.015903	0.0341393	0.000783076	0.000736557	0	0	0	
0.180333	-0.0247502	0.0154888	0.000712195	0.000758439	0	0	0	
0.1805	0.0328924	-0.0319642	0.000879306	0.000609953	0	0	0	
0.180667	-0.0473621	-0.0169171	0.00113197	0.0004442	0	0	0	
0.180833	0.0385185	0.00472196	0.0012799	0.000424574	0	0	0	
0.181	-0.0228505	0.0193474	0.00118072	0.000470792	0	0	0	
0.181167	0.0170638	-0.0019602	0.000933411	0.000442382	0	0	0	
0.181333	-0.0207421	-0.0248112	0.000731485	0.000426287	0	0	0	
0.1815	0.0347775	0.0118878	0.000800145	0.00031127	0	0	0	
0.181667	-0.0349728	-0.00622226	0.00106241	0.000374446	0	0	0	
0.181833	0.0428028	0.0145333	0.00128044	0.000385122	0	0	0	
0.182	-0.0303305	-0.0155889	0.00130044	0.00038014	0	0	0	
0.182167	0.0207486	-0.00643169	0.0010755	0.000331244	0	0	0	
0.182333	-0.0156327	0.0116556	0.000835869	0.000248611	0	0	0	
0.1825	0.0229391	0.00290984	0.000727601	0.000262575	0	0	0	
0.182667	-0.0228738	-0.00406146	0.000853263	0.000216855	0	0	0	
0.182833	0.0395647	-0.0124929	0.00106624	0.000207344	0	0	0	
0.183	-0.033867	0.00430784	0.00125276	0.000133053	0	0	0	
0.183167	0.0209596	0.00555916	0.0012409	0.000124892	0	0	0	
0.183333	-0.0197055	-0.0015159	0.00107153	0.000140334	0	0	0	
0.1835	0.0224818	0.0013515	0.000857101	0.000118067	0	0	0	
0.183667	-0.0326375	-0.00842552	0.000833359	0.0001635	0	0	0	
0.183833	0.0286939	0.00755306	0.0010046	0.00018573	0	0	0	
0.184	-0.0343707	-0.00463935	0.00119438	0.000220663	0	0	0	
0.184167	0.0252028	0.00534586	0.00125628	0.000207536	0	0	0	
0.184333	-0.0193808	0.000105555	0.00110245	0.000154022	0	0	0	
0.1845	0.0155711	-0.00351689	0.000896598	0.000127167	0	0	0	
0.184667	-0.0261655	-0.000547435	0.000803517	0.000124167	0	0	0	
0.184833	0.0254169	-0.000375619	0.000938162	0.000109626	0	0	0	
0.185	-0.0407853	0.00964011	0.00113192	0.000125325	0	0	0	
0.185167	0.0338527	0.00282435	0.00126374	0.000107634	0	0	0	
0.185333	-0.0198062	-0.00348388	0.00118785	0.000116728	0	0	0	
0.1855	0.0138414	-0.00319475	0.000988339	8.99209E-05	0	0	0	
0.185667	-0.0148078	-0.00170998	0.00077916	7.51041E-05	0	0	0	
0.185833	0.0291774	0.0103167	0.000791221	0.000111773	0	0	0	
0.186	-0.0289082	-0.00784057	0.0010399	0.000169019	0	0	0	
0.186167	0.034819	0.0071806	0.00128286	0.000201691	0	0	0	
0.186333	-0.0244227	-0.00476075	0.00134165	0.000199815	0	0	0	
0.1865	0.0174002	0.00233227	0.00113285	0.000159835	0	0	0	
0.186667	-0.0133804	-0.00278616	0.000874954	0.00013797	0	0	0	
0.186833	0.0211191	0.00451397	0.000748003	0.000131164	0	0	0	
0.187	-0.014999	-0.0084337	0.000871512	0.000138927	0	0	0	
0.187167	0.0334127	0.00253085	0.00108099	0.000171467	0	0	0	
0.187333	-0.0305103	0.0111463	0.00124839	0.000218004	0	0	0	
0.1875	0.0198854	-0.0111315	0.00119587	0.000225586	0	0	0	
0.187667	-0.0149604	-0.00214323	0.000999587	0.000268867	0	0	0	
0.187833	0.0139845	0.00347817	0.000779033	0.000214074	0	0	0	
0.188	-0.0240421	0.000308704	0.000761326	0.0001665	0	0	0	
0.188167	0.0282015	0.00114693	0.000978665	0.000129163	0	0	0	
0.188333	-0.0322229	-0.0112563	0.00122559	0.000168668	0	0	0	
0.1885	0.023084	0.00911157	0.00130386	0.000212897	0	0	0	
0.188667	-0.0158157	0.00255366	0.00112767	0.000233986	0	0	0	
0.188833	0.0127355	-0.00638579	0.000884192	0.000166298	0	0	0	
0.189	-0.0235947	-0.00429215	0.000781832	0.000145966	0	0	0	
0.189167	0.0177927	0.00530403	0.00093323	9.85629E-05	0	0	0	
0.189333	-0.0352866	0.00013785	0.00115391	0.000103361	0	0	0	
0.1895	0.0315606	0.00995174	0.00131378	0.000145498	0	0	0	
0.189667	-0.0173008	-0.0152726	0.00123212	0.00025431	0	0	0	
0.189833	0.0102679	0.0174652	0.000996513	0.000309851	0	0	0	
0.19	-0.00767631	-0.00768193	0.000738105	0.000341836	0	0	0	
0.190167	0.0168725	-0.00445464	0.000696218	0.000253061	0	0	0	
0.190333	-0.021789	0.00683768	0.000928513	0.000224887	0	0	0	
0.1905	0.0224424	-0.00983637	0.00121996	0.00016628	0	0	0	
0.190667	-0.017974	0.0111848	0.00131738	0.00020148	0	0	0	
0.190833	0.014522	0.0113045	0.00113212	0.000274604	0	0	0	
0.191	-0.0132077	-0.0153107	0.000866151	0.000328172	0	0	0	
0.191167	0.030509	0.00639314	0.000770188	0.000301861	0	0	0	
0.191333	-0.0250826	-0.00583981	0.000956294	0.000208408	0	0	0	
0.1915	0.0317147	0.0115548	0.00117858	0.000163502	0	0	0	
0.191667	-0.0325088	-0.00789349	0.00128154	0.000168525	0	0	0	
0.191833	0.0187999	0.00173171	0.00112705	0.000184315	0	0	0	
0.192	-0.00803785	-0.00231662	0.000869651	0.000224771	0	0	0	
0.192167	0.00491658	0.00816902	0.000672733	0.000181599	0	0	0	
0.192333	-0.0100059	0.00192486	0.000721545	0.00019066	0	0	0	
0.1925	0.0186588	0.00683517	0.00102022	0.000110754	0	0	0	
0.192667	-0.0279586	-0.00870677	0.00134801	0.000171916	0	0	0	
0.192833	0.0244893	0.00193536	0.00145491	0.000147116	0	0	0	
0.193	-0.0154877	0.0109372	0.00125511	0.000190541	0	0	0	
0.193167	0.00925541	0.000543933	0.00093841	0.000153347	0	0	0	
0.193333	-0.019513	-0.0134413	0.000770288	0.000183942	0	0	0	
0.1935	0.0143174	0.00604867	0.000883611	0.000174963	0	0	0	
0.193667	-0.0226732	0.00852778	0.00108651	0.000183844	0	0	0	
0.193833	0.0233997	0.00986391	0.00122559	0.000245172	0	0	0	
0.194	-0.0140606	-0.00773014	0.00117098	0.000242148	0	0	0	
0.194167	0.00977883	-0.0122525	0.000983358	0.000320773	0	0	0	
0.194333	-0.00610667	0.0118612	0.000781365	0.000278426	0	0	0	
0.1945	0.011823	0.00640076	0.000752549	0.000298217	0	0	0	
0.194667	-0.0223191	0.00328714	0.000965771	0.000209181	0	0	0	
0.194833	0.0254566	-0.0125643	0.00124679	0.000268937	0	0	0	
0.195	-0.0171655	0.00713704	0.00135872	0.000250385	0	0	0	
0.195167	0.0107868	0.0153268	0.00119945	0.000295169	0	0	0	
0.195333	-0.0068427	-0.0115292	0.000920844	0.000227065	0	0	0	
0.1955	0.016491	0.00375823	0.000757412	0.000255069	0	0	0	
0.195667	-0.0113134	-0.0121751	0.000861728	0.000221766	0	0	0	
0.195833	0.0150769	0.0220502	0.00108106	0.000239044	0	0	0	
0.196	-0.0190339	-0.00882453	0.00125401	0.000260926	0	0	0	
0.196167	0.0123178	-0.00520078	0.0012345	0.000303122	0	0	0	
0.196333	-0.0098605	0.00259843	0.00104469	0.000238139	0	0	0	
0.1965	0.00574814	0.00897067	0.000818015	0.000193861	0	0	0	
0.196667	-0.00982921	-0.00307966	0.000741786	0.000132194	0	0	0	
0.196833	0.0194635	-0.00860297	0.000909482	0.000138109	0	0	0	
0.197	-0.0237434	0.00315285	0.00118186	0.000109071	0	0	0	
0.197167	0.0164003	-0.00276184	0.00132232	9.19255E-05	0	0	0	
0.197333	-0.0109572	0.00463933	0.00119662	8.44617E-05	0	0	0	
0.1975	0.005558	-0.00343853	0.00092243	7.88763E-05	0	0	0	
0.197667	-0.0132455	-0.00156828	0.000740071	0.000102819	0	0	0	
0.197833	0.00898319	0.0038082	0.00084234	8.17042E-05	0	0	0	
0.198	-0.0100994	-0.00480327	0.0011028	0.000126195	0	0	0	
0.198167	0.0181646	0.00455612	0.00132921	0.000142436	0	0	0	
0.198333	-0.0137689	-0.0072776	0.00134625	0.000191174	0	0	0	
0.1985	0.0110096	0.00707902	0.00113898	0.000187518	0	0	0	
0.198667	-0.00415248	-0.00196861	0.000865383	0.000162671	0	0	0	
0.198833	0.00366454	0.00721784	0.000740355	0.000194239	0	0	0	
0.199	-0.0092736	-0.0164843	0.000876046	0.000239912	0	0	0	
0.199167	0.0128462	0.00638982	0.00113306	0.000258155	0	0	0	
0.199333	-0.00477189	0.00988415	0.00129332	0.000237905	0	0	0	
0.1995	0.00561851	-0.002968	0.00122466	0.00021409	0	0	0	
0.199667	-0.00406895	-0.00579168	0.000997293	0.000292635	0	0	0	
0.199833	0.00405709	-0.0031276	0.00078905	0.000247411	0	0	0	
0.2	0.00126516	0.0125827	0.000808536	0.00020541	0	0	0	
0.200167	0.00198571	-0.00124985	0.00103167	0.000154224	0	0	0	
0.200333	-0.0121067	-0.00824483	0.00125958	0.000204948	0	0	0	
0.2005	0.00760025	-0.00457261	0.00128287	0.000213573	0	0	0	
0.200667	-0.00603029	0.0131835	0.00106722	0.000180504	0	0	0	
0.200833	0.00159338	-0.00108894	0.000811844	0.000204521	0	0	0	
0.201	-0.0032956	-0.00768818	0.000728802	0.000227139	0	0	0	
0.201167	0.00711039	0.0039065	0.000871955	0.000227578	0	0	0	
0.201333	-0.0126773	0.00374503	0.00110301	0.000208154	0	0	0	
0.2015	0.00709201	-0.000248883	0.00124123	0.000148034	0	0	0	
0.201667	-0.0048662	-0.00643886	0.0011771	0.000119156	0	0	0	
0.201833	0.00141972	-4.76323E-05	0.000970423	7.5755E-05	0	0	0	
0.202	-0.00248553	0.00724986	0.000789898	9.97147E-05	0	0	0	
0.202167	0.000631846	-0.00481498	0.000835233	0.000129977	0	0	0	
0.202333	-0.000204256	0.00246156	0.00107252	0.000133947	0	0	0	
0.2025	0.0113544	-0.00482013	0.00130182	0.000124881	0	0	0	
0.202667	-0.00502557	0.0036501	0.00133241	9.52629E-05	0	0	0	
0.202833	0.0032013	-0.0023479	0.00112406	8.01049E-05	0	0	0	
0.203	0.000108975	-0.00283934	0.000866849	6.67482E-05	0	0	0	
0.203167	0.00214291	0.00483332	0.000784285	7.99684E-05	0	0	0	
0.203333	-0.00101783	-0.0156163	0.000937797	0.000127037	0	0	0	
0.2035	0.00831926	0.0142027	0.00117093	0.000212407	0	0	0	
0.203667	-0.00298038	-0.0062701	0.00130123	0.000231461	0	0	0	
0.203833	0.0021928	0.00477385	0.00123097	0.000208878	0	0	0	
0.204	-8.77013E-05	-0.0112746	0.00101333	0.000167045	0	0	0	
0.204167	-0.00234715	0.0121413	0.000800953	0.000187309	0	0	0	
0.204333	0.00472549	-0.00870423	0.000807452	0.000218282	0	0	0	
0.2045	-0.00419336	0.00154819	0.00103578	0.000262046	0	0	0	
0.204667	-0.00472972	-0.0100313	0.00127834	0.000345277	0	0	0	
0.204833	-0.000929635	0.00851042	0.00131374	0.00039292	0	0	0	
0.205	0.00168815	0.00557805	0.00111092	0.000325832	0	0	0	
0.205167	-0.00380938	-0.0115541	0.000881344	0.000236562	0	0	0	
0.205333	-0.00694602	4.94383E-05	0.000885525	0.000241507	0	0	0	
0.2055	0.0152831	-0.000824661	0.00115828	0.000360405	0	0	0	
0.205667	-0.0336917	0.00133197	0.0014376	0.000446082	0	0	0	
0.205833	0.0184254	0.00875982	0.0014416	0.000467586	0	0	0	
0.206	-0.000938049	-0.0177535	0.00107809	0.000371378	0	0	0	
0.206167	-0.0138489	0.000620256	0.000671944	0.000422749	0	0	0	
0.206333	0.0167	0.013218	0.000505084	0.000484821	0	0	0	
0.2065	-0.0149159	-0.0132524	0.000746307	0.00048928	0	0	0	
0.206667	0.00877358	-0.00400929	0.00124344	0.000411016	0	0	0	
0.206833	0.0175915	0.0179083	0.00173245	0.000353195	0	0	0	
0.207	-0.0255286	-0.0182191	0.00188431	0.000459169	0	0	0	
0.207167	0.00727206	0.0119663	0.00153792	0.000496507	0	0	0	
0.207333	0.00125133	-0.0203933	0.00105426	0.000512406	0	0	0	
0.2075	0.0790132	0.0250529	0.00113452	0.000447553	0	0	0	
0.207667	0.124872	-0.149775	0.00216511	0.000816804	0	0	0	
0.207833	-0.0179433	0.0047599	0.00309022	0.00129144	0	0	0	
0.208	0.0155102	0.0124236	0.00258002	0.00122687	0	0	0	
0.208167	-0.0140526	-0.0184016	0.00164246	0.000840925	0	0	0	
0.208333	-0.0134264	0.0315748	0.00101611	0.000437545	0	0	0	
0.2085	0.0187684	-0.0401045	0.00131837	0.000744009	0	0	0	
0.208667	-0.0278873	0.0278833	0.0013712	0.000931715	0	0	0	
0.208833	-0.012284	0.000616955	0.00121744	0.00093288	0	0	0	
0.209	0.0225206	0.0077162	0.00125817	0.000885523	0	0	0	
0.209167	-0.00905536	-0.0161484	0.00138747	0.000750422	0	0	0	
0.209333	0.00350115	0.00114944	0.00153218	0.000542207	0	0	0	
0.2095	-0.00452649	0.000901532	0.00151065	0.000266335	0	0	0	
0.209667	0.00942142	0.020626	0.00139083	0.000170858	0	0	0	
0.209833	-0.00958689	-0.0114491	0.00131588	0.00027793	0	0	0	
0.21	0.0109231	-0.018213	0.0013484	0.000485822	0	0	0	
0.210167	-0.00642674	0.00692045	0.00141599	0.000448073	0	0	0	
0.210333	0.00876672	0.016097	0.00146358	0.00040632	0	0	0	
0.2105	-0.00678615	-0.00237167	0.00147814	0.000240306	0	0	0	
0.210667	0.00684822	-0.00467858	0.00148307	0.000192463	0	0	0	
0.210833	-0.00679478	-0.0104315	0.0014729	0.000210306	0	0	0	
0.211	0.00937154	0.00895656	0.00145496	0.00019616	0	0	0	
0.211167	-0.00901999	0.00828579	0.00143753	0.000272726	0	0	0	
0.211333	0.0114155	-0.00423433	0.00142772	0.000188815	0	0	0	
0.2115	-0.0117862	-0.00370356	0.00141321	0.00019995	0	0	0	
0.211667	0.0139559	-5.98491E-05	0.00140044	0.00011504	0	0	0	
0.211833	-0.0147237	0.00369019	0.00140465	9.58739E-05	0	0	0	
0.212	0.012426	0.00308157	0.00143106	8.27938E-05	0	0	0	
0.212167	-0.0113267	-0.00099955	0.00145826	7.52206E-05	0	0	0	
0.212333	0.0127503	-0.00662471	0.00145455	0.000124723	0	0	0	
0.2125	-0.0121875	0.00276339	0.00142346	0.000108485	0	0	0	
0.212667	0.0133232	0.00762168	0.00140464	0.000125111	0	0	0	
0.212833	-0.0101474	-0.000558704	0.00140956	0.00014346	0	0	0	
0.213	0.0119995	-0.00518115	0.00141854	0.000204915	0	0	0	
0.213167	-0.0127326	0.00177162	0.00140072	0.000209761	0	0	0	
0.213333	0.0148599	-0.000219778	0.00137755	0.00015492	0	0	0	
0.2135	-0.0142617	0.0020608	0.00136652	0.000114134	0	0	0	
0.213667	0.0184002	0.00445648	0.00138034	0.000113135	0	0	0	
0.213833	-0.0149289	-0.00343537	0.00140657	0.000127309	0	0	0	
0.214	0.0084847	-0.0129402	0.00144513	0.000147262	0	0	0	
0.214167	-0.00698465	0.00631827	0.00146201	0.000187029	0	0	0	
0.214333	0.0207104	0.00589894	0.00142148	0.000178216	0	0	0	
0.2145	-0.0191863	0.00579181	0.00132562	0.000178314	0	0	0	
0.214667	0.022574	-0.00915505	0.00128703	0.000186821	0	0	0	
0.214833	-0.0172971	-0.00519718	0.00132077	0.00019742	0	0	0	
0.215	0.0152582	0.00251463	0.00139818	0.000187409	0	0	0	
0.215167	-0.0206326	0.0107258	0.00145128	0.00031402	0	0	0	
0.215333	0.0216231	-0.0109061	0.00148443	0.000326643	0	0	0	
0.2155	-0.00978706	-0.0068483	0.00148607	0.000381275	0	0	0	
0.215667	0.0166604	0.0152782	0.00147941	0.000231166	0	0	0	
0.215833	-0.0177766	-0.0159234	0.00148558	0.000300376	0	0	0	
0.216	0.00556994	0.0187401	0.00152893	0.000291448	0	0	0	
0.216167	-0.0121043	-0.0142412	0.00144505	0.000395368	0	0	0	
0.216333	0.0745891	-0.0621533	0.00128343	0.000726402	0	0	0	
0.2165	-0.364871	0.362528	0.00275195	0.0023285	0	0	0	
0.216667	0.0576977	-0.00931446	0.00336618	0.00365399	0	0	0	
0.216833	-0.0445025	0.0286931	0.00346764	0.00335807	0	0	0	
0.217	0.0206924	-0.00329893	0.00212256	0.00224017	0	0	0	
0.217167	-0.0093539	-0.020323	0.00172941	0.00150221	0	0	0	
0.217333	-0.00185334	0.0328005	0.00180625	0.00217601	0	0	0	
0.2175	-0.106585	0.0539741	0.00151378	0.00213925	0	0	0	
0.217667	-0.172874	0.259573	0.00274736	0.00337011	0	0	0	
0.217833	0.00229374	-0.0344867	0.00269873	0.00367902	0	0	0	
0.218	0.0337142	-0.000122345	0.00266034	0.00353886	0	0	0	
0.218167	-0.0372534	0.0295184	0.00128146	0.0018935	0	0	0	
0.218333	0.0350831	-0.0719762	0.0012793	0.00119974	0	0	0	
0.2185	-0.0427228	0.117602	0.00143414	0.00143184	0	0	0	
0.218667	0.0498541	-0.147631	0.00146652	0.00195412	0	0	0	
0.218833	-0.0334013	0.134349	0.00149376	0.00237873	0	0	0	
0.219	0.0229595	-0.0954805	0.00155543	0.00247664	0	0	0	
0.219167	-0.0189374	0.054801	0.00155185	0.00218254	0	0	0	
0.219333	0.0225872	-0.0418365	0.00151522	0.00171908	0	0	0	
0.2195	-0.0254016	0.0238357	0.00144451	0.00128218	0	0	0	
0.219667	0.0257691	-0.00227637	0.00142777	0.00096833	0	0	0	
0.219833	-0.0231765	-0.0105663	0.00146961	0.000710087	0	0	0	
0.22	0.0224444	0.0170776	0.00148323	0.000544445	0	0	0	
0.220167	-0.0254941	-0.0217895	0.00142744	0.000477791	0	0	0	
0.220333	0.0295882	0.0151958	0.00136907	0.000442201	0	0	0	
0.2205	-0.0274306	-0.00366885	0.00136362	0.000369475	0	0	0	
0.220667	0.0269795	0.00497223	0.00139485	0.000293898	0	0	0	
0.220833	-0.0302154	-0.018575	0.00141635	0.000287483	0	0	0	
0.221	0.0301157	0.00639474	0.00142782	0.000294034	0	0	0	
0.221167	-0.0301822	0.00750556	0.00143943	0.000242784	0	0	0	
0.221333	0.0320385	-0.0145539	0.00144975	0.000232674	0	0	0	
0.2215	-0.031619	0.0287154	0.00146612	0.000328821	0	0	0	
0.221667	0.0303232	-0.0348307	0.00150096	0.000476252	0	0	0	
0.221833	-0.0293138	0.0150303	0.00152854	0.000528204	0	0	0	
0.222	0.0288261	-0.0113774	0.00151166	0.000458142	0	0	0	
0.222167	-0.031575	0.00893872	0.0014501	0.000335629	0	0	0	
0.222333	0.0345383	0.00759141	0.00139457	0.000272107	0	0	0	
0.2225	-0.0346751	-0.0181988	0.00139334	0.000259294	0	0	0	
0.222667	0.0329957	0.00605433	0.00144217	0.000307772	0	0	0	
0.222833	-0.028697	0.00870894	0.00147747	0.000337753	0	0	0	
0.223	0.0271955	0.000550707	0.00145108	0.000297448	0	0	0	
0.223167	-0.0318041	-0.0164516	0.00139119	0.000221214	0	0	0	
0.223333	0.0325134	0.000914546	0.00135808	0.000194439	0	0	0	
0.2235	-0.0321761	0.000201857	0.00137786	0.000192546	0	0	0	
0.223667	0.0335221	0.0210803	0.00140479	0.000281862	0	0	0	
0.223833	-0.0324818	-0.00869779	0.00140675	0.000282316	0	0	0	
0.224	0.0315509	-0.00496569	0.00139224	0.000316374	0	0	0	
0.224167	-0.0347082	-0.012754	0.00137551	0.000274048	0	0	0	
0.224333	0.0382533	0.0163853	0.00137026	0.000257681	0	0	0	
0.2245	-0.0403849	0.0108695	0.00139349	0.000337608	0	0	0	
0.224667	0.0388704	-0.00929532	0.00144783	0.000289071	0	0	0	
0.224833	-0.0340916	-0.0130623	0.00149052	0.000346819	0	0	0	
0.225	0.0317046	0.000496325	0.00148491	0.000262138	0	0	0	
0.225167	-0.031744	0.0182929	0.00143155	0.0003129	0	0	0	
0.225333	0.0340579	0.00442558	0.00138364	0.000288733	0	0	0	
0.2255	-0.0369178	-0.0128135	0.00136587	0.000270896	0	0	0	
0.225667	0.0364484	-0.00917789	0.00138644	0.000280202	0	0	0	
0.225833	-0.0298289	0.00639346	0.00140168	0.000225119	0	0	0	
0.226	0.028993	0.00968294	0.00136434	0.000228474	0	0	0	
0.226167	-0.0372706	0.00570356	0.00126679	0.000245859	0	0	0	
0.226333	0.0511943	-0.0200382	0.00123436	0.000357472	0	0	0	
0.2265	-0.0498831	0.0107256	0.00130503	0.000379421	0	0	0	
0.226667	0.0462784	0.00234937	0.00144208	0.000346595	0	0	0	
0.226833	-0.0437578	0.00775328	0.00152426	0.000246066	0	0	0	
0.227	0.0361961	-0.00639391	0.00157064	0.000190695	0	0	0	
0.227167	-0.0260605	-0.0258384	0.00159347	0.00033177	0	0	0	
0.227333	0.0285165	0.033124	0.00153599	0.000458792	0	0	0	
0.2275	-0.0368887	0.00879423	0.00139	0.000654498	0	0	0	
0.227667	0.0429481	-0.0244847	0.00127099	0.000536615	0	0	0	
0.227833	-0.0429191	-0.00931266	0.00127444	0.000555851	0	0	0	
0.228	0.0436009	0.0077103	0.0013458	0.000385121	0	0	0	
0.228167	-0.0474365	0.0376045	0.00140851	0.000474908	0	0	0	
0.228333	0.0439207	-0.0401553	0.0014438	0.000502879	0	0	0	
0.2285	-0.0400191	-0.000273916	0.00148362	0.000704152	0	0	0	
0.228667	0.0383765	0.00424179	0.00147668	0.000538072	0	0	0	
0.228833	-0.0419911	0.0148247	0.00143206	0.000439077	0	0	0	
0.229	0.0442672	-0.00877091	0.00138589	0.000269668	0	0	0	
0.229167	-0.0435346	-0.00807731	0.00138947	0.000271849	0	0	0	
0.229333	0.0428368	0.0113662	0.00142904	0.000253177	0	0	0	
0.2295	-0.0449777	-0.000290283	0.00147454	0.000299454	0	0	0	
0.229667	0.044263	-0.00611463	0.00149603	0.000321006	0	0	0	
0.229833	-0.0431571	-0.00203732	0.00149246	0.000266197	0	0	0	
0.23	0.0437762	0.0135738	0.00146781	0.000248822	0	0	0	
0.230167	-0.0453576	-0.00919629	0.00144018	0.000253636	0	0	0	
0.230333	0.0472225	-0.00432651	0.00143175	0.000243539	0	0	0	
0.2305	-0.0498159	0.00647592	0.00144003	0.000159713	0	0	0	
0.230667	0.0484113	-0.00279661	0.00144665	0.000140945	0	0	0	
0.230833	-0.0478543	0.00466876	0.00145154	0.000129155	0	0	0	
0.231	0.0466591	-0.0102548	0.00144819	0.000189433	0	0	0	
0.231167	-0.045864	0.00615883	0.00144033	0.000230101	0	0	0	
0.231333	0.0469632	0.00203192	0.00142816	0.000247744	0	0	0	
0.2315	-0.0479217	-0.00254628	0.00141594	0.000238674	0	0	0	
0.231667	0.0461662	-0.00212693	0.00140634	0.000228203	0	0	0	
0.231833	-0.0472661	-0.00308338	0.00139601	0.00019789	0	0	0	
0.232	0.048051	0.0089395	0.0013968	0.000158749	0	0	0	
0.232167	-0.0464648	-0.00588609	0.00141255	0.000143938	0	0	0	
0.232333	0.04728	0.0035664	0.00144046	0.000159259	0	0	0	
0.2325	-0.0467191	-0.0051798	0.00145053	0.000142367	0	0	0	
0.232667	0.0464711	0.00550461	0.00143748	0.000116364	0	0	0	
0.232833	-0.0484827	-0.00222794	0.00140743	9.54908E-05	0	0	0	
0.233	0.0506969	7.12184E-05	0.00140041	7.17162E-05	0	0	0	
0.233167	-0.0505435	-0.00457194	0.00142459	5.44675E-05	0	0	0	
0.233333	0.051079	0.00667848	0.00146525	6.19912E-05	0	0	0	
0.2335	-0.0486752	-0.00743644	0.00147479	9.88106E-05	0	0	0	
0.233667	0.0494755	0.000717153	0.00145648	0.000115548	0	0	0	
0.233833	-0.0503739	0.0038611	0.00142439	0.000110603	0	0	0	
0.234	0.0517991	-0.00322065	0.0014162	0.000102225	0	0	0	
0.234167	-0.0528411	-0.00295476	0.00143864	7.87744E-05	0	0	0	
0.234333	0.0507107	0.00177473	0.00145414	6.64869E-05	0	0	0	
0.2345	-0.0510873	-0.00335251	0.00144699	5.24917E-05	0	0	0	
0.234667	0.0521335	0.00339525	0.00142408	6.66056E-05	0	0	0	
0.234833	-0.050788	-0.00437824	0.00141233	8.14425E-05	0	0	0	
0.235	0.0531257	-0.00136071	0.00141972	0.000104577	0	0	0	
0.235167	-0.0536961	0.00284376	0.00143318	0.000108704	0	0	0	
0.235333	0.0523585	-0.00337099	0.00145369	0.00011087	0	0	0	
0.2355	-0.0513578	0.00357286	0.00147558	9.60249E-05	0	0	0	
0.235667	0.0508133	0.000581954	0.00146952	7.73377E-05	0	0	0	
0.235833	-0.0589218	-0.00981979	0.0014535	8.05523E-05	0	0	0	
0.236	0.0604436	0.00500873	0.00146061	0.000111181	0	0	0	
0.236167	-0.0521014	-0.00189077	0.00147282	0.000135818	0	0	0	
0.236333	0.0583187	0.00542755	0.00154336	0.000127731	0	0	0	
0.2365	-0.0562685	-0.00497681	0.00155784	0.000129822	0	0	0	
0.236667	0.0530944	-0.00487287	0.00155379	0.000146705	0	0	0	
0.236833	-0.0509022	-0.00162187	0.00146331	0.000149606	0	0	0	
0.237	0.0498246	0.0118565	0.00137917	0.000181599	0	0	0	
0.237167	-0.0559532	-0.0116995	0.00130826	0.000211601	0	0	0	
0.237333	0.0686569	0.00299191	0.0013686	0.000215641	0	0	0	
0.2375	-0.0613085	0.00111658	0.00145252	0.00014973	0	0	0	
0.237667	0.0558072	-0.00450876	0.00153452	8.38252E-05	0	0	0	
0.237833	-0.0535065	-0.000297483	0.00149819	7.41732E-05	0	0	0	
0.238	0.0548854	0.00367392	0.00145648	7.60051E-05	0	0	0	
0.238167	-0.0537477	0.00128798	0.00143568	8.01037E-05	0	0	0	
0.238333	0.0512624	-0.00413449	0.00143235	8.43493E-05	0	0	0	
0.2385	-0.0464636	-0.00584797	0.00140277	0.000151031	0	0	0	
0.238667	0.0628313	0.0183798	0.00133712	0.000217179	0	0	0	
0.238833	-0.127828	-0.0141112	0.00144785	0.000308355	0	0	0	
0.239	0.117546	0.00546686	0.00225017	0.000656822	0	0	0	
0.239167	0.063199	-0.0278693	0.00268307	0.00137493	0	0	0	
0.239333	0.0295945	-0.0163116	0.00288189	0.00146915	0	0	0	
0.2395	-0.0243381	0.050806	0.00200461	0.00124478	0	0	0	
0.239667	0.0480947	-0.0438192	0.00141098	0.000746043	0	0	0	
0.239833	-0.0610559	0.0292984	0.000972929	0.000779745	0	0	0	
0.24	0.0970898	-0.0510265	0.00124908	0.000888072	0	0	0	
0.240167	-0.0568045	0.0311276	0.00155456	0.000958523	0	0	0	
0.240333	0.0475971	-0.00685167	0.00165111	0.000845085	0	0	0	
0.2405	-0.0467854	-0.0131389	0.00141015	0.000629099	0	0	0	
0.240667	0.0305033	0.00443094	0.00116333	0.000496784	0	0	0	
0.240833	-0.0232212	0.0126317	0.000968143	0.000499679	0	0	0	
0.241	0.028868	-0.00310544	0.000782102	0.000476822	0	0	0	
0.241167	-0.0530555	-0.0159104	0.000797341	0.000321727	0	0	0	
0.241333	0.0627118	-0.0074105	0.00098105	0.000248763	0	0	0	
0.2415	-0.0583993	0.00674307	0.00122622	0.000220005	0	0	0	
0.241667	0.0366131	0.0106061	0.00130163	0.000264261	0	0	0	
0.241833	-0.0254876	-0.00991296	0.00113156	0.000260747	0	0	0	
0.242	0.030617	-0.0090684	0.000882447	0.000313147	0	0	0	
0.242167	-0.0499168	0.0112048	0.000767613	0.000231306	0	0	0	
0.242333	0.0477139	-6.41752E-05	0.000866165	0.000293564	0	0	0	
0.2425	-0.0611844	-0.0123609	0.00107286	0.000209906	0	0	0	
0.242667	0.0580515	0.00688729	0.0012665	0.000270168	0	0	0	
0.242833	-0.0335205	-0.00515661	0.00126373	0.000249506	0	0	0	
0.243	0.0257412	0.00892536	0.00110194	0.000316869	0	0	0	
0.243167	-0.0375599	-0.00577632	0.000856555	0.000274925	0	0	0	
0.243333	0.0621923	0.00031887	0.000826528	0.000213626	0	0	0	
0.2435	-0.0842513	-0.00942872	0.00104133	0.000246379	0	0	0	
0.243667	0.0752684	0.0108889	0.00134459	0.000465549	0	0	0	
0.243833	-0.0492024	-0.0249317	0.00147384	0.000782664	0	0	0	
0.244	0.0343971	0.0287291	0.00131419	0.000891537	0	0	0	
0.244167	-0.0341859	0.00615615	0.0010405	0.000679724	0	0	0	
0.244333	0.0397872	-0.0301828	0.000859015	0.000444696	0	0	0	
0.2445	-0.039641	0.0256804	0.00085683	0.00040151	0	0	0	
0.244667	0.0502738	-0.0331328	0.000900581	0.00050314	0	0	0	
0.244833	-0.0586065	0.0392399	0.00100455	0.00062407	0	0	0	
0.245	0.0384064	-0.0172286	0.00102163	0.000609239	0	0	0	
0.245167	-0.0303758	-0.00391512	0.000970685	0.000593176	0	0	0	
0.245333	0.0383439	0.00107109	0.000826393	0.000370944	0	0	0	
0.2455	-0.0608649	0.00905806	0.000832433	0.000307741	0	0	0	
0.245667	0.0702387	0.00199147	0.00103493	0.000174836	0	0	0	
0.245833	-0.0590776	-0.0154308	0.00128319	0.000239881	0	0	0	
0.246	0.0370687	0.0113272	0.00132502	0.000206358	0	0	0	
0.246167	-0.02855	0.00316989	0.00110646	0.000245877	0	0	0	
0.246333	0.0345012	-0.00594637	0.000837264	0.000182892	0	0	0	
0.2465	-0.0557939	-0.00357999	0.000744683	0.000123035	0	0	0	
0.246667	0.0638983	-0.00228047	0.000939848	0.000107139	0	0	0	
0.246833	-0.0649458	0.00541997	0.00114774	0.000144852	0	0	0	
0.247	0.056534	-0.000968708	0.00132137	0.000142068	0	0	0	
0.247167	-0.0333997	-0.00562892	0.00122895	0.000124692	0	0	0	
0.247333	0.028487	0.00530511	0.00104076	9.94798E-05	0	0	0	
0.2475	-0.0384975	-0.00610294	0.000804744	0.000130008	0	0	0	
0.247667	0.0592838	0.00784708	0.000792473	0.000145925	0	0	0	
0.247833	-0.0674119	-0.00515122	0.000962031	0.000134293	0	0	0	
0.248	0.0647388	0.000160129	0.00120968	0.000113136	0	0	0	
0.248167	-0.0456242	0.0010061	0.00129422	0.000102844	0	0	0	
0.248333	0.0319013	0.00113818	0.001166	0.000122386	0	0	0	
0.2485	-0.0331903	-0.00244724	0.000922965	0.000137788	0	0	0	
0.248667	0.0504563	0.00618654	0.000783997	0.000135112	0	0	0	
0.248833	-0.0600218	-0.00614469	0.000914274	0.000133791	0	0	0	
0.249	0.0616498	0.00537281	0.00108914	0.000139825	0	0	0	
0.249167	-0.0564656	-0.0032729	0.00125261	0.000128965	0	0	0	
0.249333	0.0358093	0.000939948	0.00117191	0.000100537	0	0	0	
0.2495	-0.0324397	0.00290094	0.001007	7.21315E-05	0	0	0	
0.249667	0.0430449	-0.00757167	0.000814245	8.9829E-05	0	0	0	
0.249833	-0.0604813	0.00638477	0.000839643	0.000117051	0	0	0	
0.25	0.0661942	-0.0029017	0.00101464	0.000205646	0	0	0	
0.250167	-0.0630666	-0.00122115	0.00123784	0.000236531	0	0	0	
0.250333	0.0453918	-0.00217307	0.00128076	0.000204796	0	0	0	
0.2505	-0.0331667	-0.00214184	0.00112812	0.000129781	0	0	0	
0.250667	0.0348181	0.00708695	0.000889666	9.14321E-05	0	0	0	
0.250833	-0.0517742	-0.00416105	0.000764011	0.000136813	0	0	0	
0.251	0.0659569	-0.00816303	0.000921317	0.000190372	0	0	0	
0.251167	-0.0640202	0.00922062	0.00110097	0.000220984	0	0	0	
0.251333	0.0565423	0.00145667	0.00126922	0.000186566	0	0	0	
0.2515	-0.0347783	-0.00728685	0.00116465	0.000123108	0	0	0	
0.251667	0.0321089	0.00200059	0.000985034	9.49387E-05	0	0	0	
0.251833	-0.0411657	0.00526233	0.000781306	0.000103568	0	0	0	
0.252	0.058614	-0.00499928	0.000796849	0.000103453	0	0	0	
0.252167	-0.0648812	-3.52002E-05	0.000954086	8.38635E-05	0	0	0	
0.252333	0.0646264	0.00331419	0.00118527	7.67595E-05	0	0	0	
0.2525	-0.047699	0.000410442	0.00125761	6.1685E-05	0	0	0	
0.252667	0.034391	0.0039999	0.00113942	7.40367E-05	0	0	0	
0.252833	-0.03467	-0.00685212	0.000903518	9.97655E-05	0	0	0	
0.253	0.0514374	0.00373869	0.000758472	0.000123619	0	0	0	
0.253167	-0.0697664	0.00324657	0.000914466	0.000153654	0	0	0	
0.253333	0.0651955	0.000420351	0.00112158	0.000124866	0	0	0	
0.2535	-0.0573443	-0.00981817	0.00128694	0.000154732	0	0	0	
0.253667	0.0370302	0.00852889	0.00117814	0.000148496	0	0	0	
0.253833	-0.0343381	0.00630512	0.000974013	0.000204389	0	0	0	
0.254	0.0445089	-0.00111831	0.000793963	0.000183797	0	0	0	
0.254167	-0.0649451	-0.0128844	0.000841095	0.000223598	0	0	0	
0.254333	0.064971	0.00527361	0.00100347	0.000194108	0	0	0	
0.2545	-0.0656904	0.00270568	0.00121612	0.000213067	0	0	0	
0.254667	0.0487124	0.0120875	0.00126326	0.000207941	0	0	0	
0.254833	-0.0334905	-0.0183299	0.00113207	0.000275879	0	0	0	
0.255	0.0341491	-0.00243796	0.000894547	0.000315087	0	0	0	
0.255167	-0.0499598	0.0172058	0.000729874	0.000328568	0	0	0	
0.255333	0.069839	0.000146326	0.000878764	0.00027087	0	0	0	
0.2555	-0.0672337	-0.00949031	0.00110567	0.000216372	0	0	0	
0.255667	0.0594789	-0.00124703	0.00128911	0.000154443	0	0	0	
0.255833	-0.0370257	0.00446753	0.00119553	0.000131298	0	0	0	
0.256	0.0325941	0.00760201	0.000975813	0.000193779	0	0	0	
0.256167	-0.040929	-0.0110672	0.000776513	0.000200363	0	0	0	
0.256333	0.0614692	0.00773763	0.000801875	0.000239431	0	0	0	
0.2565	-0.0600884	-0.0051778	0.000938512	0.000201726	0	0	0	
0.256667	0.0652971	0.00551563	0.00113106	0.000213423	0	0	0	
0.256833	-0.0521513	-0.00101692	0.0011892	0.000158371	0	0	0	
0.257	0.0380383	-0.006419	0.00110761	0.000125297	0	0	0	
0.257167	-0.0362939	0.00153976	0.000926091	9.34522E-05	0	0	0	
0.257333	0.0467779	0.00345363	0.000775465	0.000110152	0	0	0	
0.2575	-0.0627489	0.00453504	0.000872096	8.47549E-05	0	0	0	
0.257667	0.0646609	0.00271113	0.00106386	8.35614E-05	0	0	0	
0.257833	-0.0590291	-0.00773366	0.00122392	0.000123589	0	0	0	
0.258	0.0402459	0.00237563	0.00116298	0.000138462	0	0	0	
0.258167	-0.0353364	0.00427848	0.000964552	0.000208615	0	0	0	
0.258333	0.037444	-0.00877164	0.000785152	0.000179087	0	0	0	
0.2585	-0.0594589	0.0112321	0.000777812	0.000242608	0	0	0	
0.258667	0.0646749	-0.0215077	0.000920692	0.000289355	0	0	0	
0.258833	-0.0682764	0.0175868	0.00113528	0.00037419	0	0	0	
0.259	0.0515711	0.0197658	0.0012382	0.000449324	0	0	0	
0.259167	-0.0396908	-0.0321193	0.00114114	0.000468114	0	0	0	
0.259333	0.0353441	0.00238709	0.000936606	0.000460187	0	0	0	
0.2595	-0.0396726	0.00178032	0.000754071	0.000299329	0	0	0	
0.259667	0.0590309	0.00392523	0.000827555	0.000200788	0	0	0	
0.259833	-0.075907	-0.000572576	0.00105439	0.000201363	0	0	0	
0.26	0.068469	-0.0241539	0.00129501	0.00035111	0	0	0	
0.260167	-0.0421077	0.0147974	0.00129057	0.000446235	0	0	0	
0.260333	0.034633	0.0101444	0.0010599	0.000527068	0	0	0	
0.2605	-0.0416075	0.00370096	0.000828913	0.000402295	0	0	0	
0.260667	0.0646151	-0.0238607	0.000829776	0.000353742	0	0	0	
0.260833	-0.0631853	-0.000403475	0.000992752	0.000232794	0	0	0	
0.261	0.0711996	0.0117493	0.00118533	0.000253126	0	0	0	
0.261167	-0.058288	0.00678461	0.00126634	0.000352076	0	0	0	
0.261333	0.0390093	-0.0115351	0.00116189	0.000378054	0	0	0	
0.2615	-0.0356397	-0.00725926	0.000972446	0.000408438	0	0	0	
0.261667	0.0445587	0.00769065	0.000785623	0.000240266	0	0	0	
0.261833	-0.0613801	0.00725959	0.000842302	0.000278447	0	0	0	
0.262	0.0720661	0.00306847	0.00103625	0.000218622	0	0	0	
0.262167	-0.0672228	-0.0184011	0.00123714	0.000259234	0	0	0	
0.262333	0.043848	0.0051032	0.00123683	0.000198637	0	0	0	
0.2625	-0.036269	0.00586018	0.00105095	0.000282696	0	0	0	
0.262667	0.0406307	0.00443682	0.000847543	0.000235601	0	0	0	
0.262833	-0.0656178	-0.0161182	0.000836333	0.000215205	0	0	0	
0.263	0.0641504	0.00456833	0.00100789	0.00017991	0	0	0	
0.263167	-0.0712564	0.00252644	0.00119802	0.000185635	0	0	0	
0.263333	0.058549	0.00187717	0.00128846	0.00017071	0	0	0	
0.2635	-0.0395436	-0.00684217	0.00116453	0.000153148	0	0	0	
0.263667	0.0350098	-0.00147653	0.000969714	0.000145326	0	0	0	
0.263833	-0.0485957	0.00244089	0.000796228	0.000136253	0	0	0	
0.264	0.0659942	0.00515753	0.000883113	0.000120945	0	0	0	
0.264167	-0.0754076	-0.00534444	0.0010992	0.000121926	0	0	0	
0.264333	0.068156	0.00402639	0.00130126	0.000151852	0	0	0	
0.2645	-0.0445075	-0.00366373	0.00127346	0.000152424	0	0	0	
0.264667	0.0335416	0.00398977	0.00106241	0.000155776	0	0	0	
0.264833	-0.0365591	0.000486604	0.000822442	0.000126647	0	0	0	
0.265	0.0603929	-0.00410605	0.000774861	0.000124204	0	0	0	
0.265167	-0.0624174	0.00582521	0.000948394	0.000129188	0	0	0	
0.265333	0.0717292	-0.00215915	0.00114137	0.000118749	0	0	0	
0.2655	-0.0596746	-0.00128827	0.00126014	0.000122908	0	0	0	
0.265667	0.0372192	0.00405499	0.00113579	9.67925E-05	0	0	0	
0.265833	-0.0343121	0.000317472	0.000950022	7.60144E-05	0	0	0	
0.266	0.0488848	0.00312154	0.000778686	5.94814E-05	0	0	0	
0.266167	-0.066009	-0.0082171	0.000867593	0.00010249	0	0	0	
0.266333	0.0740273	0.00638019	0.0010835	0.000172884	0	0	0	
0.2665	-0.0669869	-0.00186577	0.00128256	0.000184926	0	0	0	
0.266667	0.0452734	0.00464072	0.00126177	0.000176067	0	0	0	
0.266833	-0.0365943	-0.0078842	0.00107242	0.000158398	0	0	0	
0.267	0.0389868	0.0089459	0.000856268	0.000170426	0	0	0	
0.267167	-0.0635208	-0.00353487	0.000815936	0.000164999	0	0	0	
0.267333	0.0627517	-0.000636222	0.00100263	0.000139973	0	0	0	
0.2675	-0.0698758	0.00191893	0.00117476	0.000172711	0	0	0	
0.267667	0.0591154	0.00352934	0.00127447	0.000206113	0	0	0	
0.267833	-0.0368954	-0.005431	0.00112659	0.00019983	0	0	0	
0.268	0.0323825	-0.00308888	0.000935012	0.000138069	0	0	0	
0.268167	-0.0498715	0.000147196	0.000778107	8.32808E-05	0	0	0	
0.268333	0.0656706	0.00501072	0.00088771	9.24562E-05	0	0	0	
0.2685	-0.0791543	0.00630547	0.00111083	0.000169005	0	0	0	
0.268667	0.0699327	-0.0192512	0.00132687	0.000280265	0	0	0	
0.268833	-0.0454236	0.000674941	0.00129711	0.000316332	0	0	0	
0.269	0.0348086	0.0189201	0.00110117	0.000338861	0	0	0	
0.269167	-0.0364825	-0.00316799	0.000853813	0.000303158	0	0	0	
0.269333	0.056127	-0.0107689	0.000773944	0.000293746	0	0	0	
0.2695	-0.0624817	-0.016416	0.000955767	0.000302267	0	0	0	
0.269667	0.070439	0.0130753	0.00114147	0.000283651	0	0	0	
0.269833	-0.0616557	0.0177639	0.00128365	0.000393026	0	0	0	
0.27	0.039266	-0.0132672	0.00116328	0.000351183	0	0	0	
0.270167	-0.0349505	-0.0122851	0.000984169	0.000435991	0	0	0	
0.270333	0.0495768	0.00237862	0.000817908	0.000323353	0	0	0	
0.2705	-0.0658369	0.0127553	0.000908116	0.000358069	0	0	0	
0.270667	0.0737146	0.00461118	0.00109107	0.000267944	0	0	0	
0.270833	-0.0684006	-0.0144841	0.00128754	0.000253663	0	0	0	
0.271	0.0461316	-0.00170439	0.00126444	0.000255976	0	0	0	
0.271167	-0.0339167	0.00507354	0.001093	0.000211996	0	0	0	
0.271333	0.0354428	0.0105436	0.000852097	0.000223181	0	0	0	
0.2715	-0.0587068	-0.00752144	0.000768564	0.000156608	0	0	0	
0.271667	0.068739	0.00824991	0.000968542	0.000171334	0	0	0	
0.271833	-0.0718667	-0.00577408	0.00119724	0.000189279	0	0	0	
0.272	0.0599854	-0.000115234	0.00134156	0.000176645	0	0	0	
0.272167	-0.0370732	0.012861	0.00118863	0.000179491	0	0	0	
0.272333	0.0326484	-0.015005	0.0009593	0.000223747	0	0	0	
0.2725	-0.0476005	0.00836675	0.000784976	0.000306039	0	0	0	
0.272667	0.0636991	-0.00692528	0.000896014	0.000340171	0	0	0	
0.272833	-0.0718381	0.010725	0.00108899	0.000296054	0	0	0	
0.273	0.0690639	-0.00788797	0.00129389	0.00024431	0	0	0	
0.273167	-0.0477916	0.016508	0.00127326	0.000258894	0	0	0	
0.273333	0.0344475	-0.0183819	0.00111223	0.000316346	0	0	0	
0.2735	-0.0330862	0.0102681	0.000863717	0.000352754	0	0	0	
0.273667	0.0520909	-0.0108977	0.000747724	0.000337059	0	0	0	
0.273833	-0.0643407	0.00230318	0.000910312	0.000245214	0	0	0	
0.274	0.0661069	0.0116641	0.00113403	0.000205776	0	0	0	
0.274167	-0.0572061	-0.012412	0.00128884	0.000185722	0	0	0	
0.274333	0.0399064	-0.00181197	0.00118775	0.00028291	0	0	0	
0.2745	-0.041172	0.00525459	0.00101106	0.000256168	0	0	0	
0.274667	0.046918	0.0145823	0.000864696	0.000257827	0	0	0	
0.274833	-0.0541698	-0.0226415	0.000885057	0.000249803	0	0	0	
0.275	0.0502097	0.000649104	0.000920569	0.000296996	0	0	0	
0.275167	-0.0517393	0.0105575	0.00101089	0.000319027	0	0	0	
0.275333	0.0416375	-0.00720861	0.00105325	0.000260881	0	0	0	
0.2755	-0.0386809	0.00105235	0.00104763	0.000218345	0	0	0	
0.275667	0.0391021	0.012481	0.000951809	0.000276216	0	0	0	
0.275833	-0.0630452	-0.0139529	0.000878985	0.000353857	0	0	0	
0.276	0.0719944	-0.0079266	0.00103496	0.000410084	0	0	0	
0.276167	-0.0581704	0.0136231	0.00119446	0.00037085	0	0	0	
0.276333	0.0387653	-0.00873311	0.00122508	0.000304741	0	0	0	
0.2765	-0.0247926	0.012455	0.00100303	0.000285257	0	0	0	
0.276667	0.0303952	-0.0119146	0.000786889	0.000267986	0	0	0	
0.276833	-0.0433881	0.000466001	0.000702988	0.000208932	0	0	0	
0.277	0.054506	-0.000880059	0.000830698	0.000154246	0	0	0	
0.277167	-0.0546773	0.00843132	0.00096226	0.000203431	0	0	0	
0.277333	0.0607063	-0.00724921	0.00111262	0.000313195	0	0	0	
0.2775	-0.0467609	-0.0025429	0.00114101	0.00032278	0	0	0	
0.277667	0.0360971	0.0112594	0.00106154	0.000234723	0	0	0	
0.277833	-0.0325071	-0.0130109	0.000887698	0.000188416	0	0	0	
0.278	0.0469213	0.00607133	0.000768996	0.00022843	0	0	0	
0.278167	-0.0610126	-0.000994819	0.000893362	0.000232798	0	0	0	
0.278333	0.0642087	0.00044914	0.00111662	0.000175188	0	0	0	
0.2785	-0.0551694	0.00163232	0.00126935	0.000140282	0	0	0	
0.278667	0.0355519	-0.000177964	0.00117721	0.000145438	0	0	0	
0.278833	-0.0310973	-0.00332547	0.000952116	0.000138083	0	0	0	
0.279	0.0377016	-0.00105256	0.000777004	0.000107898	0	0	0	
0.279167	-0.0533691	-0.00029476	0.000829921	5.49269E-05	0	0	0	
0.279333	0.0545026	0.00391588	0.000988449	5.11629E-05	0	0	0	
0.2795	-0.0624579	-0.00615483	0.00116197	7.34627E-05	0	0	0	
0.279667	0.0466481	0.000392703	0.00120622	7.8491E-05	0	0	0	
0.279833	-0.0334518	0.00184468	0.00108206	6.21002E-05	0	0	0	
0.28	0.0299299	-0.00260397	0.000892754	4.99219E-05	0	0	0	
0.280167	-0.0467803	-0.000947143	0.000788141	6.89136E-05	0	0	0	
0.280333	0.0625195	0.00214619	0.000955341	8.97695E-05	0	0	0	
0.2805	-0.0690205	-0.0029872	0.00121587	8.98016E-05	0	0	0	
0.280667	0.0582136	0.0111287	0.00137241	9.88896E-05	0	0	0	
0.280833	-0.0367493	-0.00922644	0.0012593	0.000144453	0	0	0	
0.281	0.0307623	-0.000188403	0.00100332	0.000141884	0	0	0	
0.281167	-0.0354884	0.00221549	0.000794627	0.000106909	0	0	0	
0.281333	0.0508494	0.000352753	0.000825691	6.33093E-05	0	0	0	
0.2815	-0.0501151	-0.00571437	0.000988187	7.23083E-05	0	0	0	
0.281667	0.0605445	0.0130126	0.00115744	0.000130743	0	0	0	
0.281833	-0.0476621	-0.00707743	0.00121742	0.000172659	0	0	0	
0.282	0.0336927	0.00222273	0.00109357	0.000170144	0	0	0	
0.282167	-0.0279528	0.0002254	0.000908415	0.000115417	0	0	0	
0.282333	0.0431927	-0.00528687	0.000780335	7.31958E-05	0	0	0	
0.2825	-0.0577552	0.00808692	0.000919749	0.00012939	0	0	0	
0.282667	0.0678257	-0.010865	0.00117203	0.000160185	0	0	0	
0.282833	-0.0585071	0.0021386	0.00134822	0.000232579	0	0	0	
0.283	0.0361986	0.00178796	0.0012602	0.000190931	0	0	0	
0.283167	-0.0280025	0.00624624	0.00100365	0.000192613	0	0	0	
0.283333	0.0312823	0.000258145	0.000765174	0.000103884	0	0	0	
0.2835	-0.0472103	-0.00974979	0.000766401	9.29295E-05	0	0	0	
0.283667	0.0463417	-0.00882451	0.00094471	0.000197662	0	0	0	
0.283833	-0.0563347	0.0150832	0.00112411	0.000310805	0	0	0	
0.284	0.0428968	0.00397585	0.00118543	0.000351306	0	0	0	
0.284167	-0.0329994	-0.0126647	0.00105248	0.000250847	0	0	0	
0.284333	0.0305077	-0.00864265	0.000892646	0.000246376	0	0	0	
0.2845	-0.0400704	0.00628325	0.000781063	0.000235456	0	0	0	
0.284667	0.0456357	0.017568	0.000875001	0.000383032	0	0	0	
0.284833	-0.059798	-0.0112252	0.00104712	0.000343551	0	0	0	
0.285	0.0511919	-0.0160664	0.00119544	0.000343224	0	0	0	
0.285167	-0.033216	0.00559053	0.00115909	0.000274153	0	0	0	
0.285333	0.0286412	0.000871611	0.000988863	0.000275221	0	0	0	
0.2855	-0.0316195	0.0191495	0.000804193	0.00028835	0	0	0	
0.285667	0.0480926	-0.0205013	0.000809209	0.000286034	0	0	0	
0.285833	-0.0485483	0.00423872	0.000987353	0.00041021	0	0	0	
0.286	0.0579339	0.00116042	0.00116036	0.000389337	0	0	0	
0.286167	-0.0448565	0.00719198	0.00122725	0.000329417	0	0	0	
0.286333	0.0295802	-0.00109223	0.001073	0.00014271	0	0	0	
0.2865	-0.0258461	-0.00254534	0.000882836	0.000105033	0	0	0	
0.286667	0.040359	-0.00898569	0.000768307	0.000104914	0	0	0	
0.286833	-0.0450219	0.0170581	0.000896638	0.000158168	0	0	0	
0.287	0.0580909	0.00366599	0.00109599	0.000208752	0	0	0	
0.287167	-0.0542	-0.00704901	0.001269	0.00018452	0	0	0	
0.287333	0.0353592	-0.00266832	0.00124309	0.000136332	0	0	0	
0.2875	-0.0299744	0.00220753	0.00106931	0.000120097	0	0	0	
0.287667	0.0293651	0.00456813	0.00084601	0.000174665	0	0	0	
0.287833	-0.0421274	-0.00398512	0.000793764	0.000171454	0	0	0	
0.288	0.0440909	0.00324954	0.000969204	0.000164149	0	0	0	
0.288167	-0.0557192	-0.007532	0.00117982	0.000105935	0	0	0	
0.288333	0.0466869	0.00988109	0.00129855	0.000141946	0	0	0	
0.2885	-0.0379747	-2.24146E-05	0.00117786	0.000168687	0	0	0	
0.288667	0.0229429	-0.0127396	0.000943027	0.00020972	0	0	0	
0.288833	0.0168513	0.0182081	0.000627645	0.000228228	0	0	0	
0.289	0.00196196	-0.0316571	0.00085306	0.000622614	0	0	0	
0.289167	-0.182043	0.00842073	0.00213583	0.00135448	0	0	0	
0.289333	0.0791005	0.0428105	0.00298545	0.00161034	0	0	0	
0.2895	-0.0740841	-0.0503259	0.00298397	0.00143957	0	0	0	
0.289667	0.0487579	0.028301	0.00187491	0.000897931	0	0	0	
0.289833	-0.0426971	-0.0406058	0.00125142	0.000807811	0	0	0	
0.29	0.0127066	0.0734589	0.00125189	0.000934356	0	0	0	
0.290167	-0.0610575	-0.0621839	0.00139652	0.00111167	0	0	0	
0.290333	0.0745387	0.0162873	0.00162173	0.00113652	0	0	0	
0.2905	-0.0613335	-0.0240103	0.00160842	0.000996563	0	0	0	
0.290667	0.0494163	0.0326073	0.00155053	0.000818941	0	0	0	
0.290833	-0.0548739	-0.00377942	0.0014903	0.000667943	0	0	0	
0.291	0.0613045	-0.0213262	0.00153144	0.000440974	0	0	0	
0.291167	-0.0613114	-0.00145591	0.00159854	0.000382589	0	0	0	
0.291333	0.0540867	0.0127913	0.00157288	0.000342269	0	0	0	
0.2915	-0.0467867	0.00698182	0.00146408	0.000455315	0	0	0	
0.291667	0.0464209	-0.00650882	0.0013894	0.00033326	0	0	0	
0.291833	-0.0524623	-0.01153	0.00139583	0.000312425	0	0	0	
0.292	0.0552601	0.0125261	0.00145446	0.000233463	0	0	0	
0.292167	-0.0548544	0.00314302	0.00148545	0.00025916	0	0	0	
0.292333	0.0517411	0.00150768	0.00146798	0.00023236	0	0	0	
0.2925	-0.0477734	-0.0132751	0.00142529	0.000243812	0	0	0	
0.292667	0.0456909	0.00766804	0.00139436	0.00021016	0	0	0	
0.292833	-0.0483116	-0.00162202	0.00139391	0.00020856	0	0	0	
0.293	0.0514886	0.00732308	0.00142242	0.000143555	0	0	0	
0.293167	-0.0538106	-0.00450161	0.00145107	0.000106824	0	0	0	
0.293333	0.0509699	0.00348823	0.00145778	0.000101246	0	0	0	
0.2935	-0.0477336	-0.00683308	0.0014322	0.000108589	0	0	0	
0.293667	0.0457171	0.0026196	0.00140945	0.000104076	0	0	0	
0.293833	-0.0492905	0.000340611	0.00141029	0.000134559	0	0	0	
0.294	0.0509802	0.00744594	0.00144379	0.000117314	0	0	0	
0.294167	-0.0515927	-0.0118057	0.00146481	0.000158657	0	0	0	
0.294333	0.0475472	0.0051496	0.00145558	0.000152598	0	0	0	
0.2945	-0.0456712	-0.00172101	0.00142365	0.000164066	0	0	0	
0.294667	0.0463737	0.00801142	0.00142218	0.000171371	0	0	0	
0.294833	-0.0485837	-0.00716525	0.00144804	0.000170532	0	0	0	
0.295	0.0473855	-0.00600141	0.00146942	0.000187061	0	0	0	
0.295167	-0.0487452	0.00529524	0.00146581	0.000141795	0	0	0	
0.295333	0.0498882	0.00249794	0.00146175	0.000154716	0	0	0	
0.2955	-0.0484339	0.000686895	0.001458	0.000148053	0	0	0	
0.295667	0.0437479	-0.00693304	0.00143769	0.000165554	0	0	0	
0.295833	-0.044234	-0.000355822	0.00140915	0.000144255	0	0	0	
0.296	0.0473225	0.00304437	0.00140715	0.000121512	0	0	0	
0.296167	-0.043973	0.00267539	0.00142545	0.000111991	0	0	0	
0.296333	0.0410003	0.00207469	0.00141139	8.7133E-05	0	0	0	
0.2965	-0.038607	-0.0178283	0.00137732	0.000161056	0	0	0	
0.296667	0.0398596	0.0158153	0.00135329	0.000223918	0	0	0	
0.296833	-0.0424123	-0.0014346	0.0013753	0.000266365	0	0	0	
0.297	0.041524	-4.84534E-05	0.00140614	0.000209559	0	0	0	
0.297167	-0.0407795	-0.00676666	0.0014279	0.000173623	0	0	0	
0.297333	0.0438367	0.00426624	0.00143468	0.000151398	0	0	0	
0.2975	-0.0461612	0.00277555	0.0014438	0.000131399	0	0	0	
0.297667	0.0450052	-0.00296523	0.00144215	0.000126218	0	0	0	
0.297833	-0.041824	-0.00268248	0.00142355	0.000170122	0	0	0	
0.298	0.0392399	0.00304752	0.00138673	0.000193798	0	0	0	
0.298167	-0.0397126	-1.81472E-06	0.00137587	0.000140956	0	0	0	
0.298333	0.0405506	-0.00214897	0.0013895	8.02169E-05	0	0	0	
0.2985	-0.0403202	0.00288968	0.00140465	4.38575E-05	0	0	0	
0.298667	0.0387182	0.00287367	0.00140452	7.54082E-05	0	0	0	
0.298833	-0.0408422	-0.00414072	0.00140377	7.50515E-05	0	0	0	
0.299	0.0403463	-0.00320948	0.00140872	0.000117293	0	0	0	
0.299167	-0.036753	0.00291766	0.0013997	8.74078E-05	0	0	0	
0.299333	0.0350551	0.00893821	0.00138139	0.000132819	0	0	0	
0.2995	-0.0366087	-0.00701923	0.00138849	0.000138603	0	0	0	
0.299667	0.0385136	-0.0034584	0.00142131	0.000140387	0	0	0	
0.299833	-0.039532	-0.00239456	0.00145002	0.000149433	0	0	0	
0.3	0.0375555	0.0122977	0.00145097	0.000175707	0	0	0	
0.300167	-0.0377059	-0.00552067	0.00143947	0.000206025	0	0	0	
0.300333	0.0381351	-0.00186883	0.00143478	0.00018195	0	0	0	
0.3005	-0.0369475	-4.33656E-05	0.001432	0.00011182	0	0	0	
0.300667	0.0366521	-0.00129136	0.00142075	7.79425E-05	0	0	0	
0.300833	-0.0357535	0.00508686	0.00140528	6.93021E-05	0	0	0	
0.301	0.0319899	-0.00471706	0.00138758	8.80817E-05	0	0	0	
0.301167	-0.0324447	-0.00633376	0.00138254	0.000120988	0	0	0	
0.301333	0.035265	0.0116889	0.00140253	0.000130871	0	0	0	
0.3015	-0.037042	-0.00455081	0.0014402	0.000169262	0	0	0	
0.301667	0.0369792	-0.000565426	0.00146651	0.00013551	0	0	0	
0.301833	-0.0358872	-0.00642672	0.00145855	0.000141048	0	0	0	
0.302	0.0329482	0.00729916	0.00142661	0.000125707	0	0	0	
0.302167	-0.0315689	3.39585E-05	0.00139564	0.000133022	0	0	0	
0.302333	0.0317241	-0.00530902	0.00139627	0.000122696	0	0	0	
0.3025	-0.0352948	-0.0029106	0.00144913	0.000172022	0	0	0	
0.302667	0.0382877	0.000155584	0.00154973	0.000272128	0	0	0	
0.302833	-0.0359245	0.0113996	0.00161354	0.000344222	0	0	0	
0.303	0.0266578	-0.0131467	0.00154736	0.000343731	0	0	0	
0.303167	-0.0133831	0.0134167	0.00138712	0.000298239	0	0	0	
0.303333	0.00807332	-0.0249141	0.00130722	0.000305101	0	0	0	
0.3035	-0.0170441	0.0363549	0.00141901	0.000415105	0	0	0	
0.303667	0.0264498	-0.0399382	0.00160936	0.000568893	0	0	0	
0.303833	-0.0305781	0.014511	0.00169062	0.000634243	0	0	0	
0.304	0.0370392	0.0148529	0.00161283	0.000481145	0	0	0	
0.304167	-0.0380703	-0.0150321	0.00147937	0.000408264	0	0	0	
0.304333	0.0273084	0.00390176	0.00132818	0.000327748	0	0	0	
0.3045	-0.0149014	-0.00757621	0.00117821	0.000315824	0	0	0	
0.304667	0.0121631	0.00640449	0.00111067	0.000246764	0	0	0	
0.304833	-0.021417	0.00600675	0.00121406	0.000259039	0	0	0	
0.305	0.028907	-0.011211	0.00141327	0.000265926	0	0	0	
0.305167	-0.0293338	-0.00104495	0.00154092	0.00034235	0	0	0	
0.305333	0.0251812	0.00479718	0.00154907	0.000319388	0	0	0	
0.3055	-0.0261041	0.0101521	0.00152578	0.000297284	0	0	0	
0.305667	0.0280515	-0.0160998	0.00151873	0.000218597	0	0	0	
0.305833	-0.0271146	0.00718357	0.00149121	0.000207595	0	0	0	
0.306	0.0225081	-0.00127796	0.00143429	0.000213195	0	0	0	
0.306167	-0.023653	0.00363305	0.00139562	0.000173732	0	0	0	
0.306333	0.0248947	-0.00354002	0.00140768	0.000125011	0	0	0	
0.3065	-0.0236194	0.00260566	0.00142347	0.000132037	0	0	0	
0.306667	0.020342	0.00130562	0.00141647	0.000152681	0	0	0	
0.306833	-0.0217458	-0.00251032	0.001411	0.00016552	0	0	0	
0.307	0.0231113	0.00154204	0.001442	0.000146713	0	0	0	
0.307167	-0.024714	0.000882848	0.00147848	8.33151E-05	0	0	0	
0.307333	0.0256185	-0.000846044	0.00148683	5.07271E-05	0	0	0	
0.3075	-0.0243845	0.00376406	0.00146505	4.78127E-05	0	0	0	
0.307667	0.0228078	-0.00748296	0.00142746	9.12022E-05	0	0	0	
0.307833	-0.0201612	0.00838301	0.00139257	0.000130383	0	0	0	
0.308	0.0169939	-0.000775528	0.0013761	0.000144098	0	0	0	
0.308167	-0.0171591	-0.00514009	0.00139155	0.000121512	0	0	0	
0.308333	0.0198855	0.00544099	0.00142874	9.82809E-05	0	0	0	
0.3085	-0.0197934	0.00203735	0.00146109	8.97654E-05	0	0	0	
0.308667	0.0194255	-0.00184913	0.00146661	0.000103684	0	0	0	
0.308833	-0.0176656	-0.000581102	0.00145655	8.86367E-05	0	0	0	
0.309	0.0178149	4.76894E-05	0.00144757	7.98673E-05	0	0	0	
0.309167	-0.0179715	0.00220134	0.00144527	5.12583E-05	0	0	0	
0.309333	0.0167942	0.00299027	0.0014305	5.85316E-05	0	0	0	
0.3095	-0.0142674	-0.00239179	0.00141357	8.43804E-05	0	0	0	
0.309667	0.0154631	-0.00080448	0.00141869	0.000112013	0	0	0	
0.309833	-0.0169132	0.00311246	0.00144039	0.000129695	0	0	0	
0.31	0.0166346	-0.003118	0.00145014	0.000131595	0	0	0	
0.310167	-0.0145571	0.00373091	0.00144638	0.000131112	0	0	0	
0.310333	0.0151811	-0.00318808	0.00143999	0.000118455	0	0	0	
0.3105	-0.0152567	0.00220441	0.0014319	9.92352E-05	0	0	0	
0.310667	0.0139953	-0.000476016	0.00141375	0.000106437	0	0	0	
0.310833	-0.0134163	0.000656819	0.00140067	0.000101955	0	0	0	
0.311	0.0136113	-0.00229858	0.00140377	9.68338E-05	0	0	0	
0.311167	-0.00981026	0.0036096	0.00141257	7.60411E-05	0	0	0	
0.311333	0.00937651	0.00290791	0.00141086	6.28997E-05	0	0	0	
0.3115	-0.010322	-0.00515858	0.00141083	7.79796E-05	0	0	0	
0.311667	0.00877909	-0.000796044	0.00142313	8.11921E-05	0	0	0	
0.311833	-0.0084875	0.0017619	0.00145437	0.000131861	0	0	0	
0.312	0.00960579	0.000567055	0.00148443	0.000155158	0	0	0	
0.312167	-0.00858348	0.000347796	0.00147115	0.000157977	0	0	0	
0.312333	0.00262617	-0.00624678	0.00141072	0.000135881	0	0	0	
0.3125	-0.00122895	0.00512037	0.00139322	0.000141788	0	0	0	
0.312667	0.0160835	0.0048446	0.00150385	0.000173113	0	0	0	
0.312833	-0.0248977	0.00429993	0.0016335	0.00017242	0	0	0	
0.313	0.016919	0.00166648	0.00157473	0.000248014	0	0	0	
0.313167	-0.0044538	-0.0349299	0.00132929	0.00036968	0	0	0	
0.313333	0.000348968	0.016185	0.0011495	0.0005107	0	0	0	
0.3135	0.00151342	0.0342046	0.00116026	0.000639556	0	0	0	
0.313667	-0.00299527	-0.0166498	0.00127744	0.000592913	0	0	0	
0.313833	0.000874655	-0.0186089	0.00141758	0.000700998	0	0	0	
0.314	0.0138008	-0.00170901	0.00157329	0.000468527	0	0	0	
0.314167	-0.0206943	0.0305758	0.0016625	0.000451482	0	0	0	
0.314333	0.0116403	0.00303624	0.00157322	0.000436664	0	0	0	
0.3145	-0.00139569	-0.0306788	0.00137877	0.000619805	0	0	0	
0.314667	0.00151888	-0.00730849	0.00129187	0.000770954	0	0	0	
0.314833	-0.00650625	0.0376826	0.00135286	0.00070809	0	0	0	
0.315	0.00866501	0.00679925	0.00144049	0.00075021	0	0	0	
0.315167	-0.00474027	-0.0349427	0.00144495	0.000677598	0	0	0	
0.315333	0.00207822	0.000842707	0.00139692	0.000661888	0	0	0	
0.3155	-0.00288823	0.0199418	0.00137911	0.000506972	0	0	0	
0.315667	0.00627161	0.00270927	0.00140472	0.000474575	0	0	0	
0.315833	-0.00606854	-0.00713652	0.00143027	0.00032777	0	0	0	
0.316	0.0048888	-0.0128691	0.00142465	0.000338327	0	0	0	
0.316167	-0.00270119	0.00610912	0.00140614	0.000235421	0	0	0	
0.316333	0.00246209	0.015137	0.00139453	0.000351532	0	0	0	
0.3165	-0.000518048	-0.00259856	0.00139121	0.000274198	0	0	0	
0.316667	0.000493463	-0.0183195	0.00140081	0.000303205	0	0	0	
0.316833	-0.00146193	0.00622678	0.00143417	0.000233132	0	0	0	
0.317	0.00336289	0.010107	0.00147171	0.000269413	0	0	0	
0.317167	-0.00167963	0.00035761	0.00147668	0.000267008	0	0	0	
0.317333	0.000330202	-0.0114317	0.00144892	0.000240108	0	0	0	
0.3175	-0.00133352	-0.000271728	0.00141781	0.000223125	0	0	0	
0.317667	-0.000173488	0.00893689	0.00139371	0.000155585	0	0	0	
0.317833	0.003056	0.00599253	0.00137339	0.000169428	0	0	0	
0.318	-0.00299597	-0.00964465	0.0013653	0.000153602	0	0	0	
0.318167	0.00429154	-0.00303437	0.00138213	0.000215038	0	0	0	
0.318333	-0.00422058	0.00330012	0.00141104	0.000153033	0	0	0	
0.3185	0.00359407	0.00573746	0.00143223	0.000166129	0	0	0	
0.318667	-0.00238585	-0.00378521	0.00144444	0.000111777	0	0	0	
0.318833	0.00172344	-0.00364185	0.00145232	0.000154339	0	0	0	
0.319	-1.67314E-05	-0.00032128	0.0014482	0.000107627	0	0	0	
0.319167	0.00338566	0.00855991	0.00143539	0.000127591	0	0	0	
0.319333	-0.00346748	-0.00659364	0.0014265	0.00010607	0	0	0	
0.3195	0.00349829	-0.0015111	0.00141923	0.000145658	0	0	0	
0.319667	-0.00543627	0.00363066	0.00139266	0.000112536	0	0	0	
0.319833	0.0101227	-0.000898664	0.00136014	8.88416E-05	0	0	0	
0.32	-0.00923066	-0.000776424	0.00136517	4.98813E-05	0	0	0	
0.320167	0.00677505	0.00336374	0.00142137	4.94142E-05	0	0	0	
0.320333	-0.00462233	-0.00831805	0.00147554	6.87986E-05	0	0	0	
0.3205	0.00611112	0.00838103	0.00148054	0.000102757	0	0	0	
0.320667	-0.00735045	-0.00513304	0.00144866	0.000153793	0	0	0	
0.320833	0.00773496	0.00137342	0.0014274	0.000181436	0	0	0	
0.321	-0.00900429	-0.0016986	0.00142877	0.000204373	0	0	0	
0.321167	0.00963838	-0.000105507	0.00143744	0.000198808	0	0	0	
0.321333	-0.00952609	-0.00151303	0.00144629	0.000158746	0	0	0	
0.3215	0.00774507	0.00715023	0.00144868	0.000113822	0	0	0	
0.321667	-0.00914254	-0.0104917	0.00143289	0.000116644	0	0	0	
0.321833	0.0119101	0.00753469	0.00139718	0.000150081	0	0	0	
0.322	-0.0147304	-0.00555877	0.00137683	0.000163705	0	0	0	
0.322167	0.0134342	1.78986E-05	0.00140082	0.000119105	0	0	0	
0.322333	-0.0108031	0.00026187	0.00145671	7.37188E-05	0	0	0	
0.3225	0.00805711	0.00116991	0.00149461	3.82462E-05	0	0	0	
0.322667	-0.00954334	0.000614189	0.00148821	2.30549E-05	0	0	0	
0.322833	0.0107253	-0.00470365	0.00145381	2.73943E-05	0	0	0	
0.323	-0.0113401	0.0017986	0.0014273	5.53522E-05	0	0	0	
0.323167	0.0134393	0.0044829	0.00141053	7.8104E-05	0	0	0	
0.323333	-0.0173937	-0.00256723	0.00139332	0.000117817	0	0	0	
0.3235	0.0186515	-0.000901677	0.0013885	0.00014565	0	0	0	
0.323667	-0.0170863	-0.00125855	0.00141862	0.000132049	0	0	0	
0.323833	0.0139852	0.00520249	0.00146377	9.78952E-05	0	0	0	
0.324	-0.0125811	-0.00607373	0.00147853	6.74476E-05	0	0	0	
0.324167	0.0119381	0.00335103	0.00145004	9.37561E-05	0	0	0	
0.324333	-0.0125066	0.00230595	0.00141302	8.51437E-05	0	0	0	
0.3245	0.01427	-0.00118484	0.00139194	6.48759E-05	0	0	0	
0.324667	-0.0148555	0.0014801	0.00138316	2.81179E-05	0	0	0	
0.324833	0.0148141	-0.00305551	0.00138164	3.20861E-05	0	0	0	
0.325	-0.0143916	0.00184117	0.00139278	6.3691E-05	0	0	0	
0.325167	0.0155451	0.00216043	0.00141545	7.40361E-05	0	0	0	
0.325333	-0.0161924	0.00386062	0.0014328	0.000103491	0	0	0	
0.3255	0.0195098	-0.00416072	0.00143832	0.000111705	0	0	0	
0.325667	-0.0185169	-0.00178357	0.00143428	0.000123153	0	0	0	
0.325833	0.0182451	-0.00355883	0.0014449	0.000140057	0	0	0	
0.326	-0.0175003	0.0119238	0.00146478	0.000187414	0	0	0	
0.326167	0.0188702	-0.00421079	0.00147673	0.000228626	0	0	0	
0.326333	-0.0179596	-0.000459786	0.00145625	0.000210756	0	0	0	
0.3265	0.0198463	-0.00295401	0.00142852	0.000226316	0	0	0	
0.326667	-0.020145	-0.00245727	0.001414	0.000214491	0	0	0	
0.326833	0.0203139	0.0162454	0.00142078	0.000230369	0	0	0	
0.327	-0.0191469	-0.0114862	0.00142275	0.00023818	0	0	0	
0.327167	0.019627	0.000661714	0.00140889	0.000317749	0	0	0	
0.327333	-0.0211642	-0.00804486	0.00137873	0.000297203	0	0	0	
0.3275	0.0241174	0.012497	0.0013635	0.000245789	0	0	0	
0.327667	-0.0242198	-0.00162801	0.00138534	0.000191494	0	0	0	
