0	-0.0643124	-0.226468	6.43124E-06	2.26468E-05	0	5	0	
0.000166667	0.192681	-0.167197	0.00103957	0.00728123	0	5	0	
0.000333333	-0.214928	0.180334	0.00281572	0.0191058	0	5	0	
0.0005	0.180309	-0.678905	0.00432108	0.0309027	0	5	0	
0.000666667	-0.190267	0.384512	0.0050213	0.0350134	0	5	0	
0.000833333	0.164307	-0.658208	0.00461808	0.0333756	0	5	0	
0.001	-0.209603	0.104513	0.00474113	0.0310517	0	5	0	
0.00116667	0.319236	0.189907	0.00452187	0.0285241	0	5	0	
0.00133333	-0.372069	-1.29571	0.0056958	0.0314152	0	5	0	
0.0015	0.341171	0.721368	0.00568811	0.0357913	0	5	0	
0.00166667	-0.371511	-1.23532	0.00675731	0.0432591	0	5	0	
0.00183333	0.328269	0.598736	0.00577929	0.0446878	0	5	0	
0.002	-0.380287	-1.28692	0.006742	0.046522	0	5	0	
0.00216667	0.348713	0.704048	0.00582442	0.0447593	0	5	0	
0.00233333	-0.395624	-1.2785	0.00694611	0.0470458	0	5	0	
0.0025	0.355615	0.603114	0.00608973	0.0470644	0	5	0	
0.00266667	-0.388841	-1.19092	0.00711387	0.049337	0	5	0	
0.00283333	0.360512	0.608599	0.00614714	0.0477999	0	5	0	
0.003	-0.398457	-1.24262	0.00716366	0.0487973	0	5	0	
0.00316667	0.358999	0.62699	0.00622278	0.0473885	0	5	0	
0.00333333	-0.391901	-1.21966	0.00720947	0.0489344	0	5	0	
0.0035	0.355342	0.605228	0.00617822	0.0475075	0	5	0	
0.00366667	-0.382628	-1.21852	0.00708767	0.0486616	0	5	0	
0.00383333	0.358012	0.634805	0.00608944	0.0470092	0	5	0	
0.004	-0.386567	-1.25745	0.0070645	0.0483584	0	5	0	
0.00416667	0.356471	0.65082	0.00610215	0.0470003	0	5	0	
0.00433333	-0.385625	-1.24792	0.00708418	0.0485123	0	5	0	
0.0045	0.360014	0.668327	0.00609746	0.0470394	0	5	0	
0.00466667	-0.382855	-1.28917	0.0070853	0.0484208	0	5	0	
0.00483333	0.365722	0.708118	0.00611217	0.0468359	0	5	0	
0.005	-0.386402	-1.31677	0.00710724	0.0483583	0	5	0	
0.00516667	0.364127	0.71096	0.00614911	0.04692	0	5	0	
0.00533333	-0.381247	-1.31151	0.0071222	0.0485342	0	5	0	
0.0055	0.364089	0.732079	0.00611205	0.0469454	0	5	0	
0.00566667	-0.380547	-1.33554	0.00707871	0.0484612	0	5	0	
0.00583333	0.363821	0.749383	0.00607234	0.0468651	0	5	0	
0.006	-0.379766	-1.34759	0.00707977	0.0484689	0	5	0	
0.00616667	0.366513	0.762145	0.00607459	0.0468518	0	5	0	
0.00633333	-0.374862	-1.36939	0.00707715	0.0484656	0	5	0	
0.0065	0.365881	0.783888	0.00605191	0.0468501	0	5	0	
0.00666667	-0.381061	-1.37973	0.00706586	0.048591	0	5	0	
0.00683333	0.373168	0.798615	0.00609114	0.0469401	0	5	0	
0.007	-0.381153	-1.39259	0.00714271	0.0485293	0	5	0	
0.00716667	0.370229	0.820431	0.00613144	0.0467354	0	5	0	
0.00733333	-0.377	-1.40945	0.007133	0.0484213	0	5	0	
0.0075	0.373569	0.838532	0.00610376	0.0467708	0	5	0	
0.00766667	-0.376571	-1.42547	0.00711851	0.0485393	0	5	0	
0.00783333	0.37372	0.853091	0.00610895	0.0467933	0	5	0	
0.008	-0.37698	-1.43823	0.00712065	0.0485498	0	5	0	
0.00816667	0.375207	0.874467	0.00611594	0.0468316	0	5	0	
0.00833333	-0.373525	-1.44494	0.00711995	0.0486277	0	5	0	
0.0085	0.376621	0.895926	0.0061162	0.0468532	0	5	0	
0.00866667	-0.375478	-1.46741	0.00713326	0.0486172	0	5	0	
0.00883333	0.380626	0.908222	0.00613916	0.0468172	0	5	0	
0.009	-0.374976	-1.48142	0.0071533	0.0486367	0	5	0	
0.00916667	0.378662	0.930642	0.00615009	0.0467864	0	5	0	
0.00933333	-0.369265	-1.4982	0.00713145	0.0486137	0	5	0	
0.0095	0.378319	0.95274	0.0061142	0.0467933	0	5	0	
0.00966667	-0.369412	-1.50687	0.00710452	0.0486871	0	5	0	
0.00983333	0.377194	0.96325	0.00609676	0.0467468	0	5	0	
0.01	-0.368984	-1.53824	0.0070941	0.0485825	0	5	0	
0.0101667	0.381779	0.992243	0.00610562	0.0466816	0	5	0	
0.0103333	-0.367095	-1.54185	0.00710714	0.0486888	0	5	0	
0.0105	0.383396	1.00919	0.00612238	0.0468363	0	5	0	
0.0106667	-0.367981	-1.54045	0.00712049	0.0488356	0	5	0	
0.0108333	0.381589	0.991627	0.00614613	0.0468739	0	5	0	
0.011	-0.356099	-1.54777	0.00709777	0.0485874	0	5	0	
0.0111667	0.378659	1.0457	0.0060617	0.046307	0	5	0	
0.0113333	-0.366919	-1.59259	0.00703325	0.0481921	0	5	0	
0.0115	0.395678	1.07969	0.00613352	0.0464297	0	5	0	
0.0116667	-0.364704	-1.6057	0.00719251	0.0487832	0	5	0	
0.0118333	0.388379	1.07205	0.00622458	0.0470065	0	5	0	
0.012	-0.371331	-1.58469	0.00719255	0.0490775	0	5	0	
0.0121667	0.388431	1.07138	0.00621336	0.0468888	0	5	0	
0.0123333	-0.352642	-1.61168	0.00717159	0.0486691	0	5	0	
0.0125	0.385799	1.1313	0.00613416	0.0464846	0	5	0	
0.0126667	-0.354097	-1.65088	0.0070615	0.0486774	0	5	0	
0.0128333	0.381291	1.14087	0.00607208	0.0468361	0	5	0	
0.013	-0.358196	-1.63445	0.00707311	0.0490945	0	5	0	
0.0131667	0.391253	1.11161	0.0061259	0.0469333	0	5	0	
0.0133333	-0.352411	-1.62625	0.00716532	0.0488113	0	5	0	
0.0135	0.393999	1.16652	0.00616716	0.0464385	0	5	0	
0.0136667	-0.358999	-1.69451	0.0071766	0.0485186	0	5	0	
0.0138333	0.393637	1.21414	0.00619066	0.0464924	0	5	0	
0.014	-0.357143	-1.70581	0.00721851	0.0489449	0	5	0	
0.0141667	0.390977	1.20915	0.00620252	0.0470448	0	5	0	
0.0143333	-0.342145	-1.69568	0.00715172	0.0494374	0	5	0	
0.0145	0.390384	1.22076	0.00607855	0.0471832	0	5	0	
0.0146667	-0.34924	-1.71062	0.00707002	0.0491432	0	5	0	
0.0148333	0.39179	1.24535	0.00608982	0.0466128	0	5	0	
0.015	-0.346943	-1.73818	0.00714249	0.0486903	0	5	0	
0.0151667	0.389266	1.28003	0.00613262	0.0464838	0	5	0	
0.0153333	-0.34909	-1.74582	0.00712265	0.0489438	0	5	0	
0.0155	0.397523	1.26013	0.0061704	0.0467262	0	5	0	
0.0156667	-0.341496	-1.73378	0.00714958	0.0488933	0	5	0	
0.0158333	0.3911	1.30097	0.0061594	0.0464319	0	5	0	
0.016	-0.345399	-1.772	0.00712484	0.0487736	0	5	0	
0.0161667	0.394928	1.3117	0.0061716	0.0466303	0	5	0	
0.0163333	-0.334033	-1.76687	0.00714133	0.0490182	0	5	0	
0.0165	0.385953	1.33258	0.00612129	0.0465432	0	5	0	
0.0166667	-0.341209	-1.79508	0.00705922	0.0487967	0	5	0	
0.0168333	0.400065	1.36876	0.00613284	0.0465404	0	5	0	
0.017	-0.33321	-1.81562	0.00712448	0.0491103	0	5	0	
0.0171667	0.388152	1.36993	0.00615184	0.0467617	0	5	0	
0.0173333	-0.332167	-1.80672	0.00705715	0.0490822	0	5	0	
0.0175	0.391014	1.37548	0.0060785	0.046579	0	5	0	
0.0176667	-0.326177	-1.80221	0.00701997	0.0488999	0	5	0	
0.0178333	0.388439	1.40111	0.00605965	0.0464029	0	5	0	
0.018	-0.327241	-1.83859	0.00700744	0.0487898	0	5	0	
0.0181667	0.395515	1.43187	0.00611177	0.0464429	0	5	0	
0.0183333	-0.32445	-1.84974	0.00706226	0.0490226	0	5	0	
0.0185	0.381147	1.44176	0.00608439	0.0466291	0	5	0	
0.0186667	-0.313847	-1.84226	0.00693863	0.0490345	0	5	0	
0.0188333	0.397738	1.45414	0.00602213	0.0464784	0	5	0	
0.019	-0.338289	-1.86333	0.00707807	0.048933	0	5	0	
0.0191667	0.406533	1.47858	0.00629522	0.0465419	0	5	0	
0.0193333	-0.318379	-1.87164	0.00722163	0.0490472	0	5	0	
0.0195	0.385802	1.49771	0.0061969	0.0464799	0	5	0	
0.0196667	-0.314184	-1.90033	0.00701232	0.0489256	0	5	0	
0.0198333	0.395704	1.53385	0.00609123	0.04651	0	5	0	
0.02	-0.315492	-1.90482	0.00704544	0.0492761	0	5	0	
0.0201667	0.394178	1.52966	0.00616328	0.0469175	0	5	0	
0.0203333	-0.319368	-1.89903	0.00710667	0.04941	0	5	0	
0.0205	0.39514	1.54218	0.00619436	0.0466964	0	5	0	
0.0206667	-0.295324	-1.90992	0.00701894	0.0490599	0	5	0	
0.0208333	0.382123	1.56885	0.00599448	0.0464289	0	5	0	
0.021	-0.311365	-1.94659	0.00687907	0.0490183	0	5	0	
0.0211667	0.400213	1.60374	0.00608067	0.0465106	0	5	0	
0.0213333	-0.31368	-1.94697	0.00710524	0.0492488	0	5	0	
0.0215	0.400115	1.60205	0.00622799	0.0467575	0	5	0	
0.0216667	-0.307399	-1.94874	0.00711703	0.0493664	0	5	0	
0.0218333	0.395214	1.63346	0.00618503	0.0466848	0	5	0	
0.022	-0.308328	-1.97464	0.00708822	0.0493087	0	5	0	
0.0221667	0.394525	1.63777	0.00618275	0.0467352	0	5	0	
0.0223333	-0.303221	-1.96818	0.00707438	0.0493758	0	5	0	
0.0225	0.395122	1.66069	0.0061721	0.0466797	0	5	0	
0.0226667	-0.303323	-1.98079	0.00708382	0.0492995	0	5	0	
0.0228333	0.397544	1.67549	0.00621163	0.04662	0	5	0	
0.023	-0.303269	-1.99775	0.00711799	0.0492773	0	5	0	
0.0231667	0.395781	1.70168	0.00621239	0.0466224	0	5	0	
0.0233333	-0.296678	-2.00631	0.00708608	0.0493644	0	5	0	
0.0235	0.39454	1.71001	0.00618965	0.0467291	0	5	0	
0.0236667	-0.298836	-2.00134	0.0070833	0.0494302	0	5	0	
0.0238333	0.394104	1.72073	0.00622294	0.0467107	0	5	0	
0.024	-0.292127	-2.01973	0.00709188	0.0493628	0	5	0	
0.0241667	0.389911	1.74765	0.0061788	0.0466302	0	5	0	
0.0243333	-0.288314	-2.02915	0.00702318	0.049371	0	5	0	
0.0245	0.392881	1.75881	0.00616103	0.0466918	0	5	0	
0.0246667	-0.289773	-2.03705	0.00705835	0.0494803	0	5	0	
0.0248333	0.391848	1.78058	0.00621438	0.0468275	0	5	0	
0.025	-0.287395	-2.04254	0.00706741	0.0496389	0	5	0	
0.0251667	0.391709	1.79245	0.00618367	0.0469009	0	5	0	
0.0253333	-0.283136	-2.06315	0.00702572	0.0495928	0	5	0	
0.0255	0.388291	1.82699	0.00617889	0.0467814	0	5	0	
0.0256667	-0.28152	-2.06705	0.00703417	0.0495906	0	5	0	
0.0258333	0.389644	1.82138	0.00620626	0.0468633	0	5	0	
0.026	-0.279366	-2.07435	0.00705131	0.0496221	0	5	0	
0.0261667	0.395199	1.87995	0.00624136	0.046799	0	5	0	
0.0263333	-0.279067	-2.10968	0.00708483	0.0497199	0	5	0	
0.0265	0.38472	1.85355	0.006225	0.0470358	0	5	0	
0.0266667	-0.272157	-2.06831	0.00700897	0.0498205	0	5	0	
0.0268333	0.386602	1.87175	0.00615305	0.0468058	0	5	0	
0.027	-0.275479	-2.10206	0.00698164	0.0495483	0	5	0	
0.0271667	0.388448	1.89923	0.00620513	0.0468156	0	5	0	
0.0273333	-0.274408	-2.095	0.00703296	0.0496689	0	5	0	
0.0275	0.395898	1.92403	0.00626321	0.0467586	0	5	0	
0.0276667	-0.267687	-2.14208	0.00707502	0.0496187	0	5	0	
0.0278333	0.379657	1.93677	0.0062432	0.0470239	0	5	0	
0.028	-0.272603	-2.0835	0.00704968	0.0500444	0	5	0	
0.0281667	0.391011	1.91638	0.00629015	0.0469625	0	5	0	
0.0283333	-0.268127	-2.14436	0.00712871	0.0494329	0	5	0	
0.0285	0.389668	2.0036	0.00635802	0.0465443	0	5	0	
0.0286667	-0.265261	-2.13576	0.00712458	0.0497415	0	5	0	
0.0288333	0.386111	1.95959	0.00632103	0.0471159	0	5	0	
0.029	-0.25503	-2.13728	0.00705249	0.0498918	0	5	0	
0.0291667	0.3742	2.0046	0.00620201	0.0468221	0	5	0	
0.0293333	-0.25717	-2.15512	0.00698981	0.0497048	0	5	0	
0.0295	0.38801	2.01245	0.00626051	0.0469435	0	5	0	
0.0296667	-0.266257	-2.12544	0.00709027	0.0497875	0	5	0	
0.0298333	0.396275	2.04417	0.00639614	0.0472009	0	5	0	
0.03	-0.256886	-2.15976	0.00718561	0.0503287	0	5	0	
0.0301667	0.376053	2.03005	0.00639495	0.0476041	0	5	0	
0.0303333	-0.245057	-2.17521	0.00704405	0.050206	0	5	0	
0.0305	0.374314	2.05387	0.00621143	0.0471626	0	5	0	
0.0306667	-0.252185	-2.15508	0.0070027	0.0500112	0	5	0	
0.0308333	0.386288	2.12287	0.0063743	0.0473011	0	5	0	
0.031	-0.240326	-2.21777	0.00716673	0.0502583	0	5	0	
0.0311667	0.372345	2.1208	0.00639484	0.0473124	0	5	0	
0.0313333	-0.251573	-2.21505	0.00708347	0.0501082	0	5	0	
0.0315	0.379577	2.1198	0.00634245	0.047147	0	5	0	
0.0316667	-0.232954	-2.22279	0.00705255	0.0501912	0	5	0	
0.0318333	0.364791	2.14538	0.00626302	0.0473312	0	5	0	
0.032	-0.239063	-2.16553	0.00694708	0.0502599	0	5	0	
0.0321667	0.369682	2.06705	0.00624224	0.0471383	0	5	0	
0.0323333	-0.228822	-2.19695	0.00696309	0.0495669	0	5	0	
0.0325	0.369546	2.1865	0.00626942	0.0464264	0	5	0	
0.0326667	-0.238636	-2.18485	0.00701324	0.0495605	0	5	0	
0.0328333	0.368543	2.10083	0.00631824	0.0468934	0	5	0	
0.033	-0.224257	-2.20477	0.00698236	0.0496097	0	5	0	
0.0331667	0.367073	2.21169	0.00625865	0.0464169	0	5	0	
0.0333333	-0.231988	-2.22558	0.00699396	0.0494891	0	5	0	
0.0335	0.371838	2.16036	0.00635465	0.0469155	0	5	0	
0.0336667	-0.228085	-2.18799	0.0070532	0.0498086	0	5	0	
0.0338333	0.366224	2.20967	0.00633887	0.0466446	0	5	0	
0.034	-0.220043	-2.23816	0.0070194	0.0494978	0	5	0	
0.0341667	0.361779	2.20723	0.00631745	0.0467363	0	5	0	
0.0343333	-0.221013	-2.21351	0.0070007	0.0497269	0	5	0	
0.0345	0.367125	2.23326	0.00634479	0.0467676	0	5	0	
0.0346667	-0.223497	-2.23321	0.00709205	0.0496555	0	5	0	
0.0348333	0.365046	2.24349	0.00646207	0.0468218	0	5	0	
0.035	-0.216834	-2.22701	0.00713433	0.0497496	0	5	0	
0.0351667	0.359728	2.25059	0.00642048	0.0467801	0	5	0	
0.0353333	-0.21647	-2.25238	0.00704666	0.0496414	0	5	0	
0.0355	0.361012	2.29644	0.0063807	0.0468519	0	5	0	
0.0356667	-0.211363	-2.26359	0.00706383	0.0499727	0	5	0	
0.0358333	0.358638	2.29458	0.00642118	0.0472237	0	5	0	
0.036	-0.206008	-2.24944	0.00704522	0.0500786	0	5	0	
0.0361667	0.346282	2.29296	0.00632591	0.0470044	0	5	0	
0.0363333	-0.202038	-2.27177	0.00690569	0.0497805	0	5	0	
0.0365	0.352476	2.32909	0.00627099	0.0469348	0	5	0	
0.0366667	-0.202623	-2.26389	0.00697303	0.0499262	0	5	0	
0.0368333	0.347016	2.33344	0.00642039	0.0470453	0	5	0	
0.037	-0.200581	-2.28113	0.00706975	0.0498798	0	5	0	
0.0371667	0.357673	2.35117	0.00644343	0.0470472	0	5	0	
0.0373333	-0.212032	-2.27371	0.00710434	0.050022	0	5	0	
0.0375	0.359671	2.34452	0.00655078	0.0471492	0	5	0	
0.0376667	-0.214675	-2.26107	0.00721025	0.0499033	0	5	0	
0.0378333	0.346832	2.34546	0.0065415	0.0469159	0	5	0	
0.038	-0.184574	-2.26193	0.00695579	0.0496282	0	5	0	
0.0381667	0.32738	2.38312	0.00620851	0.0467715	0	5	0	
0.0383333	-0.183565	-2.29234	0.00678872	0.049705	0	5	0	
0.0385	0.337107	2.40663	0.00634318	0.0470848	0	5	0	
0.0386667	-0.196801	-2.29935	0.00707053	0.0501007	0	5	0	
0.0388333	0.349739	2.40941	0.00659168	0.0473508	0	5	0	
0.039	-0.19723	-2.27702	0.00717266	0.0501301	0	5	0	
0.0391667	0.331469	2.40363	0.00651453	0.0471867	0	5	0	
0.0393333	-0.178092	-2.29965	0.00692031	0.0499051	0	5	0	
0.0395	0.331857	2.4409	0.00630166	0.0471539	0	5	0	
0.0396667	-0.182351	-2.27589	0.00690752	0.0500093	0	5	0	
0.0398333	0.33516	2.41451	0.00643032	0.0470825	0	5	0	
0.04	-0.183094	-2.29299	0.00699046	0.0497121	0	5	0	
0.0401667	0.329674	2.44733	0.00641677	0.0468604	0	5	0	
0.0403333	-0.175857	-2.2946	0.00692942	0.0498005	0	5	0	
0.0405	0.320789	2.46619	0.00636896	0.0470694	0	5	0	
0.0406667	-0.172741	-2.31543	0.00688626	0.0499633	0	5	0	
0.0408333	0.327337	2.46904	0.00635306	0.0472467	0	5	0	
0.041	-0.175774	-2.28863	0.00688777	0.050087	0	5	0	
0.0411667	0.320654	2.46975	0.00638624	0.0471843	0	5	0	
0.0413333	-0.168192	-2.30074	0.00692419	0.0498616	0	5	0	
0.0415	0.316496	2.48424	0.00641065	0.0470553	0	5	0	
0.0416667	-0.169362	-2.29921	0.00690175	0.0499077	0	5	0	
0.0418333	0.320589	2.49477	0.00639327	0.0471267	0	5	0	
0.042	-0.167825	-2.30126	0.00692259	0.0498918	0	5	0	
0.0421667	0.314665	2.51141	0.00644303	0.047089	0	5	0	
0.0423333	-0.163999	-2.31529	0.00693325	0.0499347	0	5	0	
0.0425	0.312823	2.52495	0.00643511	0.0472633	0	5	0	
0.0426667	-0.161942	-2.30917	0.0069187	0.0500919	0	5	0	
0.0428333	0.308563	2.5262	0.00642905	0.0473175	0	5	0	
0.043	-0.155943	-2.30674	0.00688328	0.0500227	0	5	0	
0.0431667	0.310554	2.53923	0.00638621	0.04727	0	5	0	
0.0433333	-0.155828	-2.30558	0.00688066	0.0500263	0	5	0	
0.0435	0.300771	2.5426	0.00642578	0.0472825	0	5	0	
0.0436667	-0.149272	-2.30986	0.00688466	0.0499793	0	5	0	
0.0438333	0.300037	2.56136	0.00639024	0.0472737	0	5	0	
0.044	-0.153855	-2.31453	0.00684702	0.0500379	0	5	0	
0.0441667	0.308597	2.56118	0.00642279	0.0473636	0	5	0	
0.0443333	-0.149488	-2.30193	0.00690477	0.0500174	0	5	0	
0.0445	0.293484	2.57974	0.0064247	0.0472945	0	5	0	
0.0446667	-0.14692	-2.31147	0.00684414	0.0500106	0	5	0	
0.0448333	0.296605	2.57229	0.00639818	0.0473776	0	5	0	
0.045	-0.14503	-2.29608	0.00685763	0.0499942	0	5	0	
0.0451667	0.294641	2.58554	0.0064329	0.04723	0	5	0	
0.0453333	-0.145792	-2.31122	0.00685477	0.049878	0	5	0	
0.0455	0.291648	2.60037	0.00642269	0.047352	0	5	0	
0.0456667	-0.138696	-2.3026	0.0068271	0.0500548	0	5	0	
0.0458333	0.284946	2.60869	0.00639598	0.0473913	0	5	0	
0.046	-0.139646	-2.29689	0.00682845	0.0499298	0	5	0	
0.0461667	0.293461	2.60199	0.00646371	0.0472762	0	5	0	
0.0463333	-0.143303	-2.30969	0.00690475	0.049907	0	5	0	
0.0465	0.285731	2.63373	0.00650117	0.0473769	0	5	0	
0.0466667	-0.133221	-2.30078	0.00687729	0.0500351	0	5	0	
0.0468333	0.284341	2.61616	0.00647417	0.0474579	0	5	0	
0.047	-0.135258	-2.28362	0.00688554	0.0499091	0	5	0	
0.0471667	0.278582	2.62043	0.00651956	0.0472297	0	5	0	
0.0473333	-0.132343	-2.30177	0.00692733	0.0497664	0	5	0	
0.0475	0.282925	2.64884	0.00654891	0.0473261	0	5	0	
0.0476667	-0.127796	-2.30789	0.00686912	0.0500111	0	5	0	
0.0478333	0.270365	2.65004	0.00641498	0.0475786	0	5	0	
0.048	-0.123005	-2.2783	0.00678877	0.0500293	0	5	0	
0.0481667	0.275325	2.62948	0.00649322	0.0473357	0	5	0	
0.0483333	-0.128896	-2.29183	0.00692448	0.0496944	0	5	0	
0.0485	0.275709	2.6731	0.00656403	0.0472214	0	5	0	
0.0486667	-0.126957	-2.31832	0.0069151	0.0499637	0	5	0	
0.0488333	0.26682	2.67279	0.00653389	0.0476331	0	5	0	
0.049	-0.112964	-2.28029	0.00683589	0.050118	0	5	0	
0.0491667	0.258242	2.63416	0.00645198	0.0474052	0	5	0	
0.0493333	-0.116524	-2.26428	0.00681661	0.0496127	0	5	0	
0.0495	0.260307	2.67136	0.00652917	0.0470669	0	5	0	
0.0496667	-0.116903	-2.2923	0.00689622	0.0496289	0	5	0	
0.0498333	0.261558	2.66783	0.00653729	0.0473236	0	5	0	
0.05	-0.11313	-2.28721	0.00679909	0.0497873	0	5	0	
0.0501667	0.249131	2.67699	0.00640562	0.0473596	0	5	0	
0.0503333	-0.108288	-2.28163	0.0066723	0.0497783	0	5	0	
0.0505	0.253076	2.68854	0.00636172	0.0474626	0	5	0	
0.0506667	-0.112267	-2.28294	0.00672329	0.0498521	0	5	0	
0.0508333	0.255285	2.68407	0.00648665	0.0474831	0	5	0	
0.051	-0.110879	-2.26612	0.00683757	0.0497464	0	5	0	
0.0511667	0.252214	2.68567	0.00653214	0.0473321	0	5	0	
0.0513333	-0.111159	-2.27236	0.00681601	0.0496274	0	5	0	
0.0515	0.250927	2.70682	0.00648997	0.0473799	0	5	0	
0.0516667	-0.104071	-2.2818	0.00676969	0.0497875	0	5	0	
0.0518333	0.243336	2.7278	0.00647933	0.0475989	0	5	0	
0.052	-0.107729	-2.28377	0.00679212	0.0499938	0	5	0	
0.0521667	0.243819	2.71402	0.00650326	0.0477671	0	5	0	
0.0523333	-0.09683	-2.26661	0.0067545	0.0499991	0	5	0	
0.0525	0.241424	2.72093	0.00645905	0.0476665	0	5	0	
0.0526667	-0.10615	-2.25597	0.00677957	0.0498108	0	5	0	
0.0528333	0.23705	2.71961	0.00652656	0.0475473	0	5	0	
0.053	-0.0962407	-2.27508	0.00678701	0.0497986	0	5	0	
0.0531667	0.237453	2.74448	0.00652254	0.0477048	0	5	0	
0.0533333	-0.0990911	-2.26397	0.00682029	0.0500114	0	5	0	
0.0535	0.231796	2.73427	0.00655809	0.047794	0	5	0	
0.0536667	-0.0955834	-2.26831	0.00679655	0.0499439	0	5	0	
0.0538333	0.231234	2.75	0.00655399	0.0477728	0	5	0	
0.054	-0.0950525	-2.26525	0.00685203	0.0500069	0	5	0	
0.0541667	0.226524	2.75048	0.00660499	0.0478827	0	5	0	
0.0543333	-0.0890412	-2.25958	0.00681506	0.0500286	0	5	0	
0.0545	0.223523	2.74701	0.00653177	0.0478592	0	5	0	
0.0546667	-0.0889541	-2.25356	0.00677026	0.0499486	0	5	0	
0.0548333	0.217807	2.74852	0.00654692	0.0478073	0	5	0	
0.055	-0.0822808	-2.24563	0.00679287	0.0498795	0	5	0	
0.0551667	0.211717	2.74354	0.0065525	0.0477443	0	5	0	
0.0553333	-0.0837581	-2.25224	0.00676508	0.0497988	0	5	0	
0.0555	0.213872	2.75701	0.00653323	0.0477896	0	5	0	
0.0556667	-0.0790255	-2.24175	0.00675063	0.0498837	0	5	0	
0.0558333	0.209661	2.75151	0.0065411	0.0478288	0	5	0	
0.056	-0.0852258	-2.24423	0.00681337	0.049811	0	5	0	
0.0561667	0.217691	2.75872	0.00666835	0.0478324	0	5	0	
0.0563333	-0.0852209	-2.23178	0.00685072	0.049833	0	5	0	
0.0565	0.193105	2.74375	0.00645845	0.0477817	0	5	0	
0.0566667	-0.0547761	-2.23018	0.00644862	0.0496706	0	5	0	
0.0568333	0.179392	2.7694	0.00619864	0.0477443	0	5	0	
0.057	-0.0590778	-2.25191	0.0065189	0.0498554	0	5	0	
0.0571667	0.184412	2.76856	0.00652325	0.0480632	0	5	0	
0.0573333	-0.0776573	-2.22695	0.00685648	0.0499844	0	5	0	
0.0575	0.206728	2.75673	0.00673588	0.0479683	0	5	0	
0.0576667	-0.084799	-2.21995	0.00686019	0.0497519	0	5	0	
0.0578333	0.192267	2.75248	0.00654786	0.0478085	0	5	0	
0.058	-0.071078	-2.22234	0.00659017	0.049666	0	5	0	
0.0581667	0.185279	2.76914	0.00634906	0.0478637	0	5	0	
0.0583333	-0.0689471	-2.21961	0.00651593	0.049784	0	5	0	
0.0585	0.186819	2.75826	0.00639328	0.047968	0	5	0	
0.0586667	-0.065998	-2.20958	0.00659642	0.0496849	0	5	0	
0.0588333	0.169921	2.77026	0.00644022	0.0478764	0	5	0	
0.059	-0.0552041	-2.21878	0.00660881	0.0497393	0	5	0	
0.0591667	0.178752	2.76721	0.00652404	0.0480878	0	5	0	
0.0593333	-0.0680815	-2.20029	0.00676883	0.0498171	0	5	0	
0.0595	0.176872	2.76214	0.00665236	0.048006	0	5	0	
0.0596667	-0.0625952	-2.20225	0.00679423	0.04966	0	5	0	
0.0598333	0.176242	2.77435	0.00664598	0.0480189	0	5	0	
0.06	-0.0669955	-2.20586	0.00677584	0.0497837	0	5	0	
0.0601667	0.173859	2.77193	0.00658391	0.0481894	0	5	0	
0.0603333	-0.0597181	-2.19246	0.00666437	0.049806	0	5	0	
0.0605	0.164274	2.75892	0.00650415	0.0480917	0	5	0	
0.0606667	-0.0548511	-2.18077	0.00665936	0.0496145	0	5	0	
0.0608333	0.165068	2.76994	0.00657174	0.0480043	0	5	0	
0.061	-0.0614235	-2.19581	0.00676091	0.0496819	0	5	0	
0.0611667	0.164564	2.77827	0.00668064	0.0482529	0	5	0	
0.0613333	-0.0572357	-2.17467	0.006812	0.0498432	0	5	0	
0.0615	0.156197	2.75417	0.00665706	0.0481582	0	5	0	
0.0616667	-0.0569285	-2.17456	0.00674185	0.04959	0	5	0	
0.0618333	0.157748	2.77212	0.00662352	0.0480693	0	5	0	
0.062	-0.0529515	-2.16459	0.00675226	0.0496869	0	5	0	
0.0621667	0.149849	2.7555	0.0066391	0.0481393	0	5	0	
0.0623333	-0.051852	-2.17093	0.00672102	0.0495998	0	5	0	
0.0625	0.146408	2.75946	0.00658551	0.0481115	0	5	0	
0.0626667	-0.0531086	-2.15725	0.00667691	0.0496019	0	5	0	
0.0628333	0.146094	2.75664	0.00659442	0.0481447	0	5	0	
0.063	-0.0505685	-2.17047	0.00671913	0.0496511	0	5	0	
0.0631667	0.140984	2.77433	0.00664456	0.0483602	0	5	0	
0.0633333	-0.04877	-2.16029	0.00673464	0.0498255	0	5	0	
0.0635	0.134176	2.73741	0.0066377	0.0483484	0	5	0	
0.0636667	-0.0448207	-2.13719	0.00673373	0.049522	0	5	0	
0.0638333	0.136998	2.74225	0.00669072	0.0480696	0	5	0	
0.064	-0.0504071	-2.1382	0.00680075	0.049405	0	5	0	
0.0641667	0.131404	2.74904	0.0066921	0.0481821	0	5	0	
0.0643333	-0.040515	-2.14203	0.00671689	0.0495536	0	5	0	
0.0645	0.127702	2.75056	0.00662189	0.0482964	0	5	0	
0.0646667	-0.0428313	-2.12962	0.00671721	0.04953	0	5	0	
0.0648333	0.125581	2.73152	0.00664687	0.0482462	0	5	0	
0.065	-0.0397406	-2.11068	0.00669085	0.049394	0	5	0	
0.0651667	0.110779	2.72875	0.00658896	0.04814	0	5	0	
0.0653333	-0.0370982	-2.12643	0.00664506	0.0493355	0	5	0	
0.0655	0.115897	2.72225	0.00659691	0.0481959	0	5	0	
0.0656667	-0.0354751	-2.08467	0.00665088	0.0493146	0	5	0	
0.0658333	0.104532	2.71435	0.00659163	0.0480612	0	5	0	
0.066	-0.0375038	-2.13066	0.00669023	0.0492762	0	5	0	
0.0661667	0.11921	2.76643	0.00668791	0.0484495	0	5	0	
0.0663333	-0.0429086	-2.12682	0.00670843	0.0497827	0	5	0	
0.0665	0.109062	2.70962	0.00657731	0.0486547	0	5	0	
0.0666667	-0.0420917	-2.07004	0.00662611	0.0493634	0	5	0	
0.0668333	0.102918	2.67812	0.00663059	0.0479812	0	5	0	
0.067	-0.0309196	-2.05668	0.00665725	0.048799	0	5	0	
0.0671667	0.0988642	2.70064	0.00655978	0.0478547	0	5	0	
0.0673333	-0.0322951	-2.11619	0.0066273	0.0492024	0	5	0	
0.0675	0.0970918	2.74799	0.00668083	0.048603	0	5	0	
0.0676667	-0.0262951	-2.11723	0.00678577	0.0497808	0	5	0	
0.0678333	0.0901469	2.68986	0.00671066	0.0487289	0	5	0	
0.068	-0.0331489	-2.0332	0.00667554	0.0492653	0	5	0	
0.0681667	0.0907908	2.65642	0.00658391	0.0480123	0	5	0	
0.0683333	-0.0307374	-2.07113	0.00662238	0.0488277	0	5	0	
0.0685	0.0868139	2.70719	0.00663139	0.0482258	0	5	0	
0.0686667	-0.0253668	-2.10951	0.00667336	0.0495056	0	5	0	
0.0688333	0.0844602	2.71478	0.00660669	0.0489493	0	5	0	
0.069	-0.0306477	-2.08299	0.0066069	0.049843	0	5	0	
0.0691667	0.0809728	2.66947	0.00659653	0.0488701	0	5	0	
0.0693333	-0.0272332	-2.0362	0.00667591	0.0493191	0	5	0	
0.0695	0.0803178	2.65532	0.00669254	0.0483125	0	5	0	
0.0696667	-0.0252196	-2.04855	0.00672638	0.0490575	0	5	0	
0.0698333	0.0732611	2.67472	0.00668291	0.0484406	0	5	0	
0.07	-0.0247971	-2.05629	0.00669186	0.0493073	0	5	0	
0.0701667	0.0756926	2.64903	0.00667034	0.0485815	0	5	0	
0.0703333	-0.019197	-2.02194	0.00666958	0.0491532	0	5	0	
0.0705	0.0518563	2.63738	0.00660032	0.0483369	0	5	0	
0.0706667	-0.0125646	-2.01802	0.00662927	0.0489632	0	5	0	
0.0708333	0.065413	2.63183	0.00671624	0.0483421	0	5	0	
0.071	-0.0300483	-2.0295	0.00684045	0.0491209	0	5	0	
0.0711667	0.0714929	2.65599	0.0068565	0.0486701	0	5	0	
0.0713333	-0.0240865	-2.04338	0.00680813	0.049498	0	5	0	
0.0715	0.0467022	2.62753	0.00666897	0.0489085	0	5	0	
0.0716667	-0.0033853	-1.99826	0.0065723	0.049295	0	5	0	
0.0718333	0.0447057	2.58998	0.00660861	0.0484403	0	5	0	
0.072	-0.0276186	-1.99483	0.00683128	0.0488285	0	5	0	
0.0721667	0.0648237	2.60838	0.00702726	0.0483523	0	5	0	
0.0723333	-0.0289749	-2.00075	0.00704769	0.0490072	0	5	0	
0.0725	0.0493358	2.59664	0.0068643	0.048564	0	5	0	
0.0726667	-0.00736993	-1.9907	0.00662774	0.0489977	0	5	0	
0.0728333	0.0254755	2.58065	0.00645918	0.048478	0	5	0	
0.073	0.00269013	-1.97776	0.00649306	0.0488914	0	5	0	
0.0731667	0.0292219	2.57215	0.00669695	0.0484751	0	5	0	
0.0733333	-0.0149357	-1.99134	0.00691851	0.0490127	0	5	0	
0.0735	0.0353175	2.58766	0.00695621	0.048754	0	5	0	
0.0736667	-0.0111225	-1.98491	0.00683543	0.0492282	0	5	0	
0.0738333	0.0285794	2.55766	0.00670852	0.0487901	0	5	0	
0.074	-0.00850506	-1.95662	0.00666289	0.0490044	0	5	0	
0.0741667	0.0267279	2.54137	0.00665245	0.048543	0	5	0	
0.0743333	-0.0133758	-1.96244	0.00664757	0.04885	0	5	0	
0.0745	0.0244131	2.53998	0.00664694	0.0486052	0	5	0	
0.0746667	-0.00713516	-1.96019	0.00664872	0.0489825	0	5	0	
0.0748333	0.0177747	2.53316	0.00664547	0.0487302	0	5	0	
0.075	-0.0054818	-1.94067	0.00664531	0.0489824	0	5	0	
0.0751667	0.0160243	2.51598	0.00665059	0.0486935	0	5	0	
0.0753333	-0.00231732	-1.93619	0.00665471	0.0488987	0	5	0	
0.0755	0.0061047	2.50646	0.00666642	0.048673	0	5	0	
0.0756667	0.00188612	-1.92914	0.00669293	0.0489	0	5	0	
0.0758333	0.00614248	2.49944	0.00670747	0.0486813	0	5	0	
0.076	0.000165861	-1.92188	0.00670215	0.0488373	0	5	0	
0.0761667	0.00356826	2.48423	0.00668461	0.0486451	0	5	0	
0.0763333	0.00263544	-1.90331	0.00665688	0.0488018	0	5	0	
0.0765	-0.001974	2.46734	0.00661636	0.0486442	0	5	0	
0.0766667	0.0053538	-1.8978	0.00659404	0.048758	0	5	0	
0.0768333	-0.00560293	2.45948	0.0066015	0.0485799	0	5	0	
0.077	0.00103598	-1.90608	0.00662715	0.0486964	0	5	0	
0.0771667	-0.00655806	2.45797	0.00664247	0.0486846	0	5	0	
0.0773333	0.00338222	-1.89068	0.00664643	0.0488427	0	5	0	
0.0775	-0.0108231	2.43276	0.00665188	0.0487565	0	5	0	
0.0776667	0.00710683	-1.87588	0.00665428	0.0486545	0	5	0	
0.0778333	-0.0181769	2.41741	0.00666535	0.0485275	0	5	0	
0.078	0.00616765	-1.87797	0.00668169	0.04856	0	5	0	
0.0781667	-0.0195886	2.42123	0.00669027	0.0486786	0	5	0	
0.0783333	0.00901372	-1.88364	0.00668229	0.048783	0	5	0	
0.0785	-0.0222437	2.4079	0.00668325	0.0488586	0	5	0	
0.0786667	0.0107958	-1.86111	0.00667523	0.048734	0	5	0	
0.0788333	-0.0283051	2.37557	0.00665725	0.0486807	0	5	0	
0.079	0.011212	-1.84993	0.00664362	0.0485043	0	5	0	
0.0791667	-0.0278489	2.37182	0.00666909	0.0486013	0	5	0	
0.0793333	0.0109672	-1.86105	0.00668091	0.0486011	0	5	0	
0.0795	-0.0392286	2.37764	0.00665751	0.0488435	0	5	0	
0.0796667	0.0175095	-1.84873	0.00662975	0.048747	0	5	0	
0.0798333	-0.0374527	2.3389	0.00667189	0.0488192	0	5	0	
0.08	0.0127359	-1.82308	0.00670988	0.0485426	0	5	0	
0.0801667	-0.0410843	2.33588	0.00670353	0.0486818	0	5	0	
0.0803333	0.015745	-1.83759	0.00664629	0.0485839	0	5	0	
0.0805	-0.0467937	2.33329	0.00662106	0.048879	0	5	0	
0.0806667	0.0201801	-1.8296	0.00659313	0.0487127	0	5	0	
0.0808333	-0.0560714	2.30597	0.00662873	0.0488917	0	5	0	
0.081	0.017139	-1.79717	0.00670035	0.0485753	0	5	0	
0.0811667	-0.0449842	2.30049	0.00678962	0.0487982	0	5	0	
0.0813333	0.0161343	-1.8184	0.00674515	0.048596	0	5	0	
0.0815	-0.0586907	2.28727	0.00666067	0.0489331	0	5	0	
0.0816667	0.0188688	-1.79127	0.00657008	0.0486463	0	5	0	
0.0818333	-0.0686799	2.25887	0.00656454	0.0488772	0	5	0	
0.082	0.0343873	-1.77978	0.00656082	0.0485258	0	5	0	
0.0821667	-0.0676949	2.25718	0.00667138	0.0488492	0	5	0	
0.0823333	0.0187747	-1.79328	0.00676679	0.048591	0	5	0	
0.0825	-0.0655729	2.25352	0.00680997	0.0490654	0	5	0	
0.0826667	0.023554	-1.75834	0.00670555	0.0486922	0	5	0	
0.0828333	-0.0724318	2.2033	0.006662	0.0489019	0	5	0	
0.083	0.0228941	-1.79137	0.00662192	0.0486462	0	5	0	
0.0831667	-0.0778138	2.26927	0.00666499	0.0495013	0	5	0	
0.0833333	0.0296304	-1.79278	0.00666	0.0493683	0	5	0	
0.0835	-0.077014	2.15561	0.00672833	0.0493244	0	5	0	
0.0836667	0.0254344	-1.68426	0.00669507	0.0481158	0	5	0	
0.0838333	-0.0849091	2.17474	0.0066733	0.0483334	0	5	0	
0.084	0.0294954	-1.75827	0.00658646	0.0483234	0	5	0	
0.0841667	-0.0906309	2.13631	0.00663601	0.0491418	0	5	0	
0.0843333	0.0333596	-1.71949	0.00664811	0.0486691	0	5	0	
0.0845	-0.0920057	2.17246	0.00673486	0.0490539	0	5	0	
0.0846667	0.0301914	-1.7424	0.00670356	0.0486076	0	5	0	
0.0848333	-0.0923179	2.11728	0.00674515	0.0490984	0	5	0	
0.085	0.0301292	-1.68737	0.00667754	0.0483938	0	5	0	
0.0851667	-0.101858	2.10856	0.00666918	0.0488871	0	5	0	
0.0853333	0.0467955	-1.72615	0.00657787	0.0486412	0	5	0	
0.0855	-0.124394	2.09111	0.00670054	0.049705	0	5	0	
0.0856667	0.040879	-1.68616	0.00675816	0.0493982	0	5	0	
0.0858333	-0.109474	2.08162	0.00686504	0.0498503	0	5	0	
0.086	0.0422864	-1.69939	0.00676986	0.0490134	0	5	0	
0.0861667	-0.105107	2.0867	0.00680393	0.0495072	0	5	0	
0.0863333	0.0347103	-1.67789	0.00670256	0.0488428	0	5	0	
0.0865	-0.12543	1.95745	0.00667391	0.0490902	0	5	0	
0.0866667	0.0470998	-1.57002	0.00651641	0.0479208	0	5	0	
0.0868333	-0.116963	1.9902	0.00658191	0.0482944	0	5	0	
0.087	0.045196	-1.66106	0.00655316	0.0479429	0	5	0	
0.0871667	-0.127869	1.99546	0.0066479	0.0489781	0	5	0	
0.0873333	0.0515187	-1.62778	0.00658824	0.0485179	0	5	0	
0.0875	-0.134815	1.97069	0.00671494	0.0491299	0	5	0	
0.0876667	0.0528403	-1.649	0.00669606	0.0486544	0	5	0	
0.0878333	-0.130498	1.98476	0.00680058	0.0495122	0	5	0	
0.088	0.0511322	-1.62518	0.00671324	0.0488247	0	5	0	
0.0881667	-0.135524	1.93071	0.00677815	0.0492884	0	5	0	
0.0883333	0.0525758	-1.60623	0.00667187	0.0484301	0	5	0	
0.0885	-0.143208	1.91985	0.0067486	0.0490963	0	5	0	
0.0886667	0.0578467	-1.60003	0.00666312	0.0484194	0	5	0	
0.0888333	-0.146244	1.90549	0.00677858	0.0491619	0	5	0	
0.089	0.0574663	-1.59739	0.00669437	0.0484847	0	5	0	
0.0891667	-0.143896	1.88302	0.00678351	0.0492517	0	5	0	
0.0893333	0.0577018	-1.57294	0.00666755	0.0484948	0	5	0	
0.0895	-0.155199	1.85922	0.0067508	0.0492093	0	5	0	
0.0896667	0.0678927	-1.57589	0.00664348	0.0484861	0	5	0	
0.0898333	-0.156381	1.86047	0.00673399	0.049274	0	5	0	
0.09	0.0616001	-1.56605	0.00660537	0.0485141	0	5	0	
0.0901667	-0.161768	1.80665	0.00669573	0.0491894	0	5	0	
0.0903333	0.0666952	-1.53565	0.00658534	0.0483613	0	5	0	
0.0905	-0.162056	1.79774	0.00673398	0.0491267	0	5	0	
0.0906667	0.0653631	-1.54123	0.00663204	0.0483733	0	5	0	
0.0908333	-0.165541	1.78547	0.00671778	0.0491193	0	5	0	
0.091	0.0699696	-1.51854	0.00653665	0.0482463	0	5	0	
0.0911667	-0.173987	1.74336	0.00667765	0.0489533	0	5	0	
0.0913333	0.0651859	-1.50852	0.00661348	0.0481706	0	5	0	
0.0915	-0.170894	1.73268	0.00679869	0.0490354	0	5	0	
0.0916667	0.0740984	-1.49679	0.00661765	0.0482681	0	5	0	
0.0918333	-0.184464	1.71311	0.00670224	0.049006	0	5	0	
0.092	0.0775264	-1.48412	0.00658568	0.0480831	0	5	0	
0.0921667	-0.176958	1.68988	0.00685274	0.0488834	0	5	0	
0.0923333	0.059903	-1.48353	0.00674585	0.0481638	0	5	0	
0.0925	-0.171615	1.67194	0.00676375	0.0491418	0	5	0	
0.0926667	0.0655715	-1.46217	0.00635353	0.0483416	0	5	0	
0.0928333	-0.182708	1.65056	0.00633504	0.0490694	0	5	0	
0.093	0.0847677	-1.44452	0.00616602	0.0480249	0	5	0	
0.0931667	-0.202672	1.61159	0.00647901	0.0487813	0	5	0	
0.0933333	0.0816615	-1.43805	0.00652898	0.0480195	0	5	0	
0.0935	-0.182854	1.60757	0.00685864	0.0490698	0	5	0	
0.0936667	0.0622469	-1.43743	0.00669883	0.0482688	0	5	0	
0.0938333	-0.183059	1.59384	0.00677369	0.0490772	0	5	0	
0.094	0.0786275	-1.42271	0.00648458	0.0480229	0	5	0	
0.0941667	-0.203566	1.54783	0.006652	0.0487846	0	5	0	
0.0943333	0.0818549	-1.38881	0.00652808	0.0478132	0	5	0	
0.0945	-0.194527	1.53856	0.00678026	0.0488124	0	5	0	
0.0946667	0.0769276	-1.41611	0.00656965	0.0481224	0	5	0	
0.0948333	-0.204728	1.53519	0.00670069	0.0491731	0	5	0	
0.095	0.0916072	-1.37811	0.0064517	0.0481366	0	5	0	
0.0951667	-0.212385	1.4918	0.00666136	0.0488563	0	5	0	
0.0953333	0.085289	-1.37784	0.00650463	0.0479134	0	5	0	
0.0955	-0.20955	1.48666	0.00676726	0.0489908	0	5	0	
0.0956667	0.0892101	-1.37148	0.00658047	0.0481758	0	5	0	
0.0958333	-0.219163	1.45793	0.00681678	0.0491113	0	5	0	
0.096	0.0911612	-1.34479	0.00659969	0.0481504	0	5	0	
0.0961667	-0.212875	1.44801	0.00678211	0.0490769	0	5	0	
0.0963333	0.0969099	-1.34949	0.00649419	0.0481762	0	5	0	
0.0965	-0.228383	1.41512	0.00671083	0.0490746	0	5	0	
0.0966667	0.102176	-1.33246	0.00656223	0.0480755	0	5	0	
0.0968333	-0.232842	1.39329	0.00687606	0.0489883	0	5	0	
0.097	0.101814	-1.30984	0.00665363	0.0480711	0	5	0	
0.0971667	-0.22568	1.38025	0.00685834	0.0490095	0	5	0	
0.0973333	0.0985004	-1.31383	0.00656938	0.0480865	0	5	0	
0.0975	-0.238377	1.35929	0.00677879	0.0490894	0	5	0	
0.0976667	0.115041	-1.30273	0.00653267	0.0481915	0	5	0	
0.0978333	-0.235554	1.3196	0.00682208	0.0490465	0	5	0	
0.098	0.102175	-1.27028	0.00658501	0.0480009	0	5	0	
0.0981667	-0.243393	1.30527	0.00681193	0.04901	0	5	0	
0.0983333	0.11065	-1.2723	0.00652073	0.0482292	0	5	0	
0.0985	-0.241203	1.28286	0.00680463	0.0493038	0	5	0	
0.0986667	0.109709	-1.26318	0.00653948	0.0483853	0	5	0	
0.0988333	-0.248957	1.27644	0.00681052	0.0492698	0	5	0	
0.099	0.11406	-1.24035	0.00654008	0.0482184	0	5	0	
0.0991667	-0.246894	1.21913	0.00685251	0.0490022	0	5	0	
0.0993333	0.111786	-1.22113	0.00653344	0.0479859	0	5	0	
0.0995	-0.257197	1.20755	0.00676196	0.0489817	0	5	0	
0.0996667	0.124527	-1.21003	0.00645792	0.0481066	0	5	0	
0.0998333	-0.259441	1.18839	0.00682518	0.0490113	0	5	0	
0.1	0.11617	-1.20014	0.00656328	0.0480647	0	5	0	
0.100167	-0.259899	1.17354	0.00685867	0.0490359	0	5	0	
0.100333	0.119047	-1.19721	0.00649532	0.0481566	0	5	0	
0.1005	-0.260895	1.13476	0.00680885	0.0490319	0	5	0	
0.100667	0.121963	-1.17081	0.00647806	0.0480397	0	5	0	
0.100833	-0.266993	1.1181	0.00680071	0.0489837	0	5	0	
0.101	0.124233	-1.16222	0.00647371	0.0481504	0	5	0	
0.101167	-0.265094	1.0905	0.00684175	0.0491335	0	5	0	
0.101333	0.119831	-1.14297	0.00649228	0.0481824	0	5	0	
0.1015	-0.273981	1.06709	0.00680337	0.0490257	0	5	0	
0.101667	0.13429	-1.14183	0.00644242	0.048122	0	5	0	
0.101833	-0.277133	1.04733	0.00686141	0.0490591	0	5	0	
0.102	0.13027	-1.11828	0.00652602	0.0480752	0	5	0	
0.102167	-0.282601	1.01444	0.00687885	0.0488663	0	5	0	
0.102333	0.132904	-1.10943	0.00651516	0.0479504	0	5	0	
0.1025	-0.273038	1.01375	0.00691691	0.0490064	0	5	0	
0.102667	0.134701	-1.10233	0.00651246	0.0482459	0	5	0	
0.102833	-0.290511	0.978464	0.00683933	0.0491521	0	5	0	
0.103	0.130311	-1.08285	0.00640129	0.0482125	0	5	0	
0.103167	-0.277554	0.954125	0.00676914	0.049095	0	5	0	
0.103333	0.144927	-1.06795	0.00634636	0.0482457	0	5	0	
0.1035	-0.29624	0.92458	0.0067723	0.049116	0	5	0	
0.103667	0.143371	-1.04861	0.00646149	0.0481851	0	5	0	
0.103833	-0.290436	0.898479	0.00693695	0.0490515	0	5	0	
0.104	0.136926	-1.03598	0.00650242	0.0482368	0	5	0	
0.104167	-0.288617	0.874765	0.00685531	0.0490984	0	5	0	
0.104333	0.146242	-1.01463	0.00640549	0.0481552	0	5	0	
0.1045	-0.297255	0.848551	0.00683711	0.0489532	0	5	0	
0.104667	0.150728	-1.01464	0.00642192	0.0481466	0	5	0	
0.104833	-0.303249	0.828126	0.00684716	0.0490561	0	5	0	
0.105	0.151535	-0.987944	0.00643529	0.0481893	0	5	0	
0.105167	-0.299439	0.803723	0.00688759	0.0489738	0	5	0	
0.105333	0.152043	-0.988788	0.00645448	0.0481278	0	5	0	
0.1055	-0.303645	0.782486	0.00686676	0.049008	0	5	0	
0.105667	0.156404	-0.969397	0.00639139	0.0481906	0	5	0	
0.105833	-0.30578	0.753481	0.00682852	0.0490177	0	5	0	
0.106	0.157959	-0.944308	0.00640181	0.0482107	0	5	0	
0.106167	-0.312273	0.731528	0.00687726	0.0490582	0	5	0	
0.106333	0.169978	-0.933833	0.00645914	0.0482609	0	5	0	
0.1065	-0.317457	0.695962	0.00695104	0.0490374	0	5	0	
0.106667	0.167605	-0.905754	0.0065318	0.0482414	0	5	0	
0.106833	-0.310231	0.671684	0.00699626	0.0489988	0	5	0	
0.107	0.163082	-0.892492	0.00648071	0.0482306	0	5	0	
0.107167	-0.318507	0.653127	0.00690401	0.0490046	0	5	0	
0.107333	0.170389	-0.886291	0.00640239	0.04829	0	5	0	
0.1075	-0.3185	0.62153	0.00688107	0.0490267	0	5	0	
0.107667	0.170747	-0.858281	0.00636921	0.0482247	0	5	0	
0.107833	-0.313016	0.59835	0.00681597	0.0488743	0	5	0	
0.108	0.162276	-0.856168	0.00619627	0.0481509	0	5	0	
0.108167	-0.338882	0.577449	0.00646575	0.0489425	0	5	0	
0.108333	0.224644	-0.829247	0.0059274	0.048304	0	5	0	
0.1085	-0.373865	0.540317	0.00670794	0.0490133	0	5	0	
0.108667	0.184267	-0.822479	0.00669594	0.0483064	0	5	0	
0.108833	-0.308215	0.530407	0.00739267	0.0489745	0	5	0	
0.109	0.142724	-0.803289	0.006642	0.0482699	0	5	0	
0.109167	-0.272769	0.487347	0.00668055	0.048943	0	5	0	
0.109333	0.131809	-0.773532	0.00566812	0.0483104	0	5	0	
0.1095	-0.319402	0.465311	0.00596808	0.0489714	0	5	0	
0.109667	0.193134	-0.763483	0.00553001	0.0483242	0	5	0	
0.109833	-0.343997	0.440251	0.00644157	0.0489672	0	5	0	
0.11	0.187603	-0.743751	0.00620958	0.0483822	0	5	0	
0.110167	-0.338054	0.407976	0.00692549	0.0489708	0	5	0	
0.110333	0.192003	-0.733489	0.00636077	0.048358	0	5	0	
0.1105	-0.346547	0.400213	0.00691143	0.0490095	0	5	0	
0.110667	0.196445	-0.714392	0.00632697	0.0484615	0	5	0	
0.110833	-0.335236	0.349627	0.00693168	0.0489613	0	5	0	
0.111	0.184005	-0.686644	0.00633916	0.0483609	0	5	0	
0.111167	-0.348058	0.345618	0.00688822	0.0490369	0	5	0	
0.111333	0.217385	-0.698867	0.00628627	0.0486359	0	5	0	
0.1115	-0.3633	0.320546	0.0069562	0.049117	0	5	0	
0.111667	0.20375	-0.663282	0.00644367	0.0483747	0	5	0	
0.111833	-0.343561	0.264635	0.00706135	0.0486933	0	5	0	
0.112	0.202112	-0.611959	0.00639543	0.0480499	0	5	0	
0.112167	-0.355653	0.230833	0.00692969	0.0485402	0	5	0	
0.112333	0.220101	-0.617456	0.00632425	0.0482802	0	5	0	
0.1125	-0.354201	0.232027	0.00697596	0.049028	0	5	0	
0.112667	0.203914	-0.609997	0.00635214	0.0487147	0	5	0	
0.112833	-0.355361	0.198994	0.00689556	0.0490659	0	5	0	
0.113	0.218188	-0.589561	0.00622801	0.0484299	0	5	0	
0.113167	-0.353838	0.176228	0.00689795	0.0486713	0	5	0	
0.113333	0.217906	-0.557483	0.00631676	0.0481725	0	5	0	
0.1135	-0.363757	0.145709	0.0069523	0.0486409	0	5	0	
0.113667	0.224285	-0.558928	0.00631137	0.0483411	0	5	0	
0.113833	-0.362343	0.115337	0.00698961	0.0486901	0	5	0	
0.114	0.226875	-0.520875	0.006386	0.0482113	0	5	0	
0.114167	-0.3652	0.0947657	0.00701566	0.0485689	0	5	0	
0.114333	0.227394	-0.515735	0.00634161	0.0483973	0	5	0	
0.1145	-0.366299	0.0831197	0.006994	0.0488948	0	5	0	
0.114667	0.23558	-0.505179	0.00633287	0.0485577	0	5	0	
0.114833	-0.375329	0.0359264	0.00702759	0.0487151	0	5	0	
0.115	0.230825	-0.469415	0.00637144	0.0483246	0	5	0	
0.115167	-0.362448	0.0130063	0.0070255	0.0486551	0	5	0	
0.115333	0.236067	-0.447135	0.0062887	0.048489	0	5	0	
0.1155	-0.373738	-0.0180528	0.00696682	0.0487993	0	5	0	
0.115667	0.237301	-0.426442	0.00630535	0.0485846	0	5	0	
0.115833	-0.374228	-0.0377099	0.00701211	0.0488228	0	5	0	
0.116	0.249358	-0.416377	0.00630761	0.0485698	0	5	0	
0.116167	-0.386037	-0.0754988	0.00706169	0.0486627	0	5	0	
0.116333	0.252054	-0.375552	0.00642494	0.0483623	0	5	0	
0.1165	-0.372142	-0.101204	0.00715944	0.0486121	0	5	0	
0.116667	0.235904	-0.375672	0.00636393	0.0486007	0	5	0	
0.116833	-0.369866	-0.103783	0.00693849	0.0488972	0	5	0	
0.117	0.247525	-0.371818	0.00612532	0.0486978	0	5	0	
0.117167	-0.376487	-0.128692	0.00684549	0.0487176	0	5	0	
0.117333	0.260398	-0.332951	0.00618581	0.0483246	0	5	0	
0.1175	-0.400634	-0.182596	0.00701542	0.0483271	0	5	0	
0.117667	0.271362	-0.301744	0.00643156	0.0482013	0	5	0	
0.117833	-0.383822	-0.19798	0.00729945	0.0486095	0	5	0	
0.118	0.253109	-0.294849	0.00653663	0.0487168	0	5	0	
0.118167	-0.385104	-0.212846	0.00715478	0.0490184	0	5	0	
0.118333	0.265699	-0.291718	0.00631646	0.0489024	0	5	0	
0.1185	-0.379798	-0.233426	0.00706134	0.0489711	0	5	0	
0.118667	0.260117	-0.255504	0.00628658	0.0485758	0	5	0	
0.118833	-0.396901	-0.292541	0.00700111	0.0485071	0	5	0	
0.119	0.290912	-0.209348	0.00626265	0.0483271	0	5	0	
0.119167	-0.410403	-0.316412	0.00715859	0.0487336	0	5	0	
0.119333	0.301367	-0.203536	0.00670082	0.0487966	0	5	0	
0.1195	-0.396752	-0.329577	0.00791743	0.049003	0	5	0	
0.119667	0.254757	-0.195418	0.00712915	0.0486499	0	5	0	
0.119833	-0.368873	-0.355686	0.00750421	0.0486213	0	5	0	
0.12	0.261773	-0.157992	0.0061396	0.0482778	0	5	0	
0.120167	-0.396812	-0.40425	0.00678611	0.0484446	0	5	0	
0.120333	0.339296	-0.127511	0.0062502	0.0482739	0	5	0	
0.1205	-0.463663	-0.406472	0.00764121	0.0485824	0	5	0	
0.120667	0.298681	-0.13326	0.00706904	0.0484391	0	5	0	
0.120833	-0.38257	-0.429189	0.0077972	0.048702	0	5	0	
0.121	0.282854	-0.102986	0.00650182	0.0483925	0	5	0	
0.121167	-0.406717	-0.470157	0.00716614	0.0485454	0	5	0	
0.121333	0.297606	-0.0681142	0.00635779	0.0482312	0	5	0	
0.1215	-0.391918	-0.485832	0.00723752	0.0485882	0	5	0	
0.121667	0.278988	-0.0548747	0.00641594	0.0483996	0	5	0	
0.121833	-0.384885	-0.516666	0.00712464	0.0487606	0	5	0	
0.122	0.291293	-0.0276006	0.0062004	0.0484081	0	5	0	
0.122167	-0.399369	-0.542964	0.00701159	0.048716	0	5	0	
0.122333	0.302019	-0.0027778	0.00625271	0.0483522	0	5	0	
0.1225	-0.397573	-0.577344	0.00715488	0.0487349	0	5	0	
0.122667	0.293719	0.021647	0.00632974	0.0482934	0	5	0	
0.122833	-0.392523	-0.606575	0.00711468	0.0486983	0	5	0	
0.123	0.297509	0.0469293	0.00623244	0.0483144	0	5	0	
0.123167	-0.398167	-0.624385	0.00705901	0.0488514	0	5	0	
0.123333	0.314285	0.0674142	0.00626064	0.0483726	0	5	0	
0.1235	-0.413245	-0.646593	0.00718188	0.0487509	0	5	0	
0.123667	0.315736	0.0819763	0.00642703	0.048184	0	5	0	
0.123833	-0.395559	-0.674978	0.00730421	0.0487338	0	5	0	
0.124	0.29709	0.112252	0.00636375	0.0482829	0	5	0	
0.124167	-0.38285	-0.695607	0.0070829	0.0489016	0	5	0	
0.124333	0.286649	0.112099	0.00606636	0.0484049	0	5	0	
0.1245	-0.385711	-0.699918	0.00682501	0.0489576	0	5	0	
0.124667	0.324541	0.147461	0.00598311	0.0482017	0	5	0	
0.124833	-0.419201	-0.760008	0.00702452	0.0486153	0	5	0	
0.125	0.324664	0.192511	0.0063689	0.0479847	0	5	0	
0.125167	-0.395315	-0.78284	0.00731598	0.048856	0	5	0	
0.125333	0.310906	0.205871	0.00636027	0.0484392	0	5	0	
0.1255	-0.390694	-0.806355	0.00712542	0.049272	0	5	0	
0.125667	0.308875	0.211729	0.00614309	0.0485435	0	5	0	
0.125833	-0.392098	-0.817255	0.00697604	0.0491154	0	5	0	
0.126	0.323435	0.245995	0.00607806	0.0481576	0	5	0	
0.126167	-0.402489	-0.863558	0.00702073	0.0488047	0	5	0	
0.126333	0.324614	0.280905	0.00622222	0.0480858	0	5	0	
0.1265	-0.394431	-0.880867	0.0071425	0.0490204	0	5	0	
0.126667	0.320336	0.291259	0.00621605	0.0482659	0	5	0	
0.126833	-0.395542	-0.899864	0.00704639	0.0490506	0	5	0	
0.127	0.331117	0.313284	0.00613717	0.0481247	0	5	0	
0.127167	-0.397914	-0.921343	0.00707988	0.0489493	0	5	0	
0.127333	0.3308	0.33753	0.00621176	0.0480888	0	5	0	
0.1275	-0.397408	-0.940354	0.00711974	0.0489939	0	5	0	
0.127667	0.330638	0.361269	0.00619964	0.0480259	0	5	0	
0.127833	-0.389654	-0.98096	0.00706983	0.0488411	0	5	0	
0.128	0.328978	0.40064	0.00612959	0.0478524	0	5	0	
0.128167	-0.391249	-1.007	0.00700077	0.0489489	0	5	0	
0.128333	0.336699	0.410606	0.00610521	0.0481449	0	5	0	
0.1285	-0.396117	-1.00978	0.00704392	0.0492417	0	5	0	
0.128667	0.337673	0.422445	0.00616893	0.0481895	0	5	0	
0.128833	-0.388742	-1.03622	0.00706357	0.0491244	0	5	0	
0.129	0.339888	0.464034	0.0061368	0.0480113	0	5	0	
0.129167	-0.39834	-1.08397	0.00704885	0.049105	0	5	0	
0.129333	0.348459	0.484693	0.00621668	0.0480624	0	5	0	
0.1295	-0.397089	-1.08995	0.00716577	0.049182	0	5	0	
0.129667	0.345443	0.508975	0.00627088	0.0480026	0	5	0	
0.129833	-0.389233	-1.11905	0.00712067	0.049128	0	5	0	
0.13	0.346611	0.543105	0.00617497	0.0479768	0	5	0	
0.130167	-0.391837	-1.14783	0.00706276	0.0491904	0	5	0	
0.130333	0.344151	0.55639	0.00614545	0.0480157	0	5	0	
0.1305	-0.392699	-1.15621	0.00704715	0.0492038	0	5	0	
0.130667	0.364029	0.584605	0.006182	0.0478782	0	5	0	
0.130833	-0.402922	-1.19851	0.00717956	0.0490975	0	5	0	
0.131	0.356238	0.622951	0.00633631	0.0479441	0	5	0	
0.131167	-0.39133	-1.21593	0.0072421	0.049408	0	5	0	
0.131333	0.355054	0.637082	0.00624617	0.0481802	0	5	0	
0.1315	-0.381303	-1.22759	0.00710787	0.049443	0	5	0	
0.131667	0.349512	0.641567	0.00609958	0.0479861	0	5	0	
0.131833	-0.387757	-1.24782	0.0070194	0.04921	0	5	0	
0.132	0.359038	0.69222	0.00608999	0.0477133	0	5	0	
0.132167	-0.377798	-1.28497	0.00704976	0.0490702	0	5	0	
0.132333	0.353848	0.706756	0.00606594	0.0477855	0	5	0	
0.1325	-0.382523	-1.28807	0.00698317	0.0493387	0	5	0	
0.132667	0.385868	0.721098	0.00613759	0.0478542	0	5	0	
0.132833	-0.42248	-1.33652	0.00731956	0.0491566	0	5	0	
0.133	0.38493	0.782912	0.00655933	0.0476011	0	5	0	
0.133167	-0.362142	-1.36256	0.007452	0.0493039	0	5	0	
0.133333	0.309785	0.78487	0.00612624	0.0481009	0	5	0	
0.1335	-0.313241	-1.35109	0.00653056	0.0497655	0	5	0	
0.133667	0.326878	0.795652	0.00526384	0.0480617	0	5	0	
0.133833	-0.384858	-1.38211	0.00633401	0.0493348	0	5	0	
0.134	0.380834	0.817957	0.005869	0.0476101	0	5	0	
0.134167	-0.391289	-1.39471	0.00713827	0.0491596	0	5	0	
0.134333	0.37312	0.862804	0.00628946	0.0475201	0	5	0	
0.1345	-0.380449	-1.44323	0.00715898	0.0491909	0	5	0	
0.134667	0.36335	0.87431	0.00621767	0.0477164	0	5	0	
0.134833	-0.363993	-1.43467	0.00710533	0.049509	0	5	0	
0.135	0.353112	0.89878	0.00604233	0.0477104	0	5	0	
0.135167	-0.369833	-1.48361	0.00683567	0.0492504	0	5	0	
0.135333	0.368097	0.942699	0.0059043	0.0476024	0	5	0	
0.1355	-0.362708	-1.48725	0.006911	0.0495657	0	5	0	
0.135667	0.365984	0.947239	0.00604182	0.0478779	0	5	0	
0.135833	-0.375525	-1.52107	0.00699773	0.0495615	0	5	0	
0.136	0.381702	0.979471	0.00610767	0.0477003	0	5	0	
0.136167	-0.368139	-1.53086	0.00707793	0.049559	0	5	0	
0.136333	0.373159	0.997844	0.00614123	0.0477382	0	5	0	
0.1365	-0.368467	-1.55234	0.00704866	0.0495194	0	5	0	
0.136667	0.378542	1.03184	0.00611834	0.0475982	0	5	0	
0.136833	-0.365522	-1.57377	0.00704095	0.0494824	0	5	0	
0.137	0.377781	1.05123	0.00609885	0.0476048	0	5	0	
0.137167	-0.361004	-1.59739	0.0070248	0.0494635	0	5	0	
0.137333	0.373563	1.09336	0.00607985	0.0474997	0	5	0	
0.1375	-0.355576	-1.61157	0.00696627	0.0495067	0	5	0	
0.137667	0.38223	1.10037	0.00602638	0.0477041	0	5	0	
0.137833	-0.364614	-1.62786	0.00699669	0.049683	0	5	0	
0.138	0.382691	1.12437	0.00613523	0.0475641	0	5	0	
0.138167	-0.357122	-1.64595	0.00708556	0.0494631	0	5	0	
0.138333	0.379577	1.14798	0.00612685	0.0475312	0	5	0	
0.1385	-0.354492	-1.6542	0.00703063	0.0496393	0	5	0	
0.138667	0.383251	1.19175	0.00608756	0.0476164	0	5	0	
0.138833	-0.354575	-1.69871	0.00703466	0.0496474	0	5	0	
0.139	0.384577	1.1965	0.00611337	0.0476183	0	5	0	
0.139167	-0.352603	-1.69025	0.00705094	0.0497006	0	5	0	
0.139333	0.384504	1.22575	0.00610526	0.0475311	0	5	0	
0.1395	-0.351178	-1.72546	0.00704118	0.0495952	0	5	0	
0.139667	0.382497	1.26322	0.00609898	0.0475526	0	5	0	
0.139833	-0.347648	-1.73263	0.0070277	0.0497924	0	5	0	
0.14	0.388223	1.26624	0.00610435	0.0475989	0	5	0	
0.140167	-0.350252	-1.75107	0.00706276	0.0495839	0	5	0	
0.140333	0.390276	1.30813	0.00616098	0.0473526	0	5	0	
0.1405	-0.343914	-1.7654	0.00709826	0.0496723	0	5	0	
0.140667	0.383991	1.32225	0.00614543	0.0476373	0	5	0	
0.140833	-0.340928	-1.79035	0.00703284	0.0498267	0	5	0	
0.141	0.386096	1.35126	0.00609573	0.0474876	0	5	0	
0.141167	-0.339188	-1.80201	0.00702037	0.04968	0	5	0	
0.141333	0.384034	1.3701	0.00611293	0.0474847	0	5	0	
0.1415	-0.335271	-1.81932	0.00700107	0.0497721	0	5	0	
0.141667	0.390857	1.4129	0.00608279	0.0474651	0	5	0	
0.141833	-0.337619	-1.84079	0.00703178	0.0497489	0	5	0	
0.142	0.394056	1.40877	0.00619968	0.0474893	0	5	0	
0.142167	-0.346304	-1.83883	0.00719318	0.049797	0	5	0	
0.142333	0.410932	1.43715	0.00639813	0.047429	0	5	0	
0.1425	-0.351259	-1.86276	0.00738439	0.0497412	0	5	0	
0.142667	0.395726	1.45282	0.00648055	0.047318	0	5	0	
0.142833	-0.32268	-1.86854	0.00725949	0.0495633	0	5	0	
0.143	0.383576	1.48751	0.00621347	0.0470658	0	5	0	
0.143167	-0.322224	-1.90749	0.00701731	0.0495103	0	5	0	
0.143333	0.37808	1.52329	0.00609514	0.0472738	0	5	0	
0.1435	-0.307567	-1.91107	0.00693004	0.0498805	0	5	0	
0.143667	0.382179	1.52173	0.00602043	0.0475051	0	5	0	
0.143833	-0.318775	-1.90914	0.00689444	0.0498754	0	5	0	
0.144	0.384151	1.53739	0.00605225	0.0473386	0	5	0	
0.144167	-0.316778	-1.91812	0.00695571	0.0496848	0	5	0	
0.144333	0.395381	1.57282	0.00614193	0.0471137	0	5	0	
0.1445	-0.323259	-1.95638	0.00706452	0.0495313	0	5	0	
0.144667	0.393305	1.61334	0.00624925	0.0471832	0	5	0	
0.144833	-0.310165	-1.96213	0.0070775	0.0498701	0	5	0	
0.145	0.389872	1.6245	0.00619467	0.0474925	0	5	0	
0.145167	-0.314088	-1.98259	0.00702907	0.0499668	0	5	0	
0.145333	0.388255	1.65129	0.00617142	0.0473799	0	5	0	
0.1455	-0.306424	-1.97768	0.00700923	0.0498657	0	5	0	
0.145667	0.390517	1.66022	0.00614191	0.0473419	0	5	0	
0.145833	-0.299074	-2.0001	0.00696743	0.0498662	0	5	0	
0.146	0.381417	1.69595	0.00610232	0.0472607	0	5	0	
0.146167	-0.304358	-2.02321	0.0069403	0.04982	0	5	0	
0.146333	0.394652	1.7231	0.0061484	0.0473193	0	5	0	
0.1465	-0.298922	-2.03019	0.00704849	0.0500035	0	5	0	
0.146667	0.383358	1.73714	0.00621037	0.0474151	0	5	0	
0.146833	-0.2978	-2.0398	0.00702536	0.0500282	0	5	0	
0.147	0.38406	1.74817	0.00615109	0.0473735	0	5	0	
0.147167	-0.293183	-2.04084	0.00697704	0.0499419	0	5	0	
0.147333	0.392058	1.78051	0.00617389	0.0471743	0	5	0	
0.1475	-0.297641	-2.06358	0.00706777	0.0497279	0	5	0	
0.147667	0.383762	1.79986	0.00625536	0.0470577	0	5	0	
0.147833	-0.28688	-2.07698	0.00702046	0.0498703	0	5	0	
0.148	0.385823	1.81808	0.00614285	0.047339	0	5	0	
0.148167	-0.291869	-2.07461	0.00699048	0.0500885	0	5	0	
0.148333	0.384843	1.83598	0.00622416	0.0473379	0	5	0	
0.1485	-0.279442	-2.08227	0.00703726	0.0499385	0	5	0	
0.148667	0.3801	1.85567	0.00619119	0.0471612	0	5	0	
0.148833	-0.27998	-2.11242	0.00697728	0.0498801	0	5	0	
0.149	0.382733	1.88341	0.00617888	0.0471854	0	5	0	
0.149167	-0.273855	-2.12127	0.00696325	0.0499855	0	5	0	
0.149333	0.380064	1.90498	0.00615924	0.047312	0	5	0	
0.1495	-0.280273	-2.06944	0.00697084	0.0500269	0	5	0	
0.149667	0.379953	1.83677	0.00623386	0.047042	0	5	0	
0.149833	-0.266181	-2.10942	0.00699575	0.0494603	0	5	0	
0.15	0.37759	1.97438	0.00617983	0.0465759	0	5	0	
0.150167	-0.271603	-2.17873	0.00693101	0.0496805	0	5	0	
0.150333	0.386666	1.96316	0.00622908	0.0474446	0	5	0	
0.1505	-0.263636	-2.12071	0.00702882	0.0504165	0	5	0	
0.150667	0.364985	1.97964	0.00623251	0.0475709	0	5	0	
0.150833	-0.260361	-2.17684	0.00689596	0.0503251	0	5	0	
0.151	0.37903	1.98991	0.00612738	0.0475842	0	5	0	
0.151167	-0.257143	-2.15982	0.00690077	0.0502093	0	5	0	
0.151333	0.37395	2.04243	0.00619996	0.0470872	0	5	0	
0.1515	-0.256316	-2.19786	0.00695705	0.0499053	0	5	0	
0.151667	0.373926	2.04091	0.00622097	0.0473459	0	5	0	
0.151833	-0.255146	-2.17229	0.00696401	0.0502394	0	5	0	
0.152	0.376933	2.05318	0.00623645	0.0472351	0	5	0	
0.152167	-0.251853	-2.203	0.00699595	0.0499193	0	5	0	
0.152333	0.373125	2.08558	0.00627027	0.0471822	0	5	0	
0.1525	-0.247168	-2.19595	0.00699167	0.050161	0	5	0	
0.152667	0.372785	2.08604	0.00626729	0.0472913	0	5	0	
0.152833	-0.249407	-2.21023	0.00704531	0.0499778	0	5	0	
0.153	0.377516	2.13948	0.00636231	0.0470827	0	5	0	
0.153167	-0.245563	-2.24107	0.00708796	0.0501038	0	5	0	
0.153333	0.36941	2.14434	0.00631916	0.0474855	0	5	0	
0.1535	-0.228403	-2.21714	0.00693952	0.0503442	0	5	0	
0.153667	0.342665	2.15083	0.00608993	0.0473149	0	5	0	
0.153833	-0.208907	-2.23963	0.00668702	0.0499978	0	5	0	
0.154	0.34056	2.18458	0.0059926	0.0471825	0	5	0	
0.154167	-0.216079	-2.24169	0.00677414	0.0501805	0	5	0	
0.154333	0.354224	2.18422	0.00617826	0.0473854	0	5	0	
0.1545	-0.232188	-2.23994	0.00691286	0.0501683	0	5	0	
0.154667	0.369017	2.23088	0.00629096	0.0471222	0	5	0	
0.154833	-0.235631	-2.3111	0.00699353	0.0500529	0	5	0	
0.155	0.347269	2.28023	0.00624617	0.0474839	0	5	0	
0.155167	-0.210393	-2.27564	0.00675083	0.0507831	0	5	0	
0.155333	0.350308	2.21899	0.00596636	0.0479494	0	5	0	
0.1555	-0.216119	-2.22458	0.00662318	0.0504343	0	5	0	
0.155667	0.341507	2.23262	0.00606045	0.0469453	0	5	0	
0.155833	-0.216714	-2.27234	0.0067833	0.0494583	0	5	0	
0.156	0.350503	2.30942	0.00621507	0.0466351	0	5	0	
0.156167	-0.210355	-2.30681	0.00688407	0.0499368	0	5	0	
0.156333	0.349957	2.29736	0.00628367	0.0474933	0	5	0	
0.1565	-0.208003	-2.24458	0.00690017	0.0504626	0	5	0	
0.156667	0.337318	2.2608	0.00624195	0.047348	0	5	0	
0.156833	-0.203852	-2.25207	0.0068011	0.0497847	0	5	0	
0.157	0.341554	2.32777	0.00618735	0.0467504	0	5	0	
0.157167	-0.199964	-2.30468	0.00683147	0.049744	0	5	0	
0.157333	0.343715	2.35115	0.00628099	0.0472325	0	5	0	
0.1575	-0.203124	-2.27996	0.00690512	0.0503033	0	5	0	
0.157667	0.347047	2.33961	0.00631848	0.0474281	0	5	0	
0.157833	-0.201436	-2.29336	0.00691044	0.0501697	0	5	0	
0.158	0.337738	2.3737	0.00627009	0.0473078	0	5	0	
0.158167	-0.19366	-2.29472	0.0068344	0.0502117	0	5	0	
0.158333	0.335587	2.37158	0.00623001	0.0473706	0	5	0	
0.1585	-0.188439	-2.28292	0.00680656	0.0501027	0	5	0	
0.158667	0.333292	2.38685	0.00622681	0.0471257	0	5	0	
0.158833	-0.191394	-2.29751	0.00684792	0.0499258	0	5	0	
0.159	0.335217	2.39717	0.00634003	0.0471393	0	5	0	
0.159167	-0.188557	-2.2946	0.00692903	0.0500113	0	5	0	
0.159333	0.327662	2.41349	0.00633493	0.0472048	0	5	0	
0.1595	-0.183247	-2.28684	0.00684325	0.049976	0	5	0	
0.159667	0.326021	2.41751	0.00628008	0.0470758	0	5	0	
0.159833	-0.174198	-2.30284	0.00682449	0.049799	0	5	0	
0.16	0.323635	2.45484	0.00631103	0.047047	0	5	0	
0.160167	-0.186049	-2.31678	0.00691801	0.0500534	0	5	0	
0.160333	0.329975	2.44679	0.00645276	0.0474189	0	5	0	
0.1605	-0.175141	-2.28785	0.00696319	0.0501493	0	5	0	
0.160667	0.314787	2.44748	0.00635249	0.0471812	0	5	0	
0.160833	-0.170931	-2.29117	0.0067879	0.0497599	0	5	0	
0.161	0.316626	2.47685	0.00626006	0.0469931	0	5	0	
0.161167	-0.165364	-2.322	0.00678769	0.0498744	0	5	0	
0.161333	0.31409	2.50946	0.00631231	0.0473305	0	5	0	
0.1615	-0.165905	-2.31167	0.00683909	0.0502074	0	5	0	
0.161667	0.309658	2.49445	0.00633907	0.0474417	0	5	0	
0.161833	-0.162907	-2.30595	0.0068095	0.0500374	0	5	0	
0.162	0.310268	2.51915	0.00633312	0.0472291	0	5	0	
0.162167	-0.165021	-2.31609	0.00687321	0.0499595	0	5	0	
0.162333	0.314146	2.53255	0.00647023	0.0472655	0	5	0	
0.1625	-0.167083	-2.3138	0.00695814	0.0500108	0	5	0	
0.162667	0.297647	2.53022	0.00642267	0.0472671	0	5	0	
0.162833	-0.141938	-2.30593	0.00675923	0.049964	0	5	0	
0.163	0.278396	2.5435	0.0061997	0.047244	0	5	0	
0.163167	-0.135813	-2.31149	0.00661953	0.0499304	0	5	0	
0.163333	0.293397	2.56817	0.00625429	0.0472751	0	5	0	
0.1635	-0.157961	-2.32095	0.00681665	0.0500402	0	5	0	
0.163667	0.300234	2.55398	0.00648237	0.0473939	0	5	0	
0.163833	-0.143963	-2.29746	0.00690235	0.0499788	0	5	0	
0.164	0.282331	2.58346	0.00636243	0.0471935	0	5	0	
0.164167	-0.138656	-2.32533	0.00668107	0.0498775	0	5	0	
0.164333	0.293368	2.59373	0.00625985	0.0473956	0	5	0	
0.1645	-0.14879	-2.30576	0.00677085	0.0500595	0	5	0	
0.164667	0.290849	2.60224	0.00642115	0.0473934	0	5	0	
0.164833	-0.133192	-2.3169	0.00679514	0.0499487	0	5	0	
0.165	0.270703	2.60275	0.00627247	0.0474023	0	5	0	
0.165167	-0.120492	-2.30848	0.00658112	0.0499991	0	5	0	
0.165333	0.269606	2.62239	0.00619891	0.047417	0	5	0	
0.1655	-0.135237	-2.31259	0.00673128	0.0499582	0	5	0	
0.165667	0.289321	2.63026	0.00652744	0.0474143	0	5	0	
0.165833	-0.140032	-2.30884	0.00700226	0.0499598	0	5	0	
0.166	0.274828	2.62878	0.00656687	0.0474059	0	5	0	
0.166167	-0.126923	-2.31381	0.00683223	0.0499326	0	5	0	
0.166333	0.27018	2.64783	0.0064002	0.0474324	0	5	0	
0.1665	-0.128626	-2.29852	0.00675297	0.0499325	0	5	0	
0.166667	0.264122	2.63182	0.00638805	0.0473954	0	5	0	
0.166833	-0.118001	-2.30086	0.00672342	0.0498111	0	5	0	
0.167	0.260397	2.65632	0.00636953	0.0473341	0	5	0	
0.167167	-0.119336	-2.30698	0.00672133	0.0498515	0	5	0	
0.167333	0.258726	2.66543	0.00639829	0.047468	0	5	0	
0.1675	-0.122508	-2.2995	0.00677238	0.0499289	0	5	0	
0.167667	0.262429	2.66695	0.0064914	0.0474854	0	5	0	
0.167833	-0.119829	-2.29805	0.0068398	0.0498605	0	5	0	
0.168	0.252542	2.67429	0.00648784	0.0474299	0	5	0	
0.168167	-0.113263	-2.3	0.00674424	0.0498276	0	5	0	
0.168333	0.249045	2.68023	0.00640518	0.0474807	0	5	0	
0.1685	-0.108848	-2.28031	0.00672642	0.0498177	0	5	0	
0.168667	0.245568	2.67941	0.00645206	0.0473728	0	5	0	
0.168833	-0.103159	-2.28265	0.00678367	0.0496705	0	5	0	
0.169	0.243042	2.68476	0.00649494	0.047312	0	5	0	
0.169167	-0.10755	-2.28991	0.00679415	0.0497027	0	5	0	
0.169333	0.242296	2.69878	0.00649053	0.0474021	0	5	0	
0.1695	-0.105166	-2.28723	0.00677027	0.0497786	0	5	0	
0.169667	0.236602	2.69996	0.00646363	0.0475093	0	5	0	
0.169833	-0.0944093	-2.26494	0.00670449	0.0497785	0	5	0	
0.17	0.224375	2.68623	0.00637554	0.0473657	0	5	0	
0.170167	-0.0914682	-2.27142	0.00664074	0.0495332	0	5	0	
0.170333	0.224659	2.72017	0.00643588	0.0472951	0	5	0	
0.1705	-0.0917572	-2.28299	0.00678354	0.0497211	0	5	0	
0.170667	0.217766	2.70808	0.00655102	0.0476001	0	5	0	
0.170833	-0.0826226	-2.25418	0.00677049	0.0497479	0	5	0	
0.171	0.218734	2.70383	0.00648935	0.0474029	0	5	0	
0.171167	-0.0920118	-2.25901	0.00670164	0.0495084	0	5	0	
0.171333	0.208176	2.71746	0.00637508	0.0473352	0	5	0	
0.1715	-0.0740006	-2.27056	0.00650978	0.0495828	0	5	0	
0.171667	0.204371	2.74418	0.00624989	0.0475653	0	5	0	
0.171833	-0.0818127	-2.28269	0.006515	0.0498766	0	5	0	
0.172	0.207043	2.74317	0.00631355	0.0478985	0	5	0	
0.172167	-0.0789437	-2.24362	0.00654037	0.0499273	0	5	0	
0.172333	0.208502	2.6935	0.00636099	0.0475865	0	5	0	
0.1725	-0.0867103	-2.22306	0.00662648	0.0492979	0	5	0	
0.172667	0.2041	2.71816	0.00642917	0.0471249	0	5	0	
0.172833	-0.0792502	-2.23629	0.0066354	0.0492289	0	5	0	
0.173	0.200582	2.73357	0.00643353	0.0473579	0	5	0	
0.173167	-0.0714656	-2.25175	0.00663584	0.0494936	0	5	0	
0.173333	0.199081	2.72994	0.00645598	0.0475796	0	5	0	
0.1735	-0.0846495	-2.23512	0.00670629	0.049568	0	5	0	
0.173667	0.196853	2.74388	0.00653526	0.0476094	0	5	0	
0.173833	-0.0627234	-2.22927	0.00668701	0.0495582	0	5	0	
0.174	0.186811	2.73215	0.0064667	0.0476255	0	5	0	
0.174167	-0.0775515	-2.23322	0.00666115	0.0495092	0	5	0	
0.174333	0.187092	2.74413	0.0064782	0.0476428	0	5	0	
0.1745	-0.0587012	-2.21531	0.00663508	0.0495285	0	5	0	
0.174667	0.182454	2.72169	0.00648729	0.0476051	0	5	0	
0.174833	-0.0692176	-2.20416	0.00672718	0.049325	0	5	0	
0.175	0.1841	2.74635	0.00656502	0.0474994	0	5	0	
0.175167	-0.0727062	-2.22559	0.00668098	0.049421	0	5	0	
0.175333	0.177355	2.73637	0.00649632	0.0477533	0	5	0	
0.1755	-0.0618672	-2.19272	0.00666555	0.0495096	0	5	0	
0.175667	0.169742	2.74133	0.00650448	0.0476508	0	5	0	
0.175833	-0.0573661	-2.19864	0.00662163	0.0493381	0	5	0	
0.176	0.167007	2.72923	0.00646445	0.0476416	0	5	0	
0.176167	-0.0586985	-2.18361	0.00662123	0.0493202	0	5	0	
0.176333	0.160911	2.73878	0.0064848	0.0476053	0	5	0	
0.1765	-0.0576884	-2.19608	0.0066117	0.0493095	0	5	0	
0.176667	0.16079	2.73871	0.00646451	0.0477466	0	5	0	
0.176833	-0.0568327	-2.18181	0.00658498	0.049417	0	5	0	
0.177	0.157722	2.74073	0.00645531	0.047805	0	5	0	
0.177167	-0.0511894	-2.18555	0.00658152	0.0494369	0	5	0	
0.177333	0.150325	2.73987	0.0064698	0.0478764	0	5	0	
0.1775	-0.0579994	-2.18451	0.00660643	0.0494562	0	5	0	
0.177667	0.14792	2.7319	0.00648061	0.0479086	0	5	0	
0.177833	-0.0442497	-2.16599	0.00655339	0.0493932	0	5	0	
0.178	0.14228	2.73088	0.00645814	0.0478667	0	5	0	
0.178167	-0.0526479	-2.15888	0.00663253	0.0493108	0	5	0	
0.178333	0.141918	2.72074	0.00656642	0.0478045	0	5	0	
0.1785	-0.0442533	-2.15203	0.0066184	0.0492211	0	5	0	
0.178667	0.135176	2.7263	0.00646859	0.047791	0	5	0	
0.178833	-0.0418042	-2.16479	0.00655799	0.04934	0	5	0	
0.179	0.126796	2.73897	0.00647975	0.0480617	0	5	0	
0.179167	-0.0371439	-2.15579	0.0065983	0.049514	0	5	0	
0.179333	0.125295	2.72017	0.00657444	0.0480889	0	5	0	
0.1795	-0.0426629	-2.13097	0.0067258	0.0493189	0	5	0	
0.179667	0.130166	2.70147	0.00666323	0.0478477	0	5	0	
0.179833	-0.0418715	-2.12197	0.00668826	0.049069	0	5	0	
0.18	0.118633	2.7034	0.00650552	0.04774	0	5	0	
0.180167	-0.0362369	-2.13208	0.00649665	0.0491004	0	5	0	
0.180333	0.114194	2.71671	0.00642014	0.0479583	0	5	0	
0.1805	-0.0357096	-2.13179	0.00652283	0.0493389	0	5	0	
0.180667	0.108295	2.69889	0.00645967	0.0481162	0	5	0	
0.180833	-0.0290732	-2.10853	0.00651019	0.0492496	0	5	0	
0.181	0.108542	2.70396	0.00649377	0.0480168	0	5	0	
0.181167	-0.035669	-2.12767	0.00665163	0.0492804	0	5	0	
0.181333	0.106137	2.70492	0.00666195	0.0482392	0	5	0	
0.1815	-0.0332357	-2.09723	0.00671511	0.0493633	0	5	0	
0.181667	0.103715	2.67328	0.00662185	0.048084	0	5	0	
0.181833	-0.0326686	-2.08323	0.00664442	0.0490532	0	5	0	
0.182	0.0955986	2.67289	0.00656535	0.047886	0	5	0	
0.182167	-0.0248439	-2.08173	0.00656921	0.048952	0	5	0	
0.182333	0.0893441	2.66682	0.00648939	0.0479205	0	5	0	
0.1825	-0.0252712	-2.06844	0.00653054	0.0489815	0	5	0	
0.182667	0.0888451	2.6552	0.00650318	0.0479219	0	5	0	
0.182833	-0.0236016	-2.05959	0.00655611	0.0488856	0	5	0	
0.183	0.082779	2.65403	0.00651071	0.0478706	0	5	0	
0.183167	-0.0275905	-2.07364	0.00652387	0.0489211	0	5	0	
0.183333	0.0812511	2.65278	0.00646982	0.0480669	0	5	0	
0.1835	-0.0200534	-2.0488	0.00650607	0.0490182	0	5	0	
0.183667	0.0735012	2.64424	0.00649814	0.048069	0	5	0	
0.183833	-0.0170193	-2.05309	0.00654157	0.0489508	0	5	0	
0.184	0.0718019	2.63675	0.00651251	0.0481013	0	5	0	
0.184167	-0.025587	-2.04659	0.00654293	0.0489704	0	5	0	
0.184333	0.0702455	2.62454	0.00653481	0.0481131	0	5	0	
0.1845	-0.0162732	-2.02399	0.00657294	0.0489142	0	5	0	
0.184667	0.062013	2.6146	0.00654905	0.0480761	0	5	0	
0.184833	-0.0128749	-2.02292	0.00655962	0.0488404	0	5	0	
0.185	0.060944	2.61138	0.0065451	0.0480711	0	5	0	
0.185167	-0.015231	-2.01853	0.00658082	0.0488717	0	5	0	
0.185333	0.0540859	2.59829	0.00656952	0.048128	0	5	0	
0.1855	-0.012406	-2.01097	0.00657398	0.0488753	0	5	0	
0.185667	0.052364	2.58909	0.00653461	0.0481467	0	5	0	
0.185833	-0.00682538	-1.99512	0.00653016	0.0488264	0	5	0	
0.186	0.0435499	2.58314	0.00652662	0.0481074	0	5	0	
0.186167	-0.00795103	-1.99694	0.00657741	0.0488112	0	5	0	
0.186333	0.0436814	2.5668	0.00658116	0.0481494	0	5	0	
0.1865	-0.0091478	-1.9862	0.00655152	0.0487759	0	5	0	
0.186667	0.0383974	2.55333	0.00649391	0.0481164	0	5	0	
0.186833	-0.00875084	-1.98078	0.00649728	0.0487494	0	5	0	
0.187	0.0314695	2.55313	0.00649639	0.0482232	0	5	0	
0.187167	0.00124966	-1.97121	0.0064839	0.0488123	0	5	0	
0.187333	0.0277025	2.53432	0.00649242	0.0482323	0	5	0	
0.1875	-0.0146011	-1.96983	0.00657011	0.0487202	0	5	0	
0.187667	0.0348936	2.5373	0.00658916	0.0482575	0	5	0	
0.187833	-0.004878	-1.96292	0.00649988	0.0487902	0	5	0	
0.188	0.0147489	2.50296	0.00642509	0.0482926	0	5	0	
0.188167	-0.00317383	-1.92821	0.00647802	0.0485494	0	5	0	
0.188333	0.0229266	2.50387	0.00656158	0.0480435	0	5	0	
0.1885	8.67185E-05	-1.95363	0.00657652	0.0485439	0	5	0	
0.188667	0.0135295	2.49724	0.00654415	0.0483091	0	5	0	
0.188833	0.00664285	-1.87464	0.0064999	0.0485662	0	5	0	
0.189	-0.0106903	2.38531	0.00640125	0.0476159	0	5	0	
0.189167	0.0251097	-1.8882	0.0063467	0.0475117	0	5	0	
0.189333	-0.00779135	2.47863	0.00646403	0.0473409	0	5	0	
0.1895	0.00509356	-1.93735	0.00675924	0.0483031	0	5	0	
0.189667	0.02006	2.48847	0.00698475	0.0485814	0	5	0	
0.189833	-0.0161016	-1.91813	0.00693854	0.0489155	0	5	0	
0.19	0.0116429	2.43683	0.00660453	0.0482659	0	5	0	
0.190167	0.00428468	-1.88205	0.00620983	0.047931	0	5	0	
0.190333	-0.0221107	2.4029	0.00599224	0.0475337	0	5	0	
0.1905	0.035098	-1.89005	0.00604127	0.0480501	0	5	0	
0.190667	-0.0326301	2.45078	0.00627505	0.0484209	0	5	0	
0.190833	0.0175407	-1.88404	0.00659099	0.0487683	0	5	0	
0.191	-0.00589377	2.4025	0.00680049	0.0484951	0	5	0	
0.191167	0.00170812	-1.86144	0.00680678	0.0484176	0	5	0	
0.191333	-0.0161904	2.39351	0.00663745	0.0481908	0	5	0	
0.1915	0.0111859	-1.85776	0.00648307	0.0483248	0	5	0	
0.191667	-0.0198369	2.3747	0.00643781	0.0482112	0	5	0	
0.191833	0.018712	-1.8439	0.00645583	0.048281	0	5	0	
0.192	-0.0315811	2.38594	0.00648775	0.048287	0	5	0	
0.192167	0.0181031	-1.85894	0.00652584	0.0484866	0	5	0	
0.192333	-0.0289361	2.35646	0.00653484	0.048523	0	5	0	
0.1925	0.0187093	-1.83845	0.00649063	0.0485325	0	5	0	
0.192667	-0.0415115	2.35536	0.00645581	0.0485463	0	5	0	
0.192833	0.0156966	-1.86363	0.00647981	0.0486558	0	5	0	
0.193	-0.0332207	2.35921	0.00651542	0.04881	0	5	0	
0.193167	0.00930429	-1.8244	0.00644974	0.0484214	0	5	0	
0.193333	-0.0325572	2.32258	0.00636611	0.0480359	0	5	0	
0.1935	0.0187214	-1.79387	0.00634621	0.0475892	0	5	0	
0.193667	-0.0466824	2.28553	0.0064127	0.0478677	0	5	0	
0.193833	0.0197666	-1.79081	0.00646815	0.0480316	0	5	0	
0.194	-0.0490436	2.28642	0.00652589	0.0483999	0	5	0	
0.194167	0.0151264	-1.84665	0.00656169	0.0485217	0	5	0	
0.194333	-0.0457397	2.38748	0.00660913	0.0492658	0	5	0	
0.1945	0.0238679	-1.84852	0.00659524	0.0495579	0	5	0	
0.194667	-0.0569049	2.26512	0.00656359	0.0496652	0	5	0	
0.194833	0.0269365	-1.75882	0.00650801	0.0488467	0	5	0	
0.195	-0.0615369	2.24469	0.00651275	0.0485712	0	5	0	
0.195167	0.0269429	-1.77887	0.00652311	0.0482897	0	5	0	
0.195333	-0.065309	2.22299	0.00654711	0.048585	0	5	0	
0.1955	0.0249161	-1.74544	0.00650255	0.0482157	0	5	0	
0.195667	-0.0677047	2.19742	0.00648581	0.0483577	0	5	0	
0.195833	0.0279474	-1.74675	0.00645072	0.0480823	0	5	0	
0.196	-0.0755111	2.19676	0.00649246	0.0485281	0	5	0	
0.196167	0.0363278	-1.74354	0.00650028	0.0483175	0	5	0	
0.196333	-0.0807235	2.17588	0.00653212	0.0486667	0	5	0	
0.1965	0.0345254	-1.7355	0.00650329	0.0483253	0	5	0	
0.196667	-0.0885901	2.16027	0.00655305	0.0487053	0	5	0	
0.196833	0.0345495	-1.72464	0.00656517	0.0483585	0	5	0	
0.197	-0.0866299	2.14982	0.00662171	0.0487399	0	5	0	
0.197167	0.0340323	-1.72451	0.00657115	0.0483577	0	5	0	
0.197333	-0.0865786	2.11809	0.00657217	0.0487667	0	5	0	
0.1975	0.0338675	-1.69596	0.006512	0.0483037	0	5	0	
0.197667	-0.0962344	2.10174	0.0065412	0.0486686	0	5	0	
0.197833	0.0384742	-1.68435	0.0064838	0.0481738	0	5	0	
0.198	-0.104288	2.09044	0.00651346	0.0486437	0	5	0	
0.198167	0.0437351	-1.68753	0.00647612	0.0482678	0	5	0	
0.198333	-0.109716	2.07139	0.00656274	0.0488018	0	5	0	
0.1985	0.0508638	-1.67319	0.00656664	0.0482875	0	5	0	
0.198667	-0.112346	2.05351	0.00665864	0.0486805	0	5	0	
0.198833	0.0469486	-1.65208	0.00664341	0.048102	0	5	0	
0.199	-0.112423	2.03402	0.00669238	0.0486205	0	5	0	
0.199167	0.0422175	-1.65411	0.00658961	0.0481619	0	5	0	
0.199333	-0.117208	2.01639	0.00658995	0.0487854	0	5	0	
0.1995	0.0474756	-1.65316	0.00648703	0.0483358	0	5	0	
0.199667	-0.116785	2.01529	0.0065218	0.048906	0	5	0	
0.199833	0.0527743	-1.632	0.0064457	0.0482593	0	5	0	
0.2	-0.125268	1.97543	0.00650617	0.04872	0	5	0	
0.200167	0.0501479	-1.62646	0.00646011	0.0481097	0	5	0	
0.200333	-0.13149	1.94764	0.00655446	0.0487755	0	5	0	
0.2005	0.052749	-1.61068	0.00649898	0.0482126	0	5	0	
0.200667	-0.130368	1.94095	0.00659126	0.0488245	0	5	0	
0.200833	0.0494356	-1.59912	0.00652671	0.0481851	0	5	0	
0.201	-0.127623	1.92328	0.00659973	0.0488729	0	5	0	
0.201167	0.0496176	-1.60168	0.00647323	0.048285	0	5	0	
0.201333	-0.136822	1.89852	0.00650884	0.048956	0	5	0	
0.2015	0.0610097	-1.57563	0.00640707	0.0481919	0	5	0	
0.201667	-0.158407	1.87072	0.0065379	0.0487092	0	5	0	
0.201833	0.0748806	-1.55748	0.00657952	0.0479227	0	5	0	
0.202	-0.147596	1.86328	0.00688528	0.0486956	0	5	0	
0.202167	0.0331375	-1.56796	0.00691731	0.0482039	0	5	0	
0.202333	-0.126169	1.8538	0.00693324	0.0491074	0	5	0	
0.2025	0.0440181	-1.58113	0.00657725	0.0484684	0	5	0	
0.202667	-0.143137	1.84342	0.00644787	0.0491103	0	5	0	
0.202833	0.0663473	-1.52392	0.00619078	0.0480949	0	5	0	
0.203	-0.174497	1.75968	0.00623327	0.0485456	0	5	0	
0.203167	0.0834608	-1.49607	0.0062325	0.0477555	0	5	0	
0.203333	-0.167052	1.78419	0.00667499	0.0487939	0	5	0	
0.2035	0.0545344	-1.5495	0.00687704	0.0483975	0	5	0	
0.203667	-0.1607	1.77247	0.0070239	0.0492522	0	5	0	
0.203833	0.0707235	-1.50508	0.00667967	0.048291	0	5	0	
0.204	-0.168836	1.71703	0.00665103	0.0488277	0	5	0	
0.204167	0.070622	-1.47579	0.00652311	0.0478171	0	5	0	
0.204333	-0.180984	1.68703	0.00670374	0.0485837	0	5	0	
0.2045	0.0781669	-1.4703	0.00659328	0.0478974	0	5	0	
0.204667	-0.167319	1.6968	0.00676206	0.0489458	0	5	0	
0.204833	0.0601266	-1.4816	0.00660804	0.0483197	0	5	0	
0.205	-0.177564	1.66469	0.00665147	0.0491145	0	5	0	
0.205167	0.080159	-1.44771	0.0063894	0.0481034	0	5	0	
0.205333	-0.187015	1.64843	0.00652152	0.048783	0	5	0	
0.2055	0.0716063	-1.44761	0.00639888	0.0479008	0	5	0	
0.205667	-0.187686	1.60319	0.00661108	0.0486691	0	5	0	
0.205833	0.0795831	-1.4019	0.0064529	0.047612	0	5	0	
0.206	-0.203482	1.57132	0.00661687	0.0483207	0	5	0	
0.206167	0.110629	-1.39053	0.00645567	0.0475541	0	5	0	
0.206333	-0.257572	1.58348	0.00682057	0.0486749	0	5	0	
0.2065	0.095982	-1.37393	0.00679911	0.0482858	0	5	0	
0.206667	-0.212477	1.51857	0.00715625	0.0493406	0	5	0	
0.206833	0.0798501	-1.40143	0.00677933	0.0485816	0	5	0	
0.207	-0.20067	1.55179	0.00674449	0.0492668	0	5	0	
0.207167	0.0907516	-1.37829	0.00628585	0.0482227	0	5	0	
0.207333	-0.231698	1.49704	0.00639399	0.0488191	0	5	0	
0.2075	0.0823048	-1.31102	0.00605656	0.0476506	0	5	0	
0.207667	-0.224521	1.41269	0.00628334	0.0481424	0	5	0	
0.207833	0.0917068	-1.31493	0.00610894	0.0471045	0	5	0	
0.208	-0.214387	1.44946	0.00647248	0.0482029	0	5	0	
0.208167	0.0951323	-1.32714	0.00625954	0.0479535	0	5	0	
0.208333	-0.217392	1.42201	0.00647758	0.049092	0	5	0	
0.2085	0.110204	-1.31	0.00626964	0.047947	0	5	0	
0.208667	-0.244382	1.37392	0.00655124	0.0484876	0	5	0	
0.208833	0.102501	-1.274	0.0064024	0.047675	0	5	0	
0.209	-0.220095	1.36214	0.00666333	0.0488488	0	5	0	
0.209167	0.0916261	-1.2841	0.00628892	0.0481577	0	5	0	
0.209333	-0.224414	1.36379	0.00640981	0.0489107	0	5	0	
0.2095	0.10066	-1.30559	0.0061399	0.0478056	0	5	0	
0.209667	-0.227745	1.33558	0.00647493	0.0485814	0	5	0	
0.209833	0.096254	-1.24856	0.00622238	0.0476484	0	5	0	
0.21	-0.240232	1.28249	0.00648302	0.0485099	0	5	0	
0.210167	0.10094	-1.24662	0.00626226	0.0475766	0	5	0	
0.210333	-0.218361	1.28166	0.00664365	0.0486333	0	5	0	
0.2105	0.0925092	-1.28369	0.00640152	0.0479208	0	5	0	
0.210667	-0.239261	1.36105	0.00662066	0.0490112	0	5	0	
0.210833	0.117342	-1.32024	0.00623799	0.0478625	0	5	0	
0.211	-0.258263	1.20578	0.00650347	0.0481812	0	5	0	
0.211167	0.1296	-1.1204	0.00626346	0.0462914	0	5	0	
0.211333	-0.266169	1.14303	0.00669243	0.0470284	0	5	0	
0.2115	0.119656	-1.21761	0.00655667	0.0468701	0	5	0	
0.211667	-0.245135	1.26775	0.00697709	0.0491626	0	5	0	
0.211833	0.103183	-1.2859	0.00657207	0.0493576	0	5	0	
0.212	-0.248412	1.26662	0.0066859	0.0506996	0	5	0	
0.212167	0.1132	-1.26313	0.00617986	0.0492824	0	5	0	
0.212333	-0.251346	1.15398	0.00645752	0.0491673	0	5	0	
0.2125	0.120654	-1.13043	0.00614108	0.0472263	0	5	0	
0.212667	-0.263367	1.0823	0.00654267	0.0480813	0	5	0	
0.212833	0.118677	-1.15482	0.00634268	0.0476775	0	5	0	
0.213	-0.256224	1.10695	0.00670747	0.0490565	0	5	0	
0.213167	0.127032	-1.13847	0.00629456	0.0480578	0	5	0	
0.213333	-0.279802	1.03505	0.00656409	0.0486113	0	5	0	
0.2135	0.132758	-1.09627	0.006302	0.0476001	0	5	0	
0.213667	-0.266732	1.02381	0.0067529	0.0486839	0	5	0	
0.213833	0.133628	-1.10867	0.0064035	0.047995	0	5	0	
0.214	-0.283966	1.01072	0.00669653	0.0489261	0	5	0	
0.214167	0.138772	-1.09405	0.00635685	0.0479632	0	5	0	
0.214333	-0.280081	0.980317	0.00676481	0.0488176	0	5	0	
0.2145	0.143132	-1.09262	0.0064099	0.0479481	0	5	0	
0.214667	-0.283591	0.971636	0.0067495	0.0488699	0	5	0	
0.214833	0.126162	-1.06641	0.00637047	0.04789	0	5	0	
0.215	-0.269462	0.926064	0.00670567	0.0486445	0	5	0	
0.215167	0.136055	-1.03975	0.00622055	0.047697	0	5	0	
0.215333	-0.286968	0.899699	0.00652182	0.0486843	0	5	0	
0.2155	0.144843	-1.04146	0.00614054	0.0480265	0	5	0	
0.215667	-0.286474	0.891012	0.00657578	0.049064	0	5	0	
0.215833	0.146947	-1.02773	0.00622713	0.0482372	0	5	0	
0.216	-0.296337	0.858382	0.00667345	0.0489963	0	5	0	
0.216167	0.152524	-1.00025	0.00634765	0.0480042	0	5	0	
0.216333	-0.295845	0.815288	0.00680325	0.0487846	0	5	0	
0.2165	0.146861	-0.98452	0.00638291	0.0480424	0	5	0	
0.216667	-0.287974	0.819084	0.00677014	0.049107	0	5	0	
0.216833	0.145219	-1.00448	0.00630875	0.0484579	0	5	0	
0.217	-0.301025	0.798203	0.00670063	0.049208	0	5	0	
0.217167	0.16377	-0.952251	0.00628465	0.0480361	0	5	0	
0.217333	-0.305126	0.729907	0.00678322	0.0485595	0	5	0	
0.2175	0.155895	-0.931236	0.00639804	0.0477286	0	5	0	
0.217667	-0.304764	0.728951	0.0068114	0.0486996	0	5	0	
0.217833	0.16439	-0.925804	0.00632122	0.0480125	0	5	0	
0.218	-0.311058	0.698612	0.00679965	0.048806	0	5	0	
0.218167	0.163237	-0.915697	0.00636778	0.0480459	0	5	0	
0.218333	-0.310291	0.685505	0.0067885	0.0488642	0	5	0	
0.2185	0.168047	-0.904478	0.00625698	0.0480991	0	5	0	
0.218667	-0.312245	0.65675	0.00671048	0.0488192	0	5	0	
0.218833	0.16331	-0.879935	0.00626136	0.0479806	0	5	0	
0.219	-0.31014	0.613385	0.00673019	0.0486876	0	5	0	
0.219167	0.154775	-0.849559	0.00616324	0.0480157	0	5	0	
0.219333	-0.300371	0.601007	0.00649444	0.0489331	0	5	0	
0.2195	0.1671	-0.859223	0.00589991	0.0483896	0	5	0	
0.219667	-0.327227	0.556937	0.00642766	0.0489784	0	5	0	
0.219833	0.178128	-0.82667	0.00611648	0.0478514	0	5	0	
0.22	-0.315497	0.53663	0.00673041	0.0482965	0	5	0	
0.220167	0.168361	-0.808993	0.00625991	0.0477907	0	5	0	
0.220333	-0.312204	0.517173	0.00673949	0.0488679	0	5	0	
0.2205	0.162622	-0.797153	0.00623827	0.0483102	0	5	0	
0.220667	-0.320874	0.490453	0.00674267	0.0488348	0	5	0	
0.220833	0.184947	-0.81197	0.00620711	0.0480171	0	5	0	
0.221	-0.329729	0.474749	0.00671803	0.0486332	0	5	0	
0.221167	0.181944	-0.740973	0.00624129	0.0479171	0	5	0	
0.221333	-0.322962	0.418521	0.00679483	0.0485226	0	5	0	
0.2215	0.180567	-0.74036	0.00619621	0.0479287	0	5	0	
0.221667	-0.343565	0.419663	0.00664928	0.0486125	0	5	0	
0.221833	0.203023	-0.722469	0.00615084	0.0480127	0	5	0	
0.222	-0.324071	0.389892	0.00687006	0.0485998	0	5	0	
0.222167	0.167269	-0.734167	0.00634809	0.0481962	0	5	0	
0.222333	-0.326907	0.404244	0.00670528	0.0489826	0	5	0	
0.2225	0.199709	-0.72204	0.00597046	0.0482792	0	5	0	
0.222667	-0.345021	0.330979	0.00657598	0.0484182	0	5	0	
0.222833	0.205955	-0.653153	0.00619562	0.0475459	0	5	0	
0.223	-0.357395	0.30277	0.00692093	0.04824	0	5	0	
0.223167	0.20813	-0.662038	0.0064333	0.0481389	0	5	0	
0.223333	-0.33017	0.307999	0.00703963	0.0489768	0	5	0	
0.2235	0.183842	-0.672496	0.00634619	0.0485005	0	5	0	
0.223667	-0.337377	0.269032	0.00676056	0.0488024	0	5	0	
0.223833	0.208112	-0.619463	0.00605246	0.0480645	0	5	0	
0.224	-0.35763	0.227536	0.00671478	0.0484545	0	5	0	
0.224167	0.207793	-0.606608	0.00622612	0.048067	0	5	0	
0.224333	-0.343803	0.22186	0.00688293	0.0486873	0	5	0	
0.2245	0.208967	-0.599867	0.00621834	0.0483138	0	5	0	
0.224667	-0.354061	0.18466	0.00679308	0.0486789	0	5	0	
0.224833	0.216659	-0.566953	0.00618466	0.0481449	0	5	0	
0.225	-0.358865	0.146261	0.00687361	0.0485048	0	5	0	
0.225167	0.214529	-0.552583	0.00626612	0.0481711	0	5	0	
0.225333	-0.354291	0.133488	0.00688354	0.0486688	0	5	0	
0.2255	0.218669	-0.536814	0.0062138	0.048287	0	5	0	
0.225667	-0.3564	0.10871	0.00685267	0.0485099	0	5	0	
0.225833	0.221591	-0.514628	0.0062253	0.0480549	0	5	0	
0.226	-0.360227	0.0671564	0.00688318	0.0484377	0	5	0	
0.226167	0.224979	-0.493655	0.00622135	0.0482127	0	5	0	
0.226333	-0.36394	0.0427172	0.00687674	0.0485296	0	5	0	
0.2265	0.228461	-0.481047	0.00622122	0.048145	0	5	0	
0.226667	-0.362818	0.0369694	0.00690281	0.0483787	0	5	0	
0.226833	0.227308	-0.468836	0.00622598	0.0481135	0	5	0	
0.227	-0.364537	-0.0133392	0.00687652	0.0484151	0	5	0	
0.227167	0.235124	-0.440439	0.00618721	0.0481698	0	5	0	
0.227333	-0.368928	-0.0240536	0.0068865	0.048441	0	5	0	
0.2275	0.232841	-0.433458	0.00620938	0.048226	0	5	0	
0.227667	-0.365419	-0.0435535	0.00688039	0.0484525	0	5	0	
0.227833	0.237614	-0.409867	0.00616077	0.0482006	0	5	0	
0.228	-0.369042	-0.0782595	0.00685144	0.0484164	0	5	0	
0.228167	0.238905	-0.401665	0.00617202	0.0482838	0	5	0	
0.228333	-0.36581	-0.0902096	0.00688436	0.0485818	0	5	0	
0.2285	0.23654	-0.370716	0.00615575	0.0484226	0	5	0	
0.228667	-0.369014	-0.128712	0.00683887	0.0485871	0	5	0	
0.228833	0.240638	-0.35009	0.00610366	0.0483639	0	5	0	
0.229	-0.370019	-0.158872	0.00682912	0.0485128	0	5	0	
0.229167	0.250679	-0.324192	0.00612625	0.0483529	0	5	0	
0.229333	-0.37618	-0.174937	0.00689422	0.0485823	0	5	0	
0.2295	0.250463	-0.314346	0.00620884	0.0484785	0	5	0	
0.229667	-0.374892	-0.199844	0.00696281	0.0485762	0	5	0	
0.229833	0.249346	-0.288408	0.00619604	0.0482275	0	5	0	
0.23	-0.372871	-0.240871	0.00688611	0.0482229	0	5	0	
0.230167	0.252587	-0.24874	0.00610072	0.048079	0	5	0	
0.230333	-0.380081	-0.260272	0.00684808	0.0484919	0	5	0	
0.2305	0.2663	-0.273303	0.0061531	0.048679	0	5	0	
0.230667	-0.382651	-0.245007	0.00696745	0.0489629	0	5	0	
0.230833	0.25835	-0.249948	0.00623115	0.048552	0	5	0	
0.231	-0.377641	-0.290072	0.00693453	0.0483115	0	5	0	
0.231167	0.270994	-0.208379	0.00615387	0.0478783	0	5	0	
0.231333	-0.386147	-0.348986	0.00696428	0.0479937	0	5	0	
0.2315	0.262816	-0.166552	0.00625072	0.0478926	0	5	0	
0.231667	-0.370717	-0.364759	0.00695406	0.0483672	0	5	0	
0.231833	0.262878	-0.183741	0.00608416	0.0485171	0	5	0	
0.232	-0.374359	-0.354174	0.00679031	0.048835	0	5	0	
0.232167	0.270849	-0.162346	0.0060335	0.04848	0	5	0	
0.232333	-0.386805	-0.398035	0.00684723	0.0485382	0	5	0	
0.2325	0.27795	-0.143159	0.00611281	0.0483559	0	5	0	
0.232667	-0.384429	-0.412575	0.00694235	0.0485868	0	5	0	
0.232833	0.278324	-0.0991761	0.00619146	0.0481196	0	5	0	
0.233	-0.379849	-0.49617	0.00698127	0.048131	0	5	0	
0.233167	0.275123	-0.0494302	0.00616017	0.0479091	0	5	0	
0.233333	-0.384243	-0.494412	0.00691635	0.0485631	0	5	0	
0.2335	0.283306	-0.0596739	0.00610121	0.0485077	0	5	0	
0.233667	-0.388078	-0.507189	0.00693458	0.0488033	0	5	0	
0.233833	0.279469	-0.0581349	0.00613282	0.04839	0	5	0	
0.234	-0.383996	-0.493064	0.00692818	0.048614	0	5	0	
0.234167	0.292466	-0.0350885	0.00611619	0.0479612	0	5	0	
0.234333	-0.391064	-0.574679	0.00696714	0.0478715	0	5	0	
0.2345	0.280026	0.00263406	0.00616089	0.0474666	0	5	0	
0.234667	-0.376421	-0.538516	0.00693481	0.0483673	0	5	0	
0.234833	0.274132	-0.038747	0.0059977	0.0483821	0	5	0	
0.235	-0.378903	-0.596883	0.00674775	0.048528	0	5	0	
0.235167	0.291313	0.0812221	0.0059102	0.0476285	0	5	0	
0.235333	-0.387429	-0.634985	0.00682397	0.0481824	0	5	0	
0.2355	0.292889	0.0409943	0.00607629	0.0482959	0	5	0	
0.235667	-0.391639	-0.640235	0.00698793	0.0490783	0	5	0	
0.235833	0.296259	0.0693717	0.00616105	0.0484699	0	5	0	
0.236	-0.389102	-0.648453	0.00701347	0.0488833	0	5	0	
0.236167	0.297965	0.0614887	0.0061491	0.0483641	0	5	0	
0.236333	-0.392568	-0.670374	0.0070051	0.0486399	0	5	0	
0.2365	0.306733	0.132131	0.00616697	0.0476603	0	5	0	
0.236667	-0.392777	-0.740348	0.00702998	0.0481274	0	5	0	
0.236833	0.299939	0.136298	0.00616246	0.0479262	0	5	0	
0.237	-0.390154	-0.71987	0.00699135	0.0489394	0	5	0	
0.237167	0.303924	0.140184	0.00609457	0.048266	0	5	0	
0.237333	-0.391904	-0.768492	0.00694133	0.0485755	0	5	0	
0.2375	0.307054	0.187218	0.00608286	0.0478271	0	5	0	
0.237667	-0.388131	-0.764841	0.00695527	0.0487357	0	5	0	
0.237833	0.308727	0.178997	0.00609338	0.0482111	0	5	0	
0.238	-0.391718	-0.801978	0.00695954	0.0486872	0	5	0	
0.238167	0.311581	0.222631	0.00609447	0.0477351	0	5	0	
0.238333	-0.391692	-0.81238	0.00695296	0.0485238	0	5	0	
0.2385	0.313295	0.221146	0.0060897	0.0480077	0	5	0	
0.238667	-0.39154	-0.843501	0.00697434	0.0487586	0	5	0	
0.238833	0.314208	0.267575	0.00608597	0.0478137	0	5	0	
0.239	-0.386791	-0.860955	0.00693649	0.0485741	0	5	0	
0.239167	0.316979	0.273009	0.00602396	0.0479871	0	5	0	
0.239333	-0.387698	-0.877469	0.0069163	0.0489308	0	5	0	
0.2395	0.321415	0.295866	0.00605263	0.0480224	0	5	0	
0.239667	-0.396523	-0.912971	0.00697346	0.0487465	0	5	0	
0.239833	0.325896	0.311732	0.00611994	0.0479059	0	5	0	
0.24	-0.391385	-0.919556	0.00702149	0.0488467	0	5	0	
0.240167	0.324641	0.342004	0.00612242	0.0479317	0	5	0	
0.240333	-0.387849	-0.958638	0.00700486	0.0487801	0	5	0	
0.2405	0.324806	0.360139	0.00607804	0.0478676	0	5	0	
0.240667	-0.396286	-0.97549	0.00698543	0.0489035	0	5	0	
0.240833	0.329759	0.378435	0.00610464	0.0479777	0	5	0	
0.241	-0.386645	-0.992684	0.00701554	0.04889	0	5	0	
0.241167	0.329823	0.403319	0.00608915	0.0478595	0	5	0	
0.241333	-0.392561	-1.00573	0.00696388	0.0489128	0	5	0	
0.2415	0.337633	0.416376	0.00609146	0.0479543	0	5	0	
0.241667	-0.397903	-1.04657	0.00703862	0.048921	0	5	0	
0.241833	0.335962	0.450947	0.00616354	0.0477455	0	5	0	
0.242	-0.390473	-1.05847	0.00705606	0.0487811	0	5	0	
0.242167	0.335105	0.465084	0.00610624	0.0477295	0	5	0	
0.242333	-0.384542	-1.07065	0.0069681	0.0488507	0	5	0	
0.2425	0.336259	0.489901	0.00603999	0.0477632	0	5	0	
0.242667	-0.388974	-1.11076	0.00694744	0.0489644	0	5	0	
0.242833	0.339365	0.501518	0.00605824	0.0478579	0	5	0	
0.243	-0.388547	-1.10288	0.00696936	0.0489525	0	5	0	
0.243167	0.340804	0.510089	0.00606092	0.0476719	0	5	0	
0.243333	-0.385525	-1.11707	0.00696952	0.0487555	0	5	0	
0.2435	0.338554	0.540202	0.00605456	0.047487	0	5	0	
0.243667	-0.377614	-1.15901	0.00694335	0.0486503	0	5	0	
0.243833	0.330469	0.562368	0.00595897	0.0473882	0	5	0	
0.244	-0.379586	-1.18401	0.00682716	0.0486696	0	5	0	
0.244167	0.352215	0.611221	0.00594011	0.047531	0	5	0	
0.244333	-0.396552	-1.19965	0.00695647	0.0490843	0	5	0	
0.2445	0.359009	0.594666	0.006164	0.0481031	0	5	0	
0.244667	-0.391596	-1.18528	0.00713764	0.0495629	0	5	0	
0.244833	0.350175	0.595483	0.00620703	0.0482354	0	5	0	
0.245	-0.374806	-1.20478	0.00705223	0.0493207	0	5	0	
0.245167	0.330115	0.628802	0.00597674	0.0476214	0	5	0	
0.245333	-0.369411	-1.25418	0.00677226	0.0485859	0	5	0	
0.2455	0.353852	0.706606	0.00581777	0.0470023	0	5	0	
0.245667	-0.385263	-1.31125	0.00683999	0.048627	0	5	0	
0.245833	0.352699	0.705895	0.0060269	0.0477058	0	5	0	
0.246	-0.380259	-1.2758	0.00698012	0.0495315	0	5	0	
0.246167	0.353739	0.697637	0.00604455	0.0481054	0	5	0	
0.246333	-0.37987	-1.29624	0.00696675	0.0493213	0	5	0	
0.2465	0.358202	0.722342	0.00604321	0.0476484	0	5	0	
0.246667	-0.383869	-1.31598	0.00698637	0.0490153	0	5	0	
0.246833	0.360054	0.743671	0.00607495	0.0474764	0	5	0	
0.247	-0.379738	-1.33457	0.00700241	0.0489651	0	5	0	
0.247167	0.360412	0.772421	0.00607786	0.0475301	0	5	0	
0.247333	-0.379078	-1.35305	0.00699603	0.0491627	0	5	0	
0.2475	0.357697	0.784531	0.00606568	0.0476213	0	5	0	
0.247667	-0.377736	-1.38045	0.00697325	0.0490744	0	5	0	
0.247833	0.361311	0.811936	0.00603703	0.0473903	0	5	0	
0.248	-0.377328	-1.38194	0.00696514	0.0490073	0	5	0	
0.248167	0.370619	0.827376	0.00607202	0.0475395	0	5	0	
0.248333	-0.379183	-1.40604	0.007044	0.0492542	0	5	0	
0.2485	0.360799	0.850013	0.00612629	0.0476131	0	5	0	
0.248667	-0.378815	-1.43701	0.0070331	0.0492204	0	5	0	
0.248833	0.365617	0.869326	0.00608272	0.0475381	0	5	0	
0.249	-0.361288	-1.44474	0.00695932	0.0492141	0	5	0	
0.249167	0.35988	0.907429	0.00596703	0.0475187	0	5	0	
0.249333	-0.370418	-1.46545	0.00685909	0.0493141	0	5	0	
0.2495	0.370564	0.906397	0.00596965	0.0477159	0	5	0	
0.249667	-0.368181	-1.47753	0.00696564	0.0494641	0	5	0	
0.249833	0.366683	0.925756	0.00603971	0.0475533	0	5	0	
0.25	-0.37386	-1.50078	0.0069707	0.0491208	0	5	0	
0.250167	0.372849	0.965635	0.00606244	0.0472426	0	5	0	
0.250333	-0.363617	-1.51401	0.00699522	0.0491324	0	5	0	
0.2505	0.370796	0.969502	0.00606872	0.0475242	0	5	0	
0.250667	-0.367971	-1.51669	0.00697742	0.0493989	0	5	0	
0.250833	0.375256	0.990685	0.00606917	0.0474676	0	5	0	
0.251	-0.368161	-1.55063	0.00702273	0.049156	0	5	0	
0.251167	0.373486	1.01883	0.0060889	0.0472695	0	5	0	
0.251333	-0.362695	-1.56603	0.00699634	0.0492185	0	5	0	
0.2515	0.374599	1.04589	0.00606043	0.0474651	0	5	0	
0.251667	-0.355888	-1.57659	0.00694936	0.0495086	0	5	0	
0.251833	0.368821	1.03278	0.00598664	0.0477462	0	5	0	
0.252	-0.361426	-1.56078	0.00688815	0.0495644	0	5	0	
0.252167	0.379623	1.06396	0.00600811	0.0473455	0	5	0	
0.252333	-0.361963	-1.61903	0.00700422	0.0490257	0	5	0	
0.2525	0.375117	1.10164	0.00609646	0.0471146	0	5	0	
0.252667	-0.352112	-1.61999	0.00697158	0.0493068	0	5	0	
0.252833	0.377193	1.11308	0.00599673	0.0474627	0	5	0	
0.253	-0.363482	-1.63948	0.00694462	0.0494471	0	5	0	
0.253167	0.380024	1.13541	0.00608528	0.0474346	0	5	0	
0.253333	-0.356134	-1.65072	0.00704132	0.0494522	0	5	0	
0.2535	0.383458	1.15371	0.0061064	0.0474361	0	5	0	
0.253667	-0.359477	-1.66149	0.00701734	0.0494675	0	5	0	
0.253833	0.374585	1.15285	0.00607336	0.0474273	0	5	0	
0.254	-0.345981	-1.65417	0.00695185	0.0494065	0	5	0	
0.254167	0.373678	1.18065	0.00598137	0.0472227	0	5	0	
0.254333	-0.345968	-1.685	0.00687784	0.0491285	0	5	0	
0.2545	0.376866	1.21485	0.00596212	0.046985	0	5	0	
0.254667	-0.347591	-1.71356	0.00689261	0.0491661	0	5	0	
0.254833	0.381361	1.22942	0.00600691	0.0472661	0	5	0	
0.255	-0.353006	-1.70554	0.00695504	0.0495706	0	5	0	
0.255167	0.383058	1.22638	0.00608898	0.0475189	0	5	0	
0.255333	-0.338637	-1.70005	0.00697873	0.0495205	0	5	0	
0.2555	0.376671	1.24921	0.00601746	0.0472304	0	5	0	
0.255667	-0.343893	-1.7368	0.00687495	0.0492647	0	5	0	
0.255833	0.386509	1.2811	0.0060013	0.0471565	0	5	0	
0.256	-0.34885	-1.76039	0.00697502	0.0494104	0	5	0	
0.256167	0.388589	1.31516	0.00613827	0.0472988	0	5	0	
0.256333	-0.340422	-1.76956	0.00703892	0.0496036	0	5	0	
0.2565	0.379212	1.30317	0.00608663	0.0475328	0	5	0	
0.256667	-0.334446	-1.76347	0.00690201	0.0497574	0	5	0	
0.256833	0.381397	1.33142	0.0059869	0.0473394	0	5	0	
0.257	-0.338823	-1.82451	0.00692838	0.0494244	0	5	0	
0.257167	0.389423	1.37691	0.00612098	0.0471999	0	5	0	
0.257333	-0.349905	-1.79704	0.00710157	0.049652	0	5	0	
0.2575	0.405985	1.35622	0.00628565	0.0474651	0	5	0	
0.257667	-0.347783	-1.8067	0.00722692	0.0496777	0	5	0	
0.257833	0.387094	1.37768	0.00628623	0.0472361	0	5	0	
0.258	-0.324522	-1.83507	0.00705895	0.0494065	0	5	0	
0.258167	0.368698	1.4154	0.00599525	0.0469846	0	5	0	
0.258333	-0.313334	-1.85371	0.00675358	0.0493564	0	5	0	
0.2585	0.385207	1.4347	0.00585563	0.0471973	0	5	0	
0.258667	-0.336247	-1.85293	0.00687295	0.0497585	0	5	0	
0.258833	0.391686	1.4316	0.00613414	0.0474176	0	5	0	
0.259	-0.333051	-1.85701	0.00709454	0.0496407	0	5	0	
0.259167	0.391235	1.45796	0.00618509	0.0471291	0	5	0	
0.259333	-0.32828	-1.87874	0.00704331	0.0494867	0	5	0	
0.2595	0.391013	1.47664	0.00613743	0.04711	0	5	0	
0.259667	-0.32577	-1.88653	0.00701807	0.0495381	0	5	0	
0.259833	0.385114	1.48405	0.00613766	0.0470312	0	5	0	
0.26	-0.321197	-1.89668	0.00699026	0.049412	0	5	0	
0.260167	0.385786	1.52427	0.00608167	0.0470424	0	5	0	
0.260333	-0.320096	-1.90996	0.00693766	0.0496515	0	5	0	
0.2605	0.387846	1.52726	0.00606303	0.047304	0	5	0	
0.260667	-0.315825	-1.91479	0.00695364	0.049747	0	5	0	
0.260833	0.385269	1.54162	0.00607196	0.0471879	0	5	0	
0.261	-0.31487	-1.93217	0.00693584	0.0496029	0	5	0	
0.261167	0.387648	1.57595	0.00605475	0.0471186	0	5	0	
0.261333	-0.317463	-1.94522	0.00694873	0.049688	0	5	0	
0.2615	0.38748	1.58738	0.00611173	0.047194	0	5	0	
0.261667	-0.310074	-1.96057	0.00697964	0.0496811	0	5	0	
0.261833	0.387438	1.60132	0.00608274	0.0470958	0	5	0	
0.262	-0.310928	-1.95273	0.00694845	0.0496298	0	5	0	
0.262167	0.391867	1.60203	0.00611326	0.0470689	0	5	0	
0.262333	-0.31373	-1.95517	0.0070165	0.0495441	0	5	0	
0.2625	0.388953	1.63627	0.00616293	0.0469096	0	5	0	
0.262667	-0.307096	-1.99393	0.00699877	0.0494857	0	5	0	
0.262833	0.385765	1.65016	0.00610605	0.0470463	0	5	0	
0.263	-0.304047	-1.97812	0.00695188	0.049726	0	5	0	
0.263167	0.386931	1.64897	0.00609995	0.0471763	0	5	0	
0.263333	-0.301135	-1.97724	0.00696243	0.0496542	0	5	0	
0.2635	0.385828	1.67553	0.00611092	0.0469562	0	5	0	
0.263667	-0.303356	-2.01497	0.0069665	0.0494402	0	5	0	
0.263833	0.380934	1.7025	0.0061145	0.0468485	0	5	0	
0.264	-0.286108	-2.01425	0.00686118	0.0495536	0	5	0	
0.264167	0.379068	1.71538	0.00593719	0.0471242	0	5	0	
0.264333	-0.296103	-2.01323	0.00676101	0.0498396	0	5	0	
0.2645	0.381454	1.70941	0.00599453	0.0471575	0	5	0	
0.264667	-0.285256	-2.00744	0.00684294	0.0495311	0	5	0	
0.264833	0.383064	1.72321	0.00600494	0.0466654	0	5	0	
0.265	-0.299528	-2.0398	0.00683877	0.0492242	0	5	0	
0.265167	0.39084	1.78309	0.00609853	0.0467394	0	5	0	
0.265333	-0.281944	-2.07107	0.00693768	0.0496874	0	5	0	
0.2655	0.371429	1.78893	0.00604451	0.0472358	0	5	0	
0.265667	-0.27985	-2.04792	0.00676842	0.0499637	0	5	0	
0.265833	0.379718	1.76909	0.00594424	0.0471756	0	5	0	
0.266	-0.284969	-2.05085	0.0068282	0.0496486	0	5	0	
0.266167	0.381582	1.80594	0.00607171	0.0467704	0	5	0	
0.266333	-0.282169	-2.07722	0.00687271	0.0494032	0	5	0	
0.2665	0.380665	1.83304	0.00602339	0.0467742	0	5	0	
0.266667	-0.279552	-2.08741	0.00682165	0.0496162	0	5	0	
0.266833	0.37317	1.82651	0.00600093	0.0469749	0	5	0	
0.267	-0.277941	-2.06653	0.00683051	0.0496966	0	5	0	
0.267167	0.383591	1.84045	0.00606351	0.0468564	0	5	0	
0.267333	-0.27976	-2.1009	0.00693457	0.0495131	0	5	0	
0.2675	0.383021	1.87441	0.00617718	0.0468048	0	5	0	
0.267667	-0.280492	-2.10805	0.00697887	0.0496613	0	5	0	
0.267833	0.377834	1.87828	0.00618309	0.0470294	0	5	0	
0.268	-0.268459	-2.1031	0.00693782	0.0498318	0	5	0	
0.268167	0.370711	1.89465	0.00609789	0.0470259	0	5	0	
0.268333	-0.272547	-2.12311	0.00685591	0.0497126	0	5	0	
0.2685	0.383223	1.91113	0.00611247	0.046906	0	5	0	
0.268667	-0.265992	-2.13003	0.00689715	0.049735	0	5	0	
0.268833	0.366974	1.92927	0.00608693	0.0471256	0	5	0	
0.269	-0.263448	-2.12549	0.00679204	0.050007	0	5	0	
0.269167	0.372289	1.91869	0.00602419	0.0471996	0	5	0	
0.269333	-0.264943	-2.13137	0.00680665	0.0497485	0	5	0	
0.2695	0.377549	1.95765	0.00610876	0.0468058	0	5	0	
0.269667	-0.267656	-2.15082	0.00690068	0.049632	0	5	0	
0.269833	0.377652	1.97173	0.00618415	0.0470172	0	5	0	
0.27	-0.26329	-2.16382	0.00692841	0.0499046	0	5	0	
0.270167	0.372791	1.99392	0.00615836	0.047152	0	5	0	
0.270333	-0.260578	-2.15048	0.00688928	0.0499462	0	5	0	
0.2705	0.374612	1.97738	0.00616037	0.0471002	0	5	0	
0.270667	-0.255621	-2.15957	0.00690466	0.0497707	0	5	0	
0.270833	0.367561	2.00892	0.00614951	0.0468792	0	5	0	
0.271	-0.250987	-2.1675	0.00684049	0.0497039	0	5	0	
0.271167	0.37112	2.02187	0.00609022	0.0469869	0	5	0	
0.271333	-0.253131	-2.16297	0.00684848	0.0498112	0	5	0	
0.2715	0.368934	2.0278	0.00615003	0.0469749	0	5	0	
0.271667	-0.248803	-2.17921	0.00689384	0.0498068	0	5	0	
0.271833	0.368245	2.03811	0.00615302	0.0470324	0	5	0	
0.272	-0.24783	-2.17756	0.00686836	0.0498478	0	5	0	
0.272167	0.368669	2.05782	0.00613993	0.0469293	0	5	0	
0.272333	-0.244515	-2.17788	0.00685651	0.0496642	0	5	0	
0.2725	0.360921	2.06962	0.00611289	0.0468004	0	5	0	
0.272667	-0.235779	-2.20969	0.00679615	0.049713	0	5	0	
0.272833	0.358414	2.08848	0.0060461	0.0469953	0	5	0	
0.273	-0.236568	-2.18238	0.00675741	0.0499085	0	5	0	
0.273167	0.367235	2.07641	0.00608343	0.046989	0	5	0	
0.273333	-0.245093	-2.19038	0.00685372	0.0496805	0	5	0	
0.2735	0.363795	2.10546	0.00617913	0.0467717	0	5	0	
0.273667	-0.234705	-2.20722	0.00685059	0.0496769	0	5	0	
0.273833	0.359383	2.12179	0.00610375	0.04694	0	5	0	
0.274	-0.235744	-2.21823	0.006785	0.0498699	0	5	0	
0.274167	0.362693	2.14415	0.00611587	0.0470624	0	5	0	
0.274333	-0.232757	-2.21452	0.00684682	0.0499687	0	5	0	
0.2745	0.358392	2.13176	0.00617155	0.0470854	0	5	0	
0.274667	-0.234834	-2.21263	0.00685522	0.0498446	0	5	0	
0.274833	0.358029	2.16355	0.00615247	0.0468928	0	5	0	
0.275	-0.228514	-2.22806	0.00681617	0.049791	0	5	0	
0.275167	0.35544	2.16375	0.00613233	0.046933	0	5	0	
0.275333	-0.227572	-2.21575	0.00681884	0.0497742	0	5	0	
0.2755	0.355484	2.17605	0.00615191	0.0468175	0	5	0	
0.275667	-0.225155	-2.22947	0.00683947	0.049682	0	5	0	
0.275833	0.357264	2.2015	0.00617073	0.0468859	0	5	0	
0.276	-0.224392	-2.2386	0.00685202	0.0498587	0	5	0	
0.276167	0.351537	2.19966	0.00618516	0.0469814	0	5	0	
0.276333	-0.221942	-2.23686	0.00682357	0.049827	0	5	0	
0.2765	0.353851	2.21841	0.00615252	0.0470041	0	5	0	
0.276667	-0.218443	-2.24345	0.00681703	0.049976	0	5	0	
0.276833	0.352463	2.23833	0.00616832	0.0471647	0	5	0	
0.277	-0.217594	-2.2437	0.00683344	0.0500277	0	5	0	
0.277167	0.350477	2.21684	0.0061711	0.0470805	0	5	0	
0.277333	-0.214665	-2.24655	0.00680284	0.0498351	0	5	0	
0.2775	0.348084	2.26548	0.00613847	0.0468876	0	5	0	
0.277667	-0.214016	-2.26081	0.00680653	0.0498621	0	5	0	
0.277833	0.349778	2.24573	0.00620963	0.0470406	0	5	0	
0.278	-0.211232	-2.25921	0.00684702	0.0498911	0	5	0	
0.278167	0.34776	2.28092	0.00618282	0.0469446	0	5	0	
0.278333	-0.212799	-2.26763	0.00679911	0.0499064	0	5	0	
0.2785	0.349121	2.27306	0.00617433	0.0471501	0	5	0	
0.278667	-0.203116	-2.24806	0.00680868	0.0500046	0	5	0	
0.278833	0.343587	2.27731	0.0061687	0.0469366	0	5	0	
0.279	-0.202726	-2.29268	0.00676869	0.0497091	0	5	0	
0.279167	0.340564	2.33133	0.00613047	0.0470652	0	5	0	
0.279333	-0.206817	-2.26761	0.00676569	0.0502178	0	5	0	
0.2795	0.342304	2.28978	0.00622564	0.0474448	0	5	0	
0.279667	-0.198032	-2.25914	0.00688105	0.0500206	0	5	0	
0.279833	0.343309	2.31033	0.00627047	0.0469535	0	5	0	
0.28	-0.201091	-2.2606	0.0068293	0.0496857	0	5	0	
0.280167	0.344188	2.32025	0.00620067	0.0469218	0	5	0	
0.280333	-0.202886	-2.29184	0.00682457	0.0498158	0	5	0	
0.2805	0.335087	2.36446	0.00624526	0.0470899	0	5	0	
0.280667	-0.193009	-2.28635	0.00681722	0.050053	0	5	0	
0.280833	0.333193	2.33048	0.00619315	0.0472712	0	5	0	
0.281	-0.19101	-2.27326	0.00675236	0.0499682	0	5	0	
0.281167	0.326454	2.38124	0.00615544	0.0470546	0	5	0	
0.281333	-0.176561	-2.30415	0.00669222	0.0499507	0	5	0	
0.2815	0.325407	2.36444	0.00610275	0.0472408	0	5	0	
0.281667	-0.18955	-2.26711	0.00673889	0.0499724	0	5	0	
0.281833	0.334448	2.36812	0.00623668	0.046904	0	5	0	
0.282	-0.190083	-2.29771	0.00683097	0.0496929	0	5	0	
0.282167	0.328289	2.38981	0.00622085	0.0470104	0	5	0	
0.282333	-0.183147	-2.26609	0.00670556	0.0499428	0	5	0	
0.2825	0.321741	2.36965	0.00607425	0.0470115	0	5	0	
0.282667	-0.176187	-2.27265	0.00660655	0.0496254	0	5	0	
0.282833	0.330457	2.40018	0.00609674	0.0467551	0	5	0	
0.283	-0.184558	-2.28569	0.00672798	0.049673	0	5	0	
0.283167	0.322541	2.40289	0.006202	0.0469667	0	5	0	
0.283333	-0.179366	-2.28965	0.00674918	0.0498047	0	5	0	
0.2835	0.328666	2.42986	0.00622282	0.046991	0	5	0	
0.283667	-0.179607	-2.29466	0.00679058	0.0498719	0	5	0	
0.283833	0.321634	2.42304	0.00623042	0.0471069	0	5	0	
0.284	-0.178812	-2.28844	0.0067499	0.0498657	0	5	0	
0.284167	0.326888	2.43043	0.00624653	0.046982	0	5	0	
0.284333	-0.172902	-2.28561	0.0068102	0.0497347	0	5	0	
0.2845	0.314438	2.43373	0.00622908	0.0469673	0	5	0	
0.284667	-0.167577	-2.28665	0.00670164	0.0497503	0	5	0	
0.284833	0.317361	2.45253	0.00618318	0.0469669	0	5	0	
0.285	-0.173389	-2.29623	0.00676119	0.0497639	0	5	0	
0.285167	0.31823	2.45451	0.00627485	0.0470097	0	5	0	
0.285333	-0.172151	-2.29344	0.00679382	0.049817	0	5	0	
0.2855	0.318851	2.47314	0.00626618	0.0470745	0	5	0	
0.285667	-0.16764	-2.30718	0.00677086	0.0498908	0	5	0	
0.285833	0.310712	2.4738	0.00623787	0.0471597	0	5	0	
0.286	-0.162579	-2.28071	0.00670443	0.0498321	0	5	0	
0.286167	0.307461	2.45686	0.0061862	0.0469434	0	5	0	
0.286333	-0.162468	-2.28179	0.00670963	0.0495576	0	5	0	
0.2865	0.3083	2.48087	0.00624544	0.0467337	0	5	0	
0.286667	-0.159431	-2.29871	0.00672995	0.0495198	0	5	0	
0.286833	0.306906	2.48683	0.00621259	0.0468673	0	5	0	
0.287	-0.159254	-2.29074	0.0067006	0.0496873	0	5	0	
0.287167	0.305521	2.49921	0.00625472	0.0469998	0	5	0	
0.287333	-0.158646	-2.29418	0.00676678	0.0497294	0	5	0	
0.2875	0.306047	2.49304	0.00627992	0.0470128	0	5	0	
0.287667	-0.154725	-2.29163	0.00671174	0.0496876	0	5	0	
0.287833	0.302179	2.51161	0.00619724	0.0469674	0	5	0	
0.288	-0.151116	-2.30319	0.00666704	0.0497139	0	5	0	
0.288167	0.298563	2.51788	0.00620992	0.0470384	0	5	0	
0.288333	-0.152937	-2.29328	0.00669586	0.0497408	0	5	0	
0.2885	0.300191	2.52681	0.00623649	0.0469997	0	5	0	
0.288667	-0.151898	-2.30864	0.00669593	0.0497258	0	5	0	
0.288833	0.30051	2.53795	0.00623087	0.0471234	0	5	0	
0.289	-0.146408	-2.29033	0.0067016	0.0498533	0	5	0	
0.289167	0.29506	2.52313	0.00625816	0.0470609	0	5	0	
0.289333	-0.151351	-2.29687	0.00673735	0.0496332	0	5	0	
0.2895	0.292627	2.54625	0.00628672	0.0469376	0	5	0	
0.289667	-0.143583	-2.30113	0.00672262	0.0497042	0	5	0	
0.289833	0.288908	2.54903	0.00624843	0.0470414	0	5	0	
0.29	-0.141543	-2.29684	0.00666621	0.0496945	0	5	0	
0.290167	0.286026	2.54851	0.00623488	0.047008	0	5	0	
0.290333	-0.145488	-2.29473	0.00670108	0.0496789	0	5	0	
0.2905	0.28976	2.55911	0.00629985	0.0469921	0	5	0	
0.290667	-0.142027	-2.29698	0.00672384	0.0496258	0	5	0	
0.290833	0.283336	2.55302	0.00624456	0.0469226	0	5	0	
0.291	-0.138192	-2.29289	0.00660999	0.0495655	0	5	0	
0.291167	0.279534	2.56733	0.00618959	0.0469251	0	5	0	
0.291333	-0.138574	-2.30051	0.00664799	0.0496201	0	5	0	
0.2915	0.282229	2.57028	0.00628641	0.047023	0	5	0	
0.291667	-0.140802	-2.28336	0.00670974	0.0496085	0	5	0	
0.291833	0.288276	2.57757	0.00631241	0.0469372	0	5	0	
0.292	-0.141174	-2.29841	0.00671555	0.0495385	0	5	0	
0.292167	0.283065	2.58735	0.00630194	0.0469683	0	5	0	
0.292333	-0.132522	-2.29281	0.00667272	0.0496208	0	5	0	
0.2925	0.273224	2.58651	0.00624314	0.047042	0	5	0	
0.292667	-0.132911	-2.29535	0.00666365	0.0496349	0	5	0	
0.292833	0.283711	2.61178	0.00636101	0.0470623	0	5	0	
0.293	-0.139201	-2.29093	0.00687917	0.0496528	0	5	0	
0.293167	0.282712	2.59238	0.00654426	0.0470471	0	5	0	
0.293333	-0.128936	-2.28732	0.00688066	0.0495632	0	5	0	
0.2935	0.273384	2.61225	0.00639739	0.0469679	0	5	0	
0.293667	-0.134151	-2.30217	0.00675746	0.0495977	0	5	0	
0.293833	0.276207	2.62068	0.0063886	0.0471273	0	5	0	
0.294	-0.123244	-2.28659	0.006759	0.0497181	0	5	0	
0.294167	0.257046	2.61316	0.00630916	0.0471333	0	5	0	
0.294333	-0.117984	-2.28413	0.00661059	0.0496167	0	5	0	
0.2945	0.263579	2.61196	0.00621265	0.0470294	0	5	0	
0.294667	-0.120157	-2.28401	0.00664009	0.0495289	0	5	0	
0.294833	0.270749	2.628	0.00639654	0.0469892	0	5	0	
0.295	-0.131792	-2.29125	0.00683852	0.0495261	0	5	0	
0.295167	0.263901	2.63865	0.00643876	0.0470823	0	5	0	
0.295333	-0.118776	-2.29343	0.00668011	0.0496542	0	5	0	
0.2955	0.258972	2.63378	0.00624741	0.0471745	0	5	0	
0.295667	-0.110688	-2.27481	0.00660065	0.0496004	0	5	0	
0.295833	0.256479	2.63572	0.00628306	0.0470217	0	5	0	
0.296	-0.120602	-2.29405	0.00666013	0.0494918	0	5	0	
0.296167	0.263327	2.65065	0.00631812	0.0471529	0	5	0	
0.296333	-0.114813	-2.28193	0.00663407	0.0496897	0	5	0	
0.2965	0.252425	2.6456	0.00623513	0.0472534	0	5	0	
0.296667	-0.108507	-2.2756	0.00655013	0.0495938	0	5	0	
0.296833	0.252598	2.64584	0.00624885	0.0470774	0	5	0	
0.297	-0.116181	-2.28103	0.00665009	0.0494767	0	5	0	
0.297167	0.258687	2.65855	0.00633429	0.0470922	0	5	0	
0.297333	-0.111219	-2.28156	0.00663629	0.0495735	0	5	0	
0.2975	0.245291	2.65632	0.00627341	0.0471732	0	5	0	
0.297667	-0.104134	-2.27272	0.00660381	0.0495236	0	5	0	
0.297833	0.251445	2.65424	0.00631686	0.0470868	0	5	0	
0.298	-0.113409	-2.26433	0.00666036	0.049443	0	5	0	
0.298167	0.246717	2.65267	0.00632012	0.0470223	0	5	0	
0.298333	-0.108385	-2.28115	0.00661116	0.0494124	0	5	0	
0.2985	0.252283	2.68763	0.0063158	0.0471547	0	5	0	
0.298667	-0.109296	-2.27477	0.00663058	0.0496515	0	5	0	
0.298833	0.240943	2.65949	0.00626239	0.0473151	0	5	0	
0.299	-0.101891	-2.26423	0.0065124	0.0495274	0	5	0	
0.299167	0.244117	2.6712	0.00622235	0.0471083	0	5	0	
0.299333	-0.104746	-2.26471	0.00656212	0.0494236	0	5	0	
0.2995	0.241104	2.67234	0.00626181	0.0471031	0	5	0	
0.299667	-0.102648	-2.27023	0.0065643	0.049422	0	5	0	
0.299833	0.243475	2.69194	0.00631733	0.0471529	0	5	0	
0.3	-0.110285	-2.27896	0.00666859	0.0495946	0	5	0	
0.300167	0.246893	2.68838	0.00638374	0.047398	0	5	0	
0.300333	-0.105584	-2.25655	0.00664997	0.049664	0	5	0	
0.3005	0.241791	2.66921	0.00633576	0.0472196	0	5	0	
0.300667	-0.101573	-2.25634	0.00661171	0.0493437	0	5	0	
0.300833	0.235423	2.67684	0.00632062	0.0470312	0	5	0	
0.301	-0.101725	-2.26069	0.00660439	0.0493343	0	5	0	
0.301167	0.234642	2.69593	0.00633677	0.0471543	0	5	0	
0.301333	-0.0989812	-2.26791	0.0066305	0.0494902	0	5	0	
0.3015	0.231169	2.69821	0.0063685	0.0472946	0	5	0	
0.301667	-0.0998336	-2.26591	0.00664145	0.0495642	0	5	0	
0.301833	0.231581	2.69082	0.00636975	0.0473052	0	5	0	
0.302	-0.0990582	-2.25811	0.00663347	0.049506	0	5	0	
0.302167	0.2339	2.69724	0.00638388	0.0472514	0	5	0	
0.302333	-0.0998744	-2.25669	0.00666352	0.0494381	0	5	0	
0.3025	0.226717	2.70251	0.00639356	0.0472543	0	5	0	
0.302667	-0.0933287	-2.25326	0.00662009	0.0494584	0	5	0	
0.302833	0.224935	2.69201	0.00634306	0.0472529	0	5	0	
0.303	-0.0916592	-2.24323	0.00661271	0.049378	0	5	0	
0.303167	0.222889	2.68818	0.00638113	0.0471058	0	5	0	
0.303333	-0.0889252	-2.24122	0.00665082	0.0492229	0	5	0	
0.3035	0.219738	2.70232	0.00639822	0.0470812	0	5	0	
0.303667	-0.0893422	-2.25457	0.00664447	0.049325	0	5	0	
0.303833	0.220356	2.71975	0.00639926	0.0473092	0	5	0	
0.304	-0.087928	-2.25452	0.00665824	0.049558	0	5	0	
0.304167	0.218992	2.70926	0.00640939	0.0474234	0	5	0	
0.304333	-0.0882295	-2.25727	0.00662846	0.0495177	0	5	0	
0.3045	0.213835	2.72827	0.00635378	0.0474232	0	5	0	
0.304667	-0.0832214	-2.25815	0.00657819	0.0496356	0	5	0	
0.304833	0.211332	2.71345	0.00635581	0.0475946	0	5	0	
0.305	-0.0849857	-2.22331	0.00659013	0.0495543	0	5	0	
0.305167	0.215751	2.6937	0.00633632	0.0472338	0	5	0	
0.305333	-0.0813285	-2.22544	0.00653414	0.0491492	0	5	0	
0.3055	0.203841	2.71531	0.00630585	0.0470209	0	5	0	
0.305667	-0.0779294	-2.25172	0.00659043	0.0492893	0	5	0	
0.305833	0.209029	2.7391	0.00644673	0.0473827	0	5	0	
0.306	-0.0874978	-2.25523	0.0067042	0.0496552	0	5	0	
0.306167	0.212509	2.71334	0.00647184	0.047573	0	5	0	
0.306333	-0.0861482	-2.20971	0.00665854	0.0494205	0	5	0	
0.3065	0.204457	2.69736	0.00641766	0.0471276	0	5	0	
0.306667	-0.0690026	-2.22313	0.00654469	0.0490569	0	5	0	
0.306833	0.191424	2.70755	0.00623459	0.0470755	0	5	0	
0.307	-0.081004	-2.22135	0.00642748	0.0491617	0	5	0	
0.307167	0.207577	2.71182	0.0062794	0.0471219	0	5	0	
0.307333	-0.0758938	-2.23291	0.00650802	0.0491608	0	5	0	
0.3075	0.194894	2.737	0.00629708	0.047327	0	5	0	
0.307667	-0.0776509	-2.23713	0.00652983	0.0494924	0	5	0	
0.307833	0.203275	2.73035	0.0063967	0.0476088	0	5	0	
0.308	-0.0825716	-2.22618	0.00664373	0.0494987	0	5	0	
0.308167	0.209117	2.728	0.00648263	0.0474599	0	5	0	
0.308333	-0.084536	-2.22978	0.00671687	0.0493886	0	5	0	
0.3085	0.198642	2.73823	0.00648339	0.0474953	0	5	0	
0.308667	-0.0647319	-2.21658	0.00657786	0.0494759	0	5	0	
0.308833	0.187039	2.72511	0.00630265	0.047514	0	5	0	
0.309	-0.0726188	-2.2113	0.00652145	0.0493447	0	5	0	
0.309167	0.193013	2.7249	0.00639475	0.0473415	0	5	0	
0.309333	-0.0694222	-2.21078	0.00663457	0.0492214	0	5	0	
0.3095	0.190328	2.73711	0.00645865	0.0473602	0	5	0	
0.309667	-0.0712492	-2.21539	0.00662865	0.0493505	0	5	0	
0.309833	0.188117	2.72153	0.00638844	0.0474754	0	5	0	
0.31	-0.0684009	-2.19939	0.00651239	0.0492761	0	5	0	
0.310167	0.180279	2.72676	0.0063036	0.0472937	0	5	0	
0.310333	-0.0675083	-2.21011	0.00648902	0.0491445	0	5	0	
0.3105	0.187253	2.73051	0.00635285	0.0473809	0	5	0	
0.310667	-0.066351	-2.19288	0.00655514	0.0492581	0	5	0	
0.310833	0.178472	2.7126	0.00637186	0.0473403	0	5	0	
0.311	-0.066782	-2.19837	0.00651272	0.0490567	0	5	0	
0.311167	0.181159	2.72198	0.00634662	0.0471958	0	5	0	
0.311333	-0.0676089	-2.19125	0.0065361	0.0490661	0	5	0	
0.3115	0.180361	2.7326	0.00640259	0.0473271	0	5	0	
0.311667	-0.0652546	-2.20471	0.00660599	0.0492011	0	5	0	
0.311833	0.18538	2.73674	0.00646816	0.0474861	0	5	0	
0.312	-0.0760439	-2.1982	0.00658309	0.0492226	0	5	0	
0.312167	0.174767	2.73147	0.00636978	0.0475726	0	5	0	
0.312333	-0.0622252	-2.18997	0.00652036	0.0493131	0	5	0	
0.3125	0.17352	2.73246	0.00640571	0.0476105	0	5	0	
0.312667	-0.059129	-2.18433	0.00656119	0.0491951	0	5	0	
0.312833	0.173167	2.72924	0.00640271	0.0474328	0	5	0	
0.313	-0.0660767	-2.20564	0.00655889	0.0492313	0	5	0	
0.313167	0.167651	2.76027	0.00642541	0.0477603	0	5	0	
0.313333	-0.0601026	-2.20273	0.00655994	0.0495863	0	5	0	
0.3135	0.171154	2.73612	0.00638866	0.0478756	0	5	0	
0.313667	-0.0614879	-2.18625	0.00651606	0.0493628	0	5	0	
0.313833	0.170741	2.7416	0.00638263	0.0476451	0	5	0	
0.314	-0.0619213	-2.191	0.00654375	0.0493386	0	5	0	
0.314167	0.170894	2.72214	0.00641972	0.0476208	0	5	0	
0.314333	-0.065139	-2.17972	0.00658667	0.0491972	0	5	0	
0.3145	0.168012	2.73832	0.00646635	0.0475066	0	5	0	
0.314667	-0.0571139	-2.19307	0.00660925	0.0492755	0	5	0	
0.314833	0.165148	2.73957	0.00646472	0.0477486	0	5	0	
0.315	-0.0583864	-2.17972	0.00658972	0.0493708	0	5	0	
0.315167	0.160607	2.72196	0.00643527	0.0476327	0	5	0	
0.315333	-0.0521222	-2.15942	0.00654596	0.0490985	0	5	0	
0.3155	0.155823	2.70894	0.00639688	0.0473435	0	5	0	
0.315667	-0.0510844	-2.15391	0.00651418	0.0488592	0	5	0	
0.315833	0.157855	2.7137	0.00636729	0.0472293	0	5	0	
0.316	-0.0546506	-2.15879	0.00648716	0.0488566	0	5	0	
0.316167	0.15779	2.71832	0.00637083	0.047311	0	5	0	
0.316333	-0.056542	-2.15912	0.00651004	0.0489252	0	5	0	
0.3165	0.158373	2.72163	0.00637986	0.0473848	0	5	0	
0.316667	-0.0506732	-2.16394	0.00648049	0.0490119	0	5	0	
0.316833	0.154171	2.71646	0.00634466	0.0474831	0	5	0	
0.317	-0.0594144	-2.1534	0.00649053	0.0490213	0	5	0	
0.317167	0.154656	2.71708	0.0064061	0.0474226	0	5	0	
0.317333	-0.0532957	-2.16193	0.00654986	0.0489935	0	5	0	
0.3175	0.155737	2.73231	0.0064522	0.0475578	0	5	0	
0.317667	-0.0576079	-2.1701	0.0065286	0.0492004	0	5	0	
0.317833	0.147729	2.72185	0.00627951	0.0477068	0	5	0	
0.318	-0.0434556	-2.13845	0.00623273	0.0490902	0	5	0	
0.318167	0.141563	2.70136	0.00610795	0.0474299	0	5	0	
0.318333	-0.0474358	-2.14597	0.00634297	0.0488411	0	5	0	
0.3185	0.145799	2.72948	0.00636313	0.0474336	0	5	0	
0.318667	-0.056627	-2.1629	0.00654995	0.0490797	0	5	0	
0.318833	0.160066	2.73269	0.0065146	0.0477456	0	5	0	
0.319	-0.0648625	-2.15765	0.0066566	0.0492795	0	5	0	
0.319167	0.152346	2.72107	0.0065162	0.0477843	0	5	0	
0.319333	-0.0478239	-2.13729	0.006534	0.0491191	0	5	0	
0.3195	0.140189	2.71538	0.00636274	0.0475963	0	5	0	
0.319667	-0.0418451	-2.14804	0.006448	0.0490361	0	5	0	
0.319833	0.134061	2.72551	0.00636538	0.0476713	0	5	0	
0.32	-0.0395582	-2.14571	0.00650165	0.0491474	0	5	0	
0.320167	0.134153	2.70842	0.00643096	0.0477051	0	5	0	
0.320333	-0.0463771	-2.13351	0.00653679	0.0490731	0	5	0	
0.3205	0.134421	2.72118	0.00642306	0.0476471	0	5	0	
0.320667	-0.037456	-2.12234	0.00649712	0.0490081	0	5	0	
0.320833	0.127028	2.67498	0.00642609	0.0474607	0	5	0	
0.321	-0.0445136	-2.10482	0.00654916	0.0486552	0	5	0	
0.321167	0.133514	2.71942	0.00646507	0.0472617	0	5	0	
0.321333	-0.0401158	-2.16216	0.00654059	0.0489389	0	5	0	
0.3215	0.136479	2.7406	0.00646053	0.0479267	0	5	0	
0.321667	-0.0429431	-2.13434	0.00654484	0.0493775	0	5	0	
0.321833	0.12124	2.71016	0.00639643	0.0478949	0	5	0	
0.322	-0.0363911	-2.11253	0.00642246	0.0490203	0	5	0	
0.322167	0.126745	2.68788	0.00634832	0.0475406	0	5	0	
0.322333	-0.0388334	-2.10267	0.00649515	0.0487971	0	5	0	
0.3225	0.130732	2.70052	0.00645914	0.0474495	0	5	0	
0.322667	-0.0363743	-2.11564	0.00654888	0.0488619	0	5	0	
0.322833	0.120083	2.70841	0.00644399	0.0476074	0	5	0	
0.323	-0.0329478	-2.11089	0.00650748	0.0489709	0	5	0	
0.323167	0.121716	2.67931	0.00642545	0.0475526	0	5	0	
0.323333	-0.0390046	-2.0918	0.00654496	0.0487509	0	5	0	
0.3235	0.120455	2.69582	0.00650439	0.0473627	0	5	0	
0.323667	-0.0344751	-2.10596	0.00657176	0.0487247	0	5	0	
0.323833	0.119451	2.68935	0.00644756	0.0474629	0	5	0	
0.324	-0.0368381	-2.11108	0.00647663	0.0488094	0	5	0	
0.324167	0.11758	2.71104	0.0063785	0.0476125	0	5	0	
0.324333	-0.0366721	-2.13235	0.00645561	0.0490509	0	5	0	
0.3245	0.117181	2.69999	0.00639684	0.0478964	0	5	0	
0.324667	-0.0365832	-2.07706	0.00646669	0.0489993	0	5	0	
0.324833	0.116602	2.67679	0.00638915	0.0474985	0	5	0	
0.325	-0.0375174	-2.1096	0.00646208	0.0486746	0	5	0	
0.325167	0.11585	2.69895	0.00638355	0.0475639	0	5	0	
0.325333	-0.0282692	-2.08961	0.00642202	0.0489179	0	5	0	
0.3255	0.106205	2.6826	0.00637497	0.0476544	0	5	0	
0.325667	-0.0362989	-2.10421	0.00652574	0.0488473	0	5	0	
0.325833	0.111204	2.69867	0.00650737	0.0476973	0	5	0	
0.326	-0.0281988	-2.08649	0.00652092	0.0489117	0	5	0	
0.326167	0.107703	2.66743	0.00640328	0.0475962	0	5	0	
0.326333	-0.032584	-2.08728	0.0064722	0.0487186	0	5	0	
0.3265	0.104657	2.69297	0.00642492	0.0475383	0	5	0	
0.326667	-0.0297915	-2.08726	0.00647237	0.0488169	0	5	0	
0.326833	0.106805	2.67372	0.00641419	0.04766	0	5	0	
0.327	-0.0315212	-2.08673	0.00650048	0.0488329	0	5	0	
0.327167	0.102116	2.6814	0.00644697	0.0476564	0	5	0	
0.327333	-0.0316524	-2.08006	0.00646241	0.0487938	0	5	0	
0.3275	0.0998217	2.65784	0.00637001	0.0475433	0	5	0	
0.327667	-0.0302979	-2.07738	0.00642994	0.0486388	0	5	0	
0.327833	0.103791	2.68959	0.00641331	0.0475642	0	5	0	
0.328	-0.0311706	-2.09128	0.00648359	0.0488298	0	5	0	
0.328167	0.0997341	2.67214	0.00641543	0.0477745	0	5	0	
0.328333	-0.0296798	-2.07561	0.00642383	0.0488245	0	5	0	
0.3285	0.0967349	2.67125	0.00634327	0.0476557	0	5	0	
0.328667	-0.0280942	-2.08216	0.00641058	0.0487761	0	5	0	
0.328833	0.097796	2.6698	0.00642873	0.0477428	0	5	0	
0.329	-0.0346828	-2.07259	0.00654288	0.0488363	0	5	0	
0.329167	0.0990123	2.67044	0.00651236	0.0477346	0	5	0	
0.329333	-0.0264335	-2.07638	0.00651969	0.0488176	0	5	0	
0.3295	0.0944637	2.66634	0.00643102	0.047759	0	5	0	
0.329667	-0.0227671	-2.05817	0.00645357	0.0487826	0	5	0	
0.329833	0.0909569	2.65978	0.0063799	0.0476377	0	5	0	
0.33	-0.0257923	-2.0761	0.00640743	0.0486979	0	5	0	
0.330167	0.093278	2.66399	0.00640179	0.0476906	0	5	0	
0.330333	-0.0320817	-2.06255	0.00653937	0.0487428	0	5	0	
0.3305	0.10215	2.65393	0.00654518	0.0476815	0	5	0	
0.330667	-0.0303394	-2.0472	0.00654679	0.0486531	0	5	0	
0.330833	0.0976412	2.6477	0.00642624	0.04758	0	5	0	
0.331	-0.0333335	-2.05103	0.00645824	0.0485393	0	5	0	
0.331167	0.0923984	2.64572	0.00645062	0.0475245	0	5	0	
0.331333	-0.0287036	-2.05714	0.00651457	0.0486095	0	5	0	
0.3315	0.0926245	2.65322	0.00645578	0.0477062	0	5	0	
0.331667	-0.0245992	-2.04247	0.00648283	0.0487201	0	5	0	
0.331833	0.0853902	2.65146	0.00645194	0.0476823	0	5	0	
0.332	-0.0246366	-2.05588	0.00650313	0.0485968	0	5	0	
0.332167	0.0855721	2.64947	0.00645721	0.0476731	0	5	0	
0.332333	-0.0289364	-2.0445	0.00648052	0.0486418	0	5	0	
0.3325	0.0890584	2.63353	0.0064463	0.0476725	0	5	0	
0.332667	-0.029307	-2.02399	0.00649208	0.0484665	0	5	0	
0.332833	0.0850262	2.63861	0.00645995	0.0474902	0	5	0	
0.333	-0.0236494	-2.04655	0.0064787	0.0485128	0	5	0	
0.333167	0.0803873	2.64365	0.00643944	0.047738	0	5	0	
0.333333	-0.0253538	-2.03391	0.00650867	0.0487417	0	5	0	
0.3335	0.0834394	2.6292	0.00652138	0.0477428	0	5	0	
0.333667	-0.0244911	-2.03222	0.0065456	0.0485875	0	5	0	
0.333833	0.0778458	2.64308	0.00646255	0.0476925	0	5	0	
0.334	-0.0194898	-2.03754	0.00647075	0.0486774	0	5	0	
0.334167	0.0743255	2.62491	0.00646431	0.0477813	0	5	0	
0.334333	-0.0243653	-2.03239	0.00650455	0.0486296	0	5	0	
0.3345	0.0753622	2.6357	0.00645353	0.0477198	0	5	0	
0.334667	-0.0260367	-2.03058	0.00645785	0.0486351	0	5	0	
0.334833	0.0768635	2.62922	0.00642082	0.0477857	0	5	0	
0.335	-0.0138801	-2.02534	0.00641757	0.048642	0	5	0	
0.335167	0.0658493	2.62427	0.00636917	0.0477675	0	5	0	
0.335333	-0.0232341	-2.03712	0.0064031	0.0486703	0	5	0	
0.3355	0.0748346	2.62379	0.0063796	0.04786	0	5	0	
0.335667	-0.0119116	-2.01872	0.00637016	0.0486766	0	5	0	
0.335833	0.0652061	2.62393	0.0063576	0.0477894	0	5	0	
0.336	-0.0200312	-2.02442	0.00647735	0.0485876	0	5	0	
0.336167	0.07656	2.61631	0.00653066	0.0478152	0	5	0	
0.336333	-0.0260146	-2.02302	0.00654046	0.048657	0	5	0	
0.3365	0.0738248	2.61592	0.00646356	0.0478447	0	5	0	
0.336667	-0.0218519	-2.02401	0.00645332	0.0486734	0	5	0	
0.336833	0.0666429	2.62719	0.00638201	0.0479252	0	5	0	
0.337	-0.0067516	-2.01558	0.0063562	0.0487543	0	5	0	
0.337167	0.0580191	2.59239	0.00636091	0.047877	0	5	0	
0.337333	-0.0161951	-1.99678	0.00648984	0.0485014	0	5	0	
0.3375	0.0654084	2.60795	0.00655275	0.0476629	0	5	0	
0.337667	-0.0193293	-2.01098	0.0065569	0.0485138	0	5	0	
0.337833	0.0602058	2.60413	0.00646149	0.0478512	0	5	0	
0.338	-0.0146472	-2.00174	0.00640397	0.0486306	0	5	0	
0.338167	0.0587831	2.5988	0.0063442	0.0478209	0	5	0	
0.338333	-0.011426	-2.0034	0.00636556	0.0485363	0	5	0	
0.3385	0.0587509	2.59682	0.00639274	0.0477551	0	5	0	
0.338667	-0.0139352	-2.00078	0.0064663	0.048508	0	5	0	
0.338833	0.058329	2.6035	0.00647584	0.0478264	0	5	0	
0.339	-0.0206087	-2.00084	0.00648593	0.0485596	0	5	0	
0.339167	0.0624075	2.57056	0.00644149	0.0477663	0	5	0	
0.339333	-0.0123008	-1.99016	0.00643624	0.0482849	0	5	0	
0.3395	0.0515158	2.62201	0.00644629	0.0476853	0	5	0	
0.339667	-0.0133518	-2.03844	0.00652276	0.0487831	0	5	0	
0.339833	0.0509244	2.62974	0.00653459	0.0486091	0	5	0	
0.34	-0.00724071	-2.03633	0.00654213	0.0495641	0	5	0	
0.340167	0.0546598	2.60931	0.00655485	0.0487655	0	5	0	
0.340333	-0.019906	-1.98677	0.00660627	0.0489784	0	5	0	
0.3405	0.0490135	2.56228	0.00655873	0.0479117	0	5	0	
0.340667	-0.00522566	-1.95176	0.00648033	0.0483501	0	5	0	
0.340833	0.0464972	2.54812	0.00642437	0.0476941	0	5	0	
0.341	-0.00698025	-1.96371	0.00644123	0.0483719	0	5	0	
0.341167	0.043318	2.57652	0.00643058	0.0476947	0	5	0	
0.341333	-0.0088254	-1.99696	0.00645236	0.0484517	0	5	0	
0.3415	0.0455284	2.59182	0.00649715	0.0479055	0	5	0	
0.341667	-0.0108605	-1.97066	0.00656324	0.0485792	0	5	0	
0.341833	0.0502882	2.55676	0.00653793	0.0478651	0	5	0	
0.342	-0.0130993	-1.97091	0.0064716	0.0483542	0	5	0	
0.342167	0.0449555	2.57299	0.00638447	0.0477749	0	5	0	
0.342333	-0.00748093	-1.98905	0.00636131	0.0484874	0	5	0	
0.3425	0.0428936	2.563	0.00638153	0.0479392	0	5	0	
0.342667	-0.0119575	-1.9479	0.00646403	0.0484121	0	5	0	
0.342833	0.052738	2.55491	0.00647971	0.0476894	0	5	0	
0.343	-0.0149427	-1.96908	0.00640003	0.0482758	0	5	0	
0.343167	0.0404517	2.55787	0.00626137	0.0478073	0	5	0	
0.343333	-0.00243474	-1.97437	0.00626641	0.0484882	0	5	0	
0.3435	0.0330292	2.55944	0.00641148	0.0479585	0	5	0	
0.343667	-0.00695851	-1.95707	0.00658801	0.0485197	0	5	0	
0.343833	0.050408	2.54798	0.00665497	0.0479193	0	5	0	
0.344	-0.0258714	-1.95989	0.00663476	0.0483956	0	5	0	
0.344167	0.0476295	2.54849	0.00650403	0.0478152	0	5	0	
0.344333	0.00397324	-1.96444	0.00632263	0.0483605	0	5	0	
0.3445	0.0168937	2.55004	0.00620012	0.0478619	0	5	0	
0.344667	0.00196629	-1.95252	0.00626966	0.0484028	0	5	0	
0.344833	0.032511	2.54157	0.00643212	0.0478667	0	5	0	
0.345	-0.0105378	-1.95396	0.00655036	0.048342	0	5	0	
0.345167	0.0396624	2.53853	0.00654368	0.0478541	0	5	0	
0.345333	-0.00563407	-1.96173	0.00646469	0.0484414	0	5	0	
0.3455	0.0287175	2.55114	0.00636525	0.0480408	0	5	0	
0.345667	-0.00110093	-1.96104	0.00634259	0.0485993	0	5	0	
0.345833	0.0322109	2.54338	0.00639897	0.0481501	0	5	0	
0.346	-0.0112886	-1.95249	0.00647662	0.0486107	0	5	0	
0.346167	0.0365712	2.53269	0.00648322	0.0480728	0	5	0	
0.346333	-0.0106258	-1.95153	0.00643689	0.0484595	0	5	0	
0.3465	0.031225	2.53197	0.00636285	0.0479658	0	5	0	
0.346667	-0.000923938	-1.94345	0.00632102	0.04841	0	5	0	
0.346833	0.0263614	2.52473	0.00633613	0.0479673	0	5	0	
0.347	-0.00263596	-1.94381	0.00640888	0.0483981	0	5	0	
0.347167	0.02698	2.52272	0.00646232	0.0479713	0	5	0	
0.347333	-0.00476839	-1.94998	0.00647913	0.048419	0	5	0	
0.3475	0.026245	2.52538	0.0064811	0.0480494	0	5	0	
0.347667	-0.00615504	-1.92685	0.00649986	0.0484085	0	5	0	
0.347833	0.028183	2.50978	0.00649865	0.0478829	0	5	0	
0.348	-0.00384834	-1.92872	0.00648304	0.0481751	0	5	0	
0.348167	0.0249848	2.50654	0.00646452	0.0477985	0	5	0	
0.348333	-0.00456216	-1.93832	0.00645656	0.048308	0	5	0	
0.3485	0.0205537	2.52171	0.00642966	0.0480253	0	5	0	
0.348667	5.12749E-05	-1.93659	0.00640818	0.048496	0	5	0	
0.348833	0.0228254	2.51903	0.00640543	0.04809	0	5	0	
0.349	0.00211387	-1.93584	0.00639131	0.0484143	0	5	0	
0.349167	0.0177802	2.50615	0.00632427	0.047962	0	5	0	
0.349333	-0.00187632	-1.93485	0.00629383	0.0483326	0	5	0	
0.3495	0.0249138	2.51579	0.00635106	0.048024	0	5	0	
0.349667	-0.00555942	-1.9261	0.00642341	0.0484276	0	5	0	
0.349833	0.0176469	2.49002	0.00643635	0.0480306	0	5	0	
0.35	-0.00648965	-1.91473	0.00648123	0.048307	0	5	0	
0.350167	0.0286311	2.49369	0.00655566	0.0479199	0	5	0	
0.350333	-0.00472092	-1.92875	0.00652894	0.048399	0	5	0	
0.3505	0.0111707	2.51572	0.00642628	0.0482191	0	5	0	
0.350667	0.000293573	-1.93431	0.00638476	0.0486943	0	5	0	
0.350833	-0.00434781	2.49319	0.00634419	0.0483075	0	5	0	
0.351	0.0568165	-1.91623	0.00626642	0.0485027	0	5	0	
0.351167	0.00804104	2.48278	0.00616641	0.0480638	0	5	0	
0.351333	-0.0353678	-1.89209	0.00641366	0.0481839	0	5	0	
0.3515	0.0315467	2.4601	0.00667591	0.0476906	0	5	0	
0.351667	-0.0209251	-1.90194	0.00656594	0.0479972	0	5	0	
0.351833	0.00891203	2.49978	0.00618867	0.0479205	0	5	0	
0.352	0.00980616	-1.92101	0.00592552	0.0485411	0	5	0	
0.352167	0.0290705	2.47386	0.00595821	0.0482747	0	5	0	
0.352333	-0.0376611	-1.91284	0.00617649	0.0484638	0	5	0	
0.3525	0.00585118	2.49447	0.00666496	0.0481301	0	5	0	
0.352667	-0.132696	-1.94754	0.00767358	0.0486103	0	5	0	
0.352833	0.277019	2.54117	0.00859217	0.0485423	0	5	0	
0.353	-0.0126631	-1.99004	0.00685411	0.0487271	0	5	0	
0.353167	-0.830025	2.49052	0.00616554	0.0482989	0	5	0	
0.353333	1.12591	-1.84737	0.0104443	0.0483733	0	5	0	
0.3535	-0.453519	2.46999	0.0156464	0.0480289	0	5	0	
0.353667	-0.125451	-1.91711	0.0201099	0.0483215	0	5	0	
0.353833	0.285798	2.46848	0.0175836	0.0482051	0	5	0	
0.354	-0.326623	-2.01094	0.0155849	0.0490415	0	5	0	
0.354167	0.416947	2.61483	0.0126727	0.0497801	0	5	0	
0.354333	-0.321205	-1.92186	0.00910552	0.0504986	0	5	0	
0.3545	0.177542	2.40804	0.00864489	0.0495532	0	5	0	
0.354667	0.132503	-1.85007	0.00645149	0.0485572	0	5	0	
0.354833	0.105878	2.44779	0.0104774	0.0477889	0	5	0	
0.355	-0.365041	-1.85053	0.0137261	0.0482726	0	5	0	
0.355167	0.426381	2.47347	0.0189608	0.0477481	0	5	0	
0.355333	-0.0102902	-1.90953	0.0185071	0.0478228	0	5	0	
0.3555	-0.0744598	2.4453	0.0155668	0.0474962	0	5	0	
0.355667	0.175493	-1.84361	0.0135797	0.0478178	0	5	0	
0.355833	-0.107241	2.39406	0.0136969	0.0473733	0	5	0	
0.356	0.244328	-1.82299	0.0146967	0.0473034	0	5	0	
0.356167	-0.311272	2.46558	0.0148103	0.0470125	0	5	0	
0.356333	0.382579	-1.91429	0.0162157	0.0479436	0	5	0	
0.3565	-0.0652029	2.50437	0.0167334	0.0485062	0	5	0	
0.356667	-0.0420074	-1.94927	0.0162775	0.0495874	0	5	0	
0.356833	0.0353947	2.4568	0.0131368	0.0492046	0	5	0	
0.357	0.00428897	-1.86575	0.0101342	0.0489591	0	5	0	
0.357167	-0.0422729	2.42671	0.00769348	0.0483516	0	5	0	
0.357333	0.0988564	-1.89456	0.00714929	0.0482595	0	5	0	
0.3575	-0.205349	2.47647	0.00852099	0.0481587	0	5	0	
0.357667	0.029931	-1.888	0.0102442	0.0484128	0	5	0	
0.357833	0.0529273	2.4138	0.0106074	0.0483225	0	5	0	
0.358	-0.0639323	-1.87593	0.00931042	0.0484399	0	5	0	
0.358167	0.0809398	2.42802	0.00779237	0.0482611	0	5	0	
0.358333	0.0118222	-1.89311	0.0066555	0.0485143	0	5	0	
0.3585	-0.220398	2.45934	0.0056847	0.0486023	0	5	0	
0.358667	0.176561	-1.85747	0.00541661	0.0488989	0	5	0	
0.358833	-0.126534	2.39262	0.00502087	0.0485584	0	5	0	
0.359	0.0738489	-1.87492	0.00562287	0.048412	0	5	0	
0.359167	-0.0568378	2.42108	0.00548983	0.0480824	0	5	0	
0.359333	0.0972069	-1.86089	0.00582365	0.0483449	0	5	0	
0.3595	-0.0865044	2.41532	0.00524095	0.0482624	0	5	0	
0.359667	0.0495016	-1.87843	0.00491873	0.0484094	0	5	0	
0.359833	-0.0264112	2.42973	0.0047756	0.0483236	0	5	0	
0.36	0.00121223	-1.87859	0.00480006	0.0484799	0	5	0	
0.360167	-0.0240882	2.41218	0.00443873	0.0483647	0	5	0	
0.360333	0.0318748	-1.87053	0.00391737	0.0484545	0	5	0	
0.3605	-0.0316798	2.41438	0.0035957	0.0483482	0	5	0	
