0	-0.00098409	-9.26079E-05	9.8409E-08	9.26079E-09	0	5	0	
0.000166667	0.00664002	0.00138847	4.00306E-05	5.85319E-06	0	5	0	
0.000333333	-0.00982777	-0.00182476	9.32708E-05	1.77437E-05	0	5	0	
0.0005	0.00975651	0.00243437	0.000156713	3.16644E-05	0	5	0	
0.000666667	-0.00777312	-0.00224783	0.000168935	3.95033E-05	0	5	0	
0.000833333	0.00822479	0.00206937	0.000171515	4.40333E-05	0	5	0	
0.001	-0.00818991	-0.00167148	0.000161155	4.3782E-05	0	5	0	
0.00116667	0.0082095	0.000459173	0.000162503	3.89062E-05	0	5	0	
0.00133333	-0.00851467	0.000416004	0.000168783	2.51316E-05	0	5	0	
0.0015	0.00909153	0.00188708	0.000192418	2.04903E-05	0	5	0	
0.00166667	-0.00973665	-0.00115455	0.000219796	2.99073E-05	0	5	0	
0.00183333	0.00906562	-0.000132662	0.000236049	3.73386E-05	0	5	0	
0.002	-0.00832999	0.00191267	0.000246393	4.68067E-05	0	5	0	
0.00216667	0.0128266	-0.000768382	0.00027649	5.29617E-05	0	5	0	
0.00233333	-0.0149373	-1.00495E-05	0.000315197	5.16298E-05	0	5	0	
0.0025	0.0108552	3.41865E-06	0.000324139	3.7785E-05	0	5	0	
0.00266667	-0.00856357	-0.00193626	0.00028793	4.30078E-05	0	5	0	
0.00283333	0.00764839	0.00493112	0.000232798	5.50157E-05	0	5	0	
0.003	-0.0052378	0.00100517	0.000192373	8.8612E-05	0	5	0	
0.00316667	0.00233641	-0.00423321	0.000187958	0.000100793	0	5	0	
0.00333333	-0.00923141	-0.00137108	0.000238497	9.20338E-05	0	5	0	
0.0035	0.0151345	0.0038455	0.000307086	7.45949E-05	0	5	0	
0.00366667	-0.0152211	0.000584631	0.000338958	6.89162E-05	0	5	0	
0.00383333	0.0123366	-0.000285266	0.000311501	6.13468E-05	0	5	0	
0.004	-0.00930611	-0.00495584	0.000260876	8.63376E-05	0	5	0	
0.00416667	0.00726838	0.00605739	0.000232135	8.48397E-05	0	5	0	
0.00433333	-0.0091415	-0.00259451	0.000220732	0.000117787	0	5	0	
0.0045	0.00975728	0.000416376	0.000225932	9.56625E-05	0	5	0	
0.00466667	-0.0123473	-0.000370085	0.000245906	7.26373E-05	0	5	0	
0.00483333	0.0141434	0.00139443	0.000282553	4.27616E-05	0	5	0	
0.005	-0.0125387	0.00173556	0.000302707	3.09381E-05	0	5	0	
0.00516667	0.0089432	-0.00200768	0.000295047	2.97883E-05	0	5	0	
0.00533333	-0.00777081	-0.00395626	0.000262267	5.45173E-05	0	5	0	
0.0055	0.00989084	0.00624931	0.000246247	8.9615E-05	0	5	0	
0.00566667	-0.0116803	-0.00395429	0.000247593	0.000112087	0	5	0	
0.00583333	0.0124018	0.00367871	0.000260643	0.000103206	0	5	0	
0.006	-0.0104595	-0.00444329	0.000256585	8.83163E-05	0	5	0	
0.00616667	0.0078787	0.00466428	0.00024207	8.91289E-05	0	5	0	
0.00633333	-0.00669769	-0.00235103	0.000234662	9.35998E-05	0	5	0	
0.0065	0.0110089	-0.00050365	0.000251607	7.10526E-05	0	5	0	
0.00666667	-0.0130772	0.00145433	0.00027119	4.30454E-05	0	5	0	
0.00683333	0.0109453	-0.00156036	0.000273438	3.01517E-05	0	5	0	
0.007	-0.0105852	-2.89972E-05	0.00026236	4.33841E-05	0	5	0	
0.00716667	0.0127198	0.00200187	0.000271639	6.76531E-05	0	5	0	
0.00733333	-0.0125975	-0.00462101	0.000285778	7.78141E-05	0	5	0	
0.0075	0.0104496	0.00427291	0.000283988	8.88123E-05	0	5	0	
0.00766667	-0.00799332	-0.00274529	0.000259655	7.39416E-05	0	5	0	
0.00783333	0.00892101	0.00105324	0.000238412	6.75464E-05	0	5	0	
0.008	-0.0112913	0.0014706	0.0002371	4.87064E-05	0	5	0	
0.00816667	0.0112621	-0.00150147	0.000250745	4.3479E-05	0	5	0	
0.00833333	-0.0129889	-0.0011929	0.000267348	4.43016E-05	0	5	0	
0.0085	0.0102855	0.00223929	0.000281884	5.44172E-05	0	5	0	
0.00866667	-0.00771443	-0.002528	0.000271675	6.31801E-05	0	5	0	
0.00883333	0.00843652	0.00209288	0.000258136	6.23858E-05	0	5	0	
0.009	-0.0103955	-0.00114234	0.000247269	4.60914E-05	0	5	0	
0.00916667	0.0111446	0.000205423	0.000255724	3.29491E-05	0	5	0	
0.00933333	-0.0126558	0.00111605	0.000279254	2.11664E-05	0	5	0	
0.0095	0.0112624	0.000294407	0.000300076	2.90915E-05	0	5	0	
0.00966667	-0.0100889	-0.000444233	0.000294171	3.51304E-05	0	5	0	
0.00983333	0.00859119	-0.000386827	0.00026778	3.63207E-05	0	5	0	
0.01	-0.0111253	0.000223595	0.000250003	3.41453E-05	0	5	0	
0.0101667	0.0124949	0.000290358	0.000268204	3.05539E-05	0	5	0	
0.0103333	-0.0107245	-0.000504357	0.000289401	2.75185E-05	0	5	0	
0.0105	0.00879977	0.000645631	0.000281743	1.97065E-05	0	5	0	
0.0106667	-0.00917831	-0.00097838	0.000253203	2.25274E-05	0	5	0	
0.0108333	0.00945935	0.00170261	0.000235095	2.51996E-05	0	5	0	
0.011	-0.011053	-0.00144832	0.000247612	3.33347E-05	0	5	0	
0.0111667	0.0103169	0.00249585	0.000274313	4.11997E-05	0	5	0	
0.0113333	-0.0103162	-0.00331534	0.000280151	5.19482E-05	0	5	0	
0.0115	0.0088225	0.00262732	0.000264068	6.0079E-05	0	5	0	
0.0116667	-0.0105126	-0.00215414	0.000236786	5.77758E-05	0	5	0	
0.0118333	0.0129514	0.0014965	0.000236352	5.13178E-05	0	5	0	
0.012	-0.0128869	-0.00149704	0.000258747	3.84726E-05	0	5	0	
0.0121667	0.0129291	0.00174229	0.000291194	3.94707E-05	0	5	0	
0.0123333	-0.0120901	-0.00195568	0.00030731	3.95095E-05	0	5	0	
0.0125	0.0107112	0.0015142	0.000301679	4.36505E-05	0	5	0	
0.0126667	-0.0118174	-0.00247851	0.000282674	4.36452E-05	0	5	0	
0.0128333	0.0128234	0.00181827	0.000274817	4.96408E-05	0	5	0	
0.013	-0.0114735	-0.00395454	0.000282097	5.28663E-05	0	5	0	
0.0131667	0.0108293	0.00418145	0.000297292	6.42724E-05	0	5	0	
0.0133333	-0.00944798	-0.0038478	0.000296016	7.63919E-05	0	5	0	
0.0135	0.00902334	0.00106815	0.000275763	7.81195E-05	0	5	0	
0.0136667	-0.0102157	-0.000125328	0.000250273	5.35276E-05	0	5	0	
0.0138333	0.0125135	-0.000440946	0.000244998	2.93053E-05	0	5	0	
0.014	-0.0124306	-0.00240155	0.000266028	2.1124E-05	0	5	0	
0.0141667	0.0111895	0.00255892	0.000295948	2.779E-05	0	5	0	
0.0143333	-0.0105631	-0.00314484	0.000300615	4.61049E-05	0	5	0	
0.0145	0.00905621	0.00363365	0.000277563	6.23351E-05	0	5	0	
0.0146667	-0.0117808	-0.00407188	0.000261483	8.71885E-05	0	5	0	
0.0148333	0.0137321	0.00406927	0.000283398	9.46346E-05	0	5	0	
0.015	-0.00897537	-0.0018017	0.000297645	8.50317E-05	0	5	0	
0.0151667	0.00117963	-0.0011742	0.00026546	5.97576E-05	0	5	0	
0.0153333	-0.00484405	-0.0021056	0.000222605	4.80158E-05	0	5	0	
0.0155	0.012084	0.00400313	0.000222239	6.22205E-05	0	5	0	
0.0156667	-0.0104575	0.00168229	0.000250378	6.37679E-05	0	5	0	
0.0158333	0.00511409	-0.00425593	0.000246237	6.60415E-05	0	5	0	
0.016	-0.00602289	-0.00454272	0.000239685	8.99783E-05	0	5	0	
0.0161667	0.00903121	0.00951869	0.000256624	0.000119224	0	5	0	
0.0163333	-0.0118813	-0.00127571	0.000271685	0.000160111	0	5	0	
0.0165	0.0117713	-0.00454951	0.000276708	0.000153471	0	5	0	
0.0166667	-0.010589	0.000648568	0.000261788	0.000130901	0	5	0	
0.0168333	0.00924184	0.00304515	0.000259478	8.12881E-05	0	5	0	
0.017	-0.00747602	0.000666142	0.000246667	4.5333E-05	0	5	0	
0.0171667	0.00744228	2.2326E-05	0.000236244	4.97477E-05	0	5	0	
0.0173333	-0.00730601	-0.00303443	0.000226621	9.38186E-05	0	5	0	
0.0175	0.0059828	0.00530946	0.000222769	0.000109916	0	5	0	
0.0176667	-0.00848396	-0.00330993	0.000233678	0.000118229	0	5	0	
0.0178333	0.0102692	0.0022532	0.000261026	8.74221E-05	0	5	0	
0.018	-0.00877242	-0.00157288	0.000268772	7.48995E-05	0	5	0	
0.0181667	0.00786128	0.00252629	0.000252408	7.47261E-05	0	5	0	
0.0183333	-0.00891025	-0.000671847	0.000243378	9.06706E-05	0	5	0	
0.0185	0.0110571	0.00282239	0.000254387	9.67852E-05	0	5	0	
0.0186667	-0.00985508	-0.00264092	0.000268017	8.43506E-05	0	5	0	
0.0188333	0.00665524	0.000618229	0.000254336	5.41691E-05	0	5	0	
0.019	-0.0086728	-0.00183652	0.000248896	4.30664E-05	0	5	0	
0.0191667	0.0122779	0.00190447	0.000264314	3.96845E-05	0	5	0	
0.0193333	-0.0115432	0.00178541	0.000290578	3.80391E-05	0	5	0	
0.0195	0.0087499	0.000762641	0.000288009	3.89788E-05	0	5	0	
0.0196667	-0.00829369	-0.00411877	0.000277019	4.63633E-05	0	5	0	
0.0198333	0.00701	0.00504407	0.000258395	6.95773E-05	0	5	0	
0.02	-0.00691355	-0.00594219	0.000239484	8.93175E-05	0	5	0	
0.0201667	0.00703012	0.00259536	0.000222427	9.40755E-05	0	5	0	
0.0203333	-0.0116766	0.00227175	0.000243145	7.82232E-05	0	5	0	
0.0205	0.0129106	-0.00254351	0.000297959	5.84615E-05	0	5	0	
0.0206667	-0.0111571	-0.000784759	0.000322758	6.83423E-05	0	5	0	
0.0208333	0.00775611	0.00180787	0.000296102	9.10166E-05	0	5	0	
0.021	-0.0101169	-0.00302435	0.000255586	0.000105805	0	5	0	
0.0211667	0.0117673	0.00331402	0.000250767	9.30313E-05	0	5	0	
0.0213333	-0.0093568	-0.00377263	0.00026762	7.37744E-05	0	5	0	
0.0215	0.00662755	0.00202904	0.000284253	8.19186E-05	0	5	0	
0.0216667	-0.00923091	0.000154983	0.000292957	7.0476E-05	0	5	0	
0.0218333	0.0102438	-0.00126972	0.000293166	6.22408E-05	0	5	0	
0.022	-0.00959888	-0.00242781	0.000277755	4.44822E-05	0	5	0	
0.0221667	0.00849361	0.00336579	0.000258693	6.3689E-05	0	5	0	
0.0223333	-0.00730231	-0.0038817	0.000246572	7.67047E-05	0	5	0	
0.0225	0.00674244	0.00312047	0.000242484	8.20427E-05	0	5	0	
0.0226667	-0.00902292	0.000152187	0.000239284	6.17252E-05	0	5	0	
0.0228333	0.00875109	-0.000867956	0.000242299	4.76567E-05	0	5	0	
0.023	-0.00820531	-0.00228789	0.000240597	3.37684E-05	0	5	0	
0.0231667	0.00678698	0.00173354	0.000234243	3.67784E-05	0	5	0	
0.0233333	-0.00731895	-0.00187245	0.000224669	3.20874E-05	0	5	0	
0.0235	0.00921391	0.00235453	0.000238908	3.81664E-05	0	5	0	
0.0236667	-0.0127366	-0.000281111	0.00027129	3.14551E-05	0	5	0	
0.0238333	0.0112163	-0.000727007	0.000303872	2.72774E-05	0	5	0	
0.024	-0.00990899	-0.00115933	0.000299914	1.71288E-05	0	5	0	
0.0241667	0.00951425	0.000542989	0.000276197	2.15235E-05	0	5	0	
0.0243333	-0.00833827	-0.000323014	0.000245407	3.75702E-05	0	5	0	
0.0245	0.00743588	0.00142565	0.000235597	5.42944E-05	0	5	0	
0.0246667	-0.00828227	-0.000992315	0.000245847	5.47363E-05	0	5	0	
0.0248333	0.00933177	0.00208862	0.000268671	4.41677E-05	0	5	0	
0.025	-0.00868686	-0.00244076	0.000277135	3.96864E-05	0	5	0	
0.0251667	0.00808278	0.000859751	0.000264025	3.79095E-05	0	5	0	
0.0253333	-0.00830433	0.000365304	0.000254975	4.41982E-05	0	5	0	
0.0255	0.0112296	0.0010978	0.000272739	4.28885E-05	0	5	0	
0.0256667	-0.00902378	-0.0015486	0.000308226	4.10366E-05	0	5	0	
0.0258333	0.00718968	0.00355675	0.000318005	4.41973E-05	0	5	0	
0.026	-0.00698196	-0.00348329	0.000301099	5.96943E-05	0	5	0	
0.0261667	0.00703835	0.00162385	0.00025922	6.63559E-05	0	5	0	
0.0263333	-0.00705077	-0.00209395	0.000224046	6.10636E-05	0	5	0	
0.0265	0.00663901	0.00256849	0.000212401	4.73559E-05	0	5	0	
0.0266667	-0.00438587	-0.0015914	0.000227479	4.92459E-05	0	5	0	
0.0268333	0.00586498	0.00231504	0.000249107	5.01235E-05	0	5	0	
0.027	-0.00731842	0.000637022	0.000254988	4.01715E-05	0	5	0	
0.0271667	0.00722979	-0.00353935	0.000237101	3.78905E-05	0	5	0	
0.0273333	-0.01017	-0.000530892	0.000229834	3.44126E-05	0	5	0	
0.0275	0.0100027	0.00208393	0.000252542	4.78546E-05	0	5	0	
0.0276667	-0.00591885	-0.000735602	0.000256648	3.79476E-05	0	5	0	
0.0278333	0.00266231	0.000734516	0.000231285	3.61382E-05	0	5	0	
0.028	-0.0029021	-0.00370426	0.000212112	4.69797E-05	0	5	0	
0.0281667	0.00427063	0.00495801	0.000222271	7.12894E-05	0	5	0	
0.0283333	-0.00396599	-0.000276538	0.00023879	9.99585E-05	0	5	0	
0.0285	0.00728042	-0.00454435	0.000257871	8.75211E-05	0	5	0	
0.0286667	-0.0138465	-0.002243	0.00028567	9.68153E-05	0	5	0	
0.0288333	0.0116071	0.0058489	0.000300943	8.98029E-05	0	5	0	
0.029	-0.00329308	-0.000959549	0.000250253	9.48957E-05	0	5	0	
0.0291667	0.00232228	-0.00100892	0.000193522	6.37389E-05	0	5	0	
0.0293333	-0.00509833	-0.000940161	0.00018179	5.32376E-05	0	5	0	
0.0295	0.00739353	-0.00134072	0.000206625	4.21396E-05	0	5	0	
0.0296667	-0.00968587	0.00164094	0.000244391	5.35552E-05	0	5	0	
0.0298333	0.00917025	0.00335244	0.000270455	5.78394E-05	0	5	0	
0.03	-0.00812224	-0.00712165	0.000286506	8.93706E-05	0	5	0	
0.0301667	0.00620816	0.00436496	0.000278567	0.000105382	0	5	0	
0.0303333	-0.00830829	-6.95086E-05	0.000252525	0.000100495	0	5	0	
0.0305	0.0107735	-0.000750865	0.000251412	7.53383E-05	0	5	0	
0.0306667	-0.0101341	-0.00163321	0.00027008	4.86663E-05	0	5	0	
0.0308333	0.00680759	0.00346806	0.000287485	5.4173E-05	0	5	0	
0.031	-0.00647773	-0.00301837	0.000290747	6.84146E-05	0	5	0	
0.0311667	0.00922982	0.000715576	0.000302085	8.25223E-05	0	5	0	
0.0313333	-0.0113832	0.000597767	0.000314895	6.49584E-05	0	5	0	
0.0315	0.0100919	0.000118272	0.000317457	4.26226E-05	0	5	0	
0.0316667	-0.00697004	-0.000589004	0.00030362	3.00751E-05	0	5	0	
0.0318333	0.00629443	-0.000374664	0.000298274	3.03223E-05	0	5	0	
0.032	-0.00552899	-0.00141303	0.000285941	2.84694E-05	0	5	0	
0.0321667	0.00529663	0.00178604	0.000269528	3.65129E-05	0	5	0	
0.0323333	-0.00773315	-0.00257855	0.000266135	4.95681E-05	0	5	0	
0.0325	0.0105785	0.00428489	0.000276565	5.88911E-05	0	5	0	
0.0326667	-0.00766443	-0.000289415	0.000281803	5.93749E-05	0	5	0	
0.0328333	0.00531626	-0.00249694	0.000269472	4.99722E-05	0	5	0	
0.033	-0.0097129	-0.000760729	0.00026756	4.93995E-05	0	5	0	
0.0331667	0.00955803	0.00340517	0.000267841	5.94333E-05	0	5	0	
0.0333333	-0.00796199	-0.00424786	0.000251059	7.41115E-05	0	5	0	
0.0335	0.0078851	0.00172252	0.000229939	7.11028E-05	0	5	0	
0.0336667	-0.00729226	-0.000836328	0.000237778	5.54831E-05	0	5	0	
0.0338333	0.0056194	0.00199092	0.000273927	3.76039E-05	0	5	0	
0.034	-0.00907525	0.00128021	0.000314648	3.83839E-05	0	5	0	
0.0341667	0.0115133	-0.00160091	0.000341667	3.6522E-05	0	5	0	
0.0343333	-0.0149673	-0.00237904	0.000349184	6.04231E-05	0	5	0	
0.0345	0.00976901	0.00315835	0.000326469	8.3588E-05	0	5	0	
0.0346667	-0.0023932	-0.00348584	0.000274952	0.000103844	0	5	0	
0.0348333	0.000456065	0.00399908	0.000239572	9.50048E-05	0	5	0	
0.035	-0.00447352	-0.0015502	0.000244458	7.54861E-05	0	5	0	
0.0351667	0.0068816	0.000404086	0.000280033	5.34547E-05	0	5	0	
0.0353333	-0.0107098	-0.00204953	0.000309422	5.30243E-05	0	5	0	
0.0355	0.00944294	0.00324289	0.000309941	4.4992E-05	0	5	0	
0.0356667	-0.00628883	0.000316946	0.000282269	5.0637E-05	0	5	0	
0.0358333	0.00471717	-9.70357E-05	0.000245654	3.04955E-05	0	5	0	
0.036	-0.00576422	-0.00287792	0.000223025	3.12999E-05	0	5	0	
0.0361667	0.00689192	0.00220051	0.000224349	2.71958E-05	0	5	0	
0.0363333	-0.00865667	-0.00122134	0.000245393	3.88154E-05	0	5	0	
0.0365	0.00886165	0.00249447	0.000271743	3.89814E-05	0	5	0	
0.0366667	-0.00498089	-0.00189661	0.000287771	4.49265E-05	0	5	0	
0.0368333	0.00731323	0.000531529	0.000277139	3.72213E-05	0	5	0	
0.037	-0.00725709	-0.00219713	0.000267367	3.15449E-05	0	5	0	
0.0371667	0.00751179	0.00299558	0.000265551	3.85844E-05	0	5	0	
0.0373333	-0.00749327	-0.00580159	0.000282879	7.04083E-05	0	5	0	
0.0375	0.00578106	0.00564876	0.000279793	0.000108245	0	5	0	
0.0376667	-0.00276429	-0.00395868	0.000260784	0.000114712	0	5	0	
0.0378333	0.00662341	0.00107214	0.000238707	9.15027E-05	0	5	0	
0.038	-0.00708161	-0.000636664	0.000239851	6.1905E-05	0	5	0	
0.0381667	0.00663655	-0.000323019	0.000243744	3.8791E-05	0	5	0	
0.0383333	-0.00530433	-0.00130751	0.00024358	3.72059E-05	0	5	0	
0.0385	0.00675365	0.00192149	0.000230998	3.58591E-05	0	5	0	
0.0386667	-0.00826596	-0.00242654	0.000244956	4.4802E-05	0	5	0	
0.0388333	0.00929436	0.000566856	0.000272812	4.20696E-05	0	5	0	
0.039	-0.00931596	0.000913858	0.000289132	3.02397E-05	0	5	0	
0.0391667	0.00936469	-0.00157828	0.000283891	2.25363E-05	0	5	0	
0.0393333	-0.0100634	0.000230225	0.000273712	2.21865E-05	0	5	0	
0.0395	0.00715054	0.00132183	0.000269745	2.84268E-05	0	5	0	
0.0396667	-0.0052141	-0.00139823	0.000264273	5.11455E-05	0	5	0	
0.0398333	0.00688891	0.00146201	0.000275648	8.71636E-05	0	5	0	
0.04	-0.00851955	-0.00443856	0.000281422	9.88709E-05	0	5	0	
0.0401667	0.00791754	0.00228955	0.000277455	9.47841E-05	0	5	0	
0.0403333	-0.01045	-0.00123038	0.000278982	7.39251E-05	0	5	0	
0.0405	0.00977941	0.00154536	0.000308597	6.85962E-05	0	5	0	
0.0406667	-0.00251781	0.00117522	0.000284318	5.43258E-05	0	5	0	
0.0408333	-0.00118289	-0.00497373	0.000222124	5.42869E-05	0	5	0	
0.041	-0.00415826	-0.000216804	0.000222891	8.00627E-05	0	5	0	
0.0411667	0.00920139	0.00619192	0.000296101	9.91809E-05	0	5	0	
0.0413333	-0.00459325	-0.00232841	0.000354412	0.000108164	0	5	0	
0.0415	0.00686054	-0.00406474	0.000356631	8.94758E-05	0	5	0	
0.0416667	-0.0138545	0.00168058	0.000352762	8.92291E-05	0	5	0	
0.0418333	0.0120526	1.57167E-05	0.000332729	8.00966E-05	0	5	0	
0.042	-0.0016576	0.00229346	0.000254508	6.87042E-05	0	5	0	
0.0421667	-0.00164365	0.00137939	0.000170469	5.23649E-05	0	5	0	
0.0423333	1.60841E-05	-0.00691116	0.000162869	6.42532E-05	0	5	0	
0.0425	8.64233E-05	0.0035867	0.000211781	8.48432E-05	0	5	0	
0.0426667	-0.00452439	0.00144058	0.000299966	9.28591E-05	0	5	0	
0.0428333	0.0106468	-0.00150479	0.000353558	6.38833E-05	0	5	0	
0.043	-0.0106489	0.00153746	0.000364098	5.55451E-05	0	5	0	
0.0431667	0.00515402	0.000956042	0.000309053	4.57509E-05	0	5	0	
0.0433333	-0.00282777	-0.0032364	0.000228515	5.19075E-05	0	5	0	
0.0435	0.00153679	0.000564028	0.000183858	4.3133E-05	0	5	0	
0.0436667	-0.00467292	-0.00194236	0.000196719	3.51858E-05	0	5	0	
0.0438333	0.00425563	0.00291927	0.000229652	3.9075E-05	0	5	0	
0.044	-0.00381288	-4.07465E-05	0.000236861	3.17978E-05	0	5	0	
0.0441667	0.0041407	0.000380489	0.000243274	3.7896E-05	0	5	0	
0.0443333	-0.00808035	-0.0030377	0.000268066	3.6572E-05	0	5	0	
0.0445	0.00619506	0.00214378	0.000289705	5.23394E-05	0	5	0	
0.0446667	-0.00582848	-0.00247349	0.000272438	6.16511E-05	0	5	0	
0.0448333	0.00549366	0.0027073	0.000251866	7.78371E-05	0	5	0	
0.045	-0.00496757	-0.00297989	0.000239291	6.88414E-05	0	5	0	
0.0451667	0.00312777	0.00191511	0.000238722	7.02233E-05	0	5	0	
0.0453333	-0.00452519	-0.00182865	0.000243086	5.26E-05	0	5	0	
0.0455	0.00485061	0.00285148	0.000255471	6.44386E-05	0	5	0	
0.0456667	-0.00504266	-0.00304179	0.000251179	7.31508E-05	0	5	0	
0.0458333	0.00273432	0.00101973	0.000232713	7.2907E-05	0	5	0	
0.046	-0.000805758	-0.00131722	0.000222644	5.63854E-05	0	5	0	
0.0461667	0.00560678	0.00407108	0.00024453	5.23373E-05	0	5	0	
0.0463333	-0.00727696	-0.00342511	0.00028327	6.20554E-05	0	5	0	
0.0465	0.00726117	0.00105995	0.000303821	7.27078E-05	0	5	0	
0.0466667	-0.00478467	-0.00105889	0.000292167	6.91652E-05	0	5	0	
0.0468333	0.00211986	0.00239965	0.000255416	6.71135E-05	0	5	0	
0.047	-0.00409676	-0.00298054	0.000237083	6.4442E-05	0	5	0	
0.0471667	0.00771552	-3.51926E-05	0.000250634	5.87018E-05	0	5	0	
0.0473333	-0.00432174	0.00133248	0.000272576	4.12383E-05	0	5	0	
0.0475	0.00381507	-0.00228458	0.000271287	4.68155E-05	0	5	0	
0.0476667	-0.00569125	0.000878838	0.00026653	5.36387E-05	0	5	0	
0.0478333	0.00659692	0.00156062	0.000247662	7.53662E-05	0	5	0	
0.048	-0.00383433	-0.00431192	0.00022258	7.39727E-05	0	5	0	
0.0481667	0.000569629	0.00344921	0.000208663	7.06519E-05	0	5	0	
0.0483333	-0.00287743	-0.00243484	0.000246559	6.47952E-05	0	5	0	
0.0485	0.00744704	0.000100519	0.000293225	5.76845E-05	0	5	0	
0.0486667	-0.00571605	0.000278432	0.000305184	4.66018E-05	0	5	0	
0.0488333	0.00619009	0.00268028	0.000277627	3.50328E-05	0	5	0	
0.049	-0.00659261	-0.00391711	0.000273622	5.00774E-05	0	5	0	
0.0491667	0.00523565	0.00321121	0.00028276	5.88886E-05	0	5	0	
0.0493333	-0.0037847	-0.00110645	0.000279958	6.74074E-05	0	5	0	
0.0495	0.00442213	-0.00104261	0.000258698	4.9645E-05	0	5	0	
0.0496667	-0.0030327	-0.00115038	0.000242107	5.11923E-05	0	5	0	
0.0498333	0.00378552	0.00273243	0.000236455	5.07476E-05	0	5	0	
0.05	-0.00338682	-0.00153671	0.000239354	5.71443E-05	0	5	0	
0.0501667	0.00444579	0.00238068	0.000247327	4.75985E-05	0	5	0	
0.0503333	-0.00568031	-0.00421149	0.000260726	5.04499E-05	0	5	0	
0.0505	0.0062462	0.00175071	0.000263621	5.41123E-05	0	5	0	
0.0506667	-0.00363504	-1.06897E-05	0.000255292	4.63932E-05	0	5	0	
0.0508333	0.0043435	0.0012425	0.000246563	3.29446E-05	0	5	0	
0.051	-0.00585955	-0.0033374	0.000249894	3.51782E-05	0	5	0	
0.0511667	0.0073604	0.0033854	0.000255378	7.12993E-05	0	5	0	
0.0513333	-0.00617265	-0.00376841	0.000255339	9.35613E-05	0	5	0	
0.0515	0.00601232	0.000890929	0.000248363	8.95124E-05	0	5	0	
0.0516667	-0.0063392	0.000318872	0.000254161	5.61187E-05	0	5	0	
0.0518333	0.00744186	0.00296498	0.0002628	4.12489E-05	0	5	0	
0.052	-0.00394391	-0.00212488	0.000259823	4.1017E-05	0	5	0	
0.0521667	0.00138254	0.00106554	0.000240563	5.67263E-05	0	5	0	
0.0523333	-0.00269662	-0.00248675	0.000242574	7.00968E-05	0	5	0	
0.0525	0.00405908	0.00111578	0.000266516	7.42356E-05	0	5	0	
0.0526667	-0.00443135	-0.00104961	0.000293201	6.25649E-05	0	5	0	
0.0528333	0.00506172	0.00245335	0.000298792	5.06341E-05	0	5	0	
0.053	-0.00451932	-0.00229117	0.000283092	5.48815E-05	0	5	0	
0.0531667	0.00362881	0.000953803	0.0002541	6.40157E-05	0	5	0	
0.0533333	-0.00331509	0.000163797	0.000227914	5.80541E-05	0	5	0	
0.0535	0.00144765	-0.00112894	0.000216949	3.94671E-05	0	5	0	
0.0536667	-0.000497896	-0.000554511	0.000224495	2.48669E-05	0	5	0	
0.0538333	0.00240093	0.00266861	0.000248704	2.18774E-05	0	5	0	
0.054	-0.00591168	-0.002239	0.00027221	3.17792E-05	0	5	0	
0.0541667	0.00545236	-0.00140985	0.000279667	5.06649E-05	0	5	0	
0.0543333	-0.00472723	0.0008901	0.00026398	4.78463E-05	0	5	0	
0.0545	0.00607245	0.00424103	0.000244506	6.06261E-05	0	5	0	
0.0546667	-0.00356716	-0.00208624	0.000218287	5.64359E-05	0	5	0	
0.0548333	-0.00152415	-0.00202803	0.000174649	7.38649E-05	0	5	0	
0.055	0.00117913	0.00068677	0.000162964	6.4832E-05	0	5	0	
0.0551667	0.00346546	0.00565919	0.000220902	8.83414E-05	0	5	0	
0.0553333	-0.00630071	-0.003871	0.000304513	9.69343E-05	0	5	0	
0.0555	0.00364122	-0.00222281	0.000328626	9.36393E-05	0	5	0	
0.0556667	-0.00089477	0.00219615	0.000288331	7.5884E-05	0	5	0	
0.0558333	0.00351541	0.00379296	0.000258101	6.86457E-05	0	5	0	
0.056	-0.00680127	-0.0015035	0.000259887	6.87717E-05	0	5	0	
0.0561667	0.00331379	-0.000516849	0.000265492	6.82928E-05	0	5	0	
0.0563333	-0.00133938	-0.00227912	0.000253451	5.48134E-05	0	5	0	
0.0565	0.00237471	0.0029647	0.000251483	5.84321E-05	0	5	0	
0.0566667	-0.00522682	-0.00115593	0.000251853	4.22057E-05	0	5	0	
0.0568333	0.00326829	-0.000315	0.000240962	4.22332E-05	0	5	0	
0.057	-0.0013922	-0.0012705	0.000208113	3.07481E-05	0	5	0	
0.0571667	-0.000122346	0.00345352	0.000195414	4.89914E-05	0	5	0	
0.0573333	-0.000735121	-0.00398906	0.000216837	6.65913E-05	0	5	0	
0.0575	0.00281363	0.000940825	0.000260961	7.88972E-05	0	5	0	
0.0576667	-0.00500006	0.00142642	0.000291838	6.72371E-05	0	5	0	
0.0578333	0.00390421	-0.00130409	0.00029325	5.16599E-05	0	5	0	
0.058	-0.00303821	-0.000952032	0.000272654	3.39587E-05	0	5	0	
0.0581667	0.0041659	-0.000238832	0.000258781	3.00418E-05	0	5	0	
0.0583333	-0.00463145	0.000561471	0.000252797	2.55E-05	0	5	0	
0.0585	0.0040396	-0.00135038	0.000244716	2.54451E-05	0	5	0	
0.0586667	-0.00186221	0.000863901	0.00024214	2.46207E-05	0	5	0	
0.0588333	0.000483916	2.78332E-06	0.000270584	3.82561E-05	0	5	0	
0.059	-0.00309695	-0.00129499	0.000308135	5.1611E-05	0	5	0	
0.0591667	0.00440435	0.000848549	0.000300937	5.89186E-05	0	5	0	
0.0593333	-0.00338981	-0.00194699	0.000250178	6.22069E-05	0	5	0	
0.0595	0.00353034	0.00280257	0.000208394	5.48922E-05	0	5	0	
0.0596667	-0.00133588	-0.00130149	0.000219528	5.56261E-05	0	5	0	
0.0598333	-0.000632923	0.000975125	0.000255365	5.842E-05	0	5	0	
0.06	-0.00400821	-0.0004011	0.00028003	6.88688E-05	0	5	0	
0.0601667	0.00644304	-0.000741578	0.000278404	5.65502E-05	0	5	0	
0.0603333	-0.00356866	-0.000613704	0.000264689	3.50412E-05	0	5	0	
0.0605	0.00197653	0.00252871	0.000248617	2.41951E-05	0	5	0	
0.0606667	-0.000976679	-0.00264491	0.000248753	3.99177E-05	0	5	0	
0.0608333	0.000677394	0.00503278	0.000251308	6.07921E-05	0	5	0	
0.061	-0.00360011	-0.00349293	0.000257282	7.57857E-05	0	5	0	
0.0611667	0.00574326	0.000912869	0.000267542	6.80823E-05	0	5	0	
0.0613333	-0.00475045	-0.000266575	0.000276388	5.21553E-05	0	5	0	
0.0615	0.00395058	0.000474808	0.000261805	3.41935E-05	0	5	0	
0.0616667	-0.00130404	8.89185E-05	0.00022998	2.91534E-05	0	5	0	
0.0618333	0.00381378	-0.00104841	0.000214646	2.26915E-05	0	5	0	
0.062	-0.00536756	0.00177758	0.000237579	2.34857E-05	0	5	0	
0.0621667	0.00398636	-0.0006232	0.000263621	2.25857E-05	0	5	0	
0.0623333	-0.00316964	-0.0023803	0.000273737	2.7685E-05	0	5	0	
0.0625	0.00300627	0.0035141	0.000271153	3.9533E-05	0	5	0	
0.0626667	-0.0015127	-0.00335698	0.000261168	5.20714E-05	0	5	0	
0.0628333	0.00235875	0.00127479	0.00024834	6.03953E-05	0	5	0	
0.063	-0.0016456	-0.00158126	0.000249636	4.41067E-05	0	5	0	
0.0631667	0.00421093	0.00281148	0.000271366	3.975E-05	0	5	0	
0.0633333	-0.00657547	-0.00295744	0.000298519	4.15102E-05	0	5	0	
0.0635	0.00411322	0.000637675	0.000296782	5.03679E-05	0	5	0	
0.0636667	-0.002057	-0.00202115	0.0002604	4.64131E-05	0	5	0	
0.0638333	0.00169215	0.00186803	0.000226436	5.16054E-05	0	5	0	
0.064	-0.00117887	-0.00177113	0.000222509	4.97298E-05	0	5	0	
0.0641667	0.0023194	0.00105842	0.000246411	4.673E-05	0	5	0	
0.0643333	-0.00256456	-0.000886986	0.000273968	3.02931E-05	0	5	0	
0.0645	0.00203167	0.00144985	0.000291103	3.28364E-05	0	5	0	
0.0646667	-0.00375592	-0.00323101	0.000293336	4.26454E-05	0	5	0	
0.0648333	0.00417656	0.00166377	0.000277108	5.69148E-05	0	5	0	
0.065	-0.00110651	-0.00125788	0.000246	5.60168E-05	0	5	0	
0.0651667	0.00162921	0.00096564	0.000221528	4.8952E-05	0	5	0	
0.0653333	-0.00210247	-0.000645409	0.000221543	3.63212E-05	0	5	0	
0.0655	0.00265108	-0.000932075	0.000237609	3.33081E-05	0	5	0	
0.0656667	-0.0038839	-0.000277671	0.00024911	3.82081E-05	0	5	0	
0.0658333	0.00379496	0.00182959	0.000243405	5.1674E-05	0	5	0	
0.066	-0.00337237	-0.00273248	0.000235064	6.60413E-05	0	5	0	
0.0661667	0.00503297	0.00221557	0.000242607	7.15821E-05	0	5	0	
0.0663333	-0.0051937	-0.00194513	0.000255841	6.50477E-05	0	5	0	
0.0665	0.00430467	0.00109837	0.000255804	5.12135E-05	0	5	0	
0.0666667	-0.0038161	-0.00108748	0.000244586	3.17121E-05	0	5	0	
0.0668333	0.00322656	0.00218609	0.000227299	3.04597E-05	0	5	0	
0.067	-0.00209714	-0.000292453	0.000216573	3.16807E-05	0	5	0	
0.0671667	0.0013531	0.0012088	0.000238847	4.93869E-05	0	5	0	
0.0673333	-0.00411953	-0.00686062	0.000292448	7.85924E-05	0	5	0	
0.0675	0.00223488	0.00499634	0.000320075	0.000103276	0	5	0	
0.0676667	0.000993628	0.00208452	0.000294716	0.000102802	0	5	0	
0.0678333	0.00338181	0.000227712	0.000278535	8.32314E-05	0	5	0	
0.068	-0.0100392	-0.00429889	0.000301656	9.95879E-05	0	5	0	
0.0681667	0.00554532	0.000230969	0.000314479	8.69784E-05	0	5	0	
0.0683333	-0.000197426	0.00384221	0.000266046	8.76783E-05	0	5	0	
0.0685	0.000669138	0.000840997	0.000232337	7.59015E-05	0	5	0	
0.0686667	-0.00186996	-0.00742143	0.000233505	0.000123008	0	5	0	
0.0688333	-4.17483E-05	0.00191767	0.000242749	0.000122132	0	5	0	
0.069	8.76201E-05	0.00506871	0.000235484	9.77879E-05	0	5	0	
0.0691667	0.00203147	-0.000903261	0.000246958	7.12965E-05	0	5	0	
0.0693333	-0.00380124	-0.00395243	0.000281148	7.38217E-05	0	5	0	
0.0695	0.00357653	0.00136702	0.000297563	6.86166E-05	0	5	0	
0.0696667	-0.00107131	0.000542052	0.000280011	4.83224E-05	0	5	0	
0.0698333	-0.000407743	0.000706005	0.000254922	5.1007E-05	0	5	0	
0.07	8.90867E-05	-0.00143075	0.000254388	7.24724E-05	0	5	0	
0.0701667	0.00202129	0.00145843	0.000280777	7.42223E-05	0	5	0	
0.0703333	-0.00412306	2.4881E-05	0.000300959	5.11344E-05	0	5	0	
0.0705	0.00244639	-0.00164402	0.000287549	2.75179E-05	0	5	0	
0.0706667	-0.000735099	-0.000278828	0.000255288	3.49489E-05	0	5	0	
0.0708333	0.00175295	0.000441491	0.000247809	4.62373E-05	0	5	0	
0.071	-0.00323718	-6.65156E-05	0.000266314	4.40381E-05	0	5	0	
0.0711667	0.00169461	0.000433693	0.000281793	2.7624E-05	0	5	0	
0.0713333	-0.00064544	-4.04129E-05	0.000277604	1.9982E-05	0	5	0	
0.0715	0.000447879	-0.000312615	0.000272718	3.13684E-05	0	5	0	
0.0716667	-0.00276575	0.000484828	0.000272224	4.09858E-05	0	5	0	
0.0718333	0.00163567	-0.00145023	0.000263414	4.19915E-05	0	5	0	
0.072	0.000471925	-0.00084577	0.000249736	3.47389E-05	0	5	0	
0.0721667	-0.000801719	-0.000688007	0.000270807	3.01276E-05	0	5	0	
0.0723333	-0.00219268	0.00194603	0.000319904	3.57508E-05	0	5	0	
0.0725	0.00272949	0.00120515	0.000333979	5.98702E-05	0	5	0	
0.0726667	0.00040308	-0.00314916	0.000290463	8.97065E-05	0	5	0	
0.0728333	-0.00158177	0.00386561	0.000248965	9.14973E-05	0	5	0	
0.073	-0.000981595	-0.0053115	0.000253149	8.65471E-05	0	5	0	
0.0731667	-0.000588464	0.0029965	0.000269225	7.94553E-05	0	5	0	
0.0733333	0.00114518	-0.000765122	0.000271905	7.43516E-05	0	5	0	
0.0735	0.00114901	0.000551786	0.00028148	4.99564E-05	0	5	0	
0.0736667	-0.00302402	0.000312734	0.000291249	4.45786E-05	0	5	0	
0.0738333	0.00112977	0.000895729	0.000267637	5.10144E-05	0	5	0	
0.074	-0.000708201	-0.00261648	0.00021687	5.22658E-05	0	5	0	
0.0741667	-0.00053186	0.00207134	0.000192301	4.71173E-05	0	5	0	
0.0743333	-7.85534E-05	0.000235491	0.00021515	3.32187E-05	0	5	0	
0.0745	0.00193498	-0.000809234	0.000256954	3.73988E-05	0	5	0	
0.0746667	-0.00531999	0.000513488	0.000273799	4.81848E-05	0	5	0	
0.0748333	0.00250001	0.00111062	0.00026096	5.69231E-05	0	5	0	
0.075	-0.00273844	-0.00185694	0.000237901	5.71983E-05	0	5	0	
0.0751667	0.000818288	0.00117721	0.000244251	4.58554E-05	0	5	0	
0.0753333	0.000957739	-0.00168939	0.00026547	5.73174E-05	0	5	0	
0.0755	-0.000425116	0.00120661	0.000280888	7.25423E-05	0	5	0	
0.0756667	-0.00225432	0.000629912	0.000275506	7.64175E-05	0	5	0	
0.0758333	0.000865931	0.000359951	0.000258723	6.17787E-05	0	5	0	
0.076	-0.00311761	-0.00170134	0.000241772	4.01603E-05	0	5	0	
0.0761667	0.00132682	0.00106207	0.000232521	3.14213E-05	0	5	0	
0.0763333	0.00158379	-0.00106071	0.000218882	4.00004E-05	0	5	0	
0.0765	-0.00258874	0.00105217	0.0002097	6.06649E-05	0	5	0	
0.0766667	-0.000824876	-6.40987E-05	0.00021827	6.35385E-05	0	5	0	
0.0768333	0.00349231	0.00104804	0.000245464	4.5641E-05	0	5	0	
0.077	-0.00511283	-0.00210045	0.000260787	3.04673E-05	0	5	0	
0.0771667	0.00303932	0.000516671	0.000260196	2.84665E-05	0	5	0	
0.0773333	-0.00348904	0.00245285	0.000262217	4.1012E-05	0	5	0	
0.0775	0.0054172	-0.00250324	0.000274255	5.09502E-05	0	5	0	
0.0776667	-0.00305135	0.00173224	0.00027297	6.45051E-05	0	5	0	
0.0778333	0.000111298	0.00212367	0.000253472	7.36313E-05	0	5	0	
0.078	0.00108531	-0.00307531	0.000247578	7.76166E-05	0	5	0	
0.0781667	-0.00234307	0.00071971	0.000266322	7.47601E-05	0	5	0	
0.0783333	-0.000404838	0.000338125	0.000287868	6.52913E-05	0	5	0	
0.0785	0.00230938	-0.000167815	0.000291226	4.9519E-05	0	5	0	
0.0786667	-0.00234821	-0.000335099	0.000284142	2.81889E-05	0	5	0	
0.0788333	0.00243344	0.00119414	0.000284973	1.95713E-05	0	5	0	
0.079	-0.00188912	-0.00143666	0.000290519	2.40515E-05	0	5	0	
0.0791667	-0.000807782	0.000576244	0.000278696	4.21917E-05	0	5	0	
0.0793333	0.0010297	-0.000792389	0.000247381	4.83664E-05	0	5	0	
0.0795	-0.000603826	-0.000521823	0.000235503	3.91203E-05	0	5	0	
0.0796667	-0.00317239	-0.00175185	0.000272045	2.12619E-05	0	5	0	
0.0798333	0.00331927	0.00302315	0.000317933	2.9261E-05	0	5	0	
0.08	-0.000831581	-0.00177393	0.000323643	3.99701E-05	0	5	0	
0.0801667	0.000923451	0.00222638	0.000310639	5.58887E-05	0	5	0	
0.0803333	-0.00424988	-0.0038453	0.000307474	6.1326E-05	0	5	0	
0.0805	0.000820195	-0.000307114	0.000285293	5.54765E-05	0	5	0	
0.0806667	0.00256477	0.00254624	0.00023438	4.92149E-05	0	5	0	
0.0808333	-0.000844473	0.00359121	0.000198422	7.63785E-05	0	5	0	
0.081	0.00189807	-0.00713305	0.00019129	0.000103493	0	5	0	
0.0811667	-0.00547767	0.00227005	0.000209425	0.000127889	0	5	0	
0.0813333	0.00113173	0.00148761	0.000262475	8.62004E-05	0	5	0	
0.0815	0.00278195	0.00114335	0.000343561	9.25776E-05	0	5	0	
0.0816667	-0.00487287	-0.000774818	0.000369019	6.73634E-05	0	5	0	
0.0818333	0.00446396	-0.00203476	0.000322194	6.56392E-05	0	5	0	
0.082	-0.00332115	-0.0012599	0.000255205	4.74814E-05	0	5	0	
0.0821667	0.00143374	0.0047686	0.000223485	6.81198E-05	0	5	0	
0.0823333	-0.00108943	0.000332709	0.000220491	7.25447E-05	0	5	0	
0.0825	-0.00112826	-0.00338629	0.000230115	5.86815E-05	0	5	0	
0.0826667	-0.000560713	0.000624616	0.000243434	4.56514E-05	0	5	0	
0.0828333	0.00140848	0.00182979	0.000256862	5.95613E-05	0	5	0	
0.083	-0.00259086	-0.00415226	0.000260936	7.30741E-05	0	5	0	
0.0831667	0.00103487	0.0055826	0.000253699	8.48223E-05	0	5	0	
0.0833333	3.24501E-05	-0.00215016	0.00024756	8.3763E-05	0	5	0	
0.0835	0.000464345	-0.000578837	0.000263347	6.30735E-05	0	5	0	
0.0836667	-0.00173753	0.00141784	0.000289683	3.82846E-05	0	5	0	
0.0838333	0.000610183	-0.00219565	0.000294858	2.93671E-05	0	5	0	
0.084	0.000168313	-0.000202208	0.000273349	5.34027E-05	0	5	0	
0.0841667	-0.000286094	0.00114192	0.000254732	8.10798E-05	0	5	0	
0.0843333	0.00128773	0.000603285	0.000257618	9.04305E-05	0	5	0	
0.0845	-0.000532286	0.000496674	0.000273788	8.3461E-05	0	5	0	
0.0846667	0.000944204	-0.00153495	0.000284799	7.03542E-05	0	5	0	
0.0848333	-0.000991128	0.0009575	0.000278489	5.98903E-05	0	5	0	
0.085	0.00239419	-0.00204776	0.000265627	4.98153E-05	0	5	0	
0.0851667	-2.35752E-05	0.00309871	0.00027021	4.33802E-05	0	5	0	
0.0853333	-0.00336949	-0.00242537	0.000312946	4.15164E-05	0	5	0	
0.0855	0.00694436	0.000910969	0.000361203	5.3621E-05	0	5	0	
0.0856667	-0.00519149	0.00523141	0.000368746	7.25889E-05	0	5	0	
0.0858333	0.00151517	-0.00711185	0.000321799	9.35297E-05	0	5	0	
0.086	0.003526	0.000406625	0.000256686	0.000116915	0	5	0	
0.0861667	-0.00896448	0.00499835	0.000215835	0.00014286	0	5	0	
0.0863333	0.0127956	-0.00413539	0.000225905	0.000155889	0	5	0	
0.0865	-0.00646256	0.00342794	0.000294142	0.000136804	0	5	0	
0.0866667	-0.000444763	-0.00279708	0.000379077	9.57232E-05	0	5	0	
0.0868333	-0.000411395	0.000557893	0.000391338	5.88017E-05	0	5	0	
0.087	0.00340924	0.000236689	0.000330619	3.65557E-05	0	5	0	
0.0871667	-0.00223856	-3.7076E-05	0.000256307	3.931E-05	0	5	0	
0.0873333	-0.000174424	-0.0017543	0.000219588	6.40966E-05	0	5	0	
0.0875	0.000819044	0.00485514	0.000207006	8.51895E-05	0	5	0	
0.0876667	-0.000654912	-0.0039936	0.000213452	9.26589E-05	0	5	0	
0.0878333	-0.00109897	-0.00101945	0.00024035	8.23434E-05	0	5	0	
0.088	0.00205016	0.00344408	0.000255867	7.20495E-05	0	5	0	
0.0881667	-0.00390496	-0.00321992	0.000236169	7.42071E-05	0	5	0	
0.0883333	0.00340439	0.000430574	0.000208953	7.53206E-05	0	5	0	
0.0885	-0.00118536	-0.000351794	0.000229352	6.62858E-05	0	5	0	
0.0886667	-0.00287422	0.0013033	0.000288555	5.67767E-05	0	5	0	
0.0888333	-0.000158242	0.000884939	0.00032098	7.52091E-05	0	5	0	
0.089	0.00292017	-0.00204968	0.000285206	0.000107685	0	5	0	
0.0891667	-0.00362957	0.000716221	0.00021971	0.000103737	0	5	0	
0.0893333	0.00170233	-0.00184459	0.000185944	6.48773E-05	0	5	0	
0.0895	-0.00260816	0.0030953	0.000210693	4.36866E-05	0	5	0	
0.0896667	0.00113695	-0.00198935	0.00025653	4.50514E-05	0	5	0	
0.0898333	-0.00121427	0.000394171	0.000285464	4.52064E-05	0	5	0	
0.09	0.000314843	8.9652E-05	0.000275353	3.36379E-05	0	5	0	
0.0901667	-0.000120199	-0.000295423	0.000248484	2.12822E-05	0	5	0	
0.0903333	5.1386E-05	-0.00105122	0.000232252	2.27405E-05	0	5	0	
0.0905	-0.0016702	0.0018905	0.000233804	2.62556E-05	0	5	0	
0.0906667	0.0013984	-0.000760593	0.000241281	3.03562E-05	0	5	0	
0.0908333	-0.00223083	-0.00069478	0.000250956	3.14103E-05	0	5	0	
0.091	0.00225424	-0.000193414	0.000255094	4.0673E-05	0	5	0	
0.0911667	-0.00389483	2.19576E-05	0.000253658	4.9245E-05	0	5	0	
0.0913333	0.00279243	-0.000970213	0.000262187	4.88407E-05	0	5	0	
0.0915	0.00294417	0.00183556	0.000296734	4.00333E-05	0	5	0	
0.0916667	-0.00531752	-0.00319813	0.000320708	3.603E-05	0	5	0	
0.0918333	-0.000439238	0.000766946	0.000291524	4.49448E-05	0	5	0	
0.092	0.00407951	0.00155656	0.000221401	4.11194E-05	0	5	0	
0.0921667	-0.00434207	-0.00153957	0.000176416	4.14774E-05	0	5	0	
0.0923333	0.00355871	-0.00117943	0.000195791	3.33688E-05	0	5	0	
0.0925	-0.00168427	0.00419134	0.000263477	4.76615E-05	0	5	0	
0.0926667	-0.000518312	-0.0038065	0.000316777	5.96844E-05	0	5	0	
0.0928333	-0.000943232	-0.000444041	0.000321863	6.72841E-05	0	5	0	
0.093	0.000494255	0.00195651	0.00028216	5.85311E-05	0	5	0	
0.0931667	-0.00175841	-0.000480246	0.000210877	4.86939E-05	0	5	0	
0.0933333	0.00825483	-0.00111618	0.000154098	4.15403E-05	0	5	0	
0.0935	-0.00956666	0.00127019	0.000170908	4.53116E-05	0	5	0	
0.0936667	-0.00179523	-0.00369066	0.000285833	6.44081E-05	0	5	0	
0.0938333	0.0027852	0.00532838	0.000384867	7.89067E-05	0	5	0	
0.094	-0.000185062	0.000601229	0.000372655	0.000107925	0	5	0	
0.0941667	0.0014317	-0.00356382	0.00031111	8.93977E-05	0	5	0	
0.0943333	-0.00206042	-0.00162065	0.000269137	9.9603E-05	0	5	0	
0.0945	-0.00425886	0.000126065	0.000236663	7.13469E-05	0	5	0	
0.0946667	0.00884796	0.00483224	0.000210878	6.74354E-05	0	5	0	
0.0948333	-0.00621368	-0.000305654	0.000228069	6.70135E-05	0	5	0	
0.095	-0.000257006	-0.00513649	0.00028408	8.68124E-05	0	5	0	
0.0951667	-0.00162644	0.00276752	0.00031113	9.9083E-05	0	5	0	
0.0953333	0.00287868	-0.000251885	0.000297723	7.33905E-05	0	5	0	
0.0955	-0.00306522	0.00126303	0.0002756	6.56287E-05	0	5	0	
0.0956667	0.00276291	-0.00195908	0.000249029	5.45183E-05	0	5	0	
0.0958333	-0.00128352	0.00138525	0.000218302	7.21874E-05	0	5	0	
0.096	0.00403014	-0.000347859	0.000208775	7.35828E-05	0	5	0	
0.0961667	-0.00661808	0.000334732	0.000242583	6.86368E-05	0	5	0	
0.0963333	0.00419254	-0.00131041	0.000295977	7.31172E-05	0	5	0	
0.0965	-0.00314304	0.00203818	0.000324898	7.80152E-05	0	5	0	
0.0966667	0.00181804	-0.00295076	0.000303891	7.81012E-05	0	5	0	
0.0968333	-0.000313343	-0.000564189	0.000269529	6.10169E-05	0	5	0	
0.097	0.00304904	0.00244228	0.000242707	3.38027E-05	0	5	0	
0.0971667	-0.00464431	-0.00041991	0.000219487	4.45194E-05	0	5	0	
0.0973333	0.00382028	0.000437312	0.000200883	5.80933E-05	0	5	0	
0.0975	-0.00189554	0.00139915	0.000211543	6.13652E-05	0	5	0	
0.0976667	0.000762402	-0.00312322	0.000241798	5.6696E-05	0	5	0	
0.0978333	-0.00157932	0.00141092	0.000269012	5.39323E-05	0	5	0	
0.098	-0.000219073	-0.00233425	0.00027789	5.99487E-05	0	5	0	
0.0981667	0.00226553	0.0024164	0.000258314	5.75031E-05	0	5	0	
0.0983333	0.00203173	0.000270784	0.000207831	4.94324E-05	0	5	0	
0.0985	-0.00678701	-0.00180334	0.000182739	4.86712E-05	0	5	0	
0.0986667	0.00438083	0.00148869	0.00022608	4.10122E-05	0	5	0	
0.0988333	-0.000593498	-0.00103909	0.000300002	5.28738E-05	0	5	0	
0.099	0.00066521	0.000340244	0.000315648	7.13498E-05	0	5	0	
0.0991667	-0.00309705	0.00101165	0.00028335	9.31433E-05	0	5	0	
0.0993333	0.00279998	-0.00246057	0.000258194	8.68612E-05	0	5	0	
0.0995	-0.00273304	0.00278548	0.000261634	6.33766E-05	0	5	0	
0.0996667	0.00310517	-0.00249545	0.000268231	6.77916E-05	0	5	0	
0.0998333	-8.05552E-05	-0.00128261	0.000270194	7.04104E-05	0	5	0	
0.1	0.001483	0.00314387	0.000271645	7.48941E-05	0	5	0	
0.100167	-0.00542589	-0.0012306	0.000260824	7.29855E-05	0	5	0	
0.100333	0.00621546	-0.00164818	0.000234184	7.82576E-05	0	5	0	
0.1005	-0.00670639	0.00297425	0.000212858	7.66266E-05	0	5	0	
0.100667	0.00726552	-0.00308788	0.000234146	6.74273E-05	0	5	0	
0.100833	-0.00324771	0.00053937	0.000292884	5.56737E-05	0	5	0	
0.101	0.000531237	3.41029E-05	0.000343691	6.62819E-05	0	5	0	
0.101167	-0.000941912	0.00193957	0.000319066	8.23916E-05	0	5	0	
0.101333	0.00391648	-0.0028572	0.000241263	9.05697E-05	0	5	0	
0.1015	-0.00635076	0.00221851	0.000188902	8.30635E-05	0	5	0	
0.101667	0.00715698	-0.0013751	0.000215094	6.19767E-05	0	5	0	
0.101833	-0.00622764	-0.000860794	0.000274286	4.18348E-05	0	5	0	
0.102	0.00375307	0.00266306	0.000303038	3.57446E-05	0	5	0	
0.102167	-0.00156924	-0.0029208	0.000297114	4.08912E-05	0	5	0	
0.102333	0.000727238	0.00219828	0.000279148	5.80708E-05	0	5	0	
0.1025	-0.00269038	-0.00184188	0.000253845	7.27176E-05	0	5	0	
0.102667	0.00494214	-0.000195911	0.000221628	8.84125E-05	0	5	0	
0.102833	-0.00638971	0.000823072	0.000202757	0.000102662	0	5	0	
0.103	0.00519822	-0.00194651	0.000212127	9.02505E-05	0	5	0	
0.103167	-0.00400072	0.000861002	0.000238215	6.18746E-05	0	5	0	
0.103333	0.00329141	0.000706948	0.000258023	3.37132E-05	0	5	0	
0.1035	-0.00363147	-0.000622062	0.000262926	2.76201E-05	0	5	0	
0.103667	0.00414078	0.00131067	0.000259974	2.21365E-05	0	5	0	
0.103833	-0.00541936	-0.00274714	0.00026217	3.07264E-05	0	5	0	
0.104	0.00483257	0.00191019	0.000268415	4.30731E-05	0	5	0	
0.104167	-0.0025215	-0.00102351	0.000271043	5.46758E-05	0	5	0	
0.104333	0.00263983	0.000234483	0.000265535	5.07687E-05	0	5	0	
0.1045	-0.00265844	0.00163044	0.00025139	4.37202E-05	0	5	0	
0.104667	0.00476887	-0.00220622	0.000238884	4.43542E-05	0	5	0	
0.104833	-0.00609867	1.66282E-05	0.000232878	4.27042E-05	0	5	0	
0.105	0.00644578	0.000341595	0.000238767	3.87542E-05	0	5	0	
0.105167	-0.00552986	0.00181655	0.000256196	3.23977E-05	0	5	0	
0.105333	0.00352068	-0.00104861	0.00027992	2.89899E-05	0	5	0	
0.1055	-0.00252166	0.000678116	0.000294138	2.69691E-05	0	5	0	
0.105667	0.0038473	-0.000605937	0.000273708	2.37063E-05	0	5	0	
0.105833	-0.00549396	-0.00196569	0.000237817	3.24821E-05	0	5	0	
0.106	0.00431904	0.000645504	0.000221541	4.73438E-05	0	5	0	
0.106167	-0.00325133	6.14285E-06	0.000225226	4.96259E-05	0	5	0	
0.106333	0.00567331	0.00136509	0.000221012	3.99993E-05	0	5	0	
0.1065	-0.00621493	0.00256012	0.00021855	3.30942E-05	0	5	0	
0.106667	0.00318748	-0.00439656	0.000232441	5.05588E-05	0	5	0	
0.106833	-0.0021074	-0.00056188	0.000244585	6.01127E-05	0	5	0	
0.107	0.00170693	0.00343042	0.000247424	6.82151E-05	0	5	0	
0.107167	0.00217909	4.30066E-05	0.00025781	5.58834E-05	0	5	0	
0.107333	-0.00246914	-0.000908934	0.000253593	5.54344E-05	0	5	0	
0.1075	-0.00490113	-0.00182851	0.000205639	4.21612E-05	0	5	0	
0.107667	0.0099122	-0.000135913	0.000167513	7.63343E-05	0	5	0	
0.107833	-0.0071136	0.00604236	0.000204974	0.000130485	0	5	0	
0.108	0.00265893	-0.00561431	0.000303075	0.000148888	0	5	0	
0.108167	-3.26337E-05	-0.000137178	0.000361768	0.000139508	0	5	0	
0.108333	-0.00167556	0.00179864	0.00035184	7.99011E-05	0	5	0	
0.1085	-0.000754925	0.00012186	0.000293347	5.8269E-05	0	5	0	
0.108667	0.00314014	0.0022809	0.000220431	2.89321E-05	0	5	0	
0.108833	-0.00773597	-0.0049827	0.000177097	3.77344E-05	0	5	0	
0.109	0.00755407	0.000683963	0.00018715	6.34006E-05	0	5	0	
0.109167	-0.00357679	0.00382641	0.000244363	9.28195E-05	0	5	0	
0.109333	0.0018419	-0.00228508	0.00028313	9.61151E-05	0	5	0	
0.1095	-0.00331076	-0.000638318	0.000277113	7.41194E-05	0	5	0	
0.109667	0.00262437	0.000603952	0.00025292	5.58625E-05	0	5	0	
0.109833	-0.00203805	0.000734284	0.000240863	5.71687E-05	0	5	0	
0.11	0.00421985	-0.000420886	0.000243856	5.25389E-05	0	5	0	
0.110167	-0.00397515	-0.000366368	0.000256611	3.5809E-05	0	5	0	
0.110333	0.00336887	0.000714217	0.000277819	2.30849E-05	0	5	0	
0.1105	-0.00397198	-0.00146052	0.000285515	2.79009E-05	0	5	0	
0.110667	0.00700831	0.00324093	0.000275414	4.01676E-05	0	5	0	
0.110833	-0.00728134	-0.00154527	0.000270418	4.37749E-05	0	5	0	
0.111	0.0048407	-0.00143764	0.000284506	5.58341E-05	0	5	0	
0.111167	-0.00354412	0.0023185	0.00028061	5.47647E-05	0	5	0	
0.111333	0.00726817	-0.000300988	0.000243652	4.72289E-05	0	5	0	
0.1115	-0.00961857	-0.000939031	0.000218778	5.52112E-05	0	5	0	
0.111667	0.00759959	0.00226817	0.000246272	7.44042E-05	0	5	0	
0.111833	-0.00447465	-0.000803197	0.000303814	7.84523E-05	0	5	0	
0.112	0.00168337	-0.000902075	0.000320346	5.8733E-05	0	5	0	
0.112167	-0.00236856	0.00030386	0.000287915	3.38099E-05	0	5	0	
0.112333	0.00346459	-9.24214E-05	0.000236742	2.70059E-05	0	5	0	
0.1125	-0.00441728	0.0031115	0.000207758	2.36955E-05	0	5	0	
0.112667	0.00680318	-0.00277315	0.000210293	3.46892E-05	0	5	0	
0.112833	-0.006758	-0.000426738	0.000233456	3.59946E-05	0	5	0	
0.113	0.00563601	0.00103851	0.000263119	3.98382E-05	0	5	0	
0.113167	-0.00429777	0.000860498	0.000287663	4.31914E-05	0	5	0	
0.113333	0.00316914	-0.00198945	0.000297919	5.25611E-05	0	5	0	
0.1135	-0.00338159	0.00210726	0.000278765	5.46425E-05	0	5	0	
0.113667	0.00606578	-0.000878102	0.000246275	4.20632E-05	0	5	0	
0.113833	-0.00577317	0.000640965	0.000238979	3.65086E-05	0	5	0	
0.114	0.0041099	-0.00204551	0.000265603	3.6627E-05	0	5	0	
0.114167	-0.0056564	0.0018119	0.000280698	4.10281E-05	0	5	0	
0.114333	0.00877009	0.000254415	0.000270665	3.65933E-05	0	5	0	
0.1145	-0.00637648	-0.000505771	0.000258353	3.14907E-05	0	5	0	
0.114667	0.0055538	-0.000206175	0.000274404	2.59432E-05	0	5	0	
0.114833	-0.00679787	0.000771392	0.000294647	2.26411E-05	0	5	0	
0.115	0.00696912	-0.000561479	0.000308946	2.42645E-05	0	5	0	
0.115167	-0.00607765	0.000126457	0.00030866	4.1491E-05	0	5	0	
0.115333	0.0053742	0.000149978	0.000293661	6.11351E-05	0	5	0	
0.1155	-0.00441233	-0.00132519	0.000270962	6.19347E-05	0	5	0	
0.115667	0.00566763	2.96185E-05	0.000260527	4.9278E-05	0	5	0	
0.115833	-0.00648175	0.00244832	0.000266506	5.39644E-05	0	5	0	
0.116	0.00651293	-0.00390609	0.000271519	6.79488E-05	0	5	0	
0.116167	-0.00629174	0.000233458	0.000256047	6.67846E-05	0	5	0	
0.116333	0.00682741	0.0010381	0.000242389	4.1635E-05	0	5	0	
0.1165	-0.00506287	0.000233741	0.000238885	2.24661E-05	0	5	0	
0.116667	0.00666009	-0.000172388	0.000246832	1.43908E-05	0	5	0	
0.116833	-0.00960438	-0.00107996	0.000266323	2.01151E-05	0	5	0	
0.117	0.00670904	-0.000919876	0.000293799	2.79922E-05	0	5	0	
0.117167	-0.00288245	-0.00138567	0.000305736	4.34133E-05	0	5	0	
0.117333	0.00478037	0.00213921	0.000280957	4.97667E-05	0	5	0	
0.1175	-0.00339683	-0.00156826	0.000238061	4.88183E-05	0	5	0	
0.117667	0.00525326	0.00171423	0.000218196	4.41884E-05	0	5	0	
0.117833	-0.00868526	-0.000858291	0.000228282	4.61921E-05	0	5	0	
0.118	0.0083272	2.54801E-05	0.000254408	4.43321E-05	0	5	0	
0.118167	-0.00480672	-0.000647688	0.000281553	3.81421E-05	0	5	0	
0.118333	0.00383518	1.01005E-05	0.000298817	2.50042E-05	0	5	0	
0.1185	-0.00272903	0.00167435	0.000297597	2.13199E-05	0	5	0	
0.118667	0.00655615	-0.00266247	0.00027686	2.85254E-05	0	5	0	
0.118833	-0.0096831	0.00354613	0.000256787	4.3143E-05	0	5	0	
0.119	0.00690753	-0.00205063	0.000245793	5.48027E-05	0	5	0	
0.119167	-0.00495413	0.00104776	0.000248314	4.81871E-05	0	5	0	
0.119333	0.00660088	-0.000273765	0.000244496	4.54926E-05	0	5	0	
0.1195	-0.00472178	0.00159191	0.000253672	5.26597E-05	0	5	0	
0.119667	0.00290832	-0.00232815	0.000274285	6.90498E-05	0	5	0	
0.119833	-0.00513734	0.00044902	0.000267055	6.14805E-05	0	5	0	
0.12	0.00906123	0.00169365	0.000240303	4.08403E-05	0	5	0	
0.120167	-0.00761173	0.00253911	0.000234453	4.59433E-05	0	5	0	
0.120333	0.00214365	-0.00531158	0.000278154	6.6993E-05	0	5	0	
0.1205	-0.00145294	-9.99259E-05	0.000306584	9.67693E-05	0	5	0	
0.120667	0.00598245	0.00308658	0.000288179	9.16273E-05	0	5	0	
0.120833	-0.00629112	0.00289512	0.000248555	0.000105577	0	5	0	
0.121	0.00665262	-0.00583455	0.000220801	0.000122461	0	5	0	
0.121167	-0.00924019	0.00152293	0.000219138	0.000114636	0	5	0	
0.121333	0.00767724	-0.00026578	0.000238669	8.05157E-05	0	5	0	
0.1215	-0.00460814	0.00392644	0.000285637	6.19291E-05	0	5	0	
0.121667	0.00275039	-0.0061817	0.000315322	7.40451E-05	0	5	0	
0.121833	-0.00101325	0.00114374	0.000303609	9.13882E-05	0	5	0	
0.122	0.00416891	0.00274519	0.000262016	7.53828E-05	0	5	0	
0.122167	-0.00926953	-3.18841E-05	0.000234281	8.35381E-05	0	5	0	
0.122333	0.00996331	-0.00427587	0.00023879	8.78008E-05	0	5	0	
0.1225	-0.00782963	0.00350778	0.000263106	9.95084E-05	0	5	0	
0.122667	0.00609144	-0.00260068	0.000275743	8.3169E-05	0	5	0	
0.122833	-0.00451196	-0.000448168	0.000261594	6.84098E-05	0	5	0	
0.123	0.00768276	0.00286199	0.000242468	5.66566E-05	0	5	0	
0.123167	-0.00733122	-0.00186472	0.000238286	5.63681E-05	0	5	0	
0.123333	0.00549641	-0.0012768	0.000257156	5.34862E-05	0	5	0	
0.1235	-0.00416067	0.000186601	0.00025888	4.92654E-05	0	5	0	
0.123667	0.00681653	0.000106509	0.000235183	3.82853E-05	0	5	0	
0.123833	-0.0078435	0.000986062	0.000217105	4.47562E-05	0	5	0	
0.124	0.00764489	-0.00216854	0.000234188	4.7732E-05	0	5	0	
0.124167	-0.00833268	0.00297261	0.00026773	4.86492E-05	0	5	0	
0.124333	0.0100389	-0.00340812	0.00029358	5.77157E-05	0	5	0	
0.1245	-0.00701224	0.000608523	0.000310636	7.36757E-05	0	5	0	
0.124667	0.00252226	0.00289866	0.000314638	8.83324E-05	0	5	0	
0.124833	-0.00223993	-0.00263563	0.000271105	7.68617E-05	0	5	0	
0.125	0.00796393	-0.00107728	0.000204855	8.34119E-05	0	5	0	
0.125167	-0.0116913	0.00405835	0.000178591	9.01691E-05	0	5	0	
0.125333	0.0101016	-0.00492576	0.000220238	0.000105161	0	5	0	
0.1255	-0.00908152	0.00496057	0.000274292	9.42488E-05	0	5	0	
0.125667	0.00806891	-0.00318168	0.000287913	8.83893E-05	0	5	0	
0.125833	-0.00484813	-0.000314447	0.00028818	6.73503E-05	0	5	0	
0.126	0.00329413	-0.000387112	0.000299642	4.86527E-05	0	5	0	
0.126167	-0.00362851	-0.000183375	0.000303453	4.45656E-05	0	5	0	
0.126333	0.00663334	-0.000747205	0.000286972	6.41547E-05	0	5	0	
0.1265	-0.00901244	0.0035412	0.000263206	7.73392E-05	0	5	0	
0.126667	0.00894212	-0.00207975	0.000253749	7.61714E-05	0	5	0	
0.126833	-0.0102739	-0.0036915	0.000268754	5.99065E-05	0	5	0	
0.127	0.00875212	0.00372787	0.000288674	6.05646E-05	0	5	0	
0.127167	-0.00745385	-0.00175308	0.000308224	5.93331E-05	0	5	0	
0.127333	0.00766146	0.000540367	0.000306374	5.67524E-05	0	5	0	
0.1275	-0.00680116	0.000163196	0.000283755	4.07708E-05	0	5	0	
0.127667	0.00701256	0.000160086	0.000252553	3.35031E-05	0	5	0	
0.127833	-0.00926709	-0.000569806	0.000234579	3.19451E-05	0	5	0	
0.128	0.00869366	0.000139269	0.000243355	3.12666E-05	0	5	0	
0.128167	-0.00637465	0.0013132	0.000271467	2.25053E-05	0	5	0	
0.128333	0.00481869	-0.00186425	0.000285422	2.47827E-05	0	5	0	
0.1285	-0.00484275	0.000719751	0.000279942	3.09002E-05	0	5	0	
0.128667	0.00484917	0.000561687	0.000259452	3.54519E-05	0	5	0	
0.128833	-0.0068214	0.000347087	0.000248368	3.44569E-05	0	5	0	
0.129	0.00713729	-0.000985471	0.000250645	3.33571E-05	0	5	0	
0.129167	-0.00619904	0.000357411	0.000265005	3.66775E-05	0	5	0	
0.129333	0.00486125	-0.00034361	0.000268399	4.72562E-05	0	5	0	
0.1295	-0.00548857	0.000971473	0.000259389	6.07638E-05	0	5	0	
0.129667	0.00639519	-0.000698329	0.000242129	5.95872E-05	0	5	0	
0.129833	-0.00786586	0.00107801	0.000239352	4.78272E-05	0	5	0	
0.13	0.00778126	0.00016301	0.000249406	3.03356E-05	0	5	0	
0.130167	-0.00786631	-0.000229051	0.000272108	2.89203E-05	0	5	0	
0.130333	0.00656567	-0.00102612	0.000282389	3.39211E-05	0	5	0	
0.1305	-0.00690363	0.00160473	0.000279484	4.58768E-05	0	5	0	
0.130667	0.00705176	-0.000288406	0.000272569	5.39932E-05	0	5	0	
0.130833	-0.00560703	-0.000478603	0.00026664	5.49486E-05	0	5	0	
0.131	0.00513464	0.00042737	0.000256043	5.15505E-05	0	5	0	
0.131167	-0.00612905	-6.87045E-05	0.000239829	4.47239E-05	0	5	0	
0.131333	0.0077594	-0.000107014	0.000228301	3.69265E-05	0	5	0	
0.1315	-0.00968378	-2.52797E-05	0.000233167	3.73599E-05	0	5	0	
0.131667	0.00826769	-0.000700368	0.000245446	5.05614E-05	0	5	0	
0.131833	-0.00691774	0.0019449	0.000258645	5.28454E-05	0	5	0	
0.132	0.00573968	-0.00211013	0.000259733	5.01349E-05	0	5	0	
0.132167	-0.00475573	0.000397532	0.000266155	4.1333E-05	0	5	0	
0.132333	0.00348669	-0.00311955	0.000266399	3.76373E-05	0	5	0	
0.1325	-0.00528217	0.0015129	0.000242059	5.50943E-05	0	5	0	
0.132667	0.00552493	0.00362839	0.000203985	6.18553E-05	0	5	0	
0.132833	-0.00395568	-0.0012769	0.000189787	7.93589E-05	0	5	0	
0.133	0.00554231	-0.00226044	0.00019804	7.82276E-05	0	5	0	
0.133167	-0.0108077	-0.00105501	0.000215954	6.23925E-05	0	5	0	
0.133333	0.0105543	0.000219113	0.000245435	4.58865E-05	0	5	0	
0.1335	-0.00716766	0.00344985	0.000289162	6.08062E-05	0	5	0	
0.133667	0.00645279	-0.00122245	0.000310165	8.03037E-05	0	5	0	
0.133833	-0.00508955	-0.00290716	0.000289116	8.47473E-05	0	5	0	
0.134	0.0060561	0.000701408	0.000260452	5.22858E-05	0	5	0	
0.134167	-0.00858835	0.00545343	0.000245746	5.44422E-05	0	5	0	
0.134333	0.00945434	-0.00356757	0.000249643	7.42769E-05	0	5	0	
0.1345	-0.0102093	-0.00273028	0.000262421	7.99972E-05	0	5	0	
0.134667	0.0104882	0.00478423	0.000279333	6.97791E-05	0	5	0	
0.134833	-0.00662755	-0.00297536	0.000278227	6.89917E-05	0	5	0	
0.135	0.00628972	0.000455743	0.000254224	7.37177E-05	0	5	0	
0.135167	-0.00914882	0.00155058	0.000226529	7.36748E-05	0	5	0	
0.135333	0.00988367	-0.000950044	0.000221814	6.62284E-05	0	5	0	
0.1355	-0.0104996	-0.00017711	0.000242738	6.29733E-05	0	5	0	
0.135667	0.0102259	0.0017194	0.000262906	5.17205E-05	0	5	0	
0.135833	-0.00835243	-0.00384484	0.000271851	5.12161E-05	0	5	0	
0.136	0.00549488	0.00156497	0.000263351	4.63743E-05	0	5	0	
0.136167	-0.00714564	0.000400268	0.000248953	5.60207E-05	0	5	0	
0.136333	0.00896056	-0.000322596	0.000237568	4.21476E-05	0	5	0	
0.1365	-0.00901207	-0.00108852	0.000243307	3.93922E-05	0	5	0	
0.136667	0.00738088	-0.000165555	0.000254619	3.43928E-05	0	5	0	
0.136833	-0.00876955	-0.00122337	0.000257895	3.08141E-05	0	5	0	
0.137	0.00930884	0.00096278	0.000250009	2.39224E-05	0	5	0	
0.137167	-0.00956715	-0.00132958	0.000253259	4.2166E-05	0	5	0	
0.137333	0.00973725	-0.00245094	0.000261786	8.58583E-05	0	5	0	
0.1375	-0.0106145	0.00224281	0.000262226	0.000117902	0	5	0	
0.137667	0.0107564	0.000153155	0.000260002	9.2034E-05	0	5	0	
0.137833	-0.00851596	-0.00327563	0.000270717	6.00478E-05	0	5	0	
0.138	0.00601321	0.00123844	0.000290856	3.26584E-05	0	5	0	
0.138167	-0.00626933	-0.00118142	0.000297417	4.98942E-05	0	5	0	
0.138333	0.00488049	0.00124258	0.000275548	5.04017E-05	0	5	0	
0.1385	-0.00305859	-0.00235339	0.000224888	5.6619E-05	0	5	0	
0.138667	0.00768957	0.000917384	0.00017664	4.98164E-05	0	5	0	
0.138833	-0.0128004	0.00117461	0.00017933	3.93237E-05	0	5	0	
0.139	0.0123299	-0.00216879	0.000236298	4.05089E-05	0	5	0	
0.139167	-0.0105869	-0.00119815	0.000311869	3.30148E-05	0	5	0	
0.139333	0.00515807	0.00365384	0.00034025	4.65344E-05	0	5	0	
0.1395	-0.00162656	-0.000708941	0.000314645	6.7783E-05	0	5	0	
0.139667	0.00422309	-0.00297501	0.000250923	9.8503E-05	0	5	0	
0.139833	-0.00912002	0.0033502	0.000211874	9.84119E-05	0	5	0	
0.14	0.0103749	-0.000334652	0.000217487	7.23431E-05	0	5	0	
0.140167	-0.00999559	-0.000678695	0.00026559	4.58716E-05	0	5	0	
0.140333	0.00703626	0.00133364	0.000302769	4.70768E-05	0	5	0	
0.1405	-0.00563988	-0.00180341	0.000310741	5.15514E-05	0	5	0	
0.140667	0.00658576	0.0016851	0.000285419	5.23213E-05	0	5	0	
0.140833	-0.00841171	-0.000458576	0.000259228	3.80365E-05	0	5	0	
0.141	0.0103531	0.000592026	0.000249712	2.5803E-05	0	5	0	
0.141167	-0.0115345	-0.000574795	0.000262679	2.09341E-05	0	5	0	
0.141333	0.0107636	-0.000416185	0.000269345	1.98746E-05	0	5	0	
0.1415	-0.00939873	0.000714623	0.000267488	2.27941E-05	0	5	0	
0.141667	0.00890296	-0.00201336	0.000263484	2.10953E-05	0	5	0	
0.141833	-0.00606468	0.00244353	0.000256779	3.02944E-05	0	5	0	
0.142	0.00711914	-0.00166574	0.000255549	3.73712E-05	0	5	0	
0.142167	-0.00807495	-0.000816992	0.000257619	3.97615E-05	0	5	0	
0.142333	0.00566068	0.000685447	0.000258252	3.90817E-05	0	5	0	
0.1425	-0.00478043	7.80525E-05	0.000242778	4.91469E-05	0	5	0	
0.142667	0.00803075	-0.00303695	0.000221673	5.96624E-05	0	5	0	
0.142833	-0.00659243	0.00259227	0.00020752	6.31068E-05	0	5	0	
0.143	0.00795044	-0.000715224	0.000224965	5.2443E-05	0	5	0	
0.143167	-0.00909017	-0.00111771	0.000246607	4.69847E-05	0	5	0	
0.143333	0.00864973	0.00223244	0.000269767	5.27417E-05	0	5	0	
0.1435	-0.00780761	-0.00191672	0.000273886	6.38957E-05	0	5	0	
0.143667	0.00714061	-0.000823106	0.00026239	7.23034E-05	0	5	0	
0.143833	-0.0083675	0.000413521	0.000238814	7.81614E-05	0	5	0	
0.144	0.0140798	-0.000205696	0.000250405	8.44733E-05	0	5	0	
0.144167	-0.0123625	0.00111175	0.000301929	8.37403E-05	0	5	0	
0.144333	0.0077326	0.00132025	0.000355153	6.51963E-05	0	5	0	
0.1445	-0.00990921	-0.00142146	0.000345367	5.17726E-05	0	5	0	
0.144667	0.00742181	0.00149766	0.000284129	5.04099E-05	0	5	0	
0.144833	-0.0018488	-0.00077676	0.000248189	4.53447E-05	0	5	0	
0.145	0.00551269	0.00075542	0.000212752	3.93355E-05	0	5	0	
0.145167	-0.0135574	-0.00290885	0.000210729	3.83945E-05	0	5	0	
0.145333	0.0157816	0.00344917	0.000211713	5.76208E-05	0	5	0	
0.1455	-0.0127743	0.00463452	0.000268501	8.99519E-05	0	5	0	
0.145667	0.0112403	-0.00627854	0.000279348	0.000107766	0	5	0	
0.145833	-0.012747	-0.000851763	0.000310488	0.00010988	0	5	0	
0.146	0.00412737	0.000772676	0.000350305	8.33902E-05	0	5	0	
0.146167	0.000909638	0.00320231	0.000366122	9.64487E-05	0	5	0	
0.146333	0.00803266	6.83363E-05	0.000285476	8.40441E-05	0	5	0	
0.1465	-0.0103891	-0.000257171	0.000201006	7.40035E-05	0	5	0	
0.146667	0.00888541	-0.00195938	0.000190268	4.6002E-05	0	5	0	
0.146833	-0.0101252	0.00118867	0.00024621	5.32499E-05	0	5	0	
0.147	0.0112628	0.000919904	0.000266424	4.88133E-05	0	5	0	
0.147167	-0.00918894	-0.00400847	0.000272255	4.57395E-05	0	5	0	
0.147333	0.00817354	0.00278014	0.000270142	5.1229E-05	0	5	0	
0.1475	-0.00525186	0.000238736	0.000246357	5.69179E-05	0	5	0	
0.147667	0.0123191	0.00074104	0.000222565	4.71346E-05	0	5	0	
0.147833	-0.0138123	-0.000225581	0.000226755	3.43317E-05	0	5	0	
0.148	0.0106095	-0.00141063	0.000265059	4.6257E-05	0	5	0	
0.148167	-0.00659649	-0.000591481	0.000281297	5.68531E-05	0	5	0	
0.148333	0.00905861	0.000660351	0.000255188	4.82012E-05	0	5	0	
0.1485	-0.00715966	0.000934729	0.000215636	3.33862E-05	0	5	0	
0.148667	0.00849526	-0.000719462	0.000205794	2.34572E-05	0	5	0	
0.148833	-0.00967814	-0.000469646	0.000219717	2.28001E-05	0	5	0	
0.149	0.00844517	0.0013013	0.000240377	3.10069E-05	0	5	0	
0.149167	-0.00462836	-0.00224564	0.000236115	5.89582E-05	0	5	0	
0.149333	0.0081682	-0.000940113	0.000222044	8.59758E-05	0	5	0	
0.1495	-0.0113649	0.00267392	0.000220485	8.21601E-05	0	5	0	
0.149667	0.00867211	-0.000806606	0.000253326	5.51946E-05	0	5	0	
0.149833	-0.00467369	-0.000343807	0.000298895	2.49014E-05	0	5	0	
0.15	0.00725499	-0.000271605	0.000287445	2.84152E-05	0	5	0	
0.150167	-0.014915	-0.00160832	0.000260602	3.45288E-05	0	5	0	
0.150333	0.0165797	0.00323767	0.000252897	4.79433E-05	0	5	0	
0.1505	-0.0115057	-0.00178054	0.000296425	5.01896E-05	0	5	0	
0.150667	0.00952187	-0.00125328	0.000315013	5.58242E-05	0	5	0	
0.150833	-0.0105831	0.00193068	0.000299977	6.49393E-05	0	5	0	
0.151	0.0101354	-0.000296891	0.000273001	7.23487E-05	0	5	0	
0.151167	-0.00889497	-0.000111435	0.000254889	7.66408E-05	0	5	0	
0.151333	0.00982099	-0.00233651	0.00022444	7.82817E-05	0	5	0	
0.1515	-0.0135075	0.00377974	0.0002118	7.62922E-05	0	5	0	
0.151667	0.0144499	-0.002147	0.000245348	7.13818E-05	0	5	0	
0.151833	-0.0103762	-0.000801501	0.000300901	5.71196E-05	0	5	0	
0.152	0.00633005	0.00339677	0.000328852	5.64639E-05	0	5	0	
0.152167	-0.00536782	-0.00345108	0.000290679	6.1747E-05	0	5	0	
0.152333	0.00941258	0.001667	0.000231018	6.59571E-05	0	5	0	
0.1525	-0.0137589	-0.00154421	0.000209497	6.10974E-05	0	5	0	
0.152667	0.0120497	0.00218614	0.000231175	5.66671E-05	0	5	0	
0.152833	-0.0105486	-0.00110447	0.000258127	6.55119E-05	0	5	0	
0.153	0.00978795	-0.00123206	0.00026019	6.47516E-05	0	5	0	
0.153167	-0.00979885	0.00180415	0.000257441	5.28902E-05	0	5	0	
0.153333	0.00819815	-0.00116561	0.000263967	3.91486E-05	0	5	0	
0.1535	-0.00812222	-0.00074087	0.000267436	3.18845E-05	0	5	0	
0.153667	0.00614245	0.00200572	0.000240446	3.39078E-05	0	5	0	
0.153833	-0.00721388	-0.00130327	0.000206906	3.60675E-05	0	5	0	
0.154	0.00990654	-0.000424845	0.00019359	3.99474E-05	0	5	0	
0.154167	-0.0111104	0.000738115	0.000218481	4.52113E-05	0	5	0	
0.154333	0.010394	-0.000353693	0.000251803	5.17749E-05	0	5	0	
0.1545	-0.00891899	-0.00236852	0.000267424	6.17209E-05	0	5	0	
0.154667	0.00576374	0.000571289	0.000260358	5.61124E-05	0	5	0	
0.154833	-0.00500636	-0.000185079	0.000243199	3.67955E-05	0	5	0	
0.155	0.00747672	0.000594595	0.00022682	2.6124E-05	0	5	0	
0.155167	-0.00876325	0.000108479	0.000224402	3.3401E-05	0	5	0	
0.155333	0.00894469	0.000589912	0.000229547	5.02602E-05	0	5	0	
0.1555	-0.0107	-0.00105242	0.000247383	5.24549E-05	0	5	0	
0.155667	0.0111879	-0.00085727	0.000279883	4.00249E-05	0	5	0	
0.155833	-0.00788304	0.000802698	0.000311031	3.49799E-05	0	5	0	
0.156	0.00709872	0.0015458	0.000314095	3.41476E-05	0	5	0	
0.156167	-0.00845162	-0.00256627	0.000280028	4.53295E-05	0	5	0	
0.156333	0.0105068	0.00227428	0.000251183	4.84001E-05	0	5	0	
0.1565	-0.0131003	-0.000522212	0.000258312	5.26107E-05	0	5	0	
0.156667	0.0117804	-0.000447093	0.000286489	5.14796E-05	0	5	0	
0.156833	-0.00916725	0.000441671	0.00029854	5.05053E-05	0	5	0	
0.157	0.0104978	0.00170774	0.000285245	4.69544E-05	0	5	0	
0.157167	-0.0103305	-0.000951159	0.000272162	4.00168E-05	0	5	0	
0.157333	0.00997406	0.000602606	0.00028026	2.84823E-05	0	5	0	
0.1575	-0.0112751	-0.0020189	0.000289135	2.21956E-05	0	5	0	
0.157667	0.0121372	0.00254029	0.000294835	2.68504E-05	0	5	0	
0.157833	-0.0104293	-4.3158E-06	0.00030275	3.61741E-05	0	5	0	
0.158	0.0083302	0.00044782	0.000296855	3.63236E-05	0	5	0	
0.158167	-0.00940017	-0.00124532	0.000271012	3.4407E-05	0	5	0	
0.158333	0.0106107	-0.000300628	0.000244781	2.64998E-05	0	5	0	
0.1585	-0.00921612	0.00330248	0.000238095	5.04666E-05	0	5	0	
0.158667	0.0138149	-0.000325478	0.000249139	4.7384E-05	0	5	0	
0.158833	-0.017576	-0.0036396	0.000273739	5.46336E-05	0	5	0	
0.159	0.0136281	0.000940693	0.00029886	5.13291E-05	0	5	0	
0.159167	-0.00792729	0.00321102	0.000339584	6.85981E-05	0	5	0	
0.159333	0.00511819	-0.00138615	0.000342208	8.01101E-05	0	5	0	
0.1595	-0.00699954	-0.00364721	0.00031349	6.81704E-05	0	5	0	
0.159667	0.00968391	0.00150962	0.000256546	7.28426E-05	0	5	0	
0.159833	-0.0101885	8.11715E-05	0.000217772	7.74671E-05	0	5	0	
0.16	0.0116567	0.0022092	0.000214248	7.04038E-05	0	5	0	
0.160167	-0.0140758	-0.00227551	0.000246601	5.43759E-05	0	5	0	
0.160333	0.0133383	-0.00335947	0.000289667	4.97369E-05	0	5	0	
0.1605	-0.0101996	0.00329589	0.000332756	6.93262E-05	0	5	0	
0.160667	0.0060223	-0.00058118	0.000319517	6.47356E-05	0	5	0	
0.160833	-0.0066119	-0.00246458	0.000257657	4.93627E-05	0	5	0	
0.161	0.0113059	0.00290711	0.000203886	4.02433E-05	0	5	0	
0.161167	-0.0129436	-0.00086147	0.000211568	4.21755E-05	0	5	0	
0.161333	0.0119594	0.00164711	0.000270889	4.58641E-05	0	5	0	
0.1615	-0.00945473	-0.00362238	0.000303131	5.6738E-05	0	5	0	
0.161667	0.010478	0.00105004	0.000297964	7.49614E-05	0	5	0	
0.161833	-0.0105757	0.000612887	0.000273857	8.02361E-05	0	5	0	
0.162	0.0113096	-0.000102358	0.000272228	6.47895E-05	0	5	0	
0.162167	-0.0121336	0.001496	0.000287513	5.38473E-05	0	5	0	
0.162333	0.0110285	-0.00178665	0.000295663	5.01964E-05	0	5	0	
0.1625	-0.00961427	-0.000616196	0.000281134	4.73722E-05	0	5	0	
0.162667	0.0109705	0.00229414	0.000266679	5.42303E-05	0	5	0	
0.162833	-0.0110853	-0.00416432	0.000260406	6.15757E-05	0	5	0	
0.163	0.0117521	0.00217196	0.00026975	7.19794E-05	0	5	0	
0.163167	-0.0129023	0.00142957	0.000275313	8.85116E-05	0	5	0	
0.163333	0.0111805	-0.00227685	0.000275179	0.000100806	0	5	0	
0.1635	-0.00960312	-6.76274E-05	0.000268853	8.82699E-05	0	5	0	
0.163667	0.00914293	0.000972129	0.000261943	5.50638E-05	0	5	0	
0.163833	-0.00843253	-0.000843786	0.000263811	3.22233E-05	0	5	0	
0.164	0.00847852	0.00139618	0.000269639	2.98689E-05	0	5	0	
0.164167	-0.00823645	-0.00160427	0.000256447	3.33007E-05	0	5	0	
0.164333	0.0110219	0.000714027	0.000236494	4.73965E-05	0	5	0	
0.1645	-0.0133726	-0.000371305	0.000233737	6.6509E-05	0	5	0	
0.164667	0.0134272	-0.000846559	0.000261091	6.84914E-05	0	5	0	
0.164833	-0.0125527	0.00068533	0.000295	5.17266E-05	0	5	0	
0.165	0.0132208	0.00182606	0.000312177	3.31719E-05	0	5	0	
0.165167	-0.0114017	-0.00239333	0.00031659	2.93293E-05	0	5	0	
0.165333	0.0104487	0.000563567	0.000307102	4.30142E-05	0	5	0	
0.1655	-0.0100634	-0.000204123	0.000284635	5.41019E-05	0	5	0	
0.165667	0.010361	0.00289697	0.000250034	5.89025E-05	0	5	0	
0.165833	-0.00954521	-0.00246086	0.000231428	5.17655E-05	0	5	0	
0.166	0.00952502	0.000337373	0.000229522	4.38626E-05	0	5	0	
0.166167	-0.0101879	0.00034345	0.000238504	3.65104E-05	0	5	0	
0.166333	0.01227	-3.20693E-05	0.000248911	3.2103E-05	0	5	0	
0.1665	-0.0118965	-0.00174536	0.000255214	4.0814E-05	0	5	0	
0.166667	0.0112018	0.00187072	0.00026279	5.03669E-05	0	5	0	
0.166833	-0.0107339	0.00152645	0.000272891	5.11748E-05	0	5	0	
0.167	0.0102513	-0.00136259	0.000278075	4.26769E-05	0	5	0	
0.167167	-0.0130159	0.000476304	0.000285339	3.48751E-05	0	5	0	
0.167333	0.0132544	0.000616565	0.000285716	2.93392E-05	0	5	0	
0.1675	-0.0100707	-0.00257041	0.000273216	3.27043E-05	0	5	0	
0.167667	0.00860276	0.00130647	0.000255028	4.16218E-05	0	5	0	
0.167833	-0.00978121	0.00150642	0.000237057	4.1752E-05	0	5	0	
0.168	0.0125177	-8.12645E-05	0.000248518	4.30631E-05	0	5	0	
0.168167	-0.0131615	-0.000458924	0.000270819	4.20795E-05	0	5	0	
0.168333	0.00943615	0.00120205	0.0002751	5.18204E-05	0	5	0	
0.1685	-0.00705488	-0.00520116	0.000255251	6.08627E-05	0	5	0	
0.168667	0.00801032	0.00441532	0.000229958	7.67064E-05	0	5	0	
0.168833	-0.00963702	0.000961567	0.000222843	8.80483E-05	0	5	0	
0.169	0.0136893	-0.00313817	0.000241828	8.78462E-05	0	5	0	
0.169167	-0.0132825	0.00236171	0.000260111	6.34141E-05	0	5	0	
0.169333	0.012033	-0.000655448	0.000276498	5.17914E-05	0	5	0	
0.1695	-0.0110765	-0.00131685	0.000278699	3.14827E-05	0	5	0	
0.169667	0.0112875	0.00109403	0.000280068	3.31493E-05	0	5	0	
0.169833	-0.00962668	-0.00111269	0.000277173	2.32511E-05	0	5	0	
0.17	0.0106431	0.00220383	0.000267067	3.23252E-05	0	5	0	
0.170167	-0.0109487	-0.000219182	0.000248139	3.76597E-05	0	5	0	
0.170333	0.0117758	0.000467872	0.000237714	4.6362E-05	0	5	0	
0.1705	-0.0138812	-0.00265982	0.000244486	4.62964E-05	0	5	0	
0.170667	0.014684	0.00349229	0.000267516	5.09632E-05	0	5	0	
0.170833	-0.00935595	0.00120341	0.000291754	5.06684E-05	0	5	0	
0.171	0.00588706	-0.0032148	0.000295438	4.95782E-05	0	5	0	
0.171167	-0.00706853	0.000674388	0.000253677	4.91917E-05	0	5	0	
0.171333	0.0087189	0.00247831	0.000205921	4.57516E-05	0	5	0	
0.1715	-0.0060308	0.00189683	0.000180146	5.17728E-05	0	5	0	
0.171667	0.00544388	-0.00257068	0.000176643	4.70276E-05	0	5	0	
0.171833	-0.0128669	-0.00392641	0.000183417	8.5673E-05	0	5	0	
0.172	0.0174196	0.00533133	0.000212527	8.96383E-05	0	5	0	
0.172167	-0.0154384	0.00121716	0.000270974	0.000152176	0	5	0	
0.172333	0.0109846	-0.00198441	0.000316792	0.000142609	0	5	0	
0.1725	-0.00851913	-0.00136508	0.000322295	0.000145497	0	5	0	
0.172667	0.00621728	0.00158475	0.000296996	7.85964E-05	0	5	0	
0.172833	-0.00817779	0.00249138	0.00026032	5.62419E-05	0	5	0	
0.173	0.00965343	-0.000475516	0.000222583	4.43444E-05	0	5	0	
0.173167	-0.0128701	-0.0031676	0.000207235	4.71685E-05	0	5	0	
0.173333	0.0119995	0.00256213	0.000221887	4.79752E-05	0	5	0	
0.1735	-0.0107542	0.00189358	0.000239332	4.77831E-05	0	5	0	
0.173667	0.00996428	-0.00229372	0.000256919	4.33068E-05	0	5	0	
0.173833	-0.00871534	0.00139043	0.000258061	4.65647E-05	0	5	0	
0.174	0.00771069	0.00310516	0.000248135	5.41742E-05	0	5	0	
0.174167	-0.0103577	-0.00545006	0.000221973	7.25733E-05	0	5	0	
0.174333	0.0121585	0.00247337	0.000210814	8.2272E-05	0	5	0	
0.1745	-0.0131238	0.00117079	0.000219304	0.000101896	0	5	0	
0.174667	0.0124234	-0.00227905	0.000260869	9.27227E-05	0	5	0	
0.174833	-0.00961488	0.000650829	0.000274294	7.3707E-05	0	5	0	
0.175	0.0111129	0.00294516	0.000280735	4.36512E-05	0	5	0	
0.175167	-0.00913592	-0.00272975	0.000255731	5.21133E-05	0	5	0	
0.175333	0.00749706	-0.000342897	0.000233448	5.51584E-05	0	5	0	
0.1755	-0.010609	0.000156457	0.000214943	4.88467E-05	0	5	0	
0.175667	0.0148609	0.0002802	0.000225288	2.36966E-05	0	5	0	
0.175833	-0.0142603	-0.000886541	0.00026132	1.99035E-05	0	5	0	
0.176	0.0117555	0.00335311	0.000305483	2.79838E-05	0	5	0	
0.176167	-0.00706131	-0.00188891	0.000291478	4.94031E-05	0	5	0	
0.176333	0.00885737	-0.000675676	0.000246696	5.84328E-05	0	5	0	
0.1765	-0.0105225	0.000126128	0.000203589	5.01966E-05	0	5	0	
0.176667	0.0111852	1.01856E-05	0.000206463	2.60023E-05	0	5	0	
0.176833	-0.0141552	0.00143749	0.000232958	1.20569E-05	0	5	0	
0.177	0.0161684	0.00193504	0.000269441	1.7933E-05	0	5	0	
0.177167	-0.0120016	-0.00399438	0.000301248	4.36299E-05	0	5	0	
0.177333	0.00857754	0.0010601	0.000308755	5.98446E-05	0	5	0	
0.1775	-0.00838192	0.000444092	0.000268147	6.20101E-05	0	5	0	
0.177667	0.0117556	-0.00135264	0.000229839	4.4947E-05	0	5	0	
0.177833	-0.0140703	0.00257367	0.000224536	3.55464E-05	0	5	0	
0.178	0.0146317	0.00230831	0.000262198	3.48749E-05	0	5	0	
0.178167	-0.011686	-0.0045114	0.00029115	4.93449E-05	0	5	0	
0.178333	0.00921755	0.00107308	0.000285003	6.08438E-05	0	5	0	
0.1785	-0.00906489	0.00259843	0.000245097	7.77798E-05	0	5	0	
0.178667	0.0107622	-0.000833603	0.00021735	6.62686E-05	0	5	0	
0.178833	-0.0102903	-0.00136737	0.000216056	4.63215E-05	0	5	0	
0.179	0.0109123	0.00292361	0.000232673	3.84291E-05	0	5	0	
0.179167	-0.0118564	-0.00182326	0.000234734	4.84364E-05	0	5	0	
0.179333	0.0131516	0.000655432	0.000239241	6.37404E-05	0	5	0	
0.1795	-0.0122108	0.00249253	0.000255897	5.40459E-05	0	5	0	
0.179667	0.0106142	-0.00186042	0.000268972	4.79239E-05	0	5	0	
0.179833	-0.0111536	-0.000892985	0.00027261	4.01456E-05	0	5	0	
0.18	0.0107134	0.00102493	0.000263131	4.65992E-05	0	5	0	
0.180167	-0.00950132	-0.000303026	0.000247591	4.01319E-05	0	5	0	
0.180333	0.00960847	0.000663624	0.000231675	3.66273E-05	0	5	0	
0.1805	-0.00948248	0.00169065	0.000223427	2.6456E-05	0	5	0	
0.180667	0.00959732	-0.000645121	0.000227203	3.69908E-05	0	5	0	
0.180833	-0.0126958	-0.00351989	0.000243357	5.54481E-05	0	5	0	
0.181	0.0139123	0.0053548	0.000262698	8.6829E-05	0	5	0	
0.181167	-0.0121106	-0.00192611	0.000280523	9.30331E-05	0	5	0	
0.181333	0.0113981	-0.000419268	0.000281143	7.78259E-05	0	5	0	
0.1815	-0.0125381	0.00310022	0.000277907	5.70665E-05	0	5	0	
0.181667	0.0138963	-0.000535356	0.000274259	5.5072E-05	0	5	0	
0.181833	-0.0154334	-0.00293472	0.000291577	6.11349E-05	0	5	0	
0.182	0.0147034	0.00434038	0.000303809	7.29634E-05	0	5	0	
0.182167	-0.0110693	-0.0011805	0.000298355	7.39098E-05	0	5	0	
0.182333	0.0117784	-0.000471751	0.000273541	6.03171E-05	0	5	0	
0.1825	-0.0129954	0.00181313	0.000254492	5.34468E-05	0	5	0	
0.182667	0.0125033	-9.28419E-05	0.000255864	6.90552E-05	0	5	0	
0.182833	-0.0103792	0.000113169	0.00025887	0.000104018	0	5	0	
0.183	0.00924075	-0.000594836	0.000237926	9.69435E-05	0	5	0	
0.183167	-0.0112266	0.00176685	0.000212434	6.3081E-05	0	5	0	
0.183333	0.0134882	-0.0023694	0.000211548	4.69308E-05	0	5	0	
0.1835	-0.0126844	0.00182228	0.000242115	6.44813E-05	0	5	0	
0.183667	0.0154742	0.00524204	0.000277002	8.33851E-05	0	5	0	
0.183833	-0.0159411	-0.00858907	0.000295039	0.000110438	0	5	0	
0.184	0.00924422	0.00348965	0.000298428	0.00012571	0	5	0	
0.184167	-0.00679862	0.00180069	0.000279869	0.000118352	0	5	0	
0.184333	0.0101014	0.00238009	0.000248515	8.49031E-05	0	5	0	
0.1845	-0.0104795	-0.00423302	0.00023266	6.07709E-05	0	5	0	
0.184667	0.00780055	-0.000392644	0.00022237	9.40569E-05	0	5	0	
0.184833	-0.0137893	0.000212598	0.000222894	8.82937E-05	0	5	0	
0.185	0.0176562	0.00373084	0.000238781	9.14001E-05	0	5	0	
0.185167	-0.0140519	-0.000687413	0.000271971	5.10437E-05	0	5	0	
0.185333	0.0128378	-0.00341897	0.00029785	6.76178E-05	0	5	0	
0.1855	-0.0136651	0.00158633	0.000293768	5.81842E-05	0	5	0	
0.185667	0.0117146	0.00051805	0.000296852	5.76065E-05	0	5	0	
0.185833	-0.0097838	0.000521409	0.000293205	6.01336E-05	0	5	0	
0.186	0.00916198	-0.000243672	0.000270418	5.61878E-05	0	5	0	
0.186167	-0.00995494	-0.00164046	0.000229639	5.70022E-05	0	5	0	
0.186333	0.013142	0.00165616	0.000209533	3.46839E-05	0	5	0	
0.1865	-0.0153738	-0.000224428	0.000229099	3.83897E-05	0	5	0	
0.186667	0.0167474	-0.000572169	0.000273966	4.81307E-05	0	5	0	
0.186833	-0.0144955	-4.91604E-05	0.000306093	5.61703E-05	0	5	0	
0.187	0.0126235	0.00178754	0.000305012	5.10209E-05	0	5	0	
0.187167	-0.0109456	-0.000639689	0.000287987	4.16548E-05	0	5	0	
0.187333	0.0119403	-0.000535844	0.000257313	3.71526E-05	0	5	0	
0.1875	-0.0162544	-0.000445943	0.000258183	4.13789E-05	0	5	0	
0.187667	0.0170291	-0.000311048	0.000275046	4.41199E-05	0	5	0	
0.187833	-0.0128345	0.00158702	0.000301901	4.19908E-05	0	5	0	
0.188	0.0099783	-0.000507078	0.000293026	3.3911E-05	0	5	0	
0.188167	-0.00799545	-0.000461175	0.000254178	2.10725E-05	0	5	0	
0.188333	0.00909587	0.00124707	0.00021248	3.27431E-05	0	5	0	
0.1885	-0.0137359	-0.00270213	0.000208643	4.86682E-05	0	5	0	
0.188667	0.0135722	0.00403611	0.000225905	6.64957E-05	0	5	0	
0.188833	-0.0116983	-0.0039776	0.000247876	7.15262E-05	0	5	0	
0.189	0.00983957	0.00013225	0.000247263	7.38608E-05	0	5	0	
0.189167	-0.0114898	0.00309332	0.000224163	8.45758E-05	0	5	0	
0.189333	0.0180076	-0.00119315	0.000240308	7.18788E-05	0	5	0	
0.1895	-0.0183978	-0.00131801	0.000279568	6.01583E-05	0	5	0	
0.189667	0.0136852	0.00301746	0.000323887	4.52507E-05	0	5	0	
0.189833	-0.00957269	-0.00116052	0.000308515	5.0268E-05	0	5	0	
0.19	0.00768615	-0.000152062	0.000262654	3.98445E-05	0	5	0	
0.190167	-0.00575329	0.00116332	0.000213382	4.12334E-05	0	5	0	
0.190333	0.0100857	-0.00191596	0.000191244	5.25404E-05	0	5	0	
0.1905	-0.0151896	0.00114566	0.000197885	7.13745E-05	0	5	0	
0.190667	0.0177635	0.000819373	0.000246218	6.25396E-05	0	5	0	
0.190833	-0.0145324	-0.000307641	0.000287638	5.21309E-05	0	5	0	
0.191	0.0125909	0.00353632	0.000313037	5.09787E-05	0	5	0	
0.191167	-0.00985384	-0.00355805	0.000319201	6.70965E-05	0	5	0	
0.191333	0.00881985	-0.000787705	0.00029544	7.68566E-05	0	5	0	
0.1915	-0.0128048	0.000689457	0.000259775	7.82223E-05	0	5	0	
0.191667	0.015627	0.00128934	0.000239294	6.36311E-05	0	5	0	
0.191833	-0.0129259	-0.00119189	0.000254469	4.46569E-05	0	5	0	
0.192	0.00994167	0.00061535	0.000265618	2.45441E-05	0	5	0	
0.192167	-0.0128377	0.000218776	0.000252189	1.77666E-05	0	5	0	
0.192333	0.0134197	-0.00125975	0.000244467	1.65065E-05	0	5	0	
0.1925	-0.0130451	0.00038163	0.000240473	2.83313E-05	0	5	0	
0.192667	0.0134736	-0.000425807	0.000254886	2.65844E-05	0	5	0	
0.192833	-0.0138303	-0.000679482	0.000261101	2.21149E-05	0	5	0	
0.193	0.0131969	0.000617656	0.000268214	1.62766E-05	0	5	0	
0.193167	-0.0128147	0.000298329	0.000268277	2.75166E-05	0	5	0	
0.193333	0.0107377	-0.0016643	0.000257383	2.92578E-05	0	5	0	
0.1935	-0.0120827	0.00113062	0.000246542	2.95663E-05	0	5	0	
0.193667	0.0150009	-0.00147743	0.000253526	2.57082E-05	0	5	0	
0.193833	-0.012184	-0.000252211	0.000270328	2.23583E-05	0	5	0	
0.194	0.0107594	0.00337626	0.000283983	2.47703E-05	0	5	0	
0.194167	-0.0106549	-0.00371864	0.000265283	3.9076E-05	0	5	0	
0.194333	0.0120916	0.00287839	0.000236902	5.50309E-05	0	5	0	
0.1945	-0.0158821	-0.00234714	0.000238577	6.67735E-05	0	5	0	
0.194667	0.0195573	0.000665657	0.000271796	6.8164E-05	0	5	0	
0.194833	-0.0163346	0.000301426	0.000323422	6.67653E-05	0	5	0	
0.195	0.0158695	-4.30484E-05	0.000343382	4.9079E-05	0	5	0	
0.195167	-0.0126039	0.0010502	0.00033029	2.99534E-05	0	5	0	
0.195333	0.0111325	-0.000795759	0.000288295	2.35237E-05	0	5	0	
0.1955	-0.0130319	-0.000712208	0.000262297	2.33461E-05	0	5	0	
0.195667	0.0167435	0.00357152	0.000253698	3.3236E-05	0	5	0	
0.195833	-0.0115923	-0.00123602	0.000269409	4.30141E-05	0	5	0	
0.196	0.00823737	-0.00266381	0.000251317	5.24686E-05	0	5	0	
0.196167	-0.0119723	0.000965142	0.000222129	5.29682E-05	0	5	0	
0.196333	0.0159	0.00288738	0.000217973	4.46772E-05	0	5	0	
0.1965	-0.0079951	-0.00332091	0.00024782	5.68722E-05	0	5	0	
0.196667	0.00661877	0.00505609	0.00024038	6.7279E-05	0	5	0	
0.196833	-0.0133374	-0.00678632	0.000213737	0.000104871	0	5	0	
0.197	0.0148075	0.0028667	0.000209248	9.86932E-05	0	5	0	
0.197167	-0.0119702	0.00248197	0.000245282	0.000113533	0	5	0	
0.197333	0.0177622	0.000166483	0.000283679	6.83318E-05	0	5	0	
0.1975	-0.0173082	-0.00518437	0.000310454	7.96995E-05	0	5	0	
0.197667	0.00740653	0.00211312	0.000325033	6.1049E-05	0	5	0	
0.197833	-0.0045712	0.00140681	0.000283168	7.46183E-05	0	5	0	
0.198	0.0109169	9.48892E-05	0.000226373	6.16801E-05	0	5	0	
0.198167	-0.0113775	0.000499925	0.00018862	4.47163E-05	0	5	0	
0.198333	0.0134581	-0.00331537	0.000206715	6.00973E-05	0	5	0	
0.1985	-0.0181034	0.00077242	0.000247634	5.43573E-05	0	5	0	
0.198667	0.0147729	0.00336764	0.000286191	7.21439E-05	0	5	0	
0.198833	-0.00982944	-0.00408999	0.000299685	5.91299E-05	0	5	0	
0.199	0.00954502	0.000728548	0.000275652	6.67385E-05	0	5	0	
0.199167	-0.0125424	0.00128746	0.000241111	5.97247E-05	0	5	0	
0.199333	0.0139331	-0.000135657	0.000234638	5.49393E-05	0	5	0	
0.1995	-0.0130052	-0.00186943	0.000240802	4.26825E-05	0	5	0	
0.199667	0.0113987	0.00138649	0.000252827	4.28688E-05	0	5	0	
0.199833	-0.0113857	-0.00136475	0.000239769	3.48373E-05	0	5	0	
0.2	0.0155821	0.00106848	0.000242453	4.69191E-05	0	5	0	
0.200167	-0.0157239	-0.000677642	0.000260392	5.1796E-05	0	5	0	
0.200333	0.0107297	0.000606198	0.000275742	5.7597E-05	0	5	0	
0.2005	-0.00970446	-0.000425524	0.000256596	4.02396E-05	0	5	0	
0.200667	0.0134078	-0.00140963	0.000234854	2.48333E-05	0	5	0	
0.200833	-0.0116173	0.000781846	0.0002305	2.34034E-05	0	5	0	
0.201	0.009157	0.00104004	0.000245729	3.12593E-05	0	5	0	
0.201167	-0.00787583	-0.00346116	0.000235051	4.27483E-05	0	5	0	
0.201333	0.00795677	0.00526666	0.000209767	6.61728E-05	0	5	0	
0.2015	-0.00995625	-0.00112176	0.000191136	9.8044E-05	0	5	0	
0.201667	0.0149303	-0.00291763	0.000206574	0.000125588	0	5	0	
0.201833	-0.0201701	0.00127841	0.000253443	0.000110012	0	5	0	
0.202	0.0179733	0.00372221	0.000316142	7.61618E-05	0	5	0	
0.202167	-0.0135174	-0.00378668	0.000351362	5.76275E-05	0	5	0	
0.202333	0.0114283	0.0016712	0.000335092	5.98402E-05	0	5	0	
0.2025	-0.0110189	-0.0012649	0.00028997	6.4217E-05	0	5	0	
0.202667	0.00978392	0.00304751	0.000247472	5.04128E-05	0	5	0	
0.202833	-0.0135672	0.000324363	0.000232187	4.81497E-05	0	5	0	
0.203	0.0196883	-0.00076412	0.000263224	5.28249E-05	0	5	0	
0.203167	-0.0186669	0.000185195	0.000303591	4.39984E-05	0	5	0	
0.203333	0.0102277	-0.000390591	0.000348846	3.41107E-05	0	5	0	
0.2035	-0.00564296	0.000635728	0.000323118	1.9907E-05	0	5	0	
0.203667	0.00798603	0.0024473	0.00026419	2.90184E-05	0	5	0	
0.203833	-0.0118587	-0.00341922	0.000214334	4.5854E-05	0	5	0	
0.204	0.0154283	0.00334974	0.00022052	6.93054E-05	0	5	0	
0.204167	-0.0188941	-0.00412439	0.000262532	8.23332E-05	0	5	0	
0.204333	0.017162	0.00138096	0.000311262	7.22494E-05	0	5	0	
0.2045	-0.0115243	0.00199778	0.000318866	5.8353E-05	0	5	0	
0.204667	0.00881516	-0.00148708	0.000297298	5.11652E-05	0	5	0	
0.204833	-0.0107241	-0.000323886	0.000251759	3.77847E-05	0	5	0	
0.205	0.0113132	0.00163525	0.000220291	2.83593E-05	0	5	0	
0.205167	-0.0124538	-0.00292741	0.000216825	2.37646E-05	0	5	0	
0.205333	0.0115127	0.0016294	0.000225164	3.51142E-05	0	5	0	
0.2055	-0.0115578	-0.00152679	0.000227546	4.29427E-05	0	5	0	
0.205667	0.0131489	1.32331E-05	0.000230134	4.7595E-05	0	5	0	
0.205833	-0.0134558	-0.00111078	0.000239803	4.83953E-05	0	5	0	
0.206	0.0122365	0.00288611	0.000258538	5.14477E-05	0	5	0	
0.206167	-0.0123834	-0.0031	0.000265672	5.51584E-05	0	5	0	
0.206333	0.0122555	0.00388276	0.000255619	6.26065E-05	0	5	0	
0.2065	-0.0119818	-0.0021009	0.000247917	6.49013E-05	0	5	0	
0.206667	0.0112617	0.000543947	0.000245318	5.57087E-05	0	5	0	
0.206833	-0.0100515	-4.74922E-05	0.000235822	4.58592E-05	0	5	0	
0.207	0.0119712	0.0011552	0.000228629	3.70448E-05	0	5	0	
0.207167	-0.0136321	-0.00147601	0.000229458	3.58685E-05	0	5	0	
0.207333	0.0138812	0.0022377	0.000248298	3.32952E-05	0	5	0	
0.2075	-0.0137083	-0.00203972	0.000265432	3.85942E-05	0	5	0	
0.207667	0.0149327	0.00320537	0.000270278	5.55963E-05	0	5	0	
0.207833	-0.0134609	0.000184009	0.000275559	7.80106E-05	0	5	0	
0.208	0.0124376	0.00224698	0.000275518	8.86842E-05	0	5	0	
0.208167	-0.0122002	-0.00281317	0.000277855	7.94392E-05	0	5	0	
0.208333	0.0102626	0.000833143	0.000269323	5.60113E-05	0	5	0	
0.2085	-0.00818837	-0.000605189	0.000244612	4.43191E-05	0	5	0	
0.208667	0.0123386	0.000437196	0.000216853	4.07013E-05	0	5	0	
0.208833	-0.0159214	0.000277181	0.000226042	4.88717E-05	0	5	0	
0.209	0.014696	0.00276839	0.000251323	5.78005E-05	0	5	0	
0.209167	-0.0141619	-0.00253897	0.000287991	6.48289E-05	0	5	0	
0.209333	0.012677	0.00210923	0.000293958	6.76528E-05	0	5	0	
0.2095	-0.0105449	-0.00449475	0.000295301	6.4065E-05	0	5	0	
0.209667	0.0103517	0.00677206	0.00027037	7.73786E-05	0	5	0	
0.209833	-0.013151	-0.00764544	0.000250218	9.81964E-05	0	5	0	
0.21	0.0115043	0.00467597	0.000232555	0.000132859	0	5	0	
0.210167	-0.0111176	0.00215888	0.00023204	0.000133085	0	5	0	
0.210333	0.0157209	-0.000249632	0.00023958	0.000103367	0	5	0	
0.2105	-0.0201546	-0.00437879	0.000274961	6.47152E-05	0	5	0	
0.210667	0.0184217	0.0013593	0.000327421	5.86414E-05	0	5	0	
0.210833	-0.0111959	0.0038425	0.000345349	6.60212E-05	0	5	0	
0.211	0.00756662	0.000604957	0.000301494	8.2602E-05	0	5	0	
0.211167	-0.00843555	-0.00330268	0.000228213	7.89616E-05	0	5	0	
0.211333	0.0107089	-0.000167003	0.000185251	8.06534E-05	0	5	0	
0.2115	-0.0131927	0.000446086	0.000193539	7.3104E-05	0	5	0	
0.211667	0.0169007	0.0025836	0.000239103	5.66309E-05	0	5	0	
0.211833	-0.016283	-0.0017126	0.000281835	4.83183E-05	0	5	0	
0.212	0.0145322	2.77641E-05	0.00030911	4.85734E-05	0	5	0	
0.212167	-0.0110731	-0.000529617	0.000307651	5.55858E-05	0	5	0	
0.212333	0.0103424	0.00221776	0.000281233	5.61592E-05	0	5	0	
0.2125	-0.0127124	-0.00281194	0.000254887	4.64851E-05	0	5	0	
0.212667	0.0160008	0.00234189	0.000246386	5.0094E-05	0	5	0	
0.212833	-0.0154513	-0.00165498	0.000264434	5.63088E-05	0	5	0	
0.213	0.0146308	0.00210911	0.000286346	5.70123E-05	0	5	0	
0.213167	-0.0134163	-0.000987651	0.000285736	4.95275E-05	0	5	0	
0.213333	0.012038	-0.000765258	0.000271949	3.73311E-05	0	5	0	
0.2135	-0.0122987	0.00155094	0.000251476	3.98395E-05	0	5	0	
0.213667	0.013535	-0.000265256	0.000244976	3.99728E-05	0	5	0	
0.213833	-0.0140704	0.000405521	0.000247774	5.8284E-05	0	5	0	
0.214	0.012315	-0.000649318	0.000260625	5.23596E-05	0	5	0	
0.214167	-0.0108844	-0.00137122	0.000246711	5.02302E-05	0	5	0	
0.214333	0.0132772	0.00430209	0.00023867	3.89123E-05	0	5	0	
0.2145	-0.0137683	-0.00495855	0.000236872	6.25831E-05	0	5	0	
0.214667	0.0122472	0.00328157	0.000256245	0.000105096	0	5	0	
0.214833	-0.0123733	0.000705238	0.000256405	0.000143081	0	5	0	
0.215	0.0126254	-0.00296879	0.000250053	0.000124863	0	5	0	
0.215167	-0.011326	0.000568613	0.000235767	8.77818E-05	0	5	0	
0.215333	0.0123803	0.00304144	0.000243387	6.1097E-05	0	5	0	
0.2155	-0.0125212	-0.00484716	0.00024578	7.32771E-05	0	5	0	
0.215667	0.0136089	0.00601236	0.0002573	8.77874E-05	0	5	0	
0.215833	-0.0146563	-0.00350883	0.000264829	9.16528E-05	0	5	0	
0.216	0.0153648	0.00182989	0.000275693	9.40963E-05	0	5	0	
0.216167	-0.0132855	-3.78431E-05	0.000279677	9.12307E-05	0	5	0	
0.216333	0.0123966	0.000120438	0.00026959	6.91871E-05	0	5	0	
0.2165	-0.0120056	-0.00172781	0.000249571	5.07355E-05	0	5	0	
0.216667	0.0142041	0.00357346	0.000243776	3.89625E-05	0	5	0	
0.216833	-0.0145425	-0.00222586	0.000255638	5.31496E-05	0	5	0	
0.217	0.0139423	-0.000824271	0.000271399	6.88302E-05	0	5	0	
0.217167	-0.0125582	0.00148368	0.000274289	6.10571E-05	0	5	0	
0.217333	0.0126721	0.000405451	0.000262957	4.69451E-05	0	5	0	
0.2175	-0.0114842	-0.00100803	0.000254663	3.09454E-05	0	5	0	
0.217667	0.0127155	-0.000840843	0.000253059	5.02333E-05	0	5	0	
0.217833	-0.0139003	-0.00196492	0.000252755	6.22888E-05	0	5	0	
0.218	0.0142396	0.00363093	0.000258554	7.05701E-05	0	5	0	
0.218167	-0.0124385	-0.00184082	0.000260601	6.33645E-05	0	5	0	
0.218333	0.0109715	0.000809994	0.000250187	6.12278E-05	0	5	0	
0.2185	-0.0109789	-0.00256105	0.00023442	5.75953E-05	0	5	0	
0.218667	0.0107669	0.00283159	0.000220275	5.48801E-05	0	5	0	
0.218833	-0.011923	-0.00291833	0.000213578	6.35017E-05	0	5	0	
0.219	0.0139517	0.000934551	0.0002271	6.02797E-05	0	5	0	
0.219167	-0.0143852	-0.000374703	0.000244535	4.96141E-05	0	5	0	
0.219333	0.0139395	0.00152576	0.000269526	3.85402E-05	0	5	0	
0.2195	-0.013752	-0.00117053	0.000275631	3.9978E-05	0	5	0	
0.219667	0.0124132	0.000370373	0.000266348	3.89931E-05	0	5	0	
0.219833	-0.0125144	-0.00132083	0.00025829	3.19578E-05	0	5	0	
0.22	0.0137712	0.00209109	0.000260738	2.82508E-05	0	5	0	
0.220167	-0.01435	-0.00208452	0.00027032	3.96222E-05	0	5	0	
0.220333	0.013504	0.0018395	0.000274439	5.24942E-05	0	5	0	
0.2205	-0.0122227	-0.00168749	0.000259166	5.39714E-05	0	5	0	
0.220667	0.0138102	0.00110372	0.000245568	4.35622E-05	0	5	0	
0.220833	-0.0162206	3.78675E-05	0.000256053	3.02981E-05	0	5	0	
0.221	0.017103	0.000722817	0.000283192	2.74903E-05	0	5	0	
0.221167	-0.01229	-0.0012814	0.000302849	3.02726E-05	0	5	0	
0.221333	0.00950037	0.00170591	0.00027162	4.0393E-05	0	5	0	
0.2215	-0.0123686	-0.000327216	0.000235398	5.36575E-05	0	5	0	
0.221667	0.015433	-0.00362234	0.000228122	6.02139E-05	0	5	0	
0.221833	-0.0151342	0.00250618	0.000259017	5.85499E-05	0	5	0	
0.222	0.0131305	0.0018379	0.000276937	4.68128E-05	0	5	0	
0.222167	-0.0104523	-0.00300957	0.000264411	4.80084E-05	0	5	0	
0.222333	0.00919329	0.00218492	0.000227737	4.75341E-05	0	5	0	
0.2225	-0.0100862	-0.00258474	0.000203446	5.52589E-05	0	5	0	
0.222667	0.013632	0.00376111	0.000206365	6.06081E-05	0	5	0	
0.222833	-0.0184385	-0.00374521	0.000244023	7.91768E-05	0	5	0	
0.223	0.0192782	-0.00200099	0.000296928	0.00010863	0	5	0	
0.223167	-0.0167462	0.003773	0.000332147	0.000111876	0	5	0	
0.223333	0.0171922	0.00135254	0.0003482	0.000100662	0	5	0	
0.2235	-0.0149183	-0.00310556	0.0003401	6.27327E-05	0	5	0	
0.223667	0.0105017	-0.00307772	0.000319567	8.33959E-05	0	5	0	
0.223833	-0.00928262	0.00474732	0.000273899	8.05986E-05	0	5	0	
0.224	0.0132195	0.00215174	0.000244412	0.000107251	0	5	0	
0.224167	-0.0173144	-0.00299458	0.000251023	7.19364E-05	0	5	0	
0.224333	0.0191374	-0.000598974	0.000299685	9.55575E-05	0	5	0	
0.2245	-0.0153924	-0.000520589	0.000330732	6.2801E-05	0	5	0	
0.224667	0.0135557	0.00711447	0.00031616	7.49414E-05	0	5	0	
0.224833	-0.0126829	-0.00688522	0.000281884	7.98069E-05	0	5	0	
0.225	0.0119615	0.00149377	0.000256548	0.000123573	0	5	0	
0.225167	-0.013118	0.00151871	0.00025016	0.000125404	0	5	0	
0.225333	0.0141838	0.00181992	0.000254707	8.48409E-05	0	5	0	
0.2255	-0.0144052	-0.00186661	0.00026224	4.85952E-05	0	5	0	
0.225667	0.0140916	0.00183256	0.000268036	3.2747E-05	0	5	0	
0.225833	-0.0138298	-0.00169671	0.000268521	3.96659E-05	0	5	0	
0.226	0.012637	0.000732933	0.000265852	4.11199E-05	0	5	0	
0.226167	-0.0116627	0.000258572	0.000260282	3.68658E-05	0	5	0	
0.226333	0.0139989	0.000210086	0.000256519	2.33859E-05	0	5	0	
0.2265	-0.0157593	-0.000277865	0.000262088	1.16899E-05	0	5	0	
0.226667	0.0152194	-0.00131304	0.000276834	8.93298E-06	0	5	0	
0.226833	-0.0150774	0.000844696	0.000290894	1.6067E-05	0	5	0	
0.227	0.0159346	0.000318096	0.000297196	2.30935E-05	0	5	0	
0.227167	-0.0152882	-0.00263418	0.000301381	3.04707E-05	0	5	0	
0.227333	0.0133625	0.00360809	0.00029819	5.54834E-05	0	5	0	
0.2275	-0.0096948	-0.0021766	0.000272081	8.00452E-05	0	5	0	
0.227667	0.0113745	-0.00199165	0.000243878	0.000107192	0	5	0	
0.227833	-0.0153205	0.00183666	0.00023483	9.79749E-05	0	5	0	
0.228	0.0161332	0.00115811	0.000257159	7.38934E-05	0	5	0	
0.228167	-0.0125226	-0.00421529	0.000273679	5.08019E-05	0	5	0	
0.228333	0.0137969	0.00302077	0.000269556	5.24111E-05	0	5	0	
0.2285	-0.0165204	-0.00250207	0.00026341	5.6802E-05	0	5	0	
0.228667	0.0141119	0.00220046	0.000278094	5.63631E-05	0	5	0	
0.228833	-0.0107148	0.00170923	0.000275554	6.06852E-05	0	5	0	
0.229	0.0140521	-0.00353631	0.000265878	7.4118E-05	0	5	0	
0.229167	-0.0155934	0.000300705	0.000258772	6.78416E-05	0	5	0	
0.229333	0.0149124	0.00141423	0.0002737	5.19737E-05	0	5	0	
0.2295	-0.0152012	-0.00226724	0.000288709	3.37048E-05	0	5	0	
0.229667	0.0147629	0.0031126	0.000290669	4.16628E-05	0	5	0	
0.229833	-0.0129558	-0.00122371	0.000287849	4.82912E-05	0	5	0	
0.23	0.0123069	0.000147739	0.000272051	7.04008E-05	0	5	0	
0.230167	-0.0121093	-0.00166498	0.000252414	6.9082E-05	0	5	0	
0.230333	0.0127952	0.00248541	0.000238429	6.14326E-05	0	5	0	
0.2305	-0.0143891	-0.00080304	0.000245144	3.78046E-05	0	5	0	
0.230667	0.0159398	-0.000425247	0.000263221	2.99915E-05	0	5	0	
0.230833	-0.0154924	-0.00053979	0.000286684	1.97335E-05	0	5	0	
0.231	0.0143074	0.0010565	0.000288194	2.66666E-05	0	5	0	
0.231167	-0.0145486	-0.00050214	0.000284542	3.94147E-05	0	5	0	
0.231333	0.0141059	-0.000120322	0.000275771	3.91266E-05	0	5	0	
0.2315	-0.0134559	-0.000159809	0.000274824	3.33247E-05	0	5	0	
0.231667	0.0135055	-0.000918473	0.000268254	2.24024E-05	0	5	0	
0.231833	-0.0142487	-0.000158502	0.000264874	2.41962E-05	0	5	0	
0.232	0.014951	0.00171687	0.000269752	2.12248E-05	0	5	0	
0.232167	-0.0130704	-0.00171643	0.000277662	3.02698E-05	0	5	0	
0.232333	0.0137999	0.00260137	0.000275833	4.28159E-05	0	5	0	
0.2325	-0.0151332	-0.0016951	0.000277745	5.57182E-05	0	5	0	
0.232667	0.0159097	0.000249255	0.000278269	4.87532E-05	0	5	0	
0.232833	-0.0158178	-4.61295E-06	0.00029175	3.83359E-05	0	5	0	
0.233	0.0164698	0.00200226	0.000297927	3.15826E-05	0	5	0	
0.233167	-0.0159214	-0.00297731	0.000308912	4.24468E-05	0	5	0	
0.233333	0.0145637	0.0031215	0.000301487	5.63921E-05	0	5	0	
0.2335	-0.0114188	-0.000822144	0.000284111	6.37851E-05	0	5	0	
0.233667	0.0113947	0.000234091	0.000250871	5.28404E-05	0	5	0	
0.233833	-0.0137685	-0.00123657	0.000240844	4.02563E-05	0	5	0	
0.234	0.0164629	0.00363633	0.000256425	4.82493E-05	0	5	0	
0.234167	-0.0188544	-0.00342351	0.000302072	7.08993E-05	0	5	0	
0.234333	0.0182043	0.000955354	0.000333358	9.14521E-05	0	5	0	
0.2345	-0.0146833	0.00303528	0.000339381	7.68971E-05	0	5	0	
0.234667	0.0113034	-0.0020605	0.000302306	6.22335E-05	0	5	0	
0.234833	-0.012767	-0.00179616	0.000263481	4.65051E-05	0	5	0	
0.235	0.0123177	0.00354721	0.000241942	5.48768E-05	0	5	0	
0.235167	-0.0126677	-0.0043801	0.000246681	6.9196E-05	0	5	0	
0.235333	0.0179157	0.00571747	0.000278531	9.66036E-05	0	5	0	
0.2355	-0.0184419	-0.0042654	0.000307552	0.000107089	0	5	0	
0.235667	0.0113216	-0.000973371	0.000316026	0.000101353	0	5	0	
0.235833	-0.0132839	0.00249536	0.000301458	8.46143E-05	0	5	0	
0.236	0.0113553	0.00421181	0.000275722	6.7128E-05	0	5	0	
0.236167	-0.00656331	-0.00717629	0.000251633	7.52234E-05	0	5	0	
0.236333	0.00335642	0.0016361	0.00019713	9.35612E-05	0	5	0	
0.2365	-0.0134831	0.00127725	0.000200579	8.61365E-05	0	5	0	
0.236667	0.0216056	0.000929933	0.000242995	7.76103E-05	0	5	0	
0.236833	-0.0195316	-0.00191128	0.000332028	5.16102E-05	0	5	0	
0.237	0.0106406	0.00118786	0.000348304	7.26106E-05	0	5	0	
0.237167	-0.0123919	-0.00530495	0.000303349	6.88204E-05	0	5	0	
0.237333	0.0135522	0.00579841	0.000263352	8.97204E-05	0	5	0	
0.2375	-0.0115431	0.000357715	0.000238271	9.64168E-05	0	5	0	
0.237667	0.0119682	-0.00295138	0.000244025	9.88643E-05	0	5	0	
0.237833	-0.0168697	0.000559196	0.000250498	7.53868E-05	0	5	0	
0.238	0.0172354	-0.000104214	0.000276853	4.08097E-05	0	5	0	
0.238167	-0.0132591	-0.00202126	0.000296469	2.28464E-05	0	5	0	
0.238333	0.00961195	0.00277098	0.000287869	3.37064E-05	0	5	0	
0.2385	-0.00749308	-0.00178734	0.000237341	5.00862E-05	0	5	0	
0.238667	0.0118356	0.00090135	0.00020486	5.25681E-05	0	5	0	
0.238833	-0.0151866	-0.000333152	0.000206404	4.47337E-05	0	5	0	
0.239	0.0142657	0.00193837	0.000244398	4.22223E-05	0	5	0	
0.239167	-0.0138549	-0.0026459	0.000279953	4.874E-05	0	5	0	
0.239333	0.011478	0.000712178	0.000278125	4.56693E-05	0	5	0	
0.2395	-0.010295	0.0015953	0.000245976	3.82073E-05	0	5	0	
0.239667	0.0155557	0.000370376	0.000231281	2.97207E-05	0	5	0	
0.239833	-0.0133566	-0.000286943	0.000242436	2.19692E-05	0	5	0	
0.24	0.00991892	0.000702459	0.000251638	2.75051E-05	0	5	0	
0.240167	-0.00823978	0.00170534	0.000231349	2.48082E-05	0	5	0	
0.240333	0.0100657	-0.000185176	0.000187843	3.99447E-05	0	5	0	
0.2405	-0.00830215	-0.00335459	0.000164875	3.69974E-05	0	5	0	
0.240667	0.0109235	0.00370236	0.000175958	6.74322E-05	0	5	0	
0.240833	-0.0105412	0.00148509	0.000199575	8.6278E-05	0	5	0	
0.241	0.0155634	-0.00190314	0.000232393	8.63978E-05	0	5	0	
0.241167	-0.0157936	8.05318E-05	0.000256494	6.89584E-05	0	5	0	
0.241333	0.0159037	0.00108313	0.000282082	3.97018E-05	0	5	0	
0.2415	-0.0115523	-0.00148756	0.00028668	3.4998E-05	0	5	0	
0.241667	0.0128593	0.00323079	0.000273932	3.79073E-05	0	5	0	
0.241833	-0.0102431	-0.00287155	0.000247434	4.63369E-05	0	5	0	
0.242	0.00735659	-0.000816411	0.000224487	5.88592E-05	0	5	0	
0.242167	-0.0102622	0.00296436	0.000209092	6.4198E-05	0	5	0	
0.242333	0.0155503	-0.00187656	0.00021951	7.14097E-05	0	5	0	
0.2425	-0.0186321	-0.000697398	0.000254823	6.46593E-05	0	5	0	
0.242667	0.0172349	0.00408923	0.000307489	5.41262E-05	0	5	0	
0.242833	-0.0102217	-0.00540135	0.000310748	5.70691E-05	0	5	0	
0.243	0.00581102	0.00243697	0.000269698	7.35579E-05	0	5	0	
0.243167	-0.00584878	0.000507452	0.000185907	6.49122E-05	0	5	0	
0.243333	0.0118951	0.00222052	0.000146806	4.35985E-05	0	5	0	
0.2435	-0.017262	-0.00303705	0.000183821	3.39104E-05	0	5	0	
0.243667	0.0169784	0.00339278	0.000258218	5.98782E-05	0	5	0	
0.243833	-0.0151573	-0.00193848	0.000308737	7.63272E-05	0	5	0	
0.244	0.0133404	-5.00475E-05	0.000304677	6.76545E-05	0	5	0	
0.244167	-0.0105077	0.00172926	0.000264715	4.49888E-05	0	5	0	
0.244333	0.0160669	0.00129268	0.000249431	3.58741E-05	0	5	0	
0.2445	-0.0161293	-0.00371821	0.000270365	4.65199E-05	0	5	0	
0.244667	0.0146645	0.00509454	0.000294181	6.95446E-05	0	5	0	
0.244833	-0.0130435	-0.000996134	0.00030036	8.00734E-05	0	5	0	
0.245	0.0126714	0.000237426	0.000265608	6.22687E-05	0	5	0	
0.245167	-0.0111038	-0.0018803	0.00024196	3.56194E-05	0	5	0	
0.245333	0.0139241	0.00295708	0.000237037	3.2542E-05	0	5	0	
0.2455	-0.0119536	-0.00283899	0.000247196	4.89332E-05	0	5	0	
0.245667	0.0151216	0.00381924	0.00025976	6.58593E-05	0	5	0	
0.245833	-0.013879	-0.00238817	0.000263927	6.75922E-05	0	5	0	
0.246	0.0127629	0.00220717	0.00026089	7.09595E-05	0	5	0	
0.246167	-0.0120194	-0.00162487	0.000255758	6.75493E-05	0	5	0	
0.246333	0.0142883	0.00100396	0.000254147	5.49866E-05	0	5	0	
0.2465	-0.0146788	-0.00202059	0.000259852	4.49254E-05	0	5	0	
0.246667	0.0166159	0.00276946	0.000287289	4.12083E-05	0	5	0	
0.246833	-0.0141764	-0.00217999	0.000286554	4.54093E-05	0	5	0	
0.247	0.0132135	-3.48063E-06	0.000287671	4.58169E-05	0	5	0	
0.247167	-0.0125656	0.0010018	0.000263664	3.11287E-05	0	5	0	
0.247333	0.0124042	0.000391191	0.000252938	2.36288E-05	0	5	0	
0.2475	-0.0133491	-0.00217596	0.000240557	2.2336E-05	0	5	0	
0.247667	0.00964356	0.00164085	0.000241439	4.12926E-05	0	5	0	
0.247833	-0.0108225	-0.00263866	0.000226995	5.37417E-05	0	5	0	
0.248	0.0164867	0.00338057	0.000239186	6.41861E-05	0	5	0	
0.248167	-0.00902041	-0.000379477	0.000237035	5.66903E-05	0	5	0	
0.248333	0.00289557	-0.00464065	0.000210662	5.06726E-05	0	5	0	
0.2485	-0.0132267	-0.000918821	0.00017029	5.02235E-05	0	5	0	
0.248667	0.0173516	0.00569143	0.000190569	5.38039E-05	0	5	0	
0.248833	-0.01253	-0.00230695	0.000255995	8.16836E-05	0	5	0	
0.249	0.0154953	-0.00258221	0.000301249	7.8396E-05	0	5	0	
0.249167	-0.0222277	-0.00164545	0.000313846	9.33488E-05	0	5	0	
0.249333	0.0176295	0.00128956	0.000344283	6.185E-05	0	5	0	
0.2495	-0.00833067	0.000972701	0.000341941	7.95653E-05	0	5	0	
0.249667	0.0106686	4.67414E-05	0.000295988	5.54713E-05	0	5	0	
0.249833	-0.0104853	-0.00294162	0.000247999	5.94433E-05	0	5	0	
0.25	0.0086893	1.80477E-05	0.000218302	3.88309E-05	0	5	0	
0.250167	-0.0142197	0.00225084	0.000225612	4.74433E-05	0	5	0	
0.250333	0.0157094	-0.00178773	0.000246978	5.19038E-05	0	5	0	
0.2505	-0.0122414	-0.000981206	0.000274965	5.83408E-05	0	5	0	
0.250667	0.0109342	0.00116488	0.000267689	4.8658E-05	0	5	0	
0.250833	-0.00879249	-0.000477183	0.000228203	3.92177E-05	0	5	0	
0.251	0.00824473	-0.00125654	0.000190104	3.62535E-05	0	5	0	
0.251167	-0.0145445	-0.000343255	0.000194982	4.22951E-05	0	5	0	
0.251333	0.0153295	0.00164909	0.000223565	4.12892E-05	0	5	0	
0.2515	-0.0121761	-0.0022872	0.000256961	3.67631E-05	0	5	0	
0.251667	0.00965507	0.0015136	0.000250191	3.53218E-05	0	5	0	
0.251833	-0.0137041	-0.000984825	0.000232827	4.0458E-05	0	5	0	
0.252	0.0096798	8.77217E-05	0.000221796	3.27318E-05	0	5	0	
0.252167	-0.0132409	-0.00332317	0.00022604	3.99875E-05	0	5	0	
0.252333	0.0145899	0.00319128	0.000246394	5.31815E-05	0	5	0	
0.2525	-0.0141631	-0.00148688	0.000265307	6.44729E-05	0	5	0	
0.252667	0.0129547	0.00157714	0.000281018	5.55704E-05	0	5	0	
0.252833	-0.0150083	-0.00206305	0.000268347	5.40658E-05	0	5	0	
0.253	0.0124122	0.00277063	0.00025604	6.48306E-05	0	5	0	
0.253167	-0.0123782	-0.00362503	0.000251897	6.96136E-05	0	5	0	
0.253333	0.0100697	0.00172287	0.000254934	7.19793E-05	0	5	0	
0.2535	-0.0160075	0.000208841	0.000275453	5.96956E-05	0	5	0	
0.253667	0.0177283	0.000801739	0.000303031	5.04882E-05	0	5	0	
0.253833	-0.0148757	-0.00126624	0.000310629	3.5236E-05	0	5	0	
0.254	0.0154944	0.000538553	0.000306791	2.20039E-05	0	5	0	
0.254167	-0.0137122	-0.00228652	0.000299982	2.9071E-05	0	5	0	
0.254333	0.00510146	0.00461835	0.000260636	4.34304E-05	0	5	0	
0.2545	-0.00697769	-0.00300812	0.000205138	7.05949E-05	0	5	0	
0.254667	0.0112009	-0.000867741	0.000186766	8.19656E-05	0	5	0	
0.254833	-0.0181421	0.00043922	0.00021785	6.7584E-05	0	5	0	
0.255	0.0177591	0.00118368	0.00029205	4.85058E-05	0	5	0	
0.255167	-0.0129189	-0.00432775	0.000307342	4.89329E-05	0	5	0	
0.255333	0.0110292	0.00557162	0.000291545	6.84723E-05	0	5	0	
0.2555	-0.0117359	-0.000751744	0.0002471	7.73769E-05	0	5	0	
0.255667	0.0108227	-0.00342199	0.000223473	6.80578E-05	0	5	0	
0.255833	-0.0153646	0.000286232	0.000233677	5.20188E-05	0	5	0	
0.256	0.0165416	0.00211087	0.000266762	4.24812E-05	0	5	0	
0.256167	-0.012956	-0.00259922	0.000285554	4.54666E-05	0	5	0	
0.256333	0.0121335	0.00128603	0.000286785	4.8501E-05	0	5	0	
0.2565	-0.0128358	0.00119069	0.000259635	4.58639E-05	0	5	0	
0.256667	0.0164569	-0.00102724	0.000255359	4.26485E-05	0	5	0	
0.256833	-0.013336	-0.0025877	0.000265897	4.32298E-05	0	5	0	
0.257	0.0127531	0.00488706	0.000271063	6.75578E-05	0	5	0	
0.257167	-0.00991893	-0.00331381	0.000258242	7.97923E-05	0	5	0	
0.257333	0.0096173	-0.000107519	0.000225669	7.2804E-05	0	5	0	
0.2575	-0.00913244	0.00200131	0.000193622	4.88952E-05	0	5	0	
0.257667	0.0150208	0.000955117	0.00019579	3.36522E-05	0	5	0	
0.257833	-0.0155016	-0.00268688	0.000237393	4.36216E-05	0	5	0	
0.258	0.0178418	0.00209725	0.000288057	5.89082E-05	0	5	0	
0.258167	-0.0134042	-0.000158322	0.00031056	5.63449E-05	0	5	0	
0.258333	0.0118922	0.000879499	0.000283905	3.61204E-05	0	5	0	
0.2585	-0.0127726	0.000820551	0.000261521	2.40875E-05	0	5	0	
0.258667	0.014969	0.000765874	0.000251228	2.8369E-05	0	5	0	
0.258833	-0.012884	-0.0026686	0.0002695	4.2895E-05	0	5	0	
0.259	0.0159862	0.00375422	0.000278026	5.32261E-05	0	5	0	
0.259167	-0.01574	-0.00377323	0.000289226	6.001E-05	0	5	0	
0.259333	0.0164371	0.00513713	0.000296882	7.3919E-05	0	5	0	
0.2595	-0.0148927	-0.00245603	0.000307232	8.01531E-05	0	5	0	
0.259667	0.0130316	0.000165525	0.000292088	6.89272E-05	0	5	0	
0.259833	-0.0128143	-0.00101505	0.000270184	4.69724E-05	0	5	0	
0.26	0.0158157	0.00207718	0.000257063	2.93538E-05	0	5	0	
0.260167	-0.0163893	-0.00293938	0.000275564	3.56441E-05	0	5	0	
0.260333	0.0157535	0.00352687	0.000304725	5.13452E-05	0	5	0	
0.2605	-0.0127938	-0.00069107	0.000307593	5.361E-05	0	5	0	
0.260667	0.0116171	-0.0022438	0.000276769	5.07399E-05	0	5	0	
0.260833	-0.0138288	0.000253831	0.000248045	3.27039E-05	0	5	0	
0.261	0.017533	0.00145651	0.000260404	3.23826E-05	0	5	0	
0.261167	-0.0147007	-0.00268009	0.000289943	3.30156E-05	0	5	0	
0.261333	0.0105688	0.00327622	0.000291864	5.38991E-05	0	5	0	
0.2615	-0.0112537	-0.00524809	0.000261664	8.09628E-05	0	5	0	
0.261667	0.0120472	0.00406798	0.000232397	9.19229E-05	0	5	0	
0.261833	-0.0115272	0.000279143	0.000227409	0.000105874	0	5	0	
0.262	0.0153954	-0.00167752	0.000259012	7.2599E-05	0	5	0	
0.262167	-0.019205	-0.005379	0.000301813	7.76481E-05	0	5	0	
0.262333	0.0191871	0.00222054	0.000338719	5.95755E-05	0	5	0	
0.2625	-0.012738	0.0029581	0.000339038	7.05644E-05	0	5	0	
0.262667	0.00983511	-0.000494058	0.000300033	6.53401E-05	0	5	0	
0.262833	-0.0097774	-0.00445764	0.000251839	6.67849E-05	0	5	0	
0.263	0.0108142	0.00245676	0.000218992	7.57242E-05	0	5	0	
0.263167	-0.0137994	-0.00123854	0.000230252	7.54696E-05	0	5	0	
0.263333	0.0177364	0.00154358	0.000269014	6.64757E-05	0	5	0	
0.2635	-0.0185502	0.00038529	0.000313492	4.66757E-05	0	5	0	
0.263667	0.0188342	-0.00301367	0.000339724	4.2922E-05	0	5	0	
0.263833	-0.0153512	0.00232123	0.00034189	4.55994E-05	0	5	0	
0.264	0.0133865	0.00120079	0.000323644	5.56317E-05	0	5	0	
0.264167	-0.0148968	-0.00296891	0.000309621	6.28993E-05	0	5	0	
0.264333	0.0157256	0.00193819	0.0003076	6.24885E-05	0	5	0	
0.2645	-0.0147395	0.000683492	0.000301264	5.26028E-05	0	5	0	
0.264667	0.0135588	0.00137804	0.000286386	3.78056E-05	0	5	0	
0.264833	-0.01309	-0.00255405	0.000265788	4.03875E-05	0	5	0	
0.265	0.0127687	0.00165787	0.000265303	6.09713E-05	0	5	0	
0.265167	-0.0139625	0.000587412	0.000269369	5.94641E-05	0	5	0	
0.265333	0.0156797	0.00097675	0.000289818	4.53145E-05	0	5	0	
0.2655	-0.015582	-0.0014773	0.000295444	3.7512E-05	0	5	0	
0.265667	0.0123161	0.000533423	0.000292675	4.8994E-05	0	5	0	
0.265833	-0.0124059	0.000740416	0.000267555	4.85229E-05	0	5	0	
0.266	0.014488	0.00153261	0.000261012	5.32653E-05	0	5	0	
0.266167	-0.0132718	-0.00345375	0.000254117	6.44174E-05	0	5	0	
0.266333	0.00797997	0.00451933	0.000244115	8.29918E-05	0	5	0	
0.2665	-0.0103158	-0.00149773	0.000214195	8.44367E-05	0	5	0	
0.266667	0.0143964	-0.00232363	0.000215294	7.31783E-05	0	5	0	
0.266833	-0.0164394	0.00229269	0.00024353	6.56759E-05	0	5	0	
0.267	0.013878	-0.000997982	0.000276198	5.93511E-05	0	5	0	
0.267167	-0.0139899	-0.000297679	0.000282957	4.22006E-05	0	5	0	
0.267333	0.0135432	0.00250563	0.000271365	3.9743E-05	0	5	0	
0.2675	-0.0144519	-0.00205907	0.000269795	3.47462E-05	0	5	0	
0.267667	0.0138047	0.00067066	0.000273839	4.68998E-05	0	5	0	
0.267833	-0.0150502	0.000826922	0.000281187	6.13249E-05	0	5	0	
0.268	0.0120251	-0.000810242	0.000277041	7.27968E-05	0	5	0	
0.268167	-0.0139096	-0.000621034	0.000271178	6.31553E-05	0	5	0	
0.268333	0.0137889	0.00301832	0.000264297	5.02187E-05	0	5	0	
0.2685	-0.0130085	-0.00181214	0.000263304	4.00844E-05	0	5	0	
0.268667	0.0110059	0.00120267	0.000254129	4.57569E-05	0	5	0	
0.268833	-0.0148043	0.00023151	0.000250814	3.33931E-05	0	5	0	
0.269	0.0158761	0.00331579	0.000262138	2.81526E-05	0	5	0	
0.269167	-0.0143654	-0.00483477	0.000278581	4.30059E-05	0	5	0	
0.269333	0.0107457	0.00420247	0.000277931	6.87276E-05	0	5	0	
0.2695	-0.0106152	-0.00325128	0.000253593	8.23933E-05	0	5	0	
0.269667	0.011605	0.00325026	0.000245034	8.12264E-05	0	5	0	
0.269833	-0.0140865	0.000288113	0.000253908	6.86494E-05	0	5	0	
0.27	0.0157	-0.000707099	0.000280634	4.76366E-05	0	5	0	
0.270167	-0.0157477	-0.000591708	0.00029117	2.8523E-05	0	5	0	
0.270333	0.0126015	0.00215163	0.000294362	1.70001E-05	0	5	0	
0.2705	-0.0107851	-0.00308714	0.000272278	3.12847E-05	0	5	0	
0.270667	0.0110228	0.00473771	0.000253487	5.14684E-05	0	5	0	
0.270833	-0.0122179	-0.00167849	0.00023168	6.83518E-05	0	5	0	
0.271	0.0125689	-0.000445157	0.000228823	5.59345E-05	0	5	0	
0.271167	-0.0128588	-0.000388919	0.0002295	3.72415E-05	0	5	0	
0.271333	0.0111599	0.0034344	0.000239954	2.53257E-05	0	5	0	
0.2715	-0.00940382	-0.00190971	0.000230411	4.49519E-05	0	5	0	
0.271667	0.0119573	0.00115202	0.000223957	5.35914E-05	0	5	0	
0.271833	-0.0146401	-0.00075577	0.000229091	5.12412E-05	0	5	0	
0.272	0.0158215	0.00310751	0.000263811	3.73381E-05	0	5	0	
0.272167	-0.0143614	-0.00350102	0.00028572	4.36539E-05	0	5	0	
0.272333	0.0125739	0.00324292	0.00028478	5.67464E-05	0	5	0	
0.2725	-0.0106021	-0.00270592	0.000255946	6.59724E-05	0	5	0	
0.272667	0.0117417	0.00272015	0.000238195	6.84859E-05	0	5	0	
0.272833	-0.0113686	-0.00175404	0.00023471	6.99908E-05	0	5	0	
0.273	0.0119084	0.00191787	0.000251334	6.67701E-05	0	5	0	
0.273167	-0.0140267	-4.325E-05	0.000258448	5.37415E-05	0	5	0	
0.273333	0.0133119	-0.00192752	0.000258027	5.09622E-05	0	5	0	
0.2735	-0.0114024	-0.000124144	0.000247744	4.97825E-05	0	5	0	
0.273667	0.0110253	0.00345783	0.000241265	4.56021E-05	0	5	0	
0.273833	-0.012091	-0.00216137	0.00024025	4.50707E-05	0	5	0	
0.274	0.00993968	0.00205346	0.00023368	5.18938E-05	0	5	0	
0.274167	-0.00969521	0.000274282	0.000214258	5.29263E-05	0	5	0	
0.274333	0.0114661	-0.000861623	0.00020381	4.19528E-05	0	5	0	
0.2745	-0.015059	0.00106929	0.000223943	4.88058E-05	0	5	0	
0.274667	0.0126651	-0.00239598	0.00025565	8.39928E-05	0	5	0	
0.274833	-0.0129843	0.00300875	0.000263027	8.69993E-05	0	5	0	
0.275	0.0156289	0.00392811	0.000266045	0.000102344	0	5	0	
0.275167	-0.0153436	-0.00136885	0.000270141	7.63703E-05	0	5	0	
0.275333	0.00759805	-0.00414307	0.000277866	9.25283E-05	0	5	0	
0.2755	-0.00469365	-0.00262885	0.000231008	6.51336E-05	0	5	0	
0.275667	0.00879698	0.011743	0.00021144	9.0563E-05	0	5	0	
0.275833	-0.0155572	-0.00513805	0.000233164	0.000118216	0	5	0	
0.276	0.0203043	-0.00276227	0.000312712	0.000164827	0	5	0	
0.276167	-0.0201622	0.003736	0.000361057	0.000145485	0	5	0	
0.276333	0.017472	-0.000772866	0.000371931	0.000110909	0	5	0	
0.2765	-0.0122854	-7.2034E-05	0.000336353	7.65086E-05	0	5	0	
0.276667	0.0082816	0.000858958	0.000281304	6.38859E-05	0	5	0	
0.276833	-0.00867279	-0.00296414	0.000225439	6.64885E-05	0	5	0	
0.277	0.0142354	0.00474894	0.000217426	5.86502E-05	0	5	0	
0.277167	-0.0152778	-0.00208676	0.000247526	6.93628E-05	0	5	0	
0.277333	0.0134398	0.00160967	0.000272817	6.89494E-05	0	5	0	
0.2775	-0.00947783	-0.00254144	0.000260392	6.33598E-05	0	5	0	
0.277667	0.0072746	0.00385154	0.000219528	6.24336E-05	0	5	0	
0.277833	-0.00782492	-0.00372328	0.000187409	5.99798E-05	0	5	0	
0.278	0.0122401	0.0024777	0.000200538	6.75597E-05	0	5	0	
0.278167	-0.0157426	-0.0012128	0.000242634	5.53339E-05	0	5	0	
0.278333	0.0160326	0.000496393	0.000288087	5.70072E-05	0	5	0	
0.2785	-0.0140528	0.00120095	0.000295767	5.23915E-05	0	5	0	
0.278667	0.0132104	3.42153E-05	0.000285218	4.45612E-05	0	5	0	
0.278833	-0.0125804	-0.00216415	0.00026322	3.32351E-05	0	5	0	
0.279	0.0112973	0.00296704	0.000251745	3.15547E-05	0	5	0	
0.279167	-0.0103247	-0.00278491	0.000235458	5.45735E-05	0	5	0	
0.279333	0.0126916	-0.000203526	0.000238841	7.9572E-05	0	5	0	
0.2795	-0.016881	0.00253099	0.000258494	8.25168E-05	0	5	0	
0.279667	0.0173215	-3.33062E-05	0.000292161	6.99011E-05	0	5	0	
0.279833	-0.0134574	-0.0020265	0.000301084	5.27214E-05	0	5	0	
0.28	0.0102141	0.00314587	0.000279717	4.86561E-05	0	5	0	
0.280167	-0.00899528	-0.00242347	0.000237453	6.88982E-05	0	5	0	
0.280333	0.00965242	0.000236188	0.00021558	7.55032E-05	0	5	0	
0.2805	-0.0129132	0.000357071	0.00022856	8.07368E-05	0	5	0	
0.280667	0.0170857	-0.000773098	0.000273785	6.69772E-05	0	5	0	
0.280833	-0.0163567	0.00095063	0.000309492	5.1081E-05	0	5	0	
0.281	0.013255	0.00166504	0.000311081	4.0303E-05	0	5	0	
0.281167	-0.0109362	-0.00464423	0.000280403	4.53331E-05	0	5	0	
0.281333	0.00872933	0.00497956	0.00024072	6.68178E-05	0	5	0	
0.2815	-0.00970264	-0.00156918	0.000211093	9.54364E-05	0	5	0	
0.281667	0.0138076	-0.000923992	0.000219288	9.88309E-05	0	5	0	
0.281833	-0.0147844	-0.000365523	0.000244983	7.52859E-05	0	5	0	
0.282	0.0149452	0.00175352	0.000275397	5.52023E-05	0	5	0	
0.282167	-0.0130372	-0.00269163	0.000281799	3.91832E-05	0	5	0	
0.282333	0.0112906	0.00371925	0.000270321	4.89728E-05	0	5	0	
0.2825	-0.0112585	-0.00501203	0.000255945	5.77939E-05	0	5	0	
0.282667	0.0124609	0.00378135	0.000251431	7.90148E-05	0	5	0	
0.282833	-0.014135	-0.00179858	0.0002569	8.02669E-05	0	5	0	
0.283	0.0152482	0.00141814	0.000271187	6.23221E-05	0	5	0	
0.283167	-0.0134894	-0.000879564	0.000277314	3.63092E-05	0	5	0	
0.283333	0.0121949	0.00134065	0.000273364	2.49802E-05	0	5	0	
0.2835	-0.0110859	-0.00328107	0.000255124	3.55969E-05	0	5	0	
0.283667	0.0102433	0.00285224	0.000229099	5.04612E-05	0	5	0	
0.283833	-0.0102035	-0.00072456	0.000211697	4.97136E-05	0	5	0	
0.284	0.0143749	-0.000349022	0.000219828	4.14255E-05	0	5	0	
0.284167	-0.0167242	0.000128211	0.000261063	3.28153E-05	0	5	0	
0.284333	0.0143086	0.00136583	0.00030102	4.2691E-05	0	5	0	
0.2845	-0.0125948	-0.00414715	0.000304075	5.71947E-05	0	5	0	
0.284667	0.0106686	0.00475726	0.000270086	7.0999E-05	0	5	0	
0.284833	-0.00885806	-0.00395275	0.000231923	8.39599E-05	0	5	0	
0.285	0.0108087	0.00276598	0.000217963	7.80635E-05	0	5	0	
0.285167	-0.0131579	-0.00150478	0.000239994	6.23204E-05	0	5	0	
0.285333	0.0135949	0.00115925	0.000278907	4.42951E-05	0	5	0	
0.2855	-0.0139041	-0.001329	0.000302505	3.20418E-05	0	5	0	
0.285667	0.0126076	0.00252975	0.000287086	3.34376E-05	0	5	0	
0.285833	-0.0115616	-0.00308144	0.000256917	4.74814E-05	0	5	0	
0.286	0.0102609	0.00368431	0.000229857	5.9422E-05	0	5	0	
0.286167	-0.00885194	-0.00141311	0.000211603	6.1928E-05	0	5	0	
0.286333	0.00906194	-0.00170484	0.000201972	5.67633E-05	0	5	0	
0.2865	-0.0130665	0.00142226	0.000216635	5.75493E-05	0	5	0	
0.286667	0.0161684	0.00144727	0.00024182	5.84216E-05	0	5	0	
0.286833	-0.0116437	-0.000744144	0.000266656	6.02658E-05	0	5	0	
0.287	0.00847211	0.00110907	0.000256974	5.18851E-05	0	5	0	
0.287167	-0.014796	-0.00465409	0.00026746	5.44943E-05	0	5	0	
0.287333	0.0143197	0.0027374	0.000280491	5.41446E-05	0	5	0	
0.2875	-0.0100532	0.00129385	0.000284727	6.79561E-05	0	5	0	
0.287667	0.0127212	0.00106551	0.000272829	5.53459E-05	0	5	0	
0.287833	-0.0179268	-0.00830325	0.00028085	6.97325E-05	0	5	0	
0.288	0.0130627	0.0048294	0.000299658	8.61527E-05	0	5	0	
0.288167	-0.0076661	-5.82973E-05	0.000274688	0.000102797	0	5	0	
0.288333	0.00717725	0.000666211	0.000215685	8.85652E-05	0	5	0	
0.2885	-0.0119043	-0.00456098	0.000195287	6.20862E-05	0	5	0	
0.288667	0.0135706	-0.000241296	0.000240441	7.974E-05	0	5	0	
0.288833	-0.0163457	0.00327071	0.00029325	9.33132E-05	0	5	0	
0.289	0.0159339	-0.000427677	0.000318154	9.9346E-05	0	5	0	
0.289167	-0.0153061	-0.00241604	0.000308231	8.38887E-05	0	5	0	
0.289333	0.0136072	0.00275687	0.000295694	6.76469E-05	0	5	0	
0.2895	-0.00990558	-0.00248716	0.000282245	6.72249E-05	0	5	0	
0.289667	0.0068283	0.00297118	0.000259871	6.17739E-05	0	5	0	
0.289833	-0.0102792	-0.00355078	0.000232882	6.32524E-05	0	5	0	
0.29	0.012851	0.00201104	0.000229523	6.15062E-05	0	5	0	
0.290167	-0.0129797	0.000499502	0.000252845	6.0556E-05	0	5	0	
0.290333	0.0116838	0.00285375	0.000278408	5.57625E-05	0	5	0	
0.2905	-0.00964227	-0.00306751	0.000273192	5.92759E-05	0	5	0	
0.290667	0.00986292	0.000987856	0.000244913	5.7106E-05	0	5	0	
0.290833	-0.0150057	-0.000425859	0.000235901	4.34079E-05	0	5	0	
0.291	0.015529	0.00159815	0.000263268	2.98557E-05	0	5	0	
0.291167	-0.0109378	-0.00192585	0.000279059	2.7259E-05	0	5	0	
0.291333	0.00798365	0.00276556	0.000260894	4.73029E-05	0	5	0	
0.2915	-0.0099413	-0.00128225	0.000219552	5.1394E-05	0	5	0	
0.291667	0.0114731	0.000614586	0.000209676	4.1565E-05	0	5	0	
0.291833	-0.0136767	0.000765369	0.000223943	3.07195E-05	0	5	0	
0.292	0.0154891	-0.00202657	0.000256087	2.54495E-05	0	5	0	
0.292167	-0.0133335	0.000574425	0.000273439	5.23559E-05	0	5	0	
0.292333	0.00765302	0.00352137	0.000259537	8.54071E-05	0	5	0	
0.2925	-0.00335015	-0.00294099	0.000204445	0.000104973	0	5	0	
0.292667	0.00778768	0.00256724	0.000175707	8.76621E-05	0	5	0	
0.292833	-0.0166614	-0.00236963	0.00021244	6.74996E-05	0	5	0	
0.293	0.0172064	0.000350093	0.000289069	6.46056E-05	0	5	0	
0.293167	-0.0127863	0.0015114	0.000324878	7.67361E-05	0	5	0	
0.293333	0.0121528	-0.00140649	0.000306547	6.04045E-05	0	5	0	
0.2935	-0.0117876	0.000943375	0.000265235	4.63416E-05	0	5	0	
0.293667	0.01243	0.00148821	0.000236503	2.87875E-05	0	5	0	
0.293833	-0.012788	-0.00342349	0.000233519	4.41365E-05	0	5	0	
0.294	0.01185	0.00330624	0.000238866	6.17889E-05	0	5	0	
0.294167	-0.0098593	0.000840873	0.000234481	7.37546E-05	0	5	0	
0.294333	0.00963202	-0.00226771	0.000216362	5.52255E-05	0	5	0	
0.2945	-0.0109373	-0.000326702	0.000198131	4.78812E-05	0	5	0	
0.294667	0.0123146	0.00500433	0.000214119	4.18674E-05	0	5	0	
0.294833	-0.0144626	-0.00510614	0.000248506	7.46442E-05	0	5	0	
0.295	0.0156273	0.00350783	0.000299319	8.75252E-05	0	5	0	
0.295167	-0.0140274	-0.00145906	0.000317458	8.81872E-05	0	5	0	
0.295333	0.0140717	0.00172447	0.000309465	6.32896E-05	0	5	0	
0.2955	-0.0136651	0.00028104	0.000282475	4.36138E-05	0	5	0	
0.295667	0.0125105	0.002172	0.000267145	4.2259E-05	0	5	0	
0.295833	-0.0147778	-0.00476518	0.000265745	5.72643E-05	0	5	0	
0.296	0.0148494	0.00404392	0.000284763	7.24487E-05	0	5	0	
0.296167	-0.0144234	-0.00240757	0.00028929	7.67984E-05	0	5	0	
0.296333	0.0137096	7.94087E-05	0.000292315	6.05179E-05	0	5	0	
0.2965	-0.0129101	0.00300076	0.000270005	4.70372E-05	0	5	0	
0.296667	0.0132848	-0.00129126	0.000268471	4.95169E-05	0	5	0	
0.296833	-0.0171707	-0.00120459	0.000284771	4.8155E-05	0	5	0	
0.297	0.0148127	0.00124027	0.000317	3.90293E-05	0	5	0	
0.297167	-0.0120381	-0.000711449	0.000321442	2.44072E-05	0	5	0	
0.297333	0.00925418	0.000810223	0.000301232	2.48046E-05	0	5	0	
0.2975	-0.0122836	-0.000559727	0.00027466	2.9553E-05	0	5	0	
0.297667	0.015472	0.00261247	0.000277916	3.15106E-05	0	5	0	
0.297833	-0.0164474	-0.00404331	0.000299237	4.12173E-05	0	5	0	
0.298	0.0124433	0.00476644	0.000313162	5.90216E-05	0	5	0	
0.298167	-0.0110532	-0.00340188	0.000305605	7.46376E-05	0	5	0	
0.298333	0.0107605	0.00127796	0.00027917	7.0426E-05	0	5	0	
0.2985	-0.0119965	0.00331411	0.000245956	6.42816E-05	0	5	0	
0.298667	0.0114868	-0.00381163	0.000232752	6.85446E-05	0	5	0	
0.298833	-0.0145076	0.000668035	0.000249924	6.87148E-05	0	5	0	
0.299	0.0153651	0.00356433	0.000278223	7.66413E-05	0	5	0	
0.299167	-0.00588784	-0.00418857	0.000269745	7.85479E-05	0	5	0	
0.299333	0.00794401	0.00336941	0.000221711	9.20313E-05	0	5	0	
0.2995	-0.0146093	-0.0060586	0.000204197	8.71371E-05	0	5	0	
0.299667	0.0151115	0.00511719	0.000242141	0.000106275	0	5	0	
0.299833	-0.0148382	0.000111999	0.000303098	0.000135495	0	5	0	
0.3	0.022716	0.000182166	0.000359833	0.000116253	0	5	0	
0.300167	-0.0171996	-0.00444865	0.000381304	0.000106909	0	5	0	
0.300333	0.00900031	0.00286199	0.000352872	6.79202E-05	0	5	0	
0.3005	-0.00733754	0.000539025	0.000272392	8.79923E-05	0	5	0	
0.300667	0.0148511	0.00205923	0.000259889	5.94578E-05	0	5	0	
0.300833	-0.0142194	-0.00405891	0.000301225	7.62807E-05	0	5	0	
0.301	0.00917832	0.00125255	0.000321356	7.24293E-05	0	5	0	
0.301167	-0.00942488	0.000268338	0.000269773	6.8241E-05	0	5	0	
0.301333	0.0135736	0.00344661	0.000226423	3.91766E-05	0	5	0	
0.3015	-0.0162906	-0.00552366	0.00024852	4.69945E-05	0	5	0	
0.301667	0.0130978	0.0045128	0.000284681	8.28449E-05	0	5	0	
0.301833	-0.00853189	0.000343293	0.000284556	9.42443E-05	0	5	0	
0.302	0.0103056	-0.00194137	0.000252425	7.34265E-05	0	5	0	
0.302167	-0.0166998	-0.000395666	0.000237015	4.66208E-05	0	5	0	
0.302333	0.0110104	0.00310964	0.000248706	3.95766E-05	0	5	0	
0.3025	-0.00999163	-0.00387198	0.000247846	5.73772E-05	0	5	0	
0.302667	0.0135411	0.00366836	0.000261119	6.99099E-05	0	5	0	
0.302833	-0.0150788	-0.00177378	0.000270158	8.42472E-05	0	5	0	
0.303	0.0141546	0.00109976	0.000292415	6.31192E-05	0	5	0	
0.303167	-0.0169713	-0.00181711	0.000292351	4.32569E-05	0	5	0	
0.303333	0.0137257	0.00331042	0.000290223	3.81357E-05	0	5	0	
0.3035	-0.0114012	-0.00198108	0.000288023	5.58689E-05	0	5	0	
0.303667	0.0112429	0.000530577	0.000286444	5.85409E-05	0	5	0	
0.303833	-0.016484	-0.00136744	0.000292267	6.25464E-05	0	5	0	
0.304	0.0141439	0.00230376	0.000317593	5.10585E-05	0	5	0	
0.304167	-0.0147128	-0.00194161	0.000314196	5.83146E-05	0	5	0	
0.304333	0.0192491	-0.00058148	0.000329164	4.34691E-05	0	5	0	
0.3045	-0.0216936	-0.00101632	0.000353598	3.9924E-05	0	5	0	
0.304667	0.0104136	0.00454128	0.000351428	3.75014E-05	0	5	0	
0.304833	-0.00740557	-0.0041835	0.000296487	5.86048E-05	0	5	0	
0.305	0.00750755	0.000535943	0.00023882	6.80633E-05	0	5	0	
0.305167	-0.0122665	0.000943553	0.00024135	6.60841E-05	0	5	0	
0.305333	0.0115766	-0.00338634	0.000266762	4.70541E-05	0	5	0	
0.3055	-0.0129636	0.00109752	0.000284108	4.6797E-05	0	5	0	
0.305667	0.0167337	0.00504956	0.000313198	6.07134E-05	0	5	0	
0.305833	-0.0191194	-0.00696449	0.000346943	0.000102377	0	5	0	
0.306	0.00812356	0.00524064	0.000338673	0.000125293	0	5	0	
0.306167	-0.00317431	-0.00374276	0.000251658	0.000116452	0	5	0	
0.306333	0.00581168	0.000751389	0.000174331	8.93118E-05	0	5	0	
0.3065	-0.0113816	0.00229604	0.000164356	9.32988E-05	0	5	0	
0.306667	0.0167699	-0.000973344	0.000236035	0.000105418	0	5	0	
0.306833	-0.0168176	-0.000557505	0.000302604	8.88158E-05	0	5	0	
0.307	0.0122375	0.00218531	0.000312156	5.45285E-05	0	5	0	
0.307167	-0.0100046	-0.00132589	0.000271957	3.98978E-05	0	5	0	
0.307333	0.00995973	-2.67927E-05	0.000222905	4.69776E-05	0	5	0	
0.3075	-0.00927478	-0.000259794	0.000194731	4.56446E-05	0	5	0	
0.307667	0.00955019	0.0039144	0.000197351	5.43525E-05	0	5	0	
0.307833	-0.011279	-0.00274177	0.000214554	6.38606E-05	0	5	0	
0.308	0.0136874	0.00344932	0.000250411	8.5552E-05	0	5	0	
0.308167	-0.0145702	-0.00532112	0.00027512	8.7983E-05	0	5	0	
0.308333	0.0123298	0.0028893	0.000276928	9.25628E-05	0	5	0	
0.3085	-0.0111094	-0.000846115	0.000259519	6.58104E-05	0	5	0	
0.308667	0.0128882	0.00135489	0.000259044	5.35658E-05	0	5	0	
0.308833	-0.0147392	0.00172385	0.00028392	3.155E-05	0	5	0	
0.309	0.0158668	-0.00241123	0.000314129	3.97134E-05	0	5	0	
0.309167	-0.0144789	-0.000726131	0.000316666	4.2719E-05	0	5	0	
0.309333	0.0120111	0.0039503	0.000293592	5.58349E-05	0	5	0	
0.3095	-0.00869271	-0.00594165	0.000253346	7.04295E-05	0	5	0	
0.309667	0.00664471	0.00326719	0.000228704	9.02065E-05	0	5	0	
0.309833	-0.00882218	0.000917154	0.000229	0.000105296	0	5	0	
0.31	0.0144791	-0.00524377	0.000254558	9.98278E-05	0	5	0	
0.310167	-0.0174893	0.00569498	0.000291024	9.63607E-05	0	5	0	
0.310333	0.0156984	-0.00134856	0.000309836	9.53185E-05	0	5	0	
0.3105	-0.0116939	-0.00173658	0.000301813	0.000117364	0	5	0	
0.310667	0.00895329	0.0036646	0.000264339	0.000115224	0	5	0	
0.310833	-0.00890724	-0.000961406	0.000219693	9.50446E-05	0	5	0	
0.311	0.00996677	-0.000586431	0.000196586	5.90628E-05	0	5	0	
0.311167	-0.0123988	-0.00069026	0.000212374	3.89416E-05	0	5	0	
0.311333	0.0117711	0.00284351	0.000244052	4.49394E-05	0	5	0	
0.3115	-0.00882641	-0.00263566	0.000255353	5.66818E-05	0	5	0	
0.311667	0.0101051	0.0047558	0.000236598	7.12808E-05	0	5	0	
0.311833	-0.0137757	-0.00528499	0.0002276	7.87866E-05	0	5	0	
0.312	0.0151582	0.00143335	0.00024235	0.000100467	0	5	0	
0.312167	-0.0193479	0.00283835	0.000297143	0.000114321	0	5	0	
0.312333	0.0217904	0.00166792	0.000351773	9.68978E-05	0	5	0	
0.3125	-0.0162419	-0.00351512	0.00037267	8.35278E-05	0	5	0	
0.312667	0.00632554	-0.000277876	0.000351655	5.67767E-05	0	5	0	
0.312833	-0.00082887	0.000103133	0.000254684	6.02813E-05	0	5	0	
0.313	0.00450327	0.00496771	0.000190232	7.07278E-05	0	5	0	
0.313167	-0.0095589	-0.00638934	0.000184739	8.91095E-05	0	5	0	
0.313333	0.01196	0.00204828	0.000267469	0.000123147	0	5	0	
0.3135	-0.0162884	0.000109919	0.000347163	9.80231E-05	0	5	0	
0.313667	0.0202693	0.00403233	0.000376171	7.63236E-05	0	5	0	
0.313833	-0.0186688	-0.00181695	0.000377873	4.994E-05	0	5	0	
0.314	0.0133842	-0.00115169	0.000348139	6.48005E-05	0	5	0	
0.314167	-0.00932114	-0.00169837	0.000304446	6.00416E-05	0	5	0	
0.314333	0.0095801	0.00741746	0.000260245	8.07412E-05	0	5	0	
0.3145	-0.0137691	-0.00724073	0.000259028	9.54935E-05	0	5	0	
0.314667	0.0151313	0.00526996	0.000274132	0.000129065	0	5	0	
0.314833	-0.0107287	-0.00335755	0.000279786	0.000123808	0	5	0	
0.315	0.00912315	0.00243182	0.00026029	0.000103613	0	5	0	
0.315167	-0.0106917	-0.00188173	0.000252288	9.16288E-05	0	5	0	
0.315333	0.0116478	0.000688561	0.000256684	7.34336E-05	0	5	0	
0.3155	-0.0108547	0.000271067	0.000263282	6.32479E-05	0	5	0	
0.315667	0.0100993	0.00228974	0.000249614	6.04623E-05	0	5	0	
0.315833	-0.0126326	-0.00253556	0.000244819	6.21164E-05	0	5	0	
0.316	0.0144532	0.00238425	0.000271019	7.04926E-05	0	5	0	
0.316167	-0.0133173	-0.00750063	0.000303739	6.88825E-05	0	5	0	
0.316333	0.0116691	0.00825085	0.000308734	0.00010293	0	5	0	
0.3165	-0.00843496	-0.00256082	0.00027318	0.000117603	0	5	0	
0.316667	0.00962305	-0.00143464	0.000233399	0.000125027	0	5	0	
0.316833	-0.0124993	0.00178853	0.00022636	8.95683E-05	0	5	0	
0.317	0.00998241	0.000530983	0.000245092	6.39907E-05	0	5	0	
0.317167	-0.00768176	-0.00530182	0.000253115	5.74898E-05	0	5	0	
0.317333	0.00988768	0.00689867	0.000239182	8.47831E-05	0	5	0	
0.3175	-0.0103989	-0.00354354	0.000218953	0.000106772	0	5	0	
0.317667	0.00987907	0.0023643	0.000218079	9.71387E-05	0	5	0	
0.317833	-0.011224	-0.00157244	0.000235543	7.14331E-05	0	5	0	
0.318	0.0154003	-0.0020819	0.000271951	5.17754E-05	0	5	0	
0.318167	-0.0166585	0.000601982	0.000306606	4.80743E-05	0	5	0	
