0	0.00705563	-0.004717	7.05563E-07	4.717E-07	0	5	0	
0.000166667	-0.00189556	0.00311082	0.000165106	8.06166E-05	0	5	0	
0.000333333	-0.00269624	0.00375079	0.000453458	0.000180873	0	5	0	
0.0005	0.007659	-0.00359254	0.00077115	0.000193198	0	5	0	
0.000666667	-0.0104382	-0.0054824	0.000917964	0.000182	0	5	0	
0.000833333	0.0117619	0.00892725	0.000917197	0.000116591	0	5	0	
0.001	-0.00513488	-0.00347246	0.000843509	0.000183369	0	5	0	
0.00116667	-0.0131176	0.00433777	0.000766023	0.000195667	0	5	0	
0.00133333	0.0308224	-0.00681253	0.000793769	0.000226543	0	5	0	
0.0015	-0.0334779	0.001486	0.000925756	0.000184676	0	5	0	
0.00166667	0.0316195	-0.00038433	0.00109632	0.000140341	0	5	0	
0.00183333	-0.0302012	0.00682482	0.00118123	0.000105724	0	5	0	
0.002	0.0324469	-0.00985001	0.0012053	0.000125384	0	5	0	
0.00216667	-0.0310886	0.00823256	0.00121399	0.000175094	0	5	0	
0.00233333	0.0292846	-0.00481133	0.00123023	0.000238303	0	5	0	
0.0025	-0.0297702	0.00417818	0.00124028	0.00024164	0	5	0	
0.00266667	0.0309329	-0.00734549	0.00124686	0.00020963	0	5	0	
0.00283333	-0.0275455	0.00899311	0.00125917	0.000183358	0	5	0	
0.003	0.0275912	-0.0106099	0.00126835	0.000188661	0	5	0	
0.00316667	-0.0297191	0.013148	0.00125239	0.000229534	0	5	0	
0.00333333	0.0325225	-0.00691379	0.00124701	0.000266915	0	5	0	
0.0035	-0.0298395	0.00132114	0.00126536	0.000288863	0	5	0	
0.00366667	0.0284078	-0.00529645	0.00128618	0.000237656	0	5	0	
0.00383333	-0.0296426	0.00761377	0.0012784	0.00017858	0	5	0	
0.004	0.0314692	-0.00439609	0.00126827	0.000142649	0	5	0	
0.00416667	-0.0285519	-0.000142125	0.00127143	0.000169247	0	5	0	
0.00433333	0.0279738	-0.00352346	0.00127457	0.00017386	0	5	0	
0.0045	-0.0278304	0.0117231	0.00124713	0.000190081	0	5	0	
0.00466667	0.0291428	-0.013397	0.00121264	0.000226297	0	5	0	
0.00483333	-0.0309289	0.00883341	0.00119958	0.000298094	0	5	0	
0.005	0.0307458	-0.00509784	0.00121952	0.000404642	0	5	0	
0.00516667	-0.0283034	-0.00908967	0.00124546	0.000581123	0	5	0	
0.00533333	0.0287149	0.0276498	0.00125332	0.00074088	0	5	0	
0.0055	-0.0291713	-0.0156629	0.00124418	0.000676374	0	5	0	
0.00566667	0.0262798	-0.0331485	0.00123973	0.000672309	0	5	0	
0.00583333	-0.0265925	0.0600186	0.00123799	0.000676087	0	5	0	
0.006	0.03092	-0.03903	0.00123233	0.00092115	0	5	0	
0.00616667	-0.0314023	0.0127524	0.00124019	0.000974687	0	5	0	
0.00633333	0.0254535	-0.00738781	0.00126988	0.000875263	0	5	0	
0.0065	-0.0238065	0.00671146	0.00128024	0.000671978	0	5	0	
0.00666667	0.028503	0.00243868	0.00124568	0.000485302	0	5	0	
0.00683333	-0.0319891	0.000542775	0.00121389	0.000309409	0	5	0	
0.007	0.0312145	-0.0194067	0.00122703	0.000285019	0	5	0	
0.00716667	-0.0322603	0.0230945	0.00125967	0.000251066	0	5	0	
0.00733333	0.0324118	-0.00560775	0.00127983	0.000375604	0	5	0	
0.0075	-0.0296551	-0.00484424	0.00130242	0.000378995	0	5	0	
0.00766667	0.026925	-0.000494932	0.00131394	0.000301513	0	5	0	
0.00783333	-0.0273346	0.0153487	0.00128331	0.000226839	0	5	0	
0.008	0.02856	-0.0237934	0.00122698	0.000213338	0	5	0	
0.00816667	-0.0293034	0.016819	0.00119472	0.00035264	0	5	0	
0.00833333	0.0310141	0.00206838	0.0012036	0.000479445	0	5	0	
0.0085	-0.0333211	-0.0074557	0.00123435	0.000443168	0	5	0	
0.00866667	0.0315104	-0.00836124	0.00126297	0.000318728	0	5	0	
0.00883333	-0.0291381	0.0187097	0.00127772	0.000213096	0	5	0	
0.009	0.0281485	-0.0128023	0.00127324	0.000258057	0	5	0	
0.00916667	-0.0285997	0.00342981	0.00126322	0.000336342	0	5	0	
0.00933333	0.0298344	-0.000340868	0.00125941	0.000297863	0	5	0	
0.0095	-0.0298406	0.00374043	0.0012567	0.000189659	0	5	0	
0.00966667	0.028966	-0.00491703	0.00124509	0.000124483	0	5	0	
0.00983333	-0.0302042	0.00428189	0.00122749	0.000158501	0	5	0	
0.01	0.030103	-0.00597194	0.00122394	0.000194677	0	5	0	
0.0101667	-0.0292828	0.00872482	0.00123968	0.000183845	0	5	0	
0.0103333	0.0303074	-0.00662097	0.00124762	0.000166971	0	5	0	
0.0105	-0.0323314	0.00419539	0.00124207	0.000188128	0	5	0	
0.0106667	0.0305422	-0.00348994	0.00123784	0.000213775	0	5	0	
0.0108333	-0.0287986	0.00514534	0.00124462	0.000214268	0	5	0	
0.011	0.0298555	-0.00550631	0.00124467	0.000191291	0	5	0	
0.0111667	-0.031548	0.0047689	0.00124097	0.000173814	0	5	0	
0.0113333	0.0316786	-0.00279122	0.00124576	0.000184812	0	5	0	
0.0115	-0.0309599	0.00242183	0.00125502	0.000205332	0	5	0	
0.0116667	0.0299255	-0.00452525	0.00125028	0.000214731	0	5	0	
0.0118333	-0.0313181	0.00420944	0.00124193	0.000210652	0	5	0	
0.012	0.03055	-0.0035708	0.00124534	0.00019935	0	5	0	
0.0121667	-0.0297155	0.00499883	0.0012614	0.000175061	0	5	0	
0.0123333	0.0291279	-0.0101684	0.00124827	0.000174801	0	5	0	
0.0125	-0.0312493	0.00874197	0.00120878	0.000217563	0	5	0	
0.0126667	0.032025	-0.00315258	0.00118266	0.000285867	0	5	0	
0.0128333	-0.0309328	-0.00020451	0.00120029	0.000285722	0	5	0	
0.013	0.0298983	-0.00537476	0.00122751	0.000217826	0	5	0	
0.0131667	-0.0312756	0.00936019	0.00123444	0.000173232	0	5	0	
0.0133333	0.029715	-0.00893899	0.00123018	0.000207773	0	5	0	
0.0135	-0.028182	0.0116368	0.00123941	0.000269651	0	5	0	
0.0136667	0.0290493	-0.0128534	0.00124084	0.000301685	0	5	0	
0.0138333	-0.0314072	0.00421201	0.00123344	0.000317001	0	5	0	
0.014	0.0309052	-0.000373844	0.00123668	0.000316406	0	5	0	
0.0141667	-0.0302374	0.0157534	0.00125735	0.000277434	0	5	0	
0.0143333	0.0329414	-0.0292706	0.00126736	0.000287056	0	5	0	
0.0145	-0.0345915	0.00350292	0.00126159	0.000437713	0	5	0	
0.0146667	0.0323056	0.0338595	0.00126144	0.000668973	0	5	0	
0.0148333	-0.0326011	-0.0141371	0.00126259	0.000681022	0	5	0	
0.015	0.0366209	-0.0313727	0.00125117	0.000678754	0	5	0	
0.0151667	-0.0376794	0.0205205	0.00124406	0.000544698	0	5	0	
0.0153333	0.0341772	0.0106449	0.00125826	0.000665681	0	5	0	
0.0155	-0.0307665	-7.13098E-05	0.00126055	0.000455376	0	5	0	
0.0156667	0.0300409	-0.0259795	0.00124005	0.000370969	0	5	0	
0.0158333	-0.0281318	0.00866273	0.0012107	0.000337068	0	5	0	
0.016	0.0275864	0.0178025	0.00119312	0.000570263	0	5	0	
0.0161667	-0.0301842	-0.00311231	0.0011705	0.000541311	0	5	0	
0.0163333	0.0322024	-0.0271662	0.00116054	0.000431612	0	5	0	
0.0165	-0.0300815	0.0202045	0.00118405	0.000324655	0	5	0	
0.0166667	0.0299743	0.00447244	0.00123372	0.000503806	0	5	0	
0.0168333	-0.031145	-0.00888806	0.00125739	0.000492813	0	5	0	
0.017	0.0336376	-0.00551103	0.0012658	0.000359561	0	5	0	
0.0171667	-0.0312769	0.0168864	0.00127519	0.00021416	0	5	0	
0.0173333	0.0303507	-0.00766294	0.00128063	0.000254632	0	5	0	
0.0175	-0.0347734	-0.00252441	0.00125502	0.000372019	0	5	0	
0.0176667	0.0385294	0.00453443	0.00124044	0.000377297	0	5	0	
0.0178333	-0.0319955	0.00123656	0.00126524	0.000266823	0	5	0	
0.018	0.0306563	-0.0124555	0.00129292	0.00016933	0	5	0	
0.0181667	-0.0344015	0.0177856	0.00126717	0.000195097	0	5	0	
0.0183333	0.0359868	-0.0099354	0.0012436	0.000292596	0	5	0	
0.0185	-0.0310516	0.00456775	0.00125456	0.000369729	0	5	0	
0.0186667	0.0316028	-0.00529521	0.0012758	0.000340193	0	5	0	
0.0188333	-0.0339276	0.00794424	0.00126573	0.000280374	0	5	0	
0.019	0.034504	-0.00860586	0.00125608	0.000251885	0	5	0	
0.0191667	-0.0315179	0.00313098	0.0012565	0.000263929	0	5	0	
0.0193333	0.0327689	-0.00366954	0.00125463	0.000265976	0	5	0	
0.0195	-0.0327961	0.00343091	0.00123525	0.00022609	0	5	0	
0.0196667	0.0341273	-0.00511335	0.00123494	0.000193066	0	5	0	
0.0198333	-0.0346534	0.0117885	0.0012416	0.000182712	0	5	0	
0.02	0.0358982	-0.0309412	0.00125413	0.00026586	0	5	0	
0.0201667	-0.033175	0.0373452	0.00125968	0.000417504	0	5	0	
0.0203333	0.0329695	-0.00767587	0.00126768	0.000663095	0	5	0	
0.0205	-0.0354084	-0.0342771	0.0012694	0.000837702	0	5	0	
0.0206667	0.0355561	0.013618	0.00128507	0.000758431	0	5	0	
0.0208333	-0.0318575	0.0420288	0.00129769	0.000802122	0	5	0	
0.021	0.0358484	-0.0565141	0.00128305	0.000783016	0	5	0	
0.0211667	-0.0410296	0.0149333	0.00124633	0.000970427	0	5	0	
0.0213333	0.0375911	0.0125775	0.00125892	0.000833735	0	5	0	
0.0215	-0.0321114	-0.00139391	0.00129705	0.000582692	0	5	0	
0.0216667	0.0362654	-0.00884468	0.00128673	0.000292907	0	5	0	
0.0218333	-0.0395619	0.000974177	0.00123861	0.00016038	0	5	0	
0.022	0.0324079	-0.00582033	0.00122507	0.00015042	0	5	0	
0.0221667	-0.028123	0.0248609	0.00123347	0.000253325	0	5	0	
0.0223333	0.0338767	-0.0273772	0.00121217	0.000316784	0	5	0	
0.0225	-0.0357049	0.00196059	0.00118549	0.000504725	0	5	0	
0.0226667	0.0325957	0.013663	0.00120355	0.000571576	0	5	0	
0.0228333	-0.0325498	0.00104784	0.00123227	0.000457193	0	5	0	
0.023	0.0320118	-0.0230664	0.00123037	0.000339473	0	5	0	
0.0231667	-0.0333767	0.0238788	0.00122612	0.000275836	0	5	0	
0.0233333	0.035258	-0.00566089	0.00124391	0.000420996	0	5	0	
0.0235	-0.0353406	-0.00807257	0.00127171	0.000472831	0	5	0	
0.0236667	0.034954	0.00112791	0.00128312	0.000371712	0	5	0	
0.0238333	-0.0356964	0.0169062	0.00127898	0.000264289	0	5	0	
0.024	0.0351428	-0.0241551	0.00127163	0.000232364	0	5	0	
0.0241667	-0.0360499	0.0130953	0.00126107	0.000378551	0	5	0	
0.0243333	0.0384662	0.00294748	0.00125268	0.000495643	0	5	0	
0.0245	-0.0358114	0.000678048	0.00125061	0.000434607	0	5	0	
0.0246667	0.03358	-0.0132396	0.00125909	0.000301062	0	5	0	
0.0248333	-0.0345446	0.0200741	0.00125349	0.000228376	0	5	0	
0.025	0.0370611	-0.00888301	0.00124568	0.000321788	0	5	0	
0.0251667	-0.034819	0.00160798	0.00124621	0.000414463	0	5	0	
0.0253333	0.0330543	-0.00622023	0.00125622	0.000369559	0	5	0	
0.0255	-0.0345617	0.010531	0.00124309	0.000275859	0	5	0	
0.0256667	0.0378869	-0.00898613	0.0012264	0.000208544	0	5	0	
0.0258333	-0.0369952	0.00685237	0.00123287	0.000231045	0	5	0	
0.026	0.0354579	-0.00515712	0.00126154	0.000234133	0	5	0	
0.0261667	-0.0368628	0.00736743	0.00127687	0.000213728	0	5	0	
0.0263333	0.0379041	-0.0113037	0.00127942	0.000197682	0	5	0	
0.0265	-0.0359634	0.00812773	0.00127689	0.000216168	0	5	0	
0.0266667	0.0337774	-0.00941909	0.0012626	0.000270348	0	5	0	
0.0268333	-0.0346082	0.00476679	0.00123528	0.000298774	0	5	0	
0.027	0.0351937	-0.00122353	0.00121868	0.00030098	0	5	0	
0.0271667	-0.0367713	0.0017107	0.00123067	0.000245696	0	5	0	
0.0273333	0.0366472	-0.00825223	0.00125094	0.000208061	0	5	0	
0.0275	-0.0354844	0.00716124	0.00126327	0.000230477	0	5	0	
0.0276667	0.032485	-0.00512707	0.00126174	0.000293835	0	5	0	
0.0278333	-0.0326996	0.00499919	0.00125783	0.000287204	0	5	0	
0.028	0.0348785	-0.0103915	0.00125026	0.000242564	0	5	0	
0.0281667	-0.0381354	0.00828446	0.00125385	0.000205794	0	5	0	
0.0283333	0.0391219	-0.00693701	0.00126697	0.000249398	0	5	0	
0.0285	-0.039516	0.0084794	0.0012893	0.00027708	0	5	0	
0.0286667	0.0366379	-0.0112778	0.00129888	0.000290477	0	5	0	
0.0288333	-0.0369354	0.00315323	0.00130011	0.000277098	0	5	0	
0.029	0.036819	0.00480952	0.00128894	0.000249275	0	5	0	
0.0291667	-0.0385476	0.0119251	0.00128039	0.000240227	0	5	0	
0.0293333	0.0384535	-0.0385205	0.00125806	0.000307519	0	5	0	
0.0295	-0.0382334	0.026869	0.00123497	0.000498741	0	5	0	
0.0296667	0.036622	0.018552	0.00122644	0.000826415	0	5	0	
0.0298333	-0.0354661	-0.0265144	0.00124292	0.000827807	0	5	0	
0.03	0.0346342	-0.0155068	0.00125024	0.000772219	0	5	0	
0.0301667	-0.0369526	0.0263793	0.00123111	0.00047833	0	5	0	
0.0303333	0.0357221	0.00820998	0.00119803	0.00054393	0	5	0	
0.0305	-0.0366088	-0.00215999	0.00119464	0.000359945	0	5	0	
0.0306667	0.038257	-0.0384314	0.00121409	0.000484088	0	5	0	
0.0308333	-0.0409128	0.0351334	0.00124624	0.000464832	0	5	0	
0.031	0.0400774	0.00889751	0.00126901	0.000833044	0	5	0	
0.0311667	-0.0365709	-0.0220192	0.00127864	0.000818511	0	5	0	
0.0313333	0.0343135	-0.00878169	0.00125708	0.00072348	0	5	0	
0.0315	-0.0370418	0.0289998	0.00122016	0.000465059	0	5	0	
0.0316667	0.0381868	-0.00928839	0.00120001	0.000388451	0	5	0	
0.0318333	-0.0369694	-0.00757533	0.00121265	0.000445383	0	5	0	
0.032	0.0364682	-0.0051682	0.00122334	0.000371593	0	5	0	
0.0321667	-0.0354659	0.0259819	0.00121312	0.00033225	0	5	0	
0.0323333	0.0337476	-0.0230308	0.00119745	0.00036052	0	5	0	
0.0325	-0.034332	-0.000677688	0.00119608	0.000478522	0	5	0	
0.0326667	0.0368133	0.004486	0.00120262	0.000460263	0	5	0	
0.0328333	-0.0351759	0.00962395	0.00121089	0.000298709	0	5	0	
0.033	0.0332876	-0.0194415	0.00122057	0.000217553	0	5	0	
0.0331667	-0.0350997	0.0175089	0.00121748	0.000260796	0	5	0	
0.0333333	0.0389089	-0.00709045	0.00121783	0.000359875	0	5	0	
0.0335	-0.0379173	0.000717726	0.00123817	0.000357779	0	5	0	
0.0336667	0.0365079	-0.0111289	0.00127598	0.00027949	0	5	0	
0.0338333	-0.0361154	0.0181549	0.00129211	0.000242129	0	5	0	
0.034	0.0365705	-0.012926	0.00128723	0.000265431	0	5	0	
0.0341667	-0.0355512	0.00457895	0.0012827	0.000318428	0	5	0	
0.0343333	0.0362611	-0.00199167	0.00128864	0.000299505	0	5	0	
0.0345	-0.0375414	0.00823505	0.00127959	0.000243122	0	5	0	
0.0346667	0.0414133	-0.0140884	0.00126817	0.000216036	0	5	0	
0.0348333	-0.0401212	0.0157404	0.00126438	0.000270751	0	5	0	
0.035	0.0378029	-0.00396096	0.00127953	0.000410493	0	5	0	
0.0351667	-0.0365411	-0.0192252	0.00128869	0.000617382	0	5	0	
0.0353333	0.0387394	0.0390061	0.00128334	0.000729749	0	5	0	
0.0355	-0.0389508	-0.0156736	0.0012582	0.000697598	0	5	0	
0.0356667	0.0370808	-0.0258263	0.00122742	0.000644097	0	5	0	
0.0358333	-0.0372481	0.0169195	0.00119697	0.000537462	0	5	0	
0.036	0.0427729	0.0156689	0.00119519	0.000495337	0	5	0	
0.0361667	-0.0419275	0.00746555	0.00123025	0.000415687	0	5	0	
0.0363333	0.0368164	-0.0562314	0.00128856	0.00055419	0	5	0	
0.0365	-0.034567	0.0424398	0.00129366	0.000760375	0	5	0	
0.0366667	0.0372463	0.0181782	0.00125289	0.00116306	0	5	0	
0.0368333	-0.0354349	-0.0376926	0.00122647	0.0011985	0	5	0	
0.037	0.0332768	0.0163632	0.00124829	0.00103609	0	5	0	
0.0371667	-0.0360288	-0.00907998	0.00125727	0.000563553	0	5	0	
0.0373333	0.0400846	0.0178877	0.00124506	0.000369638	0	5	0	
0.0375	-0.0373289	-0.00322692	0.00123272	0.000279312	0	5	0	
0.0376667	0.0398591	-0.0279902	0.00124589	0.000326305	0	5	0	
0.0378333	-0.0404413	0.0282792	0.00125245	0.000385141	0	5	0	
0.038	0.0393546	-1.3325E-05	0.00126855	0.000533871	0	5	0	
0.0381667	-0.0389862	-0.0116835	0.00127955	0.000518193	0	5	0	
0.0383333	0.040778	-0.00344607	0.00128011	0.000399212	0	5	0	
0.0385	-0.0377222	0.0217999	0.00126945	0.000279524	0	5	0	
0.0386667	0.0368834	-0.026623	0.00126453	0.000304986	0	5	0	
0.0388333	-0.0371006	0.0103022	0.00124404	0.000440422	0	5	0	
0.039	0.0386928	0.00348093	0.00122592	0.00053491	0	5	0	
0.0391667	-0.03676	-0.00349247	0.00123196	0.000464388	0	5	0	
0.0393333	0.0368435	-0.0120251	0.00126406	0.000320879	0	5	0	
0.0395	-0.0391245	0.0225553	0.00128315	0.000228953	0	5	0	
0.0396667	0.0404443	-0.0157398	0.00128597	0.000298885	0	5	0	
0.0398333	-0.0388567	0.00366127	0.00128028	0.000395376	0	5	0	
0.04	0.0382878	-0.00334212	0.00127314	0.000380619	0	5	0	
0.0401667	-0.0383796	0.0120776	0.00126351	0.000301521	0	5	0	
0.0403333	0.0384618	-0.0182752	0.0012625	0.00025024	0	5	0	
0.0405	-0.0381628	0.0175899	0.00126248	0.00028195	0	5	0	
0.0406667	0.0380725	-0.00842542	0.00124869	0.000343021	0	5	0	
0.0408333	-0.0380321	0.00291378	0.00122789	0.000355461	0	5	0	
0.041	0.0372175	-0.00467227	0.00122029	0.000305028	0	5	0	
0.0411667	-0.0363515	0.00803471	0.00123035	0.000235306	0	5	0	
0.0413333	0.0389252	-0.00838789	0.00124588	0.000174654	0	5	0	
0.0415	-0.041267	0.011432	0.00125578	0.000174884	0	5	0	
0.0416667	0.041599	-0.0130464	0.00128116	0.000201817	0	5	0	
0.0418333	-0.0401597	0.0116154	0.0013207	0.000242405	0	5	0	
0.042	0.0393623	-0.00920527	0.00133155	0.000271467	0	5	0	
0.0421667	-0.043882	0.0037725	0.00130137	0.000294354	0	5	0	
0.0423333	0.0461643	-0.00174544	0.00126963	0.000282697	0	5	0	
0.0425	-0.0424784	0.0062487	0.00127742	0.000225118	0	5	0	
0.0426667	0.0385525	-0.0101921	0.00129257	0.000174735	0	5	0	
0.0428333	-0.0405773	0.00825441	0.00126856	0.000174416	0	5	0	
0.043	0.0417762	-0.00724504	0.00122241	0.000223405	0	5	0	
0.0431667	-0.0397592	0.010082	0.00120431	0.000260204	0	5	0	
0.0433333	0.0340485	-0.0101738	0.00119916	0.000279447	0	5	0	
0.0435	-0.0373506	0.00417769	0.00117899	0.000251152	0	5	0	
0.0436667	0.0416365	-0.00631486	0.00114677	0.000202647	0	5	0	
0.0438333	-0.0426703	0.0138995	0.00116519	0.000168582	0	5	0	
0.044	0.0373828	-0.0159962	0.00121577	0.000220055	0	5	0	
0.0441667	-0.0368433	0.00394548	0.00124459	0.000319589	0	5	0	
0.0443333	0.037851	0.00440328	0.00121994	0.000313163	0	5	0	
0.0445	-0.0390119	0.0210842	0.00119914	0.000348752	0	5	0	
0.0446667	0.0379016	-0.0523736	0.00120602	0.00042875	0	5	0	
0.0448333	-0.0411238	0.0313768	0.00122339	0.000727343	0	5	0	
0.045	0.0432219	0.0279228	0.00122923	0.00110192	0	5	0	
0.0451667	-0.0397661	-0.0435217	0.00124977	0.00113285	0	5	0	
0.0453333	0.0344148	0.00607306	0.00127639	0.00101529	0	5	0	
0.0455	-0.0363039	0.0170666	0.00125768	0.000665217	0	5	0	
0.0456667	0.044481	-0.0135913	0.00121012	0.000496403	0	5	0	
0.0458333	-0.0458469	0.0337586	0.00120322	0.000411777	0	5	0	
0.046	0.0391509	-0.054656	0.00124483	0.000500689	0	5	0	
0.0461667	-0.039482	0.0206155	0.00126984	0.000768053	0	5	0	
0.0463333	0.0439362	0.0289931	0.00126191	0.00104355	0	5	0	
0.0465	-0.0406172	-0.0326259	0.00125809	0.00098833	0	5	0	
0.0466667	0.0366537	-0.00933227	0.00125841	0.000817837	0	5	0	
0.0468333	-0.0399199	0.0405941	0.00123568	0.000552434	0	5	0	
0.047	0.0411893	-0.0294281	0.00120709	0.000575931	0	5	0	
0.0471667	-0.0428173	0.000960537	0.00121601	0.000585375	0	5	0	
0.0473333	0.0434361	0.00464404	0.00125131	0.000499039	0	5	0	
0.0475	-0.0391304	0.007623	0.00127044	0.000294632	0	5	0	
0.0476667	0.0392629	-0.0153138	0.00125615	0.00020707	0	5	0	
0.0478333	-0.0449681	0.00986084	0.00123259	0.000273694	0	5	0	
0.048	0.0459637	-0.00144383	0.00125497	0.000334742	0	5	0	
0.0481667	-0.040769	0.0031619	0.00130688	0.000262672	0	5	0	
0.0483333	0.0391956	-0.00735369	0.00132797	0.000144031	0	5	0	
0.0485	-0.0418944	0.00914965	0.00128919	0.000119937	0	5	0	
0.0486667	0.0434032	-0.00890128	0.001251	0.000181751	0	5	0	
0.0488333	-0.0410993	0.00483768	0.00124247	0.000234893	0	5	0	
0.049	0.0425403	-0.00527255	0.00125675	0.000230885	0	5	0	
0.0491667	-0.0434795	0.00308261	0.00125464	0.000193753	0	5	0	
0.0493333	0.0417394	-0.00209065	0.0012541	0.000185567	0	5	0	
0.0495	-0.042381	0.00391638	0.00124703	0.000193332	0	5	0	
0.0496667	0.0437781	-0.00939292	0.0012426	0.000208746	0	5	0	
0.0498333	-0.0421035	0.00938079	0.00125133	0.000213134	0	5	0	
0.05	0.0401797	-0.00909308	0.0012689	0.000234364	0	5	0	
0.0501667	-0.041186	0.00089016	0.00126548	0.000260373	0	5	0	
0.0503333	0.0408491	0.00625274	0.00124606	0.000291132	0	5	0	
0.0505	-0.0381015	-0.0150917	0.0012327	0.00024354	0	5	0	
0.0506667	0.0371039	-0.000426597	0.00121984	0.000341292	0	5	0	
0.0508333	-0.0411748	0.0370634	0.00119616	0.000565547	0	5	0	
0.051	0.0456746	-0.0507236	0.00118231	0.000771419	0	5	0	
0.0511667	-0.0455964	0.0176396	0.00121556	0.000900797	0	5	0	
0.0513333	0.0415032	0.00713633	0.00127899	0.000824612	0	5	0	
0.0515	-0.0356349	0.0128767	0.00131385	0.000659626	0	5	0	
0.0516667	0.0373513	-0.0229575	0.00128827	0.000425213	0	5	0	
0.0518333	-0.0441864	-0.0186325	0.00124245	0.000447481	0	5	0	
0.052	0.0428067	0.0372515	0.00123774	0.000599333	0	5	0	
0.0521667	-0.0352157	0.00136645	0.00125464	0.000683351	0	5	0	
0.0523333	0.0394068	-0.0316914	0.00123941	0.000581462	0	5	0	
0.0525	-0.0442892	0.0127729	0.00120225	0.000493996	0	5	0	
0.0526667	0.040643	0.00334856	0.00121226	0.000358164	0	5	0	
0.0528333	-0.0371637	0.0188626	0.00122813	0.00033746	0	5	0	
0.053	0.0421419	-0.0358375	0.00120641	0.0003311	0	5	0	
0.0531667	-0.043159	0.0177349	0.00117988	0.000574911	0	5	0	
0.0533333	0.039709	0.000912354	0.00122309	0.00065635	0	5	0	
0.0535	-0.0389536	0.000303993	0.00127695	0.000537305	0	5	0	
0.0536667	0.0411614	-0.0156123	0.00128125	0.000347648	0	5	0	
0.0538333	-0.0389484	0.026432	0.00124898	0.000235451	0	5	0	
0.054	0.0378857	-0.0193317	0.00123151	0.000377511	0	5	0	
0.0541667	-0.0420897	0.00502773	0.00123053	0.000455641	0	5	0	
0.0543333	0.0438769	0.00160005	0.001251	0.000427846	0	5	0	
0.0545	-0.0400638	0.00682898	0.00128233	0.000283554	0	5	0	
0.0546667	0.0398885	-0.019575	0.00128864	0.000195913	0	5	0	
0.0548333	-0.0435095	0.0185391	0.00125329	0.000235772	0	5	0	
0.055	0.0446996	-0.00871989	0.00123236	0.000370907	0	5	0	
0.0551667	-0.0431797	0.00122174	0.00125628	0.00038951	0	5	0	
0.0553333	0.0427333	-0.00278959	0.00129238	0.000299158	0	5	0	
0.0555	-0.0438484	0.00974918	0.00129321	0.000194572	0	5	0	
0.0556667	0.0455521	-0.0142218	0.0012811	0.000185008	0	5	0	
0.0558333	-0.0435496	0.0152007	0.00127812	0.000257928	0	5	0	
0.056	0.041993	-0.0116077	0.00128166	0.000319767	0	5	0	
0.0561667	-0.0438672	0.00839035	0.0012687	0.000316421	0	5	0	
0.0563333	0.0455113	-0.0080373	0.00126234	0.000281684	0	5	0	
0.0565	-0.044569	0.00656557	0.0012719	0.000240848	0	5	0	
0.0566667	0.0434641	-0.00848005	0.00128552	0.00023095	0	5	0	
0.0568333	-0.0439419	0.0105324	0.00128071	0.000229081	0	5	0	
0.057	0.0424546	-0.0113585	0.00126795	0.000243099	0	5	0	
0.0571667	-0.0415242	0.009888	0.00126442	0.000244155	0	5	0	
0.0573333	0.0420017	-0.00552771	0.00125887	0.000250293	0	5	0	
0.0575	-0.0459753	0.00285488	0.00124897	0.000235813	0	5	0	
0.0576667	0.0470799	-0.00914408	0.00124255	0.00022054	0	5	0	
0.0578333	-0.0457069	0.0156962	0.00126045	0.000227937	0	5	0	
0.058	0.0427421	-0.0122557	0.00128125	0.000255175	0	5	0	
0.0581667	-0.0430503	0.00668408	0.00128514	0.0002796	0	5	0	
0.0583333	0.0436646	-0.00667323	0.00127501	0.000267902	0	5	0	
0.0585	-0.0427918	0.00743127	0.0012687	0.000255345	0	5	0	
0.0586667	0.0418203	-0.00612979	0.00125901	0.000267959	0	5	0	
0.0588333	-0.044598	0.00618392	0.00124415	0.000263843	0	5	0	
0.059	0.0445821	-0.00585767	0.00123447	0.000220546	0	5	0	
0.0591667	-0.0440172	0.00774223	0.00124621	0.000165387	0	5	0	
0.0593333	0.0432332	-0.00481915	0.00125866	0.000156657	0	5	0	
0.0595	-0.0429067	0.00675799	0.00125433	0.0001692	0	5	0	
0.0596667	0.0430625	-0.0237009	0.00123524	0.000219593	0	5	0	
0.0598333	-0.0470854	0.0304908	0.00122709	0.000315537	0	5	0	
0.06	0.0466045	0.00292833	0.00124169	0.000546962	0	5	0	
0.0601667	-0.0447783	-0.0487737	0.00127801	0.000802302	0	5	0	
0.0603333	0.0391544	0.0351546	0.00128609	0.000876857	0	5	0	
0.0605	-0.0398165	0.0340882	0.00125483	0.00101316	0	5	0	
0.0606667	0.0440086	-0.0584272	0.00120714	0.000949462	0	5	0	
0.0608333	-0.0482124	0.0165744	0.00120379	0.00101433	0	5	0	
0.061	0.045666	0.00113774	0.00124366	0.000787247	0	5	0	
0.0611667	-0.0433982	0.0153067	0.00128172	0.000573743	0	5	0	
0.0613333	0.0413687	-0.000301332	0.00127234	0.000503441	0	5	0	
0.0615	-0.0436503	-0.0319166	0.00124956	0.000597854	0	5	0	
0.0616667	0.0426106	0.0162545	0.00124264	0.000679138	0	5	0	
0.0618333	-0.0426288	0.0336255	0.00125067	0.000815744	0	5	0	
0.062	0.045657	-0.0438795	0.00124216	0.000740673	0	5	0	
0.0621667	-0.0474629	0.00828409	0.00123016	0.000895243	0	5	0	
0.0623333	0.0451095	0.0170873	0.00123718	0.000776277	0	5	0	
0.0625	-0.0449963	-0.00611322	0.00126513	0.000618564	0	5	0	
0.0626667	0.0449494	-0.0117354	0.00127959	0.000412845	0	5	0	
0.0628333	-0.0431967	0.0162248	0.00127517	0.000244712	0	5	0	
0.063	0.0431564	-0.00860081	0.00124652	0.000313674	0	5	0	
0.0631667	-0.0437573	0.00663628	0.00121928	0.000300456	0	5	0	
0.0633333	0.0432696	-0.00930525	0.00121999	0.000278979	0	5	0	
0.0635	-0.0410768	0.00983433	0.0012451	0.000210709	0	5	0	
0.0636667	0.0422134	-0.00690743	0.00124135	0.000193856	0	5	0	
0.0638333	-0.0446486	0.0058553	0.00121255	0.000220701	0	5	0	
0.064	0.0444053	-0.00849499	0.00120533	0.000232897	0	5	0	
0.0641667	-0.0442481	0.0114925	0.0012422	0.00023011	0	5	0	
0.0643333	0.0484711	-0.00689713	0.00128037	0.000208306	0	5	0	
0.0645	-0.0485381	0.00160004	0.00129644	0.0002489	0	5	0	
0.0646667	0.0439613	-0.00298794	0.00129514	0.00027139	0	5	0	
0.0648333	-0.0415729	0.00637799	0.0012824	0.000254108	0	5	0	
0.065	0.0440198	-0.0123206	0.00125588	0.000207901	0	5	0	
0.0651667	-0.0472574	0.00861509	0.00123615	0.000170611	0	5	0	
0.0653333	0.0480024	-0.00672901	0.00124001	0.000210505	0	5	0	
0.0655	-0.0456508	0.00739309	0.00125444	0.000265776	0	5	0	
0.0656667	0.0422405	-0.00550172	0.00125969	0.000299056	0	5	0	
0.0658333	-0.042718	0.0122501	0.00125054	0.000293173	0	5	0	
0.066	0.0457778	-0.0331331	0.00123491	0.000385956	0	5	0	
0.0661667	-0.0471319	0.0498092	0.00122405	0.000537377	0	5	0	
0.0663333	0.0483311	-0.0289277	0.00123172	0.000811556	0	5	0	
0.0665	-0.0468428	-0.0211458	0.00125188	0.00111851	0	5	0	
0.0666667	0.0442036	0.0373275	0.00128012	0.00115517	0	5	0	
0.0668333	-0.0426963	-0.00793165	0.00128761	0.000921176	0	5	0	
0.067	0.0454008	0.00236752	0.00126395	0.000446739	0	5	0	
0.0671667	-0.0467086	-0.0108695	0.00121845	0.000253764	0	5	0	
0.0673333	0.0459107	-0.0144944	0.00119686	0.000248491	0	5	0	
0.0675	-0.0425787	0.0488756	0.00119171	0.000431709	0	5	0	
0.0676667	0.0478322	-0.0344405	0.00119826	0.000620305	0	5	0	
0.0678333	-0.0509978	0.00124561	0.00121155	0.000856953	0	5	0	
0.068	0.0452123	-0.00622356	0.00125092	0.00077879	0	5	0	
0.0681667	-0.0414831	0.027401	0.00125785	0.000635186	0	5	0	
0.0683333	0.045605	-0.0244034	0.00123003	0.000464304	0	5	0	
0.0685	-0.0430112	-0.000585652	0.00119996	0.000521344	0	5	0	
0.0686667	0.0404345	0.0101204	0.00120793	0.000510239	0	5	0	
0.0688333	-0.0435695	-0.00226282	0.00119879	0.000384524	0	5	0	
0.069	0.0455258	-0.0135697	0.00118171	0.000234708	0	5	0	
0.0691667	-0.0426639	0.021128	0.00117723	0.000242878	0	5	0	
0.0693333	0.0422122	-0.018503	0.001194	0.000344165	0	5	0	
0.0695	-0.045165	0.00284379	0.00119893	0.000435389	0	5	0	
0.0696667	0.0458476	-0.000783269	0.00120685	0.000408562	0	5	0	
0.0698333	-0.0439437	0.00997281	0.00122346	0.00031077	0	5	0	
0.07	0.0440293	-0.0166646	0.00123941	0.000266901	0	5	0	
0.0701667	-0.0459275	0.0115041	0.0012405	0.000282066	0	5	0	
0.0703333	0.0463065	-0.00718117	0.00125072	0.000285658	0	5	0	
0.0705	-0.0442234	0.0117975	0.00126505	0.00023824	0	5	0	
0.0706667	0.0435971	-0.0161214	0.00126249	0.000215769	0	5	0	
0.0708333	-0.046495	0.0128479	0.00123813	0.000272091	0	5	0	
0.071	0.0491882	-0.00822806	0.00123177	0.000316483	0	5	0	
0.0711667	-0.0483637	0.00485432	0.00125278	0.000297249	0	5	0	
0.0713333	0.046584	-0.00928338	0.00127795	0.000250204	0	5	0	
0.0715	-0.0453191	0.0130883	0.00127166	0.0002394	0	5	0	
0.0716667	0.044131	-0.0137554	0.00125268	0.000274386	0	5	0	
0.0718333	-0.0442185	0.0103962	0.00123729	0.000313959	0	5	0	
0.072	0.0442976	-0.00409777	0.00122515	0.000302559	0	5	0	
0.0721667	-0.0448479	0.00769077	0.00121023	0.000252707	0	5	0	
0.0723333	0.0463243	-0.0139207	0.00120391	0.000219119	0	5	0	
0.0725	-0.0465928	0.0151768	0.00121392	0.000246601	0	5	0	
0.0726667	0.0465857	-0.0143557	0.00123662	0.000301449	0	5	0	
0.0728333	-0.0455849	0.0146244	0.00124838	0.000335193	0	5	0	
0.073	0.044559	-0.0137019	0.00125296	0.000331766	0	5	0	
0.0731667	-0.0441085	0.0112845	0.00125113	0.000319992	0	5	0	
0.0733333	0.0451522	-0.00988618	0.00125538	0.000305616	0	5	0	
0.0735	-0.0472393	0.0145617	0.00125347	0.000309733	0	5	0	
0.0736667	0.0485501	-0.0143538	0.00125385	0.000321628	0	5	0	
0.0738333	-0.046557	0.00851067	0.00125503	0.000321577	0	5	0	
0.074	0.0466289	-0.00444204	0.00126684	0.000272866	0	5	0	
0.0741667	-0.047565	0.00818947	0.00126647	0.000202396	0	5	0	
0.0743333	0.0481787	-0.0138793	0.00126643	0.000177099	0	5	0	
0.0745	-0.0470948	0.012905	0.00125968	0.000239006	0	5	0	
0.0746667	0.0454642	-0.0106942	0.00125241	0.000308074	0	5	0	
0.0748333	-0.0473996	0.01037	0.0012408	0.000310912	0	5	0	
0.075	0.0485022	-0.0118238	0.00122946	0.000280579	0	5	0	
0.0751667	-0.0485162	0.00280805	0.00123571	0.000273567	0	5	0	
0.0753333	0.044883	-0.000700101	0.00125289	0.000265752	0	5	0	
0.0755	-0.0431647	0.0202179	0.00124931	0.000250033	0	5	0	
0.0756667	0.0471922	-0.0379154	0.00122395	0.00031764	0	5	0	
0.0758333	-0.0503538	0.0143351	0.00121309	0.000482351	0	5	0	
0.076	0.0453199	0.0191221	0.00123365	0.000675164	0	5	0	
0.0761667	-0.0437825	-0.00990222	0.00125926	0.000580759	0	5	0	
0.0763333	0.0436421	-0.0264864	0.00124617	0.000533602	0	5	0	
0.0765	-0.0446699	0.0166097	0.00121858	0.000397108	0	5	0	
0.0766667	0.0459944	0.00888571	0.00120983	0.000493776	0	5	0	
0.0768333	-0.0482077	0.00304681	0.00122621	0.00036646	0	5	0	
0.077	0.0474096	-0.0295049	0.00124867	0.00035904	0	5	0	
0.0771667	-0.0493091	0.016444	0.00126312	0.000372584	0	5	0	
0.0773333	0.0495474	0.0104098	0.00126959	0.000574344	0	5	0	
0.0775	-0.0494453	-0.00571962	0.00128676	0.000516893	0	5	0	
0.0776667	0.0486627	-0.0152456	0.00130426	0.000414654	0	5	0	
0.0778333	-0.0491346	0.0184097	0.0013062	0.000260972	0	5	0	
0.078	0.0497484	-0.00408972	0.00128283	0.000366874	0	5	0	
0.0781667	-0.0503625	0.000681347	0.00126348	0.000375592	0	5	0	
0.0783333	0.0480869	-0.00926166	0.00126065	0.000313996	0	5	0	
0.0785	-0.0451219	0.01673	0.00125976	0.000212003	0	5	0	
0.0786667	0.0468886	-0.00790844	0.00123572	0.000220699	0	5	0	
0.0788333	-0.0478311	0.00627073	0.00120663	0.000286691	0	5	0	
0.079	0.0468427	-0.009914	0.00119878	0.000290589	0	5	0	
0.0791667	-0.0435283	0.0165766	0.00121282	0.000277067	0	5	0	
0.0793333	0.0453607	-0.0131169	0.00121586	0.00027063	0	5	0	
0.0795	-0.0485618	0.00560545	0.00121681	0.00029882	0	5	0	
0.0796667	0.048107	-0.00214463	0.0012334	0.000292304	0	5	0	
0.0798333	-0.0451643	0.00789064	0.00126203	0.000239846	0	5	0	
0.08	0.0470163	-0.0133573	0.0012663	0.000207778	0	5	0	
0.0801667	-0.0494166	0.0150213	0.0012534	0.000212968	0	5	0	
0.0803333	0.0503051	-0.0123639	0.00125323	0.000251028	0	5	0	
0.0805	-0.0500866	0.00754014	0.00127186	0.00026872	0	5	0	
0.0806667	0.0494756	-0.00498641	0.00128005	0.000258828	0	5	0	
0.0808333	-0.0469406	0.00631655	0.00127448	0.000237143	0	5	0	
0.081	0.0455306	-0.0106734	0.00125568	0.000220263	0	5	0	
0.0811667	-0.0483696	0.0163579	0.00123268	0.000234196	0	5	0	
0.0813333	0.0498264	-0.0269505	0.00122189	0.000320593	0	5	0	
0.0815	-0.0476535	0.0187047	0.00123558	0.000515676	0	5	0	
0.0816667	0.0467626	0.0131444	0.00125048	0.000780712	0	5	0	
0.0818333	-0.048519	-0.0288055	0.00125355	0.000812153	0	5	0	
0.082	0.0482675	-0.0106722	0.00124731	0.000783152	0	5	0	
0.0821667	-0.0491788	0.0542806	0.00124819	0.000754388	0	5	0	
0.0823333	0.0524224	-0.0501181	0.00124943	0.00087544	0	5	0	
0.0825	-0.0530728	0.0134981	0.00125364	0.000965214	0	5	0	
0.0826667	0.0472927	-0.00122116	0.00126897	0.000839225	0	5	0	
0.0828333	-0.0438369	0.00377799	0.00126899	0.000594296	0	5	0	
0.083	0.0461864	-0.00146685	0.00123641	0.000330777	0	5	0	
0.0831667	-0.0475007	-0.00308618	0.00120277	0.000163939	0	5	0	
0.0833333	0.0455729	-0.0118196	0.00119501	0.000165678	0	5	0	
0.0835	-0.0464095	0.0262474	0.00119133	0.000207835	0	5	0	
0.0836667	0.0498325	-0.0228841	0.00119966	0.000365236	0	5	0	
0.0838333	-0.0472358	0.00146771	0.00121651	0.000514683	0	5	0	
0.084	0.0463201	0.00572133	0.00124582	0.000525939	0	5	0	
0.0841667	-0.0474435	0.00726631	0.0012379	0.000362218	0	5	0	
0.0843333	0.0485598	-0.0220325	0.00123097	0.000240109	0	5	0	
0.0845	-0.047566	0.018639	0.00123188	0.000269415	0	5	0	
0.0846667	0.0491347	-0.0026826	0.00124935	0.000446692	0	5	0	
0.0848333	-0.047552	-0.00759526	0.00124711	0.000486085	0	5	0	
0.085	0.0460434	-0.00533769	0.00124916	0.000375112	0	5	0	
0.0851667	-0.046017	0.0228467	0.00123456	0.000254061	0	5	0	
0.0853333	0.0475767	-0.0217621	0.00122504	0.000276923	0	5	0	
0.0855	-0.048874	0.00850071	0.0012199	0.00042117	0	5	0	
0.0856667	0.0494343	-0.0025007	0.00123739	0.000445357	0	5	0	
0.0858333	-0.0477939	0.00698181	0.00125285	0.000330516	0	5	0	
0.086	0.0470943	-0.0145001	0.00125876	0.000214507	0	5	0	
0.0861667	-0.0486186	0.0152099	0.00124831	0.000197065	0	5	0	
0.0863333	0.0488206	-0.0135012	0.00124737	0.000276589	0	5	0	
0.0865	-0.0472931	0.0079541	0.0012558	0.00032404	0	5	0	
0.0866667	0.0473089	-0.00690701	0.00126118	0.000311706	0	5	0	
0.0868333	-0.051361	0.009599	0.00125393	0.00026229	0	5	0	
0.087	0.0507533	-0.0115982	0.00125401	0.000242462	0	5	0	
0.0871667	-0.0486029	0.00659465	0.00126757	0.000248771	0	5	0	
0.0873333	0.0486491	-0.0102065	0.00127158	0.000276213	0	5	0	
0.0875	-0.0502662	0.0109043	0.0012602	0.000271007	0	5	0	
0.0876667	0.0493717	-0.0136575	0.00125502	0.000270917	0	5	0	
0.0878333	-0.0484173	0.0159237	0.00125669	0.000283773	0	5	0	
0.088	0.0470066	-0.0157562	0.00124797	0.000317571	0	5	0	
0.0881667	-0.0490439	0.0099787	0.00123187	0.000336109	0	5	0	
0.0883333	0.0497904	-0.00956728	0.00123483	0.000316422	0	5	0	
0.0885	-0.0494471	0.00885113	0.00125303	0.000264182	0	5	0	
0.0886667	0.0489566	-0.0125518	0.00126339	0.000224641	0	5	0	
0.0888333	-0.0495954	0.0132254	0.00125011	0.000217679	0	5	0	
0.089	0.0491365	-0.0118796	0.00123953	0.00023207	0	5	0	
0.0891667	-0.0485984	0.0132156	0.00124409	0.000252806	0	5	0	
0.0893333	0.0474803	-0.0131337	0.00125722	0.000259041	0	5	0	
0.0895	-0.0483303	0.00891716	0.00124924	0.000281069	0	5	0	
0.0896667	0.0493009	-0.00732831	0.00123536	0.000281155	0	5	0	
0.0898333	-0.0473412	0.0114266	0.00122092	0.000265862	0	5	0	
0.09	0.0456415	-0.0146194	0.00122334	0.000255281	0	5	0	
0.0901667	-0.0474518	0.0103055	0.001224	0.000270149	0	5	0	
0.0903333	0.0490261	-0.008771	0.00123033	0.00026613	0	5	0	
0.0905	-0.0498639	0.0217573	0.00123896	0.000267811	0	5	0	
0.0906667	0.0507886	-0.0120253	0.00125367	0.00032558	0	5	0	
0.0908333	-0.0487286	-0.0203813	0.00126425	0.000478201	0	5	0	
0.091	0.0451321	0.0201952	0.00126401	0.000499327	0	5	0	
0.0911667	-0.0468595	0.0297323	0.00124414	0.00069785	0	5	0	
0.0913333	0.0512716	-0.0477399	0.0012297	0.000701372	0	5	0	
0.0915	-0.0509981	0.00378811	0.00124186	0.000943395	0	5	0	
0.0916667	0.048942	0.0247878	0.00127276	0.000833141	0	5	0	
0.0918333	-0.050735	0.012223	0.00129035	0.000765038	0	5	0	
0.092	0.0520922	-0.0323541	0.00128962	0.000537849	0	5	0	
0.0921667	-0.0512714	-0.0019708	0.00130028	0.000563544	0	5	0	
0.0923333	0.0488524	0.0214173	0.00130646	0.00058663	0	5	0	
0.0925	-0.0504994	0.00902495	0.00128741	0.000585546	0	5	0	
0.0926667	0.0536969	-0.0293264	0.00125083	0.000431071	0	5	0	
0.0928333	-0.0524779	0.0106133	0.00125059	0.000450832	0	5	0	
0.093	0.0469772	0.00752924	0.00126754	0.000485129	0	5	0	
0.0931667	-0.0479772	0.00542838	0.00126837	0.000421174	0	5	0	
0.0933333	0.0492315	-0.0256512	0.00123323	0.000324199	0	5	0	
0.0935	-0.0474751	0.0203191	0.0012127	0.000322504	0	5	0	
0.0936667	0.046307	-0.000285883	0.00120224	0.000463059	0	5	0	
0.0938333	-0.0513684	-0.00579114	0.00120839	0.000445561	0	5	0	
0.094	0.0525997	-0.00345644	0.00123286	0.000334961	0	5	0	
0.0941667	-0.0495845	0.0181331	0.00128225	0.000219827	0	5	0	
0.0943333	0.0486319	-0.0212194	0.00129994	0.000251644	0	5	0	
0.0945	-0.0513411	0.0137295	0.00128056	0.000347575	0	5	0	
0.0946667	0.0515874	-0.00154813	0.00125981	0.000391739	0	5	0	
0.0948333	-0.0490927	-0.000260531	0.00126736	0.000311647	0	5	0	
0.095	0.0501055	-0.00763817	0.00126854	0.000188865	0	5	0	
0.0951667	-0.0522386	0.0124061	0.00125047	0.000129609	0	5	0	
0.0953333	0.0514493	-0.00661543	0.00124234	0.000183669	0	5	0	
0.0955	-0.0478766	0.00509519	0.00125327	0.000231821	0	5	0	
0.0956667	0.0479109	-0.0110497	0.00125052	0.000227381	0	5	0	
0.0958333	-0.0508143	0.0160084	0.00123161	0.000214411	0	5	0	
0.096	0.0518638	-0.0147121	0.00121821	0.000266133	0	5	0	
0.0961667	-0.0498504	0.0107305	0.00123327	0.000324244	0	5	0	
0.0963333	0.0483095	-0.0156749	0.00124885	0.000354046	0	5	0	
0.0965	-0.0489878	0.00879079	0.00125245	0.000403545	0	5	0	
0.0966667	0.0502467	0.0202125	0.00124459	0.000535787	0	5	0	
0.0968333	-0.0501218	-0.0248758	0.00124887	0.000546674	0	5	0	
0.097	0.0483625	-0.023471	0.00125637	0.000674142	0	5	0	
0.0971667	-0.0488187	0.0584647	0.00125001	0.000713449	0	5	0	
0.0973333	0.0527922	-0.0439254	0.00123246	0.000940643	0	5	0	
0.0975	-0.0533854	0.013788	0.00124276	0.00098306	0	5	0	
0.0976667	0.0481445	-0.0079926	0.00127906	0.000846406	0	5	0	
0.0978333	-0.0479589	0.0082031	0.00128687	0.000586546	0	5	0	
0.098	0.0537313	0.00599696	0.00125464	0.000385004	0	5	0	
0.0981667	-0.0521622	-0.00609924	0.00123313	0.000286404	0	5	0	
0.0983333	0.0466394	-0.0194335	0.00123878	0.000336503	0	5	0	
0.0985	-0.0479763	0.032742	0.00123263	0.000362649	0	5	0	
0.0986667	0.0520933	-0.0185704	0.00121574	0.000489175	0	5	0	
0.0988333	-0.048682	-0.00558549	0.00121875	0.000522982	0	5	0	
0.099	0.0463359	0.00227484	0.00123557	0.000396974	0	5	0	
0.0991667	-0.0478792	0.0210706	0.0012317	0.000290126	0	5	0	
0.0993333	0.0472518	-0.0317365	0.00121616	0.000283383	0	5	0	
0.0995	-0.0482641	0.0190452	0.00121549	0.000430791	0	5	0	
0.0996667	0.0516054	-0.00418786	0.0012286	0.000540573	0	5	0	
0.0998333	-0.0513141	-0.00173746	0.00125181	0.000463262	0	5	0	
0.1	0.049655	-0.0099113	0.00127137	0.000315302	0	5	0	
0.100167	-0.0505308	0.0219345	0.00127534	0.000232912	0	5	0	
0.100333	0.0510867	-0.0174565	0.00126362	0.000270311	0	5	0	
0.1005	-0.0516274	0.00399263	0.00125461	0.000363417	0	5	0	
0.100667	0.0518982	-0.00355251	0.00125605	0.000348288	0	5	0	
0.100833	-0.0507363	0.0124453	0.00126187	0.000279332	0	5	0	
0.101	0.0505729	-0.0167854	0.00126128	0.000248242	0	5	0	
0.101167	-0.0521978	0.00938075	0.00126183	0.000268804	0	5	0	
0.101333	0.050118	-0.00365511	0.00125908	0.000312665	0	5	0	
0.1015	-0.0492053	0.00871674	0.00125386	0.000267092	0	5	0	
0.101667	0.0503363	-0.014118	0.00124095	0.000232417	0	5	0	
0.101833	-0.0517519	0.0129286	0.00123931	0.00022865	0	5	0	
0.102	0.0518594	-0.00838639	0.00124803	0.000277744	0	5	0	
0.102167	-0.0507869	0.00377714	0.00126018	0.000293508	0	5	0	
0.102333	0.0496673	-0.0082938	0.00125339	0.000269439	0	5	0	
0.1025	-0.0498407	0.0110256	0.00123647	0.000225279	0	5	0	
0.102667	0.0511159	-0.0117945	0.00122511	0.000213157	0	5	0	
0.102833	-0.0532234	0.0127594	0.00123411	0.00024276	0	5	0	
0.103	0.0525096	-0.0132453	0.00125393	0.000290673	0	5	0	
0.103167	-0.0502239	0.0128718	0.00126761	0.000330764	0	5	0	
0.103333	0.0501478	-0.0124131	0.00125999	0.000330512	0	5	0	
0.1035	-0.0499686	0.011487	0.00123868	0.00030863	0	5	0	
0.103667	0.0506995	-0.0111708	0.0012271	0.000293919	0	5	0	
0.103833	-0.05018	0.00788742	0.0012265	0.000304892	0	5	0	
0.104	0.0498761	-0.0062258	0.00123643	0.000299291	0	5	0	
0.104167	-0.0486103	0.0119905	0.00123426	0.000269358	0	5	0	
0.104333	0.047401	-0.0147101	0.00122473	0.000245125	0	5	0	
0.1045	-0.0476952	0.0119345	0.0012087	0.000259037	0	5	0	
0.104667	0.0505275	-0.00898121	0.00121025	0.000271854	0	5	0	
0.104833	-0.0517578	0.0101703	0.00123103	0.000261218	0	5	0	
0.105	0.0518924	-0.0129909	0.00126208	0.000254216	0	5	0	
0.105167	-0.0528349	0.011638	0.00127371	0.000264497	0	5	0	
0.105333	0.0523346	-0.0112504	0.00127751	0.000275102	0	5	0	
0.1055	-0.0509324	0.0127561	0.00127876	0.000258091	0	5	0	
0.105667	0.0518442	-0.00851458	0.00128193	0.000236136	0	5	0	
0.105833	-0.0536158	0.00269112	0.00127225	0.000251204	0	5	0	
0.106	0.0525817	-0.0071918	0.0012628	0.000232513	0	5	0	
0.106167	-0.0499352	0.0280005	0.00124651	0.000279832	0	5	0	
0.106333	0.051664	-0.0375898	0.00122806	0.000374569	0	5	0	
0.1065	-0.0531401	0.00185221	0.00121301	0.000661764	0	5	0	
0.106667	0.0489949	0.0388458	0.00122629	0.000873938	0	5	0	
0.106833	-0.0463908	-0.0187653	0.00123689	0.000843931	0	5	0	
0.107	0.0491155	-0.0251141	0.00122481	0.000756831	0	5	0	
0.107167	-0.0520553	0.02455	0.00120562	0.000562357	0	5	0	
0.107333	0.0526499	-0.00728238	0.00121617	0.000557533	0	5	0	
0.1075	-0.0502926	0.024859	0.00124094	0.000417304	0	5	0	
0.107667	0.0516172	-0.0419536	0.00125619	0.000478081	0	5	0	
0.107833	-0.0550369	0.0123134	0.00126467	0.000595069	0	5	0	
0.108	0.0539274	0.0236448	0.00129097	0.000806084	0	5	0	
0.108167	-0.0489964	-0.0113513	0.00130198	0.000702678	0	5	0	
0.108333	0.0490023	-0.0242002	0.00126531	0.000579942	0	5	0	
0.1085	-0.0525717	0.0289955	0.00120598	0.000412784	0	5	0	
0.108667	0.0535421	-0.00532317	0.00119035	0.000498971	0	5	0	
0.108833	-0.0515244	-0.0063531	0.00122248	0.000431166	0	5	0	
0.109	0.0511806	-0.00866465	0.00125231	0.000334339	0	5	0	
0.109167	-0.0504581	0.0226706	0.00123776	0.00024421	0	5	0	
0.109333	0.0489844	-0.0168848	0.00121403	0.000336327	0	5	0	
0.1095	-0.0482902	0.008294	0.00120675	0.000446223	0	5	0	
0.109667	0.0494213	-0.0120556	0.00121984	0.000433606	0	5	0	
0.109833	-0.0513188	0.0170717	0.00123428	0.000355798	0	5	0	
0.11	0.0511473	-0.0155212	0.00123755	0.000284184	0	5	0	
0.110167	-0.0517237	0.00656642	0.00123626	0.000306714	0	5	0	
0.110333	0.0485246	-0.00280352	0.00123704	0.000290197	0	5	0	
0.1105	-0.0498611	0.00634638	0.00124139	0.000237361	0	5	0	
0.110667	0.0532378	-0.011341	0.00124679	0.000209902	0	5	0	
0.110833	-0.0537771	0.0141364	0.00125893	0.000206314	0	5	0	
0.111	0.0493358	-0.0139436	0.0012588	0.000249181	0	5	0	
0.111167	-0.0503431	0.00936373	0.00124592	0.000285416	0	5	0	
0.111333	0.0519596	-0.00361821	0.00122656	0.000295076	0	5	0	
0.1115	-0.0529253	0.00173394	0.0012401	0.000268479	0	5	0	
0.111667	0.0501783	-0.00447641	0.00126111	0.00021471	0	5	0	
0.111833	-0.0503811	0.0085124	0.00126422	0.000191057	0	5	0	
0.112	0.0513024	-0.00592983	0.00123973	0.000187534	0	5	0	
0.112167	-0.0521268	0.00146047	0.00123548	0.000187711	0	5	0	
0.112333	0.0512225	-0.0131442	0.00124631	0.000313412	0	5	0	
0.1125	-0.051485	0.0465423	0.00125387	0.000524861	0	5	0	
0.112667	0.0537863	-0.0441369	0.00124243	0.000732759	0	5	0	
0.112833	-0.0558869	-0.000787023	0.00124794	0.000821934	0	5	0	
0.113	0.0514969	0.0203523	0.00127208	0.000607157	0	5	0	
0.113167	-0.0455756	0.0242704	0.00127914	0.000725361	0	5	0	
0.113333	0.0483492	-0.0465577	0.00123447	0.000745544	0	5	0	
0.1135	-0.0555454	0.0096097	0.0011939	0.000968469	0	5	0	
0.113667	0.0533775	0.030967	0.00120424	0.000918356	0	5	0	
0.113833	-0.0469486	-0.0121168	0.00124916	0.000724052	0	5	0	
0.114	0.0490588	-0.00668074	0.00124927	0.000629575	0	5	0	
0.114167	-0.0539264	-0.00663894	0.0012258	0.000342691	0	5	0	
0.114333	0.051465	0.0114314	0.00123339	0.000335368	0	5	0	
0.1145	-0.0485105	0.0247509	0.00125565	0.000381989	0	5	0	
0.114667	0.0520976	-0.0473447	0.00123867	0.000545174	0	5	0	
0.114833	-0.0556325	0.0208504	0.00121405	0.000729368	0	5	0	
0.115	0.0522259	0.0137027	0.00123174	0.000735836	0	5	0	
0.115167	-0.0504806	-0.0104908	0.00127029	0.00059589	0	5	0	
0.115333	0.0510898	-0.0179802	0.00127351	0.00049181	0	5	0	
0.1155	-0.0497804	0.033402	0.00124916	0.000396834	0	5	0	
0.115667	0.0501739	-0.022218	0.00123122	0.000553912	0	5	0	
0.115833	-0.05313	-0.0018307	0.00123519	0.00059405	0	5	0	
0.116	0.0512353	0.00439042	0.00125229	0.000527641	0	5	0	
0.116167	-0.0490595	0.00917625	0.00126003	0.000377214	0	5	0	
0.116333	0.0512044	-0.0222284	0.00124565	0.000256057	0	5	0	
0.1165	-0.0531056	0.0156726	0.00122686	0.000300965	0	5	0	
0.116667	0.0541757	-0.00403193	0.00124404	0.00036207	0	5	0	
0.116833	-0.0538303	0.000520567	0.00127193	0.00033881	0	5	0	
0.117	0.052708	-0.00856262	0.00128215	0.000254174	0	5	0	
0.117167	-0.0526837	0.0154408	0.00126333	0.000199133	0	5	0	
0.117333	0.052977	-0.0158532	0.00125203	0.000222782	0	5	0	
0.1175	-0.0522207	0.00761374	0.0012535	0.000279667	0	5	0	
0.117667	0.0536097	-0.00730944	0.00125932	0.000281919	0	5	0	
0.117833	-0.0541407	0.0108824	0.00125509	0.000266757	0	5	0	
0.118	0.0517879	-0.0124519	0.00125271	0.000265181	0	5	0	
0.118167	-0.0502367	0.01126	0.0012499	0.000269988	0	5	0	
0.118333	0.0514452	-0.00959227	0.00124347	0.000262957	0	5	0	
0.1185	-0.0531663	0.00852827	0.00123636	0.000239002	0	5	0	
0.118667	0.0505187	-0.00994609	0.00122722	0.000227295	0	5	0	
0.118833	-0.0502933	0.0117388	0.00121679	0.000235338	0	5	0	
0.119	0.0524979	-0.0128096	0.00120443	0.000251759	0	5	0	
0.119167	-0.0539991	0.0125382	0.00121824	0.000254574	0	5	0	
0.119333	0.0521369	-0.0122197	0.00124645	0.000244194	0	5	0	
0.1195	-0.0492124	0.0127122	0.00125791	0.000253841	0	5	0	
0.119667	0.0505287	-0.0118366	0.00123908	0.000282146	0	5	0	
0.119833	-0.0527122	0.00920227	0.00122437	0.000299121	0	5	0	
0.12	0.051292	-0.00857628	0.00123266	0.000283967	0	5	0	
0.120167	-0.0505375	0.0091084	0.00124527	0.000248768	0	5	0	
0.120333	0.051371	-0.0105871	0.00124145	0.00022943	0	5	0	
0.1205	-0.0514672	0.0125206	0.00123314	0.000232445	0	5	0	
0.120667	0.0529857	-0.0146938	0.00124129	0.000241892	0	5	0	
0.120833	-0.053063	0.0138214	0.00125535	0.000264131	0	5	0	
0.121	0.0531823	-0.00951662	0.0012628	0.000296802	0	5	0	
0.121167	-0.0541101	0.00664007	0.00126247	0.000300979	0	5	0	
0.121333	0.0544101	-0.0113388	0.00127742	0.000270972	0	5	0	
0.1215	-0.0537609	0.011615	0.00129583	0.00022713	0	5	0	
0.121667	0.0536712	-0.00687875	0.00130547	0.000230354	0	5	0	
0.121833	-0.054023	0.00651523	0.00128844	0.000260813	0	5	0	
0.122	0.0533379	-0.0145193	0.0012716	0.000264602	0	5	0	
0.122167	-0.0530632	0.021913	0.00125343	0.000284883	0	5	0	
0.122333	0.0544761	0.000222523	0.00124246	0.000397809	0	5	0	
0.1225	-0.055001	-0.0338149	0.0012388	0.000579325	0	5	0	
0.122667	0.0504281	0.0158574	0.0012388	0.000613482	0	5	0	
0.122833	-0.0478333	0.0454213	0.00121431	0.000785434	0	5	0	
0.123	0.0505365	-0.0615875	0.00117719	0.000856568	0	5	0	
0.123167	-0.0535098	0.0244816	0.00115917	0.00105104	0	5	0	
0.123333	0.0518793	-0.00148505	0.00119703	0.000916433	0	5	0	
0.1235	-0.0492347	0.0138914	0.00124711	0.00069415	0	5	0	
0.123667	0.0493455	-0.0040266	0.00126193	0.000554479	0	5	0	
0.123833	-0.0516655	-0.0236808	0.00124243	0.000550018	0	5	0	
0.124	0.0519388	0.0146023	0.00123917	0.000580275	0	5	0	
0.124167	-0.0510576	0.0312532	0.00126031	0.000768143	0	5	0	
0.124333	0.0552137	-0.0448864	0.00128107	0.000786519	0	5	0	
0.1245	-0.0582985	0.0147461	0.00128746	0.000886144	0	5	0	
0.124667	0.0556425	0.0112965	0.00130424	0.000738692	0	5	0	
0.124833	-0.0505601	0.000106854	0.00131126	0.000500946	0	5	0	
0.125	0.052963	-0.0209618	0.00129061	0.000381133	0	5	0	
0.125167	-0.057218	0.0175773	0.00126145	0.000250045	0	5	0	
0.125333	0.0568218	0.000936677	0.00125948	0.000363163	0	5	0	
0.1255	-0.0541623	-0.00437753	0.00127247	0.000337042	0	5	0	
0.125667	0.0527361	-0.00727801	0.00127459	0.000270246	0	5	0	
0.125833	-0.0526612	0.0135033	0.001259	0.000220891	0	5	0	
0.126	0.0540662	-0.0115879	0.0012492	0.0002392	0	5	0	
0.126167	-0.054134	0.00924084	0.00124786	0.000280896	0	5	0	
0.126333	0.0513112	-0.0110514	0.00125619	0.000260015	0	5	0	
0.1265	-0.0503582	0.0165329	0.00124456	0.000240425	0	5	0	
0.126667	0.0523389	-0.0203865	0.00122952	0.000286703	0	5	0	
0.126833	-0.0540035	0.0174457	0.00122469	0.000369836	0	5	0	
0.127	0.0523166	-0.00989394	0.00124198	0.00040377	0	5	0	
0.127167	-0.0532115	0.00826882	0.00124684	0.000365773	0	5	0	
0.127333	0.0531612	-0.00981136	0.0012402	0.000287444	0	5	0	
0.1275	-0.0524467	0.00968982	0.00122952	0.000236128	0	5	0	
0.127667	0.052021	-0.00658557	0.0012367	0.000209028	0	5	0	
0.127833	-0.0524268	0.00581603	0.00124175	0.0001924	0	5	0	
0.128	0.0516211	-0.0102653	0.00124186	0.000175533	0	5	0	
0.128167	-0.052821	0.0257487	0.00123166	0.000221715	0	5	0	
0.128333	0.0530514	-0.0440719	0.00122577	0.000385514	0	5	0	
0.1285	-0.053513	0.0360486	0.00123185	0.000617676	0	5	0	
0.128667	0.0534322	0.00166236	0.00124233	0.000910674	0	5	0	
0.128833	-0.0527146	-0.0221721	0.00124802	0.000978361	0	5	0	
0.129	0.0484611	-0.0188551	0.00124172	0.000802453	0	5	0	
0.129167	-0.0488024	0.061089	0.00121928	0.000642696	0	5	0	
0.129333	0.0551125	-0.0289249	0.00119037	0.000742332	0	5	0	
0.1295	-0.0572938	-0.0252596	0.00119873	0.00102218	0	5	0	
0.129667	0.0502396	0.00489797	0.00123779	0.00089177	0	5	0	
0.129833	-0.0481744	0.0468864	0.00125582	0.000844458	0	5	0	
0.13	0.0546398	-0.0474223	0.0012278	0.000728283	0	5	0	
0.130167	-0.0563735	0.0215721	0.00121991	0.00087887	0	5	0	
0.130333	0.050591	-0.030393	0.00124774	0.000719317	0	5	0	
0.1305	-0.0528111	0.0439383	0.00126262	0.000656341	0	5	0	
0.130667	0.0598115	-0.0104735	0.00124843	0.000703287	0	5	0	
0.130833	-0.0562138	-0.0258843	0.00125506	0.000873257	0	5	0	
0.131	0.049106	0.0121095	0.00127598	0.000755034	0	5	0	
0.131167	-0.0504397	0.0263517	0.0012542	0.000667149	0	5	0	
0.131333	0.054283	-0.036658	0.00121087	0.00049756	0	5	0	
0.1315	-0.0515424	0.0167009	0.00119077	0.000647482	0	5	0	
0.131667	0.0499435	0.00636603	0.00119999	0.000664771	0	5	0	
0.131833	-0.0504866	-0.00478546	0.00119721	0.00055648	0	5	0	
0.132	0.0513239	-0.0140506	0.00119631	0.000402182	0	5	0	
0.132167	-0.0514196	0.0261728	0.00120394	0.00027408	0	5	0	
0.132333	0.05342	-0.0226393	0.00122503	0.000380208	0	5	0	
0.1325	-0.0527878	0.00887463	0.00123738	0.000451763	0	5	0	
0.132667	0.05356	-0.00279362	0.00125442	0.000398475	0	5	0	
0.132833	-0.0539381	0.00625273	0.00125634	0.000250213	0	5	0	
0.133	0.0546223	-0.00984132	0.00126117	0.000139118	0	5	0	
0.133167	-0.053727	0.00729452	0.00125517	0.000151833	0	5	0	
0.133333	0.0551064	-0.0108692	0.00125854	0.000208742	0	5	0	
0.1335	-0.0549781	0.0119528	0.00125102	0.000238137	0	5	0	
0.133667	0.0547532	-0.0117816	0.0012521	0.000261047	0	5	0	
0.133833	-0.0524664	0.00931211	0.00124409	0.000274331	0	5	0	
0.134	0.0516484	-0.00872619	0.00123705	0.000302405	0	5	0	
0.134167	-0.0516163	0.00935431	0.00122306	0.000300788	0	5	0	
0.134333	0.0520486	-0.0107569	0.00122068	0.000281818	0	5	0	
0.1345	-0.0494113	0.0109886	0.00120806	0.000255354	0	5	0	
0.134667	0.0522082	-0.0146864	0.00120445	0.000259451	0	5	0	
0.134833	-0.0530694	0.0142666	0.00119781	0.000273533	0	5	0	
0.135	0.0528551	-0.0130513	0.00121783	0.000285383	0	5	0	
0.135167	-0.0527578	0.012089	0.00123623	0.000276049	0	5	0	
0.135333	0.0525772	-0.010634	0.00124649	0.000263241	0	5	0	
0.1355	-0.0518053	0.0111564	0.00123457	0.00024344	0	5	0	
0.135667	0.0540891	-0.012601	0.00123204	0.000248272	0	5	0	
0.135833	-0.0541273	0.00657384	0.0012392	0.000244072	0	5	0	
0.136	0.0537005	-0.00541796	0.00126014	0.000221387	0	5	0	
0.136167	-0.0529766	0.00950123	0.00126029	0.000184045	0	5	0	
0.136333	0.0531961	-0.0185476	0.00124766	0.000201543	0	5	0	
0.1365	-0.0537311	0.0190648	0.00123074	0.00026187	0	5	0	
0.136667	0.0542602	-0.0173196	0.00123143	0.000342299	0	5	0	
0.136833	-0.0543404	0.00832015	0.00124307	0.000365193	0	5	0	
0.137	0.0535856	-0.00584445	0.00124984	0.000351163	0	5	0	
0.137167	-0.0529248	0.00872393	0.00124424	0.000289898	0	5	0	
0.137333	0.0519382	-0.012262	0.00123085	0.000249824	0	5	0	
0.1375	-0.0529095	0.0085639	0.00122814	0.000228017	0	5	0	
0.137667	0.0536352	-0.0148503	0.00123078	0.000234046	0	5	0	
0.137833	-0.0520162	0.0184427	0.00123151	0.000249391	0	5	0	
0.138	0.0506486	-0.0166531	0.00122038	0.00030906	0	5	0	
0.138167	-0.0517768	0.00542024	0.00120898	0.00033691	0	5	0	
0.138333	0.0510301	-0.0119084	0.00120435	0.000307179	0	5	0	
0.1385	-0.0530504	0.0306798	0.00120691	0.000309775	0	5	0	
0.138667	0.0560855	-0.0232717	0.00121478	0.000409608	0	5	0	
0.138833	-0.054586	-0.0205636	0.00123443	0.00075879	0	5	0	
0.139	0.0491011	0.0325638	0.00125152	0.000849627	0	5	0	
0.139167	-0.0495565	0.00769036	0.00124819	0.000920783	0	5	0	
0.139333	0.0517592	-0.0409152	0.00121954	0.000807436	0	5	0	
0.1395	-0.0551405	0.0246245	0.00120529	0.000763933	0	5	0	
0.139667	0.0550805	-0.0146711	0.00122051	0.000628431	0	5	0	
0.139833	-0.0541818	0.0372682	0.00124956	0.000493596	0	5	0	
0.14	0.0538155	-0.033399	0.00125914	0.000569486	0	5	0	
0.140167	-0.0552425	-0.0160077	0.00126311	0.000816692	0	5	0	
0.140333	0.0533373	0.0372041	0.00126586	0.000848142	0	5	0	
0.1405	-0.0516081	-0.000239142	0.00126822	0.000798097	0	5	0	
0.140667	0.0527346	-0.0312737	0.00124581	0.000590941	0	5	0	
0.140833	-0.0555667	0.0239601	0.00123142	0.00058426	0	5	0	
0.141	0.0553882	-0.0046577	0.00123222	0.000588657	0	5	0	
0.141167	-0.0530889	0.00404332	0.0012494	0.000490427	0	5	0	
0.141333	0.0518668	-0.0159001	0.00125599	0.000372672	0	5	0	
0.1415	-0.0508593	0.0209082	0.0012429	0.000270757	0	5	0	
0.141667	0.0536745	-0.0154606	0.00122251	0.000307371	0	5	0	
0.141833	-0.0562422	0.0123227	0.00121884	0.00035969	0	5	0	
0.142	0.0540343	-0.00908938	0.00123346	0.000340983	0	5	0	
0.142167	-0.0490615	0.00772998	0.00124346	0.000278612	0	5	0	
0.142333	0.0520022	-0.00965334	0.00123164	0.000217789	0	5	0	
0.1425	-0.0562701	0.0100277	0.00122703	0.000181723	0	5	0	
0.142667	0.0545416	-0.00929374	0.00125379	0.000182305	0	5	0	
0.142833	-0.0519617	0.0141726	0.00127635	0.000197601	0	5	0	
0.143	0.0543025	-0.0155589	0.00127138	0.00024608	0	5	0	
0.143167	-0.0552004	0.00988384	0.0012535	0.000292742	0	5	0	
0.143333	0.0550134	-0.00248786	0.00126148	0.000286122	0	5	0	
0.1435	-0.0546354	0.0059194	0.00128083	0.000218916	0	5	0	
0.143667	0.0549157	-0.0103667	0.00128219	0.000167237	0	5	0	
0.143833	-0.0544138	0.0153989	0.00126419	0.000174725	0	5	0	
0.144	0.0558228	-0.0102603	0.00125127	0.000222561	0	5	0	
0.144167	-0.0552662	0.0030335	0.00124628	0.000263596	0	5	0	
0.144333	0.053813	0.00378049	0.00125148	0.000265066	0	5	0	
0.1445	-0.0510161	0.00386385	0.00124809	0.000206429	0	5	0	
0.144667	0.0526873	-0.0204999	0.00123114	0.000307844	0	5	0	
0.144833	-0.0553158	0.0490174	0.001224	0.000490651	0	5	0	
0.145	0.0560997	-0.036929	0.0012371	0.000716654	0	5	0	
0.145167	-0.0541403	-0.00630278	0.00125965	0.000908278	0	5	0	
0.145333	0.0542455	0.0246728	0.00126393	0.000908274	0	5	0	
0.1455	-0.0517196	0.000338408	0.00124669	0.000741559	0	5	0	
0.145667	0.0531763	-0.0143295	0.00122699	0.000476973	0	5	0	
0.145833	-0.0562891	0.00186118	0.00121897	0.000265179	0	5	0	
0.146	0.0552656	0.00019765	0.00122557	0.000186794	0	5	0	
0.146167	-0.0513306	0.0235855	0.00123068	0.000138019	0	5	0	
0.146333	0.0527229	-0.0284912	0.00122119	0.000255801	0	5	0	
0.1465	-0.0538966	0.00756797	0.0012159	0.000440849	0	5	0	
0.146667	0.0511102	-0.00480009	0.00123128	0.000429472	0	5	0	
0.146833	-0.0502541	0.0164199	0.0012319	0.00037167	0	5	0	
0.147	0.0541219	-0.0282582	0.0012163	0.000293139	0	5	0	
0.147167	-0.0537673	0.020483	0.00119915	0.000408311	0	5	0	
0.147333	0.0544194	-0.00915112	0.00121872	0.000458064	0	5	0	
0.1475	-0.0568914	0.00328659	0.0012437	0.000409186	0	5	0	
0.147667	0.0557276	-0.0123913	0.00127009	0.000281055	0	5	0	
0.147833	-0.0517131	0.0197254	0.00127109	0.000220012	0	5	0	
0.148	0.0521578	-0.0161202	0.00125622	0.000279023	0	5	0	
0.148167	-0.0539852	0.0036865	0.00122394	0.000371057	0	5	0	
0.148333	0.0540687	1.94769E-05	0.00122017	0.000315769	0	5	0	
0.1485	-0.0529897	0.00591277	0.0012246	0.000261825	0	5	0	
0.148667	0.0546877	-0.0181053	0.00123773	0.000206927	0	5	0	
0.148833	-0.0549919	0.0179756	0.00123442	0.000263886	0	5	0	
0.149	0.0532101	-0.0120539	0.00124068	0.000312344	0	5	0	
0.149167	-0.0530371	0.00876161	0.00123922	0.000312463	0	5	0	
0.149333	0.0529418	-0.00980566	0.00123539	0.000277497	0	5	0	
0.1495	-0.0547186	0.00935397	0.00122494	0.000233367	0	5	0	
0.149667	0.0572683	-0.0101778	0.00123086	0.000238016	0	5	0	
0.149833	-0.0556161	0.00786743	0.00124297	0.00025822	0	5	0	
0.15	0.0528928	-0.0105526	0.00125515	0.00026539	0	5	0	
0.150167	-0.054423	0.0107266	0.0012548	0.000241983	0	5	0	
0.150333	0.0543827	-0.00950898	0.00125295	0.000219922	0	5	0	
0.1505	-0.0546911	0.00522745	0.0012521	0.000191783	0	5	0	
0.150667	0.0548418	-0.00601524	0.00125079	0.000173174	0	5	0	
0.150833	-0.0523734	0.00899936	0.0012368	0.000166014	0	5	0	
0.151	0.0522245	-0.0137477	0.00122225	0.000189974	0	5	0	
0.151167	-0.0547189	0.0128249	0.00120962	0.000225882	0	5	0	
0.151333	0.0553809	-0.00801456	0.0012171	0.000250103	0	5	0	
0.1515	-0.0531856	0.00600698	0.00122663	0.000245572	0	5	0	
0.151667	0.0511554	-0.0104211	0.00122616	0.000234917	0	5	0	
0.151833	-0.0521009	0.0123849	0.00120927	0.000239749	0	5	0	
0.152	0.0540363	-0.0136347	0.00120536	0.000252833	0	5	0	
0.152167	-0.0532733	0.0107588	0.00121592	0.000260216	0	5	0	
0.152333	0.0516232	-0.0111147	0.00123146	0.000260325	0	5	0	
0.1525	-0.0517209	0.00978575	0.00122217	0.000255104	0	5	0	
0.152667	0.0532718	-0.00889175	0.00120961	0.000247413	0	5	0	
0.152833	-0.0555174	0.00632785	0.0012151	0.000234446	0	5	0	
0.153	0.0556654	-0.00676152	0.00124223	0.000213329	0	5	0	
0.153167	-0.055444	0.0108107	0.00126321	0.000195275	0	5	0	
0.153333	0.0538337	-0.0166045	0.00126811	0.00021572	0	5	0	
0.1535	-0.0541255	0.0142442	0.00125469	0.000276685	0	5	0	
0.153667	0.0557377	-0.0100457	0.00125199	0.000301261	0	5	0	
0.153833	-0.0538078	0.0145604	0.00125629	0.000290898	0	5	0	
0.154	0.050673	-0.0156768	0.00125726	0.000282255	0	5	0	
0.154167	-0.0526362	0.00717945	0.00123036	0.00032265	0	5	0	
0.154333	0.0541729	-0.00779304	0.00120798	0.000325281	0	5	0	
0.1545	-0.0535233	0.0217697	0.00120369	0.000313669	0	5	0	
0.154667	0.0547566	-0.0243406	0.00122178	0.000328411	0	5	0	
0.154833	-0.0564035	-0.000732837	0.00122601	0.000416621	0	5	0	
0.155	0.0548693	0.016641	0.00123747	0.000402345	0	5	0	
0.155167	-0.0526571	0.0116049	0.00124362	0.000467232	0	5	0	
0.155333	0.0519918	-0.0381655	0.00124658	0.000486598	0	5	0	
0.1555	-0.0525239	0.0137075	0.00122852	0.000590036	0	5	0	
0.155667	0.0524338	0.00705237	0.00121689	0.000560515	0	5	0	
0.155833	-0.0529042	0.0120396	0.00120794	0.000456809	0	5	0	
0.156	0.0534391	-0.0289965	0.00122151	0.000390666	0	5	0	
0.156167	-0.053484	0.00701021	0.00123646	0.000407068	0	5	0	
0.156333	0.0533367	0.0126018	0.00125434	0.000478101	0	5	0	
0.1565	-0.0542097	0.00561606	0.00125438	0.000411268	0	5	0	
0.156667	0.0546017	-0.0259905	0.00124982	0.00032218	0	5	0	
0.156833	-0.0548795	0.0159158	0.00124878	0.000317202	0	5	0	
0.157	0.0551805	0.00146624	0.00125364	0.000397995	0	5	0	
0.157167	-0.0562796	-0.00133241	0.00125757	0.000304471	0	5	0	
0.157333	0.0573794	-0.0105744	0.00126399	0.000220827	0	5	0	
0.1575	-0.0548908	0.0166155	0.00126522	0.000157806	0	5	0	
0.157667	0.0520866	-0.0121708	0.00125174	0.000256693	0	5	0	
0.157833	-0.0545222	0.00947925	0.00122765	0.000274375	0	5	0	
0.158	0.0545011	-0.00938135	0.0012162	0.000262168	0	5	0	
0.158167	-0.0512388	0.0124113	0.00122131	0.000226728	0	5	0	
0.158333	0.0523706	-0.0163273	0.0012168	0.000232938	0	5	0	
0.1585	-0.0544368	0.0139992	0.00119974	0.000275264	0	5	0	
0.158667	0.0541571	-0.00938656	0.00120241	0.000307598	0	5	0	
0.158833	-0.0524499	0.00775402	0.00121965	0.000283278	0	5	0	
0.159	0.0522736	-0.0116351	0.00123378	0.000242174	0	5	0	
0.159167	-0.052989	0.0133378	0.00122587	0.00021988	0	5	0	
0.159333	0.0531433	-0.00927947	0.00121802	0.000241827	0	5	0	
0.1595	-0.0533151	0.00691792	0.00121894	0.000256186	0	5	0	
0.159667	0.0535654	-0.00779595	0.00122594	0.000232367	0	5	0	
0.159833	-0.0542378	0.00984489	0.00123375	0.000188541	0	5	0	
0.16	0.0548751	-0.0089306	0.00123738	0.000181096	0	5	0	
0.160167	-0.0545542	0.0119999	0.00123739	0.000222327	0	5	0	
0.160333	0.053484	-0.0184157	0.0012344	0.000292578	0	5	0	
0.1605	-0.0534333	0.0116758	0.00123378	0.000397089	0	5	0	
0.160667	0.0550086	0.0198943	0.00123644	0.000562222	0	5	0	
0.160833	-0.055553	-0.0227427	0.00124671	0.000580174	0	5	0	
0.161	0.0540611	-0.0242717	0.00125472	0.000658802	0	5	0	
0.161167	-0.0530887	0.0645659	0.0012534	0.000681001	0	5	0	
0.161333	0.0557358	-0.0361749	0.00124318	0.000910915	0	5	0	
0.1615	-0.056592	-0.0107344	0.00124754	0.0010894	0	5	0	
0.161667	0.0527154	0.0159043	0.00126401	0.000961235	0	5	0	
0.161833	-0.0509443	0.0122286	0.00125749	0.000673298	0	5	0	
0.162	0.0565067	-0.0182898	0.0012354	0.000342864	0	5	0	
0.162167	-0.0568615	0.0156794	0.00122927	0.000295953	0	5	0	
0.162333	0.0543143	-0.0277527	0.00124875	0.000360837	0	5	0	
0.1625	-0.054364	0.0358484	0.00125552	0.000442173	0	5	0	
0.162667	0.0535211	-0.0135753	0.00124275	0.000570204	0	5	0	
0.162833	-0.0523482	-0.00969597	0.00123458	0.000668998	0	5	0	
0.163	0.0537683	0.0096497	0.00123868	0.000532144	0	5	0	
0.163167	-0.0548461	0.0140403	0.00123696	0.000449271	0	5	0	
0.163333	0.0536997	-0.031188	0.00123618	0.000345539	0	5	0	
0.1635	-0.0519107	0.020861	0.00122667	0.00046938	0	5	0	
0.163667	0.0535656	0.000525637	0.00122461	0.000478524	0	5	0	
0.163833	-0.0546242	-0.00387618	0.00123176	0.000394814	0	5	0	
0.164	0.0522088	-0.0107996	0.00125092	0.000318687	0	5	0	
0.164167	-0.0520564	0.0272819	0.0012434	0.000279908	0	5	0	
0.164333	0.0534635	-0.0224159	0.00122426	0.000377853	0	5	0	
0.1645	-0.0538391	0.00339299	0.00121789	0.000438206	0	5	0	
0.164667	0.0543496	0.0061351	0.00124989	0.000373521	0	5	0	
0.164833	-0.0549839	0.00661711	0.00127526	0.00027427	0	5	0	
0.165	0.0566877	-0.0175935	0.00128657	0.000195281	0	5	0	
0.165167	-0.055701	0.016622	0.00127514	0.000243318	0	5	0	
0.165333	0.0538634	-0.0109712	0.0012727	0.000307508	0	5	0	
0.1655	-0.0541391	0.00665984	0.00126705	0.000300077	0	5	0	
0.165667	0.0566553	-0.00946919	0.00127322	0.000243321	0	5	0	
0.165833	-0.0570776	0.012765	0.00127562	0.000189902	0	5	0	
0.166	0.0538265	-0.012302	0.0012769	0.000213159	0	5	0	
0.166167	-0.0523713	0.0138498	0.00124871	0.000268445	0	5	0	
0.166333	0.0549213	-0.0128947	0.00122232	0.000308856	0	5	0	
0.1665	-0.0551964	0.00770517	0.00121763	0.000286218	0	5	0	
0.166667	0.0541624	-0.00861728	0.00124576	0.000226783	0	5	0	
0.166833	-0.052901	0.0113672	0.00125549	0.000176455	0	5	0	
0.167	0.0531139	-0.0142681	0.00124564	0.000198294	0	5	0	
0.167167	-0.0544546	0.0154964	0.00123277	0.000248128	0	5	0	
0.167333	0.054589	-0.0110233	0.0012446	0.000287725	0	5	0	
0.1675	-0.0560817	0.00733269	0.0012643	0.000250459	0	5	0	
0.167667	0.0571473	-0.00806854	0.001278	0.000208832	0	5	0	
0.167833	-0.0553118	0.0106038	0.00127311	0.000185581	0	5	0	
0.168	0.0545853	-0.00966671	0.00126793	0.00021265	0	5	0	
0.168167	-0.054665	0.00617997	0.0012585	0.000215664	0	5	0	
0.168333	0.0565405	-0.00818316	0.0012577	0.000192598	0	5	0	
0.1685	-0.057044	0.0141891	0.00125543	0.000180231	0	5	0	
0.168667	0.0533671	-0.0182552	0.0012519	0.000247921	0	5	0	
0.168833	-0.0508925	0.0145028	0.00122644	0.000336485	0	5	0	
0.169	0.0525208	-0.0116597	0.00120283	0.000367601	0	5	0	
0.169167	-0.0522733	0.0123516	0.00118787	0.000315913	0	5	0	
0.169333	0.0518878	-0.010802	0.00120279	0.000259197	0	5	0	
0.1695	-0.0513817	0.00696012	0.00120615	0.000242569	0	5	0	
0.169667	0.0519825	-0.0184221	0.00121236	0.000249188	0	5	0	
0.169833	-0.0542358	0.0266118	0.00120933	0.000309583	0	5	0	
0.17	0.055686	-0.010315	0.00123049	0.00041291	0	5	0	
0.170167	-0.0535666	-0.0226701	0.00124855	0.000574551	0	5	0	
0.170333	0.0523652	0.0121535	0.00126854	0.000537726	0	5	0	
0.1705	-0.0559456	0.0399701	0.0012598	0.000708798	0	5	0	
0.170667	0.060057	-0.0511404	0.00126999	0.000718467	0	5	0	
0.170833	-0.0572641	0.000603784	0.00128523	0.000993748	0	5	0	
0.171	0.0515184	0.0140712	0.00130429	0.000836876	0	5	0	
0.171167	-0.0505296	0.0243059	0.00127411	0.000775624	0	5	0	
0.171333	0.0536175	-0.0337564	0.00123881	0.000568482	0	5	0	
0.1715	-0.0552111	-0.00717728	0.00122543	0.000626633	0	5	0	
0.171667	0.0526899	0.0145167	0.00124587	0.000533013	0	5	0	
0.171833	-0.0530568	0.0237781	0.00124712	0.000582585	0	5	0	
0.172	0.057046	-0.0417538	0.00123975	0.000517429	0	5	0	
0.172167	-0.0581095	0.0094065	0.00125027	0.000678156	0	5	0	
0.172333	0.052385	0.0187303	0.00128937	0.000665079	0	5	0	
0.1725	-0.0523541	2.14618E-05	0.00129786	0.000560243	0	5	0	
0.172667	0.0562504	-0.030076	0.0012748	0.000473491	0	5	0	
0.172833	-0.0563211	0.0253738	0.00125102	0.000423947	0	5	0	
0.173	0.0537529	-0.00626024	0.00125294	0.000506981	0	5	0	
0.173167	-0.0544244	0.0052061	0.00124542	0.000411004	0	5	0	
0.173333	0.0546781	-0.0141065	0.00124382	0.000340716	0	5	0	
0.1735	-0.0534906	0.016401	0.00125103	0.000259137	0	5	0	
0.173667	0.0530822	-0.00326125	0.00125682	0.000270972	0	5	0	
0.173833	-0.0557081	-0.00447687	0.00125204	0.000283823	0	5	0	
0.174	0.0528627	-0.00243359	0.00124106	0.000212601	0	5	0	
0.174167	-0.049881	0.0173633	0.0012349	0.000222555	0	5	0	
0.174333	0.0551665	-0.0213379	0.00122782	0.000256495	0	5	0	
0.1745	-0.0575888	0.0131821	0.00123171	0.000339661	0	5	0	
0.174667	0.0544647	-0.00038629	0.00125083	0.000373997	0	5	0	
0.174833	-0.0525231	0.00345104	0.0012583	0.000340691	0	5	0	
0.175	0.052115	-0.010317	0.00123678	0.000306401	0	5	0	
0.175167	-0.0527847	0.0128983	0.00121369	0.00024826	0	5	0	
0.175333	0.0549348	-0.0114846	0.00121181	0.000226585	0	5	0	
0.1755	-0.05331	0.00542966	0.00122328	0.000231239	0	5	0	
0.175667	0.0526027	0.00305355	0.00123466	0.000223393	0	5	0	
0.175833	-0.0520218	-0.0120724	0.0012282	0.000179594	0	5	0	
0.176	0.0526105	0.00451536	0.00122073	0.000249088	0	5	0	
0.176167	-0.0534614	0.0342938	0.00121795	0.000494325	0	5	0	
0.176333	0.0556452	-0.0551405	0.00122936	0.000732232	0	5	0	
0.1765	-0.0559873	0.0247718	0.00124826	0.00093128	0	5	0	
0.176667	0.0563514	0.0209754	0.00126974	0.00108371	0	5	0	
0.176833	-0.0515545	-0.030504	0.00127728	0.00110832	0	5	0	
0.177	0.0469917	0.0248453	0.00125313	0.000984853	0	5	0	
0.177167	-0.0502845	-0.030093	0.00120006	0.000690319	0	5	0	
0.177333	0.055005	0.0169232	0.00116335	0.000572556	0	5	0	
0.1775	-0.0541219	0.0355263	0.00117303	0.000714225	0	5	0	
0.177667	0.0552059	-0.0592193	0.00120383	0.000829005	0	5	0	
0.177833	-0.0568533	0.034505	0.00123135	0.00102245	0	5	0	
0.178	0.0531395	-0.00189374	0.00125708	0.00103668	0	5	0	
0.178167	-0.0514961	-0.00176311	0.00127378	0.000884475	0	5	0	
0.178333	0.0555547	-0.00596066	0.00126941	0.000523781	0	5	0	
0.1785	-0.0555443	0.00884691	0.00125728	0.00020539	0	5	0	
0.178667	0.0539676	-0.00878481	0.00125446	0.000142766	0	5	0	
0.178833	-0.0559912	0.0150672	0.00125393	0.000217413	0	5	0	
0.179	0.0566918	-0.0139705	0.00125577	0.000262424	0	5	0	
0.179167	-0.0524953	0.00899943	0.00125803	0.000290402	0	5	0	
0.179333	0.0501132	-0.0062456	0.00124202	0.000285579	0	5	0	
0.1795	-0.052953	0.00806203	0.00120018	0.000268438	0	5	0	
0.179667	0.054262	-0.0080565	0.00117806	0.000255244	0	5	0	
0.179833	-0.0523996	0.00711338	0.00119446	0.000240793	0	5	0	
0.18	0.0509434	-0.00586642	0.00121227	0.000196594	0	5	0	
0.180167	-0.0504424	0.00938333	0.00120088	0.000160849	0	5	0	
0.180333	0.0533249	-0.0110922	0.00118977	0.000162342	0	5	0	
0.1805	-0.0551752	0.00924259	0.00120283	0.000191457	0	5	0	
0.180667	0.0543561	-0.0119836	0.00123558	0.000211376	0	5	0	
0.180833	-0.0547834	0.0149614	0.0012558	0.00022614	0	5	0	
0.181	0.0544803	-0.0119932	0.00125997	0.000254255	0	5	0	
0.181167	-0.053818	0.00694077	0.00126151	0.000278586	0	5	0	
0.181333	0.0536335	-0.00514936	0.00126673	0.000288785	0	5	0	
0.1815	-0.0522887	0.0054917	0.00126148	0.000269805	0	5	0	
0.181667	0.0518773	-0.007842	0.00123853	0.000239634	0	5	0	
0.181833	-0.0529685	0.0119822	0.00121745	0.000224163	0	5	0	
0.182	0.0534989	-0.010487	0.00121817	0.000225066	0	5	0	
0.182167	-0.0540453	0.0115729	0.00123473	0.000232543	0	5	0	
0.182333	0.0548831	-0.0144716	0.00125138	0.000242001	0	5	0	
0.1825	-0.0542139	0.013019	0.00125383	0.000258661	0	5	0	
0.182667	0.0551334	-0.00890858	0.00125471	0.000263474	0	5	0	
0.182833	-0.054175	0.00860543	0.00124679	0.000245107	0	5	0	
0.183	0.0536475	-0.007972	0.00124866	0.000221537	0	5	0	
0.183167	-0.0531325	0.00851788	0.00124627	0.000203769	0	5	0	
0.183333	0.0547531	-0.011633	0.00124952	0.000198376	0	5	0	
0.1835	-0.0546395	0.0100188	0.00124341	0.000213932	0	5	0	
0.183667	0.0543691	-0.00712791	0.00123983	0.00024844	0	5	0	
0.183833	-0.0507619	0.00902334	0.00121851	0.000263948	0	5	0	
0.184	0.0510174	-0.0147351	0.00120457	0.000263108	0	5	0	
0.184167	-0.0513603	0.0133258	0.00119574	0.000256616	0	5	0	
0.184333	0.0517785	-0.0111286	0.00120961	0.000264083	0	5	0	
0.1845	-0.0519058	0.01133	0.00121991	0.00026593	0	5	0	
0.184667	0.0513794	-0.0153687	0.00121813	0.000279196	0	5	0	
0.184833	-0.0498669	0.0149563	0.00120494	0.000309821	0	5	0	
0.185	0.0505987	-0.00953111	0.00119564	0.000315377	0	5	0	
0.185167	-0.0518004	0.00901447	0.00120392	0.000280409	0	5	0	
0.185333	0.0525735	-0.0174746	0.00122576	0.000238604	0	5	0	
0.1855	-0.0556646	0.0125095	0.00124759	0.000257596	0	5	0	
0.185667	0.0562323	0.00384023	0.00126679	0.000342007	0	5	0	
0.185833	-0.0533217	-0.00529895	0.00127995	0.000312676	0	5	0	
0.186	0.0521158	-0.0344381	0.00127896	0.000518342	0	5	0	
0.186167	-0.0548707	0.0597344	0.00126413	0.00065903	0	5	0	
0.186333	0.0554913	-0.0288656	0.00125476	0.000992666	0	5	0	
0.1865	-0.0553509	-0.0114561	0.00126839	0.0011054	0	5	0	
0.186667	0.051228	0.014033	0.00127479	0.000873243	0	5	0	
0.186833	-0.052135	-0.00106304	0.00125279	0.000663678	0	5	0	
0.187	0.053295	0.00305937	0.0012161	0.000319634	0	5	0	
0.187167	-0.0545055	-0.00209054	0.00120431	0.000366665	0	5	0	
0.187333	0.0520044	-0.033049	0.0012104	0.000380598	0	5	0	
0.1875	-0.0543233	0.0547144	0.00122356	0.000561138	0	5	0	
0.187667	0.055572	-0.0182776	0.001232	0.000746334	0	5	0	
0.187833	-0.0553728	-0.0210827	0.00126182	0.000832558	0	5	0	
0.188	0.0544455	0.0107796	0.00129426	0.000685721	0	5	0	
0.188167	-0.0516952	0.0108422	0.00129154	0.000467898	0	5	0	
0.188333	0.0508733	-0.0273305	0.00125399	0.000326463	0	5	0	
0.1885	-0.051698	0.0190639	0.0012043	0.0003766	0	5	0	
0.188667	0.0539412	-0.0123835	0.00119829	0.000435476	0	5	0	
0.188833	-0.0554526	0.0148759	0.00122469	0.000457697	0	5	0	
0.189	0.0552556	-0.0226294	0.00124841	0.000378608	0	5	0	
0.189167	-0.0541463	0.0184927	0.00124093	0.000390791	0	5	0	
0.189333	0.0560491	-0.0177758	0.00122352	0.00036967	0	5	0	
0.1895	-0.0544231	0.00494653	0.00122687	0.00036308	0	5	0	
0.189667	0.0518089	0.00211101	0.0012518	0.00023864	0	5	0	
0.189833	-0.0536942	0.00350918	0.00125977	0.000168343	0	5	0	
0.19	0.0534497	-0.0175251	0.0012503	0.000140126	0	5	0	
0.190167	-0.053761	0.0189431	0.00124458	0.000265447	0	5	0	
0.190333	0.0518924	-0.00693751	0.00123785	0.000394292	0	5	0	
0.1905	-0.053656	-0.00847174	0.00124108	0.000458031	0	5	0	
0.190667	0.0519235	0.00491764	0.00123023	0.000364067	0	5	0	
0.190833	-0.0530566	0.0110991	0.00123097	0.000330213	0	5	0	
0.191	0.0555733	-0.0213321	0.00123036	0.000322031	0	5	0	
0.191167	-0.0552442	0.0204589	0.0012433	0.000421864	0	5	0	
0.191333	0.0537271	-0.0144307	0.00124915	0.000439983	0	5	0	
0.1915	-0.0542263	0.01212	0.00124569	0.000459288	0	5	0	
0.191667	0.0546424	-0.00281447	0.00122917	0.000464426	0	5	0	
0.191833	-0.0522397	-0.0261955	0.00122695	0.000519628	0	5	0	
0.192	0.0495094	0.0332175	0.00122151	0.000559459	0	5	0	
0.192167	-0.0496576	0.00863616	0.00119848	0.000666973	0	5	0	
0.192333	0.0525466	-0.0458005	0.00117757	0.000663387	0	5	0	
0.1925	-0.0541825	0.00650777	0.00118396	0.000740947	0	5	0	
0.192667	0.0550488	0.0467357	0.00122573	0.000839169	0	5	0	
0.192833	-0.0538807	-0.0235574	0.00127327	0.000832011	0	5	0	
0.193	0.0531626	-0.0440667	0.00130676	0.000974758	0	5	0	
0.193167	-0.0552768	0.047384	0.00131616	0.000867324	0	5	0	
0.193333	0.0543916	0.00146287	0.00131615	0.00109072	0	5	0	
0.1935	-0.0518495	-0.0182968	0.00130671	0.00095606	0	5	0	
0.193667	0.0533884	0.00067901	0.00128238	0.000794747	0	5	0	
0.193833	-0.0596015	-0.0081406	0.00126188	0.000534833	0	5	0	
0.194	0.0586259	0.0254799	0.00127202	0.000485528	0	5	0	
0.194167	-0.0543132	-0.00296967	0.00129416	0.00050355	0	5	0	
0.194333	0.0544452	-0.0382065	0.00128257	0.000561277	0	5	0	
0.1945	-0.0557507	0.0415879	0.00124961	0.000586111	0	5	0	
0.194667	0.0522297	-0.00749549	0.00123613	0.000750441	0	5	0	
0.194833	-0.0518568	-0.0134526	0.00123995	0.000703632	0	5	0	
0.195	0.0546769	0.00186125	0.00124087	0.000504847	0	5	0	
0.195167	-0.0541888	0.0196631	0.00124795	0.000359982	0	5	0	
0.195333	0.0519007	-0.0293186	0.00125549	0.000311771	0	5	0	
0.1955	-0.0530295	0.0168945	0.00125264	0.000448114	0	5	0	
0.195667	0.0532295	0.00313067	0.00124145	0.00046045	0	5	0	
0.195833	-0.052917	-0.00469482	0.00124063	0.000339144	0	5	0	
0.196	0.0526647	-0.0119014	0.00124504	0.000244079	0	5	0	
0.196167	-0.0522271	0.0195434	0.00124467	0.000192503	0	5	0	
0.196333	0.0527794	-0.0123054	0.00123714	0.00029534	0	5	0	
0.1965	-0.0533285	0.00501093	0.00122267	0.000350862	0	5	0	
0.196667	0.0556443	-0.00517025	0.00121938	0.000326406	0	5	0	
0.196833	-0.0552703	0.0123469	0.00123563	0.000254502	0	5	0	
0.197	0.0528315	-0.0132871	0.00126585	0.000210551	0	5	0	
0.197167	-0.0517455	0.0116395	0.0012802	0.000247868	0	5	0	
0.197333	0.0502739	-0.00872812	0.00126826	0.000284498	0	5	0	
0.1975	-0.0480692	0.00991282	0.00122996	0.000276455	0	5	0	
0.197667	0.0523581	-0.00990189	0.00119335	0.000239221	0	5	0	
0.197833	-0.0541128	0.00800387	0.00118582	0.00020331	0	5	0	
0.198	0.050351	-0.00602229	0.00121099	0.00017882	0	5	0	
0.198167	-0.0512672	0.0067054	0.00123291	0.000159544	0	5	0	
0.198333	0.0543717	-0.00924695	0.00124149	0.000163759	0	5	0	
0.1985	-0.0508721	0.00833302	0.00125317	0.000184119	0	5	0	
0.198667	0.0460514	-0.0111187	0.00126195	0.000226612	0	5	0	
0.198833	-0.0523519	0.0112205	0.00124193	0.000267494	0	5	0	
0.199	0.0593733	-0.00969607	0.0012345	0.00030225	0	5	0	
0.199167	-0.0570802	0.00762757	0.00127422	0.00029954	0	5	0	
0.199333	0.0484281	-0.0162058	0.00133041	0.000290836	0	5	0	
0.1995	-0.0468676	0.0163984	0.00131962	0.000292799	0	5	0	
0.199667	0.0515954	-0.0126736	0.00126361	0.000329671	0	5	0	
0.199833	-0.0553388	0.00596951	0.00123018	0.000352218	0	5	0	
0.2	0.0536319	-0.00756536	0.0012488	0.000314255	0	5	0	
0.200167	-0.051665	0.00993053	0.00125986	0.000253922	0	5	0	
0.200333	0.054471	-0.0111782	0.00124772	0.000204389	0	5	0	
0.2005	-0.0577053	0.0109572	0.00124986	0.000202194	0	5	0	
0.200667	0.0543333	-0.0148607	0.00129412	0.000217234	0	5	0	
0.200833	-0.0482446	0.01644	0.00132588	0.000256847	0	5	0	
0.201	0.0491192	-0.00838521	0.0012908	0.000336443	0	5	0	
0.201167	-0.0531056	0.0023407	0.00122233	0.000363083	0	5	0	
0.201333	0.053797	-0.0108118	0.00119796	0.000299207	0	5	0	
0.2015	-0.0515612	0.0190329	0.00122218	0.000234545	0	5	0	
0.201667	0.0528241	0.00268814	0.00125008	0.000339325	0	5	0	
0.201833	-0.0538344	-0.0350802	0.00125333	0.00054421	0	5	0	
0.202	0.0530268	0.0173371	0.00125264	0.000620062	0	5	0	
0.202167	-0.0511881	0.0420188	0.00125243	0.000784763	0	5	0	
0.202333	0.0522013	-0.0561731	0.00125231	0.000818975	0	5	0	
0.2025	-0.054586	0.0151115	0.00125265	0.00100085	0	5	0	
0.202667	0.0553665	0.00148043	0.00127116	0.000846463	0	5	0	
0.202833	-0.0515479	0.00826434	0.00129232	0.000615677	0	5	0	
0.203	0.0491561	0.00443636	0.00128614	0.000455343	0	5	0	
0.203167	-0.0528316	-0.0279157	0.00124374	0.000452683	0	5	0	
0.203333	0.0559368	0.0063724	0.00122899	0.000550529	0	5	0	
0.2035	-0.052755	0.03898	0.00124931	0.000711028	0	5	0	
0.203667	0.053673	-0.0462457	0.00127072	0.000730422	0	5	0	
0.203833	-0.0575878	0.00877163	0.00126817	0.000890714	0	5	0	
0.204	0.0551139	0.0133096	0.00127782	0.000787048	0	5	0	
0.204167	-0.0502968	-0.00224444	0.00129559	0.00058972	0	5	0	
0.204333	0.0503382	-0.0189158	0.00129058	0.000372516	0	5	0	
0.2045	-0.0511509	0.0169057	0.00125079	0.000239997	0	5	0	
0.204667	0.0536041	-0.00597027	0.00122689	0.000314973	0	5	0	
0.204833	-0.0558359	0.00707544	0.00124015	0.000274129	0	5	0	
0.205	0.0524689	-0.0153783	0.00127192	0.00023672	0	5	0	
0.205167	-0.050938	0.0137307	0.0012876	0.000212238	0	5	0	
0.205333	0.0523453	-0.00864482	0.00126892	0.000272494	0	5	0	
0.2055	-0.0515926	0.00294111	0.00124735	0.000275114	0	5	0	
0.205667	0.0467544	-0.00506409	0.00124172	0.000220856	0	5	0	
0.205833	-0.0455633	0.0118555	0.00122131	0.000153889	0	5	0	
0.206	0.052373	-0.00960575	0.00118365	0.000160003	0	5	0	
0.206167	-0.056343	0.00814265	0.00117621	0.000221585	0	5	0	
0.206333	0.0517871	-0.010288	0.0012289	0.000248785	0	5	0	
0.2065	-0.0476145	0.0163055	0.001275	0.00026044	0	5	0	
0.206667	0.0516382	-0.0143204	0.00126836	0.000265781	0	5	0	
0.206833	-0.0532635	0.00898771	0.0012459	0.000294137	0	5	0	
0.207	0.0493016	-0.00541383	0.00125876	0.000278466	0	5	0	
0.207167	-0.0460621	0.00852087	0.00127121	0.000232636	0	5	0	
0.207333	0.0500142	-0.0115494	0.00125747	0.000195148	0	5	0	
0.2075	-0.0521685	0.023834	0.00123642	0.000227802	0	5	0	
0.207667	0.0528052	-0.0433138	0.00124592	0.000383893	0	5	0	
0.207833	-0.0518292	0.040063	0.00126659	0.000603679	0	5	0	
0.208	0.051952	-0.00444614	0.00128264	0.000878118	0	5	0	
0.208167	-0.0501258	-0.0241292	0.00128628	0.000965714	0	5	0	
0.208333	0.0479546	-0.00045057	0.00127474	0.000759978	0	5	0	
0.2085	-0.0514285	0.0432631	0.00124549	0.000512684	0	5	0	
0.208667	0.0578807	-0.0295004	0.00122582	0.000537555	0	5	0	
0.208833	-0.0563041	-0.016977	0.00123599	0.000787927	0	5	0	
0.209	0.0517316	-0.00276386	0.00126617	0.000756578	0	5	0	
0.209167	-0.0493199	0.0473485	0.00126447	0.000741725	0	5	0	
0.209333	0.0484615	-0.0396735	0.00123935	0.000655036	0	5	0	
0.2095	-0.0471527	0.0202145	0.00121319	0.000814436	0	5	0	
0.209667	0.0465887	-0.0336609	0.00118784	0.000700143	0	5	0	
0.209833	-0.0507392	0.0401718	0.00116387	0.000694154	0	5	0	
0.21	0.0529682	-0.0115912	0.00117006	0.000713983	0	5	0	
0.210167	-0.0464779	-0.0190683	0.00121437	0.000765554	0	5	0	
0.210333	0.0455437	0.00902846	0.00125581	0.00060628	0	5	0	
0.2105	-0.050264	0.0253723	0.00124818	0.000503213	0	5	0	
0.210667	0.0505559	-0.0326484	0.00123082	0.000418628	0	5	0	
0.210833	-0.0497854	0.0146743	0.00122606	0.000559172	0	5	0	
0.211	0.0521567	0.00431999	0.00122816	0.00059	0	5	0	
0.211167	-0.0524036	-0.00937714	0.00122871	0.000509985	0	5	0	
0.211333	0.0515099	-0.00700142	0.00124496	0.000358146	0	5	0	
0.2115	-0.0520554	0.0237505	0.00125785	0.000247222	0	5	0	
0.211667	0.0549537	-0.0199247	0.00125434	0.000296433	0	5	0	
0.211833	-0.0555917	0.0109921	0.00124458	0.000387397	0	5	0	
0.212	0.0520681	-0.00456798	0.00124367	0.000373148	0	5	0	
0.212167	-0.0497121	0.0111704	0.00125346	0.000290219	0	5	0	
0.212333	0.0498248	-0.0191527	0.00125191	0.000234429	0	5	0	
0.2125	-0.0510545	0.0151747	0.00124309	0.000269178	0	5	0	
0.212667	0.0512786	-0.0091671	0.00122848	0.000359828	0	5	0	
0.212833	-0.0479041	0.00759796	0.001211	0.000356412	0	5	0	
0.213	0.046026	-0.00653365	0.00119145	0.000290629	0	5	0	
0.213167	-0.0513107	0.00602557	0.00118374	0.000187101	0	5	0	
0.213333	0.0555099	-0.00406639	0.00120431	0.000134444	0	5	0	
0.2135	-0.0526974	0.00492896	0.00124321	0.00012724	0	5	0	
0.213667	0.051465	-0.0136061	0.00126538	0.00016375	0	5	0	
0.213833	-0.0523169	0.0151422	0.00124645	0.000223329	0	5	0	
0.214	0.0538018	-0.00862571	0.00123508	0.000245926	0	5	0	
0.214167	-0.0515111	0.00309568	0.00124215	0.000235662	0	5	0	
0.214333	0.0495471	-0.00163919	0.00125063	0.000213628	0	5	0	
0.2145	-0.0492638	0.00151331	0.00122566	0.000234048	0	5	0	
0.214667	0.0491091	-0.0068204	0.00119624	0.000248071	0	5	0	
0.214833	-0.0474771	0.0114578	0.00117648	0.000245081	0	5	0	
0.215	0.0492289	-0.0108201	0.0011857	0.00024465	0	5	0	
0.215167	-0.0511023	0.00636627	0.00119614	0.000284434	0	5	0	
0.215333	0.0482975	-0.00618376	0.00122301	0.00032648	0	5	0	
0.2155	-0.046148	0.0100567	0.00123349	0.000327362	0	5	0	
0.215667	0.0473376	-0.0173418	0.00122756	0.000311729	0	5	0	
0.215833	-0.0510282	0.0201468	0.00121183	0.000311119	0	5	0	
0.216	0.0517854	-0.0148501	0.00122497	0.000351743	0	5	0	
0.216167	-0.0445693	0.00293252	0.00124582	0.000350125	0	5	0	
0.216333	0.0321058	-0.00233698	0.00123566	0.000307932	0	5	0	
0.2165	-0.0343144	0.00573917	0.00114081	0.000247225	0	5	0	
0.216667	0.0556047	-0.00867581	0.00108231	0.000250731	0	5	0	
0.216833	-0.0600337	0.0119993	0.00115863	0.000301659	0	5	0	
0.217	0.0388113	-0.00604302	0.0012903	0.000327961	0	5	0	
0.217167	-0.0350687	-0.0088381	0.00125751	0.000273732	0	5	0	
0.217333	0.0570936	0.00503809	0.00112211	0.000214396	0	5	0	
0.2175	-0.0619948	0.02007	0.0011336	0.000181597	0	5	0	
0.217667	0.0434464	-0.0489863	0.00135695	0.000330353	0	5	0	
0.217833	-0.0359625	0.0760255	0.00144013	0.000727151	0	5	0	
0.218	0.0492293	-0.0102229	0.00129558	0.00116544	0	5	0	
0.218167	-0.0502259	-0.0426616	0.00115049	0.0012931	0	5	0	
0.218333	0.0323865	0.018807	0.00120826	0.00102699	0	5	0	
0.2185	-0.0322002	0.0287891	0.00123336	0.000780886	0	5	0	
0.218667	0.0567106	-0.0347992	0.00115364	0.000641083	0	5	0	
0.218833	-0.066421	0.0404038	0.00112887	0.000697065	0	5	0	
0.219	0.0490126	-0.034514	0.00130691	0.000762969	0	5	0	
0.219167	-0.0395866	0.0284045	0.00144012	0.000747467	0	5	0	
0.219333	0.0488307	0.0125248	0.00136418	0.000808746	0	5	0	
0.2195	-0.0563312	-0.0319804	0.00123961	0.000743464	0	5	0	
0.219667	0.0497787	-0.00543483	0.00122504	0.000730527	0	5	0	
0.219833	-0.0466645	0.0392589	0.00128215	0.000639774	0	5	0	
0.22	0.0492053	-0.0264854	0.00127229	0.000583512	0	5	0	
0.220167	-0.0538216	-0.00844193	0.00123424	0.000679085	0	5	0	
0.220333	0.0520383	0.00886648	0.00123644	0.000548266	0	5	0	
0.2205	-0.048448	0.010787	0.00126751	0.00043785	0	5	0	
0.220667	0.0462082	-0.02145	0.00126357	0.000283864	0	5	0	
0.220833	-0.0490799	0.0160699	0.00122825	0.000326917	0	5	0	
0.221	0.0500148	-0.00784418	0.00120143	0.000366718	0	5	0	
0.221167	-0.0495166	0.00640097	0.00119966	0.000366156	0	5	0	
0.221333	0.0472838	-0.00856094	0.00120811	0.000317059	0	5	0	
0.2215	-0.0483256	0.00490331	0.00121077	0.000269024	0	5	0	
0.221667	0.0503672	-0.00319047	0.00122121	0.00024165	0	5	0	
0.221833	-0.0492146	0.00681428	0.00123991	0.000211076	0	5	0	
0.222	0.0452094	-0.0167554	0.00124953	0.000210547	0	5	0	
0.222167	-0.0470407	0.0246705	0.00123103	0.000274873	0	5	0	
0.222333	0.0490016	-0.019369	0.00120725	0.000361167	0	5	0	
0.2225	-0.0496042	0.00790646	0.0012116	0.000414154	0	5	0	
0.222667	0.0494822	-0.00599133	0.00123992	0.00036877	0	5	0	
0.222833	-0.049573	0.0101542	0.00125796	0.000275788	0	5	0	
0.223	0.0482835	-0.0162295	0.0012586	0.000234646	0	5	0	
0.223167	-0.0488473	0.0190268	0.00124972	0.000254927	0	5	0	
0.223333	0.0473874	-0.0153468	0.00123348	0.000328806	0	5	0	
0.2235	-0.0465853	0.00697084	0.0012142	0.000344137	0	5	0	
0.223667	0.0455636	-0.00218654	0.00119858	0.000275062	0	5	0	
0.223833	-0.0478447	0.0112669	0.00119436	0.000219243	0	5	0	
0.224	0.0516388	-0.0379762	0.00120504	0.000268821	0	5	0	
0.224167	-0.0510734	0.0439272	0.00123154	0.000479253	0	5	0	
0.224333	0.0447965	-0.0145996	0.00125404	0.000769672	0	5	0	
0.2245	-0.0430068	-0.0230919	0.00124069	0.000934648	0	5	0	
0.224667	0.0475163	0.0192834	0.00120797	0.000794207	0	5	0	
0.224833	-0.0497368	0.0141919	0.00119963	0.000683067	0	5	0	
0.225	0.0501875	-0.031761	0.00122161	0.000511609	0	5	0	
0.225167	-0.0518035	0.0212206	0.0012493	0.000566941	0	5	0	
0.225333	0.0499509	-0.0217687	0.00125717	0.000479335	0	5	0	
0.2255	-0.0457165	0.0229852	0.00126864	0.000485164	0	5	0	
0.225667	0.0436406	-0.00296397	0.00125956	0.000481697	0	5	0	
0.225833	-0.0469389	-0.0100673	0.00122496	0.000460077	0	5	0	
0.226	0.0514368	-0.00539151	0.00118713	0.000330359	0	5	0	
0.226167	-0.0520365	0.0305319	0.00118949	0.000274783	0	5	0	
0.226333	0.0485596	-0.0320058	0.00121111	0.00034833	0	5	0	
0.2265	-0.0480898	0.00742336	0.0012338	0.000533302	0	5	0	
0.226667	0.0494773	0.0156867	0.00123969	0.000557401	0	5	0	
0.226833	-0.0523485	-0.00730153	0.00127203	0.000430533	0	5	0	
0.227	0.0458732	-0.0145119	0.00126951	0.000271195	0	5	0	
0.227167	-0.044238	0.0273844	0.00123605	0.000291456	0	5	0	
0.227333	0.0467131	-0.0162465	0.00118092	0.000403533	0	5	0	
0.2275	-0.0481943	0.000413205	0.00118428	0.000483369	0	5	0	
0.227667	0.048525	0.00314924	0.00122031	0.000383801	0	5	0	
0.227833	-0.0516593	0.00718434	0.00125291	0.000225938	0	5	0	
0.228	0.0492612	-0.0177814	0.00123622	0.000206239	0	5	0	
0.228167	-0.0504029	0.0215694	0.0012281	0.000306458	0	5	0	
0.228333	0.0506691	-0.0137292	0.00124011	0.000395836	0	5	0	
0.2285	-0.0498111	0.00742149	0.00127355	0.000343416	0	5	0	
0.228667	0.0477876	-0.00476619	0.00127583	0.000247222	0	5	0	
0.228833	-0.0482379	0.00522074	0.00124808	0.000183528	0	5	0	
0.229	0.0495472	-0.00657798	0.00122181	0.000198245	0	5	0	
0.229167	-0.0480942	0.00553762	0.00121689	0.000205759	0	5	0	
0.229333	0.0470885	-0.00415717	0.00122049	0.00019337	0	5	0	
0.2295	-0.0490045	0.00618955	0.00121043	0.000173639	0	5	0	
0.229667	0.0498721	-0.00907451	0.00120235	0.00018942	0	5	0	
0.229833	-0.0481302	0.0138939	0.00121807	0.000233219	0	5	0	
0.23	0.0468539	-0.0169596	0.00125026	0.000298679	0	5	0	
0.230167	-0.047566	0.0158193	0.00126618	0.000328848	0	5	0	
0.230333	0.0456898	-0.0141317	0.00125936	0.000343951	0	5	0	
0.2305	-0.042029	0.0110765	0.00124388	0.000338838	0	5	0	
0.230667	0.0400801	-0.00636707	0.00120597	0.000332868	0	5	0	
0.230833	-0.0487736	0.00597288	0.00117469	0.000286384	0	5	0	
0.231	0.0527547	-0.00725533	0.0011832	0.000215896	0	5	0	
0.231167	-0.0480901	0.0107598	0.00124231	0.000162713	0	5	0	
0.231333	0.045257	-0.0125112	0.00127886	0.000167295	0	5	0	
0.2315	-0.0499361	0.015733	0.00126988	0.00022605	0	5	0	
0.231667	0.0495965	-0.0134871	0.00125409	0.000279441	0	5	0	
0.231833	-0.048488	0.0038964	0.00126832	0.000309102	0	5	0	
0.232	0.0464529	0.00220319	0.00127668	0.000288506	0	5	0	
0.232167	-0.0478029	0.00370461	0.00126628	0.000212761	0	5	0	
0.232333	0.0472385	-0.0143349	0.00125468	0.000175357	0	5	0	
0.2325	-0.0457923	0.0148748	0.00124945	0.000204003	0	5	0	
0.232667	0.0448836	-0.00878173	0.0012415	0.000289646	0	5	0	
0.232833	-0.0449417	0.00985581	0.0012112	0.000316239	0	5	0	
0.233	0.0479479	-0.0150351	0.0012023	0.000294746	0	5	0	
0.233167	-0.0510123	0.0105652	0.00121976	0.000314534	0	5	0	
0.233333	0.0506931	-0.00808895	0.00127879	0.00035831	0	5	0	
0.2335	-0.0461629	0.0170383	0.00130344	0.000351405	0	5	0	
0.233667	0.0478974	-0.030153	0.00129207	0.000360136	0	5	0	
0.233833	-0.0474008	0.00934927	0.00125019	0.000444491	0	5	0	
0.234	0.0441716	0.021303	0.00124316	0.000629184	0	5	0	
0.234167	-0.0414181	-0.00529111	0.00123267	0.000556414	0	5	0	
0.234333	0.0449251	-0.031975	0.00120483	0.000507963	0	5	0	
0.2345	-0.0465645	0.0181548	0.00115366	0.000405963	0	5	0	
0.234667	0.0491543	0.0119843	0.00114422	0.000570214	0	5	0	
0.234833	-0.0499289	0.00419373	0.00117951	0.00042705	0	5	0	
0.235	0.0505888	-0.0358025	0.00123801	0.000397762	0	5	0	
0.235167	-0.0490743	0.0269975	0.00129853	0.000400716	0	5	0	
0.235333	0.0445597	-0.00180162	0.00135298	0.000660147	0	5	0	
0.2355	-0.0375138	0.00258488	0.00137338	0.000633547	0	5	0	
0.235667	0.0388763	-0.0170208	0.00132072	0.00046685	0	5	0	
0.235833	-0.0443815	0.0131054	0.00123187	0.000343261	0	5	0	
0.236	0.0453256	0.00522784	0.00118207	0.000430638	0	5	0	
0.236167	-0.0459425	-0.00264199	0.00119401	0.000438593	0	5	0	
0.236333	0.0508003	-0.0157367	0.0012294	0.000332355	0	5	0	
0.2365	-0.0513505	0.0245344	0.00126261	0.000260304	0	5	0	
0.236667	0.0469713	-0.0198693	0.0012865	0.00033803	0	5	0	
0.236833	-0.0474216	0.0148475	0.00128951	0.000439666	0	5	0	
0.237	0.0512941	-0.0106819	0.00128267	0.000445205	0	5	0	
0.237167	-0.0494412	0.0105919	0.00129036	0.000409403	0	5	0	
0.237333	0.046977	-0.0101568	0.00130975	0.000347053	0	5	0	
0.2375	-0.0444768	0.00871704	0.00129603	0.000295887	0	5	0	
0.237667	0.0421319	-0.00809056	0.0012629	0.000255561	0	5	0	
0.237833	-0.0405005	0.00509949	0.00122247	0.000230297	0	5	0	
0.238	0.0425342	-0.0116859	0.00118745	0.000218681	0	5	0	
0.238167	-0.0461626	0.0209032	0.00115762	0.000247085	0	5	0	
0.238333	0.0469406	-0.018893	0.00117063	0.000311824	0	5	0	
0.2385	-0.0449949	0.00407404	0.00120521	0.00039739	0	5	0	
0.238667	0.0465274	0.00325536	0.00123971	0.000412832	0	5	0	
0.238833	-0.0454985	0.00239175	0.00124532	0.000301104	0	5	0	
0.239	0.0410631	-0.0131908	0.00123928	0.000197246	0	5	0	
0.239167	-0.0417604	0.0141466	0.00122071	0.000168378	0	5	0	
0.239333	0.0464628	-0.0221289	0.00121028	0.000263988	0	5	0	
0.2395	-0.0484104	0.037675	0.00122315	0.000389422	0	5	0	
0.239667	0.0457292	-0.0203029	0.00125128	0.000541296	0	5	0	
0.239833	-0.0443163	-0.0221199	0.00125768	0.000763873	0	5	0	
0.24	0.0432607	0.0246474	0.00123284	0.00069871	0	5	0	
0.240167	-0.0432659	0.0294695	0.00121238	0.0008407	0	5	0	
0.240333	0.0455655	-0.0610169	0.00121351	0.000830594	0	5	0	
0.2405	-0.0494641	0.0325106	0.00123977	0.0010279	0	5	0	
0.240667	0.0495913	0.00519217	0.00126641	0.000924043	0	5	0	
0.240833	-0.046994	-0.000590096	0.00129287	0.000673704	0	5	0	
0.241	0.0445122	-0.00498795	0.00129106	0.000394502	0	5	0	
0.241167	-0.0439936	-0.00442295	0.00127105	0.00017146	0	5	0	
0.241333	0.0427279	0.00161245	0.00123594	0.000161827	0	5	0	
0.2415	-0.0440001	0.0239002	0.00121847	0.00035092	0	5	0	
0.241667	0.0461761	-0.0349031	0.00120269	0.00047128	0	5	0	
0.241833	-0.0485968	0.0199731	0.00121489	0.000604609	0	5	0	
0.242	0.0466098	-0.0057578	0.00123594	0.000577543	0	5	0	
0.242167	-0.0445954	0.00903747	0.00126225	0.000503551	0	5	0	
0.242333	0.0400181	-0.0115018	0.00125916	0.000389797	0	5	0	
0.2425	-0.038851	0.0110243	0.00124929	0.000288503	0	5	0	
0.242667	0.043232	-0.0122008	0.00122939	0.000250176	0	5	0	
0.242833	-0.0487563	0.0104486	0.00121987	0.000236346	0	5	0	
0.243	0.0471864	-0.00645011	0.00121403	0.000261774	0	5	0	
0.243167	-0.0433461	0.0175187	0.0012169	0.000280723	0	5	0	
0.243333	0.0421137	-0.0322954	0.00121644	0.000388545	0	5	0	
0.2435	-0.0446572	0.0269823	0.00122033	0.000450937	0	5	0	
0.243667	0.0481445	-0.00219654	0.00123288	0.000518973	0	5	0	
0.243833	-0.0451181	-0.000308148	0.00124876	0.000418836	0	5	0	
0.244	0.0399479	-0.0213349	0.00124857	0.000322646	0	5	0	
0.244167	-0.0384657	0.0307882	0.00122235	0.000318568	0	5	0	
0.244333	0.0415501	-0.0113433	0.00120617	0.000429449	0	5	0	
0.2445	-0.0404247	-0.00701689	0.0012239	0.000522435	0	5	0	
0.244667	0.0387217	0.00346785	0.00124378	0.000398113	0	5	0	
0.244833	-0.0434551	0.0168628	0.00122017	0.000296565	0	5	0	
0.245	0.0495752	-0.0257501	0.0011936	0.000249874	0	5	0	
0.245167	-0.0477454	0.0181281	0.00121198	0.000366351	0	5	0	
0.245333	0.0430687	-0.0102278	0.00126985	0.000398167	0	5	0	
0.2455	-0.04408	0.00865488	0.00129115	0.000361161	0	5	0	
0.245667	0.0448481	-0.010077	0.00127895	0.000287139	0	5	0	
0.245833	-0.0426647	0.0136032	0.0012556	0.000247157	0	5	0	
0.246	0.0413165	-0.0109514	0.00124296	0.000247825	0	5	0	
0.246167	-0.0401601	0.00340798	0.00121995	0.000255042	0	5	0	
0.246333	0.0308254	-0.002642	0.00122461	0.000228871	0	5	0	
0.2465	-0.0183906	0.00862393	0.00126143	0.000206742	0	5	0	
0.246667	0.0219253	-0.016892	0.00127908	0.00027408	0	5	0	
0.246833	-0.0362069	0.0189295	0.00127528	0.000451812	0	5	0	
0.247	0.0333924	-0.0076415	0.00132615	0.000640358	0	5	0	
0.247167	-0.0213629	-0.000138567	0.00141243	0.00071874	0	5	0	
0.247333	0.0305548	0.00295069	0.0013795	0.000614456	0	5	0	
0.2475	-0.0585113	0.00594936	0.00131489	0.000390663	0	5	0	
0.247667	0.0635395	-0.0335823	0.00142386	0.000285174	0	5	0	
0.247833	-0.0505584	0.0534688	0.00167138	0.000436809	0	5	0	
0.248	0.056105	-0.0307616	0.00175117	0.000694244	0	5	0	
0.248167	-0.0690639	0.00711421	0.00166717	0.000755244	0	5	0	
0.248333	0.0523066	-0.0242075	0.00165963	0.000616886	0	5	0	
0.2485	-0.0321497	0.0537848	0.00174624	0.000574689	0	5	0	
0.248667	0.0399361	-0.0294123	0.0016285	0.000737586	0	5	0	
0.248833	-0.0543183	-0.0275085	0.00139294	0.0010103	0	5	0	
0.249	0.0430465	0.0167238	0.00127197	0.000895306	0	5	0	
0.249167	-0.0324857	0.0402966	0.00131616	0.00092826	0	5	0	
0.249333	0.0477258	-0.0360573	0.00129213	0.000725932	0	5	0	
0.2495	-0.0604706	-0.0147445	0.00123569	0.000932539	0	5	0	
0.249667	0.0492567	0.00925875	0.0012782	0.000611615	0	5	0	
0.249833	-0.0394788	0.0276243	0.00137445	0.000649787	0	5	0	
0.25	0.0439072	-0.0272147	0.00136375	0.000456549	0	5	0	
0.250167	-0.0437643	-0.00998523	0.00129569	0.000669874	0	5	0	
0.250333	0.0386628	0.0130387	0.00126147	0.000502149	0	5	0	
0.2505	-0.040494	0.0193237	0.00123968	0.000544736	0	5	0	
0.250667	0.0445302	-0.0358635	0.00120402	0.000453254	0	5	0	
0.250833	-0.046471	0.0099315	0.00119029	0.000562955	0	5	0	
0.251	0.0482622	0.0129798	0.00122589	0.000582145	0	5	0	
0.251167	-0.0479518	-0.00614205	0.00127857	0.000462429	0	5	0	
0.251333	0.0399482	-0.0171347	0.00130232	0.000334954	0	5	0	
0.2515	-0.0355686	0.0223509	0.00127436	0.000256609	0	5	0	
0.251667	0.040469	-0.00461844	0.00120266	0.000380541	0	5	0	
0.251833	-0.0423575	-0.010288	0.00115964	0.000442965	0	5	0	
0.252	0.0387233	-0.000405321	0.00116592	0.000333679	0	5	0	
0.252167	-0.0402463	0.0223322	0.00117332	0.00022841	0	5	0	
0.252333	0.0461339	-0.0293307	0.0011734	0.000264732	0	5	0	
0.2525	-0.0411338	0.0145239	0.00120409	0.000469367	0	5	0	
0.252667	0.0365534	0.00275465	0.00125511	0.000560648	0	5	0	
0.252833	-0.0374075	-0.000853793	0.00124752	0.000443258	0	5	0	
0.253	0.0421199	-0.0100155	0.00121077	0.00024775	0	5	0	
0.253167	-0.0409785	0.0182576	0.00118797	0.000181689	0	5	0	
0.253333	0.0504107	-0.0103959	0.00119985	0.000264521	0	5	0	
0.2535	-0.053754	-0.00190226	0.00123972	0.000355903	0	5	0	
0.253667	0.0391048	0.00259368	0.00134221	0.000288838	0	5	0	
0.253833	-0.0239977	0.0186411	0.00142266	0.000288731	0	5	0	
0.254	0.038266	-0.0529368	0.00133594	0.000452317	0	5	0	
0.254167	-0.0487494	0.072478	0.00119447	0.000786517	0	5	0	
0.254333	0.0310301	-0.0280923	0.0011465	0.00113409	0	5	0	
0.2545	-0.0149068	-0.0488144	0.00123021	0.00155634	0	5	0	
0.254667	0.0280621	0.0722202	0.0012119	0.00163326	0	5	0	
0.254833	-0.0464291	-0.0274221	0.00114222	0.0015119	0	5	0	
0.255	0.0482846	-0.0210593	0.00111276	0.00119616	0	5	0	
0.255167	-0.0377547	0.0159566	0.0011853	0.000913074	0	5	0	
0.255333	0.0268911	-0.0135211	0.00123457	0.000635012	0	5	0	
0.2555	-0.0420741	0.0259077	0.00118922	0.000349336	0	5	0	
0.255667	0.0651631	-0.0199258	0.00121925	0.000442632	0	5	0	
0.255833	-0.0430419	-0.00903937	0.00138229	0.000749358	0	5	0	
0.256	0.012332	0.0127612	0.00153391	0.000857418	0	5	0	
0.256167	-0.036374	0.00589551	0.00136986	0.000630107	0	5	0	
0.256333	0.0588798	-0.0229899	0.00116937	0.000354098	0	5	0	
0.2565	-0.034734	0.00250713	0.00116474	0.00036768	0	5	0	
0.256667	0.0217073	0.0134642	0.00129269	0.000549718	0	5	0	
0.256833	-0.0426379	-0.00181849	0.00122842	0.000464398	0	5	0	
0.257	0.0478643	-0.0239717	0.00113994	0.00038043	0	5	0	
0.257167	-0.0376186	0.0356155	0.00120287	0.000349416	0	5	0	
0.257333	0.0390234	-0.0163885	0.00128169	0.000557773	0	5	0	
0.2575	-0.0437937	-0.0138501	0.00123268	0.000672934	0	5	0	
0.257667	0.0404716	0.0204329	0.00115099	0.000637547	0	5	0	
0.257833	-0.0444174	-0.00345263	0.00116928	0.000491303	0	5	0	
0.258	0.0492088	-0.0201972	0.00123367	0.000371557	0	5	0	
0.258167	-0.0445596	0.0252871	0.0012935	0.000360695	0	5	0	
0.258333	0.0372904	-0.0101609	0.00132042	0.000443515	0	5	0	
0.2585	-0.0333967	-0.00274381	0.00128237	0.000479387	0	5	0	
0.258667	0.0377051	-0.000318315	0.00119077	0.00041403	0	5	0	
0.258833	-0.0470502	0.00641693	0.00112556	0.000264233	0	5	0	
0.259	0.0496574	-0.00896143	0.00115883	0.000140624	0	5	0	
0.259167	-0.0388129	0.00570465	0.00124632	0.000129073	0	5	0	
0.259333	0.0355097	-0.00524688	0.00129934	0.000149837	0	5	0	
0.2595	-0.0401132	0.0103646	0.00126173	0.0001581	0	5	0	
0.259667	0.0433536	-0.0105108	0.00121645	0.000180055	0	5	0	
0.259833	-0.0393362	0.00751586	0.0012184	0.000241391	0	5	0	
0.26	0.0362324	-0.00380038	0.00124885	0.000287042	0	5	0	
0.260167	-0.0354438	0.00249646	0.00124578	0.000277685	0	5	0	
0.260333	0.0398898	-0.00243275	0.00122458	0.000206965	0	5	0	
0.2605	-0.0404312	0.00873457	0.00121533	0.000157295	0	5	0	
0.260667	0.0386072	-0.0103173	0.00122681	0.000169039	0	5	0	
0.260833	-0.0386351	0.0140122	0.00122824	0.000244537	0	5	0	
0.261	0.0420546	-0.00911899	0.00122437	0.000293416	0	5	0	
0.261167	-0.0410865	0.00258797	0.00123293	0.000284585	0	5	0	
0.261333	0.0391007	-0.00368396	0.00125866	0.00020348	0	5	0	
0.2615	-0.0376691	0.00787769	0.00126229	0.000136301	0	5	0	
0.261667	0.0388451	-0.00749292	0.00123717	0.000142361	0	5	0	
0.261833	-0.0408427	0.00532549	0.00120385	0.000215032	0	5	0	
0.262	0.0410273	-0.00626049	0.00120204	0.00024768	0	5	0	
0.262167	-0.0389787	0.0104273	0.00121402	0.000232476	0	5	0	
0.262333	0.0372353	-0.0112656	0.00122228	0.000219601	0	5	0	
0.2625	-0.0385256	0.00295574	0.00123043	0.000232643	0	5	0	
0.262667	0.036367	-0.00880059	0.00123818	0.000233278	0	5	0	
0.262833	-0.0384238	0.0190493	0.00123811	0.000223053	0	5	0	
0.263	0.0422185	-0.0168452	0.00121656	0.000328773	0	5	0	
0.263167	-0.0432418	-0.0164884	0.00122554	0.000573515	0	5	0	
0.263333	0.036608	0.0292607	0.00125715	0.000622397	0	5	0	
0.2635	-0.0361689	0.0079504	0.00127083	0.000723524	0	5	0	
0.263667	0.0405125	-0.0330922	0.00122416	0.000618137	0	5	0	
0.263833	-0.0442268	0.00503589	0.00120026	0.000697241	0	5	0	
0.264	0.0385729	0.00467388	0.00121882	0.000601569	0	5	0	
0.264167	-0.036548	0.0244693	0.00125696	0.000487767	0	5	0	
0.264333	0.0415643	-0.0325042	0.0012438	0.000448224	0	5	0	
0.2645	-0.0428738	-0.00968879	0.00123899	0.000610047	0	5	0	
0.264667	0.0343339	0.0354123	0.00127713	0.000799157	0	5	0	
0.264833	-0.0284345	-0.00626222	0.00131255	0.00074758	0	5	0	
0.265	0.0316489	-0.0238225	0.00126787	0.00054527	0	5	0	
0.265167	-0.0373455	0.0111344	0.00120521	0.000387238	0	5	0	
0.265333	0.0363603	0.00496499	0.00119962	0.000461146	0	5	0	
0.2655	-0.0366035	-0.00208075	0.00122458	0.000346683	0	5	0	
0.265667	0.0397832	-0.0145942	0.00121788	0.000273956	0	5	0	
0.265833	-0.0401309	0.00829809	0.00120774	0.000185304	0	5	0	
0.266	0.0364159	0.00954673	0.00124177	0.000307999	0	5	0	
0.266167	-0.0362763	-0.00734218	0.00127498	0.000341008	0	5	0	
0.266333	0.0374249	-0.014857	0.0012746	0.000289202	0	5	0	
0.2665	-0.0372368	0.0217192	0.00125901	0.000241989	0	5	0	
0.266667	0.037096	-0.0107334	0.00124807	0.000313014	0	5	0	
0.266833	-0.0378229	-0.000660436	0.00124315	0.000436282	0	5	0	
0.267	0.035674	0.00299452	0.00126382	0.000431018	0	5	0	
0.267167	-0.0312914	0.00221562	0.0012854	0.000315144	0	5	0	
0.267333	0.0349022	-0.00556747	0.00128101	0.000165505	0	5	0	
0.2675	-0.0373195	0.00634863	0.00124879	0.000113827	0	5	0	
0.267667	0.0368171	-0.00326308	0.00123791	0.000151555	0	5	0	
0.267833	-0.036549	0.00609597	0.0012418	0.000204556	0	5	0	
0.268	0.0380777	-0.00649637	0.00124021	0.000210127	0	5	0	
0.268167	-0.037018	0.00752137	0.00123271	0.000202932	0	5	0	
0.268333	0.0383401	-0.0075273	0.00123098	0.000182555	0	5	0	
0.2685	-0.0400023	0.00407445	0.00123796	0.000185419	0	5	0	
0.268667	0.0389419	-0.00386673	0.00125257	0.000196435	0	5	0	
0.268833	-0.0355879	0.0178664	0.00125928	0.000228478	0	5	0	
0.269	0.03362	-0.0397945	0.00123869	0.000381925	0	5	0	
0.269167	-0.03747	0.0487583	0.00121576	0.000558924	0	5	0	
0.269333	0.0384196	-0.00890281	0.00120781	0.000816406	0	5	0	
0.2695	-0.0391338	-0.0449664	0.00123071	0.000976354	0	5	0	
0.269667	0.0351321	0.0316378	0.00124501	0.000984932	0	5	0	
0.269833	-0.0308236	0.049053	0.00123012	0.00132392	0	5	0	
0.27	0.034459	-0.0808077	0.0011853	0.0014694	0	5	0	
0.270167	-0.0380282	0.0304212	0.00115372	0.00155172	0	5	0	
0.270333	0.0318315	0.0183538	0.00117688	0.00126814	0	5	0	
0.2705	-0.0273618	-0.0213213	0.00121737	0.000899196	0	5	0	
0.270667	0.0333016	0.0209895	0.00121106	0.000690833	0	5	0	
0.270833	-0.0408781	-0.0277541	0.00119245	0.000423469	0	5	0	
0.271	0.0374332	0.0087578	0.0012262	0.000464763	0	5	0	
0.271167	-0.0305469	0.0386525	0.001295	0.000634145	0	5	0	
0.271333	0.0347355	-0.0533215	0.00132077	0.000760613	0	5	0	
0.2715	-0.0412822	0.00726502	0.00130545	0.000915054	0	5	0	
0.271667	0.0392483	0.0253955	0.00131169	0.000912409	0	5	0	
0.271833	-0.0343043	-0.0110756	0.00133727	0.000740634	0	5	0	
0.272	0.032557	-0.0261948	0.00131005	0.000624247	0	5	0	
0.272167	-0.0401062	0.0416747	0.00124547	0.000534803	0	5	0	
0.272333	0.0454337	-0.02129	0.00121545	0.000694828	0	5	0	
0.2725	-0.0396479	-0.0123582	0.00125732	0.000717705	0	5	0	
0.272667	0.0325531	0.0139089	0.00129571	0.000630446	0	5	0	
0.272833	-0.0365622	0.00742951	0.00127384	0.00046702	0	5	0	
0.273	0.0405514	-0.0237867	0.00123298	0.000310228	0	5	0	
0.273167	-0.0378827	0.0173945	0.0012448	0.000327564	0	5	0	
0.273333	0.031772	-0.00404032	0.00127206	0.000419366	0	5	0	
0.2735	-0.0329111	0.00115738	0.00126563	0.000434071	0	5	0	
0.273667	0.0360024	-0.00314066	0.00122956	0.000346098	0	5	0	
0.273833	-0.0365401	0.00609511	0.00121665	0.000228972	0	5	0	
0.274	0.035765	-0.00759027	0.00122397	0.00019642	0	5	0	
0.274167	-0.0352883	0.00843199	0.00122619	0.000238156	0	5	0	
0.274333	0.034788	-0.00813802	0.00123158	0.000263534	0	5	0	
0.2745	-0.0350497	0.0112915	0.00124407	0.000253662	0	5	0	
0.274667	0.0355409	-0.0139029	0.00125407	0.000255247	0	5	0	
0.274833	-0.0333647	0.0187329	0.00124164	0.000325227	0	5	0	
0.275	0.0306996	-0.0148605	0.00122243	0.000402791	0	5	0	
0.275167	-0.0291281	0.00899073	0.00120778	0.000414796	0	5	0	
0.275333	0.0320972	-0.0031343	0.00120396	0.000310081	0	5	0	
0.2755	-0.0337807	0.00208533	0.00119285	0.000210318	0	5	0	
0.275667	0.0361429	-0.00277209	0.00119182	0.000188476	0	5	0	
0.275833	-0.0358634	0.00421635	0.00120566	0.000208358	0	5	0	
0.276	0.0364811	-0.00540103	0.00122843	0.000192702	0	5	0	
0.276167	-0.0434956	0.00842219	0.00125463	0.000156112	0	5	0	
0.276333	0.045691	-0.0101299	0.00129892	0.000141154	0	5	0	
0.2765	-0.0383835	0.011782	0.00135256	0.000192835	0	5	0	
0.276667	0.0312556	-0.0122596	0.00134942	0.000245628	0	5	0	
0.276833	-0.0329452	0.0104143	0.00127543	0.000315989	0	5	0	
0.277	0.0334474	-0.00256243	0.00119478	0.00033153	0	5	0	
0.277167	-0.0319706	0.00145137	0.00116053	0.000278185	0	5	0	
0.277333	0.032733	-0.00837786	0.00114253	0.000196371	0	5	0	
0.2775	-0.0362722	0.0114697	0.0011116	0.000182451	0	5	0	
0.277667	0.0339316	-0.00151856	0.00109866	0.000217041	0	5	0	
0.277833	-0.0322832	0.00399673	0.00114082	0.00021011	0	5	0	
0.278	0.0322901	-0.016205	0.00119187	0.000194676	0	5	0	
0.278167	-0.0374809	0.0200517	0.00122331	0.000219338	0	5	0	
0.278333	0.0386998	0.00864855	0.00124668	0.000437631	0	5	0	
0.2785	-0.0332167	-0.0362295	0.00127584	0.000563078	0	5	0	
0.278667	0.0284829	0.0132332	0.00127881	0.000716502	0	5	0	
0.278833	-0.0316103	0.0476181	0.00123254	0.000896817	0	5	0	
0.279	0.0373685	-0.0560881	0.00119417	0.000983558	0	5	0	
0.279167	-0.0377511	0.00879769	0.0012069	0.0011294	0	5	0	
0.279333	0.0323763	0.0114544	0.00124821	0.000975471	0	5	0	
0.2795	-0.028197	2.38737E-05	0.001255	0.000778075	0	5	0	
0.279667	0.0312113	0.0114075	0.00122827	0.000525427	0	5	0	
0.279833	-0.0331844	-0.0196285	0.00120898	0.000403214	0	5	0	
0.28	0.0330321	-0.00829237	0.00122767	0.000479259	0	5	0	
0.280167	-0.0304699	0.0453851	0.00123684	0.000604861	0	5	0	
0.280333	0.0332575	-0.0399612	0.001226	0.000686358	0	5	0	
0.2805	-0.0350981	-5.13965E-05	0.00122964	0.000821058	0	5	0	
0.280667	0.0325977	0.0195825	0.00128247	0.000749002	0	5	0	
0.280833	-0.0293372	-0.00359946	0.00132134	0.000575514	0	5	0	
0.281	0.0316604	-0.0186189	0.00130359	0.000386574	0	5	0	
0.281167	-0.0331104	0.0150896	0.00124848	0.000272675	0	5	0	
0.281333	0.033796	0.00134245	0.00122451	0.000338342	0	5	0	
0.2815	-0.0353907	-0.00652345	0.00123408	0.000300375	0	5	0	
0.281667	0.0348203	-0.00338231	0.00125584	0.000225599	0	5	0	
0.281833	-0.0339187	0.0121624	0.00126866	0.000140076	0	5	0	
0.282	0.0336637	-0.015218	0.00126526	0.000203524	0	5	0	
0.282167	-0.0335791	0.00570017	0.00124932	0.00033728	0	5	0	
0.282333	0.0318085	-0.00236586	0.00124304	0.000415688	0	5	0	
0.2825	-0.0308666	0.00301785	0.00123527	0.000364261	0	5	0	
0.282667	0.0308099	-0.00399594	0.00122198	0.000284491	0	5	0	
0.282833	-0.031388	0.00702138	0.00121004	0.000244899	0	5	0	
0.283	0.0282056	-0.00980294	0.00121151	0.00025182	0	5	0	
0.283167	-0.0306104	0.00700759	0.00121969	0.000263143	0	5	0	
0.283333	0.0319252	-0.00836963	0.00122031	0.0002694	0	5	0	
0.2835	-0.0309584	0.0118909	0.00122948	0.000274288	0	5	0	
0.283667	0.0299993	-0.0125285	0.00125281	0.00027231	0	5	0	
0.283833	-0.0279782	0.010669	0.00126891	0.000278706	0	5	0	
0.284	0.0260697	-0.00652477	0.00126825	0.000287818	0	5	0	
0.284167	-0.0272871	0.00391445	0.00124672	0.000319935	0	5	0	
0.284333	0.0326579	-0.00417678	0.00122927	0.000391911	0	5	0	
0.2845	-0.036303	-0.012294	0.00123338	0.000544045	0	5	0	
0.284667	0.0356911	0.0317311	0.00125889	0.00065627	0	5	0	
0.284833	-0.0330607	-0.0069897	0.00128096	0.000597504	0	5	0	
0.285	0.0302793	-0.0481734	0.00129599	0.000632011	0	5	0	
0.285167	-0.0279363	0.0606129	0.00130416	0.000711746	0	5	0	
0.285333	0.0311527	-0.0186978	0.00129924	0.00107223	0	5	0	
0.2855	-0.0308749	-0.0152089	0.00127498	0.0012014	0	5	0	
0.285667	0.0292457	0.00375406	0.00126176	0.00101497	0	5	0	
0.285833	-0.0309118	0.0151192	0.00125729	0.000610242	0	5	0	
0.286	0.0357722	-0.0080509	0.00127255	0.000293295	0	5	0	
0.286167	-0.0326802	0.0133239	0.0013005	0.000264353	0	5	0	
0.286333	0.0289497	-0.0331955	0.00132973	0.000397765	0	5	0	
0.2865	-0.0313669	0.0313836	0.00132172	0.000478389	0	5	0	
0.286667	0.0366687	0.0027014	0.00131014	0.000707031	0	5	0	
0.286833	-0.0322417	-0.0173956	0.00130634	0.000738595	0	5	0	
0.287	0.0327031	-0.000243746	0.00129139	0.00060688	0	5	0	
0.287167	-0.0326609	0.0247555	0.00122409	0.000433433	0	5	0	
0.287333	0.0332331	-0.0187865	0.0012064	0.000332316	0	5	0	
0.2875	-0.0280709	-0.00168787	0.00125026	0.000455254	0	5	0	
0.287667	0.0284752	0.0137788	0.00130748	0.000463326	0	5	0	
0.287833	-0.0268719	0.000496841	0.00127978	0.000389575	0	5	0	
0.288	0.0262166	-0.0169436	0.00120507	0.000267695	0	5	0	
0.288167	-0.0286997	0.0153719	0.00116669	0.0002228	0	5	0	
0.288333	0.029502	-0.00451399	0.00121209	0.000245163	0	5	0	
0.2885	-0.0321362	0.000314713	0.00128597	0.000244972	0	5	0	
0.288667	0.0335312	-0.00917752	0.00132452	0.000201127	0	5	0	
0.288833	-0.0283768	0.0123772	0.00134802	0.000241977	0	5	0	
0.289	0.0150842	-0.00388988	0.00137545	0.000312792	0	5	0	
0.289167	-0.0171569	-0.000524643	0.00134651	0.000341764	0	5	0	
0.289333	0.0296249	0.00021867	0.00123866	0.000281633	0	5	0	
0.2895	-0.0374986	-0.00274233	0.00116398	0.000199456	0	5	0	
0.289667	0.0325719	-0.00569057	0.00118205	0.000144313	0	5	0	
0.289833	-0.0322576	0.0141264	0.0012604	0.000155314	0	5	0	
0.29	0.0304245	-0.0183613	0.00129594	0.000236743	0	5	0	
0.290167	-0.0274643	0.0122199	0.00129043	0.000348627	0	5	0	
0.290333	0.0298142	-0.000617215	0.00126934	0.00041054	0	5	0	
0.2905	-0.0337993	0.00312169	0.00126194	0.000368878	0	5	0	
0.290667	0.0388855	-0.0123916	0.00127942	0.000290251	0	5	0	
0.290833	-0.0416518	0.0142235	0.00135013	0.000256057	0	5	0	
0.291	0.02596	-0.0157352	0.00148975	0.000277877	0	5	0	
0.291167	-0.00947725	0.0190267	0.00156789	0.000328764	0	5	0	
0.291333	0.0335236	-0.0285637	0.00141438	0.000364202	0	5	0	
0.2915	-0.0561578	0.0310128	0.00123738	0.000466189	0	5	0	
0.291667	0.0370345	-0.0159206	0.00127357	0.000572404	0	5	0	
0.291833	-0.0203115	0.00682966	0.00147554	0.000586253	0	5	0	
0.292	0.0397094	-0.0119626	0.00144112	0.000476972	0	5	0	
0.292167	-0.0464053	0.00406581	0.00129494	0.000332385	0	5	0	
0.292333	0.0145411	0.00665791	0.00128863	0.000256138	0	5	0	
0.2925	-0.00535633	0.00142387	0.00128567	0.000186633	0	5	0	
0.292667	0.0477149	-0.01612	0.00111104	0.000176695	0	5	0	
0.292833	-0.0592351	0.0203	0.00103723	0.000221183	0	5	0	
0.293	0.0185015	-0.0121431	0.00126993	0.000330481	0	5	0	
0.293167	-0.00950659	0.012968	0.00146126	0.000338372	0	5	0	
0.293333	0.0350714	-0.025203	0.00130392	0.000336456	0	5	0	
0.2935	-0.0347938	0.00798477	0.00117793	0.000399	0	5	0	
0.293667	0.0133205	0.0181084	0.00134614	0.000597889	0	5	0	
0.293833	-0.0056188	0.00500757	0.00153531	0.000524672	0	5	0	
0.294	0.00956157	-0.051016	0.00149594	0.000518038	0	5	0	
0.294167	-0.00771384	0.03632	0.00139243	0.000568159	0	5	0	
0.294333	0.00825197	0.0174053	0.00137773	0.001074	0	5	0	
0.2945	-0.0181674	-0.0258051	0.00140705	0.0011476	0	5	0	
0.294667	0.024005	-0.0111581	0.00146485	0.000883682	0	5	0	
0.294833	-0.0171898	0.0237131	0.00157499	0.000493219	0	5	0	
0.295	0.0207001	-0.0105455	0.00162218	0.000448738	0	5	0	
0.295167	-0.0346778	0.0184888	0.0015559	0.00049616	0	5	0	
0.295333	0.0342516	-0.0413597	0.00151361	0.000526719	0	5	0	
0.2955	-0.0312799	0.0324506	0.00156933	0.000555128	0	5	0	
0.295667	0.0375716	-0.0015997	0.00159904	0.000726451	0	5	0	
0.295833	-0.0405943	-0.00210233	0.00156455	0.00067619	0	5	0	
0.296	0.0321501	-0.0175829	0.00155938	0.000510072	0	5	0	
0.296167	-0.0226762	0.0314608	0.00158913	0.000374095	0	5	0	
0.296333	0.0234172	-0.0201946	0.00154033	0.000421809	0	5	0	
0.2965	-0.0304184	-0.000776806	0.00142484	0.000536567	0	5	0	
0.296667	0.0276505	0.00275464	0.00135157	0.00050892	0	5	0	
0.296833	-0.0208423	0.0049533	0.00136436	0.000385738	0	5	0	
0.297	0.0219638	-0.0060731	0.00135833	0.000260899	0	5	0	
0.297167	-0.0258136	0.00326126	0.00128144	0.00019697	0	5	0	
0.297333	0.0319741	-0.00035172	0.00121551	0.000153177	0	5	0	
0.2975	-0.0301744	0.00546708	0.00121821	0.000110367	0	5	0	
0.297667	0.0273785	-0.00531038	0.00126045	0.00013576	0	5	0	
0.297833	-0.0266003	0.00646739	0.00127139	0.000209863	0	5	0	
0.298	0.0259673	-0.0137566	0.00125904	0.000263373	0	5	0	
0.298167	-0.0226576	0.013285	0.00126567	0.000269319	0	5	0	
0.298333	0.0216895	0.00146712	0.00129907	0.000293	0	5	0	
0.2985	-0.01858	-0.00491429	0.00129626	0.000309939	0	5	0	
0.298667	0.0245054	0.00391678	0.00124327	0.000282272	0	5	0	
0.298833	-0.0245222	0.00624018	0.00116922	0.000210259	0	5	0	
0.299	0.0238247	-0.0247092	0.00114321	0.00020942	0	5	0	
0.299167	-0.0257775	0.0369798	0.0011694	0.000337637	0	5	0	
0.299333	0.0264328	-0.00751847	0.00122238	0.000525211	0	5	0	
0.2995	-0.0250251	-0.0465055	0.00125838	0.000769471	0	5	0	
0.299667	0.0253664	0.0412227	0.00125637	0.000824324	0	5	0	
0.299833	-0.0258146	0.029924	0.00123411	0.001038	0	5	0	
0.3	0.0262943	-0.065389	0.00121263	0.00103393	0	5	0	
0.300167	-0.0264917	0.0268511	0.00121692	0.00110964	0	5	0	
0.300333	0.0213074	0.0168104	0.00125226	0.000950061	0	5	0	
0.3005	-0.0168885	-0.0102526	0.00128969	0.000716225	0	5	0	
0.300667	0.0187126	0.0013584	0.00125823	0.000491419	0	5	0	
0.300833	-0.0240058	-0.0163328	0.0011911	0.000424835	0	5	0	
0.301	0.0191641	0.0148171	0.00116698	0.000394069	0	5	0	
0.301167	-0.0168061	0.0215696	0.0011941	0.000557971	0	5	0	
0.301333	0.0231641	-0.0393709	0.0012	0.00056876	0	5	0	
0.3015	-0.0248838	0.0118117	0.00120894	0.000696262	0	5	0	
0.301667	0.0187295	0.0289435	0.00125748	0.000716555	0	5	0	
0.301833	-0.0190697	-0.0163449	0.00129563	0.000629123	0	5	0	
0.302	0.0239218	-0.0242794	0.00126451	0.000591503	0	5	0	
0.302167	-0.0237055	0.0362151	0.00122314	0.000494337	0	5	0	
0.302333	0.0184605	-0.0155414	0.00122342	0.000583003	0	5	0	
0.3025	-0.0238485	-0.0075146	0.00124708	0.000652174	0	5	0	
0.302667	0.0268525	0.00888081	0.00124468	0.000574545	0	5	0	
0.302833	-0.0264069	0.0113518	0.00124202	0.00038937	0	5	0	
0.303	0.0248016	-0.027351	0.00125978	0.000269502	0	5	0	
0.303167	-0.0205174	0.026782	0.00128565	0.000369357	0	5	0	
0.303333	0.0224742	-0.00971021	0.00130651	0.000601954	0	5	0	
0.3035	-0.0244522	-0.00876822	0.00131403	0.000690204	0	5	0	
0.303667	0.0247403	-0.0027356	0.00131405	0.000509566	0	5	0	
0.303833	-0.0263722	0.022299	0.00128335	0.000354554	0	5	0	
0.304	0.0336984	-0.0307454	0.00126205	0.000306117	0	5	0	
0.304167	-0.0277651	0.0204208	0.00127644	0.000459381	0	5	0	
0.304333	0.0221554	-0.0233055	0.00132773	0.00050378	0	5	0	
0.3045	-0.0169053	0.0206785	0.00129463	0.000515134	0	5	0	
0.304667	0.023294	-0.0151642	0.0011875	0.000485955	0	5	0	
0.304833	-0.0212589	-0.000569517	0.00105394	0.000430836	0	5	0	
0.305	0.0183962	0.00882706	0.000995664	0.000313076	0	5	0	
0.305167	-0.0234855	-0.0127454	0.00101175	0.000245011	0	5	0	
0.305333	0.0242493	-0.00444143	0.00105477	0.000271081	0	5	0	
0.3055	-0.0194978	0.0154723	0.00109279	0.000355528	0	5	0	
0.305667	0.0294959	-0.0150435	0.00116841	0.000330406	0	5	0	
0.305833	-0.00175627	0.0108092	0.00125573	0.000287497	0	5	0	
0.306	-0.0032231	-0.0163334	0.00126747	0.000260616	0	5	0	
0.306167	-0.00456879	0.0135822	0.00109961	0.000314347	0	5	0	
0.306333	0.0115143	0.00284378	0.000889475	0.000392627	0	5	0	
0.3065	-0.0205132	-0.00987304	0.000790529	0.000417753	0	5	0	
0.306667	0.029366	0.0269174	0.000860721	0.000437286	0	5	0	
0.306833	-0.0147166	-0.0351302	0.000989929	0.000456609	0	5	0	
0.307	0.0052464	0.0213159	0.00110538	0.00051326	0	5	0	
0.307167	-0.00577696	0.0192595	0.00121109	0.000532051	0	5	0	
0.307333	0.0132673	-0.00990126	0.00131741	0.000575256	0	5	0	
0.3075	-0.0127273	-0.056792	0.0013262	0.000856127	0	5	0	
0.307667	0.0162098	0.0716526	0.0011789	0.00105912	0	5	0	
0.307833	-0.0262764	0.00898116	0.00101587	0.00122152	0	5	0	
0.308	0.0136441	-0.0429015	0.00105718	0.000914882	0	5	0	
0.308167	-0.0379025	-0.079104	0.00129884	0.00166384	0	5	0	
0.308333	0.0284106	0.101739	0.00142044	0.00263717	0	5	0	
0.3085	-0.0448206	-0.0857952	0.00137425	0.00308801	0	5	0	
0.308667	0.02693	-0.021488	0.00118472	0.00243928	0	5	0	
0.308833	-0.0613278	0.0488651	0.00117388	0.00132577	0	5	0	
0.309	0.0718659	-0.0445051	0.00135343	0.00102325	0	5	0	
0.309167	-0.0681723	0.06397	0.00166507	0.000918034	0	5	0	
0.309333	0.0361545	-0.176911	0.00175795	0.0016836	0	5	0	
0.3095	-0.0357993	0.050189	0.00163871	0.00268061	0	5	0	
0.309667	0.00388937	0.0947798	0.00144005	0.00357865	0	5	0	
0.309833	-0.0091067	-0.122267	0.00127574	0.00319478	0	5	0	
0.31	0.0256728	0.0409257	0.00102084	0.00254327	0	5	0	
0.310167	-0.0384945	0.0314724	0.000786919	0.00188513	0	5	0	
0.310333	0.0301367	-0.0777354	0.000696059	0.00150448	0	5	0	
0.3105	-0.0346127	0.0630766	0.000834623	0.00137892	0	5	0	
0.310667	0.0453369	-0.00162283	0.00101501	0.00127489	0	5	0	
0.310833	-0.0393074	-0.00327505	0.00130093	0.00124738	0	5	0	
0.311	0.0185222	-0.02193	0.00158877	0.00079094	0	5	0	
0.311167	0.00359067	0.00959148	0.00172204	0.000470099	0	5	0	
0.311333	0.00635904	0.0253344	0.00150575	0.00048503	0	5	0	
0.3115	-0.0278771	-0.0141447	0.00111576	0.000510236	0	5	0	
0.311667	0.0406387	-0.0197773	0.000877151	0.000594188	0	5	0	
0.311833	-0.0430804	0.0244078	0.000993662	0.00047512	0	5	0	
0.312	0.0321719	0.00793377	0.00129081	0.000613017	0	5	0	
0.312167	-0.013647	-0.0265603	0.00155376	0.000518078	0	5	0	
0.312333	0.00525491	0.00597141	0.00164976	0.000495388	0	5	0	
0.3125	0.00185812	0.0109771	0.0015595	0.000297814	0	5	0	
0.312667	0.00699366	0.00318914	0.00129787	0.000278351	0	5	0	
0.312833	-0.0152174	-0.0119693	0.000988313	0.000325947	0	5	0	
0.313	0.0353218	0.0110884	0.000897765	0.000353687	0	5	0	
0.313167	-0.0227858	-0.0131763	0.00107443	0.000293149	0	5	0	
0.313333	0.0111449	0.00697316	0.00133778	0.000243693	0	5	0	
0.3135	-0.0135917	0.0258674	0.00135842	0.000393981	0	5	0	
0.313667	0.0229931	-0.0415442	0.00117133	0.000520207	0	5	0	
0.313833	-0.0340703	0.0125737	0.00101746	0.000710313	0	5	0	
0.314	0.040464	0.0271055	0.00109322	0.000727545	0	5	0	
0.314167	-0.0269192	-0.00296609	0.0013301	0.00067048	0	5	0	
0.314333	0.00483423	-0.0215135	0.00144972	0.00051859	0	5	0	
0.3145	-0.00641181	0.00222915	0.00133484	0.000510947	0	5	0	
0.314667	0.0208493	0.0296658	0.00113122	0.000655671	0	5	0	
0.314833	-0.0187433	-0.0143529	0.00107818	0.000621247	0	5	0	
0.315	0.0085182	-0.00573644	0.00113553	0.000565377	0	5	0	
0.315167	-0.0196033	0.00982783	0.00110085	0.000320181	0	5	0	
0.315333	0.0360291	0.00119831	0.00101441	0.000313685	0	5	0	
0.3155	-0.0458604	0.0202074	0.00112442	0.000237613	0	5	0	
0.315667	0.0313699	-0.0369511	0.00138713	0.00036047	0	5	0	
0.315833	-0.022484	0.0278168	0.00158416	0.000590874	0	5	0	
0.316	0.0191163	0.0101467	0.00153878	0.000934837	0	5	0	
0.316167	-0.012574	-0.031063	0.00145735	0.00106801	0	5	0	
0.316333	0.00533752	0.0148172	0.00139418	0.000871878	0	5	0	
0.3165	-0.00675373	0.0107673	0.00123286	0.000556904	0	5	0	
0.316667	0.000382053	-0.0121236	0.00093298	0.000383333	0	5	0	
0.316833	-0.0357254	-0.00716856	0.000790701	0.00032162	0	5	0	
0.317	0.0281281	0.0124801	0.000859941	0.000280837	0	5	0	
0.317167	-0.0224779	-0.00111171	0.00109021	0.000218829	0	5	0	
0.317333	0.0257776	-0.0266671	0.00118039	0.000240983	0	5	0	
0.3175	-0.0216293	0.0381869	0.0012342	0.000366251	0	5	0	
0.317667	0.0107341	-0.00670954	0.00132046	0.000554324	0	5	0	
0.317833	-0.0195045	-0.0381528	0.001484	0.000882919	0	5	0	
0.318	-0.00969207	0.0383802	0.00158394	0.00110582	0	5	0	
0.318167	0.00192241	-0.0184176	0.00149422	0.00111098	0	5	0	
0.318333	0.00857493	0.00828884	0.00124456	0.000760968	0	5	0	
0.3185	-0.00804965	-0.0105542	0.00107222	0.000413163	0	5	0	
0.318667	0.0130866	0.00173299	0.00104161	0.000258268	0	5	0	
0.318833	-0.0190926	0.0116147	0.00108966	0.000213235	0	5	0	
0.319	0.0165879	-0.00971362	0.00115325	0.000258349	0	5	0	
0.319167	-0.00841158	0.00178041	0.00123709	0.000274081	0	5	0	
0.319333	0.00911887	-0.00117722	0.00129835	0.00028129	0	5	0	
0.3195	-0.0133018	0.00313876	0.00131097	0.000224135	0	5	0	
0.319667	0.0256773	0.00255935	0.00135566	0.000330531	0	5	0	
0.319833	-0.0148596	0.00031907	0.00143118	0.000561318	0	5	0	
0.32	0.0055811	-0.0105947	0.0014569	0.000665033	0	5	0	
0.320167	0.00858797	0.00515209	0.00136528	0.000555837	0	5	0	
0.320333	0.0229698	0.0225918	0.00131275	0.000398177	0	5	0	
0.3205	-0.00693974	-0.00957991	0.00133718	0.000371794	0	5	0	
0.320667	0.0202767	-0.0168915	0.00138003	0.0003386	0	5	0	
0.320833	-0.0198852	0.0418809	0.00128532	0.000493038	0	5	0	
0.321	0.0185363	-0.0296112	0.00118341	0.000615325	0	5	0	
0.321167	0.00264601	0.00156037	0.00120537	0.000689509	0	5	0	
0.321333	0.024984	-0.00352866	0.00133398	0.000484779	0	5	0	
0.3215	-0.0149634	0.00950795	0.00131967	0.000359899	0	5	0	
0.321667	0.0251166	4.50926E-05	0.00124155	0.000416711	0	5	0	
0.321833	-0.0136634	0.0167651	0.0012111	0.000469813	0	5	0	
0.322	0.0158038	-0.0382721	0.00132217	0.000495422	0	5	0	
0.322167	-0.00979752	0.0116127	0.0013729	0.000478446	0	5	0	
0.322333	0.021617	0.0239912	0.00137842	0.000758453	0	5	0	
0.3225	-0.0110348	-0.0306326	0.00132273	0.000780239	0	5	0	
0.322667	0.00744591	-0.00711922	0.0012474	0.000712083	0	5	0	
0.322833	-0.0124198	0.0191558	0.00115056	0.00041348	0	5	0	
0.323	0.0121741	-0.00722696	0.00113351	0.000344991	0	5	0	
0.323167	-0.00950319	0.0175104	0.00117978	0.000324969	0	5	0	
0.323333	0.00690663	-0.0395726	0.00124246	0.000496341	0	5	0	
0.3235	-0.00276119	0.0022334	0.00127518	0.000949087	0	5	0	
0.323667	-0.00455117	0.0653206	0.00129739	0.00164337	0	5	0	
0.323833	0.00570454	-0.103299	0.00133872	0.00202881	0	5	0	
0.324	0.000384409	0.063357	0.00136058	0.00191562	0	5	0	
0.324167	-0.00585829	0.0124681	0.001288	0.00162034	0	5	0	
0.324333	0.0119175	-0.0677324	0.00113154	0.00133135	0	5	0	
0.3245	-0.0236366	0.0717053	0.0010496	0.00128243	0	5	0	
0.324667	0.0223603	-0.0570427	0.00114485	0.00122425	0	5	0	
0.324833	-0.0193315	0.0356456	0.00135517	0.00131533	0	5	0	
0.325	0.0126203	-0.00313789	0.0015129	0.00143272	0	5	0	
0.325167	0.00339728	-0.0428505	0.0015323	0.00150138	0	5	0	
0.325333	-0.0113801	0.0442531	0.00143608	0.00137324	0	5	0	
0.3255	-0.00349863	0.00870354	0.00130165	0.000991441	0	5	0	
0.325667	0.00710432	-0.0336688	0.001186	0.000663785	0	5	0	
0.325833	-0.0065003	0.00385781	0.00112325	0.000771752	0	5	0	
0.326	0.000454586	0.0613714	0.00112334	0.00116988	0	5	0	
0.326167	-0.000462233	-0.0860669	0.00114377	0.00146922	0	5	0	
0.326333	0.00456315	0.0467133	0.00111847	0.00145411	0	5	0	
0.3265	-0.0174428	0.041043	0.00107791	0.00143267	0	5	0	
0.326667	0.0133609	-0.086409	0.00108141	0.00143118	0	5	0	
0.326833	-0.00882296	0.0617727	0.00117148	0.00145129	0	5	0	
0.327	-0.00125113	-0.00937894	0.00129977	0.00137088	0	5	0	
0.327167	0.0128455	-0.00474713	0.00141843	0.00128645	0	5	0	
0.327333	-0.00756867	0.0154919	0.00140699	0.00119539	0	5	0	
0.3275	-0.00416027	-0.0292413	0.0012348	0.00107385	0	5	0	
0.327667	0.0086438	0.0355038	0.00108096	0.000910504	0	5	0	
0.327833	-0.00126903	0.00475733	0.00110775	0.000713733	0	5	0	
0.328	-0.0050415	-0.0411049	0.00125974	0.000587962	0	5	0	
0.328167	0.0013226	0.0495204	0.00131715	0.000793414	0	5	0	
0.328333	0.00401729	0.00474118	0.00121849	0.0012259	0	5	0	
0.3285	-0.0107406	-0.0668769	0.00109414	0.00153477	0	5	0	
0.328667	0.0155879	0.0682991	0.00108743	0.00147222	0	5	0	
0.328833	-0.0121293	0.0267254	0.00122494	0.00146884	0	5	0	
0.329	0.0038423	-0.0855993	0.0013965	0.0015456	0	5	0	
0.329167	-0.00763584	0.0684453	0.00144804	0.0015664	0	5	0	
0.329333	0.00307346	-0.0253588	0.00136256	0.00134976	0	5	0	
0.3295	-0.005251	0.0130491	0.00124748	0.000928504	0	5	0	
0.329667	0.00459426	-0.00712904	0.00115586	0.000704229	0	5	0	
0.329833	-0.0204715	0.0163672	0.0011272	0.000651653	0	5	0	
0.33	0.0215315	0.0054489	0.00118697	0.000684492	0	5	0	
0.330167	-0.0048162	-0.0132277	0.0013358	0.000605685	0	5	0	
0.330333	-0.0116257	0.0320144	0.0014494	0.000490917	0	5	0	
0.3305	0.00813162	-0.0192647	0.00139859	0.000495846	0	5	0	
0.330667	0.00158166	0.0114812	0.00121596	0.000493551	0	5	0	
0.330833	-0.0146135	-0.00786518	0.00109342	0.000367191	0	5	0	
0.331	0.00592745	0.00994716	0.00110721	0.000347533	0	5	0	
0.331167	-0.0010464	0.0289029	0.00118711	0.000610781	0	5	0	
