0	0.00151744	-0.000676133	1.51744E-07	6.76133E-08	0	0	0	
0.000166667	-0.00031521	0.000106903	1.71791E-05	1.46028E-05	0	0	0	
0.000333333	-0.00390231	-0.00211584	4.09284E-05	3.55049E-05	0	0	0	
0.0005	0.00211271	0.00763819	5.96231E-05	7.0224E-05	0	0	0	
0.000666667	0.00114654	-0.00399218	5.7242E-05	9.3809E-05	0	0	0	
0.000833333	-0.00342029	-0.000452416	5.45446E-05	8.79248E-05	0	0	0	
0.001	0.00165253	0.00150338	6.45666E-05	8.43387E-05	0	0	0	
0.00116667	-0.00369705	0.00576179	7.92548E-05	0.000153969	0	0	0	
0.00133333	-0.00113841	-0.0141004	0.000100293	0.000238718	0	0	0	
0.0015	0.00849108	0.0145162	0.000121252	0.000295257	0	0	0	
0.00166667	-0.00710309	0.00116897	0.000137888	0.000244151	0	0	0	
0.00183333	-0.00362237	-0.00997359	0.000149275	0.00021551	0	0	0	
0.002	0.00779982	0.00507352	0.000159415	0.000207154	0	0	0	
0.00216667	-0.00876471	-0.00830348	0.000167024	0.000199617	0	0	0	
0.00233333	0.00825641	0.00802775	0.000164238	0.00017868	0	0	0	
0.0025	-0.0028214	0.00304951	0.000146823	0.000166656	0	0	0	
0.00266667	-0.00117646	-0.00316651	0.000150921	0.000183301	0	0	0	
0.00283333	0.00378767	-0.00641005	0.00012871	0.000155085	0	0	0	
0.003	-0.00327679	0.00720484	0.000109652	0.000167085	0	0	0	
0.00316667	0.00156217	-0.00563139	8.22791E-05	0.000129868	0	0	0	
0.00333333	0.000706096	0.00543144	8.06821E-05	0.000155725	0	0	0	
0.0035	-0.000613811	-0.0016986	9.1322E-05	0.000116097	0	0	0	
0.00366667	0.00143721	-0.0025792	9.65929E-05	0.000103246	0	0	0	
0.00383333	-0.00055108	0.00274909	9.22518E-05	8.41214E-05	0	0	0	
0.004	-0.000399895	0.00173635	6.58126E-05	6.79019E-05	0	0	0	
0.00416667	0.000635382	-0.000848898	4.06304E-05	6.27968E-05	0	0	0	
0.00433333	-0.000425943	0.00463696	2.16604E-05	5.89487E-05	0	0	0	
0.0045	0.0015926	-0.00136843	1.84287E-05	8.28831E-05	0	0	0	
0.00466667	-0.000654477	0.000277477	2.13375E-05	0.000113277	0	0	0	
0.00483333	8.6422E-06	-0.0028185	3.49571E-05	0.000103124	0	0	0	
0.005	-0.000897938	0.000216827	4.7497E-05	8.04635E-05	0	0	0	
0.00516667	-0.000106764	0.00166687	3.99466E-05	5.35382E-05	0	0	0	
0.00533333	0.00213055	0.00176618	3.39492E-05	5.02565E-05	0	0	0	
0.0055	-0.000441177	-0.00115808	2.53468E-05	4.38096E-05	0	0	0	
0.00566667	8.30694E-05	-0.00166902	3.09086E-05	3.91916E-05	0	0	0	
0.00583333	0.00123509	0.00164109	2.4673E-05	5.2622E-05	0	0	0	
0.006	0.000697411	-0.00221881	3.3519E-05	4.45148E-05	0	0	0	
0.00616667	-0.00389685	-0.000481816	4.62578E-05	4.9159E-05	0	0	0	
0.00633333	0.00394987	0.00114503	7.64677E-05	4.16656E-05	0	0	0	
0.0065	-0.00039708	-0.00359689	8.23164E-05	4.64621E-05	0	0	0	
0.00666667	-0.00291991	0.00540453	6.7958E-05	6.37907E-05	0	0	0	
0.00683333	0.00845217	-0.00241871	7.01171E-05	7.81399E-05	0	0	0	
0.007	-0.00546205	0.00194635	0.000107995	9.80233E-05	0	0	0	
0.00716667	0.00140645	0.000856757	0.000115706	8.37935E-05	0	0	0	
0.00733333	-0.00198576	0.00303519	8.983E-05	8.43642E-05	0	0	0	
0.0075	0.000567394	-0.0030532	3.97632E-05	5.95624E-05	0	0	0	
0.00766667	0.00140386	-0.000631945	3.80624E-05	5.67601E-05	0	0	0	
0.00783333	0.00124083	0.00331083	3.6952E-05	4.33834E-05	0	0	0	
0.008	0.000171615	0.00419639	6.69945E-05	6.96345E-05	0	0	0	
0.00816667	-0.00369845	-0.00215318	8.62264E-05	7.45586E-05	0	0	0	
0.00833333	0.00515643	0.00238317	0.000117043	0.000102464	0	0	0	
0.0085	-0.0111055	0.00670705	0.000129815	0.000116202	0	0	0	
0.00866667	0.00411684	-0.00394648	0.000147612	0.000127978	0	0	0	
0.00883333	0.00755606	-0.0137307	0.00019091	0.000133378	0	0	0	
0.009	-0.0115605	0.0175416	0.000214338	0.000222983	0	0	0	
0.00916667	0.00886183	-0.00722269	0.000215986	0.000286685	0	0	0	
0.00933333	-0.00544883	-0.00135561	0.00019408	0.000268579	0	0	0	
0.0095	0.00227185	-0.0023817	0.000147066	0.000155149	0	0	0	
0.00966667	-0.000411387	0.00613105	0.000108382	0.000121957	0	0	0	
0.00983333	-0.00304476	0.00160362	6.15872E-05	0.000127481	0	0	0	
0.01	0.00317223	-0.0102328	5.08843E-05	0.000151802	0	0	0	
0.0101667	0.00191068	0.00309626	7.77326E-05	0.00017165	0	0	0	
0.0103333	-0.00189836	-0.00166777	7.8566E-05	0.000187791	0	0	0	
0.0105	-0.00553976	-0.00292206	9.70149E-05	0.000171983	0	0	0	
0.0106667	0.0110127	0.00191315	0.00011202	0.000134934	0	0	0	
0.0108333	0.00201447	0.00177006	0.000146241	0.000117714	0	0	0	
0.011	-0.00897497	-0.000976747	0.000160583	0.000110669	0	0	0	
0.0111667	0.00870783	-0.00365367	0.000166216	8.63789E-05	0	0	0	
0.0113333	-0.00614439	0.00262909	0.000158414	6.81551E-05	0	0	0	
0.0115	0.003818	-0.00434276	0.000138697	7.2488E-05	0	0	0	
0.0116667	-0.000475562	-0.00270213	9.49788E-05	7.24932E-05	0	0	0	
0.0118333	0.00574467	0.00199427	8.2447E-05	7.1232E-05	0	0	0	
0.012	-0.00226017	-0.00122831	8.96902E-05	7.13933E-05	0	0	0	
0.0121667	0.000861043	-0.00330062	0.000110476	8.57063E-05	0	0	0	
0.0123333	-0.00304202	0.00541556	0.000116072	0.00010368	0	0	0	
0.0125	0.00143028	-0.00978426	0.00010388	0.000135815	0	0	0	
0.0126667	0.00433558	0.00355907	8.5458E-05	0.000149519	0	0	0	
0.0128333	-0.00291578	-0.00229648	6.66373E-05	0.000136488	0	0	0	
0.013	0.00375096	-0.00101891	7.70497E-05	8.79234E-05	0	0	0	
0.0131667	-0.00107898	-0.000574385	8.82938E-05	4.8524E-05	0	0	0	
0.0133333	-0.00228255	0.00236755	9.21026E-05	3.50346E-05	0	0	0	
0.0135	-0.005442	-0.00402125	9.55613E-05	5.57142E-05	0	0	0	
0.0136667	0.0107467	0.002338	0.000112166	9.06772E-05	0	0	0	
0.0138333	-0.00700676	-0.000639318	0.000139989	0.000107438	0	0	0	
0.014	0.00453076	0.000659319	0.000151635	7.57772E-05	0	0	0	
0.0141667	-0.0023793	0.000817379	0.000128796	4.88153E-05	0	0	0	
0.0143333	0.00196364	-0.00404992	9.79704E-05	4.49702E-05	0	0	0	
0.0145	-0.00199683	0.000613812	7.11622E-05	6.18176E-05	0	0	0	
0.0146667	0.00861908	0.00562191	7.92182E-05	6.96939E-05	0	0	0	
0.0148333	-0.0147228	-0.00611104	0.00013492	9.01149E-05	0	0	0	
0.015	0.014162	0.00804705	0.000197434	0.000136534	0	0	0	
0.0151667	-0.00546416	0.00179554	0.000248219	0.000142228	0	0	0	
0.0153333	-0.00180748	-0.00626113	0.000259514	0.000136478	0	0	0	
0.0155	0.00627364	0.0024789	0.000189527	9.60952E-05	0	0	0	
0.0156667	0.00076618	0.00304311	0.00015547	9.43795E-05	0	0	0	
0.0158333	-0.00360789	-0.0058104	0.000131952	0.000103308	0	0	0	
0.016	0.00314924	0.00353911	0.000157119	0.000119228	0	0	0	
0.0161667	-0.00881756	0.0010447	0.000144631	0.000102283	0	0	0	
0.0163333	0.0102138	-0.000344368	0.000146327	8.11701E-05	0	0	0	
0.0165	-0.0103643	-0.0019607	0.000165145	6.98945E-05	0	0	0	
0.0166667	0.00643989	0.00224533	0.00018108	8.97199E-05	0	0	0	
0.0168333	-0.00184706	-0.00526267	0.000155614	0.000101959	0	0	0	
0.017	0.00122831	0.000102692	0.000134424	8.97027E-05	0	0	0	
0.0171667	0.00109664	-0.00391674	0.000124692	8.67084E-05	0	0	0	
0.0173333	-0.00274765	0.0039171	9.6397E-05	9.22306E-05	0	0	0	
0.0175	-0.00495202	-0.00674719	9.95262E-05	0.000134212	0	0	0	
0.0176667	0.0107593	0.0092154	0.000113401	0.00016228	0	0	0	
0.0178333	-0.00728722	-0.00131574	0.000167142	0.000153912	0	0	0	
0.018	0.000908078	-0.0106526	0.000163063	0.000184715	0	0	0	
0.0181667	0.00265914	0.0133857	0.000155837	0.000253612	0	0	0	
0.0183333	-0.00406921	-0.0207493	0.000108993	0.000336183	0	0	0	
0.0185	0.00348009	0.0132665	0.000120553	0.000357557	0	0	0	
0.0186667	0.00400919	-0.000289191	0.000143397	0.000268721	0	0	0	
0.0188333	-0.00141396	-0.00481937	0.000192228	0.000203455	0	0	0	
0.019	0.00164053	0.00886276	0.000174609	0.00013018	0	0	0	
0.0191667	-0.00593253	-0.0182085	0.00012923	0.000184788	0	0	0	
0.0193333	0.00484709	0.0178832	0.000106371	0.000258264	0	0	0	
0.0195	0.00353901	-0.0118944	9.05306E-05	0.000343586	0	0	0	
0.0196667	-0.00146026	0.00655167	7.94972E-05	0.000339409	0	0	0	
0.0198333	0.000498278	0.00160194	5.79575E-05	0.000241924	0	0	0	
0.02	-0.000248764	-0.00570436	5.70137E-05	0.000153267	0	0	0	
0.0201667	0.00440302	0.00525232	7.06275E-05	0.00010932	0	0	0	
0.0203333	-0.00778625	-0.00787451	9.03422E-05	0.000135225	0	0	0	
0.0205	0.0032847	0.00289101	0.000106473	0.000178266	0	0	0	
0.0206667	0.00294771	0.00465564	0.000100144	0.000172653	0	0	0	
0.0208333	-0.000903108	0.000456974	8.60847E-05	0.00013902	0	0	0	
0.021	-0.00205489	-0.00177397	6.44908E-05	7.65196E-05	0	0	0	
0.0211667	0.00254672	-0.0016706	4.9841E-05	4.88282E-05	0	0	0	
0.0213333	-0.000790563	0.00109922	3.95023E-05	5.69787E-05	0	0	0	
0.0215	-0.0030961	-0.000382788	5.52605E-05	7.24787E-05	0	0	0	
0.0216667	0.00402984	-0.00243173	6.27944E-05	9.08835E-05	0	0	0	
0.0218333	-0.00229623	-0.00410118	6.94154E-05	9.59786E-05	0	0	0	
0.022	-0.001617	0.00636628	6.48608E-05	0.000114906	0	0	0	
0.0221667	0.00138344	-0.00232454	6.25253E-05	0.000124606	0	0	0	
0.0223333	-0.00218044	-0.00590374	4.69739E-05	0.000124551	0	0	0	
0.0225	0.00473171	0.00821277	5.01531E-05	0.000115425	0	0	0	
0.0226667	-0.000256092	-0.00845392	6.95078E-05	0.000147291	0	0	0	
0.0228333	-0.00160262	-0.00341815	8.31489E-05	0.000152495	0	0	0	
0.023	-0.000769861	0.00334616	8.09986E-05	0.00014672	0	0	0	
0.0231667	0.000648099	-0.00488219	6.43219E-05	0.0001335	0	0	0	
0.0233333	0.000264205	0.00612446	4.85293E-05	0.000138331	0	0	0	
0.0235	-0.00173605	-0.0019666	3.99008E-05	0.000149037	0	0	0	
0.0236667	0.00205465	-0.00416793	5.59397E-05	0.000156757	0	0	0	
0.0238333	-0.000570803	-0.00146979	7.7337E-05	0.00013407	0	0	0	
0.024	-0.000507833	0.00455237	6.74213E-05	0.000108535	0	0	0	
0.0241667	0.00113379	0.000366466	4.86207E-05	6.23335E-05	0	0	0	
0.0243333	-0.0030804	-0.00114491	5.29146E-05	6.04994E-05	0	0	0	
0.0245	0.000102482	-0.00496451	5.81119E-05	7.01144E-05	0	0	0	
0.0246667	0.00349424	0.00685057	6.80074E-05	0.000101997	0	0	0	
0.0248333	-0.00645109	-0.00438731	6.7504E-05	0.000130513	0	0	0	
0.025	0.00211981	0.00297445	9.05181E-05	0.000124801	0	0	0	
0.0251667	-0.00158193	-0.000772938	7.10246E-05	8.8434E-05	0	0	0	
0.0253333	0.00238083	0.000234154	7.95886E-05	5.57669E-05	0	0	0	
0.0255	-0.00360596	-0.00481394	8.94727E-05	5.96706E-05	0	0	0	
0.0256667	0.0035522	0.00444533	0.0001053	8.20015E-05	0	0	0	
0.0258333	-0.000697763	-0.00311577	7.83414E-05	8.57265E-05	0	0	0	
0.026	0.00214638	0.00896513	4.18766E-05	0.00010013	0	0	0	
0.0261667	-0.00555585	-0.00823339	4.30832E-05	0.000129369	0	0	0	
0.0263333	0.000524522	-0.00397103	5.62366E-05	0.000146609	0	0	0	
0.0265	0.00628653	0.000997336	7.51094E-05	0.000146437	0	0	0	
0.0266667	-0.00259798	0.00381877	7.87958E-05	0.000111123	0	0	0	
0.0268333	0.000873926	-0.00381721	8.03224E-05	0.000109673	0	0	0	
0.027	0.00383657	0.00652356	8.46692E-05	0.000110816	0	0	0	
0.0271667	-0.00522096	0.00170482	9.22099E-05	0.000131121	0	0	0	
0.0273333	0.010389	-0.00555816	0.000110055	0.000139567	0	0	0	
0.0275	-0.00816253	-0.00372001	0.000137773	0.000130859	0	0	0	
0.0276667	0.00332121	0.0035283	0.00016964	0.000122232	0	0	0	
0.0278333	0.00483775	0.00147499	0.000163858	0.000106856	0	0	0	
0.028	7.00726E-05	-0.000664111	0.000124437	8.48308E-05	0	0	0	
0.0281667	-0.00466476	-0.00159198	8.37531E-05	5.06642E-05	0	0	0	
0.0283333	0.00667975	0.00237737	8.51665E-05	3.93707E-05	0	0	0	
0.0285	-0.00274093	0.0034203	0.000109146	3.92915E-05	0	0	0	
0.0286667	0.00709279	-0.00210942	0.000144433	7.21167E-05	0	0	0	
0.0288333	-0.00823374	-0.0115506	0.000163158	0.000109797	0	0	0	
0.029	0.00487944	0.00466347	0.000164781	0.000173286	0	0	0	
0.0291667	0.00138518	0.000206158	0.000137796	0.000166401	0	0	0	
0.0293333	0.00272926	-0.00189768	0.000102286	0.000128521	0	0	0	
0.0295	-0.00433724	0.00114251	7.78839E-05	5.81772E-05	0	0	0	
0.0296667	0.00348654	0.00180632	7.18281E-05	3.80585E-05	0	0	0	
0.0298333	0.000714698	-0.00737822	6.0822E-05	7.19606E-05	0	0	0	
0.03	0.000955019	-0.00666625	6.22003E-05	0.000115091	0	0	0	
0.0301667	-0.00428279	0.00560879	7.35333E-05	0.000168234	0	0	0	
0.0303333	0.00932973	0.00502738	9.79232E-05	0.000142702	0	0	0	
0.0305	-0.00746399	-0.00560666	0.000139547	0.000130818	0	0	0	
0.0306667	0.00140531	0.00419737	0.000136315	9.18849E-05	0	0	0	
0.0308333	-0.00138215	0.00155676	0.000112965	9.04204E-05	0	0	0	
0.031	-0.000711861	-0.0024959	6.35717E-05	7.35384E-05	0	0	0	
0.0311667	0.00301967	-0.00289515	5.17381E-05	6.31199E-05	0	0	0	
0.0313333	-0.00190964	0.0051035	5.36422E-05	7.63949E-05	0	0	0	
0.0315	-0.00686768	-0.00395432	8.77399E-05	9.17973E-05	0	0	0	
0.0316667	0.00746346	0.00395834	0.000124674	9.80037E-05	0	0	0	
0.0318333	-0.00605549	0.00175892	0.000149211	8.06632E-05	0	0	0	
0.032	-0.000845488	0.000836463	0.000148769	6.55917E-05	0	0	0	
0.0321667	0.00148112	-0.00270386	9.26874E-05	6.35635E-05	0	0	0	
0.0323333	0.00059438	-0.00151916	9.19863E-05	6.94434E-05	0	0	0	
0.0325	-0.00360388	-0.0054091	8.11564E-05	6.93665E-05	0	0	0	
0.0326667	0.00271243	-0.00284547	0.000105936	0.000105045	0	0	0	
0.0328333	-0.00554505	0.00281854	8.74399E-05	0.000155128	0	0	0	
0.033	0.0119042	0.000683842	0.000108374	0.000184545	0	0	0	
0.0331667	-0.00817252	-0.00388933	0.000144366	0.000158234	0	0	0	
0.0333333	-0.000672338	0.00729503	0.000207699	0.000113972	0	0	0	
0.0335	0.00643071	-0.0144396	0.000223473	0.000140668	0	0	0	
0.0336667	-0.00717015	0.000266564	0.000195852	0.000185891	0	0	0	
0.0338333	0.000968991	0.0133685	0.000156174	0.000282019	0	0	0	
0.034	0.00281789	-0.0132739	0.000112026	0.000311138	0	0	0	
0.0341667	-0.00226546	-0.00117387	0.000104447	0.000310281	0	0	0	
0.0343333	0.00431923	0.0128615	9.82778E-05	0.000336783	0	0	0	
0.0345	-0.0103027	-0.0145372	0.000124667	0.000347821	0	0	0	
0.0346667	0.00758028	0.0110851	0.000149849	0.000341287	0	0	0	
0.0348333	-0.00570408	-0.00504575	0.00015458	0.000238225	0	0	0	
0.035	0.00101122	0.00399794	0.000124294	0.000154515	0	0	0	
0.0351667	-0.00644945	0.00464308	0.000101258	0.000119819	0	0	0	
0.0353333	0.00505161	-0.0146848	9.27436E-05	0.00012478	0	0	0	
0.0355	-0.00510432	0.0159149	9.97888E-05	0.000195986	0	0	0	
0.0356667	1.91881E-06	-0.00737947	8.67222E-05	0.000250702	0	0	0	
0.0358333	0.00154501	-8.07025E-05	5.79519E-05	0.000273662	0	0	0	
0.036	0.000470624	0.0091274	5.78049E-05	0.000235557	0	0	0	
0.0361667	-0.00410322	-0.0102491	7.73478E-05	0.000214767	0	0	0	
0.0363333	0.00106304	0.00899892	8.72412E-05	0.000194744	0	0	0	
0.0365	-0.00102895	-0.00479049	8.02366E-05	0.000193699	0	0	0	
0.0366667	-0.00181775	0.00204802	5.93544E-05	0.000265612	0	0	0	
0.0368333	0.00219774	0.0113201	5.19854E-05	0.000330903	0	0	0	
0.037	0.00137154	-0.0125297	4.972E-05	0.000331278	0	0	0	
0.0371667	-0.00278291	0.00436281	7.09386E-05	0.000258214	0	0	0	
0.0373333	0.00773347	0.0052361	9.35465E-05	0.000217972	0	0	0	
0.0375	-0.00939308	-0.00739332	0.000128924	0.000222314	0	0	0	
0.0376667	0.00583851	0.00664061	0.000128808	0.000194267	0	0	0	
0.0378333	-0.00712625	0.000181075	0.000136727	0.000152345	0	0	0	
0.038	0.00605533	-0.000668824	0.000124591	8.32282E-05	0	0	0	
0.0381667	-0.00365403	-0.00199216	0.000119366	7.67132E-05	0	0	0	
0.0383333	0.00472663	-0.000137999	0.000102989	4.04852E-05	0	0	0	
0.0385	-0.00255188	-0.000703822	8.55306E-05	6.23359E-05	0	0	0	
0.0386667	-0.00197287	0.00176139	7.12382E-05	4.91087E-05	0	0	0	
0.0388333	0.00171074	-0.000613181	8.49846E-05	7.7764E-05	0	0	0	
0.039	0.000340941	-0.00252899	0.000102653	8.01675E-05	0	0	0	
0.0391667	0.000402376	0.000666888	0.0001161	8.01275E-05	0	0	0	
0.0393333	0.00267347	0.00540573	9.73729E-05	7.02425E-05	0	0	0	
0.0395	-0.00307598	-0.00765261	8.34677E-05	0.000101047	0	0	0	
0.0396667	-0.000110243	-0.00317882	7.18268E-05	0.000118928	0	0	0	
0.0398333	0.0013505	0.00356025	6.58499E-05	0.000127854	0	0	0	
0.04	-0.000551716	0.000330576	4.32639E-05	8.90687E-05	0	0	0	
0.0401667	-0.00280918	-0.00155782	3.65178E-05	6.5247E-05	0	0	0	
0.0403333	0.00604042	0.00356565	4.99367E-05	4.76804E-05	0	0	0	
0.0405	-0.00135257	-0.00306187	6.252E-05	5.35675E-05	0	0	0	
0.0406667	-0.00209395	0.00299135	7.23027E-05	6.24774E-05	0	0	0	
0.0408333	-0.000796605	-0.00415173	6.00228E-05	6.85551E-05	0	0	0	
0.041	0.00311108	0.000460409	4.94129E-05	6.87028E-05	0	0	0	
0.0411667	-0.00271385	0.00276367	4.67569E-05	6.66695E-05	0	0	0	
0.0413333	0.00136714	0.00214431	5.87155E-05	6.52449E-05	0	0	0	
0.0415	-0.000275905	-0.00215668	6.03312E-05	6.46795E-05	0	0	0	
0.0416667	0.00222853	0.00288771	4.42525E-05	7.00788E-05	0	0	0	
0.0418333	-0.00211847	0.000446529	3.88121E-05	7.10717E-05	0	0	0	
0.042	0.00185624	0.000720039	4.26147E-05	6.5753E-05	0	0	0	
0.0421667	-0.000812443	-0.00418654	4.9338E-05	8.44781E-05	0	0	0	
0.0423333	0.00200548	0.00244748	5.21532E-05	9.18852E-05	0	0	0	
0.0425	-0.00118275	-0.00150859	5.46983E-05	9.00024E-05	0	0	0	
0.0426667	0.000771371	0.00275033	5.21274E-05	6.17774E-05	0	0	0	
0.0428333	-0.0024669	-0.00377109	4.51049E-05	5.92676E-05	0	0	0	
0.043	0.00293981	0.00555587	4.53542E-05	7.11566E-05	0	0	0	
0.0431667	-0.000913075	-0.00479555	4.46676E-05	0.000106187	0	0	0	
0.0433333	-0.0011221	-6.84734E-05	4.99875E-05	9.6974E-05	0	0	0	
0.0435	0.0028191	-0.00470391	4.84374E-05	9.40622E-05	0	0	0	
0.0436667	0.000425921	0.00340273	4.66118E-05	7.38185E-05	0	0	0	
0.0438333	0.000314974	-0.00411797	3.96286E-05	8.4322E-05	0	0	0	
0.044	-0.00118741	0.0031643	3.42861E-05	8.66321E-05	0	0	0	
0.0441667	0.00196486	0.00438827	7.62534E-05	8.11222E-05	0	0	0	
0.0443333	-0.00112442	0.000804727	0.000115742	8.73936E-05	0	0	0	
0.0445	0.000476834	-0.0155221	0.000111942	0.000130995	0	0	0	
0.0446667	0.00567453	0.0132985	0.000142571	0.000241016	0	0	0	
0.0448333	-0.0103332	-0.014955	0.000173102	0.000292284	0	0	0	
0.045	0.0132932	0.0147799	0.000233472	0.000329506	0	0	0	
0.0451667	-0.0107685	0.00056739	0.000272865	0.000298087	0	0	0	
0.0453333	0.00479209	-0.00800335	0.000299298	0.000250617	0	0	0	
0.0455	0.00368378	0.0050939	0.00029898	0.000187973	0	0	0	
0.0456667	-0.0108561	-0.00744996	0.000215951	0.000162752	0	0	0	
0.0458333	0.00791992	-0.000968101	0.000173154	0.000195588	0	0	0	
0.046	0.00366761	0.0140724	0.000178034	0.000233536	0	0	0	
0.0461667	-0.00973536	-0.014663	0.000216728	0.000274221	0	0	0	
0.0463333	0.00892701	0.00266308	0.000217653	0.000252261	0	0	0	
0.0465	-0.00796601	0.00220115	0.000190762	0.000217507	0	0	0	
0.0466667	0.0059245	0.00341858	0.000157649	0.000146581	0	0	0	
0.0468333	-0.00663386	-0.00522067	0.000127747	0.000133051	0	0	0	
0.047	0.00583298	0.00566028	0.000119787	0.000116214	0	0	0	
0.0471667	-0.00348658	-0.0033126	0.000108153	0.000107049	0	0	0	
0.0473333	-0.00334298	-0.00419487	0.000102632	9.37774E-05	0	0	0	
0.0475	0.00287603	0.00339621	8.96456E-05	9.61172E-05	0	0	0	
0.0476667	0.00131662	0.00656256	8.74382E-05	8.86653E-05	0	0	0	
0.0478333	-0.00538217	-0.004214	0.00010471	0.000120208	0	0	0	
0.048	0.00228486	-0.000567406	0.000117157	9.6095E-05	0	0	0	
0.0481667	-0.00334404	-0.00110508	0.00010587	9.21962E-05	0	0	0	
0.0483333	0.000699881	-0.00162043	8.07602E-05	7.2917E-05	0	0	0	
0.0485	-0.00178399	-1.56642E-05	4.92164E-05	9.2562E-05	0	0	0	
0.0486667	-0.000127949	0.00314193	4.6865E-05	8.58715E-05	0	0	0	
0.0488333	0.000904944	-0.000456122	3.78173E-05	7.53786E-05	0	0	0	
0.049	-0.00297515	0.00373983	5.25079E-05	5.22735E-05	0	0	0	
0.0491667	-0.000528468	-0.00699072	5.03259E-05	7.67203E-05	0	0	0	
0.0493333	0.000263011	0.00314646	4.91087E-05	9.03525E-05	0	0	0	
0.0495	0.00284994	0.000196666	4.51632E-05	0.000108306	0	0	0	
0.0496667	-0.00300838	0.00162305	5.06575E-05	9.36373E-05	0	0	0	
0.0498333	-0.0009357	-0.00380725	7.65467E-05	0.000112296	0	0	0	
0.05	0.0027596	-0.000375498	0.000105107	0.000117145	0	0	0	
0.0501667	-0.00507129	0.000599393	0.000109085	0.000131953	0	0	0	
0.0503333	0.00334404	0.0029565	0.000105081	9.62121E-05	0	0	0	
0.0505	-0.000517788	-0.000751841	6.91216E-05	9.00968E-05	0	0	0	
0.0506667	-0.000442309	0.0013635	5.23875E-05	6.42404E-05	0	0	0	
0.0508333	0.00215532	-0.00410632	3.48298E-05	7.79653E-05	0	0	0	
0.051	-0.00328421	0.000900551	5.22741E-05	7.37067E-05	0	0	0	
0.0511667	0.0035389	-0.00264219	6.31E-05	7.67912E-05	0	0	0	
0.0513333	0.00189428	-0.000138885	8.36595E-05	0.000103045	0	0	0	
0.0515	-0.00247083	0.00272698	0.000102486	0.000142194	0	0	0	
0.0516667	0.0032009	0.000214405	0.000102746	0.000148059	0	0	0	
0.0518333	-0.00346503	-0.00623009	8.14385E-05	0.000132332	0	0	0	
0.052	0.00685464	0.00827748	7.22676E-05	0.000147074	0	0	0	
0.0521667	-0.00518768	0.000337513	9.69304E-05	0.000145833	0	0	0	
0.0523333	0.000899761	-0.00721741	9.48592E-05	0.000141598	0	0	0	
0.0525	0.00182318	0.00359223	7.3294E-05	0.00011473	0	0	0	
0.0526667	0.0034035	0.00281956	6.2643E-05	0.000120308	0	0	0	
0.0528333	-0.00364791	-0.00719731	7.25206E-05	0.000126604	0	0	0	
0.053	-0.0017071	0.00547679	6.8183E-05	0.000151149	0	0	0	
0.0531667	0.00162194	0.00300298	4.93522E-05	0.00019143	0	0	0	
0.0533333	-0.000807514	-0.00114536	4.5298E-05	0.000189338	0	0	0	
0.0535	-0.00203026	-0.00627611	4.08718E-05	0.000153357	0	0	0	
0.0536667	-0.000867561	0.00430053	4.37923E-05	0.000122121	0	0	0	
0.0538333	0.00262172	-7.34576E-05	3.76533E-05	9.94013E-05	0	0	0	
0.054	-0.00305023	-0.00459459	4.64626E-05	8.85766E-05	0	0	0	
0.0541667	-0.00154915	0.00504272	4.54588E-05	9.08103E-05	0	0	0	
0.0543333	0.0019547	0.00123346	4.77983E-05	9.09109E-05	0	0	0	
0.0545	0.000117065	-0.00488611	4.77932E-05	0.000100844	0	0	0	
0.0546667	-0.00175058	0.00257961	3.76991E-05	9.05326E-05	0	0	0	
0.0548333	-0.00247152	-7.02757E-05	4.35097E-05	7.57928E-05	0	0	0	
0.055	0.00566807	-0.00244901	5.02442E-05	5.57731E-05	0	0	0	
0.0551667	-0.00386066	-0.00458069	9.34947E-05	4.4731E-05	0	0	0	
0.0553333	0.00297289	0.00619218	0.000105074	9.10849E-05	0	0	0	
0.0555	-0.00224064	0.00162612	0.000100116	0.000107672	0	0	0	
0.0556667	0.000230526	-0.00462295	7.25884E-05	0.000122259	0	0	0	
0.0558333	0.00257975	0.00377887	7.29751E-05	9.17266E-05	0	0	0	
0.056	-0.000885919	-0.00575495	6.90456E-05	0.000100034	0	0	0	
0.0561667	-0.00361919	-0.000597975	5.87166E-05	9.13444E-05	0	0	0	
0.0563333	0.00397677	0.00763063	5.52204E-05	0.000105133	0	0	0	
0.0565	-0.00101893	-0.00803133	6.1092E-05	0.000130335	0	0	0	
0.0566667	0.000499102	0.0033396	7.47965E-05	0.000167819	0	0	0	
0.0568333	-0.00210336	-0.00107529	7.8036E-05	0.000155174	0	0	0	
0.057	0.00471669	0.0041322	9.14346E-05	0.000118565	0	0	0	
0.0571667	-0.00335361	0.000236802	9.91007E-05	8.09994E-05	0	0	0	
0.0573333	0.00166339	0.00269695	8.0297E-05	9.6649E-05	0	0	0	
0.0575	-0.00246746	-0.000435634	5.84056E-05	0.000102961	0	0	0	
0.0576667	0.00113469	-0.00537241	3.6346E-05	0.000106806	0	0	0	
0.0578333	0.00140282	0.00515548	2.74253E-05	0.000131222	0	0	0	
0.058	-0.000733479	0.00246474	2.85666E-05	0.000145172	0	0	0	
0.0581667	-0.000474484	-0.00402495	5.93529E-05	0.00014484	0	0	0	
0.0583333	0.00276472	0.00769872	8.69227E-05	0.000114821	0	0	0	
0.0585	-0.00476598	-0.00804796	0.000100129	0.000126693	0	0	0	
0.0586667	0.00239519	0.00378573	9.23676E-05	0.000131957	0	0	0	
0.0588333	-0.00104007	-0.00166283	9.18305E-05	0.000123377	0	0	0	
0.059	0.00211847	-0.00373329	9.98334E-05	8.23732E-05	0	0	0	
0.0591667	0.00357921	0.00326483	9.8492E-05	6.92347E-05	0	0	0	
0.0593333	-0.00414853	-0.00441398	9.45493E-05	8.9937E-05	0	0	0	
0.0595	0.00140923	-0.00726279	7.97374E-05	9.76742E-05	0	0	0	
0.0596667	-0.00043633	0.00840083	6.14699E-05	0.0001294	0	0	0	
0.0598333	0.00213019	-0.0048744	5.11374E-05	0.000130179	0	0	0	
0.06	-0.000233028	-0.00158579	4.37685E-05	0.000118386	0	0	0	
0.0601667	0.00183819	0.00196328	4.79002E-05	8.47735E-05	0	0	0	
0.0603333	0.00291884	-0.00568351	3.99014E-05	7.44578E-05	0	0	0	
0.0605	-0.0049652	-0.00379776	5.47866E-05	9.99076E-05	0	0	0	
0.0606667	0.00350797	0.0039357	7.26944E-05	0.000128377	0	0	0	
0.0608333	0.00032442	-0.000113821	6.94815E-05	0.000161424	0	0	0	
0.061	0.000115716	-0.000596409	4.43803E-05	0.000172113	0	0	0	
0.0611667	0.00282959	-0.00412769	2.34003E-05	0.000131135	0	0	0	
0.0613333	-0.00331126	0.000813773	3.56999E-05	7.73483E-05	0	0	0	
0.0615	0.0027483	-0.00530808	5.47833E-05	4.84609E-05	0	0	0	
0.0616667	0.000334674	0.00523735	7.72695E-05	7.33848E-05	0	0	0	
0.0618333	-0.00199725	-0.00151848	8.97157E-05	8.80097E-05	0	0	0	
0.062	0.00160023	-0.00808189	8.9531E-05	9.62102E-05	0	0	0	
0.0621667	0.000268912	0.00528229	6.65503E-05	0.000109583	0	0	0	
0.0623333	0.00267722	0.00299161	4.15109E-05	0.000105737	0	0	0	
0.0625	-0.00142234	-0.00316905	3.46515E-05	0.000106506	0	0	0	
0.0626667	-0.00262044	-0.000397317	3.64381E-05	8.94353E-05	0	0	0	
0.0628333	0.00537424	0.000623631	6.18751E-05	8.437E-05	0	0	0	
0.063	-0.0022336	-0.00278129	7.18655E-05	8.40151E-05	0	0	0	
0.0631667	-0.00125176	-0.00614361	6.96419E-05	8.56486E-05	0	0	0	
0.0633333	0.000555524	0.00714823	4.66353E-05	0.00011263	0	0	0	
0.0635	0.00068858	0.00319061	3.47458E-05	0.000112715	0	0	0	
0.0636667	0.00202063	-0.0023414	3.44074E-05	0.000110185	0	0	0	
0.0638333	-0.0026583	-0.0010695	3.2452E-05	7.61239E-05	0	0	0	
0.064	0.00310938	0.00186798	4.88912E-05	5.07165E-05	0	0	0	
0.0641667	-0.00159718	-0.00652984	5.47777E-05	6.65987E-05	0	0	0	
0.0643333	-0.000202703	0.00493846	6.5045E-05	8.80438E-05	0	0	0	
0.0645	-0.00197993	-0.00872373	5.25675E-05	0.000136347	0	0	0	
0.0646667	0.00346989	0.00900725	5.55578E-05	0.000178695	0	0	0	
0.0648333	-0.000841697	0.00658894	6.12108E-05	0.000184387	0	0	0	
0.065	0.00314935	-0.00518461	6.29853E-05	0.000188932	0	0	0	
0.0651667	-0.00439684	-0.011871	6.33099E-05	0.000150529	0	0	0	
0.0653333	0.000940107	0.0163674	6.67555E-05	0.000207783	0	0	0	
0.0655	0.00293318	-0.0131119	7.87378E-05	0.000237981	0	0	0	
0.0656667	-0.00150424	0.0077685	6.46392E-05	0.000267589	0	0	0	
0.0658333	-0.00260309	0.00800202	7.23576E-05	0.000210914	0	0	0	
0.066	0.00564096	-0.00209661	7.35703E-05	0.000183216	0	0	0	
0.0661667	-0.00387144	-0.00247078	0.000102184	0.000129662	0	0	0	
0.0663333	0.0026867	0.00507429	8.24005E-05	0.000123055	0	0	0	
0.0665	-0.00182614	-0.00789329	6.8209E-05	0.000138696	0	0	0	
0.0666667	7.14403E-05	0.00510513	4.15775E-05	0.000192118	0	0	0	
0.0668333	0.00169411	5.51793E-06	3.02147E-05	0.000173937	0	0	0	
0.067	-0.00120246	0.00678035	3.43286E-05	0.000158332	0	0	0	
0.0671667	-0.00181154	-0.00158445	5.02588E-05	0.000122053	0	0	0	
0.0673333	0.00213061	0.00115106	6.67519E-05	0.00013702	0	0	0	
0.0675	-0.00233852	0.00162745	6.065E-05	9.42957E-05	0	0	0	
0.0676667	0.00265383	0.00174509	5.02448E-05	8.13461E-05	0	0	0	
0.0678333	-0.00380726	-0.00751409	6.32405E-05	0.000103051	0	0	0	
0.068	0.00366401	0.00154815	7.54031E-05	0.000148388	0	0	0	
0.0681667	-0.00052841	0.00551872	7.81084E-05	0.000177051	0	0	0	
0.0683333	-0.0052155	-0.000460018	6.44467E-05	0.000151508	0	0	0	
0.0685	0.00210296	-0.00575791	6.82207E-05	0.000113634	0	0	0	
0.0686667	0.00307801	0.00913982	9.52127E-05	0.000107687	0	0	0	
0.0688333	-0.00102833	-0.00474995	0.000100104	0.000145591	0	0	0	
0.069	-0.0018684	-0.00294531	8.45097E-05	0.00015108	0	0	0	
0.0691667	-0.00199719	-0.00394921	4.90745E-05	0.00012145	0	0	0	
0.0693333	0.00190519	0.00641464	3.8456E-05	0.000115424	0	0	0	
0.0695	0.00274254	0.00300994	3.83368E-05	0.000110395	0	0	0	
0.0696667	-0.00171795	-0.00345898	4.59437E-05	0.00011383	0	0	0	
0.0698333	-0.00440739	0.000571264	5.31202E-05	6.50762E-05	0	0	0	
0.07	0.00437764	0.0013717	7.3105E-05	4.24789E-05	0	0	0	
0.0701667	-0.00523527	-0.00490108	9.35148E-05	5.05625E-05	0	0	0	
0.0703333	0.00122108	-0.000709063	9.29095E-05	6.85667E-05	0	0	0	
0.0705	0.00133067	0.00155875	7.4032E-05	9.09601E-05	0	0	0	
0.0706667	-0.000164348	0.00548726	5.02073E-05	8.31512E-05	0	0	0	
0.0708333	-0.000920744	-0.00418262	3.95456E-05	9.74344E-05	0	0	0	
0.071	-0.00181265	-0.00052279	4.86664E-05	0.000103955	0	0	0	
0.0711667	-0.000102435	-0.00021123	6.01949E-05	8.69746E-05	0	0	0	
0.0713333	0.0013608	0.00400351	6.30468E-05	6.21126E-05	0	0	0	
0.0715	-0.00189072	-0.00497977	4.95459E-05	5.62833E-05	0	0	0	
0.0716667	0.00143845	-0.000620338	3.84468E-05	8.78884E-05	0	0	0	
0.0718333	-0.000260986	0.0066396	3.88313E-05	0.00010746	0	0	0	
0.072	0.000294448	-0.00785287	3.65762E-05	0.000125852	0	0	0	
0.0721667	7.19756E-05	0.00243816	4.81025E-05	0.000132441	0	0	0	
0.0723333	0.000753025	0.00322618	4.70284E-05	0.000110895	0	0	0	
0.0725	-0.00144266	-0.00273413	4.9785E-05	9.47537E-05	0	0	0	
0.0726667	0.00388535	0.00479525	3.98402E-05	8.30599E-05	0	0	0	
0.0728333	0.00118478	-0.00150541	5.34362E-05	8.4243E-05	0	0	0	
0.073	-0.00104882	0.0037597	6.94103E-05	7.94083E-05	0	0	0	
0.0731667	-0.00208169	-0.00368261	6.97901E-05	7.39746E-05	0	0	0	
0.0733333	0.00265675	0.00111044	7.45411E-05	8.54357E-05	0	0	0	
0.0735	-0.00250817	-0.000132245	6.21129E-05	7.40505E-05	0	0	0	
0.0736667	0.00404205	0.00313025	6.91848E-05	6.46829E-05	0	0	0	
0.0738333	0.00082413	0.00128585	5.87924E-05	6.84193E-05	0	0	0	
0.074	0.000294825	0.00482396	5.0507E-05	8.1507E-05	0	0	0	
0.0741667	0.000631966	-0.00964401	3.6652E-05	0.000121175	0	0	0	
0.0743333	-0.00485516	0.000670805	3.4855E-05	0.000133527	0	0	0	
0.0745	0.00260102	-0.00144738	5.92082E-05	0.000129033	0	0	0	
0.0746667	-0.00162971	0.00743348	6.70748E-05	0.000131472	0	0	0	
0.0748333	0.00424901	-0.00363801	6.55216E-05	0.000129372	0	0	0	
0.075	0.000163515	0.00447681	5.14503E-05	0.000129158	0	0	0	
0.0751667	-0.00349357	-0.00542193	5.25766E-05	0.000113714	0	0	0	
0.0753333	0.00236182	-0.00198366	6.05799E-05	0.000118013	0	0	0	
0.0755	-0.00323807	-0.0018806	6.35648E-05	0.000126271	0	0	0	
0.0756667	0.00371771	0.0100386	7.77676E-05	0.000134586	0	0	0	
0.0758333	-0.00420285	-0.00906504	8.70722E-05	0.000173126	0	0	0	
0.076	0.00259066	-0.00244003	9.37354E-05	0.000197757	0	0	0	
0.0761667	-0.000516587	0.00346222	7.13285E-05	0.000193641	0	0	0	
0.0763333	-0.00113455	0.00348971	4.12386E-05	0.000140375	0	0	0	
0.0765	0.00129684	-0.00369062	2.89777E-05	0.000105467	0	0	0	
0.0766667	0.000759654	0.01092	2.7404E-05	0.000115847	0	0	0	
0.0768333	-0.00136497	-0.00980282	3.28656E-05	0.000170336	0	0	0	
0.077	-0.000761893	-0.000685441	4.28867E-05	0.000184389	0	0	0	
0.0771667	-0.00309597	0.00850396	7.80982E-05	0.000161668	0	0	0	
0.0773333	0.0037428	-0.00562875	0.000101292	0.000128353	0	0	0	
0.0775	-0.00411852	0.00257027	0.000106015	0.000142712	0	0	0	
0.0776667	0.00220582	0.00388617	9.30377E-05	0.000120305	0	0	0	
0.0778333	-0.0015358	-0.00152195	7.37631E-05	0.00010209	0	0	0	
0.078	-0.000186613	0.00271396	6.02651E-05	6.01859E-05	0	0	0	
0.0781667	0.000556129	-0.000671956	4.9632E-05	8.10666E-05	0	0	0	
0.0783333	0.00173954	-0.00262974	5.42487E-05	9.91932E-05	0	0	0	
0.0785	-0.00389693	0.000148451	5.3033E-05	0.000115028	0	0	0	
0.0786667	0.00120423	0.00234994	5.07322E-05	9.01371E-05	0	0	0	
0.0788333	0.00137668	-0.00374059	4.67941E-05	6.50756E-05	0	0	0	
0.079	-0.00298677	0.00615547	4.31195E-05	6.78116E-05	0	0	0	
0.0791667	0.00251546	-0.0100906	5.02685E-05	0.000115646	0	0	0	
0.0793333	-0.000280205	0.00306329	5.60093E-05	0.000125849	0	0	0	
0.0795	-0.000281988	0.000331892	7.09314E-05	0.000115787	0	0	0	
0.0796667	0.00336306	-0.000891396	5.9168E-05	6.57232E-05	0	0	0	
0.0798333	-0.00433623	5.92463E-05	6.33749E-05	3.88923E-05	0	0	0	
0.08	0.00354391	-0.00289565	6.40593E-05	3.6987E-05	0	0	0	
0.0801667	-0.00357715	-0.0020854	7.31268E-05	4.25036E-05	0	0	0	
0.0803333	0.000455172	0.00386916	6.738E-05	7.0324E-05	0	0	0	
0.0805	0.000720348	-7.20167E-05	5.84003E-05	9.11616E-05	0	0	0	
0.0806667	0.0020594	0.0010354	5.39998E-05	8.54343E-05	0	0	0	
0.0808333	-0.00353822	-0.00509166	5.72629E-05	7.49933E-05	0	0	0	
0.081	0.000244342	0.00368921	5.48561E-05	8.29171E-05	0	0	0	
0.0811667	-2.52201E-05	-0.00179929	4.49634E-05	0.000104111	0	0	0	
0.0813333	0.00278964	-0.000252459	3.50995E-05	8.97435E-05	0	0	0	
0.0815	-0.00235098	0.00262338	3.17054E-05	6.59713E-05	0	0	0	
0.0816667	0.000763312	0.0018283	3.72275E-05	7.18767E-05	0	0	0	
0.0818333	-0.00124715	-0.00463456	3.52014E-05	0.000102034	0	0	0	
0.082	0.00319666	-0.000658858	5.04309E-05	0.000109442	0	0	0	
0.0821667	-0.00240942	0.00044927	4.78346E-05	9.50809E-05	0	0	0	
0.0823333	0.0046007	0.00821853	7.7243E-05	9.89477E-05	0	0	0	
0.0825	-0.00160353	-0.0122468	7.81689E-05	0.000171114	0	0	0	
0.0826667	0.00261313	0.00912286	7.63758E-05	0.000221219	0	0	0	
0.0828333	-0.000651764	-0.00321088	7.74604E-05	0.000227684	0	0	0	
0.083	-0.0054318	-0.00641621	8.99591E-05	0.00022061	0	0	0	
0.0831667	0.0037383	0.00884485	0.000113258	0.000202013	0	0	0	
0.0833333	0.00177184	-0.00380614	0.000103076	0.000191315	0	0	0	
0.0835	0.00151963	0.00502553	9.42856E-05	0.000162758	0	0	0	
0.0836667	-0.000946727	-0.00441161	9.12054E-05	0.000191449	0	0	0	
0.0838333	-0.00237287	-0.00558713	8.20563E-05	0.000202306	0	0	0	
0.084	0.00224712	0.0141768	6.36334E-05	0.000210062	0	0	0	
0.0841667	0.000784753	-0.0102987	7.23741E-05	0.000244585	0	0	0	
0.0843333	-0.00299278	0.00658684	8.6172E-05	0.000276999	0	0	0	
0.0845	0.00112822	-0.00529093	8.90442E-05	0.00025547	0	0	0	
0.0846667	0.00113638	0.000629912	5.68942E-05	0.000165479	0	0	0	
0.0848333	-0.00316359	0.0012705	3.72949E-05	9.24505E-05	0	0	0	
0.085	0.00191585	0.00746363	4.5736E-05	6.11776E-05	0	0	0	
0.0851667	0.000310741	-0.00347344	5.41254E-05	8.44714E-05	0	0	0	
0.0853333	-0.00156884	0.00461473	5.25842E-05	8.34808E-05	0	0	0	
0.0855	-0.00186839	-0.00898498	3.86134E-05	0.000112395	0	0	0	
0.0856667	-0.000481318	0.00293241	4.35026E-05	0.000107831	0	0	0	
0.0858333	-5.27828E-05	0.00428482	4.66649E-05	0.00012334	0	0	0	
0.086	0.000962139	0.00336059	4.95986E-05	0.000105004	0	0	0	
0.0861667	-0.00250618	-0.00442249	4.57958E-05	9.88298E-05	0	0	0	
0.0863333	0.000489523	0.00335551	3.8425E-05	8.40076E-05	0	0	0	
0.0865	-0.00114968	-0.00537217	3.55563E-05	9.61729E-05	0	0	0	
0.0866667	-3.74801E-06	0.00121394	3.05258E-05	8.67985E-05	0	0	0	
0.0868333	-0.00117594	0.000186133	2.59063E-05	8.37451E-05	0	0	0	
0.087	0.000560537	0.00216897	2.12058E-05	6.31693E-05	0	0	0	
0.0871667	0.00261846	0.000403307	2.0614E-05	5.41884E-05	0	0	0	
0.0873333	-0.000578612	0.003021	2.75221E-05	5.29194E-05	0	0	0	
0.0875	-0.000419044	-0.00730988	3.51328E-05	8.24257E-05	0	0	0	
0.0876667	0.00304979	0.00170782	3.61902E-05	9.78076E-05	0	0	0	
0.0878333	-0.00148057	-0.000761594	4.56943E-05	9.29465E-05	0	0	0	
0.088	0.00259864	0.000205022	4.6348E-05	5.71793E-05	0	0	0	
0.0881667	-0.00221256	-0.000931559	6.71459E-05	2.88221E-05	0	0	0	
0.0883333	0.00179331	0.00601169	7.49821E-05	5.18853E-05	0	0	0	
0.0885	0.000602072	-0.00587708	7.07478E-05	9.16018E-05	0	0	0	
0.0886667	0.00395083	-0.00194818	5.00405E-05	0.000129554	0	0	0	
0.0888333	-0.00294268	0.00212982	5.36079E-05	0.000135116	0	0	0	
0.089	0.00388305	0.00480618	6.75242E-05	0.000100809	0	0	0	
0.0891667	-0.00173988	-0.0111438	9.43574E-05	9.91871E-05	0	0	0	
0.0893333	-0.000401963	0.0110784	7.77082E-05	0.000140181	0	0	0	
0.0895	0.000947579	-0.00150381	6.05335E-05	0.000166495	0	0	0	
0.0896667	0.00160455	-0.00714582	3.10877E-05	0.000144597	0	0	0	
0.0898333	-0.00109231	0.00574485	3.44573E-05	0.000122149	0	0	0	
0.09	0.00157343	0.00110286	4.03353E-05	9.49431E-05	0	0	0	
0.0901667	0.000628011	-0.00590332	4.71775E-05	0.000101669	0	0	0	
0.0903333	0.000607063	0.00678437	3.51291E-05	0.000133387	0	0	0	
0.0905	-0.000300673	-0.00273735	2.75251E-05	0.000177248	0	0	0	
0.0906667	-0.000611252	-0.00264904	1.91744E-05	0.000159579	0	0	0	
0.0908333	-0.00145333	0.00108805	1.97549E-05	0.000126249	0	0	0	
0.091	0.00230289	0.00143549	2.83374E-05	0.000111413	0	0	0	
0.0911667	-0.000951276	-0.000605472	3.33192E-05	0.000122605	0	0	0	
0.0913333	-0.000467169	0.00244611	4.82822E-05	9.29168E-05	0	0	0	
0.0915	0.00186306	-0.00121342	5.277E-05	5.30845E-05	0	0	0	
0.0916667	-0.00197903	-0.00325558	5.13406E-05	5.69966E-05	0	0	0	
0.0918333	0.000851817	0.00243891	3.97053E-05	8.16972E-05	0	0	0	
0.092	0.00194045	0.00510022	2.99884E-05	0.000118244	0	0	0	
0.0921667	-0.00403039	-0.00999603	4.5491E-05	0.000147116	0	0	0	
0.0923333	0.00410183	0.00763488	5.73696E-05	0.000173002	0	0	0	
0.0925	-0.00317002	0.000686112	7.16967E-05	0.000170675	0	0	0	
0.0926667	0.00181216	0.000457396	5.93628E-05	0.000131369	0	0	0	
0.0928333	-0.000993048	-0.00591987	5.35104E-05	0.000102286	0	0	0	
0.093	0.00188899	0.00513101	4.94742E-05	0.000118349	0	0	0	
0.0931667	-0.00183408	-0.000909486	6.04591E-05	0.000137264	0	0	0	
0.0933333	0.000973517	-0.00416743	5.09608E-05	0.000130316	0	0	0	
0.0935	9.90669E-05	0.00261531	3.96352E-05	0.000104596	0	0	0	
0.0936667	0.00222984	0.00453921	2.27366E-05	8.97224E-05	0	0	0	
0.0938333	-0.003546	-0.00744639	3.46179E-05	0.000101511	0	0	0	
0.094	-0.000549662	0.000198661	3.90552E-05	0.000106122	0	0	0	
0.0941667	0.00275046	0.00115557	4.66421E-05	0.000103466	0	0	0	
0.0943333	0.00235058	0.00289176	4.88492E-05	7.04612E-05	0	0	0	
0.0945	-0.00256412	-0.00136477	5.88385E-05	6.49117E-05	0	0	0	
0.0946667	0.00139654	-0.00637963	5.83087E-05	8.79885E-05	0	0	0	
0.0948333	0.000421507	-0.00164337	5.84842E-05	0.000105811	0	0	0	
0.095	0.00079806	0.00635853	5.17396E-05	0.000109313	0	0	0	
0.0951667	-0.000543312	-0.00372592	4.35724E-05	0.000122485	0	0	0	
0.0953333	0.00102614	-0.00203701	3.01654E-05	0.000126956	0	0	0	
0.0955	0.000383259	0.00611127	2.65965E-05	0.000122425	0	0	0	
0.0956667	0.00058972	-0.00752804	3.29579E-05	0.000134914	0	0	0	
0.0958333	-0.0034146	-0.00625894	3.99487E-05	0.000157644	0	0	0	
0.096	0.00778828	0.00860521	7.06234E-05	0.000193996	0	0	0	
0.0961667	-0.000423734	-0.00197546	8.30866E-05	0.000198579	0	0	0	
0.0963333	-0.00374122	-0.00140855	7.94383E-05	0.000198835	0	0	0	
0.0965	-0.000742242	-0.00210638	8.59506E-05	0.000170416	0	0	0	
0.0966667	0.00564266	0.00400299	0.000109636	0.000112255	0	0	0	
0.0968333	-0.00448198	-0.00418634	0.000125586	9.77309E-05	0	0	0	
0.097	0.00229211	0.00210358	0.00011088	0.000100699	0	0	0	
0.0971667	4.13372E-05	0.005808	8.09501E-05	0.000113816	0	0	0	
0.0973333	0.00150656	-0.00593461	5.93011E-05	0.000121298	0	0	0	
0.0975	0.002977	0.00383713	4.63603E-05	0.000121699	0	0	0	
0.0976667	-0.00334192	-0.00135944	5.59018E-05	0.000121046	0	0	0	
0.0978333	-0.00108703	-0.00400437	6.02511E-05	9.81472E-05	0	0	0	
0.098	-0.000318239	0.00661776	5.51131E-05	0.000109931	0	0	0	
0.0981667	0.00103161	-0.000348425	5.27072E-05	0.000124354	0	0	0	
0.0983333	0.00167501	0.00123621	7.55518E-05	0.000115308	0	0	0	
0.0985	-7.48672E-05	0.00390645	9.14111E-05	8.35501E-05	0	0	0	
0.0986667	0.000345623	-0.00610938	7.88055E-05	8.91633E-05	0	0	0	
0.0988333	-0.00448956	-0.000892158	6.74668E-05	9.97357E-05	0	0	0	
0.099	0.00199336	0.00772826	6.09064E-05	0.000128764	0	0	0	
0.0991667	-1.23935E-05	0.000114983	7.09253E-05	0.000121185	0	0	0	
0.0993333	-0.00157345	-0.00287184	5.67767E-05	0.000112964	0	0	0	
0.0995	0.00129272	0.00389684	4.58719E-05	8.64642E-05	0	0	0	
0.0996667	0.00135524	-0.00165306	3.58034E-05	9.01255E-05	0	0	0	
0.0998333	-0.00431697	-0.0017215	4.62602E-05	0.000104028	0	0	0	
0.1	0.00204693	0.00505456	5.54399E-05	0.000113138	0	0	0	
0.100167	-0.000949238	-0.00265851	5.81372E-05	0.000109167	0	0	0	
0.100333	-3.18055E-05	0.00472639	4.56801E-05	9.30468E-05	0	0	0	
0.1005	-0.000957717	-0.00446245	4.34125E-05	0.000101585	0	0	0	
0.100667	0.00310297	-0.00190604	4.80765E-05	7.59271E-05	0	0	0	
0.100833	-0.00342978	5.40398E-05	5.94871E-05	9.83093E-05	0	0	0	
0.101	0.00275088	-0.00150903	7.30013E-05	9.5134E-05	0	0	0	
0.101167	-0.00163261	-0.00383441	8.48545E-05	0.000104809	0	0	0	
0.101333	0.00210593	0.00870599	8.51299E-05	0.000107837	0	0	0	
0.1015	-0.00173828	-0.00333462	6.39055E-05	0.000134742	0	0	0	
0.101667	0.00194271	-0.00125835	4.35386E-05	0.000141059	0	0	0	
0.101833	-0.00211913	-0.00789169	4.3991E-05	0.000130011	0	0	0	
0.102	0.00278047	0.00508677	5.03142E-05	0.000114488	0	0	0	
0.102167	-0.0017973	-0.00508944	6.04501E-05	0.000117118	0	0	0	
0.102333	0.00350546	0.00260446	5.84761E-05	0.000117924	0	0	0	
0.1025	-0.00117562	-5.91648E-05	5.70475E-05	8.7995E-05	0	0	0	
0.102667	0.00182517	-0.00138097	5.12295E-05	8.30558E-05	0	0	0	
0.102833	-0.00245924	-0.00509405	4.86845E-05	7.58263E-05	0	0	0	
0.103	0.00222763	0.00577486	4.56271E-05	0.000101007	0	0	0	
0.103167	0.00254406	-0.00113529	5.37964E-05	0.000100981	0	0	0	
0.103333	-0.000927469	-0.000776933	5.70183E-05	8.26286E-05	0	0	0	
0.1035	-0.00043816	-0.00368392	5.45224E-05	5.19194E-05	0	0	0	
0.103667	0.00392427	0.00212062	4.9403E-05	4.70481E-05	0	0	0	
0.103833	-0.00315858	-0.00275867	5.4154E-05	5.63635E-05	0	0	0	
0.104	0.00260835	0.0027311	5.84242E-05	7.32449E-05	0	0	0	
0.104167	-0.001261	-0.000480836	5.46756E-05	7.51065E-05	0	0	0	
0.104333	0.00331224	0.00133168	5.50686E-05	7.32858E-05	0	0	0	
0.1045	-0.000595131	-0.00133537	5.60509E-05	6.73453E-05	0	0	0	
0.104667	0.0018811	0.00525587	5.39396E-05	8.28933E-05	0	0	0	
0.104833	-0.00195781	-0.0081118	4.89382E-05	0.000126201	0	0	0	
0.105	0.00233255	0.00669829	4.6185E-05	0.000139141	0	0	0	
0.105167	-0.00481957	-0.00186124	5.48253E-05	0.000142048	0	0	0	
0.105333	0.00549421	0.00563746	7.00244E-05	0.000123633	0	0	0	
0.1055	-0.00115003	-0.0038985	7.73289E-05	0.000118421	0	0	0	
0.105667	-0.00061477	0.00383761	6.7462E-05	0.000103821	0	0	0	
0.105833	-0.00118106	-0.00414571	4.09023E-05	8.57229E-05	0	0	0	
0.106	0.00361294	0.00677636	3.1229E-05	9.31043E-05	0	0	0	
0.106167	-0.00239749	-0.00631368	3.82324E-05	0.000109382	0	0	0	
0.106333	0.0014315	-4.9996E-05	4.39023E-05	0.000114619	0	0	0	
0.1065	-0.00180709	0.00154589	4.49408E-05	9.41122E-05	0	0	0	
0.106667	0.003337	0.00346326	3.54601E-05	5.91591E-05	0	0	0	
0.106833	-0.00382336	-0.00974249	5.18632E-05	7.97095E-05	0	0	0	
0.107	0.00282905	0.00282955	6.31175E-05	0.000140778	0	0	0	
0.107167	-0.00326469	0.00171469	9.07841E-05	0.000154158	0	0	0	
0.107333	0.00734875	-0.00499064	9.04371E-05	0.000156063	0	0	0	
0.1075	-0.00263245	-0.00604175	0.000104949	0.000129395	0	0	0	
0.107667	-5.21303E-06	0.0140287	8.31873E-05	0.000181746	0	0	0	
0.107833	-0.00142838	-0.00580154	8.17334E-05	0.000225025	0	0	0	
0.108	0.00176739	-0.00711411	7.20732E-05	0.000229401	0	0	0	
0.108167	0.000127377	0.00328522	6.38161E-05	0.000206304	0	0	0	
0.108333	0.00167859	0.00229371	4.83529E-05	0.000141774	0	0	0	
0.1085	-0.00196837	-0.0019406	3.65376E-05	0.000111526	0	0	0	
0.108667	0.000388154	-0.000521905	4.25033E-05	0.000100815	0	0	0	
0.108833	-0.00130539	-0.00123777	4.11369E-05	0.000113419	0	0	0	
0.109	0.00228694	0.00223028	3.86916E-05	9.83571E-05	0	0	0	
0.109167	-9.86449E-06	0.0052105	4.70368E-05	7.53835E-05	0	0	0	
0.109333	0.00168525	-0.00531945	4.72191E-05	7.46289E-05	0	0	0	
0.1095	-0.0029217	-4.81446E-05	4.86993E-05	0.000107363	0	0	0	
0.109667	0.00285962	0.00549675	5.14809E-05	0.00012135	0	0	0	
0.109833	-0.00314574	-0.00915134	6.28002E-05	0.000132045	0	0	0	
0.11	0.00108619	0.00461117	5.95363E-05	0.000156577	0	0	0	
0.110167	0.00110243	-0.000236968	4.23754E-05	0.000164287	0	0	0	
0.110333	0.00024399	0.000432105	2.96671E-05	0.000128585	0	0	0	
0.1105	-0.00488723	-0.000423971	3.5419E-05	8.08028E-05	0	0	0	
0.110667	0.00680509	0.00390964	6.71468E-05	5.79065E-05	0	0	0	
0.110833	-0.00203389	0.00363631	8.56069E-05	9.99018E-05	0	0	0	
0.111	-0.00258826	-0.0113015	7.67012E-05	0.000172086	0	0	0	
0.111167	-0.000615968	0.00350502	5.26252E-05	0.000213218	0	0	0	
0.111333	-0.000583539	-0.000483111	3.23354E-05	0.000169838	0	0	0	
0.1115	0.00134897	0.00331196	4.7894E-05	0.000114909	0	0	0	
0.111667	0.00113092	-0.000872028	9.25659E-05	0.000115145	0	0	0	
0.111833	-0.00418061	-0.00161119	0.000129067	0.000138622	0	0	0	
0.112	0.00156167	0.00284997	0.000122153	0.000140921	0	0	0	
0.112167	-0.00180427	-0.00269841	0.000121006	0.000168747	0	0	0	
0.112333	-0.000134957	0.00581936	0.000127907	0.000181868	0	0	0	
0.1125	0.00210149	-0.00302185	0.000130651	0.000187866	0	0	0	
0.112667	-0.00387402	0.000277489	9.35087E-05	0.000113462	0	0	0	
0.112833	0.00015471	-0.00649076	6.02415E-05	0.000102224	0	0	0	
0.113	0.00122646	0.00778341	4.40419E-05	0.000115256	0	0	0	
0.113167	-0.00218798	-0.0001964	4.121E-05	0.000146862	0	0	0	
0.113333	0.00328497	-1.59336E-05	4.05065E-05	0.000116324	0	0	0	
0.1135	-0.0034645	0.00321116	6.01889E-05	8.62557E-05	0	0	0	
0.113667	0.00119775	-0.00541429	5.96548E-05	0.000100883	0	0	0	
0.113833	-0.0028192	-0.000495021	5.43751E-05	0.000128828	0	0	0	
0.114	0.00149014	0.00451995	4.34076E-05	0.000111658	0	0	0	
0.114167	0.00221826	-0.00401473	4.84383E-05	8.30244E-05	0	0	0	
0.114333	-0.0004533	0.00565169	5.12785E-05	9.36062E-05	0	0	0	
0.1145	-0.00339474	-0.00485308	5.1149E-05	0.000124868	0	0	0	
0.114667	0.00224194	-0.00146146	5.63977E-05	0.000118963	0	0	0	
0.114833	0.000644145	0.00301272	5.60375E-05	9.19337E-05	0	0	0	
0.115	0.000763012	-0.0040596	4.76234E-05	8.34829E-05	0	0	0	
0.115167	-0.00144479	0.00213746	2.69326E-05	7.64181E-05	0	0	0	
0.115333	0.00318877	0.00452019	3.14097E-05	7.57951E-05	0	0	0	
0.1155	-0.00297795	-0.0087266	4.99865E-05	9.4345E-05	0	0	0	
0.115667	-0.000436115	-0.00121728	5.75262E-05	0.000131756	0	0	0	
0.115833	0.00213512	0.00274851	6.23701E-05	0.000137317	0	0	0	
0.116	-0.000333914	-0.00542772	4.60845E-05	0.000122689	0	0	0	
0.116167	0.00125127	0.00284663	3.99193E-05	0.000115317	0	0	0	
0.116333	0.00309178	0.00585858	3.02838E-05	0.000126461	0	0	0	
0.1165	-0.00143036	-0.00464722	5.42326E-05	0.00015692	0	0	0	
0.116667	-0.000197597	-0.00430925	6.50995E-05	0.000182308	0	0	0	
0.116833	-0.00244492	-0.00376371	6.29343E-05	0.000166054	0	0	0	
0.117	0.00156489	6.32053E-05	5.42802E-05	0.000120074	0	0	0	
0.117167	-0.000424791	0.000925219	4.02907E-05	7.37901E-05	0	0	0	
0.117333	0.00115876	0.00476669	4.16178E-05	6.35961E-05	0	0	0	
0.1175	0.000859563	-0.000490521	2.81539E-05	6.82588E-05	0	0	0	
0.117667	-0.000181744	-0.00218163	3.01814E-05	7.26016E-05	0	0	0	
0.117833	-0.00252534	-0.000672737	2.67314E-05	8.36846E-05	0	0	0	
0.118	0.00134075	-0.00169658	3.71022E-05	6.17774E-05	0	0	0	
0.118167	-0.00358946	0.00168074	4.69264E-05	4.62032E-05	0	0	0	
0.118333	0.00213457	0.00144615	6.36878E-05	3.59443E-05	0	0	0	
0.1185	-0.000971485	0.000481831	4.92059E-05	4.96783E-05	0	0	0	
0.118667	0.00109918	0.00104061	4.29624E-05	6.14228E-05	0	0	0	
0.118833	-0.00151838	0.00241791	2.47128E-05	6.96084E-05	0	0	0	
0.119	0.000245	0.0069632	2.94415E-05	7.43694E-05	0	0	0	
0.119167	-0.00558029	-0.0105873	5.20778E-05	0.000109916	0	0	0	
0.119333	0.00726654	0.0106394	9.78674E-05	0.000158992	0	0	0	
0.1195	-0.0049056	-0.00304717	0.000112278	0.000173605	0	0	0	
0.119667	-0.000883158	0.000672076	0.000117861	0.000151454	0	0	0	
0.119833	0.00199279	-0.000711787	6.9795E-05	0.000101178	0	0	0	
0.12	0.00115216	0.00408329	8.07419E-05	9.48384E-05	0	0	0	
0.120167	-0.00423412	0.0026803	6.58633E-05	0.000100858	0	0	0	
0.120333	-0.00173864	0.00300334	8.16301E-05	0.000138103	0	0	0	
0.1205	0.000427162	-0.00520846	7.15169E-05	0.000181244	0	0	0	
0.120667	0.002849	0.00856281	8.88818E-05	0.000193991	0	0	0	
0.120833	-0.00242007	-0.00591334	8.79549E-05	0.000166806	0	0	0	
0.121	-0.00129933	0.00303446	8.24906E-05	0.000131794	0	0	0	
0.121167	0.000903763	0.00119823	5.36945E-05	9.23102E-05	0	0	0	
0.121333	-0.000691827	0.00223328	5.5529E-05	7.58066E-05	0	0	0	
0.1215	0.000388156	0.00295109	4.68059E-05	6.21912E-05	0	0	0	
0.121667	-0.0018852	-0.0038235	4.28879E-05	8.0014E-05	0	0	0	
0.121833	0.00181078	0.000976108	3.17704E-05	8.28244E-05	0	0	0	
0.122	0.00191578	0.00443861	2.72222E-05	8.63341E-05	0	0	0	
0.122167	-0.00247162	-0.00725228	3.94115E-05	9.3605E-05	0	0	0	
0.122333	0.00160997	0.00374672	4.37192E-05	0.00013725	0	0	0	
0.1225	0.000431202	0.00358598	4.39709E-05	0.000144524	0	0	0	
0.122667	-0.00191361	-0.00377267	4.51715E-05	0.00013666	0	0	0	
0.122833	0.00311281	-0.00155275	5.32487E-05	0.000101463	0	0	0	
0.123	0.000198587	0.00389555	5.48609E-05	0.00010445	0	0	0	
0.123167	-0.000110298	-0.00401639	5.0583E-05	0.00010528	0	0	0	
0.123333	0.000696047	-0.0048938	3.52765E-05	0.000123125	0	0	0	
0.1235	-0.000455244	0.00955813	3.21458E-05	0.000146671	0	0	0	
0.123667	0.00211344	-0.000899646	3.18708E-05	0.000151892	0	0	0	
0.123833	-0.00814993	-0.00492238	4.54532E-05	0.000127242	0	0	0	
0.124	0.00882226	0.0106258	9.58587E-05	0.000120703	0	0	0	
0.124167	-0.00194996	-0.00870837	0.00013548	0.000144479	0	0	0	
0.124333	-0.00607848	-0.00490993	0.000164887	0.000159077	0	0	0	
0.1245	0.00713993	0.0100449	0.000150931	0.00016911	0	0	0	
0.124667	-0.004836	-0.0047366	0.000136664	0.000157459	0	0	0	
0.124833	-0.00197724	0.00196074	0.000127675	0.000149037	0	0	0	
0.125	0.00457392	0.00463771	0.000128949	0.000115009	0	0	0	
0.125167	-0.00684695	-0.00451131	0.000133217	0.000104383	0	0	0	
0.125333	0.00582838	-0.00286149	0.000134175	0.00010877	0	0	0	
0.1255	-0.00245359	0.00247686	0.000130101	0.000109246	0	0	0	
0.125667	-0.000802287	-0.00266703	0.000133628	0.000134041	0	0	0	
0.125833	0.0015221	-0.00126019	0.000112127	0.000164208	0	0	0	
0.126	-0.00177754	0.00354127	8.71718E-05	0.000160867	0	0	0	
0.126167	1.56988E-05	-0.0026345	5.244E-05	0.000140269	0	0	0	
0.126333	0.00117993	0.00291541	4.59315E-05	9.98464E-05	0	0	0	
0.1265	0.000565177	-0.00665053	4.94773E-05	0.000111044	0	0	0	
0.126667	0.000859919	-0.00183659	5.0722E-05	9.74002E-05	0	0	0	
0.126833	-0.00272107	0.00040656	4.98506E-05	0.000104928	0	0	0	
0.127	0.00309476	-0.00149481	4.37247E-05	6.81532E-05	0	0	0	
0.127167	-0.00158571	-0.000160995	4.71863E-05	5.85146E-05	0	0	0	
0.127333	-0.00171133	0.00244129	4.34417E-05	7.2073E-05	0	0	0	
0.1275	0.00235536	-0.000261958	4.48065E-05	0.00010714	0	0	0	
0.127667	-0.00135029	-0.00237836	4.26886E-05	0.00010353	0	0	0	
0.127833	-0.000340321	-0.00391808	5.53661E-05	0.000119249	0	0	0	
0.128	0.00120393	0.00653028	6.34508E-05	0.00014016	0	0	0	
0.128167	7.64467E-05	-0.00314534	5.92458E-05	0.000166684	0	0	0	
0.128333	-0.00140955	-0.00352669	4.5645E-05	0.000164062	0	0	0	
0.1285	0.000341777	0.0042726	3.10659E-05	0.000154199	0	0	0	
0.128667	0.00167036	0.000514408	2.50192E-05	0.000126462	0	0	0	
0.128833	-0.00472833	-0.00505294	4.27912E-05	0.000101285	0	0	0	
0.129	0.0042611	0.00567546	6.77348E-05	8.64824E-05	0	0	0	
0.129167	-0.0006644	-0.000857385	8.33952E-05	0.000104004	0	0	0	
0.129333	-0.00131775	-0.00140755	6.59126E-05	9.28392E-05	0	0	0	
0.1295	0.0016974	-0.00200547	4.1444E-05	6.4607E-05	0	0	0	
0.129667	-0.000540028	0.00101246	3.04488E-05	4.48589E-05	0	0	0	
0.129833	-0.000784885	-0.000761999	3.48637E-05	3.9543E-05	0	0	0	
0.13	0.00388641	0.00321325	4.39836E-05	7.10346E-05	0	0	0	
0.130167	-0.00581296	-0.00449619	6.02203E-05	0.000100401	0	0	0	
0.130333	0.0012069	-0.00029119	7.38315E-05	0.000118808	0	0	0	
0.1305	0.00178419	0.00223599	7.48222E-05	0.000111667	0	0	0	
0.130667	-0.000775866	-0.00191168	5.51088E-05	8.97027E-05	0	0	0	
0.130833	-0.00154907	0.00131576	3.7562E-05	7.58081E-05	0	0	0	
0.131	0.00353052	0.00433452	3.39853E-05	5.30886E-05	0	0	0	
0.131167	-0.00286844	-0.00599531	4.46665E-05	7.68551E-05	0	0	0	
0.131333	-2.65079E-05	0.00430801	4.7665E-05	8.32877E-05	0	0	0	
0.1315	0.000218888	-0.00408285	3.80975E-05	0.000109204	0	0	0	
0.131667	-0.000392474	0.00085749	2.69551E-05	7.01695E-05	0	0	0	
0.131833	-0.00105888	-0.00256152	2.26559E-05	6.00956E-05	0	0	0	
0.132	0.0013513	0.00887723	4.48847E-05	7.08722E-05	0	0	0	
0.132167	-0.00411329	0.00149038	7.11618E-05	0.000101878	0	0	0	
0.132333	0.00510812	-0.0012607	8.63788E-05	0.000116537	0	0	0	
0.1325	-0.00163869	-0.000589066	8.43501E-05	8.35348E-05	0	0	0	
0.132667	0.000906614	0.00313791	6.70861E-05	5.30111E-05	0	0	0	
0.132833	-0.00671682	-0.00577839	7.70464E-05	6.63167E-05	0	0	0	
0.133	0.00308288	0.00537213	8.59258E-05	9.90879E-05	0	0	0	
0.133167	-0.00157887	0.0017051	8.15661E-05	0.000159352	0	0	0	
0.133333	0.00362033	0.0112838	7.35115E-05	0.000189328	0	0	0	
0.1335	-0.0057832	-0.0129309	7.1395E-05	0.000230404	0	0	0	
0.133667	-0.000195719	0.00984121	8.60357E-05	0.000222497	0	0	0	
0.133833	0.00179171	-0.0045203	6.94603E-05	0.000199968	0	0	0	
0.134	0.00266899	0.00111331	0.000100915	0.000134768	0	0	0	
0.134167	-0.00673346	-0.000265196	0.000109599	7.66951E-05	0	0	0	
0.134333	0.00249135	0.00264587	0.000139087	4.83033E-05	0	0	0	
0.1345	0.000261355	0.00966694	8.51529E-05	8.17882E-05	0	0	0	
0.134667	0.00717088	-0.00620523	6.89379E-05	0.000156109	0	0	0	
0.134833	-0.00356067	-0.00242741	7.14942E-05	0.000159584	0	0	0	
0.135	-0.00615658	0.002638	0.000114297	0.000117269	0	0	0	
0.135167	0.00821951	0.000258803	0.000165145	5.10658E-05	0	0	0	
0.135333	0.0128054	-0.00213562	0.000270319	4.37257E-05	0	0	0	
0.1355	-0.0142326	0.00114365	0.0003086	6.8048E-05	0	0	0	
0.135667	0.00507082	0.00996308	0.000310331	8.61639E-05	0	0	0	
0.135833	-0.00424613	-0.0057845	0.00022293	0.000143333	0	0	0	
0.136	0.0214672	-0.00440374	0.000249017	0.000163585	0	0	0	
0.136167	-0.00637513	0.00981811	0.000298645	0.000173216	0	0	0	
0.136333	-0.0438378	-0.00202898	0.000543365	0.000165019	0	0	0	
0.1365	0.0592102	-0.00361215	0.000735442	0.000179767	0	0	0	
0.136667	0.00429388	-0.00143098	0.00110519	0.000154754	0	0	0	
0.136833	-0.0469021	0.00650622	0.00124233	0.000170592	0	0	0	
0.137	0.0295325	-0.004875	0.00113466	0.00016064	0	0	0	
0.137167	-0.00623548	0.00445802	0.000827532	0.000183606	0	0	0	
0.137333	0.0044864	-0.00957201	0.000448695	0.000153081	0	0	0	
0.1375	0.00629589	0.017737	0.000397126	0.000168162	0	0	0	
0.137667	-0.0334986	-0.00423419	0.000486309	0.000209013	0	0	0	
0.137833	0.0452161	-0.0283277	0.000642721	0.000268064	0	0	0	
0.138	-0.00511735	0.048436	0.000872711	0.000411021	0	0	0	
0.138167	-0.03705	-0.0273823	0.000996796	0.00073967	0	0	0	
0.138333	0.0320201	-0.030474	0.000968643	0.00131607	0	0	0	
0.1385	0.00938926	0.0747156	0.000826649	0.00165866	0	0	0	
0.138667	-0.0219885	-0.0642108	0.00053467	0.00166165	0	0	0	
0.138833	-0.000308002	0.0265248	0.00050695	0.00132003	0	0	0	
0.139	0.0104088	0.00841729	0.000382681	0.00110661	0	0	0	
0.139167	0.00404244	-0.0426236	0.000326158	0.00102168	0	0	0	
0.139333	-0.00896999	0.0809061	0.000219924	0.001077	0	0	0	
0.1395	-0.0011071	-0.0690572	0.000172656	0.00118445	0	0	0	
0.139667	0.00474287	0.0170794	0.000157893	0.00132883	0	0	0	
0.139833	-0.000902627	0.022335	0.000131015	0.00137422	0	0	0	
0.14	-0.00343837	-0.0299658	8.30618E-05	0.00112102	0	0	0	
0.140167	-0.000251506	0.013632	6.05224E-05	0.000789271	0	0	0	
0.140333	0.000406138	0.00577961	3.94568E-05	0.000389981	0	0	0	
0.1405	0.00168893	0.00457776	3.6009E-05	0.000249757	0	0	0	
0.140667	-0.00437657	-0.0127694	4.10524E-05	0.000157379	0	0	0	
0.140833	-0.000355666	0.00404762	6.9733E-05	0.000232084	0	0	0	
0.141	0.00622939	0.00649733	0.000115496	0.000260762	0	0	0	
0.141167	-0.00809807	-0.00560524	0.000138021	0.000251616	0	0	0	
0.141333	0.00319201	0.00525558	0.000143139	0.00021529	0	0	0	
0.1415	-0.000899601	0.00145037	0.000114225	0.000143848	0	0	0	
0.141667	0.00190672	0.00627613	8.5347E-05	0.000162417	0	0	0	
0.141833	-0.00143678	-0.0106803	5.88721E-05	0.000128447	0	0	0	
0.142	-0.00583754	0.00609469	5.48312E-05	0.000191429	0	0	0	
0.142167	0.0104306	0.00173844	8.99708E-05	0.000265363	0	0	0	
0.142333	-0.00198571	-0.00428479	0.000167988	0.000250732	0	0	0	
0.1425	-0.00772471	0.0323026	0.000274466	0.000339732	0	0	0	
0.142667	0.00640606	-0.00398009	0.000288395	0.000390626	0	0	0	
0.142833	0.00175194	-0.0188063	0.000215898	0.000488354	0	0	0	
0.143	0.00227412	0.0293865	0.000115374	0.000502317	0	0	0	
0.143167	-0.00355721	-0.0236193	7.08003E-05	0.000517817	0	0	0	
0.143333	0.000265376	-0.00647772	0.000140243	0.000458413	0	0	0	
0.1435	0.0165534	0.0336422	0.000218938	0.000426595	0	0	0	
0.143667	-0.0184376	0.011059	0.000307271	0.000406239	0	0	0	
0.143833	0.00159859	-0.0339057	0.000325818	0.000519305	0	0	0	
0.144	0.00965534	0.0204971	0.00033332	0.000580618	0	0	0	
0.144167	-0.00739128	0.00347836	0.000271249	0.000530141	0	0	0	
0.144333	0.00818073	-0.0135632	0.00024424	0.000468373	0	0	0	
0.1445	-0.00271693	0.00972321	0.000181075	0.00035133	0	0	0	
0.144667	-0.000495536	-0.00182461	0.00015791	0.000317345	0	0	0	
0.144833	0.000238925	-0.000764818	0.000105999	0.0002542	0	0	0	
0.145	-0.0051462	0.00412846	6.58585E-05	0.000187435	0	0	0	
0.145167	-0.00204077	-0.00546519	7.821E-05	0.0001574	0	0	0	
0.145333	0.0116771	-0.000510695	0.000114338	0.000158275	0	0	0	
0.1455	-0.00849096	0.0110808	0.000149293	0.000178343	0	0	0	
0.145667	-0.00195215	-0.00688833	0.000175806	0.000210163	0	0	0	
0.145833	0.00735074	-0.00138666	0.000148663	0.000197792	0	0	0	
0.146	-0.0015633	0.0155032	0.000141737	0.000211645	0	0	0	
0.146167	-0.00961761	-0.00894354	0.000144134	0.000209738	0	0	0	
0.146333	0.00888131	-0.00140497	0.000164377	0.000193476	0	0	0	
0.1465	0.00110483	0.00186629	0.000153053	0.000152932	0	0	0	
0.146667	-0.00461959	0.00658993	0.000104647	8.34458E-05	0	0	0	
0.146833	-0.00233049	-0.00662321	8.98149E-05	0.00010584	0	0	0	
0.147	0.0100769	0.00414353	0.000100337	0.000118359	0	0	0	
0.147167	-0.0101533	0.00746385	0.000160503	0.000159496	0	0	0	
0.147333	0.00111466	-0.00319952	0.000189472	0.000157714	0	0	0	
0.1475	0.00189319	-0.00159842	0.000204686	0.000130802	0	0	0	
0.147667	-0.0093534	0.0018021	0.000159919	7.96816E-05	0	0	0	
0.147833	0.00534179	-0.0027124	0.000145934	7.1707E-05	0	0	0	
0.148	0.0035607	-0.00254088	0.000135705	0.00011456	0	0	0	
0.148167	-0.010578	0.00836487	0.000174936	0.000145507	0	0	0	
0.148333	0.0124302	-0.00281829	0.000183738	0.000165345	0	0	0	
0.1485	-0.00930539	-0.00296454	0.000242903	0.000155824	0	0	0	
0.148667	-0.0109311	0.00548314	0.000316712	0.000147401	0	0	0	
0.148833	0.0131565	-0.0062029	0.000327986	0.000146498	0	0	0	
0.149	0.000596327	0.0036443	0.00030801	0.000128079	0	0	0	
0.149167	-0.0119272	-0.0080186	0.000236056	0.000149056	0	0	0	
0.149333	0.00739466	0.000712577	0.000227393	0.000132584	0	0	0	
0.1495	-0.0108523	0.0030546	0.000188458	0.000158161	0	0	0	
0.149667	0.0131296	-0.000295527	0.000196996	0.00014138	0	0	0	
0.149833	-0.00222465	0.000191228	0.000223662	0.000106711	0	0	0	
0.15	-0.00588674	0.00201284	0.000271208	7.01479E-05	0	0	0	
0.150167	0.000391309	-0.0115625	0.000227278	9.4678E-05	0	0	0	
0.150333	0.000794822	0.00465894	0.000166458	0.00015458	0	0	0	
0.1505	-0.00473474	-0.000498458	0.000108143	0.000162196	0	0	0	
0.150667	0.00546852	0.00413364	0.000113408	0.000114521	0	0	0	
0.150833	-0.00300443	-0.00687404	9.68277E-05	8.63916E-05	0	0	0	
0.151	0.0038888	0.00354751	8.07327E-05	9.84547E-05	0	0	0	
0.151167	-0.00567268	0.000843526	8.81512E-05	9.30759E-05	0	0	0	
0.151333	0.000526319	-0.00340816	8.53306E-05	6.82158E-05	0	0	0	
0.1515	0.00303037	0.00385149	8.00585E-05	6.34846E-05	0	0	0	
0.151667	0.0043629	-0.00254143	8.30333E-05	9.22787E-05	0	0	0	
0.151833	-0.0137074	-0.00323603	0.000147931	9.12678E-05	0	0	0	
0.152	0.00819062	0.00722853	0.000194071	0.000113241	0	0	0	
0.152167	0.00805496	-0.000983786	0.000236622	0.00010492	0	0	0	
0.152333	-0.0113938	-0.00337433	0.000227043	0.000101414	0	0	0	
0.1525	0.00344796	0.00286006	0.000203507	7.62597E-05	0	0	0	
0.152667	-0.00137029	0.00336959	0.000154882	0.000104717	0	0	0	
0.152833	0.00269903	-0.00699739	0.000122261	0.000132648	0	0	0	
0.153	-0.00163926	0.00763651	0.000128423	0.000144649	0	0	0	
0.153167	-0.00161931	-0.00899848	0.000110855	0.000143724	0	0	0	
0.153333	0.00109566	0.00312734	8.80134E-05	0.000143183	0	0	0	
0.1535	0.00264038	0.003958	6.3486E-05	0.000134132	0	0	0	
0.153667	-0.00325256	-0.00355091	5.50173E-05	0.000100274	0	0	0	
0.153833	0.0022125	5.11933E-05	5.98554E-05	0.000106189	0	0	0	
0.154	0.000514463	0.00575858	4.91953E-05	0.000150179	0	0	0	
0.154167	0.00092589	-0.00856002	4.02672E-05	0.000204437	0	0	0	
0.154333	-0.00135475	0.00387912	2.35E-05	0.000211625	0	0	0	
0.1545	0.00379724	-0.00297043	4.80774E-05	0.000151544	0	0	0	
0.154667	-0.00462511	-0.00305555	9.58293E-05	8.81041E-05	0	0	0	
0.154833	0.0041932	0.00716768	0.000115333	5.56557E-05	0	0	0	
0.155	0.00462093	-0.0048206	9.94789E-05	8.75325E-05	0	0	0	
0.155167	-0.00215965	0.00455286	7.79054E-05	0.000119513	0	0	0	
0.155333	-0.00257243	-0.00377251	8.89501E-05	0.000157945	0	0	0	
0.1555	-0.00273333	0.000716261	9.08986E-05	0.000130244	0	0	0	
0.155667	0.0109395	0.00247282	0.000113915	0.00015875	0	0	0	
0.155833	-0.0108803	-0.00715472	0.000153692	0.000186053	0	0	0	
0.156	0.00464621	0.0082494	0.000183709	0.000218108	0	0	0	
0.156167	-4.59594E-05	-0.00351052	0.000152767	0.00018194	0	0	0	
0.156333	-0.00175086	0.00323918	9.44292E-05	0.000112527	0	0	0	
0.1565	-0.000455422	-0.0032772	8.90611E-05	7.46675E-05	0	0	0	
0.156667	0.0064479	0.00732683	0.000122891	0.000108262	0	0	0	
0.156833	-0.0102869	-0.0139716	0.000175918	0.000227567	0	0	0	
0.157	0.00417844	-0.00265499	0.000182464	0.000310272	0	0	0	
0.157167	0.000725491	0.0318274	0.000134521	0.000354789	0	0	0	
0.157333	-0.000395107	-0.0335534	6.94875E-05	0.000478794	0	0	0	
0.1575	-0.00409296	0.00630554	4.86975E-05	0.000549018	0	0	0	
0.157667	0.00654787	0.0316336	7.6054E-05	0.000565311	0	0	0	
0.157833	-0.00468108	-0.0182496	0.00011847	0.000522828	0	0	0	
0.158	0.00395654	-0.0136016	0.000143639	0.000544921	0	0	0	
0.158167	-0.00500166	0.000610332	0.000148465	0.00063758	0	0	0	
0.158333	0.0010819	0.015779	0.000124084	0.000453147	0	0	0	
0.1585	0.00527556	0.00122259	8.44857E-05	0.00045697	0	0	0	
0.158667	0.00141825	-0.00172362	9.69244E-05	0.000291972	0	0	0	
0.158833	-0.00657851	-0.000732975	0.000145971	0.000414427	0	0	0	
0.159	0.00382357	-0.0105171	0.000156161	0.000304939	0	0	0	
0.159167	0.00336006	0.0333019	0.000119209	0.000451952	0	0	0	
0.159333	-0.00403752	-0.030576	7.30204E-05	0.000514221	0	0	0	
0.1595	0.00339212	0.00319511	6.77914E-05	0.000516231	0	0	0	
0.159667	-0.00145907	0.00623504	6.30658E-05	0.000359688	0	0	0	
0.159833	-0.00236882	-0.00583742	7.68492E-05	0.000175074	0	0	0	
0.16	0.00414566	0.00392386	9.43516E-05	0.000151768	0	0	0	
0.160167	-0.00207137	0.00730272	9.78297E-05	0.000169588	0	0	0	
0.160333	-0.000448482	0.00252709	8.25846E-05	0.000174853	0	0	0	
0.1605	0.00104366	-0.01214	6.86554E-05	0.000173812	0	0	0	
0.160667	-0.000441901	0.00474367	6.04319E-05	0.000168115	0	0	0	
0.160833	0.000479437	-0.00187652	4.73031E-05	0.000178812	0	0	0	
0.161	-0.00104541	0.00973064	3.71629E-05	0.000187372	0	0	0	
0.161167	-0.000142083	-0.0139399	4.11369E-05	0.000200628	0	0	0	
0.161333	0.00224415	0.0119668	4.67385E-05	0.000229432	0	0	0	
0.1615	-0.00424658	-0.000923168	5.47148E-05	0.000243744	0	0	0	
0.161667	0.00261109	-0.00742111	6.43807E-05	0.000225732	0	0	0	
0.161833	0.000472261	0.0119957	6.36762E-05	0.000205962	0	0	0	
0.162	9.11424E-05	-0.00672415	4.89325E-05	0.000234709	0	0	0	
0.162167	-0.0027731	-0.0014774	4.84582E-05	0.000292447	0	0	0	
0.162333	0.00267244	0.00648018	4.59295E-05	0.000272553	0	0	0	
0.1625	-0.0025074	-0.00893494	5.25374E-05	0.000213624	0	0	0	
0.162667	0.00302343	0.00441785	4.71845E-05	0.000156985	0	0	0	
0.162833	-0.00506552	0.00444847	5.38761E-05	0.000178063	0	0	0	
0.163	-0.000652244	-0.0145877	6.00144E-05	0.000175295	0	0	0	
0.163167	0.00292441	0.0170182	5.49664E-05	0.00022599	0	0	0	
0.163333	-0.00104182	-0.00768364	4.50922E-05	0.000256899	0	0	0	
0.1635	-0.00316975	-0.00629241	3.52694E-05	0.000244799	0	0	0	
0.163667	0.00223213	0.0103876	4.0157E-05	0.000194128	0	0	0	
0.163833	-0.00366736	-0.00627737	5.74374E-05	0.000149052	0	0	0	
0.164	0.00371768	-0.00521201	7.44035E-05	0.000142345	0	0	0	
0.164167	-0.000435905	0.00913898	6.95372E-05	0.00013214	0	0	0	
0.164333	-0.00093379	-0.00990386	5.19972E-05	0.000162474	0	0	0	
0.1645	-0.00216867	0.00432582	3.18176E-05	0.000195584	0	0	0	
0.164667	0.00403525	0.00030135	4.58482E-05	0.000157865	0	0	0	
0.164833	-0.00151227	0.00051409	5.94568E-05	8.97052E-05	0	0	0	
0.165	0.000780622	-0.00278573	5.9017E-05	4.44669E-05	0	0	0	
0.165167	-0.00105794	0.00309584	5.09005E-05	5.20445E-05	0	0	0	
0.165333	-0.000790086	-0.00801587	7.09619E-05	6.89251E-05	0	0	0	
0.1655	9.19741E-05	0.00385695	8.70035E-05	9.72705E-05	0	0	0	
0.165667	0.00245113	0.00324579	9.16813E-05	0.000101422	0	0	0	
0.165833	-0.000727348	0.000627737	7.34059E-05	8.89607E-05	0	0	0	
0.166	-0.000298158	-0.00303353	6.13503E-05	7.02309E-05	0	0	0	
0.166167	-0.00565065	-0.00111519	5.61846E-05	9.80245E-05	0	0	0	
0.166333	0.0100217	7.61621E-05	9.2191E-05	0.000106218	0	0	0	
0.1665	-0.00450294	-0.00177234	0.000120665	9.56413E-05	0	0	0	
0.166667	0.000326794	0.0073229	0.000129886	8.87503E-05	0	0	0	
0.166833	0.00138252	-0.00248989	8.25064E-05	0.000115625	0	0	0	
0.167	-0.00166641	0.000587881	5.63197E-05	0.00010651	0	0	0	
0.167167	0.00128871	-0.00359045	4.60557E-05	9.63907E-05	0	0	0	
0.167333	-0.00055917	-0.00122636	4.29177E-05	6.87291E-05	0	0	0	
0.1675	0.000622434	0.000275873	5.03467E-05	9.75731E-05	0	0	0	
0.167667	0.00165472	0.00456059	4.94095E-05	9.3422E-05	0	0	0	
0.167833	-0.00165553	-0.00736572	5.26414E-05	0.000145888	0	0	0	
0.168	0.00105637	0.00834508	4.32129E-05	0.000187442	0	0	0	
0.168167	-0.00238907	-0.00780611	4.88399E-05	0.000229647	0	0	0	
0.168333	0.00258786	0.00446189	5.56601E-05	0.000194876	0	0	0	
0.1685	-0.000575808	-0.00545312	5.36517E-05	0.000159063	0	0	0	
0.168667	0.000300955	-0.000546563	4.73957E-05	0.000115862	0	0	0	
0.168833	-0.00391166	0.00397186	5.28029E-05	8.98116E-05	0	0	0	
0.169	0.00531443	-0.00280289	7.16884E-05	8.37706E-05	0	0	0	
0.169167	-0.00258551	0.000630425	8.42842E-05	7.2038E-05	0	0	0	
0.169333	0.000650592	-0.00287814	7.576E-05	8.60547E-05	0	0	0	
0.1695	-0.00109325	0.000631801	7.50333E-05	0.000106501	0	0	0	
0.169667	0.000735546	0.00595799	7.05345E-05	0.000139027	0	0	0	
0.169833	0.00175106	-0.0114342	6.54836E-05	0.000173427	0	0	0	
0.17	0.00259481	0.00564044	6.2223E-05	0.000207288	0	0	0	
0.170167	-0.00708935	-0.00225876	7.6693E-05	0.000215989	0	0	0	
0.170333	0.00600327	-0.000676733	0.000103962	0.000164312	0	0	0	
0.1705	0.00104675	-0.00133918	0.000107662	0.000107197	0	0	0	
0.170667	-0.00279797	-0.000933337	7.82323E-05	0.000121788	0	0	0	
0.170833	0.00131891	-0.000280968	6.58591E-05	0.000196593	0	0	0	
0.171	-0.000679088	0.00854179	6.06139E-05	0.000226866	0	0	0	
0.171167	0.0266055	-0.0239852	0.000150641	0.000247613	0	0	0	
0.171333	-0.0148567	0.00488772	0.000356402	0.000382226	0	0	0	
0.1715	-0.129565	0.0648976	0.00124859	0.00073881	0	0	0	
0.171667	0.270409	-0.0843857	0.00215595	0.00108198	0	0	0	
0.171833	-0.849775	0.238676	0.00681077	0.00312039	0	0	0	
0.172	0.235261	-0.10625	0.0111476	0.0054487	0	0	0	
0.172167	0.118722	-0.0697753	0.0127522	0.00616519	0	0	0	
0.172333	-0.126732	0.082105	0.00868078	0.00433424	0	0	0	
0.1725	0.0748425	-0.0495033	0.00414301	0.00202935	0	0	0	
0.172667	0.0604258	-0.042972	0.00264077	0.00141446	0	0	0	
0.172833	-0.626524	0.312947	0.00403526	0.00187117	0	0	0	
0.173	0.359179	-0.323121	0.00935074	0.00449529	0	0	0	
0.173167	-0.235645	0.104418	0.0102273	0.00501889	0	0	0	
0.173333	0.0410876	-0.0168105	0.00896919	0.00472424	0	0	0	
0.1735	0.0525138	-0.0214568	0.00364245	0.0019941	0	0	0	
0.173667	0.00278681	0.00350078	0.00179492	0.0010144	0	0	0	
0.173833	-0.0658765	0.0145154	0.00106227	0.000507767	0	0	0	
0.174	0.0704123	-0.0235048	0.000936757	0.000390543	0	0	0	
0.174167	-0.00330881	0.0019184	0.00156335	0.000628801	0	0	0	
0.174333	-0.0365375	0.00879977	0.00175567	0.000765339	0	0	0	
0.1745	0.0199267	-0.00243969	0.00132814	0.000575212	0	0	0	
0.174667	-0.00077512	0.000361978	0.000688714	0.00033023	0	0	0	
0.174833	-0.00474813	-0.00117683	0.000344641	0.000193516	0	0	0	
0.175	-0.121251	0.0125175	0.000565534	0.00044634	0	0	0	
0.175167	0.247493	-0.1361	0.00168005	0.00111887	0	0	0	
0.175333	-0.14483	0.125536	0.00359413	0.00187543	0	0	0	
0.1755	0.0584501	-0.0110451	0.00377177	0.00195514	0	0	0	
0.175667	-0.00375955	-0.0179065	0.00280375	0.0013463	0	0	0	
0.175833	-0.00561948	-0.000290147	0.000926357	0.000615384	0	0	0	
0.176	-0.0447649	0.0149199	0.00046949	0.000325114	0	0	0	
0.176167	0.053069	-0.0968105	0.00115148	0.000985773	0	0	0	
0.176333	0.145257	-0.004149	0.00228633	0.00158386	0	0	0	
0.1765	-0.0545919	0.0138783	0.00331998	0.00200201	0	0	0	
0.176667	-0.0129915	0.0177749	0.0028264	0.00136451	0	0	0	
0.176833	0.017828	-0.0188163	0.00170141	0.000757241	0	0	0	
0.177	-0.00796712	0.00248431	0.000684413	0.000351228	0	0	0	
0.177167	0.00715711	-0.0058943	0.000307709	0.000219969	0	0	0	
0.177333	-0.0239588	0.00905944	0.000288489	0.000176741	0	0	0	
0.1775	0.0098126	-0.0122204	0.000476188	0.000160396	0	0	0	
0.177667	-0.00612462	0.00045412	0.000483343	0.000199793	0	0	0	
0.177833	-0.00332878	-0.00108561	0.00040971	0.000203518	0	0	0	
0.178	0.00504534	-0.00705763	0.000140444	0.000182296	0	0	0	
0.178167	-0.00171046	0.00352756	8.8223E-05	0.00015698	0	0	0	
0.178333	0.00105282	0.00191504	8.44782E-05	0.000117518	0	0	0	
0.1785	-0.00783461	-0.00680703	0.000103218	0.000118538	0	0	0	
0.178667	0.0157153	0.0017165	0.000282645	0.000157473	0	0	0	
0.178833	-0.012313	-0.00153351	0.000339292	0.000181782	0	0	0	
0.179	0.00672713	-0.000400165	0.000345802	0.000187471	0	0	0	
0.179167	-0.00298618	-0.0098532	0.000160952	0.000132188	0	0	0	
0.179333	0.0101178	0.0100097	0.000143266	0.000132863	0	0	0	
0.1795	-0.0114445	-0.00362748	0.000177303	0.00015928	0	0	0	
0.179667	0.00808731	-0.0186068	0.000197469	0.000215294	0	0	0	
0.179833	-0.00905127	0.015119	0.000188977	0.000300529	0	0	0	
0.18	0.0121374	-0.0031304	0.000171882	0.000314273	0	0	0	
0.180167	-0.0134018	-0.00410896	0.000197883	0.000288902	0	0	0	
0.180333	0.00561689	0.00380836	0.000215328	0.000227522	0	0	0	
0.1805	0.00133251	-0.0105592	0.000168648	0.00021484	0	0	0	
0.180667	-0.00164331	0.0038026	0.00011511	0.000180121	0	0	0	
0.180833	0.000980659	0.00796837	9.05652E-05	0.000186573	0	0	0	
0.181	0.000138893	-0.0138787	0.000112984	0.000190724	0	0	0	
0.181167	-0.00206963	0.00643893	0.000147325	0.000232661	0	0	0	
0.181333	0.00138539	-0.00600273	0.000176214	0.000195363	0	0	0	
0.1815	-0.00348255	0.00177244	0.000182088	0.000135929	0	0	0	
0.181667	0.00202588	-0.00420216	0.000151496	0.000130817	0	0	0	
0.181833	0.00190956	0.00714531	9.06167E-05	0.000155656	0	0	0	
0.182	-0.00221625	-0.00478047	5.87899E-05	0.000191452	0	0	0	
0.182167	0.00161461	-0.00586355	4.15756E-05	0.000153812	0	0	0	
0.182333	0.00219637	0.00975531	4.81496E-05	0.000141289	0	0	0	
0.1825	-0.00569799	-0.00551336	5.5107E-05	0.000137062	0	0	0	
0.182667	0.00469937	-0.00267904	8.10492E-05	0.000131943	0	0	0	
0.182833	0.00160864	0.00352266	9.91148E-05	0.000102919	0	0	0	
0.183	-0.00331519	0.000465216	9.93153E-05	8.54689E-05	0	0	0	
0.183167	-0.000687869	-0.00654297	6.98538E-05	0.000118242	0	0	0	
0.183333	0.0034995	0.00334228	7.03693E-05	0.000137654	0	0	0	
0.1835	-0.00328984	0.00728828	8.65683E-05	0.00012957	0	0	0	
0.183667	0.00231391	-0.00529516	9.24801E-05	0.000134813	0	0	0	
0.183833	0.00120539	0.00370801	7.58559E-05	0.000123687	0	0	0	
0.184	-0.0021013	0.000296202	4.08395E-05	9.89426E-05	0	0	0	
0.184167	0.0022023	-0.00562368	3.8619E-05	7.97842E-05	0	0	0	
0.184333	-0.00460703	0.00436941	4.22599E-05	9.04379E-05	0	0	0	
0.1845	0.00407641	0.00461571	6.74387E-05	0.000102934	0	0	0	
0.184667	0.00248765	0.000534298	0.00010609	0.000114864	0	0	0	
0.184833	-0.00562699	0.000815078	0.000120667	8.76818E-05	0	0	0	
0.185	-0.000184484	0.000304218	0.000109382	7.83576E-05	0	0	0	
0.185167	0.00386058	-0.00457001	8.55709E-05	4.22698E-05	0	0	0	
0.185333	-0.00305413	2.20517E-06	6.68632E-05	5.78022E-05	0	0	0	
0.1855	0.00346575	0.00076682	6.82558E-05	6.24353E-05	0	0	0	
0.185667	-0.00147426	0.00759402	5.75323E-05	8.45032E-05	0	0	0	
0.185833	-0.000284578	-0.0051797	6.13534E-05	0.000111306	0	0	0	
0.186	-2.14219E-05	-0.00335113	5.80327E-05	0.000119663	0	0	0	
0.186167	0.00107499	0.00504098	4.97189E-05	0.0001185	0	0	0	
0.186333	-0.000573763	-0.00344255	4.83782E-05	9.06038E-05	0	0	0	
0.1865	0.000173653	-0.00418682	4.9583E-05	0.000105005	0	0	0	
0.186667	0.0029666	0.00666891	5.4912E-05	0.000129815	0	0	0	
0.186833	-0.00351473	-0.00216521	5.8796E-05	0.000150799	0	0	0	
0.187	0.000110758	-0.00167076	5.51721E-05	0.000174037	0	0	0	
0.187167	0.00252797	0.00189356	5.50362E-05	0.000152456	0	0	0	
0.187333	-1.18481E-05	0.00446321	3.60818E-05	0.0001256	0	0	0	
0.1875	-0.00345451	-0.00751326	3.70442E-05	0.000109902	0	0	0	
0.187667	0.000330777	0.00843626	4.26093E-05	0.00012652	0	0	0	
0.187833	-0.000434101	-0.00424808	4.83202E-05	0.000153462	0	0	0	
0.188	0.00438374	-0.00320935	7.54837E-05	0.000137245	0	0	0	
0.188167	-0.00289401	0.00963018	6.78951E-05	0.000120572	0	0	0	
0.188333	-0.00593485	-0.00798112	0.000123442	0.000147549	0	0	0	
0.1885	0.00437483	-0.0026595	0.00013504	0.00013342	0	0	0	
0.188667	0.00159928	0.0149607	0.000142542	0.000151347	0	0	0	
0.188833	-0.00344025	-0.0099945	9.63062E-05	0.000158889	0	0	0	
0.189	-0.000443668	-0.0021081	5.50495E-05	0.000184805	0	0	0	
0.189167	0.00208116	0.00368266	5.20734E-05	0.000165204	0	0	0	
0.189333	0.000805618	-0.000362232	5.24184E-05	0.000111002	0	0	0	
0.1895	-0.00776791	0.000669635	7.25474E-05	9.73897E-05	0	0	0	
0.189667	0.00729817	0.00155161	0.000100505	7.32134E-05	0	0	0	
0.189833	-0.00108017	-0.00307223	0.000120456	9.98116E-05	0	0	0	
0.19	0.00196866	0.00803441	0.00010509	0.000110982	0	0	0	
0.190167	-0.0101704	-0.00397661	0.000120437	0.000143683	0	0	0	
0.190333	0.00694897	0.000527824	0.000123122	0.000109111	0	0	0	
0.1905	0.00276309	-2.8189E-05	0.00019583	8.46732E-05	0	0	0	
0.190667	-0.00760945	0.00564217	0.000198541	5.54786E-05	0	0	0	
0.190833	0.00239376	-0.00560439	0.000187328	6.67518E-05	0	0	0	
0.191	-0.000624235	0.0078802	0.000130641	9.78023E-05	0	0	0	
0.191167	0.00443862	0.00263815	9.16672E-05	0.000104889	0	0	0	
0.191333	-0.00313271	-0.00886804	9.11712E-05	0.000111656	0	0	0	
0.1915	-0.00584731	0.00616557	9.93046E-05	0.00012536	0	0	0	
0.191667	0.00665465	0.00335745	0.000116225	0.000126056	0	0	0	
0.191833	-0.00228166	-0.00401598	0.000115667	0.000124511	0	0	0	
0.192	0.00098706	0.000208401	8.87731E-05	8.14498E-05	0	0	0	
0.192167	-0.000136107	0.00199037	5.2075E-05	7.44819E-05	0	0	0	
0.192333	-0.00091093	0.00563843	2.97751E-05	6.83245E-05	0	0	0	
0.1925	0.00419931	0.000297778	2.29241E-05	6.63354E-05	0	0	0	
0.192667	-0.00559148	-0.00523247	7.06027E-05	6.05593E-05	0	0	0	
0.192833	0.00112111	-0.000881759	0.000124668	4.91466E-05	0	0	0	
0.193	0.00431705	0.00597592	0.00015512	4.54274E-05	0	0	0	
0.193167	-0.000682117	-0.00482498	0.000118616	9.49449E-05	0	0	0	
0.193333	-0.00112067	0.00221437	7.7777E-05	0.000133304	0	0	0	
0.1935	-0.000309621	0.00498515	4.05165E-05	0.000143597	0	0	0	
0.193667	-0.00214702	-0.00467419	6.48211E-05	0.000117295	0	0	0	
0.193833	0.011946	-0.00129425	0.000142304	7.27243E-05	0	0	0	
0.194	-0.0116107	0.00713905	0.000208611	8.0165E-05	0	0	0	
0.194167	-0.00110675	-0.000678118	0.000261046	7.6492E-05	0	0	0	
0.194333	0.00826775	0.000245914	0.000217219	8.53901E-05	0	0	0	
0.1945	0.000459586	-0.0011482	0.000193176	7.1551E-05	0	0	0	
0.194667	-0.0052462	-0.00225964	0.00013102	5.2307E-05	0	0	0	
0.194833	-0.00193813	-0.00286997	0.00010933	5.00962E-05	0	0	0	
0.195	0.00562869	0.0121309	8.30978E-05	0.000100945	0	0	0	
0.195167	-0.000846555	-0.00508126	8.60763E-05	0.000160151	0	0	0	
0.195333	-0.00123909	0.00329093	6.00082E-05	0.000162501	0	0	0	
0.1955	0.000501257	2.73202E-05	4.628E-05	0.000114525	0	0	0	
0.195667	-0.00148978	-0.0023426	1.87226E-05	6.17578E-05	0	0	0	
0.195833	-0.00316899	-0.00313589	3.64438E-05	4.72747E-05	0	0	0	
0.196	0.0114956	0.0122669	7.65961E-05	8.58105E-05	0	0	0	
0.196167	-0.00857704	-0.0062897	0.000142361	0.000168597	0	0	0	
0.196333	-0.00154432	7.17478E-05	0.000175063	0.000219057	0	0	0	
0.1965	0.00187573	0.00326378	0.000141702	0.000194771	0	0	0	
0.196667	-0.00067399	-0.0046296	8.20804E-05	0.000127413	0	0	0	
0.196833	0.00706498	0.00682927	7.51643E-05	0.000116654	0	0	0	
0.197	-0.0104921	0.00446636	0.000117601	0.000109611	0	0	0	
0.197167	-0.00303676	-0.00785476	0.000209331	0.000123969	0	0	0	
0.197333	0.0161121	0.00249728	0.000281072	0.0001111	0	0	0	
0.1975	-0.0100238	0.00340497	0.000301631	0.000105697	0	0	0	
0.197667	0.00163347	-0.00552324	0.000258348	0.000112334	0	0	0	
0.197833	-0.00281469	0.000788624	0.000158884	0.000107179	0	0	0	
0.198	0.00378697	0.00167719	0.0001066	0.000140996	0	0	0	
0.198167	0.00215902	0.00210634	8.87756E-05	0.000142104	0	0	0	
0.198333	-0.00209285	-0.000527856	7.70375E-05	0.000124356	0	0	0	
0.1985	-0.00563859	0.00715394	0.000119746	0.000117976	0	0	0	
0.198667	0.0077819	-0.010353	0.00011849	0.000153564	0	0	0	
0.198833	0.000433726	-0.00398348	0.000161719	0.000219316	0	0	0	
0.199	-0.00489654	0.00986359	0.000119577	0.000224349	0	0	0	
0.199167	-0.00103532	-0.0063449	0.000122275	0.00018662	0	0	0	
0.199333	0.00313315	0.00628526	8.75794E-05	0.000164626	0	0	0	
0.1995	0.00183598	-0.00107269	7.99789E-05	0.000139251	0	0	0	
0.199667	0.000608643	-0.00633532	0.000102635	0.000120747	0	0	0	
0.199833	-0.0104511	0.00825741	0.000161261	0.000134443	0	0	0	
0.2	0.00459172	-0.00644267	0.00018575	0.000141699	0	0	0	
0.200167	0.00366933	-0.00129248	0.000188049	0.000151774	0	0	0	
0.200333	-0.00454049	0.00631255	0.000128025	9.47025E-05	0	0	0	
0.2005	-0.00188163	-0.000531535	0.000145505	0.000100322	0	0	0	
0.200667	0.00209704	-0.00582697	0.000115673	8.87038E-05	0	0	0	
0.200833	-0.000733386	0.0023368	0.00010193	0.000132987	0	0	0	
0.201	0.000470991	0.00790548	5.0735E-05	0.000147382	0	0	0	
0.201167	-0.0027493	-0.0186029	2.66197E-05	0.000194815	0	0	0	
0.201333	-0.00041942	0.0145956	4.10296E-05	0.000266623	0	0	0	
0.2015	0.00687492	0.00305912	6.21517E-05	0.000323953	0	0	0	
0.201667	-0.00544303	-0.0101159	8.50358E-05	0.000308344	0	0	0	
0.201833	-0.00188708	0.00299567	0.000128361	0.000227247	0	0	0	
0.202	0.00884904	0.00106995	0.000158534	0.000149878	0	0	0	
0.202167	-0.00623085	-0.0022531	0.00016044	0.000122127	0	0	0	
0.202333	-0.000620801	0.0118429	0.000133922	0.000179722	0	0	0	
0.2025	0.00314978	-0.0140355	8.87369E-05	0.000266592	0	0	0	
0.202667	-0.00058493	0.00846302	6.3834E-05	0.000296286	0	0	0	
0.202833	0.00133344	0.000120212	4.87278E-05	0.000278902	0	0	0	
0.203	0.00241645	0.00163518	7.18069E-05	0.000183226	0	0	0	
0.203167	-0.00370803	-0.0043452	0.000101343	0.000165954	0	0	0	
0.203333	0.00356711	0.00146157	9.87838E-05	9.43356E-05	0	0	0	
0.2035	0.00376882	3.47264E-05	0.000117083	7.82824E-05	0	0	0	
0.203667	-0.0103463	0.0107865	0.000134021	9.41374E-05	0	0	0	
0.203833	0.00505538	-0.015505	0.000156812	0.000158822	0	0	0	
0.204	0.00261437	0.0139143	0.00012956	0.000256434	0	0	0	
0.204167	-0.00729149	0.00116706	0.000102096	0.000240678	0	0	0	
0.204333	0.00471093	-0.00364459	0.000125426	0.000173904	0	0	0	
0.2045	0.00570995	-0.00448282	0.00018523	9.56563E-05	0	0	0	
0.204667	-0.00947671	0.00413189	0.000214809	8.73403E-05	0	0	0	
0.204833	-1.03319E-05	-0.00144346	0.000175566	0.000120449	0	0	0	
0.205	0.0101448	0.00274098	0.000136608	0.000114952	0	0	0	
0.205167	-0.0063071	-0.00245306	0.000133005	9.54353E-05	0	0	0	
0.205333	-0.0127784	0.000976385	0.000150068	7.86497E-05	0	0	0	
0.2055	0.0040245	0.0082928	0.000238157	0.000109289	0	0	0	
0.205667	0.0130485	0.0285654	0.00050602	0.000206711	0	0	0	
0.205833	-0.104962	0.0895716	0.00118217	0.000804037	0	0	0	
0.206	0.062729	-0.0196587	0.00153962	0.000963318	0	0	0	
0.206167	-0.0204419	-0.0140079	0.00144888	0.000957834	0	0	0	
0.206333	-0.000391786	0.00475583	0.000784807	0.000382179	0	0	0	
0.2065	-0.015965	0.0196783	0.000385824	0.000278637	0	0	0	
0.206667	0.0328876	-0.0101493	0.000388809	0.000303558	0	0	0	
0.206833	-0.0279804	0.0107464	0.000527199	0.000312612	0	0	0	
0.207	0.00465098	-0.00447292	0.000618385	0.000260057	0	0	0	
0.207167	0.0182887	-0.00682611	0.000560228	0.000181681	0	0	0	
0.207333	-0.00837317	0.0036504	0.000437921	0.000169459	0	0	0	
0.2075	-0.000423503	0.00114192	0.000304649	0.000182518	0	0	0	
0.207667	0.000103751	-0.00284109	0.000145557	0.000164669	0	0	0	
0.207833	0.00323972	-0.000502548	0.000112353	0.000151179	0	0	0	
0.208	0.00558775	0.00940632	0.000120709	0.000147532	0	0	0	
0.208167	-0.00812736	-0.00491729	0.00013295	0.00014211	0	0	0	
0.208333	0.00509833	0.000607089	0.000165923	0.000154972	0	0	0	
0.2085	-0.00289825	0.00677663	0.000138896	0.000119049	0	0	0	
0.208667	0.0102049	-0.00806205	0.000139031	0.000124366	0	0	0	
0.208833	-0.0153332	0.00545046	0.000181674	0.00014595	0	0	0	
0.209	0.00520983	0.00513924	0.000241569	0.000187577	0	0	0	
0.209167	0.00184561	-0.00757078	0.000311408	0.000221122	0	0	0	
0.209333	-0.0101958	0.0131129	0.00027421	0.000229925	0	0	0	
0.2095	0.00564935	-0.00334304	0.000225922	0.000203776	0	0	0	
0.209667	0.000978931	-0.00475813	0.000144063	0.000177549	0	0	0	
0.209833	0.00191997	0.0117941	9.76882E-05	0.000148423	0	0	0	
0.21	-0.00913359	-0.0133624	8.75352E-05	0.000184149	0	0	0	
0.210167	-0.0035017	0.00710319	0.00016503	0.000248919	0	0	0	
0.210333	0.0177786	0.00278793	0.000247166	0.000236115	0	0	0	
0.2105	-0.0144577	-0.00331387	0.000311291	0.000183102	0	0	0	
0.210667	0.00192626	-0.000664994	0.000304535	8.85385E-05	0	0	0	
0.210833	0.00145266	0.00205297	0.000247631	6.07566E-05	0	0	0	
0.211	-0.0047694	-0.00315545	0.000199864	6.90286E-05	0	0	0	
0.211167	0.0136059	0.00418834	0.000165163	0.000120512	0	0	0	
0.211333	-0.0104983	0.00415164	0.000194163	0.000168212	0	0	0	
0.2115	-0.003303	-0.00923474	0.000266715	0.000179722	0	0	0	
0.211667	0.0092478	0.00489487	0.000283751	0.000150083	0	0	0	
0.211833	-0.00475054	0.00229378	0.000239182	0.000130196	0	0	0	
0.212	0.000126697	-0.00594654	0.000139468	0.000105263	0	0	0	
0.212167	-0.00119998	0.00407096	9.21078E-05	0.00011386	0	0	0	
0.212333	0.0057368	0.00782443	0.000100547	0.00010977	0	0	0	
0.2125	-0.00704865	-0.00791516	0.000109088	0.000172873	0	0	0	
0.212667	0.00407096	0.00157134	0.000124588	0.000207607	0	0	0	
0.212833	-0.000836774	0.00207156	0.000102121	0.000220363	0	0	0	
0.213	-0.00161917	-0.00152826	8.87639E-05	0.000143066	0	0	0	
0.213167	0.00293565	-0.000355951	7.77526E-05	9.19925E-05	0	0	0	
0.213333	-0.00332105	0.00826175	7.49901E-05	8.70333E-05	0	0	0	
0.2135	0.00214901	-0.0146771	7.47616E-05	0.000143275	0	0	0	
0.213667	-0.0029545	0.0119344	6.14784E-05	0.000185998	0	0	0	
0.213833	0.00210323	-0.00608212	6.43085E-05	0.00021323	0	0	0	
0.214	-0.00312207	0.00139851	5.89485E-05	0.000176995	0	0	0	
0.214167	0.00411992	0.00301701	7.00558E-05	0.000119826	0	0	0	
0.214333	0.00261727	-0.00569974	7.89501E-05	9.40419E-05	0	0	0	
0.2145	-0.00598527	0.00377689	8.2082E-05	0.000111151	0	0	0	
0.214667	0.000477957	0.00361073	7.92662E-05	0.000114003	0	0	0	
0.214833	-0.000143226	-0.00363007	6.4814E-05	0.000115615	0	0	0	
0.215	0.000345616	0.00133641	6.51241E-05	0.000101282	0	0	0	
0.215167	0.00556221	-0.000808585	5.18232E-05	0.000101294	0	0	0	
0.215333	-0.00693484	0.00974669	8.43769E-05	9.08997E-05	0	0	0	
0.2155	-0.00601894	-0.0111524	0.000143583	0.000130743	0	0	0	
0.215667	0.00572238	0.00449601	0.000166944	0.000171906	0	0	0	
0.215833	0.00884445	0.00283065	0.000189973	0.00016072	0	0	0	
0.216	-0.0105105	-0.00258962	0.000190996	0.000125781	0	0	0	
0.216167	0.00425791	0.00222245	0.000194357	7.23874E-05	0	0	0	
0.216333	-0.0057989	-0.000400682	0.000151894	9.46865E-05	0	0	0	
0.2165	0.00420121	0.0109573	0.000143139	0.000105661	0	0	0	
0.216667	-0.00966872	-0.0100771	0.000165696	0.000168243	0	0	0	
0.216833	0.00613477	0.000902018	0.000186489	0.000210669	0	0	0	
0.217	-0.0011991	-0.00127934	0.000160434	0.000204586	0	0	0	
0.217167	-0.000501001	0.00165454	0.00012708	0.000150221	0	0	0	
0.217333	-9.2407E-05	0.000354047	7.93088E-05	8.13275E-05	0	0	0	
0.2175	0.00483663	0.00123003	7.03862E-05	4.35614E-05	0	0	0	
0.217667	0.0028466	0.00168233	9.29286E-05	3.98282E-05	0	0	0	
0.217833	-0.0150024	0.000195775	0.000155279	3.71188E-05	0	0	0	
0.218	0.0133499	0.00359523	0.000211953	4.76127E-05	0	0	0	
0.218167	-0.00536515	-0.00403392	0.000219887	5.71379E-05	0	0	0	
0.218333	0.00452115	0.00133365	0.000181781	8.33755E-05	0	0	0	
0.2185	-0.00669855	-0.00223194	0.000120586	0.000102073	0	0	0	
0.218667	0.00246381	0.00329476	0.000107631	9.94861E-05	0	0	0	
0.218833	0.0045971	0.00431563	0.00010045	7.73869E-05	0	0	0	
0.219	-0.00463402	-0.00876846	0.000122089	9.63285E-05	0	0	0	
0.219167	-0.00136764	0.00360822	0.000116076	0.000128201	0	0	0	
0.219333	-1.26434E-05	-0.000959165	0.000103641	0.000122325	0	0	0	
0.2195	-0.00114908	-0.00115612	5.84096E-05	8.85029E-05	0	0	0	
0.219667	0.00599846	0.00247064	3.91607E-05	8.33478E-05	0	0	0	
0.219833	-0.00338651	-0.00933004	5.32366E-05	0.000123345	0	0	0	
0.22	0.00276757	0.0152047	7.44935E-05	0.000189664	0	0	0	
0.220167	-0.00305997	-0.0142031	8.74627E-05	0.000251309	0	0	0	
0.220333	0.00256216	0.00121345	8.45771E-05	0.000279938	0	0	0	
0.2205	0.000117563	0.00176885	7.48997E-05	0.000210925	0	0	0	
0.220667	-0.00735668	-0.0050103	6.77828E-05	0.000141949	0	0	0	
0.220833	0.0100046	-0.000309629	9.98062E-05	7.87849E-05	0	0	0	
0.221	-0.00569719	-0.0034021	0.000139576	8.29973E-05	0	0	0	
0.221167	0.00156309	0.00251635	0.000185173	0.000112169	0	0	0	
0.221333	0.00351615	-0.000105149	0.000196369	0.000171255	0	0	0	
0.2215	-0.00379418	0.0024282	0.000175548	0.000167693	0	0	0	
0.221667	0.00231098	-0.00838036	0.000123853	0.000146731	0	0	0	
0.221833	3.41678E-05	0.011966	8.56175E-05	0.000113344	0	0	0	
0.222	0.00372793	-0.0109619	7.15354E-05	0.000202429	0	0	0	
0.222167	0.000624647	0.00966099	6.22387E-05	0.00030098	0	0	0	
0.222333	-0.0033365	-0.00606159	6.80289E-05	0.000399677	0	0	0	
0.2225	0.000913082	-0.0076081	5.4776E-05	0.000347504	0	0	0	
0.222667	0.0138395	0.00625992	0.000130586	0.0002548	0	0	0	
0.222833	-0.0451112	-0.00110504	0.000248937	0.000155719	0	0	0	
0.223	0.042608	0.00419045	0.000550663	0.000136844	0	0	0	
0.223167	-0.0201681	0.00583082	0.000673982	0.000160548	0	0	0	
0.223333	-0.00679671	-0.012869	0.000701181	0.000197931	0	0	0	
0.2235	0.0153686	0.00826715	0.000624107	0.000241334	0	0	0	
0.223667	-0.0200638	0.00326978	0.000579446	0.000228528	0	0	0	
0.223833	0.0101783	-0.00398869	0.000492777	0.00016095	0	0	0	
0.224	-0.0044061	-0.00137592	0.000490205	0.000123537	0	0	0	
0.224167	-0.00825064	0.000515367	0.00061008	7.82447E-05	0	0	0	
0.224333	0.0291742	-0.00250653	0.000684407	0.000155401	0	0	0	
0.2245	-0.0286976	0.0102699	0.000651344	0.000232881	0	0	0	
0.224667	0.0161032	-0.00967073	0.000663633	0.000312723	0	0	0	
0.224833	-0.0125308	-0.00171245	0.000602826	0.000262469	0	0	0	
0.225	0.0425292	0.00639288	0.00055381	0.000173006	0	0	0	
0.225167	-0.0311822	-0.00826762	0.000577779	0.000131147	0	0	0	
0.225333	0.00366713	0.000912027	0.00063545	0.000148434	0	0	0	
0.2255	0.00548659	0.00828532	0.000616283	0.000175088	0	0	0	
0.225667	0.00214014	-0.0117475	0.000501838	0.00021798	0	0	0	
0.225833	0.00817472	0.00361275	0.000544918	0.000207513	0	0	0	
0.226	-0.0100159	-0.00101762	0.000521464	0.000175192	0	0	0	
0.226167	0.00380043	-0.00118668	0.000409399	9.09341E-05	0	0	0	
0.226333	-0.00481133	0.00435516	0.00027636	8.58422E-05	0	0	0	
0.2265	0.00810824	-0.00839337	0.000251178	8.83941E-05	0	0	0	
0.226667	-0.0189178	0.00508369	0.000228518	0.00012893	0	0	0	
0.226833	0.0114605	0.00121518	0.000262319	0.000105787	0	0	0	
0.227	0.00406558	-0.00377842	0.000278794	0.000123961	0	0	0	
0.227167	-0.00120426	0.00660719	0.000215932	9.80224E-05	0	0	0	
0.227333	-0.00633486	-0.0047965	0.000143546	0.000138398	0	0	0	
0.2275	0.000927743	0.000447225	6.84563E-05	0.000209219	0	0	0	
0.227667	0.00340648	0.000298286	8.68705E-05	0.000299045	0	0	0	
0.227833	-0.00325632	0.000131906	7.03498E-05	0.00033016	0	0	0	
0.228	0.00048021	0.00277574	8.95922E-05	0.000272273	0	0	0	
0.228167	0.00651596	-0.000558742	0.000119632	0.00017171	0	0	0	
0.228333	-0.0122888	-0.00195994	0.000167652	9.62957E-05	0	0	0	
0.2285	0.00557237	0.00642373	0.000183705	6.42356E-05	0	0	0	
0.228667	0.00995492	-0.000387792	0.000286407	8.52506E-05	0	0	0	
0.228833	-0.0203423	0.00935492	0.000416381	0.000123085	0	0	0	
0.229	0.012704	-0.00405943	0.000461337	0.000184934	0	0	0	
0.229167	0.00284166	0.00853456	0.000378084	0.000177222	0	0	0	
0.229333	-0.0214031	-0.0028943	0.000256817	0.000146827	0	0	0	
0.2295	0.0275533	-0.00353656	0.000348007	7.70143E-05	0	0	0	
0.229667	-0.0116485	0.00812018	0.000369345	9.77015E-05	0	0	0	
0.229833	0.00327803	-0.00534952	0.000455375	0.00014494	0	0	0	
0.23	0.0131031	0.00496128	0.000446182	0.000161818	0	0	0	
0.230167	-0.0136719	0.00149811	0.000455057	0.000125595	0	0	0	
0.230333	0.00520369	0.00380061	0.000351464	6.88884E-05	0	0	0	
0.2305	0.00325417	-0.0120229	0.000296819	8.86607E-05	0	0	0	
0.230667	-0.000371822	0.00600184	0.000257549	0.000163156	0	0	0	
0.230833	-0.00539564	-0.000244824	0.000273727	0.000173322	0	0	0	
0.231	0.0196478	-0.000427839	0.000213391	0.000145091	0	0	0	
0.231167	-0.0150757	0.0034446	0.000266942	7.8112E-05	0	0	0	
0.231333	0.0105368	0.000378459	0.000272681	8.61519E-05	0	0	0	
0.2315	-0.0208698	-0.000818298	0.000297676	7.14047E-05	0	0	0	
0.231667	0.0273744	0.00058471	0.000420397	9.01856E-05	0	0	0	
0.231833	-0.000526183	0.00625538	0.000498078	0.000103768	0	0	0	
0.232	-0.0127545	-0.00498095	0.000520002	0.000120056	0	0	0	
0.232167	0.017019	0.00482596	0.000387776	0.000122558	0	0	0	
0.232333	-0.00919252	0.00327495	0.000310408	9.52667E-05	0	0	0	
0.2325	0.00210411	-0.00554381	0.000228014	0.000116308	0	0	0	
0.232667	-0.00137118	0.00961109	0.000137507	0.000126298	0	0	0	
0.232833	0.00271837	-0.00210732	9.15318E-05	0.000137785	0	0	0	
0.233	-0.00619142	0.00381239	8.7193E-05	0.000158192	0	0	0	
0.233167	0.00716026	-0.00596038	0.000104951	0.000165443	0	0	0	
0.233333	-0.00405239	-0.00142053	0.000120139	0.000158334	0	0	0	
0.2335	0.000898462	0.00387548	0.000114325	0.000113077	0	0	0	
0.233667	-0.00373428	0.00273704	8.66713E-05	6.63859E-05	0	0	0	
0.233833	0.00244922	-0.0114693	9.88437E-05	0.000109806	0	0	0	
0.234	0.00532845	0.0109621	0.000178957	0.000185673	0	0	0	
0.234167	-0.00847888	0.00133573	0.000231904	0.00024353	0	0	0	
0.234333	0.00656187	-0.00758745	0.000218458	0.000231499	0	0	0	
0.2345	-0.00321199	0.00219001	0.000145095	0.000173895	0	0	0	
0.234667	0.00237832	7.09209E-05	9.45388E-05	0.000109869	0	0	0	
0.234833	-0.00348473	-0.00104108	7.59487E-05	7.78773E-05	0	0	0	
0.235	-0.00153667	-0.00625557	7.67999E-05	8.16132E-05	0	0	0	
0.235167	-0.00086013	0.00295612	9.98719E-05	0.000161371	0	0	0	
0.235333	0.00304258	0.00971408	9.66015E-05	0.000220674	0	0	0	
0.2355	-0.00245757	-0.00785149	0.00010808	0.000228448	0	0	0	
0.235667	-0.00295107	-0.000284559	0.000136408	0.000188482	0	0	0	
0.235833	0.0036458	0.00470589	0.000137732	0.000126006	0	0	0	
0.236	-0.00107288	0.00636765	0.000112326	0.000114525	0	0	0	
0.236167	-0.00506884	-0.0137476	9.39075E-05	0.000121362	0	0	0	
0.236333	0.0112747	0.00616984	0.000158265	0.000165747	0	0	0	
0.2365	-0.0178002	0.00341156	0.000230812	0.000151585	0	0	0	
0.236667	0.00934588	0.000683831	0.000267325	0.000116898	0	0	0	
0.236833	-0.0107678	0.00454907	0.000234351	7.77936E-05	0	0	0	
0.237	0.0215633	-0.00722153	0.000256743	0.000118601	0	0	0	
0.237167	-0.0107093	0.0102182	0.000276542	0.000157672	0	0	0	
0.237333	0.00500073	-0.00749085	0.000263387	0.000227447	0	0	0	
0.2375	-0.00625796	0.00137979	0.000182842	0.000298526	0	0	0	
0.237667	0.00736156	0.00105561	0.000172643	0.000328195	0	0	0	
0.237833	-0.00201093	-0.001228	0.000195959	0.000266448	0	0	0	
0.238	0.00623077	-0.00100566	0.000190309	0.000140533	0	0	0	
0.238167	-0.0164141	-0.00073534	0.000190127	5.95058E-05	0	0	0	
0.238333	0.00711887	0.00581071	0.000219748	8.44722E-05	0	0	0	
0.2385	-0.000442796	0.00284291	0.000278705	0.000171541	0	0	0	
0.238667	-0.00266648	-0.00321995	0.000237557	0.000260687	0	0	0	
0.238833	0.00272507	0.00347809	0.000153337	0.000247254	0	0	0	
0.239	-0.00120361	-0.00241137	9.50044E-05	0.000172864	0	0	0	
0.239167	-0.00154877	0.00961644	7.05691E-05	0.000116191	0	0	0	
0.239333	0.000548335	-0.00496408	8.33047E-05	0.000106408	0	0	0	
0.2395	-0.00427971	0.00119601	8.87466E-05	0.00011034	0	0	0	
0.239667	0.00553993	0.0124796	0.000102029	0.000121719	0	0	0	
0.239833	-0.00369938	-0.00950246	0.00010498	0.000167744	0	0	0	
0.24	0.000231267	0.00325388	8.26556E-05	0.000164112	0	0	0	
0.240167	0.000834096	0.00559018	4.35375E-05	0.000156512	0	0	0	
0.240333	0.00136786	-0.0130793	4.116E-05	0.000122549	0	0	0	
0.2405	-0.00378289	0.00686741	5.33377E-05	0.000189594	0	0	0	
0.240667	0.00171522	0.00332218	6.86541E-05	0.000232687	0	0	0	
0.240833	-0.00140277	-0.00868917	5.61907E-05	0.000269682	0	0	0	
0.241	0.00120054	0.00548116	4.28073E-05	0.00022411	0	0	0	
0.241167	-0.00102148	-0.00294706	3.41597E-05	0.000147175	0	0	0	
0.241333	0.00445921	-0.00188614	4.53058E-05	8.4152E-05	0	0	0	
0.2415	-0.00282295	0.000103568	7.83515E-05	6.35703E-05	0	0	0	
0.241667	0.00359897	-0.00807743	8.8013E-05	6.7669E-05	0	0	0	
0.241833	0.00463921	0.00682373	0.000104226	9.08374E-05	0	0	0	
0.242	-0.00484019	-0.000290153	0.000129791	9.99718E-05	0	0	0	
0.242167	0.0016196	0.000538797	0.000131667	9.33946E-05	0	0	0	
0.242333	0.00203164	-0.0011096	0.000106199	5.98039E-05	0	0	0	
0.2425	-0.00443276	0.00586603	6.5667E-05	4.54627E-05	0	0	0	
0.242667	0.0025053	-0.00976857	7.26536E-05	9.28362E-05	0	0	0	
0.242833	-0.00653492	0.00813906	8.95878E-05	0.000165805	0	0	0	
0.243	0.0140343	-0.00286046	0.000120265	0.000187328	0	0	0	
0.243167	-0.00700159	-0.00315095	0.000165684	0.000152167	0	0	0	
0.243333	0.00299487	0.0032839	0.000162034	8.83858E-05	0	0	0	
0.2435	-0.00948223	-0.00212103	0.000141193	6.42337E-05	0	0	0	
0.243667	0.00579551	-0.00153004	0.000118798	5.7102E-05	0	0	0	
0.243833	0.00203305	0.00828057	0.00011211	7.0952E-05	0	0	0	
0.244	-0.00111864	-0.011012	8.56452E-05	0.000116293	0	0	0	
0.244167	-0.00215877	0.00349727	7.17462E-05	0.000163926	0	0	0	
0.244333	0.00380779	0.00129979	8.18862E-05	0.000169142	0	0	0	
0.2445	-0.00388787	-0.00354938	8.68781E-05	0.000166481	0	0	0	
0.244667	0.00664928	0.0040243	0.000100174	0.000121126	0	0	0	
0.244833	-0.00209925	-0.00447585	0.000134525	0.000207176	0	0	0	
0.245	-0.00834323	-8.70564E-05	0.000177809	0.000271105	0	0	0	
0.245167	0.0203789	0.0032203	0.000210317	0.000285255	0	0	0	
0.245333	-0.00862204	-0.00459076	0.000246405	0.000194054	0	0	0	
0.2455	-0.00440485	0.00746683	0.000271991	0.000100402	0	0	0	
0.245667	0.00524905	0.00111903	0.000217165	0.000107229	0	0	0	
0.245833	-0.000162669	0.00116407	0.000171602	0.000147103	0	0	0	
0.246	-0.00852004	0.00478942	0.000139286	0.000161758	0	0	0	
0.246167	0.00541095	0.00025454	0.000161957	0.000155042	0	0	0	
0.246333	-0.00052636	-0.000604364	0.000125348	0.000121734	0	0	0	
0.2465	0.00145655	-0.00374328	8.49991E-05	8.90324E-05	0	0	0	
0.246667	0.00123714	0.00486241	6.34401E-05	8.45861E-05	0	0	0	
0.246833	-0.00492444	0.00607947	8.6428E-05	6.95275E-05	0	0	0	
0.247	0.00228499	0.000968596	9.38687E-05	0.000136044	0	0	0	
0.247167	0.000681762	-0.00656192	0.000102927	0.000216455	0	0	0	
0.247333	-0.00198735	0.00209488	6.59353E-05	0.000269945	0	0	0	
0.2475	-0.00148316	0.00225265	7.48756E-05	0.00019831	0	0	0	
0.247667	0.00364323	-0.00321743	5.14707E-05	0.000123328	0	0	0	
0.247833	-0.00490256	0.00648784	6.83965E-05	8.62618E-05	0	0	0	
0.248	0.00315776	-0.00665937	6.90934E-05	0.000134681	0	0	0	
0.248167	-0.000782518	-0.00144655	9.21474E-05	0.000129767	0	0	0	
0.248333	-0.00062371	0.0128444	9.07373E-05	0.000152157	0	0	0	
0.2485	-0.0003229	-0.00967168	6.98465E-05	0.000198008	0	0	0	
0.248667	0.00153792	0.00407626	4.17539E-05	0.000203046	0	0	0	
0.248833	-0.000273112	0.0029541	2.42581E-05	0.000178452	0	0	0	
0.249	-0.0016565	-0.00150051	4.03037E-05	0.000107023	0	0	0	
0.249167	-0.00693472	0.00322769	9.78088E-05	0.000110734	0	0	0	
0.249333	0.0112901	-0.000908062	0.000168211	0.000128079	0	0	0	
0.2495	-0.0089178	0.00253023	0.00019965	0.000143606	0	0	0	
0.249667	0.00114492	-0.000587245	0.000202983	0.000139663	0	0	0	
0.249833	0.00333433	0.00243652	0.000168748	9.84741E-05	0	0	0	
0.25	-0.00578469	-0.0067776	0.000137097	9.80254E-05	0	0	0	
0.250167	0.00252803	0.00727623	9.60026E-05	0.000138547	0	0	0	
0.250333	-0.000762835	-0.00425385	8.55754E-05	0.000164711	0	0	0	
0.2505	-0.00414825	-0.00493628	0.000122398	0.0001692	0	0	0	
0.250667	0.0052244	0.00179394	0.000156921	0.000176347	0	0	0	
0.250833	-0.00415701	-0.00266411	0.00015045	0.000167718	0	0	0	
0.251	-0.000504706	0.00436485	0.000122914	0.000150706	0	0	0	
0.251167	-0.000159824	-0.00527504	8.0379E-05	0.000121263	0	0	0	
0.251333	0.00284795	-0.002519	7.39991E-05	0.000129675	0	0	0	
0.2515	-0.000567318	0.0101812	6.45644E-05	0.000166841	0	0	0	
0.251667	-0.00614622	-0.0140619	6.11907E-05	0.000209689	0	0	0	
0.251833	0.00552947	0.0046508	8.21749E-05	0.00022672	0	0	0	
0.252	0.000941678	0.00167707	9.71386E-05	0.000167859	0	0	0	
0.252167	-0.00264222	0.00251854	0.000100166	8.97118E-05	0	0	0	
0.252333	0.000690537	-0.0120001	7.33485E-05	6.96519E-05	0	0	0	
0.2525	0.000312256	0.00583481	4.11568E-05	0.000132645	0	0	0	
0.252667	0.00102256	0.00279116	2.55162E-05	0.000160414	0	0	0	
0.252833	-0.000205547	-0.00395377	1.71292E-05	0.000142955	0	0	0	
0.253	-0.000387802	0.0026697	1.15488E-05	8.96011E-05	0	0	0	
0.253167	0.00046999	0.00133329	1.64164E-05	6.31999E-05	0	0	0	
0.253333	-1.70455E-05	-0.00379066	3.38521E-05	5.48788E-05	0	0	0	
0.2535	7.93466E-05	-0.00233122	5.73811E-05	5.99422E-05	0	0	0	
0.253667	0.00260083	0.00423896	6.60813E-05	7.06589E-05	0	0	0	
0.253833	-0.00156559	-0.000205777	6.54998E-05	7.20907E-05	0	0	0	
0.254	0.00150154	0.000560959	4.92665E-05	5.70119E-05	0	0	0	
0.254167	-0.000593112	0.000811496	3.96429E-05	4.46326E-05	0	0	0	
0.254333	0.000844892	-0.00249482	2.47031E-05	3.60013E-05	0	0	0	
0.2545	-4.20476E-05	0.00479888	2.53221E-05	6.09899E-05	0	0	0	
0.254667	0.000229683	-0.00453174	2.19573E-05	9.00493E-05	0	0	0	
0.254833	0.00174449	-0.00263746	3.24753E-05	0.000106322	0	0	0	
0.255	-0.00236959	0.0125127	4.66339E-05	0.000135213	0	0	0	
0.255167	-0.00202162	-0.00427919	6.93528E-05	0.000147046	0	0	0	
0.255333	0.0144568	-0.00551975	0.000119312	0.000146354	0	0	0	
0.2555	-0.00788263	0.00918635	0.000209627	0.000150827	0	0	0	
0.255667	-0.00295039	-0.0443837	0.000521245	0.000273961	0	0	0	
0.255833	0.0990695	-0.0914942	0.0011128	0.000880677	0	0	0	
0.256	-0.0573389	0.0180978	0.00146623	0.00109379	0	0	0	
0.256167	0.0186045	0.00799974	0.00134057	0.000979364	0	0	0	
0.256333	-0.00181159	-0.00531907	0.00075028	0.000383564	0	0	0	
0.2565	0.00889011	-0.0162495	0.000337524	0.000222435	0	0	0	
0.256667	-0.00920048	0.0215316	0.00023997	0.0003242	0	0	0	
0.256833	0.0123672	-0.0227697	0.000224282	0.00042775	0	0	0	
0.257	-0.00499356	-0.000380767	0.000276524	0.000455485	0	0	0	
0.257167	-0.0011329	0.0133757	0.000221633	0.000430885	0	0	0	
0.257333	-0.00320156	-0.015474	0.000180203	0.000354181	0	0	0	
0.2575	0.00695704	0.00721868	0.000108811	0.000309477	0	0	0	
0.257667	-0.00458093	0.00508172	8.49195E-05	0.000264759	0	0	0	
0.257833	-0.00244559	-0.00398315	0.000123486	0.000312633	0	0	0	
0.258	0.00546007	-0.00279731	0.000129956	0.000299129	0	0	0	
0.258167	-0.00520619	0.000791658	0.000122486	0.000245908	0	0	0	
0.258333	0.00211781	-0.00508164	9.90101E-05	0.000172569	0	0	0	
0.2585	0.00153173	0.000589216	6.21859E-05	0.000107636	0	0	0	
0.258667	0.000275519	0.00526417	4.23217E-05	8.40389E-05	0	0	0	
0.258833	-0.00305177	-0.00346077	3.71176E-05	0.000101396	0	0	0	
0.259	0.000660684	0.000192703	5.42369E-05	0.00011595	0	0	0	
0.259167	-0.000160895	0.00198498	5.26654E-05	0.000119764	0	0	0	
0.259333	0.0009452	-0.00290887	5.48474E-05	9.07014E-05	0	0	0	
0.2595	-0.00207774	-0.00842734	5.34846E-05	8.31675E-05	0	0	0	
0.259667	0.00208306	0.0101389	6.12225E-05	0.000128876	0	0	0	
0.259833	0.00197477	-0.00621545	7.54634E-05	0.000164548	0	0	0	
0.26	0.00381562	-0.00081625	0.000112131	0.000164233	0	0	0	
0.260167	-0.00493179	0.00517253	0.000143818	0.000126519	0	0	0	
0.260333	0.00352368	-0.00772026	0.000131991	0.000123569	0	0	0	
0.2605	0.00100714	-0.000112384	8.70628E-05	0.000114698	0	0	0	
0.260667	-0.00137052	0.00653573	5.2849E-05	0.000115508	0	0	0	
0.260833	0.00134791	-0.00355786	5.98749E-05	9.33146E-05	0	0	0	
0.261	0.000942878	0.00161528	5.79499E-05	9.54334E-05	0	0	0	
0.261167	0.00192818	-6.45765E-05	5.35895E-05	6.78363E-05	0	0	0	
0.261333	-0.00038263	-0.00134508	3.24327E-05	4.11828E-05	0	0	0	
0.2615	1.12425E-05	-0.00079356	3.65469E-05	2.13111E-05	0	0	0	
0.261667	-0.000974538	0.00616324	4.81427E-05	4.40241E-05	0	0	0	
0.261833	0.00228218	-0.00422006	7.49544E-05	5.74292E-05	0	0	0	
0.262	-0.0039439	0.00349679	8.08702E-05	8.89692E-05	0	0	0	
0.262167	0.00255918	0.00188992	7.81956E-05	7.01654E-05	0	0	0	
0.262333	-0.000514082	0.000139899	6.21521E-05	8.93427E-05	0	0	0	
0.2625	-0.00253987	0.00297276	4.96595E-05	9.9251E-05	0	0	0	
0.262667	0.00191366	0.0022572	6.94848E-05	0.000110077	0	0	0	
0.262833	0.00145358	-0.00575685	9.86434E-05	0.000124452	0	0	0	
0.263	-0.00298974	0.00467737	9.83107E-05	0.000125148	0	0	0	
0.263167	-0.00341922	0.00213354	7.36364E-05	0.0001712	0	0	0	
0.263333	0.00159906	-0.000746688	9.07676E-05	0.000189144	0	0	0	
0.2635	0.00952389	0.00932146	0.000210241	0.000200953	0	0	0	
0.263667	-0.00505996	-0.00141333	0.000250514	0.000185983	0	0	0	
0.263833	-0.00724795	0.0223915	0.000292656	0.000210579	0	0	0	
0.264	0.0149236	-0.0077456	0.000300144	0.000311734	0	0	0	
0.264167	0.0253786	0.0336265	0.000458091	0.000714692	0	0	0	
0.264333	0.0162304	-0.0329225	0.000550687	0.000794716	0	0	0	
0.2645	-0.0532793	0.0797063	0.000678909	0.000984673	0	0	0	
0.264667	0.0601927	-0.0617879	0.000796333	0.00109164	0	0	0	
0.264833	-0.0327909	0.0126142	0.000982213	0.00138292	0	0	0	
0.265	0.00120947	-0.0328105	0.00093208	0.00134743	0	0	0	
0.265167	0.0347362	0.0551858	0.000785412	0.00119117	0	0	0	
0.265333	-0.00044982	-0.015231	0.0006498	0.000868261	0	0	0	
0.2655	0.0148653	0.0611159	0.00054201	0.00120104	0	0	0	
0.265667	0.0150772	-0.0281016	0.00050402	0.00162639	0	0	0	
0.265833	-0.0307807	0.0389492	0.000598911	0.00213977	0	0	0	
0.266	0.0366643	-0.0628928	0.000837424	0.0016945	0	0	0	
0.266167	-0.0361638	0.0461274	0.000918447	0.00126457	0	0	0	
0.266333	0.0125253	-0.0510229	0.000727379	0.000979867	0	0	0	
0.2665	0.0017238	0.0331258	0.000430264	0.0011694	0	0	0	
0.266667	0.0148995	0.0895836	0.000267712	0.00138234	0	0	0	
0.266833	-0.0135038	-0.061164	0.00018638	0.00157842	0	0	0	
0.267	-0.00496747	0.00884762	0.000174478	0.00146814	0	0	0	
0.267167	0.00107395	0.0359109	0.000127489	0.00104847	0	0	0	
0.267333	0.00901603	-0.0219366	0.000115243	0.000693093	0	0	0	
0.2675	-0.0113762	-0.0157705	0.000135043	0.000487392	0	0	0	
0.267667	0.00739001	0.0334643	0.000262156	0.000462999	0	0	0	
0.267833	0.00421519	-0.0273401	0.000345613	0.000471054	0	0	0	
0.268	-0.0077544	0.012534	0.000348735	0.00050065	0	0	0	
0.268167	0.00234053	0.00553092	0.000269621	0.000382559	0	0	0	
0.268333	-0.0141163	-0.00997133	0.000216335	0.000229775	0	0	0	
0.2685	0.021017	0.00748283	0.00025486	0.000208899	0	0	0	
0.268667	0.00314631	-0.00475488	0.000357012	0.000237122	0	0	0	
0.268833	-0.0124829	0.00715679	0.000383657	0.000217568	0	0	0	
0.269	0.00539872	-0.011045	0.000346711	0.000195736	0	0	0	
0.269167	0.00162355	0.00984469	0.000217726	0.000208026	0	0	0	
0.269333	0.00228061	-0.00155615	0.000114986	0.000273053	0	0	0	
0.2695	-0.00194936	-0.0224012	0.000104981	0.000360572	0	0	0	
0.269667	-0.00558205	0.0413815	0.000114768	0.000488094	0	0	0	
0.269833	-9.15543E-05	-0.0352003	0.000113897	0.00061476	0	0	0	
0.27	-0.00190305	0.0157184	7.66363E-05	0.000657889	0	0	0	
0.270167	0.00599284	0.00628109	7.87858E-05	0.000691159	0	0	0	
0.270333	-0.00878209	-0.0233522	0.000115353	0.000707445	0	0	0	
0.2705	0.00163071	0.0274195	0.000177493	0.00068515	0	0	0	
0.270667	0.00337511	-0.0172661	0.000211628	0.000619957	0	0	0	
0.270833	-0.000573476	-0.0054565	0.000178958	0.000648716	0	0	0	
0.271	-0.0025591	0.0215389	0.000131696	0.000611661	0	0	0	
0.271167	-0.00903721	-0.0200319	9.65427E-05	0.000558274	0	0	0	
0.271333	0.00223957	0.0158241	0.000113633	0.000397436	0	0	0	
0.2715	0.013138	-0.00664807	0.000168275	0.000362492	0	0	0	
0.271667	-0.0146196	-0.00764926	0.000215267	0.000315684	0	0	0	
0.271833	0.00349081	0.00507843	0.000279754	0.000226461	0	0	0	
0.272	0.00207445	0.0104882	0.000256014	0.000156922	0	0	0	
0.272167	0.00123906	-0.0194803	0.00017021	0.000183346	0	0	0	
0.272333	-0.0040228	0.0124071	7.94837E-05	0.000256249	0	0	0	
0.2725	0.00162022	-0.0257523	5.47349E-05	0.000337872	0	0	0	
0.272667	0.0013756	0.0156858	0.000102041	0.000367492	0	0	0	
0.272833	-0.00268258	0.00493521	0.000115329	0.000428353	0	0	0	
0.273	-0.00464775	-0.00547904	0.000108963	0.000407153	0	0	0	
0.273167	0.00083522	0.00158546	7.50128E-05	0.000305649	0	0	0	
0.273333	0.0093221	-0.00718654	0.000104441	0.000177429	0	0	0	
0.2735	-0.00320869	-0.00337492	0.000139108	0.000115847	0	0	0	
0.273667	-0.0143758	0.00922174	0.000241884	0.000220177	0	0	0	
0.273833	0.0140425	-0.0208267	0.000264188	0.000348223	0	0	0	
0.274	0.0044942	0.0299634	0.000300843	0.000445081	0	0	0	
0.274167	-0.00609961	-0.0129717	0.00021885	0.000475735	0	0	0	
0.274333	-0.00474769	-0.0175583	0.000188008	0.000534901	0	0	0	
0.2745	0.000731509	0.040845	0.000102345	0.000564686	0	0	0	
0.274667	0.00306118	-0.0234861	8.7014E-05	0.000600361	0	0	0	
0.274833	-0.00260131	0.00619134	7.28603E-05	0.000503553	0	0	0	
0.275	-0.00127023	-0.00233197	7.33271E-05	0.000397151	0	0	0	
0.275167	-0.000518615	0.00133693	8.87717E-05	0.000211441	0	0	0	
0.275333	0.000188057	-0.000310836	7.37685E-05	0.000108148	0	0	0	
0.2755	0.00621315	0.00385874	9.60761E-05	0.000160177	0	0	0	
0.275667	-0.011098	-0.0016749	0.000122525	0.000288182	0	0	0	
0.275833	0.00395878	0.00857363	0.000163248	0.000352506	0	0	0	
0.276	-0.00139857	-0.0042476	0.000175046	0.000283891	0	0	0	
0.276167	-0.00562501	-0.0111643	0.000149764	0.000160716	0	0	0	
0.276333	0.00860312	0.0137623	0.000134116	0.000156563	0	0	0	
0.2765	-0.00257283	0.00259635	0.000126545	0.000197292	0	0	0	
0.276667	-0.00539297	-0.0224123	0.000161332	0.000237286	0	0	0	
0.276833	0.0122057	0.0158833	0.000251053	0.000326045	0	0	0	
0.277	-0.0175864	0.00717218	0.000322615	0.000469044	0	0	0	
0.277167	0.0110716	-0.0205749	0.000325945	0.000467695	0	0	0	
0.277333	0.00383279	0.00780767	0.000323333	0.000422429	0	0	0	
0.2775	-0.00540168	-0.00222564	0.000284864	0.00029578	0	0	0	
0.277667	-0.000399063	0.00470638	0.000231442	0.00028364	0	0	0	
0.277833	0.00515508	0.00788958	0.000144977	0.000270112	0	0	0	
0.278	0.0122773	-0.0149501	0.000117337	0.000286719	0	0	0	
0.278167	-0.00468268	0.00861037	0.000172567	0.000306835	0	0	0	
0.278333	1.34773E-05	0.00290702	0.000277575	0.000277841	0	0	0	
0.2785	0.00414282	-0.00725564	0.000280784	0.000195629	0	0	0	
0.278667	0.0069144	0.0145615	0.000276958	0.00019096	0	0	0	
0.278833	-0.01135	-0.01437	0.000178659	0.000179135	0	0	0	
0.279	0.0188116	-0.00260062	0.000260757	0.000285223	0	0	0	
0.279167	0.000391936	0.0310036	0.00033399	0.000352497	0	0	0	
0.279333	-0.0095444	-0.016435	0.000425807	0.000453997	0	0	0	
0.2795	0.0126432	-0.0197027	0.000381835	0.000632316	0	0	0	
0.279667	0.00324155	0.0310516	0.000390756	0.000659598	0	0	0	
0.279833	0.000125617	-0.0273614	0.000311633	0.000674275	0	0	0	
0.28	0.00426827	0.0314635	0.000249459	0.000565225	0	0	0	
0.280167	-0.0408504	-0.0260929	0.000264206	0.000585579	0	0	0	
0.280333	0.0426485	-0.000694129	0.000464852	0.00057795	0	0	0	
0.2805	-0.00437922	0.0378889	0.000687678	0.000493343	0	0	0	
0.280667	-0.0241812	-0.0187648	0.000728824	0.000496595	0	0	0	
0.280833	0.0108785	-0.0118088	0.000567869	0.000470195	0	0	0	
0.281	0.0113908	0.0137758	0.000430041	0.00048899	0	0	0	
0.281167	-0.00799259	0.00315615	0.000277271	0.000398213	0	0	0	
0.281333	-0.014758	-0.00869929	0.000242244	0.000334447	0	0	0	
0.2815	0.0030681	0.0107395	0.000227985	0.000347901	0	0	0	
0.281667	0.00684086	0.00590654	0.000232252	0.000412464	0	0	0	
0.281833	-0.000575656	-0.0107989	0.000181969	0.00041932	0	0	0	
0.282	0.000777694	0.012245	9.9615E-05	0.000337086	0	0	0	
0.282167	-0.00731903	-0.00182059	6.94748E-05	0.000218032	0	0	0	
0.282333	0.00673409	-0.00163938	0.000106936	0.000152529	0	0	0	
0.2825	-0.00797047	-0.000947086	0.000142298	0.000130057	0	0	0	
0.282667	0.00607726	-0.00269118	0.00014194	0.000100837	0	0	0	
0.282833	-0.000553157	0.00709645	0.00011289	0.000105193	0	0	0	
0.283	0.00152624	-0.0010816	7.78537E-05	9.60811E-05	0	0	0	
0.283167	-0.0035669	0.00226964	5.38822E-05	0.000105918	0	0	0	
0.283333	-8.55059E-05	0.00176015	4.15798E-05	0.000112537	0	0	0	
0.2835	-0.000135793	-0.00614931	5.01632E-05	0.000142163	0	0	0	
0.283667	-0.00299788	0.00463588	4.20582E-05	0.000170732	0	0	0	
0.283833	0.00353074	0.00275848	6.76378E-05	0.000186819	0	0	0	
0.284	0.000510424	-0.000206105	9.79826E-05	0.00017396	0	0	0	
0.284167	-0.00471957	-0.00203957	0.000108214	0.000136785	0	0	0	
0.284333	0.00323169	0.00660528	9.50139E-05	0.00013537	0	0	0	
0.2845	-0.00145194	-0.00383602	6.34187E-05	0.000151964	0	0	0	
0.284667	-0.000977698	0.000946364	5.23493E-05	0.000163234	0	0	0	
0.284833	0.000892657	0.00123034	4.16373E-05	0.000152496	0	0	0	
0.285	0.00120994	-0.00152989	3.91299E-05	0.000111984	0	0	0	
0.285167	-0.00170687	-0.000526125	3.80135E-05	9.41847E-05	0	0	0	
0.285333	0.00235395	0.0106164	4.29118E-05	8.39808E-05	0	0	0	
0.2855	-0.00289739	-0.00972223	4.74257E-05	0.000122643	0	0	0	
0.285667	-0.000716639	0.00277543	5.68857E-05	0.000155411	0	0	0	
0.285833	0.00425545	0.0088355	5.47345E-05	0.000140877	0	0	0	
0.286	-0.00541069	-0.00506733	6.55426E-05	0.000129427	0	0	0	
0.286167	-0.00222991	-0.00957866	0.000106724	0.000144162	0	0	0	
0.286333	0.00652606	0.00156933	0.000137742	0.00020916	0	0	0	
0.2865	-0.00298372	0.00592239	0.000131987	0.000228132	0	0	0	
0.286667	-0.000872155	0.000999107	0.000109217	0.000198491	0	0	0	
0.286833	0.00125591	-0.00225964	8.13555E-05	0.000139831	0	0	0	
0.287	-0.0016263	-0.00247237	6.10979E-05	0.000135146	0	0	0	
0.287167	0.00166047	0.0047844	3.8314E-05	0.000153274	0	0	0	
0.287333	-0.000896076	-0.0186321	2.75814E-05	0.000202779	0	0	0	
0.2875	0.000228982	0.01417	3.13636E-05	0.000252301	0	0	0	
0.287667	0.00423825	0.00228888	4.06802E-05	0.000265418	0	0	0	
0.287833	-0.00574505	-0.0140936	6.9448E-05	0.00024739	0	0	0	
0.288	0.00127365	0.0126775	7.97934E-05	0.000212459	0	0	0	
0.288167	0.00308088	-0.00363283	6.54906E-05	0.000195495	0	0	0	
0.288333	-0.000270813	-0.0071512	5.80716E-05	0.000166879	0	0	0	
0.2885	-0.00314686	0.00827796	6.65836E-05	0.000140108	0	0	0	
0.288667	0.00284221	0.0029526	7.63899E-05	0.000125662	0	0	0	
0.288833	0.000587112	-0.00569335	5.55093E-05	0.000131271	0	0	0	
0.289	0.00129594	0.00347547	6.2185E-05	9.86133E-05	0	0	0	
0.289167	-0.00577734	-0.00820478	6.13882E-05	0.000107066	0	0	0	
0.289333	-0.0104059	0.0167704	0.000161352	0.00016041	0	0	0	
0.2895	0.0549241	-0.0270065	0.000327846	0.000238442	0	0	0	
0.289667	-0.07812	-0.0571197	0.000614268	0.000663092	0	0	0	
0.289833	0.0511295	-0.00651807	0.00118075	0.000991489	0	0	0	
0.29	-0.0102475	-0.00887293	0.0012898	0.000980809	0	0	0	
0.290167	-0.00308762	-0.00734676	0.00107616	0.000626736	0	0	0	
0.290333	-0.0102099	0.0147826	0.000457433	0.000330329	0	0	0	
0.2905	0.0200132	-0.00191926	0.000266123	0.00033716	0	0	0	
0.290667	-0.00346724	0.000383121	0.000258047	0.000290759	0	0	0	
0.290833	-0.0121042	-0.00995436	0.000307224	0.000305837	0	0	0	
0.291	0.00837336	0.00912118	0.000256786	0.000342696	0	0	0	
0.291167	0.00208563	-0.00243934	0.000238379	0.000352162	0	0	0	
0.291333	-0.0103112	-0.00132772	0.000176476	0.000230169	0	0	0	
0.2915	0.00974253	-0.00389307	0.000165411	0.000103856	0	0	0	
0.291667	-0.00517361	0.00746257	0.000188741	9.44747E-05	0	0	0	
0.291833	-0.00155997	-0.00192856	0.000236228	0.000187263	0	0	0	
0.292	-0.000199718	-0.00338521	0.000225984	0.000367332	0	0	0	
0.292167	0.00178163	0.00209041	0.000155563	0.000457184	0	0	0	
0.292333	-0.00303798	0.0022969	8.07607E-05	0.000396236	0	0	0	
0.2925	0.00103313	0.0023955	5.01653E-05	0.000240038	0	0	0	
0.292667	-0.00322468	-0.00144584	6.45014E-05	0.000190655	0	0	0	
0.292833	0.00414942	0.0183714	0.000106409	0.000258174	0	0	0	
0.293	0.000365864	-0.0287534	0.000120464	0.000409528	0	0	0	
0.293167	-0.000850628	0.0279073	0.000127524	0.00048918	0	0	0	
0.293333	0.00293635	-0.015732	8.47415E-05	0.000512985	0	0	0	
0.2935	-0.0025615	0.025462	6.65578E-05	0.000460835	0	0	0	
0.293667	0.00291912	-0.0345491	5.193E-05	0.000529409	0	0	0	
0.293833	-0.00452183	0.0059021	0.000103218	0.000836007	0	0	0	
0.294	0.0037059	-0.0511413	0.000165941	0.000926323	0	0	0	
0.294167	0.0112949	0.224021	0.000198543	0.00173674	0	0	0	
0.294333	-0.0267272	-0.327495	0.000321575	0.00306827	0	0	0	
0.2945	0.0208622	0.147651	0.000397222	0.00458235	0	0	0	
0.294667	-0.00118229	-0.046868	0.000476066	0.00500762	0	0	0	
0.294833	-0.0228563	-0.0110431	0.000524361	0.00442489	0	0	0	
0.295	0.0257744	0.110235	0.000560088	0.00437037	0	0	0	
0.295167	-0.00857033	-0.171634	0.000484599	0.00419145	0	0	0	
0.295333	-0.0101999	0.0344579	0.000314192	0.00368659	0	0	0	
0.2955	0.00466559	0.0886404	0.000184083	0.00353746	0	0	0	
0.295667	-0.0124569	-0.253591	0.000187339	0.0039708	0	0	0	
0.295833	0.0258007	0.4657	0.000251386	0.00530648	0	0	0	
0.296	-0.0121924	-0.517985	0.000490101	0.00741769	0	0	0	
0.296167	-0.0295256	0.186027	0.000629937	0.0102717	0	0	0	
0.296333	0.0334669	-0.109849	0.000815275	0.0119168	0	0	0	
0.2965	-0.0331006	0.0304459	0.000782432	0.00923619	0	0	0	
0.296667	0.0120456	-0.00595274	0.000716539	0.00485879	0	0	0	
0.296833	0.0219304	-0.0160522	0.000569637	0.00133606	0	0	0	
0.297	-0.0491753	-0.169435	0.000578926	0.00156375	0	0	0	
0.297167	0.0244964	0.324867	0.000656476	0.00303569	0	0	0	
0.297333	-0.0135875	-0.369196	0.000712696	0.00510099	0	0	0	
0.2975	-0.00204906	0.0215977	0.000790787	0.00511865	0	0	0	
0.297667	-0.0168315	0.0577992	0.000969563	0.00364565	0	0	0	
0.297833	-0.00627833	0.0153752	0.000965573	0.0020143	0	0	0	
0.298	-0.00259642	-0.0943679	0.000650841	0.00122011	0	0	0	
0.298167	0.0217842	0.0585794	0.000365774	0.00167051	0	0	0	
0.298333	-0.00655199	0.0344791	0.000208947	0.00206708	0	0	0	
0.2985	-0.0185543	-0.0513963	0.000346204	0.00217177	0	0	0	
0.298667	0.0403804	0.0398833	0.000487893	0.00182157	0	0	0	
0.298833	-0.0188295	-0.00449991	0.000591997	0.000995293	0	0	0	
0.299	-0.00321771	0.0604762	0.000542438	0.00071752	0	0	0	
0.299167	0.00661868	-0.0662242	0.000327902	0.000940646	0	0	0	
0.299333	0.00767021	0.0313765	0.000215613	0.00116364	0	0	0	
0.2995	0.00988097	0.0112461	0.000157997	0.00115209	0	0	0	
0.299667	-0.0044264	-0.00884421	0.0002093	0.000673591	0	0	0	
0.299833	0.00883525	0.0211965	0.000310857	0.000529526	0	0	0	
0.3	0.00435637	-0.00852304	0.000322775	0.000494829	0	0	0	
0.300167	-0.000955095	0.0187883	0.00026036	0.000787715	0	0	0	
0.300333	-0.00614403	0.0312039	0.000166433	0.000963226	0	0	0	
0.3005	0.0180456	-0.0657822	0.00017986	0.00108834	0	0	0	
0.300667	0.00230926	-0.0203267	0.000283612	0.00129259	0	0	0	
0.300833	-0.0251733	0.0878273	0.000371441	0.001322	0	0	0	
0.301	0.015757	-0.0212366	0.000406116	0.0013651	0	0	0	
0.301167	-0.00357675	-0.0547351	0.000339885	0.0013548	0	0	0	
0.301333	0.00794667	0.0628059	0.000236167	0.00124068	0	0	0	
0.3015	-0.00281444	-0.0487103	0.00017622	0.0013971	0	0	0	
0.301667	0.00326071	0.00375134	0.000137465	0.000985038	0	0	0	
0.301833	-0.00166931	-0.00918565	0.000107807	0.00072313	0	0	0	
0.302	-0.00255703	0.0094268	0.000112943	0.000310608	0	0	0	
0.302167	-0.00309116	0.00602688	0.00014581	0.0001965	0	0	0	
0.302333	0.00627338	-0.00964381	0.000156941	0.000195424	0	0	0	
0.3025	-0.00197832	-0.00763497	0.000105615	0.000363454	0	0	0	
0.302667	-0.000539112	0.04186	6.74341E-05	0.00065343	0	0	0	
0.302833	-0.00196319	-0.0219416	4.85048E-05	0.000769146	0	0	0	
0.303	0.0103104	-0.023619	8.16503E-05	0.000734585	0	0	0	
0.303167	-0.00527737	0.022114	0.000138114	0.000550551	0	0	0	
0.303333	5.65547E-05	0.00909382	0.000138017	0.00056671	0	0	0	
0.3035	-0.0011774	-0.0128364	0.000107809	0.000392898	0	0	0	
0.303667	-0.00330592	-0.0353205	8.39637E-05	0.000442394	0	0	0	
0.303833	-0.000673199	0.0425669	0.000120919	0.000531767	0	0	0	
0.304	0.00535592	-0.0147459	0.00013058	0.000663998	0	0	0	
0.304167	0.000510826	0.0136358	9.87148E-05	0.000601331	0	0	0	
0.304333	-0.00498989	-0.00711407	8.8477E-05	0.000372722	0	0	0	
0.3045	0.00175587	-0.075022	8.28399E-05	0.000493975	0	0	0	
0.304667	0.000297266	0.228293	7.70698E-05	0.00138619	0	0	0	
0.304833	-0.00231865	-0.273543	8.12189E-05	0.00287187	0	0	0	
0.305	0.00409641	0.210128	9.36244E-05	0.00411962	0	0	0	
0.305167	-0.0231508	-0.126972	0.000155055	0.0043618	0	0	0	
0.305333	0.0119933	0.0179047	0.000231674	0.00340584	0	0	0	
0.3055	-0.00185428	0.0287425	0.000239789	0.00196927	0	0	0	
0.305667	0.00834393	0.0554469	0.000211272	0.00156287	0	0	0	
0.305833	-0.00702705	-0.0811324	0.000153658	0.00267841	0	0	0	
0.306	0.00237294	0.0881933	0.000161503	0.00414129	0	0	0	
0.306167	-0.00448729	-0.0687757	0.000132525	0.00433972	0	0	0	
0.306333	0.00110468	0.0223822	9.12548E-05	0.0032135	0	0	0	
0.3065	0.000976444	-0.0091518	6.86263E-05	0.00182449	0	0	0	
0.306667	-0.000672406	0.00523368	7.26789E-05	0.000874466	0	0	0	
0.306833	-0.000945659	-0.000408371	6.2619E-05	0.000458265	0	0	0	
0.307	0.00146109	0.0248939	4.05268E-05	0.000445572	0	0	0	
0.307167	-0.00421568	-0.0467717	3.80923E-05	0.000602282	0	0	0	
0.307333	0.00307671	0.0361317	4.27452E-05	0.000681327	0	0	0	
0.3075	0.000569011	-0.0184402	4.79511E-05	0.000652615	0	0	0	
0.307667	-0.0043591	0.0130231	5.88679E-05	0.000505809	0	0	0	
0.307833	0.00988881	-0.0116363	8.90095E-05	0.000437812	0	0	0	
0.308	-0.00697917	-0.0255936	0.000141491	0.000540001	0	0	0	
0.308167	-0.00316307	0.0448518	0.000205734	0.00062063	0	0	0	
0.308333	0.00766147	-0.0198081	0.000241638	0.000745435	0	0	0	
0.3085	-0.00565223	-0.0143938	0.000217675	0.000774474	0	0	0	
0.308667	0.00166802	0.0256688	0.000151243	0.000741436	0	0	0	
0.308833	0.000529533	-0.0220276	0.000108851	0.000603466	0	0	0	
0.309	-0.00325412	0.0136534	9.20087E-05	0.000424302	0	0	0	
0.309167	0.000634639	-0.0158772	7.80854E-05	0.000371592	0	0	0	
0.309333	-9.40735E-05	-0.00327358	6.93537E-05	0.000279137	0	0	0	
0.3095	-0.00390488	0.0138342	6.27904E-05	0.000227281	0	0	0	
0.309667	0.00312925	-0.00626565	7.14353E-05	0.000200263	0	0	0	
0.309833	-0.00327513	0.00431775	6.09508E-05	0.000171196	0	0	0	
0.31	0.00832764	-0.0137846	7.26321E-05	0.000197391	0	0	0	
0.310167	-0.00686588	0.0101129	8.82992E-05	0.000243601	0	0	0	
0.310333	-0.000125407	-0.00641429	9.54016E-05	0.000270479	0	0	0	
0.3105	0.00164544	0.0055075	7.0195E-05	0.000239547	0	0	0	
0.310667	0.000969654	-0.0111296	8.00167E-05	0.000292998	0	0	0	
0.310833	-0.00340151	0.0181153	8.96925E-05	0.000340392	0	0	0	
0.311	0.00211784	-0.00409214	0.000106807	0.000388351	0	0	0	
0.311167	0.0013932	-0.00425433	9.51598E-05	0.000424511	0	0	0	
0.311333	0.0034517	0.0102445	0.000106846	0.000469855	0	0	0	
0.3115	-0.00566073	-0.029709	0.000129871	0.00050901	0	0	0	
0.311667	0.00459408	0.0345812	0.00012657	0.000501902	0	0	0	
0.311833	-0.00149667	-0.0169737	9.90064E-05	0.000543292	0	0	0	
0.312	-0.000134851	0.00326427	5.81073E-05	0.000466404	0	0	0	
0.312167	-0.00215531	0.0024567	4.21082E-05	0.000279449	0	0	0	
0.312333	0.00432331	-0.00277394	4.29574E-05	0.000146787	0	0	0	
0.3125	-0.00299758	0.000839265	6.08582E-05	0.000150103	0	0	0	
0.312667	0.000824611	-0.0132476	6.04471E-05	0.000220038	0	0	0	
0.312833	0.000731121	0.0120305	6.86001E-05	0.000232987	0	0	0	
0.313	-0.00116016	-0.000846612	6.09145E-05	0.000206698	0	0	0	
0.313167	0.0015402	-0.00754161	5.67047E-05	0.000196959	0	0	0	
0.313333	-0.00352921	0.0141533	5.30817E-05	0.000174857	0	0	0	
0.3135	0.0045727	-0.0116456	6.59048E-05	0.000269967	0	0	0	
0.313667	-0.000308666	0.00135325	8.13782E-05	0.000356248	0	0	0	
0.313833	-0.00580265	-0.00419308	9.83119E-05	0.000422223	0	0	0	
0.314	0.0037384	0.00511512	0.000101589	0.000348126	0	0	0	
0.314167	0.000470613	-0.00116163	9.06471E-05	0.0002177	0	0	0	
0.314333	0.000760714	0.0132514	5.05846E-05	0.000156289	0	0	0	
0.3145	-0.00290392	-0.0190859	3.51657E-05	0.000223414	0	0	0	
0.314667	0.00105976	0.00384585	2.92079E-05	0.000293132	0	0	0	
0.314833	0.000304963	0.00375199	4.56565E-05	0.000252452	0	0	0	
0.315	-0.00231267	-0.00417104	3.92832E-05	0.000170616	0	0	0	
0.315167	8.87214E-05	0.00178556	4.75964E-05	9.50404E-05	0	0	0	
0.315333	-3.09095E-05	0.00439162	3.4745E-05	0.000131781	0	0	0	
0.3155	0.00159359	-0.0175087	3.73855E-05	0.000179626	0	0	0	
0.315667	0.000654432	0.0237868	4.2898E-05	0.000297051	0	0	0	
0.315833	-0.000777516	-0.0253608	5.52131E-05	0.000396413	0	0	0	
0.316	-0.00190273	0.0155927	6.30426E-05	0.000451072	0	0	0	
0.316167	-0.000457927	-0.00572146	6.99658E-05	0.000406658	0	0	0	
0.316333	0.00393685	-0.00622495	7.79869E-05	0.000289267	0	0	0	
0.3165	-0.00159268	0.00418288	7.03108E-05	0.000199046	0	0	0	
0.316667	-0.00332607	-0.00226327	8.04306E-05	0.000207301	0	0	0	
0.316833	0.0076917	-0.00134369	9.43191E-05	0.000277307	0	0	0	
0.317	-0.00640909	0.00576505	0.000125983	0.000292342	0	0	0	
0.317167	0.00389388	-0.00878754	0.000125734	0.000254792	0	0	0	
0.317333	-0.000295272	0.000258397	0.000103696	0.000226349	0	0	0	
0.3175	-4.05415E-05	-0.00450611	7.70276E-05	0.000199064	0	0	0	
0.317667	0.000425734	0.00532856	5.26918E-05	0.000187202	0	0	0	
0.317833	0.00181589	-0.0139215	4.82976E-05	0.000173686	0	0	0	
0.318	0.000108509	0.00679497	3.93229E-05	0.000249758	0	0	0	
