0	0.00521671	-0.00143776	5.21671E-07	1.43776E-07	0	0	0	
0.000166667	-0.0110235	0.000627013	4.77662E-05	1.15026E-05	0	0	0	
0.000333333	0.00837938	0.00470356	0.000153326	4.93398E-05	0	0	0	
0.0005	0.00386674	-0.0102194	0.000272039	0.000112698	0	0	0	
0.000666667	-0.0120674	0.0127746	0.000296498	0.000172454	0	0	0	
0.000833333	0.0101255	-0.0107784	0.000255221	0.000209945	0	0	0	
0.001	0.00110049	0.00492202	0.000250416	0.00020582	0	0	0	
0.00116667	-0.0229293	-0.00377834	0.000353065	0.000172145	0	0	0	
0.00133333	0.0377807	0.00692771	0.000496176	0.00013802	0	0	0	
0.0015	-0.0211692	-0.00780628	0.000557093	0.000138255	0	0	0	
0.00166667	-0.00810985	0.00613815	0.00059408	0.000165751	0	0	0	
0.00183333	0.0205438	-0.0108335	0.000483836	0.000216813	0	0	0	
0.002	-0.00919786	0.0166032	0.000421753	0.000268727	0	0	0	
0.00216667	0.00103925	-0.0169886	0.000294008	0.000317944	0	0	0	
0.00233333	-0.000408693	0.011734	0.000245956	0.000313976	0	0	0	
0.0025	-0.00539422	-0.0107281	0.000205702	0.00027651	0	0	0	
0.00266667	0.00842881	0.00796534	0.00016823	0.000226528	0	0	0	
0.00283333	0.00420778	-0.00491917	0.000174094	0.000198073	0	0	0	
0.003	-0.00776574	0.00695483	0.00015039	0.000209432	0	0	0	
0.00316667	-0.00577252	-0.0140835	0.000160015	0.000280598	0	0	0	
0.00333333	0.0184535	0.0190625	0.000190206	0.00037108	0	0	0	
0.0035	-0.0158559	-0.0203628	0.000246179	0.000424757	0	0	0	
0.00366667	-0.00135941	0.0156137	0.000329225	0.000402595	0	0	0	
0.00383333	0.0114795	-0.00739724	0.000317583	0.000330801	0	0	0	
0.004	0.000571498	0.00404325	0.00028891	0.000232812	0	0	0	
0.00416667	-0.0139838	-0.00494235	0.000267186	0.000177186	0	0	0	
0.00433333	0.0127442	0.00903663	0.00029855	0.000197919	0	0	0	
0.0045	-0.0111316	-0.0139292	0.000298394	0.000266998	0	0	0	
0.00466667	0.0111027	0.0126871	0.000246889	0.000298414	0	0	0	
0.00483333	0.00223967	-0.00701988	0.000227797	0.000262884	0	0	0	
0.005	-0.0109565	0.00698338	0.000218662	0.000201164	0	0	0	
0.00516667	0.00231511	-0.00787481	0.000218981	0.000192172	0	0	0	
0.00533333	0.0109126	0.0102529	0.000245288	0.000225634	0	0	0	
0.0055	-0.0121041	-0.0126344	0.000251273	0.000272023	0	0	0	
0.00566667	0.0041539	0.0138913	0.00024107	0.000287512	0	0	0	
0.00583333	-0.00236378	-0.0124438	0.000152935	0.000283494	0	0	0	
0.006	0.00829244	0.0115334	0.000124667	0.000271898	0	0	0	
0.00616667	-0.00750519	-0.00711615	0.000108662	0.000245298	0	0	0	
0.00633333	0.00249109	0.00500268	0.000118041	0.000192954	0	0	0	
0.0065	-0.00379783	-0.00613289	0.000112099	0.000173238	0	0	0	
0.00666667	0.00767515	0.0126297	0.000142812	0.000213761	0	0	0	
0.00683333	-0.0122453	-0.0154644	0.000163782	0.000307933	0	0	0	
0.007	0.00894451	0.0138911	0.000193167	0.000359511	0	0	0	
0.00716667	-0.00247701	-0.0127605	0.000196683	0.000337327	0	0	0	
0.00733333	-0.00644605	0.0110501	0.000213152	0.000278306	0	0	0	
0.0075	0.0106033	-0.00612642	0.000189603	0.000230447	0	0	0	
0.00766667	-0.00516697	0.00422263	0.000205088	0.000205134	0	0	0	
0.00783333	-0.00895732	-0.00821406	0.00030863	0.000213929	0	0	0	
0.008	0.0227398	0.00785703	0.000443518	0.000234164	0	0	0	
0.00816667	-0.0225047	-0.00889827	0.000492635	0.000255085	0	0	0	
0.00833333	0.0062381	0.0132002	0.000427974	0.000278384	0	0	0	
0.0085	0.00675391	-0.0144444	0.000350618	0.000301028	0	0	0	
0.00866667	-0.00444045	0.0100707	0.000237839	0.000292543	0	0	0	
0.00883333	-0.00225096	-0.00882603	0.000192015	0.000251542	0	0	0	
0.009	0.00194751	0.00859445	0.000124122	0.000218362	0	0	0	
0.00916667	0.00313532	-0.0096721	0.000126389	0.000222907	0	0	0	
0.00933333	0.000448445	0.00658618	0.000122271	0.000215329	0	0	0	
0.0095	-0.00220522	-0.00518842	0.00013363	0.000197024	0	0	0	
0.00966667	-0.00557438	0.0100107	0.000123237	0.000212125	0	0	0	
0.00983333	0.00946413	-0.0167713	0.000117388	0.000266343	0	0	0	
0.01	-0.000205396	0.0118256	0.00017015	0.000305391	0	0	0	
0.0101667	-0.00390721	-0.00977492	0.00020864	0.000285722	0	0	0	
0.0103333	-0.00178934	0.0109996	0.000197655	0.000260636	0	0	0	
0.0105	0.00473168	-0.0156537	0.000139882	0.000273811	0	0	0	
0.0106667	0.00140037	0.0131774	9.67341E-05	0.000297949	0	0	0	
0.0108333	-0.00554696	-0.00943222	7.39934E-05	0.000284615	0	0	0	
0.011	0.0121745	0.0062239	0.000103529	0.000225905	0	0	0	
0.0111667	-0.00553466	-0.0081417	0.000184372	0.00018851	0	0	0	
0.0113333	-0.00348607	0.00694278	0.000284876	0.000189679	0	0	0	
0.0115	0.00950272	-0.00770065	0.000256023	0.0002203	0	0	0	
0.0116667	-0.00140768	0.00989469	0.00024509	0.000259479	0	0	0	
0.0118333	-0.00943594	-0.0141727	0.000210121	0.000292536	0	0	0	
0.012	0.00813377	0.013139	0.000229087	0.000307089	0	0	0	
0.0121667	-0.00405537	-0.00923971	0.000189464	0.000287954	0	0	0	
0.0123333	0.00834347	0.00607854	0.000148243	0.000245341	0	0	0	
0.0125	-0.00437676	-0.0089848	0.000127461	0.000233634	0	0	0	
0.0126667	-0.00369151	0.00939295	0.000130283	0.000248653	0	0	0	
0.0128333	0.00162137	-0.0110829	0.000105748	0.000274808	0	0	0	
0.013	0.00322178	0.0108685	0.000144434	0.000281749	0	0	0	
0.0131667	-0.00323753	-0.0124197	0.000114877	0.000270782	0	0	0	
0.0133333	-0.00432014	0.00578179	0.000152457	0.000236046	0	0	0	
0.0135	-0.000313565	-0.0012217	9.95749E-05	0.000174812	0	0	0	
0.0136667	0.0101809	0.00124874	0.000186578	0.000155435	0	0	0	
0.0138333	-0.0054245	-0.00862253	0.000181649	0.000209328	0	0	0	
0.014	-0.00275279	0.0107996	0.000194978	0.000286769	0	0	0	
0.0141667	-0.000140755	-0.0113793	0.000113866	0.000315934	0	0	0	
0.0143333	0.00839947	0.0103103	0.000107345	0.00029506	0	0	0	
0.0145	-0.00195144	-0.0127205	8.94914E-05	0.000269974	0	0	0	
0.0146667	-0.0039935	0.00975177	8.20162E-05	0.000254611	0	0	0	
0.0148333	0.00126921	-0.00580016	7.74217E-05	0.000220924	0	0	0	
0.015	0.00257114	0.00242371	9.2904E-05	0.0001913	0	0	0	
0.0151667	0.00227154	-0.00423544	0.000100061	0.000195509	0	0	0	
0.0153333	-0.00055338	-0.00135146	0.000126304	0.000289922	0	0	0	
0.0155	-0.00950279	-0.00867593	0.000211607	0.000390449	0	0	0	
0.0156667	0.0149907	0.00989097	0.000283583	0.000424144	0	0	0	
0.0158333	-0.00797891	-0.0103586	0.000289111	0.000371237	0	0	0	
0.016	0.00263852	0.00963512	0.000209445	0.000306627	0	0	0	
0.0161667	-0.00438963	-0.00838019	0.000177686	0.000257738	0	0	0	
0.0163333	0.00140553	-0.00397845	0.000163171	0.000199071	0	0	0	
0.0165	0.00708476	0.00282633	0.00014748	0.000184913	0	0	0	
0.0166667	-0.00562635	-0.000794641	0.000146092	0.000171839	0	0	0	
0.0168333	-0.00841055	-0.00768089	0.000194238	0.000244444	0	0	0	
0.017	0.00787731	0.0111374	0.000235623	0.000283697	0	0	0	
0.0171667	0.00126109	-0.0117036	0.000216769	0.000325837	0	0	0	
0.0173333	-0.00199331	0.00928034	0.000138237	0.000300023	0	0	0	
0.0175	-0.00525774	-0.00706372	9.37833E-05	0.000256558	0	0	0	
0.0176667	0.0124671	0.00540288	0.000108708	0.000238214	0	0	0	
0.0178333	-0.00831944	-0.00419816	0.000133826	0.000235986	0	0	0	
0.018	-0.000275359	0.00585737	0.000193179	0.000252668	0	0	0	
0.0181667	0.00035224	-0.00870236	0.000200864	0.000263984	0	0	0	
0.0183333	0.00527517	0.0125311	0.000180423	0.000273955	0	0	0	
0.0185	-0.00962009	-0.010675	0.000206216	0.000279902	0	0	0	
0.0186667	0.014173	0.00739519	0.000251543	0.000269573	0	0	0	
0.0188333	-0.0151569	-0.00407937	0.000304193	0.000240595	0	0	0	
0.019	0.0137234	0.00604414	0.000302902	0.000231841	0	0	0	
0.0191667	-0.000603025	-0.00725904	0.000241048	0.000264032	0	0	0	
0.0193333	-0.000189738	0.0115779	0.000191487	0.000311931	0	0	0	
0.0195	-0.00497862	-0.0119828	0.000195565	0.000335071	0	0	0	
0.0196667	0.0104048	0.00987184	0.000225076	0.000304439	0	0	0	
0.0198333	-0.00921917	-0.00449267	0.000248018	0.000247518	0	0	0	
0.02	0.00674061	0.00271365	0.000195703	0.000202217	0	0	0	
0.0201667	-0.00385802	-0.00392441	0.000151199	0.000200973	0	0	0	
0.0203333	0.000199332	0.00717669	0.000116966	0.000217057	0	0	0	
0.0205	0.00642332	-0.00685325	8.09996E-05	0.000237736	0	0	0	
0.0206667	-0.00115689	0.00993764	0.000114614	0.000253177	0	0	0	
0.0208333	-0.00895336	-0.00939456	0.000198158	0.000283712	0	0	0	
0.021	0.00757156	0.00929061	0.00023813	0.0002867	0	0	0	
0.0211667	-0.00185629	-0.00736531	0.000197438	0.000272264	0	0	0	
0.0213333	0.000251731	0.00969434	0.000102911	0.000255742	0	0	0	
0.0215	-0.000892751	-0.00815988	7.03901E-05	0.000268632	0	0	0	
0.0216667	0.00387487	0.00762469	8.66667E-05	0.000275481	0	0	0	
0.0218333	-0.0073306	-0.00608109	0.00013965	0.000266488	0	0	0	
0.022	0.00983528	0.00711537	0.000163419	0.000241327	0	0	0	
0.0221667	-0.00236768	-0.00789817	0.00016302	0.000232118	0	0	0	
0.0223333	0.00149158	0.00947014	0.000107464	0.00022558	0	0	0	
0.0225	-0.00741068	-0.00470929	9.57454E-05	0.000221473	0	0	0	
0.0226667	0.00660611	0.00288382	9.40171E-05	0.000209915	0	0	0	
0.0228333	0.00179648	-0.00380126	0.000112975	0.000226866	0	0	0	
0.023	0.00466316	0.00999511	0.000156258	0.0002759	0	0	0	
0.0231667	-0.0110746	-0.0133044	0.000180004	0.000361958	0	0	0	
0.0233333	-0.00687907	0.0139671	0.000323416	0.00041816	0	0	0	
0.0235	0.0497542	-0.00931927	0.000546489	0.000412882	0	0	0	
0.0236667	-0.0557348	0.00666556	0.000784055	0.000350868	0	0	0	
0.0238333	0.00947972	-0.00378703	0.00103282	0.000278701	0	0	0	
0.024	0.0333645	-0.00218503	0.0011296	0.000198357	0	0	0	
0.0241667	-0.0297289	0.00775313	0.00101926	0.000164884	0	0	0	
0.0243333	0.0161985	-0.00143472	0.000751579	0.000204819	0	0	0	
0.0245	-0.0145528	-0.00838091	0.000459298	0.000315378	0	0	0	
0.0246667	0.00650389	0.0116126	0.000439732	0.000368315	0	0	0	
0.0248333	0.0188994	-0.0076783	0.000531442	0.000328351	0	0	0	
0.025	-0.0272952	0.0062187	0.000559727	0.000231718	0	0	0	
0.0251667	0.00410325	-0.00556742	0.000562639	0.000175942	0	0	0	
0.0253333	0.0108722	0.00348192	0.000486141	0.000164012	0	0	0	
0.0255	-0.00390374	-0.00305481	0.000382997	0.000192818	0	0	0	
0.0256667	-0.00890548	0.00784792	0.0002713	0.00025135	0	0	0	
0.0258333	0.00311896	-0.0126929	0.000163917	0.000326284	0	0	0	
0.026	0.00837154	0.0130219	0.000272384	0.000350368	0	0	0	
0.0261667	-0.0105351	-0.00613153	0.000304074	0.000301058	0	0	0	
0.0263333	0.0019781	0.00141895	0.000281605	0.000198795	0	0	0	
0.0265	-0.00175192	-0.00443517	0.000161817	0.00016316	0	0	0	
0.0266667	0.00416449	0.00818454	0.000142435	0.000200688	0	0	0	
0.0268333	-0.00802467	-0.00940769	0.000203485	0.000282942	0	0	0	
0.027	0.00951689	0.00825353	0.000292081	0.00031709	0	0	0	
0.0271667	-0.00681508	-0.00983507	0.000293263	0.000306073	0	0	0	
0.0273333	-0.000780296	0.00759911	0.000216055	0.000286873	0	0	0	
0.0275	0.00480588	-0.00921464	0.000131767	0.00028277	0	0	0	
0.0276667	0.00166297	0.00586832	0.000121862	0.0002873	0	0	0	
0.0278333	-0.00887621	-0.00551025	0.000160839	0.000274614	0	0	0	
0.028	0.0050884	0.00510397	0.000171642	0.000265005	0	0	0	
0.0281667	0.0050608	-0.00807552	0.000135417	0.000253574	0	0	0	
0.0283333	-0.0110061	0.00459038	0.000118541	0.00025383	0	0	0	
0.0285	0.00739711	-0.00400625	0.000148265	0.000243244	0	0	0	
0.0286667	0.00371064	0.00400716	0.000188579	0.000244272	0	0	0	
0.0288333	-0.00501453	-0.00797442	0.000203442	0.000252208	0	0	0	
0.029	0.00188616	0.00852089	0.000209079	0.000272296	0	0	0	
0.0291667	-0.00580413	-0.00648098	0.000250792	0.00027346	0	0	0	
0.0293333	0.0103451	0.00413069	0.000292995	0.000262691	0	0	0	
0.0295	-0.00941108	-0.00574812	0.000286634	0.000247259	0	0	0	
0.0296667	0.00889429	0.00850302	0.000229147	0.000237486	0	0	0	
0.0298333	-0.00297547	-0.00732213	0.000166369	0.000237598	0	0	0	
0.03	-0.004969	0.00566786	0.0001505	0.000234072	0	0	0	
0.0301667	0.0126789	-0.00463243	0.000146985	0.000236623	0	0	0	
0.0303333	-0.0109838	0.00593087	0.000200605	0.000237048	0	0	0	
0.0305	-0.000112913	-0.00720092	0.000285239	0.000247245	0	0	0	
0.0306667	0.00784636	0.00837931	0.000372078	0.000255566	0	0	0	
0.0308333	-0.00898416	-0.00800627	0.000361687	0.00026199	0	0	0	
0.031	0.00612168	0.00605244	0.000267901	0.000258153	0	0	0	
0.0311667	0.00235087	-0.00675537	0.000146977	0.000256755	0	0	0	
0.0313333	-0.00477481	0.00777342	8.81806E-05	0.000271783	0	0	0	
0.0315	0.00161274	-0.00881671	9.71173E-05	0.000295221	0	0	0	
0.0316667	-0.000977876	0.0074384	0.000131357	0.000303526	0	0	0	
0.0318333	0.00351411	-0.0059654	0.000151556	0.000300105	0	0	0	
0.032	0.000998291	0.00477094	0.000177735	0.000301097	0	0	0	
0.0321667	-0.0116049	-0.00739542	0.000217026	0.000298504	0	0	0	
0.0323333	0.0145703	0.00600438	0.000255583	0.000279256	0	0	0	
0.0325	-0.00588312	-0.00472011	0.000255155	0.000255431	0	0	0	
0.0326667	-0.00330438	0.00579922	0.000237016	0.000264929	0	0	0	
0.0328333	0.00865902	-0.00793291	0.000198523	0.000300271	0	0	0	
0.033	-0.0131167	0.00589044	0.00018861	0.000313722	0	0	0	
0.0331667	0.00589143	-0.00572726	0.000204491	0.000286297	0	0	0	
0.0333333	0.0130261	0.00604411	0.000335117	0.000257644	0	0	0	
0.0335	-0.0247311	-0.007135	0.00045324	0.000256138	0	0	0	
0.0336667	0.0187659	0.00482544	0.00050334	0.000257813	0	0	0	
0.0338333	-0.00648725	-0.0036299	0.000411529	0.000243326	0	0	0	
0.034	-0.00272563	0.00187318	0.000286148	0.000244606	0	0	0	
0.0341667	0.00681908	-0.00484332	0.000178301	0.000276375	0	0	0	
0.0343333	-0.00845674	0.00655054	0.000149297	0.000304863	0	0	0	
0.0345	0.00298699	-0.00930634	0.000207077	0.00029594	0	0	0	
0.0346667	0.00486165	0.00726845	0.000310809	0.000271539	0	0	0	
0.0348333	-0.00370077	-0.00864609	0.000295917	0.000255407	0	0	0	
0.035	-0.00499762	0.00766674	0.000201935	0.000265815	0	0	0	
0.0351667	0.00418477	-0.00800411	0.000106878	0.000267693	0	0	0	
0.0353333	0.00155827	0.00611247	0.000139022	0.000256621	0	0	0	
0.0355	-0.00403374	-0.00488626	0.000157882	0.000230306	0	0	0	
0.0356667	0.00313125	0.00329988	0.000154597	0.000226173	0	0	0	
0.0358333	-0.00673566	-0.00251698	0.000113574	0.000232844	0	0	0	
0.036	0.00443342	0.00302381	0.000109034	0.000251839	0	0	0	
0.0361667	0.00185085	-0.00537107	9.1178E-05	0.00027832	0	0	0	
0.0363333	-0.00468257	0.00658863	8.56507E-05	0.000309693	0	0	0	
0.0365	-0.00143446	-0.00672829	0.000116285	0.000320677	0	0	0	
0.0366667	0.00939139	0.00758079	0.000191095	0.000302417	0	0	0	
0.0368333	-0.00885615	-0.00703355	0.000230664	0.000267062	0	0	0	
0.037	-0.00137478	0.00493355	0.000180069	0.000230332	0	0	0	
0.0371667	0.00195121	-0.00206892	0.000120746	0.00019572	0	0	0	
0.0373333	0.00708296	0.00179464	0.000126701	0.000186738	0	0	0	
0.0375	-0.00527855	-0.00323721	0.000148587	0.000205263	0	0	0	
0.0376667	-0.00366101	0.00405278	0.000133697	0.000238181	0	0	0	
0.0378333	0.00136662	-0.00490428	0.000104041	0.000261578	0	0	0	
0.038	0.00537832	0.0062326	0.000114441	0.000277038	0	0	0	
0.0381667	-0.00663261	-0.00566684	0.000132274	0.000279341	0	0	0	
0.0383333	0.00568226	0.00212628	0.000139995	0.00026103	0	0	0	
0.0385	-0.00925281	-0.00246767	0.00016128	0.000237062	0	0	0	
0.0386667	0.0106139	0.00307272	0.000194004	0.000244354	0	0	0	
0.0388333	-0.00401878	-0.00255516	0.000206733	0.000267309	0	0	0	
0.039	-0.00706612	0.00243893	0.000194489	0.000274854	0	0	0	
0.0391667	0.00610416	-0.00227316	0.000180368	0.000259571	0	0	0	
0.0393333	0.00232174	0.000784894	0.00023783	0.000245397	0	0	0	
0.0395	-9.59792E-05	-0.00270119	0.000248808	0.000240702	0	0	0	
0.0396667	-0.00122086	0.00279559	0.000244637	0.000247118	0	0	0	
0.0398333	-0.00874016	-0.00337152	0.000234657	0.000255979	0	0	0	
0.04	0.0136796	0.00419504	0.000251167	0.000248668	0	0	0	
0.0401667	-0.00338867	-0.00353084	0.000261446	0.00022087	0	0	0	
0.0403333	-0.00586983	0.000112677	0.000189652	0.00020954	0	0	0	
0.0405	-0.00237676	-0.000231439	0.000166708	0.000248845	0	0	0	
0.0406667	0.0117748	0.00579981	0.000149181	0.000324371	0	0	0	
0.0408333	-0.003752	-0.0114232	0.000178872	0.000382943	0	0	0	
0.041	-0.00282787	0.00829044	0.000162903	0.00037145	0	0	0	
0.0411667	-0.0012553	-0.000334562	0.000132797	0.00027484	0	0	0	
0.0413333	-0.00515785	-0.00921086	8.4168E-05	0.0001971	0	0	0	
0.0415	0.00224733	0.00595452	5.24352E-05	0.000219704	0	0	0	
0.0416667	0.0106714	0.00181806	0.000111585	0.000326061	0	0	0	
0.0418333	-0.0180137	-0.00492334	0.000180995	0.000387685	0	0	0	
0.042	0.00388075	0.00325356	0.000272978	0.000377921	0	0	0	
0.0421667	0.0104361	-0.00658749	0.000312402	0.000336514	0	0	0	
0.0423333	-0.00639665	0.00348245	0.000274799	0.000287149	0	0	0	
0.0425	-0.00628759	-0.000964082	0.000249767	0.000217728	0	0	0	
0.0426667	0.00606712	-2.033E-05	0.000203001	0.000186573	0	0	0	
0.0428333	-0.0109315	-0.00588877	0.000227132	0.000228593	0	0	0	
0.043	0.0210711	0.00579463	0.000255211	0.000296146	0	0	0	
0.0431667	-0.0178321	-0.00365718	0.000306922	0.000302358	0	0	0	
0.0433333	-0.00409828	0.00043072	0.000418802	0.000262733	0	0	0	
0.0435	0.0211697	-0.0026538	0.000444668	0.000246003	0	0	0	
0.0436667	-0.0129171	0.00398892	0.000434339	0.000265272	0	0	0	
0.0438333	-0.00583504	-0.00463631	0.000398995	0.000279769	0	0	0	
0.044	0.0114265	0.00227086	0.000336895	0.000272695	0	0	0	
0.0441667	-0.00337392	-0.00268881	0.00027277	0.000263731	0	0	0	
0.0443333	-0.000802224	9.65638E-05	0.000157539	0.00027298	0	0	0	
0.0445	-0.000414881	-0.000481779	0.000104495	0.000297125	0	0	0	
0.0446667	0.00648057	0.00513002	0.000137064	0.000324601	0	0	0	
0.0448333	-0.00957345	-0.00710666	0.000182064	0.000327214	0	0	0	
0.045	0.00536054	0.0044503	0.000202108	0.000300871	0	0	0	
0.0451667	-0.00052499	-0.00318061	0.000145965	0.000265689	0	0	0	
0.0453333	0.00156826	0.000768056	9.08576E-05	0.000239105	0	0	0	
0.0455	-0.000723149	0.00259549	8.86969E-05	0.000212232	0	0	0	
0.0456667	-0.00438494	-0.002215	0.000114001	0.000201462	0	0	0	
0.0458333	0.00269993	0.000470029	0.000165406	0.000228961	0	0	0	
0.046	0.004177	0.00230496	0.000228216	0.000274111	0	0	0	
0.0461667	-0.00488192	-0.00302143	0.000256441	0.000286059	0	0	0	
0.0463333	-0.000198531	0.00253038	0.000195519	0.000260913	0	0	0	
0.0465	0.00916857	-0.00475269	0.00011403	0.000242981	0	0	0	
0.0466667	-0.0123358	0.00364506	0.000119058	0.000245975	0	0	0	
0.0468333	0.00223227	-0.0011896	0.000216384	0.000239228	0	0	0	
0.047	0.00823971	-0.000130314	0.000336643	0.000220752	0	0	0	
0.0471667	-0.00981296	-0.000273499	0.000353196	0.00022171	0	0	0	
0.0473333	0.0047238	0.0014221	0.000276693	0.000264002	0	0	0	
0.0475	0.00018394	-0.00534014	0.000161282	0.000309602	0	0	0	
0.0476667	-0.00462624	0.00209537	0.000125578	0.000297697	0	0	0	
0.0478333	0.0126958	0.00591468	0.000165743	0.000221808	0	0	0	
0.048	-0.0161753	-0.0115895	0.000218422	0.000187548	0	0	0	
0.0481667	0.00253766	0.00576304	0.000296951	0.000236814	0	0	0	
0.0483333	0.0134638	0.00328408	0.000391055	0.000342409	0	0	0	
0.0485	-0.0168588	-0.00504405	0.000408891	0.000356475	0	0	0	
0.0486667	0.00875038	0.00439738	0.000356107	0.000281694	0	0	0	
0.0488333	-0.00337961	-0.00407816	0.00024737	0.000182454	0	0	0	
0.049	0.00241197	-0.000779544	0.00017155	0.000110615	0	0	0	
0.0491667	-0.00222688	0.00566105	9.93324E-05	7.73258E-05	0	0	0	
0.0493333	-0.00256609	-0.0084251	5.59209E-05	9.0198E-05	0	0	0	
0.0495	0.00211967	0.00382998	6.87193E-05	0.000178343	0	0	0	
0.0496667	0.0007305	0.00552774	0.000104837	0.000304035	0	0	0	
0.0498333	-0.00180418	-0.00885319	0.000134762	0.000364806	0	0	0	
0.05	0.00171501	0.00222167	0.000142353	0.000321149	0	0	0	
0.0501667	-0.00202232	0.0010862	0.00015527	0.000220074	0	0	0	
0.0503333	0.00608028	0.00048316	0.000208943	0.000188962	0	0	0	
0.0505	-0.012737	-0.00441421	0.000248143	0.000216201	0	0	0	
0.0506667	0.00250068	0.000747189	0.000242856	0.000230099	0	0	0	
0.0508333	0.0184101	0.00582814	0.00024163	0.000204413	0	0	0	
0.051	-0.0227734	-0.00741464	0.00027911	0.000225845	0	0	0	
0.0511667	0.0118895	0.00269439	0.000394599	0.000294193	0	0	0	
0.0513333	-0.00608286	8.74985E-06	0.000438088	0.000341065	0	0	0	
0.0515	0.000824223	-0.0026148	0.000413002	0.000323338	0	0	0	
0.0516667	0.00562019	0.00326879	0.000318355	0.000297385	0	0	0	
0.0518333	-0.00692901	-1.87108E-05	0.000207835	0.000282279	0	0	0	
0.052	-0.00246573	-0.00324304	0.000174278	0.000262209	0	0	0	
0.0521667	0.00768479	0.00206906	0.000160894	0.000225502	0	0	0	
0.0523333	-0.00429323	-0.00147773	0.000159785	0.000203673	0	0	0	
0.0525	0.00277343	-0.000589735	0.000116209	0.000215089	0	0	0	
0.0526667	-0.00372857	0.00103509	8.13711E-05	0.000238591	0	0	0	
0.0528333	0.002193	0.00237117	7.8958E-05	0.000237595	0	0	0	
0.053	-0.00196974	-0.00503206	9.14565E-05	0.000224263	0	0	0	
0.0531667	0.0035425	0.00311241	9.07545E-05	0.000232863	0	0	0	
0.0533333	-0.0036209	-0.000648437	9.82589E-05	0.000271654	0	0	0	
0.0535	0.00513688	-0.00186182	0.000117609	0.000300986	0	0	0	
0.0536667	-0.00342568	0.00256406	0.000131395	0.00031088	0	0	0	
0.0538333	2.92461E-05	-0.00410089	0.000122677	0.000317892	0	0	0	
0.054	0.00690655	0.00479387	0.000124505	0.000322247	0	0	0	
0.0541667	-0.0109247	-0.00528044	0.000142903	0.00029573	0	0	0	
0.0543333	0.00304788	0.00107373	0.000159605	0.000240711	0	0	0	
0.0545	0.00605234	0.00132962	0.000164653	0.000189716	0	0	0	
0.0546667	-0.0069061	-0.00322586	0.000144443	0.00018315	0	0	0	
0.0548333	0.00223937	0.00344448	0.000151622	0.000214287	0	0	0	
0.055	0.000350572	-0.000948984	0.000163427	0.00027259	0	0	0	
0.0551667	-0.00179875	-0.00444444	0.000180552	0.000323168	0	0	0	
0.0553333	0.00234185	0.00272824	0.00015227	0.000336808	0	0	0	
0.0555	-0.00429643	-0.000788686	0.000103784	0.000305203	0	0	0	
0.0556667	0.00649741	-0.000170364	8.10387E-05	0.000258785	0	0	0	
0.0558333	-0.00176634	0.00187371	0.000104292	0.000231724	0	0	0	
0.056	-0.00951159	-0.00270475	0.000141215	0.000243826	0	0	0	
0.0561667	0.0101335	6.49675E-05	0.000161644	0.000287017	0	0	0	
0.0563333	-0.00114746	-0.00146863	0.000203064	0.000328411	0	0	0	
0.0565	-0.000322857	0.00349164	0.000219679	0.000323738	0	0	0	
0.0566667	-0.00619653	-0.00563449	0.000217802	0.000278404	0	0	0	
0.0568333	0.0125392	0.00423881	0.000242133	0.000242935	0	0	0	
0.057	-0.00451973	-0.00163541	0.000335658	0.000249969	0	0	0	
0.0571667	-0.00489252	0.00201862	0.000423813	0.000261389	0	0	0	
0.0573333	0.00276435	-0.00717928	0.000337892	0.000265945	0	0	0	
0.0575	0.00910297	0.00334592	0.000240486	0.000278582	0	0	0	
0.0576667	-0.0159317	0.00442772	0.000191463	0.000304793	0	0	0	
0.0578333	0.0187318	-0.0050606	0.000266829	0.000279759	0	0	0	
0.058	-0.0109874	-0.00419725	0.000298439	0.000218695	0	0	0	
0.0581667	0.00500064	0.00410791	0.000268897	0.000194725	0	0	0	
0.0583333	-0.0030201	-0.000864874	0.00019982	0.000240963	0	0	0	
0.0585	-0.00244693	0.000971252	0.00013629	0.000273104	0	0	0	
0.0586667	0.0065	-0.00417977	0.00013594	0.00026023	0	0	0	
0.0588333	0.000186879	0.0013681	0.000126484	0.000264438	0	0	0	
0.059	-0.0058872	0.0015651	0.000122357	0.00032395	0	0	0	
0.0591667	0.00603761	-0.00170076	9.98249E-05	0.000350161	0	0	0	
0.0593333	0.00201516	-0.00161153	0.000156483	0.000293967	0	0	0	
0.0595	-0.00472289	0.00394169	0.00018221	0.000226524	0	0	0	
0.0596667	-0.000221759	-0.00368112	0.000201245	0.000220365	0	0	0	
0.0598333	-0.00304841	0.00464425	0.000190749	0.000250955	0	0	0	
0.06	0.00493472	-0.00601052	0.000167667	0.000268542	0	0	0	
0.0601667	0.000142928	0.00468931	0.000130011	0.000287726	0	0	0	
0.0603333	0.00176701	-0.000389765	9.44104E-05	0.000319608	0	0	0	
0.0605	-0.00545965	-0.000359351	0.000105435	0.000328854	0	0	0	
0.0606667	-0.00271137	-0.000613099	0.000108255	0.000291707	0	0	0	
0.0608333	0.0111618	0.00151159	0.00012011	0.000240306	0	0	0	
0.061	-0.00680569	-0.00321754	0.000142631	0.000210638	0	0	0	
0.0611667	-0.00411595	0.00392536	0.000225706	0.000209727	0	0	0	
0.0613333	0.00317318	-0.00495216	0.000228451	0.000231781	0	0	0	
0.0615	0.00352223	0.00330475	0.000169961	0.000261021	0	0	0	
0.0616667	-0.00239172	-0.00153656	9.55965E-05	0.000281725	0	0	0	
0.0618333	-0.00134529	0.00108942	9.96222E-05	0.000275722	0	0	0	
0.062	0.000294247	-0.00346906	9.76142E-05	0.000254059	0	0	0	
0.0621667	0.00766934	0.00397798	9.42687E-05	0.000238151	0	0	0	
0.0623333	-0.00966169	-0.00362285	9.1556E-05	0.00024352	0	0	0	
0.0625	0.00425865	0.0025731	0.000172545	0.000253495	0	0	0	
0.0626667	0.0065663	-0.00319841	0.000257491	0.000253252	0	0	0	
0.0628333	-0.0108998	0.0028033	0.000277079	0.000254676	0	0	0	
0.063	0.00572621	0.000243756	0.000242069	0.000269921	0	0	0	
0.0631667	0.00660683	0.000671006	0.000198111	0.000266316	0	0	0	
0.0633333	-0.00983325	-0.00570614	0.000175882	0.000234236	0	0	0	
0.0635	0.00942811	0.00473755	0.000179592	0.000213151	0	0	0	
0.0636667	-0.00712824	-0.00106852	0.000200083	0.000243087	0	0	0	
0.0638333	0.000905965	0.00078317	0.000251351	0.00027405	0	0	0	
0.064	0.00112078	-0.00378365	0.000259811	0.00026721	0	0	0	
0.0641667	0.00512532	0.00340378	0.000214699	0.000242334	0	0	0	
0.0643333	0.00035504	-0.00355513	0.000188259	0.000233641	0	0	0	
0.0645	-0.00958789	0.00388654	0.000228094	0.000232296	0	0	0	
0.0646667	0.00704143	-0.00446103	0.000235364	0.000235348	0	0	0	
0.0648333	0.00510516	0.00102462	0.00024517	0.000249024	0	0	0	
0.065	-0.0159279	0.00367831	0.000210433	0.000280745	0	0	0	
0.0651667	0.0110036	-0.00951417	0.000266062	0.000287423	0	0	0	
0.0653333	0.00800804	0.00916611	0.000370924	0.000255218	0	0	0	
0.0655	-0.0196065	0.00207272	0.000469747	0.000173092	0	0	0	
0.0656667	0.0148522	-0.0107339	0.000489238	0.000132526	0	0	0	
0.0658333	-0.0122255	0.00994059	0.000386309	0.000162885	0	0	0	
0.066	0.00819765	-0.00448203	0.000276636	0.000266975	0	0	0	
0.0661667	0.00800005	-0.00129472	0.000213416	0.000346518	0	0	0	
0.0663333	-0.0202827	0.00476646	0.000197843	0.000374985	0	0	0	
0.0665	0.00970529	-0.00407243	0.000298142	0.00035755	0	0	0	
0.0666667	0.00748991	0.00142407	0.000450555	0.000300768	0	0	0	
0.0668333	-0.0121278	0.00303385	0.000499602	0.000220566	0	0	0	
0.067	0.00188143	-0.00595519	0.000395766	0.000165102	0	0	0	
0.0671667	0.00722006	0.00494822	0.000209392	0.000161242	0	0	0	
0.0673333	-0.00504866	-0.00286712	0.000153011	0.000190161	0	0	0	
0.0675	-0.00208862	0.00343661	0.000188567	0.000214191	0	0	0	
0.0676667	0.00893494	-0.00604495	0.000239374	0.000238581	0	0	0	
0.0678333	-0.00592884	0.00522985	0.000223245	0.000264769	0	0	0	
0.068	-0.00459288	-0.00416689	0.000147658	0.000289182	0	0	0	
0.0681667	0.00647628	0.00231884	0.000114043	0.000301976	0	0	0	
0.0683333	-0.00283357	0.00146496	0.000126839	0.000291923	0	0	0	
0.0685	0.000513085	0.00134964	0.000150766	0.000241292	0	0	0	
0.0686667	-0.00543667	-0.00721127	0.000128003	0.000190218	0	0	0	
0.0688333	0.0102511	0.00617196	0.000121824	0.000179306	0	0	0	
0.069	-0.00636338	-0.00346404	0.000149505	0.000221264	0	0	0	
0.0691667	-0.00459935	0.00319984	0.000225326	0.000258502	0	0	0	
0.0693333	0.00635643	-0.00426086	0.000211776	0.000256292	0	0	0	
0.0695	0.00230016	0.00494202	0.000203854	0.000231535	0	0	0	
0.0696667	-0.00566448	-0.00400227	0.000148512	0.000228159	0	0	0	
0.0698333	-0.000676115	0.00377307	0.000152938	0.00025039	0	0	0	
0.07	0.00368894	-0.00735024	0.000139976	0.000273565	0	0	0	
0.0701667	0.0034959	0.00755583	0.000108591	0.000296311	0	0	0	
0.0703333	-0.00819553	-0.00340374	0.000105222	0.000334748	0	0	0	
0.0705	0.00524895	-0.000378214	9.94018E-05	0.000360361	0	0	0	
0.0706667	0.00175128	-0.00210178	0.000150463	0.000331955	0	0	0	
0.0708333	-0.00374692	0.00663971	0.000164883	0.000276295	0	0	0	
0.071	-0.0054873	-0.00676765	0.000149288	0.000239575	0	0	0	
0.0711667	0.00949976	0.00620155	0.000133449	0.00023756	0	0	0	
0.0713333	-0.00567942	-0.00699822	0.000129084	0.00024879	0	0	0	
0.0715	-0.003982	0.00672782	0.000175973	0.000265698	0	0	0	
0.0716667	0.0104983	-0.00681142	0.000180455	0.000280912	0	0	0	
0.0718333	-0.00969424	0.00395866	0.000187394	0.000258305	0	0	0	
0.072	0.00547511	-0.00442437	0.000162787	0.000207889	0	0	0	
0.0721667	-0.00625497	0.00832251	0.000150926	0.000173146	0	0	0	
0.0723333	-0.00280091	-0.00862231	0.000148077	0.000197283	0	0	0	
0.0725	0.0110965	0.00527368	0.000152663	0.000257591	0	0	0	
0.0726667	-0.0102781	-0.00401428	0.000174198	0.000301822	0	0	0	
0.0728333	-0.000328925	0.000337091	0.000236463	0.000301195	0	0	0	
0.073	0.00900282	-0.000130107	0.000295387	0.000278562	0	0	0	
0.0731667	-0.00572831	0.00265763	0.000291763	0.00025109	0	0	0	
0.0733333	-0.000595817	-0.00466809	0.000196918	0.000232791	0	0	0	
0.0735	-0.00268156	0.00470774	0.000119668	0.000224238	0	0	0	
0.0736667	0.00524075	-0.00780585	8.72495E-05	0.000238015	0	0	0	
0.0738333	0.00222256	0.00859643	0.000109009	0.000257845	0	0	0	
0.074	-0.00622348	-0.0083617	0.000106037	0.00027445	0	0	0	
0.0741667	0.00167687	0.00860897	0.000128965	0.000291774	0	0	0	
0.0743333	0.00637844	-0.00723759	0.000139999	0.000309809	0	0	0	
0.0745	-0.00366302	0.00506644	0.000133793	0.000318011	0	0	0	
0.0746667	-0.00141237	-0.00583198	9.70337E-05	0.0003079	0	0	0	
0.0748333	-0.00144292	0.0035141	7.31853E-05	0.000276428	0	0	0	
0.075	0.00282502	-0.00480922	6.52922E-05	0.000237274	0	0	0	
0.0751667	0.00404644	0.00831861	7.87313E-05	0.000211478	0	0	0	
0.0753333	-0.00425506	-0.00782671	6.69423E-05	0.000227169	0	0	0	
0.0755	-0.000774214	0.00410641	0.000106757	0.000259272	0	0	0	
0.0756667	-0.000901404	-0.00454017	0.000116463	0.000256647	0	0	0	
0.0758333	0.00913132	0.0073863	0.000145868	0.000231656	0	0	0	
0.076	-0.00171229	-0.00703927	0.000202506	0.000236228	0	0	0	
0.0761667	-0.0126945	0.00453034	0.000316362	0.000282259	0	0	0	
0.0763333	0.0114739	-0.00534634	0.000336013	0.000308086	0	0	0	
0.0765	0.00125832	0.00783904	0.000290432	0.00029537	0	0	0	
0.0766667	-0.00510608	-0.00588637	0.000163648	0.000271196	0	0	0	
0.0768333	0.00534682	0.00504443	0.000132936	0.000267407	0	0	0	
0.077	-0.0092441	-0.00665122	0.000105802	0.000260636	0	0	0	
0.0771667	0.0118682	0.00974148	0.000141662	0.000259046	0	0	0	
0.0773333	-0.00503506	-0.0079612	0.000181875	0.000264583	0	0	0	
0.0775	-0.00174518	0.00671193	0.000205502	0.000275207	0	0	0	
0.0776667	-0.00399133	-0.00649758	0.000179352	0.000266018	0	0	0	
0.0778333	0.00976686	0.00745251	0.000148532	0.000253576	0	0	0	
0.078	-0.00879917	-0.00659328	0.00014928	0.000245359	0	0	0	
0.0781667	0.000715833	0.00867694	0.000193729	0.000248499	0	0	0	
0.0783333	0.00473973	-0.00895268	0.000225807	0.000247022	0	0	0	
0.0785	-0.00630806	0.00868257	0.000195329	0.000256548	0	0	0	
0.0786667	0.00038969	-0.00645705	0.000147029	0.000263643	0	0	0	
0.0788333	0.00151582	0.00801938	9.81534E-05	0.000267467	0	0	0	
0.079	-0.00174083	-0.00779748	7.53106E-05	0.000258477	0	0	0	
0.0791667	0.00524531	0.00745049	7.18375E-05	0.000266434	0	0	0	
0.0793333	-0.00971707	-0.00534441	8.20997E-05	0.000276467	0	0	0	
0.0795	0.00657485	0.00653867	0.000135549	0.000269804	0	0	0	
0.0796667	0.000996224	-0.00706334	0.000197687	0.000233354	0	0	0	
0.0798333	-0.000589471	0.00929775	0.000224075	0.000217313	0	0	0	
0.08	-0.0018901	-0.00822536	0.000199831	0.000234666	0	0	0	
0.0801667	-0.000539538	0.00824495	0.000155967	0.000262113	0	0	0	
0.0803333	0.00408467	-0.00943627	9.97619E-05	0.000271252	0	0	0	
0.0805	0.00199269	0.00825985	9.84249E-05	0.000272692	0	0	0	
0.0806667	-0.00852591	-0.00489267	0.000104746	0.000287832	0	0	0	
0.0808333	0.00844564	0.00625698	0.000151219	0.000301015	0	0	0	
0.081	-0.0030526	-0.00870902	0.000144859	0.000297902	0	0	0	
0.0811667	-0.00986424	0.0115892	0.000141817	0.000319537	0	0	0	
0.0813333	0.0219388	-0.0018133	0.000186122	0.000378616	0	0	0	
0.0815	-0.0113585	-0.00560943	0.000312579	0.000419343	0	0	0	
0.0816667	-0.0143892	-0.00252251	0.000509381	0.000333871	0	0	0	
0.0818333	0.0302738	0.0134874	0.000596171	0.000232276	0	0	0	
0.082	-0.028324	-0.0162531	0.000605993	0.000198577	0	0	0	
0.0821667	0.00900302	0.0190106	0.000585146	0.000269516	0	0	0	
0.0823333	0.0138583	-0.0184453	0.000680596	0.000348318	0	0	0	
0.0825	-0.0333609	0.0148392	0.000771342	0.000401785	0	0	0	
0.0826667	0.0347498	-0.00554947	0.000741826	0.000451287	0	0	0	
0.0828333	-0.0100387	-0.00248691	0.000659274	0.000433112	0	0	0	
0.083	-0.0199473	0.000801433	0.000667728	0.000330426	0	0	0	
0.0831667	0.0305141	0.00533466	0.000661831	0.000188299	0	0	0	
0.0833333	-0.0190679	-0.0122405	0.000608397	0.000135616	0	0	0	
0.0835	0.00440821	0.0113135	0.000449588	0.000186179	0	0	0	
0.0836667	-0.000345882	-0.00793777	0.000307244	0.000269693	0	0	0	
0.0838333	0.000250507	0.00633562	0.000170733	0.000280036	0	0	0	
0.084	-4.0314E-05	-0.00805799	7.9175E-05	0.00025667	0	0	0	
0.0841667	8.09303E-05	0.00786388	4.86762E-05	0.00023571	0	0	0	
0.0843333	0.00138562	-0.00781038	4.66967E-05	0.000244906	0	0	0	
0.0845	0.00130296	0.00564775	5.12884E-05	0.000245684	0	0	0	
0.0846667	-0.00676361	-0.00839946	7.66357E-05	0.000235548	0	0	0	
0.0848333	0.00708584	0.0106438	0.000100187	0.000221147	0	0	0	
0.085	0.00051031	-0.0143816	0.000171997	0.000248352	0	0	0	
0.0851667	-0.00962296	0.0121256	0.000265577	0.000290982	0	0	0	
0.0853333	0.00957597	-0.0105688	0.000326933	0.000322759	0	0	0	
0.0855	-0.00334274	0.00868616	0.000275696	0.000314515	0	0	0	
0.0856667	-0.00209239	-0.00904141	0.000160583	0.000296068	0	0	0	
0.0858333	0.00239625	0.00856753	9.23162E-05	0.000287787	0	0	0	
0.086	-0.00375898	-0.00859497	8.41079E-05	0.000275858	0	0	0	
0.0861667	0.00177345	0.00825443	0.000114344	0.000243782	0	0	0	
0.0863333	-0.000221374	-0.0103011	0.00015042	0.000215364	0	0	0	
0.0865	0.000643613	0.00972204	0.000161047	0.000216253	0	0	0	
0.0866667	-0.00406695	-0.00933839	0.000139225	0.000248502	0	0	0	
0.0868333	0.00741444	0.00948808	0.00012219	0.000283573	0	0	0	
0.087	-0.00918127	-0.00738986	0.000116019	0.000294933	0	0	0	
0.0871667	0.00141828	0.00367562	0.000170995	0.000273798	0	0	0	
0.0873333	0.00347031	-0.00646071	0.000233438	0.00022968	0	0	0	
0.0875	-0.000612305	0.0105524	0.000244877	0.000197886	0	0	0	
0.0876667	-0.00629824	-0.0131833	0.000188015	0.000210534	0	0	0	
0.0878333	0.010469	0.0138752	0.000132146	0.000255861	0	0	0	
0.088	-0.00995152	-0.0139635	0.000149598	0.000303244	0	0	0	
0.0881667	0.00376829	0.00989789	0.000221751	0.000335899	0	0	0	
0.0883333	0.00492229	-0.00424563	0.000263769	0.000345646	0	0	0	
0.0885	0.000463505	0.00088981	0.00020821	0.000310795	0	0	0	
0.0886667	-0.0137062	-0.00651269	0.000177281	0.000243469	0	0	0	
0.0888333	0.0129284	0.00937993	0.000170909	0.000196459	0	0	0	
0.089	-0.00716517	-0.0113677	0.00021923	0.000205406	0	0	0	
0.0891667	0.0103071	0.0126575	0.000212366	0.00024881	0	0	0	
0.0893333	-0.0112735	-0.0122421	0.000196139	0.000278474	0	0	0	
0.0895	0.00121044	0.0104426	0.000249354	0.000304341	0	0	0	
0.0896667	0.00791991	-0.00856117	0.000278799	0.00031385	0	0	0	
0.0898333	0.000773658	0.00789756	0.000242868	0.000304078	0	0	0	
0.09	-0.0106447	-0.00892151	0.000158484	0.000268744	0	0	0	
0.0901667	0.00636822	0.00984773	0.000154313	0.000243429	0	0	0	
0.0903333	-1.33386E-05	-0.0117886	0.000189202	0.000244027	0	0	0	
0.0905	0.00122687	0.0128735	0.000166896	0.000263277	0	0	0	
0.0906667	-0.00868322	-0.0107992	0.00012133	0.000275076	0	0	0	
0.0908333	0.0148833	0.00905348	0.000123499	0.000283975	0	0	0	
0.091	-0.0108805	-0.00852802	0.000202856	0.000277602	0	0	0	
0.0911667	-0.000572209	0.0103036	0.000273049	0.000273446	0	0	0	
0.0913333	0.0052674	-0.0108042	0.000234584	0.000265129	0	0	0	
0.0915	0.00328896	0.00923079	0.000204267	0.000255251	0	0	0	
0.0916667	-0.011275	-0.00968169	0.000131453	0.000242633	0	0	0	
0.0918333	0.00697032	0.0105949	0.000160338	0.000244286	0	0	0	
0.092	-0.00722495	-0.00976067	0.000160356	0.000255859	0	0	0	
0.0921667	0.00680017	0.00986782	0.000199046	0.000272644	0	0	0	
0.0923333	0.00433028	-0.00877323	0.000272452	0.00026603	0	0	0	
0.0925	-0.0146381	0.00861352	0.000340028	0.000253067	0	0	0	
0.0926667	0.00478014	-0.0119169	0.000316247	0.000238428	0	0	0	
0.0928333	0.0139279	0.0132177	0.000321091	0.000249877	0	0	0	
0.093	-0.0192956	-0.00980382	0.000285755	0.000264978	0	0	0	
0.0931667	0.00210688	0.00914479	0.000371559	0.000272123	0	0	0	
0.0933333	0.00383342	-0.0115967	0.000298736	0.000253814	0	0	0	
0.0935	0.0142926	0.0145851	0.000306354	0.000258582	0	0	0	
0.0936667	-0.0225282	-0.0110659	0.000294647	0.000273713	0	0	0	
0.0938333	0.00663754	0.00584923	0.000335509	0.000285533	0	0	0	
0.094	0.00582053	-0.00667075	0.000323133	0.000248931	0	0	0	
0.0941667	0.00490195	0.0107921	0.00022563	0.000211921	0	0	0	
0.0943333	-0.00521096	-0.0119277	0.000157144	0.000214943	0	0	0	
0.0945	-0.0155264	0.00982472	0.000128434	0.00025189	0	0	0	
0.0946667	0.0179332	-0.00829303	0.000216933	0.000268155	0	0	0	
0.0948333	0.014995	0.0121397	0.000428395	0.000258848	0	0	0	
0.095	-0.0230397	-0.00966715	0.000499173	0.000251877	0	0	0	
0.0951667	-0.0054069	0.0059617	0.0005881	0.000243958	0	0	0	
0.0953333	0.0212965	-0.00741592	0.000435832	0.000232354	0	0	0	
0.0955	0.00666885	0.0090346	0.000490072	0.000211574	0	0	0	
0.0956667	-0.0231825	-0.00877881	0.000360622	0.00021217	0	0	0	
0.0958333	0.000471913	0.0116004	0.000450777	0.000209654	0	0	0	
0.096	0.0121257	-0.0108223	0.000389469	0.000219909	0	0	0	
0.0961667	-0.000100424	0.0125325	0.00034111	0.000227468	0	0	0	
0.0963333	0.00780143	-0.012135	0.000202149	0.000253762	0	0	0	
0.0965	-0.0170669	0.00611656	0.00016493	0.00027203	0	0	0	
0.0966667	-0.00748605	-0.00394852	0.000292715	0.000310012	0	0	0	
0.0968333	0.0304557	0.0065179	0.000447366	0.000297689	0	0	0	
0.097	-0.0226884	-0.0108507	0.000508866	0.000261259	0	0	0	
0.0971667	-0.0015185	0.0202733	0.000594662	0.000246984	0	0	0	
0.0973333	0.0130148	-0.0204459	0.000550616	0.000297041	0	0	0	
0.0975	-0.00586782	0.0196468	0.000463454	0.000363908	0	0	0	
0.0976667	-0.0031074	-0.0197873	0.000243856	0.000397555	0	0	0	
0.0978333	0.0115354	0.0172271	0.000131871	0.00041418	0	0	0	
0.098	-0.0187129	-0.014935	0.000178138	0.000387068	0	0	0	
0.0981667	0.0160836	0.0192454	0.000325789	0.000366899	0	0	0	
0.0983333	0.00152267	-0.0100031	0.000464704	0.000329493	0	0	0	
0.0985	-0.0134855	-0.00152463	0.000483486	0.00031919	0	0	0	
0.0986667	0.0111499	0.00550702	0.000386667	0.000246974	0	0	0	
0.0988333	0.00505491	0.00228726	0.000342908	0.000170617	0	0	0	
0.099	-0.0253538	-0.0162462	0.000392422	0.00015469	0	0	0	
0.0991667	0.0349152	0.0264159	0.000511306	0.000250553	0	0	0	
0.0993333	-0.019444	-0.0264923	0.000541116	0.000385402	0	0	0	
0.0995	0.00731105	0.0221201	0.000512943	0.000467967	0	0	0	
0.0996667	0.00119682	-0.00963954	0.000451821	0.000473733	0	0	0	
0.0998333	-0.0177328	0.000994307	0.000376455	0.000403024	0	0	0	
0.1	0.0146948	-0.0105786	0.00033538	0.000294644	0	0	0	
0.100167	0.0187624	0.024447	0.000423968	0.000274534	0	0	0	
0.100333	-0.0458216	-0.0368721	0.000520416	0.000370969	0	0	0	
0.1005	0.0382409	0.0436207	0.000712245	0.000562389	0	0	0	
0.100667	-0.00223398	-0.0262906	0.000843126	0.000737138	0	0	0	
0.100833	-0.0299592	-0.00458772	0.000915704	0.000850068	0	0	0	
0.101	0.019865	0.0172569	0.000795656	0.000816506	0	0	0	
0.101167	-0.00834309	-9.57054E-05	0.000538609	0.000603074	0	0	0	
0.101333	0.0037495	-0.0213806	0.000358679	0.000405972	0	0	0	
0.1015	0.0185091	0.0246101	0.00046165	0.000445231	0	0	0	
0.101667	-0.0388571	-0.0201256	0.000634323	0.000590411	0	0	0	
0.101833	0.0121615	0.015461	0.000722996	0.000544286	0	0	0	
0.102	0.000948243	-0.00956857	0.000695395	0.000529607	0	0	0	
0.102167	0.0106861	0.00988916	0.000494684	0.000549575	0	0	0	
0.102333	-0.033455	-0.0119847	0.00048753	0.000617135	0	0	0	
0.1025	0.0163523	0.00487848	0.000424238	0.000525279	0	0	0	
0.102667	-0.000305298	-0.0103875	0.000591409	0.000337185	0	0	0	
0.102833	0.00837455	0.0203105	0.000552316	0.000354469	0	0	0	
0.103	-0.00704239	-0.0246769	0.000568681	0.000478307	0	0	0	
0.103167	-0.0323794	0.0169703	0.000559672	0.000654659	0	0	0	
0.103333	0.0110338	-0.00880309	0.000647795	0.000660092	0	0	0	
0.1035	0.0641282	0.00728921	0.00103061	0.000458305	0	0	0	
0.103667	-0.0859445	-0.0146849	0.00128169	0.000294189	0	0	0	
0.103833	0.0307426	0.0160394	0.00150689	0.00023932	0	0	0	
0.104	0.0210845	-0.0123408	0.00129057	0.000281896	0	0	0	
0.104167	-0.0138873	0.0019056	0.000962702	0.000299984	0	0	0	
0.104333	0.0220542	-0.0110885	0.000658558	0.000299683	0	0	0	
0.1045	-0.0371155	0.0246624	0.000449876	0.000336075	0	0	0	
0.104667	0.000623414	-0.0274269	0.000704747	0.000434929	0	0	0	
0.104833	0.0568825	0.0292754	0.00101134	0.000520531	0	0	0	
0.105	-0.0500203	-0.0274677	0.00115645	0.000559753	0	0	0	
0.105167	0.0191941	0.0209377	0.00107204	0.000511782	0	0	0	
0.105333	0.00336565	-0.0175628	0.000805393	0.000451332	0	0	0	
0.1055	-0.00875618	0.00162455	0.000556038	0.000372887	0	0	0	
0.105667	-0.00126911	0.0119896	0.000266378	0.000315305	0	0	0	
0.105833	0.0278507	-0.0017772	0.000206147	0.000264702	0	0	0	
0.106	-0.0324039	-0.0149969	0.000380021	0.000237489	0	0	0	
0.106167	0.0234193	0.00710447	0.000501705	0.000244228	0	0	0	
0.106333	0.00116741	-0.0039361	0.000648369	0.000188581	0	0	0	
0.1065	-0.0404855	0.00747928	0.000658728	0.000174541	0	0	0	
0.106667	0.0129199	-0.0140833	0.000642092	0.000212756	0	0	0	
0.106833	0.00684007	0.0281245	0.000587767	0.000415125	0	0	0	
0.107	-0.0380651	-0.0268966	0.00061942	0.00059734	0	0	0	
0.107167	0.0674571	0.00536338	0.00078078	0.000574072	0	0	0	
0.107333	-0.0740205	-0.00423647	0.000992806	0.000408256	0	0	0	
0.1075	0.0388071	0.0151066	0.00113336	0.00027534	0	0	0	
0.107667	-0.0255933	-0.0289431	0.00122209	0.000353013	0	0	0	
0.107833	-0.00998651	0.0332967	0.00118322	0.000463246	0	0	0	
0.108	0.0173924	-0.0170042	0.000944058	0.000553786	0	0	0	
0.108167	-0.00501582	0.0167614	0.000803286	0.000602953	0	0	0	
0.108333	-0.0566724	-0.0311308	0.000873654	0.000673258	0	0	0	
0.1085	0.0796101	0.0232971	0.00119511	0.000687535	0	0	0	
0.108667	-0.0367435	-0.0138496	0.00125605	0.000565133	0	0	0	
0.108833	0.0136573	0.0271528	0.00113556	0.000445605	0	0	0	
0.109	-0.00484916	-0.048317	0.000791899	0.000474217	0	0	0	
0.109167	0.0189267	0.0452785	0.000556996	0.000699529	0	0	0	
0.109333	-0.0120905	-0.0199898	0.000395512	0.000861702	0	0	0	
0.1095	-0.0301927	-0.000978146	0.000376248	0.0007077	0	0	0	
0.109667	0.00564166	-0.0109987	0.000498882	0.000503637	0	0	0	
0.109833	0.0503033	0.0331293	0.000580384	0.000391545	0	0	0	
0.11	-0.0272025	-0.0420243	0.000687775	0.000547764	0	0	0	
0.110167	-0.0045379	0.035149	0.000753438	0.000666637	0	0	0	
0.110333	-0.00451307	-0.0207345	0.000564166	0.0006649	0	0	0	
0.1105	0.0190559	0.0112402	0.000365147	0.000541548	0	0	0	
0.110667	-0.00803346	-0.00768682	0.000364912	0.000385781	0	0	0	
0.110833	-0.00822957	0.0136149	0.000463117	0.000308717	0	0	0	
0.111	-0.00160759	-0.0158524	0.000446503	0.000288851	0	0	0	
0.111167	0.00665378	0.0149224	0.00023111	0.000286277	0	0	0	
0.111333	0.00496516	-0.0116704	0.000162431	0.000291138	0	0	0	
0.1115	0.00377055	0.00952293	0.000162872	0.00026903	0	0	0	
0.111667	-0.0195398	-0.0105013	0.000194806	0.00023777	0	0	0	
0.111833	0.00973142	0.0123489	0.000202648	0.000221656	0	0	0	
0.112	0.00361896	-0.0126082	0.000302004	0.000222844	0	0	0	
0.112167	0.00350519	0.0130619	0.000272971	0.000239533	0	0	0	
0.112333	-0.0108826	-0.0127724	0.000218425	0.00025356	0	0	0	
0.1125	0.00598777	0.0108594	0.000165252	0.000253366	0	0	0	
0.112667	-0.00584275	-0.0123823	0.000172441	0.000243088	0	0	0	
0.112833	0.00389601	0.0145267	0.000193404	0.000238996	0	0	0	
0.113	0.00287204	-0.0163293	0.000217243	0.000253095	0	0	0	
0.113167	0.0072306	0.0176928	0.000193159	0.00028918	0	0	0	
0.113333	-0.0192975	-0.0144592	0.000257682	0.00030835	0	0	0	
0.1135	0.0112788	0.00900805	0.00024365	0.000309155	0	0	0	
0.113667	0.00909871	-0.0065843	0.000346712	0.000256262	0	0	0	
0.113833	-0.0088847	0.00932451	0.000276379	0.000207871	0	0	0	
0.114	-0.00376043	-0.0170609	0.000236155	0.000193542	0	0	0	
0.114167	0.0072545	0.0172168	0.000134882	0.000248699	0	0	0	
0.114333	-0.00274288	-0.0190195	0.000102913	0.000309028	0	0	0	
0.1145	0.00105489	0.0183422	7.79525E-05	0.000344001	0	0	0	
0.114667	-0.00591761	-0.0152814	7.30517E-05	0.000350672	0	0	0	
0.114833	0.0110665	0.00926166	8.69942E-05	0.000314756	0	0	0	
0.115	-0.00616641	-0.0124402	0.000160956	0.000275143	0	0	0	
0.115167	-0.00128715	0.0104043	0.000239752	0.000237119	0	0	0	
0.115333	-0.00539363	-0.0124353	0.000230491	0.000232657	0	0	0	
0.1155	0.0179565	0.0150031	0.000209481	0.000236184	0	0	0	
0.115667	-0.0180449	-0.014972	0.000226504	0.000256743	0	0	0	
0.115833	0.00569396	0.0138343	0.000287349	0.00026396	0	0	0	
0.116	0.00279641	-0.0131924	0.000308774	0.000277061	0	0	0	
0.116167	-0.0030679	0.0128843	0.000225813	0.000270867	0	0	0	
0.116333	-0.00493352	-0.0114835	0.00023028	0.000269168	0	0	0	
0.1165	0.0166365	0.0138659	0.000300585	0.000241916	0	0	0	
0.116667	-0.0151007	-0.0126723	0.000395253	0.00024069	0	0	0	
0.116833	0.0159968	0.0165369	0.000385886	0.000251298	0	0	0	
0.117	-0.0129421	-0.0171678	0.000309768	0.000288226	0	0	0	
0.117167	-0.00112887	0.0181373	0.00029678	0.000316606	0	0	0	
0.117333	0.0120025	-0.0132863	0.000276124	0.000325878	0	0	0	
0.1175	-0.00454942	0.00937295	0.000273326	0.000302965	0	0	0	
0.117667	-0.00252889	-0.00907577	0.000253818	0.000256424	0	0	0	
0.117833	0.00444293	0.0105902	0.000210317	0.000214131	0	0	0	
0.118	-0.00511838	-0.0100255	0.000174585	0.000197058	0	0	0	
0.118167	0.0171701	0.0125789	0.000179555	0.000201152	0	0	0	
0.118333	-0.0240352	-0.0210479	0.000282964	0.000259616	0	0	0	
0.1185	0.000203406	0.0310891	0.000440362	0.000365116	0	0	0	
0.118667	0.0240908	-0.0247216	0.000596984	0.000458216	0	0	0	
0.118833	-0.0328684	0.010653	0.000653152	0.000482236	0	0	0	
0.119	0.0162425	-0.00448385	0.000621471	0.000393943	0	0	0	
0.119167	0.00913622	0.00567198	0.000607549	0.000261471	0	0	0	
0.119333	-0.0239174	-0.00259234	0.000587546	0.000154963	0	0	0	
0.1195	0.0251695	0.00763847	0.000553363	0.000139205	0	0	0	
0.119667	-0.0300532	-0.0153911	0.000476611	0.000232199	0	0	0	
0.119833	0.00743521	0.022977	0.00051668	0.000322722	0	0	0	
0.12	0.025091	-0.0207544	0.000615651	0.000390519	0	0	0	
0.120167	-0.0367774	0.0167297	0.000675816	0.000388932	0	0	0	
0.120333	-0.0142835	-0.00811917	0.000617416	0.000355233	0	0	0	
0.1205	0.0278562	0.00685713	0.00051802	0.00028018	0	0	0	
0.120667	-0.0190607	-0.0104	0.000495462	0.000210645	0	0	0	
0.120833	0.00483953	0.0149694	0.000488912	0.000200511	0	0	0	
0.121	0.0126556	-0.0151094	0.000472172	0.000239059	0	0	0	
0.121167	-0.02842	0.016765	0.000393673	0.000273027	0	0	0	
0.121333	-0.0197359	-0.0136717	0.00039668	0.000292877	0	0	0	
0.1215	0.0397419	0.0118578	0.000513034	0.000284126	0	0	0	
0.121667	-0.0243722	-0.0124963	0.000594314	0.000277525	0	0	0	
0.121833	0.00685009	0.0139056	0.00055354	0.000265997	0	0	0	
0.122	-0.00785371	-0.015771	0.000383899	0.000275627	0	0	0	
0.122167	0.00767746	0.0196199	0.000218247	0.000299439	0	0	0	
0.122333	-0.00938919	-0.0196233	0.000167306	0.000332629	0	0	0	
0.1225	0.00954617	0.0168755	0.000159405	0.000354512	0	0	0	
0.122667	0.003469	-0.0113475	0.000177358	0.00034852	0	0	0	
0.122833	-0.0130533	0.00856169	0.000188237	0.000294712	0	0	0	
0.123	0.00353969	-0.0103745	0.000180382	0.000240032	0	0	0	
0.123167	0.00624974	0.0141839	0.000194962	0.000215628	0	0	0	
0.123333	-0.0120746	-0.0153279	0.000213608	0.00023887	0	0	0	
0.1235	0.0189041	0.0169558	0.000249508	0.000271925	0	0	0	
0.123667	-0.0155406	-0.0162946	0.000288331	0.000294501	0	0	0	
0.123833	0.000228089	0.0159479	0.000311021	0.000309132	0	0	0	
0.124	0.00643213	-0.0148167	0.000296674	0.000312728	0	0	0	
0.124167	-0.00443866	0.0145366	0.000209045	0.000303452	0	0	0	
0.124333	-0.00553946	-0.0135691	0.000164464	0.000284632	0	0	0	
0.1245	0.0134655	0.0105439	0.000161579	0.000261858	0	0	0	
0.124667	-0.008637	-0.00834372	0.000214284	0.000230151	0	0	0	
0.124833	0.0064483	0.00960792	0.000192705	0.00020033	0	0	0	
0.125	-0.0114524	-0.0133874	0.000179358	0.000193825	0	0	0	
0.125167	0.0058092	0.0142711	0.000155441	0.000221428	0	0	0	
0.125333	0.00602196	-0.0150329	0.000231491	0.0002529	0	0	0	
0.1255	-0.00821964	0.0129109	0.000225233	0.000271037	0	0	0	
0.125667	-0.00288697	-0.0114151	0.000252379	0.000262831	0	0	0	
0.125833	0.0132021	0.0121187	0.000207565	0.000247416	0	0	0	
0.126	-0.00855569	-0.0159888	0.000226249	0.000250444	0	0	0	
0.126167	0.00694604	0.0177357	0.000185811	0.000279853	0	0	0	
0.126333	-0.0110849	-0.0166959	0.000170128	0.000310454	0	0	0	
0.1265	0.00329473	0.0150791	0.000177433	0.000320547	0	0	0	
0.126667	0.00817347	-0.014041	0.000230641	0.000305381	0	0	0	
0.126833	-0.00754614	0.0123824	0.000216936	0.000284074	0	0	0	
0.127	-0.003218	-0.0120766	0.000239614	0.000262695	0	0	0	
0.127167	0.016706	0.013075	0.000266856	0.000248827	0	0	0	
0.127333	-0.0214748	-0.014393	0.000337637	0.000253447	0	0	0	
0.1275	0.0132684	0.015457	0.000351992	0.000264669	0	0	0	
0.127667	0.00119292	-0.0100754	0.000372446	0.000264513	0	0	0	
0.127833	-0.017157	0.00745967	0.000416548	0.000232574	0	0	0	
0.128	0.0202175	-0.0100216	0.000419266	0.000194022	0	0	0	
0.128167	-0.00836358	0.0155833	0.000371427	0.000200677	0	0	0	
0.128333	-0.0049549	-0.0150324	0.000301547	0.000237114	0	0	0	
0.1285	0.00726299	0.0107803	0.000257652	0.000266706	0	0	0	
0.128667	-0.0133021	-0.0131822	0.000234013	0.000260371	0	0	0	
0.128833	0.0170036	0.0190965	0.000236329	0.000273624	0	0	0	
0.129	-0.012185	-0.0135989	0.000268007	0.000290959	0	0	0	
0.129167	-0.00604642	0.00625087	0.000340046	0.000307195	0	0	0	
0.129333	0.014674	-0.00744204	0.000346898	0.000253758	0	0	0	
0.1295	-0.00475256	0.0157613	0.000320737	0.000235195	0	0	0	
0.129667	-0.00988872	-0.0186817	0.000292654	0.000245295	0	0	0	
0.129833	0.00288733	0.0139522	0.000239311	0.000302214	0	0	0	
0.13	0.00662202	-0.0169884	0.00019283	0.000322154	0	0	0	
0.130167	-0.000979171	0.0230794	0.000109412	0.000339837	0	0	0	
0.130333	-0.00350442	-0.0178065	8.89067E-05	0.000363893	0	0	0	
0.1305	-0.00122409	0.00714815	0.000102783	0.000357151	0	0	0	
0.130667	0.00373549	-0.00432056	9.0863E-05	0.000275455	0	0	0	
0.130833	0.00479045	0.0100475	0.000117693	0.000220597	0	0	0	
0.131	-0.0113408	-0.0149467	0.000124665	0.000199795	0	0	0	
0.131167	0.00572651	0.0142374	0.000159738	0.00024845	0	0	0	
0.131333	0.00329299	-0.0129463	0.000150542	0.000257396	0	0	0	
0.1315	-0.00394435	0.0100468	0.000124779	0.000264423	0	0	0	
0.131667	-0.00048335	-0.00622082	9.63916E-05	0.000215715	0	0	0	
0.131833	0.00727581	0.00733459	0.000121701	0.000180791	0	0	0	
0.132	-0.0128548	-0.00974783	0.000169769	0.000156508	0	0	0	
0.132167	0.00654923	0.0106568	0.000209619	0.000201297	0	0	0	
0.132333	-0.00241677	-0.0169203	0.000177703	0.000246131	0	0	0	
0.1325	0.0067351	0.0197479	0.000156877	0.000307073	0	0	0	
0.132667	-0.0175638	-0.0189682	0.00019136	0.000334253	0	0	0	
0.132833	0.00980874	0.0152555	0.000238377	0.000349661	0	0	0	
0.133	0.017098	-0.00937593	0.000302778	0.000306106	0	0	0	
0.133167	-0.0295986	0.00709318	0.000337966	0.000245944	0	0	0	
0.133333	0.00378427	-0.0112957	0.000535158	0.000198951	0	0	0	
0.1335	0.0248822	0.014712	0.000720503	0.000201422	0	0	0	
0.133667	-0.0239664	-0.0152231	0.000727161	0.000241236	0	0	0	
0.133833	0.00382473	0.0136959	0.000577456	0.000265735	0	0	0	
0.134	0.00509135	-0.0133012	0.000359912	0.00027006	0	0	0	
0.134167	-0.00450153	0.00997746	0.000282416	0.000258224	0	0	0	
0.134333	0.0155692	-0.00617821	0.000280548	0.000226068	0	0	0	
0.1345	-0.027454	0.0095963	0.000318883	0.000199796	0	0	0	
0.134667	0.00428126	-0.0166871	0.000427986	0.000211781	0	0	0	
0.134833	0.0367669	0.021334	0.000602473	0.00027448	0	0	0	
0.135	-0.0493518	-0.0201436	0.000728403	0.000357455	0	0	0	
0.135167	0.0241821	0.0144866	0.000835914	0.000370583	0	0	0	
0.135333	0.00402021	-0.0105838	0.000781841	0.000330174	0	0	0	
0.1355	-0.00685167	0.0113686	0.000588938	0.000264495	0	0	0	
0.135667	-0.00180901	-0.0170337	0.000367159	0.000244411	0	0	0	
0.135833	0.00367655	0.0173609	0.000164075	0.000274975	0	0	0	
0.136	-0.00235017	-0.0140594	0.000154349	0.000314554	0	0	0	
0.136167	0.00992151	0.00671299	0.000218981	0.000299427	0	0	0	
0.136333	-0.0200556	-0.00733671	0.00034874	0.000238051	0	0	0	
0.1365	0.0240595	0.00802689	0.00044606	0.000165187	0	0	0	
0.136667	-0.0182994	-0.0123757	0.000448994	0.000155094	0	0	0	
0.136833	0.00845896	0.0189582	0.000380266	0.000215334	0	0	0	
0.137	-0.000290805	-0.0168591	0.000281253	0.000290036	0	0	0	
0.137167	-0.00114828	0.00902706	0.000175814	0.000306668	0	0	0	
0.137333	-0.00425456	-0.0119832	0.000123146	0.000269327	0	0	0	
0.1375	0.00233686	0.0124632	0.00010957	0.00022309	0	0	0	
0.137667	0.0039954	-0.0188361	0.000113959	0.000260732	0	0	0	
0.137833	-0.00457719	0.0165898	0.000170126	0.000307817	0	0	0	
0.138	-0.00780239	-0.0172043	0.000291031	0.000365422	0	0	0	
0.138167	0.00595997	0.0167671	0.000337743	0.000347737	0	0	0	
0.138333	0.00692165	-0.00171704	0.000282752	0.000361699	0	0	0	
0.1385	-0.0145203	0.0110774	0.000191133	0.000404469	0	0	0	
0.138667	0.00529772	-0.00436611	0.000252713	0.000363641	0	0	0	
0.138833	0.00444673	0.00601316	0.000337909	0.00032641	0	0	0	
0.139	-0.00623133	-0.010283	0.00033408	0.000226878	0	0	0	
0.139167	0.00430919	0.0148892	0.000233076	0.000274105	0	0	0	
0.139333	-0.00127664	-0.0296398	0.000138907	0.000354877	0	0	0	
0.1395	-0.00698672	0.0630216	0.000165761	0.000573649	0	0	0	
0.139667	0.0110746	-0.0557691	0.000208802	0.000852974	0	0	0	
0.139833	-0.0112964	0.0202455	0.000241584	0.000896222	0	0	0	
0.14	0.0230681	-0.00128188	0.000247417	0.000733463	0	0	0	
0.140167	-0.0210609	0.00367645	0.000340363	0.000421902	0	0	0	
0.140333	-0.00870365	-6.76132E-05	0.000608468	0.0002325	0	0	0	
0.1405	0.0394387	0.0109124	0.000862232	0.000201932	0	0	0	
0.140667	-0.0357748	-0.0271915	0.000907976	0.000334292	0	0	0	
0.140833	0.00776287	0.00968123	0.000741529	0.000585657	0	0	0	
0.141	0.00875026	-0.029114	0.000496175	0.000647817	0	0	0	
0.141167	-0.00964851	0.0301921	0.000340947	0.000633773	0	0	0	
0.141333	0.0133448	0.00184926	0.000228564	0.000540746	0	0	0	
0.1415	-0.018441	-0.0158041	0.000229172	0.000462881	0	0	0	
0.141667	0.00518071	-0.00111882	0.000325388	0.00039559	0	0	0	
0.141833	0.0174336	0.0174998	0.000519557	0.000389961	0	0	0	
0.142	-0.0227518	-0.0252674	0.000594125	0.000469616	0	0	0	
0.142167	-0.00243229	0.023674	0.000511244	0.000507897	0	0	0	
0.142333	0.0217093	-0.0259264	0.00033863	0.000470685	0	0	0	
0.1425	-0.00889635	0.0182796	0.000304776	0.000449891	0	0	0	
0.142667	-0.0123624	-0.00918911	0.000421454	0.000410522	0	0	0	
0.142833	0.00259086	0.000958387	0.000369026	0.000304633	0	0	0	
0.143	0.0196139	-0.00758502	0.000320127	0.000225598	0	0	0	
0.143167	-0.0130546	0.0101861	0.000232907	0.000193204	0	0	0	
0.143333	-0.00948012	-0.0111481	0.000340583	0.000218914	0	0	0	
0.1435	0.0098966	0.00810897	0.000301493	0.000221434	0	0	0	
0.143667	0.0132084	-0.0101061	0.000346126	0.000202103	0	0	0	
0.143833	-0.0196903	0.0125766	0.000293922	0.000242054	0	0	0	
0.144	-0.00652105	-0.0141193	0.000491467	0.000279034	0	0	0	
0.144167	0.0333169	0.00848908	0.000603801	0.000268783	0	0	0	
0.144333	-0.0237244	-0.00667735	0.000671258	0.000214637	0	0	0	
0.1445	-0.00437019	0.0112771	0.000599769	0.000187955	0	0	0	
0.144667	0.0138968	-0.0148222	0.000396212	0.000229335	0	0	0	
0.144833	-0.000705258	0.0109133	0.000348754	0.000268935	0	0	0	
0.145	-0.00125901	-0.0141925	0.000218623	0.000298967	0	0	0	
0.145167	-0.0131164	0.0207718	0.000200246	0.000330844	0	0	0	
0.145333	0.00930864	-0.0220411	0.000190283	0.00037264	0	0	0	
0.1455	0.0160261	0.0115658	0.000334538	0.000376845	0	0	0	
0.145667	-0.0206228	-0.00540356	0.000408817	0.000302822	0	0	0	
0.145833	-0.00515764	0.00649686	0.000457606	0.00025417	0	0	0	
0.146	0.0168711	-0.00986516	0.000350041	0.000248319	0	0	0	
0.146167	0.00124616	0.00722627	0.000366941	0.000258983	0	0	0	
0.146333	-0.0157078	-0.00959503	0.000344975	0.000243531	0	0	0	
0.1465	0.0067026	0.0140415	0.000320842	0.000265379	0	0	0	
0.146667	0.00270745	-0.0182547	0.000229424	0.00031488	0	0	0	
0.146833	0.00172195	0.012002	0.000161315	0.000352406	0	0	0	
0.147	-0.00905484	-0.0064144	0.000171803	0.000284078	0	0	0	
0.147167	0.00543853	0.00766441	0.000198697	0.000215205	0	0	0	
0.147333	-0.00440362	-0.0123417	0.000191439	0.000182145	0	0	0	
0.1475	0.0045032	0.00932448	0.00015947	0.000217357	0	0	0	
0.147667	0.00113649	-0.00916424	0.0001086	0.000236848	0	0	0	
0.147833	-0.00900098	0.00886789	8.67521E-05	0.00024852	0	0	0	
0.148	0.00436247	-0.0112739	0.000157653	0.000235079	0	0	0	
0.148167	0.0126874	0.0120649	0.000333634	0.000245418	0	0	0	
0.148333	-0.0202785	-0.0133657	0.00043341	0.00024374	0	0	0	
0.1485	0.00834462	0.0117674	0.000410772	0.000256763	0	0	0	
0.148667	0.00452814	-0.0117858	0.00032621	0.00025497	0	0	0	
0.148833	-0.00690951	0.00879448	0.000247078	0.000245096	0	0	0	
0.149	0.0102934	-0.00866568	0.000202088	0.000230007	0	0	0	
0.149167	-0.0142558	-0.00496223	0.000180167	0.000248675	0	0	0	
0.149333	0.00508822	-0.00728083	0.000235992	0.000253625	0	0	0	
0.1495	0.00810301	0.0110824	0.000300866	0.000273032	0	0	0	
0.149667	-0.0113906	-0.0145558	0.000278213	0.000278077	0	0	0	
0.149833	0.00687971	0.0153644	0.000237915	0.000292543	0	0	0	
0.15	0.00275687	-0.0123981	0.000181354	0.000288185	0	0	0	
0.150167	-0.00418236	0.000777155	0.000134177	0.000246083	0	0	0	
0.150333	-0.00488715	-0.00983444	0.000116922	0.000193962	0	0	0	
0.1505	0.00896283	0.0130375	0.000119592	0.00020048	0	0	0	
0.150667	-0.00334543	-0.014155	0.000148156	0.0002353	0	0	0	
0.150833	0.00399078	0.010793	0.000135322	0.000274526	0	0	0	
0.151	-0.00744215	-0.0100949	0.000149141	0.000261283	0	0	0	
0.151167	0.00931423	0.00816293	0.000181589	0.000248136	0	0	0	
0.151333	-0.00853291	-0.00583958	0.000204934	0.000216104	0	0	0	
0.1515	0.00370852	0.00158256	0.0001723	0.000182406	0	0	0	
0.151667	0.00801442	-0.00116264	0.00014615	0.000212297	0	0	0	
0.151833	-0.0113122	0.0113016	0.000137324	0.000308452	0	0	0	
0.152	0.0013747	-0.0139145	0.0002195	0.000354927	0	0	0	
0.152167	0.0119123	0.00793552	0.000316259	0.000303364	0	0	0	
0.152333	-0.011137	-0.00736164	0.000349293	0.000210736	0	0	0	
0.1525	0.00316842	0.0109247	0.000275661	0.000207009	0	0	0	
0.152667	0.00159031	-0.0077226	0.000151215	0.000216072	0	0	0	
0.152833	0.000312128	0.00464068	8.7466E-05	0.000188173	0	0	0	
0.153	0.00236769	-0.006452	5.617E-05	0.000144694	0	0	0	
0.153167	-0.000165045	0.012972	8.14084E-05	0.000147173	0	0	0	
0.153333	-0.00285905	-0.0126682	0.000123847	0.000212573	0	0	0	
0.1535	0.00178286	0.00564717	0.000148537	0.000225668	0	0	0	
0.153667	-0.00730011	0.0108921	0.000131671	0.000180743	0	0	0	
0.153833	0.00827638	-0.00703294	0.000147526	0.000256245	0	0	0	
0.154	0.0407704	-0.0772477	0.000389153	0.000800111	0	0	0	
0.154167	-0.0937927	0.18504	0.000690619	0.00145586	0	0	0	
0.154333	0.345775	-0.549205	0.00258629	0.00442473	0	0	0	
0.1545	-0.0310274	0.22313	0.00319757	0.00699563	0	0	0	
0.154667	-0.0339534	0.012708	0.00343056	0.00760762	0	0	0	
0.154833	0.0230142	-0.0614106	0.00156027	0.00489145	0	0	0	
0.155	-0.00625956	0.047809	0.000910639	0.00205909	0	0	0	
0.155167	-0.0287012	0.0219516	0.000754416	0.00149726	0	0	0	
0.155333	0.22302	-0.41226	0.00165835	0.00281594	0	0	0	
0.1555	-0.029043	0.155686	0.00288484	0.00603419	0	0	0	
0.155667	0.0431373	-0.119899	0.00291661	0.00680313	0	0	0	
0.155833	0.00411138	0.0407254	0.00200836	0.00544786	0	0	0	
0.156	-0.0273806	0.00979292	0.000685119	0.00217001	0	0	0	
0.156167	0.0117476	-0.00128568	0.000479963	0.000724288	0	0	0	
0.156333	0.00316515	-0.0420294	0.000497654	0.000507182	0	0	0	
0.1565	0.0116586	0.0643448	0.000527904	0.000576177	0	0	0	
0.156667	-0.0404336	-0.036318	0.000524463	0.000901786	0	0	0	
0.156833	0.0293486	-0.00237701	0.000621841	0.000955513	0	0	0	
0.157	0.00427701	0.00808067	0.000700133	0.000632376	0	0	0	
0.157167	-0.00792355	0.00240554	0.000529555	0.000367847	0	0	0	
0.157333	-0.00574437	-0.0228013	0.000419363	0.000329419	0	0	0	
0.1575	0.0942418	-0.072498	0.000450218	0.00075692	0	0	0	
0.157667	-0.168793	0.207039	0.00119148	0.00151848	0	0	0	
0.157833	0.108754	-0.0819432	0.00180881	0.00214052	0	0	0	
0.158	-0.0420049	0.0197327	0.00191951	0.00191163	0	0	0	
0.158167	0.00360443	0.00852129	0.00134877	0.00124104	0	0	0	
0.158333	0.00498148	-0.0124545	0.00069043	0.000544483	0	0	0	
0.1585	0.0462586	-0.0308483	0.000423898	0.000419865	0	0	0	
0.158667	-0.0659592	0.0335817	0.000956043	0.000904842	0	0	0	
0.158833	0.0710681	0.0398432	0.00143504	0.0014905	0	0	0	
0.159	0.0171658	-0.0435349	0.00167119	0.00200774	0	0	0	
0.159167	-0.00979207	-0.00245582	0.00103211	0.00154373	0	0	0	
0.159333	-0.000690386	0.00172199	0.000627271	0.000863811	0	0	0	
0.1595	0.0133887	0.00877398	0.000390408	0.000372374	0	0	0	
0.159667	-0.0178575	-0.011205	0.000354023	0.000271265	0	0	0	
0.159833	0.0243716	0.0112815	0.000364025	0.000364045	0	0	0	
0.16	0.0196545	0.019436	0.000565561	0.000448338	0	0	0	
0.160167	0.0132884	0.000498011	0.000647444	0.000439188	0	0	0	
0.160333	-0.0146128	-0.0131978	0.000570793	0.000416616	0	0	0	
0.1605	-0.00387289	0.00773076	0.000320277	0.000276373	0	0	0	
0.160667	0.00992823	-0.00506337	0.000247083	0.000197331	0	0	0	
0.160833	0.0177372	0.00170876	0.00044648	0.000163436	0	0	0	
0.161	0.02737	0.0346848	0.000660994	0.000213136	0	0	0	
0.161167	0.017352	0.00339277	0.000755751	0.000309973	0	0	0	
0.161333	-0.00131694	-0.0120402	0.000709632	0.000308962	0	0	0	
0.1615	-0.0109916	0.00771278	0.000559504	0.000274723	0	0	0	
0.161667	0.0186231	-0.00909155	0.000473328	0.000207907	0	0	0	
0.161833	-0.0272248	0.0103643	0.000404625	0.000244296	0	0	0	
0.162	0.0165914	-0.0169973	0.000449551	0.000252294	0	0	0	
0.162167	0.0179214	0.0183441	0.000676688	0.000314222	0	0	0	
0.162333	-0.0358906	-0.0181772	0.000765026	0.000353566	0	0	0	
0.1625	0.0240774	0.0116802	0.000738328	0.000358878	0	0	0	
0.162667	-0.0112415	-0.0089347	0.000559588	0.000289884	0	0	0	
0.162833	0.00913927	0.0081557	0.000367426	0.000223107	0	0	0	
0.163	-0.0153153	-0.0101557	0.000318571	0.000187625	0	0	0	
0.163167	0.0108801	0.009389	0.000334832	0.000211984	0	0	0	
0.163333	-0.00506855	-0.0132654	0.000413996	0.000256077	0	0	0	
0.1635	0.00535437	0.0113734	0.000396943	0.000284218	0	0	0	
0.163667	0.00893619	-0.00575276	0.000304967	0.000258719	0	0	0	
0.163833	-0.00748062	0.00483907	0.000221414	0.000217635	0	0	0	
0.164	-0.0198877	-0.013561	0.000320728	0.000226943	0	0	0	
0.164167	0.0435399	0.01392	0.000493611	0.000289374	0	0	0	
0.164333	-0.038699	-0.0136135	0.000689993	0.000336234	0	0	0	
0.1645	-0.00499158	0.00652123	0.000749478	0.000325562	0	0	0	
0.164667	0.0266757	-0.00855636	0.000650508	0.000288387	0	0	0	
0.164833	-0.0150967	0.0102523	0.000533762	0.000280639	0	0	0	
0.165	-0.00487752	-0.012929	0.000404268	0.000281114	0	0	0	
0.165167	0.013243	0.00679544	0.000310689	0.00028927	0	0	0	
0.165333	-0.0165039	-0.00556542	0.000290541	0.00027321	0	0	0	
0.1655	0.0103892	0.00404679	0.000254692	0.000264317	0	0	0	
0.165667	-0.0116989	-0.00924352	0.000341973	0.000242786	0	0	0	
0.165833	0.00131923	0.00818752	0.00039124	0.000250623	0	0	0	
0.166	0.00788134	-0.00874782	0.000423684	0.000257081	0	0	0	
0.166167	-0.00435441	0.00616694	0.000323668	0.000277274	0	0	0	
0.166333	-0.00713591	-0.00679019	0.000272852	0.000264687	0	0	0	
0.1665	0.0257444	0.00923966	0.000312343	0.000246935	0	0	0	
0.166667	-0.026899	-0.0100417	0.000423843	0.000237958	0	0	0	
0.166833	0.00724352	0.00776138	0.000466282	0.000247041	0	0	0	
0.167	0.00927032	-0.00823107	0.000396094	0.000247325	0	0	0	
0.167167	0.00675796	0.00932057	0.000277238	0.000230761	0	0	0	
0.167333	-0.011159	-0.00803499	0.000195963	0.000209857	0	0	0	
0.1675	-0.00458726	0.00683811	0.000147416	0.000198403	0	0	0	
0.167667	0.00882742	-0.00559701	0.000153045	0.000203823	0	0	0	
0.167833	0.00636399	0.00568985	0.000162287	0.00022032	0	0	0	
0.168	-0.0114529	-0.0105463	0.000162562	0.000240688	0	0	0	
0.168167	0.00352005	0.0135141	0.000198675	0.000266789	0	0	0	
0.168333	0.00217441	-0.0123744	0.000148833	0.000270965	0	0	0	
0.1685	0.00573639	0.00457677	0.000142968	0.000242238	0	0	0	
0.168667	-0.00371572	0.000451272	9.44353E-05	0.000156682	0	0	0	
0.168833	-0.00250841	-0.000583823	0.000113267	0.000116924	0	0	0	
0.169	-0.00824834	-0.00459839	0.000119789	0.000153395	0	0	0	
0.169167	0.0184931	0.00808559	0.000180739	0.000249168	0	0	0	
0.169333	-0.00795617	-0.0152382	0.000225049	0.000321656	0	0	0	
0.1695	-0.0016788	0.0197031	0.000261694	0.000369064	0	0	0	
0.169667	-0.00188201	-0.0217775	0.000216648	0.000397077	0	0	0	
0.169833	0.0129081	0.0113854	0.000216786	0.000388625	0	0	0	
0.17	-0.0123175	-0.00371934	0.000200642	0.000297686	0	0	0	
0.170167	0.0036442	-0.00230355	0.000228614	0.000182365	0	0	0	
0.170333	-0.00559971	-0.00150585	0.000169419	0.000139647	0	0	0	
0.1705	0.00864357	0.00500651	0.000173386	0.000200951	0	0	0	
0.170667	-0.00085701	-0.00628711	0.000125783	0.000291198	0	0	0	
0.170833	-0.00869762	0.00258895	0.000128823	0.000329126	0	0	0	
0.171	-0.00209328	-0.00827274	0.000191383	0.000310586	0	0	0	
0.171167	0.0175346	0.01056	0.00033791	0.000286069	0	0	0	
0.171333	-0.0177721	-0.0110437	0.000417195	0.000263674	0	0	0	
0.1715	0.00179189	0.00579076	0.000346006	0.000247557	0	0	0	
0.171667	0.0116799	-0.00504376	0.000208114	0.000226126	0	0	0	
0.171833	-0.0126037	0.00697456	0.000179895	0.000239879	0	0	0	
0.172	0.00470709	-0.0106625	0.000213147	0.000273661	0	0	0	
0.172167	0.000247223	0.0112754	0.00026304	0.000309784	0	0	0	
0.172333	0.000978298	-0.0103473	0.000225085	0.000314215	0	0	0	
0.1725	-0.00345642	0.00685619	0.000158496	0.00030149	0	0	0	
0.172667	0.00531079	-0.00676993	9.27725E-05	0.000279003	0	0	0	
0.172833	-0.0022323	0.00635405	8.84901E-05	0.000270441	0	0	0	
0.173	-0.000781394	-0.00904354	0.000111377	0.000273927	0	0	0	
0.173167	-0.00106053	0.00873818	0.000113767	0.00028739	0	0	0	
0.173333	0.00473799	-0.00874934	8.97501E-05	0.000286602	0	0	0	
0.1735	-0.00454835	0.00468347	8.05382E-05	0.000280828	0	0	0	
0.173667	0.00133124	-0.00409956	9.62132E-05	0.000260252	0	0	0	
0.173833	-0.00217712	0.00194372	0.000113474	0.000245194	0	0	0	
0.174	-0.00250777	-0.00371877	0.000123449	0.000250302	0	0	0	
0.174167	0.00833881	0.00816557	0.000142556	0.000285873	0	0	0	
0.174333	-0.00703269	-0.0102746	0.000156352	0.000312394	0	0	0	
0.1745	-0.00647046	0.00765918	0.000189667	0.000298997	0	0	0	
0.174667	0.0115283	-0.00663133	0.000187462	0.000254309	0	0	0	
0.174833	-0.00253285	0.00627941	0.000214507	0.000211893	0	0	0	
0.175	-0.00567174	-0.00532581	0.000213325	0.000188381	0	0	0	
0.175167	-0.00308298	0.00506422	0.000187448	0.000185416	0	0	0	
0.175333	0.00911232	-0.00487869	0.000154879	0.000202297	0	0	0	
0.1755	-0.00331472	0.00705546	0.000168949	0.000229075	0	0	0	
0.175667	-0.00468197	-0.00994047	0.000256669	0.000259491	0	0	0	
0.175833	0.00166038	0.0100065	0.000251847	0.000275646	0	0	0	
0.176	0.00846663	-0.00841232	0.000182124	0.000281077	0	0	0	
0.176167	-0.00988526	0.0065959	0.000125464	0.000269789	0	0	0	
0.176333	0.00322077	-0.00631572	0.000140709	0.000249542	0	0	0	
0.1765	-0.00291986	0.00595896	0.000139599	0.000227652	0	0	0	
0.176667	0.00753938	-0.00659435	0.000116823	0.000219759	0	0	0	
0.176833	-0.00142719	0.00456567	0.000150164	0.00022783	0	0	0	
0.177	-0.0100147	-0.00499381	0.000232296	0.000246948	0	0	0	
0.177167	0.0134055	0.00593613	0.000260998	0.000265286	0	0	0	
0.177333	-0.00211422	-0.00707055	0.000270741	0.000269549	0	0	0	
0.1775	-0.0112747	0.00609209	0.000248365	0.000264434	0	0	0	
0.177667	0.0107838	-0.00718337	0.000260656	0.000261602	0	0	0	
0.177833	0.00293773	0.00763941	0.000295967	0.000267384	0	0	0	
0.178	-0.00990609	-0.00776571	0.000288929	0.000268101	0	0	0	
0.178167	0.00407466	0.00487805	0.000255101	0.000255382	0	0	0	
0.178333	0.00185211	-0.00492487	0.000145569	0.000239589	0	0	0	
0.1785	-0.00413976	0.00441468	9.45112E-05	0.000237753	0	0	0	
0.178667	0.00226648	-0.00685219	0.000103538	0.000248932	0	0	0	
0.178833	0.00250547	0.00683493	0.000153824	0.000261214	0	0	0	
0.179	-0.00538014	-0.00704475	0.000207324	0.000260419	0	0	0	
0.179167	0.00647256	0.00530303	0.000226459	0.000255345	0	0	0	
0.179333	-0.00473261	-0.00578386	0.000202363	0.00024887	0	0	0	
0.1795	0.00189151	0.00560971	0.000151848	0.000246527	0	0	0	
0.179667	-0.0050511	-0.0078387	0.000113588	0.000247586	0	0	0	
0.179833	0.0064057	0.00806245	0.000113792	0.000246033	0	0	0	
0.18	0.00141539	-0.00694123	0.000106659	0.000245611	0	0	0	
0.180167	-0.00957964	0.00564912	0.000110255	0.000257127	0	0	0	
0.180333	0.00609505	-0.0082085	0.000142418	0.000282379	0	0	0	
0.1805	0.00767936	0.00870506	0.000254666	0.000293529	0	0	0	
0.180667	-0.00871192	-0.00605855	0.00029216	0.000283422	0	0	0	
0.180833	0.00111516	0.00717974	0.000246902	0.000273392	0	0	0	
0.181	8.77598E-05	-0.00890322	0.000143851	0.000291878	0	0	0	
0.181167	0.00290864	0.00517644	0.000108675	0.000294437	0	0	0	
0.181333	0.00623834	-0.00322814	9.73962E-05	0.00026131	0	0	0	
0.1815	-0.0100235	0.00348873	0.000109945	0.000229932	0	0	0	
0.181667	0.00677882	-0.00763629	0.000153899	0.000252843	0	0	0	
0.181833	0.00873984	0.0100698	0.000246543	0.000311933	0	0	0	
0.182	-0.0127942	-0.0102669	0.000262108	0.000335706	0	0	0	
0.182167	-0.00108691	0.00617487	0.000285559	0.000284519	0	0	0	
0.182333	0.0187246	-0.00436765	0.00031048	0.000201154	0	0	0	
0.1825	-0.0189761	0.000303706	0.000368341	0.00013757	0	0	0	
0.182667	0.00827237	-0.00292137	0.000364996	0.000161352	0	0	0	
0.182833	0.00279797	0.00902075	0.000331962	0.000264542	0	0	0	
0.183	-0.00895521	-0.0183468	0.000279174	0.000376468	0	0	0	
0.183167	0.00990403	0.0167071	0.000229151	0.000414167	0	0	0	
0.183333	-0.00785667	-0.010533	0.000179789	0.000359201	0	0	0	
0.1835	0.00302393	0.00451628	0.000218775	0.000260523	0	0	0	
0.183667	0.00565519	-0.00300629	0.000264543	0.000203684	0	0	0	
0.183833	-0.00446814	0.00279334	0.000234793	0.000226806	0	0	0	
0.184	-0.00290649	-0.0072998	0.000179789	0.000322235	0	0	0	
0.184167	0.00531459	0.0116194	0.000121133	0.000414672	0	0	0	
0.184333	-0.00500609	-0.0134804	0.000130701	0.000434431	0	0	0	
0.1845	0.00719109	0.0088768	0.000120276	0.000370508	0	0	0	
0.184667	-0.00134937	-0.00153947	0.000105118	0.000260727	0	0	0	
0.184833	-0.00850786	-0.00284806	0.000109618	0.000209084	0	0	0	
0.185	0.0103203	-0.00387372	0.00012947	0.000271292	0	0	0	
0.185167	0.000798277	0.0111501	0.000210757	0.000370179	0	0	0	
0.185333	-0.0106073	-0.00942355	0.000255285	0.000396822	0	0	0	
0.1855	0.00863647	0.00598486	0.000248191	0.000326295	0	0	0	
0.185667	-0.00139151	-0.00512374	0.000208593	0.000269634	0	0	0	
0.185833	-0.00759864	0.00610599	0.000190752	0.000268886	0	0	0	
0.186	0.0192167	-0.00312965	0.000209825	0.000283553	0	0	0	
0.186167	-0.0266627	-0.00371516	0.000291695	0.000290803	0	0	0	
0.186333	0.0181844	-0.000801183	0.000430853	0.000327258	0	0	0	
0.1865	-0.000313176	0.00860103	0.000640508	0.000402382	0	0	0	
0.186667	-0.0208107	-0.008742	0.000763654	0.000439243	0	0	0	
0.186833	0.0234568	0.00385102	0.000709969	0.000372924	0	0	0	
0.187	-0.00300143	0.00267454	0.000542415	0.000264541	0	0	0	
0.187167	-0.0192342	-0.00528782	0.000432199	0.000218396	0	0	0	
0.187333	0.0238607	0.00268235	0.000419351	0.000240148	0	0	0	
0.1875	-0.0257527	4.81126E-05	0.000452478	0.000294945	0	0	0	
0.187667	0.0147788	-0.00678763	0.000440031	0.000335593	0	0	0	
0.187833	0.0243611	0.00610264	0.000598272	0.000289596	0	0	0	
0.188	-0.0283753	0.0114096	0.000636606	0.000429907	0	0	0	
0.188167	0.196215	-0.0635597	0.00163918	0.00106223	0	0	0	
0.188333	-0.0326376	0.0136286	0.00202855	0.00125255	0	0	0	
0.1885	-0.0290966	0.00856248	0.00235796	0.00118066	0	0	0	
0.188667	0.0381091	-0.0105352	0.00146355	0.000570922	0	0	0	
0.188833	-0.0169437	0.00422823	0.000936629	0.000385552	0	0	0	
0.189	0.0231452	-0.0238236	0.000634897	0.000353317	0	0	0	
0.189167	-0.0103537	0.0099456	0.0004949	0.00036193	0	0	0	
0.189333	-0.00791808	-0.0131544	0.000408039	0.000481703	0	0	0	
0.1895	0.018913	0.00982256	0.000293215	0.000452936	0	0	0	
0.189667	-0.0172176	-0.00308939	0.000296684	0.000331062	0	0	0	
0.189833	-0.00178798	0.00113066	0.000393354	0.000175757	0	0	0	
0.19	0.0141946	-0.00567939	0.000440198	0.000104255	0	0	0	
0.190167	-0.0164169	0.00448825	0.000410762	0.000141638	0	0	0	
0.190333	0.0110092	-0.00231344	0.000321185	0.000211041	0	0	0	
0.1905	-0.00345137	0.00253606	0.000247766	0.000257972	0	0	0	
0.190667	-0.00246457	-0.00296221	0.000221469	0.000262855	0	0	0	
0.190833	-0.00112619	0.00230662	0.000186091	0.000226693	0	0	0	
0.191	-0.00109641	-0.000690542	0.000173178	0.000182399	0	0	0	
0.191167	0.00535657	0.00214645	0.000164212	0.000178538	0	0	0	
0.191333	0.00102939	-0.00433064	0.000137276	0.000203102	0	0	0	
0.1915	-0.0112553	0.00146641	0.000163099	0.000199909	0	0	0	
0.191667	0.0139476	0.00680734	0.00015635	0.000178419	0	0	0	
0.191833	-0.00513024	-0.00197613	0.000263802	0.000165343	0	0	0	
0.192	-0.00975544	0.000645375	0.000349456	0.000161868	0	0	0	
0.192167	0.00941165	-0.00456928	0.000395824	0.000141111	0	0	0	
0.192333	0.00398044	0.00194588	0.000313417	0.000147445	0	0	0	
0.1925	-0.0134148	0.00662821	0.000190632	0.000221209	0	0	0	
0.192667	0.000786829	-0.0063732	0.000224103	0.000264876	0	0	0	
0.192833	0.0134558	0.000867879	0.000370912	0.000211479	0	0	0	
0.193	-0.00999633	0.00352685	0.000423367	0.000104576	0	0	0	
0.193167	-0.00536451	-0.00134372	0.000321011	7.03419E-05	0	0	0	
0.193333	0.00348799	0.00157359	0.000171006	0.000107178	0	0	0	
0.1935	0.00280375	-0.00560152	0.000182468	0.000173314	0	0	0	
0.193667	-0.00213936	-0.00361491	0.000188983	0.000256823	0	0	0	
0.193833	-0.013968	0.0127551	0.000185238	0.000344292	0	0	0	
0.194	0.0127819	-0.0107745	0.00019083	0.000357887	0	0	0	
0.194167	0.00471672	0.000706161	0.000359333	0.000265497	0	0	0	
0.194333	-0.00672149	2.86475E-05	0.000419071	0.000149221	0	0	0	
0.1945	-0.0124136	0.00376229	0.000392718	0.000153204	0	0	0	
0.194667	0.0241872	-0.00551519	0.000349942	0.000214697	0	0	0	
0.194833	-0.0120537	0.00193385	0.000372102	0.000258224	0	0	0	
0.195	-0.00775738	0.000995422	0.000451107	0.000210243	0	0	0	
0.195167	0.00908709	-0.00365143	0.000351707	0.000140767	0	0	0	
0.195333	0.0106911	0.0107075	0.000360346	0.000119559	0	0	0	
0.1955	-0.0262328	-0.0177057	0.000338244	0.000204195	0	0	0	
0.195667	0.00953027	0.00817077	0.000417366	0.000388537	0	0	0	
0.195833	0.0124131	0.00372076	0.000419638	0.000561833	0	0	0	
0.196	-0.0110068	-0.00877718	0.000362137	0.000560999	0	0	0	
0.196167	0.00236483	0.00481306	0.000279078	0.000397283	0	0	0	
0.196333	0.00408022	0.00143556	0.000164746	0.000197223	0	0	0	
0.1965	-6.95812E-05	-0.00576311	9.12991E-05	9.30717E-05	0	0	0	
0.196667	0.00482484	0.0077966	0.000105246	8.27707E-05	0	0	0	
0.196833	-0.0123633	-0.00680537	0.000150769	0.000129697	0	0	0	
0.197	0.00606073	0.000244624	0.000229318	0.000191738	0	0	0	
0.197167	0.0117917	0.00277411	0.000297658	0.000223414	0	0	0	
0.197333	-0.00847927	-0.000236603	0.000299091	0.000172205	0	0	0	
0.1975	-0.00157969	-0.00559415	0.000277019	0.000105542	0	0	0	
0.197667	0.00788213	0.00509965	0.000182022	0.000120081	0	0	0	
0.197833	-0.00527625	0.00493186	0.000153859	0.000265062	0	0	0	
0.198	0.0040253	-0.0111632	0.000129286	0.000398861	0	0	0	
0.198167	-0.00145031	0.00695585	0.000101383	0.00040744	0	0	0	
0.198333	0.00264003	-0.000890709	9.20894E-05	0.000279647	0	0	0	
0.1985	-0.00391312	-6.30161E-05	8.10146E-05	0.000147783	0	0	0	
0.198667	0.00103679	-0.000972364	0.00010121	8.44456E-05	0	0	0	
0.198833	0.00144679	-0.00167459	8.91107E-05	9.73313E-05	0	0	0	
0.199	0.00254525	0.00314163	8.95775E-05	0.00017632	0	0	0	
0.199167	-0.00848262	0.00437353	9.49614E-05	0.00028178	0	0	0	
0.199333	0.00579736	-0.00457283	0.000125285	0.000328133	0	0	0	
0.1995	-0.00124514	3.51975E-06	0.000145776	0.000252062	0	0	0	
0.199667	0.00215513	0.00357136	0.000129279	0.000143963	0	0	0	
0.199833	-0.00509182	-0.00287682	0.00010389	0.000141401	0	0	0	
0.2	0.00738202	-0.00236584	9.22634E-05	0.000241259	0	0	0	
0.200167	-0.00536694	0.00652273	0.000123346	0.000310726	0	0	0	
0.200333	-0.00341154	-0.00301586	0.000132254	0.000283862	0	0	0	
0.2005	0.00129187	-0.000319208	0.000104003	0.000194359	0	0	0	
0.200667	0.00437928	0.00168788	0.000118023	0.000124976	0	0	0	
0.200833	-0.00851927	-0.00326851	0.000163078	8.91385E-05	0	0	0	
0.201	0.0093072	0.00460137	0.000206158	0.000112967	0	0	0	
0.201167	-0.0105468	-0.000630458	0.000208282	0.000202883	0	0	0	
0.201333	0.00226085	-0.00617314	0.000184478	0.000311699	0	0	0	
0.2015	0.00607632	0.00535746	0.00021425	0.000342122	0	0	0	
0.201667	-0.00939759	-0.0013179	0.00018742	0.0002562	0	0	0	
0.201833	0.00237705	-0.00148274	0.000174463	0.000133736	0	0	0	
0.202	-0.00244371	0.00223322	0.000116811	8.02108E-05	0	0	0	
0.202167	0.00302285	-0.00513982	0.000116645	0.000115503	0	0	0	
0.202333	0.0033267	0.00477581	9.87751E-05	0.000190343	0	0	0	
0.2025	-0.00498989	-0.00256896	0.000126658	0.000254649	0	0	0	
0.202667	-0.0057406	-0.000500782	0.0001846	0.000277591	0	0	0	
0.202833	0.00504209	0.00256775	0.000208936	0.000249701	0	0	0	
0.203	0.00720034	-0.00361221	0.000205924	0.000189999	0	0	0	
0.203167	-0.00944406	0.00151228	0.000141919	0.000147174	0	0	0	
0.203333	0.00216394	0.000509427	0.000184021	0.0001374	0	0	0	
0.2035	0.00173961	-0.00190805	0.000165346	0.000151573	0	0	0	
0.203667	0.0090653	0.00205531	0.000193785	0.000147423	0	0	0	
0.203833	-0.0166671	-0.00362786	0.000191668	0.000132098	0	0	0	
0.204	0.00573464	0.0035166	0.000250905	0.00011736	0	0	0	
0.204167	0.0147436	-0.00278156	0.000333357	0.000142612	0	0	0	
0.204333	-0.0195394	0.00111406	0.000370707	0.000219218	0	0	0	
0.2045	0.0038384	0.00566159	0.000329465	0.000307183	0	0	0	
0.204667	-0.000801055	-0.00657065	0.000193963	0.000337711	0	0	0	
0.204833	0.00438001	0.0025987	9.82583E-05	0.000269805	0	0	0	
0.205	-0.00417039	0.00108022	7.8868E-05	0.000153342	0	0	0	
0.205167	0.0017172	-0.00508004	8.6874E-05	8.33962E-05	0	0	0	
0.205333	0.00914193	0.00531912	0.00010798	9.28004E-05	0	0	0	
0.2055	-0.0161336	-0.00555044	0.000161341	0.000174391	0	0	0	
0.205667	0.00131309	0.00148595	0.000245478	0.000271041	0	0	0	
0.205833	0.00497446	0.00204094	0.000270038	0.000331925	0	0	0	
0.206	0.00363516	-0.00278298	0.000213698	0.000304482	0	0	0	
0.206167	-0.00375819	-0.0009492	0.000145978	0.000206498	0	0	0	
0.206333	0.000658204	0.00220744	9.93055E-05	0.000121407	0	0	0	
0.2065	-0.00707279	-0.00404667	8.93994E-05	0.000127119	0	0	0	
0.206667	0.00164611	0.0015195	0.000110784	0.000197807	0	0	0	
0.206833	-0.00250154	-0.00146936	0.000100041	0.000264215	0	0	0	
0.207	-0.00393817	0.00106792	0.000148621	0.000262164	0	0	0	
0.207167	0.0118037	-0.000942483	0.000161012	0.000199401	0	0	0	
0.207333	-0.0167715	0.00376951	0.000235012	0.000137497	0	0	0	
0.2075	0.00780887	-0.0026504	0.000250817	0.000129063	0	0	0	
0.207667	-0.00555986	0.00121046	0.000304599	0.000184829	0	0	0	
0.207833	-0.00841753	-0.00107758	0.000256683	0.000247094	0	0	0	
0.208	0.00404094	0.000488658	0.000223342	0.000269253	0	0	0	
0.208167	0.000990364	0.00133974	0.000167509	0.000233834	0	0	0	
0.208333	-0.00524295	0.000398138	0.000197075	0.000170044	0	0	0	
0.2085	0.0065054	0.00251294	0.000221831	0.00012972	0	0	0	
0.208667	-0.0134476	-0.000887758	0.000205657	0.000149305	0	0	0	
0.208833	0.00665874	-0.00126461	0.000200853	0.000198859	0	0	0	
0.209	0.00631891	0.00151433	0.000249907	0.00022948	0	0	0	
0.209167	-0.0165241	-0.00109799	0.000287218	0.000209065	0	0	0	
0.209333	0.00972444	0.00147783	0.000320367	0.000159891	0	0	0	
0.2095	0.00832155	-0.00258478	0.000348656	0.000134348	0	0	0	
0.209667	-0.0136768	0.00267398	0.000337624	0.000179606	0	0	0	
0.209833	0.0119917	0.000212801	0.000333476	0.000268747	0	0	0	
0.21	-0.00704403	0.000150205	0.000236922	0.000306781	0	0	0	
0.210167	0.0130168	-0.00340375	0.000229462	0.000254332	0	0	0	
0.210333	-0.00764542	0.0028977	0.000198764	0.000162695	0	0	0	
0.2105	-0.00551108	-0.00180234	0.00016929	0.000114115	0	0	0	
0.210667	0.0063285	0.000509299	0.000149099	0.000122535	0	0	0	
0.210833	0.0082748	0.000309409	0.000183275	0.000175738	0	0	0	
0.211	-0.00348513	-0.00500707	0.000213823	0.000234942	0	0	0	
0.211167	-0.00615467	0.00450889	0.00017659	0.000255532	0	0	0	
0.211333	0.00645169	-0.00258331	0.000165639	0.000210133	0	0	0	
0.2115	0.00446334	1.04745E-05	0.000253535	0.000135514	0	0	0	
0.211667	-0.00838815	0.0020295	0.000301289	9.67805E-05	0	0	0	
0.211833	-0.00165925	-0.00241051	0.000283967	0.000122708	0	0	0	
0.212	0.0131134	0.00116311	0.000183458	0.000193386	0	0	0	
0.212167	-0.00762651	-0.00029429	0.000197569	0.000259615	0	0	0	
0.212333	-0.000879995	0.00162577	0.000226201	0.00027421	0	0	0	
0.2125	0.0012679	-0.00150424	0.000233558	0.000226704	0	0	0	
0.212667	-0.00111872	0.00132528	0.000170098	0.000163061	0	0	0	
0.212833	0.00355138	0.00122062	8.9591E-05	0.000132068	0	0	0	
0.213	-0.000122295	0.00133276	5.76132E-05	0.000142869	0	0	0	
0.213167	-0.0048962	-0.00228467	7.60598E-05	0.000175695	0	0	0	
0.213333	0.00178959	0.00174382	0.000121552	0.000224209	0	0	0	
0.2135	0.00159606	0.000340059	0.000148857	0.000258474	0	0	0	
0.213667	-0.0011206	0.000603218	0.000120219	0.000234085	0	0	0	
0.213833	0.0002908	-0.00242269	6.53844E-05	0.000165749	0	0	0	
0.214	-0.00195743	0.00436222	3.6207E-05	0.000132957	0	0	0	
0.214167	-0.00571088	-0.00237417	5.01218E-05	0.000177335	0	0	0	
0.214333	0.00656623	0.0028319	9.62967E-05	0.000254285	0	0	0	
0.2145	-0.00376495	-0.00363811	0.00010537	0.000287093	0	0	0	
0.214667	0.00205982	0.00125829	0.000109719	0.000248246	0	0	0	
0.214833	-0.00230761	-0.00156142	7.15021E-05	0.000168459	0	0	0	
0.215	-0.00382326	0.00379823	8.15698E-05	0.000106318	0	0	0	
0.215167	0.00538618	-0.00640852	0.000117477	0.000118605	0	0	0	
0.215333	-0.00238514	0.00345131	0.00013369	0.00019583	0	0	0	
0.2155	-0.013031	0.0010447	0.000176593	0.000275029	0	0	0	
0.215667	0.0165176	-0.002137	0.000200261	0.000270097	0	0	0	
0.215833	-0.00268633	-0.0012478	0.000266864	0.000186676	0	0	0	
0.216	-0.00935058	0.00333061	0.000303867	0.000104872	0	0	0	
0.216167	0.00890402	-0.00418821	0.000306362	0.000101317	0	0	0	
0.216333	-0.0133838	0.00525005	0.0002504	0.00016657	0	0	0	
0.2165	0.00678374	-0.00619147	0.000193237	0.000236805	0	0	0	
0.216667	-0.00199651	0.005226	0.000173902	0.000275793	0	0	0	
0.216833	-0.00274994	-0.00159544	0.000203343	0.000257998	0	0	0	
0.217	0.00798095	0.00219702	0.000172007	0.000194533	0	0	0	
0.217167	-0.0149851	-0.00344845	0.000180923	0.000135465	0	0	0	
0.217333	0.0137529	0.0056306	0.00024305	0.000161177	0	0	0	
0.2175	-0.00360684	-0.00423095	0.000411048	0.000252967	0	0	0	
0.217667	-0.00206934	-0.00020197	0.000514429	0.000310323	0	0	0	
0.217833	0.00182188	0.00116097	0.000465637	0.000268951	0	0	0	
0.218	-0.00080008	0.00119257	0.000323187	0.00017014	0	0	0	
0.218167	0.00116551	-0.00451809	0.000172954	0.000105959	0	0	0	
0.218333	0.0075952	0.011417	0.000173624	0.000124162	0	0	0	
0.2185	-0.012712	-0.0129819	0.000282311	0.00020766	0	0	0	
0.218667	0.0216805	0.0101791	0.000345188	0.000281424	0	0	0	
0.218833	-0.00978297	-0.00820184	0.000369046	0.000315366	0	0	0	
0.219	-0.0144682	0.00331072	0.000393973	0.000290351	0	0	0	
0.219167	0.0407181	-0.000384635	0.000522885	0.000246536	0	0	0	
0.219333	-0.0496039	0.0042551	0.000680382	0.000182736	0	0	0	
0.2195	0.0426632	-0.0111937	0.000806177	0.00015265	0	0	0	
0.219667	-0.0197589	0.0135307	0.000836378	0.000170787	0	0	0	
0.219833	0.00395172	-0.0107693	0.000670955	0.000250406	0	0	0	
0.22	0.00512572	0.00365738	0.000396354	0.000328323	0	0	0	
0.220167	-0.0124767	-0.000651173	0.000222219	0.000336596	0	0	0	
0.220333	0.00305171	0.00414741	0.00032819	0.000262027	0	0	0	
0.2205	0.019592	-0.00568069	0.000613621	0.000182885	0	0	0	
0.220667	-0.0296815	0.00484085	0.000864744	0.000168024	0	0	0	
0.220833	0.0258747	-0.00720062	0.000863282	0.000208334	0	0	0	
0.221	-0.0111685	0.00921382	0.000632195	0.000247975	0	0	0	
0.221167	-0.00545035	-0.00533846	0.000368021	0.000255804	0	0	0	
0.221333	0.0124429	0.00188202	0.000216773	0.000222873	0	0	0	
0.2215	-0.011837	-0.00141157	0.000213662	0.000173288	0	0	0	
0.221667	0.0116782	0.00598356	0.000260518	0.00014796	0	0	0	
0.221833	-0.00939834	-0.00898916	0.000311045	0.000177806	0	0	0	
0.222	0.00199853	0.00490462	0.00034004	0.000240078	0	0	0	
0.222167	0.0119291	-8.59452E-05	0.000355295	0.000282971	0	0	0	
0.222333	-0.00836902	0.000504762	0.000305814	0.000250148	0	0	0	
0.2225	-0.0120988	-0.00314128	0.000348883	0.00018095	0	0	0	
0.222667	0.019258	0.00380266	0.000322805	0.000160374	0	0	0	
0.222833	0.0029196	-0.0016002	0.000359787	0.000206142	0	0	0	
0.223	-0.00984808	0.00220993	0.000253056	0.000246774	0	0	0	
0.223167	-0.00384782	-0.00364687	0.00023544	0.000239125	0	0	0	
0.223333	0.00903679	0.00225362	0.000184393	0.000200184	0	0	0	
0.2235	-0.0029943	-0.00304564	0.000209244	0.000157544	0	0	0	
0.223667	0.00483642	0.00558381	0.000202385	0.000129025	0	0	0	
0.223833	-0.00930682	-0.00487711	0.00022161	0.000152232	0	0	0	
0.224	0.00704344	0.00238323	0.000231574	0.000225094	0	0	0	
0.224167	0.00207708	0.000816189	0.0002889	0.000265726	0	0	0	
0.224333	-0.00325856	5.10449E-05	0.000276256	0.000227547	0	0	0	
0.2245	-0.00666897	-0.00144668	0.000225024	0.000147023	0	0	0	
0.224667	0.0128232	0.00309506	0.000159682	9.29092E-05	0	0	0	
0.224833	-0.0109152	-0.00582992	0.000189141	9.22458E-05	0	0	0	
0.225	0.00774283	0.00901439	0.000200711	0.000139343	0	0	0	
0.225167	-0.0045315	-0.00467302	0.000203856	0.000208114	0	0	0	
0.225333	-0.00395495	0.00311492	0.000192767	0.000267017	0	0	0	
0.2255	0.00808872	-0.00175747	0.000196974	0.000259443	0	0	0	
0.225667	-0.00820061	0.0024971	0.000182455	0.000199927	0	0	0	
0.225833	0.00865111	-0.00170196	0.000178889	0.000134817	0	0	0	
0.226	-0.00844862	0.00296636	0.000185083	0.000122026	0	0	0	
0.226167	0.00455285	-0.00363772	0.000166	0.000154849	0	0	0	
0.226333	0.00280583	0.00430936	0.00012783	0.000194798	0	0	0	
0.2265	-0.00554908	-0.00242688	9.5033E-05	0.000202237	0	0	0	
0.226667	0.00334805	0.00200923	0.000119985	0.000176808	0	0	0	
0.226833	-0.00562635	-0.00270897	0.000161383	0.000131884	0	0	0	
0.227	0.00624984	0.00691475	0.00020123	0.000113124	0	0	0	
0.227167	0.000165389	-0.00982597	0.000210881	0.00014885	0	0	0	
0.227333	-0.00439274	0.00599795	0.000215861	0.000227817	0	0	0	
0.2275	0.00562101	-0.00158232	0.000198722	0.000292139	0	0	0	
0.227667	-0.00633681	0.000426172	0.000159588	0.000276266	0	0	0	
0.227833	0.000372361	-0.00086999	0.000132202	0.000194731	0	0	0	
0.228	0.00944754	0.00246835	0.000151255	0.000116639	0	0	0	
0.228167	-0.0143886	-0.00491408	0.000181422	9.54622E-05	0	0	0	
0.228333	0.00451007	0.00772256	0.000264083	0.000129101	0	0	0	
0.2285	0.00791993	-0.00668293	0.0003372	0.000184796	0	0	0	
0.228667	-0.0107645	0.00487169	0.000358681	0.000242484	0	0	0	
0.228833	0.0046552	-0.00104529	0.000271131	0.000245649	0	0	0	
0.229	0.00249754	0.00298194	0.000169496	0.000192681	0	0	0	
0.229167	-0.00364298	-0.00572657	0.00010007	0.000130399	0	0	0	
0.229333	-0.000501363	0.00848449	0.000106397	0.000132273	0	0	0	
0.2295	-0.00708131	-0.0090669	0.000124685	0.000185918	0	0	0	
0.229667	0.00340555	0.00828303	0.000167245	0.000254168	0	0	0	
0.229833	0.00547279	-0.0010036	0.000222354	0.000284272	0	0	0	
0.23	-0.0136026	-0.000783551	0.000231624	0.000246621	0	0	0	
0.230167	0.00500336	-0.00436147	0.000258709	0.00015535	0	0	0	
0.230333	0.0169166	0.0097904	0.00028213	0.000107798	0	0	0	
0.2305	-0.0270188	-0.00987267	0.000356279	0.000140506	0	0	0	
0.230667	0.0130393	0.00892489	0.000392292	0.000228546	0	0	0	
0.230833	-0.00340745	-0.00843873	0.000377181	0.000275881	0	0	0	
0.231	-0.00411817	0.00487755	0.000295378	0.000252194	0	0	0	
0.231167	-0.000380509	-0.00204672	0.000186002	0.000188388	0	0	0	
0.231333	0.00930613	0.00467627	0.000121222	0.000124956	0	0	0	
0.2315	-0.0140567	-0.0117982	0.000129147	0.000131864	0	0	0	
0.231667	0.00690877	0.0133055	0.000176025	0.000192368	0	0	0	
0.231833	-0.00205747	-0.00574517	0.000170388	0.000264172	0	0	0	
0.232	4.4968E-05	-3.08413E-05	0.00011246	0.000283304	0	0	0	
0.232167	0.000321744	0.000116082	7.2671E-05	0.000217922	0	0	0	
0.232333	-0.00245158	0.00391176	5.32909E-05	0.000140909	0	0	0	
0.2325	-0.000424631	-0.00588374	6.08466E-05	0.000120173	0	0	0	
0.232667	0.0080496	0.00618101	0.000101338	0.000180901	0	0	0	
0.232833	-0.00601573	-0.00680339	0.000143058	0.000262463	0	0	0	
0.233	0.00140142	0.00219797	0.000151599	0.000283243	0	0	0	
0.233167	-0.00524354	-0.000393757	0.000164292	0.000230135	0	0	0	
0.233333	0.0243306	0.00381821	0.000286577	0.000149898	0	0	0	
0.2335	-0.0430886	-0.00458951	0.000521114	0.000121638	0	0	0	
0.233667	0.0407374	0.0109623	0.000695903	0.000190297	0	0	0	
0.233833	-0.00311796	-0.00887848	0.00064697	0.000273042	0	0	0	
0.234	-0.0103298	0.000236301	0.000473263	0.000293035	0	0	0	
0.234167	0.00457784	0.000745449	0.00028094	0.000227741	0	0	0	
0.234333	-0.00174824	0.0025478	0.000183089	0.000143718	0	0	0	
0.2345	0.0155191	-0.00232734	0.000136345	0.000110824	0	0	0	
0.234667	-0.0188898	0.0060464	0.000211178	0.000132451	0	0	0	
0.234833	0.00113733	-0.00579292	0.000394003	0.000162616	0	0	0	
0.235	0.0214742	0.00434121	0.00048302	0.000182548	0	0	0	
0.235167	-0.0116877	-0.000136888	0.000474337	0.000196876	0	0	0	
0.235333	0.00198437	-9.5079E-06	0.000373367	0.000194334	0	0	0	
0.2355	-0.00914061	-0.00412576	0.000293824	0.000160874	0	0	0	
0.235667	0.0118014	0.00410873	0.000233576	0.000132711	0	0	0	
0.235833	0.002188	-0.00359413	0.000236485	0.00017838	0	0	0	
0.236	-0.00762953	0.00188061	0.000252918	0.000231783	0	0	0	
0.236167	-0.00483703	-0.00522125	0.000270459	0.000230103	0	0	0	
0.236333	0.0205817	0.00561019	0.000238902	0.000176851	0	0	0	
0.2365	-0.0133227	-0.00490192	0.000286381	0.000141154	0	0	0	
0.236667	-0.00374914	0.00535093	0.000336978	0.00013339	0	0	0	
0.236833	0.00475956	-0.00860824	0.000291836	0.000149159	0	0	0	
0.237	0.00514137	0.008451	0.000219846	0.000186273	0	0	0	
0.237167	-0.0113483	-0.00413356	0.000134755	0.00022117	0	0	0	
0.237333	0.0112188	0.000493691	0.000189396	0.00022108	0	0	0	
0.2375	-0.00389385	-0.00438239	0.000245817	0.000169966	0	0	0	
0.237667	-0.00038453	0.0101106	0.000260205	0.000135457	0	0	0	
0.237833	-0.00798066	-0.000415052	0.000194141	0.000188411	0	0	0	
0.238	-0.0161514	-0.0156517	0.000179097	0.00053984	0	0	0	
0.238167	-0.166761	0.0619238	0.00107346	0.00123169	0	0	0	
0.238333	0.0419131	-0.00251488	0.00157427	0.00132986	0	0	0	
0.2385	-0.00248134	-0.0173747	0.00177608	0.00104555	0	0	0	
0.238667	-0.00784603	0.0135926	0.00104938	0.000399092	0	0	0	
0.238833	0.00703275	-0.00488796	0.000685937	0.000289493	0	0	0	
0.239	-0.0256233	0.0261381	0.000539431	0.000391915	0	0	0	
0.239167	0.0129277	-0.0147652	0.000496835	0.000418595	0	0	0	
0.239333	-0.00444161	0.0155256	0.000470611	0.000417049	0	0	0	
0.2395	0.00504439	-0.0133421	0.000449897	0.00031184	0	0	0	
0.239667	-0.00373939	0.0112985	0.000386194	0.000307755	0	0	0	
0.239833	0.00425372	-0.00748964	0.000346976	0.000307048	0	0	0	
0.24	-0.00926774	0.00518818	0.000320586	0.000300516	0	0	0	
0.240167	0.0178851	-0.00565999	0.000316795	0.000252169	0	0	0	
0.240333	-0.0125622	0.0129299	0.000304018	0.000214229	0	0	0	
0.2405	-0.0039327	-0.0179154	0.000299872	0.000231862	0	0	0	
0.240667	0.0164918	0.011249	0.000251529	0.000314558	0	0	0	
0.240833	-0.00805428	-0.00181791	0.000278431	0.000373008	0	0	0	
0.241	-0.00608915	0.00510706	0.000310726	0.000330492	0	0	0	
0.241167	0.000656665	-0.00940412	0.000282708	0.000244816	0	0	0	
0.241333	0.0134223	0.00969031	0.000206876	0.000213123	0	0	0	
0.2415	-0.0133367	-0.00768607	0.000176359	0.000230277	0	0	0	
0.241667	0.000137945	0.0110146	0.000291976	0.000238378	0	0	0	
0.241833	0.0118231	-0.0148804	0.000391643	0.000236627	0	0	0	
0.242	-0.0112661	0.0138425	0.000353908	0.000281665	0	0	0	
0.242167	-0.00242642	-0.00720326	0.000301384	0.000324405	0	0	0	
0.242333	0.00855933	0.00763261	0.000223841	0.000323308	0	0	0	
0.2425	-0.00392589	-0.00749914	0.000202054	0.000277561	0	0	0	
0.242667	0.00570176	0.00664562	0.000134238	0.000256121	0	0	0	
0.242833	-0.0128216	-0.00568638	0.000122469	0.000251892	0	0	0	
0.243	0.00634285	0.00922105	0.000173682	0.000247564	0	0	0	
0.243167	0.00618228	-0.00867679	0.000266394	0.000228663	0	0	0	
0.243333	-0.0108507	0.00876153	0.000277156	0.000235002	0	0	0	
0.2435	0.000943994	-0.00865484	0.000246228	0.000255575	0	0	0	
0.243667	0.0124466	0.0109239	0.000184758	0.0002777	0	0	0	
0.243833	-0.0115813	-0.0114352	0.000192767	0.000277061	0	0	0	
0.244	0.00139763	0.0120485	0.000263626	0.000285016	0	0	0	
0.244167	0.00474087	-0.00761872	0.000312181	0.000288741	0	0	0	
0.244333	-0.00302588	0.00653887	0.000274482	0.000285577	0	0	0	
0.2445	-0.00284843	-0.00922982	0.000158587	0.00026109	0	0	0	
0.244667	0.00548561	0.0121292	8.28786E-05	0.000255421	0	0	0	
0.244833	-0.00268613	-0.0107179	7.17916E-05	0.000255718	0	0	0	
0.245	0.00872846	0.00947083	9.99464E-05	0.00026431	0	0	0	
0.245167	-0.0156859	-0.00874571	0.000143487	0.00027084	0	0	0	
0.245333	0.0123667	0.00682824	0.000223756	0.000283933	0	0	0	
0.2455	-0.00517837	-0.00590154	0.000292394	0.000287007	0	0	0	
0.245667	0.000373878	0.00837116	0.000284066	0.000260059	0	0	0	
0.245833	0.000362536	-0.0134342	0.000189102	0.000228558	0	0	0	
0.246	0.00477947	0.0171417	0.000105522	0.000247245	0	0	0	
0.246167	-0.00832348	-0.0131431	0.000109258	0.000317307	0	0	0	
0.246333	0.0240608	0.00668146	0.000247339	0.000395336	0	0	0	
0.2465	-0.0476984	-0.00688754	0.000450538	0.000374654	0	0	0	
0.246667	0.087496	0.0289433	0.000757237	0.000341314	0	0	0	
0.246833	-0.296559	-0.124264	0.0025388	0.000843689	0	0	0	
0.247	0.00543711	0.0319207	0.00341198	0.00118397	0	0	0	
0.247167	-0.00459994	0.00224302	0.00315443	0.0011793	0	0	0	
0.247333	0.0307792	-0.00496758	0.00144858	0.000766401	0	0	0	
0.2475	-0.0496325	0.0196224	0.00067296	0.000535736	0	0	0	
0.247667	0.0647204	-0.0195798	0.000975865	0.000651963	0	0	0	
0.247833	-0.166804	-0.00474755	0.00145491	0.000577774	0	0	0	
0.248	-0.13797	-0.0681971	0.00294198	0.00108748	0	0	0	
0.248167	-0.00832178	0.00513578	0.00283217	0.00113776	0	0	0	
0.248333	0.0660348	0.0406759	0.00237878	0.00115843	0	0	0	
0.2485	-0.0856904	-0.0302397	0.00104015	0.000673205	0	0	0	
0.248667	0.0954745	0.0116716	0.00137735	0.000722566	0	0	0	
0.248833	-0.0723123	0.0169507	0.00167172	0.000857166	0	0	0	
0.249	0.048753	-0.0043807	0.0016048	0.000870104	0	0	0	
0.249167	-0.0305788	0.00667049	0.00122581	0.000659687	0	0	0	
0.249333	0.0266259	-0.000722526	0.000910015	0.000379542	0	0	0	
0.2495	-0.0300629	-0.00763988	0.000751751	0.000178574	0	0	0	
0.249667	0.0476172	0.0111042	0.000768171	0.000142523	0	0	0	
0.249833	-0.0559269	-0.00860283	0.000850695	0.000220312	0	0	0	
0.25	0.0390104	0.00232255	0.000909832	0.000306514	0	0	0	
0.250167	-0.0200344	0.00722846	0.000884477	0.000327104	0	0	0	
0.250333	0.00667528	0.000935548	0.000781481	0.00023635	0	0	0	
0.2505	0.00137867	-0.0138262	0.000655951	0.000186039	0	0	0	
0.250667	-0.00863134	0.0232238	0.000539469	0.000207273	0	0	0	
0.250833	0.0107725	-0.0147633	0.000418704	0.000342745	0	0	0	
0.251	-0.00931308	0.0026242	0.000303464	0.000428779	0	0	0	
0.251167	-0.00896979	-0.00529278	0.000332247	0.000387911	0	0	0	
0.251333	0.0442514	0.016081	0.000506876	0.000307898	0	0	0	
0.2515	-0.055694	-0.00764685	0.000696967	0.000227894	0	0	0	
0.251667	0.0265856	0.000824414	0.000919303	0.000235638	0	0	0	
0.251833	0.0126384	-0.00305613	0.00117748	0.000207415	0	0	0	
0.252	-0.026753	0.00990315	0.00127153	0.000185373	0	0	0	
0.252167	0.0217053	-0.0113742	0.00103153	0.000175608	0	0	0	
0.252333	-0.00670976	0.00977661	0.000601908	0.000198642	0	0	0	
0.2525	-0.0111034	-0.00707526	0.000402164	0.00020959	0	0	0	
0.252667	0.0314154	0.0174559	0.000401092	0.000202514	0	0	0	
0.252833	-0.034731	-0.0213135	0.000524706	0.000268419	0	0	0	
0.253	0.015509	0.0111305	0.000610647	0.000361534	0	0	0	
0.253167	0.00599366	-0.00557952	0.000655738	0.000417715	0	0	0	
0.253333	-0.0124205	0.00538751	0.000545167	0.000332054	0	0	0	
0.2535	-0.00035291	-0.00946366	0.000346057	0.000222315	0	0	0	
0.253667	0.0152941	0.00838976	0.00019169	0.000165261	0	0	0	
0.253833	-0.0136997	-0.00970132	0.000195767	0.000197986	0	0	0	
0.254	0.00204273	0.00915123	0.000278979	0.000222162	0	0	0	
0.254167	-0.00492635	-0.0137802	0.000273823	0.000247461	0	0	0	
0.254333	0.0128897	0.0103229	0.000225633	0.000253621	0	0	0	
0.2545	-0.0063732	-0.00767346	0.000207442	0.000278658	0	0	0	
0.254667	-0.00289089	0.00648306	0.000276291	0.000273519	0	0	0	
0.254833	0.00249385	-0.0116105	0.000233678	0.000258315	0	0	0	
0.255	0.00437143	0.0125605	0.000171414	0.000244851	0	0	0	
0.255167	-0.00681459	-0.0148595	9.40173E-05	0.000249129	0	0	0	
0.255333	0.00942966	0.0144542	0.00012472	0.000264114	0	0	0	
0.2555	-0.00803109	-0.0150614	0.000151681	0.000289791	0	0	0	
0.255667	-0.0011693	0.0126441	0.000222287	0.000312259	0	0	0	
0.255833	0.00889565	-0.0116293	0.000243323	0.000312882	0	0	0	
0.256	1.71284E-05	0.00933893	0.000222177	0.000273444	0	0	0	
0.256167	-0.0115238	-0.00920284	0.000180044	0.00022689	0	0	0	
0.256333	0.0105187	0.00987609	0.000179628	0.00020848	0	0	0	
0.2565	-0.00322564	-0.0110876	0.000203163	0.000219152	0	0	0	
0.256667	0.002407	0.0111835	0.0001746	0.000238462	0	0	0	
0.256833	-0.00746514	-0.00966271	0.00014157	0.000235477	0	0	0	
0.257	0.00889426	0.00969621	0.000124187	0.000224722	0	0	0	
0.257167	-0.00455402	-0.0116862	0.000147926	0.000224167	0	0	0	
0.257333	0.000857133	0.013591	0.00016637	0.000243749	0	0	0	
0.2575	-0.00366225	-0.0116909	0.000131421	0.000260999	0	0	0	
0.257667	0.00815379	0.00947827	0.000111667	0.000263315	0	0	0	
0.257833	-0.00824255	-0.00707284	0.000117507	0.00024527	0	0	0	
0.258	0.00519119	0.00958789	0.000143815	0.000231154	0	0	0	
0.258167	-0.00374406	-0.00949895	0.000137705	0.000219945	0	0	0	
0.258333	0.00392752	0.00802998	0.000114169	0.000214017	0	0	0	
0.2585	-0.00296555	-0.010224	8.63488E-05	0.000195785	0	0	0	
0.258667	0.00346711	0.01489	8.91243E-05	0.000198868	0	0	0	
0.258833	-0.000929506	-0.0161705	6.93998E-05	0.000240184	0	0	0	
0.259	0.00293585	0.0133649	9.59264E-05	0.000309639	0	0	0	
0.259167	-0.0125668	-0.00915218	0.000116595	0.000330161	0	0	0	
0.259333	0.00933339	0.00917376	0.000175965	0.000300819	0	0	0	
0.2595	0.00745063	-0.0104367	0.000264715	0.000240173	0	0	0	
0.259667	-0.01222	0.0114787	0.000297064	0.000223451	0	0	0	
0.259833	0.00397524	-0.0134286	0.000277776	0.000227962	0	0	0	
0.26	0.00311455	0.014846	0.000190934	0.000265358	0	0	0	
0.260167	-0.00138522	-0.0122765	0.000141364	0.000276667	0	0	0	
0.260333	-0.00275684	0.00887419	0.000157617	0.00028464	0	0	0	
0.2605	-0.00045783	-0.00595353	0.000140231	0.000240884	0	0	0	
0.260667	0.00667851	0.00989064	0.00012904	0.000210743	0	0	0	
0.260833	-0.00651179	-0.0113935	0.000126625	0.000189516	0	0	0	
0.261	0.00170761	0.0116352	0.000162738	0.000217207	0	0	0	
0.261167	-0.00378673	-0.0106646	0.000162105	0.000231491	0	0	0	
0.261333	0.0102566	0.012826	0.000138521	0.000246627	0	0	0	
0.2615	-0.00870758	-0.0130941	0.000141336	0.000249216	0	0	0	
0.261667	0.00253273	0.0134772	0.000180361	0.000275884	0	0	0	
0.261833	-0.000212192	-0.0104717	0.000182986	0.000291537	0	0	0	
0.262	1.12786E-05	0.00821461	0.000122403	0.00029456	0	0	0	
0.262167	-0.0025533	-0.00546352	6.62412E-05	0.000258686	0	0	0	
0.262333	0.00550423	0.00928276	4.70385E-05	0.000218919	0	0	0	
0.2625	-0.00311533	-0.0134944	7.60553E-05	0.000195035	0	0	0	
0.262667	0.00488767	0.0163968	9.70552E-05	0.000224696	0	0	0	
0.262833	-0.00710267	-0.0153821	0.000106281	0.000267272	0	0	0	
0.263	0.00613708	0.0145828	0.000113301	0.00030691	0	0	0	
0.263167	-0.00678818	-0.0111512	0.000125687	0.000317156	0	0	0	
0.263333	0.00745472	0.00961416	0.000132375	0.000303462	0	0	0	
0.2635	-0.00371125	-0.00977607	0.000132777	0.00026867	0	0	0	
0.263667	-0.00085849	0.0124617	0.000110442	0.000246941	0	0	0	
0.263833	-0.00247693	-0.0121667	7.70147E-05	0.000241032	0	0	0	
0.264	0.0048385	0.0114254	5.64915E-05	0.000256846	0	0	0	
0.264167	-0.00215545	-0.0105698	6.76489E-05	0.000247889	0	0	0	
0.264333	-9.72151E-05	0.0131813	6.68424E-05	0.000241231	0	0	0	
0.2645	-0.0086816	-0.0152181	8.26314E-05	0.000251105	0	0	0	
0.264667	0.0138033	0.0149523	0.000116756	0.000285329	0	0	0	
0.264833	-0.0124838	-0.0159905	0.000195359	0.000303533	0	0	0	
0.265	0.0108168	0.0144836	0.000250475	0.000307171	0	0	0	
0.265167	-0.00970027	-0.00546686	0.00026837	0.00029726	0	0	0	
0.265333	0.00260542	0.000694385	0.000253339	0.000266157	0	0	0	
0.2655	0.00794305	-0.0175383	0.000222851	0.000256763	0	0	0	
0.265667	0.0303345	0.0649791	0.000304809	0.000541984	0	0	0	
0.265833	0.127899	-0.0445814	0.00110477	0.00114547	0	0	0	
0.266	-0.00996318	0.0268414	0.00158702	0.00144998	0	0	0	
0.266167	-0.0215767	0.00481757	0.00165697	0.00120158	0	0	0	
0.266333	0.0132426	-0.00181408	0.00091448	0.000583222	0	0	0	
0.2665	-0.00257846	-0.0106346	0.000469888	0.000227291	0	0	0	
0.266667	0.0263123	-0.00822202	0.000353043	0.000219315	0	0	0	
0.266833	-0.014396	-0.00934052	0.000459989	0.000212299	0	0	0	
0.267	0.01695	0.00582754	0.000540192	0.000240745	0	0	0	
0.267167	-0.017167	-0.00358452	0.000534877	0.000173436	0	0	0	
0.267333	0.0149055	0.00306553	0.000396811	0.000157702	0	0	0	
0.2675	-0.018023	-0.00574515	0.000331267	0.000116392	0	0	0	
0.267667	0.0215754	0.00746739	0.000336002	9.80988E-05	0	0	0	
0.267833	-0.0188697	-0.00972584	0.000362309	0.000124882	0	0	0	
0.268	0.0145839	0.0101444	0.000375704	0.000160363	0	0	0	
0.268167	-0.00522258	-0.0141555	0.000355043	0.000200026	0	0	0	
0.268333	0.00300028	0.00812357	0.000283698	0.000216299	0	0	0	
0.2685	-0.00601615	-0.00532231	0.000194819	0.000196179	0	0	0	
0.268667	0.00693133	0.00594356	0.00013211	0.000149629	0	0	0	
0.268833	-0.00851949	-0.00898226	0.00013091	0.000125102	0	0	0	
0.269	0.00306764	0.0106991	0.000145487	0.00015703	0	0	0	
0.269167	0.00142521	-0.0103338	0.000120366	0.000200552	0	0	0	
0.269333	0.00486433	0.00667169	0.000112155	0.000222374	0	0	0	
0.2695	-0.0128915	-0.00520943	0.000123915	0.000186634	0	0	0	
0.269667	0.0107571	0.00371087	0.000187781	0.000135194	0	0	0	
0.269833	0.00147897	-0.00530108	0.000265834	9.61117E-05	0	0	0	
0.27	-0.0121111	0.0146702	0.000264109	0.000121436	0	0	0	
0.270167	0.00162779	-0.017417	0.000274738	0.000190675	0	0	0	
0.270333	0.00146805	0.013845	0.000212685	0.00028493	0	0	0	
0.2705	0.00762687	-0.00563074	0.000225022	0.000321523	0	0	0	
0.270667	0.00022776	0.00132921	0.000156648	0.000269391	0	0	0	
0.270833	-0.0127302	-0.00538583	0.00015158	0.000174144	0	0	0	
0.271	0.00617745	0.0127755	0.000139533	0.000131673	0	0	0	
0.271167	-0.000965776	-0.0117898	0.000227217	0.00017309	0	0	0	
0.271333	0.00905779	0.0136187	0.00024985	0.000225708	0	0	0	
0.2715	-0.0107674	-0.0150815	0.000253159	0.000260798	0	0	0	
0.271667	0.00656162	0.00790489	0.000205043	0.000255317	0	0	0	
0.271833	-0.00240108	-0.00382085	0.000172457	0.000224305	0	0	0	
0.272	0.00636928	0.00595902	0.000132842	0.000159477	0	0	0	
0.272167	-0.0116435	-0.0111381	0.000129695	0.000143346	0	0	0	
0.272333	0.0102908	0.0150691	0.000184066	0.000169014	0	0	0	
0.2725	0.000607354	-0.0148973	0.000237393	0.000240953	0	0	0	
0.272667	-0.00281328	0.00909185	0.000225234	0.000262256	0	0	0	
0.272833	-0.00176278	-0.00536961	0.000136141	0.000232774	0	0	0	
0.273	0.00521504	0.00438089	8.69685E-05	0.000164178	0	0	0	
0.273167	-0.00807478	-0.00817174	8.42579E-05	0.000118712	0	0	0	
0.273333	0.0113774	0.0154412	0.000132125	0.000154514	0	0	0	
0.2735	-0.00882002	-0.0219105	0.000173422	0.000233174	0	0	0	
0.273667	0.0043119	0.0235204	0.000207056	0.000326804	0	0	0	
0.273833	-0.000285778	-0.013379	0.000195501	0.000377992	0	0	0	
0.274	-0.00128624	0.00385553	0.00013743	0.000365728	0	0	0	
0.274167	-0.00156165	-0.0031609	7.0536E-05	0.000284265	0	0	0	
0.274333	0.00351571	0.00459584	6.43177E-05	0.000197445	0	0	0	
0.2745	-0.0118902	-0.0140951	0.000125977	0.000182777	0	0	0	
0.274667	0.0239902	0.0193601	0.000220926	0.000263735	0	0	0	
0.274833	-0.0216554	-0.0164791	0.000339259	0.00034394	0	0	0	
0.275	0.00651083	0.0105703	0.000458851	0.00033734	0	0	0	
0.275167	0.00138043	-0.00738925	0.000532116	0.000259687	0	0	0	
0.275333	-0.0109741	0.00405249	0.000491163	0.000170689	0	0	0	
0.2755	0.0132274	-0.0115404	0.000393711	0.000140292	0	0	0	
0.275667	0.000597974	0.0155057	0.0002581	0.00017874	0	0	0	
0.275833	-0.0207123	-0.0180772	0.000274851	0.000232597	0	0	0	
0.276	0.0295822	0.0108465	0.00033786	0.000289626	0	0	0	
0.276167	-0.0208256	-0.00383155	0.00046494	0.000256235	0	0	0	
0.276333	0.00647117	0.00375681	0.00044884	0.000198811	0	0	0	
0.2765	-0.0041313	-0.00735187	0.000358152	0.000122718	0	0	0	
0.276667	0.00990717	0.0139911	0.000267728	0.000134996	0	0	0	
0.276833	-0.0103152	-0.0187085	0.000227047	0.000207262	0	0	0	
0.277	0.0151272	0.0156978	0.000223612	0.000305155	0	0	0	
0.277167	-0.00387074	-0.00641897	0.000235284	0.000291448	0	0	0	
0.277333	-0.00615496	0.00436122	0.000232746	0.000219281	0	0	0	
0.2775	-0.00149258	-0.00999163	0.000200575	0.000133701	0	0	0	
0.277667	0.0163195	0.0179545	0.000229881	0.000167453	0	0	0	
0.277833	-0.00574412	-0.0131965	0.000285594	0.000237924	0	0	0	
0.278	0.0164055	0.00665287	0.000338499	0.000284328	0	0	0	
0.278167	-0.022867	-0.00184189	0.000340034	0.000223905	0	0	0	
0.278333	0.0144328	0.0032399	0.000334386	0.000140479	0	0	0	
0.2785	-0.00317289	-0.00615303	0.000361739	8.34781E-05	0	0	0	
0.278667	-0.00468215	0.0119286	0.000283766	0.000110574	0	0	0	
0.278833	0.00786601	-0.0159859	0.000238675	0.000179044	0	0	0	
0.279	0.00734647	0.0164991	0.00018863	0.00025212	0	0	0	
0.279167	-0.0123095	-0.0100214	0.00021283	0.000283582	0	0	0	
0.279333	0.0125795	0.00338858	0.000205102	0.000247804	0	0	0	
0.2795	-0.000700155	0.000394619	0.000184924	0.000161932	0	0	0	
0.279667	-0.00483893	0.00538911	0.000145038	9.7718E-05	0	0	0	
0.279833	0.00916501	-0.0133407	0.000156619	0.000109607	0	0	0	
0.28	0.00447574	0.0132012	0.000149266	0.000179001	0	0	0	
0.280167	-0.00091244	-0.0100388	0.000150478	0.000231809	0	0	0	
0.280333	0.00219575	0.00528695	9.0666E-05	0.000215225	0	0	0	
0.2805	-0.00327182	-0.00184573	9.69218E-05	0.00014925	0	0	0	
0.280667	0.0107102	0.00485426	0.000106176	9.54743E-05	0	0	0	
0.280833	-0.00164527	-0.0113019	0.000159799	0.000108665	0	0	0	
0.281	0.00109961	0.012342	0.000209353	0.000170163	0	0	0	
0.281167	-0.00725836	-0.0103609	0.000222373	0.000221386	0	0	0	
0.281333	0.0167091	0.00474596	0.000221519	0.00020769	0	0	0	
0.2815	-0.0161961	-0.00461835	0.00024087	0.000158092	0	0	0	
0.281667	0.00948815	0.00644941	0.000304184	0.00011827	0	0	0	
0.281833	-0.0016193	-0.00755582	0.000277204	0.000111708	0	0	0	
0.282	-0.00117876	0.0129901	0.00019236	0.000149482	0	0	0	
0.282167	-0.0105202	-0.013595	0.000134459	0.000198588	0	0	0	
0.282333	0.00694765	0.0107193	0.00014303	0.000248239	0	0	0	
0.2825	-0.00215482	-0.00554181	0.00015683	0.000247775	0	0	0	
0.282667	0.00367394	0.00473504	0.000177251	0.000196756	0	0	0	
0.282833	-0.00747011	-0.0106428	0.000221261	0.000152509	0	0	0	
0.283	0.00310843	0.016474	0.000223403	0.000172819	0	0	0	
0.283167	-0.000144372	-0.0153729	0.000181042	0.000241149	0	0	0	
0.283333	-0.00445734	0.0121416	9.76424E-05	0.000284772	0	0	0	
0.2835	-0.00309244	-0.0101519	0.000101181	0.000270116	0	0	0	
0.283667	0.00504394	0.00604544	0.000103337	0.000212628	0	0	0	
0.283833	-0.000757051	-0.00547818	9.90439E-05	0.000159578	0	0	0	
0.284	-2.51628E-05	0.0101945	7.15438E-05	0.000138137	0	0	0	
0.284167	-0.00273256	-0.0156239	5.7028E-05	0.000174551	0	0	0	
0.284333	0.00794867	0.0147323	8.83974E-05	0.000232603	0	0	0	
0.2845	-0.0104659	-0.0109202	0.000140359	0.000263965	0	0	0	
0.284667	0.0118894	0.00597903	0.000199455	0.0002369	0	0	0	
0.284833	-0.0109696	-0.00578934	0.000222841	0.000180856	0	0	0	
0.285	0.00781125	0.00733292	0.000211287	0.000134074	0	0	0	
0.285167	0.00049961	-0.0101432	0.000183103	0.000138414	0	0	0	
0.285333	-0.00606314	0.0112545	0.000146015	0.000168783	0	0	0	
0.2855	0.00346545	-0.0126575	0.000123909	0.000200493	0	0	0	
0.285667	0.00493279	0.0124067	0.000152421	0.000224057	0	0	0	
0.285833	-0.00645003	-0.00694321	0.000200301	0.000214449	0	0	0	
0.286	0.00929153	0.00500204	0.000221057	0.000178625	0	0	0	
0.286167	-0.010823	-0.00728898	0.000198284	0.000135518	0	0	0	
0.286333	0.00618124	0.0126788	0.000189784	0.000136773	0	0	0	
0.2865	0.00414201	-0.01336	0.000207712	0.000186244	0	0	0	
0.286667	-0.00724712	0.0112545	0.000181071	0.000227565	0	0	0	
0.286833	0.00133117	-0.00665147	0.000172677	0.000224693	0	0	0	
0.287	0.0113858	0.0063749	0.000193619	0.000178843	0	0	0	
0.287167	-0.0144024	-0.0075527	0.000263702	0.000141526	0	0	0	
0.287333	0.00928343	0.0102175	0.000273119	0.000143409	0	0	0	
0.2875	0.00608088	-0.0107984	0.000216817	0.000172675	0	0	0	
0.287667	-0.00675286	0.0168506	0.000165166	0.000219517	0	0	0	
0.287833	0.000747271	-0.0180809	0.000114011	0.000273348	0	0	0	
0.288	0.001311	0.00912008	7.89848E-05	0.000286102	0	0	0	
0.288167	0.00544088	-0.00457803	5.68713E-05	0.000238887	0	0	0	
0.288333	-0.00552372	0.00320345	7.5344E-05	0.000152063	0	0	0	
0.2885	0.00101346	-0.00999016	9.94075E-05	0.000110871	0	0	0	
0.288667	-0.000199037	0.0145163	0.000104005	0.000155882	0	0	0	
0.288833	-0.00838335	-0.0127288	0.000107895	0.000222075	0	0	0	
0.289	0.011996	0.0058131	0.000143515	0.000245272	0	0	0	
0.289167	-0.00512585	-0.00595239	0.000197703	0.000192348	0	0	0	
0.289333	-0.00206495	0.00698005	0.000214272	0.000140861	0	0	0	
0.2895	6.98094E-05	-0.0126967	0.000161076	0.000140346	0	0	0	
0.289667	-0.0225324	0.0125912	0.000149554	0.000191716	0	0	0	
0.289833	0.0137225	-0.0106332	0.000214852	0.000220714	0	0	0	
0.29	0.00460989	0.00701055	0.000300405	0.000216558	0	0	0	
0.290167	-0.0154587	-0.00476222	0.00031514	0.00016474	0	0	0	
0.290333	0.0106367	0.00344581	0.000277285	0.000119109	0	0	0	
0.2905	0.00419728	-0.005736	0.000310163	9.1998E-05	0	0	0	
0.290667	-0.0204933	0.00916868	0.000315985	0.000111334	0	0	0	
0.290833	0.00792695	-0.0123514	0.00036008	0.000162644	0	0	0	
0.291	0.00516639	0.0128079	0.00025678	0.000213391	0	0	0	
0.291167	-0.00715864	-0.00775298	0.000205595	0.00022446	0	0	0	
0.291333	0.00642656	0.00463308	0.000118596	0.0001874	0	0	0	
0.2915	-0.00403747	-0.00573626	0.000118467	0.000137193	0	0	0	
0.291667	0.00292402	0.00908295	0.000104842	0.000119579	0	0	0	
0.291833	-0.00238902	-0.00963409	9.27049E-05	0.000138467	0	0	0	
0.292	0.00242157	0.00825267	9.21866E-05	0.000167307	0	0	0	
0.292167	-0.0053243	-0.00632134	9.59065E-05	0.000170733	0	0	0	
0.292333	0.00859585	0.00472977	0.000112356	0.00015431	0	0	0	
0.2925	-0.00869301	-0.00608531	0.000141665	0.000130122	0	0	0	
0.292667	-7.49703E-05	0.0102122	0.000163096	0.00013139	0	0	0	
0.292833	0.00546934	-0.0128989	0.000136664	0.000159699	0	0	0	
0.293	-0.0011292	0.0114575	0.000125594	0.000211766	0	0	0	
0.293167	-0.00526173	-0.0104399	0.000115628	0.000227486	0	0	0	
0.293333	0.00570062	0.00559301	0.000127224	0.000213864	0	0	0	
0.2935	-0.00778024	-0.00464561	0.0001325	0.0001614	0	0	0	
0.293667	0.00332719	0.00361867	0.000130997	0.000123512	0	0	0	
0.293833	-0.00320973	0.000317886	0.000131977	7.65591E-05	0	0	0	
0.294	0.0200872	0.00282976	0.000151344	8.29836E-05	0	0	0	
0.294167	-0.0436865	-0.0104354	0.000368368	0.000174343	0	0	0	
0.294333	0.0577447	0.014313	0.000659441	0.000298077	0	0	0	
0.2945	-0.056202	-0.0100438	0.000926194	0.000327702	0	0	0	
0.294667	0.0345701	0.00873652	0.000978508	0.000259319	0	0	0	
0.294833	-0.0126539	-0.00880928	0.000887119	0.000182066	0	0	0	
0.295	0.000216138	0.00895326	0.000624137	0.000188523	0	0	0	
0.295167	-0.00730275	0.00123976	0.000462648	0.000154768	0	0	0	
0.295333	0.0194891	0.00121693	0.000497379	0.000140449	0	0	0	
0.2955	-0.0304626	-0.00883865	0.000672898	0.000164544	0	0	0	
0.295667	0.0273346	0.0124158	0.000728086	0.000237422	0	0	0	
0.295833	-0.0183224	-0.00789116	0.000588226	0.00025954	0	0	0	
0.296	0.00331472	0.00411586	0.000427923	0.000200453	0	0	0	
0.296167	-9.71097E-05	-0.00557985	0.000259394	0.000166889	0	0	0	
0.296333	0.00731565	0.00979467	0.00020764	0.000179572	0	0	0	
0.2965	-0.019919	-0.00852236	0.000254453	0.000214845	0	0	0	
0.296667	0.0228386	0.0045949	0.000351429	0.00020533	0	0	0	
0.296833	-0.0207892	-0.00541262	0.000403536	0.000161799	0	0	0	
0.297	0.00854838	0.00491389	0.000407933	0.000122474	0	0	0	
0.297167	0.0001781	-0.00590346	0.000382783	0.000108339	0	0	0	
0.297333	-0.00261154	0.00846801	0.000284527	0.000138053	0	0	0	
0.2975	-0.0016554	-0.0121518	0.000174153	0.000176957	0	0	0	
0.297667	0.00814615	0.0112039	0.000128425	0.000229102	0	0	0	
0.297833	-0.0158898	-0.00796762	0.000192248	0.000220143	0	0	0	
0.298	0.0183915	0.0053731	0.00027572	0.000185242	0	0	0	
0.298167	-0.0103091	-0.00856845	0.000293178	0.000146325	0	0	0	
0.298333	0.000156596	0.0127911	0.0002962	0.000167297	0	0	0	
0.2985	0.00667851	-0.0134004	0.000282661	0.000206535	0	0	0	
0.298667	-0.00978059	0.0122061	0.000256792	0.000239255	0	0	0	
0.298833	0.00889084	-0.00629428	0.000216125	0.000222893	0	0	0	
0.299	-0.00546853	0.00398469	0.000202152	0.000180464	0	0	0	
0.299167	0.0002725	-0.00955822	0.000236187	0.000145887	0	0	0	
0.299333	0.00777282	0.0149	0.000238229	0.000170828	0	0	0	
0.2995	-0.00669897	-0.0144943	0.000201652	0.000234627	0	0	0	
0.299667	-0.00263983	0.0127823	0.000169466	0.0002825	0	0	0	
0.299833	0.00771357	-0.00937589	0.00013575	0.000287465	0	0	0	
0.3	-0.00252511	0.00682045	0.000159355	0.000238571	0	0	0	
0.300167	-0.00813085	-0.00489123	0.000214811	0.000179107	0	0	0	
0.300333	0.012043	0.00895552	0.000295566	0.000148002	0	0	0	
0.3005	-0.010263	-0.0166621	0.000316855	0.000186925	0	0	0	
0.300667	0.005947	0.0140183	0.000249042	0.0002443	0	0	0	
0.300833	-0.00347802	-0.00633103	0.000167169	0.000260688	0	0	0	
0.301	-0.00281395	0.00118882	8.81474E-05	0.000193311	0	0	0	
0.301167	0.00739974	-0.00398756	7.52428E-05	0.000138143	0	0	0	
0.301333	-0.00780304	0.00818143	0.000128603	0.000105308	0	0	0	
0.3015	0.00266624	-0.0118379	0.00022606	0.000149917	0	0	0	
0.301667	-0.00201862	0.0136625	0.000279441	0.000206372	0	0	0	
0.301833	-0.000570975	-0.0150233	0.000227523	0.000267722	0	0	0	
0.302	8.25878E-05	0.0100339	0.000149581	0.000267106	0	0	0	
0.302167	0.000171919	-0.003424	0.000108674	0.000217408	0	0	0	
0.302333	-2.49742E-05	0.00288048	9.15615E-05	0.000136706	0	0	0	
0.3025	0.00344654	-0.00761951	9.12288E-05	0.000111721	0	0	0	
0.302667	-0.00361777	0.01083	6.84418E-05	0.000138656	0	0	0	
0.302833	-0.00100896	-0.0120337	0.000120549	0.00019811	0	0	0	
0.303	0.0120459	0.0120508	0.000188944	0.000231195	0	0	0	
0.303167	-0.0150314	-0.00893046	0.00025526	0.000222869	0	0	0	
0.303333	0.00991639	0.00509034	0.00027693	0.000180264	0	0	0	
0.3035	-0.00517281	-0.00289576	0.000272476	0.0001314	0	0	0	
0.303667	0.00347718	0.00597425	0.000255579	0.00010663	0	0	0	
0.303833	0.00844368	-0.0122492	0.00021247	0.000142058	0	0	0	
0.304	-0.00285223	0.0148093	0.000143212	0.000205581	0	0	0	
0.304167	-0.00376836	-0.0126043	0.000125797	0.000256182	0	0	0	
0.304333	0.00441029	0.00577989	0.000142297	0.00024071	0	0	0	
0.3045	-0.0074623	-0.00528577	0.00015557	0.000189103	0	0	0	
0.304667	0.0068561	0.0115604	0.000157076	0.000155906	0	0	0	
0.304833	-0.00408278	-0.0166162	0.000138248	0.000186674	0	0	0	
0.305	0.0141657	0.0122766	0.000164485	0.000239282	0	0	0	
0.305167	-0.0162345	-0.0077498	0.000203991	0.000249175	0	0	0	
0.305333	0.0110871	0.00429232	0.000257779	0.000204474	0	0	0	
0.3055	-0.000937885	-0.00622002	0.000295371	0.00015295	0	0	0	
0.305667	-0.00596459	0.00905468	0.000268232	0.000142001	0	0	0	
0.305833	-0.000615129	-0.0139252	0.000190374	0.000187246	0	0	0	
0.306	0.0154235	0.0153425	0.000148564	0.000256262	0	0	0	
0.306167	-0.0174433	-0.0157618	0.000190415	0.000300213	0	0	0	
0.306333	0.0162473	0.0122261	0.000278596	0.000305997	0	0	0	
0.3065	-0.00811758	-0.0053619	0.000293186	0.000247283	0	0	0	
0.306667	0.00402608	0.00264205	0.000233167	0.000179638	0	0	0	
0.306833	-0.0058614	-0.00663003	0.000202485	0.000130232	0	0	0	
0.307	0.010108	0.0106089	0.000214737	0.000147641	0	0	0	
0.307167	-0.00408392	-0.00984605	0.000247039	0.000193996	0	0	0	
0.307333	0.00482194	0.00855918	0.000237719	0.000231786	0	0	0	
0.3075	-0.00610752	-0.00440454	0.000199951	0.000230795	0	0	0	
0.307667	-0.000866999	0.00621258	0.000140379	0.000200713	0	0	0	
0.307833	0.0114453	-0.00829073	0.000119433	0.000166275	0	0	0	
0.308	-0.0100211	0.0123452	0.000135316	0.000167987	0	0	0	
0.308167	0.000807684	-0.0121806	0.000220583	0.000210782	0	0	0	
0.308333	0.00578538	0.0120918	0.000249145	0.000249822	0	0	0	
0.3085	1.78488E-05	-0.00945656	0.000192216	0.000247315	0	0	0	
0.308667	-0.00468046	0.00548305	9.34798E-05	0.000201919	0	0	0	
0.308833	-0.00175129	-0.00401903	0.000112207	0.000144765	0	0	0	
0.309	0.0130677	0.00614828	0.00020477	0.000109317	0	0	0	
0.309167	-0.0114901	-0.0100633	0.000262699	0.000124489	0	0	0	
0.309333	-0.00446236	0.0092181	0.000237737	0.000170886	0	0	0	
0.3095	0.0103529	-0.00977532	0.000178023	0.00021088	0	0	0	
0.309667	-0.00507787	0.00555613	0.000184867	0.000220107	0	0	0	
0.309833	0.000767815	-0.00542521	0.000198241	0.000185296	0	0	0	
0.31	-0.000223511	0.00559165	0.000207003	0.000152567	0	0	0	
0.310167	-0.00549432	-0.00862369	0.000208084	0.000149572	0	0	0	
0.310333	0.00842256	0.011598	0.000224217	0.000198338	0	0	0	
0.3105	-0.00915206	-0.0128335	0.000225556	0.000244998	0	0	0	
0.310667	-0.000434359	0.00914668	0.00018718	0.000260412	0	0	0	
0.310833	0.00494814	-0.00656015	0.000111618	0.000220772	0	0	0	
0.311	0.00326466	0.00571244	0.000128169	0.000174172	0	0	0	
0.311167	-0.0125119	-0.00433101	0.000188582	0.00012409	0	0	0	
0.311333	0.00618561	0.00493768	0.000222262	0.000106036	0	0	0	
0.3115	0.00769136	-0.00867123	0.000204908	0.000121	0	0	0	
0.311667	-0.0080733	0.0122718	0.000163527	0.000178872	0	0	0	
0.311833	-0.00578114	-0.00768564	0.000259338	0.000226414	0	0	0	
0.312	0.0161789	0.00465223	0.000342153	0.000212993	0	0	0	
0.312167	-0.0141402	-0.00893841	0.00037518	0.000171172	0	0	0	
0.312333	0.00531699	0.0185561	0.000289901	0.000179377	0	0	0	
0.3125	-0.00395064	-0.0197998	0.000178257	0.00025673	0	0	0	
0.312667	0.00592021	0.0116241	0.000130233	0.000316399	0	0	0	
0.312833	0.000173917	-0.00164158	9.15278E-05	0.000282072	0	0	0	
0.313	-0.00640429	-9.70387E-05	8.83357E-05	0.000185631	0	0	0	
0.313167	-0.00251126	-0.00535391	0.000138145	0.000130973	0	0	0	
0.313333	0.0172786	0.0138031	0.00026083	0.000158888	0	0	0	
0.3135	-0.0215856	-0.0182589	0.000363837	0.000259502	0	0	0	
0.313667	0.0059826	0.0181208	0.000393988	0.000338937	0	0	0	
0.313833	-0.0051596	-0.0150448	0.000310843	0.000367406	0	0	0	
0.314	0.0101733	0.00885995	0.000269758	0.000318345	0	0	0	
0.314167	-0.0091635	-0.00582268	0.000215754	0.000229244	0	0	0	
0.314333	-0.00158271	0.00664954	0.000185775	0.000162081	0	0	0	
0.3145	0.00905922	-0.0144427	0.000141107	0.000160288	0	0	0	
0.314667	-0.0116886	0.0135752	0.000215584	0.00021265	0	0	0	
0.314833	-0.00490455	-0.0126995	0.000289232	0.00025565	0	0	0	
0.315	0.000885118	0.00780191	0.000267906	0.000252656	0	0	0	
0.315167	0.00770424	-0.0044789	0.000150937	0.00019731	0	0	0	
0.315333	0.000891566	0.00974439	0.000157426	0.000175308	0	0	0	
0.3155	-0.0187539	-0.0109536	0.00028787	0.000163857	0	0	0	
0.315667	-0.0180725	-0.0317296	0.000402667	0.00033866	0	0	0	
0.315833	-0.13847	0.0138527	0.00114021	0.00101594	0	0	0	
0.316	0.0213178	-0.00129681	0.00155092	0.00116656	0	0	0	
0.316167	0.0161524	-0.0239576	0.00164213	0.00106208	0	0	0	
0.316333	-0.0217702	0.0191471	0.000947844	0.000455012	0	0	0	
0.3165	0.0120878	-0.0054161	0.000522542	0.000323768	0	0	0	
0.316667	-0.0194445	0.0256773	0.000389417	0.000332045	0	0	0	
0.316833	0.00536955	-0.0179799	0.000371364	0.000376069	0	0	0	
0.317	-0.0082203	0.0264172	0.000438489	0.000474277	0	0	0	
0.317167	0.0174076	-0.023208	0.000542416	0.000502984	0	0	0	
0.317333	-0.01504	0.0113353	0.0005376	0.000429537	0	0	0	
0.3175	0.0112641	-0.00517885	0.000417369	0.000318848	0	0	0	
0.317667	-0.0096781	0.0068614	0.000274373	0.000245313	0	0	0	
0.317833	0.00682215	-0.0106489	0.000202676	0.000234464	0	0	0	
0.318	0.00389518	0.0137689	0.000221372	0.000270565	0	0	0	
0.318167	-0.0118951	-0.0126631	0.000229126	0.000295817	0	0	0	
0.318333	0.00513981	0.00978255	0.000229942	0.000284861	0	0	0	
0.3185	0.00999912	-0.00828395	0.000211552	0.000254814	0	0	0	
0.318667	-0.0131392	0.00634736	0.000207296	0.000230851	0	0	0	
0.318833	0.0021641	-0.00905864	0.000241225	0.000237866	0	0	0	
0.319	0.0083211	0.0117283	0.000247385	0.000269087	0	0	0	
0.319167	-0.00927111	-0.0112757	0.000248922	0.000285721	0	0	0	
0.319333	0.00627789	0.0101217	0.000198425	0.00027276	0	0	0	
0.3195	-0.0011772	-0.00865017	0.000135566	0.000244725	0	0	0	
0.319667	-0.002904	0.00858017	8.11901E-05	0.000234276	0	0	0	
0.319833	0.00258427	-0.0113404	7.44094E-05	0.000248184	0	0	0	
0.32	0.00547577	0.0109889	0.000150114	0.000262552	0	0	0	
0.320167	-0.0129608	-0.0106823	0.000241408	0.000258606	0	0	0	
0.320333	0.010785	0.00831438	0.000276088	0.000235767	0	0	0	
0.3205	-0.00659507	-0.0060521	0.00022923	0.000207677	0	0	0	
