0	0.0209375	0.0002631	2.09375E-06	2.631E-08	0	0	0	
0.000166667	-0.131601	-0.0018643	0.000505502	7.36854E-06	0	0	0	
0.000333333	0.207571	0.00298897	0.00158951	2.30735E-05	0	0	0	
0.0005	-0.211178	-0.00307566	0.00292249	4.20875E-05	0	0	0	
0.000666667	0.192126	0.00280789	0.00376665	5.41181E-05	0	0	0	
0.000833333	-0.178042	-0.00246578	0.00394459	5.62401E-05	0	0	0	
0.001	0.1674	0.00221472	0.00379314	5.33927E-05	0	0	0	
0.00116667	-0.19225	-0.00251159	0.00362998	4.94346E-05	0	0	0	
0.00133333	0.25858	0.00351959	0.0039214	5.28017E-05	0	0	0	
0.0015	-0.305513	-0.00415363	0.00463161	6.29733E-05	0	0	0	
0.00166667	0.324894	0.0044417	0.00550584	7.61027E-05	0	0	0	
0.00183333	-0.318599	-0.00445651	0.00602108	8.4013E-05	0	0	0	
0.002	0.313825	0.00445831	0.0061698	8.66006E-05	0	0	0	
0.00216667	-0.320376	-0.00441329	0.00616488	8.68692E-05	0	0	0	
0.00233333	0.331989	0.00453832	0.0061931	8.65017E-05	0	0	0	
0.0025	-0.333782	-0.00457351	0.00626743	8.66583E-05	0	0	0	
0.00266667	0.326437	0.00448571	0.00631787	8.69644E-05	0	0	0	
0.00283333	-0.320504	-0.00438404	0.00628438	8.65853E-05	0	0	0	
0.003	0.322418	0.00451109	0.00622498	8.61129E-05	0	0	0	
0.00316667	-0.32465	-0.00458826	0.00618632	8.63492E-05	0	0	0	
0.00333333	0.323666	0.00459206	0.00619139	8.74676E-05	0	0	0	
0.0035	-0.320428	-0.00448098	0.0061854	8.78773E-05	0	0	0	
0.00366667	0.319341	0.00445927	0.00616609	8.71215E-05	0	0	0	
0.00383333	-0.319949	-0.00436802	0.00613996	8.60967E-05	0	0	0	
0.004	0.322365	0.00441725	0.00613861	8.53589E-05	0	0	0	
0.00416667	-0.322069	-0.00440858	0.0061458	8.53561E-05	0	0	0	
0.00433333	0.32209	0.00449501	0.00615731	8.51283E-05	0	0	0	
0.0045	-0.320948	-0.00457467	0.00615398	8.59054E-05	0	0	0	
0.00466667	0.32132	0.00462058	0.00615219	8.67939E-05	0	0	0	
0.00483333	-0.320161	-0.00464377	0.00614017	8.82163E-05	0	0	0	
0.005	0.319569	0.00463219	0.00613351	8.87595E-05	0	0	0	
0.00516667	-0.319482	-0.00447431	0.00611695	8.83212E-05	0	0	0	
0.00533333	0.321773	0.00444906	0.00611905	8.69634E-05	0	0	0	
0.0055	-0.322321	-0.0045303	0.00613069	8.59511E-05	0	0	0	
0.00566667	0.323037	0.00453339	0.0061535	8.60116E-05	0	0	0	
0.00583333	-0.321966	-0.00452877	0.00615977	8.67111E-05	0	0	0	
0.006	0.322376	0.00449763	0.00616011	8.69587E-05	0	0	0	
0.00616667	-0.321415	-0.00445515	0.00614983	8.63785E-05	0	0	0	
0.00633333	0.322976	0.00453733	0.00615157	8.6084E-05	0	0	0	
0.0065	-0.322452	-0.00454698	0.00615386	8.62766E-05	0	0	0	
0.00666667	0.322109	0.00459516	0.0061591	8.69154E-05	0	0	0	
0.00683333	-0.321062	-0.00461769	0.00615158	8.74946E-05	0	0	0	
0.007	0.322153	0.00463459	0.00614528	8.81477E-05	0	0	0	
0.00716667	-0.322162	-0.00457102	0.00614245	8.8369E-05	0	0	0	
0.00733333	0.323483	0.00455029	0.00615309	8.79786E-05	0	0	0	
0.0075	-0.32408	-0.0045276	0.00616355	8.72939E-05	0	0	0	
0.00766667	0.323718	0.00455552	0.00617554	8.68901E-05	0	0	0	
0.00783333	-0.322006	-0.0046423	0.00617264	8.74445E-05	0	0	0	
0.008	0.322368	0.00468614	0.00616598	8.81463E-05	0	0	0	
0.00816667	-0.322142	-0.00453604	0.00615318	8.86353E-05	0	0	0	
0.00833333	0.322984	0.00443836	0.00615257	8.76532E-05	0	0	0	
0.0085	-0.322125	-0.0045057	0.00615056	8.66774E-05	0	0	0	
0.00866667	0.321568	0.0045458	0.00615468	8.59345E-05	0	0	0	
0.00883333	-0.320764	-0.00459944	0.00614394	8.65244E-05	0	0	0	
0.009	0.322168	0.0045749	0.0061393	8.69616E-05	0	0	0	
0.00916667	-0.321465	-0.00455244	0.0061327	8.74783E-05	0	0	0	
0.00933333	0.321838	0.00447206	0.00613781	8.69456E-05	0	0	0	
0.0095	-0.322137	-0.00446831	0.00614038	8.62854E-05	0	0	0	
0.00966667	0.323244	0.00440188	0.00614937	8.53643E-05	0	0	0	
0.00983333	-0.322339	-0.00450525	0.00615471	8.5028E-05	0	0	0	
0.01	0.323367	0.00456726	0.00616095	8.5458E-05	0	0	0	
0.0101667	-0.321838	-0.00456133	0.00615924	8.60853E-05	0	0	0	
0.0103333	0.321304	0.00441705	0.00615699	8.6479E-05	0	0	0	
0.0105	-0.321362	-0.0044189	0.00614743	8.56647E-05	0	0	0	
0.0106667	0.322996	0.00442868	0.00614686	8.48971E-05	0	0	0	
0.0108333	-0.323139	-0.00449464	0.00615059	8.45488E-05	0	0	0	
0.011	0.323309	0.00456107	0.00616634	8.53049E-05	0	0	0	
0.0111667	-0.322453	-0.00455712	0.00617103	8.58863E-05	0	0	0	
0.0113333	0.322432	0.00453004	0.00617356	8.65848E-05	0	0	0	
0.0115	-0.322108	-0.00447564	0.00616279	8.63656E-05	0	0	0	
0.0116667	0.322568	0.00450843	0.00616062	8.64039E-05	0	0	0	
0.0118333	-0.321504	-0.00450296	0.00615483	8.60483E-05	0	0	0	
0.012	0.323025	0.00456461	0.00616215	8.6284E-05	0	0	0	
0.0121667	-0.321976	-0.00459764	0.00616137	8.65061E-05	0	0	0	
0.0123333	0.322025	0.00460267	0.00616777	8.71412E-05	0	0	0	
0.0125	-0.320333	-0.00449609	0.00615491	8.73815E-05	0	0	0	
0.0126667	0.321336	0.00440975	0.00614963	8.66893E-05	0	0	0	
0.0128333	-0.320442	-0.00443402	0.00613765	8.56789E-05	0	0	0	
0.013	0.321478	0.00454684	0.00614387	8.50751E-05	0	0	0	
0.0131667	-0.320573	-0.00459624	0.00614309	8.59189E-05	0	0	0	
0.0133333	0.321838	0.00461657	0.00615047	8.71064E-05	0	0	0	
0.0135	-0.320796	-0.00459451	0.00614974	8.78403E-05	0	0	0	
0.0136667	0.322097	0.00448397	0.00615562	8.75648E-05	0	0	0	
0.0138333	-0.320413	-0.00445487	0.00615612	8.66689E-05	0	0	0	
0.014	0.321219	0.0045411	0.00616038	8.62563E-05	0	0	0	
0.0141667	-0.320237	-0.00453294	0.0061567	8.63162E-05	0	0	0	
0.0143333	0.321042	0.00458567	0.00615563	8.68632E-05	0	0	0	
0.0145	-0.320428	-0.00450992	0.00615183	8.67045E-05	0	0	0	
0.0146667	0.322078	0.0044367	0.00615875	8.63187E-05	0	0	0	
0.0148333	-0.320689	-0.00451414	0.00616402	8.59008E-05	0	0	0	
0.015	0.320248	0.00456606	0.00616826	8.6224E-05	0	0	0	
0.0151667	-0.318687	-0.00448968	0.00615628	8.64638E-05	0	0	0	
0.0153333	0.32153	0.00456712	0.00615062	8.66102E-05	0	0	0	
0.0155	-0.323952	-0.00457045	0.00616001	8.6673E-05	0	0	0	
0.0156667	0.325004	0.00458493	0.00619302	8.71305E-05	0	0	0	
0.0158333	-0.319475	-0.00444219	0.00620964	8.69665E-05	0	0	0	
0.016	0.315745	0.00430356	0.00619171	8.58747E-05	0	0	0	
0.0161667	-0.312704	-0.00430421	0.00613229	8.42197E-05	0	0	0	
0.0163333	0.316658	0.00445368	0.00608767	8.36138E-05	0	0	0	
0.0165	-0.319319	-0.004407	0.0060808	8.40856E-05	0	0	0	
0.0166667	0.32284	0.00445472	0.00612377	8.45768E-05	0	0	0	
0.0168333	-0.32282	-0.00454867	0.00616923	8.54093E-05	0	0	0	
0.017	0.322535	0.00454381	0.00620514	8.60521E-05	0	0	0	
0.0171667	-0.316969	-0.00444485	0.00620317	8.67118E-05	0	0	0	
0.0173333	0.315716	0.00450543	0.00617516	8.63431E-05	0	0	0	
0.0175	-0.316095	-0.00459553	0.00613998	8.65229E-05	0	0	0	
0.0176667	0.319311	0.00453838	0.00612881	8.6919E-05	0	0	0	
0.0178333	-0.317667	-0.00447898	0.00613953	8.74466E-05	0	0	0	
0.018	0.317539	0.00450195	0.0061512	8.69404E-05	0	0	0	
0.0181667	-0.316162	-0.00454807	0.00614772	8.67461E-05	0	0	0	
0.0183333	0.318721	0.00455169	0.00614568	8.68713E-05	0	0	0	
0.0185	-0.31982	-0.00447128	0.00615514	8.69564E-05	0	0	0	
0.0186667	0.319641	0.00442535	0.0061782	8.65029E-05	0	0	0	
0.0188333	-0.31692	-0.00441164	0.00618752	8.55267E-05	0	0	0	
0.019	0.31759	0.00443455	0.00618137	8.51433E-05	0	0	0	
0.0191667	-0.316322	-0.00451509	0.006164	8.53875E-05	0	0	0	
0.0193333	0.317032	0.00459034	0.00615621	8.63917E-05	0	0	0	
0.0195	-0.316132	-0.00449914	0.00615267	8.68884E-05	0	0	0	
0.0196667	0.317367	0.00453855	0.00615723	8.69716E-05	0	0	0	
0.0198333	-0.316096	-0.00449847	0.00615733	8.71416E-05	0	0	0	
0.02	0.317042	0.00454735	0.00616265	8.74627E-05	0	0	0	
0.0201667	-0.314385	-0.00454736	0.00615581	8.75936E-05	0	0	0	
0.0203333	0.31445	0.00458917	0.00614842	8.77734E-05	0	0	0	
0.0205	-0.314715	-0.0045264	0.0061358	8.78822E-05	0	0	0	
0.0206667	0.316304	0.00443794	0.00614215	8.77646E-05	0	0	0	
0.0208333	-0.313723	-0.00442242	0.00614893	8.73777E-05	0	0	0	
0.021	0.313955	0.00429068	0.00615055	8.61199E-05	0	0	0	
0.0211667	-0.313186	-0.00436815	0.00614063	8.47905E-05	0	0	0	
0.0213333	0.314165	0.00445479	0.00613914	8.40375E-05	0	0	0	
0.0215	-0.312696	-0.00441378	0.006139	8.46496E-05	0	0	0	
0.0216667	0.31386	0.00429574	0.00614406	8.53311E-05	0	0	0	
0.0218333	-0.312871	-0.0043896	0.00614057	8.50273E-05	0	0	0	
0.022	0.314193	0.00436708	0.00614525	8.46654E-05	0	0	0	
0.0221667	-0.31411	-0.00435891	0.00615143	8.43904E-05	0	0	0	
0.0223333	0.314444	0.00446798	0.0061703	8.50438E-05	0	0	0	
0.0225	-0.312219	-0.00447499	0.00617273	8.56835E-05	0	0	0	
0.0226667	0.312255	0.00428578	0.00616595	8.63066E-05	0	0	0	
0.0228333	-0.310619	-0.00427661	0.00614589	8.54747E-05	0	0	0	
0.023	0.311871	0.00445117	0.00614103	8.51401E-05	0	0	0	
0.0231667	-0.31114	-0.00450266	0.00613847	8.55549E-05	0	0	0	
0.0233333	0.312348	0.00443018	0.00614641	8.65501E-05	0	0	0	
0.0235	-0.310568	-0.00441344	0.00614722	8.67078E-05	0	0	0	
0.0236667	0.311443	0.00431763	0.00614927	8.60534E-05	0	0	0	
0.0238333	-0.310129	-0.00439579	0.00614474	8.54164E-05	0	0	0	
0.024	0.310277	0.00444426	0.00614464	8.5392E-05	0	0	0	
0.0241667	-0.309915	-0.00442349	0.0061445	8.59063E-05	0	0	0	
0.0243333	0.31023	0.00442669	0.00614783	8.64139E-05	0	0	0	
0.0245	-0.308586	-0.00447926	0.00614623	8.65794E-05	0	0	0	
0.0246667	0.307851	0.00439275	0.00614166	8.67906E-05	0	0	0	
0.0248333	-0.307014	-0.00440079	0.00613116	8.66665E-05	0	0	0	
0.025	0.308126	0.00443708	0.00613076	8.68229E-05	0	0	0	
0.0251667	-0.308371	-0.00440769	0.00613301	8.69687E-05	0	0	0	
0.0253333	0.308825	0.00430903	0.00614578	8.69755E-05	0	0	0	
0.0255	-0.307899	-0.00431045	0.00615012	8.61763E-05	0	0	0	
0.0256667	0.308821	0.00440963	0.00615972	8.56698E-05	0	0	0	
0.0258333	-0.307651	-0.00442521	0.00616084	8.61076E-05	0	0	0	
0.026	0.308425	0.00441173	0.00617347	8.66599E-05	0	0	0	
0.0261667	-0.306354	-0.00432851	0.0061718	8.67895E-05	0	0	0	
0.0263333	0.306219	0.00431492	0.00616862	8.63877E-05	0	0	0	
0.0265	-0.305781	-0.00431561	0.0061505	8.59539E-05	0	0	0	
0.0266667	0.307307	0.00440607	0.00614956	8.61319E-05	0	0	0	
0.0268333	-0.306005	-0.00440475	0.00615305	8.67419E-05	0	0	0	
0.027	0.30636	0.00434694	0.00616504	8.70102E-05	0	0	0	
0.0271667	-0.304616	-0.00434292	0.00616346	8.67202E-05	0	0	0	
0.0273333	0.305236	0.00437097	0.00616059	8.64484E-05	0	0	0	
0.0275	-0.304223	-0.00421593	0.0061524	8.63382E-05	0	0	0	
0.0276667	0.304923	0.00419104	0.00615455	8.54875E-05	0	0	0	
0.0278333	-0.303887	-0.00428398	0.00615431	8.44729E-05	0	0	0	
0.028	0.304657	0.0044392	0.00616203	8.46839E-05	0	0	0	
0.0281667	-0.302415	-0.0044288	0.00616109	8.62362E-05	0	0	0	
0.0283333	0.301099	0.00434651	0.00615726	8.74691E-05	0	0	0	
0.0285	-0.300567	-0.00423194	0.00613884	8.72156E-05	0	0	0	
0.0286667	0.302491	0.00419159	0.00613089	8.59614E-05	0	0	0	
0.0288333	-0.301782	-0.00414139	0.00613193	8.47105E-05	0	0	0	
0.029	0.301834	0.00422796	0.00614704	8.4475E-05	0	0	0	
0.0291667	-0.300517	-0.00428197	0.00615154	8.48512E-05	0	0	0	
0.0293333	0.300845	0.00435825	0.0061518	8.53936E-05	0	0	0	
0.0295	-0.300051	-0.00438277	0.00614795	8.59964E-05	0	0	0	
0.0296667	0.30101	0.00432785	0.00615543	8.69058E-05	0	0	0	
0.0298333	-0.299548	-0.00418337	0.00615794	8.74375E-05	0	0	0	
0.03	0.300472	0.00418722	0.00616334	8.68744E-05	0	0	0	
0.0301667	-0.299314	-0.00418948	0.00615931	8.57926E-05	0	0	0	
0.0303333	0.298365	0.00426275	0.00616294	8.5042E-05	0	0	0	
0.0305	-0.29695	-0.00442778	0.006157	8.56711E-05	0	0	0	
0.0306667	0.298229	0.00453388	0.00615083	8.74649E-05	0	0	0	
0.0308333	-0.298129	-0.00452806	0.00614621	8.9893E-05	0	0	0	
0.031	0.298845	0.00442294	0.00614867	9.11672E-05	0	0	0	
0.0311667	-0.29781	-0.00422271	0.00615608	9.0572E-05	0	0	0	
0.0313333	0.297531	0.00414487	0.00616544	8.8394E-05	0	0	0	
0.0315	-0.294788	-0.00418663	0.00616776	8.62972E-05	0	0	0	
0.0316667	0.293819	0.00433841	0.00616055	8.53486E-05	0	0	0	
0.0318333	-0.292899	-0.00437587	0.00614038	8.59834E-05	0	0	0	
0.032	0.293887	0.00433488	0.00612267	8.71489E-05	0	0	0	
0.0321667	-0.295123	-0.00427632	0.00611871	8.74615E-05	0	0	0	
0.0323333	0.295606	0.00421173	0.00613585	8.70403E-05	0	0	0	
0.0325	-0.293282	-0.00419436	0.00615636	8.67442E-05	0	0	0	
0.0326667	0.292384	0.00421319	0.0061638	8.66373E-05	0	0	0	
0.0328333	-0.291529	-0.00421199	0.00615357	8.66327E-05	0	0	0	
0.033	0.293022	0.00427482	0.00614432	8.67343E-05	0	0	0	
0.0331667	-0.292355	-0.00415385	0.00614684	8.7084E-05	0	0	0	
0.0333333	0.291967	0.00410494	0.00615858	8.71223E-05	0	0	0	
0.0335	-0.290226	-0.00416872	0.00616622	8.67137E-05	0	0	0	
0.0336667	0.290555	0.00419597	0.00616293	8.65267E-05	0	0	0	
0.0338333	-0.289532	-0.00413364	0.00615511	8.63255E-05	0	0	0	
0.034	0.288875	0.00417516	0.00615016	8.5925E-05	0	0	0	
0.0341667	-0.287709	-0.00423773	0.0061447	8.59139E-05	0	0	0	
0.0343333	0.288563	0.004311	0.00613711	8.69308E-05	0	0	0	
0.0345	-0.288845	-0.00426594	0.00613914	8.82004E-05	0	0	0	
0.0346667	0.288694	0.00413649	0.00614792	8.8709E-05	0	0	0	
0.0348333	-0.287073	-0.00407538	0.00615625	8.80778E-05	0	0	0	
0.035	0.287926	0.00405776	0.00615838	8.67977E-05	0	0	0	
0.0351667	-0.285852	-0.00408622	0.00615967	8.58524E-05	0	0	0	
0.0353333	0.284719	0.00420564	0.00616175	8.61925E-05	0	0	0	
0.0355	-0.282367	-0.00412741	0.00615318	8.68851E-05	0	0	0	
0.0356667	0.282993	0.00411311	0.00613897	8.72075E-05	0	0	0	
0.0358333	-0.281836	-0.00408112	0.0061183	8.63724E-05	0	0	0	
0.036	0.284068	0.00414622	0.00611375	8.62743E-05	0	0	0	
0.0361667	-0.283411	-0.00418537	0.00612248	8.6645E-05	0	0	0	
0.0363333	0.283545	0.0041654	0.006144	8.74112E-05	0	0	0	
0.0365	-0.281456	-0.00410054	0.00615762	8.80015E-05	0	0	0	
0.0366667	0.281472	0.00411302	0.00616149	8.79383E-05	0	0	0	
0.0368333	-0.278953	-0.00399595	0.0061542	8.74058E-05	0	0	0	
0.037	0.279487	0.0039678	0.00614442	8.62162E-05	0	0	0	
0.0371667	-0.278742	-0.0039584	0.0061381	8.55252E-05	0	0	0	
0.0373333	0.278875	0.00403883	0.00613832	8.51512E-05	0	0	0	
0.0375	-0.27807	-0.00406885	0.00614204	8.54843E-05	0	0	0	
0.0376667	0.277915	0.00398011	0.00614341	8.55927E-05	0	0	0	
0.0378333	-0.275715	-0.00395724	0.00613854	8.57856E-05	0	0	0	
0.038	0.27743	0.0040046	0.00613547	8.54609E-05	0	0	0	
0.0381667	-0.27892	-0.00413065	0.00614085	8.62223E-05	0	0	0	
0.0383333	0.278897	0.00401448	0.00615991	8.69901E-05	0	0	0	
0.0385	-0.276008	-0.00391519	0.00617535	8.76406E-05	0	0	0	
0.0386667	0.274822	0.00391254	0.00617879	8.6785E-05	0	0	0	
0.0388333	-0.27389	-0.0039936	0.00616519	8.63274E-05	0	0	0	
0.039	0.275106	0.00398272	0.00615555	8.64583E-05	0	0	0	
0.0391667	-0.27267	-0.0040156	0.0061516	8.73177E-05	0	0	0	
0.0393333	0.27098	0.00390679	0.00614914	8.74756E-05	0	0	0	
0.0395	-0.269903	-0.00386436	0.00612916	8.63659E-05	0	0	0	
0.0396667	0.272489	0.00398712	0.006113	8.55626E-05	0	0	0	
0.0398333	-0.272163	-0.00404346	0.00611582	8.58913E-05	0	0	0	
0.04	0.271596	0.00399843	0.00613788	8.70441E-05	0	0	0	
0.0401667	-0.270121	-0.00403404	0.00615147	8.79043E-05	0	0	0	
0.0403333	0.268702	0.00404566	0.00615109	8.84765E-05	0	0	0	
0.0405	-0.266767	-0.00393072	0.0061429	8.8651E-05	0	0	0	
0.0406667	0.26632	0.00387793	0.00613131	8.79621E-05	0	0	0	
0.0408333	-0.266893	-0.00388721	0.00612554	8.70416E-05	0	0	0	
0.041	0.268447	0.00385193	0.00612748	8.63372E-05	0	0	0	
0.0411667	-0.267549	-0.00388325	0.00614178	8.61669E-05	0	0	0	
0.0413333	0.265658	0.0039424	0.00615467	8.57835E-05	0	0	0	
0.0415	-0.264003	-0.00396209	0.00615136	8.60494E-05	0	0	0	
0.0416667	0.265276	0.00390378	0.00614124	8.63938E-05	0	0	0	
0.0418333	-0.26609	-0.00389033	0.00613653	8.66086E-05	0	0	0	
0.042	0.265918	0.00385213	0.00615318	8.68326E-05	0	0	0	
0.0421667	-0.263564	-0.00378409	0.00616526	8.6818E-05	0	0	0	
0.0423333	0.262273	0.00373748	0.00616445	8.66466E-05	0	0	0	
0.0425	-0.261087	-0.0038335	0.006147	8.60991E-05	0	0	0	
0.0426667	0.261538	0.00387056	0.00613332	8.64045E-05	0	0	0	
0.0428333	-0.260738	-0.00374138	0.00612709	8.68298E-05	0	0	0	
0.043	0.261269	0.00371353	0.00612969	8.67739E-05	0	0	0	
0.0431667	-0.259753	-0.00380688	0.00613012	8.58729E-05	0	0	0	
0.0433333	0.259628	0.00398952	0.00612942	8.61216E-05	0	0	0	
0.0435	-0.259814	-0.00395848	0.00613102	8.72109E-05	0	0	0	
0.0436667	0.261571	0.00388306	0.00614477	8.86053E-05	0	0	0	
0.0438333	-0.259427	-0.00378151	0.00617035	8.86424E-05	0	0	0	
0.044	0.252451	0.00391817	0.00618696	8.80793E-05	0	0	0	
0.0441667	-0.24851	-0.0039547	0.00616964	8.7842E-05	0	0	0	
0.0443333	0.250153	0.00388648	0.00611619	8.80969E-05	0	0	0	
0.0445	-0.253848	-0.00383066	0.00607423	8.85852E-05	0	0	0	
0.0446667	0.255806	0.00369185	0.00607548	8.78383E-05	0	0	0	
0.0448333	-0.256012	-0.00369672	0.00610842	8.68753E-05	0	0	0	
0.045	0.257412	0.00368057	0.00614834	8.54173E-05	0	0	0	
0.0451667	-0.254163	-0.00380978	0.00618549	8.51617E-05	0	0	0	
0.0453333	0.250551	0.00384821	0.0062131	8.47363E-05	0	0	0	
0.0455	-0.249601	-0.00388088	0.00620484	8.54492E-05	0	0	0	
0.0456667	0.252148	0.00373959	0.00617716	8.65544E-05	0	0	0	
0.0458333	-0.251449	-0.00365758	0.00615551	8.74788E-05	0	0	0	
0.046	0.250409	0.00360745	0.00615965	8.69704E-05	0	0	0	
0.0461667	-0.247939	-0.00365673	0.00616377	8.55165E-05	0	0	0	
0.0463333	0.24766	0.00373351	0.00615619	8.51096E-05	0	0	0	
0.0465	-0.248234	-0.00362762	0.0061453	8.57126E-05	0	0	0	
0.0466667	0.248918	0.0035734	0.00614254	8.63008E-05	0	0	0	
0.0468333	-0.246566	-0.00348966	0.0061466	8.57879E-05	0	0	0	
0.047	0.24622	0.00354601	0.00614677	8.49621E-05	0	0	0	
0.0471667	-0.245031	-0.00363075	0.00614412	8.44951E-05	0	0	0	
0.0473333	0.244753	0.00364606	0.00613984	8.4711E-05	0	0	0	
0.0475	-0.244828	-0.00368417	0.00614078	8.61274E-05	0	0	0	
0.0476667	0.245035	0.00360364	0.00614711	8.71663E-05	0	0	0	
0.0478333	-0.242515	-0.00352399	0.00615935	8.7789E-05	0	0	0	
0.048	0.240424	0.003417	0.00616121	8.7047E-05	0	0	0	
0.0481667	-0.240154	-0.00343294	0.00615185	8.63142E-05	0	0	0	
0.0483333	0.240515	0.00350926	0.00613604	8.53874E-05	0	0	0	
0.0485	-0.240256	-0.00353854	0.00613087	8.50231E-05	0	0	0	
0.0486667	0.240279	0.00348809	0.00613662	8.51844E-05	0	0	0	
0.0488333	-0.238953	-0.00346207	0.00614631	8.54262E-05	0	0	0	
0.049	0.23921	0.00351348	0.00615772	8.56106E-05	0	0	0	
0.0491667	-0.2377	-0.00347562	0.00616381	8.59144E-05	0	0	0	
0.0493333	0.237299	0.00341014	0.00617123	8.65269E-05	0	0	0	
0.0495	-0.235412	-0.00334306	0.00616822	8.61804E-05	0	0	0	
0.0496667	0.235225	0.003348	0.00616324	8.48939E-05	0	0	0	
0.0498333	-0.232799	-0.00335054	0.00614864	8.39587E-05	0	0	0	
0.05	0.23371	0.00344532	0.00613761	8.41392E-05	0	0	0	
0.0501667	-0.23437	-0.00350639	0.00612961	8.4892E-05	0	0	0	
0.0503333	0.234749	0.00355211	0.00613825	8.56597E-05	0	0	0	
0.0505	-0.232403	-0.00342689	0.00615707	8.63771E-05	0	0	0	
0.0506667	0.230623	0.00325974	0.00616948	8.67235E-05	0	0	0	
0.0508333	-0.229039	-0.00326652	0.00616678	8.63143E-05	0	0	0	
0.051	0.229267	0.00336374	0.00615245	8.56171E-05	0	0	0	
0.0511667	-0.228819	-0.00338777	0.00614398	8.55243E-05	0	0	0	
0.0513333	0.228217	0.00334886	0.0061435	8.57276E-05	0	0	0	
0.0515	-0.227001	-0.00333415	0.00614877	8.57987E-05	0	0	0	
0.0516667	0.225645	0.0034105	0.00615018	8.54707E-05	0	0	0	
0.0518333	-0.22459	-0.00342464	0.00614686	8.52209E-05	0	0	0	
0.052	0.225721	0.00348124	0.00614216	8.55631E-05	0	0	0	
0.0521667	-0.225766	-0.00340629	0.00614007	8.65733E-05	0	0	0	
0.0523333	0.225544	0.00324225	0.00614694	8.67913E-05	0	0	0	
0.0525	-0.223514	-0.0033312	0.00615878	8.62442E-05	0	0	0	
0.0526667	0.221516	0.00340562	0.00616696	8.54187E-05	0	0	0	
0.0528333	-0.219371	-0.00336513	0.00615778	8.5868E-05	0	0	0	
0.053	0.221506	0.00328877	0.00614346	8.59154E-05	0	0	0	
0.0531667	-0.221218	-0.00328075	0.00613713	8.57757E-05	0	0	0	
0.0533333	0.220046	0.00325824	0.00614521	8.52278E-05	0	0	0	
0.0535	-0.217664	-0.00318529	0.00615196	8.51976E-05	0	0	0	
0.0536667	0.216981	0.00327882	0.0061481	8.52231E-05	0	0	0	
0.0538333	-0.216535	-0.00335404	0.00613848	8.50474E-05	0	0	0	
0.054	0.217258	0.00330415	0.00613219	8.49479E-05	0	0	0	
0.0541667	-0.217254	-0.00318159	0.00613812	8.52978E-05	0	0	0	
0.0543333	0.216028	0.00316006	0.00614393	8.59272E-05	0	0	0	
0.0545	-0.214725	-0.0031783	0.00615111	8.61144E-05	0	0	0	
0.0546667	0.214287	0.00325315	0.00615787	8.55501E-05	0	0	0	
0.0548333	-0.212155	-0.00314947	0.00616408	8.50024E-05	0	0	0	
0.055	0.212029	0.00316368	0.00616241	8.52105E-05	0	0	0	
0.0551667	-0.210921	-0.00317076	0.00615181	8.60601E-05	0	0	0	
0.0553333	0.209537	0.0030957	0.00613944	8.67362E-05	0	0	0	
0.0555	-0.209051	-0.00302914	0.0061254	8.67698E-05	0	0	0	
0.0556667	0.211354	0.00302996	0.0061224	8.5563E-05	0	0	0	
0.0558333	-0.21011	-0.00313557	0.00613357	8.45361E-05	0	0	0	
0.056	0.20853	0.0031946	0.00615824	8.48976E-05	0	0	0	
0.0561667	-0.205719	-0.00315166	0.00617137	8.66984E-05	0	0	0	
0.0563333	0.204498	0.00297264	0.00616214	8.74976E-05	0	0	0	
0.0565	-0.204049	-0.00294741	0.00613961	8.67073E-05	0	0	0	
0.0566667	0.204993	0.00293437	0.00612857	8.54037E-05	0	0	0	
0.0568333	-0.203417	-0.00295744	0.00613565	8.53037E-05	0	0	0	
0.057	0.203302	0.00310274	0.00614658	8.63074E-05	0	0	0	
0.0571667	-0.202297	-0.00308344	0.00615227	8.71659E-05	0	0	0	
0.0573333	0.200267	0.00294359	0.00615124	8.75204E-05	0	0	0	
0.0575	-0.199274	-0.00284988	0.00614619	8.70572E-05	0	0	0	
0.0576667	0.200303	0.00287714	0.00613494	8.63896E-05	0	0	0	
0.0578333	-0.200949	-0.00296809	0.00613494	8.60759E-05	0	0	0	
0.058	0.199687	0.00301842	0.00614761	8.63165E-05	0	0	0	
0.0581667	-0.197472	-0.00298408	0.00616413	8.67213E-05	0	0	0	
0.0583333	0.195781	0.00292215	0.00616274	8.67335E-05	0	0	0	
0.0585	-0.194916	-0.00290884	0.00614962	8.64896E-05	0	0	0	
0.0586667	0.195142	0.00298383	0.00613852	8.63503E-05	0	0	0	
0.0588333	-0.194278	-0.00299205	0.00613728	8.65519E-05	0	0	0	
0.059	0.193708	0.00291902	0.0061392	8.70562E-05	0	0	0	
0.0591667	-0.192168	-0.00287831	0.00613394	8.72881E-05	0	0	0	
0.0593333	0.191481	0.00288365	0.00612672	8.69557E-05	0	0	0	
0.0595	-0.190638	-0.00285627	0.0061235	8.65307E-05	0	0	0	
0.0596667	0.190853	0.00279837	0.00613063	8.64053E-05	0	0	0	
0.0598333	-0.189664	-0.0027093	0.00614137	8.61055E-05	0	0	0	
0.06	0.189332	0.00276808	0.0061479	8.56132E-05	0	0	0	
0.0601667	-0.18765	-0.00272941	0.00615116	8.53827E-05	0	0	0	
0.0603333	0.184743	0.00252945	0.00615505	8.521E-05	0	0	0	
0.0605	-0.181684	-0.00250003	0.00615636	8.40837E-05	0	0	0	
0.0606667	0.168802	0.0024977	0.00609668	8.18115E-05	0	0	0	
0.0608333	-0.176061	-0.00267916	0.00601301	8.05248E-05	0	0	0	
0.061	0.183047	0.00275075	0.00597408	8.16996E-05	0	0	0	
0.0611667	-0.185297	-0.00269088	0.00602092	8.44461E-05	0	0	0	
0.0613333	0.184041	0.00264897	0.006107	8.65862E-05	0	0	0	
0.0615	-0.18219	-0.00259519	0.00616265	8.69665E-05	0	0	0	
0.0616667	0.176679	0.00256375	0.00618235	8.64471E-05	0	0	0	
0.0618333	-0.168946	-0.0024484	0.00615857	8.50974E-05	0	0	0	
0.062	0.175583	0.00260154	0.00616099	8.42231E-05	0	0	0	
0.0621667	-0.177128	-0.0026804	0.00615364	8.38896E-05	0	0	0	
0.0623333	0.177441	0.00258895	0.0061665	8.46853E-05	0	0	0	
0.0625	-0.176075	-0.0025194	0.00614747	8.52603E-05	0	0	0	
0.0626667	0.175287	0.00261044	0.00614517	8.5029E-05	0	0	0	
0.0628333	-0.173367	-0.00255517	0.00613382	8.42383E-05	0	0	0	
0.063	0.174588	0.00262852	0.00611652	8.38315E-05	0	0	0	
0.0631667	-0.175112	-0.0026309	0.00611478	8.40826E-05	0	0	0	
0.0633333	0.173328	0.00250824	0.00613542	8.39839E-05	0	0	0	
0.0635	-0.171138	-0.00248902	0.00616001	8.39052E-05	0	0	0	
0.0636667	0.170049	0.00251052	0.00616716	8.41096E-05	0	0	0	
0.0638333	-0.16843	-0.00251504	0.00616274	8.49265E-05	0	0	0	
0.064	0.167614	0.00259466	0.00615519	8.50213E-05	0	0	0	
0.0641667	-0.167819	-0.00269307	0.00615639	8.5284E-05	0	0	0	
0.0643333	0.166777	0.00265367	0.00615393	8.57135E-05	0	0	0	
0.0645	-0.166178	-0.00250561	0.00614934	8.60289E-05	0	0	0	
0.0646667	0.165977	0.00254192	0.006143	8.58753E-05	0	0	0	
0.0648333	-0.16478	-0.0025679	0.00614955	8.6224E-05	0	0	0	
0.065	0.164433	0.00245208	0.00616205	8.67841E-05	0	0	0	
0.0651667	-0.164538	-0.00255192	0.00617656	8.72373E-05	0	0	0	
0.0653333	0.162922	0.00261579	0.00618166	8.66843E-05	0	0	0	
0.0655	-0.161282	-0.00252787	0.00617769	8.58025E-05	0	0	0	
0.0656667	0.16086	0.00245141	0.00616667	8.48485E-05	0	0	0	
0.0658333	-0.159276	-0.00245152	0.00616001	8.48598E-05	0	0	0	
0.066	0.158199	0.00243464	0.00615848	8.52802E-05	0	0	0	
0.0661667	-0.158013	-0.00253279	0.00615873	8.59225E-05	0	0	0	
0.0663333	0.158001	0.00253488	0.00615503	8.61804E-05	0	0	0	
0.0665	-0.156711	-0.00246701	0.00615153	8.62257E-05	0	0	0	
0.0666667	0.155418	0.00240515	0.00614843	8.58838E-05	0	0	0	
0.0668333	-0.153339	-0.00243515	0.00614755	8.59036E-05	0	0	0	
0.067	0.152876	0.0024605	0.00614576	8.6725E-05	0	0	0	
0.0671667	-0.152837	-0.00241278	0.00614649	8.74717E-05	0	0	0	
0.0673333	0.151924	0.00235389	0.00614934	8.73852E-05	0	0	0	
0.0675	-0.150249	-0.00232543	0.00615355	8.66507E-05	0	0	0	
0.0676667	0.148346	0.00225161	0.00614975	8.57241E-05	0	0	0	
0.0678333	-0.147969	-0.00223088	0.00614586	8.5126E-05	0	0	0	
0.068	0.147433	0.00227868	0.00614433	8.48925E-05	0	0	0	
0.0681667	-0.146954	-0.00220915	0.00615251	8.48579E-05	0	0	0	
0.0683333	0.146126	0.00222713	0.0061561	8.48655E-05	0	0	0	
0.0685	-0.1456	-0.00227438	0.00615593	8.49615E-05	0	0	0	
0.0686667	0.144649	0.00233233	0.00615305	8.56417E-05	0	0	0	
0.0688333	-0.143798	-0.00224365	0.00615871	8.64589E-05	0	0	0	
0.069	0.143575	0.00215542	0.00616878	8.68828E-05	0	0	0	
0.0691667	-0.14227	-0.00216233	0.00617831	8.6978E-05	0	0	0	
0.0693333	0.139955	0.00217827	0.00618076	8.68973E-05	0	0	0	
0.0695	-0.139056	-0.00220002	0.00617449	8.69799E-05	0	0	0	
0.0696667	0.138723	0.00236483	0.00615743	8.71097E-05	0	0	0	
0.0698333	-0.138856	-0.00231347	0.00614176	8.71455E-05	0	0	0	
0.07	0.13947	0.0021262	0.00613687	8.68184E-05	0	0	0	
0.0701667	-0.137879	-0.00212138	0.00614787	8.66659E-05	0	0	0	
0.0703333	0.134418	0.00209368	0.00616038	8.6071E-05	0	0	0	
0.0705	-0.132864	-0.00223021	0.00616599	8.5891E-05	0	0	0	
0.0706667	0.133056	0.00223912	0.00615451	8.55931E-05	0	0	0	
0.0708333	-0.133661	-0.00217017	0.00614218	8.59636E-05	0	0	0	
0.071	0.13205	0.00204137	0.00613963	8.57916E-05	0	0	0	
0.0711667	-0.130584	-0.00205378	0.00615581	8.56446E-05	0	0	0	
0.0713333	0.127318	0.00199613	0.00616184	8.50703E-05	0	0	0	
0.0715	-0.126771	-0.00211685	0.00615931	8.48883E-05	0	0	0	
0.0716667	0.126712	0.00217471	0.00615083	8.47742E-05	0	0	0	
0.0718333	-0.1263	-0.00220066	0.00614739	8.5826E-05	0	0	0	
0.072	0.126085	0.00201942	0.00613851	8.69036E-05	0	0	0	
0.0721667	-0.125821	-0.00197309	0.0061372	8.74131E-05	0	0	0	
0.0723333	0.124335	0.00196419	0.00614924	8.6606E-05	0	0	0	
0.0725	-0.122984	-0.00195015	0.00616946	8.54841E-05	0	0	0	
0.0726667	0.12316	0.00201708	0.00618087	8.47982E-05	0	0	0	
0.0728333	-0.12143	-0.00212222	0.00617865	8.50232E-05	0	0	0	
0.073	0.119679	0.00207537	0.00616453	8.58391E-05	0	0	0	
0.0731667	-0.118987	-0.00205132	0.0061489	8.70655E-05	0	0	0	
0.0733333	0.118681	0.00198739	0.00614092	8.78472E-05	0	0	0	
0.0735	-0.118324	-0.00191047	0.00614401	8.8137E-05	0	0	0	
0.0736667	0.117604	0.00187799	0.00614484	8.78638E-05	0	0	0	
0.0738333	-0.116074	-0.00183184	0.00614219	8.76309E-05	0	0	0	
0.074	0.113771	0.00182665	0.00613417	8.74449E-05	0	0	0	
0.0741667	-0.112756	-0.00194192	0.00613043	8.72884E-05	0	0	0	
0.0743333	0.111891	0.00195143	0.00612827	8.66268E-05	0	0	0	
0.0745	-0.111604	-0.00201032	0.00613121	8.64621E-05	0	0	0	
0.0746667	0.110697	0.00195969	0.00613249	8.68444E-05	0	0	0	
0.0748333	-0.109037	-0.00186553	0.00613722	8.79863E-05	0	0	0	
0.075	0.106491	0.0017038	0.00613946	8.84229E-05	0	0	0	
0.0751667	-0.105641	-0.00184164	0.00613821	8.85079E-05	0	0	0	
0.0753333	0.105631	0.00177609	0.00612921	8.78198E-05	0	0	0	
0.0755	-0.106139	-0.00171144	0.00612353	8.73316E-05	0	0	0	
0.0756667	0.106043	0.00171056	0.00612796	8.6794E-05	0	0	0	
0.0758333	-0.104406	-0.00168959	0.00614421	8.68397E-05	0	0	0	
0.076	0.102036	0.00153347	0.00616098	8.65566E-05	0	0	0	
0.0761667	-0.0999474	-0.00158781	0.00616752	8.60416E-05	0	0	0	
0.0763333	0.0996988	0.00167209	0.00615963	8.53583E-05	0	0	0	
0.0765	-0.0995874	-0.00171459	0.00614245	8.54618E-05	0	0	0	
0.0766667	0.0996284	0.00167003	0.00612524	8.59345E-05	0	0	0	
0.0768333	-0.0994046	-0.00164304	0.00611891	8.67782E-05	0	0	0	
0.077	0.0980871	0.00151444	0.00612824	8.72377E-05	0	0	0	
0.0771667	-0.0960149	-0.00148472	0.00614892	8.72304E-05	0	0	0	
0.0773333	0.0933829	0.00149007	0.00616061	8.66314E-05	0	0	0	
0.0775	-0.0931737	-0.0015477	0.00615485	8.60348E-05	0	0	0	
0.0776667	0.0920892	0.00145453	0.00613135	8.48799E-05	0	0	0	
0.0778333	-0.0920931	-0.0014671	0.00611204	8.36817E-05	0	0	0	
0.078	0.0923873	0.0015936	0.00610492	8.32199E-05	0	0	0	
0.0781667	-0.0920229	-0.00156405	0.00611659	8.43314E-05	0	0	0	
0.0783333	0.0896066	0.00144844	0.00613817	8.63061E-05	0	0	0	
0.0785	-0.0871453	-0.00136142	0.00616139	8.75594E-05	0	0	0	
0.0786667	0.0842536	0.00121688	0.00616703	8.67875E-05	0	0	0	
0.0788333	-0.0833842	-0.00122584	0.0061515	8.47121E-05	0	0	0	
0.079	0.0837096	0.001329	0.00612275	8.30802E-05	0	0	0	
0.0791667	-0.0848586	-0.00150024	0.00610167	8.35172E-05	0	0	0	
0.0793333	0.0841585	0.0015248	0.0060953	8.51208E-05	0	0	0	
0.0795	-0.0835448	-0.00155665	0.00610958	8.6872E-05	0	0	0	
0.0796667	0.0811892	0.00148329	0.00613381	8.80224E-05	0	0	0	
0.0798333	-0.0791177	-0.001353	0.00615615	8.87742E-05	0	0	0	
0.08	0.0782208	0.00125815	0.00616165	8.89473E-05	0	0	0	
0.0801667	-0.0783826	-0.00129318	0.00615364	8.87724E-05	0	0	0	
0.0803333	0.077139	0.00132213	0.00613873	8.79708E-05	0	0	0	
0.0805	-0.0767051	-0.00136798	0.00613112	8.67225E-05	0	0	0	
0.0806667	0.0747166	0.00138145	0.0061325	8.57033E-05	0	0	0	
0.0808333	-0.0730825	-0.00138957	0.00613839	8.56635E-05	0	0	0	
0.081	0.0725155	0.00129185	0.00613337	8.58644E-05	0	0	0	
0.0811667	-0.0742498	-0.00132822	0.0061239	8.61884E-05	0	0	0	
0.0813333	0.0723114	0.00124755	0.0061194	8.66799E-05	0	0	0	
0.0815	-0.0710503	-0.00128034	0.00612958	8.77365E-05	0	0	0	
0.0816667	0.0691966	0.00121223	0.00613705	8.79681E-05	0	0	0	
0.0818333	-0.0687608	-0.00129886	0.00613813	8.7964E-05	0	0	0	
0.082	0.0670171	0.00120791	0.0061353	8.81194E-05	0	0	0	
0.0821667	-0.065761	-0.00105873	0.00614051	8.86188E-05	0	0	0	
0.0823333	0.0639721	0.00109198	0.00614204	8.82191E-05	0	0	0	
0.0825	-0.0633048	-0.00122318	0.00613242	8.69693E-05	0	0	0	
0.0826667	0.0634322	0.00123007	0.0061169	8.60784E-05	0	0	0	
0.0828333	-0.0629186	-0.00117703	0.00610913	8.63301E-05	0	0	0	
0.083	0.0619961	0.00119211	0.0061083	8.71311E-05	0	0	0	
0.0831667	-0.0622605	-0.00118827	0.0061137	8.72148E-05	0	0	0	
0.0833333	0.0602733	0.00117507	0.00612441	8.67442E-05	0	0	0	
0.0835	-0.0581347	-0.00118382	0.0061411	8.65547E-05	0	0	0	
0.0836667	0.0566858	0.00114854	0.00615354	8.68865E-05	0	0	0	
0.0838333	-0.0562176	-0.00110304	0.00615799	8.68299E-05	0	0	0	
0.084	0.0545543	0.00115101	0.00615105	8.59143E-05	0	0	0	
0.0841667	-0.0544138	-0.00110684	0.00614136	8.49611E-05	0	0	0	
0.0843333	0.0532213	0.00106853	0.00613229	8.50193E-05	0	0	0	
0.0845	-0.0522309	-0.00101287	0.00612893	8.58417E-05	0	0	0	
0.0846667	0.052207	0.000998708	0.00612482	8.63419E-05	0	0	0	
0.0848333	-0.0531682	-0.000964748	0.00612294	8.56067E-05	0	0	0	
0.085	0.0520121	0.00096413	0.00612866	8.43325E-05	0	0	0	
0.0851667	-0.0500271	-0.00100621	0.00614533	8.35206E-05	0	0	0	
0.0853333	0.0478744	0.00109844	0.00616051	8.37165E-05	0	0	0	
0.0855	-0.0467918	-0.00109834	0.0061615	8.49356E-05	0	0	0	
0.0856667	0.0456712	0.00102806	0.0061492	8.69489E-05	0	0	0	
0.0858333	-0.0447861	-0.000780497	0.0061359	8.84144E-05	0	0	0	
0.086	0.0437595	0.000735109	0.00612368	8.82307E-05	0	0	0	
0.0861667	-0.0435848	-0.00079558	0.00610813	8.66719E-05	0	0	0	
0.0863333	0.0435033	0.000873044	0.00609534	8.53357E-05	0	0	0	
0.0865	-0.0430907	-0.000842066	0.0061001	8.45512E-05	0	0	0	
0.0866667	0.0407253	0.000938795	0.00612017	8.39707E-05	0	0	0	
0.0868333	-0.0397652	-0.000966141	0.00614189	8.39986E-05	0	0	0	
0.087	0.0372783	0.000813329	0.00615199	8.54541E-05	0	0	0	
0.0871667	-0.0360993	-0.000683094	0.00615305	8.73344E-05	0	0	0	
0.0873333	0.0337385	0.000808789	0.00614364	8.78958E-05	0	0	0	
0.0875	-0.034269	-0.000845654	0.00612897	8.72898E-05	0	0	0	
0.0876667	0.0338876	0.000727167	0.00610397	8.66994E-05	0	0	0	
0.0878333	-0.0390908	-0.000736759	0.00606678	8.59863E-05	0	0	0	
0.088	0.0466185	0.000959653	0.00605378	8.52596E-05	0	0	0	
0.0881667	-0.0637992	-0.00116634	0.00617057	8.6673E-05	0	0	0	
0.0883333	0.055361	0.00103627	0.00639563	9.04217E-05	0	0	0	
0.0885	-0.0309315	-0.000693823	0.00657322	9.28764E-05	0	0	0	
0.0886667	0.0220863	0.000653718	0.00654427	9.14871E-05	0	0	0	
0.0888333	-0.0232946	-0.000625522	0.00635077	8.84009E-05	0	0	0	
0.089	0.0278803	0.000635492	0.00614681	8.67739E-05	0	0	0	
0.0891667	-0.0465519	-0.000939555	0.00601483	8.62455E-05	0	0	0	
0.0893333	0.0584964	0.00108597	0.00596047	8.54779E-05	0	0	0	
0.0895	-0.0426798	-0.000796252	0.00597687	8.48036E-05	0	0	0	
0.0896667	0.0298186	0.000625688	0.00607649	8.54737E-05	0	0	0	
0.0898333	-0.0220818	-0.000547545	0.00618067	8.68853E-05	0	0	0	
0.09	0.0201672	0.000528445	0.00621587	8.78564E-05	0	0	0	
0.0901667	-0.0219479	-0.000611282	0.00617191	8.77168E-05	0	0	0	
0.0903333	0.0206501	0.000596296	0.00613795	8.74695E-05	0	0	0	
0.0905	-0.0185582	-0.000501552	0.00616234	8.79441E-05	0	0	0	
0.0906667	0.015202	0.00041198	0.00619755	8.83959E-05	0	0	0	
0.0908333	-0.0145256	-0.000446882	0.00619472	8.80676E-05	0	0	0	
0.091	0.0132903	0.000491097	0.00615425	8.75545E-05	0	0	0	
0.0911667	-0.0147999	-0.000476052	0.00611767	8.77162E-05	0	0	0	
0.0913333	0.0131992	0.000405473	0.00611015	8.80028E-05	0	0	0	
0.0915	-0.0122106	-0.000418592	0.00612193	8.75988E-05	0	0	0	
0.0916667	0.0111463	0.000385176	0.00612889	8.67706E-05	0	0	0	
0.0918333	-0.0112138	-0.000287438	0.00613004	8.62721E-05	0	0	0	
0.092	0.00928647	0.000398104	0.00613748	8.58976E-05	0	0	0	
0.0921667	-0.00857937	-0.000514638	0.00615443	8.54228E-05	0	0	0	
0.0923333	0.00777172	0.000462616	0.00616129	8.52441E-05	0	0	0	
0.0925	-0.0074081	-0.000407706	0.00614776	8.56096E-05	0	0	0	
0.0926667	0.00702273	0.000309035	0.00613104	8.63515E-05	0	0	0	
0.0928333	-0.00585225	-0.000287585	0.0061334	8.71363E-05	0	0	0	
0.093	0.003198	0.000216382	0.00614946	8.75952E-05	0	0	0	
0.0931667	-0.00351783	-0.000277668	0.00615654	8.74639E-05	0	0	0	
0.0933333	0.00360515	0.000339386	0.00614946	8.68836E-05	0	0	0	
0.0935	-0.00174923	-0.000324521	0.00613849	8.6459E-05	0	0	0	
0.0936667	-7.22153E-05	0.000200077	0.00613162	8.63292E-05	0	0	0	
0.0938333	9.57197E-05	-0.000294207	0.00612699	8.62368E-05	0	0	0	
0.094	-0.00145416	0.000303002	0.00612341	8.57445E-05	0	0	0	
0.0941667	0.00141801	-0.000403455	0.00612336	8.55639E-05	0	0	0	
0.0943333	-0.00299458	0.000383046	0.0061288	8.61735E-05	0	0	0	
0.0945	0.00425425	-0.000343043	0.00613897	8.74944E-05	0	0	0	
0.0946667	-0.00711209	0.000173055	0.00614626	8.83579E-05	0	0	0	
0.0948333	0.00688798	-0.000147608	0.00614395	8.80802E-05	0	0	0	
0.095	-0.00807729	0.000247339	0.00613195	8.68792E-05	0	0	0	
0.0951667	0.00782526	-0.000374896	0.00611834	8.56152E-05	0	0	0	
0.0953333	-0.0091382	0.000377922	0.0061118	8.49907E-05	0	0	0	
0.0955	0.00906614	-0.000263221	0.00611561	8.53661E-05	0	0	0	
0.0956667	-0.0109076	0.000179727	0.0061278	8.66467E-05	0	0	0	
0.0958333	0.0119083	-0.000113492	0.00614249	8.79803E-05	0	0	0	
0.096	-0.0133371	0.000119358	0.00615127	8.82231E-05	0	0	0	
0.0961667	0.0136277	-0.000197336	0.00614904	8.67045E-05	0	0	0	
0.0963333	-0.0155676	0.00024799	0.00614039	8.44679E-05	0	0	0	
0.0965	0.0155461	-0.000225315	0.00613353	8.34209E-05	0	0	0	
0.0966667	-0.0165703	0.000108133	0.00613127	8.44256E-05	0	0	0	
0.0968333	0.0166765	-0.000140327	0.00613348	8.63852E-05	0	0	0	
0.097	-0.0188093	4.78381E-05	0.00613748	8.74355E-05	0	0	0	
0.0971667	0.0183354	-9.26578E-05	0.00613653	8.72949E-05	0	0	0	
0.0973333	-0.020477	-3.48939E-06	0.0061277	8.67363E-05	0	0	0	
0.0975	0.0203836	-6.59539E-05	0.00612166	8.64564E-05	0	0	0	
0.0976667	-0.0228579	3.11052E-05	0.00612478	8.64661E-05	0	0	0	
0.0978333	0.0231354	6.58918E-05	0.00613127	8.69145E-05	0	0	0	
0.098	-0.0252222	-0.000148593	0.00613141	8.7549E-05	0	0	0	
0.0981667	0.025338	6.39811E-05	0.00613217	8.74382E-05	0	0	0	
0.0983333	-0.0281794	-3.54809E-06	0.00613412	8.60046E-05	0	0	0	
0.0985	0.0280449	-3.33681E-05	0.0061296	8.45047E-05	0	0	0	
0.0986667	-0.0282542	1.39818E-05	0.0061124	8.44756E-05	0	0	0	
0.0988333	0.0273041	4.32851E-05	0.00610001	8.59616E-05	0	0	0	
0.099	-0.0295035	-0.00011234	0.00610821	8.76748E-05	0	0	0	
0.0991667	0.0301032	0.000200529	0.00613366	8.84523E-05	0	0	0	
0.0993333	-0.0320759	-0.000317064	0.00615066	8.79786E-05	0	0	0	
0.0995	0.0317104	0.000244563	0.0061497	8.65872E-05	0	0	0	
0.0996667	-0.0327004	-0.000111035	0.00614981	8.53264E-05	0	0	0	
0.0998333	0.034213	7.27234E-05	0.00616723	8.5276E-05	0	0	0	
0.1	-0.0379864	-0.000133519	0.00617919	8.62376E-05	0	0	0	
0.100167	0.0373638	0.000268857	0.00616207	8.71586E-05	0	0	0	
0.100333	-0.0380978	-0.000354934	0.0061288	8.74579E-05	0	0	0	
0.1005	0.0384356	0.000310138	0.00611168	8.74839E-05	0	0	0	
0.100667	-0.0384939	-0.000228621	0.00610911	8.74092E-05	0	0	0	
0.100833	0.03562	0.000202901	0.00610863	8.71517E-05	0	0	0	
0.101	-0.0403074	-0.000203142	0.00611367	8.67888E-05	0	0	0	
0.101167	0.0425926	0.000252199	0.00613484	8.66186E-05	0	0	0	
0.101333	-0.0448577	-0.000274883	0.00615191	8.69142E-05	0	0	0	
0.1015	0.0443318	0.000321675	0.00615108	8.77255E-05	0	0	0	
0.101667	-0.0452288	-0.000351858	0.00613917	8.85767E-05	0	0	0	
0.101833	0.0458629	0.000336957	0.00613559	8.85326E-05	0	0	0	
0.102	-0.0489707	-0.000258394	0.00613553	8.74673E-05	0	0	0	
0.102167	0.048857	0.000263026	0.00612984	8.63262E-05	0	0	0	
0.102333	-0.0494156	-0.000377735	0.00611502	8.6148E-05	0	0	0	
0.1025	0.0489585	0.000425347	0.00610407	8.70479E-05	0	0	0	
0.102667	-0.0503106	-0.000446836	0.00610187	8.79454E-05	0	0	0	
0.102833	0.0500968	0.000442244	0.006111	8.79129E-05	0	0	0	
0.103	-0.0533317	-0.000355545	0.00612631	8.69791E-05	0	0	0	
0.103167	0.0554623	0.000297774	0.00614431	8.63367E-05	0	0	0	
0.103333	-0.0569342	-0.000402538	0.00615092	8.68502E-05	0	0	0	
0.1035	0.055581	0.000506151	0.00613825	8.79095E-05	0	0	0	
0.103667	-0.0561241	-0.000541285	0.0061138	8.84746E-05	0	0	0	
0.103833	0.0560656	0.000619565	0.00610239	8.79898E-05	0	0	0	
0.104	-0.0585982	-0.00061766	0.00610501	8.67907E-05	0	0	0	
0.104167	0.0585539	0.000462523	0.00611225	8.54306E-05	0	0	0	
0.104333	-0.0600234	-0.000442637	0.00611441	8.45228E-05	0	0	0	
0.1045	0.0592539	0.000479375	0.00611908	8.47002E-05	0	0	0	
0.104667	-0.0618491	-0.000668422	0.00612165	8.56253E-05	0	0	0	
0.104833	0.0623117	0.000653976	0.00612417	8.62886E-05	0	0	0	
0.105	-0.0645825	-0.000705472	0.00612461	8.60104E-05	0	0	0	
0.105167	0.0652732	0.000687378	0.00613035	8.59582E-05	0	0	0	
0.105333	-0.0667834	-0.000710027	0.00613072	8.66296E-05	0	0	0	
0.1055	0.0665129	0.00070382	0.00612248	8.7305E-05	0	0	0	
0.105667	-0.067533	-0.000712261	0.00610405	8.68933E-05	0	0	0	
0.105833	0.067676	0.000724601	0.00609084	8.60535E-05	0	0	0	
0.106	-0.0697989	-0.000734348	0.00609039	8.58845E-05	0	0	0	
0.106167	0.0700414	0.000759928	0.00610264	8.65687E-05	0	0	0	
0.106333	-0.0717228	-0.000743169	0.00611	8.72301E-05	0	0	0	
0.1065	0.0710955	0.00076175	0.00610806	8.71658E-05	0	0	0	
0.106667	-0.0721363	-0.000793988	0.00610086	8.67989E-05	0	0	0	
0.106833	0.0736014	0.000813743	0.00610634	8.68354E-05	0	0	0	
0.107	-0.0773134	-0.000829306	0.00612333	8.71147E-05	0	0	0	
0.107167	0.0773044	0.000705309	0.00613892	8.65872E-05	0	0	0	
0.107333	-0.0775426	-0.000675636	0.00613238	8.53792E-05	0	0	0	
0.1075	0.0766761	0.000784406	0.00611361	8.50492E-05	0	0	0	
0.107667	-0.0780041	-0.000846485	0.0060973	8.61323E-05	0	0	0	
0.107833	0.0776984	0.000860488	0.00609491	8.74206E-05	0	0	0	
0.108	-0.0792394	-0.000926959	0.00609684	8.78127E-05	0	0	0	
0.108167	0.0788615	0.00087901	0.00610786	8.74478E-05	0	0	0	
0.108333	-0.0815126	-0.000881399	0.00612221	8.63752E-05	0	0	0	
0.1085	0.0825992	0.000817822	0.00613317	8.49812E-05	0	0	0	
0.108667	-0.0840595	-0.00075813	0.00612535	8.43492E-05	0	0	0	
0.108833	0.0831424	0.000814019	0.00611233	8.58705E-05	0	0	0	
0.109	-0.085307	-0.00111655	0.00610407	8.86976E-05	0	0	0	
0.109167	0.0853921	0.00114863	0.00610624	9.00858E-05	0	0	0	
0.109333	-0.0860731	-0.000980082	0.00610018	8.78558E-05	0	0	0	
0.1095	0.086223	0.000825778	0.00609067	8.4204E-05	0	0	0	
0.109667	-0.0880917	-0.000900461	0.00608775	8.31742E-05	0	0	0	
0.109833	0.0885515	0.000935096	0.00610032	8.56989E-05	0	0	0	
0.11	-0.0904633	-0.000942544	0.00610702	8.80199E-05	0	0	0	
0.110167	0.089946	0.000867174	0.0061021	8.77803E-05	0	0	0	
0.110333	-0.0917895	-0.000939751	0.00609546	8.6217E-05	0	0	0	
0.1105	0.0938247	0.00100151	0.00610709	8.54348E-05	0	0	0	
0.110667	-0.0962577	-0.000980942	0.00612044	8.55291E-05	0	0	0	
0.110833	0.0938822	0.00091094	0.00611917	8.64999E-05	0	0	0	
0.111	-0.0945798	-0.0010165	0.00610034	8.78636E-05	0	0	0	
0.111167	0.095504	0.00105079	0.00609586	8.84652E-05	0	0	0	
0.111333	-0.0988049	-0.00107102	0.00610714	8.73067E-05	0	0	0	
0.1115	0.0988221	0.00104586	0.00612044	8.55264E-05	0	0	0	
0.111667	-0.0993391	-0.0010904	0.00611387	8.46917E-05	0	0	0	
0.111833	0.0978281	0.00109229	0.00610815	8.53558E-05	0	0	0	
0.112	-0.100122	-0.00105634	0.00610826	8.63372E-05	0	0	0	
0.112167	0.10051	0.00113251	0.00611436	8.65851E-05	0	0	0	
0.112333	-0.102153	-0.00112353	0.0061099	8.60692E-05	0	0	0	
0.1125	0.103165	0.00111674	0.00611014	8.56067E-05	0	0	0	
0.112667	-0.105772	-0.00116037	0.00611373	8.5909E-05	0	0	0	
0.112833	0.104427	0.00128718	0.00611629	8.64876E-05	0	0	0	
0.113	-0.104891	-0.00119755	0.00610216	8.65442E-05	0	0	0	
0.113167	0.105586	0.00116123	0.0060901	8.55289E-05	0	0	0	
0.113333	-0.108806	-0.0011954	0.00609291	8.4841E-05	0	0	0	
0.1135	0.109602	0.00124066	0.00611018	8.54464E-05	0	0	0	
0.113667	-0.110549	-0.00135979	0.00611161	8.70162E-05	0	0	0	
0.113833	0.108417	0.00148619	0.00609722	8.78124E-05	0	0	0	
0.114	-0.110384	-0.00135535	0.00608259	8.72759E-05	0	0	0	
0.114167	0.111599	0.00128791	0.00609358	8.59787E-05	0	0	0	
0.114333	-0.115046	-0.00129135	0.00611333	8.5327E-05	0	0	0	
0.1145	0.114424	0.00128973	0.00613072	8.56753E-05	0	0	0	
0.114667	-0.115529	-0.00132875	0.006126	8.64953E-05	0	0	0	
0.114833	0.114825	0.00135375	0.00611409	8.68737E-05	0	0	0	
0.115	-0.116239	-0.00131708	0.00609883	8.68225E-05	0	0	0	
0.115167	0.116075	0.00126955	0.00609938	8.68905E-05	0	0	0	
0.115333	-0.117894	-0.00137302	0.00610783	8.71153E-05	0	0	0	
0.1155	0.118374	0.00140347	0.00612134	8.72651E-05	0	0	0	
0.115667	-0.118858	-0.00141875	0.00612365	8.69854E-05	0	0	0	
0.115833	0.119203	0.00143911	0.00611874	8.64031E-05	0	0	0	
0.116	-0.12092	-0.00142482	0.00610627	8.55713E-05	0	0	0	
0.116167	0.120665	0.0013223	0.00609698	8.46951E-05	0	0	0	
0.116333	-0.121717	-0.00128213	0.0060906	8.35747E-05	0	0	0	
0.1165	0.122222	0.00125242	0.00609446	8.30744E-05	0	0	0	
0.116667	-0.124107	-0.00145693	0.00609991	8.36956E-05	0	0	0	
0.116833	0.124439	0.00153703	0.00610247	8.52263E-05	0	0	0	
0.117	-0.126467	-0.00150633	0.00609258	8.60086E-05	0	0	0	
0.117167	0.126016	0.00145361	0.00608488	8.61689E-05	0	0	0	
0.117333	-0.127468	-0.00154297	0.00608311	8.58883E-05	0	0	0	
0.1175	0.127697	0.00155039	0.0060945	8.54709E-05	0	0	0	
0.117667	-0.129988	-0.00164191	0.00610242	8.44371E-05	0	0	0	
0.117833	0.130389	0.00164139	0.00611345	8.38169E-05	0	0	0	
0.118	-0.133147	-0.0015457	0.00611817	8.38187E-05	0	0	0	
0.118167	0.132894	0.00141543	0.00612399	8.42353E-05	0	0	0	
0.118333	-0.132413	-0.00141374	0.00611389	8.41014E-05	0	0	0	
0.1185	0.131786	0.00151317	0.00610142	8.37247E-05	0	0	0	
0.118667	-0.133921	-0.00163454	0.00609368	8.37481E-05	0	0	0	
0.118833	0.134917	0.00169537	0.00610524	8.47997E-05	0	0	0	
0.119	-0.136429	-0.00168626	0.00611706	8.62963E-05	0	0	0	
0.119167	0.135961	0.00163475	0.00611966	8.67656E-05	0	0	0	
0.119333	-0.135537	-0.00154041	0.00610982	8.57525E-05	0	0	0	
0.1195	0.136153	0.00149356	0.0061064	8.45002E-05	0	0	0	
0.119667	-0.139847	-0.00158448	0.00611389	8.43648E-05	0	0	0	
0.119833	0.140674	0.00165623	0.00613035	8.54566E-05	0	0	0	
0.12	-0.142608	-0.00177358	0.00613292	8.67385E-05	0	0	0	
0.120167	0.14175	0.00178502	0.0061232	8.76243E-05	0	0	0	
0.120333	-0.14177	-0.00170543	0.0060946	8.74359E-05	0	0	0	
0.1205	0.139282	0.00162963	0.00606655	8.62307E-05	0	0	0	
0.120667	-0.140222	-0.00171893	0.00604888	8.46295E-05	0	0	0	
0.120833	0.141557	0.00177254	0.00606948	8.39471E-05	0	0	0	
0.121	-0.144431	-0.00176894	0.00609815	8.41483E-05	0	0	0	
0.121167	0.143242	0.00172658	0.00611491	8.47998E-05	0	0	0	
0.121333	-0.147576	-0.00164939	0.0061166	8.53038E-05	0	0	0	
0.1215	0.153656	0.00180975	0.00614164	8.59931E-05	0	0	0	
0.121667	-0.167465	-0.00218046	0.00617762	8.75305E-05	0	0	0	
0.121833	0.15277	0.00207149	0.00621033	8.95304E-05	0	0	0	
0.122	-0.149841	-0.0019817	0.00616649	9.0069E-05	0	0	0	
0.122167	0.148815	0.00199141	0.0061106	8.91808E-05	0	0	0	
0.122333	-0.149688	-0.00195243	0.00605425	8.75531E-05	0	0	0	
0.1225	0.150774	0.0019042	0.00607603	8.65842E-05	0	0	0	
0.122667	-0.161116	-0.00199228	0.00613498	8.6061E-05	0	0	0	
0.122833	0.153524	0.00186867	0.00624238	8.68324E-05	0	0	0	
0.123	-0.156184	-0.00183886	0.00627077	8.78128E-05	0	0	0	
0.123167	0.155621	0.00185919	0.00624159	8.78617E-05	0	0	0	
0.123333	-0.155718	-0.00188269	0.00615375	8.63262E-05	0	0	0	
0.1235	0.157794	0.00193591	0.00613486	8.52431E-05	0	0	0	
0.123667	-0.161657	-0.00201857	0.006143	8.50669E-05	0	0	0	
0.123833	0.159076	0.0020282	0.00613992	8.49222E-05	0	0	0	
0.124	-0.158706	-0.00186653	0.00609833	8.45278E-05	0	0	0	
0.124167	0.155603	0.00178789	0.00606237	8.43056E-05	0	0	0	
0.124333	-0.156907	-0.00203818	0.00604943	8.47813E-05	0	0	0	
0.1245	0.160217	0.00214438	0.00608315	8.60257E-05	0	0	0	
0.124667	-0.165504	-0.00228868	0.00612432	8.69354E-05	0	0	0	
0.124833	0.165672	0.002258	0.00615618	8.72983E-05	0	0	0	
0.125	-0.165652	-0.00212353	0.00614492	8.66082E-05	0	0	0	
0.125167	0.164056	0.00201041	0.00611495	8.59837E-05	0	0	0	
0.125333	-0.164557	-0.00198904	0.00607861	8.54724E-05	0	0	0	
0.1255	0.164727	0.0019898	0.00606941	8.55739E-05	0	0	0	
0.125667	-0.167235	-0.00217108	0.00607833	8.59559E-05	0	0	0	
0.125833	0.168189	0.00211884	0.0061087	8.66791E-05	0	0	0	
0.126	-0.168628	-0.00203777	0.00611873	8.66294E-05	0	0	0	
0.126167	0.167238	0.00201113	0.00610499	8.64229E-05	0	0	0	
0.126333	-0.169273	-0.00212141	0.00608123	8.64414E-05	0	0	0	
0.1265	0.170957	0.00205626	0.00608855	8.72725E-05	0	0	0	
0.126667	-0.172171	-0.00217976	0.00610616	8.7539E-05	0	0	0	
0.126833	0.170626	0.00218243	0.0061218	8.75768E-05	0	0	0	
0.127	-0.173514	-0.00224162	0.00612034	8.71322E-05	0	0	0	
0.127167	0.175224	0.00214079	0.00612352	8.72715E-05	0	0	0	
0.127333	-0.175565	-0.00215105	0.00611559	8.67225E-05	0	0	0	
0.1275	0.174791	0.00211742	0.00610781	8.66643E-05	0	0	0	
0.127667	-0.175972	-0.00210168	0.00609506	8.63391E-05	0	0	0	
0.127833	0.173832	0.00214409	0.00609287	8.6049E-05	0	0	0	
0.128	-0.175427	-0.00213737	0.00608301	8.52744E-05	0	0	0	
0.128167	0.177138	0.00210778	0.00609144	8.50576E-05	0	0	0	
0.128333	-0.180072	-0.0021525	0.00610626	8.53214E-05	0	0	0	
0.1285	0.179856	0.00227458	0.00612932	8.57266E-05	0	0	0	
0.128667	-0.18044	-0.00225871	0.00612427	8.58206E-05	0	0	0	
0.128833	0.179272	0.00231751	0.00611248	8.5808E-05	0	0	0	
0.129	-0.181398	-0.00232121	0.00609432	8.61658E-05	0	0	0	
0.129167	0.183338	0.00240356	0.00609655	8.65087E-05	0	0	0	
0.129333	-0.18502	-0.00237627	0.0061042	8.68637E-05	0	0	0	
0.1295	0.184737	0.0023794	0.00612633	8.68146E-05	0	0	0	
0.129667	-0.186007	-0.0024069	0.00613253	8.67502E-05	0	0	0	
0.129833	0.184482	0.00244943	0.00612746	8.67818E-05	0	0	0	
0.13	-0.185482	-0.00232497	0.00610445	8.68183E-05	0	0	0	
0.130167	0.186977	0.00231858	0.00610651	8.65434E-05	0	0	0	
0.130333	-0.189621	-0.00235405	0.00612954	8.62601E-05	0	0	0	
0.1305	0.189346	0.00248712	0.00616413	8.62735E-05	0	0	0	
0.130667	-0.190074	-0.00247192	0.00616343	8.66549E-05	0	0	0	
0.130833	0.189539	0.00239261	0.00614653	8.62783E-05	0	0	0	
0.131	-0.190822	-0.0023163	0.00612525	8.54258E-05	0	0	0	
0.131167	0.190361	0.00236621	0.00612721	8.49685E-05	0	0	0	
0.131333	-0.191041	-0.00251343	0.00612086	8.54109E-05	0	0	0	
0.1315	0.19044	0.00259942	0.0061177	8.6336E-05	0	0	0	
0.131667	-0.192247	-0.00255017	0.0061047	8.65936E-05	0	0	0	
0.131833	0.194032	0.00241839	0.0061111	8.63218E-05	0	0	0	
0.132	-0.196097	-0.00251061	0.00611827	8.57566E-05	0	0	0	
0.132167	0.195888	0.00256959	0.00613124	8.59791E-05	0	0	0	
0.132333	-0.196628	-0.00248343	0.0061259	8.63041E-05	0	0	0	
0.1325	0.197142	0.00252698	0.00612144	8.65193E-05	0	0	0	
0.132667	-0.198264	-0.00260542	0.00611034	8.65201E-05	0	0	0	
0.132833	0.198439	0.00252427	0.00610496	8.66543E-05	0	0	0	
0.133	-0.19927	-0.00252603	0.00609513	8.61172E-05	0	0	0	
0.133167	0.199284	0.00255124	0.00610011	8.57261E-05	0	0	0	
0.133333	-0.200748	-0.00254802	0.0061082	8.55506E-05	0	0	0	
0.1335	0.200895	0.00246733	0.00612113	8.58926E-05	0	0	0	
0.133667	-0.202955	-0.00249357	0.00611779	8.53382E-05	0	0	0	
0.133833	0.20273	0.00248711	0.00611915	8.50836E-05	0	0	0	
0.134	-0.205004	-0.0026386	0.00611519	8.54347E-05	0	0	0	
0.134167	0.204209	0.00277407	0.00612675	8.66964E-05	0	0	0	
0.134333	-0.205593	-0.00276299	0.00612639	8.71143E-05	0	0	0	
0.1345	0.205796	0.00264716	0.00613004	8.66926E-05	0	0	0	
0.134667	-0.207036	-0.00255488	0.00611746	8.52108E-05	0	0	0	
0.134833	0.206236	0.00252466	0.00611576	8.37991E-05	0	0	0	
0.135	-0.207574	-0.00261903	0.00610788	8.3049E-05	0	0	0	
0.135167	0.206638	0.00264286	0.00611438	8.4276E-05	0	0	0	
0.135333	-0.207587	-0.0027526	0.00611195	8.63962E-05	0	0	0	
0.1355	0.209317	0.00283519	0.00612282	8.85411E-05	0	0	0	
0.135667	-0.211561	-0.00283394	0.0061277	8.87659E-05	0	0	0	
0.135833	0.210649	0.00270134	0.00613666	8.79641E-05	0	0	0	
0.136	-0.211024	-0.00277123	0.00612441	8.65894E-05	0	0	0	
0.136167	0.210618	0.00280788	0.0061147	8.64406E-05	0	0	0	
0.136333	-0.212106	-0.00277803	0.00610499	8.67278E-05	0	0	0	
0.1365	0.213181	0.00276698	0.00610781	8.72244E-05	0	0	0	
0.136667	-0.21418	-0.00273346	0.00610528	8.72936E-05	0	0	0	
0.136833	0.213446	0.00272564	0.00611046	8.75089E-05	0	0	0	
0.137	-0.215851	-0.00270632	0.00611792	8.7235E-05	0	0	0	
0.137167	0.216583	0.00278981	0.00613149	8.63707E-05	0	0	0	
0.137333	-0.216497	-0.00280097	0.0061296	8.6076E-05	0	0	0	
0.1375	0.216625	0.00287609	0.0061242	8.68806E-05	0	0	0	
0.137667	-0.219752	-0.00293676	0.00611729	8.76992E-05	0	0	0	
0.137833	0.21865	0.0028613	0.00612811	8.72957E-05	0	0	0	
0.138	-0.219244	-0.00273685	0.00613051	8.61681E-05	0	0	0	
0.138167	0.219482	0.00283239	0.00613497	8.50817E-05	0	0	0	
0.138333	-0.220457	-0.00285317	0.00612825	8.50183E-05	0	0	0	
0.1385	0.220493	0.00284114	0.00612766	8.51534E-05	0	0	0	
0.138667	-0.221166	-0.00286835	0.00611494	8.53602E-05	0	0	0	
0.138833	0.221072	0.00296084	0.00611303	8.53765E-05	0	0	0	
0.139	-0.222225	-0.00290645	0.00611619	8.5789E-05	0	0	0	
0.139167	0.223686	0.00290052	0.00613172	8.59053E-05	0	0	0	
0.139333	-0.22468	-0.00292051	0.0061324	8.55899E-05	0	0	0	
0.1395	0.224196	0.0029553	0.0061288	8.52399E-05	0	0	0	
0.139667	-0.224927	-0.00300662	0.00611485	8.55441E-05	0	0	0	
0.139833	0.225256	0.00313845	0.00611605	8.62092E-05	0	0	0	
0.14	-0.226353	-0.00305183	0.00611898	8.66179E-05	0	0	0	
0.140167	0.226735	0.00299964	0.0061248	8.59573E-05	0	0	0	
0.140333	-0.22794	-0.00285134	0.00611805	8.46092E-05	0	0	0	
0.1405	0.228277	0.00285222	0.00611723	8.34369E-05	0	0	0	
0.140667	-0.228888	-0.0029015	0.00611455	8.37477E-05	0	0	0	
0.140833	0.228159	0.00301117	0.00611852	8.50235E-05	0	0	0	
0.141	-0.229403	-0.00305981	0.00611497	8.68935E-05	0	0	0	
0.141167	0.230627	0.00325187	0.00612322	8.82698E-05	0	0	0	
0.141333	-0.233199	-0.00317504	0.00612492	8.88294E-05	0	0	0	
0.1415	0.233037	0.00309803	0.00613744	8.71947E-05	0	0	0	
0.141667	-0.233726	-0.00306824	0.00613475	8.54181E-05	0	0	0	
0.141833	0.232875	0.00303412	0.00613818	8.43475E-05	0	0	0	
0.142	-0.234002	-0.00298311	0.00612569	8.43728E-05	0	0	0	
0.142167	0.234178	0.00290116	0.00612636	8.41582E-05	0	0	0	
0.142333	-0.234296	-0.00300479	0.00611836	8.42198E-05	0	0	0	
0.1425	0.235211	0.0032023	0.00612584	8.56825E-05	0	0	0	
0.142667	-0.236383	-0.00327606	0.0061286	8.7806E-05	0	0	0	
0.142833	0.23698	0.00318259	0.00614084	8.84904E-05	0	0	0	
0.143	-0.237893	-0.00317101	0.00613805	8.75859E-05	0	0	0	
0.143167	0.237829	0.00316851	0.00613896	8.62889E-05	0	0	0	
0.143333	-0.238447	-0.00317501	0.00612973	8.54145E-05	0	0	0	
0.1435	0.238683	0.00312871	0.00612811	8.53232E-05	0	0	0	
0.143667	-0.239572	-0.00310844	0.00611697	8.56613E-05	0	0	0	
0.143833	0.238687	0.00310255	0.00611472	8.60386E-05	0	0	0	
0.144	-0.240576	-0.00316934	0.00610745	8.59644E-05	0	0	0	
0.144167	0.241054	0.00310733	0.00611482	8.5723E-05	0	0	0	
0.144333	-0.241802	-0.00318356	0.00611511	8.52847E-05	0	0	0	
0.1445	0.242234	0.0031052	0.00612407	8.51376E-05	0	0	0	
0.144667	-0.243232	-0.00314718	0.00612059	8.4787E-05	0	0	0	
0.144833	0.243281	0.00313429	0.0061297	8.53506E-05	0	0	0	
0.145	-0.245673	-0.00333536	0.00612752	8.56648E-05	0	0	0	
0.145167	0.24576	0.00338479	0.00613665	8.65288E-05	0	0	0	
0.145333	-0.245148	-0.00341168	0.00613034	8.64117E-05	0	0	0	
0.1455	0.245491	0.00337664	0.00613452	8.62789E-05	0	0	0	
0.145667	-0.247065	-0.00333555	0.00612824	8.51283E-05	0	0	0	
0.145833	0.246427	0.00317979	0.00613223	8.48238E-05	0	0	0	
0.146	-0.247183	-0.00321628	0.00612243	8.45005E-05	0	0	0	
0.146167	0.248237	0.00331532	0.00612334	8.59071E-05	0	0	0	
0.146333	-0.248256	-0.00345443	0.00612147	8.76474E-05	0	0	0	
0.1465	0.248453	0.00354092	0.0061316	8.97367E-05	0	0	0	
0.146667	-0.249257	-0.00349575	0.00612854	8.98352E-05	0	0	0	
0.146833	0.249645	0.0033719	0.00613156	8.8783E-05	0	0	0	
0.147	-0.251861	-0.00330214	0.00612916	8.70358E-05	0	0	0	
0.147167	0.252525	0.00327492	0.00613753	8.6021E-05	0	0	0	
0.147333	-0.251876	-0.00329813	0.00612904	8.5398E-05	0	0	0	
0.1475	0.249755	0.00330331	0.00611718	8.56284E-05	0	0	0	
0.147667	-0.250954	-0.00337322	0.00609167	8.60026E-05	0	0	0	
0.147833	0.252161	0.0034428	0.00609347	8.67323E-05	0	0	0	
0.148	-0.254899	-0.00346218	0.00610625	8.67659E-05	0	0	0	
0.148167	0.255628	0.00345878	0.00613328	8.64524E-05	0	0	0	
0.148333	-0.255167	-0.00337241	0.00613298	8.56786E-05	0	0	0	
0.1485	0.25489	0.00328809	0.0061287	8.53377E-05	0	0	0	
0.148667	-0.256566	-0.00336812	0.00611202	8.53669E-05	0	0	0	
0.148833	0.25705	0.00349625	0.00611654	8.60405E-05	0	0	0	
0.149	-0.257269	-0.00351295	0.00611634	8.66221E-05	0	0	0	
0.149167	0.25777	0.00357013	0.00612986	8.73937E-05	0	0	0	
0.149333	-0.258527	-0.00353471	0.0061299	8.75692E-05	0	0	0	
0.1495	0.258267	0.00351904	0.00613226	8.74724E-05	0	0	0	
0.149667	-0.258287	-0.00343431	0.00611913	8.69601E-05	0	0	0	
0.149833	0.259622	0.00346538	0.00612252	8.68004E-05	0	0	0	
0.15	-0.262545	-0.00365889	0.00613818	8.83989E-05	0	0	0	
0.150167	0.263341	0.00412303	0.00616295	9.07721E-05	0	0	0	
0.150333	-0.261446	-0.00325642	0.00615464	8.88202E-05	0	0	0	
0.1505	0.260028	0.00214954	0.00612282	6.7378E-05	0	0	0	
0.150667	-0.259928	-0.00101969	0.00608883	5.25893E-05	0	0	0	
0.150833	0.259349	-0.000511791	0.00608648	5.34239E-05	0	0	0	
0.151	-0.262648	-0.00280738	0.00609839	8.35876E-05	0	0	0	
0.151167	0.263278	0.00438554	0.00612508	0.000104469	0	0	0	
0.151333	-0.26531	-0.00460563	0.0061316	0.00011073	0	0	0	
0.1515	0.265968	0.00390217	0.00614578	9.96689E-05	0	0	0	
0.151667	-0.266745	-0.00494446	0.00613951	9.59552E-05	0	0	0	
0.151833	0.263999	0.000576957	0.00613965	8.26563E-05	0	0	0	
0.152	-0.265271	-0.000915742	0.00611667	6.16305E-05	0	0	0	
0.152167	0.266109	0.00247371	0.00611365	5.03248E-05	0	0	0	
0.152333	-0.265621	-0.00376684	0.00610381	6.0651E-05	0	0	0	
0.1525	0.265642	0.00390408	0.00611138	8.42481E-05	0	0	0	
0.152667	-0.268648	-0.0038679	0.00611455	9.17534E-05	0	0	0	
0.152833	0.274457	0.00442578	0.00615185	9.07706E-05	0	0	0	
0.153	-0.269211	-0.00253055	0.00614227	8.22483E-05	0	0	0	
0.153167	0.229014	-0.00564491	0.00599248	6.64283E-05	0	0	0	
0.153333	-0.183741	0.013032	0.0055407	0.000104102	0	0	0	
0.1535	0.221149	-0.00471281	0.00513606	0.000141916	0	0	0	
0.153667	-0.259289	-0.00294242	0.00520498	0.000187259	0	0	0	
0.153833	0.278618	0.00581017	0.00568947	0.000167532	0	0	0	
0.154	-0.28393	-0.00606611	0.00617588	0.000148468	0	0	0	
0.154167	0.277818	0.00411603	0.00627449	0.000119879	0	0	0	
0.154333	-0.249306	0.00299484	0.0060355	0.000109444	0	0	0	
0.1545	0.254156	-0.00236992	0.00563321	0.000130349	0	0	0	
0.154667	-0.255159	0.000878603	0.00543597	0.000124696	0	0	0	
0.154833	0.259011	0.0017467	0.00552918	0.000110864	0	0	0	
0.155	-0.272144	-0.0041086	0.0058508	8.355E-05	0	0	0	
0.155167	0.275665	0.00389167	0.00603929	8.89027E-05	0	0	0	
0.155333	-0.270691	-0.00267474	0.0061086	9.00121E-05	0	0	0	
0.1555	0.267579	0.00241587	0.00610453	8.25866E-05	0	0	0	
0.155667	-0.272556	-0.00339149	0.00608687	8.61253E-05	0	0	0	
0.155833	0.277245	0.00407523	0.00611876	9.43753E-05	0	0	0	
0.156	-0.276794	-0.00371348	0.00613896	9.73312E-05	0	0	0	
0.156167	0.27775	0.00395139	0.00614709	9.43849E-05	0	0	0	
0.156333	-0.285769	-0.00583136	0.00614813	9.56639E-05	0	0	0	
0.1565	0.32068	0.013805	0.00631116	0.000135851	0	0	0	
0.156667	-0.302816	-0.0112871	0.00658231	0.000196898	0	0	0	
0.156833	0.266419	0.00287318	0.00668868	0.000237665	0	0	0	
0.157	-0.280311	-0.00439734	0.00652306	0.000204984	0	0	0	
0.157167	0.281936	0.00396457	0.00627089	0.000143957	0	0	0	
0.157333	-0.282626	-0.00386429	0.00616364	9.82475E-05	0	0	0	
0.1575	0.299694	0.00809171	0.00623096	0.000101841	0	0	0	
0.157667	-0.269162	-0.00323472	0.00641089	0.000149616	0	0	0	
0.157833	0.235611	-0.00385042	0.00637819	0.000181303	0	0	0	
0.158	-0.266468	-0.00122334	0.00612905	0.000179797	0	0	0	
0.158167	0.279551	0.00371118	0.00590672	0.000130606	0	0	0	
0.158333	-0.284504	-0.00448243	0.00593531	0.000101932	0	0	0	
0.1585	0.283886	0.00424416	0.00613327	9.30747E-05	0	0	0	
0.158667	-0.284737	-0.00406174	0.0061514	9.1797E-05	0	0	0	
0.158833	0.286185	0.00429083	0.00615606	8.92468E-05	0	0	0	
0.159	-0.287454	-0.00430267	0.00616793	9.02968E-05	0	0	0	
0.159167	0.28668	0.00421224	0.00619319	9.33985E-05	0	0	0	
0.159333	-0.285246	-0.00396082	0.00618069	9.24878E-05	0	0	0	
0.1595	0.283945	0.0037142	0.00615619	8.83988E-05	0	0	0	
0.159667	-0.284225	-0.00360326	0.00612418	8.45662E-05	0	0	0	
0.159833	0.285517	0.0037535	0.00611849	8.3026E-05	0	0	0	
0.16	-0.2879	-0.00364293	0.00611619	8.28502E-05	0	0	0	
0.160167	0.286425	0.00391382	0.00613308	8.26698E-05	0	0	0	
0.160333	-0.286468	-0.00382407	0.00613168	8.28339E-05	0	0	0	
0.1605	0.286519	0.00376495	0.00613301	8.30104E-05	0	0	0	
0.160667	-0.286508	-0.00381715	0.00611934	8.34136E-05	0	0	0	
0.160833	0.287501	0.00384126	0.00612429	8.37047E-05	0	0	0	
0.161	-0.289561	-0.00389356	0.00612598	8.49874E-05	0	0	0	
0.161167	0.289393	0.00389804	0.00614205	8.5974E-05	0	0	0	
0.161333	-0.288833	-0.00391413	0.00613797	8.65594E-05	0	0	0	
0.1615	0.28846	0.00393589	0.00613667	8.60908E-05	0	0	0	
0.161667	-0.28936	-0.00398513	0.00612446	8.60265E-05	0	0	0	
0.161833	0.289715	0.0040114	0.00612668	8.60957E-05	0	0	0	
0.162	-0.290025	-0.00401526	0.00612106	8.61992E-05	0	0	0	
0.162167	0.289857	0.00384361	0.00612469	8.55868E-05	0	0	0	
0.162333	-0.289865	-0.00387037	0.00612034	8.47473E-05	0	0	0	
0.1625	0.291441	0.0038764	0.00612733	8.44349E-05	0	0	0	
0.162667	-0.292293	-0.003967	0.00612873	8.48711E-05	0	0	0	
0.162833	0.291938	0.00404758	0.00613654	8.60685E-05	0	0	0	
0.163	-0.291969	-0.00418099	0.0061288	8.72704E-05	0	0	0	
0.163167	0.292203	0.00421081	0.00612506	8.86386E-05	0	0	0	
0.163333	-0.291678	-0.00408119	0.00611233	8.89031E-05	0	0	0	
0.1635	0.292139	0.00391319	0.006107	8.76873E-05	0	0	0	
0.163667	-0.29333	-0.00391509	0.00610462	8.57215E-05	0	0	0	
0.163833	0.294193	0.00407695	0.00611679	8.5117E-05	0	0	0	
0.164	-0.294054	-0.00413076	0.0061254	8.60024E-05	0	0	0	
0.164167	0.294859	0.00407055	0.0061281	8.71055E-05	0	0	0	
0.164333	-0.294264	-0.00401473	0.00612213	8.7168E-05	0	0	0	
0.1645	0.295358	0.00418005	0.00612342	8.67666E-05	0	0	0	
0.164667	-0.296649	-0.00417422	0.006125	8.72098E-05	0	0	0	
0.164833	0.296544	0.00406755	0.00613581	8.75685E-05	0	0	0	
0.165	-0.296075	-0.00405347	0.00613517	8.74551E-05	0	0	0	
0.165167	0.296673	0.00412269	0.00613447	8.70418E-05	0	0	0	
0.165333	-0.296301	-0.00413879	0.00612372	8.72379E-05	0	0	0	
0.1655	0.296734	0.00412525	0.00612254	8.77802E-05	0	0	0	
0.165667	-0.29665	-0.00407155	0.00611688	8.83027E-05	0	0	0	
0.165833	0.297842	0.00406886	0.00612274	8.80186E-05	0	0	0	
0.166	-0.298122	-0.00409108	0.00612764	8.72523E-05	0	0	0	
0.166167	0.298865	0.00406858	0.00613893	8.60802E-05	0	0	0	
0.166333	-0.297915	-0.00403868	0.006131	8.52417E-05	0	0	0	
0.1665	0.298402	0.00405822	0.00612628	8.54025E-05	0	0	0	
0.166667	-0.299587	-0.00405978	0.00611858	8.57603E-05	0	0	0	
0.166833	0.300576	0.00411714	0.00613145	8.63221E-05	0	0	0	
0.167	-0.299449	-0.00418656	0.00613051	8.65586E-05	0	0	0	
0.167167	0.297969	0.00423123	0.00612259	8.71022E-05	0	0	0	
0.167333	-0.29784	-0.00413715	0.00609666	8.74068E-05	0	0	0	
0.1675	0.30018	0.00417019	0.00609454	8.75037E-05	0	0	0	
0.167667	-0.301545	-0.00413593	0.00610464	8.73877E-05	0	0	0	
0.167833	0.301402	0.00423731	0.00612808	8.7694E-05	0	0	0	
0.168	-0.30074	-0.00423455	0.00612666	8.82457E-05	0	0	0	
0.168167	0.301654	0.00420518	0.0061253	8.82932E-05	0	0	0	
0.168333	-0.301887	-0.00415785	0.00611367	8.79262E-05	0	0	0	
0.1685	0.301318	0.00408807	0.00611959	8.70126E-05	0	0	0	
0.168667	-0.300964	-0.00406722	0.00611407	8.60816E-05	0	0	0	
0.168833	0.302777	0.0042104	0.00612406	8.6114E-05	0	0	0	
0.169	-0.304952	-0.00439812	0.0061305	8.74509E-05	0	0	0	
0.169167	0.30474	0.00438125	0.00614528	8.92939E-05	0	0	0	
0.169333	-0.301821	-0.00428272	0.00613226	8.97625E-05	0	0	0	
0.1695	0.301137	0.00421035	0.00611439	8.869E-05	0	0	0	
0.169667	-0.301792	-0.00417348	0.00609538	8.73043E-05	0	0	0	
0.169833	0.303598	0.00419455	0.00610447	8.66862E-05	0	0	0	
0.17	-0.3046	-0.00424731	0.00611281	8.71268E-05	0	0	0	
0.170167	0.3048	0.00427718	0.0061251	8.7867E-05	0	0	0	
0.170333	-0.30478	-0.00423797	0.0061206	8.80134E-05	0	0	0	
0.1705	0.304363	0.00414086	0.00612236	8.71665E-05	0	0	0	
0.170667	-0.303662	-0.00410986	0.00610933	8.60117E-05	0	0	0	
0.170833	0.303153	0.00409895	0.00610323	8.52873E-05	0	0	0	
0.171	-0.305195	-0.00422989	0.00609369	8.55553E-05	0	0	0	
0.171167	0.307305	0.00430812	0.00611088	8.62637E-05	0	0	0	
0.171333	-0.307478	-0.00425179	0.00612461	8.71476E-05	0	0	0	
0.1715	0.306595	0.00424552	0.00614064	8.68752E-05	0	0	0	
0.171667	-0.30574	-0.00417544	0.00612805	8.60724E-05	0	0	0	
0.171833	0.306591	0.0041243	0.00612284	8.49104E-05	0	0	0	
0.172	-0.308153	-0.00415219	0.00611359	8.4457E-05	0	0	0	
0.172167	0.309002	0.00418277	0.0061286	8.43206E-05	0	0	0	
0.172333	-0.307655	-0.00420246	0.00612937	8.5121E-05	0	0	0	
0.1725	0.307078	0.00419262	0.00613256	8.54715E-05	0	0	0	
0.172667	-0.30721	-0.00435958	0.00611703	8.62325E-05	0	0	0	
0.172833	0.308586	0.00438112	0.00611783	8.68866E-05	0	0	0	
0.173	-0.30879	-0.00433458	0.00611732	8.78205E-05	0	0	0	
0.173167	0.309847	0.0043031	0.00613068	8.80238E-05	0	0	0	
0.173333	-0.309005	-0.00427506	0.00613509	8.72043E-05	0	0	0	
0.1735	0.308907	0.00421949	0.00613691	8.68528E-05	0	0	0	
0.173667	-0.308578	-0.00438256	0.0061236	8.67299E-05	0	0	0	
0.173833	0.309181	0.00444859	0.00611638	8.76485E-05	0	0	0	
0.174	-0.309764	-0.00436871	0.00611216	8.81177E-05	0	0	0	
0.174167	0.310275	0.00426423	0.00612158	8.78456E-05	0	0	0	
0.174333	-0.309806	-0.00406154	0.00612146	8.6012E-05	0	0	0	
0.1745	0.309432	0.00412496	0.006122	8.41428E-05	0	0	0	
0.174667	-0.310173	-0.00421624	0.00610984	8.36492E-05	0	0	0	
0.174833	0.310443	0.00433981	0.00611114	8.46172E-05	0	0	0	
0.175	-0.31034	-0.00448479	0.00610731	8.64151E-05	0	0	0	
0.175167	0.311127	0.00443439	0.00611819	8.77829E-05	0	0	0	
0.175333	-0.311306	-0.00431872	0.00611822	8.7858E-05	0	0	0	
0.1755	0.31183	0.00430589	0.006128	8.69326E-05	0	0	0	
0.175667	-0.311804	-0.00434339	0.0061239	8.58298E-05	0	0	0	
0.175833	0.312147	0.00433624	0.00612817	8.56649E-05	0	0	0	
0.176	-0.311145	-0.00434464	0.00612037	8.56804E-05	0	0	0	
0.176167	0.311665	0.00430236	0.00611949	8.58768E-05	0	0	0	
0.176333	-0.311986	-0.00429715	0.00611057	8.56961E-05	0	0	0	
0.1765	0.312873	0.00440139	0.00611582	8.59477E-05	0	0	0	
0.176667	-0.313077	-0.00433096	0.00611913	8.63364E-05	0	0	0	
0.176833	0.313085	0.00428386	0.00612761	8.66746E-05	0	0	0	
0.177	-0.313136	-0.0043168	0.00612899	8.65776E-05	0	0	0	
0.177167	0.313819	0.00437777	0.00613227	8.63793E-05	0	0	0	
0.177333	-0.313824	-0.00431537	0.00613174	8.63306E-05	0	0	0	
0.1775	0.314491	0.00431415	0.0061338	8.60754E-05	0	0	0	
0.177667	-0.314621	-0.00430527	0.00613507	8.58728E-05	0	0	0	
0.177833	0.314018	0.0042746	0.00613585	8.53512E-05	0	0	0	
0.178	-0.313245	-0.00425616	0.0061267	8.5094E-05	0	0	0	
0.178167	0.312068	0.00426623	0.00611526	8.47012E-05	0	0	0	
0.178333	-0.312464	-0.00429724	0.00609762	8.50648E-05	0	0	0	
0.1785	0.314841	0.00447225	0.00610087	8.56291E-05	0	0	0	
0.178667	-0.31532	-0.0044172	0.00610937	8.66749E-05	0	0	0	
0.178833	0.314738	0.00423353	0.00612537	8.65031E-05	0	0	0	
0.179	-0.314522	-0.00415783	0.00612229	8.59383E-05	0	0	0	
0.179167	0.315224	0.00466495	0.00612295	8.62097E-05	0	0	0	
0.179333	-0.314193	-0.00555452	0.00611524	9.06106E-05	0	0	0	
0.1795	0.315868	0.00648638	0.00611805	0.000103217	0	0	0	
0.179667	-0.315089	-0.00507049	0.00611394	0.000109799	0	0	0	
0.179833	0.315433	0.00409829	0.00611838	0.000106244	0	0	0	
0.18	-0.31395	-0.00386934	0.00610926	9.16904E-05	0	0	0	
0.180167	0.314909	0.00401279	0.0061041	8.17326E-05	0	0	0	
0.180333	-0.3154	-0.00462698	0.0061014	8.1589E-05	0	0	0	
0.1805	0.318114	0.00615842	0.00612031	9.08202E-05	0	0	0	
0.180667	-0.318527	-0.00547738	0.00614036	0.000104561	0	0	0	
0.180833	0.317478	0.00505009	0.00615408	0.000108901	0	0	0	
0.181	-0.315163	-0.00437104	0.00614128	0.000103343	0	0	0	
0.181167	0.315498	0.00421649	0.00611986	9.11377E-05	0	0	0	
0.181333	-0.315185	-0.00434491	0.00610275	8.56672E-05	0	0	0	
0.1815	0.316847	0.0046013	0.00610642	8.49667E-05	0	0	0	
0.181667	-0.317591	-0.00457952	0.00611494	8.66314E-05	0	0	0	
0.181833	0.317978	0.00435314	0.00613112	8.74653E-05	0	0	0	
0.182	-0.316469	-0.00421241	0.00612894	8.63441E-05	0	0	0	
0.182167	0.317073	0.00432802	0.00612753	8.48991E-05	0	0	0	
0.182333	-0.317039	-0.00440392	0.00611615	8.47235E-05	0	0	0	
0.1825	0.318094	0.00441791	0.00612161	8.50291E-05	0	0	0	
0.182667	-0.317614	-0.00444088	0.00612121	8.56987E-05	0	0	0	
0.182833	0.317915	0.00432162	0.00612685	8.53757E-05	0	0	0	
0.183	-0.316669	-0.00432041	0.00612131	8.49455E-05	0	0	0	
0.183167	0.317155	0.00433284	0.00611789	8.45335E-05	0	0	0	
0.183333	-0.317049	-0.00433579	0.0061082	8.4349E-05	0	0	0	
0.1835	0.318793	0.00434901	0.00611238	8.47472E-05	0	0	0	
0.183667	-0.319631	-0.00451781	0.0061207	8.49784E-05	0	0	0	
0.183833	0.319354	0.00446399	0.00613705	8.58287E-05	0	0	0	
0.184	-0.317589	-0.00442396	0.00613317	8.60133E-05	0	0	0	
0.184167	0.317938	0.00446584	0.00612894	8.62876E-05	0	0	0	
0.184333	-0.319748	-0.00455638	0.00611964	8.6471E-05	0	0	0	
0.1845	0.32048	0.00455872	0.00613486	8.76457E-05	0	0	0	
0.184667	-0.319168	-0.00454044	0.00613843	8.80037E-05	0	0	0	
0.184833	0.318458	0.00451199	0.00614033	8.82868E-05	0	0	0	
0.185	-0.317668	-0.00453064	0.00611972	8.78996E-05	0	0	0	
0.185167	0.318825	0.00445835	0.00611425	8.75107E-05	0	0	0	
0.185333	-0.318499	-0.00434913	0.00610816	8.62176E-05	0	0	0	
0.1855	0.31909	0.00435055	0.00612083	8.524E-05	0	0	0	
0.185667	-0.319412	-0.00450776	0.00612075	8.49547E-05	0	0	0	
0.185833	0.321008	0.00449103	0.0061327	8.57213E-05	0	0	0	
0.186	-0.319551	-0.00388453	0.00613052	8.4504E-05	0	0	0	
0.186167	0.318783	0.00435129	0.00613436	8.41563E-05	0	0	0	
0.186333	-0.317814	-0.00404325	0.00611828	9.80644E-05	0	0	0	
0.1865	0.321137	0.00732948	0.00611742	0.000109058	0	0	0	
0.186667	-0.321616	-0.00857258	0.00612736	0.000136963	0	0	0	
0.186833	0.320555	0.00565564	0.00614451	0.000137517	0	0	0	
0.187	-0.319037	-0.00395709	0.00614204	0.000130457	0	0	0	
0.187167	0.319803	0.00341977	0.00613157	9.88918E-05	0	0	0	
0.187333	-0.318699	-0.00256472	0.00611866	8.01307E-05	0	0	0	
0.1875	0.31951	0.00271073	0.00611401	6.98239E-05	0	0	0	
0.187667	-0.32079	-0.00689218	0.00611322	8.12847E-05	0	0	0	
0.187833	0.321044	0.00626906	0.00612438	0.000103737	0	0	0	
0.188	-0.321104	-0.00566309	0.00613234	0.000119459	0	0	0	
0.188167	0.319966	0.00440163	0.00614022	0.000115345	0	0	0	
0.188333	-0.321	-0.00480693	0.00613522	9.81912E-05	0	0	0	
0.1885	0.328881	0.00674424	0.00616329	9.8922E-05	0	0	0	
0.188667	-0.325736	-0.00497221	0.00618453	0.000103575	0	0	0	
0.188833	0.296186	-0.0035828	0.00607686	0.000133221	0	0	0	
0.189	-0.316512	-0.000970087	0.00599603	0.00014664	0	0	0	
0.189167	0.277642	-0.00340755	0.00580662	0.000146589	0	0	0	
0.189333	-0.311664	-0.00454472	0.0057673	0.000145113	0	0	0	
0.1895	0.331621	0.00703006	0.00583133	0.000135279	0	0	0	
0.189667	-0.326348	-0.0046892	0.00603645	0.000134664	0	0	0	
0.189833	0.316612	0.00273888	0.00619325	0.000101569	0	0	0	
0.19	-0.314663	-0.00339659	0.00615302	8.44746E-05	0	0	0	
0.190167	0.322428	0.00571676	0.00609607	8.20432E-05	0	0	0	
0.190333	-0.32541	-0.00608307	0.00610227	9.44312E-05	0	0	0	
0.1905	0.324035	0.00475098	0.00614799	0.000104542	0	0	0	
0.190667	-0.321941	-0.00377295	0.00618046	9.88283E-05	0	0	0	
0.190833	0.322452	0.00416731	0.00617889	8.71818E-05	0	0	0	
0.191	-0.321625	-0.0048619	0.00616867	8.30205E-05	0	0	0	
0.191167	0.323346	0.00510445	0.00615852	8.68234E-05	0	0	0	
0.191333	-0.321778	-0.00465241	0.00615144	9.19299E-05	0	0	0	
0.1915	0.320296	0.00431234	0.00614638	9.09234E-05	0	0	0	
0.191667	-0.323273	-0.00448144	0.00614146	8.78755E-05	0	0	0	
0.191833	0.325125	0.00459782	0.00616283	8.62164E-05	0	0	0	
0.192	-0.325205	-0.00470959	0.00618471	8.72392E-05	0	0	0	
0.192167	0.323502	0.00455506	0.00620078	8.82172E-05	0	0	0	
0.192333	-0.32114	-0.00444635	0.00617438	8.76888E-05	0	0	0	
0.1925	0.31963	0.00439638	0.00615003	8.67174E-05	0	0	0	
0.192667	-0.320551	-0.00450802	0.00612308	8.56404E-05	0	0	0	
0.192833	0.324454	0.00472159	0.00613706	8.65166E-05	0	0	0	
0.193	-0.323071	-0.00461588	0.00615579	8.74233E-05	0	0	0	
0.193167	0.322076	0.00450048	0.00617878	8.82839E-05	0	0	0	
0.193333	-0.321087	-0.00455196	0.00615801	8.72887E-05	0	0	0	
0.1935	0.322288	0.00461515	0.00614664	8.72843E-05	0	0	0	
0.193667	-0.32169	-0.00455963	0.00613502	8.7296E-05	0	0	0	
0.193833	0.323674	0.00464974	0.00614779	8.79193E-05	0	0	0	
0.194	-0.323731	-0.00465567	0.00616163	8.84237E-05	0	0	0	
0.194167	0.32256	0.00476742	0.00617217	8.90632E-05	0	0	0	
0.194333	-0.320282	-0.00470278	0.00616376	9.00953E-05	0	0	0	
0.1945	0.320808	0.00456817	0.00614038	8.96172E-05	0	0	0	
0.194667	-0.32044	-0.0043462	0.00612292	8.80233E-05	0	0	0	
0.194833	0.321488	0.00436598	0.00612368	8.58728E-05	0	0	0	
0.195	-0.32404	-0.00451277	0.00613608	8.4668E-05	0	0	0	
0.195167	0.325291	0.00458217	0.00616891	8.54729E-05	0	0	0	
0.195333	-0.324429	-0.00457171	0.00619041	8.7058E-05	0	0	0	
0.1955	0.322859	0.0045314	0.00619872	8.74534E-05	0	0	0	
0.195667	-0.322302	-0.00461289	0.00617469	8.73844E-05	0	0	0	
0.195833	0.32201	0.00468834	0.00616284	8.73434E-05	0	0	0	
0.196	-0.321941	-0.00463245	0.00614906	8.79579E-05	0	0	0	
0.196167	0.324754	0.00450451	0.0061672	8.83381E-05	0	0	0	
0.196333	-0.324168	-0.00439275	0.00617939	8.73022E-05	0	0	0	
0.1965	0.323565	0.00448352	0.00619951	8.60937E-05	0	0	0	
0.196667	-0.321052	-0.00458622	0.00617782	8.53666E-05	0	0	0	
0.196833	0.321447	0.00461348	0.00615869	8.62201E-05	0	0	0	
0.197	-0.320222	-0.00453729	0.0061321	8.70135E-05	0	0	0	
0.197167	0.322909	0.00459956	0.0061358	8.75539E-05	0	0	0	
0.197333	-0.323328	-0.00446521	0.00615238	8.72548E-05	0	0	0	
0.1975	0.323759	0.00439984	0.00617583	8.6571E-05	0	0	0	
0.197667	-0.321377	-0.00449948	0.00618109	8.57211E-05	0	0	0	
0.197833	0.320632	0.00465199	0.00616145	8.56014E-05	0	0	0	
0.198	-0.319847	-0.00457832	0.00614	8.66826E-05	0	0	0	
0.198167	0.320361	0.00458942	0.00612941	8.74844E-05	0	0	0	
0.198333	-0.32254	-0.00453457	0.00613468	8.77198E-05	0	0	0	
0.1985	0.323205	0.00441409	0.00615597	8.67469E-05	0	0	0	
0.198667	-0.322579	-0.00449024	0.00617103	8.57757E-05	0	0	0	
0.198833	0.322658	0.00477187	0.00617809	8.60202E-05	0	0	0	
0.199	-0.323959	-0.00485341	0.00617262	8.81942E-05	0	0	0	
0.199167	0.322144	0.0046805	0.00617858	9.03745E-05	0	0	0	
0.199333	-0.319776	-0.00446904	0.00616978	9.00467E-05	0	0	0	
0.1995	0.322282	0.00446714	0.006168	8.79539E-05	0	0	0	
0.199667	-0.321723	-0.00443406	0.00615846	8.60615E-05	0	0	0	
0.199833	0.320487	0.00447118	0.00616748	8.52705E-05	0	0	0	
0.2	-0.319216	-0.00445847	0.00614471	8.51793E-05	0	0	0	
0.200167	0.320888	0.004515	0.0061371	8.50984E-05	0	0	0	
0.200333	-0.321311	-0.00450319	0.00613052	8.56485E-05	0	0	0	
0.2005	0.322513	0.00453392	0.00614959	8.59219E-05	0	0	0	
0.200667	-0.322065	-0.00456134	0.00616599	8.66829E-05	0	0	0	
0.200833	0.321948	0.00448377	0.00617759	8.65502E-05	0	0	0	
0.201	-0.318845	-0.00443173	0.00616868	8.61984E-05	0	0	0	
0.201167	0.319297	0.00455708	0.0061466	8.55169E-05	0	0	0	
0.201333	-0.318742	-0.00453284	0.00612648	8.60114E-05	0	0	0	
0.2015	0.31868	0.0044202	0.00612591	8.62814E-05	0	0	0	
0.201667	-0.320694	-0.0045155	0.00612862	8.62187E-05	0	0	0	
0.201833	0.322398	0.00464785	0.00614993	8.6425E-05	0	0	0	
0.202	-0.321454	-0.00455455	0.00616597	8.71605E-05	0	0	0	
0.202167	0.31973	0.00455768	0.00617519	8.7687E-05	0	0	0	
0.202333	-0.319112	-0.00453751	0.00615565	8.73732E-05	0	0	0	
0.2025	0.319298	0.00458531	0.00614443	8.69215E-05	0	0	0	
0.202667	-0.31821	-0.00448616	0.00613034	8.68696E-05	0	0	0	
0.202833	0.321648	0.00449424	0.00614476	8.63042E-05	0	0	0	
0.203	-0.320198	-0.00447485	0.00615683	8.62351E-05	0	0	0	
0.203167	0.319553	0.00440297	0.00617537	8.56597E-05	0	0	0	
0.203333	-0.318174	-0.00433551	0.00615371	8.49352E-05	0	0	0	
0.2035	0.319152	0.00435993	0.00613889	8.38347E-05	0	0	0	
0.203667	-0.318002	-0.00439139	0.00612431	8.35937E-05	0	0	0	
0.203833	0.31957	0.00447009	0.00613521	8.37994E-05	0	0	0	
0.204	-0.320299	-0.00452017	0.00615275	8.48025E-05	0	0	0	
0.204167	0.321154	0.00446944	0.00617194	8.55458E-05	0	0	0	
0.204333	-0.319177	-0.00448518	0.00617905	8.5973E-05	0	0	0	
0.2045	0.319114	0.00438987	0.00616484	8.56279E-05	0	0	0	
0.204667	-0.318226	-0.00435134	0.00615312	8.50354E-05	0	0	0	
0.204833	0.318158	0.00429854	0.00614952	8.40581E-05	0	0	0	
0.205	-0.318833	-0.00440584	0.00615268	8.37626E-05	0	0	0	
0.205167	0.319287	0.00451025	0.00616215	8.40529E-05	0	0	0	
0.205333	-0.318428	-0.00456356	0.00616385	8.55013E-05	0	0	0	
0.2055	0.318168	0.00447062	0.00615589	8.64132E-05	0	0	0	
0.205667	-0.318159	-0.00444354	0.00614268	8.60596E-05	0	0	0	
0.205833	0.316223	0.00448057	0.00613908	8.55694E-05	0	0	0	
0.206	-0.317913	-0.00459382	0.00613598	8.55159E-05	0	0	0	
0.206167	0.332214	0.00464506	0.00617808	8.71328E-05	0	0	0	
0.206333	-0.35802	-0.00504233	0.0063567	8.95066E-05	0	0	0	
0.2065	0.340531	0.00483222	0.00660179	9.27018E-05	0	0	0	
0.206667	-0.318759	-0.00445137	0.00663145	9.24781E-05	0	0	0	
0.206833	0.311552	0.00447146	0.00645415	9.00834E-05	0	0	0	
0.207	-0.310205	-0.0045364	0.00618243	8.69673E-05	0	0	0	
0.207167	0.318083	0.00455396	0.00608958	8.65832E-05	0	0	0	
0.207333	-0.337366	-0.00469734	0.00614486	8.7431E-05	0	0	0	
0.2075	0.34185	0.0047269	0.00635332	8.9275E-05	0	0	0	
0.207667	-0.326994	-0.00443714	0.00642708	8.87371E-05	0	0	0	
0.207833	0.322134	0.00452594	0.00641146	8.77541E-05	0	0	0	
0.208	-0.314406	-0.0046113	0.0062517	8.65203E-05	0	0	0	
0.208167	0.315265	0.00461035	0.00619523	8.72807E-05	0	0	0	
0.208333	-0.320118	-0.00460739	0.00616389	8.8524E-05	0	0	0	
0.2085	0.322095	0.00455525	0.00618283	8.84402E-05	0	0	0	
0.208667	-0.319373	-0.00439817	0.00622062	8.79779E-05	0	0	0	
0.208833	0.312083	0.00435952	0.00622217	8.65897E-05	0	0	0	
0.209	-0.301955	-0.00429567	0.00614547	8.52353E-05	0	0	0	
0.209167	0.288063	0.00405187	0.00599201	8.33493E-05	0	0	0	
0.209333	-0.292233	-0.00417941	0.00577601	8.12062E-05	0	0	0	
0.2095	0.317548	0.00446465	0.0057359	8.05671E-05	0	0	0	
0.209667	-0.32276	-0.00445005	0.00587378	8.22745E-05	0	0	0	
0.209833	0.320808	0.00445625	0.0061214	8.47588E-05	0	0	0	
0.21	-0.312188	-0.00440702	0.00620912	8.58939E-05	0	0	0	
0.210167	0.295478	0.00419355	0.00614743	8.50338E-05	0	0	0	
0.210333	-0.278075	-0.00391034	0.00591907	8.24609E-05	0	0	0	
0.2105	0.295257	0.00405813	0.00574693	7.95551E-05	0	0	0	
0.210667	-0.311233	-0.00435577	0.00574035	7.90392E-05	0	0	0	
0.210833	0.318403	0.00455016	0.00592649	8.15154E-05	0	0	0	
0.211	-0.314	-0.00451901	0.00610062	8.50831E-05	0	0	0	
0.211167	0.312613	0.00441162	0.00614968	8.62425E-05	0	0	0	
0.211333	-0.312556	-0.00437354	0.00614219	8.63195E-05	0	0	0	
0.2115	0.315471	0.00442195	0.00613856	8.56242E-05	0	0	0	
0.211667	-0.317673	-0.0044491	0.00615717	8.57157E-05	0	0	0	
0.211833	0.317305	0.00447376	0.00619232	8.62119E-05	0	0	0	
0.212	-0.314441	-0.00438344	0.00620466	8.6319E-05	0	0	0	
0.212167	0.313118	0.00440283	0.00619256	8.60621E-05	0	0	0	
0.212333	-0.313205	-0.00457895	0.00616429	8.59745E-05	0	0	0	
0.2125	0.313811	0.0046335	0.00615728	8.71049E-05	0	0	0	
0.212667	-0.312811	-0.00447935	0.00615857	8.81726E-05	0	0	0	
0.212833	0.315134	0.00455051	0.00617386	8.84691E-05	0	0	0	
0.213	-0.313917	-0.00450514	0.00618068	8.81284E-05	0	0	0	
0.213167	0.313537	0.00439845	0.00619036	8.7552E-05	0	0	0	
0.213333	-0.310812	-0.00431927	0.00616727	8.65523E-05	0	0	0	
0.2135	0.311184	0.00438967	0.00615191	8.57455E-05	0	0	0	
0.213667	-0.309529	-0.00443245	0.00612751	8.52787E-05	0	0	0	
0.213833	0.31084	0.00456991	0.00612705	8.5922E-05	0	0	0	
0.214	-0.312942	-0.00462659	0.00613484	8.70977E-05	0	0	0	
0.214167	0.31472	0.00456921	0.00616175	8.82361E-05	0	0	0	
0.214333	-0.311695	-0.0044787	0.00618123	8.85801E-05	0	0	0	
0.2145	0.310357	0.00437855	0.00617635	8.78268E-05	0	0	0	
0.214667	-0.3085	-0.00421724	0.00615494	8.65198E-05	0	0	0	
0.214833	0.309497	0.00426695	0.00613808	8.50414E-05	0	0	0	
0.215	-0.311084	-0.00441852	0.00613642	8.40946E-05	0	0	0	
0.215167	0.313231	0.0044844	0.00615671	8.49154E-05	0	0	0	
0.215333	-0.311894	-0.00441924	0.00617881	8.59154E-05	0	0	0	
0.2155	0.309529	0.0044222	0.00617936	8.62005E-05	0	0	0	
0.215667	-0.30966	-0.00438547	0.00615937	8.61446E-05	0	0	0	
0.215833	0.309519	0.00434134	0.00614717	8.59985E-05	0	0	0	
0.216	-0.307799	-0.0043386	0.00614036	8.56018E-05	0	0	0	
0.216167	0.311205	0.00441522	0.00615075	8.52679E-05	0	0	0	
0.216333	-0.312467	-0.00435156	0.00616448	8.52298E-05	0	0	0	
0.2165	0.310118	0.00439648	0.00618395	8.53691E-05	0	0	0	
0.216667	-0.307357	-0.00441443	0.00616796	8.5706E-05	0	0	0	
0.216833	0.307995	0.00427527	0.00615259	8.57206E-05	0	0	0	
0.217	-0.306963	-0.00425631	0.006135	8.53546E-05	0	0	0	
0.217167	0.308792	0.00440477	0.00614509	8.47316E-05	0	0	0	
0.217333	-0.309702	-0.00453337	0.00616082	8.54039E-05	0	0	0	
0.2175	0.308773	0.00445805	0.0061742	8.7205E-05	0	0	0	
0.217667	-0.305754	-0.00435251	0.00616179	8.78588E-05	0	0	0	
0.217833	0.307759	0.00429642	0.0061388	8.72241E-05	0	0	0	
0.218	-0.306861	-0.00431107	0.00613113	8.58715E-05	0	0	0	
0.218167	0.307182	0.00442774	0.00614694	8.54446E-05	0	0	0	
0.218333	-0.309091	-0.00456476	0.00616233	8.60026E-05	0	0	0	
0.2185	0.309067	0.00466185	0.00617604	8.78771E-05	0	0	0	
0.218667	-0.307106	-0.00458872	0.00618056	8.98497E-05	0	0	0	
0.218833	0.30401	0.00446945	0.00616428	9.07218E-05	0	0	0	
0.219	-0.303209	-0.00442804	0.00613626	9.00351E-05	0	0	0	
0.219167	0.304213	0.00447463	0.00611816	8.89258E-05	0	0	0	
0.219333	-0.305049	-0.00454499	0.00611709	8.86537E-05	0	0	0	
0.2195	0.307735	0.00460407	0.00614059	8.90548E-05	0	0	0	
0.219667	-0.307251	-0.00451587	0.00616295	8.99667E-05	0	0	0	
0.219833	0.306495	0.00433893	0.00618306	8.9572E-05	0	0	0	
0.22	-0.30429	-0.00429597	0.00616621	8.79557E-05	0	0	0	
0.220167	0.304736	0.00446069	0.00615857	8.64534E-05	0	0	0	
0.220333	-0.303325	-0.00457487	0.00614484	8.68662E-05	0	0	0	
0.2205	0.304561	0.00445175	0.00615254	8.81609E-05	0	0	0	
0.220667	-0.305972	-0.00441872	0.00616527	8.87649E-05	0	0	0	
0.220833	0.306175	0.00434843	0.00618104	8.78159E-05	0	0	0	
0.221	-0.303037	-0.00429627	0.00618305	8.71031E-05	0	0	0	
0.221167	0.302892	0.00432837	0.00616294	8.64348E-05	0	0	0	
0.221333	-0.301646	-0.00431489	0.00614265	8.65415E-05	0	0	0	
0.2215	0.302419	0.00425753	0.00613372	8.61233E-05	0	0	0	
0.221667	-0.304493	-0.00432125	0.00614171	8.56531E-05	0	0	0	
0.221833	0.305256	0.00439521	0.00616077	8.55659E-05	0	0	0	
0.222	-0.304863	-0.00447711	0.00617846	8.65583E-05	0	0	0	
0.222167	0.303505	0.00443037	0.00617931	8.8092E-05	0	0	0	
0.222333	-0.302681	-0.00438872	0.00617096	8.9031E-05	0	0	0	
0.2225	0.300612	0.00429492	0.00616098	8.86065E-05	0	0	0	
0.222667	-0.29867	-0.00427814	0.00615087	8.74211E-05	0	0	0	
0.222833	0.301373	0.0043645	0.00614778	8.64952E-05	0	0	0	
0.223	-0.301022	-0.00442832	0.0061442	8.67128E-05	0	0	0	
0.223167	0.30234	0.00444922	0.00614946	8.78701E-05	0	0	0	
0.223333	-0.300165	-0.00439209	0.00613907	8.84334E-05	0	0	0	
0.2235	0.300482	0.00429471	0.00614133	8.85732E-05	0	0	0	
0.223667	-0.299227	-0.00413324	0.00613984	8.71295E-05	0	0	0	
0.223833	0.301023	0.00421398	0.00615299	8.56384E-05	0	0	0	
0.224	-0.300716	-0.00436528	0.00616838	8.48915E-05	0	0	0	
0.224167	0.301224	0.00446857	0.00617601	8.60372E-05	0	0	0	
0.224333	-0.298832	-0.00431092	0.00617272	8.73395E-05	0	0	0	
0.2245	0.298323	0.00429637	0.00615261	8.76758E-05	0	0	0	
0.224667	-0.297045	-0.00431134	0.00614366	8.70454E-05	0	0	0	
0.224833	0.29786	0.00431458	0.00613824	8.67914E-05	0	0	0	
0.225	-0.29978	-0.00430881	0.00614547	8.68955E-05	0	0	0	
0.225167	0.300904	0.00428735	0.00615519	8.70467E-05	0	0	0	
0.225333	-0.300415	-0.00421749	0.00616934	8.67707E-05	0	0	0	
0.2255	0.297387	0.00416503	0.00617168	8.58075E-05	0	0	0	
0.225667	-0.295754	-0.00412503	0.00615993	8.49943E-05	0	0	0	
0.225833	0.295522	0.00414908	0.00614413	8.45551E-05	0	0	0	
0.226	-0.294965	-0.00419172	0.00612925	8.45985E-05	0	0	0	
0.226167	0.297464	0.00432538	0.00613387	8.52078E-05	0	0	0	
0.226333	-0.297696	-0.00434287	0.00614517	8.62802E-05	0	0	0	
0.2265	0.297341	0.0043558	0.00616472	8.75717E-05	0	0	0	
0.226667	-0.293989	-0.00426061	0.00615133	8.79684E-05	0	0	0	
0.226833	0.294771	0.00427315	0.0061403	8.76603E-05	0	0	0	
0.227	-0.293869	-0.00423059	0.00612532	8.72284E-05	0	0	0	
0.227167	0.295449	0.00430754	0.00613847	8.72309E-05	0	0	0	
0.227333	-0.297294	-0.00431235	0.00616102	8.76061E-05	0	0	0	
0.2275	0.297329	0.00434915	0.00618441	8.78775E-05	0	0	0	
0.227667	-0.292504	-0.00439214	0.0061842	8.8374E-05	0	0	0	
0.227833	0.292201	0.00433185	0.00615608	8.80683E-05	0	0	0	
0.228	-0.292755	-0.00429038	0.00613048	8.7889E-05	0	0	0	
0.228167	0.294198	0.00427805	0.00612921	8.74209E-05	0	0	0	
0.228333	-0.29571	-0.00418942	0.00615114	8.76046E-05	0	0	0	
0.2285	0.295871	0.00418077	0.00617433	8.71571E-05	0	0	0	
0.228667	-0.295076	-0.00420608	0.00618655	8.66543E-05	0	0	0	
0.228833	0.292767	0.00410516	0.00617519	8.54159E-05	0	0	0	
0.229	-0.2913	-0.00415383	0.00615262	8.47872E-05	0	0	0	
0.229167	0.29156	0.00429073	0.00613734	8.44701E-05	0	0	0	
0.229333	-0.291154	-0.00436005	0.00613333	8.57289E-05	0	0	0	
0.2295	0.293494	0.00424948	0.00614743	8.73263E-05	0	0	0	
0.229667	-0.292076	-0.00416376	0.00615952	8.8328E-05	0	0	0	
0.229833	0.2917	0.00407615	0.00616865	8.77889E-05	0	0	0	
0.23	-0.288291	-0.00404769	0.00613798	8.60578E-05	0	0	0	
0.230167	0.2905	0.00412054	0.0061238	8.49205E-05	0	0	0	
0.230333	-0.289746	-0.00412762	0.00611821	8.42151E-05	0	0	0	
0.2305	0.290409	0.00416035	0.00614181	8.47351E-05	0	0	0	
0.230667	-0.291912	-0.00421971	0.006164	8.51408E-05	0	0	0	
0.230833	0.292485	0.00426857	0.0061804	8.62436E-05	0	0	0	
0.231	-0.287935	-0.00412035	0.00618163	8.67558E-05	0	0	0	
0.231167	0.289074	0.00413447	0.00616493	8.68002E-05	0	0	0	
0.231333	-0.288329	-0.00411211	0.00615675	8.65053E-05	0	0	0	
0.2315	0.287507	0.00410255	0.00615472	8.62205E-05	0	0	0	
0.231667	-0.289587	-0.00411871	0.00615929	8.60239E-05	0	0	0	
0.231833	0.290526	0.0042164	0.00616373	8.61973E-05	0	0	0	
0.232	-0.290209	-0.00430412	0.00617624	8.71257E-05	0	0	0	
0.232167	0.288423	0.0043114	0.00617674	8.82338E-05	0	0	0	
0.232333	-0.288539	-0.00427092	0.00617307	8.92464E-05	0	0	0	
0.2325	0.286792	0.00418282	0.00616806	8.91691E-05	0	0	0	
0.232667	-0.285187	-0.00417726	0.00616207	8.8923E-05	0	0	0	
0.232833	0.288417	0.00426496	0.0061636	8.82642E-05	0	0	0	
0.233	-0.288134	-0.00424215	0.00616795	8.82848E-05	0	0	0	
0.233167	0.287482	0.00423856	0.00618171	8.79348E-05	0	0	0	
0.233333	-0.283589	-0.00417356	0.00616288	8.76367E-05	0	0	0	
0.2335	0.283378	0.00416996	0.00614758	8.72523E-05	0	0	0	
0.233667	-0.282073	-0.0041698	0.00612052	8.70897E-05	0	0	0	
0.233833	0.285565	0.00423466	0.00612247	8.7063E-05	0	0	0	
0.234	-0.28776	-0.00429754	0.00614399	8.77839E-05	0	0	0	
0.234167	0.287899	0.00415495	0.00617854	8.80142E-05	0	0	0	
0.234333	-0.283861	-0.00403535	0.00619662	8.79396E-05	0	0	0	
0.2345	0.282527	0.00400265	0.00617973	8.62202E-05	0	0	0	
0.234667	-0.280759	-0.00403927	0.0061584	8.51589E-05	0	0	0	
0.234833	0.280458	0.00407691	0.00613729	8.42025E-05	0	0	0	
0.235	-0.283436	-0.00417406	0.00613744	8.48988E-05	0	0	0	
0.235167	0.284961	0.00404059	0.00614825	8.5649E-05	0	0	0	
0.235333	-0.284888	-0.00399101	0.00617058	8.5991E-05	0	0	0	
0.2355	0.28169	0.00384141	0.00617408	8.4564E-05	0	0	0	
0.235667	-0.280414	-0.00380833	0.0061625	8.3126E-05	0	0	0	
0.235833	0.280622	0.0038655	0.00614724	8.17375E-05	0	0	0	
0.236	-0.280641	-0.00406774	0.0061395	8.18505E-05	0	0	0	
0.236167	0.284188	0.00422716	0.00616081	8.37826E-05	0	0	0	
0.236333	-0.282669	-0.0041184	0.00618108	8.60672E-05	0	0	0	
0.2365	0.281754	0.00399594	0.00619761	8.74969E-05	0	0	0	
0.236667	-0.278128	-0.00397435	0.00617155	8.67197E-05	0	0	0	
0.236833	0.278619	0.00406745	0.0061517	8.62801E-05	0	0	0	
0.237	-0.277425	-0.00404462	0.00613135	8.61532E-05	0	0	0	
0.237167	0.280162	0.00403254	0.00613736	8.63354E-05	0	0	0	
0.237333	-0.281353	-0.00398427	0.00615678	8.6209E-05	0	0	0	
0.2375	0.280619	0.00403182	0.00617267	8.57871E-05	0	0	0	
0.237667	-0.277398	-0.00409801	0.00617563	8.59201E-05	0	0	0	
0.237833	0.277434	0.00415398	0.00615526	8.62919E-05	0	0	0	
0.238	-0.277179	-0.00427266	0.00614703	8.75369E-05	0	0	0	
0.238167	0.278041	0.00428506	0.00614689	8.86762E-05	0	0	0	
0.238333	-0.278219	-0.00362219	0.00616533	8.99166E-05	0	0	0	
0.2385	0.269834	0.00202727	0.00616298	8.54667E-05	0	0	0	
0.238667	-0.272478	-0.00403013	0.00611745	7.71053E-05	0	0	0	
0.238833	0.29809	0.0122504	0.00610395	0.000112537	0	0	0	
0.239	-0.274901	-0.00735552	0.00598159	0.000159068	0	0	0	
0.239167	0.315942	0.0117668	0.00620777	0.000218345	0	0	0	
0.239333	-0.282048	-0.00396067	0.00639557	0.00022576	0	0	0	
0.2395	0.266107	0.00159761	0.00657652	0.000191363	0	0	0	
0.239667	-0.270564	-0.00396785	0.00636497	0.000131226	0	0	0	
0.239833	0.281463	0.00584964	0.00617391	8.93642E-05	0	0	0	
0.24	-0.277949	-0.00460754	0.00614935	9.23775E-05	0	0	0	
0.240167	0.268675	0.0011732	0.00621177	0.000108055	0	0	0	
0.240333	-0.264277	-0.000304758	0.0062013	9.59677E-05	0	0	0	
0.2405	0.269417	0.00309942	0.00613391	6.98471E-05	0	0	0	
0.240667	-0.273127	-0.00478959	0.0060852	5.88275E-05	0	0	0	
0.240833	0.273595	0.00460757	0.00610586	7.19328E-05	0	0	0	
0.241	-0.269906	-0.00381435	0.00614903	8.9745E-05	0	0	0	
0.241167	0.268997	0.0033711	0.00615484	9.29044E-05	0	0	0	
0.241333	-0.269627	-0.00264039	0.0061334	8.51666E-05	0	0	0	
0.2415	0.270197	0.00370164	0.00611808	8.36438E-05	0	0	0	
0.241667	-0.268321	-0.00355761	0.00612378	8.4221E-05	0	0	0	
0.241833	0.268169	0.00380271	0.00613022	8.73099E-05	0	0	0	
0.242	-0.266951	-0.0039826	0.00612759	8.51004E-05	0	0	0	
0.242167	0.266351	0.00400565	0.00611827	8.49609E-05	0	0	0	
0.242333	-0.266457	-0.00399461	0.00610981	8.62982E-05	0	0	0	
0.2425	0.266875	0.00388373	0.006109	8.64816E-05	0	0	0	
0.242667	-0.266031	-0.00383848	0.00611373	8.53148E-05	0	0	0	
0.242833	0.266126	0.00391939	0.00612057	8.47183E-05	0	0	0	
0.243	-0.26526	-0.00395652	0.00612072	8.53747E-05	0	0	0	
0.243167	0.266495	0.00393618	0.00612046	8.69003E-05	0	0	0	
0.243333	-0.265957	-0.00384944	0.00612309	8.73146E-05	0	0	0	
0.2435	0.265811	0.00390204	0.00613688	8.68678E-05	0	0	0	
0.243667	-0.263371	-0.00392172	0.00614386	8.61044E-05	0	0	0	
0.243833	0.263864	0.004033	0.00614145	8.64493E-05	0	0	0	
0.244	-0.263784	-0.00395857	0.00612739	8.70732E-05	0	0	0	
0.244167	0.264336	0.0039543	0.00611995	8.80557E-05	0	0	0	
0.244333	-0.263384	-0.00392101	0.00612071	8.84493E-05	0	0	0	
0.2445	0.263658	0.00391072	0.00612305	8.82092E-05	0	0	0	
0.244667	-0.263715	-0.00393805	0.00612789	8.81258E-05	0	0	0	
0.244833	0.263348	0.00382739	0.00613268	8.73919E-05	0	0	0	
0.245	-0.260708	-0.00378059	0.0061384	8.64104E-05	0	0	0	
0.245167	0.259792	0.00393663	0.00613085	8.52395E-05	0	0	0	
0.245333	-0.259992	-0.00402525	0.00611484	8.57717E-05	0	0	0	
0.2455	0.260731	0.00394253	0.00609755	8.71666E-05	0	0	0	
0.245667	-0.261109	-0.00398327	0.00609662	8.85121E-05	0	0	0	
0.245833	0.260932	0.00393986	0.00610782	8.86389E-05	0	0	0	
0.246	-0.259646	-0.00384189	0.0061209	8.77988E-05	0	0	0	
0.246167	0.259364	0.00389272	0.00613008	8.70757E-05	0	0	0	
0.246333	-0.257015	-0.00379973	0.00613137	8.65361E-05	0	0	0	
0.2465	0.255337	0.00381041	0.00612138	8.66613E-05	0	0	0	
0.246667	-0.256491	-0.00386156	0.00609907	8.66702E-05	0	0	0	
0.246833	0.25996	0.0038078	0.00609104	8.66155E-05	0	0	0	
0.247	-0.258851	-0.00369775	0.00610485	8.64244E-05	0	0	0	
0.247167	0.258821	0.00368714	0.0061393	8.53139E-05	0	0	0	
0.247333	-0.256046	-0.00380577	0.0061567	8.50344E-05	0	0	0	
0.2475	0.2546	0.0037518	0.00615174	8.54321E-05	0	0	0	
0.247667	-0.253627	-0.00373331	0.00612569	8.6744E-05	0	0	0	
0.247833	0.255704	0.00372254	0.00610562	8.64833E-05	0	0	0	
0.248	-0.256476	-0.00387791	0.00610309	8.59376E-05	0	0	0	
0.248167	0.257553	0.00380213	0.00611765	8.6354E-05	0	0	0	
0.248333	-0.256077	-0.00299898	0.00613929	8.75502E-05	0	0	0	
0.2485	0.253227	0.000853732	0.00614532	8.09844E-05	0	0	0	
0.248667	-0.251746	-0.00200861	0.00613192	6.11494E-05	0	0	0	
0.248833	0.254131	0.00575694	0.00611217	5.73423E-05	0	0	0	
0.249	-0.255306	-0.00730644	0.00611306	8.52758E-05	0	0	0	
0.249167	0.255054	0.00499542	0.00613206	0.00011807	0	0	0	
0.249333	-0.25309	-0.00346421	0.00615002	0.000128275	0	0	0	
0.2495	0.251082	0.00264733	0.00614669	0.000107285	0	0	0	
0.249667	-0.249268	-0.00103248	0.00612398	8.96188E-05	0	0	0	
0.249833	0.251175	0.00316863	0.00610613	8.19849E-05	0	0	0	
0.25	-0.251775	-0.00591115	0.00610164	8.6106E-05	0	0	0	
0.250167	0.252664	0.00506941	0.00611441	9.33171E-05	0	0	0	
0.250333	-0.251974	-0.00467136	0.00612878	9.67311E-05	0	0	0	
0.2505	0.250227	0.00360363	0.00613936	9.6494E-05	0	0	0	
0.250667	-0.248095	-0.00320792	0.00613836	9.24056E-05	0	0	0	
0.250833	0.249039	0.00354369	0.00612977	8.59203E-05	0	0	0	
0.251	-0.248298	-0.00424112	0.0061196	8.12872E-05	0	0	0	
0.251167	0.251105	0.00443575	0.00611897	8.53444E-05	0	0	0	
0.251333	-0.254363	-0.004096	0.00614518	9.64422E-05	0	0	0	
0.2515	0.249053	0.00327094	0.00615032	9.53025E-05	0	0	0	
0.251667	-0.246925	-0.00337295	0.00615662	8.98167E-05	0	0	0	
0.251833	0.248617	0.00370053	0.00613461	8.03853E-05	0	0	0	
0.252	-0.24903	-0.00384787	0.00613693	8.24676E-05	0	0	0	
0.252167	0.248914	0.00378517	0.00613586	8.53369E-05	0	0	0	
0.252333	-0.249936	-0.00402293	0.00614088	8.67141E-05	0	0	0	
0.2525	0.245373	0.00323499	0.00612303	8.18084E-05	0	0	0	
0.252667	-0.247001	-0.00374218	0.00611974	8.12598E-05	0	0	0	
0.252833	0.245229	0.00353897	0.00612026	8.25217E-05	0	0	0	
0.253	-0.243356	-0.00354884	0.00613171	8.74993E-05	0	0	0	
0.253167	0.245789	0.00361617	0.006117	8.6837E-05	0	0	0	
0.253333	-0.247578	-0.00358055	0.0061003	8.46917E-05	0	0	0	
0.2535	0.2476	0.00379869	0.00611248	8.42355E-05	0	0	0	
0.253667	-0.244503	-0.00370541	0.00614603	8.54031E-05	0	0	0	
0.253833	0.242133	0.00363239	0.00616355	8.68882E-05	0	0	0	
0.254	-0.240773	-0.00363746	0.00614921	8.69506E-05	0	0	0	
0.254167	0.242698	0.00370375	0.0061206	8.63221E-05	0	0	0	
0.254333	-0.24348	-0.0036626	0.00610823	8.66235E-05	0	0	0	
0.2545	0.243913	0.00362291	0.00611537	8.68273E-05	0	0	0	
0.254667	-0.242877	-0.00354404	0.00614032	8.63855E-05	0	0	0	
0.254833	0.242155	0.00366332	0.00615809	8.55087E-05	0	0	0	
0.255	-0.239825	-0.00361338	0.00616167	8.57775E-05	0	0	0	
0.255167	0.240454	0.00356513	0.00614362	8.64267E-05	0	0	0	
0.255333	-0.241108	-0.00370839	0.00612993	8.72135E-05	0	0	0	
0.2555	0.241719	0.00371895	0.00613016	8.74222E-05	0	0	0	
0.255667	-0.241806	-0.0035303	0.00614726	8.76672E-05	0	0	0	
0.255833	0.241157	0.00338267	0.00616466	8.74249E-05	0	0	0	
0.256	-0.238267	-0.00339441	0.00617034	8.64779E-05	0	0	0	
0.256167	0.237701	0.00341279	0.00615742	8.4949E-05	0	0	0	
0.256333	-0.237762	-0.00348486	0.00613599	8.41377E-05	0	0	0	
0.2565	0.238333	0.00359495	0.00612215	8.44208E-05	0	0	0	
0.256667	-0.237166	-0.0035918	0.00612162	8.50967E-05	0	0	0	
0.256833	0.237635	0.00363417	0.00612834	8.68085E-05	0	0	0	
0.257	-0.236246	-0.00319198	0.00612243	8.81451E-05	0	0	0	
0.257167	0.237844	0.00283694	0.00611709	8.64102E-05	0	0	0	
0.257333	-0.23718	-0.00206188	0.00612175	7.58446E-05	0	0	0	
0.2575	0.235571	0.00335899	0.00614061	6.47187E-05	0	0	0	
0.257667	-0.234209	-0.00394611	0.00614947	6.47529E-05	0	0	0	
0.257833	0.23502	0.00386726	0.0061445	7.62445E-05	0	0	0	
0.258	-0.233221	-0.00354421	0.00613386	8.84078E-05	0	0	0	
0.258167	0.232909	0.00307843	0.00612615	9.14742E-05	0	0	0	
0.258333	-0.232915	-0.00219185	0.00612291	8.71004E-05	0	0	0	
0.2585	0.23326	0.00195056	0.0061218	7.73695E-05	0	0	0	
0.258667	-0.232673	-0.00297771	0.00612373	7.08981E-05	0	0	0	
0.258833	0.232805	0.0036014	0.00612498	7.05028E-05	0	0	0	
0.259	-0.232279	-0.00354552	0.00612868	7.77395E-05	0	0	0	
0.259167	0.233419	0.00331591	0.00613473	8.34759E-05	0	0	0	
0.259333	-0.233206	-0.00336213	0.006147	8.57945E-05	0	0	0	
0.2595	0.230597	0.0035566	0.00615871	8.55636E-05	0	0	0	
0.259667	-0.228272	-0.0035672	0.00615508	8.46499E-05	0	0	0	
0.259833	0.229328	0.00356661	0.00613296	8.50824E-05	0	0	0	
0.26	-0.230429	-0.00340464	0.00611324	8.61121E-05	0	0	0	
0.260167	0.230478	0.00332664	0.00611485	8.66498E-05	0	0	0	
0.260333	-0.229343	-0.00334326	0.00613029	8.62998E-05	0	0	0	
0.2605	0.228874	0.00338413	0.00613574	8.56221E-05	0	0	0	
0.260667	-0.227956	-0.00331479	0.00612597	8.56225E-05	0	0	0	
0.260833	0.228362	0.00335546	0.00611704	8.56633E-05	0	0	0	
0.261	-0.227639	-0.00341746	0.00611895	8.57959E-05	0	0	0	
0.261167	0.227655	0.00329097	0.00612768	8.56129E-05	0	0	0	
0.261333	-0.226963	-0.0032511	0.00613622	8.54996E-05	0	0	0	
0.2615	0.225739	0.003314	0.0061401	8.46819E-05	0	0	0	
0.261667	-0.224158	-0.00338187	0.00613341	8.47031E-05	0	0	0	
0.261833	0.224605	0.00346746	0.00611349	8.53105E-05	0	0	0	
0.262	-0.225769	-0.00346982	0.00610266	8.63179E-05	0	0	0	
0.262167	0.226295	0.00356189	0.00611439	8.70808E-05	0	0	0	
0.262333	-0.224531	-0.00352061	0.0061401	8.77848E-05	0	0	0	
0.2625	0.222688	0.00333371	0.00614769	8.83186E-05	0	0	0	
0.262667	-0.222345	-0.00318815	0.00613403	8.79982E-05	0	0	0	
0.262833	0.223828	0.00321203	0.00611167	8.634E-05	0	0	0	
0.263	-0.224371	-0.00339458	0.00611313	8.50387E-05	0	0	0	
0.263167	0.224227	0.00347604	0.00613667	8.45447E-05	0	0	0	
0.263333	-0.221909	-0.0034754	0.00616026	8.5577E-05	0	0	0	
0.2635	0.220435	0.00344993	0.00615641	8.61344E-05	0	0	0	
0.263667	-0.220247	-0.00336547	0.00613726	8.63096E-05	0	0	0	
0.263833	0.220739	0.0033462	0.00612084	8.65018E-05	0	0	0	
0.264	-0.220155	-0.00328286	0.00612044	8.67229E-05	0	0	0	
0.264167	0.221151	0.00328571	0.00612525	8.65945E-05	0	0	0	
0.264333	-0.21986	-0.00330055	0.00612998	8.58179E-05	0	0	0	
0.2645	0.219199	0.00325141	0.0061259	8.51654E-05	0	0	0	
0.264667	-0.218511	-0.00321802	0.00612375	8.53045E-05	0	0	0	
0.264833	0.219096	0.0032654	0.0061269	8.57762E-05	0	0	0	
0.265	-0.217306	-0.00321981	0.00613719	8.62264E-05	0	0	0	
0.265167	0.217095	0.00316792	0.00614342	8.60945E-05	0	0	0	
0.265333	-0.21538	-0.00316183	0.00614	8.57376E-05	0	0	0	
0.2655	0.214748	0.00311331	0.00612634	8.50717E-05	0	0	0	
0.265667	-0.215221	-0.00332211	0.00611467	8.54148E-05	0	0	0	
0.265833	0.216485	0.00338973	0.00611474	8.60835E-05	0	0	0	
0.266	-0.215656	-0.003416	0.00612558	8.72003E-05	0	0	0	
0.266167	0.215475	0.00337315	0.00613438	8.78643E-05	0	0	0	
0.266333	-0.214549	-0.00326987	0.00613825	8.8378E-05	0	0	0	
0.2665	0.214704	0.00323372	0.00613724	8.8907E-05	0	0	0	
0.266667	-0.214892	-0.00322038	0.00613986	8.90673E-05	0	0	0	
0.266833	0.215015	0.00321231	0.00615029	8.84667E-05	0	0	0	
0.267	-0.211735	-0.00320553	0.00615956	8.7087E-05	0	0	0	
0.267167	0.211139	0.00332212	0.00615365	8.59697E-05	0	0	0	
0.267333	-0.211595	-0.00348882	0.00613387	8.61688E-05	0	0	0	
0.2675	0.211719	0.00347954	0.00612171	8.84181E-05	0	0	0	
0.267667	-0.210419	-0.0026365	0.00612486	9.13637E-05	0	0	0	
0.267833	0.20953	0.000193128	0.00612661	8.52228E-05	0	0	0	
0.268	-0.209744	-0.000929388	0.00611905	6.51319E-05	0	0	0	
0.268167	0.211851	0.00544659	0.00611032	5.75704E-05	0	0	0	
0.268333	-0.210981	-0.00539893	0.00611438	6.60712E-05	0	0	0	
0.2685	0.210319	0.00488039	0.00612983	8.92578E-05	0	0	0	
0.268667	-0.210013	-0.00355017	0.00614644	0.000102732	0	0	0	
0.268833	0.209332	0.00227096	0.00615695	0.000105105	0	0	0	
0.269	-0.206143	-1.52203E-05	0.0061586	0.000104361	0	0	0	
0.269167	0.204878	0.0016108	0.00614896	9.62242E-05	0	0	0	
0.269333	-0.204519	-0.000731497	0.00612552	7.57388E-05	0	0	0	
0.2695	0.206096	0.00291232	0.00610242	5.38672E-05	0	0	0	
0.269667	-0.206618	-0.00384532	0.006096	4.96046E-05	0	0	0	
0.269833	0.206829	0.00348712	0.00610974	6.76036E-05	0	0	0	
0.27	-0.206518	-0.00333694	0.00612479	8.70975E-05	0	0	0	
0.270167	0.206375	0.00305298	0.00614128	9.2384E-05	0	0	0	
0.270333	-0.195892	-0.00119389	0.0061672	9.26908E-05	0	0	0	
0.2705	0.185938	0.000601339	0.00613017	7.65584E-05	0	0	0	
0.270667	-0.168167	0.000563854	0.00584213	8.74591E-05	0	0	0	
0.270833	0.23034	0.0111266	0.00557498	0.000101009	0	0	0	
0.271	-0.238243	-0.0108471	0.00565304	0.000164325	0	0	0	
0.271167	0.217657	0.00491507	0.00603422	0.000181475	0	0	0	
0.271333	-0.200836	-0.0016474	0.00638149	0.000181048	0	0	0	
0.2715	0.200077	0.00261122	0.006359	0.000127331	0	0	0	
0.271667	-0.208279	-0.00477578	0.00624437	9.56043E-05	0	0	0	
0.271833	0.209893	0.0050773	0.00614745	8.7488E-05	0	0	0	
0.272	-0.202861	-0.00320442	0.00616496	0.000104552	0	0	0	
0.272167	0.197902	0.00188596	0.00620216	0.000114342	0	0	0	
0.272333	-0.200708	-0.00235153	0.00619663	0.000103851	0	0	0	
0.2725	0.204322	0.00330629	0.00616566	8.80287E-05	0	0	0	
0.272667	-0.205227	-0.00353012	0.0061601	8.14339E-05	0	0	0	
0.272833	0.200528	0.00306525	0.00617143	8.68746E-05	0	0	0	
0.273	-0.197937	-0.0026372	0.00617127	9.14841E-05	0	0	0	
0.273167	0.197597	0.00282043	0.00614692	8.82812E-05	0	0	0	
0.273333	-0.198537	-0.00332073	0.00612967	8.38075E-05	0	0	0	
0.2735	0.201714	0.00338341	0.00614237	8.38206E-05	0	0	0	
0.273667	-0.202111	-0.00313187	0.00617602	8.80021E-05	0	0	0	
0.273833	0.200535	0.00305249	0.0062035	9.05985E-05	0	0	0	
0.274	-0.195166	-0.00300567	0.0061935	8.95504E-05	0	0	0	
0.274167	0.195382	0.0029719	0.00616823	8.68627E-05	0	0	0	
0.274333	-0.19532	-0.00305609	0.00615124	8.52005E-05	0	0	0	
0.2745	0.195621	0.00309323	0.00615427	8.51062E-05	0	0	0	
0.274667	-0.198172	-0.00307586	0.0061682	8.64653E-05	0	0	0	
0.274833	0.198882	0.00300472	0.00617391	8.76611E-05	0	0	0	
0.275	-0.196529	-0.00290727	0.00617755	8.78377E-05	0	0	0	
0.275167	0.194753	0.00289888	0.00616846	8.66307E-05	0	0	0	
0.275333	-0.195255	-0.00295135	0.00617239	8.58766E-05	0	0	0	
0.2755	0.193424	0.00292517	0.00616916	8.55284E-05	0	0	0	
0.275667	-0.194589	-0.00300507	0.00617725	8.61351E-05	0	0	0	
0.275833	0.195106	0.00293307	0.00618307	8.59627E-05	0	0	0	
0.276	-0.194792	-0.00295663	0.006194	8.59243E-05	0	0	0	
0.276167	0.191489	0.00289357	0.00618074	8.57548E-05	0	0	0	
0.276333	-0.190294	-0.00294392	0.00615756	8.65159E-05	0	0	0	
0.2765	0.189453	0.00289869	0.00613521	8.69464E-05	0	0	0	
0.276667	-0.188983	-0.00292178	0.00612565	8.69959E-05	0	0	0	
0.276833	0.193394	0.00290756	0.00613608	8.67538E-05	0	0	0	
0.277	-0.193214	-0.00278602	0.00616268	8.67594E-05	0	0	0	
0.277167	0.191705	0.00269828	0.00619234	8.62573E-05	0	0	0	
0.277333	-0.18733	-0.00289908	0.00618869	8.54833E-05	0	0	0	
0.2775	0.187087	0.00301469	0.00616856	8.52905E-05	0	0	0	
0.277667	-0.186163	-0.00292361	0.00614871	8.642E-05	0	0	0	
0.277833	0.187084	0.00292557	0.00615119	8.77954E-05	0	0	0	
0.278	-0.188686	-0.00298732	0.00617105	8.85348E-05	0	0	0	
0.278167	0.189175	0.002885	0.00618819	8.82383E-05	0	0	0	
0.278333	-0.186941	-0.00282906	0.00619409	8.77469E-05	0	0	0	
0.2785	0.184973	0.00276026	0.00617582	8.66996E-05	0	0	0	
0.278667	-0.184432	-0.00279743	0.00615963	8.6016E-05	0	0	0	
0.278833	0.184928	0.00286043	0.00615116	8.54911E-05	0	0	0	
0.279	-0.186674	-0.00293136	0.00616497	8.6131E-05	0	0	0	
0.279167	0.187361	0.0028636	0.00618772	8.709E-05	0	0	0	
0.279333	-0.187449	-0.00281192	0.0062038	8.75995E-05	0	0	0	
0.2795	0.184494	0.00269039	0.00619524	8.64195E-05	0	0	0	
0.279667	-0.18315	-0.00279513	0.00617638	8.48144E-05	0	0	0	
0.279833	0.181952	0.00293633	0.00616345	8.41972E-05	0	0	0	
0.28	-0.18052	-0.00292588	0.00616108	8.53645E-05	0	0	0	
0.280167	0.183949	0.00294324	0.00616746	8.70477E-05	0	0	0	
0.280333	-0.18349	-0.00293791	0.00617036	8.79706E-05	0	0	0	
0.2805	0.18292	0.00289935	0.00617189	8.84328E-05	0	0	0	
0.280667	-0.179412	-0.00277653	0.00615478	8.82197E-05	0	0	0	
0.280833	0.18001	0.00278689	0.00613838	8.75953E-05	0	0	0	
0.281	-0.18019	-0.00280762	0.00613225	8.66688E-05	0	0	0	
0.281167	0.180137	0.00277919	0.00614363	8.63106E-05	0	0	0	
0.281333	-0.181319	-0.00278239	0.00616541	8.66965E-05	0	0	0	
0.2815	0.180421	0.00275559	0.00617755	8.7166E-05	0	0	0	
0.281667	-0.178623	-0.00274589	0.00618995	8.76373E-05	0	0	0	
0.281833	0.175413	0.00275599	0.00618329	8.7234E-05	0	0	0	
0.282	-0.174733	-0.00281196	0.0061702	8.64912E-05	0	0	0	
0.282167	0.175428	0.00284678	0.00613746	8.59743E-05	0	0	0	
0.282333	-0.178553	-0.00285166	0.00612239	8.68224E-05	0	0	0	
0.2825	0.179567	0.00277794	0.00613808	8.81386E-05	0	0	0	
0.282667	-0.179	-0.00283502	0.00618102	8.88E-05	0	0	0	
0.282833	0.175385	0.00287397	0.00620728	8.88678E-05	0	0	0	
0.283	-0.173027	-0.00277556	0.00619752	8.8589E-05	0	0	0	
0.283167	0.172307	0.00269957	0.00616525	8.85676E-05	0	0	0	
0.283333	-0.172621	-0.00252888	0.00613888	8.76307E-05	0	0	0	
0.2835	0.17611	0.00255917	0.00614131	8.6826E-05	0	0	0	
0.283667	-0.176419	-0.00257993	0.00616686	8.58982E-05	0	0	0	
0.283833	0.175629	0.00264754	0.00619702	8.54967E-05	0	0	0	
0.284	-0.170407	-0.00263966	0.00619601	8.48748E-05	0	0	0	
0.284167	0.169728	0.00276654	0.00617188	8.48048E-05	0	0	0	
0.284333	-0.170418	-0.00277719	0.00614328	8.52955E-05	0	0	0	
0.2845	0.171627	0.00269596	0.00613346	8.64987E-05	0	0	0	
0.284667	-0.173999	-0.00271147	0.0061542	8.80573E-05	0	0	0	
0.284833	0.173576	0.00259819	0.00618571	8.89238E-05	0	0	0	
0.285	-0.170381	-0.00258759	0.00621342	8.9185E-05	0	0	0	
0.285167	0.166316	0.00250011	0.00620107	8.80871E-05	0	0	0	
0.285333	-0.166693	-0.00258322	0.00617634	8.70245E-05	0	0	0	
0.2855	0.166316	0.002682	0.00614147	8.60282E-05	0	0	0	
0.285667	-0.169383	-0.00280373	0.0061337	8.63138E-05	0	0	0	
0.285833	0.17118	0.00275544	0.00615036	8.75394E-05	0	0	0	
0.286	-0.170466	-0.00269582	0.00618654	8.88626E-05	0	0	0	
0.286167	0.165978	0.00261737	0.00619933	8.87339E-05	0	0	0	
0.286333	-0.16516	-0.00266097	0.00618812	8.76698E-05	0	0	0	
0.2865	0.164641	0.00267409	0.00617212	8.67618E-05	0	0	0	
0.286667	-0.163344	-0.00273809	0.00616404	8.67204E-05	0	0	0	
0.286833	0.167316	0.00282076	0.00616692	8.73279E-05	0	0	0	
0.287	-0.167656	-0.00273085	0.00617403	8.82849E-05	0	0	0	
0.287167	0.165549	0.00252553	0.00618743	8.86848E-05	0	0	0	
0.287333	-0.162666	-0.00241577	0.00618583	8.76274E-05	0	0	0	
0.2875	0.162958	0.00253102	0.00617516	8.58521E-05	0	0	0	
0.287667	-0.16259	-0.00260559	0.0061631	8.51035E-05	0	0	0	
0.287833	0.162684	0.0025065	0.00615763	8.50485E-05	0	0	0	
0.288	-0.164328	-0.00254099	0.00616795	8.50088E-05	0	0	0	
0.288167	0.163718	0.00262554	0.00618051	8.46218E-05	0	0	0	
0.288333	-0.162466	-0.00262496	0.00619449	8.5325E-05	0	0	0	
0.2885	0.160103	0.00252023	0.00618516	8.64252E-05	0	0	0	
0.288667	-0.159629	-0.00246039	0.00617474	8.68129E-05	0	0	0	
0.288833	0.157852	0.00245646	0.00615557	8.59111E-05	0	0	0	
0.289	-0.159563	-0.00240337	0.00615314	8.50232E-05	0	0	0	
0.289167	0.161204	0.00246316	0.00616291	8.55514E-05	0	0	0	
0.289333	-0.161562	-0.00239914	0.00618502	8.60585E-05	0	0	0	
0.2895	0.157513	0.00237815	0.00618702	8.5894E-05	0	0	0	
0.289667	-0.156552	-0.00236967	0.00617102	8.47975E-05	0	0	0	
0.289833	0.156727	0.00240782	0.00615037	8.44493E-05	0	0	0	
0.29	-0.155751	-0.00240555	0.0061484	8.44521E-05	0	0	0	
0.290167	0.15914	0.0026001	0.00617283	8.52944E-05	0	0	0	
0.290333	-0.158431	-0.00244529	0.00620325	8.60509E-05	0	0	0	
0.2905	0.156583	0.00242581	0.00621628	8.73067E-05	0	0	0	
0.290667	-0.153514	-0.00242654	0.00619329	8.78182E-05	0	0	0	
0.290833	0.154464	0.00243488	0.00616295	8.77174E-05	0	0	0	
0.291	-0.154044	-0.00235004	0.00614531	8.66587E-05	0	0	0	
0.291167	0.155251	0.00239882	0.00615016	8.54528E-05	0	0	0	
0.291333	-0.157631	-0.00236015	0.00617342	8.48745E-05	0	0	0	
0.2915	0.156081	0.00234304	0.00619106	8.50574E-05	0	0	0	
0.291667	-0.153816	-0.00245927	0.00619944	8.54582E-05	0	0	0	
0.291833	0.151316	0.00249123	0.00617978	8.56041E-05	0	0	0	
0.292	-0.150938	-0.0023946	0.00616429	8.58346E-05	0	0	0	
0.292167	0.150355	0.00228709	0.0061497	8.57936E-05	0	0	0	
0.292333	-0.151459	-0.00233107	0.0061543	8.56545E-05	0	0	0	
0.2925	0.151161	0.00243272	0.00616385	8.57343E-05	0	0	0	
0.292667	-0.151419	-0.00233147	0.00617406	8.63756E-05	0	0	0	
0.292833	0.149066	0.00232891	0.00616497	8.72117E-05	0	0	0	
0.293	-0.148536	-0.00236587	0.00614838	8.69758E-05	0	0	0	
0.293167	0.148003	0.00233894	0.00613702	8.58512E-05	0	0	0	
0.293333	-0.147176	-0.00230896	0.00613834	8.50499E-05	0	0	0	
0.2935	0.15033	0.00233559	0.00615675	8.51381E-05	0	0	0	
0.293667	-0.149533	-0.00236928	0.00618148	8.56751E-05	0	0	0	
0.293833	0.147928	0.00232843	0.00620534	8.56343E-05	0	0	0	
0.294	-0.144302	-0.002328	0.00619904	8.58313E-05	0	0	0	
0.294167	0.144411	0.00229175	0.00617189	8.54558E-05	0	0	0	
0.294333	-0.144745	-0.00231804	0.00614311	8.48932E-05	0	0	0	
0.2945	0.14561	0.00235353	0.00613686	8.45352E-05	0	0	0	
0.294667	-0.147369	-0.00232967	0.00615574	8.59837E-05	0	0	0	
0.294833	0.146951	0.00216974	0.00617599	8.76488E-05	0	0	0	
0.295	-0.146116	-0.00222393	0.00618892	8.80764E-05	0	0	0	
0.295167	0.14288	0.00217481	0.00617553	8.65713E-05	0	0	0	
0.295333	-0.142673	-0.00215925	0.00616349	8.49143E-05	0	0	0	
0.2955	0.141306	0.00225729	0.00614473	8.37153E-05	0	0	0	
0.295667	-0.143327	-0.00244009	0.00614198	8.41571E-05	0	0	0	
0.295833	0.144924	0.00246419	0.00614927	8.61816E-05	0	0	0	
0.296	-0.144305	-0.00230862	0.00617149	8.85018E-05	0	0	0	
0.296167	0.139565	0.00219096	0.00617943	8.95536E-05	0	0	0	
0.296333	-0.13859	-0.00213111	0.00616635	8.90684E-05	0	0	0	
0.2965	0.138409	0.00211435	0.00614213	8.76804E-05	0	0	0	
0.296667	-0.138401	-0.00223458	0.00613081	8.61205E-05	0	0	0	
0.296833	0.141456	0.00230022	0.00614056	8.49743E-05	0	0	0	
0.297	-0.141731	-0.00233595	0.00615971	8.51895E-05	0	0	0	
0.297167	0.14077	0.00223893	0.00617893	8.60041E-05	0	0	0	
0.297333	-0.137466	-0.00217569	0.00618371	8.66775E-05	0	0	0	
0.2975	0.135613	0.00219732	0.00617645	8.69149E-05	0	0	0	
0.297667	-0.13656	-0.00212702	0.00616407	8.69837E-05	0	0	0	
0.297833	0.137311	0.00216601	0.00615423	8.71798E-05	0	0	0	
0.298	-0.138901	-0.00212699	0.00616469	8.71277E-05	0	0	0	
0.298167	0.138089	0.00209278	0.00617646	8.70229E-05	0	0	0	
0.298333	-0.137052	-0.00212851	0.00618357	8.64964E-05	0	0	0	
0.2985	0.133391	0.00220649	0.00616178	8.59198E-05	0	0	0	
0.298667	-0.134963	-0.0022132	0.00614635	8.57676E-05	0	0	0	
0.298833	0.135144	0.00224008	0.00613783	8.62692E-05	0	0	0	
0.299	-0.13596	-0.00216092	0.00615373	8.69753E-05	0	0	0	
0.299167	0.136205	0.00206855	0.00617591	8.79262E-05	0	0	0	
0.299333	-0.135866	-0.00206183	0.00619726	8.85201E-05	0	0	0	
0.2995	0.131226	0.0019819	0.00619449	8.77721E-05	0	0	0	
0.299667	-0.130728	-0.00202818	0.00617382	8.62144E-05	0	0	0	
0.299833	0.130946	0.00210323	0.00614936	8.50076E-05	0	0	0	
0.3	-0.12865	-0.0021338	0.00613437	8.51467E-05	0	0	0	
0.300167	0.131676	0.00216722	0.00614023	8.63772E-05	0	0	0	
0.300333	-0.132832	-0.00220631	0.00615637	8.82114E-05	0	0	0	
0.3005	0.132317	0.00212382	0.00617086	8.92406E-05	0	0	0	
0.300667	-0.129777	-0.00211114	0.0061638	8.87031E-05	0	0	0	
0.300833	0.129013	0.00215437	0.00615422	8.78578E-05	0	0	0	
0.301	-0.127414	-0.00212245	0.00615407	8.78978E-05	0	0	0	
0.301167	0.126967	0.00206433	0.00616462	8.79263E-05	0	0	0	
0.301333	-0.130003	-0.00216791	0.00618397	8.74092E-05	0	0	0	
0.3015	0.129195	0.0021982	0.00619502	8.69416E-05	0	0	0	
0.301667	-0.127969	-0.00204759	0.00619712	8.69841E-05	0	0	0	
0.301833	0.12575	0.00197507	0.00617531	8.67358E-05	0	0	0	
0.302	-0.125554	-0.00205411	0.00615727	8.62858E-05	0	0	0	
0.302167	0.125199	0.00203644	0.00614168	8.59362E-05	0	0	0	
0.302333	-0.126894	-0.00211777	0.00614773	8.59445E-05	0	0	0	
0.3025	0.127429	0.00210287	0.00616806	8.58597E-05	0	0	0	
0.302667	-0.127796	-0.00212188	0.00619264	8.64245E-05	0	0	0	
0.302833	0.124402	0.00204756	0.00619149	8.69023E-05	0	0	0	
0.303	-0.123492	-0.00201155	0.00617303	8.69828E-05	0	0	0	
0.303167	0.122517	0.00192274	0.0061524	8.63531E-05	0	0	0	
0.303333	-0.122276	-0.00184226	0.00614885	8.58328E-05	0	0	0	
0.3035	0.124544	0.00189824	0.00616146	8.5621E-05	0	0	0	
0.303667	-0.124384	-0.00193602	0.00617735	8.56224E-05	0	0	0	
0.303833	0.124074	0.0019415	0.00617852	8.59052E-05	0	0	0	
0.304	-0.121906	-0.00189027	0.00615846	8.61007E-05	0	0	0	
0.304167	0.120947	0.00185802	0.00614064	8.55938E-05	0	0	0	
0.304333	-0.120201	-0.00196542	0.00614159	8.52867E-05	0	0	0	
0.3045	0.120242	0.00193265	0.00615577	8.61092E-05	0	0	0	
0.304667	-0.121726	-0.00193938	0.00617516	8.81695E-05	0	0	0	
0.304833	0.120416	0.0019424	0.00618269	8.9354E-05	0	0	0	
0.305	-0.119114	-0.00201218	0.00617828	8.95237E-05	0	0	0	
0.305167	0.117502	0.00191695	0.0061553	8.8932E-05	0	0	0	
0.305333	-0.118107	-0.00188301	0.006146	8.8634E-05	0	0	0	
0.3055	0.116818	0.00188327	0.00614547	8.80624E-05	0	0	0	
0.305667	-0.117211	-0.00187856	0.00615309	8.73039E-05	0	0	0	
0.305833	0.11932	0.00197573	0.00615615	8.66983E-05	0	0	0	
0.306	-0.119866	-0.00201349	0.0061658	8.62848E-05	0	0	0	
0.306167	0.117613	0.00200114	0.00618034	8.63132E-05	0	0	0	
0.306333	-0.11501	-0.00190169	0.00618883	8.66256E-05	0	0	0	
0.3065	0.112918	0.00183157	0.00618141	8.73386E-05	0	0	0	
0.306667	-0.112324	-0.00176792	0.00616072	8.74526E-05	0	0	0	
0.306833	0.116159	0.001878	0.00614878	8.6836E-05	0	0	0	
0.307	-0.117477	-0.00186172	0.00615533	8.57087E-05	0	0	0	
0.307167	0.117008	0.00182097	0.00617384	8.49332E-05	0	0	0	
0.307333	-0.113802	-0.00180061	0.00618006	8.46336E-05	0	0	0	
0.3075	0.111632	0.00185495	0.00617219	8.49984E-05	0	0	0	
0.307667	-0.111273	-0.00191083	0.00616114	8.53862E-05	0	0	0	
0.307833	0.111693	0.00187493	0.00615502	8.49058E-05	0	0	0	
0.308	-0.113772	-0.00191672	0.00616299	8.45379E-05	0	0	0	
0.308167	0.113347	0.00188733	0.00617278	8.48364E-05	0	0	0	
0.308333	-0.111807	-0.00182821	0.00618085	8.607E-05	0	0	0	
0.3085	0.107701	0.00169136	0.00616558	8.69314E-05	0	0	0	
0.308667	-0.108456	-0.00165892	0.00614752	8.70949E-05	0	0	0	
0.308833	0.109004	0.0016144	0.00613122	8.57764E-05	0	0	0	
0.309	-0.109704	-0.00169327	0.00613811	8.38011E-05	0	0	0	
0.309167	0.110205	0.00189219	0.00616075	8.3101E-05	0	0	0	
0.309333	-0.109651	-0.00183381	0.00618612	8.40261E-05	0	0	0	
0.3095	0.106364	0.00180721	0.00618656	8.55541E-05	0	0	0	
0.309667	-0.105401	-0.00181617	0.00616507	8.64464E-05	0	0	0	
0.309833	0.106204	0.00177676	0.0061491	8.70798E-05	0	0	0	
0.31	-0.105109	-0.00174021	0.00615172	8.7379E-05	0	0	0	
0.310167	0.107473	0.00185885	0.00616845	8.74108E-05	0	0	0	
0.310333	-0.108467	-0.00185954	0.00618372	8.75006E-05	0	0	0	
0.3105	0.106471	0.00174126	0.00619133	8.75016E-05	0	0	0	
0.310667	-0.103437	-0.00165054	0.00618162	8.70923E-05	0	0	0	
0.310833	0.103973	0.00167953	0.00616091	8.6068E-05	0	0	0	
0.311	-0.105022	-0.00177825	0.00614618	8.50378E-05	0	0	0	
0.311167	0.103992	0.0018523	0.00614662	8.47692E-05	0	0	0	
0.311333	-0.105911	-0.00183563	0.00616676	8.57616E-05	0	0	0	
0.3115	0.104795	0.00168883	0.00618458	8.71015E-05	0	0	0	
0.311667	-0.103532	-0.00159135	0.00619442	8.75209E-05	0	0	0	
0.311833	0.100239	0.00163535	0.00617955	8.67002E-05	0	0	0	
0.312	-0.0995122	-0.00163502	0.0061615	8.57139E-05	0	0	0	
0.312167	0.0993438	0.00167934	0.00613721	8.53409E-05	0	0	0	
0.312333	-0.100557	-0.00173977	0.00612419	8.54999E-05	0	0	0	
0.3125	0.1032	0.00175827	0.00613103	8.61905E-05	0	0	0	
0.312667	-0.103385	-0.0017576	0.00615812	8.7457E-05	0	0	0	
0.312833	0.0993472	0.00165137	0.00617844	8.85343E-05	0	0	0	
0.313	-0.0972519	-0.0016272	0.00617633	8.85166E-05	0	0	0	
0.313167	0.0964509	0.00163035	0.00615838	8.73138E-05	0	0	0	
0.313333	-0.0957605	-0.00166577	0.00614361	8.66568E-05	0	0	0	
0.3135	0.0989838	0.00163874	0.00614699	8.68723E-05	0	0	0	
0.313667	-0.100478	-0.00169477	0.00616537	8.74527E-05	0	0	0	
0.313833	0.0989471	0.00169271	0.00618455	8.75481E-05	0	0	0	
0.314	-0.0949816	-0.00159579	0.00618808	8.73797E-05	0	0	0	
0.314167	0.0936204	0.00155137	0.00617651	8.68229E-05	0	0	0	
0.314333	-0.0944364	-0.00160084	0.00615909	8.58837E-05	0	0	0	
0.3145	0.0951429	0.00168192	0.0061451	8.55334E-05	0	0	0	
0.314667	-0.0986751	-0.00165459	0.00615327	8.60435E-05	0	0	0	
0.314833	0.0974903	0.00163079	0.00617267	8.6871E-05	0	0	0	
0.315	-0.0958147	-0.00158465	0.00619117	8.70616E-05	0	0	0	
0.315167	0.0925188	0.0014738	0.00618441	8.68542E-05	0	0	0	
0.315333	-0.0929634	-0.00138032	0.00617283	8.64454E-05	0	0	0	
0.3155	0.0922719	0.00148115	0.00615795	8.56948E-05	0	0	0	
0.315667	-0.0926894	-0.00153147	0.00615582	8.48235E-05	0	0	0	
0.315833	0.0937988	0.0015413	0.00616164	8.46981E-05	0	0	0	
0.316	-0.0935643	-0.00157162	0.00616901	8.55408E-05	0	0	0	
0.316167	0.091304	0.00153277	0.00616481	8.64899E-05	0	0	0	
0.316333	-0.0910008	-0.00146321	0.00615742	8.7238E-05	0	0	0	
0.3165	0.0893405	0.00134021	0.00615465	8.76008E-05	0	0	0	
0.316667	-0.0882225	-0.00130016	0.00615253	8.76088E-05	0	0	0	
0.316833	0.0909993	0.00143418	0.00615034	8.71198E-05	0	0	0	
0.317	-0.0923991	-0.00158751	0.00615968	8.68049E-05	0	0	0	
0.317167	0.0897987	0.00155492	0.00618086	8.6794E-05	0	0	0	
0.317333	-0.0867628	-0.00148891	0.00619518	8.69966E-05	0	0	0	
0.3175	0.0852726	0.00149651	0.00618377	8.68698E-05	0	0	0	
0.317667	-0.0863735	-0.00146159	0.00615547	8.66647E-05	0	0	0	
0.317833	0.0874084	0.00154025	0.00613174	8.67896E-05	0	0	0	
0.318	-0.0903162	-0.00162137	0.00613959	8.71888E-05	0	0	0	
0.318167	0.0889573	0.00147873	0.00616614	8.74372E-05	0	0	0	
0.318333	-0.0886095	-0.00148929	0.00619306	8.77243E-05	0	0	0	
0.3185	0.0846685	0.00138451	0.00619389	8.73918E-05	0	0	0	
0.318667	-0.0841113	-0.00140221	0.0061844	8.68911E-05	0	0	0	
0.318833	0.0831659	0.00148378	0.00616195	8.58022E-05	0	0	0	
0.319	-0.084984	-0.00150381	0.006149	8.4985E-05	0	0	0	
0.319167	0.086629	0.00150067	0.00615418	8.48432E-05	0	0	0	
0.319333	-0.0864047	-0.00161184	0.00617985	8.58475E-05	0	0	0	
0.3195	0.0826062	0.00158476	0.00619081	8.75016E-05	0	0	0	
0.319667	-0.0823553	-0.00161557	0.0061711	8.91763E-05	0	0	0	
0.319833	0.0816717	0.00134634	0.00613791	8.97124E-05	0	0	0	
0.32	-0.0794956	-0.000899301	0.00612887	8.90771E-05	0	0	0	
0.320167	0.0817695	0.00136992	0.006136	8.28313E-05	0	0	0	
0.320333	-0.0917426	-0.00380387	0.00612294	7.65607E-05	0	0	0	
0.3205	0.0994314	0.00465543	0.00615426	9.04319E-05	0	0	0	
0.320667	-0.114993	-0.00579579	0.00641683	0.000161769	0	0	0	
0.320833	0.0530535	-0.00620588	0.00669462	0.000232542	0	0	0	
0.321	-0.0452194	0.00636271	0.00676564	0.00025595	0	0	0	
0.321167	0.063345	-0.000677193	0.00644755	0.000183876	0	0	0	
0.321333	-0.0822256	-0.00280646	0.0060952	0.000101965	0	0	0	
0.3215	0.0824486	0.00185186	0.00597823	6.87629E-05	0	0	0	
0.321667	-0.0740156	0.000387655	0.00607402	8.66503E-05	0	0	0	
0.321833	0.0690332	-0.000534966	0.00618144	0.000102007	0	0	0	
0.322	-0.0744107	-0.00123796	0.00615423	8.36481E-05	0	0	0	
0.322167	0.07916	0.00246779	0.00607209	6.20154E-05	0	0	0	
0.322333	-0.0778078	-0.0020011	0.00606357	5.93999E-05	0	0	0	
0.3225	0.0733121	0.00115621	0.00612171	6.7327E-05	0	0	0	
0.322667	-0.0720975	-0.00142138	0.00616411	7.38147E-05	0	0	0	
0.322833	0.073285	0.00177224	0.00614689	7.60423E-05	0	0	0	
0.323	-0.0752704	-0.0018075	0.00611221	8.20674E-05	0	0	0	
0.323167	0.0744576	0.00126032	0.0061042	8.84114E-05	0	0	0	
0.323333	-0.0729331	-0.000437394	0.00612212	9.18492E-05	0	0	0	
0.3235	0.0711716	-0.000526565	0.00613417	8.66279E-05	0	0	0	
0.323667	-0.0719828	-0.000977115	0.00613151	7.53582E-05	0	0	0	
0.323833	0.0721339	0.00171855	0.00612382	6.96593E-05	0	0	0	
0.324	-0.0716984	-0.00151713	0.00613198	7.59707E-05	0	0	0	
0.324167	0.0693547	0.00105965	0.00614553	8.63551E-05	0	0	0	
0.324333	-0.0686201	-0.000920972	0.00615068	9.0302E-05	0	0	0	
0.3245	0.067263	0.00130015	0.00613998	8.77356E-05	0	0	0	
0.324667	-0.0677209	-0.00143566	0.006129	8.40407E-05	0	0	0	
0.324833	0.0676567	0.00138806	0.00612037	8.36388E-05	0	0	0	
0.325	-0.0687234	-0.00131585	0.00611627	8.56652E-05	0	0	0	
0.325167	0.0684917	0.00121291	0.00611412	8.6955E-05	0	0	0	
0.325333	-0.0685655	-0.00122685	0.0061218	8.65319E-05	0	0	0	
0.3255	0.0676274	0.00131346	0.00613643	8.62178E-05	0	0	0	
0.325667	-0.0668427	-0.00113449	0.00615596	8.74118E-05	0	0	0	
0.325833	0.065749	0.00105918	0.00617451	8.89753E-05	0	0	0	
0.326	-0.0645905	-0.00111815	0.00618226	8.84408E-05	0	0	0	
0.326167	0.0645027	0.00122364	0.00616628	8.62029E-05	0	0	0	
0.326333	-0.0664138	-0.00132051	0.00613798	8.49496E-05	0	0	0	
0.3265	0.0655524	0.00120294	0.00612206	8.58866E-05	0	0	0	
0.326667	-0.064435	-0.00109256	0.00613117	8.78735E-05	0	0	0	
0.326833	0.0634828	0.00105588	0.00614354	8.87445E-05	0	0	0	
0.327	-0.0643931	-0.00114037	0.00614061	8.82195E-05	0	0	0	
0.327167	0.0638974	0.00113497	0.00612397	8.70175E-05	0	0	0	
0.327333	-0.0643626	-0.00118841	0.00611827	8.64397E-05	0	0	0	
0.3275	0.0628158	0.00113306	0.00612556	8.62162E-05	0	0	0	
0.327667	-0.0623183	-0.00121938	0.00613916	8.6453E-05	0	0	0	
0.327833	0.0606305	0.00119191	0.00614625	8.65514E-05	0	0	0	
0.328	-0.0600237	-0.00119119	0.00615003	8.67738E-05	0	0	0	
0.328167	0.0584988	0.00119837	0.00614433	8.65439E-05	0	0	0	
0.328333	-0.0601017	-0.00129678	0.00613551	8.65286E-05	0	0	0	
0.3285	0.0598065	0.00118379	0.00612799	8.72355E-05	0	0	0	
0.328667	-0.0598769	-0.00115926	0.00613108	8.85949E-05	0	0	0	
0.328833	0.0588236	0.00112304	0.00613494	8.87395E-05	0	0	0	
0.329	-0.0588036	-0.00111701	0.00613496	8.73638E-05	0	0	0	
0.329167	0.0584239	0.00104801	0.00613242	8.55059E-05	0	0	0	
0.329333	-0.0586398	-0.00108267	0.00613907	8.4484E-05	0	0	0	
0.3295	0.0581959	0.00120939	0.00615537	8.43297E-05	0	0	0	
0.329667	-0.0574576	-0.00127569	0.00616892	8.51135E-05	0	0	0	
0.329833	0.0571124	0.00109961	0.00616555	8.64069E-05	0	0	0	
0.33	-0.0572335	-0.00103905	0.00615029	8.71551E-05	0	0	0	
0.330167	0.0557696	0.00104725	0.00614063	8.63432E-05	0	0	0	
0.330333	-0.0555469	-0.0011003	0.00614474	8.51022E-05	0	0	0	
0.3305	0.0551594	0.00108834	0.00614825	8.48139E-05	0	0	0	
0.330667	-0.0570369	-0.0010788	0.00614352	8.54109E-05	0	0	0	
0.330833	0.0556119	0.00106081	0.00613266	8.55498E-05	0	0	0	
0.331	-0.0551488	-0.00109506	0.00613149	8.51476E-05	0	0	0	
0.331167	0.0539382	0.00102728	0.00613574	8.48695E-05	0	0	0	
0.331333	-0.0540596	-0.000995988	0.00614456	8.50726E-05	0	0	0	
0.3315	0.0519788	0.00106987	0.00614876	8.52408E-05	0	0	0	
0.331667	-0.0520347	-0.00112122	0.00614632	8.54485E-05	0	0	0	
0.331833	0.050941	0.00108429	0.00612738	8.61265E-05	0	0	0	
0.332	-0.052318	-0.000968863	0.00610845	8.69518E-05	0	0	0	
