0	-0.0293718	-0.000310032	2.93718E-06	3.10032E-08	0	0	0	
0.000166667	0.0449049	0.00339925	0.000225361	1.00411E-05	0	0	0	
0.000333333	-0.0284462	-0.00524622	0.000571148	3.95158E-05	0	0	0	
0.0005	0.0133556	0.00407468	0.000827279	6.80629E-05	0	0	0	
0.000666667	-0.00815262	-0.000724306	0.000783681	7.71487E-05	0	0	0	
0.000833333	-0.0326726	0.000232396	0.00100472	5.3687E-05	0	0	0	
0.001	0.0908943	-0.00423001	0.00138693	5.72873E-05	0	0	0	
0.00116667	0.0627116	0.00841423	0.00154628	7.93816E-05	0	0	0	
0.00133333	-0.0727286	-0.00543193	0.00175565	0.000120192	0	0	0	
0.0015	0.0576078	-0.000236741	0.00159887	0.000110195	0	0	0	
0.00166667	-0.0782773	0.000881122	0.00170573	7.1615E-05	0	0	0	
0.00183333	0.160717	-0.000168486	0.00155074	3.22391E-05	0	0	0	
0.002	-0.195202	0.000773284	0.00257281	2.47799E-05	0	0	0	
0.00216667	0.07378	0.00268783	0.00354489	3.22291E-05	0	0	0	
0.00233333	0.043347	-0.00658693	0.00349316	5.75792E-05	0	0	0	
0.0025	-0.0581512	0.00545497	0.00251088	8.03743E-05	0	0	0	
0.00266667	0.00330003	-0.00122078	0.00151323	0.000114448	0	0	0	
0.00283333	0.0319278	0.00217098	0.00127884	0.000111395	0	0	0	
0.003	-0.130871	-0.00615248	0.00133659	0.000107668	0	0	0	
0.00316667	0.104906	0.00847005	0.00186228	0.000118117	0	0	0	
0.00333333	-0.0709063	-0.00640275	0.00195589	0.000144735	0	0	0	
0.0035	0.0258452	0.00553203	0.00180457	0.000167053	0	0	0	
0.00366667	0.00533283	-0.00312431	0.00106456	0.000150567	0	0	0	
0.00383333	-0.0487831	0.00356705	0.000894453	0.00011652	0	0	0	
0.004	0.109213	-0.00566533	0.00121396	9.4299E-05	0	0	0	
0.00416667	-0.125717	0.00630916	0.0020319	9.58516E-05	0	0	0	
0.00433333	0.0610402	-0.00547572	0.00227312	0.000112094	0	0	0	
0.0045	0.0168956	0.00522333	0.00200077	0.000111174	0	0	0	
0.00466667	-0.03937	-0.00270112	0.00130234	9.9682E-05	0	0	0	
0.00483333	0.0128475	0.00275946	0.000920859	8.14116E-05	0	0	0	
0.005	0.00112468	-0.00347107	0.000867803	7.66493E-05	0	0	0	
0.00516667	-0.0268604	0.00222222	0.00141677	7.38663E-05	0	0	0	
0.00533333	0.0326375	-0.00169655	0.00216795	7.19895E-05	0	0	0	
0.0055	-0.0432952	0.00251864	0.00205356	5.90822E-05	0	0	0	
0.00566667	0.0256993	-0.00123351	0.00147107	4.55185E-05	0	0	0	
0.00583333	-0.000364421	0.00106117	0.000835875	3.78502E-05	0	0	0	
0.006	0.00489247	-0.000142853	0.000591956	3.24869E-05	0	0	0	
0.00616667	-0.0149611	-0.000317409	0.000372314	2.25663E-05	0	0	0	
0.00633333	0.0152215	7.95821E-05	0.00022913	2.8559E-05	0	0	0	
0.0065	-0.00083946	0.0022166	0.000245355	5.05182E-05	0	0	0	
0.00666667	0.00402944	-0.00360161	0.000249963	9.13894E-05	0	0	0	
0.00683333	-0.0201852	0.00312539	0.000401577	0.000108198	0	0	0	
0.007	0.0395626	-0.000180725	0.000530226	8.57248E-05	0	0	0	
0.00716667	-0.0227225	-0.00171572	0.000630418	4.98679E-05	0	0	0	
0.00733333	0.00816086	0.00232674	0.000541131	3.1017E-05	0	0	0	
0.0075	0.0106813	-0.00157739	0.000400529	5.15303E-05	0	0	0	
0.00766667	-0.0176072	0.000326506	0.00031866	7.75159E-05	0	0	0	
0.00783333	0.0133261	-0.000599487	0.000305302	8.70731E-05	0	0	0	
0.008	-0.00313579	0.0014296	0.000345409	6.95536E-05	0	0	0	
0.00816667	-0.0101734	-0.00173559	0.000345305	5.40464E-05	0	0	0	
0.00833333	0.0209474	0.00256456	0.000331878	4.77057E-05	0	0	0	
0.0085	-0.0150446	-0.00272671	0.000320979	5.14807E-05	0	0	0	
0.00866667	-0.0298948	0.00087894	0.000483782	4.80871E-05	0	0	0	
0.00883333	0.107727	0.00074724	0.000710411	3.94336E-05	0	0	0	
0.009	-0.100035	-0.00107341	0.00135919	2.86736E-05	0	0	0	
0.00916667	0.0158039	0.000473213	0.00171215	2.38893E-05	0	0	0	
0.00933333	0.044269	0.0002504	0.0017809	2.19995E-05	0	0	0	
0.0095	-0.0340317	0.000854688	0.00125929	2.65694E-05	0	0	0	
0.00966667	-0.0867842	-0.00159512	0.00124658	3.30203E-05	0	0	0	
0.00983333	0.246181	0.000488222	0.0018705	4.6425E-05	0	0	0	
0.01	0.0545319	-0.000454205	0.00282078	6.23425E-05	0	0	0	
0.0101667	-0.12994	0.000486156	0.00299783	6.42273E-05	0	0	0	
0.0103333	0.0679659	-0.00202756	0.00265179	0.000102907	0	0	0	
0.0105	0.0324164	0.00753948	0.00217739	0.000146359	0	0	0	
0.0106667	-0.0581579	-0.00859995	0.00179387	0.000184745	0	0	0	
0.0108333	0.0950977	0.00525142	0.0017948	0.000164758	0	0	0	
0.011	-0.00763614	-0.00223115	0.00212938	0.000128979	0	0	0	
0.0111667	-0.0700164	-0.00148709	0.0026798	9.51586E-05	0	0	0	
0.0113333	0.124981	0.00693489	0.00337242	8.84682E-05	0	0	0	
0.0115	-0.0940258	-0.00400099	0.00297374	0.000117215	0	0	0	
0.0116667	-0.0275349	-0.00173959	0.0027739	0.000170281	0	0	0	
0.0118333	0.0548711	0.00434439	0.00171976	0.000190337	0	0	0	
0.012	0.000496571	-0.00405294	0.00172519	0.000153333	0	0	0	
0.0121667	-0.080808	0.00105198	0.00182048	9.62911E-05	0	0	0	
0.0123333	0.0925824	0.00116021	0.00207758	5.93503E-05	0	0	0	
0.0125	0.00556917	-0.00135562	0.00186	4.01125E-05	0	0	0	
0.0126667	-0.0841937	0.000770794	0.0015797	4.66627E-05	0	0	0	
0.0128333	0.0631914	0.0007825	0.00142601	5.94048E-05	0	0	0	
0.013	-0.0884698	-0.00155969	0.00142216	6.85507E-05	0	0	0	
0.0131667	0.18112	0.000206072	0.0018954	4.83198E-05	0	0	0	
0.0133333	-0.121903	0.000897698	0.0023028	2.71378E-05	0	0	0	
0.0135	-0.0173207	-0.00241103	0.00310346	2.18186E-05	0	0	0	
0.0136667	0.0682887	0.00241241	0.00271146	3.30288E-05	0	0	0	
0.0138333	-0.0113992	-0.00164944	0.00220399	4.64161E-05	0	0	0	
0.014	0.0228856	-0.000665801	0.00123815	6.00528E-05	0	0	0	
0.0141667	-0.0407822	0.000770525	0.000914937	5.82622E-05	0	0	0	
0.0143333	0.00166025	-0.000534055	0.00147991	4.00577E-05	0	0	0	
0.0145	0.0916319	0.00167523	0.00193888	2.48538E-05	0	0	0	
0.0146667	-0.0556996	-0.00254845	0.00214347	2.35541E-05	0	0	0	
0.0148333	-0.0483761	0.00054117	0.00197667	3.62565E-05	0	0	0	
0.015	0.0474658	0.000182373	0.00151165	5.57049E-05	0	0	0	
0.0151667	-0.00746579	-0.00190097	0.00188583	8.67062E-05	0	0	0	
0.0153333	-0.104891	0.00383643	0.00141245	0.000106186	0	0	0	
0.0155	0.0421234	-0.000723982	0.00221214	8.85176E-05	0	0	0	
0.0156667	0.0604692	-0.000441737	0.00215721	6.54168E-05	0	0	0	
0.0158333	-0.0350396	-0.000360027	0.00217689	5.35681E-05	0	0	0	
0.016	0.0384429	-0.00257192	0.00136306	8.96246E-05	0	0	0	
0.0161667	-0.0724358	0.00961193	0.000851584	0.000126161	0	0	0	
0.0163333	-0.0259825	-0.0096662	0.000981535	0.000161499	0	0	0	
0.0165	0.109717	0.00417277	0.00123285	0.000163076	0	0	0	
0.0166667	-0.042866	0.000703762	0.00150425	0.000129355	0	0	0	
0.0168333	-0.0195844	-0.00282264	0.00166902	8.69954E-05	0	0	0	
0.017	0.0238445	0.00412497	0.00124185	6.02578E-05	0	0	0	
0.0171667	0.0191329	-0.00474104	0.000929353	6.6925E-05	0	0	0	
0.0173333	-0.0240127	0.00240829	0.000521599	7.96725E-05	0	0	0	
0.0175	0.00133747	0.000606031	0.000563225	7.94788E-05	0	0	0	
0.0176667	0.00300113	-0.00231226	0.000437949	5.86549E-05	0	0	0	
0.0178333	0.00159391	0.00137462	0.00036759	4.4656E-05	0	0	0	
0.018	0.00873476	-0.00160477	0.000302408	3.79982E-05	0	0	0	
0.0181667	0.00169577	0.0046067	0.000247715	4.7338E-05	0	0	0	
0.0183333	0.00544611	-0.00798401	0.000228815	7.19005E-05	0	0	0	
0.0185	0.000288038	0.00956116	0.000254972	0.000115014	0	0	0	
0.0186667	-3.53071E-05	-0.00793984	0.000241756	0.000166596	0	0	0	
0.0188333	0.00071669	0.00262361	0.000225687	0.000173566	0	0	0	
0.019	-0.00169486	4.32862E-05	0.000227304	0.000126209	0	0	0	
0.0191667	-0.00909925	0.00137056	0.000241803	8.49113E-05	0	0	0	
0.0193333	0.0246133	-0.00449704	0.000298957	8.11948E-05	0	0	0	
0.0195	-0.00805892	0.00657658	0.000349111	0.000114398	0	0	0	
0.0196667	-0.0191351	-0.00713085	0.000353975	0.000135172	0	0	0	
0.0198333	0.0384414	0.00447221	0.000458866	0.000133128	0	0	0	
0.02	-0.0170919	-0.000507055	0.00051448	0.000109161	0	0	0	
0.0201667	-0.00394418	-0.00148939	0.000461272	6.97629E-05	0	0	0	
0.0203333	-0.00206826	0.000836816	0.000304523	4.69327E-05	0	0	0	
0.0205	-0.0105034	0.00161094	0.00025276	4.1138E-05	0	0	0	
0.0206667	-0.00136106	-0.00442958	0.000256523	5.76292E-05	0	0	0	
0.0208333	0.00467287	0.00312101	0.000322456	9.37023E-05	0	0	0	
0.021	-0.00281505	-0.000822428	0.000406567	0.000134884	0	0	0	
0.0211667	0.00504465	-0.000630301	0.000424058	0.000146693	0	0	0	
0.0213333	0.00614927	0.000411875	0.000328658	0.000120136	0	0	0	
0.0215	-0.0294875	0.00158713	0.000242904	8.34107E-05	0	0	0	
0.0216667	0.0156743	-0.00534706	0.000310392	7.07528E-05	0	0	0	
0.0218333	-0.0158708	0.00668781	0.000376562	8.78891E-05	0	0	0	
0.022	0.00656535	-0.00541641	0.000337969	0.000112619	0	0	0	
0.0221667	0.00755553	0.00406636	0.000228853	0.000118117	0	0	0	
0.0223333	-0.00469104	-0.00343887	0.000150317	9.87665E-05	0	0	0	
0.0225	-0.00651231	0.0028119	0.000107634	7.66921E-05	0	0	0	
0.0226667	0.00268913	-0.00236647	0.00010487	6.3069E-05	0	0	0	
0.0228333	-0.00671638	0.00264735	0.00011674	5.76614E-05	0	0	0	
0.023	0.00881687	-0.0012595	0.000149306	4.9604E-05	0	0	0	
0.0231667	-0.000203675	-0.000498484	0.000197113	4.29478E-05	0	0	0	
0.0233333	0.00547203	0.00120236	0.000181843	3.76542E-05	0	0	0	
0.0235	-0.00606421	-0.00184922	0.000138563	3.77288E-05	0	0	0	
0.0236667	0.00379994	0.00223396	0.000119483	3.81368E-05	0	0	0	
0.0238333	-0.00665319	-0.00247623	0.000160167	3.79913E-05	0	0	0	
0.024	-0.0011645	0.00205749	0.000174317	4.31793E-05	0	0	0	
0.0241667	0.0128099	-0.000297491	0.000157912	5.33433E-05	0	0	0	
0.0243333	-0.00251742	-0.00207595	0.000157057	5.53943E-05	0	0	0	
0.0245	-0.00503883	0.0013072	0.000181442	4.66009E-05	0	0	0	
0.0246667	-0.00536669	0.000675727	0.000171893	3.31518E-05	0	0	0	
0.0248333	0.0116471	-0.00210105	0.000141572	2.69638E-05	0	0	0	
0.025	-0.00956341	0.00107281	0.000138277	2.82335E-05	0	0	0	
0.0251667	0.00187411	-0.00064106	0.000140329	2.94953E-05	0	0	0	
0.0253333	-0.00270762	-0.000305115	0.000128672	2.156E-05	0	0	0	
0.0255	0.00253061	0.000182421	8.44605E-05	1.28383E-05	0	0	0	
0.0256667	-0.000495014	-0.000382356	7.00792E-05	6.10356E-06	0	0	0	
0.0258333	0.000808239	-0.000948435	8.03937E-05	1.03501E-05	0	0	0	
0.026	0.00245593	0.00104106	9.00548E-05	2.09868E-05	0	0	0	
0.0261667	0.00261034	-0.00149409	9.34226E-05	2.51835E-05	0	0	0	
0.0263333	-0.00851256	-0.000933361	0.000104334	2.8727E-05	0	0	0	
0.0265	0.00557114	0.00288888	0.000123581	3.34159E-05	0	0	0	
0.0266667	0.00619663	-0.00366548	0.000151305	4.63665E-05	0	0	0	
0.0268333	0.0019798	0.00224194	0.000179772	5.62241E-05	0	0	0	
0.027	0.000191849	-0.000864449	0.00018181	5.60663E-05	0	0	0	
0.0271667	-0.00168681	-0.000503291	0.000146004	5.13713E-05	0	0	0	
0.0273333	-0.00328738	0.00168136	9.52193E-05	4.0935E-05	0	0	0	
0.0275	-0.00150721	-0.00134625	8.55882E-05	3.28463E-05	0	0	0	
0.0276667	-0.00813927	-0.000569693	0.000104188	3.59413E-05	0	0	0	
0.0278333	0.00520978	0.00154536	0.000114679	4.24643E-05	0	0	0	
0.028	-0.000804723	-0.00138744	0.000115947	4.24299E-05	0	0	0	
0.0281667	-0.00298813	0.00104444	0.000107408	3.37286E-05	0	0	0	
0.0283333	0.00150167	-7.53876E-05	8.25214E-05	2.08153E-05	0	0	0	
0.0285	-0.000951609	-0.000877466	6.95479E-05	1.95662E-05	0	0	0	
0.0286667	-0.00492806	0.0014496	5.74392E-05	2.08252E-05	0	0	0	
0.0288333	0.00373428	-0.000980116	8.05145E-05	2.5796E-05	0	0	0	
0.029	-0.00552563	0.000155747	9.31107E-05	2.39357E-05	0	0	0	
0.0291667	-0.00181471	0.000107753	0.000115991	1.55392E-05	0	0	0	
0.0293333	0.000550491	0.00232817	9.74606E-05	2.31016E-05	0	0	0	
0.0295	-0.000923641	-0.00183478	9.14514E-05	3.46032E-05	0	0	0	
0.0296667	0.00505427	3.43542E-05	7.47796E-05	3.61223E-05	0	0	0	
0.0298333	-0.00452084	-0.00108197	8.99906E-05	2.89123E-05	0	0	0	
0.03	-0.00512842	0.00326531	8.13073E-05	2.49477E-05	0	0	0	
0.0301667	0.00512605	-0.00141603	0.000101212	3.93095E-05	0	0	0	
0.0303333	0.00862349	-0.00087919	0.000102687	3.65182E-05	0	0	0	
0.0305	-0.0084042	0.000429835	0.000175263	3.49492E-05	0	0	0	
0.0306667	-0.00700639	-0.00102646	0.00022906	2.77811E-05	0	0	0	
0.0308333	0.00910643	0.00192326	0.000236557	4.37367E-05	0	0	0	
0.031	-0.000437397	0.00449276	0.000176806	8.18686E-05	0	0	0	
0.0311667	0.00760027	-0.0104754	0.00011716	0.00013123	0	0	0	
0.0313333	-0.00735509	0.00816047	0.000125624	0.000163731	0	0	0	
0.0315	-0.00942693	-0.00134417	0.00013118	0.000170911	0	0	0	
0.0316667	0.0107405	-0.00545285	0.000146648	0.000181399	0	0	0	
0.0318333	-0.0150317	0.00768377	0.000186209	0.000170083	0	0	0	
0.032	0.0101871	-0.00540767	0.000226699	0.000166784	0	0	0	
0.0321667	-0.00812501	-0.000148871	0.00022762	0.000111376	0	0	0	
0.0323333	0.00785435	-0.00678162	0.000192591	8.87568E-05	0	0	0	
0.0325	-0.00661559	0.0144594	0.000171051	9.13323E-05	0	0	0	
0.0326667	0.00494274	-0.017868	0.000164065	0.000191398	0	0	0	
0.0328333	-0.00765202	0.0147632	0.000152595	0.000270605	0	0	0	
0.033	0.00949388	-0.00433575	0.000203423	0.000331803	0	0	0	
0.0331667	-0.00385604	-0.0209683	0.000292978	0.000384785	0	0	0	
0.0333333	0.0138461	0.0340879	0.000367561	0.000401493	0	0	0	
0.0335	-0.0117448	-0.0212145	0.000328972	0.000825873	0	0	0	
0.0336667	0.00876055	-0.0479944	0.000264665	0.00153132	0	0	0	
0.0338333	0.00792823	0.0844847	0.000197818	0.00216465	0	0	0	
0.034	-0.0106633	-0.0908263	0.000192564	0.00212366	0	0	0	
0.0341667	0.00983248	0.0433289	0.000170385	0.0017245	0	0	0	
0.0343333	0.000478703	-0.00150804	0.00021075	0.00146655	0	0	0	
0.0345	-0.00957689	-0.0671668	0.000226687	0.00137647	0	0	0	
0.0346667	0.0179922	0.0960755	0.000242982	0.00139385	0	0	0	
0.0348333	-0.00939926	-0.0593514	0.000285243	0.00143468	0	0	0	
0.035	-0.000577428	-0.00731506	0.000317955	0.00163494	0	0	0	
0.0351667	-0.00853487	0.0411721	0.000363103	0.00161468	0	0	0	
0.0353333	-0.00274291	-0.0469021	0.000276349	0.00135042	0	0	0	
0.0355	-0.00466235	0.0311265	0.00022658	0.000982576	0	0	0	
0.0356667	0.0171387	-0.0290826	0.00020828	0.000718015	0	0	0	
0.0358333	-0.0248918	0.0310487	0.000300634	0.000643283	0	0	0	
0.036	0.000118052	-0.0509971	0.000309194	0.000763403	0	0	0	
0.0361667	-0.000396136	-0.0159872	0.000298299	0.000785302	0	0	0	
0.0363333	-0.00406578	0.0341252	0.000200129	0.000939645	0	0	0	
0.0365	0.0047165	-0.0107421	0.000193516	0.00101205	0	0	0	
0.0366667	-0.000275923	-0.00910703	0.000146566	0.00113481	0	0	0	
0.0368333	-0.00290255	0.0175233	0.000153024	0.000942515	0	0	0	
0.037	-0.00452735	-0.0249172	0.000150548	0.000624294	0	0	0	
0.0371667	-0.00186165	-0.0222428	0.000161347	0.000462642	0	0	0	
0.0373333	0.00415302	0.0633629	0.00015827	0.000681421	0	0	0	
0.0375	-0.00347253	-0.0575519	0.000146869	0.000950506	0	0	0	
0.0376667	-0.00150396	0.0324689	0.000129756	0.00109534	0	0	0	
0.0378333	-0.00727371	0.00222339	0.00012703	0.000985981	0	0	0	
0.038	-0.00142585	-0.0115578	0.000102745	0.000753093	0	0	0	
0.0381667	0.00061947	0.00665116	0.00011317	0.000473874	0	0	0	
0.0383333	-0.00503154	0.00452633	9.80708E-05	0.000359262	0	0	0	
0.0385	-0.00490393	-0.0118301	0.000115088	0.000278515	0	0	0	
0.0386667	-0.00278586	0.00290854	0.000108991	0.000305994	0	0	0	
0.0388333	-0.00637508	0.0061984	0.000111105	0.000307309	0	0	0	
0.039	0.00801697	-0.0137233	9.36653E-05	0.000319187	0	0	0	
0.0391667	-0.0106057	0.0143307	0.0001129	0.00033883	0	0	0	
0.0393333	0.00828186	-0.00130653	0.000143122	0.000324214	0	0	0	
0.0395	-0.00776789	-0.00685549	0.000149586	0.000351877	0	0	0	
0.0396667	0.00872752	0.00841809	0.000165353	0.0003177	0	0	0	
0.0398333	-0.00129407	-0.00654859	0.000145231	0.000236365	0	0	0	
0.04	-0.00222803	-0.00627069	0.000119811	0.000210288	0	0	0	
0.0401667	-0.000619701	0.0215091	7.14912E-05	0.000235998	0	0	0	
0.0403333	-2.83167E-05	-0.0178131	7.67363E-05	0.000307232	0	0	0	
0.0405	-0.00187231	0.00393529	0.000101591	0.000320332	0	0	0	
0.0406667	0.0047981	0.0068108	0.000111647	0.000331151	0	0	0	
0.0408333	0.00122432	-0.00946264	0.000116522	0.000258768	0	0	0	
0.041	0.00054079	0.000469413	0.000112599	0.000199392	0	0	0	
0.0411667	-1.5584E-05	0.00348932	9.67234E-05	0.000129551	0	0	0	
0.0413333	0.000956975	-0.00253038	5.81635E-05	8.96093E-05	0	0	0	
0.0415	-0.00298081	-0.0032503	4.51093E-05	7.474E-05	0	0	0	
0.0416667	0.00595575	0.00455941	6.29922E-05	8.44194E-05	0	0	0	
0.0418333	-0.000428165	-0.00275283	9.33161E-05	0.000113787	0	0	0	
0.042	-0.00307189	-0.00431458	9.66488E-05	0.000126442	0	0	0	
0.0421667	0.00512315	0.00715494	9.02467E-05	0.000136311	0	0	0	
0.0423333	-0.000742835	0.00157121	6.64726E-05	0.000120878	0	0	0	
0.0425	-0.00249533	-0.00396806	6.64784E-05	0.000126336	0	0	0	
0.0426667	0.00527837	0.00342771	7.12004E-05	0.000107926	0	0	0	
0.0428333	-0.00573355	-0.00217081	0.000118656	0.000104485	0	0	0	
0.043	0.00457502	0.000453991	0.000141149	7.63009E-05	0	0	0	
0.0431667	0.00378093	-0.00298581	0.0001442	6.20032E-05	0	0	0	
0.0433333	-0.00481761	-0.00100049	0.00010989	6.16237E-05	0	0	0	
0.0435	0.000547248	-0.00251666	0.000105071	0.000104187	0	0	0	
0.0436667	-0.000351952	-0.00254133	9.40264E-05	0.000109168	0	0	0	
0.0438333	0.000159878	0.0040244	9.08267E-05	0.000119691	0	0	0	
0.044	0.00047591	0.000228688	0.000108601	0.000106607	0	0	0	
0.0441667	-0.0032472	-0.0106728	0.000186358	0.000172609	0	0	0	
0.0443333	0.0175811	0.023174	0.000251975	0.000369047	0	0	0	
0.0445	-0.0135442	-0.0376194	0.000282516	0.000585578	0	0	0	
0.0446667	0.00623081	0.0263807	0.000309297	0.000680452	0	0	0	
0.0448333	0.00660998	0.00987646	0.000294973	0.000637461	0	0	0	
0.045	-0.00762264	-0.0246001	0.000294738	0.000563187	0	0	0	
0.0451667	0.00738507	0.0250523	0.000221717	0.000502043	0	0	0	
0.0453333	0.00891668	-0.0193263	0.000217334	0.000481029	0	0	0	
0.0455	-0.0176378	0.0100584	0.000280924	0.000572448	0	0	0	
0.0456667	0.0190216	0.0142031	0.000364053	0.000748405	0	0	0	
0.0458333	0.00739231	-0.0226021	0.000392218	0.000741172	0	0	0	
0.046	0.00832614	0.00642798	0.000275551	0.000580342	0	0	0	
0.0461667	-0.0160933	0.00280619	0.000253091	0.000500347	0	0	0	
0.0463333	0.00298461	-0.0164827	0.000260341	0.000515244	0	0	0	
0.0465	0.00244827	0.0112306	0.000240081	0.000491899	0	0	0	
0.0466667	-0.000134289	-0.00420814	0.000169136	0.000327986	0	0	0	
0.0468333	0.0133405	0.00187234	9.89966E-05	0.000237449	0	0	0	
0.047	-0.00294524	-0.00282113	0.000171059	0.00019061	0	0	0	
0.0471667	-0.011417	-0.00534687	0.000172237	0.000183545	0	0	0	
0.0473333	0.00656906	-0.00165167	0.000211615	0.000145841	0	0	0	
0.0475	0.000797065	-0.00173254	0.000174912	0.00011548	0	0	0	
0.0476667	-0.0113743	-0.00233881	0.000214603	8.23837E-05	0	0	0	
0.0478333	0.0116963	0.0374198	0.00022508	0.000237178	0	0	0	
0.048	-0.00682837	-0.0429355	0.000232811	0.000686243	0	0	0	
0.0481667	0.00649487	0.0481819	0.000182908	0.00109346	0	0	0	
0.0483333	-0.00390622	-0.0340084	0.000144685	0.00115729	0	0	0	
0.0485	0.00236424	0.0120595	0.000138737	0.000833919	0	0	0	
0.0486667	6.6852E-05	0.00417248	0.000118731	0.000470668	0	0	0	
0.0488333	0.00266426	-0.00563388	0.00010588	0.000271939	0	0	0	
0.049	-0.00310984	0.0204492	0.000100667	0.0004616	0	0	0	
0.0491667	0.00279625	-0.00271418	0.00012385	0.000886034	0	0	0	
0.0493333	-0.00485968	-0.0122585	0.000127374	0.00124093	0	0	0	
0.0495	0.00480907	0.0240419	0.000110738	0.0011064	0	0	0	
0.0496667	-0.00444912	-0.00798612	0.000101198	0.000699068	0	0	0	
0.0498333	0.003772	-0.00556876	8.80487E-05	0.000382879	0	0	0	
0.05	-0.00538041	0.0141801	8.18481E-05	0.000241243	0	0	0	
0.0501667	0.00227558	-0.0100129	0.000102924	0.000296146	0	0	0	
0.0503333	0.00853444	-0.00847736	0.000151915	0.000294473	0	0	0	
0.0505	-0.0168775	0.0131832	0.000216779	0.000306158	0	0	0	
0.0506667	0.00778811	-0.0106528	0.000248593	0.000258932	0	0	0	
0.0508333	0.00109856	0.00969927	0.000212802	0.000226528	0	0	0	
0.051	-0.002989	-0.00501767	0.000137229	0.000202025	0	0	0	
0.0511667	0.00395086	0.000794377	8.75412E-05	0.000133751	0	0	0	
0.0513333	0.000661111	-0.00168507	8.82016E-05	0.000101794	0	0	0	
0.0515	-0.00476693	-0.000340741	0.000141078	0.000107076	0	0	0	
0.0516667	0.00379708	-0.00152368	0.000180317	0.000121786	0	0	0	
0.0518333	-0.00335011	0.00645525	0.000174198	0.000117379	0	0	0	
0.052	-0.00257495	-0.00192772	0.000122497	0.000111428	0	0	0	
0.0521667	0.00274142	0.00279359	6.74482E-05	0.000114644	0	0	0	
0.0523333	0.00189756	-0.00562917	6.02432E-05	0.000130468	0	0	0	
0.0525	-0.00683126	0.00388411	0.000102253	0.000145122	0	0	0	
0.0526667	0.00911556	-0.0066297	0.000148745	0.000124869	0	0	0	
0.0528333	-0.00802028	0.00655476	0.000176034	0.000130715	0	0	0	
0.053	0.00185415	0.000491609	0.000156364	0.000101466	0	0	0	
0.0531667	0.00117494	-0.00567549	0.000102574	0.000116329	0	0	0	
0.0533333	0.00111797	0.00122369	5.97609E-05	7.36484E-05	0	0	0	
0.0535	0.00311786	-6.18114E-05	4.99747E-05	8.08564E-05	0	0	0	
0.0536667	0.00384375	0.00133465	8.71532E-05	8.71651E-05	0	0	0	
0.0538333	-0.000115298	0.00669406	0.000149874	0.000101424	0	0	0	
0.054	0.00485871	-0.00152793	0.000192454	0.000110008	0	0	0	
0.0541667	-0.00281997	-0.00360669	0.000198616	9.10961E-05	0	0	0	
0.0543333	0.000949077	0.000714666	0.000143506	8.86049E-05	0	0	0	
0.0545	0.00145952	-0.00422079	8.10445E-05	6.88256E-05	0	0	0	
0.0546667	-0.00199032	-0.000381648	5.38926E-05	6.2998E-05	0	0	0	
0.0548333	0.000592375	0.000794156	7.24748E-05	5.89444E-05	0	0	0	
0.055	0.00244122	-0.00186826	9.57909E-05	5.09076E-05	0	0	0	
0.0551667	-0.00375949	0.000234503	0.00010078	5.33539E-05	0	0	0	
0.0553333	0.00354066	-0.000685811	9.0155E-05	5.16971E-05	0	0	0	
0.0555	-0.0011948	-0.00238434	7.8689E-05	5.8547E-05	0	0	0	
0.0556667	0.00750953	0.00433958	7.20115E-05	7.01675E-05	0	0	0	
0.0558333	-0.00210887	-0.00413724	9.43074E-05	8.01924E-05	0	0	0	
0.056	9.80262E-05	0.00491085	0.000119439	9.79426E-05	0	0	0	
0.0561667	-0.00624569	0.00137074	0.000131728	8.97392E-05	0	0	0	
0.0563333	0.00779799	0.0010012	0.000135877	9.19684E-05	0	0	0	
0.0565	-0.00277137	0.00276058	0.000137194	8.07359E-05	0	0	0	
0.0566667	0.000941316	-0.00368759	0.000127382	9.16415E-05	0	0	0	
0.0568333	0.00122798	0.00340886	9.53638E-05	7.85675E-05	0	0	0	
0.057	-0.00387653	-0.00410532	6.96774E-05	8.274E-05	0	0	0	
0.0571667	0.00989331	0.000278227	8.77663E-05	8.05351E-05	0	0	0	
0.0573333	-0.00324044	0.00739617	0.000120973	8.17499E-05	0	0	0	
0.0575	0.00227258	-0.00587763	0.00013819	9.46648E-05	0	0	0	
0.0576667	-0.00207356	0.00160827	0.000126479	9.60571E-05	0	0	0	
0.0578333	-0.00119466	-0.00295203	8.61029E-05	0.000125645	0	0	0	
0.058	0.00238967	-0.000744778	6.51962E-05	0.000115464	0	0	0	
0.0581667	0.00177881	-0.00145206	4.26531E-05	0.000110395	0	0	0	
0.0583333	-0.00336529	0.0054825	5.84419E-05	9.98471E-05	0	0	0	
0.0585	0.000809922	-0.00460715	5.73359E-05	0.000100961	0	0	0	
0.0586667	0.00294276	-0.000237242	7.8663E-05	9.67878E-05	0	0	0	
0.0588333	-0.00433521	-0.00422652	9.05576E-05	9.10891E-05	0	0	0	
0.059	0.000607363	0.00560959	9.62761E-05	8.95583E-05	0	0	0	
0.0591667	0.00425968	-0.004476	8.28111E-05	0.000109656	0	0	0	
0.0593333	-0.00231085	0.00574549	6.02246E-05	0.000103603	0	0	0	
0.0595	0.00315309	-0.0016811	9.11418E-05	8.79585E-05	0	0	0	
0.0596667	0.00279626	0.00371595	0.000142991	8.50906E-05	0	0	0	
0.0598333	-0.00675217	0.00114963	0.00019715	8.53552E-05	0	0	0	
0.06	0.00417026	0.00228306	0.000208571	7.96432E-05	0	0	0	
0.0601667	-7.23757E-05	-0.004142	0.000154647	7.27719E-05	0	0	0	
0.0603333	-0.000205766	-0.00100962	0.000123161	5.80836E-05	0	0	0	
0.0605	-0.00668346	3.64123E-05	0.000113269	8.5035E-05	0	0	0	
0.0606667	0.000266997	0.000492676	0.000167612	6.55126E-05	0	0	0	
0.0608333	0.00561934	0.00155132	0.000170437	9.38029E-05	0	0	0	
0.061	-0.00212897	-0.00168386	0.000183749	0.000113879	0	0	0	
0.0611667	-0.00358098	0.00139926	0.000180796	0.000165134	0	0	0	
0.0613333	0.0033271	0.00409301	0.000167775	0.000172883	0	0	0	
0.0615	-0.00482176	-0.00375054	0.000133468	0.000138497	0	0	0	
0.0616667	0.0114066	0.000590577	0.000142427	0.000100272	0	0	0	
0.0618333	-0.00903402	0.00631234	0.000168562	6.43532E-05	0	0	0	
0.062	-0.00513067	-0.0131424	0.000167353	0.000115359	0	0	0	
0.0621667	0.000240646	0.00999205	0.000117994	0.000160976	0	0	0	
0.0623333	0.00271321	-0.00602224	7.06714E-05	0.000208972	0	0	0	
0.0625	-0.00218465	0.0018154	6.23361E-05	0.000150489	0	0	0	
0.0626667	-0.00200545	-0.00586345	6.98709E-05	0.000134264	0	0	0	
0.0628333	-0.00697304	-3.45877E-05	0.000108578	0.00010534	0	0	0	
0.063	0.000129385	-0.000858753	0.000141933	0.000116457	0	0	0	
0.0631667	0.00116166	0.00159201	0.000125754	8.33084E-05	0	0	0	
0.0633333	-0.00320253	-0.00281441	9.49997E-05	7.89764E-05	0	0	0	
0.0635	3.30053E-05	-0.00227631	4.83573E-05	6.11764E-05	0	0	0	
0.0636667	-0.00225809	-0.00222797	5.0168E-05	7.15862E-05	0	0	0	
0.0638333	0.00548043	0.00557162	8.72712E-05	8.74955E-05	0	0	0	
0.064	0.00138032	-0.00317877	0.000113998	0.000106667	0	0	0	
0.0641667	0.00250592	0.00314751	0.000132634	8.69504E-05	0	0	0	
0.0643333	-0.000135449	-0.00658874	8.61376E-05	8.23385E-05	0	0	0	
0.0645	0.000891972	-0.000486424	5.79796E-05	8.46168E-05	0	0	0	
0.0646667	0.000940498	-0.00196929	2.85191E-05	8.37734E-05	0	0	0	
0.0648333	-0.00457117	0.00735425	3.22258E-05	9.15899E-05	0	0	0	
0.065	-0.000116097	-0.000469668	3.51347E-05	8.30683E-05	0	0	0	
0.0651667	0.010518	-0.00405418	6.99387E-05	8.43497E-05	0	0	0	
0.0653333	-0.0133534	0.00251863	0.000135669	5.3606E-05	0	0	0	
0.0655	0.0100549	-0.00505369	0.000195628	5.36357E-05	0	0	0	
0.0656667	0.000930844	0.00405108	0.000239269	8.23897E-05	0	0	0	
0.0658333	-0.006045	0.00127803	0.000221436	8.88428E-05	0	0	0	
0.066	0.00359987	0.000381605	0.000184826	7.96977E-05	0	0	0	
0.0661667	0.00349679	0.000217333	0.000149297	6.05328E-05	0	0	0	
0.0663333	-0.00879383	-0.000542603	0.000171101	5.4889E-05	0	0	0	
0.0665	0.0049425	0.00220914	0.000202893	6.62698E-05	0	0	0	
0.0666667	-0.000626033	0.000842948	0.000192938	7.09237E-05	0	0	0	
0.0668333	0.00270063	0.000389585	0.000123899	6.86118E-05	0	0	0	
0.067	0.0003922	-0.000674018	8.11887E-05	6.26759E-05	0	0	0	
0.0671667	-0.00492626	0.00144255	6.67445E-05	7.22863E-05	0	0	0	
0.0673333	0.00273917	-0.0025065	8.30123E-05	9.08065E-05	0	0	0	
0.0675	-0.00506499	0.0028124	8.59143E-05	9.29559E-05	0	0	0	
0.0676667	0.00593948	2.14497E-05	9.75619E-05	6.35098E-05	0	0	0	
0.0678333	0.0392245	-0.00082818	0.000313044	4.74956E-05	0	0	0	
0.068	-0.083401	0.00407403	0.00064802	5.71963E-05	0	0	0	
0.0681667	-0.0802142	-0.00361212	0.0017177	6.89831E-05	0	0	0	
0.0683333	0.498195	0.00257375	0.00424999	6.94136E-05	0	0	0	
0.0685	-0.460882	-0.00313096	0.00745093	6.33166E-05	0	0	0	
0.0686667	0.1916	0.000119286	0.00806688	7.41304E-05	0	0	0	
0.0688333	0.0680361	-0.000469832	0.00697167	7.14541E-05	0	0	0	
0.069	-0.167434	0.00382705	0.00440829	9.30956E-05	0	0	0	
0.0691667	0.0390714	0.000555905	0.00356792	0.00012585	0	0	0	
0.0693333	0.210084	-0.00164275	0.00477817	0.000154999	0	0	0	
0.0695	-0.120606	0.000483459	0.00766043	0.000119551	0	0	0	
0.0696667	0.0343495	0.00478012	0.00924207	7.22622E-05	0	0	0	
0.0698333	-0.0436183	-0.00643668	0.00728022	5.56965E-05	0	0	0	
0.07	0.0284483	0.00756263	0.00357239	9.31156E-05	0	0	0	
0.0701667	0.0667149	-0.00962459	0.00165712	0.000141409	0	0	0	
0.0703333	-0.0733975	0.00143918	0.00121263	0.000151601	0	0	0	
0.0705	0.0686855	-3.4972E-05	0.00278005	0.000132226	0	0	0	
0.0706667	0.0595347	-0.00248851	0.00328659	8.8467E-05	0	0	0	
0.0708333	0.0365307	-0.00181357	0.00322804	6.48979E-05	0	0	0	
0.071	-0.0862198	0.00180304	0.00208428	4.6936E-05	0	0	0	
0.0711667	0.0307887	-0.00117612	0.00145005	4.63963E-05	0	0	0	
0.0713333	0.0576664	-0.00251645	0.00168133	6.94383E-05	0	0	0	
0.0715	-0.0609632	0.00376153	0.00146722	9.91904E-05	0	0	0	
0.0716667	0.0256062	-0.00592249	0.00151198	0.000116393	0	0	0	
0.0718333	0.0374793	0.00318635	0.00128755	0.000106281	0	0	0	
0.072	-0.0313181	0.000916129	0.00110509	8.64685E-05	0	0	0	
0.0721667	-0.00454653	-0.0032628	0.00102902	6.97818E-05	0	0	0	
0.0723333	0.0138037	0.00117058	0.000796333	6.13371E-05	0	0	0	
0.0725	0.0210374	0.00624487	0.000669374	7.20141E-05	0	0	0	
0.0726667	-0.036326	-0.0111886	0.000523593	9.77092E-05	0	0	0	
0.0728333	-0.0016097	0.0116061	0.000577723	0.000144432	0	0	0	
0.073	0.0281589	-0.00740129	0.000677219	0.000184317	0	0	0	
0.0731667	0.0103338	0.00139441	0.000563386	0.00018923	0	0	0	
0.0733333	-0.0477061	0.00280789	0.00048955	0.000156304	0	0	0	
0.0735	0.0365388	-0.000616763	0.000617777	9.45901E-05	0	0	0	
0.0736667	-0.00576176	-0.0020952	0.000824531	9.05561E-05	0	0	0	
0.0738333	-0.0188093	0.00712087	0.000862459	0.000109646	0	0	0	
0.074	0.0272268	-0.00803137	0.000729204	0.000144259	0	0	0	
0.0741667	-0.0335385	0.00623945	0.000592553	0.000139021	0	0	0	
0.0743333	0.0228721	-0.00351448	0.000595648	0.000127786	0	0	0	
0.0745	0.0146175	-0.00199452	0.000670649	0.000138228	0	0	0	
0.0746667	-0.0285585	0.00608046	0.000706649	0.000159402	0	0	0	
0.0748333	0.00846077	-0.00892975	0.000591474	0.000176149	0	0	0	
0.075	-0.00492437	0.00242048	0.000403285	0.000153589	0	0	0	
0.0751667	0.0103173	-0.00138273	0.000192062	0.000115809	0	0	0	
0.0753333	0.00140369	-0.00176733	0.000283615	0.000106198	0	0	0	
0.0755	-0.0245654	0.00390517	0.000530254	0.000109895	0	0	0	
0.0756667	0.0464205	-0.00494962	0.000761984	0.00011593	0	0	0	
0.0758333	-0.0115602	0.00320598	0.000752206	0.000112487	0	0	0	
0.076	-0.00344503	-0.00368317	0.000497735	0.000133068	0	0	0	
0.0761667	-0.0108594	-0.00151178	0.00031334	0.000130119	0	0	0	
0.0763333	0.000811441	0.005346	0.000192215	0.000125104	0	0	0	
0.0765	-0.0012438	-0.00280862	0.000206692	0.000101428	0	0	0	
0.0766667	-0.0015107	0.0032061	0.000171125	0.000128872	0	0	0	
0.0768333	0.0128942	0.00354443	0.000190864	0.00014117	0	0	0	
0.077	-0.011904	-0.00629698	0.000268137	0.00015102	0	0	0	
0.0771667	0.00548021	0.00275374	0.000306279	0.000132434	0	0	0	
0.0773333	-0.0032884	-0.000401626	0.000238675	9.12644E-05	0	0	0	
0.0775	0.010454	-0.00113118	0.00016891	6.62739E-05	0	0	0	
0.0776667	-0.00167141	0.00712596	0.000148043	7.09722E-05	0	0	0	
0.0778333	0.00315083	-0.00126642	0.000145894	9.3893E-05	0	0	0	
0.078	-0.00208453	-0.00289289	0.000118132	9.01174E-05	0	0	0	
0.0781667	0.000497621	0.000324742	0.000100275	6.55717E-05	0	0	0	
0.0783333	-0.000166152	0.00254697	8.90156E-05	4.36098E-05	0	0	0	
0.0785	0.00320071	0.00376782	6.42471E-05	5.15167E-05	0	0	0	
0.0786667	-0.000996541	-0.00227636	4.89255E-05	5.79269E-05	0	0	0	
0.0788333	0.00155012	0.00439881	4.80816E-05	7.30631E-05	0	0	0	
0.079	-0.00197246	-0.00517752	3.97005E-05	0.000101437	0	0	0	
0.0791667	-0.00066203	-0.00100082	4.73389E-05	0.000128581	0	0	0	
0.0793333	0.0148579	-0.00407227	8.76552E-05	0.0001159	0	0	0	
0.0795	-0.0145923	0.00582875	0.000169147	0.000119837	0	0	0	
0.0796667	0.00322883	-0.00210629	0.000233752	0.000141765	0	0	0	
0.0798333	0.0049186	-0.00151462	0.000287022	0.000166512	0	0	0	
0.08	-0.00742496	0.00195488	0.000228834	0.000131699	0	0	0	
0.0801667	0.0100452	-0.0053743	0.000204692	8.82999E-05	0	0	0	
0.0803333	-0.00278051	-0.00231406	0.000184886	9.67096E-05	0	0	0	
0.0805	-0.00620627	0.00389905	0.000274347	0.000107845	0	0	0	
0.0806667	0.00982023	-0.000613775	0.000299419	0.000105708	0	0	0	
0.0808333	-0.00685813	0.00348588	0.000261572	9.49829E-05	0	0	0	
0.081	0.000612764	-0.00188219	0.000176822	9.7135E-05	0	0	0	
0.0811667	0.00388374	0.00129544	0.000104743	9.62077E-05	0	0	0	
0.0813333	-0.00570924	-0.00317762	9.77636E-05	9.96897E-05	0	0	0	
0.0815	0.00330786	0.00548052	0.000113006	0.000125926	0	0	0	
0.0816667	0.00542555	-0.00516094	0.000108108	0.000136262	0	0	0	
0.0818333	-0.000199766	0.0027862	9.56427E-05	0.000128986	0	0	0	
0.082	-0.00641478	-0.00259798	7.11119E-05	0.000111342	0	0	0	
0.0821667	0.00364343	-0.00555161	7.53216E-05	9.93671E-05	0	0	0	
0.0823333	-0.00508776	0.00432695	0.000108812	0.000105757	0	0	0	
0.0825	-0.000233732	0.000752274	0.000158107	0.000111546	0	0	0	
0.0826667	0.00399254	-0.00299229	0.000188476	0.000144885	0	0	0	
0.0828333	-0.0040578	0.00481461	0.000183286	0.000144326	0	0	0	
0.083	-0.00528105	-0.00612122	0.000145641	0.000116756	0	0	0	
0.0831667	0.00288167	0.00166553	0.000114462	0.000106972	0	0	0	
0.0833333	0.00577426	0.00405024	0.000154036	0.000100132	0	0	0	
0.0835	-0.0235961	-0.00236266	0.000219341	0.000109065	0	0	0	
0.0836667	0.0149274	0.00727493	0.000431867	9.62038E-05	0	0	0	
0.0838333	0.0200371	-0.00321288	0.00076724	0.000111433	0	0	0	
0.084	-0.0211784	-0.00196165	0.000826728	0.000126098	0	0	0	
0.0841667	-0.0118546	0.00203189	0.000700078	0.00013962	0	0	0	
0.0843333	0.00920844	-0.00129474	0.000339104	0.000117856	0	0	0	
0.0845	0.00132456	0.00207547	0.00021553	8.26324E-05	0	0	0	
0.0846667	0.0256003	-0.000756455	0.000232242	6.44026E-05	0	0	0	
0.0848333	-0.0400974	-0.00221882	0.000385383	8.30059E-05	0	0	0	
0.085	0.0160684	0.000419308	0.000565011	0.000104924	0	0	0	
0.0851667	-0.00536211	-0.00674487	0.000543884	0.0001034	0	0	0	
0.0853333	0.0079332	0.00275455	0.000380351	0.000105739	0	0	0	
0.0855	0.0108937	-0.000576636	0.000269027	9.95609E-05	0	0	0	
0.0856667	-0.0143543	0.000734447	0.000255733	9.40392E-05	0	0	0	
0.0858333	-0.00826232	9.97011E-05	0.000492848	5.48825E-05	0	0	0	
0.086	0.015354	-0.000354889	0.000590348	3.07472E-05	0	0	0	
0.0861667	-0.0024764	-0.00362815	0.000553077	2.85107E-05	0	0	0	
0.0863333	0.00445974	0.00481999	0.000280826	6.20779E-05	0	0	0	
0.0865	-0.00781174	-0.00139876	0.000116241	8.79416E-05	0	0	0	
0.0866667	-0.0165999	0.00212336	0.00024695	0.000103425	0	0	0	
0.0868333	0.0330597	-0.00643307	0.000360928	9.79226E-05	0	0	0	
0.087	-0.0239444	-0.000268937	0.000604315	0.0001142	0	0	0	
0.0871667	-0.00920517	-0.00495273	0.000696792	9.77677E-05	0	0	0	
0.0873333	0.0113053	0.00913003	0.000621482	0.000105571	0	0	0	
0.0875	0.00545207	-0.00520893	0.000437977	0.000103083	0	0	0	
0.0876667	-0.00596656	0.00269789	0.000189292	0.000128921	0	0	0	
0.0878333	0.000718473	0.00527012	0.000217147	0.000126767	0	0	0	
0.088	0.00395676	-0.00341979	0.000198902	0.000119806	0	0	0	
0.0881667	-0.00420268	0.00649229	0.000202511	0.000106808	0	0	0	
0.0883333	0.00633038	-0.00170611	0.000160443	9.76158E-05	0	0	0	
0.0885	-0.00424578	-0.002868	0.000143462	9.50551E-05	0	0	0	
0.0886667	-0.000249031	0.00783165	0.000132205	9.0266E-05	0	0	0	
0.0888333	-0.000143545	-0.00430927	0.000147853	0.000113604	0	0	0	
0.089	-0.00634901	0.0055798	0.000121218	0.000134662	0	0	0	
0.0891667	0.0211189	-0.00194964	0.000198622	0.000144917	0	0	0	
0.0893333	-0.0103143	-0.00505032	0.00023583	0.000120359	0	0	0	
0.0895	-0.00766559	-0.00198229	0.000305087	9.16958E-05	0	0	0	
0.0896667	0.00498954	0.00725534	0.000242659	8.87329E-05	0	0	0	
0.0898333	0.00349093	-0.0103038	0.000170252	0.000107702	0	0	0	
0.09	-0.00516835	0.00523556	0.000109779	0.000140308	0	0	0	
0.0901667	0.00998921	0.00498224	0.000144138	0.000129432	0	0	0	
0.0903333	-0.012039	-0.0134844	0.000191534	0.000152394	0	0	0	
0.0905	0.00438842	0.00308599	0.000182053	0.000146283	0	0	0	
0.0906667	0.00484406	0.00511774	0.000167964	0.000151298	0	0	0	
0.0908333	-0.0108028	-0.00405853	0.000147885	0.000121365	0	0	0	
0.091	-0.00718205	0.00777382	0.000190623	0.000116647	0	0	0	
0.0911667	0.0126347	-0.0042422	0.00022221	0.000122348	0	0	0	
0.0913333	-0.00926921	-0.00446483	0.000228836	0.000136229	0	0	0	
0.0915	-0.00100196	-0.00048488	0.000185188	0.00016641	0	0	0	
0.0916667	-0.00213071	0.000848866	0.000120161	0.000170054	0	0	0	
0.0918333	0.00178489	0.00568305	9.44753E-05	0.000134809	0	0	0	
0.092	0.00673379	-0.00120957	9.23372E-05	8.15184E-05	0	0	0	
0.0921667	-0.00179731	0.00304283	8.50739E-05	6.42509E-05	0	0	0	
0.0923333	0.000390741	0.000107536	8.09258E-05	6.35164E-05	0	0	0	
0.0925	0.000706159	0.00171342	8.70717E-05	6.5889E-05	0	0	0	
0.0926667	0.00472662	0.00216201	0.000117392	6.42479E-05	0	0	0	
0.0928333	0.0014722	0.00939871	0.000109183	7.68999E-05	0	0	0	
0.093	-0.00190205	-0.00408005	8.18988E-05	0.000104445	0	0	0	
0.0931667	0.00349388	0.00466814	5.94982E-05	0.000117134	0	0	0	
0.0933333	-0.00672838	-0.000625924	8.2098E-05	0.000122892	0	0	0	
0.0935	0.0170202	-0.00113215	0.000160878	8.86177E-05	0	0	0	
0.0936667	-0.0215835	0.00274618	0.000286647	8.53678E-05	0	0	0	
0.0938333	0.00791855	0.00226436	0.000350936	9.37229E-05	0	0	0	
0.094	-0.00106442	-0.0022933	0.000312923	0.000135029	0	0	0	
0.0941667	0.00144502	0.000578298	0.000184785	0.000147458	0	0	0	
0.0943333	-0.00165646	-0.00065584	0.000106258	0.000114427	0	0	0	
0.0945	0.00746752	0.000321541	8.58154E-05	6.71775E-05	0	0	0	
0.0946667	-0.0195709	0.00373417	0.000142568	6.1665E-05	0	0	0	
0.0948333	0.0260019	-0.00529882	0.000261713	9.45231E-05	0	0	0	
0.095	0.00515307	0.00599353	0.000418481	0.000130905	0	0	0	
0.0951667	-0.0519258	-0.0111738	0.000525737	0.000149844	0	0	0	
0.0953333	0.0219724	0.0088646	0.000823885	0.000165266	0	0	0	
0.0955	0.0606568	-0.00692186	0.00139923	0.000180067	0	0	0	
0.0956667	-0.0788603	0.000605672	0.00158324	0.000158824	0	0	0	
0.0958333	0.0123319	0.000977314	0.00166234	0.000103257	0	0	0	
0.096	0.0146632	-0.00329311	0.00114007	5.71546E-05	0	0	0	
0.0961667	-0.00739672	-0.000635813	0.000849244	4.72895E-05	0	0	0	
0.0963333	0.0440721	0.00470778	0.000528424	6.91556E-05	0	0	0	
0.0965	-0.0595973	-0.00410548	0.000600215	9.89092E-05	0	0	0	
0.0966667	-0.0138242	-0.00595447	0.00101961	0.000115937	0	0	0	
0.0968333	0.0625398	0.00201745	0.00117018	0.00013433	0	0	0	
0.097	-0.0243263	-0.00209538	0.00110036	0.000101955	0	0	0	
0.0971667	-0.011136	0.00180426	0.000819438	7.45771E-05	0	0	0	
0.0973333	0.0120669	0.0012965	0.000533816	4.25482E-05	0	0	0	
0.0975	0.00992984	-0.00208545	0.000407581	4.83816E-05	0	0	0	
0.0976667	-0.0188123	0.00415924	0.000284845	8.17732E-05	0	0	0	
0.0978333	0.0107858	-0.00149173	0.000346959	0.000108372	0	0	0	
0.098	0.00807047	0.00300521	0.000355188	0.000105775	0	0	0	
0.0981667	-0.00865949	-0.00240068	0.000302504	8.13358E-05	0	0	0	
0.0983333	0.00253133	0.00171149	0.000241581	6.36349E-05	0	0	0	
0.0985	0.00255744	-0.00195463	0.000128887	7.1287E-05	0	0	0	
0.0986667	-0.00356663	-0.00328167	0.000133612	7.70023E-05	0	0	0	
0.0988333	0.00103261	0.00415561	0.000113422	8.44902E-05	0	0	0	
0.099	0.00457821	-0.00210433	0.000115918	8.43196E-05	0	0	0	
0.0991667	-0.0018872	-0.00213044	9.21972E-05	7.08751E-05	0	0	0	
0.0993333	-0.00270822	0.00269296	7.32756E-05	6.15683E-05	0	0	0	
0.0995	0.00149103	-0.0037533	9.13997E-05	6.68889E-05	0	0	0	
0.0996667	-0.000340067	-0.00201901	9.06385E-05	8.84065E-05	0	0	0	
0.0998333	-0.00142301	-0.000587223	6.98131E-05	9.79819E-05	0	0	0	
0.1	0.00270359	0.00429009	6.47071E-05	0.000103878	0	0	0	
0.100167	0.00172657	0.00102927	6.16092E-05	9.47164E-05	0	0	0	
0.100333	-0.00599838	-0.00012146	0.000104558	7.82345E-05	0	0	0	
0.1005	0.00548144	0.0023239	0.000139415	5.53447E-05	0	0	0	
0.100667	-0.00127427	-0.000594938	0.000147631	3.76597E-05	0	0	0	
0.100833	-0.00165175	-0.000935699	0.000102188	3.41129E-05	0	0	0	
0.101	0.0019952	0.000364257	7.86079E-05	4.83138E-05	0	0	0	
0.101167	-0.00126042	0.00545236	9.65966E-05	8.06476E-05	0	0	0	
0.101333	-0.00382373	-0.00282663	0.000115379	0.000117291	0	0	0	
0.1015	0.00606335	0.00124768	0.000121493	9.55352E-05	0	0	0	
0.101667	-0.00174558	0.00192944	0.00010504	9.48539E-05	0	0	0	
0.101833	-0.00334755	-0.00485356	9.79533E-05	9.15082E-05	0	0	0	
0.102	-0.000834133	0.0059474	6.6601E-05	0.000118272	0	0	0	
0.102167	0.00362979	-0.0025454	7.34722E-05	0.000124895	0	0	0	
0.102333	0.000505159	0.00380297	7.48817E-05	0.000154154	0	0	0	
0.1025	-0.0012121	-0.00142257	6.22671E-05	0.000166028	0	0	0	
0.102667	0.000766787	-0.000728199	4.5717E-05	0.000127979	0	0	0	
0.102833	0.00213871	0.00152255	3.48614E-05	8.66143E-05	0	0	0	
0.103	-0.00416124	0.00112063	7.50659E-05	6.23879E-05	0	0	0	
0.103167	0.00360657	-0.00617886	0.000116152	8.40988E-05	0	0	0	
0.103333	-0.00381235	-0.000343154	0.000169268	6.93872E-05	0	0	0	
0.1035	0.000225764	0.00029008	0.000199177	7.50068E-05	0	0	0	
0.103667	0.0106344	0.00176518	0.00019031	6.37323E-05	0	0	0	
0.103833	-0.00536028	-0.00103103	0.000183711	8.27263E-05	0	0	0	
0.104	-0.00992081	0.0009046	0.000185759	8.83692E-05	0	0	0	
0.104167	0.0170184	-0.00436823	0.000220296	8.71401E-05	0	0	0	
0.104333	-0.0243355	0.00286875	0.000323178	7.95167E-05	0	0	0	
0.1045	0.016561	-0.00938339	0.000370624	0.000103028	0	0	0	
0.104667	0.00251748	0.00545276	0.00034842	0.000160642	0	0	0	
0.104833	-0.0143491	-0.00198883	0.00026074	0.000166714	0	0	0	
0.105	0.00600967	0.00237894	0.000200654	0.000124822	0	0	0	
0.105167	-0.000754712	0.00333265	0.00018957	8.97793E-05	0	0	0	
0.105333	-0.00503148	0.0032705	0.000171173	0.000113493	0	0	0	
0.1055	-0.00208885	-0.0151857	0.000198058	0.000164123	0	0	0	
0.105667	-0.00371535	0.0136944	0.000212053	0.000225439	0	0	0	
0.105833	0.000760825	-0.00915415	0.000169014	0.000239766	0	0	0	
0.106	-0.00257145	-0.000808802	8.85181E-05	0.000219127	0	0	0	
0.106167	0.0114302	0.00545228	6.92722E-05	0.000159699	0	0	0	
0.106333	-0.0131458	-0.00473652	0.000155059	0.000149375	0	0	0	
0.1065	0.00283418	0.00712591	0.00029391	0.000156046	0	0	0	
0.106667	0.00848849	0.00189818	0.000389213	0.000144532	0	0	0	
0.106833	-0.00555932	-0.00715602	0.00035817	0.000122871	0	0	0	
0.107	0.003818	0.00760114	0.000244297	0.000121268	0	0	0	
0.107167	0.00364145	0.00147698	0.000143451	0.000120216	0	0	0	
0.107333	-0.011838	-0.00247031	0.000131379	9.44302E-05	0	0	0	
0.1075	0.0117173	0.00138782	0.00015293	5.63432E-05	0	0	0	
0.107667	-0.0106203	0.000827876	0.000207268	5.14054E-05	0	0	0	
0.107833	0.00207513	-0.0044116	0.000236955	7.92178E-05	0	0	0	
0.108	0.00591639	0.00236663	0.000245966	9.75615E-05	0	0	0	
0.108167	0.00279972	-0.00206353	0.000186151	0.000103129	0	0	0	
0.108333	-0.00795982	0.0029628	0.000150768	9.88886E-05	0	0	0	
0.1085	0.00675571	-0.00074752	0.000136755	0.000109453	0	0	0	
0.108667	-0.0072122	0.00444129	0.0001566	9.20111E-05	0	0	0	
0.108833	0.01165	-0.00252612	0.000152099	8.52985E-05	0	0	0	
0.109	-0.0145097	0.00159815	0.000226412	6.77796E-05	0	0	0	
0.109167	0.00711385	-0.00333286	0.00032737	8.76925E-05	0	0	0	
0.109333	-0.000989696	0.000665923	0.000376416	7.83427E-05	0	0	0	
0.1095	0.0025538	0.00209854	0.000290453	9.38383E-05	0	0	0	
0.109667	-0.00491511	0.00254379	0.000202358	9.62132E-05	0	0	0	
0.109833	0.00482231	-0.00166924	0.000148158	0.000103843	0	0	0	
0.11	-0.0117423	0.000732479	0.000161621	7.57997E-05	0	0	0	
0.110167	0.0122083	-0.00259595	0.000173625	5.45022E-05	0	0	0	
0.110333	-0.00297636	0.00317513	0.000182391	4.45153E-05	0	0	0	
0.1105	-0.00211805	-0.00110422	0.000156925	6.21597E-05	0	0	0	
0.110667	0.00444687	0.00533115	0.000114622	7.37924E-05	0	0	0	
0.110833	0.0024935	-0.00164305	0.000111682	8.18986E-05	0	0	0	
0.111	-0.00983293	-0.000254049	0.000123003	7.63519E-05	0	0	0	
0.111167	0.0065196	0.0036014	0.000176914	8.69519E-05	0	0	0	
0.111333	0.00560417	-0.00804049	0.00022703	0.000100719	0	0	0	
0.1115	-0.00499988	0.00310185	0.000251576	0.000108938	0	0	0	
0.111667	0.00537894	-0.000784351	0.000186096	0.000108588	0	0	0	
0.111833	0.00217902	0.000396517	0.000125262	8.72688E-05	0	0	0	
0.112	-0.00557861	-0.00145729	9.52346E-05	6.38885E-05	0	0	0	
0.112167	0.00148897	0.00160498	0.000102137	4.89497E-05	0	0	0	
0.112333	0.000307664	-0.00323381	8.64068E-05	4.15668E-05	0	0	0	
0.1125	-0.0021588	0.00356182	6.70099E-05	6.33309E-05	0	0	0	
0.112667	-0.00169689	-0.00103282	5.05989E-05	5.28652E-05	0	0	0	
0.112833	0.0016892	-0.000246097	6.32162E-05	4.69906E-05	0	0	0	
0.113	-0.00479162	0.00105413	9.24925E-05	4.24696E-05	0	0	0	
0.113167	0.00292813	-0.00293988	0.000107326	7.48482E-05	0	0	0	
0.113333	-0.00160848	0.00109666	0.000109405	9.2966E-05	0	0	0	
0.1135	-0.00244976	-0.000524056	9.70981E-05	8.80369E-05	0	0	0	
0.113667	-0.00203468	0.00108765	9.86553E-05	5.75997E-05	0	0	0	
0.113833	0.00521293	-0.000763159	9.62074E-05	3.74966E-05	0	0	0	
0.114	-0.00498904	-0.0043637	9.71811E-05	3.3936E-05	0	0	0	
0.114167	0.00756905	-0.000320011	0.000104382	4.36383E-05	0	0	0	
0.114333	-0.00807853	-0.00134462	0.00012161	5.99384E-05	0	0	0	
0.1145	0.00936634	-0.00305155	0.000127517	7.45723E-05	0	0	0	
0.114667	-0.0065116	0.00268859	0.000147937	9.55364E-05	0	0	0	
0.114833	-0.00130996	0.00129541	0.000145148	0.000110992	0	0	0	
0.115	3.34645E-05	-0.00609474	0.000124457	0.000128856	0	0	0	
0.115167	-4.21631E-05	0.00183257	9.1607E-05	0.000115785	0	0	0	
0.115333	-0.00162211	0.00183685	0.000101235	9.31776E-05	0	0	0	
0.1155	0.00540165	0.00194267	0.000124933	5.85107E-05	0	0	0	
0.115667	-0.00200776	-0.00117994	0.000133448	4.89698E-05	0	0	0	
0.115833	-0.00077639	0.00424769	9.58674E-05	5.22283E-05	0	0	0	
0.116	-0.00328987	-0.00753807	6.34858E-05	7.77268E-05	0	0	0	
0.116167	0.00351536	0.0037589	5.89859E-05	9.59123E-05	0	0	0	
0.116333	0.0014431	-0.00441626	6.35619E-05	0.000101573	0	0	0	
0.1165	0.000934829	0.00313928	7.05334E-05	9.03137E-05	0	0	0	
0.116667	-0.0040483	0.00315852	5.61229E-05	7.05437E-05	0	0	0	
0.116833	-0.00425456	-0.00635698	0.000103612	8.60513E-05	0	0	0	
0.117	0.0108112	0.00180355	0.000154966	8.93232E-05	0	0	0	
0.117167	-0.00507361	-0.00148132	0.000199175	9.91106E-05	0	0	0	
0.117333	0.0237137	-0.000664336	0.000352202	6.36818E-05	0	0	0	
0.1175	-0.0466201	-0.00227815	0.000683385	4.7049E-05	0	0	0	
0.117667	-0.0103787	0.00378025	0.000889209	3.54174E-05	0	0	0	
0.117833	0.151602	-0.00889741	0.00154319	8.28617E-05	0	0	0	
0.118	-0.09076	0.00606703	0.00177466	0.000114493	0	0	0	
0.118167	-0.0560932	-0.00875973	0.00252591	0.000149122	0	0	0	
0.118333	0.0654997	0.00429229	0.00196529	0.000152291	0	0	0	
0.1185	0.00976542	-0.00125627	0.00228083	0.000128949	0	0	0	
0.118667	-0.0208357	-0.00231543	0.00170891	8.98417E-05	0	0	0	
0.118833	-0.0182682	0.000700645	0.00160502	5.91263E-05	0	0	0	
0.119	0.01891	-0.00082944	0.00168918	8.04758E-05	0	0	0	
0.119167	0.100854	-0.00397204	0.00220305	0.00011929	0	0	0	
0.119333	-0.0638153	0.00876535	0.00251981	0.000145142	0	0	0	
0.1195	-0.103066	-0.00954906	0.00242302	0.000153389	0	0	0	
0.119667	0.111982	0.00364052	0.00262172	0.000153092	0	0	0	
0.119833	-0.0608567	0.00489579	0.00260079	0.000160233	0	0	0	
0.12	0.0423407	-0.00630739	0.00200988	0.000150091	0	0	0	
0.120167	-0.0245027	0.0067824	0.00107156	0.00016298	0	0	0	
0.120333	0.0169528	0.00562273	0.000731297	0.000219253	0	0	0	
0.1205	0.0413776	-0.0163499	0.000812365	0.000271097	0	0	0	
0.120667	-0.112138	0.0119068	0.000982908	0.000301212	0	0	0	
0.120833	0.0854102	0.00247492	0.00164256	0.000271655	0	0	0	
0.121	-0.0102382	-0.0124884	0.00159099	0.000251128	0	0	0	
0.121167	0.0131908	0.00909019	0.00130002	0.000210352	0	0	0	
0.121333	-0.018412	-0.00454221	0.000634747	0.000195434	0	0	0	
0.1215	0.00833579	-0.00249236	0.000339096	0.000225119	0	0	0	
0.121667	-0.000244943	0.00894518	0.000355941	0.000258635	0	0	0	
0.121833	-0.0317356	-0.00665678	0.00047517	0.000224012	0	0	0	
0.122	0.0443959	-0.00294198	0.000644536	0.000180447	0	0	0	
0.122167	-0.0155703	0.00325302	0.000761645	0.00014771	0	0	0	
0.122333	-0.00669066	-0.00217554	0.000745376	0.000123614	0	0	0	
0.1225	0.0109077	0.000605178	0.000641483	0.000107753	0	0	0	
0.122667	-0.0281897	0.000695081	0.000509147	8.93656E-05	0	0	0	
0.122833	0.022355	-0.00185696	0.000450085	9.19952E-05	0	0	0	
0.123	-0.00813218	0.00148938	0.000792098	6.67241E-05	0	0	0	
0.123167	-0.0226034	-0.00260737	0.00114996	5.77857E-05	0	0	0	
0.123333	0.0366624	0.00262486	0.00122649	6.93974E-05	0	0	0	
0.1235	-0.0312145	0.000454991	0.000964576	6.25693E-05	0	0	0	
0.123667	0.0146918	-0.000979325	0.000643786	4.37578E-05	0	0	0	
0.123833	0.0230848	0.000298858	0.000605847	5.01476E-05	0	0	0	
0.124	-0.0566913	0.00391027	0.000676123	7.62113E-05	0	0	0	
0.124167	0.0447268	-0.00889977	0.000805227	0.000100294	0	0	0	
0.124333	-0.0145035	0.00814119	0.000885561	0.000127497	0	0	0	
0.1245	-0.00696354	0.00101426	0.000910558	0.000131335	0	0	0	
0.124667	0.014056	-0.00621113	0.000826795	0.00012726	0	0	0	
0.124833	-0.0149481	0.00864675	0.000594444	0.000144007	0	0	0	
0.125	0.0116776	-0.00339617	0.000351145	0.00016592	0	0	0	
0.125167	-0.0241306	-0.0066324	0.000318608	0.000226507	0	0	0	
0.125333	0.0124209	0.016147	0.000353341	0.000251337	0	0	0	
0.1255	-0.0198342	-0.0135365	0.000383861	0.000290133	0	0	0	
0.125667	0.00502818	0.000740795	0.000324281	0.000255393	0	0	0	
0.125833	0.0112722	0.00838341	0.000246024	0.000234095	0	0	0	
0.126	-0.01225	-0.00581513	0.000241066	0.000197834	0	0	0	
0.126167	0.00992315	0.00769326	0.000266742	0.000169927	0	0	0	
0.126333	-0.0113447	0.00047864	0.000291614	0.000135216	0	0	0	
0.1265	0.0118539	-0.00867261	0.000279912	0.000126302	0	0	0	
0.126667	-0.00779715	0.0109814	0.000332152	0.000168368	0	0	0	
0.126833	0.00267247	-0.0106798	0.000427452	0.000196376	0	0	0	
0.127	-0.00347664	0.00731098	0.000387405	0.000212286	0	0	0	
0.127167	0.0163127	-0.00557234	0.000328072	0.000205501	0	0	0	
0.127333	-0.0213958	0.00289147	0.000289801	0.00017222	0	0	0	
0.1275	0.0113052	0.00125957	0.000339143	0.000126556	0	0	0	
0.127667	-0.00492358	-0.00202385	0.000316084	7.84054E-05	0	0	0	
0.127833	0.0072344	0.00144227	0.000224876	5.8063E-05	0	0	0	
0.128	-0.00652477	0.00131203	0.000181161	6.15874E-05	0	0	0	
0.128167	-0.00308127	-0.00616938	0.000121247	9.5519E-05	0	0	0	
0.128333	0.00205606	0.00874137	0.000127604	0.000139401	0	0	0	
0.1285	-0.00263476	-0.00673543	8.30925E-05	0.000158767	0	0	0	
0.128667	-0.00045538	0.00239442	6.80223E-05	0.00015078	0	0	0	
0.128833	0.00077632	0.00390695	4.49859E-05	0.000149423	0	0	0	
0.129	0.00325599	-0.00826388	5.69202E-05	0.00014963	0	0	0	
0.129167	-0.00524211	0.00736663	7.20464E-05	0.000155951	0	0	0	
0.129333	-0.00302278	-0.00371862	8.80036E-05	0.000140438	0	0	0	
0.1295	0.00671212	0.00013839	0.000109424	0.000131433	0	0	0	
0.129667	-0.00294921	0.00251437	0.000112132	0.000108482	0	0	0	
0.129833	0.0018642	-0.00270553	0.000103376	7.91669E-05	0	0	0	
0.13	0.000839898	0.000988536	9.13337E-05	5.37728E-05	0	0	0	
0.130167	-0.001219	0.00132049	7.50657E-05	4.93625E-05	0	0	0	
0.130333	-0.000765443	-0.0014264	6.01257E-05	4.80176E-05	0	0	0	
0.1305	0.00401506	0.00239412	5.87466E-05	4.50349E-05	0	0	0	
0.130667	-0.00841156	-0.00108078	0.000102059	3.88609E-05	0	0	0	
0.130833	0.00690536	0.000460707	0.000122962	3.8988E-05	0	0	0	
0.131	-0.00221293	-0.000423917	0.000131774	4.71483E-05	0	0	0	
0.131167	0.00194093	0.00149643	0.000104663	4.47573E-05	0	0	0	
0.131333	0.00119681	-0.000696651	8.20286E-05	4.65917E-05	0	0	0	
0.1315	-0.00246136	-0.00107656	5.54176E-05	5.51702E-05	0	0	0	
0.131667	0.000353621	0.00341298	3.81453E-05	7.28338E-05	0	0	0	
0.131833	0.00645789	-0.00556162	4.26439E-05	8.20918E-05	0	0	0	
0.132	-0.00885095	0.00333906	9.02999E-05	9.44021E-05	0	0	0	
0.132167	0.00590436	-0.000501032	0.00011426	0.000115272	0	0	0	
0.132333	-0.00416551	-0.00446737	0.000144622	0.000113721	0	0	0	
0.1325	0.00154483	0.0049138	0.000107074	0.000103202	0	0	0	
0.132667	0.00024362	-0.00254765	9.52835E-05	9.03584E-05	0	0	0	
0.132833	0.000943246	-0.000958019	5.98513E-05	9.82286E-05	0	0	0	
0.133	-0.00155972	0.00286172	5.6465E-05	8.82304E-05	0	0	0	
0.133167	0.00445516	-0.00207739	5.15139E-05	6.7368E-05	0	0	0	
0.133333	-0.00434364	0.00022578	7.98672E-05	4.68433E-05	0	0	0	
0.1335	0.000529528	0.00141132	7.47438E-05	3.07928E-05	0	0	0	
0.133667	-0.00105177	-0.00184093	7.64406E-05	2.83977E-05	0	0	0	
0.133833	-0.00209433	0.0011161	5.27335E-05	3.03377E-05	0	0	0	
0.134	0.00362079	-0.00104763	6.01164E-05	3.50167E-05	0	0	0	
0.134167	0.00369642	5.18035E-05	5.7873E-05	3.07582E-05	0	0	0	
0.134333	-0.00596427	0.000876091	7.70118E-05	2.37356E-05	0	0	0	
0.1345	0.00644222	-0.000421376	9.31066E-05	1.78086E-05	0	0	0	
0.134667	-0.0041658	-0.000951128	0.000105693	1.41813E-05	0	0	0	
0.134833	0.000699793	2.34257E-05	0.000107004	1.29278E-05	0	0	0	
0.135	-0.00320208	0.00227558	0.000100169	1.74972E-05	0	0	0	
0.135167	0.006096	-0.002766	0.000133704	2.95556E-05	0	0	0	
0.135333	0.00465876	0.00209299	0.000196789	4.46238E-05	0	0	0	
0.1355	-0.00455307	-0.00294096	0.000212979	6.73762E-05	0	0	0	
0.135667	-0.00232052	0.00350481	0.000197469	7.73498E-05	0	0	0	
0.135833	0.00400939	0.000153469	0.000109515	6.83438E-05	0	0	0	
0.136	-0.00127904	-0.00185653	0.000114283	4.30269E-05	0	0	0	
0.136167	0.00865347	0.000917133	9.99932E-05	3.47517E-05	0	0	0	
0.136333	-0.0048505	-0.00159706	0.000137448	4.02251E-05	0	0	0	
0.1365	0.000570229	0.00260522	0.000113326	5.54607E-05	0	0	0	
0.136667	-0.0331225	-0.00145121	0.000279077	6.76205E-05	0	0	0	
0.136833	0.0870333	0.000337221	0.000549976	7.57432E-05	0	0	0	
0.137	-0.035009	-0.000292836	0.00140756	6.42034E-05	0	0	0	
0.137167	-0.0682321	-0.000970021	0.00211466	4.04609E-05	0	0	0	
0.137333	0.0762559	-0.000392536	0.00225218	2.89905E-05	0	0	0	
0.1375	-0.0281677	0.00167824	0.00177089	3.4818E-05	0	0	0	
0.137667	-0.0451845	-0.00264949	0.0014488	4.12298E-05	0	0	0	
0.137833	0.194214	0.00143546	0.00187283	4.14274E-05	0	0	0	
0.138	-0.208228	0.000916988	0.00289563	3.95577E-05	0	0	0	
0.138167	-0.00765556	-0.00228814	0.00290731	5.33053E-05	0	0	0	
0.138333	0.124467	-0.000910027	0.00261747	6.65965E-05	0	0	0	
0.1385	-0.0546102	0.00209605	0.00171727	7.11775E-05	0	0	0	
0.138667	-0.0225953	-0.00240063	0.00158178	6.25558E-05	0	0	0	
0.138833	0.0470301	0.00299631	0.00131581	5.98681E-05	0	0	0	
0.139	-0.0388072	-0.0026604	0.00141816	6.80902E-05	0	0	0	
0.139167	-0.0269482	0.00385095	0.00138363	6.5495E-05	0	0	0	
0.139333	0.0785109	-0.00715721	0.00157036	8.24614E-05	0	0	0	
0.1395	-0.0877982	0.00617141	0.00156919	0.00010325	0	0	0	
0.139667	0.0290771	-0.00474462	0.00150768	0.000123816	0	0	0	
0.139833	0.0445966	0.00310555	0.00142941	0.000111561	0	0	0	
0.14	-0.04472	-0.00116136	0.0010612	9.03211E-05	0	0	0	
0.140167	0.0010645	0.00250137	0.00100688	8.27636E-05	0	0	0	
0.140333	0.0244306	-0.00396418	0.00079915	7.69932E-05	0	0	0	
0.1405	-0.0117253	0.0013873	0.00068508	6.66368E-05	0	0	0	
0.140667	-0.00636068	0.00127484	0.000611433	5.89738E-05	0	0	0	
0.140833	0.00200166	-0.00194611	0.000439863	4.93077E-05	0	0	0	
0.141	-8.17828E-05	-0.00231264	0.000402133	4.34187E-05	0	0	0	
0.141167	0.00138636	0.00537582	0.000201963	4.82764E-05	0	0	0	
0.141333	-0.0079389	-0.00665537	0.00019756	7.78308E-05	0	0	0	
0.1415	0.00850657	0.00450017	0.000152843	0.000104024	0	0	0	
0.141667	0.0027941	-0.00309894	0.000140019	0.000112807	0	0	0	
0.141833	-0.0217727	0.000302307	0.000167429	9.67944E-05	0	0	0	
0.142	0.0110476	-0.00183081	0.000229519	8.30428E-05	0	0	0	
0.142167	-0.000433212	0.00384299	0.000232441	7.55946E-05	0	0	0	
0.142333	0.00205838	-0.00563977	0.000200572	8.55392E-05	0	0	0	
0.1425	-0.00050782	0.00426619	8.75072E-05	0.000102082	0	0	0	
0.142667	0.000151448	-0.00365474	6.45681E-05	0.000102038	0	0	0	
0.142833	0.00401294	0.00121019	3.45024E-05	8.58871E-05	0	0	0	
0.143	-0.00377987	-0.00121624	6.29247E-05	5.21377E-05	0	0	0	
0.143167	0.00501995	-0.000160699	9.57704E-05	3.18759E-05	0	0	0	
0.143333	-0.000228765	0.00142046	9.65495E-05	2.012E-05	0	0	0	
0.1435	-0.000529466	-0.00246945	0.000108377	2.57186E-05	0	0	0	
0.143667	0.0084804	0.0010349	0.000151324	3.55799E-05	0	0	0	
0.143833	-0.00909425	0.000113774	0.000220117	4.14874E-05	0	0	0	
0.144	0.00202947	-0.00203528	0.000198992	3.50638E-05	0	0	0	
0.144167	0.00369852	0.00133847	0.00015118	3.58971E-05	0	0	0	
0.144333	-0.00197908	0.00132721	8.32103E-05	2.91918E-05	0	0	0	
0.1445	0.000787302	-0.0022037	7.65725E-05	3.71669E-05	0	0	0	
0.144667	0.000610841	0.000611864	6.31847E-05	4.18367E-05	0	0	0	
0.144833	-0.000832644	0.00136323	7.47295E-05	4.90537E-05	0	0	0	
0.145	-0.0057761	-0.00183105	0.000108602	4.34007E-05	0	0	0	
0.145167	0.00550634	0.00103947	0.00014257	3.44985E-05	0	0	0	
0.145333	-0.000203326	0.000570344	0.0001266	2.57592E-05	0	0	0	
0.1455	0.00351206	-0.0019223	8.28624E-05	2.71886E-05	0	0	0	
0.145667	-0.00115565	0.00205735	3.90504E-05	2.66927E-05	0	0	0	
0.145833	0.00149165	-0.000947504	5.29314E-05	3.25945E-05	0	0	0	
0.146	0.000552297	0.000190672	4.82482E-05	3.34179E-05	0	0	0	
0.146167	-0.00231099	-0.000416713	6.68883E-05	2.42726E-05	0	0	0	
0.146333	0.00184023	0.000145875	7.59446E-05	1.48834E-05	0	0	0	
0.1465	0.00334212	0.000658142	7.80486E-05	1.51632E-05	0	0	0	
0.146667	-0.00469788	-0.00157571	7.76043E-05	2.03219E-05	0	0	0	
0.146833	-0.0030482	0.000776642	7.02984E-05	3.09158E-05	0	0	0	
0.147	-0.00653457	0.00146501	0.000149203	5.04703E-05	0	0	0	
0.147167	0.0539312	-0.00405553	0.0003931	7.24002E-05	0	0	0	
0.147333	-0.089916	0.00447113	0.00077643	8.57641E-05	0	0	0	
0.1475	-0.013361	-0.00257173	0.00153427	7.83988E-05	0	0	0	
0.147667	0.232159	0.00054046	0.00229844	7.59823E-05	0	0	0	
0.147833	-0.214143	0.00240109	0.00325772	8.08955E-05	0	0	0	
0.148	0.0672061	-0.00347333	0.0034354	8.85137E-05	0	0	0	
0.148167	0.0372823	0.00166215	0.00323035	7.51208E-05	0	0	0	
0.148333	-0.0762408	0.00150874	0.00229338	6.28002E-05	0	0	0	
0.1485	0.0487836	-0.00206046	0.00165847	5.00276E-05	0	0	0	
0.148667	0.0412164	0.00127301	0.00155001	4.50331E-05	0	0	0	
0.148833	-0.0640195	-0.000778497	0.00213656	3.98662E-05	0	0	0	
0.149	0.0863468	0.000931346	0.00266787	3.60303E-05	0	0	0	
0.149167	-0.0905057	-0.00175043	0.00264999	4.11971E-05	0	0	0	
0.149333	0.0333199	0.00220946	0.00195796	4.05828E-05	0	0	0	
0.1495	0.0298159	-0.00251474	0.00129367	4.53236E-05	0	0	0	
0.149667	-0.00674734	0.00225626	0.00091519	4.41185E-05	0	0	0	
0.149833	-0.0134921	-0.000784634	0.00108673	4.43193E-05	0	0	0	
0.15	0.0381562	-0.000662558	0.00112699	3.98957E-05	0	0	0	
0.150167	0.0368778	0.00174349	0.00121116	3.79568E-05	0	0	0	
0.150333	-0.0441096	-0.00206983	0.000994562	3.58696E-05	0	0	0	
0.1505	-0.0147399	0.00137122	0.00115876	3.23064E-05	0	0	0	
0.150667	0.0318214	0.000440395	0.000942309	4.23336E-05	0	0	0	
0.150833	-0.00700132	-0.0013564	0.000855167	4.93301E-05	0	0	0	
0.151	-0.0231598	-0.000623335	0.00062476	4.62056E-05	0	0	0	
0.151167	0.0213039	0.00312343	0.000549082	4.14279E-05	0	0	0	
0.151333	0.00188523	-0.00188895	0.000508933	3.84567E-05	0	0	0	
0.1515	-0.0123513	0.00107971	0.000386364	4.23535E-05	0	0	0	
0.151667	0.00556364	-0.00135148	0.000323019	3.67975E-05	0	0	0	
0.151833	0.00293927	0.000307233	0.000206184	2.90268E-05	0	0	0	
0.152	-0.0121883	0.000672403	0.000172463	3.11872E-05	0	0	0	
0.152167	0.00509511	0.00114852	0.00016049	5.08735E-05	0	0	0	
0.152333	0.00894033	-0.00177865	0.000209358	7.29972E-05	0	0	0	
0.1525	-0.00785358	0.0015447	0.000179271	7.26228E-05	0	0	0	
0.152667	-0.00104518	-0.000113042	0.00018248	4.79282E-05	0	0	0	
0.152833	0.00086854	-0.00140818	0.000106208	2.29484E-05	0	0	0	
0.153	-0.00183612	0.00185683	9.03509E-05	2.00645E-05	0	0	0	
0.153167	0.00947058	-0.00201139	8.7984E-05	2.83314E-05	0	0	0	
0.153333	-0.00960742	0.00240675	0.000127532	3.94249E-05	0	0	0	
0.1535	-0.00108843	-0.00207213	0.000178491	4.91468E-05	0	0	0	
0.153667	0.0182504	0.000163548	0.000211372	4.91898E-05	0	0	0	
0.153833	-0.0301692	0.00054508	0.000299227	4.20347E-05	0	0	0	
0.154	0.0055748	-0.00122363	0.00036425	2.75866E-05	0	0	0	
0.154167	0.00643068	0.00169081	0.000403559	2.95894E-05	0	0	0	
0.154333	-0.00854756	-0.000569737	0.000312317	4.52518E-05	0	0	0	
0.1545	0.00245119	-0.00138808	0.000202878	6.54995E-05	0	0	0	
0.154667	0.00136604	0.00166828	0.000133287	5.95936E-05	0	0	0	
0.154833	-0.0131681	-0.00103705	0.000146758	4.58053E-05	0	0	0	
0.155	0.0166255	0.000426903	0.000252093	2.94131E-05	0	0	0	
0.155167	-0.0116738	0.00173782	0.000278964	2.66327E-05	0	0	0	
0.155333	-0.0235713	-0.00151706	0.000412865	3.43537E-05	0	0	0	
0.1555	0.05851	-0.000661816	0.000484217	4.83485E-05	0	0	0	
0.155667	-0.110786	0.0021187	0.00118185	5.36855E-05	0	0	0	
0.155833	0.0193998	-0.00109002	0.0016024	4.78265E-05	0	0	0	
0.156	0.0297927	-0.00175422	0.00179532	4.1545E-05	0	0	0	
0.156167	-0.0449426	0.00263151	0.00128801	4.05254E-05	0	0	0	
0.156333	0.058371	-0.000183139	0.000979479	4.43876E-05	0	0	0	
0.1565	-0.00762737	-0.00163168	0.000982261	4.10562E-05	0	0	0	
0.156667	-0.160055	0.00116669	0.00149847	3.57363E-05	0	0	0	
0.156833	0.218094	-0.000945376	0.0024268	2.69367E-05	0	0	0	
0.157	-0.0434285	0.000892204	0.00331706	2.60957E-05	0	0	0	
0.157167	-0.186739	-0.000754647	0.00507684	3.99989E-05	0	0	0	
0.157333	0.390342	-0.000341747	0.00649253	5.38797E-05	0	0	0	
0.1575	-0.319492	-0.000554531	0.00734518	5.32845E-05	0	0	0	
0.157667	0.120323	0.00182846	0.00617743	4.05203E-05	0	0	0	
0.157833	0.0748768	-0.00274781	0.00474234	3.50823E-05	0	0	0	
0.158	-0.157202	0.00197713	0.00344071	4.25788E-05	0	0	0	
0.158167	0.15082	-0.00143699	0.00300734	4.7581E-05	0	0	0	
0.158333	-0.0546837	0.00160452	0.00358669	4.52065E-05	0	0	0	
0.1585	-0.0311489	-0.00189144	0.0050085	3.69186E-05	0	0	0	
0.158667	0.114438	0.0006641	0.00563269	3.41461E-05	0	0	0	
0.158833	-0.0707361	0.000261575	0.0044195	2.87329E-05	0	0	0	
0.159	0.0217075	-0.000997343	0.00241012	2.34189E-05	0	0	0	
0.159167	-0.0277299	3.16648E-05	0.00099597	2.35343E-05	0	0	0	
0.159333	-0.0240873	0.000312636	0.000794855	2.18533E-05	0	0	0	
0.1595	0.116771	5.55689E-05	0.00119716	1.84784E-05	0	0	0	
0.159667	-0.0805303	-0.00030391	0.00162516	1.56813E-05	0	0	0	
0.159833	-0.0148477	-8.44419E-05	0.00184264	1.88447E-05	0	0	0	
0.16	0.0379009	-0.000942728	0.00146201	2.75543E-05	0	0	0	
0.160167	-0.0268632	0.00134046	0.00106296	2.68665E-05	0	0	0	
0.160333	0.0334126	-0.000479481	0.000648626	2.70686E-05	0	0	0	
0.1605	0.01236	-0.000584657	0.000946393	2.66811E-05	0	0	0	
0.160667	-0.0840444	0.00116817	0.00174649	2.52005E-05	0	0	0	
0.160833	0.0991384	-0.00177443	0.0021724	2.58654E-05	0	0	0	
0.161	-0.0263954	0.000895966	0.00207901	2.81291E-05	0	0	0	
0.161167	-0.0263352	2.65078E-05	0.00155586	3.41975E-05	0	0	0	
0.161333	0.0149795	-0.000379134	0.0010365	2.67465E-05	0	0	0	
0.1615	0.0194046	4.81297E-05	0.000801645	2.02427E-05	0	0	0	
0.161667	-0.0266374	0.000908501	0.000478284	1.76415E-05	0	0	0	
0.161833	0.000891583	-0.00078756	0.000589932	2.40182E-05	0	0	0	
0.162	0.0144912	0.000913182	0.000539824	2.55203E-05	0	0	0	
0.162167	-0.00269468	8.45013E-05	0.000440215	2.13859E-05	0	0	0	
0.162333	-0.0206255	0.00015345	0.000398537	1.74539E-05	0	0	0	
0.1625	0.0269475	8.30904E-05	0.000335924	2.42458E-05	0	0	0	
0.162667	0.00908163	0.000949627	0.000529193	3.6419E-05	0	0	0	
0.162833	-0.0537473	-0.000837771	0.000702364	4.34069E-05	0	0	0	
0.163	0.0358059	0.000305665	0.000832229	3.0911E-05	0	0	0	
0.163167	0.0101045	0.00122701	0.000856329	2.24515E-05	0	0	0	
0.163333	-0.023865	-0.0019293	0.000690251	1.97926E-05	0	0	0	
0.1635	0.0173338	0.00277387	0.000552362	3.45501E-05	0	0	0	
0.163667	-0.0142977	-0.00188286	0.000403341	4.128E-05	0	0	0	
0.163833	0.00790345	0.00121813	0.00034781	5.00732E-05	0	0	0	
0.164	0.00396218	0.00135867	0.000468972	5.24833E-05	0	0	0	
0.164167	-0.0114563	-0.00239917	0.000537994	4.99345E-05	0	0	0	
0.164333	0.00356821	0.00145517	0.000459187	4.55996E-05	0	0	0	
0.1645	0.00675521	0.00131913	0.000312612	4.59109E-05	0	0	0	
0.164667	-0.00559136	-0.00197572	0.000202169	5.33865E-05	0	0	0	
0.164833	-0.000539668	0.00330504	0.000198809	5.49257E-05	0	0	0	
0.165	0.00483961	-0.0025157	0.000104381	5.43108E-05	0	0	0	
0.165167	-0.000317968	0.000406255	0.000143702	6.0759E-05	0	0	0	
0.165333	-0.0124094	0.00241832	0.000224282	7.01364E-05	0	0	0	
0.1655	0.0114689	-0.00157566	0.000272099	6.22324E-05	0	0	0	
0.165667	0.000219481	-0.00129443	0.000262261	5.88792E-05	0	0	0	
0.165833	-0.00607001	0.00209423	0.000206119	4.62659E-05	0	0	0	
0.166	0.00516754	-0.000677199	0.000187334	4.28832E-05	0	0	0	
0.166167	-1.92417E-05	0.00106995	0.000208039	2.81337E-05	0	0	0	
0.166333	-0.0205552	-0.000107117	0.000329407	2.48799E-05	0	0	0	
0.1665	0.0488494	-0.00145933	0.000461617	2.87698E-05	0	0	0	
0.166667	-0.0299157	0.000809653	0.000672149	3.036E-05	0	0	0	
0.166833	-0.0116153	0.00114237	0.000789045	3.82256E-05	0	0	0	
0.167	0.0148807	-0.000104792	0.000698819	3.17188E-05	0	0	0	
0.167167	-0.000345178	-0.000440767	0.00048284	3.01447E-05	0	0	0	
0.167333	-0.000790479	0.000411868	0.000282064	1.70151E-05	0	0	0	
0.1675	0.0150659	0.000430079	0.000327726	1.50371E-05	0	0	0	
0.167667	-0.0383969	-0.000103878	0.000437816	9.49078E-06	0	0	0	
0.167833	0.0229059	-0.000781079	0.000523666	1.32366E-05	0	0	0	
0.168	0.00121077	0.00220805	0.000531783	2.58915E-05	0	0	0	
0.168167	-0.00594637	-0.0022432	0.000368242	3.79472E-05	0	0	0	
0.168333	0.000151443	0.000821923	0.000239253	4.07027E-05	0	0	0	
0.1685	0.00406677	0.000209526	0.000137346	3.62756E-05	0	0	0	
0.168667	-0.00297705	-0.000577445	0.000122627	2.68515E-05	0	0	0	
0.168833	0.000651934	0.00101744	0.000148058	2.38385E-05	0	0	0	
0.169	0.00159934	0.000150545	0.000148787	2.89708E-05	0	0	0	
0.169167	0.00552823	-0.00120958	0.000142136	3.95161E-05	0	0	0	
0.169333	-0.00572925	0.00133918	0.000111887	3.72965E-05	0	0	0	
0.1695	0.00147511	-0.000263394	9.40164E-05	3.05422E-05	0	0	0	
0.169667	0.00123763	-0.000802578	9.85989E-05	2.46599E-05	0	0	0	
0.169833	-0.00256668	0.00194949	0.000101989	2.67572E-05	0	0	0	
0.17	0.000252444	-0.000495679	9.32084E-05	2.83042E-05	0	0	0	
0.170167	0.0116338	-0.000941247	0.000187443	3.31109E-05	0	0	0	
0.170333	-0.0158059	0.000959206	0.00026861	2.95912E-05	0	0	0	
0.1705	0.00786394	0.000118883	0.000419206	3.23673E-05	0	0	0	
0.170667	0.0145761	-0.00129915	0.000613017	2.67261E-05	0	0	0	
0.170833	-0.024401	-0.000769776	0.000714386	3.33117E-05	0	0	0	
0.171	0.00480563	0.000414754	0.000697458	3.56288E-05	0	0	0	
0.171167	0.000725446	0.00240488	0.000491723	3.88481E-05	0	0	0	
0.171333	0.00628265	-0.00349325	0.000393143	4.55596E-05	0	0	0	
0.1715	0.0127945	0.00206233	0.000318497	4.83225E-05	0	0	0	
0.171667	-0.0427362	-0.00122717	0.000393575	4.99309E-05	0	0	0	
0.171833	0.0548027	0.00226202	0.000566507	4.37591E-05	0	0	0	
0.172	-0.0736671	-0.0042267	0.000910243	4.51033E-05	0	0	0	
0.172167	0.0591776	0.00579209	0.00118628	6.6567E-05	0	0	0	
0.172333	-0.01282	-0.0033436	0.00125069	8.38137E-05	0	0	0	
0.1725	-0.0185637	0.00110805	0.00107675	8.37003E-05	0	0	0	
0.172667	0.0247361	0.00198343	0.00072752	7.79296E-05	0	0	0	
0.172833	-0.00876196	-0.00311636	0.000558662	7.9357E-05	0	0	0	
0.173	-0.0259215	0.00274378	0.000652562	7.99521E-05	0	0	0	
0.173167	0.0488481	-0.000529196	0.000919432	5.88101E-05	0	0	0	
0.173333	-0.0291534	-0.00229622	0.000970297	4.928E-05	0	0	0	
0.1735	-0.027357	0.00499586	0.000873465	4.97937E-05	0	0	0	
0.173667	0.0424092	-0.00414405	0.000676479	7.31489E-05	0	0	0	
0.173833	-0.00177065	0.00204181	0.000808205	8.9131E-05	0	0	0	
0.174	-0.029196	-0.00193616	0.000817349	9.72551E-05	0	0	0	
0.174167	-0.0193067	0.00307627	0.000931159	9.18682E-05	0	0	0	
0.174333	0.134798	-0.00167628	0.00101588	8.03298E-05	0	0	0	
0.1745	0.0533457	0.000238175	0.00134368	7.71598E-05	0	0	0	
0.174667	-0.0178752	0.00100016	0.00151142	7.09116E-05	0	0	0	
0.174833	-0.0429632	-0.00257279	0.00127215	5.74567E-05	0	0	0	
0.175	-0.0307089	0.00211985	0.00127136	4.65237E-05	0	0	0	
0.175167	0.208114	-0.000214764	0.00217344	4.92068E-05	0	0	0	
0.175333	-0.184128	-0.00157956	0.00336125	5.35509E-05	0	0	0	
0.1755	0.0939595	0.0025681	0.00372193	5.44392E-05	0	0	0	
0.175667	0.0292883	-0.00282644	0.00306108	6.2541E-05	0	0	0	
0.175833	-0.0419377	0.00191529	0.00208354	7.20108E-05	0	0	0	
0.176	0.0135744	-0.0013118	0.00146295	7.05295E-05	0	0	0	
0.176167	-0.0328306	-0.000263074	0.00113532	4.59111E-05	0	0	0	
0.176333	0.0395456	0.000436805	0.00183997	2.5963E-05	0	0	0	
0.1765	0.0220452	0.000912844	0.00288544	1.57368E-05	0	0	0	
0.176667	-0.0621424	-0.00202519	0.00306753	2.00917E-05	0	0	0	
0.176833	0.0254951	0.00141589	0.00220418	2.76973E-05	0	0	0	
0.177	0.00701833	-0.000231578	0.00108108	2.75459E-05	0	0	0	
0.177167	0.00206742	-0.000525329	0.000556076	2.04219E-05	0	0	0	
0.177333	-0.0299229	0.000192038	0.000415524	1.59196E-05	0	0	0	
0.1775	0.0299902	0.000502022	0.000365434	1.69923E-05	0	0	0	
0.177667	-0.00601122	-0.000287809	0.00051834	1.61826E-05	0	0	0	
0.177833	-0.0104322	-0.000126872	0.000499052	1.06576E-05	0	0	0	
0.178	0.00541569	-0.000361395	0.000364901	9.22732E-06	0	0	0	
0.178167	0.00457145	0.00030301	0.00025759	1.19565E-05	0	0	0	
0.178333	-0.00767772	0.000370329	0.000175228	1.11654E-05	0	0	0	
0.1785	0.000995261	-0.000199004	0.00018552	1.208E-05	0	0	0	
0.178667	0.00765444	-0.000487378	0.000155039	1.21012E-05	0	0	0	
0.178833	-0.00556767	0.000112885	0.000164446	1.25711E-05	0	0	0	
0.179	-0.00306286	-3.1113E-06	0.000193265	1.43174E-05	0	0	0	
0.179167	0.0052882	-0.000633615	0.000195261	1.47253E-05	0	0	0	
0.179333	-0.0023248	4.2673E-05	0.000165341	1.76924E-05	0	0	0	
0.1795	-0.00240334	-0.000101735	9.14436E-05	1.65657E-05	0	0	0	
0.179667	-0.000793322	0.000603339	6.26603E-05	1.47348E-05	0	0	0	
0.179833	0.00284076	0.000102033	6.97548E-05	1.34193E-05	0	0	0	
0.18	0.010459	-0.00234728	7.85848E-05	1.45108E-05	0	0	0	
0.180167	-0.0124096	0.000634796	0.000145687	3.58685E-05	0	0	0	
0.180333	-0.00345531	0.00218877	0.000171062	6.51933E-05	0	0	0	
0.1805	0.00684139	-0.000193002	0.000186799	7.22075E-05	0	0	0	
0.180667	0.000573738	-0.000616692	0.000145022	5.33372E-05	0	0	0	
0.180833	0.00334603	-0.000782271	0.000118719	3.49676E-05	0	0	0	
0.181	-0.00824502	-0.00115865	0.0001496	2.5682E-05	0	0	0	
0.181167	0.00393894	0.00485487	0.000133081	4.1018E-05	0	0	0	
0.181333	-0.00794305	-0.00535862	0.000169495	5.86162E-05	0	0	0	
0.1815	0.0154742	0.00373425	0.000185706	8.66967E-05	0	0	0	
0.181667	-0.00930169	-0.00179119	0.000226457	9.12133E-05	0	0	0	
0.181833	-0.00646494	0.00019171	0.00021067	7.62357E-05	0	0	0	
0.182	0.000658646	7.51088E-06	0.000155031	5.0558E-05	0	0	0	
0.182167	0.00516354	-9.18151E-05	0.000168026	3.60731E-05	0	0	0	
0.182333	-0.00657404	-5.78477E-05	0.00020894	4.19764E-05	0	0	0	
0.1825	0.00356788	-0.000405448	0.0002375	6.20667E-05	0	0	0	
0.182667	-0.000426158	-2.19377E-05	0.000183424	6.74522E-05	0	0	0	
0.182833	-0.00106211	0.000116779	0.000108353	4.66832E-05	0	0	0	
0.183	0.00222399	5.29025E-05	7.09884E-05	2.76737E-05	0	0	0	
0.183167	-1.69364E-05	-0.000883021	5.20983E-05	1.70344E-05	0	0	0	
0.183333	0.00104003	0.00181267	5.05468E-05	2.48747E-05	0	0	0	
0.1835	0.00193477	-0.00226555	5.49084E-05	3.12905E-05	0	0	0	
0.183667	-0.00248406	0.00211465	6.26421E-05	4.12833E-05	0	0	0	
0.183833	0.00158404	-0.00155077	6.19366E-05	4.58007E-05	0	0	0	
0.184	-0.000931718	0.000906373	4.68251E-05	4.03132E-05	0	0	0	
0.184167	0.00268735	0.000537701	3.8193E-05	2.76534E-05	0	0	0	
0.184333	-0.00284175	-0.00134304	4.90548E-05	2.025E-05	0	0	0	
0.1845	0.00339744	0.00131289	5.59307E-05	2.50974E-05	0	0	0	
0.184667	-0.00340707	0.000341409	6.29912E-05	3.39731E-05	0	0	0	
0.184833	-0.000201791	8.84515E-06	5.85896E-05	3.20605E-05	0	0	0	
0.185	0.0110967	-0.00175519	9.24626E-05	2.43539E-05	0	0	0	
0.185167	-0.0163292	0.00342671	0.000152618	2.7237E-05	0	0	0	
0.185333	0.00954499	-0.00308784	0.000227082	4.52399E-05	0	0	0	
0.1855	0.00049652	0.00293468	0.000276626	6.17443E-05	0	0	0	
0.185667	-0.00877098	-0.00184769	0.000280558	6.32023E-05	0	0	0	
0.185833	0.0121247	0.00179939	0.000266147	5.18488E-05	0	0	0	
0.186	-0.00837659	-0.00152001	0.000229084	4.55169E-05	0	0	0	
0.186167	-0.00350456	0.00203987	0.000249226	4.50337E-05	0	0	0	
0.186333	0.0104178	-0.00175277	0.000267467	5.16285E-05	0	0	0	
0.1865	-0.0104497	0.00106311	0.000262818	4.87529E-05	0	0	0	
0.186667	0.00632402	0.000734973	0.000213417	3.86688E-05	0	0	0	
0.186833	0.00154954	-0.0020894	0.000191825	3.23086E-05	0	0	0	
0.187	-0.00674264	0.00177757	0.000192727	4.05517E-05	0	0	0	
0.187167	0.00521602	-0.000650351	0.000168449	5.52824E-05	0	0	0	
0.187333	0.000530825	0.000538228	0.000121505	5.3785E-05	0	0	0	
0.1875	-0.00351077	-0.000600243	7.77937E-05	3.76863E-05	0	0	0	
0.187667	0.00120523	0.000963615	6.72009E-05	2.45203E-05	0	0	0	
0.187833	-0.0010844	-0.00169321	6.08011E-05	2.51325E-05	0	0	0	
0.188	-0.00115654	0.00175479	5.44302E-05	3.44823E-05	0	0	0	
0.188167	-6.64425E-05	-0.00103566	3.36286E-05	3.70375E-05	0	0	0	
0.188333	-3.14774E-05	0.00163559	2.65967E-05	3.23896E-05	0	0	0	
0.1885	-0.00492667	-0.000718791	5.56589E-05	2.60778E-05	0	0	0	
0.188667	0.00183715	0.000856115	9.44615E-05	2.16093E-05	0	0	0	
0.188833	0.00149318	0.000286252	0.000112267	2.34661E-05	0	0	0	
0.189	-0.00252012	0.000765261	8.62352E-05	3.03421E-05	0	0	0	
0.189167	0.00017348	-0.000597825	5.12615E-05	3.66631E-05	0	0	0	
0.189333	0.00127451	-6.13239E-05	3.15559E-05	2.98822E-05	0	0	0	
0.1895	-0.00628707	0.000411541	4.33767E-05	1.90215E-05	0	0	0	
0.189667	0.00723471	-0.000442694	9.12959E-05	1.06101E-05	0	0	0	
0.189833	-0.00262407	0.00101734	0.000111427	1.1845E-05	0	0	0	
0.19	0.00110596	-0.00115676	9.59419E-05	1.51403E-05	0	0	0	
0.190167	0.00118499	0.000195788	4.38275E-05	1.71734E-05	0	0	0	
0.190333	-0.00360715	0.000794891	3.84141E-05	2.56174E-05	0	0	0	
0.1905	0.000119867	-0.000986504	5.07012E-05	2.425E-05	0	0	0	
0.190667	0.00223139	-6.19199E-05	8.84348E-05	2.29061E-05	0	0	0	
0.190833	0.001714	0.000498072	0.000131293	1.57117E-05	0	0	0	
0.191	-0.00352163	0.000216495	0.000143728	1.29117E-05	0	0	0	
0.191167	0.00283671	2.35062E-05	0.000129116	9.87045E-06	0	0	0	
0.191333	-0.00162518	3.71781E-05	8.34403E-05	8.14958E-06	0	0	0	
0.1915	-0.000739746	0.000119707	8.32612E-05	1.27135E-05	0	0	0	
0.191667	0.00218207	0.000971097	9.47892E-05	1.42266E-05	0	0	0	
0.191833	-0.0050551	3.34281E-06	0.000108904	1.6928E-05	0	0	0	
0.192	0.00388855	-0.000325581	0.0001087	1.69038E-05	0	0	0	
0.192167	0.00195573	0.00048571	0.000101932	1.73091E-05	0	0	0	
0.192333	-0.00249486	-0.000479376	0.000103508	1.47531E-05	0	0	0	
0.1925	-0.000555059	0.0010467	9.50064E-05	1.19793E-05	0	0	0	
0.192667	-0.000619157	0.000297635	8.82992E-05	1.38313E-05	0	0	0	
0.192833	0.00309764	-0.00153124	6.78746E-05	1.96632E-05	0	0	0	
0.193	-0.00198105	0.00139877	7.45694E-05	2.26842E-05	0	0	0	
0.193167	-0.00354166	-0.000804064	9.63484E-05	2.45684E-05	0	0	0	
0.193333	0.00379038	0.000940208	9.73259E-05	2.11783E-05	0	0	0	
0.1935	-0.00340217	-0.00158022	0.000110787	2.1991E-05	0	0	0	
0.193667	0.00806621	0.000426155	9.61765E-05	2.38729E-05	0	0	0	
0.193833	-0.00746611	0.000735494	0.000159141	2.1532E-05	0	0	0	
0.194	-0.00574607	-0.00206735	0.000146603	2.95193E-05	0	0	0	
0.194167	0.0172848	0.0018841	0.000215645	3.8713E-05	0	0	0	
0.194333	-0.00989169	-0.00250666	0.000222293	4.99509E-05	0	0	0	
0.1945	-0.000518129	0.000755844	0.000220683	5.21333E-05	0	0	0	
0.194667	0.000534976	0.00191276	0.000129748	6.17715E-05	0	0	0	
0.194833	-0.000986266	-0.00223234	8.57275E-05	6.20892E-05	0	0	0	
0.195	-0.00241503	0.000378588	0.000116155	5.2238E-05	0	0	0	
0.195167	0.00363819	0.000577596	0.000170954	3.61772E-05	0	0	0	
0.195333	-0.0066823	-0.00130604	0.000241012	4.52837E-05	0	0	0	
0.1955	0.00159636	0.00252176	0.000218492	5.49871E-05	0	0	0	
0.195667	0.00461309	-0.000679896	0.000171226	5.55599E-05	0	0	0	
0.195833	-0.00360476	-0.00163314	8.23221E-05	6.0353E-05	0	0	0	
0.196	0.000684248	0.00313242	6.44454E-05	6.74739E-05	0	0	0	
0.196167	0.00425754	-0.00230379	7.80752E-05	7.92834E-05	0	0	0	
0.196333	-0.00598685	0.0016215	0.000114706	6.40861E-05	0	0	0	
0.1965	0.006799	-0.000110942	0.000142086	4.47431E-05	0	0	0	
0.196667	-1.11367E-05	-0.000651798	0.000129388	2.43682E-05	0	0	0	
0.196833	-0.0062521	0.00147914	9.29934E-05	2.33093E-05	0	0	0	
0.197	0.00302269	-0.00169394	8.08309E-05	3.91024E-05	0	0	0	
0.197167	0.0209162	1.05541E-06	0.000177405	5.84251E-05	0	0	0	
0.197333	-0.0180843	0.00147185	0.000376203	5.80951E-05	0	0	0	
0.1975	0.0150556	-0.0027175	0.000439263	5.26834E-05	0	0	0	
0.197667	0.00105401	0.00324677	0.000379366	4.89377E-05	0	0	0	
0.197833	-0.00800022	-0.00306015	0.000192324	5.87127E-05	0	0	0	
0.198	0.00903415	0.000681632	0.000161267	5.26953E-05	0	0	0	
0.198167	-0.00261179	0.0014653	0.000147206	3.74662E-05	0	0	0	
0.198333	-0.000243296	-0.0017621	0.000235005	2.81589E-05	0	0	0	
0.1985	0.00499006	-0.000998973	0.000335368	3.87697E-05	0	0	0	
0.198667	-0.00969689	0.00190098	0.000396474	6.54195E-05	0	0	0	
0.198833	-0.000974032	-0.00212245	0.000302779	7.809E-05	0	0	0	
0.199	0.0092769	0.00170759	0.000169294	7.03572E-05	0	0	0	
0.199167	-0.00605443	-0.00040286	0.000121059	4.66169E-05	0	0	0	
0.199333	0.00308501	-0.000541519	0.000128211	2.29749E-05	0	0	0	
0.1995	-0.0021285	0.000531651	0.000187755	1.59923E-05	0	0	0	
0.199667	0.000849943	-0.00114363	0.000265199	1.92948E-05	0	0	0	
0.199833	0.00332632	0.00320936	0.000329634	3.33937E-05	0	0	0	
0.2	-0.011435	-0.00663367	0.000313802	5.25197E-05	0	0	0	
0.200167	0.0385707	0.0081438	0.000335338	9.42339E-05	0	0	0	
0.200333	-0.03705	-0.00548776	0.000506095	0.000132155	0	0	0	
0.2005	-0.0878703	0.00303977	0.0013337	0.000169465	0	0	0	
0.200667	0.31437	0.000167967	0.0023902	0.000187542	0	0	0	
0.200833	-0.366774	-0.00512955	0.00464977	0.000198298	0	0	0	
0.201	0.0853779	0.00597624	0.00532115	0.000177034	0	0	0	
0.201167	0.0742981	0.00209799	0.00514701	0.000130383	0	0	0	
0.201333	-0.0813987	-0.00797212	0.00306158	0.000115271	0	0	0	
0.2015	0.0727819	0.0125455	0.00199199	0.000132295	0	0	0	
0.201667	0.0117071	-0.0108387	0.00179973	0.000189143	0	0	0	
0.201833	-0.27769	0.00432572	0.00321192	0.000230423	0	0	0	
0.202	0.243361	0.00268262	0.00502556	0.000286761	0	0	0	
0.202167	-0.139283	-0.00912855	0.00524653	0.000315469	0	0	0	
0.202333	-0.000212624	0.00956417	0.00420704	0.000296401	0	0	0	
0.2025	0.044474	-0.00364058	0.00230993	0.00021801	0	0	0	
0.202667	-0.0184683	-0.00533145	0.00142883	0.000179044	0	0	0	
0.202833	0.00873232	0.0118164	0.000697791	0.000183228	0	0	0	
0.203	-0.0244876	-0.0153007	0.000372087	0.000224489	0	0	0	
0.203167	0.00848547	0.0135488	0.000463157	0.000252897	0	0	0	
0.203333	0.0527712	-0.00507458	0.000953971	0.000288783	0	0	0	
0.2035	-0.075065	-0.00668766	0.00145448	0.000347801	0	0	0	
0.203667	0.0454544	0.0176303	0.00151347	0.000370059	0	0	0	
0.203833	0.00817472	-0.0186217	0.00127477	0.000363919	0	0	0	
0.204	-0.0461879	0.00861263	0.00110233	0.000324443	0	0	0	
0.204167	0.0463011	0.00409057	0.00119948	0.000322451	0	0	0	
0.204333	-0.0218286	-0.0145949	0.00104105	0.000334568	0	0	0	
0.2045	0.0016435	0.0174962	0.000899685	0.000338842	0	0	0	
0.204667	0.0117545	-0.0122553	0.000849177	0.000315768	0	0	0	
0.204833	-0.0137719	0.000183878	0.000874708	0.00032158	0	0	0	
0.205	0.000990483	0.0104471	0.000640753	0.000341531	0	0	0	
0.205167	0.00855784	-0.0133851	0.000451329	0.000325388	0	0	0	
0.205333	-0.00741013	0.00820594	0.000414824	0.000271808	0	0	0	
0.2055	0.00564551	0.00132369	0.000394895	0.00025344	0	0	0	
0.205667	-0.00437312	-0.00951081	0.00033004	0.000273568	0	0	0	
0.205833	0.00319105	0.0109059	0.000308191	0.000275657	0	0	0	
0.206	-0.0012337	-0.0036837	0.000337553	0.000213925	0	0	0	
0.206167	-0.00209859	-0.00338788	0.000223062	0.000157349	0	0	0	
0.206333	0.00170577	0.00767391	9.39972E-05	0.000124757	0	0	0	
0.2065	0.00567261	-0.00630623	5.03408E-05	0.00012452	0	0	0	
0.206667	-0.0125997	0.00163191	9.9552E-05	0.000111751	0	0	0	
0.206833	0.00539507	0.00358863	0.000180753	0.000102826	0	0	0	
0.207	0.0119211	-0.00365083	0.000284741	8.40383E-05	0	0	0	
0.207167	-0.011799	0.00059214	0.000305508	7.51775E-05	0	0	0	
0.207333	-0.00714557	0.00335261	0.000279819	6.69441E-05	0	0	0	
0.2075	0.0269435	-0.00321422	0.000300051	6.35473E-05	0	0	0	
0.207667	-0.0300986	0.000370918	0.000409128	6.50383E-05	0	0	0	
0.207833	0.0282073	0.00256366	0.00051427	7.24475E-05	0	0	0	
0.208	-0.00985688	-0.00350569	0.000485583	8.32842E-05	0	0	0	
0.208167	0.00392491	0.00342749	0.000381002	7.99029E-05	0	0	0	
0.208333	0.00114933	-0.000187917	0.000254489	6.78209E-05	0	0	0	
0.2085	-0.00430638	-0.00332554	0.000155949	5.63334E-05	0	0	0	
0.208667	0.00741327	0.00365667	0.000199755	5.94414E-05	0	0	0	
0.208833	-0.0022896	-0.00260462	0.000381824	6.1927E-05	0	0	0	
0.209	-0.00148071	0.00174818	0.000603792	6.16185E-05	0	0	0	
0.209167	0.00614699	-0.00114466	0.00058658	5.83903E-05	0	0	0	
0.209333	-0.00412769	0.000301075	0.000377134	5.56222E-05	0	0	0	
0.2095	-0.000665048	0.000946217	0.000157983	5.9083E-05	0	0	0	
0.209667	0.00253132	-0.000245796	7.83295E-05	6.61682E-05	0	0	0	
0.209833	-0.0134807	0.000161423	0.000151006	6.06312E-05	0	0	0	
0.21	0.0162201	-0.00242403	0.000254534	4.68335E-05	0	0	0	
0.210167	-0.0114535	0.00412561	0.000330594	4.19132E-05	0	0	0	
0.210333	0.000816114	-0.00149475	0.000295956	5.26142E-05	0	0	0	
0.2105	-0.00167771	0.000125154	0.000203577	6.13184E-05	0	0	0	
0.210667	0.00188309	0.000182529	0.000117334	4.7955E-05	0	0	0	
0.210833	0.00531054	-0.00108821	0.000140374	3.03853E-05	0	0	0	
0.211	-0.0131696	0.000311223	0.000204066	2.44967E-05	0	0	0	
0.211167	0.0056483	0.00173517	0.000236239	2.91072E-05	0	0	0	
0.211333	0.00467209	-0.00215073	0.000187618	3.78678E-05	0	0	0	
0.2115	-0.0061578	1.18819E-05	0.000128987	4.26517E-05	0	0	0	
0.211667	0.00491824	-0.000168235	0.000121523	4.25009E-05	0	0	0	
0.211833	-0.00412965	1.76138E-05	0.000117866	3.35721E-05	0	0	0	
0.212	-0.00175536	-0.00117929	0.000127333	2.30531E-05	0	0	0	
0.212167	0.00508991	0.0021055	0.000129058	1.98619E-05	0	0	0	
0.212333	-0.00328914	-0.00243025	0.000124407	3.0122E-05	0	0	0	
0.2125	-0.00194479	0.000829202	9.2376E-05	3.73587E-05	0	0	0	
0.212667	0.00315948	0.000453968	5.77699E-05	3.54371E-05	0	0	0	
0.212833	-0.00223158	-0.000532178	4.71008E-05	2.92582E-05	0	0	0	
0.213	0.000811601	0.000712523	4.87372E-05	1.89526E-05	0	0	0	
0.213167	-0.000912732	-2.05967E-05	4.86667E-05	1.97753E-05	0	0	0	
0.213333	0.00247533	-0.00120346	5.9731E-05	2.12443E-05	0	0	0	
0.2135	-0.00191313	0.00100766	9.08762E-05	3.25509E-05	0	0	0	
0.213667	0.000948464	-0.000854249	0.000127955	3.79997E-05	0	0	0	
0.213833	0.00273026	0.00131003	0.000145221	3.40714E-05	0	0	0	
0.214	-0.00385267	-0.00182874	0.000149076	3.18845E-05	0	0	0	
0.214167	-0.00347889	0.000858243	0.000188792	2.5891E-05	0	0	0	
0.214333	0.00384345	-0.000835666	0.000319391	2.57824E-05	0	0	0	
0.2145	0.00416131	-0.000317248	0.00045682	2.21554E-05	0	0	0	
0.214667	0.000564655	-4.6935E-05	0.000436913	3.63733E-05	0	0	0	
0.214833	-0.00972861	0.00107655	0.000298565	6.00671E-05	0	0	0	
0.215	0.0139253	-0.00189351	0.000184272	6.99376E-05	0	0	0	
0.215167	-0.0131324	0.000989894	0.00028432	5.57469E-05	0	0	0	
0.215333	0.0116557	-0.000592665	0.000443169	3.14612E-05	0	0	0	
0.2155	0.000479265	0.000635591	0.000458898	2.46227E-05	0	0	0	
0.215667	-0.00104991	-0.000390013	0.000334061	3.58953E-05	0	0	0	
0.215833	0.000271233	-0.000413391	0.000212771	5.2971E-05	0	0	0	
0.216	0.00822744	0.00110154	0.000187723	6.3142E-05	0	0	0	
0.216167	-0.0153524	-0.000863343	0.00021032	5.5637E-05	0	0	0	
0.216333	0.0114048	0.00104747	0.000235001	3.86528E-05	0	0	0	
0.2165	0.007511	-0.00209708	0.000281566	2.85188E-05	0	0	0	
0.216667	-0.0246103	0.00256178	0.000340583	3.72784E-05	0	0	0	
0.216833	0.018202	-0.00265927	0.000360134	5.89196E-05	0	0	0	
0.217	-0.00121897	0.001636	0.000328552	7.11322E-05	0	0	0	
0.217167	-0.00522437	-0.000655889	0.000213651	6.12617E-05	0	0	0	
0.217333	-0.0077674	0.00108749	0.000174697	4.45622E-05	0	0	0	
0.2175	0.036609	-0.000698055	0.000238192	3.10872E-05	0	0	0	
0.217667	-0.00841998	0.00170548	0.000340195	2.60537E-05	0	0	0	
0.217833	-0.00460569	-0.00290905	0.00037088	3.15537E-05	0	0	0	
0.218	0.0093326	0.00401509	0.000296214	4.68096E-05	0	0	0	
0.218167	-0.00242149	-0.00295466	0.00020847	6.83476E-05	0	0	0	
0.218333	-0.00268986	0.00204796	0.000139516	6.69912E-05	0	0	0	
0.2185	0.0144002	-0.000567163	0.000144159	5.01762E-05	0	0	0	
0.218667	-2.04756E-05	-2.05307E-06	0.000261606	2.78288E-05	0	0	0	
0.218833	0.00376504	-0.000321233	0.000277732	1.74935E-05	0	0	0	
0.219	-0.00311099	0.000357945	0.00022938	1.876E-05	0	0	0	
0.219167	-0.00023985	-9.96874E-05	0.000103029	3.11635E-05	0	0	0	
0.219333	0.00757425	0.000599643	5.94291E-05	4.11958E-05	0	0	0	
0.2195	-0.00511231	5.44443E-05	0.000105476	3.54419E-05	0	0	0	
0.219667	-0.0193981	-0.000982916	0.000244844	2.28571E-05	0	0	0	
0.219833	0.0288198	0.0020314	0.000361391	1.83525E-05	0	0	0	
0.22	0.0158862	-0.00221192	0.000667563	3.06486E-05	0	0	0	
0.220167	-0.046975	0.00173768	0.000998994	4.24304E-05	0	0	0	
0.220333	0.0348274	-0.00143479	0.00110614	4.3935E-05	0	0	0	
0.2205	-0.0109901	0.000865782	0.000912547	3.56888E-05	0	0	0	
0.220667	-0.000274837	3.28059E-05	0.000529414	2.28592E-05	0	0	0	
0.220833	0.0136878	-0.00054388	0.000393098	1.65421E-05	0	0	0	
0.221	-0.0322929	0.000437785	0.00034074	1.76282E-05	0	0	0	
0.221167	0.0241159	-0.000274462	0.000489862	2.43037E-05	0	0	0	
0.221333	-0.00183485	-9.32782E-05	0.000771646	2.61398E-05	0	0	0	
0.2215	-0.022926	0.000957622	0.000830879	2.09945E-05	0	0	0	
0.221667	0.010626	-0.000377152	0.00067946	1.37929E-05	0	0	0	
0.221833	0.00739531	-4.5565E-05	0.000419416	1.20601E-05	0	0	0	
0.222	-0.0114504	0.000522635	0.000289794	1.67823E-05	0	0	0	
0.222167	-0.000475516	-0.00150301	0.000264494	2.32211E-05	0	0	0	
0.222333	0.0116238	0.00125738	0.000215885	2.57412E-05	0	0	0	
0.2225	-0.0100608	-0.000187474	0.000217871	2.31112E-05	0	0	0	
0.222667	0.000631517	-0.000718128	0.000214157	1.87608E-05	0	0	0	
0.222833	0.000707202	0.00121182	0.000173358	1.6822E-05	0	0	0	
0.223	0.0040373	-0.00172118	0.000129816	2.07356E-05	0	0	0	
0.223167	-0.00525989	0.00132604	8.63342E-05	2.67994E-05	0	0	0	
0.223333	0.00314371	-0.000846786	8.53187E-05	3.4258E-05	0	0	0	
0.2235	0.00168153	-0.000297914	0.000112012	3.58668E-05	0	0	0	
0.223667	-0.000722553	-9.1999E-05	9.021E-05	3.17456E-05	0	0	0	
0.223833	-0.00407385	0.000449205	6.94775E-05	2.33608E-05	0	0	0	
0.224	0.0060132	-0.000787215	5.84914E-05	1.71908E-05	0	0	0	
0.224167	-0.00187358	0.00068532	7.35277E-05	1.55832E-05	0	0	0	
0.224333	0.00100667	-0.000838077	7.35258E-05	1.49238E-05	0	0	0	
0.2245	-0.0033267	0.000710164	5.6702E-05	1.6588E-05	0	0	0	
0.224667	0.0029237	-0.000488106	5.82802E-05	1.45596E-05	0	0	0	
0.224833	0.0157022	0.000570239	0.000129957	1.38823E-05	0	0	0	
0.225	-0.00770089	-0.00190246	0.000195365	1.54379E-05	0	0	0	
0.225167	-0.0585614	0.00287888	0.000526613	2.53097E-05	0	0	0	
0.225333	0.128643	-0.00230069	0.000917611	4.72857E-05	0	0	0	
0.2255	0.0408211	0.00150028	0.00163964	6.01842E-05	0	0	0	
0.225667	-0.23236	-0.00227167	0.00247267	5.89646E-05	0	0	0	
0.225833	0.11632	0.000743436	0.0030184	4.51854E-05	0	0	0	
0.226	-0.0138864	-8.79749E-05	0.00290426	2.69704E-05	0	0	0	
0.226167	-0.0154498	0.00145513	0.00208777	2.86581E-05	0	0	0	
0.226333	0.063517	-0.00364228	0.00145713	2.97967E-05	0	0	0	
0.2265	-0.12373	0.000553354	0.00153882	5.39851E-05	0	0	0	
0.226667	-0.100114	2.7887E-05	0.00179087	6.46161E-05	0	0	0	
0.226833	0.075225	0.0018416	0.00265757	6.5464E-05	0	0	0	
0.227	-0.0974832	-0.00335287	0.00260808	5.46266E-05	0	0	0	
0.227167	0.041287	0.00387938	0.00246057	5.28775E-05	0	0	0	
0.227333	0.0673532	-0.00365264	0.00224421	6.3399E-05	0	0	0	
0.2275	-0.0691308	0.003313	0.00248586	8.18216E-05	0	0	0	
0.227667	0.019554	-0.00380209	0.00230465	9.19102E-05	0	0	0	
0.227833	0.00937679	0.00361221	0.00145598	0.000100046	0	0	0	
0.228	-0.014808	-0.00366548	0.000598221	0.000101954	0	0	0	
0.228167	0.00628615	0.00451393	0.000467971	0.000113721	0	0	0	
0.228333	-0.022447	-0.00460324	0.000448279	0.000117622	0	0	0	
0.2285	0.088512	0.00253781	0.00094187	0.000100627	0	0	0	
0.228667	-0.032147	-0.000433606	0.00133576	6.8422E-05	0	0	0	
0.228833	-0.018823	-0.00207941	0.00148623	4.21564E-05	0	0	0	
0.229	0.0244999	0.00244049	0.00103159	4.96114E-05	0	0	0	
0.229167	-0.00440998	-0.000889073	0.00058502	5.83745E-05	0	0	0	
0.229333	-0.00228056	0.000742188	0.000363642	6.119E-05	0	0	0	
0.2295	-0.0109285	-0.000883785	0.000274357	4.38426E-05	0	0	0	
0.229667	0.0157517	0.000354615	0.000249582	3.85783E-05	0	0	0	
0.229833	-0.0121429	0.000357821	0.00022913	3.60932E-05	0	0	0	
0.23	0.00115539	-0.000846808	0.000247901	3.21169E-05	0	0	0	
0.230167	0.000402613	0.000642836	0.000185536	2.28358E-05	0	0	0	
0.230333	0.00735666	0.000162208	0.000115854	1.47087E-05	0	0	0	
0.2305	-0.0194632	0.00115873	0.000144256	1.37199E-05	0	0	0	
0.230667	0.0164331	-0.00339955	0.000223934	2.04801E-05	0	0	0	
0.230833	-0.0167693	0.00466629	0.000318103	4.68929E-05	0	0	0	
0.231	0.0119465	-0.00347186	0.000336621	7.5253E-05	0	0	0	
0.231167	-0.0072955	0.0026588	0.000325036	8.84205E-05	0	0	0	
0.231333	0.00320963	-0.00228365	0.000270417	7.85463E-05	0	0	0	
0.2315	0.00198198	0.00296614	0.000169974	6.9283E-05	0	0	0	
0.231667	-0.00329979	-0.00383599	0.000113024	7.42586E-05	0	0	0	
0.231833	-0.00722315	0.00472463	0.000164758	8.41741E-05	0	0	0	
0.232	0.0159586	-0.00374759	0.000246176	8.82683E-05	0	0	0	
0.232167	-0.0121772	0.00257297	0.0002947	7.78896E-05	0	0	0	
0.232333	0.00459695	-0.000741543	0.000241334	6.27539E-05	0	0	0	
0.2325	0.00158976	-0.00160301	0.000154863	4.87695E-05	0	0	0	
0.232667	-0.00133253	0.00204822	7.87249E-05	5.44167E-05	0	0	0	
0.232833	-0.00324482	-0.000151635	4.16193E-05	7.0568E-05	0	0	0	
0.233	0.00790641	-0.00146229	5.90765E-05	7.45977E-05	0	0	0	
0.233167	-0.00656044	0.00112119	0.000105469	5.47562E-05	0	0	0	
0.233333	0.00108444	0.000305456	0.000130684	3.10352E-05	0	0	0	
0.2335	0.000345215	-0.000907012	0.000117447	1.72626E-05	0	0	0	
0.233667	0.00173869	0.000339764	6.49575E-05	1.3877E-05	0	0	0	
0.233833	-0.00470126	0.00053489	4.4034E-05	1.13851E-05	0	0	0	
0.234	0.00319902	-0.00013974	5.37176E-05	1.57305E-05	0	0	0	
0.234167	-0.000281665	-0.000301961	6.42608E-05	2.1326E-05	0	0	0	
0.234333	-0.0018904	0.000602634	7.12123E-05	2.21517E-05	0	0	0	
0.2345	-0.00051	-0.000364424	7.61014E-05	1.88034E-05	0	0	0	
0.234667	-0.000825339	0.000154775	7.29065E-05	1.39288E-05	0	0	0	
0.234833	0.000724871	-0.000288066	5.30691E-05	1.06782E-05	0	0	0	
0.235	0.00215603	-0.00109431	2.64242E-05	1.07491E-05	0	0	0	
0.235167	-0.00257421	0.00238706	3.19506E-05	1.67571E-05	0	0	0	
0.235333	-0.00128935	-0.002941	6.5984E-05	3.23757E-05	0	0	0	
0.2355	0.00274534	0.00221932	8.96305E-05	4.96814E-05	0	0	0	
0.235667	-0.00130137	-0.00142063	8.07582E-05	5.7387E-05	0	0	0	
0.235833	-0.00238506	0.00126678	4.88957E-05	5.40604E-05	0	0	0	
0.236	0.00100468	-5.02178E-05	3.44945E-05	3.57262E-05	0	0	0	
0.236167	-0.00297605	0.00075479	4.58377E-05	2.04131E-05	0	0	0	
0.236333	0.00592387	-0.000898236	7.30657E-05	1.20301E-05	0	0	0	
0.2365	-0.00410289	0.00132547	9.59135E-05	1.65312E-05	0	0	0	
0.236667	0.00168817	-0.00140698	0.00010298	2.70239E-05	0	0	0	
0.236833	-0.00225324	0.00182598	8.06911E-05	3.54508E-05	0	0	0	
0.237	0.00298986	-0.00043521	6.42343E-05	3.48161E-05	0	0	0	
0.237167	-0.0010874	-0.000427339	4.63695E-05	3.12595E-05	0	0	0	
0.237333	0.000615384	0.000591245	5.04648E-05	2.70121E-05	0	0	0	
0.2375	0.00338044	-0.000561452	4.42655E-05	2.29605E-05	0	0	0	
0.237667	-0.00464212	0.00063661	6.95134E-05	1.60667E-05	0	0	0	
0.237833	0.0019997	-0.00171533	6.66726E-05	1.57818E-05	0	0	0	
0.238	0.00142952	0.00122069	8.79994E-05	2.20701E-05	0	0	0	
0.238167	-0.00530426	-0.000846451	8.95273E-05	2.78871E-05	0	0	0	
0.238333	0.00589989	0.00160071	0.000105675	2.74032E-05	0	0	0	
0.2385	-0.0041235	-0.00188122	0.000100413	2.82167E-05	0	0	0	
0.238667	0.00353837	0.00146701	0.000110322	3.03854E-05	0	0	0	
0.238833	-0.002789	-0.00133371	0.000151261	3.1698E-05	0	0	0	
0.239	-0.00428397	0.00115806	0.000191899	2.92693E-05	0	0	0	
0.239167	0.00715137	-0.000704474	0.000186744	2.81368E-05	0	0	0	
0.239333	-0.000653649	0.00111018	0.000146038	3.18202E-05	0	0	0	
0.2395	-0.00566174	-0.00185191	0.000127565	4.61064E-05	0	0	0	
0.239667	0.00720147	0.00294071	0.000136186	6.10427E-05	0	0	0	
0.239833	-0.00444491	-0.00306399	0.000138244	6.7855E-05	0	0	0	
0.24	0.0038504	0.00140107	0.000111586	5.7791E-05	0	0	0	
0.240167	-0.00199688	0.00045867	9.88967E-05	3.78203E-05	0	0	0	
0.240333	-0.00481353	-0.00120487	0.00011005	2.2909E-05	0	0	0	
0.2405	0.00400827	0.00236354	0.000105806	2.14969E-05	0	0	0	
0.240667	0.00885997	-0.00269662	0.000163077	3.59474E-05	0	0	0	
0.240833	-0.018825	-0.000531151	0.000221952	5.2512E-05	0	0	0	
0.241	0.0194063	0.000794024	0.00031135	5.20001E-05	0	0	0	
0.241167	-0.0131202	0.00101355	0.000341173	3.60652E-05	0	0	0	
0.241333	-0.00399901	-0.00176859	0.000372103	2.42232E-05	0	0	0	
0.2415	0.016626	0.00265717	0.000358611	2.84754E-05	0	0	0	
0.241667	-0.00536117	-0.0036728	0.000311899	4.6277E-05	0	0	0	
0.241833	-0.0125371	0.000399747	0.000334145	5.15378E-05	0	0	0	
0.242	0.0199934	0.00443733	0.000358102	6.65041E-05	0	0	0	
0.242167	-0.0152761	-0.00562687	0.000378318	7.45946E-05	0	0	0	
0.242333	0.0135003	0.00307528	0.000314067	9.16286E-05	0	0	0	
0.2425	-0.00710625	-0.000303455	0.000282913	9.66737E-05	0	0	0	
0.242667	-0.00239192	-0.0018477	0.000254431	0.000105914	0	0	0	
0.242833	-0.00340503	0.00263916	0.000223983	9.97564E-05	0	0	0	
0.243	0.0204091	-0.000207643	0.00029782	7.41449E-05	0	0	0	
0.243167	-0.0105406	-0.00287779	0.000348833	7.18042E-05	0	0	0	
0.243333	0.00770757	0.00428629	0.000378184	8.22866E-05	0	0	0	
0.2435	0.00506203	-0.00371571	0.000312432	9.33659E-05	0	0	0	
0.243667	-0.00518294	0.000531292	0.000245829	8.75438E-05	0	0	0	
0.243833	0.00540781	0.00190935	0.000183679	7.90605E-05	0	0	0	
0.244	-0.00322686	-0.00198073	0.000106411	7.33989E-05	0	0	0	
0.244167	0.0118271	0.00109009	0.000121492	5.16138E-05	0	0	0	
0.244333	0.00188032	-0.00128563	0.000133559	3.26127E-05	0	0	0	
0.2445	-0.00273931	-9.42604E-05	0.000128914	2.47382E-05	0	0	0	
0.244667	0.00978943	0.000864	0.000106836	2.80695E-05	0	0	0	
0.244833	-0.0148451	-0.000397679	0.000142462	3.05125E-05	0	0	0	
0.245	0.0143513	0.000893112	0.000216337	2.84005E-05	0	0	0	
0.245167	-0.00754569	-0.00283957	0.000251863	2.87116E-05	0	0	0	
0.245333	0.0017509	0.00334294	0.000208254	3.80863E-05	0	0	0	
0.2455	-0.00076064	-0.00233706	0.000150234	5.36343E-05	0	0	0	
0.245667	0.000895101	0.00167153	0.000144273	5.73542E-05	0	0	0	
0.245833	-0.00436722	-0.00225483	0.000232202	5.80543E-05	0	0	0	
0.246	-0.000470543	0.00189524	0.0002364	6.11021E-05	0	0	0	
0.246167	0.00300219	-0.00202981	0.000407171	6.14514E-05	0	0	0	
0.246333	-0.0149745	0.00255778	0.000614997	5.28215E-05	0	0	0	
0.2465	0.0197101	-0.00177147	0.000673144	4.55376E-05	0	0	0	
0.246667	-0.00590846	-0.000470276	0.000553793	5.15736E-05	0	0	0	
0.246833	0.00642972	0.0020676	0.00026932	4.64193E-05	0	0	0	
0.247	-0.0135604	-0.00017161	0.000246288	4.86545E-05	0	0	0	
0.247167	-0.0164551	-0.00264616	0.000210504	5.39224E-05	0	0	0	
0.247333	0.0441345	0.003701	0.000378639	6.77444E-05	0	0	0	
0.2475	-0.0244147	-0.00297641	0.000531943	7.06001E-05	0	0	0	
0.247667	0.00509981	0.000959616	0.000560895	5.80574E-05	0	0	0	
0.247833	-0.0034023	0.00165169	0.000379589	4.23535E-05	0	0	0	
0.248	-0.000577398	-0.00287835	0.000198037	4.47782E-05	0	0	0	
0.248167	0.00866899	0.000729405	0.00021494	7.14348E-05	0	0	0	
0.248333	-0.0346843	0.00264981	0.000313814	0.000113839	0	0	0	
0.2485	0.0219969	-0.00359324	0.000461731	0.000116896	0	0	0	
0.248667	0.00132953	0.00125463	0.000427537	9.60764E-05	0	0	0	
0.248833	0.00188096	0.0026579	0.000349306	9.36896E-05	0	0	0	
0.249	-0.0075811	-0.00761665	0.000195223	0.00012076	0	0	0	
0.249167	0.00481338	0.00955065	0.000140951	0.000159369	0	0	0	
0.249333	0.000686965	-0.00795802	0.000153162	0.000165419	0	0	0	
0.2495	-0.0139591	0.00519454	0.000191575	0.000158418	0	0	0	
0.249667	0.0157503	-0.00201505	0.000275683	0.000135647	0	0	0	
0.249833	0.0341859	0.00083554	0.000568786	0.000108819	0	0	0	
0.25	-0.0809834	0.000301196	0.000841306	7.77889E-05	0	0	0	
0.250167	0.0499712	-0.000113954	0.00128447	4.80695E-05	0	0	0	
0.250333	0.0531744	0.000137138	0.00190036	2.75987E-05	0	0	0	
0.2505	-0.154267	0.00111611	0.00230946	2.00069E-05	0	0	0	
0.250667	0.155482	-0.00155691	0.00263596	2.18609E-05	0	0	0	
0.250833	-0.0968207	0.00101517	0.0026404	2.66421E-05	0	0	0	
0.251	-0.020078	0.000550796	0.00274906	2.87012E-05	0	0	0	
0.251167	0.0757986	-0.000329778	0.00223057	4.37728E-05	0	0	0	
0.251333	0.0677996	0.00057223	0.00206506	5.95129E-05	0	0	0	
0.2515	-0.0880462	-0.000353931	0.00278538	6.47272E-05	0	0	0	
0.251667	0.133805	-0.00020156	0.00361948	4.52618E-05	0	0	0	
0.251833	-0.110984	0.000909954	0.0035765	2.7131E-05	0	0	0	
0.252	0.0385412	-0.0004771	0.00245103	2.07852E-05	0	0	0	
0.252167	0.0307726	0.000381575	0.00153442	2.12383E-05	0	0	0	
0.252333	-0.0355248	-0.00130868	0.00102216	2.65776E-05	0	0	0	
0.2525	0.0451345	0.00304158	0.00162358	2.81518E-05	0	0	0	
0.252667	0.0204506	-0.00263173	0.00236562	5.06208E-05	0	0	0	
0.252833	-0.019563	0.000939607	0.00232519	7.70583E-05	0	0	0	
0.253	9.20463E-05	0.000929006	0.00135015	0.000101119	0	0	0	
0.253167	-0.0902966	-0.0022217	0.000707493	9.4572E-05	0	0	0	
0.253333	0.176701	0.00189114	0.00132828	6.48455E-05	0	0	0	
0.2535	-0.118258	0.00056534	0.00241032	5.65846E-05	0	0	0	
0.253667	0.000846973	-0.00409169	0.00294271	7.16363E-05	0	0	0	
0.253833	-0.00953446	0.00587443	0.0023515	9.69721E-05	0	0	0	
0.254	0.0358899	-0.00532481	0.001455	0.000105861	0	0	0	
0.254167	0.0170223	0.00456614	0.000949693	9.97291E-05	0	0	0	
0.254333	-0.0171295	-0.00399383	0.000805499	9.23627E-05	0	0	0	
0.2545	-0.0237984	0.000435211	0.00115013	8.05209E-05	0	0	0	
0.254667	0.0733466	0.00476162	0.00116799	6.99882E-05	0	0	0	
0.254833	-0.0951906	-0.00786827	0.00158501	8.38719E-05	0	0	0	
0.255	0.0477829	0.00774587	0.00145501	0.000119175	0	0	0	
0.255167	-0.0436859	-0.00526072	0.00131362	0.000157104	0	0	0	
0.255333	0.0533833	0.00067666	0.00106462	0.000153683	0	0	0	
0.2555	-0.00820149	0.0026886	0.00106944	0.000113288	0	0	0	
0.255667	-0.0326259	-0.0023596	0.00165056	8.01779E-05	0	0	0	
0.255833	0.00392596	-0.00349655	0.00177665	9.84162E-05	0	0	0	
0.256	0.0346087	0.0093489	0.00155484	0.000146721	0	0	0	
0.256167	-0.0345661	-0.0134297	0.000776427	0.000191618	0	0	0	
0.256333	0.000127527	0.00934937	0.000813708	0.000209146	0	0	0	
0.2565	0.0254744	-0.000817509	0.000868765	0.000235913	0	0	0	
0.256667	-0.0111201	-0.0100804	0.000849208	0.000274432	0	0	0	
0.256833	-0.0228258	0.0148436	0.00065838	0.000292312	0	0	0	
0.257	0.0421504	-0.010316	0.000558554	0.000272356	0	0	0	
0.257167	-0.0261744	-0.000188714	0.000685454	0.000234085	0	0	0	
0.257333	0.00421663	0.0089789	0.00057248	0.000212339	0	0	0	
0.2575	-0.000315691	-0.0131874	0.000375554	0.000214453	0	0	0	
0.257667	0.00981659	0.0145487	0.000211318	0.000228359	0	0	0	
0.257833	-0.0155009	-0.010481	0.000179628	0.000246046	0	0	0	
0.258	0.0164225	0.00445724	0.000256789	0.000264651	0	0	0	
0.258167	-0.00308237	0.000228661	0.000281119	0.000273704	0	0	0	
0.258333	-0.00974705	-0.00293859	0.000231364	0.000264027	0	0	0	
0.2585	0.0108636	0.00459294	0.000195448	0.000213711	0	0	0	
0.258667	0.00389844	-0.00198221	0.000173359	0.000145439	0	0	0	
0.258833	-0.0158774	-0.00393509	0.000225795	0.000138301	0	0	0	
0.259	0.017788	0.0107762	0.000262106	0.000175503	0	0	0	
0.259167	-0.00557883	-0.0149015	0.000276915	0.000235797	0	0	0	
0.259333	-0.0189348	0.0133267	0.000243161	0.000249289	0	0	0	
0.2595	0.025738	-0.00654633	0.000267894	0.000245396	0	0	0	
0.259667	-0.004489	-0.000172475	0.000404169	0.000204126	0	0	0	
0.259833	-0.0225887	0.00288558	0.000537681	0.000132034	0	0	0	
0.26	0.0250757	-0.00140181	0.000549456	9.87665E-05	0	0	0	
0.260167	-0.0260645	-0.00226404	0.000759141	0.000101737	0	0	0	
0.260333	0.00164042	0.00226437	0.00091864	0.000115435	0	0	0	
0.2605	0.0128881	-0.000917056	0.000858816	7.90669E-05	0	0	0	
0.260667	-0.00672069	-0.000762191	0.000519238	4.40914E-05	0	0	0	
0.260833	0.0024431	0.00293654	0.000235677	3.17148E-05	0	0	0	
0.261	0.0112184	-0.00377408	0.000236419	4.65747E-05	0	0	0	
0.261167	-0.0317338	0.00331421	0.000272055	6.00429E-05	0	0	0	
0.261333	0.0401312	-0.00277824	0.000528739	6.51433E-05	0	0	0	
0.2615	-0.00368597	0.00349471	0.000565801	6.2398E-05	0	0	0	
0.261667	0.00295763	-0.00189827	0.000483509	5.63348E-05	0	0	0	
0.261833	-0.0127442	-2.06903E-05	0.000191397	4.64101E-05	0	0	0	
0.262	0.00643427	0.00179363	0.000183829	4.29151E-05	0	0	0	
0.262167	0.0113887	0.00120568	0.000318282	6.80433E-05	0	0	0	
0.262333	-0.0172051	-0.00581872	0.000375314	0.000103762	0	0	0	
0.2625	0.000173814	0.00841026	0.000316552	0.000125443	0	0	0	
0.262667	0.0115888	-0.00582623	0.000186527	0.000141631	0	0	0	
0.262833	-0.0101958	0.000828939	0.000201121	0.000148683	0	0	0	
0.263	0.00808431	0.00155403	0.000266034	0.000134465	0	0	0	
0.263167	-0.00824928	-0.00193995	0.000314647	9.01541E-05	0	0	0	
0.263333	0.0015819	0.000515445	0.000256465	7.65776E-05	0	0	0	
0.2635	0.00476662	0.00288885	0.00018669	0.000105323	0	0	0	
0.263667	-0.00123791	-0.00721861	0.000129966	0.000146258	0	0	0	
0.263833	-0.0160569	0.00771556	0.000180929	0.00016252	0	0	0	
0.264	0.0370391	-0.00434853	0.000286251	0.000146228	0	0	0	
0.264167	-0.00315633	0.00121505	0.000545548	0.000109596	0	0	0	
0.264333	-0.111697	0.00120408	0.00101208	6.64726E-05	0	0	0	
0.2645	0.127742	-0.00231434	0.0016816	4.62904E-05	0	0	0	
0.264667	-0.0476643	0.00282966	0.00389589	4.85847E-05	0	0	0	
0.264833	-0.138968	-0.000873515	0.005819	6.13339E-05	0	0	0	
0.265	0.0963418	-0.00148805	0.00580124	7.37214E-05	0	0	0	
0.265167	-0.014555	0.00375943	0.00383471	7.35184E-05	0	0	0	
0.265333	-0.0127031	-0.00362488	0.00169774	7.17283E-05	0	0	0	
0.2655	0.0921585	0.00133284	0.00144909	6.869E-05	0	0	0	
0.265667	-0.288742	0.00138146	0.00191191	6.8731E-05	0	0	0	
0.265833	0.236169	-0.00163748	0.00342888	5.55514E-05	0	0	0	
0.266	-0.0731494	0.000228987	0.00453984	5.6999E-05	0	0	0	
0.266167	-0.0634254	0.00174304	0.00438494	6.61269E-05	0	0	0	
0.266333	0.0237693	-0.0031393	0.00275915	8.20833E-05	0	0	0	
0.2665	0.0247381	0.00240181	0.00138267	7.27326E-05	0	0	0	
0.266667	-0.0103088	-0.000648944	0.00068736	5.08203E-05	0	0	0	
0.266833	-0.0393882	-0.000887289	0.00089091	3.38428E-05	0	0	0	
0.267	0.0555069	0.00174546	0.000954406	2.47903E-05	0	0	0	
0.267167	-0.0158449	-0.00156915	0.00103937	2.58921E-05	0	0	0	
0.267333	-0.022731	0.00114083	0.000824459	2.92432E-05	0	0	0	
0.2675	0.020715	0.000201428	0.000631497	2.83071E-05	0	0	0	
0.267667	0.00364212	-0.000512473	0.000514493	2.07322E-05	0	0	0	
0.267833	-0.0381865	0.00206348	0.000580845	2.1935E-05	0	0	0	
0.268	0.0967917	-0.00245067	0.000811148	3.49176E-05	0	0	0	
0.268167	-0.063997	0.00239614	0.00136678	5.52734E-05	0	0	0	
0.268333	-0.0308076	-0.00068626	0.00202844	5.90388E-05	0	0	0	
0.2685	0.0826742	-0.000816444	0.0022	4.24388E-05	0	0	0	
0.268667	-0.0273183	0.000721585	0.00185322	2.74501E-05	0	0	0	
0.268833	0.0085797	0.000575514	0.00134619	2.57991E-05	0	0	0	
0.269	0.0204443	-0.00183791	0.00118482	3.87732E-05	0	0	0	
0.269167	-0.0759246	0.00222679	0.00147428	5.06932E-05	0	0	0	
0.269333	0.139903	-0.00182063	0.0016671	5.53729E-05	0	0	0	
0.2695	-0.0543124	0.000943183	0.00202046	5.1769E-05	0	0	0	
0.269667	-0.0658415	-2.60293E-05	0.00246199	3.48772E-05	0	0	0	
0.269833	0.0656897	-0.000248688	0.00229225	1.79979E-05	0	0	0	
0.27	-0.0242095	0.0013304	0.00181891	1.14437E-05	0	0	0	
0.270167	0.0452466	-0.00114962	0.00101042	1.78533E-05	0	0	0	
0.270333	-0.0512448	0.00172239	0.000846623	2.8462E-05	0	0	0	
0.2705	0.00218298	-0.000481046	0.000788634	2.85803E-05	0	0	0	
0.270667	0.0230853	0.000742354	0.000724859	2.65471E-05	0	0	0	
0.270833	-0.0383653	0.000834602	0.000645742	1.9466E-05	0	0	0	
0.271	0.0303168	-7.46068E-05	0.000636956	1.95772E-05	0	0	0	
0.271167	-0.0208543	-0.00026475	0.000618496	1.61341E-05	0	0	0	
0.271333	-0.000985665	-0.000398069	0.000632725	1.35782E-05	0	0	0	
0.2715	0.0144202	0.00105123	0.000677992	1.56686E-05	0	0	0	
0.271667	-0.015178	0.000174415	0.00070103	2.41655E-05	0	0	0	
0.271833	0.0147395	-0.00111762	0.000534605	2.99824E-05	0	0	0	
0.272	-0.00114091	0.000609896	0.000404401	2.34859E-05	0	0	0	
0.272167	-0.0178579	-0.00117704	0.000384244	1.99573E-05	0	0	0	
0.272333	0.00865251	0.000282356	0.000393796	1.67938E-05	0	0	0	
0.2725	-0.00200559	0.000313528	0.00030162	1.91254E-05	0	0	0	
0.272667	0.0257143	-0.00102102	0.000264943	1.97242E-05	0	0	0	
0.272833	-0.0506596	0.000905482	0.000395653	1.96869E-05	0	0	0	
0.273	0.0248343	-0.0010011	0.000609473	2.46772E-05	0	0	0	
0.273167	0.00385321	-0.000484061	0.000635765	2.96507E-05	0	0	0	
0.273333	0.00485196	0.00041851	0.000464939	4.05308E-05	0	0	0	
0.2735	-0.0101537	-0.000886334	0.000284417	5.42237E-05	0	0	0	
0.273667	-0.0049656	0.00216873	0.000205384	6.4476E-05	0	0	0	
0.273833	0.0051125	-0.000929938	0.000247244	5.83369E-05	0	0	0	
0.274	0.0273668	-0.00521077	0.000534682	7.45824E-05	0	0	0	
0.274167	-0.0416936	0.00542005	0.000716485	9.32691E-05	0	0	0	
0.274333	0.0111441	-0.00305051	0.000819395	0.000108436	0	0	0	
0.2745	0.0233974	0.00245092	0.000662911	8.47154E-05	0	0	0	
0.274667	0.00701548	-0.001512	0.000651006	5.42513E-05	0	0	0	
0.274833	-0.106824	-0.00268995	0.00105026	4.55203E-05	0	0	0	
0.275	0.1535	0.00514072	0.00151954	5.51715E-05	0	0	0	
0.275167	-0.0932332	-0.00426844	0.00285539	8.10326E-05	0	0	0	
0.275333	-0.0630498	0.00317218	0.00356196	0.000100854	0	0	0	
0.2755	0.0726889	-0.00201202	0.0033118	0.000101366	0	0	0	
0.275667	-0.0324075	-0.000220219	0.00212091	7.68442E-05	0	0	0	
0.275833	0.00165953	-0.000661536	0.00122117	4.35084E-05	0	0	0	
0.276	0.0744582	0.00336534	0.00145478	3.2351E-05	0	0	0	
0.276167	-0.209534	-0.00434623	0.00200357	4.7E-05	0	0	0	
0.276333	0.15551	0.00308438	0.00273686	6.90745E-05	0	0	0	
0.2765	-0.0760186	-0.00107386	0.00283377	6.8632E-05	0	0	0	
0.276667	0.00783861	-0.00113768	0.00221512	4.47324E-05	0	0	0	
0.276833	0.00713994	0.00129255	0.0011898	2.85482E-05	0	0	0	
0.277	0.0122143	-0.000926185	0.000505478	2.25622E-05	0	0	0	
0.277167	-0.0115907	-0.000940494	0.000286577	2.97266E-05	0	0	0	
0.277333	-0.0282737	0.00189027	0.00049048	4.00564E-05	0	0	0	
0.2775	0.0383515	-0.00204758	0.000562608	4.65447E-05	0	0	0	
0.277667	-0.0182621	0.000239305	0.00101402	3.92371E-05	0	0	0	
0.277833	-0.0213082	0.000316535	0.00117142	2.43743E-05	0	0	0	
0.278	0.018196	3.24242E-05	0.00113582	1.49761E-05	0	0	0	
0.278167	0.00251758	-0.000212844	0.000717422	2.16672E-05	0	0	0	
0.278333	-0.0104286	-0.000316916	0.000279616	2.91528E-05	0	0	0	
0.2785	-0.00366753	0.0014275	0.000288046	3.09501E-05	0	0	0	
0.278667	0.0161765	-0.00260679	0.000260781	3.24686E-05	0	0	0	
0.278833	-0.00626992	0.0025667	0.000293145	3.60597E-05	0	0	0	
0.279	-0.00293666	-0.000692235	0.000323259	4.99189E-05	0	0	0	
0.279167	0.00273561	-0.00167588	0.000341938	7.34565E-05	0	0	0	
0.279333	-0.00454064	0.00300969	0.000355277	9.00494E-05	0	0	0	
0.2795	0.00159412	-0.000344481	0.000251164	8.39312E-05	0	0	0	
0.279667	-0.00341805	-0.00250004	0.000162847	5.59559E-05	0	0	0	
0.279833	0.00944425	0.00423281	0.000116982	4.6297E-05	0	0	0	
0.28	-0.00357533	-0.00492875	0.000139096	6.00764E-05	0	0	0	
0.280167	-0.0127012	0.00472539	0.000199017	8.46211E-05	0	0	0	
0.280333	0.0115694	-0.00247489	0.000232561	9.02214E-05	0	0	0	
0.2805	-0.00217829	0.0017132	0.000250838	7.82984E-05	0	0	0	
0.280667	-0.00282925	-0.000752872	0.00019335	5.46278E-05	0	0	0	
0.280833	0.00101655	0.00140783	0.000136081	3.30371E-05	0	0	0	
0.281	-0.00027186	-0.00146174	6.83513E-05	2.84534E-05	0	0	0	
0.281167	0.000153154	0.00253187	3.50671E-05	3.8807E-05	0	0	0	
0.281333	-0.00142285	-0.00243925	3.23613E-05	5.40797E-05	0	0	0	
0.2815	0.00464953	0.0011786	3.96248E-05	5.517E-05	0	0	0	
0.281667	-0.00697236	-4.40373E-05	6.5558E-05	4.03467E-05	0	0	0	
0.281833	0.00317237	0.000453676	0.000102047	2.02064E-05	0	0	0	
0.282	0.000870727	-0.000566077	0.000135538	1.26483E-05	0	0	0	
0.282167	-0.00399893	-0.000365465	0.000123592	1.73488E-05	0	0	0	
0.282333	0.00129336	0.00135837	0.000102965	2.26867E-05	0	0	0	
0.2825	0.00256043	-0.000149869	5.7308E-05	2.75097E-05	0	0	0	
0.282667	-6.97277E-05	-0.00129523	7.23486E-05	4.08552E-05	0	0	0	
0.282833	-0.00166237	0.0012681	8.86084E-05	5.08308E-05	0	0	0	
0.283	-0.000893527	-0.000483019	9.09077E-05	4.46676E-05	0	0	0	
0.283167	0.00216364	0.000196914	7.39779E-05	2.5839E-05	0	0	0	
0.283333	0.000268068	-4.74021E-05	3.52898E-05	1.57224E-05	0	0	0	
0.2835	-0.00251005	0.00146417	3.91796E-05	1.55865E-05	0	0	0	
0.283667	0.00195513	-0.000498967	4.69426E-05	1.87497E-05	0	0	0	
0.283833	-0.00468359	-0.000108569	8.65093E-05	1.59131E-05	0	0	0	
0.284	0.00572602	-5.87103E-05	0.000104336	1.85626E-05	0	0	0	
0.284167	-0.00769789	0.00160945	0.000129602	2.17277E-05	0	0	0	
0.284333	0.00089748	-0.000889076	0.000126384	3.12867E-05	0	0	0	
0.2845	0.00874057	0.0004986	0.000121971	2.90862E-05	0	0	0	
0.284667	0.0358618	0.000319886	0.000446348	2.38016E-05	0	0	0	
0.284833	-0.134497	-0.00056055	0.000962264	2.22019E-05	0	0	0	
0.285	0.0874476	0.00201989	0.00199524	2.87668E-05	0	0	0	
0.285167	-0.0375902	-0.00326255	0.00439223	3.96531E-05	0	0	0	
0.285333	-0.132885	0.00423675	0.00603937	5.25672E-05	0	0	0	
0.2855	0.089419	-0.00361208	0.00556479	7.8645E-05	0	0	0	
0.285667	-0.00317822	-0.000378698	0.00337534	9.29084E-05	0	0	0	
0.285833	0.011232	0.00412772	0.00140324	8.03248E-05	0	0	0	
0.286	0.0249898	-0.00303083	0.00123426	7.35342E-05	0	0	0	
0.286167	-0.239941	0.000275599	0.00120535	8.32723E-05	0	0	0	
0.286333	0.246779	0.00242178	0.0029567	0.000109321	0	0	0	
0.2865	-0.0282214	-0.00402869	0.00378886	0.000107156	0	0	0	
0.286667	-0.0477588	0.0023346	0.00382559	8.71379E-05	0	0	0	
0.286833	-0.004466	0.00223254	0.00203657	7.11777E-05	0	0	0	
0.287	0.00548538	-0.00525979	0.00086097	7.2771E-05	0	0	0	
0.287167	0.0608331	0.00521649	0.000969397	8.60691E-05	0	0	0	
0.287333	-0.098079	-0.00297461	0.00147135	9.00266E-05	0	0	0	
0.2875	0.0595553	0.000959157	0.00183674	7.15237E-05	0	0	0	
0.287667	0.00133875	-0.000174225	0.00155291	4.30964E-05	0	0	0	
0.287833	-0.0221549	-0.000481939	0.00104805	2.78724E-05	0	0	0	
0.288	-0.000537338	-0.000182517	0.000706485	3.56738E-05	0	0	0	
0.288167	0.0214394	0.000742931	0.000382533	5.17151E-05	0	0	0	
0.288333	-0.0139901	-0.000218587	0.00033314	5.44397E-05	0	0	0	
0.2885	-0.00384455	-0.00155148	0.000419126	4.17844E-05	0	0	0	
0.288667	0.00511911	0.00220606	0.000399468	3.45508E-05	0	0	0	
0.288833	-0.0010262	-0.00104674	0.000272956	4.61718E-05	0	0	0	
0.289	0.00610651	0.000247342	0.000135057	6.14918E-05	0	0	0	
0.289167	-0.01058	-0.00171472	0.000143742	5.87881E-05	0	0	0	
0.289333	0.0141218	0.000566785	0.0002072	4.80952E-05	0	0	0	
0.2895	-0.0107422	0.00269084	0.000237896	4.3713E-05	0	0	0	
0.289667	-0.00566797	-0.00354868	0.000310246	5.42547E-05	0	0	0	
0.289833	0.0206228	0.000958125	0.000391658	6.31192E-05	0	0	0	
0.29	-0.0113732	0.00091814	0.00039676	5.6421E-05	0	0	0	
0.290167	-0.0070746	-0.00262233	0.000404865	5.04653E-05	0	0	0	
0.290333	0.0118458	0.00419845	0.000352251	5.03256E-05	0	0	0	
0.2905	-0.0100977	-0.00283498	0.000346467	5.97055E-05	0	0	0	
0.290667	0.00620809	-0.00109866	0.000236964	7.52717E-05	0	0	0	
0.290833	-0.00480603	0.00326664	0.000164483	9.0292E-05	0	0	0	
0.291	-0.000763189	-0.0039512	0.000123098	0.000107267	0	0	0	
0.291167	-0.00091401	0.00307935	9.99398E-05	0.000100286	0	0	0	
0.291333	0.00934947	-0.00125903	0.000138614	7.47405E-05	0	0	0	
0.2915	-0.0097962	-0.000611593	0.000183039	4.97581E-05	0	0	0	
0.291667	0.00204015	0.00149508	0.000194876	3.58831E-05	0	0	0	
0.291833	0.00515169	-0.0022905	0.000140084	3.45984E-05	0	0	0	
0.292	-0.00396178	0.00147979	9.50935E-05	3.54291E-05	0	0	0	
0.292167	0.000384691	7.16466E-05	0.000116491	3.25115E-05	0	0	0	
0.292333	0.000765903	0.000350111	0.000153771	2.52974E-05	0	0	0	
0.2925	-8.38034E-05	-0.000509962	0.000160201	1.99915E-05	0	0	0	
0.292667	-0.00104864	-0.000567619	0.000136801	2.121E-05	0	0	0	
0.292833	0.000877616	0.00089363	0.000100379	2.02662E-05	0	0	0	
0.293	-0.00263301	-0.000774583	7.08553E-05	1.82154E-05	0	0	0	
0.293167	0.00285491	0.0013437	5.70823E-05	1.59195E-05	0	0	0	
0.293333	-0.00246726	-0.000551155	7.5227E-05	2.08432E-05	0	0	0	
0.2935	0.00170677	-0.000911868	9.74975E-05	1.9074E-05	0	0	0	
0.293667	0.000197627	0.00120246	0.000102382	2.00679E-05	0	0	0	
0.293833	-0.00241839	-0.000174659	8.01018E-05	2.27455E-05	0	0	0	
0.294	-0.00625354	-0.000115968	7.82033E-05	2.86097E-05	0	0	0	
0.294167	0.0241127	-0.00141343	0.000157501	3.38291E-05	0	0	0	
0.294333	-0.0277283	0.00102199	0.000298735	4.3319E-05	0	0	0	
0.2945	0.0140298	-0.000747332	0.00041588	5.83751E-05	0	0	0	
0.294667	-0.00270961	0.00057162	0.000442024	5.70841E-05	0	0	0	
0.294833	-0.00366135	-0.00199844	0.000372775	4.52318E-05	0	0	0	
0.295	0.0032472	0.00255285	0.000249581	3.35468E-05	0	0	0	
0.295167	0.00737326	-0.00384739	0.000179263	4.36092E-05	0	0	0	
0.295333	-0.0172115	0.00478993	0.000230988	6.446E-05	0	0	0	
0.2955	0.018411	-0.00497608	0.00034494	8.53113E-05	0	0	0	
0.295667	-0.0134261	0.00256712	0.000368718	9.21113E-05	0	0	0	
0.295833	0.00391762	-0.000290489	0.000299925	7.66745E-05	0	0	0	
0.296	0.00119287	-0.000312681	0.000203113	4.52653E-05	0	0	0	
0.296167	0.00099891	-0.000699002	0.000124549	2.438E-05	0	0	0	
0.296333	-0.00590022	0.00225323	7.15355E-05	2.16629E-05	0	0	0	
0.2965	0.00779247	-0.0027802	7.40596E-05	3.54249E-05	0	0	0	
0.296667	-0.00518694	0.00228657	0.000112982	4.4084E-05	0	0	0	
0.296833	0.000187308	-0.00100885	0.000121688	4.38859E-05	0	0	0	
0.297	0.000822736	-0.000437882	8.7822E-05	3.38055E-05	0	0	0	
0.297167	0.00199114	0.00118363	5.31854E-05	2.42399E-05	0	0	0	
0.297333	-0.00470564	-0.000644004	5.3099E-05	2.0712E-05	0	0	0	
0.2975	0.00189398	0.000713271	6.46581E-05	1.81538E-05	0	0	0	
0.297667	0.00145273	-0.000730948	6.1943E-05	1.68804E-05	0	0	0	
0.297833	-0.00160233	5.57157E-05	4.80861E-05	1.39145E-05	0	0	0	
0.298	-0.000226105	-0.000498383	4.0598E-05	1.2284E-05	0	0	0	
0.298167	0.00429214	0.00101034	5.32471E-05	1.1855E-05	0	0	0	
0.298333	-0.00320743	-0.0015231	6.88255E-05	1.56805E-05	0	0	0	
0.2985	-0.00043235	0.00128662	6.83368E-05	2.17548E-05	0	0	0	
0.298667	0.00109824	-0.000633741	6.33592E-05	2.36791E-05	0	0	0	
0.298833	0.000994746	0.000476922	4.2923E-05	2.11958E-05	0	0	0	
0.299	-0.000887738	-0.000461612	5.07234E-05	2.03419E-05	0	0	0	
0.299167	0.00420696	0.000762913	6.31696E-05	2.02921E-05	0	0	0	
0.299333	-0.0044425	-0.00102587	8.46173E-05	2.05832E-05	0	0	0	
0.2995	0.002024	0.000827414	8.34961E-05	2.24797E-05	0	0	0	
0.299667	0.00212645	-0.000572215	6.29277E-05	2.49162E-05	0	0	0	
0.299833	-0.00210669	0.00036572	5.14504E-05	2.76058E-05	0	0	0	
0.3	1.61166E-06	0.000712863	4.20339E-05	2.90483E-05	0	0	0	
0.300167	0.00236033	-0.000572139	5.74713E-05	2.9749E-05	0	0	0	
0.300333	-0.00134618	0.000666553	5.50612E-05	2.71568E-05	0	0	0	
0.3005	0.000567977	-0.00109074	5.54665E-05	2.33623E-05	0	0	0	
0.300667	0.000378706	0.00163591	4.13314E-05	2.69239E-05	0	0	0	
0.300833	0.000319182	-0.00172167	4.05293E-05	3.64692E-05	0	0	0	
0.301	-0.00179716	0.00153215	6.60104E-05	4.60073E-05	0	0	0	
0.301167	0.000852657	-0.00052093	9.62737E-05	4.30744E-05	0	0	0	
0.301333	-0.00299321	4.10815E-05	0.000129481	3.01263E-05	0	0	0	
0.3015	0.0393062	-9.89602E-05	0.000289041	1.81421E-05	0	0	0	
0.301667	-0.0333471	0.000164288	0.000510178	1.29879E-05	0	0	0	
0.301833	-0.134084	-0.00104119	0.00153442	1.48066E-05	0	0	0	
0.302	0.418662	0.00201883	0.00274188	2.23878E-05	0	0	0	
0.302167	-0.357447	-0.00218516	0.00539282	3.00258E-05	0	0	0	
0.302333	-0.108289	0.00158616	0.00586058	3.91815E-05	0	0	0	
0.3025	0.140514	0.000258439	0.00537312	4.67856E-05	0	0	0	
0.302667	-0.0558233	-0.00139685	0.00304534	6.06187E-05	0	0	0	
0.302833	0.0337385	0.00209743	0.00176044	7.91321E-05	0	0	0	
0.303	0.0656029	-0.00147996	0.00165609	8.24605E-05	0	0	0	
0.303167	-0.293479	-0.000554234	0.00309394	6.66725E-05	0	0	0	
0.303333	0.109928	0.00501849	0.00482933	7.0076E-05	0	0	0	
0.3035	0.00872131	-0.00852254	0.00450495	9.18316E-05	0	0	0	
0.303667	-0.0569331	0.0102164	0.00342036	0.000137894	0	0	0	
0.303833	0.0206137	-0.00738945	0.00171292	0.000175784	0	0	0	
0.304	0.0179395	0.00120985	0.00144305	0.000212749	0	0	0	
0.304167	-0.0162499	0.00567978	0.000609479	0.000223962	0	0	0	
0.304333	-0.00941861	-0.00686532	0.000746685	0.000187497	0	0	0	
0.3045	0.017356	0.00232271	0.000788319	0.000150109	0	0	0	
0.304667	0.0068679	0.00548051	0.00082456	0.00015644	0	0	0	
0.304833	-0.0251939	-0.00968321	0.000545844	0.000189055	0	0	0	
0.305	-0.00542993	0.00886248	0.000467648	0.000199934	0	0	0	
0.305167	0.0432251	-0.00395298	0.000633073	0.000171461	0	0	0	
0.305333	-0.0496343	-0.00311106	0.00077017	0.000169238	0	0	0	
0.3055	0.0112459	0.00832028	0.000878034	0.000170091	0	0	0	
0.305667	0.0266721	-0.00666328	0.000890521	0.000166283	0	0	0	
0.305833	-0.0305712	-2.34641E-05	0.000770905	0.00016995	0	0	0	
0.306	-0.00064272	0.00475361	0.000712838	0.000190592	0	0	0	
0.306167	0.0603337	-0.00634299	0.000788839	0.000203959	0	0	0	
0.306333	-0.0853981	0.00365399	0.00103696	0.000161278	0	0	0	
0.3065	-0.0743972	0.00362525	0.00182174	0.000119968	0	0	0	
0.306667	0.359558	-0.00898147	0.00267362	0.000101549	0	0	0	
0.306833	-0.355935	0.00881346	0.00471833	0.000133307	0	0	0	
0.307	0.0661334	-0.00492905	0.00612532	0.000176439	0	0	0	
0.307167	0.101522	0.00150529	0.00633439	0.000224044	0	0	0	
0.307333	-0.0886749	0.00141665	0.00443301	0.000227989	0	0	0	
0.3075	0.0652518	-0.000385725	0.00249001	0.00017298	0	0	0	
0.307667	0.0418335	-0.00282835	0.00195013	9.92281E-05	0	0	0	
0.307833	-0.274229	0.00584109	0.00323779	6.54518E-05	0	0	0	
0.308	0.299197	-0.0058592	0.0048111	7.85875E-05	0	0	0	
0.308167	-0.122167	0.00462683	0.00506672	0.000100562	0	0	0	
0.308333	-0.0349209	-0.00249445	0.0042444	9.28532E-05	0	0	0	
0.3085	0.0506808	0.00186345	0.0024692	6.99801E-05	0	0	0	
0.308667	0.0143394	-0.00101775	0.00174429	4.53985E-05	0	0	0	
0.308833	-0.0436023	-8.23895E-05	0.000981347	3.06868E-05	0	0	0	
0.309	0.00933884	0.00114549	0.00104324	2.37158E-05	0	0	0	
0.309167	0.0367867	-0.00114315	0.00108509	2.27642E-05	0	0	0	
0.309333	-0.0290691	0.000714802	0.0010791	2.34999E-05	0	0	0	
0.3095	-0.000470784	-0.000237093	0.000846493	2.59063E-05	0	0	0	
0.309667	0.0081375	-0.000899416	0.000427358	2.75315E-05	0	0	0	
0.309833	0.00746026	0.000943744	0.000209567	2.44887E-05	0	0	0	
0.31	-0.0195862	-0.000535796	0.000184293	2.08174E-05	0	0	0	
0.310167	0.0198217	-0.000543301	0.000265832	1.53279E-05	0	0	0	
0.310333	-0.00613112	0.00128599	0.000442997	2.5544E-05	0	0	0	
0.3105	-0.00897744	-0.00167053	0.000544305	4.06858E-05	0	0	0	
0.310667	0.0128194	0.00227934	0.000471631	5.24467E-05	0	0	0	
0.310833	-0.00293938	-0.00355404	0.000327526	5.60747E-05	0	0	0	
0.311	-0.0106776	0.00280692	0.000206183	5.56257E-05	0	0	0	
0.311167	0.017425	-0.00130634	0.000217237	5.42234E-05	0	0	0	
0.311333	-0.0161202	0.00133253	0.000305475	4.32888E-05	0	0	0	
0.3115	0.0101524	-0.00274458	0.000375773	3.90847E-05	0	0	0	
0.311667	-0.00116274	0.00323585	0.000377246	5.14196E-05	0	0	0	
0.311833	-0.00539395	-0.00311197	0.000273749	7.07323E-05	0	0	0	
0.312	0.00241086	0.00243095	0.000180184	8.11564E-05	0	0	0	
0.312167	0.00723536	-0.00182976	0.000179883	7.68697E-05	0	0	0	
0.312333	-0.0151603	-0.000253549	0.000204733	5.87529E-05	0	0	0	
0.3125	0.0113834	0.0012467	0.0002541	3.87819E-05	0	0	0	
0.312667	-0.00202975	-0.000673432	0.000274304	2.63355E-05	0	0	0	
0.312833	-0.00106988	4.80343E-05	0.000284015	2.86266E-05	0	0	0	
0.313	-0.00170039	-7.48989E-05	0.00022282	2.54109E-05	0	0	0	
0.313167	0.00152743	0.000707507	0.000123276	2.48144E-05	0	0	0	
0.313333	0.000541885	-0.00179844	5.64353E-05	2.46339E-05	0	0	0	
0.3135	-0.000672882	0.00209994	4.83319E-05	3.31901E-05	0	0	0	
0.313667	-0.00157434	9.84965E-06	4.78783E-05	3.32634E-05	0	0	0	
0.313833	0.00989464	-0.00126488	7.87068E-05	2.88965E-05	0	0	0	
0.314	-0.0142451	0.00146748	0.000139165	2.68113E-05	0	0	0	
0.314167	0.00630169	-3.34089E-05	0.000188251	3.87917E-05	0	0	0	
0.314333	0.00420434	-0.000951844	0.000200279	5.65721E-05	0	0	0	
0.3145	-0.00788167	0.00238284	0.000166628	6.3938E-05	0	0	0	
0.314667	0.000258767	-0.00134295	0.000140604	5.50341E-05	0	0	0	
0.314833	0.00442948	-9.01183E-05	9.83023E-05	3.88654E-05	0	0	0	
0.315	-0.0049478	0.00181248	8.61727E-05	3.48751E-05	0	0	0	
0.315167	0.00141231	-0.00278821	7.0962E-05	3.87092E-05	0	0	0	
0.315333	-0.00286931	0.00273243	8.67947E-05	4.57367E-05	0	0	0	
0.3155	0.00361757	-0.00115146	0.00011744	5.59844E-05	0	0	0	
0.315667	-0.00522092	-0.00117219	0.000158605	6.02169E-05	0	0	0	
0.315833	0.00996208	0.00203608	0.000192327	5.53704E-05	0	0	0	
0.316	-0.0110928	-0.00305705	0.000191473	4.71693E-05	0	0	0	
0.316167	0.0103724	0.00241388	0.000196433	4.54569E-05	0	0	0	
0.316333	-0.0105125	-0.00215495	0.000208397	5.29579E-05	0	0	0	
0.3165	0.00581418	0.000607148	0.000229773	5.34094E-05	0	0	0	
0.316667	0.00251258	-0.000885986	0.000213416	4.73224E-05	0	0	0	
0.316833	-0.00247354	0.000751074	0.000151967	3.63618E-05	0	0	0	
0.317	0.00203778	-0.000822798	8.65987E-05	2.4905E-05	0	0	0	
0.317167	0.0016103	0.000302753	6.04217E-05	1.9155E-05	0	0	0	
0.317333	-0.00855554	-0.000596148	8.69198E-05	1.90542E-05	0	0	0	
0.3175	0.0116652	0.00136406	0.000130068	2.68158E-05	0	0	0	
0.317667	-0.00258971	-0.00231445	0.000155066	3.46526E-05	0	0	0	
0.317833	-0.00737682	0.00159887	0.000195045	3.97122E-05	0	0	0	
0.318	0.0101184	-0.000590728	0.000202907	3.64911E-05	0	0	0	
0.318167	-0.00462589	-0.000935285	0.000199564	3.66922E-05	0	0	0	
0.318333	-0.00200779	0.00143531	0.000133205	3.84033E-05	0	0	0	
0.3185	0.0036981	-0.00124604	8.03395E-05	4.18855E-05	0	0	0	
0.318667	-0.00170362	0.000177621	5.62554E-05	3.71185E-05	0	0	0	
0.318833	-0.00391104	-0.000326444	5.56248E-05	2.6022E-05	0	0	0	
0.319	0.00565616	0.000159832	7.69557E-05	1.75227E-05	0	0	0	
