0	-0.000948656	-0.0031884	9.48656E-08	3.1884E-07	0	0	0	
0.000166667	0.00937266	0.0184516	4.29858E-05	6.0916E-05	0	0	0	
0.000333333	-0.0155325	-0.0244939	0.000128478	0.000197584	0	0	0	
0.0005	0.0145956	0.0238631	0.0002141	0.000344964	0	0	0	
0.000666667	-0.0166877	-0.0237166	0.00027217	0.000434383	0	0	0	
0.000833333	0.0137456	0.0239252	0.000283805	0.000456992	0	0	0	
0.001	-0.0106716	-0.0208599	0.000270497	0.000458516	0	0	0	
0.00116667	0.0108212	0.0220007	0.000236835	0.000445061	0	0	0	
0.00133333	-0.0115172	-0.0262186	0.000233328	0.000457607	0	0	0	
0.0015	0.0116035	0.0277305	0.000266972	0.000514149	0	0	0	
0.00166667	-0.0165211	-0.0348677	0.000306005	0.000581873	0	0	0	
0.00183333	0.0147701	0.0355995	0.00033418	0.000651066	0	0	0	
0.002	-0.0119262	-0.0332551	0.000331961	0.000691376	0	0	0	
0.00216667	0.0150247	0.0300579	0.000327592	0.000700764	0	0	0	
0.00233333	-0.0185223	-0.0362197	0.000331625	0.000696488	0	0	0	
0.0025	0.0172515	0.0307847	0.00036623	0.000677302	0	0	0	
0.00266667	-0.017769	-0.0377242	0.00039075	0.000689371	0	0	0	
0.00283333	0.0180759	0.0408894	0.000398637	0.000711264	0	0	0	
0.003	-0.0165429	-0.0376369	0.000388732	0.000779543	0	0	0	
0.00316667	0.0176357	0.0290613	0.00038739	0.00078102	0	0	0	
0.00333333	-0.0216506	-0.0363166	0.000390294	0.000744873	0	0	0	
0.0035	0.017689	0.0357939	0.000405887	0.000671674	0	0	0	
0.00366667	-0.015166	-0.0404214	0.000401599	0.000707655	0	0	0	
0.00383333	0.0183903	0.0347441	0.000390181	0.000747068	0	0	0	
0.004	-0.0249829	-0.0299206	0.00039461	0.00078805	0	0	0	
0.00416667	0.0240732	0.032058	0.000439667	0.00073772	0	0	0	
0.00433333	-0.0230908	-0.0423085	0.000464865	0.000710958	0	0	0	
0.0045	0.0191027	0.0388277	0.000466161	0.000722669	0	0	0	
0.00466667	-0.016993	-0.0307158	0.00043655	0.000730009	0	0	0	
0.00483333	0.0213077	0.0258329	0.000415012	0.000686558	0	0	0	
0.005	-0.0230835	-0.0234584	0.000420172	0.000548349	0	0	0	
0.00516667	0.0196909	0.0310455	0.000449598	0.000524643	0	0	0	
0.00533333	-0.0167099	-0.0359648	0.000443936	0.0005675	0	0	0	
0.0055	0.0138978	0.0402447	0.000411215	0.000702191	0	0	0	
0.00566667	-0.0157239	-0.0386388	0.000376437	0.000769566	0	0	0	
0.00583333	0.018521	0.0419543	0.000383219	0.000807836	0	0	0	
0.006	-0.0188295	-0.0409925	0.00040527	0.000787579	0	0	0	
0.00616667	0.0183311	0.041084	0.000432694	0.000818116	0	0	0	
0.00633333	-0.0204862	-0.0344073	0.000440695	0.000791826	0	0	0	
0.0065	0.0183403	0.0346267	0.000439955	0.000776911	0	0	0	
0.00666667	-0.0191496	-0.0376396	0.000428546	0.000746539	0	0	0	
0.00683333	0.0168743	0.0413246	0.000432765	0.000758126	0	0	0	
0.007	-0.0197787	-0.0256394	0.000417924	0.000727379	0	0	0	
0.00716667	0.018191	-0.00795671	0.000407944	0.00055786	0	0	0	
0.00733333	-0.0159999	0.0135451	0.000402443	0.000487765	0	0	0	
0.0075	0.013166	0.00320609	0.000383739	0.000424671	0	0	0	
0.00766667	-0.0100206	-0.0135686	0.000349651	0.000401277	0	0	0	
0.00783333	0.0140654	0.0263903	0.000317994	0.000416162	0	0	0	
0.008	-0.0198048	-0.0287575	0.000337535	0.000576375	0	0	0	
0.00816667	0.016603	0.0362241	0.000357693	0.000760087	0	0	0	
0.00833333	-0.0143235	-0.0618002	0.000370767	0.000812262	0	0	0	
0.0085	0.0142055	0.0775415	0.000351632	0.00103826	0	0	0	
0.00866667	-0.0173573	-0.0582758	0.000358044	0.00120419	0	0	0	
0.00883333	0.0208424	0.0404801	0.000380648	0.00128442	0	0	0	
0.009	-0.0192508	-0.0222273	0.000417302	0.000934706	0	0	0	
0.00916667	0.0202474	0.0178024	0.000412725	0.000636839	0	0	0	
0.00933333	-0.0172776	-0.0177406	0.000403347	0.00041575	0	0	0	
0.0095	0.0169171	0.0203393	0.000384385	0.000380106	0	0	0	
0.00966667	-0.0141543	-0.0197866	0.0003949	0.000448266	0	0	0	
0.00983333	0.0144984	0.0283449	0.000390803	0.00056574	0	0	0	
0.01	-0.0141942	-0.0418109	0.000376218	0.000715413	0	0	0	
0.0101667	0.0159346	0.0485166	0.000361381	0.000845142	0	0	0	
0.0103333	-0.0186299	-0.0461641	0.000373872	0.000925528	0	0	0	
0.0105	0.0169085	0.0357955	0.000394736	0.000898466	0	0	0	
0.0106667	-0.0148283	-0.0318404	0.000397102	0.000808699	0	0	0	
0.0108333	0.0151591	0.0324263	0.000371925	0.000705894	0	0	0	
0.011	-0.0154748	-0.0283412	0.000351068	0.000671757	0	0	0	
0.0111667	0.0124283	0.0310425	0.000331653	0.000665634	0	0	0	
0.0113333	-0.0144128	-0.0379097	0.000323953	0.000728056	0	0	0	
0.0115	0.0170399	0.038145	0.00034589	0.000770847	0	0	0	
0.0116667	-0.0154771	-0.0371837	0.000377065	0.000806926	0	0	0	
0.0118333	0.015494	0.0393915	0.000387439	0.00077924	0	0	0	
0.012	-0.0154118	-0.0375078	0.000373726	0.000774863	0	0	0	
0.0121667	0.0146982	0.03612	0.000364224	0.000767754	0	0	0	
0.0123333	-0.0165489	-0.0331808	0.000359939	0.000768656	0	0	0	
0.0125	0.0160185	0.0351576	0.000363755	0.000723611	0	0	0	
0.0126667	-0.0145329	-0.0341745	0.000360985	0.000717306	0	0	0	
0.0128333	0.0152012	0.0353708	0.000364552	0.000720931	0	0	0	
0.013	-0.020311	-0.032529	0.000381813	0.000760438	0	0	0	
0.0131667	0.0177789	0.0324274	0.00039365	0.000740271	0	0	0	
0.0133333	-0.0167185	-0.0405443	0.000356735	0.000702452	0	0	0	
0.0135	0.0102864	0.0409553	0.000327616	0.000712346	0	0	0	
0.0136667	-0.0115288	-0.032974	0.000297732	0.000754112	0	0	0	
0.0138333	0.013474	0.0400555	0.000342397	0.000860807	0	0	0	
0.014	-0.0136789	-0.0530358	0.00035681	0.000958546	0	0	0	
0.0141667	0.0190978	0.0600652	0.000382053	0.0010525	0	0	0	
0.0143333	-0.0249741	-0.0562396	0.000410545	0.00110435	0	0	0	
0.0145	0.0224676	0.0372017	0.000470769	0.00104467	0	0	0	
0.0146667	-0.0146203	-0.0224322	0.000458425	0.000906235	0	0	0	
0.0148333	0.0134531	0.0119928	0.00041126	0.000713329	0	0	0	
0.015	-0.0135729	-0.00693879	0.000321146	0.000616306	0	0	0	
0.0151667	0.0205787	0.0221496	0.000326357	0.00069525	0	0	0	
0.0153333	-0.0188513	-0.0395225	0.000361735	0.00085656	0	0	0	
0.0155	0.0158496	0.0387821	0.000387051	0.000953558	0	0	0	
0.0156667	-0.0118511	-0.034133	0.000372533	0.0009047	0	0	0	
0.0158333	0.0165169	0.0278012	0.000351065	0.000764838	0	0	0	
0.016	-0.0168976	-0.0329797	0.000369157	0.000646679	0	0	0	
0.0161667	0.0178672	0.03517	0.000395331	0.000623678	0	0	0	
0.0163333	-0.0158752	-0.037147	0.000399153	0.000652953	0	0	0	
0.0165	0.0167235	0.0290673	0.000386088	0.000692393	0	0	0	
0.0166667	-0.0164683	-0.0277465	0.000387657	0.00063752	0	0	0	
0.0168333	0.0177342	0.0289683	0.000389161	0.000605098	0	0	0	
0.017	-0.0159243	-0.0330722	0.000386717	0.000597025	0	0	0	
0.0171667	0.0154292	0.0311712	0.000368469	0.000680364	0	0	0	
0.0173333	-0.0151651	-0.0301734	0.000366236	0.000713554	0	0	0	
0.0175	0.0184075	0.0300064	0.000370789	0.000708893	0	0	0	
0.0176667	-0.0167938	-0.0364015	0.000393314	0.000681375	0	0	0	
0.0178333	0.0162759	0.0328137	0.000406962	0.000730008	0	0	0	
0.018	-0.0178654	-0.0339899	0.000407603	0.000758561	0	0	0	
0.0181667	0.0166774	0.0360371	0.000405725	0.000774911	0	0	0	
0.0183333	-0.0126803	-0.0346084	0.000389722	0.000730216	0	0	0	
0.0185	0.0147557	0.0356446	0.000368017	0.000721296	0	0	0	
0.0186667	-0.0162287	-0.0375222	0.000344846	0.000730294	0	0	0	
0.0188333	0.0133827	0.0314864	0.000352647	0.000751797	0	0	0	
0.019	-0.0168549	-0.0298246	0.000369395	0.000722144	0	0	0	
0.0191667	0.0193384	0.0298937	0.000398752	0.000681482	0	0	0	
0.0193333	-0.0172094	-0.0330696	0.000400899	0.000653268	0	0	0	
0.0195	0.0168837	0.031009	0.00039525	0.000685945	0	0	0	
0.0196667	-0.0165351	-0.0312009	0.000377387	0.000687656	0	0	0	
0.0198333	0.0169579	0.0308943	0.000379106	0.000692495	0	0	0	
0.02	-0.0153466	-0.033235	0.000379085	0.00068461	0	0	0	
0.0201667	0.0147713	0.0312836	0.000376692	0.000702315	0	0	0	
0.0203333	-0.0136156	-0.0324618	0.000366704	0.000699239	0	0	0	
0.0205	0.0152369	0.0283284	0.000384518	0.000688353	0	0	0	
0.0206667	-0.0150384	-0.033341	0.000394213	0.000672301	0	0	0	
0.0208333	0.0155	0.0364081	0.000389176	0.000699188	0	0	0	
0.021	-0.013777	-0.0383171	0.000373	0.000741791	0	0	0	
0.0211667	0.0170293	0.0323226	0.000377775	0.000768983	0	0	0	
0.0213333	-0.0156341	-0.0340814	0.000397566	0.000732804	0	0	0	
0.0215	0.0158761	0.0305004	0.000407592	0.000672574	0	0	0	
0.0216667	-0.0161372	-0.0322327	0.000396122	0.000638685	0	0	0	
0.0218333	0.0157881	0.0242392	0.000379632	0.000618143	0	0	0	
0.022	-0.0155216	-0.0264918	0.000356073	0.000604045	0	0	0	
0.0221667	0.0109209	0.0275778	0.000335485	0.000621964	0	0	0	
0.0223333	-0.0129884	-0.0314091	0.000330684	0.000661864	0	0	0	
0.0225	0.0165459	0.0306462	0.000362325	0.000719768	0	0	0	
0.0226667	-0.015806	-0.030877	0.000402256	0.00073706	0	0	0	
0.0228333	0.0173476	0.031447	0.000421959	0.000770029	0	0	0	
0.023	-0.0190765	-0.0440741	0.000407024	0.000809025	0	0	0	
0.0231667	0.0117933	0.041404	0.000374272	0.000869415	0	0	0	
0.0233333	-0.0113774	-0.0347091	0.000315806	0.000844904	0	0	0	
0.0235	0.0133589	0.0291901	0.000313582	0.000777084	0	0	0	
0.0236667	-0.0130966	-0.0179392	0.00033175	0.00061958	0	0	0	
0.0238333	0.0146962	0.016572	0.000369347	0.000482371	0	0	0	
0.024	-0.0174235	-0.0252627	0.000364659	0.000418045	0	0	0	
0.0241667	0.0165661	0.025769	0.000359747	0.000498815	0	0	0	
0.0243333	-0.017093	-0.0259414	0.000352939	0.000622019	0	0	0	
0.0245	0.0145031	0.0304017	0.000364413	0.000678879	0	0	0	
0.0246667	-0.0187669	-0.0349324	0.000344367	0.000669179	0	0	0	
0.0248333	0.0148995	0.0401052	0.000357208	0.000684768	0	0	0	
0.025	-0.0157698	-0.0438042	0.000329303	0.000770352	0	0	0	
0.0251667	0.0140945	0.039323	0.000342775	0.000838882	0	0	0	
0.0253333	-0.0133824	-0.03504	0.000339647	0.000832931	0	0	0	
0.0255	0.0145824	0.0342091	0.000355734	0.00075609	0	0	0	
0.0256667	-0.018591	-0.0291332	0.000358468	0.00067875	0	0	0	
0.0258333	0.018967	0.031973	0.000392836	0.000663492	0	0	0	
0.026	-0.0186702	-0.0308942	0.000409743	0.00070125	0	0	0	
0.0261667	0.0142429	0.0348075	0.000413738	0.000740538	0	0	0	
0.0263333	-0.0117649	-0.0289796	0.000371654	0.000741691	0	0	0	
0.0265	0.0150414	0.025495	0.000341184	0.00066837	0	0	0	
0.0266667	-0.0150168	-0.0247407	0.000331196	0.000610697	0	0	0	
0.0268333	0.0141208	0.0383163	0.000334232	0.000641606	0	0	0	
0.027	-0.0132406	-0.0387325	0.000343869	0.000752787	0	0	0	
0.0271667	0.0168967	0.0385773	0.000354707	0.000814396	0	0	0	
0.0273333	-0.0171155	-0.0351283	0.00036988	0.00080022	0	0	0	
0.0275	0.0161998	0.0380367	0.000374526	0.000735199	0	0	0	
0.0276667	-0.0178276	-0.0262206	0.000384466	0.000678225	0	0	0	
0.0278333	0.0167232	0.0252429	0.000390682	0.000610154	0	0	0	
0.028	-0.0144553	-0.0254776	0.000388869	0.000570431	0	0	0	
0.0281667	0.0146538	0.0327667	0.000359253	0.000613284	0	0	0	
0.0283333	-0.0158165	-0.0303581	0.000348639	0.000700777	0	0	0	
0.0285	0.0171273	0.0277753	0.000372701	0.00073109	0	0	0	
0.0286667	-0.0171481	-0.0272388	0.000407328	0.000692074	0	0	0	
0.0288333	0.0154803	0.0381514	0.00040542	0.000665431	0	0	0	
0.029	-0.016158	-0.0365752	0.000380508	0.000738251	0	0	0	
0.0291667	0.0140253	0.0375964	0.00035742	0.000817711	0	0	0	
0.0293333	-0.0131731	-0.0246799	0.00036725	0.000806637	0	0	0	
0.0295	0.0159269	0.0297761	0.000388439	0.000689236	0	0	0	
0.0296667	-0.0141703	-0.0348923	0.000403343	0.000617175	0	0	0	
0.0298333	0.0171945	0.0336485	0.000392384	0.000650197	0	0	0	
0.03	-0.0169813	-0.031916	0.000391166	0.000730032	0	0	0	
0.0301667	0.0147754	0.0265525	0.000384557	0.00074853	0	0	0	
0.0303333	-0.0154022	-0.0312494	0.000381279	0.000698233	0	0	0	
0.0305	0.0151601	0.0340411	0.000361817	0.000668741	0	0	0	
0.0306667	-0.0133473	-0.0336026	0.000356214	0.000677149	0	0	0	
0.0308333	0.0148832	0.02865	0.000364846	0.000707049	0	0	0	
0.031	-0.0151134	-0.0311731	0.000373866	0.000707225	0	0	0	
0.0311667	0.0174308	0.0260655	0.000376304	0.00069882	0	0	0	
0.0313333	-0.0139581	-0.0383287	0.000375487	0.000702485	0	0	0	
0.0315	0.011827	0.031735	0.000371592	0.000729572	0	0	0	
0.0316667	-0.0147506	-0.038705	0.000353335	0.000752339	0	0	0	
0.0318333	0.0141852	0.0289116	0.000357457	0.000769328	0	0	0	
0.032	-0.0167754	-0.0377188	0.000357606	0.000741286	0	0	0	
0.0321667	0.0156646	0.028925	0.000380985	0.000731743	0	0	0	
0.0323333	-0.0144937	-0.03879	0.000376886	0.000725535	0	0	0	
0.0325	0.015133	0.029356	0.000382208	0.000751821	0	0	0	
0.0326667	-0.0183015	-0.0341916	0.000375376	0.000734134	0	0	0	
0.0328333	0.0172921	0.0279627	0.00040426	0.000710902	0	0	0	
0.033	-0.0160773	-0.0340354	0.000414365	0.000662246	0	0	0	
0.0331667	0.0133779	0.0272417	0.000417106	0.000688378	0	0	0	
0.0333333	-0.0142619	-0.0306213	0.000375588	0.000685509	0	0	0	
0.0335	0.015254	0.0287848	0.000361274	0.000711608	0	0	0	
0.0336667	-0.0152875	-0.0328002	0.00035789	0.000675407	0	0	0	
0.0338333	0.014265	0.0352408	0.000377386	0.000698076	0	0	0	
0.034	-0.0131775	-0.0309629	0.000373765	0.000719023	0	0	0	
0.0341667	0.0127834	0.0305953	0.00037378	0.000741399	0	0	0	
0.0343333	-0.0147647	-0.0274835	0.000364912	0.000706458	0	0	0	
0.0345	0.0167013	0.0350441	0.000377178	0.000684216	0	0	0	
0.0346667	-0.0164012	-0.0370681	0.000387802	0.000703538	0	0	0	
0.0348333	0.0166047	0.0354541	0.000401593	0.000761746	0	0	0	
0.035	-0.0176894	-0.0292515	0.000399151	0.000785805	0	0	0	
0.0351667	0.014795	0.0301428	0.000400192	0.000743587	0	0	0	
0.0353333	-0.0140354	-0.0274517	0.000385279	0.000697307	0	0	0	
0.0355	0.0131985	0.032638	0.000360607	0.000663933	0	0	0	
0.0356667	-0.0161274	-0.0279913	0.000339183	0.00068851	0	0	0	
0.0358333	0.0157954	0.0277187	0.000354942	0.000701507	0	0	0	
0.036	-0.0165275	-0.0282887	0.000392097	0.000712995	0	0	0	
0.0361667	0.0173589	0.0298479	0.000424387	0.000699228	0	0	0	
0.0363333	-0.0169052	-0.0313797	0.000429735	0.000685296	0	0	0	
0.0365	0.0173442	0.0311424	0.000422051	0.000673798	0	0	0	
0.0366667	-0.0184182	-0.0245036	0.0004138	0.000667853	0	0	0	
0.0368333	0.0137686	0.0292266	0.000408414	0.000656617	0	0	0	
0.037	-0.00937653	-0.0319162	0.000395756	0.000649602	0	0	0	
0.0371667	0.0114032	0.0338539	0.00038335	0.000658018	0	0	0	
0.0373333	-0.0166836	-0.032001	0.000399353	0.0006601	0	0	0	
0.0375	0.0136617	0.0273051	0.000432626	0.000678334	0	0	0	
0.0376667	-0.0137527	-0.0291223	0.000434423	0.000655732	0	0	0	
0.0378333	0.0149345	0.0340195	0.00042427	0.000681067	0	0	0	
0.038	-0.0162076	-0.038008	0.000412757	0.000708228	0	0	0	
0.0381667	0.013085	0.0471791	0.000396876	0.000795113	0	0	0	
0.0383333	-0.0128726	-0.0356071	0.000359786	0.000837321	0	0	0	
0.0385	0.0116787	0.0328008	0.000356127	0.000795643	0	0	0	
0.0386667	-0.0179167	-0.0264487	0.000387173	0.000716394	0	0	0	
0.0388333	0.0144179	0.0288632	0.000414234	0.00065408	0	0	0	
0.039	-0.0114656	-0.0389052	0.000386959	0.000673363	0	0	0	
0.0391667	0.0117401	0.0396182	0.000377225	0.000717603	0	0	0	
0.0393333	-0.0163348	-0.0077924	0.000374685	0.000642744	0	0	0	
0.0395	0.013332	0.00528596	0.000398839	0.000441614	0	0	0	
0.0396667	-0.0170502	-0.00288049	0.000393292	0.000305518	0	0	0	
0.0398333	0.0162039	0.0206101	0.000419888	0.000423841	0	0	0	
0.04	-0.0177458	-0.0255909	0.000409627	0.000800334	0	0	0	
0.0401667	0.0134792	0.0376729	0.000413983	0.00112063	0	0	0	
0.0403333	-0.0146327	-0.0455211	0.000384719	0.0012034	0	0	0	
0.0405	0.0154501	0.0585498	0.00038494	0.00110285	0	0	0	
0.0406667	-0.0163126	-0.0415398	0.000381473	0.000980395	0	0	0	
0.0408333	0.0157426	0.0209872	0.000397771	0.000837219	0	0	0	
0.041	-0.0130724	0.000106605	0.000392919	0.00062325	0	0	0	
0.0411667	0.012025	0.000306127	0.00039699	0.000371033	0	0	0	
0.0413333	-0.0152404	-0.0142978	0.000395138	0.000239936	0	0	0	
0.0415	0.0157681	0.0163112	0.000414071	0.000301356	0	0	0	
0.0416667	-0.0171626	-0.0185227	0.000418565	0.000446929	0	0	0	
0.0418333	0.0162073	0.0243166	0.000409053	0.000622173	0	0	0	
0.042	-0.016142	-0.031738	0.000403279	0.000725618	0	0	0	
0.0421667	0.0152295	0.0310471	0.000395066	0.000780231	0	0	0	
0.0423333	-0.0120155	-0.0335873	0.000389928	0.000781587	0	0	0	
0.0425	0.0144535	0.0308452	0.000380522	0.000768145	0	0	0	
0.0426667	-0.0166592	-0.0336296	0.000391923	0.00072912	0	0	0	
0.0428333	0.0161375	0.0394145	0.000391251	0.000739242	0	0	0	
0.043	-0.0161934	-0.0392694	0.000392481	0.000744542	0	0	0	
0.0431667	0.0160753	0.0327478	0.000392958	0.000751546	0	0	0	
0.0433333	-0.0144924	-0.0222506	0.000403354	0.000660593	0	0	0	
0.0435	0.0158968	0.0249123	0.000401572	0.000580185	0	0	0	
0.0436667	-0.0129834	-0.0289887	0.000390125	0.000569616	0	0	0	
0.0438333	0.0146559	0.0338022	0.000378873	0.000664878	0	0	0	
0.044	-0.0151697	-0.0388598	0.000376017	0.000775883	0	0	0	
0.0441667	0.0133422	0.0421131	0.000381579	0.000853614	0	0	0	
0.0443333	-0.0141464	-0.0383875	0.000404419	0.000866267	0	0	0	
0.0445	0.0169544	0.0365575	0.000436082	0.000839219	0	0	0	
0.0446667	-0.0146674	-0.0282361	0.000443719	0.000774318	0	0	0	
0.0448333	0.012905	0.0305532	0.000413597	0.000713258	0	0	0	
0.045	-0.013423	-0.0344318	0.000372614	0.000688493	0	0	0	
0.0451667	0.0144186	0.0343983	0.000357574	0.000716315	0	0	0	
0.0453333	-0.0143504	-0.0308562	0.000367283	0.000748567	0	0	0	
0.0455	0.0148711	0.025618	0.00038778	0.000741938	0	0	0	
0.0456667	-0.0128314	-0.0249418	0.000390556	0.000685449	0	0	0	
0.0458333	0.0143029	0.035163	0.000384228	0.000659838	0	0	0	
0.046	-0.0139638	-0.035216	0.0003745	0.000709689	0	0	0	
0.0461667	0.0145807	0.0294681	0.000374891	0.000763764	0	0	0	
0.0463333	-0.0150326	-0.0333669	0.000376597	0.000779183	0	0	0	
0.0465	0.0137043	0.0318908	0.000377888	0.000754998	0	0	0	
0.0466667	-0.0118469	-0.0330679	0.000360147	0.000718486	0	0	0	
0.0468333	0.0137299	0.0327463	0.000347756	0.000730272	0	0	0	
0.047	-0.0123467	-0.0273297	0.000346113	0.000715972	0	0	0	
0.0471667	0.0136192	0.0279781	0.000351365	0.000701233	0	0	0	
0.0473333	-0.0128587	-0.0354573	0.000363342	0.000690967	0	0	0	
0.0475	0.0149941	0.0325555	0.000362589	0.000735439	0	0	0	
0.0476667	-0.015936	-0.0290972	0.000368893	0.000774914	0	0	0	
0.0478333	0.0167084	0.030201	0.000376507	0.000787422	0	0	0	
0.048	-0.0152403	-0.0281846	0.000385772	0.000728103	0	0	0	
0.0481667	0.0159402	0.0337604	0.000387972	0.000714776	0	0	0	
0.0483333	-0.0129363	-0.0289223	0.000388794	0.000723457	0	0	0	
0.0485	0.0152407	0.0338557	0.00038192	0.00074812	0	0	0	
0.0486667	-0.0149689	-0.0299317	0.000389139	0.000756135	0	0	0	
0.0488333	0.017345	0.0368325	0.000399785	0.000749842	0	0	0	
0.049	-0.0159836	-0.0289352	0.000421081	0.000748357	0	0	0	
0.0491667	0.0144168	0.0296391	0.000420948	0.000730572	0	0	0	
0.0493333	-0.0135721	-0.0243869	0.000408216	0.000693508	0	0	0	
0.0495	0.0150504	0.0311758	0.000387672	0.000648084	0	0	0	
0.0496667	-0.0148038	-0.0297132	0.000390885	0.000672076	0	0	0	
0.0498333	0.0152453	0.0347667	0.000393833	0.000691484	0	0	0	
0.05	-0.0112333	-0.0262074	0.000386856	0.000751537	0	0	0	
0.0501667	0.0108863	0.0341594	0.000361396	0.000729432	0	0	0	
0.0503333	-0.0139855	-0.0328838	0.000344527	0.000754488	0	0	0	
0.0505	0.0146525	0.0338614	0.000354292	0.000747902	0	0	0	
0.0506667	-0.0157589	-0.0329951	0.000376238	0.000779356	0	0	0	
0.0508333	0.0154535	0.0306133	0.000395605	0.000756732	0	0	0	
0.051	-0.0157485	-0.030946	0.000406662	0.000756438	0	0	0	
0.0511667	0.0134475	0.03194	0.000402152	0.000730872	0	0	0	
0.0513333	-0.0156478	-0.0306592	0.000378061	0.000743745	0	0	0	
0.0515	0.0143477	0.0311684	0.000365841	0.00073328	0	0	0	
0.0516667	-0.0133581	-0.0277869	0.000368144	0.000735506	0	0	0	
0.0518333	0.0133666	0.0286884	0.000387739	0.000709036	0	0	0	
0.052	-0.0130953	-0.0329961	0.000392492	0.000697856	0	0	0	
0.0521667	0.0112277	0.0291058	0.000387621	0.000717581	0	0	0	
0.0523333	-0.0148015	-0.0349671	0.000370193	0.000732644	0	0	0	
0.0525	0.0158468	0.0313206	0.000374213	0.000770555	0	0	0	
0.0526667	-0.0132505	-0.0342129	0.000377072	0.000757645	0	0	0	
0.0528333	0.0145021	0.0327034	0.000378713	0.000783903	0	0	0	
0.053	-0.0158439	-0.0320827	0.000370371	0.000758664	0	0	0	
0.0531667	0.0139051	0.0308786	0.000376482	0.000775216	0	0	0	
0.0533333	-0.013219	-0.0346299	0.000374361	0.000755676	0	0	0	
0.0535	0.0136182	0.0296101	0.000366001	0.000783006	0	0	0	
0.0536667	-0.0142138	-0.034265	0.000373948	0.000744525	0	0	0	
0.0538333	0.0155084	0.0325902	0.000403869	0.00076644	0	0	0	
0.054	-0.0130645	-0.0356373	0.000414002	0.00072316	0	0	0	
0.0541667	0.0143541	0.039814	0.000403502	0.000770928	0	0	0	
0.0543333	-0.0118391	-0.0356131	0.000376613	0.000782172	0	0	0	
0.0545	0.00422698	0.0330459	0.000343795	0.000807358	0	0	0	
0.0546667	-0.000174412	-0.0374624	0.000325068	0.000782286	0	0	0	
0.0548333	0.0135583	0.0328269	0.000383267	0.000785825	0	0	0	
0.055	-0.0190007	-0.03752	0.000469203	0.000788622	0	0	0	
0.0551667	0.0228489	0.0341025	0.000516527	0.000834869	0	0	0	
0.0553333	-0.0168893	-0.0286807	0.00048204	0.000819866	0	0	0	
0.0555	0.0133904	0.0313606	0.00043061	0.000801451	0	0	0	
0.0556667	-0.00729038	-0.0336903	0.000353231	0.000751703	0	0	0	
0.0558333	0.0102021	0.0146978	0.000291514	0.000679826	0	0	0	
0.056	-0.00960297	-0.0161305	0.000282658	0.000611203	0	0	0	
0.0561667	0.0111367	0.00509542	0.000325167	0.000669928	0	0	0	
0.0563333	-0.0123345	-0.0306492	0.000361822	0.000810072	0	0	0	
0.0565	0.0142163	0.0445518	0.000374582	0.000978862	0	0	0	
0.0566667	-0.0132077	-0.0541954	0.000375203	0.00103376	0	0	0	
0.0568333	0.0115238	0.0410434	0.000385891	0.00101914	0	0	0	
0.057	-0.0145926	-0.0332887	0.000387946	0.00089768	0	0	0	
0.0571667	0.0113296	0.00840514	0.000405125	0.000660369	0	0	0	
0.0573333	-0.0147555	-0.0139897	0.000392841	0.00043212	0	0	0	
0.0575	0.0131315	0.0102129	0.000396202	0.000357571	0	0	0	
0.0576667	-0.0121385	-0.0181722	0.000405912	0.000490467	0	0	0	
0.0578333	0.0168139	0.0197731	0.000447018	0.000685105	0	0	0	
0.058	-0.0164296	-0.0287415	0.000454399	0.000796112	0	0	0	
0.0581667	0.0115857	0.035378	0.000421103	0.000821586	0	0	0	
0.0583333	-0.0115929	-0.0438972	0.000362085	0.000858287	0	0	0	
0.0585	0.00745394	0.037671	0.000303108	0.000940222	0	0	0	
0.0586667	-0.00851207	-0.028773	0.00027997	0.000911718	0	0	0	
0.0588333	0.0130107	0.0242562	0.000310882	0.000772728	0	0	0	
0.059	-0.0147873	-0.0290386	0.00036687	0.000623961	0	0	0	
0.0591667	0.0147453	0.0344535	0.00040921	0.000624569	0	0	0	
0.0593333	-0.0140703	-0.0393738	0.000419742	0.000725461	0	0	0	
0.0595	0.0147756	0.0360603	0.000425987	0.00080954	0	0	0	
0.0596667	-0.0170257	-0.0294861	0.000428261	0.000766526	0	0	0	
0.0598333	0.0152098	0.0265963	0.000426291	0.000685736	0	0	0	
0.06	-0.0128648	-0.0281828	0.000407744	0.000627822	0	0	0	
0.0601667	0.0132804	0.0245071	0.000406945	0.000673869	0	0	0	
0.0603333	-0.0152595	-0.0286745	0.000415568	0.000733633	0	0	0	
0.0605	0.0094874	0.0346569	0.000412835	0.000822289	0	0	0	
0.0606667	-0.0110848	-0.0401796	0.000398309	0.000868612	0	0	0	
0.0608333	0.0158516	0.0395828	0.00040517	0.000892906	0	0	0	
0.061	-0.0141374	-0.036507	0.000427207	0.000854737	0	0	0	
0.0611667	0.0137491	0.0281304	0.000418002	0.000807012	0	0	0	
0.0613333	-0.0147253	-0.0280055	0.000396085	0.000739475	0	0	0	
0.0615	0.0121057	0.0302931	0.000387595	0.000694654	0	0	0	
0.0616667	-0.014381	-0.0319203	0.000414359	0.000676027	0	0	0	
0.0618333	0.0144053	0.0366777	0.000431231	0.000704221	0	0	0	
0.062	-0.0139665	-0.0297955	0.000413592	0.000766	0	0	0	
0.0621667	0.0127221	0.0287781	0.000391368	0.000782935	0	0	0	
0.0623333	-0.0133182	-0.0287744	0.00037748	0.000767378	0	0	0	
0.0625	0.0159053	0.0371871	0.000378305	0.000716606	0	0	0	
0.0626667	-0.0118966	-0.0308607	0.000386085	0.000733081	0	0	0	
0.0628333	0.012636	0.028428	0.000382034	0.000743507	0	0	0	
0.063	-0.0140484	-0.0239396	0.000386787	0.000752138	0	0	0	
0.0631667	0.0140165	0.0318258	0.000392458	0.000717828	0	0	0	
0.0633333	-0.0146442	-0.0356516	0.000384961	0.000728988	0	0	0	
0.0635	0.0161824	0.0359403	0.000374157	0.000772164	0	0	0	
0.0636667	-0.0127838	-0.0276457	0.000383845	0.000802423	0	0	0	
0.0638333	0.0147709	0.0267835	0.000389065	0.000784229	0	0	0	
0.064	-0.015189	-0.0308793	0.000406026	0.000714553	0	0	0	
0.0641667	0.01388	0.0315089	0.000405551	0.000711457	0	0	0	
0.0643333	-0.0136992	-0.0354924	0.000409452	0.000729853	0	0	0	
0.0645	0.0142966	0.0293778	0.000400721	0.000805849	0	0	0	
0.0646667	-0.013057	-0.0278618	0.000392366	0.000782077	0	0	0	
0.0648333	0.0142359	0.0304119	0.000392567	0.000755654	0	0	0	
0.065	-0.016458	-0.031004	0.000394661	0.000699463	0	0	0	
0.0651667	0.0142311	0.028043	0.000404796	0.000729295	0	0	0	
0.0653333	-0.0111644	-0.0243713	0.000412643	0.000741944	0	0	0	
0.0655	0.0124862	0.0262887	0.000406865	0.000729028	0	0	0	
0.0656667	-0.0110775	-0.0298443	0.00038788	0.000691991	0	0	0	
0.0658333	0.0136071	0.034284	0.000376906	0.000709942	0	0	0	
0.066	-0.0147502	-0.0304286	0.000386583	0.000757679	0	0	0	
0.0661667	0.0142238	0.0294764	0.000400894	0.000767838	0	0	0	
0.0663333	-0.0144928	-0.0277159	0.000406965	0.000734448	0	0	0	
0.0665	0.0167125	0.0341161	0.000401444	0.000690723	0	0	0	
0.0666667	-0.0155354	-0.0285338	0.000401405	0.000719705	0	0	0	
0.0668333	0.0118675	0.0278533	0.000397342	0.000731765	0	0	0	
0.067	-0.0133305	-0.0295189	0.00038745	0.000737774	0	0	0	
0.0671667	0.0173086	0.0309278	0.00037861	0.000721918	0	0	0	
0.0673333	-0.0173928	-0.0323317	0.000407817	0.000752114	0	0	0	
0.0675	0.0135546	0.0273091	0.000435441	0.000784576	0	0	0	
0.0676667	-0.0147669	-0.0275418	0.000440494	0.000769145	0	0	0	
0.0678333	0.0121738	0.0330255	0.000421461	0.000738365	0	0	0	
0.068	-0.0142638	-0.0338259	0.000402946	0.000737411	0	0	0	
0.0681667	0.0120662	0.0312345	0.000401598	0.00075609	0	0	0	
0.0683333	-0.0122742	-0.0279706	0.000405929	0.000753594	0	0	0	
0.0685	0.0138695	0.0270214	0.000413287	0.000727696	0	0	0	
0.0686667	-0.0164516	-0.0343148	0.000411416	0.000699288	0	0	0	
0.0688333	0.0129908	0.0291489	0.000418162	0.000717683	0	0	0	
0.069	-0.0117825	-0.029089	0.000412763	0.000712123	0	0	0	
0.0691667	0.0134412	0.0306434	0.000407039	0.0007288	0	0	0	
0.0693333	-0.0143485	-0.0280117	0.000399812	0.000727974	0	0	0	
0.0695	0.0141172	0.0335198	0.000404882	0.00076787	0	0	0	
0.0696667	-0.0129489	-0.036884	0.000392204	0.000815265	0	0	0	
0.0698333	0.010144	0.0352072	0.000366716	0.000865052	0	0	0	
0.07	-0.0112965	-0.0372042	0.000362048	0.000862132	0	0	0	
0.0701667	0.0143197	0.0348653	0.000382606	0.000850153	0	0	0	
0.0703333	-0.0089343	-0.0364542	0.000390011	0.000809353	0	0	0	
0.0705	0.0076403	0.0372491	0.000364883	0.000822517	0	0	0	
0.0706667	-0.0132638	-0.0341905	0.000328383	0.000849193	0	0	0	
0.0708333	0.0104467	0.0320851	0.000328678	0.000889315	0	0	0	
0.071	-0.00355828	-0.0341788	0.000371608	0.000875803	0	0	0	
0.0711667	0.0109552	0.0329246	0.00045357	0.000835961	0	0	0	
0.0713333	-0.0176159	-0.0358768	0.000515143	0.000803554	0	0	0	
0.0715	0.0189599	0.032081	0.000515405	0.000841139	0	0	0	
0.0716667	-0.0179115	-0.0299465	0.000452715	0.000880483	0	0	0	
0.0718333	0.00881967	0.0248378	0.000385069	0.000872386	0	0	0	
0.072	-0.00337832	-0.0310333	0.000322412	0.00080349	0	0	0	
0.0721667	0.00457394	0.0342008	0.000286927	0.000768972	0	0	0	
0.0723333	-0.00584491	-0.0311898	0.000273448	0.000799373	0	0	0	
0.0725	0.00879657	0.0281942	0.000312442	0.000841992	0	0	0	
0.0726667	-0.0107933	-0.0280053	0.000369644	0.000826272	0	0	0	
0.0728333	0.0128755	0.032973	0.000401969	0.000781167	0	0	0	
0.073	-0.0120055	-0.0359975	0.000404372	0.000786596	0	0	0	
0.0731667	0.0127434	0.0295481	0.000400244	0.000813633	0	0	0	
0.0733333	-0.0157117	-0.0226168	0.00041158	0.000808568	0	0	0	
0.0735	0.0144526	0.0277993	0.000427154	0.000736156	0	0	0	
0.0736667	-0.0109592	-0.03222	0.000391279	0.000701693	0	0	0	
0.0738333	0.00955182	0.0370177	0.000338996	0.000723435	0	0	0	
0.074	-0.010457	-0.0273645	0.000334889	0.000786746	0	0	0	
0.0741667	0.0157716	0.01761	0.000383905	0.000772834	0	0	0	
0.0743333	-0.0139744	-0.023436	0.000433748	0.000723888	0	0	0	
0.0745	0.0131894	0.033671	0.000424267	0.000703276	0	0	0	
0.0746667	-0.0124318	-0.0354336	0.000404686	0.000772316	0	0	0	
0.0748333	0.0127306	0.0292279	0.000392752	0.000833646	0	0	0	
0.075	-0.0131956	-0.0264251	0.000402048	0.000828292	0	0	0	
0.0751667	0.0134565	0.0231362	0.000421108	0.000751581	0	0	0	
0.0753333	-0.0140149	-0.0280172	0.000445524	0.000686528	0	0	0	
0.0755	0.0151183	0.0346672	0.000455233	0.000701968	0	0	0	
0.0756667	-0.0101267	-0.0396637	0.000450088	0.000787555	0	0	0	
0.0758333	0.0108301	0.0385225	0.00043126	0.000868555	0	0	0	
0.076	-0.0152306	-0.0332529	0.00043267	0.000852961	0	0	0	
0.0761667	0.0149437	0.0255462	0.000430513	0.00075474	0	0	0	
0.0763333	-0.008279	-0.0266094	0.000416428	0.000664609	0	0	0	
0.0765	0.00797703	0.0285475	0.000389208	0.000667611	0	0	0	
0.0766667	-0.00989527	-0.028084	0.000377719	0.000744417	0	0	0	
0.0768333	0.0114774	0.0328373	0.000379878	0.000863989	0	0	0	
0.077	-0.0108267	-0.0341525	0.000391467	0.000929844	0	0	0	
0.0771667	0.013344	0.031353	0.000402797	0.000920487	0	0	0	
0.0773333	-0.0117039	-0.0321186	0.00041314	0.000854676	0	0	0	
0.0775	0.0122822	0.0325526	0.000397615	0.000823523	0	0	0	
0.0776667	-0.0138462	-0.0317137	0.000386848	0.000809877	0	0	0	
0.0778333	0.014048	0.0319378	0.000390318	0.000819527	0	0	0	
0.078	-0.0144929	-0.028732	0.000412899	0.000780002	0	0	0	
0.0781667	0.0167157	0.0254613	0.00041825	0.000748678	0	0	0	
0.0783333	-0.0127645	-0.0272459	0.000417714	0.000688138	0	0	0	
0.0785	0.0122158	0.0268841	0.000404006	0.000671474	0	0	0	
0.0786667	-0.00974634	-0.0275175	0.00039268	0.000671891	0	0	0	
0.0788333	0.01247	0.0261269	0.000382801	0.00072327	0	0	0	
0.079	-0.0167103	-0.0233442	0.000402191	0.000749141	0	0	0	
0.0791667	0.0146637	0.0275452	0.000439486	0.000762906	0	0	0	
0.0793333	-0.0114117	-0.0301164	0.000455958	0.000763037	0	0	0	
0.0795	0.0111941	0.0363274	0.000438057	0.000788862	0	0	0	
0.0796667	-0.0131367	-0.0303356	0.000400919	0.000816824	0	0	0	
0.0798333	0.015174	0.0254671	0.000383347	0.000796147	0	0	0	
0.08	-0.0128368	-0.0263685	0.000387873	0.000727412	0	0	0	
0.0801667	0.0115962	0.0299841	0.00039392	0.000683543	0	0	0	
0.0803333	-0.0134385	-0.0276024	0.000395669	0.000716447	0	0	0	
0.0805	0.0118596	0.0306042	0.000398245	0.000767552	0	0	0	
0.0806667	-0.0111988	-0.0272785	0.000394383	0.000784603	0	0	0	
0.0808333	0.0123396	0.0309151	0.000393592	0.000751424	0	0	0	
0.081	-0.0136781	-0.0286877	0.000390707	0.000738305	0	0	0	
0.0811667	0.0156844	0.0292393	0.000395941	0.000723574	0	0	0	
0.0813333	-0.0149816	-0.0228147	0.000408107	0.000744254	0	0	0	
0.0815	0.0121405	0.0233963	0.000414595	0.000727257	0	0	0	
0.0816667	-0.0137115	-0.024349	0.000412967	0.000726044	0	0	0	
0.0818333	0.0127797	0.029252	0.00040464	0.000709252	0	0	0	
0.082	-0.0136582	-0.025589	0.000404277	0.000722082	0	0	0	
0.0821667	0.0141937	0.030446	0.000411355	0.000729227	0	0	0	
0.0823333	-0.0113862	-0.0259611	0.000420269	0.000761502	0	0	0	
0.0825	0.0142812	0.0258356	0.000416268	0.000760378	0	0	0	
0.0826667	-0.0112798	-0.0269234	0.000424394	0.000752472	0	0	0	
0.0828333	0.00818566	0.0314071	0.000424076	0.000710063	0	0	0	
0.083	-0.0105023	-0.0289753	0.000422768	0.000697874	0	0	0	
0.0831667	0.0106393	0.0319191	0.000406901	0.00072374	0	0	0	
0.0833333	-0.012665	-0.0236297	0.000397346	0.000750643	0	0	0	
0.0835	0.0161969	0.0260938	0.000403066	0.00074851	0	0	0	
0.0836667	-0.0103635	-0.0276928	0.000408282	0.000720186	0	0	0	
0.0838333	0.00810335	0.0292402	0.000367606	0.000710431	0	0	0	
0.084	-0.00898031	-0.0291817	0.000318821	0.000747566	0	0	0	
0.0841667	0.00986932	0.0329193	0.00030661	0.000797242	0	0	0	
0.0843333	-0.013151	-0.0252192	0.000362329	0.000839443	0	0	0	
0.0845	0.0138279	0.0300345	0.000433125	0.000820492	0	0	0	
0.0846667	-0.016589	-0.0291694	0.000466062	0.000791049	0	0	0	
0.0848333	0.0143135	0.0279788	0.000458253	0.00074459	0	0	0	
0.085	-0.0119278	-0.0257474	0.000416159	0.000736443	0	0	0	
0.0851667	0.0110729	0.0235276	0.000381666	0.000742937	0	0	0	
0.0853333	-0.0105189	-0.0246446	0.000369161	0.000763308	0	0	0	
0.0855	0.0119286	0.0263414	0.000386225	0.00078203	0	0	0	
0.0856667	-0.0154022	-0.030488	0.000413941	0.000777233	0	0	0	
0.0858333	0.0125797	0.0289948	0.000447713	0.000758091	0	0	0	
0.086	-0.0124119	-0.0243063	0.000457948	0.000709133	0	0	0	
0.0861667	0.0136359	0.0168986	0.000448735	0.000678252	0	0	0	
0.0863333	-0.0122867	-0.0236827	0.000413829	0.000668225	0	0	0	
0.0865	0.00884246	0.0279116	0.000376884	0.000736625	0	0	0	
0.0866667	-0.0109781	-0.0292735	0.00035333	0.000777783	0	0	0	
0.0868333	0.0137618	0.0302261	0.000378709	0.000798849	0	0	0	
0.087	-0.0104855	-0.0235578	0.000418387	0.000761824	0	0	0	
0.0871667	0.00814004	0.0227992	0.000423545	0.000709315	0	0	0	
0.0873333	-0.012798	-0.0206738	0.000396166	0.000661325	0	0	0	
0.0875	0.0143944	0.0257564	0.000386156	0.000658917	0	0	0	
0.0876667	-0.013992	-0.0218596	0.000382062	0.000704883	0	0	0	
0.0878333	0.00878662	0.023608	0.000369	0.000727067	0	0	0	
0.088	-0.00717475	-0.0220403	0.000367308	0.000724669	0	0	0	
0.0881667	0.0117845	0.0267643	0.000411176	0.000698553	0	0	0	
0.0883333	-0.0172709	-0.0268919	0.000457341	0.000715863	0	0	0	
0.0885	0.0131784	0.031571	0.000478582	0.000723634	0	0	0	
0.0886667	-0.0139703	-0.0298302	0.000447648	0.00074475	0	0	0	
0.0888333	0.0145987	0.0232253	0.000417885	0.00072541	0	0	0	
0.089	-0.0182821	-0.0185128	0.000398824	0.000734911	0	0	0	
0.0891667	0.0108082	0.0291886	0.000397484	0.000814663	0	0	0	
0.0893333	-0.0107843	-0.0374531	0.00036685	0.000941653	0	0	0	
0.0895	0.0069764	0.0414905	0.000347804	0.00102285	0	0	0	
0.0896667	-0.00887793	-0.0354156	0.000350497	0.000993897	0	0	0	
0.0898333	0.0124172	0.0296135	0.000381063	0.000870496	0	0	0	
0.09	-0.012529	-0.015131	0.000411672	0.000707637	0	0	0	
0.0901667	0.0134882	0.0100912	0.000469568	0.000573005	0	0	0	
0.0903333	-0.018782	-0.00781867	0.000519174	0.000584024	0	0	0	
0.0905	0.0128448	0.0213051	0.000515174	0.000701879	0	0	0	
0.0906667	-0.0101425	-0.0267585	0.000440991	0.000835006	0	0	0	
0.0908333	0.0118339	0.0376695	0.000380132	0.000872971	0	0	0	
0.091	-0.0093532	-0.0348687	0.000363672	0.000899273	0	0	0	
0.0911667	0.00622579	0.0278423	0.000377906	0.000896437	0	0	0	
0.0913333	-0.0115974	-0.0295641	0.000396236	0.000888081	0	0	0	
0.0915	0.0131899	0.0352487	0.000407739	0.000842408	0	0	0	
0.0916667	-0.0109098	-0.033175	0.000410213	0.000809818	0	0	0	
0.0918333	0.00724126	0.0274665	0.000398559	0.000767709	0	0	0	
0.092	-0.00981454	-0.0186666	0.000392128	0.000708721	0	0	0	
0.0921667	0.0118237	0.0144069	0.000396279	0.000669151	0	0	0	
0.0923333	-0.0093151	-0.0261187	0.00039171	0.000721995	0	0	0	
0.0925	0.00693938	0.0308812	0.000392603	0.000844679	0	0	0	
0.0926667	-0.0124183	-0.0310227	0.000456009	0.000916699	0	0	0	
0.0928333	0.0315787	0.0351411	0.000593363	0.000912062	0	0	0	
0.093	-0.00964167	-0.037997	0.000768879	0.000873175	0	0	0	
0.0931667	-0.00394724	0.0288902	0.000796745	0.000868579	0	0	0	
0.0933333	0.00303725	-0.021371	0.000718495	0.000815989	0	0	0	
0.0935	-0.00301638	0.0155923	0.000551271	0.000738163	0	0	0	
0.0936667	-0.00119506	-0.0232727	0.000444611	0.000654062	0	0	0	
0.0938333	0.00623639	0.0302413	0.000402123	0.000683785	0	0	0	
0.094	0.0179978	-0.0256329	0.00044582	0.00072403	0	0	0	
0.0941667	-0.0122082	0.0200767	0.00048982	0.000777908	0	0	0	
0.0943333	-0.000812436	-0.0214738	0.000420953	0.000773094	0	0	0	
0.0945	0.00448307	0.0295297	0.000279697	0.000789857	0	0	0	
0.0946667	-0.00742367	-0.0346762	0.000175288	0.000822504	0	0	0	
0.0948333	0.0123261	0.0342099	0.000217393	0.000877429	0	0	0	
0.095	-0.0138112	-0.0290736	0.000340695	0.000859512	0	0	0	
0.0951667	0.0136875	0.0296219	0.000444866	0.000815144	0	0	0	
0.0953333	-0.00884897	-0.0230202	0.000465245	0.000740474	0	0	0	
0.0955	0.00758807	0.0243279	0.000411588	0.000699199	0	0	0	
0.0956667	-0.00926546	-0.026079	0.000380676	0.000691178	0	0	0	
0.0958333	0.0135574	0.0286708	0.000392832	0.000719257	0	0	0	
0.096	-0.0118791	-0.0231284	0.000424204	0.000756227	0	0	0	
0.0961667	0.00942255	0.0190196	0.000423204	0.000746837	0	0	0	
0.0963333	-0.0131157	-0.0200243	0.00039662	0.000739356	0	0	0	
0.0965	0.0125563	0.0277878	0.00038625	0.000769487	0	0	0	
0.0966667	-0.0105949	-0.0335273	0.000385194	0.000857728	0	0	0	
0.0968333	0.0115343	0.0345994	0.000395591	0.000926475	0	0	0	
0.097	-0.00946482	-0.0307405	0.000392786	0.000956155	0	0	0	
0.0971667	0.0103665	0.0247973	0.000403525	0.000901665	0	0	0	
0.0973333	-0.0101044	-0.0246839	0.000421103	0.000798275	0	0	0	
0.0975	0.0113008	0.017412	0.000430449	0.00066517	0	0	0	
0.0976667	-0.0106933	-0.0110633	0.000424105	0.000558735	0	0	0	
0.0978333	0.0116725	0.0158491	0.000411221	0.000501739	0	0	0	
0.098	-0.00969803	-0.0187089	0.000390781	0.000540953	0	0	0	
0.0981667	0.00831815	0.0218182	0.00037798	0.000625588	0	0	0	
0.0983333	-0.00929026	-0.0272355	0.00036988	0.000740167	0	0	0	
0.0985	0.0121917	0.0315023	0.000367316	0.000812804	0	0	0	
0.0986667	-0.0107777	-0.0394345	0.000378776	0.000847516	0	0	0	
0.0988333	0.0131751	0.0457522	0.000397088	0.000843144	0	0	0	
0.099	-0.00980567	-0.0362059	0.000421918	0.000843655	0	0	0	
0.0991667	0.0101066	0.0207928	0.000429557	0.000789049	0	0	0	
0.0993333	-0.0117644	-0.0141878	0.00042712	0.000753459	0	0	0	
0.0995	0.0108114	0.0229987	0.000418938	0.000723443	0	0	0	
0.0996667	-0.0117706	-0.0305846	0.000412984	0.000796097	0	0	0	
0.0998333	0.00912847	0.0370524	0.000417595	0.00088464	0	0	0	
0.1	-0.00777592	-0.0346481	0.000412324	0.00093481	0	0	0	
0.100167	0.00943739	0.0272767	0.00040378	0.000898229	0	0	0	
0.100333	-0.0076783	-0.0250485	0.000384968	0.000791705	0	0	0	
0.1005	0.010805	0.0283327	0.000375597	0.000690591	0	0	0	
0.100667	-0.0110931	-0.0265905	0.00038252	0.000684664	0	0	0	
0.100833	0.00758925	0.0270915	0.000390829	0.000712	0	0	0	
0.101	-0.00954096	-0.0262633	0.00038721	0.000735222	0	0	0	
0.101167	0.00771504	0.0234046	0.000386397	0.000691738	0	0	0	
0.101333	-0.0115663	-0.024715	0.000389391	0.000671792	0	0	0	
0.1015	0.0145281	0.0263871	0.000406091	0.00069739	0	0	0	
0.101667	-0.0106957	-0.0347338	0.000401773	0.000779365	0	0	0	
0.101833	0.00789863	0.0301716	0.000387963	0.000852445	0	0	0	
0.102	-0.0115443	-0.0235665	0.00037023	0.000858323	0	0	0	
0.102167	0.00919053	0.0214251	0.000377154	0.000844156	0	0	0	
0.102333	-0.0124363	-0.0257491	0.000385317	0.000853525	0	0	0	
0.1025	0.00997764	0.0245943	0.000421385	0.000904808	0	0	0	
0.102667	-0.0111428	-0.0283071	0.000448617	0.000929219	0	0	0	
0.102833	0.0150936	0.0293702	0.000471399	0.000943758	0	0	0	
0.103	-0.0111765	-0.0337909	0.000426237	0.000927024	0	0	0	
0.103167	0.00176309	0.0283897	0.000338966	0.000872352	0	0	0	
0.103333	-0.000289153	-0.0137196	0.000281229	0.000710689	0	0	0	
0.1035	0.0032196	0.0045549	0.000317366	0.000568878	0	0	0	
0.103667	-0.00750975	-0.0163057	0.00039248	0.000577916	0	0	0	
0.103833	0.0105719	0.0213082	0.000440153	0.000753768	0	0	0	
0.104	-0.0116826	-0.0315765	0.000451615	0.000946082	0	0	0	
0.104167	0.0150142	0.0276086	0.000442921	0.0010466	0	0	0	
0.104333	-0.0120958	-0.0244221	0.000403361	0.00101467	0	0	0	
0.1045	0.00508915	0.0163309	0.000309625	0.000900397	0	0	0	
0.104667	-0.00520753	-0.0133535	0.000259265	0.000754575	0	0	0	
0.104833	0.00973021	0.00686379	0.000303153	0.000677261	0	0	0	
0.105	-0.013657	-0.0127911	0.000387573	0.000678093	0	0	0	
0.105167	0.01016	0.0115438	0.000435045	0.000731206	0	0	0	
0.105333	-0.0137364	-0.0254501	0.000426551	0.000755588	0	0	0	
0.1055	0.0113813	0.0267789	0.000422552	0.000757137	0	0	0	
0.105667	-0.0101934	-0.0234693	0.000410303	0.000729828	0	0	0	
0.105833	0.00790602	0.0185084	0.000397886	0.000711149	0	0	0	
0.106	-0.00862232	-0.024741	0.000382767	0.000697146	0	0	0	
0.106167	0.00620843	0.0311009	0.000400484	0.0007083	0	0	0	
0.106333	-0.0119696	-0.0385394	0.000444529	0.000769406	0	0	0	
0.1065	0.0146289	0.0163951	0.000514547	0.000762618	0	0	0	
0.106667	-0.0190138	-0.00905239	0.000542824	0.000573193	0	0	0	
0.106833	0.0121283	-0.00719601	0.000534308	0.00032263	0	0	0	
0.107	-0.00891631	0.00401251	0.000458751	0.000252073	0	0	0	
0.107167	0.00814577	0.000267173	0.000391056	0.000504511	0	0	0	
0.107333	-0.00420991	-0.0155306	0.000331174	0.000845724	0	0	0	
0.1075	0.00126409	0.0363895	0.000342533	0.00109559	0	0	0	
0.107667	-0.00646091	-0.0767221	0.000410302	0.00122394	0	0	0	
0.107833	0.00715874	0.0709586	0.00048236	0.00139202	0	0	0	
0.108	-0.00939123	-0.0368458	0.000489084	0.00133846	0	0	0	
0.108167	0.011851	0.0124027	0.000443033	0.00103323	0	0	0	
0.108333	-0.0113137	-0.0149361	0.000398488	0.000571145	0	0	0	
0.1085	0.00737817	0.0153999	0.000382884	0.000373921	0	0	0	
0.108667	-0.00852835	-0.00254009	0.000375113	0.000434255	0	0	0	
0.108833	0.00922557	-0.0112829	0.000374824	0.000580189	0	0	0	
0.109	-0.00790306	0.010151	0.000372285	0.000745015	0	0	0	
0.109167	0.0091977	0.0155168	0.000366192	0.00091247	0	0	0	
0.109333	-0.00884181	-0.0287448	0.000363946	0.00101792	0	0	0	
0.1095	0.00717186	0.0298618	0.000376794	0.00101836	0	0	0	
0.109667	-0.00894588	-0.0296233	0.000399846	0.000953642	0	0	0	
0.109833	0.0110821	0.035916	0.000410122	0.000909367	0	0	0	
0.11	-0.00633737	-0.0306138	0.000405203	0.000853507	0	0	0	
0.110167	0.0100638	0.0227697	0.000396208	0.000769076	0	0	0	
0.110333	-0.0104598	-0.0226032	0.000409651	0.000682134	0	0	0	
0.1105	0.00950426	0.0277701	0.000422729	0.000669311	0	0	0	
0.110667	-0.00737143	-0.0239954	0.000415487	0.000692573	0	0	0	
0.110833	0.00896934	0.0165396	0.000375979	0.000699588	0	0	0	
0.111	-0.00471133	-0.0147174	0.000347151	0.000677093	0	0	0	
0.111167	0.00924015	0.0188439	0.000343756	0.000708246	0	0	0	
0.111333	-0.00941513	-0.023692	0.000365755	0.000790108	0	0	0	
0.1115	0.00929073	0.0218356	0.000384548	0.000862367	0	0	0	
0.111667	-0.0105558	-0.02491	0.000397098	0.000866626	0	0	0	
0.111833	0.00851758	0.0242903	0.00039905	0.0008555	0	0	0	
0.112	-0.00733119	-0.0255327	0.000385095	0.000843269	0	0	0	
0.112167	0.00837204	0.0262954	0.000370244	0.000830367	0	0	0	
0.112333	-0.00755003	-0.0259401	0.000373735	0.000804374	0	0	0	
0.1125	0.00967722	0.0223859	0.000406812	0.000769146	0	0	0	
0.112667	-0.0117087	-0.023208	0.000450014	0.000736843	0	0	0	
0.112833	0.0109967	0.0161532	0.00045367	0.000698903	0	0	0	
0.113	-0.00992277	-0.0206451	0.000424415	0.000660411	0	0	0	
0.113167	0.00753393	0.0217717	0.000388296	0.000666461	0	0	0	
0.113333	-0.00871087	-0.020064	0.000365868	0.00069904	0	0	0	
0.1135	0.00862145	0.0190301	0.000365021	0.000757072	0	0	0	
0.113667	-0.00980298	-0.017984	0.000370631	0.000776188	0	0	0	
0.113833	0.0095396	0.0214663	0.000385493	0.000745292	0	0	0	
0.114	-0.00976936	-0.0233564	0.000395235	0.000711251	0	0	0	
0.114167	0.00907405	0.0248081	0.000407379	0.000719702	0	0	0	
0.114333	-0.00976521	-0.0191741	0.000414583	0.000764182	0	0	0	
0.1145	0.0125974	0.0181146	0.000423637	0.000783848	0	0	0	
0.114667	-0.0110422	-0.0187941	0.000431867	0.000767503	0	0	0	
0.114833	0.0102666	0.0218003	0.000432282	0.000740515	0	0	0	
0.115	-0.00860214	-0.0231812	0.000425285	0.000731007	0	0	0	
0.115167	0.00473539	0.0222684	0.000397267	0.000744986	0	0	0	
0.115333	-0.00563854	-0.0235946	0.000362199	0.000787839	0	0	0	
0.1155	0.00948398	0.0264673	0.000350366	0.000839011	0	0	0	
0.115667	-0.00614999	-0.024108	0.000381254	0.000864562	0	0	0	
0.115833	0.00827944	0.0186993	0.000411811	0.000824846	0	0	0	
0.116	-0.00964267	-0.0223729	0.000414503	0.000747975	0	0	0	
0.116167	0.00699463	0.017331	0.000388577	0.000688283	0	0	0	
0.116333	-0.00966683	-0.0172818	0.000369779	0.000672863	0	0	0	
0.1165	0.0103103	0.0167307	0.000368493	0.00072916	0	0	0	
0.116667	-0.00681065	-0.0155552	0.000364024	0.000809919	0	0	0	
0.116833	0.00813743	0.0206631	0.000364966	0.000862486	0	0	0	
0.117	-0.00979544	-0.0238977	0.000375036	0.000846026	0	0	0	
0.117167	0.00612627	0.022243	0.00038571	0.000787204	0	0	0	
0.117333	-0.00606373	-0.0248778	0.00037949	0.0007658	0	0	0	
0.1175	0.00892213	0.0264956	0.000366791	0.000791266	0	0	0	
0.117667	-0.0111167	-0.0222663	0.000370427	0.000790535	0	0	0	
0.117833	0.00991709	0.021358	0.000393086	0.000710878	0	0	0	
0.118	-0.0083871	-0.0149824	0.000390016	0.000626652	0	0	0	
0.118167	0.00581821	0.0138014	0.000371113	0.00059187	0	0	0	
0.118333	-0.0123309	-0.0153445	0.000358762	0.000657484	0	0	0	
0.1185	0.0129767	0.0159389	0.000382057	0.00073851	0	0	0	
0.118667	-0.0137304	-0.0254356	0.000393394	0.000820502	0	0	0	
0.118833	0.00687715	0.0322141	0.000402861	0.000857315	0	0	0	
0.119	-0.00917205	-0.0229683	0.000402301	0.000832404	0	0	0	
0.119167	0.0105382	0.0174345	0.000432472	0.000719765	0	0	0	
0.119333	-0.00986048	-0.019789	0.00043902	0.000626288	0	0	0	
0.1195	0.00343712	0.0190627	0.00043507	0.000576691	0	0	0	
0.119667	-0.0111543	-0.0208394	0.000445447	0.000597025	0	0	0	
0.119833	0.0134672	0.0258939	0.000489286	0.000631321	0	0	0	
0.12	-0.0142307	-0.0278019	0.000481606	0.000727288	0	0	0	
0.120167	0.0065414	0.0340798	0.000420729	0.000866665	0	0	0	
0.120333	-0.00530148	-0.0374322	0.00036218	0.00100822	0	0	0	
0.1205	0.00444246	0.0315092	0.000375175	0.00103712	0	0	0	
0.120667	-0.00623099	-0.0369577	0.000391576	0.000959465	0	0	0	
0.120833	0.00971763	0.0332819	0.000396405	0.000874094	0	0	0	
0.121	-0.0137875	-0.0212904	0.000413516	0.000806831	0	0	0	
0.121167	0.011716	0.00514514	0.000461416	0.000767307	0	0	0	
0.121333	-0.00743563	-0.00478597	0.000481994	0.000737799	0	0	0	
0.1215	0.0046025	0.00992324	0.000450084	0.00077861	0	0	0	
0.121667	-0.00644187	-0.0265851	0.000394668	0.000851475	0	0	0	
0.121833	0.0106868	0.0250761	0.000382997	0.000910078	0	0	0	
0.122	-0.0154622	-0.0249664	0.000438401	0.000908165	0	0	0	
0.122167	0.0118146	0.0235149	0.000484141	0.000925894	0	0	0	
0.122333	-0.00850653	-0.0343241	0.000431093	0.000898675	0	0	0	
0.1225	0.00188218	0.0190602	0.000320372	0.000780214	0	0	0	
0.122667	-0.00527078	-0.00859213	0.000267626	0.000608263	0	0	0	
0.122833	0.00470499	-0.0177364	0.000324584	0.000464936	0	0	0	
0.123	-0.00648215	0.0263242	0.000396909	0.000464686	0	0	0	
0.123167	0.00786862	-0.025602	0.000438785	0.000791085	0	0	0	
0.123333	-0.0134259	-0.00678517	0.000452837	0.00120185	0	0	0	
0.1235	0.0109927	0.0373769	0.000457464	0.00150877	0	0	0	
0.123667	-0.00665187	-0.0759264	0.000416084	0.00143674	0	0	0	
0.123833	0.00285444	0.0705262	0.000354916	0.00138271	0	0	0	
0.124	-0.00483264	-0.0351505	0.000325462	0.00121864	0	0	0	
0.124167	0.010519	-0.010863	0.000366192	0.000948821	0	0	0	
0.124333	-0.0120539	0.0185046	0.000423358	0.000556754	0	0	0	
0.1245	0.0109072	0.00149037	0.000429162	0.000391379	0	0	0	
0.124667	-0.00645819	-0.0312413	0.000401622	0.000540298	0	0	0	
0.124833	0.00640653	0.0400378	0.000368364	0.000772583	0	0	0	
0.125	-0.00486921	-0.0300166	0.000348968	0.000921575	0	0	0	
0.125167	0.0045935	0.0226993	0.000328911	0.000923541	0	0	0	
0.125333	-0.00457426	-0.0272586	0.000336621	0.00087924	0	0	0	
0.1255	0.00665184	0.0301443	0.00037353	0.00086938	0	0	0	
0.125667	-0.00752623	-0.0298343	0.000409775	0.000892023	0	0	0	
0.125833	0.00472702	0.0260221	0.000411931	0.000918254	0	0	0	
0.126	-0.00737759	-0.027201	0.000387416	0.000913728	0	0	0	
0.126167	0.00906708	0.0242974	0.000372991	0.000873918	0	0	0	
0.126333	-0.00651278	-0.0227255	0.000371733	0.000804487	0	0	0	
0.1265	0.00458487	0.0155441	0.000370534	0.00078322	0	0	0	
0.126667	-0.00737152	-0.0194901	0.000371972	0.000797506	0	0	0	
0.126833	0.00955344	0.0252784	0.000382821	0.000829775	0	0	0	
0.127	-0.00823821	-0.0296684	0.000397085	0.000830363	0	0	0	
0.127167	0.00818438	0.0257389	0.000382642	0.00082625	0	0	0	
0.127333	-0.00463961	-0.0220738	0.000358859	0.000793371	0	0	0	
0.1275	0.00516421	0.0176272	0.000347061	0.000759435	0	0	0	
0.127667	-0.0082278	-0.022545	0.000364435	0.000715617	0	0	0	
0.127833	0.0108169	0.0217077	0.000389636	0.000713965	0	0	0	
0.128	-0.00920194	-0.0189469	0.000417669	0.000713884	0	0	0	
0.128167	0.00786982	0.0164408	0.000426749	0.000694011	0	0	0	
0.128333	-0.00821022	-0.0180945	0.00042089	0.000648386	0	0	0	
0.1285	0.00708534	0.018288	0.000406103	0.000624607	0	0	0	
0.128667	-0.00661449	-0.0224206	0.000398418	0.000654555	0	0	0	
0.128833	0.0069931	0.0144584	0.000400701	0.000708986	0	0	0	
0.129	-0.00796383	-0.0180925	0.000399509	0.000725573	0	0	0	
0.129167	0.00708669	0.0198951	0.000398017	0.000716726	0	0	0	
0.129333	-0.00761675	-0.0197786	0.000384765	0.00070574	0	0	0	
0.1295	0.00454899	0.0218896	0.000379098	0.000727893	0	0	0	
0.129667	-0.00674813	-0.0210011	0.000378423	0.0007708	0	0	0	
0.129833	0.00918624	0.0184208	0.000387869	0.00078682	0	0	0	
0.13	-0.0101931	-0.0230635	0.000404327	0.000759258	0	0	0	
0.130167	0.00804483	0.0229394	0.00042962	0.000730488	0	0	0	
0.130333	-0.00667111	-0.0205486	0.000444591	0.000708323	0	0	0	
0.1305	0.00739475	0.0195875	0.000439509	0.000719305	0	0	0	
0.130667	-0.00639817	-0.014592	0.000425108	0.000718375	0	0	0	
0.130833	0.00935498	0.0211389	0.000417621	0.000723816	0	0	0	
0.131	-0.0079169	-0.0228962	0.000425278	0.000740079	0	0	0	
0.131167	0.00487871	0.0239103	0.0004251	0.000774095	0	0	0	
0.131333	-0.00579757	-0.0188635	0.000418793	0.000821299	0	0	0	
0.1315	0.00844029	0.0199871	0.000407224	0.000858841	0	0	0	
0.131667	-0.00651449	-0.0239379	0.000405604	0.00084907	0	0	0	
0.131833	0.0062749	0.0202022	0.000398926	0.000808997	0	0	0	
0.132	-0.00739343	-0.0145182	0.00038982	0.000766647	0	0	0	
0.132167	0.0050336	0.0159023	0.000391848	0.000768792	0	0	0	
0.132333	-0.00624163	-0.0108657	0.000409807	0.000779369	0	0	0	
0.1325	0.00758106	0.0144032	0.000423343	0.000767674	0	0	0	
0.132667	-0.00650371	-0.0171825	0.000419938	0.000758298	0	0	0	
0.132833	0.0043781	0.0175697	0.000407432	0.000758669	0	0	0	
0.133	-0.00814239	-0.0184053	0.000396828	0.000739058	0	0	0	
0.133167	0.00750126	0.0205535	0.000393282	0.000678571	0	0	0	
0.133333	-0.00512121	-0.015383	0.000383746	0.000634804	0	0	0	
0.1335	0.00635209	0.0183267	0.000375406	0.000653612	0	0	0	
0.133667	-0.0086225	-0.0176749	0.000375851	0.000719132	0	0	0	
0.133833	0.00574092	0.0193397	0.000394782	0.000750303	0	0	0	
0.134	-0.00822284	-0.0219162	0.000419422	0.00077171	0	0	0	
0.134167	0.00739053	0.0205362	0.000438788	0.000792815	0	0	0	
0.134333	-0.00868023	-0.0208438	0.000436417	0.00082267	0	0	0	
0.1345	0.00889721	0.0224893	0.000434323	0.000809933	0	0	0	
0.134667	-0.0105251	-0.0223667	0.000412102	0.000768031	0	0	0	
0.134833	0.00587959	0.0198365	0.000388013	0.000740439	0	0	0	
0.135	-0.00294187	-0.0186862	0.000365754	0.000761082	0	0	0	
0.135167	0.00183423	0.0126592	0.000382209	0.000794593	0	0	0	
0.135333	-0.00359111	-0.0239334	0.000408796	0.00082242	0	0	0	
0.1355	0.00474814	0.0228576	0.000428741	0.00085049	0	0	0	
0.135667	-0.0116442	-0.0193794	0.000447635	0.000836102	0	0	0	
0.135833	0.0125156	0.0136155	0.000485947	0.000827936	0	0	0	
0.136	-0.0104886	-0.017455	0.000485747	0.000824087	0	0	0	
0.136167	0.00666306	0.0113845	0.000442067	0.000845684	0	0	0	
0.136333	-0.00559443	-0.00982938	0.000401157	0.000817664	0	0	0	
0.1365	0.00876256	0.00771246	0.000400446	0.000745601	0	0	0	
0.136667	-0.00752294	-0.0130162	0.000407563	0.00064434	0	0	0	
0.136833	0.00190146	0.0118082	0.000408268	0.000591004	0	0	0	
0.137	-0.00676993	-0.00922187	0.000417643	0.000599514	0	0	0	
0.137167	0.00843541	0.0098063	0.00043105	0.000683583	0	0	0	
0.137333	-0.00405459	-0.0142625	0.000421846	0.00076229	0	0	0	
0.1375	0.00533554	0.0236058	0.000408239	0.00078646	0	0	0	
0.137667	-0.00716054	-0.0299302	0.000410012	0.000782741	0	0	0	
0.137833	0.00687724	0.0192793	0.000418114	0.000768146	0	0	0	
0.138	-0.00787656	-0.0124146	0.000420033	0.000721506	0	0	0	
0.138167	0.00921623	0.0101361	0.000417388	0.000672567	0	0	0	
0.138333	-0.00734669	-0.0151161	0.000395891	0.000678706	0	0	0	
0.1385	0.0028226	0.0195615	0.000369054	0.000767271	0	0	0	
0.138667	-0.0044582	-0.0232856	0.00036522	0.000840299	0	0	0	
0.138833	0.00535338	0.0173723	0.000400159	0.00083496	0	0	0	
0.139	-0.00523097	-0.0231616	0.000427446	0.00076252	0	0	0	
0.139167	0.00593598	0.0182308	0.000426998	0.000709608	0	0	0	
0.139333	-0.00930508	-0.0146451	0.000417719	0.00066966	0	0	0	
0.1395	0.00793078	0.0126225	0.000421394	0.000661493	0	0	0	
0.139667	-0.00682578	-0.0120114	0.000399804	0.000673816	0	0	0	
0.139833	0.00300471	0.0130695	0.000366105	0.000727226	0	0	0	
0.14	-0.00296597	-0.0189942	0.000345923	0.000790874	0	0	0	
0.140167	0.00258832	0.0188143	0.000362394	0.00083147	0	0	0	
0.140333	-0.00771187	-0.0216974	0.000380657	0.000864313	0	0	0	
0.1405	0.00542286	0.0332412	0.000389413	0.000912245	0	0	0	
0.140667	-0.00467309	-0.0375116	0.000387464	0.000962073	0	0	0	
0.140833	0.00632911	0.0325815	0.000420038	0.00092545	0	0	0	
0.141	-0.0125098	-0.0227452	0.000471224	0.000820073	0	0	0	
0.141167	0.00830432	0.00927753	0.000491506	0.000677166	0	0	0	
0.141333	-0.00813417	-0.00782375	0.000436577	0.000611265	0	0	0	
0.1415	0.00413376	0.0100042	0.000366707	0.000599675	0	0	0	
0.141667	-0.000518817	-0.013818	0.000345695	0.000657757	0	0	0	
0.141833	0.00243524	0.0159522	0.000366655	0.000775	0	0	0	
0.142	-0.00152175	-0.0178502	0.000392368	0.000880251	0	0	0	
0.142167	0.00383426	0.0124838	0.000427872	0.000907738	0	0	0	
0.142333	-0.0118757	-0.0170994	0.000460675	0.00083049	0	0	0	
0.1425	0.00928721	0.0220583	0.000467055	0.000732058	0	0	0	
0.142667	-0.00318691	-0.0119196	0.000423432	0.000638885	0	0	0	
0.142833	0.00703707	0.0104796	0.000373667	0.000577153	0	0	0	
0.143	-0.00530624	-0.00579569	0.000352773	0.000592825	0	0	0	
0.143167	0.00523416	0.0132163	0.000352432	0.000661773	0	0	0	
0.143333	-0.00798431	-0.0174407	0.000378075	0.000750774	0	0	0	
0.1435	0.00669567	0.0277241	0.000415781	0.000791208	0	0	0	
0.143667	-0.00607458	-0.0243302	0.000442523	0.000808508	0	0	0	
0.143833	0.00685492	0.023273	0.000435003	0.000763693	0	0	0	
0.144	-0.00579115	-0.010372	0.000408052	0.000681383	0	0	0	
0.144167	0.00544659	0.00992253	0.000394266	0.000574613	0	0	0	
0.144333	-0.00904327	-0.0100036	0.000396314	0.000563221	0	0	0	
0.1445	0.00284642	0.0122178	0.000403421	0.000635395	0	0	0	
0.144667	-0.00273759	-0.0107143	0.00040073	0.000745294	0	0	0	
0.144833	0.00503305	0.0125402	0.000411629	0.000786547	0	0	0	
0.145	-0.00505795	-0.011347	0.000440937	0.000763086	0	0	0	
0.145167	0.00881948	0.0125754	0.000469779	0.000727057	0	0	0	
0.145333	-0.00740301	-0.0190686	0.000462669	0.000735227	0	0	0	
0.1455	0.00712029	0.0235164	0.000417483	0.00078013	0	0	0	
0.145667	-0.00380089	-0.0204177	0.000399618	0.000808134	0	0	0	
0.145833	0.0066545	0.0141774	0.000399238	0.000773169	0	0	0	
0.146	-0.000935752	-0.0151942	0.000399604	0.000702159	0	0	0	
0.146167	0.000558972	0.019213	0.000387603	0.00065319	0	0	0	
0.146333	-0.00509665	-0.0243085	0.000401749	0.000653131	0	0	0	
0.1465	0.00945578	0.0194482	0.000431996	0.000690682	0	0	0	
0.146667	-0.00522504	-0.010175	0.000446985	0.000719624	0	0	0	
0.146833	0.0076439	0.00750409	0.000423054	0.000734319	0	0	0	
0.147	-0.00501562	-0.0139295	0.000400657	0.000726723	0	0	0	
0.147167	0.0052853	0.0152002	0.000385802	0.000739028	0	0	0	
0.147333	-0.00600831	-0.0149446	0.000379773	0.000760761	0	0	0	
0.1475	0.00575983	0.0171778	0.000367454	0.000760532	0	0	0	
0.147667	-0.00547785	-0.0193202	0.000362522	0.000726067	0	0	0	
0.147833	0.00642405	0.022616	0.000380688	0.000686608	0	0	0	
0.148	-0.00412141	-0.021103	0.000399417	0.000673718	0	0	0	
0.148167	0.00770342	0.01608	0.000403424	0.00067416	0	0	0	
0.148333	-0.00697228	-0.0156591	0.000401032	0.000677524	0	0	0	
0.1485	0.0074596	0.0192233	0.000400202	0.000671605	0	0	0	
0.148667	-0.00733446	-0.0223784	0.000412367	0.000693236	0	0	0	
0.148833	0.00684789	0.0233763	0.000423152	0.000744894	0	0	0	
0.149	-0.00636493	-0.0189021	0.000420874	0.000802996	0	0	0	
0.149167	0.00611383	0.0161544	0.000411791	0.000799607	0	0	0	
0.149333	-0.00781053	-0.0150683	0.000397159	0.000751784	0	0	0	
0.1495	0.00527615	0.0130993	0.000387155	0.000713161	0	0	0	
0.149667	-0.00285122	-0.0178715	0.000373345	0.000736035	0	0	0	
0.149833	0.00253824	0.017428	0.000364277	0.000802799	0	0	0	
0.15	-0.00719324	-0.0163703	0.000364839	0.000838108	0	0	0	
0.150167	0.00423887	0.0189377	0.00037401	0.000821425	0	0	0	
0.150333	-0.00433731	-0.0213499	0.000368597	0.000785968	0	0	0	
0.1505	0.00301313	0.019502	0.000372666	0.000787834	0	0	0	
0.150667	-0.00735693	-0.0130417	0.000394367	0.000800155	0	0	0	
0.150833	0.0080394	0.0121038	0.000422338	0.000782406	0	0	0	
0.151	-0.00807166	-0.014078	0.000435744	0.000740094	0	0	0	
0.151167	0.00705059	0.0220638	0.000442876	0.000723767	0	0	0	
0.151333	-0.00559293	-0.0267896	0.000448817	0.000765564	0	0	0	
0.1515	0.00515122	0.0249081	0.000428683	0.000805757	0	0	0	
0.151667	-0.00487794	-0.0188864	0.000388323	0.000758304	0	0	0	
0.151833	0.0008176	0.0167425	0.00036409	0.000649011	0	0	0	
0.152	-0.00327178	-0.0119659	0.000372705	0.00058434	0	0	0	
0.152167	0.00349449	0.0102828	0.000394619	0.000622539	0	0	0	
0.152333	-0.00347273	-0.0064554	0.000394572	0.000707266	0	0	0	
0.1525	0.00490123	0.0124591	0.000368455	0.000792367	0	0	0	
0.152667	-0.00403659	-0.0292416	0.000347866	0.000881362	0	0	0	
0.152833	0.00310279	0.0311154	0.000352583	0.000976333	0	0	0	
0.153	-0.00531827	-0.0229601	0.000371753	0.000975771	0	0	0	
0.153167	0.00459765	0.0200141	0.00038771	0.000864626	0	0	0	
0.153333	-0.00696581	-0.0170532	0.000400291	0.000694438	0	0	0	
0.1535	0.00842409	0.014869	0.000414765	0.000607529	0	0	0	
0.153667	-0.00486305	-0.0167681	0.000405574	0.000649645	0	0	0	
0.153833	0.00328866	0.0171583	0.000375111	0.000768882	0	0	0	
0.154	-0.0126807	-0.0316499	0.000374714	0.000868137	0	0	0	
0.154167	0.0145617	0.045136	0.00046104	0.00101388	0	0	0	
0.154333	-0.0116323	-0.0290537	0.000530413	0.00105968	0	0	0	
0.1545	0.0065978	0.0192836	0.000527706	0.00100363	0	0	0	
0.154667	-0.00429506	-0.0102995	0.000442286	0.000820042	0	0	0	
0.154833	0.0043264	0.0135688	0.000385359	0.000687097	0	0	0	
0.155	-0.00307639	-0.0168772	0.00038331	0.000703323	0	0	0	
0.155167	-0.00347024	0.0117293	0.000450298	0.000853867	0	0	0	
0.155333	0.00279879	-0.0063816	0.000540329	0.00101913	0	0	0	
0.1555	0.00493531	0.0184534	0.000582693	0.00105935	0	0	0	
0.155667	-0.00544446	-0.0147672	0.000541671	0.000963338	0	0	0	
0.155833	0.002722	0.0184517	0.000461273	0.000834607	0	0	0	
0.156	-0.00540921	-0.0133981	0.000413857	0.000809612	0	0	0	
0.156167	0.00299705	0.0204896	0.000399979	0.000814062	0	0	0	
0.156333	-0.00505955	-0.0186959	0.000399126	0.000827578	0	0	0	
0.1565	0.00637657	0.0153186	0.000398433	0.000783548	0	0	0	
0.156667	-0.00502105	-0.00805812	0.000394762	0.000739166	0	0	0	
0.156833	0.000635381	0.0145503	0.000398739	0.000710187	0	0	0	
0.157	-0.00574216	-0.015051	0.000401088	0.000725954	0	0	0	
0.157167	0.00339608	0.0217286	0.000397255	0.000741973	0	0	0	
0.157333	-4.89782E-05	-0.003833	0.000384663	0.000740761	0	0	0	
0.1575	0.0032218	0.00352606	0.000373361	0.00068008	0	0	0	
0.157667	-0.00706735	-0.00361783	0.000363025	0.000677457	0	0	0	
0.157833	0.00213817	0.00906095	0.000367785	0.000748646	0	0	0	
0.158	-0.00477143	-0.0127916	0.000393306	0.000870647	0	0	0	
0.158167	0.00749243	0.0181142	0.000439091	0.000927057	0	0	0	
0.158333	-0.00892394	-0.0210763	0.00045657	0.000903122	0	0	0	
0.1585	0.00739286	0.0297418	0.000409865	0.00082932	0	0	0	
0.158667	0.00170724	-0.0183687	0.000343618	0.000733241	0	0	0	
0.158833	0.0172478	-0.0153657	0.000500566	0.000512103	0	0	0	
0.159	-0.0803652	0.0648764	0.000864277	0.000500687	0	0	0	
0.159167	0.0419109	-0.0090264	0.00123481	0.00104848	0	0	0	
0.159333	0.361618	-0.4429	0.00337558	0.00339338	0	0	0	
0.1595	-0.042891	0.220982	0.00696045	0.00757549	0	0	0	
0.159667	0.156152	-0.172599	0.00808356	0.00897174	0	0	0	
0.159833	-0.0466101	0.0853158	0.00609616	0.00742307	0	0	0	
0.16	-0.0258164	0.028959	0.00268639	0.0032335	0	0	0	
0.160167	0.0932807	-0.0750915	0.00172479	0.00143615	0	0	0	
0.160333	-0.198163	0.10723	0.00198174	0.00109954	0	0	0	
0.1605	0.734536	-0.556106	0.00463494	0.00385816	0	0	0	
0.160667	-0.185849	0.201515	0.0065402	0.00628199	0	0	0	
0.160833	0.00401324	0.000712726	0.00672044	0.00724667	0	0	0	
0.161	0.0146101	0.00237944	0.00349973	0.00482081	0	0	0	
0.161167	0.041339	-0.00275077	0.00138906	0.00216976	0	0	0	
0.161333	-0.0367988	0.0029075	0.000792006	0.000719204	0	0	0	
0.1615	-0.00864564	0.0227977	0.00103698	0.000675335	0	0	0	
0.161667	0.0274847	-0.0350041	0.00106318	0.00125499	0	0	0	
0.161833	-0.0353533	0.019581	0.000935769	0.0016915	0	0	0	
0.162	0.0121898	-0.00776434	0.000876403	0.00138317	0	0	0	
0.162167	0.00831371	0.0116656	0.000694912	0.000861735	0	0	0	
0.162333	-0.0113592	-0.016436	0.000753739	0.000656498	0	0	0	
0.1625	0.0439586	-0.0124526	0.000816913	0.000770645	0	0	0	
0.162667	0.0896887	-0.0372365	0.00131424	0.00102423	0	0	0	
0.162833	-0.280161	0.118751	0.00258839	0.0017077	0	0	0	
0.163	0.0598315	-0.067789	0.0032043	0.00237804	0	0	0	
0.163167	0.00773866	0.00324156	0.00284646	0.00219281	0	0	0	
0.163333	-0.00783995	0.00559702	0.00153303	0.00139264	0	0	0	
0.1635	-0.0121655	0.000211593	0.000703452	0.000660681	0	0	0	
0.163667	0.121739	-0.075927	0.000875811	0.000652389	0	0	0	
0.163833	-0.130769	0.169232	0.00143915	0.00127226	0	0	0	
0.164	-0.0192653	-0.092788	0.00246847	0.00226421	0	0	0	
0.164167	-0.0252189	0.0531461	0.00222562	0.00272716	0	0	0	
0.164333	0.0117772	-0.0189676	0.00159728	0.00236111	0	0	0	
0.1645	0.00653701	0.0131052	0.000678441	0.00136619	0	0	0	
0.164667	0.00694413	-0.0179929	0.000490732	0.000952415	0	0	0	
0.164833	-0.020265	0.038736	0.000564272	0.000781566	0	0	0	
0.165	0.0533167	-0.0396631	0.000820958	0.000681663	0	0	0	
0.165167	-0.0168472	0.0130959	0.0012389	0.000618228	0	0	0	
0.165333	-0.0129627	0.0216415	0.0014209	0.000472383	0	0	0	
0.1655	0.0191785	0.00699936	0.00116979	0.000505559	0	0	0	
0.165667	-0.0101874	-0.0113259	0.000741042	0.000557877	0	0	0	
0.165833	0.00284358	0.0140078	0.000435967	0.000805354	0	0	0	
0.166	0.023004	-0.0224048	0.000304909	0.000928775	0	0	0	
0.166167	-0.0288479	0.0355444	0.000536362	0.000910105	0	0	0	
0.166333	0.0214846	-0.0207442	0.00062282	0.00082197	0	0	0	
0.1665	-0.00290516	0.0268089	0.000736923	0.000693506	0	0	0	
0.166667	0.000293183	-0.0186211	0.000542897	0.000728718	0	0	0	
0.166833	-0.00421184	0.0216695	0.000530973	0.000798357	0	0	0	
0.167	0.000554115	-0.0180589	0.000478152	0.000879667	0	0	0	
0.167167	0.00348236	0.0139784	0.000485281	0.000745413	0	0	0	
0.167333	-0.00213445	-0.0141102	0.000525243	0.000569614	0	0	0	
0.1675	0.00569101	0.0107475	0.000529102	0.000471781	0	0	0	
0.167667	-0.00505426	-0.00540495	0.00048203	0.000516071	0	0	0	
0.167833	0.00407059	0.00573676	0.000415469	0.000637968	0	0	0	
0.168	-0.00528456	-0.00427521	0.000365371	0.000786502	0	0	0	
0.168167	0.000952432	0.0114901	0.000331185	0.000897636	0	0	0	
0.168333	0.000959509	-0.0138328	0.000327212	0.000935624	0	0	0	
0.1685	0.00113054	0.019082	0.000361159	0.000897615	0	0	0	
0.168667	-0.00296537	-0.0151565	0.000410597	0.000864078	0	0	0	
0.168833	0.00738282	0.0138795	0.000459332	0.000840874	0	0	0	
0.169	-0.0156542	-0.0104817	0.000483293	0.00084361	0	0	0	
0.169167	0.0113655	0.00977658	0.000464255	0.000804165	0	0	0	
0.169333	-0.000901028	-0.00839582	0.000370719	0.000710239	0	0	0	
0.1695	0.00011786	-0.00394056	0.000289032	0.000600286	0	0	0	
0.169667	-0.00187528	0.00908279	0.000291383	0.000611326	0	0	0	
0.169833	0.00235366	-0.00172577	0.000370288	0.000818478	0	0	0	
0.17	-0.00544375	-0.0149518	0.000458079	0.00108729	0	0	0	
0.170167	0.00960114	0.0283027	0.000512306	0.00120337	0	0	0	
0.170333	-0.0115102	-0.0392564	0.000527633	0.00112962	0	0	0	
0.1705	0.00296544	0.0301184	0.000481578	0.000965207	0	0	0	
0.170667	0.00159917	-0.00542866	0.00039524	0.000712183	0	0	0	
0.170833	0.00188738	-0.0153705	0.000367007	0.000464002	0	0	0	
0.171	-0.00687694	0.0244998	0.000427648	0.000418318	0	0	0	
0.171167	0.0066539	-0.00815426	0.000509169	0.000615733	0	0	0	
0.171333	-0.00690898	-0.0141505	0.0005188	0.000918353	0	0	0	
0.1715	0.00195649	0.0161075	0.000464149	0.00104906	0	0	0	
0.171667	-0.00371841	-0.0131934	0.000398319	0.00104854	0	0	0	
0.171833	0.00244486	0.0154172	0.000369451	0.000964781	0	0	0	
0.172	0.000713488	-0.0181486	0.000369455	0.00087717	0	0	0	
0.172167	-0.00331173	0.0144563	0.000397149	0.000795299	0	0	0	
0.172333	-0.000772942	-0.0152051	0.000432141	0.000725542	0	0	0	
0.1725	0.00170814	0.00765754	0.000458995	0.000681166	0	0	0	
0.172667	-0.0022407	-0.00755367	0.000469662	0.000664206	0	0	0	
0.172833	0.0015562	0.00837279	0.000467171	0.000674301	0	0	0	
0.173	-0.0041388	-0.012654	0.000448115	0.0006932	0	0	0	
0.173167	0.00124745	0.00664813	0.000422531	0.00072853	0	0	0	
0.173333	-0.000240606	-0.00795974	0.00040393	0.000747945	0	0	0	
0.1735	-0.000132617	0.00817138	0.000406511	0.000747606	0	0	0	
0.173667	-0.0017043	-0.0110923	0.000417977	0.000739648	0	0	0	
0.173833	0.00177493	0.0109833	0.000421035	0.000743154	0	0	0	
0.174	-0.00288005	-0.00736833	0.00041118	0.000733508	0	0	0	
0.174167	0.00398695	-0.0024487	0.000400098	0.000698158	0	0	0	
0.174333	-0.00372625	0.00169319	0.000381457	0.000673327	0	0	0	
0.1745	-0.000489274	0.00387955	0.000350189	0.000702619	0	0	0	
0.174667	-0.00254826	-0.00962927	0.000331259	0.000777967	0	0	0	
0.174833	0.00247246	0.00664931	0.00034905	0.000837845	0	0	0	
0.175	-0.000799141	-0.00793409	0.000387072	0.000834142	0	0	0	
0.175167	0.00342913	0.0083546	0.000425874	0.000770526	0	0	0	
0.175333	-0.0051431	-0.0115639	0.000450286	0.000670463	0	0	0	
0.1755	0.0043929	0.00827762	0.000442974	0.000605712	0	0	0	
0.175667	-0.00322486	-0.00272408	0.000405775	0.000611029	0	0	0	
0.175833	0.000336254	0.00646322	0.000388013	0.000675174	0	0	0	
0.176	-0.00193137	-0.0102473	0.000408727	0.000720165	0	0	0	
0.176167	0.00205109	0.0172415	0.000423768	0.000708506	0	0	0	
0.176333	-0.00124457	-0.0101642	0.000405688	0.000691126	0	0	0	
0.1765	0.00157967	0.00422468	0.000388564	0.000693656	0	0	0	
0.176667	-0.00433562	-0.00278496	0.000391749	0.000723423	0	0	0	
0.176833	0.00199862	0.0133818	0.000392756	0.000725863	0	0	0	
0.177	-0.00163751	-0.0122654	0.000376191	0.000735288	0	0	0	
0.177167	0.000106615	0.0129642	0.000364679	0.00074976	0	0	0	
0.177333	-0.00334044	-0.00609449	0.00037193	0.000785143	0	0	0	
0.1775	0.00284577	0.00622257	0.000391858	0.000778308	0	0	0	
0.177667	-0.00166172	-0.00724211	0.000407389	0.000737177	0	0	0	
0.177833	0.00243527	0.0120385	0.000418372	0.000685794	0	0	0	
0.178	-0.00367307	-0.00707575	0.000417619	0.000695036	0	0	0	
0.178167	0.00054315	0.00639166	0.000395512	0.00075121	0	0	0	
0.178333	-0.00397415	-0.0108546	0.00036346	0.000813442	0	0	0	
0.1785	4.00593E-05	0.0131053	0.000352687	0.000827796	0	0	0	
0.178667	-0.000930474	-0.00890088	0.00036038	0.000813414	0	0	0	
0.178833	0.00171236	0.0125755	0.000371308	0.000793779	0	0	0	
0.179	-0.00343664	-0.00938031	0.000383385	0.000792693	0	0	0	
0.179167	0.00200915	0.00712704	0.00040598	0.000784601	0	0	0	
0.179333	-0.0045155	-0.0106675	0.000422153	0.000771469	0	0	0	
0.1795	0.00350908	0.0104182	0.000424677	0.000756582	0	0	0	
0.179667	-0.0025446	-0.00838627	0.000416139	0.00074893	0	0	0	
0.179833	0.00441254	0.00568498	0.000408111	0.000735969	0	0	0	
0.18	-0.00274113	-0.0060259	0.000396928	0.000716383	0	0	0	
0.180167	0.00062419	0.0039557	0.000386015	0.0007236	0	0	0	
0.180333	-0.000128628	-0.00811685	0.000386438	0.000758739	0	0	0	
0.1805	-0.00124699	0.00736374	0.000394692	0.000798943	0	0	0	
0.180667	0.00186732	-0.0155205	0.000402663	0.000805311	0	0	0	
0.180833	0.00126319	0.0124019	0.00040181	0.000800797	0	0	0	
0.181	-0.00290073	-0.00950099	0.000397084	0.000782655	0	0	0	
0.181167	0.000700131	0.00568789	0.000399878	0.000768964	0	0	0	
0.181333	-0.00313389	-0.00589646	0.000406665	0.000746972	0	0	0	
0.1815	2.75209E-05	0.0063777	0.000401604	0.000741094	0	0	0	
0.181667	0.000436394	-0.0127818	0.000384839	0.000747505	0	0	0	
0.181833	0.00192096	0.00822382	0.000379952	0.000768534	0	0	0	
0.182	-0.00307998	-0.00823233	0.00039617	0.000770649	0	0	0	
0.182167	0.00141308	0.00613695	0.000414884	0.000771694	0	0	0	
0.182333	-0.00433613	-0.00759516	0.000413028	0.000767097	0	0	0	
0.1825	-0.000337115	0.00429566	0.0004065	0.000770532	0	0	0	
0.182667	-0.000232436	-0.0115479	0.000396613	0.000755438	0	0	0	
0.182833	0.000165207	0.00954888	0.000384205	0.000749912	0	0	0	
0.183	-0.00111035	-0.0102819	0.000375045	0.000756431	0	0	0	
0.183167	0.00242081	0.00363471	0.000391282	0.000780039	0	0	0	
0.183333	-0.00426597	-0.00273844	0.00042123	0.000755262	0	0	0	
0.1835	0.00169403	0.00535446	0.000434777	0.000703697	0	0	0	
0.183667	-0.0011064	-0.0116711	0.000417346	0.000664709	0	0	0	
0.183833	0.000587939	0.00806281	0.000390974	0.000695755	0	0	0	
0.184	-0.00137715	-0.00532519	0.000380029	0.00075152	0	0	0	
0.184167	0.000763199	0.00667721	0.000395543	0.000784227	0	0	0	
0.184333	-0.000468458	-0.0113625	0.000425756	0.000775984	0	0	0	
0.1845	-0.000180995	0.0138117	0.000444168	0.00076868	0	0	0	
0.184667	-0.0011699	-0.0114253	0.000440767	0.000760556	0	0	0	
0.184833	-0.00110398	0.00805395	0.000426869	0.000745923	0	0	0	
0.185	-0.000359816	-0.00504158	0.000412938	0.000721523	0	0	0	
0.185167	0.00124085	0.00535292	0.000396362	0.000726006	0	0	0	
0.185333	-0.000377872	-0.00826998	0.0003707	0.000763603	0	0	0	
0.1855	0.000245595	0.0109052	0.000356788	0.000804465	0	0	0	
0.185667	7.79012E-05	-0.0162945	0.000376108	0.000807526	0	0	0	
0.185833	-0.0005683	0.00910961	0.000407172	0.000781314	0	0	0	
0.186	-0.00132597	-0.00361754	0.000408939	0.00073716	0	0	0	
0.186167	0.00343803	0.00486404	0.000385789	0.000732214	0	0	0	
0.186333	-0.00379938	-0.00789384	0.000369979	0.000770073	0	0	0	
0.1865	0.00140429	0.0109932	0.000368697	0.000844825	0	0	0	
0.186667	0.0021949	-0.01454	0.000363378	0.000907852	0	0	0	
0.186833	-0.0018301	0.00667831	0.000372442	0.000922748	0	0	0	
0.187	-0.00302401	-0.0057261	0.000416359	0.000876188	0	0	0	
0.187167	0.00218077	0.00859203	0.00045928	0.000791583	0	0	0	
0.187333	-0.00193998	-0.0100713	0.000446883	0.000730518	0	0	0	
0.1875	-0.00154638	0.00799452	0.000390038	0.000737135	0	0	0	
0.187667	-0.00195785	-0.00206541	0.000356234	0.000747706	0	0	0	
0.187833	0.00243	-0.0103732	0.000383721	0.000701115	0	0	0	
0.188	-0.00315087	0.00643948	0.000432995	0.000650867	0	0	0	
0.188167	0.000609932	-0.00793588	0.000441787	0.000737439	0	0	0	
0.188333	-0.00282508	-0.00975743	0.000402378	0.000946059	0	0	0	
0.1885	-0.000786284	0.0150611	0.000363605	0.00114244	0	0	0	
0.188667	0.000337137	-0.020152	0.000360929	0.00116207	0	0	0	
0.188833	-0.00170027	0.0280299	0.000389548	0.00102566	0	0	0	
0.189	0.00285228	-0.0221913	0.000428045	0.000825247	0	0	0	
0.189167	0.000946047	-0.00541485	0.000457465	0.00063898	0	0	0	
0.189333	-0.00115267	0.0110667	0.000454355	0.000531886	0	0	0	
0.1895	-0.00270714	-0.0093844	0.000417955	0.000546862	0	0	0	
0.189667	0.000401988	-0.00225104	0.000383647	0.000667472	0	0	0	
0.189833	0.000742891	0.00991535	0.000381051	0.000826486	0	0	0	
0.19	-0.00159549	-0.00785808	0.000391311	0.000926999	0	0	0	
0.190167	0.000250376	0.00217818	0.000392605	0.000937166	0	0	0	
0.190333	-0.000609855	-0.00149787	0.000384874	0.00086171	0	0	0	
0.1905	0.000220851	0.00674807	0.000381088	0.000762619	0	0	0	
0.190667	-0.00181945	-0.0115625	0.000385087	0.000734771	0	0	0	
0.190833	0.0033091	0.00523724	0.000395449	0.000781907	0	0	0	
0.191	-0.00427228	-0.00729297	0.00040218	0.000832425	0	0	0	
0.191167	-0.000947518	0.0124122	0.000391871	0.000818723	0	0	0	
0.191333	0.00268552	-0.0105061	0.000376851	0.000724621	0	0	0	
0.1915	0.00335274	0.000374375	0.000384349	0.000575606	0	0	0	
0.191667	-0.00660318	0.00937071	0.000408085	0.000469772	0	0	0	
0.191833	0.00130457	-0.0122414	0.000418732	0.000516486	0	0	0	
0.192	0.00128693	-0.00340647	0.000403983	0.000684536	0	0	0	
0.192167	-0.00145208	0.0159876	0.000390678	0.000841644	0	0	0	
0.192333	0.00218109	-0.0162422	0.000377259	0.000885432	0	0	0	
0.1925	-0.00411365	0.00859567	0.000376355	0.000801118	0	0	0	
0.192667	0.00549732	-0.00400304	0.000414816	0.000670737	0	0	0	
0.192833	-0.0203323	-0.0118858	0.000484357	0.000602541	0	0	0	
0.193	-0.0559823	-0.0365542	0.000802479	0.000706011	0	0	0	
0.193167	-0.0166242	-0.0205146	0.000889814	0.000942893	0	0	0	
0.193333	0.0528911	0.0435634	0.00108409	0.00112896	0	0	0	
0.1935	-0.0290766	-0.0247077	0.00101776	0.00106067	0	0	0	
0.193667	0.0202395	0.00951825	0.0010086	0.000917272	0	0	0	
0.193833	-0.0272305	0.0246268	0.000979086	0.000820849	0	0	0	
0.194	0.00252737	-0.0136121	0.000885581	0.000915574	0	0	0	
0.194167	0.00103787	0.0298957	0.000846854	0.000945426	0	0	0	
0.194333	-0.0013576	-0.0322503	0.000593414	0.000923017	0	0	0	
0.1945	0.0048525	0.0202349	0.000349519	0.000791028	0	0	0	
0.194667	0.0015541	-0.0136708	0.000153736	0.000615156	0	0	0	
0.194833	-0.00813793	0.0338506	9.61411E-05	0.00047709	0	0	0	
0.195	0.00938002	-0.0360175	0.000187559	0.000603742	0	0	0	
0.195167	-0.00431495	0.0336611	0.00034879	0.000797043	0	0	0	
0.195333	-0.00454489	-0.0205654	0.000440181	0.000898771	0	0	0	
0.1955	0.00595035	0.00727444	0.000395935	0.000643726	0	0	0	
0.195667	-0.0014995	-0.00117222	0.000252128	0.000380284	0	0	0	
0.195833	-0.00157017	-0.0012482	0.000125526	0.000157099	0	0	0	
0.196	-0.000670451	-0.00328735	6.76347E-05	9.28547E-05	0	0	0	
0.196167	-0.000844172	-0.00735176	0.000116234	0.000153273	0	0	0	
0.196333	-0.00417606	0.00873812	0.000220541	0.000327784	0	0	0	
0.1965	0.00166343	-0.0214616	0.00030152	0.000570478	0	0	0	
0.196667	-0.000577134	0.00861952	0.000277357	0.000649575	0	0	0	
0.196833	-0.000266726	-0.0024997	0.000175409	0.000534972	0	0	0	
0.197	-0.000220429	0.00254616	8.28233E-05	0.000346154	0	0	0	
0.197167	-0.00390081	-0.00851513	0.000107987	0.000357104	0	0	0	
0.197333	0.00203175	-0.000816404	0.000237713	0.00058643	0	0	0	
0.1975	0.00446855	0.00903851	0.000375314	0.000839781	0	0	0	
0.197667	-0.00446743	-0.00967152	0.00040607	0.000872046	0	0	0	
0.197833	0.00159279	0.00636508	0.000300121	0.000642015	0	0	0	
0.198	0.00241096	0.00280471	0.000155715	0.000348439	0	0	0	
0.198167	-0.00660749	-0.0047444	0.000113961	0.000252069	0	0	0	
0.198333	0.00543003	-0.000347733	0.000209692	0.000429911	0	0	0	
0.1985	0.00262723	0.0136597	0.000345391	0.000703274	0	0	0	
0.198667	0.00093022	-0.0087061	0.000409804	0.000836345	0	0	0	
0.198833	0.00127185	0.00646695	0.000354063	0.00070046	0	0	0	
0.199	0.000383262	-0.00143434	0.000222777	0.000439655	0	0	0	
0.199167	-0.00364102	0.00866853	0.000108206	0.000237927	0	0	0	
0.199333	0.00490424	-0.0165164	0.000108172	0.000295551	0	0	0	
0.1995	-0.00443205	0.0118443	0.000229152	0.000509931	0	0	0	
0.199667	-0.000750308	-0.00570123	0.000353146	0.000675442	0	0	0	
0.199833	0.00206166	0.00374794	0.000372136	0.000614424	0	0	0	
0.2	-0.00035665	-0.00112248	0.000263554	0.000385179	0	0	0	
0.200167	-0.00173478	-0.00237205	0.00013452	0.000172343	0	0	0	
0.200333	0.00249281	0.00451038	0.00010245	0.000135665	0	0	0	
0.2005	-0.00601732	-0.00799116	0.000194959	0.000297775	0	0	0	
0.200667	0.00215157	-0.00145506	0.000321271	0.000514788	0	0	0	
0.200833	-0.0002441	0.00541307	0.000387842	0.000643681	0	0	0	
0.201	-0.00208701	-0.00297248	0.000339243	0.000593158	0	0	0	
0.201167	-4.81468E-05	0.00270169	0.000217275	0.000424151	0	0	0	
0.201333	0.00169133	-0.00180363	0.000105111	0.000260978	0	0	0	
0.2015	-0.00446259	0.00296736	0.000101491	0.000239671	0	0	0	
0.201667	0.00315067	-0.006865	0.000204479	0.00038245	0	0	0	
0.201833	-0.0027022	0.00845846	0.000321153	0.000568354	0	0	0	
0.202	-0.000141719	-0.00662128	0.000347809	0.000630022	0	0	0	
0.202167	0.00028495	0.0031037	0.000265662	0.000501545	0	0	0	
0.202333	-0.000186593	-9.10222E-05	0.000152109	0.000310353	0	0	0	
0.2025	-0.000674044	0.00598356	0.000109777	0.000251264	0	0	0	
0.202667	0.00379134	-0.0102467	0.000175156	0.000373724	0	0	0	
0.202833	-0.00774722	0.00497372	0.000308289	0.000535554	0	0	0	
0.203	0.00139683	-0.00410401	0.000418035	0.000583884	0	0	0	
0.203167	0.00317113	0.000765999	0.000428058	0.000495997	0	0	0	
0.203333	-0.0032173	0.00177525	0.000316945	0.000334603	0	0	0	
0.2035	0.00161478	-0.00344186	0.000174378	0.000224008	0	0	0	
0.203667	0.00179393	0.00169793	0.000104596	0.000278304	0	0	0	
0.203833	-0.00673461	0.00423214	0.00016812	0.000494654	0	0	0	
0.204	0.0042818	-0.0177927	0.000323179	0.000681551	0	0	0	
0.204167	-0.0129526	0.013695	0.00048999	0.000694256	0	0	0	
0.204333	0.000493329	-0.00173921	0.000482649	0.000504263	0	0	0	
0.2045	0.000261701	-0.0069125	0.000346423	0.000297029	0	0	0	
0.204667	-0.00152804	0.00240022	0.000187119	0.000239459	0	0	0	
0.204833	-0.00874548	0.00658486	0.000189744	0.000442159	0	0	0	
0.205	0.010852	-0.0275166	0.000281642	0.000731498	0	0	0	
0.205167	-0.0262394	0.0256619	0.000431694	0.000891223	0	0	0	
0.205333	0.00450055	-0.00327183	0.000452123	0.000738322	0	0	0	
0.2055	0.00367927	-0.00430656	0.000387917	0.000426829	0	0	0	
0.205667	-0.00463296	0.00208259	0.000217287	0.000167633	0	0	0	
0.205833	0.00603152	0.00823307	0.000150865	0.00016654	0	0	0	
0.206	-0.00760868	-0.00516655	0.000161125	0.00040605	0	0	0	
0.206167	-0.00564618	0.0123074	0.00020486	0.000673008	0	0	0	
0.206333	0.0152669	-0.00658242	0.000241488	0.000764227	0	0	0	
0.2065	-0.00716777	0.00372886	0.000238795	0.000583028	0	0	0	
0.206667	0.00324119	0.00224748	0.00020568	0.000313466	0	0	0	
0.206833	-0.00166122	0.00144666	0.00013661	0.000211214	0	0	0	
0.207	0.0132637	0.00868432	0.000141488	0.000415362	0	0	0	
0.207167	-0.0146913	-0.00179531	0.000253231	0.000737887	0	0	0	
0.207333	0.0153845	0.000765852	0.000391262	0.000902875	0	0	0	
0.2075	-0.00100323	0.0044412	0.000376358	0.000764617	0	0	0	
0.207667	-0.00278669	-0.00292682	0.000237623	0.000464679	0	0	0	
0.207833	0.00430379	0.00264329	0.000100338	0.000226559	0	0	0	
0.208	-0.00265303	-0.00508587	8.64185E-05	0.00019689	0	0	0	
0.208167	-0.000448452	-0.000731653	9.55331E-05	0.000344291	0	0	0	
0.208333	0.00184504	0.00389042	0.00013061	0.00049686	0	0	0	
0.2085	0.00118034	-0.00126977	0.000122118	0.000511946	0	0	0	
0.208667	-0.00148343	0.00295952	0.00012101	0.000378296	0	0	0	
0.208833	-0.00212029	-0.00531407	7.65562E-05	0.000239386	0	0	0	
0.209	0.006774	-0.00102667	5.74307E-05	0.000254177	0	0	0	
0.209167	-0.0133206	-0.00907425	0.000111929	0.000473072	0	0	0	
0.209333	0.00828122	0.00326099	0.000224934	0.000742883	0	0	0	
0.2095	-0.00121139	0.00378158	0.000339442	0.00089993	0	0	0	
0.209667	-0.0008083	-0.00333718	0.000364534	0.000814927	0	0	0	
0.209833	0.00486318	0.00269773	0.000282179	0.000551025	0	0	0	
0.21	-0.00229628	0.00264852	0.000162494	0.000288018	0	0	0	
0.210167	-0.00252623	-0.00601803	8.22547E-05	0.000243387	0	0	0	
0.210333	-0.000169494	0.00259301	8.6006E-05	0.000422587	0	0	0	
0.2105	0.000814757	0.00607078	0.000194013	0.000607446	0	0	0	
0.210667	0.000525827	0.00280589	0.000301363	0.000611517	0	0	0	
0.210833	0.00131467	-0.0010524	0.00031474	0.000443314	0	0	0	
0.211	-0.000291223	0.00518918	0.000217048	0.000267973	0	0	0	
0.211167	0.00605897	-0.00169096	0.000139557	0.000212041	0	0	0	
0.211333	8.8794E-05	0.00204098	0.000170402	0.000359588	0	0	0	
0.2115	-0.000754971	0.00824851	0.000254871	0.00061137	0	0	0	
0.211667	0.00180511	-0.0109579	0.000343644	0.000795759	0	0	0	
0.211833	0.000582169	0.0035322	0.000356167	0.000756466	0	0	0	
0.212	0.000858632	-0.00322601	0.000266208	0.000516886	0	0	0	
0.212167	-0.0047748	0.000405068	0.000147806	0.000264102	0	0	0	
0.212333	0.00854945	-0.00191727	0.00015481	0.000170676	0	0	0	
0.2125	-0.00388284	-0.00403029	0.000308302	0.000296621	0	0	0	
0.212667	0.000500459	0.00129536	0.00044815	0.000496313	0	0	0	
0.212833	-0.000714239	-0.00526057	0.000439632	0.000610157	0	0	0	
0.213	-0.00077824	-0.00115224	0.000305012	0.000527778	0	0	0	
0.213167	-0.00142771	-0.00081554	0.000153378	0.000345603	0	0	0	
0.213333	0.00341546	-0.00409286	7.58583E-05	0.000226714	0	0	0	
0.2135	-0.00801735	-0.00346441	0.000118563	0.000297406	0	0	0	
0.213667	0.00100183	-0.000869514	0.000230958	0.000486633	0	0	0	
0.213833	-0.000935212	0.00171103	0.000334419	0.000646758	0	0	0	
0.214	-0.00114024	-0.00143835	0.000335481	0.000638572	0	0	0	
0.214167	0.000434579	0.000954958	0.000235942	0.00046489	0	0	0	
0.214333	0.00258038	0.00394166	0.000118975	0.000259794	0	0	0	
0.2145	-0.00286506	-0.0054677	8.29663E-05	0.000210658	0	0	0	
0.214667	0.00175107	0.00258496	0.000166698	0.000366859	0	0	0	
0.214833	-0.000712943	0.0018995	0.000296029	0.000583125	0	0	0	
0.215	0.00309617	0.00118756	0.000371203	0.000665112	0	0	0	
0.215167	0.0011766	0.00252153	0.000321798	0.000544582	0	0	0	
0.215333	0.000603457	0.000476192	0.000194846	0.000332348	0	0	0	
0.2155	-0.00149801	0.00081155	9.36167E-05	0.000195756	0	0	0	
0.215667	0.00563124	0.00243391	0.000120842	0.000244154	0	0	0	
0.215833	-0.00554071	0.00197004	0.000242991	0.000446624	0	0	0	
0.216	0.00324869	-0.00135987	0.000356756	0.000648116	0	0	0	
0.216167	-0.00053552	0.00437039	0.000362342	0.000678555	0	0	0	
0.216333	0.000310405	-0.000673667	0.000253559	0.000498201	0	0	0	
0.2165	-0.00410425	-0.00456829	0.000135094	0.000274804	0	0	0	
0.216667	0.00662902	0.00449261	0.000106069	0.000245699	0	0	0	
0.216833	-0.00145975	-0.00158814	0.000186378	0.00046441	0	0	0	
0.217	0.00232158	-0.00166409	0.000307903	0.000733856	0	0	0	
0.217167	-0.00555593	0.00166057	0.000371094	0.000817657	0	0	0	
0.217333	7.4346E-05	-0.00312233	0.00032318	0.00064345	0	0	0	
0.2175	-0.000594723	-0.000674346	0.000199661	0.000370825	0	0	0	
0.217667	0.00454947	0.00199041	9.19993E-05	0.000196765	0	0	0	
0.217833	-0.00768492	-0.00632852	9.10054E-05	0.000250159	0	0	0	
0.218	0.0100856	0.00267802	0.00021475	0.000459626	0	0	0	
0.218167	-0.00306213	0.00660656	0.000355954	0.00066125	0	0	0	
0.218333	-0.000861842	-0.00489117	0.000406107	0.000684259	0	0	0	
0.2185	0.000129853	0.00333034	0.000295647	0.00050585	0	0	0	
0.218667	0.003359	0.00202829	0.000150625	0.000273658	0	0	0	
0.218833	-0.00765439	-7.81351E-05	0.000113184	0.000188685	0	0	0	
0.219	0.00530016	-0.00234268	0.000209844	0.000330763	0	0	0	
0.219167	-0.00152382	0.00730301	0.00033232	0.000569338	0	0	0	
0.219333	0.00169249	-9.66664E-05	0.000374134	0.000694298	0	0	0	
0.2195	0.00136281	0.00177701	0.000301803	0.000595267	0	0	0	
0.219667	-0.000228191	0.0010967	0.000177851	0.000368287	0	0	0	
0.219833	-0.000391377	0.00146562	7.64037E-05	0.000197896	0	0	0	
0.22	0.00653941	0.0085569	9.10869E-05	0.000253238	0	0	0	
0.220167	-0.00392891	-0.00414877	0.000204639	0.000512987	0	0	0	
0.220333	-0.00121334	-0.00478923	0.000335493	0.000814365	0	0	0	
0.2205	0.00215801	0.00693237	0.000357216	0.000911586	0	0	0	
0.220667	-0.000917271	-0.00413878	0.000252435	0.00070462	0	0	0	
0.220833	-0.00239914	-0.00202171	0.000117978	0.000378184	0	0	0	
0.221	0.0081487	0.00340709	7.92141E-05	0.000226352	0	0	0	
0.221167	-0.0036109	-0.00633261	0.00014654	0.000372877	0	0	0	
0.221333	-0.00681075	0.00727701	0.000270343	0.000635047	0	0	0	
0.2215	0.00323068	-0.00755666	0.000376877	0.000783804	0	0	0	
0.221667	-0.00228319	-0.00127612	0.000382937	0.000695848	0	0	0	
0.221833	0.00124339	0.00187857	0.000278129	0.00046018	0	0	0	
0.222	-0.00108123	-0.00240835	0.000135203	0.000254315	0	0	0	
0.222167	-0.00306787	-0.00364526	8.62522E-05	0.000260173	0	0	0	
0.222333	0.00860952	0.00071999	0.000178196	0.000434065	0	0	0	
0.2225	-0.0114108	0.0143914	0.000354358	0.000586514	0	0	0	
0.222667	0.00486107	-0.0123387	0.000477893	0.000600817	0	0	0	
0.222833	0.00317519	0.00428349	0.000422873	0.000438159	0	0	0	
0.223	0.00217576	0.00569481	0.000241017	0.000251859	0	0	0	
0.223167	-0.00794316	-0.0133048	0.000102509	0.000175954	0	0	0	
0.223333	0.0130956	0.00792108	0.000114522	0.00032238	0	0	0	
0.2235	-0.010891	-0.00118182	0.000195992	0.000625631	0	0	0	
0.223667	0.0160498	0.000427939	0.000317319	0.000862924	0	0	0	
0.223833	-0.00795885	0.00382335	0.000386929	0.000853976	0	0	0	
0.224	0.00184748	-0.00479775	0.000360151	0.000601588	0	0	0	
0.224167	-0.00893786	0.00770654	0.000242088	0.000333551	0	0	0	
0.224333	0.0133346	-0.010475	0.000181441	0.000304138	0	0	0	
0.2245	-0.00991806	0.00304614	0.000287435	0.000500048	0	0	0	
0.224667	0.0183729	-0.000885528	0.000490254	0.000705938	0	0	0	
0.224833	-0.0114111	-0.000300628	0.000578509	0.000710601	0	0	0	
0.225	0.00177838	-0.00204868	0.000458795	0.000502576	0	0	0	
0.225167	-0.00330951	-0.00298177	0.000237699	0.000263064	0	0	0	
0.225333	0.0102871	0.00511559	0.000105465	0.000184789	0	0	0	
0.2255	-0.0206614	-0.00996137	0.00014738	0.000342272	0	0	0	
0.225667	0.0286315	0.00613957	0.000293822	0.000571495	0	0	0	
0.225833	-0.0145355	-0.00557026	0.000407751	0.000692573	0	0	0	
0.226	0.0028976	-0.000262097	0.000382226	0.000609442	0	0	0	
0.226167	-0.00265132	0.00203709	0.000242835	0.000428484	0	0	0	
0.226333	0.00703793	-0.00630305	0.000121234	0.000268894	0	0	0	
0.2265	-0.00931791	0.00508336	0.000146331	0.000264541	0	0	0	
0.226667	0.00821404	-0.00381472	0.000277217	0.000403506	0	0	0	
0.226833	-0.00502329	-0.000761803	0.000390913	0.000618649	0	0	0	
0.227	0.00385342	0.00244283	0.000403492	0.000697949	0	0	0	
0.227167	-0.000477327	0.000871487	0.00029319	0.000560357	0	0	0	
0.227333	0.00323271	0.000817781	0.000158196	0.000330862	0	0	0	
0.2275	-0.00791563	0.00276124	9.29515E-05	0.000253288	0	0	0	
0.227667	0.0131333	0.000200606	0.000171408	0.000386343	0	0	0	
0.227833	-0.00487835	-0.00259134	0.00029824	0.000569152	0	0	0	
0.228	0.00103645	0.00477006	0.000382879	0.000638132	0	0	0	
0.228167	-0.00116097	0.00238178	0.000337924	0.000544941	0	0	0	
0.228333	-0.000891751	0.00129684	0.000234618	0.000360207	0	0	0	
0.2285	0.00126847	-0.00440612	0.00013091	0.000208307	0	0	0	
0.228667	0.00261798	0.00574584	0.000106537	0.000224879	0	0	0	
0.228833	-0.00127017	-0.000749818	0.000184996	0.000422462	0	0	0	
0.229	0.000621126	-0.00309173	0.000331723	0.000657112	0	0	0	
0.229167	-0.00815145	0.003254	0.000436934	0.000746827	0	0	0	
0.229333	0.00100531	-0.00325993	0.000385468	0.000605084	0	0	0	
0.2295	-0.000124198	-0.00295893	0.000250423	0.000346294	0	0	0	
0.229667	-0.00111365	0.00875929	0.000168144	0.000181686	0	0	0	
0.229833	-0.00227874	-0.0135012	0.000223983	0.000265014	0	0	0	
0.23	0.0036914	0.00859474	0.000334269	0.000514553	0	0	0	
0.230167	-0.0143213	-0.0113768	0.000427827	0.000733441	0	0	0	
0.230333	0.00077492	0.00178136	0.000392945	0.000707472	0	0	0	
0.2305	-0.000254147	-0.000524223	0.000269628	0.000491306	0	0	0	
0.230667	0.00206385	0.00292103	0.000116456	0.000244504	0	0	0	
0.230833	-0.00626426	-0.00445691	0.000106444	0.000179513	0	0	0	
0.231	0.00445869	0.00097981	0.000214748	0.000327583	0	0	0	
0.231167	-0.00421868	-0.00159534	0.000342197	0.000551265	0	0	0	
0.231333	-0.00010506	-0.00400167	0.000377829	0.00064064	0	0	0	
0.2315	0.0022933	0.0014264	0.000296823	0.000506993	0	0	0	
0.231667	0.000426988	0.00413195	0.000160867	0.000276502	0	0	0	
0.231833	-0.00293143	-0.00861951	6.53688E-05	0.000179801	0	0	0	
0.232	0.0146242	0.0212026	0.000120225	0.000330964	0	0	0	
0.232167	-0.0144603	-0.0174648	0.000275159	0.00060465	0	0	0	
0.232333	0.0104049	0.0153001	0.000434183	0.000832961	0	0	0	
0.2325	-0.000842118	-0.00073631	0.000428784	0.00081057	0	0	0	
0.232667	-0.000262628	-0.00144672	0.000291536	0.000593764	0	0	0	
0.232833	-0.00219924	-0.00229348	0.000130379	0.000325089	0	0	0	
0.233	0.00530413	0.0035496	7.92808E-05	0.000225731	0	0	0	
0.233167	-0.00280514	-0.00658109	0.000130386	0.000334694	0	0	0	
0.233333	0.000523896	0.00396673	0.000218449	0.000498886	0	0	0	
0.2335	-0.00651709	0.000944201	0.000282394	0.000549254	0	0	0	
0.233667	0.00203352	0.000729728	0.000266749	0.000429915	0	0	0	
0.233833	-0.000805222	-0.00357009	0.000197153	0.000272504	0	0	0	
0.234	-0.00397496	-0.00445626	0.000144701	0.00023253	0	0	0	
0.234167	-0.000573659	0.00105122	0.00018415	0.000364596	0	0	0	
0.234333	-0.00157583	-0.0057974	0.000270438	0.000529132	0	0	0	
0.2345	0.00801993	0.00852813	0.000339545	0.000606296	0	0	0	
0.234667	-0.00180165	-0.00408253	0.000337808	0.000527906	0	0	0	
0.234833	0.00136963	0.00418115	0.000246077	0.00036078	0	0	0	
0.235	0.00219088	-0.00074512	0.000128144	0.000206363	0	0	0	
0.235167	-0.00616022	0.00405803	7.50934E-05	0.000154752	0	0	0	
0.235333	0.00506514	-0.00115935	0.000147526	0.000254951	0	0	0	
0.2355	-0.0060346	-0.00333753	0.000275934	0.000385623	0	0	0	
0.235667	0.00540292	0.00519863	0.000354892	0.00042869	0	0	0	
0.235833	-0.00126957	-0.00226702	0.000313626	0.000343291	0	0	0	
0.236	0.000683912	0.00285575	0.000208531	0.00023941	0	0	0	
0.236167	0.00514503	0.00551644	0.000150659	0.000242114	0	0	0	
0.236333	-0.000874203	0.00542457	0.000223237	0.000404464	0	0	0	
0.2365	0.00363249	0.00696912	0.000340949	0.000614796	0	0	0	
0.236667	-0.00332952	-0.0107713	0.000409074	0.000738825	0	0	0	
0.236833	0.000433771	0.00455011	0.000363584	0.000665245	0	0	0	
0.237	3.85051E-05	0.000887998	0.000236394	0.000433521	0	0	0	
0.237167	-0.00274755	-0.00600874	0.000112726	0.000219927	0	0	0	
0.237333	0.00810961	0.012933	9.03911E-05	0.000192757	0	0	0	
0.2375	-0.00434061	-0.00401885	0.000162065	0.000399271	0	0	0	
0.237667	0.010604	0.00572973	0.000260138	0.000683467	0	0	0	
0.237833	-0.00895255	-0.00653928	0.000279421	0.000805789	0	0	0	
0.238	0.00519231	7.1771E-05	0.000233033	0.000656873	0	0	0	
0.238167	-0.000252955	-0.00255887	0.0001579	0.00036376	0	0	0	
0.238333	-0.00567018	0.00880745	0.000125061	0.000151543	0	0	0	
0.2385	-0.000656482	-0.0161154	0.000147503	0.000156263	0	0	0	
0.238667	0.00784169	0.0204628	0.000220228	0.000365885	0	0	0	
0.238833	0.00494322	-0.000292236	0.000295281	0.000592456	0	0	0	
0.239	-0.00624075	-0.000233918	0.000327046	0.00068986	0	0	0	
0.239167	0.000504421	0.00394199	0.00024679	0.000535846	0	0	0	
0.239333	0.00545668	-0.00146257	0.000144816	0.000309481	0	0	0	
0.2395	-0.00802623	0.00782445	0.000144784	0.000212522	0	0	0	
0.239667	0.00409494	-0.00185748	0.00027244	0.000336589	0	0	0	
0.239833	-0.000768045	0.0169477	0.000413297	0.000558992	0	0	0	
0.24	0.00817013	0.00292789	0.00047173	0.000718228	0	0	0	
0.240167	-0.00100924	0.00591436	0.000413163	0.000634214	0	0	0	
0.240333	0.00112589	0.00165095	0.000275562	0.000415265	0	0	0	
0.2405	-0.00727271	0.0016018	0.000144368	0.000201301	0	0	0	
0.240667	0.0137837	-0.000691138	0.000112397	0.000222313	0	0	0	
0.240833	-0.01963	-0.0026183	0.000229306	0.000419319	0	0	0	
0.241	0.010033	0.00990014	0.000383316	0.000658238	0	0	0	
0.241167	-0.00819722	0.00445665	0.000577376	0.000743753	0	0	0	
0.241333	-0.00143405	-0.00513366	0.000577437	0.000595932	0	0	0	
0.2415	-0.00371723	-0.00456397	0.000437221	0.000327077	0	0	0	
0.241667	0.00780777	0.0183206	0.000294577	0.000187309	0	0	0	
0.241833	-0.000858183	-0.0269045	0.000342218	0.000370163	0	0	0	
0.242	-0.00848476	0.00281034	0.000494655	0.000668239	0	0	0	
0.242167	-0.023652	-0.0136825	0.00060258	0.000920174	0	0	0	
0.242333	0.00755239	-0.0005759	0.000568737	0.000857785	0	0	0	
0.2425	-0.0051697	0.00575055	0.000422696	0.000650707	0	0	0	
0.242667	0.0181799	-0.0159018	0.000261915	0.000394824	0	0	0	
0.242833	-0.00169004	0.0340366	0.000204942	0.00043866	0	0	0	
0.243	0.0625599	-0.0114834	0.000685314	0.000585469	0	0	0	
0.243167	0.00445003	0.0257618	0.000915557	0.00070147	0	0	0	
0.243333	-0.0348711	-0.037486	0.00105329	0.000808468	0	0	0	
0.2435	0.0233301	-8.04798E-05	0.00079746	0.000702083	0	0	0	
0.243667	-0.0102306	0.0212841	0.000622601	0.00058552	0	0	0	
0.243833	0.0212514	-0.0388702	0.000607421	0.000430872	0	0	0	
0.244	0.00745769	0.045271	0.000391849	0.000495869	0	0	0	
0.244167	-0.0121582	-0.0361738	0.00034342	0.000888769	0	0	0	
0.244333	0.0132932	0.0173617	0.000267125	0.001182	0	0	0	
0.2445	-0.00268312	0.00344259	0.000379119	0.00124738	0	0	0	
0.244667	0.000949304	0.0100826	0.000462093	0.000890354	0	0	0	
0.244833	-0.00380639	-0.0212496	0.000405862	0.00051069	0	0	0	
0.245	0.0102956	0.0195466	0.00030741	0.000401729	0	0	0	
0.245167	-0.010975	-0.0140368	0.000277964	0.000526364	0	0	0	
0.245333	0.00709564	0.0201566	0.000360696	0.000659104	0	0	0	
0.2455	-0.00445134	-0.0211683	0.000452073	0.000768088	0	0	0	
0.245667	0.00491192	0.0188611	0.000453736	0.000852529	0	0	0	
0.245833	-0.00860039	-0.0104494	0.000393405	0.000950967	0	0	0	
0.246	0.00977665	0.00626103	0.000352692	0.00103335	0	0	0	
0.246167	-0.0109221	-0.000446655	0.000367752	0.00104279	0	0	0	
0.246333	0.00985716	0.00467078	0.000399817	0.00098317	0	0	0	
0.2465	-0.00677573	0.00142449	0.000423581	0.000888506	0	0	0	
0.246667	0.00609989	-0.00168107	0.000436143	0.000785108	0	0	0	
0.246833	-0.00829002	-0.00333398	0.000448777	0.0006934	0	0	0	
0.247	0.00802267	0.0134829	0.000448853	0.000651288	0	0	0	
0.247167	-0.0086163	-0.00659304	0.000439501	0.000648378	0	0	0	
0.247333	0.00927274	0.0158123	0.000434365	0.000687302	0	0	0	
0.2475	-0.00449219	-0.010224	0.000441514	0.00068828	0	0	0	
0.247667	0.00508097	0.0120844	0.000450463	0.000700351	0	0	0	
0.247833	-0.00814859	-0.00850428	0.000434475	0.000708861	0	0	0	
0.248	0.00910194	0.0114423	0.00039615	0.000743936	0	0	0	
0.248167	-0.0107111	-0.0101098	0.000365123	0.000760543	0	0	0	
0.248333	0.00972069	0.015772	0.000366905	0.000777602	0	0	0	
0.2485	-0.00738836	-0.0102997	0.000393546	0.000779634	0	0	0	
0.248667	0.00776201	0.00685454	0.000414625	0.000805041	0	0	0	
0.248833	-0.0104598	-0.00255564	0.000426041	0.000835393	0	0	0	
0.249	0.00574171	0.0043806	0.00042319	0.000847851	0	0	0	
0.249167	-0.00471793	-0.00367527	0.000404943	0.000805175	0	0	0	
0.249333	0.00827322	0.00860071	0.000375652	0.000728553	0	0	0	
0.2495	-0.0105317	-0.00996507	0.000364853	0.000649497	0	0	0	
0.249667	0.00955993	0.0180709	0.000379113	0.000626586	0	0	0	
0.249833	-0.00788823	-0.0229061	0.000405315	0.000673273	0	0	0	
0.25	0.00492944	0.0203775	0.000415069	0.000769379	0	0	0	
0.250167	-0.00524643	-0.0164969	0.000406606	0.000866593	0	0	0	
0.250333	0.00812714	0.00915398	0.00037891	0.000916674	0	0	0	
0.2505	-0.0104851	-0.00187496	0.000353825	0.000908742	0	0	0	
0.250667	0.0101629	0.00381169	0.000362561	0.000854686	0	0	0	
0.250833	-0.00303154	0.00150149	0.000406721	0.000784408	0	0	0	
0.251	0.00691266	0.00806484	0.000414192	0.000655047	0	0	0	
0.251167	-0.0388555	-0.0639751	0.000412743	0.000600253	0	0	0	
0.251333	0.0878802	0.0690857	0.00118461	0.0020482	0	0	0	
0.2515	0.00511701	-0.0116684	0.00156774	0.00269017	0	0	0	
0.251667	0.0292129	0.0626159	0.0017441	0.00292582	0	0	0	
0.251833	-0.00307299	-0.0141998	0.00113683	0.0014134	0	0	0	
0.252	-0.000967195	0.0164733	0.00099444	0.000843488	0	0	0	
0.252167	0.0147104	0.0182824	0.000886532	0.000517884	0	0	0	
0.252333	0.029559	0.0679632	0.00072725	0.000923547	0	0	0	
0.2525	0.0773229	0.0921684	0.00131346	0.00241936	0	0	0	
0.252667	-0.014465	0.0365734	0.00145491	0.00258525	0	0	0	
0.252833	-0.0302394	0.0241434	0.00157597	0.00227693	0	0	0	
0.253	0.0714969	-0.00311282	0.000971811	0.00102134	0	0	0	
0.253167	-0.0314266	0.0307082	0.00096101	0.00119703	0	0	0	
0.253333	-0.00437817	-0.0388451	0.000957865	0.001339	0	0	0	
0.2535	-0.0101493	0.0289372	0.000849165	0.0011173	0	0	0	
0.253667	-0.0156203	-0.0157969	0.000656218	0.000818063	0	0	0	
0.253833	0.00992088	-0.0118163	0.000484913	0.000479881	0	0	0	
0.254	-0.00199708	0.0534019	0.000282595	0.000503813	0	0	0	
0.254167	-0.013011	-0.0475489	0.000202981	0.000665053	0	0	0	
0.254333	0.0262535	0.0362109	0.000211391	0.000870159	0	0	0	
0.2545	-0.0211083	-0.0370973	0.00037988	0.000872279	0	0	0	
0.254667	0.0112335	0.0309776	0.000536837	0.000936359	0	0	0	
0.254833	-0.00602091	-0.00322962	0.000596235	0.00105919	0	0	0	
0.255	0.00681448	-0.00667604	0.000503963	0.00116683	0	0	0	
0.255167	-0.0151737	0.00737539	0.000398408	0.00108623	0	0	0	
0.255333	0.0185633	-0.00217594	0.000364526	0.000930755	0	0	0	
0.2555	-0.0119481	-0.00438999	0.000406622	0.000762345	0	0	0	
0.255667	0.0114962	0.000881469	0.000413139	0.000628687	0	0	0	
0.255833	-0.0120463	0.000143716	0.000392119	0.000547021	0	0	0	
0.256	0.0090169	0.00592083	0.000375256	0.000544071	0	0	0	
0.256167	-0.00203993	-0.0227719	0.000351979	0.000624043	0	0	0	
0.256333	0.00953488	0.0309499	0.00032837	0.000718889	0	0	0	
0.2565	-0.0128415	-0.0352724	0.000326294	0.000785167	0	0	0	
0.256667	0.00751684	0.0330452	0.00037663	0.000831687	0	0	0	
0.256833	-0.00639162	-0.0200976	0.000435683	0.000875059	0	0	0	
0.257	0.00607472	0.0149834	0.000432697	0.000969436	0	0	0	
0.257167	-0.00800262	-0.00780226	0.000378797	0.00102008	0	0	0	
0.257333	0.0122239	0.00229884	0.000347155	0.000989759	0	0	0	
0.2575	-0.0132127	0.00541252	0.000382376	0.00083862	0	0	0	
0.257667	0.00856283	-0.00191743	0.000407745	0.000641234	0	0	0	
0.257833	-0.0166455	-0.00362086	0.000405537	0.000460949	0	0	0	
0.258	0.0141526	0.0206748	0.000406141	0.000396506	0	0	0	
0.258167	-0.00786716	-0.0264807	0.000432708	0.000470089	0	0	0	
0.258333	0.00482246	0.0248447	0.000422626	0.000602554	0	0	0	
0.2585	-0.00953545	-0.0241734	0.0003789	0.000734359	0	0	0	
0.258667	0.00722981	0.0232649	0.000371433	0.00086951	0	0	0	
0.258833	-0.00848405	-0.0176071	0.000397366	0.00104131	0	0	0	
0.259	0.0113339	0.00909643	0.000401002	0.00112582	0	0	0	
0.259167	-0.0140925	-0.00259866	0.000375302	0.00106078	0	0	0	
0.259333	0.0137716	-0.00681464	0.000383855	0.000905789	0	0	0	
0.2595	-0.00840285	0.00454332	0.000442347	0.000803699	0	0	0	
0.259667	0.00699666	-0.00378984	0.000504408	0.000759578	0	0	0	
0.259833	-0.00970931	-0.0111959	0.000490235	0.000669564	0	0	0	
0.26	0.00828775	0.0271219	0.000420967	0.000552048	0	0	0	
0.260167	-0.00770462	-0.0436738	0.000367449	0.000569127	0	0	0	
0.260333	0.0100713	0.0315003	0.00034542	0.00076696	0	0	0	
0.2605	-0.0137519	-0.0196571	0.000361297	0.00105503	0	0	0	
0.260667	0.0151914	0.00233301	0.000391778	0.0012545	0	0	0	
0.260833	-0.00883855	0.00684959	0.000428937	0.00130982	0	0	0	
0.261	0.00556859	-0.0148351	0.000425321	0.00115096	0	0	0	
0.261167	-0.00837599	0.00222019	0.00039817	0.000825452	0	0	0	
0.261333	0.0117441	0.0149807	0.00038734	0.000492469	0	0	0	
0.2615	-0.0120156	-0.0358938	0.000404237	0.000420794	0	0	0	
0.261667	0.0109863	0.0351056	0.000413533	0.000628788	0	0	0	
0.261833	-0.0100994	-0.021297	0.000409134	0.000961896	0	0	0	
0.262	0.0104778	0.00745737	0.000400973	0.00117674	0	0	0	
0.262167	-0.0127378	-0.00138287	0.000411956	0.00120386	0	0	0	
0.262333	0.0142115	0.00639361	0.000425712	0.00110664	0	0	0	
0.2625	-0.0122842	-0.0114844	0.000427642	0.000951471	0	0	0	
0.262667	0.00773384	0.0138684	0.000410976	0.000817479	0	0	0	
0.262833	-0.00832008	-0.0172247	0.00039361	0.000738926	0	0	0	
0.263	0.00751899	0.0242905	0.00037844	0.000743194	0	0	0	
0.263167	-0.0115198	-0.0216813	0.000371576	0.000795892	0	0	0	
0.263333	0.010469	0.0158581	0.000358758	0.000863888	0	0	0	
0.2635	-0.0117821	-0.0168394	0.000369812	0.000904933	0	0	0	
0.263667	0.0103142	0.0183622	0.000380251	0.000925347	0	0	0	
0.263833	-0.00842704	-0.0163582	0.000400927	0.000924809	0	0	0	
0.264	0.00729389	0.0121015	0.000417933	0.00089302	0	0	0	
0.264167	-0.00863003	-0.00621425	0.000421771	0.00081708	0	0	0	
0.264333	0.00980296	0.00705548	0.000394002	0.000729454	0	0	0	
0.2645	-0.0143497	-0.0187224	0.000360493	0.000679656	0	0	0	
0.264667	0.0122932	0.0278622	0.000350329	0.000697494	0	0	0	
0.264833	-0.0117795	-0.024917	0.00038191	0.000728496	0	0	0	
0.265	0.00955237	0.0197148	0.000434836	0.000762621	0	0	0	
0.265167	-0.00991283	-0.01533	0.000471261	0.000808014	0	0	0	
0.265333	0.00686582	0.0141378	0.000449652	0.000876124	0	0	0	
0.2655	-0.00895206	-0.0125833	0.000394124	0.000900539	0	0	0	
0.265667	0.00904526	0.0119402	0.000346694	0.00083768	0	0	0	
0.265833	-0.0142667	-0.00640858	0.000348856	0.000715896	0	0	0	
0.266	0.0134194	0.0122658	0.000372626	0.000634212	0	0	0	
0.266167	-0.0140877	-0.0155778	0.000409052	0.00062418	0	0	0	
0.266333	0.0124281	0.0165762	0.00043314	0.000658257	0	0	0	
0.2665	-0.0117351	-0.0136935	0.000444816	0.000669423	0	0	0	
0.266667	0.0110372	0.0123879	0.000429115	0.000688943	0	0	0	
0.266833	-0.0100641	-0.0108851	0.000414601	0.000733339	0	0	0	
0.267	0.00945452	0.0154	0.000400687	0.000782024	0	0	0	
0.267167	-0.00919227	-0.0153397	0.000385241	0.000779148	0	0	0	
0.267333	0.0116467	0.0153389	0.000368288	0.000753369	0	0	0	
0.2675	-0.0139079	-0.0142362	0.000368266	0.000721385	0	0	0	
0.267667	0.0109485	0.0154816	0.000383675	0.000696377	0	0	0	
0.267833	-0.00859302	-0.0169924	0.000405692	0.000673784	0	0	0	
0.268	0.0123914	0.0207863	0.000418467	0.000705488	0	0	0	
0.268167	-0.0100056	-0.0185095	0.000421035	0.000757677	0	0	0	
0.268333	0.00935806	0.0150628	0.000404729	0.000780929	0	0	0	
0.2685	-0.012768	-0.0121443	0.000383458	0.000752859	0	0	0	
0.268667	0.0125467	0.0103519	0.000371899	0.000736371	0	0	0	
0.268833	-0.0100754	-0.00811804	0.000372786	0.000746001	0	0	0	
0.269	0.0126639	0.0148159	0.000393638	0.000760902	0	0	0	
0.269167	-0.0108062	-0.00892562	0.000411714	0.00071074	0	0	0	
0.269333	0.00817137	0.0153405	0.00040875	0.000664141	0	0	0	
0.2695	-0.0105756	-0.0186169	0.000387247	0.000649008	0	0	0	
0.269667	0.00991786	0.017031	0.000366783	0.000703766	0	0	0	
0.269833	-0.0106222	-0.0141519	0.000389369	0.000739334	0	0	0	
0.27	0.011184	0.0160753	0.000417121	0.000739561	0	0	0	
0.270167	-0.01076	-0.0156057	0.000425499	0.000719578	0	0	0	
0.270333	0.010125	0.0246146	0.000393592	0.000770039	0	0	0	
0.2705	-0.0123264	-0.0172146	0.000369838	0.000829054	0	0	0	
0.270667	0.0133654	0.00780611	0.000369429	0.000886514	0	0	0	
0.270833	-0.0115896	-0.00810875	0.000383191	0.000879689	0	0	0	
0.271	0.0143615	0.0105384	0.000387134	0.0008436	0	0	0	
0.271167	-0.0127628	-0.0172621	0.000390415	0.000779733	0	0	0	
0.271333	0.0174786	0.0322069	0.000407592	0.000729621	0	0	0	
0.2715	0.092118	-0.00746164	0.000486505	0.000693486	0	0	0	
0.271667	0.0207665	0.0422615	0.000741123	0.000904972	0	0	0	
0.271833	-0.0488663	-0.0460328	0.000765391	0.00099966	0	0	0	
0.272	0.0381193	0.0192803	0.00100586	0.000965912	0	0	0	
0.272167	-0.0287834	-0.0370086	0.000823493	0.000698221	0	0	0	
0.272333	0.057695	0.0350641	0.000908155	0.000609053	0	0	0	
0.2725	-0.0360078	-0.0211628	0.000716383	0.000814139	0	0	0	
0.272667	0.0167882	-0.00237563	0.000674591	0.00109297	0	0	0	
0.272833	-0.00976745	0.000286839	0.000656767	0.0012005	0	0	0	
0.273	0.00260919	0.00528015	0.000585932	0.00106705	0	0	0	
0.273167	0.00257133	-0.00595087	0.000492702	0.000768285	0	0	0	
0.273333	0.0042757	0.00930043	0.000275329	0.00053946	0	0	0	
0.2735	-0.0151192	-0.0214674	0.000150602	0.000563831	0	0	0	
0.273667	0.0231161	0.0236267	0.000210902	0.000871078	0	0	0	
0.273833	-0.0182874	-0.00230802	0.00032982	0.00120095	0	0	0	
0.274	0.0101196	-0.00995739	0.000385582	0.0012622	0	0	0	
0.274167	-0.00153671	0.0155024	0.000333756	0.000958748	0	0	0	
0.274333	-0.000459162	-0.00801962	0.000229197	0.00058417	0	0	0	
0.2745	-0.00209288	0.013465	0.000119141	0.000299948	0	0	0	
0.274667	0.00491865	-0.0108064	6.34664E-05	0.000286838	0	0	0	
0.274833	-0.00390039	-0.00422467	0.000116636	0.000303253	0	0	0	
0.275	0.00546647	0.0184005	0.000228517	0.000345707	0	0	0	
0.275167	-0.00643429	-0.0163533	0.000292181	0.00034382	0	0	0	
0.275333	0.00363791	0.0107748	0.000237647	0.000329706	0	0	0	
0.2755	-0.00229866	-0.0107803	0.000134941	0.000285889	0	0	0	
0.275667	0.000576944	0.0177663	9.10903E-05	0.000235494	0	0	0	
0.275833	-0.0104735	-0.0304515	0.000152609	0.000365314	0	0	0	
0.276	0.00577253	0.0203271	0.000237826	0.000530259	0	0	0	
0.276167	-0.00792449	-0.0242727	0.000320857	0.000691672	0	0	0	
0.276333	0.00110945	0.00802853	0.000325399	0.000650026	0	0	0	
0.2765	-0.00206009	-0.00300604	0.00024812	0.000500123	0	0	0	
0.276667	0.00880121	0.00950177	0.000151865	0.000291305	0	0	0	
0.276833	-0.0159077	-0.0240913	0.000163134	0.000270153	0	0	0	
0.277	0.0119565	0.0182596	0.00027832	0.000427097	0	0	0	
0.277167	-0.0140848	-0.011087	0.000402863	0.000644321	0	0	0	
0.277333	0.00399533	0.000383895	0.000397727	0.000673962	0	0	0	
0.2775	2.82694E-05	0.00105332	0.000300513	0.000491767	0	0	0	
0.277667	0.00274045	0.00532569	0.00015302	0.000242827	0	0	0	
0.277833	-0.0116563	-0.0127812	9.08018E-05	0.000164576	0	0	0	
0.278	0.0163793	0.0206839	0.000156145	0.000333088	0	0	0	
0.278167	-0.0071568	-0.0172271	0.000266351	0.000565764	0	0	0	
0.278333	-0.00165362	0.0148074	0.000339157	0.000713508	0	0	0	
0.2785	0.000109882	-0.00192415	0.00029693	0.000647742	0	0	0	
0.278667	0.00120674	-1.54424E-05	0.000194656	0.000455025	0	0	0	
0.278833	-0.00298661	-0.00480263	9.52888E-05	0.000243498	0	0	0	
0.279	0.0102227	0.0146871	7.21136E-05	0.000196982	0	0	0	
0.279167	-0.0127774	-0.0173138	0.00015984	0.000338773	0	0	0	
0.279333	0.00743107	0.01702	0.000297895	0.000523176	0	0	0	
0.2795	-0.000658452	-0.011355	0.000399637	0.000567021	0	0	0	
0.279667	-0.00405649	0.00440334	0.000358379	0.00042795	0	0	0	
0.279833	-0.00175343	-0.00740324	0.000218553	0.000255623	0	0	0	
0.28	0.008286	0.014648	0.000109014	0.000182883	0	0	0	
0.280167	-0.0174225	-0.0233879	0.00018107	0.000311826	0	0	0	
0.280333	0.00997972	0.0175037	0.000301653	0.000489109	0	0	0	
0.2805	-0.00993786	-0.00960432	0.000379989	0.000627437	0	0	0	
0.280667	0.00445729	0.00280379	0.000325654	0.000582243	0	0	0	
0.280833	-0.00232983	-0.00340063	0.000227509	0.000413017	0	0	0	
0.281	0.00583376	0.00917952	0.00013826	0.000238419	0	0	0	
0.281167	-0.0153555	-0.0171517	0.000138635	0.000226833	0	0	0	
0.281333	0.00782916	0.0178623	0.000197346	0.000408521	0	0	0	
0.2815	-0.00751741	-0.0126783	0.000281733	0.000634263	0	0	0	
0.281667	0.00683442	0.00404847	0.0002918	0.00069631	0	0	0	
0.281833	-0.00283204	0.000111006	0.000240516	0.000550756	0	0	0	
0.282	0.00236981	0.00476515	0.000156334	0.000314777	0	0	0	
0.282167	-0.00317841	-0.00964921	9.85959E-05	0.000184493	0	0	0	
0.282333	0.00767078	0.0215052	0.000128332	0.000264881	0	0	0	
0.2825	-0.0108829	-0.0157274	0.000214695	0.000468286	0	0	0	
0.282667	0.00873985	0.0110086	0.000293675	0.00068352	0	0	0	
0.282833	-0.00263135	-0.00509751	0.000294642	0.000727578	0	0	0	
0.283	0.00136732	0.00205053	0.000198724	0.000563977	0	0	0	
0.283167	-0.00482124	-0.0058511	0.000105654	0.000320604	0	0	0	
0.283333	0.0114467	0.0115346	9.88995E-05	0.000210442	0	0	0	
0.2835	-0.0111611	-0.0183105	0.00019817	0.000369968	0	0	0	
0.283667	0.00795059	0.0204451	0.000300987	0.000617199	0	0	0	
0.283833	-0.00572717	-0.0170506	0.000332118	0.000749886	0	0	0	
0.284	0.00103022	0.00523653	0.000254617	0.000613244	0	0	0	
0.284167	-0.00219594	-0.00395831	0.000150474	0.000382822	0	0	0	
0.284333	0.00397801	0.00300174	7.73484E-05	0.000243242	0	0	0	
0.2845	-0.0114543	-0.0227625	0.000121404	0.000385177	0	0	0	
0.284667	0.0123782	0.0193051	0.000227255	0.00061691	0	0	0	
0.284833	-0.0108458	-0.0120828	0.000344372	0.000752375	0	0	0	
0.285	0.00303544	0.00281912	0.00035196	0.000642002	0	0	0	
0.285167	-0.000329915	-0.00314399	0.000256611	0.000400263	0	0	0	
0.285333	0.00329689	0.0107322	0.00012963	0.000216654	0	0	0	
0.2855	-0.0105695	-0.0231197	9.30293E-05	0.000233016	0	0	0	
0.285667	0.012041	0.0221259	0.000159025	0.00042322	0	0	0	
0.285833	-0.0121648	-0.0178525	0.00026805	0.000605593	0	0	0	
0.286	0.00966889	0.0150007	0.000331687	0.000672133	0	0	0	
0.286167	-0.00325201	-0.00389145	0.000295693	0.000547165	0	0	0	
0.286333	0.00379739	0.00534654	0.000203222	0.000359243	0	0	0	
0.2865	0.000432442	-0.00998939	0.000152629	0.000214023	0	0	0	
0.286667	0.00991787	0.0234724	0.000252207	0.000318606	0	0	0	
0.286833	-0.000697583	-0.0134527	0.000391696	0.000571749	0	0	0	
0.287	0.016771	0.0136424	0.00049062	0.000846014	0	0	0	
0.287167	-0.0030566	-0.00340628	0.000433429	0.000865278	0	0	0	
0.287333	0.00690489	0.00317093	0.000322848	0.000642819	0	0	0	
0.2875	-0.0119378	-0.0149671	0.000215011	0.000368813	0	0	0	
0.287667	0.0288852	0.0313999	0.00026233	0.000340159	0	0	0	
0.287833	-0.0145978	-0.0204353	0.00036121	0.000565572	0	0	0	
0.288	0.00769148	0.0143771	0.000459186	0.000860747	0	0	0	
0.288167	0.00406268	-0.00792308	0.000394629	0.000946439	0	0	0	
0.288333	-0.00319453	-0.000778608	0.000294587	0.000765259	0	0	0	
0.2885	-2.94831E-05	-0.00480925	0.000150404	0.000436953	0	0	0	
0.288667	0.001796	0.00934203	7.74376E-05	0.000201663	0	0	0	
0.288833	-0.0054401	-0.0238804	6.35405E-05	0.000271892	0	0	0	
0.289	0.00390357	0.0214876	0.000139902	0.000543626	0	0	0	
0.289167	-0.0155166	-0.00947768	0.000252303	0.000814719	0	0	0	
0.289333	0.00619306	0.00290202	0.000294024	0.000849879	0	0	0	
0.2895	-0.00350652	-0.00383495	0.000234584	0.000621686	0	0	0	
0.289667	0.00452197	0.0127935	0.000136195	0.000364143	0	0	0	
0.289833	-0.00760419	-0.0227939	8.6382E-05	0.000331069	0	0	0	
0.29	0.00624243	0.0216088	0.000128002	0.000571172	0	0	0	
0.290167	-0.0108043	-0.00693463	0.000164317	0.000821568	0	0	0	
0.290333	0.0142792	0.00845561	0.0002181	0.000884644	0	0	0	
0.2905	-0.00658322	0.000928449	0.000216886	0.000696359	0	0	0	
0.290667	0.00313667	0.00388667	0.000192569	0.000423147	0	0	0	
0.290833	-0.00394285	-0.00570095	0.000124558	0.000230793	0	0	0	
0.291	0.0107926	0.0308426	0.000101774	0.00033012	0	0	0	
0.291167	-0.00906243	-0.0233111	0.000173155	0.000572788	0	0	0	
0.291333	0.00588064	0.0231473	0.000271914	0.000785121	0	0	0	
0.2915	-0.00114617	-0.00907537	0.000281196	0.000729762	0	0	0	
0.291667	-0.000730836	0.00441048	0.000177349	0.000498895	0	0	0	
0.291833	-0.00160463	-0.00819416	7.89299E-05	0.000264406	0	0	0	
0.292	0.00939873	0.0225188	4.84507E-05	0.000199609	0	0	0	
0.292167	-0.0116333	-0.0237333	0.000120969	0.000327172	0	0	0	
0.292333	0.0126453	0.030273	0.000220526	0.000541537	0	0	0	
0.2925	-0.00758228	-0.021452	0.000314232	0.000669144	0	0	0	
0.292667	0.00031345	0.00505936	0.000287355	0.000599432	0	0	0	
0.292833	-0.00252071	-0.00276493	0.000177467	0.000398472	0	0	0	
0.293	0.0100856	0.00372	9.47994E-05	0.000212679	0	0	0	
0.293167	-0.0192334	-0.021512	0.000137328	0.000272166	0	0	0	
0.293333	0.0224499	0.0271669	0.000285795	0.000498764	0	0	0	
0.2935	-0.0101506	-0.014729	0.000410039	0.000704152	0	0	0	
0.293667	0.00138341	0.00493918	0.000445188	0.000699465	0	0	0	
0.293833	0.0036884	-0.000808373	0.000348866	0.000476773	0	0	0	
0.294	-0.000158858	0.0057982	0.000199074	0.000248681	0	0	0	
0.294167	-0.00583773	-0.0165419	0.000101498	0.000187932	0	0	0	
0.294333	0.015515	0.0201105	0.000114385	0.000330662	0	0	0	
0.2945	-0.0130252	-0.0166981	0.000214258	0.000507139	0	0	0	
0.294667	0.0128552	0.0193306	0.000326597	0.000605426	0	0	0	
0.294833	-0.00295207	-0.00457964	0.000348126	0.000512164	0	0	0	
0.295	-0.000647378	0.00426718	0.000278089	0.000359488	0	0	0	
0.295167	0.00265346	-0.00994629	0.000153858	0.000215752	0	0	0	
0.295333	0.0100123	0.020531	0.000109714	0.000273413	0	0	0	
0.2955	-0.0131932	-0.0162541	0.000170267	0.000468196	0	0	0	
0.295667	0.0110123	0.00672414	0.00027839	0.0006399	0	0	0	
0.295833	-0.00440626	-0.00258888	0.000323393	0.000617549	0	0	0	
0.296	0.0022777	0.00150154	0.000259754	0.000417943	0	0	0	
0.296167	-0.00456454	-0.00737213	0.000161629	0.000219468	0	0	0	
0.296333	0.00963492	0.014661	0.000157646	0.000158233	0	0	0	
0.2965	-0.0100178	-0.0209805	0.000261834	0.000286125	0	0	0	
0.296667	0.0108237	0.0202255	0.000362794	0.00048271	0	0	0	
0.296833	-0.0140113	-0.0170137	0.000399961	0.000630588	0	0	0	
0.297	0.00408276	0.00393305	0.000347661	0.000580645	0	0	0	
0.297167	-0.00221997	-0.00433782	0.000250688	0.000399086	0	0	0	
0.297333	0.00911991	0.0085503	0.000149915	0.000217075	0	0	0	
0.2975	-0.0186709	-0.0263778	0.00015996	0.000248148	0	0	0	
0.297667	0.0149788	0.0249295	0.00027551	0.000435515	0	0	0	
0.297833	-0.0133504	-0.0192249	0.000402542	0.000647205	0	0	0	
0.298	0.00675471	0.00825552	0.000403899	0.000679735	0	0	0	
0.298167	-0.00234707	-0.00269504	0.000288284	0.000520913	0	0	0	
0.298333	0.00325121	0.0070703	0.000151164	0.000302421	0	0	0	
0.2985	-0.00958469	-0.0201361	0.000100934	0.000209513	0	0	0	
0.298667	0.0171067	0.0252781	0.000188662	0.000322839	0	0	0	
0.298833	-0.0156836	-0.0244153	0.000307694	0.000511109	0	0	0	
0.299	0.0082624	0.0231929	0.000384855	0.00067915	0	0	0	
0.299167	0.000477788	-0.00548546	0.000338146	0.00064883	0	0	0	
0.299333	0.000883571	0.00308201	0.000213427	0.000476352	0	0	0	
0.2995	-0.00575941	-0.00945711	0.000107892	0.000257489	0	0	0	
0.299667	0.012102	0.018776	0.000103972	0.000227058	0	0	0	
0.299833	-0.0124267	-0.0213967	0.000191722	0.000417644	0	0	0	
0.3	0.010148	0.0185574	0.000279644	0.000658843	0	0	0	
0.300167	-0.00766166	-0.00696939	0.000313685	0.000706488	0	0	0	
0.300333	0.0016618	0.00157325	0.000253036	0.000519818	0	0	0	
0.3005	-0.00236228	-0.00546842	0.00016033	0.000262679	0	0	0	
0.300667	0.00937808	0.0159228	9.16887E-05	0.000164195	0	0	0	
0.300833	-0.0160117	-0.0370208	0.000157425	0.000339444	0	0	0	
0.301	0.0122687	0.0338338	0.000265304	0.000607007	0	0	0	
0.301167	-0.00920908	-0.0223621	0.000360379	0.000783011	0	0	0	
0.301333	0.000733214	0.00465848	0.000317169	0.000706738	0	0	0	
0.3015	-0.00132325	-0.000206551	0.000205348	0.000477429	0	0	0	
0.301667	0.00572497	0.00728961	9.5932E-05	0.000259229	0	0	0	
0.301833	-0.0122871	-0.0233299	9.97841E-05	0.000222549	0	0	0	
0.302	0.0147672	0.0196161	0.000186185	0.000322936	0	0	0	
0.302167	-0.0159156	-0.0171272	0.000305877	0.000484869	0	0	0	
0.302333	0.00941265	0.00916666	0.000352745	0.000515845	0	0	0	
0.3025	-0.00261516	-0.00430871	0.000304618	0.000418412	0	0	0	
0.302667	0.00184936	0.00697333	0.000188113	0.00026848	0	0	0	
0.302833	-0.0071956	-0.0120175	0.0001058	0.000192447	0	0	0	
0.303	0.0189259	0.0207161	0.00016025	0.000274309	0	0	0	
0.303167	-0.021079	-0.0250049	0.000283607	0.000430034	0	0	0	
0.303333	0.0123253	0.0189565	0.000395811	0.000571005	0	0	0	
0.3035	-0.00187844	-0.00747973	0.000390077	0.000581912	0	0	0	
0.303667	-0.00035953	0.0036425	0.000277378	0.000447374	0	0	0	
0.303833	-0.00514181	-0.00694592	0.000147327	0.000276529	0	0	0	
0.304	0.0177304	0.0106036	0.000117707	0.000218041	0	0	0	
0.304167	-0.0179366	-0.014674	0.000201101	0.000317933	0	0	0	
0.304333	0.0164744	0.0122058	0.000355052	0.000440342	0	0	0	
0.3045	-0.0204499	-0.0124679	0.00052948	0.000482603	0	0	0	
0.304667	0.00329197	0.00721966	0.000508243	0.000397765	0	0	0	
0.304833	-0.00143487	-0.00842252	0.000376489	0.000305369	0	0	0	
0.305	0.0050382	0.00655778	0.000165999	0.00028104	0	0	0	
0.305167	-0.0174181	-0.020991	0.000164483	0.000431953	0	0	0	
0.305333	0.0255977	0.00408104	0.000275052	0.000568731	0	0	0	
0.3055	-0.0384778	-0.00315891	0.000500888	0.000637803	0	0	0	
0.305667	0.00872514	0.00326606	0.000527844	0.000534972	0	0	0	
0.305833	0.00106176	-0.00426778	0.000436346	0.000367651	0	0	0	
0.306	-0.000531439	0.0106478	0.000186808	0.000222486	0	0	0	
0.306167	-0.00199161	-0.0219266	8.85413E-05	0.000200522	0	0	0	
0.306333	0.00516526	0.0231843	6.95606E-05	0.000322155	0	0	0	
0.3065	-0.0174878	-0.0230925	0.000165349	0.000512595	0	0	0	
0.306667	0.0214859	0.0248406	0.000290873	0.000694969	0	0	0	
0.306833	-0.00943213	-0.00759175	0.000348058	0.0006666	0	0	0	
0.307	0.00417652	0.0034883	0.000286895	0.000499547	0	0	0	
0.307167	-0.00637161	-0.00499531	0.000172098	0.000283723	0	0	0	
0.307333	0.0227087	0.0235729	0.000177592	0.000340582	0	0	0	
0.3075	-0.027018	-0.0302853	0.000308034	0.000547632	0	0	0	
0.307667	0.0220669	0.0250647	0.000447684	0.000740365	0	0	0	
0.307833	-0.00364504	-0.00526706	0.000416063	0.000646637	0	0	0	
0.308	0.000580421	0.0045346	0.00024739	0.000408225	0	0	0	
0.308167	-0.000147385	-0.0117064	8.30983E-05	0.000186136	0	0	0	
0.308333	0.00548646	0.0277167	4.37926E-05	0.000233113	0	0	0	
0.3085	-0.00847518	-0.0358655	8.94195E-05	0.000449059	0	0	0	
0.308667	0.0116129	0.0300229	0.000188193	0.000676802	0	0	0	
0.308833	-0.00770863	-0.0173251	0.000232169	0.000715822	0	0	0	
0.309	0.00192683	0.0066338	0.000213395	0.000556015	0	0	0	
0.309167	-0.00345273	-0.00951136	0.000126942	0.00034032	0	0	0	
0.309333	0.0116522	0.0152683	9.89936E-05	0.000247543	0	0	0	
0.3095	-0.0230749	-0.0376222	0.000177024	0.000419776	0	0	0	
0.309667	0.0217411	0.0287933	0.000337374	0.000652263	0	0	0	
0.309833	-0.00895149	-0.0163143	0.000425225	0.000809741	0	0	0	
0.31	0.00185718	0.00266089	0.000394398	0.000703117	0	0	0	
0.310167	0.00185769	-0.0036357	0.000244748	0.000460684	0	0	0	
0.310333	0.00207554	0.0147713	0.000129231	0.000262767	0	0	0	
0.3105	-0.0131101	-0.0336077	9.25986E-05	0.00028958	0	0	0	
0.310667	0.0148895	0.0246668	0.000160719	0.00048397	0	0	0	
0.310833	-0.0110744	-0.0188455	0.000239901	0.000665475	0	0	0	
0.311	0.00664835	0.015317	0.000297947	0.000686434	0	0	0	
0.311167	-0.00110222	-0.00557485	0.000246883	0.000546831	0	0	0	
0.311333	0.00103218	0.00712419	0.000167529	0.000364424	0	0	0	
0.3115	-0.000503559	-0.0129934	9.09112E-05	0.000226041	0	0	0	
0.311667	0.0121712	0.0237946	0.000123986	0.000280764	0	0	0	
0.311833	-0.0147102	-0.0250321	0.000218756	0.000452868	0	0	0	
0.312	0.0112577	0.0215351	0.00031917	0.000652186	0	0	0	
0.312167	-0.0041611	-0.00856545	0.000328766	0.000685347	0	0	0	
0.312333	0.00241132	0.00063462	0.000243751	0.000534824	0	0	0	
0.3125	-0.00701994	-0.00718342	0.000146112	0.00029908	0	0	0	
0.312667	0.018226	0.0192167	0.000165819	0.00019587	0	0	0	
0.312833	-0.018425	-0.0303862	0.000296256	0.000311067	0	0	0	
0.313	0.012904	0.0274043	0.000406897	0.000523338	0	0	0	
0.313167	-0.00780907	-0.0196008	0.000400298	0.000648686	0	0	0	
0.313333	0.000801577	0.00480187	0.000286641	0.000562673	0	0	0	
0.3135	-0.0024759	-0.00469633	0.000161684	0.000364494	0	0	0	
0.313667	0.00889905	0.00875405	8.78521E-05	0.000195798	0	0	0	
0.313833	-0.0185168	-0.0292287	0.000141375	0.000256139	0	0	0	
0.314	0.0147403	0.0278177	0.000254489	0.000443623	0	0	0	
0.314167	-0.011736	-0.0248875	0.000348485	0.000667749	0	0	0	
0.314333	0.0049043	0.00804864	0.00033956	0.000682404	0	0	0	
0.3145	-0.00173454	-0.00271032	0.000242703	0.000517478	0	0	0	
0.314667	0.00425095	0.0090633	0.000135688	0.000286233	0	0	0	
0.314833	-0.0137234	-0.0256579	0.000105635	0.000228495	0	0	0	
0.315	0.0163547	0.0257459	0.000192245	0.000364427	0	0	0	
0.315167	-0.0144913	-0.0305602	0.000295708	0.000584859	0	0	0	
0.315333	0.0087984	0.0225451	0.00033771	0.000700984	0	0	0	
0.3155	-0.00176213	-0.00658004	0.000273217	0.000610162	0	0	0	
0.315667	0.000832639	0.00543702	0.000174775	0.000405087	0	0	0	
0.315833	-0.00132713	-0.00873877	8.96578E-05	0.000214846	0	0	0	
0.316	0.00986085	0.0260714	9.98045E-05	0.000258034	0	0	0	
0.316167	-0.0149227	-0.0323663	0.000186321	0.000471535	0	0	0	
0.316333	0.011718	0.022885	0.000296427	0.000704879	0	0	0	
0.3165	-0.00509765	-0.00645907	0.000323335	0.000716211	0	0	0	
0.316667	0.00222692	0.00363826	0.000242613	0.000509524	0	0	0	
0.316833	-0.00490698	-0.00994825	0.000139789	0.000269441	0	0	0	
0.317	0.0136347	0.027479	0.00012186	0.000235858	0	0	0	
0.317167	-0.0172782	-0.031971	0.000213361	0.000425124	0	0	0	
0.317333	0.0164414	0.0293781	0.000321976	0.000656579	0	0	0	
0.3175	-0.0119508	-0.0200306	0.000368161	0.000749183	0	0	0	
0.317667	0.00292349	0.00512536	0.000305108	0.000612802	0	0	0	
0.317833	-0.00074137	-0.00481274	0.000197501	0.000389477	0	0	0	
0.318	0.00171397	0.00842028	9.10421E-05	0.000211533	0	0	0	
0.318167	-0.0112287	-0.0231287	9.26023E-05	0.000240424	0	0	0	
0.318333	0.0154559	0.0250451	0.000179202	0.000420917	0	0	0	
0.3185	-0.0110132	-0.0125195	0.000292169	0.000582134	0	0	0	
0.318667	0.00489367	0.0056582	0.000312201	0.000582185	0	0	0	
0.318833	-0.0019637	-0.00383071	0.000224079	0.000406769	0	0	0	
0.319	0.00478881	0.0111086	0.000119875	0.00024467	0	0	0	
0.319167	-0.0139769	-0.0263788	0.000104756	0.000231598	0	0	0	
0.319333	0.0172593	0.0324786	0.000201637	0.000430725	0	0	0	
0.3195	-0.0149182	-0.0235283	0.000310479	0.000652521	0	0	0	
0.319667	0.0110141	0.0229174	0.000361054	0.000788265	0	0	0	
0.319833	-0.000945503	-0.00596863	0.000296712	0.000672194	0	0	0	
0.32	0.00206257	0.00579371	0.000179149	0.000459584	0	0	0	
0.320167	-0.0090917	-0.00664498	9.5205E-05	0.000255837	0	0	0	
0.320333	0.0164277	0.0204331	0.000133165	0.000277198	0	0	0	
0.3205	-0.0144872	-0.017858	0.000259422	0.000431435	0	0	0	
0.320667	0.0137339	0.019381	0.000366536	0.000571866	0	0	0	
0.320833	-0.007467	-0.0069991	0.000373151	0.000540924	0	0	0	
0.321	0.00244725	0.00762749	0.000266536	0.000374676	0	0	0	
0.321167	0.000189718	-0.0145691	0.000147226	0.000242399	0	0	0	
0.321333	0.00324225	0.0239111	5.4373E-05	0.000261573	0	0	0	
0.3215	-0.125888	-0.0565052	0.000326033	0.000679487	0	0	0	
0.321667	0.00507264	-0.000568582	0.000754318	0.0010196	0	0	0	
0.321833	0.0289725	0.0499598	0.000910768	0.00138312	0	0	0	
0.322	-0.0309156	-0.0212458	0.00104231	0.00138742	0	0	0	
0.322167	0.0184878	0.0212306	0.000835232	0.00125094	0	0	0	
0.322333	-0.035728	-0.0529942	0.000887766	0.00096016	0	0	0	
0.3225	0.00531193	0.032001	0.000710226	0.000745554	0	0	0	
0.322667	0.00396366	0.0320344	0.00057115	0.00073592	0	0	0	
0.322833	-0.0123168	-0.0413424	0.000432201	0.000790064	0	0	0	
0.323	0.0178785	0.0368291	0.0003011	0.000792574	0	0	0	
0.323167	-0.0210822	-0.0319676	0.000350751	0.00073636	0	0	0	
0.323333	0.0153352	0.0294526	0.000430317	0.000663671	0	0	0	
0.3235	-0.00920541	-0.0325706	0.000410543	0.0006323	0	0	0	
