0	-0.00210914	-0.0087413	2.10914E-07	8.7413E-07	0	0	0	
0.000166667	0.0032566	0.0210485	2.36727E-05	0.000134318	0	0	0	
0.000333333	0.000908228	-0.00532882	5.48685E-05	0.000214997	0	0	0	
0.0005	-0.00290356	-0.00973812	7.45022E-05	0.000258238	0	0	0	
0.000666667	0.00177795	-0.0120227	6.8033E-05	0.000319341	0	0	0	
0.000833333	-0.00184199	0.0300865	5.76189E-05	0.000427245	0	0	0	
0.001	0.00311214	-0.00177903	5.67257E-05	0.000503853	0	0	0	
0.00116667	0.00171295	-0.0155512	6.13832E-05	0.000337673	0	0	0	
0.00133333	-0.00522394	-0.0130888	6.87752E-05	0.000419365	0	0	0	
0.0015	0.00408592	0.0219328	9.48431E-05	0.000449717	0	0	0	
0.00166667	0.00237718	0.0115048	0.000130658	0.000536426	0	0	0	
0.00183333	-0.000822532	-0.012404	0.000109624	0.000386263	0	0	0	
0.002	-0.00303749	-0.018782	0.000102682	0.000534465	0	0	0	
0.00216667	0.00268967	0.0186007	5.73171E-05	0.000555076	0	0	0	
0.00233333	0.00183004	0.0015399	6.31092E-05	0.000490092	0	0	0	
0.0025	0.00334624	0.00235232	5.26245E-05	0.000288767	0	0	0	
0.00266667	-0.00674977	-0.00858374	9.98916E-05	0.00027442	0	0	0	
0.00283333	0.00665221	0.0025993	0.00012634	0.000300271	0	0	0	
0.003	0.00333609	-0.00846405	0.000121166	0.000338084	0	0	0	
0.00316667	-0.00600686	0.0166249	9.19114E-05	0.000354821	0	0	0	
0.00333333	0.00323125	-0.00634946	8.35732E-05	0.000351883	0	0	0	
0.0035	-0.000197538	0.00124397	7.92087E-05	0.00027752	0	0	0	
0.00366667	0.00101472	-0.0118829	5.71787E-05	0.000296242	0	0	0	
0.00383333	-0.00397544	0.016694	4.57812E-05	0.000368216	0	0	0	
0.004	0.00746295	-0.00838653	7.98441E-05	0.000412311	0	0	0	
0.00416667	-0.00550067	0.00437473	0.00012512	0.000342472	0	0	0	
0.00433333	0.00379745	-0.00670687	0.000136012	0.000313502	0	0	0	
0.0045	-0.00307874	0.00932044	0.000119868	0.000348736	0	0	0	
0.00466667	-0.0010894	-0.0106578	9.08345E-05	0.000392607	0	0	0	
0.00483333	0.000611094	0.00702328	7.79085E-05	0.000361244	0	0	0	
0.005	-0.000712396	-0.00131499	5.43384E-05	0.000288698	0	0	0	
0.00516667	-0.00234461	0.0035777	6.82079E-05	0.000277903	0	0	0	
0.00533333	0.00591686	-0.010995	8.64518E-05	0.000344702	0	0	0	
0.0055	-0.00590295	0.0117345	0.000113239	0.000398268	0	0	0	
0.00566667	0.00239307	-0.00707113	9.53381E-05	0.000354684	0	0	0	
0.00583333	-1.82529E-05	0.00238624	7.08238E-05	0.000268159	0	0	0	
0.006	-0.00129347	-0.00629026	3.79597E-05	0.000263238	0	0	0	
0.00616667	-0.00266831	0.0112387	3.66239E-05	0.000335251	0	0	0	
0.00633333	0.00506492	-0.00992463	6.55992E-05	0.000375927	0	0	0	
0.0065	-0.00809132	0.00275139	0.000103614	0.000336617	0	0	0	
0.00666667	0.00479353	-0.00472481	0.000122454	0.000315146	0	0	0	
0.00683333	-0.00146641	0.0133905	0.000107352	0.000365993	0	0	0	
0.007	-0.00116665	-0.0107403	8.39991E-05	0.000400119	0	0	0	
0.00716667	-0.00134841	0.00255826	9.97225E-05	0.00035841	0	0	0	
0.00733333	0.0026054	-0.0074999	0.000134367	0.000328915	0	0	0	
0.0075	-0.00505038	0.0111677	0.000143651	0.00035554	0	0	0	
0.00766667	0.00134479	-0.00523543	0.000111793	0.000370013	0	0	0	
0.00783333	0.00341645	0.00663522	7.03993E-05	0.00033802	0	0	0	
0.008	-0.00343925	-0.0108018	6.34374E-05	0.000327546	0	0	0	
0.00816667	0.000273313	0.0105403	6.64406E-05	0.000341483	0	0	0	
0.00833333	-0.00572658	-0.00649446	9.99945E-05	0.000314423	0	0	0	
0.0085	0.00260881	-0.00327061	0.000134945	0.000227535	0	0	0	
0.00866667	0.0042781	0.00359556	0.000173121	0.000183361	0	0	0	
0.00883333	-0.00682894	0.00787247	0.000155821	0.000230693	0	0	0	
0.009	0.00952671	-0.0109927	0.000151503	0.000296137	0	0	0	
0.00916667	-0.0144945	0.0212964	0.000188256	0.000414719	0	0	0	
0.00933333	0.00493465	-0.045848	0.000264553	0.000679544	0	0	0	
0.0095	-0.00245402	0.0466686	0.00023256	0.000859442	0	0	0	
0.00966667	-0.00399581	0.00312973	0.000195232	0.000984858	0	0	0	
0.00983333	0.00542807	-0.0298448	0.000134792	0.000790341	0	0	0	
0.01	-0.00132747	-0.00380135	0.00012759	0.00077634	0	0	0	
0.0101667	0.00146931	0.0125403	0.000113231	0.00073163	0	0	0	
0.0103333	-0.0097083	0.013258	0.000165342	0.000769226	0	0	0	
0.0105	0.00101581	0.0355245	0.000278822	0.00103754	0	0	0	
0.0106667	0.00717127	-0.093482	0.00032697	0.00125716	0	0	0	
0.0108333	-0.0045583	0.0505783	0.000251678	0.00161652	0	0	0	
0.011	-0.00363382	0.047384	0.00017699	0.00196231	0	0	0	
0.0111667	0.00273931	-0.0949854	0.000101124	0.00184275	0	0	0	
0.0113333	-0.000642399	0.0554515	0.000106781	0.00194616	0	0	0	
0.0115	0.00158846	0.0295146	6.4403E-05	0.00201794	0	0	0	
0.0116667	-0.00286838	-0.105898	6.3138E-05	0.00250497	0	0	0	
0.0118333	-0.000783848	0.130993	4.21484E-05	0.00248459	0	0	0	
0.012	-0.00261518	-0.0739426	7.00073E-05	0.0022729	0	0	0	
0.0121667	0.00989682	-0.0291814	0.000115917	0.00214731	0	0	0	
0.0123333	-0.0096432	0.0954421	0.000170212	0.00204661	0	0	0	
0.0125	0.00289924	-0.0907294	0.000172571	0.00184705	0	0	0	
0.0126667	-0.00199887	0.029744	0.000119768	0.00178821	0	0	0	
0.0128333	-0.00118677	0.0372435	6.7948E-05	0.00197839	0	0	0	
0.013	0.000976349	-0.0716096	5.69011E-05	0.00197522	0	0	0	
0.0131667	-0.000470161	0.0713039	5.84839E-05	0.00172029	0	0	0	
0.0133333	0.00202328	-0.0265005	7.54731E-05	0.00132923	0	0	0	
0.0135	0.000367957	-0.0412258	9.29459E-05	0.00129436	0	0	0	
0.0136667	-0.000393154	0.0617955	0.000115819	0.00125978	0	0	0	
0.0138333	0.000152185	-0.0264955	0.000107287	0.00119179	0	0	0	
0.014	0.000737209	-0.0124727	7.67673E-05	0.00113121	0	0	0	
0.0141667	-0.00134081	0.0235472	5.98656E-05	0.00107392	0	0	0	
0.0143333	0.00189398	-0.021716	7.14955E-05	0.000996335	0	0	0	
0.0145	1.82486E-05	0.0392667	0.000104434	0.000744247	0	0	0	
0.0146667	-4.77544E-05	-0.0454356	0.000126401	0.000675438	0	0	0	
0.0148333	0.000124244	-0.00516691	0.000110865	0.000774976	0	0	0	
0.015	0.000519098	0.0533136	7.82202E-05	0.000814619	0	0	0	
0.0151667	-3.85222E-06	-0.0227205	4.37207E-05	0.000905909	0	0	0	
0.0153333	0.00420868	-0.0395843	5.76101E-05	0.0011254	0	0	0	
0.0155	-0.00822167	0.0393888	8.4893E-05	0.00113923	0	0	0	
0.0156667	0.00308078	0.00714459	0.000119549	0.00101374	0	0	0	
0.0158333	0.00358959	-0.0208413	0.000147506	0.000553452	0	0	0	
0.016	-0.00174284	0.00403921	0.000118963	0.000490867	0	0	0	
0.0161667	-0.00790606	-0.00416491	9.60256E-05	0.000446121	0	0	0	
0.0163333	0.00813278	0.00298834	0.000101866	0.000578907	0	0	0	
0.0165	0.00652098	0.0257415	0.000157675	0.000765481	0	0	0	
0.0166667	-0.0116349	-0.048901	0.000227896	0.000915134	0	0	0	
0.0168333	0.00751757	0.0248974	0.000238981	0.000914713	0	0	0	
0.017	-0.00295326	0.0105615	0.000227361	0.000726039	0	0	0	
0.0171667	-0.00072196	-0.00859458	0.000176498	0.00046716	0	0	0	
0.0173333	0.00262344	-0.0106467	0.000117278	0.000442985	0	0	0	
0.0175	-0.000707513	0.00411239	7.93376E-05	0.00033489	0	0	0	
0.0176667	0.0043644	0.00840818	7.24016E-05	0.000297977	0	0	0	
0.0178333	-0.00520631	0.00304292	0.000117311	0.000282352	0	0	0	
0.018	0.00635988	-0.0173427	0.000146406	0.000411648	0	0	0	
0.0181667	-0.00481643	0.00346625	0.000162517	0.0004814	0	0	0	
0.0183333	0.000601637	0.00650307	0.000128474	0.000391104	0	0	0	
0.0185	0.0026669	0.010047	0.000112947	0.000414984	0	0	0	
0.0186667	-0.00473176	-0.0249768	0.000107211	0.000540112	0	0	0	
0.0188333	0.0041683	0.0187602	0.000118712	0.000617446	0	0	0	
0.019	-0.00371356	-0.0157225	0.000110864	0.000507101	0	0	0	
0.0191667	0.00122279	0.0131611	8.28884E-05	0.000379183	0	0	0	
0.0193333	0.000956619	0.0015977	5.37263E-05	0.000275316	0	0	0	
0.0195	-0.00223259	-0.0146428	4.69811E-05	0.000197283	0	0	0	
0.0196667	-0.000368336	0.00509258	5.85356E-05	0.0002431	0	0	0	
0.0198333	-0.000580257	0.00577136	6.44522E-05	0.000369236	0	0	0	
0.02	-0.00016244	-0.00106857	4.85436E-05	0.000446304	0	0	0	
0.0201667	-0.000757289	-0.00260508	2.77114E-05	0.000453368	0	0	0	
0.0203333	0.000878849	-0.00578299	3.04922E-05	0.00051783	0	0	0	
0.0205	-0.00198341	0.0254911	5.7371E-05	0.00064758	0	0	0	
0.0206667	0.00198086	-0.03671	7.69292E-05	0.000717738	0	0	0	
0.0208333	-0.0049273	0.0278314	9.17532E-05	0.000657223	0	0	0	
0.021	9.85537E-05	0.000237118	0.000100837	0.000576471	0	0	0	
0.0211667	0.00256071	-0.0268349	0.000110868	0.000517335	0	0	0	
0.0213333	0.00087854	0.0320177	8.21982E-05	0.000502848	0	0	0	
0.0215	-0.00284539	-0.0137201	6.45122E-05	0.000571358	0	0	0	
0.0216667	0.00185502	-0.00570393	4.53552E-05	0.000734802	0	0	0	
0.0218333	-0.00470734	0.0266115	6.726E-05	0.00091816	0	0	0	
0.022	0.00755917	-0.0468435	8.44364E-05	0.000981655	0	0	0	
0.0221667	-0.00663412	0.036076	0.000134138	0.000906447	0	0	0	
0.0223333	-0.01145	0.00593387	0.00023336	0.000800921	0	0	0	
0.0225	0.0238431	-0.0292554	0.000322078	0.000656452	0	0	0	
0.0226667	-0.0196515	0.0239832	0.000394116	0.000605262	0	0	0	
0.0228333	0.0104874	0.00989207	0.00035719	0.000725827	0	0	0	
0.023	-0.00777745	-0.0641735	0.000284093	0.00102798	0	0	0	
0.0231667	-0.000102146	0.0818945	0.000213793	0.00130937	0	0	0	
0.0233333	0.00682931	-0.0357077	0.00017226	0.00130271	0	0	0	
0.0235	-0.00481308	-0.00220595	0.000184456	0.00121486	0	0	0	
0.0236667	-0.00218512	0.00954106	0.00023454	0.000892385	0	0	0	
0.0238333	-0.000618684	-0.0145274	0.000258923	0.000626931	0	0	0	
0.024	0.00428409	0.0402511	0.00025692	0.000410901	0	0	0	
0.0241667	0.00596909	-0.047327	0.000241005	0.000597725	0	0	0	
0.0243333	-0.0173412	-0.00712577	0.000274023	0.00120013	0	0	0	
0.0245	0.0150096	0.104643	0.000316537	0.00188662	0	0	0	
0.0246667	-0.011308	-0.141448	0.000312583	0.00229646	0	0	0	
0.0248333	0.0118408	0.0607085	0.000289321	0.00235113	0	0	0	
0.025	-0.0124774	0.0386787	0.00025485	0.00236779	0	0	0	
0.0251667	0.00405664	-0.0451854	0.000212165	0.00197914	0	0	0	
0.0253333	0.00134297	0.00633717	0.000146373	0.00138534	0	0	0	
0.0255	-0.000615369	-0.020819	0.000110723	0.00065465	0	0	0	
0.0256667	-0.00149446	0.0403651	9.4473E-05	0.000533813	0	0	0	
0.0258333	-0.00243606	0.0375703	0.000101705	0.00120716	0	0	0	
0.026	-0.00107268	-0.116041	0.00010827	0.00179931	0	0	0	
0.0261667	0.00507932	0.059502	0.000133092	0.00213006	0	0	0	
0.0263333	-0.00318123	0.0758024	0.000132145	0.00223178	0	0	0	
0.0265	0.00111125	-0.137963	0.00012081	0.00201247	0	0	0	
0.0266667	-0.0103961	0.0499394	0.000160755	0.00289517	0	0	0	
0.0268333	0.0148701	0.0786805	0.000267091	0.00397647	0	0	0	
0.027	-0.0108412	-0.15958	0.000311429	0.00447636	0	0	0	
0.0271667	0.00158039	0.0838809	0.000272623	0.00392535	0	0	0	
0.0273333	0.00956016	0.0172385	0.000230569	0.00291411	0	0	0	
0.0275	-0.0157559	-0.0615053	0.000251172	0.00238071	0	0	0	
0.0276667	0.0039234	0.114673	0.000227553	0.00204794	0	0	0	
0.0278333	-0.0100113	-0.175687	0.000338493	0.00200215	0	0	0	
0.028	-0.000457018	0.0566776	0.000475087	0.00234799	0	0	0	
0.0281667	0.00749813	0.118274	0.000574115	0.00292082	0	0	0	
0.0283333	-0.00854079	-0.145975	0.000420266	0.00272888	0	0	0	
0.0285	0.00410238	0.00072314	0.000243811	0.00276908	0	0	0	
0.0286667	-0.00101415	0.115641	0.000151863	0.00234993	0	0	0	
0.0288333	-0.020765	-0.073029	0.000205654	0.00214608	0	0	0	
0.029	0.0144801	-0.0155304	0.000272272	0.0021757	0	0	0	
0.0291667	-0.00707657	0.0582928	0.000292251	0.00208171	0	0	0	
0.0293333	0.00346045	-0.0574014	0.000239991	0.00193091	0	0	0	
0.0295	-0.00550336	0.0506411	0.000165158	0.00138045	0	0	0	
0.0296667	0.00428277	-0.0267151	0.000124585	0.00098563	0	0	0	
0.0298333	0.000906777	-0.000837301	0.000124682	0.000714463	0	0	0	
0.03	-0.00604926	-0.001705	0.000140807	0.000432668	0	0	0	
0.0301667	0.00534541	0.0171683	0.000175551	0.000349773	0	0	0	
0.0303333	-0.00278005	-0.0128884	0.000162849	0.000295706	0	0	0	
0.0305	0.00652103	0.000993151	0.000124427	0.000294413	0	0	0	
0.0306667	-0.005325	-0.00631288	0.000107637	0.000218476	0	0	0	
0.0308333	0.00370762	0.00773225	0.000102129	0.000199761	0	0	0	
0.031	-0.00183957	0.00816179	9.98936E-05	0.000185633	0	0	0	
0.0311667	0.000878285	-0.0230897	8.00627E-05	0.00020339	0	0	0	
0.0313333	0.00206766	0.014304	8.49506E-05	0.000346951	0	0	0	
0.0315	0.00484972	0.00662785	0.000118933	0.000631442	0	0	0	
0.0316667	-0.00918339	-0.0238328	0.000178939	0.000835642	0	0	0	
0.0318333	0.0116392	0.0271331	0.000222293	0.000858088	0	0	0	
0.032	-0.00573982	-0.0222692	0.000216606	0.000715805	0	0	0	
0.0321667	3.56625E-05	0.0158123	0.000150725	0.00053548	0	0	0	
0.0323333	0.00507638	-0.00963635	0.000105504	0.000372582	0	0	0	
0.0325	-0.00710167	0.00118064	9.19798E-05	0.000241759	0	0	0	
0.0326667	0.00495414	0.000452285	0.000109298	0.000194799	0	0	0	
0.0328333	0.00197373	0.0054985	0.000134749	0.000244394	0	0	0	
0.033	-0.0045493	-0.00611305	0.000152312	0.000293148	0	0	0	
0.0331667	0.00571417	-0.00203884	0.000147481	0.000278167	0	0	0	
0.0333333	-0.00587772	0.000850708	0.000134326	0.00027692	0	0	0	
0.0335	-4.79102E-05	0.0116042	0.000123048	0.000403227	0	0	0	
0.0336667	0.00331175	-0.0181043	0.000133164	0.000531811	0	0	0	
0.0338333	-0.000675217	0.00941224	0.000108239	0.000514677	0	0	0	
0.034	-0.00197577	-0.00512225	7.45131E-05	0.000381882	0	0	0	
0.0341667	0.00300269	0.0122596	6.0202E-05	0.000346846	0	0	0	
0.0343333	-0.00321122	-0.0124282	6.18653E-05	0.000361929	0	0	0	
0.0345	0.00495221	-0.00306296	7.20558E-05	0.000329697	0	0	0	
0.0346667	-0.00343737	0.00293388	7.68156E-05	0.000306978	0	0	0	
0.0348333	0.00221849	0.0187996	7.61233E-05	0.000445691	0	0	0	
0.035	-0.000202897	-0.0252166	6.60405E-05	0.000578813	0	0	0	
0.0351667	0.000743788	0.00582322	6.26251E-05	0.000541223	0	0	0	
0.0353333	-0.00209786	-0.00151678	5.37027E-05	0.000332799	0	0	0	
0.0355	-0.000359821	0.0136939	5.59821E-05	0.000282715	0	0	0	
0.0356667	0.005468	-0.00449377	4.60919E-05	0.000237803	0	0	0	
0.0358333	-0.00452031	-0.0190631	7.09391E-05	0.000255891	0	0	0	
0.036	0.000105139	0.0105845	7.1648E-05	0.000300447	0	0	0	
0.0361667	-9.48491E-05	0.0212572	6.85871E-05	0.000595511	0	0	0	
0.0363333	0.000363008	-0.0279072	4.2035E-05	0.000730669	0	0	0	
0.0365	0.000970143	0.00885894	3.74117E-05	0.000661632	0	0	0	
0.0366667	-0.00119994	-0.00250561	2.78793E-05	0.000393426	0	0	0	
0.0368333	0.000722832	0.0141192	3.9616E-05	0.00034278	0	0	0	
0.037	-0.000787723	-0.00926855	3.64147E-05	0.000322392	0	0	0	
0.0371667	0.00409977	-0.00478469	5.24469E-05	0.000273249	0	0	0	
0.0373333	-0.00400987	0.00138707	5.8132E-05	0.000240307	0	0	0	
0.0375	0.000927526	0.0147777	7.57771E-05	0.000363935	0	0	0	
0.0376667	0.000962746	-0.0147035	7.7908E-05	0.000483807	0	0	0	
0.0378333	0.000769365	0.00349248	6.50141E-05	0.000422238	0	0	0	
0.038	-0.00216641	-0.000497869	6.3812E-05	0.00027465	0	0	0	
0.0381667	-0.00026382	0.00840306	4.95811E-05	0.000265206	0	0	0	
0.0383333	0.000371161	-0.00866839	4.46486E-05	0.000331644	0	0	0	
0.0385	0.00050066	0.00462222	2.73345E-05	0.000361735	0	0	0	
0.0386667	0.000307389	-0.00586042	4.04294E-05	0.00034857	0	0	0	
0.0388333	0.000574073	0.0121289	4.97649E-05	0.000382871	0	0	0	
0.039	0.00220728	-0.0138632	5.95122E-05	0.000423286	0	0	0	
0.0391667	-0.00210832	0.00496539	6.71774E-05	0.000388305	0	0	0	
0.0393333	-0.00451021	-0.000843938	0.000104601	0.000336076	0	0	0	
0.0395	0.00399783	0.0123764	0.000119629	0.00039641	0	0	0	
0.0396667	0.00288265	-0.0177786	0.000136693	0.000450418	0	0	0	
0.0398333	-0.00638801	5.43413E-05	0.000133184	0.000396008	0	0	0	
0.04	0.000251576	0.00127528	0.000132321	0.000268117	0	0	0	
0.0401667	0.00771021	0.018545	0.000143107	0.000329831	0	0	0	
0.0403333	-0.00337439	-0.0134746	0.000121129	0.000378782	0	0	0	
0.0405	-0.00390426	-0.0114213	0.00011981	0.000392033	0	0	0	
0.0406667	0.000629365	0.00540342	7.48032E-05	0.0002892	0	0	0	
0.0408333	0.00451863	0.0112327	6.47156E-05	0.000388803	0	0	0	
0.041	-0.001311	-0.00560663	5.91107E-05	0.000408079	0	0	0	
0.0411667	-0.0041348	0.00606495	7.11957E-05	0.000455207	0	0	0	
0.0413333	-0.00177178	-0.00840445	9.88408E-05	0.000431568	0	0	0	
0.0415	0.0111357	-0.0120265	0.000141602	0.000490012	0	0	0	
0.0416667	-0.00313906	0.0423148	0.000158346	0.000580667	0	0	0	
0.0418333	-0.00868063	-0.00222042	0.000158317	0.000726634	0	0	0	
0.042	0.00511551	-0.0601738	0.000164324	0.00107208	0	0	0	
0.0421667	0.0120396	0.0454035	0.000238984	0.00112371	0	0	0	
0.0423333	-0.0135738	0.0016712	0.000271205	0.00116852	0	0	0	
0.0425	0.00509183	0.0165785	0.000261989	0.000877931	0	0	0	
0.0426667	-0.00374987	-0.0147298	0.000187673	0.000859934	0	0	0	
0.0428333	0.00412505	-0.0489811	0.00012419	0.000958486	0	0	0	
0.043	0.00760498	0.0772485	0.000148681	0.00110434	0	0	0	
0.0431667	-0.0122608	-0.0246876	0.000188438	0.00134371	0	0	0	
0.0433333	0.00467701	-0.0288107	0.000230448	0.00145314	0	0	0	
0.0435	0.00162666	0.0302759	0.00023297	0.00141949	0	0	0	
0.0436667	-0.00242878	-0.0211821	0.000200225	0.00111583	0	0	0	
0.0438333	-0.000558682	0.0298133	0.000154716	0.00075897	0	0	0	
0.044	0.002246	-0.0418808	7.93786E-05	0.000682738	0	0	0	
0.0441667	-0.000303704	0.0354456	4.4704E-05	0.000700818	0	0	0	
0.0443333	-0.00134632	-0.0127301	4.30626E-05	0.000695455	0	0	0	
0.0445	-0.00356178	-0.00245651	3.57311E-05	0.000607628	0	0	0	
0.0446667	0.00356863	0.0021246	4.80801E-05	0.0004624	0	0	0	
0.0448333	-0.000416521	-0.0167516	6.44113E-05	0.000366408	0	0	0	
0.045	-0.00176067	0.0361011	7.94049E-05	0.000372863	0	0	0	
0.0451667	0.0037878	-0.0299302	6.65374E-05	0.000514933	0	0	0	
0.0453333	-0.00298289	0.00677483	7.45567E-05	0.000698094	0	0	0	
0.0455	-0.00133102	-0.00268271	8.1988E-05	0.000757739	0	0	0	
0.0456667	0.00390629	0.00162698	0.000103176	0.000768059	0	0	0	
0.0458333	-0.00643806	0.0227912	9.54097E-05	0.000840717	0	0	0	
0.046	0.00666213	-0.0486303	0.000111991	0.000969416	0	0	0	
0.0461667	-0.00227751	0.0350171	0.000128007	0.000988792	0	0	0	
0.0463333	-0.00259072	-0.0105578	0.000161858	0.000758168	0	0	0	
0.0465	0.00364804	0.0100446	0.000168344	0.000470886	0	0	0	
0.0466667	-0.00492937	-0.0143532	0.000138765	0.000297406	0	0	0	
0.0468333	-0.000161966	-0.00455212	0.000110271	0.000243363	0	0	0	
0.047	0.00580867	0.0182711	9.86252E-05	0.000235668	0	0	0	
0.0471667	-0.00484743	-0.00709332	0.000119466	0.000306913	0	0	0	
0.0473333	0.00175586	-0.000336623	0.000102942	0.000372002	0	0	0	
0.0475	0.000559821	-0.00663406	8.32915E-05	0.000417271	0	0	0	
0.0476667	-0.00379436	-0.00437496	6.91834E-05	0.000466462	0	0	0	
0.0478333	0.000930831	0.0175286	5.98555E-05	0.000516699	0	0	0	
0.048	0.00218805	-0.00621521	6.9841E-05	0.000504744	0	0	0	
0.0481667	-0.0024756	0.00319007	7.06531E-05	0.00040301	0	0	0	
0.0483333	0.00103215	-0.0236115	8.26162E-05	0.00040778	0	0	0	
0.0485	-0.00106768	0.0166975	6.58134E-05	0.000434383	0	0	0	
0.0486667	0.00198727	0.0127892	4.96603E-05	0.00044334	0	0	0	
0.0488333	-0.000730907	-0.00595723	5.91834E-05	0.000354348	0	0	0	
0.049	-0.00255048	-0.0232033	5.16769E-05	0.000477322	0	0	0	
0.0491667	-0.00174225	0.0116434	5.75459E-05	0.000471485	0	0	0	
0.0493333	0.000354661	0.0143582	4.89115E-05	0.000436392	0	0	0	
0.0495	-0.000419626	-0.0103579	4.59293E-05	0.000326991	0	0	0	
0.0496667	-0.00129168	-0.00231378	4.44228E-05	0.000437021	0	0	0	
0.0498333	-0.00143944	0.00317723	4.42187E-05	0.000494503	0	0	0	
0.05	-0.000744868	-0.00465082	4.63511E-05	0.000559031	0	0	0	
0.0501667	-0.000116562	0.00769062	3.87343E-05	0.000680528	0	0	0	
0.0503333	-0.00162312	-0.0258903	3.97618E-05	0.000961604	0	0	0	
0.0505	-0.00305055	0.0650325	4.84258E-05	0.00127681	0	0	0	
0.0506667	0.000124733	-0.0835124	4.85467E-05	0.00140024	0	0	0	
0.0508333	6.45295E-05	0.0195304	4.10599E-05	0.00149699	0	0	0	
0.051	0.000173604	0.0957876	2.70719E-05	0.0017764	0	0	0	
0.0511667	-0.00470877	-0.117515	3.63129E-05	0.0019178	0	0	0	
0.0513333	0.00334265	0.0232986	4.21786E-05	0.00229265	0	0	0	
0.0515	0.00177478	0.052955	9.95463E-05	0.00246482	0	0	0	
0.0516667	-0.00771887	-0.049576	0.000142352	0.0023806	0	0	0	
0.0518333	0.00774741	0.0185825	0.000179462	0.00171191	0	0	0	
0.052	-0.00502729	-0.0137068	0.000166842	0.000853752	0	0	0	
0.0521667	0.00316899	0.0083807	0.000133424	0.000449237	0	0	0	
0.0523333	-0.000353627	0.0247233	8.88532E-05	0.000411966	0	0	0	
0.0525	-0.0032343	-0.0185931	5.35881E-05	0.000702277	0	0	0	
0.0526667	0.00481307	-0.0350348	6.96196E-05	0.0010826	0	0	0	
0.0528333	0.000942202	0.0462923	0.000123355	0.00115876	0	0	0	
0.053	0.00217685	0.00496768	0.000175814	0.00109954	0	0	0	
0.0531667	-0.0015301	-0.0716688	0.000161776	0.000926432	0	0	0	
0.0533333	0.00524082	0.0637778	0.00012298	0.00115485	0	0	0	
0.0535	-0.00237409	0.018669	8.69755E-05	0.00150585	0	0	0	
0.0536667	0.00327847	-0.0663	7.68238E-05	0.00167698	0	0	0	
0.0538333	-0.00236659	0.0429044	6.17535E-05	0.00152043	0	0	0	
0.054	0.00930077	0.00464374	9.40654E-05	0.00104175	0	0	0	
0.0541667	-0.00287674	-0.0378146	0.000139802	0.00070462	0	0	0	
0.0543333	0.000107533	0.0341225	0.000136866	0.000609489	0	0	0	
0.0545	-0.0044727	-0.00475817	0.000103249	0.00074764	0	0	0	
0.0546667	0.00311289	-0.0243321	0.000105139	0.000967345	0	0	0	
0.0548333	-4.0449E-05	0.0319298	0.000150501	0.00095549	0	0	0	
0.055	0.00851201	-0.0146147	0.000155266	0.000736663	0	0	0	
0.0551667	-0.0135597	-0.00448982	0.000166477	0.000410221	0	0	0	
0.0553333	0.00641924	5.86404E-05	0.000168703	0.000299845	0	0	0	
0.0555	-0.00724816	0.0205228	0.000189527	0.000379373	0	0	0	
0.0556667	0.00930166	-0.0213959	0.000172601	0.000465858	0	0	0	
0.0558333	-0.00643944	-0.00864628	0.000163383	0.000467592	0	0	0	
0.056	0.000982097	0.0226642	0.000128772	0.000335107	0	0	0	
0.0561667	-0.00403769	0.00608242	8.91535E-05	0.000508369	0	0	0	
0.0563333	0.0128733	-0.0326082	0.000101036	0.000672221	0	0	0	
0.0565	-0.0144129	0.012221	0.000162256	0.000715459	0	0	0	
0.0566667	0.00596743	0.0215695	0.000236518	0.000570531	0	0	0	
0.0568333	0.00644571	-0.012496	0.000266434	0.000452374	0	0	0	
0.057	-0.00575428	-0.0249016	0.000224939	0.000675766	0	0	0	
0.0571667	0.00129299	0.0278888	0.00015393	0.000710687	0	0	0	
0.0573333	0.00348456	0.00420784	8.30161E-05	0.000662284	0	0	0	
0.0575	-0.00455977	-0.0193233	9.03444E-05	0.000372078	0	0	0	
0.0576667	0.00721266	-0.0104761	0.000115471	0.000468555	0	0	0	
0.0578333	-0.00545689	0.0354481	0.000135216	0.000616254	0	0	0	
0.058	-0.00223748	-0.00309031	0.000168639	0.000685462	0	0	0	
0.0581667	0.00338193	-0.0420829	0.000169611	0.000558346	0	0	0	
0.0583333	0.00214641	0.0216979	0.000143251	0.00062669	0	0	0	
0.0585	0.000528464	0.0339945	0.00010658	0.00107448	0	0	0	
0.0586667	-0.0110082	-0.0658309	0.000154537	0.00134346	0	0	0	
0.0588333	0.0117726	0.0704461	0.000218058	0.00139146	0	0	0	
0.059	0.0018417	-0.0227464	0.000220299	0.00131387	0	0	0	
0.0591667	-0.00756474	-0.0711132	0.000154614	0.00151407	0	0	0	
0.0593333	-0.00681462	0.0689904	0.00013061	0.00152536	0	0	0	
0.0595	0.00134295	0.0382558	0.000126115	0.00193424	0	0	0	
0.0596667	0.00816043	-0.0711804	0.000118976	0.00183649	0	0	0	
0.0598333	0.00349732	0.0130217	0.000165999	0.00169506	0	0	0	
0.06	-0.0124936	-0.0134031	0.000237782	0.000933301	0	0	0	
0.0601667	-0.000531286	0.0382294	0.000243817	0.000725574	0	0	0	
0.0603333	0.00570166	0.00817389	0.000233011	0.000569599	0	0	0	
0.0605	-0.0198129	-0.0415017	0.000210686	0.000566132	0	0	0	
0.0606667	0.0119307	-0.00339824	0.00032778	0.00069265	0	0	0	
0.0608333	-0.00232309	0.0381194	0.000329536	0.000999206	0	0	0	
0.061	-0.000632088	-0.0258615	0.000279598	0.00104785	0	0	0	
0.0611667	0.000881183	0.00710206	0.000138722	0.000701558	0	0	0	
0.0613333	-0.00374095	0.021928	7.39152E-05	0.000439684	0	0	0	
0.0615	-0.006311	-0.0362562	7.16622E-05	0.000405954	0	0	0	
0.0616667	0.00580769	-0.0123811	0.000127206	0.000757448	0	0	0	
0.0618333	-0.00691354	0.060758	0.000140463	0.00106711	0	0	0	
0.062	-0.0117757	-0.0183408	0.00014965	0.00115383	0	0	0	
0.0621667	0.0185975	-0.0441623	0.000186691	0.00101749	0	0	0	
0.0623333	-0.0116951	0.0247387	0.000240192	0.000828705	0	0	0	
0.0625	0.00241233	0.0297678	0.000236433	0.00107216	0	0	0	
0.0626667	0.00499884	-0.0390489	0.000149754	0.00102818	0	0	0	
0.0628333	-0.00754799	0.0121665	0.000102742	0.000914708	0	0	0	
0.063	-0.00337158	0.0135165	9.8809E-05	0.00052418	0	0	0	
0.0631667	0.00111725	-0.0156643	0.000123265	0.000362237	0	0	0	
0.0633333	0.00114345	-0.00680434	0.000140149	0.000471856	0	0	0	
0.0635	0.00148777	0.0223124	0.000156341	0.000605436	0	0	0	
0.0636667	-0.00493397	-0.0099518	0.000134439	0.000604396	0	0	0	
0.0638333	0.00842786	-0.00179266	0.000137391	0.000391777	0	0	0	
0.064	-0.00619056	-0.00264736	0.000162136	0.000275692	0	0	0	
0.0641667	0.00390453	0.00199792	0.000175191	0.00025358	0	0	0	
0.0643333	-0.00507232	0.00714297	0.000143581	0.000260069	0	0	0	
0.0645	0.00443832	-0.0127727	9.75171E-05	0.000253785	0	0	0	
0.0646667	0.00439978	0.00870936	0.000105848	0.000332599	0	0	0	
0.0648333	0.00524692	0.0095768	9.85713E-05	0.00052665	0	0	0	
0.065	-0.00905379	-0.0280535	0.000119705	0.000637	0	0	0	
0.0651667	0.00449719	0.0135975	0.0001175	0.000583535	0	0	0	
0.0653333	-0.000644692	0.0141343	0.00012579	0.000479981	0	0	0	
0.0655	0.00169128	-0.00727824	9.27654E-05	0.000326879	0	0	0	
0.0656667	-0.00136522	-0.00793962	0.000100768	0.00039032	0	0	0	
0.0658333	0.00761972	0.00321515	9.41061E-05	0.000373477	0	0	0	
0.066	-0.00559911	-0.0109532	0.00012077	0.000474029	0	0	0	
0.0661667	0.00691241	0.0281662	0.000114611	0.000481334	0	0	0	
0.0663333	-0.0117345	-0.00674125	0.000147587	0.000467626	0	0	0	
0.0665	0.0100252	-0.0268436	0.000177927	0.000462519	0	0	0	
0.0666667	-0.000128199	0.0176539	0.000163288	0.000504712	0	0	0	
0.0668333	-0.0049557	0.0179077	0.000136287	0.00078018	0	0	0	
0.067	0.00657204	-0.022082	9.30542E-05	0.000804141	0	0	0	
0.0671667	-0.00477714	0.00401322	9.83969E-05	0.000651679	0	0	0	
0.0673333	0.00323352	0.000137485	0.000105657	0.000321686	0	0	0	
0.0675	-0.00119045	0.00866249	0.000160961	0.000280745	0	0	0	
0.0676667	-0.00249103	-0.0109923	0.000226649	0.000336611	0	0	0	
0.0678333	0.00597285	0.00762761	0.000222816	0.000375212	0	0	0	
0.068	-0.002817	-0.00304572	0.000160198	0.000310664	0	0	0	
0.0681667	0.00265021	0.0033982	9.9453E-05	0.000292583	0	0	0	
0.0683333	0.00115862	-0.00529109	0.000100189	0.000332865	0	0	0	
0.0685	-0.00373169	0.000879299	0.000113829	0.000355791	0	0	0	
0.0686667	0.00336676	0.00355157	9.61726E-05	0.000342896	0	0	0	
0.0688333	0.00184053	0.00300479	9.9227E-05	0.000359475	0	0	0	
0.069	-0.00676171	-0.00921112	0.00010481	0.000407186	0	0	0	
0.0691667	0.00736634	0.00585963	0.000129997	0.000407772	0	0	0	
0.0693333	-0.00450613	-0.000301584	0.000133378	0.000327454	0	0	0	
0.0695	0.00270211	-0.0010595	0.000112623	0.000265912	0	0	0	
0.0696667	0.00107958	-0.00290781	8.95996E-05	0.000282919	0	0	0	
0.0698333	-0.00516552	0.00718729	7.32473E-05	0.000339459	0	0	0	
0.07	0.0010176	-0.00564081	7.7402E-05	0.000345537	0	0	0	
0.0701667	0.00270682	0.0011234	9.74327E-05	0.00029239	0	0	0	
0.0703333	-0.00425533	0.000502288	9.82634E-05	0.000257746	0	0	0	
0.0705	0.00145552	0.00189303	8.05936E-05	0.000294424	0	0	0	
0.0706667	0.000189947	-0.00412867	6.25177E-05	0.000376175	0	0	0	
0.0708333	-0.00260213	0.00950727	6.34147E-05	0.000437831	0	0	0	
0.071	0.00571191	-0.0107653	8.43013E-05	0.000426345	0	0	0	
0.0711667	-0.00177901	0.00235099	7.8069E-05	0.000345676	0	0	0	
0.0713333	-0.00687792	0.0011572	0.000103206	0.000273966	0	0	0	
0.0715	0.0111392	0.00901256	0.000142034	0.000328129	0	0	0	
0.0716667	-0.00805823	-0.0140136	0.000181206	0.000398011	0	0	0	
0.0718333	0.00345398	0.00435775	0.000178044	0.000370942	0	0	0	
0.072	0.000418042	-0.00119634	0.000141372	0.000252379	0	0	0	
0.0721667	-0.000279665	0.00804927	0.000119207	0.000237543	0	0	0	
0.0723333	0.0075169	0.000418261	8.79169E-05	0.000251954	0	0	0	
0.0725	-0.009228	-0.00839476	0.000109134	0.000300433	0	0	0	
0.0726667	0.00387793	-0.0122852	0.000127142	0.000458103	0	0	0	
0.0728333	0.00133618	0.0276252	0.00013435	0.000626619	0	0	0	
0.073	-0.00103757	-0.00601577	8.86402E-05	0.000621461	0	0	0	
0.0731667	-0.000980926	-0.00845557	5.28323E-05	0.000385014	0	0	0	
0.0733333	0.00148831	-0.00842271	5.09409E-05	0.000376279	0	0	0	
0.0735	0.00251795	0.0154007	6.06606E-05	0.000455192	0	0	0	
0.0736667	-0.00569967	0.00441557	8.28031E-05	0.0004578	0	0	0	
0.0738333	0.00662063	-0.0110078	8.82889E-05	0.000307873	0	0	0	
0.074	-0.00408666	-0.00759484	0.000112638	0.000360031	0	0	0	
0.0741667	-0.00120025	0.0253256	0.000116258	0.000526361	0	0	0	
0.0743333	0.00307294	-0.00882861	0.00012507	0.000537433	0	0	0	
0.0745	-0.00950221	-0.0261872	0.000139919	0.000454522	0	0	0	
0.0746667	0.0178714	0.0227928	0.000190872	0.000416696	0	0	0	
0.0748333	-0.0176564	0.0147734	0.000269784	0.000687798	0	0	0	
0.075	0.000807891	-0.0276405	0.000369014	0.00077744	0	0	0	
0.0751667	0.0141268	0.0164562	0.000421471	0.000728428	0	0	0	
0.0753333	-0.0140088	-0.00211054	0.000385666	0.000433033	0	0	0	
0.0755	0.00952803	-0.0237734	0.000298386	0.00028453	0	0	0	
0.0756667	-0.00682728	0.022242	0.000232465	0.000355239	0	0	0	
0.0758333	-0.00516562	0.0332581	0.000279543	0.000760729	0	0	0	
0.076	0.0154549	-0.0442712	0.000340716	0.000934438	0	0	0	
0.0761667	-0.0105691	-0.0207623	0.000328323	0.00104397	0	0	0	
0.0763333	-0.00177936	0.02906	0.000307088	0.000705875	0	0	0	
0.0765	0.00479299	0.0302976	0.000219515	0.000899151	0	0	0	
0.0766667	0.000710014	-0.0189279	0.000185261	0.000728775	0	0	0	
0.0768333	-0.00158829	-0.0320644	8.9771E-05	0.000816031	0	0	0	
0.077	-0.00362821	0.00483094	7.56853E-05	0.000628299	0	0	0	
0.0771667	0.00755307	0.0379838	8.84858E-05	0.000864636	0	0	0	
0.0773333	-0.00627979	-0.00998802	0.00012419	0.000776372	0	0	0	
0.0775	0.00489631	-0.0187062	0.000122321	0.000633704	0	0	0	
0.0776667	-0.00328913	-0.000594917	0.000113867	0.000450666	0	0	0	
0.0778333	-0.000255149	0.0106252	8.4065E-05	0.000497143	0	0	0	
0.078	0.00158009	-0.00419188	6.0733E-05	0.000494851	0	0	0	
0.0781667	2.28469E-05	0.023351	3.80022E-05	0.000513841	0	0	0	
0.0783333	0.00207404	-0.0409489	5.10686E-05	0.000581433	0	0	0	
0.0785	-0.0017379	-0.0279069	7.38744E-05	0.000650654	0	0	0	
0.0786667	0.00308793	0.0534691	7.78946E-05	0.000819821	0	0	0	
0.0788333	-0.00663975	0.00504175	8.86389E-05	0.00112033	0	0	0	
0.079	0.00340829	-0.0637653	9.65774E-05	0.00145231	0	0	0	
0.0791667	0.00425407	0.0539996	0.000111617	0.00140635	0	0	0	
0.0793333	-0.00675413	0.0299847	0.000111664	0.00147404	0	0	0	
0.0795	0.00301844	-0.114188	0.000107087	0.00141248	0	0	0	
0.0796667	0.00359329	0.0435166	0.00010915	0.00167772	0	0	0	
0.0798333	-0.00448048	0.0544063	9.68382E-05	0.0016307	0	0	0	
0.08	-0.00154003	-0.0418096	9.62238E-05	0.00143542	0	0	0	
0.0801667	0.00494744	0.00182622	0.000111194	0.00104727	0	0	0	
0.0803333	-0.00423838	-0.0121256	0.00012127	0.000575076	0	0	0	
0.0805	0.00338338	0.0325106	0.000121207	0.00055574	0	0	0	
0.0806667	0.000851469	-0.0245716	8.50387E-05	0.000551476	0	0	0	
0.0808333	-0.00428953	-0.00310705	8.81747E-05	0.000533343	0	0	0	
0.081	0.00809748	0.025813	0.000118563	0.000390535	0	0	0	
0.0811667	-0.00844377	-0.00443037	0.000151134	0.000506081	0	0	0	
0.0813333	-0.00120864	-0.0483694	0.000151799	0.000879071	0	0	0	
0.0815	0.00473599	0.0339343	0.0001142	0.000999416	0	0	0	
0.0816667	0.00206911	0.0342872	9.35473E-05	0.00102827	0	0	0	
0.0818333	-0.00380529	-0.0312605	6.74426E-05	0.000785127	0	0	0	
0.082	0.00270072	-0.0400393	7.35337E-05	0.0011221	0	0	0	
0.0821667	-0.000818266	0.0418382	6.75897E-05	0.0010338	0	0	0	
0.0823333	-0.00107091	0.0185751	5.63817E-05	0.00113062	0	0	0	
0.0825	0.00323798	-0.0308956	4.68012E-05	0.000694435	0	0	0	
0.0826667	-0.00195682	-0.0106322	4.82153E-05	0.000798814	0	0	0	
0.0828333	-0.00281175	0.0282698	6.83906E-05	0.000740436	0	0	0	
0.083	0.00745646	-0.010484	8.42537E-05	0.000728495	0	0	0	
0.0831667	-0.00196051	-0.0135702	8.6964E-05	0.000427963	0	0	0	
0.0833333	-0.000198219	0.0182579	7.55011E-05	0.000297634	0	0	0	
0.0835	-0.00140178	0.00420469	5.08709E-05	0.00044262	0	0	0	
0.0836667	0.0018825	-0.0272022	4.14597E-05	0.000628302	0	0	0	
0.0838333	-3.11341E-05	0.0172906	3.77602E-05	0.000644224	0	0	0	
0.084	-0.0010835	0.00679125	4.54035E-05	0.000465904	0	0	0	
0.0841667	-0.00196236	-0.00770658	6.91029E-05	0.000292226	0	0	0	
0.0843333	0.00542401	-0.00458445	7.75983E-05	0.000337351	0	0	0	
0.0845	-0.00300916	0.00892743	9.54275E-05	0.000392733	0	0	0	
0.0846667	-0.00211416	-0.00601462	8.64438E-05	0.00041598	0	0	0	
0.0848333	-0.0003485	0.00570882	7.65876E-05	0.000350805	0	0	0	
0.085	0.00305846	-0.00664143	6.01296E-05	0.000328748	0	0	0	
0.0851667	-0.000828133	0.0016701	5.83776E-05	0.000305473	0	0	0	
0.0853333	-0.000195297	0.00366065	5.59125E-05	0.000284126	0	0	0	
0.0855	0.000192282	0.00383684	4.01272E-05	0.000342005	0	0	0	
0.0856667	0.000953894	-0.0103327	1.93788E-05	0.000426019	0	0	0	
0.0858333	-0.00260076	0.00277457	3.27617E-05	0.000417592	0	0	0	
0.086	0.000762857	0.0011628	5.15656E-05	0.000326712	0	0	0	
0.0861667	0.00512496	0.0053217	6.33275E-05	0.00031663	0	0	0	
0.0863333	-0.0048133	-0.00649822	8.19202E-05	0.000347109	0	0	0	
0.0865	0.00666029	-0.00080337	0.000119078	0.000328722	0	0	0	
0.0866667	-0.000411803	-0.00112791	0.000124672	0.000292219	0	0	0	
0.0868333	-0.003523	0.00687526	9.83775E-05	0.000320734	0	0	0	
0.087	0.00408069	-0.0032351	5.78799E-05	0.000335027	0	0	0	
0.0871667	-0.00228098	-0.00331016	6.10035E-05	0.000278266	0	0	0	
0.0873333	-0.00281121	-0.00243534	5.99947E-05	0.000250559	0	0	0	
0.0875	0.00585537	0.00720233	8.10552E-05	0.00029402	0	0	0	
0.0876667	0.0010728	-0.00224339	0.000111006	0.000325707	0	0	0	
0.0878333	-0.00518168	0.00111906	0.000150819	0.000311973	0	0	0	
0.088	0.00557569	-0.00772566	0.000156397	0.000325613	0	0	0	
0.0881667	-0.00278623	0.0075135	0.000131783	0.000346576	0	0	0	
0.0883333	-0.00128911	-0.00223046	0.000104534	0.000316285	0	0	0	
0.0885	0.00316568	0.000480521	7.49069E-05	0.00026324	0	0	0	
0.0886667	0.00227734	-0.00370711	5.75176E-05	0.000286093	0	0	0	
0.0888333	-0.0122828	0.0150394	8.81747E-05	0.000362442	0	0	0	
0.089	0.0126622	-0.018352	0.000149338	0.000404307	0	0	0	
0.0891667	0.00142261	0.00205823	0.000208471	0.000345206	0	0	0	
0.0893333	-0.0138901	0.00150586	0.000269331	0.000285145	0	0	0	
0.0895	0.0139189	0.0165041	0.000275067	0.000385486	0	0	0	
0.0896667	-0.00371313	-0.0102853	0.000282311	0.00041956	0	0	0	
0.0898333	-0.00480131	-0.0111977	0.00027488	0.000370613	0	0	0	
0.09	0.00910984	-0.00781814	0.000301013	0.000387331	0	0	0	
0.0901667	-0.0108769	0.0341911	0.000310274	0.000610771	0	0	0	
0.0903333	0.0104224	-0.000206907	0.000260984	0.000665208	0	0	0	
0.0905	-0.00524743	-0.0244837	0.000244508	0.000509715	0	0	0	
0.0906667	-0.00420992	-0.0435538	0.000257914	0.000715307	0	0	0	
0.0908333	0.00805698	0.0866422	0.000305792	0.00103157	0	0	0	
0.091	-0.0115482	0.0018953	0.000276749	0.00151748	0	0	0	
0.0911667	0.0093687	-0.0774545	0.000247355	0.00144573	0	0	0	
0.0913333	-0.00276814	0.0361398	0.000194218	0.00147802	0	0	0	
0.0915	0.000100813	0.0194275	0.000139399	0.00147594	0	0	0	
0.0916667	0.000320332	-0.0241214	7.44895E-05	0.00127686	0	0	0	
0.0918333	-0.0126114	0.0291699	7.88156E-05	0.00106648	0	0	0	
0.092	0.0100102	-0.0357655	0.000141285	0.000728811	0	0	0	
0.0921667	0.00417168	0.0149944	0.000161194	0.000592896	0	0	0	
0.0923333	-0.00983108	0.00436635	0.000164489	0.000449154	0	0	0	
0.0925	0.000978312	-0.0154699	0.000180066	0.000288525	0	0	0	
0.0926667	0.00442194	0.0255334	0.000216961	0.000272237	0	0	0	
0.0928333	-0.00234894	0.00398093	0.000173826	0.000545281	0	0	0	
0.093	0.000570714	-0.059622	0.000103871	0.000956609	0	0	0	
0.0931667	-0.000522704	0.0406009	7.03286E-05	0.00111553	0	0	0	
0.0933333	-0.0054105	0.0294438	9.97886E-05	0.00116477	0	0	0	
0.0935	0.00362072	-0.0383522	0.000132078	0.000858	0	0	0	
0.0936667	-0.00101433	-0.0178065	0.0001227	0.00103129	0	0	0	
0.0938333	0.000763685	0.0307871	8.82117E-05	0.000841572	0	0	0	
0.094	-0.00199059	0.0181178	7.04615E-05	0.000878934	0	0	0	
0.0941667	1.76218E-05	-0.0361414	6.77828E-05	0.000576527	0	0	0	
0.0943333	0.00163949	-0.0101143	7.5656E-05	0.000767835	0	0	0	
0.0945	-0.00524635	0.0395407	8.34807E-05	0.000880159	0	0	0	
0.0946667	0.00574713	-0.00848758	0.000114967	0.000876673	0	0	0	
0.0948333	-0.00251021	-0.0206879	0.000127684	0.000570483	0	0	0	
0.095	-0.000377442	-0.00209791	9.88663E-05	0.000465112	0	0	0	
0.0951667	-0.00136036	0.0259575	6.04118E-05	0.000576837	0	0	0	
0.0953333	0.000638437	-0.0119959	3.88361E-05	0.00058303	0	0	0	
0.0955	-0.00124908	-0.00551846	3.5723E-05	0.000407263	0	0	0	
0.0956667	-0.000521156	-7.8959E-06	2.83693E-05	0.00024207	0	0	0	
0.0958333	0.00462477	0.00758781	3.74749E-05	0.000242619	0	0	0	
0.096	-0.00515133	-0.000198524	5.86388E-05	0.000253326	0	0	0	
0.0961667	0.00350931	-0.00961326	7.78358E-05	0.000235373	0	0	0	
0.0963333	-0.00385648	0.000242713	8.22434E-05	0.000316754	0	0	0	
0.0965	0.00582102	0.0212298	8.17646E-05	0.000514256	0	0	0	
0.0966667	-0.000212025	-0.0162873	8.0302E-05	0.000563756	0	0	0	
0.0968333	-0.00176399	-0.0154936	6.824E-05	0.000492898	0	0	0	
0.097	-0.00103504	0.0220323	5.29854E-05	0.0003578	0	0	0	
0.0971667	0.00188374	0.00213189	4.27315E-05	0.000523473	0	0	0	
0.0973333	0.00279385	-0.0146862	4.23066E-05	0.000640804	0	0	0	
0.0975	-0.000535257	0.00820403	6.36038E-05	0.000657032	0	0	0	
0.0976667	-0.0039146	-0.0069688	0.00011602	0.000453407	0	0	0	
0.0978333	0.00580676	0.000558175	0.000149264	0.000258986	0	0	0	
0.098	-0.0050371	0.0076496	0.000141667	0.000173861	0	0	0	
0.0981667	0.00190127	-0.00845923	0.000114234	0.000212002	0	0	0	
0.0983333	0.00204705	0.0133779	8.36516E-05	0.000286716	0	0	0	
0.0985	-0.00181683	-0.0148372	7.14599E-05	0.000337508	0	0	0	
0.0986667	-0.000767401	-0.00350527	4.86049E-05	0.000408316	0	0	0	
0.0988333	-0.00437377	0.0231855	5.84872E-05	0.000526227	0	0	0	
0.099	0.000999525	-0.00863976	5.57416E-05	0.000520226	0	0	0	
0.0991667	0.00102981	-0.0151792	6.24257E-05	0.000412005	0	0	0	
0.0993333	-0.00164483	0.00622543	4.38679E-05	0.000269184	0	0	0	
0.0995	-0.00182616	0.0137424	4.99363E-05	0.000319481	0	0	0	
0.0996667	0.00126784	-0.000565712	3.5252E-05	0.000293956	0	0	0	
0.0998333	0.000620815	-0.0192034	5.15607E-05	0.000265524	0	0	0	
0.1	-0.00386666	0.00506301	4.57843E-05	0.00035913	0	0	0	
0.100167	0.000145425	0.0247355	6.46692E-05	0.000595238	0	0	0	
0.100333	0.0014555	-0.0222792	7.44362E-05	0.000661699	0	0	0	
0.1005	0.000600255	-0.011649	7.29699E-05	0.000606258	0	0	0	
0.100667	0.000286813	0.0226851	7.36652E-05	0.000405952	0	0	0	
0.100833	0.000587924	-0.00346033	6.4064E-05	0.000454209	0	0	0	
0.101	-0.000350628	0.00213429	6.48353E-05	0.000414888	0	0	0	
0.101167	0.0020398	-0.0190894	4.45076E-05	0.000446186	0	0	0	
0.101333	-0.00246106	0.00734062	3.08725E-05	0.000706095	0	0	0	
0.1015	0.00486616	0.0491179	5.55453E-05	0.00131171	0	0	0	
0.101667	0.0022215	-0.0880147	6.29256E-05	0.00165185	0	0	0	
0.101833	-0.00476772	0.0399489	8.4235E-05	0.00167448	0	0	0	
0.102	0.00704302	0.0237903	7.92812E-05	0.00143661	0	0	0	
0.102167	-0.00442375	-0.048602	0.000108435	0.00122493	0	0	0	
0.102333	0.00217978	0.0606568	9.51623E-05	0.00107927	0	0	0	
0.1025	-0.00145462	-0.0634006	8.09974E-05	0.00101387	0	0	0	
0.102667	0.00177547	0.00928561	6.5248E-05	0.00125208	0	0	0	
0.102833	-0.00139019	0.0542721	6.8701E-05	0.00155518	0	0	0	
0.103	-0.00154639	-0.0646096	5.55858E-05	0.00152149	0	0	0	
0.103167	0.00192365	0.0195159	4.56354E-05	0.00130568	0	0	0	
0.103333	-0.000171104	0.0137472	5.79321E-05	0.000889026	0	0	0	
0.1035	-0.00301176	-0.0175334	8.61659E-05	0.000553115	0	0	0	
0.103667	0.000722704	0.012667	9.79794E-05	0.000428323	0	0	0	
0.103833	-3.20632E-05	0.0027928	7.12056E-05	0.000425653	0	0	0	
0.104	0.000475738	-0.0177021	4.20537E-05	0.000565752	0	0	0	
0.104167	-0.00203116	0.0141733	2.46575E-05	0.0005375	0	0	0	
0.104333	-0.000122988	0.00528846	3.08448E-05	0.000374325	0	0	0	
0.1045	0.00121549	-0.0055813	3.44794E-05	0.000261741	0	0	0	
0.104667	-0.00306782	-0.0133855	3.71065E-05	0.000339656	0	0	0	
0.104833	0.0025581	0.0140186	4.74059E-05	0.000427907	0	0	0	
0.105	0.00173944	0.00233099	5.55258E-05	0.000384217	0	0	0	
0.105167	-0.0047015	-0.000171226	5.68413E-05	0.000296386	0	0	0	
0.105333	0.00218897	-0.00985976	7.56032E-05	0.000338412	0	0	0	
0.1055	0.00855012	0.00843087	9.04346E-05	0.000393265	0	0	0	
0.105667	-0.0106818	-0.00322246	0.000146455	0.000356708	0	0	0	
0.105833	0.0035505	-0.00138237	0.000158676	0.000269212	0	0	0	
0.106	0.001173	0.00817414	0.000145948	0.000243536	0	0	0	
0.106167	-0.00248685	-0.00751109	9.03498E-05	0.000290204	0	0	0	
0.106333	0.00336328	-0.000595406	7.33504E-05	0.000395636	0	0	0	
0.1065	0.000879671	0.00426833	9.33138E-05	0.000498189	0	0	0	
0.106667	-0.00222044	-0.00373279	0.000118938	0.000549559	0	0	0	
0.106833	0.00144899	0.00956088	0.000153995	0.000544423	0	0	0	
0.107	-0.00186101	-0.0195249	0.000168157	0.000532646	0	0	0	
0.107167	0.000212318	0.0321769	0.000152968	0.000655968	0	0	0	
0.107333	-0.000515283	-0.0740131	0.000137542	0.000970951	0	0	0	
0.1075	0.0134644	0.112321	0.000196007	0.00134694	0	0	0	
0.107667	-0.0238827	-0.0662851	0.000291259	0.00176918	0	0	0	
0.107833	0.0092643	-0.0413558	0.000354674	0.00234931	0	0	0	
0.108	0.00898545	0.134686	0.000380516	0.00266099	0	0	0	
0.108167	-0.00996683	-0.156942	0.000314607	0.00277335	0	0	0	
0.108333	0.00344302	0.102064	0.000267537	0.00276284	0	0	0	
0.1085	-0.00237518	0.0271805	0.00018019	0.00339695	0	0	0	
0.108667	0.00245349	-0.143903	0.000189126	0.00401888	0	0	0	
0.108833	0.00205464	0.163267	0.00024147	0.00399981	0	0	0	
0.109	-0.0170125	-0.106587	0.000300605	0.00328024	0	0	0	
0.109167	0.0253241	0.0471949	0.000422224	0.00253603	0	0	0	
0.109333	-0.0159593	0.0113714	0.000494766	0.00222249	0	0	0	
0.1095	0.0103058	-0.0709211	0.000562491	0.00213304	0	0	0	
0.109667	-0.00898063	0.0925338	0.000500266	0.00194743	0	0	0	
0.109833	0.00535639	-0.0610386	0.00034886	0.0017057	0	0	0	
0.11	-0.00399732	0.0339613	0.000216602	0.0014219	0	0	0	
0.110167	-0.00211655	-0.0370434	0.000150875	0.00120933	0	0	0	
0.110333	0.0190558	0.00463262	0.000216548	0.00114622	0	0	0	
0.1105	-0.0205673	0.0662928	0.000327131	0.0014238	0	0	0	
0.110667	0.0155614	-0.0906793	0.000398439	0.00168986	0	0	0	
0.110833	-0.00716479	0.040914	0.000378981	0.00166116	0	0	0	
0.111	-0.00113243	0.0148153	0.000296922	0.00134895	0	0	0	
0.111167	0.00704335	-0.0106027	0.000242479	0.000869437	0	0	0	
0.111333	-0.00957615	-0.00926168	0.000231704	0.000564035	0	0	0	
0.1115	0.00844628	-0.00725234	0.000215071	0.000230179	0	0	0	
0.111667	-0.00320727	0.0295699	0.000174949	0.000239954	0	0	0	
0.111833	0.000745745	-0.0224753	0.000139276	0.00035064	0	0	0	
0.112	0.0017255	0.00651379	0.000106506	0.000547401	0	0	0	
0.112167	-0.00114832	-0.000567113	8.4139E-05	0.000655476	0	0	0	
0.112333	0.000175463	-0.0114901	4.86788E-05	0.000707817	0	0	0	
0.1125	-0.00176137	0.028385	3.983E-05	0.000753669	0	0	0	
0.112667	-0.000754989	-0.0262538	3.31573E-05	0.000733724	0	0	0	
0.112833	0.00570859	0.00565041	4.57134E-05	0.000572065	0	0	0	
0.113	-0.00838899	-0.00554363	7.71735E-05	0.000368639	0	0	0	
0.113167	0.00376513	0.0236996	0.000108603	0.000335354	0	0	0	
0.113333	0.00191839	-0.0120699	0.000126912	0.000346717	0	0	0	
0.1135	-0.00327147	-0.0247339	9.85875E-05	0.000458035	0	0	0	
0.113667	-0.00105991	0.0234891	9.06628E-05	0.000454634	0	0	0	
0.113833	0.00188317	0.00408939	6.81041E-05	0.000643854	0	0	0	
0.114	0.00156836	0.00032295	6.24336E-05	0.000581099	0	0	0	
0.114167	-0.00495226	-0.0130604	5.15376E-05	0.000531733	0	0	0	
0.114333	-0.000404528	-0.0158772	7.86261E-05	0.000566179	0	0	0	
0.1145	0.00339719	0.0364805	0.00010464	0.000721424	0	0	0	
0.114667	0.000775791	-0.00246315	9.60498E-05	0.000733629	0	0	0	
0.114833	-0.00171449	-0.0263245	7.98352E-05	0.000465122	0	0	0	
0.115	0.000428841	-0.00188263	5.53687E-05	0.000481427	0	0	0	
0.115167	0.00107536	0.0294127	5.62634E-05	0.00066174	0	0	0	
0.115333	-0.000367908	-0.0131746	3.74726E-05	0.000716983	0	0	0	
0.1155	0.000355639	-0.00915118	3.11184E-05	0.000499166	0	0	0	
0.115667	-0.00261598	0.006352	4.51445E-05	0.000283127	0	0	0	
0.115833	0.00945034	-0.00995377	8.11728E-05	0.000248119	0	0	0	
0.116	-0.0151054	0.0219717	0.000139037	0.000278397	0	0	0	
0.116167	0.00795902	0.00138151	0.000227297	0.000511784	0	0	0	
0.116333	0.00475737	-0.0517419	0.000308476	0.000893298	0	0	0	
0.1165	-0.00392885	0.0490814	0.000293157	0.00107872	0	0	0	
0.116667	-0.00578788	0.00565208	0.00022213	0.00108793	0	0	0	
0.116833	0.00243535	-0.0313741	0.000121679	0.000800353	0	0	0	
0.117	-0.000282375	0.0110591	9.01728E-05	0.000686767	0	0	0	
0.117167	0.00483762	-0.00584293	7.5533E-05	0.000555858	0	0	0	
0.117333	-0.011075	0.0118489	0.000113138	0.000565465	0	0	0	
0.1175	0.00835957	0.00947192	0.000152638	0.000729831	0	0	0	
0.117667	-0.00065467	-0.0377823	0.000161055	0.00086942	0	0	0	
0.117833	-0.00341252	0.0211749	0.00014689	0.000841097	0	0	0	
0.118	-0.00240556	0.0204151	0.000152631	0.000707561	0	0	0	
0.118167	0.00642875	-0.0262963	0.000152204	0.000509837	0	0	0	
0.118333	-0.00418297	-0.00771405	0.00012693	0.000678806	0	0	0	
0.1185	-0.000583057	0.0250281	9.37196E-05	0.000694839	0	0	0	
0.118667	0.00925745	-0.00929899	8.67928E-05	0.000652804	0	0	0	
0.118833	-0.011177	-0.0140694	0.00013152	0.000434835	0	0	0	
0.119	0.0058299	0.0306259	0.000162908	0.000343578	0	0	0	
0.119167	4.06764E-05	-0.0285814	0.000175435	0.000533473	0	0	0	
0.119333	0.000379588	-0.00299292	0.000119476	0.000728962	0	0	0	
0.1195	-0.00205913	0.0312722	6.32221E-05	0.000790378	0	0	0	
0.119667	0.00400476	-0.00735141	4.65903E-05	0.000655843	0	0	0	
0.119833	-0.00109386	-0.0437943	4.96151E-05	0.000666334	0	0	0	
0.12	-0.00418838	0.0613192	6.39316E-05	0.000800695	0	0	0	
0.120167	0.00278925	-0.01449	6.34804E-05	0.000933508	0	0	0	
0.120333	0.00178395	-0.024637	6.99743E-05	0.000900349	0	0	0	
0.1205	-0.00392489	0.0284141	6.884E-05	0.000801421	0	0	0	
0.120667	0.00239233	-0.0357422	6.85864E-05	0.000727727	0	0	0	
0.120833	-1.37434E-05	0.0352612	5.57906E-05	0.000661885	0	0	0	
0.121	0.000936338	0.0142265	4.75561E-05	0.000806119	0	0	0	
0.121167	-0.00922986	-0.0573168	8.47012E-05	0.00088959	0	0	0	
0.121333	0.000564409	0.0332117	0.000167139	0.00111256	0	0	0	
0.1215	0.00966738	0.0337711	0.000221501	0.00145413	0	0	0	
0.121667	-0.00125779	-0.0468139	0.000212222	0.00146479	0	0	0	
0.121833	-0.00615986	-0.0100721	0.000217047	0.00125851	0	0	0	
0.122	0.0036095	0.0258681	0.000203362	0.00064798	0	0	0	
0.122167	-0.00179863	0.0237675	0.000172731	0.000730109	0	0	0	
0.122333	0.00131245	-0.0348731	0.00011415	0.000688104	0	0	0	
0.1225	-0.00841223	-0.0196626	0.000116844	0.000872462	0	0	0	
0.122667	0.000758095	0.0477033	0.000128914	0.000675263	0	0	0	
0.122833	0.0123966	-0.0154203	0.00014514	0.000837824	0	0	0	
0.123	-0.0110293	-0.0053952	0.000178437	0.000865516	0	0	0	
0.123167	-0.00159295	-0.00297591	0.00022063	0.000815803	0	0	0	
0.123333	0.00380848	-0.00552714	0.00019226	0.000678695	0	0	0	
0.1235	-0.00227423	0.017388	0.000143691	0.000580397	0	0	0	
0.123667	-0.00356834	0.000726017	9.57443E-05	0.000494996	0	0	0	
0.123833	0.00417126	-0.0101066	9.48664E-05	0.000326345	0	0	0	
0.124	-0.00335209	-0.0132887	8.55466E-05	0.000302396	0	0	0	
0.124167	0.0036655	0.0175123	8.27671E-05	0.000349159	0	0	0	
0.124333	0.000891047	0.0049933	0.000123118	0.000421752	0	0	0	
0.1245	-0.0117704	-0.0227864	0.000178754	0.000337715	0	0	0	
0.124667	0.00926058	0.047123	0.000225881	0.000446855	0	0	0	
0.124833	-0.000433233	-0.0409449	0.000190689	0.000605152	0	0	0	
0.125	-0.00148961	-0.0241549	0.000121984	0.00100487	0	0	0	
0.125167	-0.00690079	0.0576319	8.29938E-05	0.00116688	0	0	0	
0.125333	0.00199232	-0.00698388	9.4329E-05	0.00114172	0	0	0	
0.1255	0.00285972	-0.0157127	9.72976E-05	0.00074906	0	0	0	
0.125667	0.00260588	-0.0282498	0.000165284	0.000629029	0	0	0	
0.125833	-0.00661241	0.0285604	0.000183298	0.000532456	0	0	0	
0.126	-0.0067354	0.0114224	0.000209498	0.00061301	0	0	0	
0.126167	0.00790934	0.00631926	0.000157032	0.000547217	0	0	0	
0.126333	-0.00169118	-0.0284928	0.00021936	0.000603066	0	0	0	
0.1265	-0.0184437	-0.00528119	0.000301282	0.000490512	0	0	0	
0.126667	0.0141314	0.0129458	0.000362724	0.000419514	0	0	0	
0.126833	-0.00297434	0.0153758	0.000287125	0.000533855	0	0	0	
0.127	0.00150475	-0.0123112	0.000190838	0.000626744	0	0	0	
0.127167	-0.00150912	0.00484157	0.000116958	0.000628949	0	0	0	
0.127333	-0.00177073	-0.0145341	8.01012E-05	0.000463929	0	0	0	
0.1275	-0.00373661	-0.0092573	7.72961E-05	0.000323026	0	0	0	
0.127667	0.00107533	0.0326384	0.000125094	0.000329683	0	0	0	
0.127833	0.000367857	0.0105328	0.000186613	0.000608902	0	0	0	
0.128	-0.00373158	-0.0528767	0.000182817	0.00101258	0	0	0	
0.128167	0.0162592	0.0193313	0.000180177	0.00108503	0	0	0	
0.128333	-0.0111615	0.0327784	0.000209845	0.000898469	0	0	0	
0.1285	0.0013531	-0.0349836	0.00026441	0.000658851	0	0	0	
0.128667	0.0054844	0.00206058	0.000215639	0.000819293	0	0	0	
0.128833	-0.0063476	0.0173954	0.0001578	0.000873819	0	0	0	
0.129	0.00129647	-0.0101671	0.000122547	0.000812042	0	0	0	
0.129167	0.00794491	-0.00671727	0.000133151	0.000490639	0	0	0	
0.129333	-0.00409808	0.00834129	0.000135144	0.000275568	0	0	0	
0.1295	0.00340407	0.000518851	0.000127287	0.000288004	0	0	0	
0.129667	0.0031968	-0.00224851	0.0001199	0.000358915	0	0	0	
0.129833	-0.00257107	0.00179662	0.000111642	0.000362946	0	0	0	
0.13	0.00238435	-0.00546435	0.000152976	0.000317053	0	0	0	
0.130167	-0.00097999	-0.00115982	0.000172215	0.000257373	0	0	0	
0.130333	-0.00278653	0.00787144	0.000144688	0.000230184	0	0	0	
0.1305	0.00268692	0.0015432	8.43945E-05	0.000279232	0	0	0	
0.130667	0.00324298	0.000243198	6.48993E-05	0.000351365	0	0	0	
0.130833	0.000470857	-0.00600953	9.95182E-05	0.000395983	0	0	0	
0.131	-0.00658133	-0.0124371	0.000112784	0.00048289	0	0	0	
0.131167	0.00773538	0.021306	0.000137448	0.000538274	0	0	0	
0.131333	-0.000874211	0.00523483	0.00013046	0.000489953	0	0	0	
0.1315	-0.0106531	-0.0116133	0.00013097	0.000320866	0	0	0	
0.131667	0.00881832	-0.00947793	0.000146053	0.000379366	0	0	0	
0.131833	0.00052196	0.000700563	0.000148779	0.000378763	0	0	0	
0.132	-0.00250331	0.0171829	0.000126265	0.000358721	0	0	0	
0.132167	0.000179719	0.00642352	8.33014E-05	0.000396272	0	0	0	
0.132333	-0.00169852	-0.0232225	6.49363E-05	0.000550315	0	0	0	
0.1325	-0.00236091	-0.00619616	7.29366E-05	0.000562425	0	0	0	
0.132667	-0.0015741	0.0200254	6.15248E-05	0.000371089	0	0	0	
0.132833	0.00082395	0.00353349	8.82966E-05	0.000407045	0	0	0	
0.133	0.00447163	-0.0137092	0.000125513	0.000524028	0	0	0	
0.133167	-0.00212399	-0.00259014	0.000127021	0.000507137	0	0	0	
0.133333	0.000868755	0.00771298	0.000122912	0.000324369	0	0	0	
0.1335	-0.000909279	-0.00153773	0.000119211	0.000291556	0	0	0	
0.133667	0.00115693	-0.00602923	0.000125052	0.000405091	0	0	0	
0.133833	-0.000283493	0.00792315	9.69874E-05	0.000462395	0	0	0	
0.134	7.51525E-05	-0.000202077	5.52475E-05	0.000366268	0	0	0	
0.134167	-0.00198223	-0.00752535	5.07745E-05	0.000242967	0	0	0	
0.134333	0.0108804	0.00423827	6.57631E-05	0.000230899	0	0	0	
0.1345	-0.00870745	0.000139128	0.00012284	0.000315331	0	0	0	
0.134667	0.00183245	0.000557968	0.000139896	0.000386248	0	0	0	
0.134833	0.00523622	0.0020745	0.00012873	0.000398835	0	0	0	
0.135	-0.00538081	-0.00607466	0.000106501	0.00037949	0	0	0	
0.135167	-0.00130146	0.00270461	8.96629E-05	0.000333979	0	0	0	
0.135333	0.00612118	0.00484709	9.95746E-05	0.000267534	0	0	0	
0.1355	-0.00520639	-0.00419899	9.92594E-05	0.000265407	0	0	0	
0.135667	0.00255511	-0.00329137	9.63424E-05	0.000357457	0	0	0	
0.135833	0.000707599	0.00975864	7.37393E-05	0.00042917	0	0	0	
0.136	0.000561065	-0.00238356	3.71644E-05	0.000372559	0	0	0	
0.136167	-0.00333593	-0.00879823	2.69838E-05	0.000252365	0	0	0	
0.136333	0.00259139	0.00462948	3.78032E-05	0.000250372	0	0	0	
0.1365	-0.000841155	0.00562109	4.57271E-05	0.000367455	0	0	0	
0.136667	0.00116231	-0.00468861	4.54177E-05	0.000430876	0	0	0	
0.136833	0.00125511	-0.0010327	3.69644E-05	0.000346936	0	0	0	
0.137	-0.00195876	0.00174061	3.20546E-05	0.000252856	0	0	0	
0.137167	0.00306939	0.00376503	4.54841E-05	0.000284995	0	0	0	
0.137333	-0.00299073	-0.00778946	6.13563E-05	0.00035749	0	0	0	
0.1375	-0.00161142	0.00101137	8.41169E-05	0.000335915	0	0	0	
0.137667	0.00147998	0.0062906	7.54428E-05	0.000262323	0	0	0	
0.137833	8.57306E-05	0.00272299	5.66307E-05	0.000295046	0	0	0	
0.138	0.00265639	-0.0111456	4.08514E-05	0.000388793	0	0	0	
0.138167	-0.00203018	0.00327388	4.48826E-05	0.000397249	0	0	0	
0.138333	-0.00165582	0.00327063	5.53552E-05	0.000300929	0	0	0	
0.1385	0.000560149	0.00020722	5.2857E-05	0.000270826	0	0	0	
0.138667	-0.000962212	-0.000712423	4.14947E-05	0.000304072	0	0	0	
0.138833	-0.00123767	-0.00234237	3.07749E-05	0.000335135	0	0	0	
0.139	0.00310567	-0.000772812	3.97616E-05	0.000350314	0	0	0	
0.139167	-0.000551189	0.00620895	6.50004E-05	0.000389623	0	0	0	
0.139333	-0.0017162	-0.00385276	6.89128E-05	0.000398166	0	0	0	
0.1395	0.00437555	-0.00365314	7.45047E-05	0.000312889	0	0	0	
0.139667	-0.00622174	0.00919188	6.90255E-05	0.000242457	0	0	0	
0.139833	-0.000373141	-0.000802536	7.65611E-05	0.000317565	0	0	0	
0.14	-0.00169477	-0.0155254	5.56247E-05	0.000491319	0	0	0	
0.140167	0.0108949	0.0118785	9.86896E-05	0.000535058	0	0	0	
0.140333	-0.0140386	-0.00192923	0.00016276	0.000407181	0	0	0	
0.1405	0.00537233	0.00352932	0.000224654	0.000229179	0	0	0	
0.140667	0.00203088	0.013872	0.000203439	0.000135411	0	0	0	
0.140833	0.00154095	-0.0297519	0.000134939	0.000223367	0	0	0	
0.141	-0.0062454	-0.0162896	8.78526E-05	0.000627343	0	0	0	
0.141167	-0.00623214	0.0536005	9.38537E-05	0.000982579	0	0	0	
0.141333	0.00848602	0.00286605	0.000122658	0.00109865	0	0	0	
0.1415	0.0053978	-0.0448197	0.000206505	0.000829803	0	0	0	
0.141667	-0.0109284	-0.00762325	0.00021512	0.000852288	0	0	0	
0.141833	0.00159928	0.0279547	0.000215592	0.000862055	0	0	0	
0.142	-9.91858E-05	0.0205986	0.000119074	0.000813615	0	0	0	
0.142167	0.00616064	-0.010994	0.000113778	0.000597621	0	0	0	
0.142333	-0.00761207	-0.0321918	0.0001117	0.000682074	0	0	0	
0.1425	-0.000902516	0.00200979	0.000135816	0.000648517	0	0	0	
0.142667	0.00517294	0.0306873	0.000104893	0.000551816	0	0	0	
0.142833	-0.00174646	0.00491644	0.000132161	0.000534809	0	0	0	
0.143	-0.000393369	-0.0234644	0.000138157	0.000687195	0	0	0	
0.143167	-0.00514543	2.46229E-05	0.000135046	0.000661506	0	0	0	
0.143333	0.00345075	-0.00153044	9.09024E-05	0.000419499	0	0	0	
0.1435	-0.00263079	0.00953897	9.58493E-05	0.000295326	0	0	0	
0.143667	0.00331604	0.00963949	0.000102291	0.000263034	0	0	0	
0.143833	-0.00531044	-0.0109525	0.000114937	0.000323768	0	0	0	
0.144	0.00296188	-0.0174144	9.44284E-05	0.000484338	0	0	0	
0.144167	-0.00115154	0.0148697	8.4139E-05	0.000586939	0	0	0	
0.144333	-0.00308562	0.0118571	6.93433E-05	0.000491556	0	0	0	
0.1445	-0.00110864	-0.014215	8.85062E-05	0.000324497	0	0	0	
0.144667	0.00519778	-0.00419487	0.000121622	0.000420593	0	0	0	
0.144833	-0.00844622	0.00697924	0.000152288	0.000537148	0	0	0	
0.145	0.0064117	-0.00255521	0.00014561	0.000507401	0	0	0	
0.145167	-3.24444E-05	-0.00181015	0.000147971	0.000371624	0	0	0	
0.145333	-0.00585042	0.0028734	0.000139856	0.000325993	0	0	0	
0.1455	0.00306923	-0.00333232	0.000128136	0.00036638	0	0	0	
0.145667	-0.000444508	-0.00221055	9.21055E-05	0.000427195	0	0	0	
0.145833	0.00101729	0.0110127	6.21069E-05	0.000480145	0	0	0	
0.146	-0.000861141	-0.00894298	4.77888E-05	0.000444664	0	0	0	
0.146167	-0.00236943	-0.0114931	4.54148E-05	0.000316171	0	0	0	
0.146333	0.00507191	0.0165718	5.12443E-05	0.000244775	0	0	0	
0.1465	-0.000647415	0.00392537	9.4492E-05	0.000375162	0	0	0	
0.146667	-0.00406158	-0.00621585	0.00011321	0.000457195	0	0	0	
0.146833	-0.000636518	-0.0156291	9.9373E-05	0.000388945	0	0	0	
0.147	0.00335411	0.005709	5.81465E-05	0.000348462	0	0	0	
0.147167	-0.00128985	0.0226282	4.64156E-05	0.000529443	0	0	0	
0.147333	0.000981267	-0.0057345	4.79125E-05	0.000580465	0	0	0	
0.1475	-0.00353697	-0.0196487	4.97E-05	0.000436386	0	0	0	
0.147667	0.00260851	-0.0018669	4.8674E-05	0.000365264	0	0	0	
0.147833	0.00036692	0.0163158	6.13779E-05	0.00048107	0	0	0	
0.148	0.0006428	0.00558401	5.53217E-05	0.000476452	0	0	0	
0.148167	-0.00460453	-0.00912973	6.75065E-05	0.000350836	0	0	0	
0.148333	0.00270925	-0.0089812	7.29772E-05	0.00035035	0	0	0	
0.1485	0.00072246	-0.00217001	8.47925E-05	0.000358815	0	0	0	
0.148667	0.00106021	0.0134195	6.79918E-05	0.000326667	0	0	0	
0.148833	-0.00101185	0.00721287	4.41468E-05	0.000340121	0	0	0	
0.149	-0.000376162	-0.013533	2.78838E-05	0.00041279	0	0	0	
0.149167	-0.00141499	-0.0137956	1.76079E-05	0.000411583	0	0	0	
0.149333	0.00163855	0.0102928	2.64568E-05	0.000266979	0	0	0	
0.1495	0.00605694	0.00705389	8.61317E-05	0.00036156	0	0	0	
0.149667	-0.00895232	-0.0126874	0.000124769	0.000440289	0	0	0	
0.149833	-0.00682909	0.00049018	0.000203969	0.000412107	0	0	0	
0.15	0.0217567	0.00996613	0.000266786	0.00021956	0	0	0	
0.150167	-0.0212866	-0.00685508	0.000350102	0.000210982	0	0	0	
0.150333	0.0120125	-0.016109	0.000362782	0.000398471	0	0	0	
0.1505	-0.00963466	0.0144316	0.000313137	0.000528775	0	0	0	
0.150667	0.00457872	0.00840571	0.00025285	0.000431749	0	0	0	
0.150833	0.00538618	-0.0110074	0.000217377	0.000312568	0	0	0	
0.151	-0.00871566	-0.0186567	0.000183582	0.000427821	0	0	0	
0.151167	0.000282769	0.0228414	0.000242343	0.000557474	0	0	0	
0.151333	0.00712808	0.0121001	0.000310275	0.000559484	0	0	0	
0.1515	-0.00898928	-0.0295858	0.000334981	0.000396439	0	0	0	
0.151667	0.00327823	0.00688214	0.000248552	0.000473126	0	0	0	
0.151833	0.00125749	0.0100554	0.000121997	0.000616896	0	0	0	
0.152	0.001715	-0.00730505	7.39763E-05	0.000655616	0	0	0	
0.152167	-0.00319221	0.00401589	5.20612E-05	0.000534611	0	0	0	
0.152333	0.00137235	-0.00436162	7.43244E-05	0.000402843	0	0	0	
0.1525	0.00264097	-0.00150013	9.88081E-05	0.00031281	0	0	0	
0.152667	-0.00316225	0.00303273	0.000102614	0.000245419	0	0	0	
0.152833	0.00429412	0.000829061	9.6057E-05	0.000254118	0	0	0	
0.153	-0.00179567	0.00133213	7.75835E-05	0.000316116	0	0	0	
0.153167	0.000958893	-0.00787802	6.3749E-05	0.000369683	0	0	0	
0.153333	-0.000374855	-0.000461063	6.1063E-05	0.000435862	0	0	0	
0.1535	0.00297781	0.0115852	5.3932E-05	0.000527049	0	0	0	
0.153667	-0.00195896	-0.00456587	6.50765E-05	0.000504304	0	0	0	
0.153833	-0.00180926	-0.0068741	5.25055E-05	0.000356542	0	0	0	
0.154	0.0105419	-0.00167998	6.54518E-05	0.000283025	0	0	0	
0.154167	0.0121202	-0.0210545	0.000248926	0.000258448	0	0	0	
0.154333	-0.0842331	0.0963006	0.000640908	0.000536344	0	0	0	
0.1545	0.0610017	-0.0373969	0.00116214	0.00127324	0	0	0	
0.154667	0.196783	-0.475139	0.00355284	0.00471595	0	0	0	
0.154833	-0.0581989	0.0445101	0.00648036	0.00973127	0	0	0	
0.155	0.14212	-0.167124	0.00721944	0.0111018	0	0	0	
0.155167	-0.0601842	0.0784416	0.00517064	0.0082351	0	0	0	
0.155333	1.78855E-05	-0.0028089	0.00233268	0.00337384	0	0	0	
0.1555	0.065415	-0.0819412	0.00154247	0.0016934	0	0	0	
0.155667	-0.215429	0.244595	0.0016624	0.00184786	0	0	0	
0.155833	0.587901	-0.834901	0.00442485	0.00575859	0	0	0	
0.156	-0.118508	0.282651	0.00527325	0.00886739	0	0	0	
0.156167	-0.0254417	0.0226273	0.00546924	0.00989119	0	0	0	
0.156333	0.0321616	-0.0930977	0.00238513	0.00629672	0	0	0	
0.1565	0.0227443	0.0266246	0.00133411	0.00298072	0	0	0	
0.156667	-0.0383184	0.0442745	0.000628978	0.00154754	0	0	0	
0.156833	0.00885869	-0.0492922	0.000878384	0.00104564	0	0	0	
0.157	0.0254065	-0.00254923	0.00110347	0.00157007	0	0	0	
0.157167	-0.0369877	0.0813721	0.00125778	0.00206103	0	0	0	
0.157333	0.023825	-0.0647585	0.00100771	0.00217426	0	0	0	
0.1575	-0.0105096	-0.0122933	0.000607362	0.00174615	0	0	0	
0.157667	-0.000574706	0.0386813	0.000390512	0.00106144	0	0	0	
0.157833	0.0379285	-0.0651467	0.000490061	0.000932463	0	0	0	
0.158	0.0989717	-0.0369342	0.00112281	0.00104977	0	0	0	
0.158167	-0.190153	0.17309	0.00218274	0.00215178	0	0	0	
0.158333	0.0249695	-0.0897823	0.00239131	0.00274056	0	0	0	
0.1585	0.00319011	0.0361005	0.00177292	0.0025419	0	0	0	
0.158667	-0.000740991	0.00816581	0.000625862	0.00153554	0	0	0	
0.158833	-0.0223916	-0.0313733	0.000191948	0.000857534	0	0	0	
0.159	0.110703	-0.0747268	0.000718825	0.000817404	0	0	0	
0.159167	-0.0807433	0.198042	0.00137621	0.00143866	0	0	0	
0.159333	-0.0395202	-0.0655844	0.00213563	0.00281198	0	0	0	
0.1595	-0.00850796	0.0880906	0.00177773	0.00322372	0	0	0	
0.159667	0.0102233	-0.0235622	0.00116013	0.00268279	0	0	0	
0.159833	0.00219129	-0.0556424	0.000458605	0.0015698	0	0	0	
0.16	-0.00569749	0.0394954	0.000219095	0.00113739	0	0	0	
0.160167	-0.0136019	0.0367079	0.000216592	0.00135033	0	0	0	
0.160333	0.0953755	-0.0220261	0.000390875	0.00116098	0	0	0	
0.1605	-0.0154243	-0.00368753	0.000602865	0.00123632	0	0	0	
0.160667	-0.00194071	0.049591	0.000665141	0.000909357	0	0	0	
0.160833	0.00625008	-0.0235392	0.000493506	0.000959179	0	0	0	
0.161	-0.00165727	-0.0230517	0.000263003	0.00103673	0	0	0	
0.161167	-0.000730838	0.0309037	0.000162268	0.00102203	0	0	0	
0.161333	0.0144375	0.00616726	0.000103968	0.000842192	0	0	0	
0.1615	0.027531	-0.0133218	0.000358072	0.000576281	0	0	0	
0.161667	0.000799153	0.016388	0.000453446	0.000486218	0	0	0	
0.161833	-0.0112303	0.0159711	0.000449121	0.000665126	0	0	0	
0.162	0.0122702	-0.0153695	0.000219216	0.000603732	0	0	0	
0.162167	-0.00476635	-0.0219009	0.000174633	0.000585023	0	0	0	
0.162333	5.8245E-05	0.0268346	0.000143804	0.000432301	0	0	0	
0.1625	-0.00076675	0.00834429	8.71324E-05	0.000656978	0	0	0	
0.162667	-0.00240339	-0.0162632	4.07996E-05	0.000722407	0	0	0	
0.162833	-0.000618396	-0.00652832	3.83654E-05	0.000609989	0	0	0	
0.163	0.000104328	0.00304933	3.71894E-05	0.000351713	0	0	0	
0.163167	0.00131732	0.00677754	4.78654E-05	0.000293043	0	0	0	
0.163333	0.000202055	0.00860365	5.76159E-05	0.000277687	0	0	0	
0.1635	-0.000474906	-0.0100252	8.20351E-05	0.000282024	0	0	0	
0.163667	-0.00284359	-0.00819947	0.000106035	0.000343402	0	0	0	
0.163833	0.00199195	-0.00225121	0.000103151	0.000370151	0	0	0	
0.164	-0.00138552	0.011634	9.17763E-05	0.000330015	0	0	0	
0.164167	-0.00284266	0.00784305	8.16915E-05	0.000354841	0	0	0	
0.164333	0.0130268	-0.00797727	0.000101989	0.000390743	0	0	0	
0.1645	-0.0168202	-0.0236906	0.000188422	0.000417167	0	0	0	
0.164667	0.00371719	0.0150685	0.000245976	0.000379675	0	0	0	
0.164833	0.00420251	0.0207267	0.000262083	0.000640513	0	0	0	
0.165	-0.00296956	-0.0170784	0.000174461	0.000690366	0	0	0	
0.165167	0.00129987	-0.00959723	0.00010585	0.000583798	0	0	0	
0.165333	-0.000826098	0.010482	9.94115E-05	0.000301135	0	0	0	
0.1655	-0.000196013	-0.00719032	9.00004E-05	0.000273876	0	0	0	
0.165667	0.000493192	0.00784041	0.000137307	0.000332292	0	0	0	
0.165833	-0.00190273	0.00908291	0.000114448	0.000518541	0	0	0	
0.166	-0.00167208	-0.023135	0.000131209	0.000617761	0	0	0	
0.166167	3.91903E-05	0.00235364	8.63347E-05	0.000552407	0	0	0	
0.166333	0.00889527	0.0190233	9.96323E-05	0.000336431	0	0	0	
0.1665	-0.00867654	-0.00842979	0.000122598	0.000292382	0	0	0	
0.166667	0.00417796	-0.00456551	0.000148387	0.000435455	0	0	0	
0.166833	-0.00129731	2.92458E-05	0.000162956	0.000519328	0	0	0	
0.167	0.00104656	0.00136517	0.000134901	0.000456757	0	0	0	
0.167167	-0.000587126	0.000203372	9.97929E-05	0.000368662	0	0	0	
0.167333	0.00257722	0.000344404	7.48177E-05	0.000341958	0	0	0	
0.1675	-0.00224257	-0.00266373	7.53193E-05	0.000320435	0	0	0	
0.167667	-0.000403021	0.00375897	6.85611E-05	0.00029252	0	0	0	
0.167833	0.00195048	-0.00702624	7.09872E-05	0.000291805	0	0	0	
0.168	-0.00237833	0.00621829	6.39488E-05	0.00031395	0	0	0	
0.168167	0.000416043	-0.00190905	6.12831E-05	0.00037114	0	0	0	
0.168333	0.000739752	-0.0061362	4.74791E-05	0.000430046	0	0	0	
0.1685	-0.0022818	0.00137365	3.51503E-05	0.000405132	0	0	0	
0.168667	0.00202067	0.00912865	3.51227E-05	0.000303738	0	0	0	
0.168833	-0.00439586	-0.00894695	4.26135E-05	0.000274264	0	0	0	
0.169	0.00268254	-0.0030734	5.80461E-05	0.000381739	0	0	0	
0.169167	-0.00372443	0.00699101	6.96583E-05	0.000468341	0	0	0	
0.169333	9.33016E-05	0.00178841	5.8004E-05	0.00039234	0	0	0	
0.1695	-0.00108117	-0.00936194	5.09897E-05	0.000261095	0	0	0	
0.169667	-0.00302383	0.00438135	5.51325E-05	0.000247868	0	0	0	
0.169833	0.00249379	0.00435223	6.73389E-05	0.000368326	0	0	0	
0.17	-0.00373927	-0.00570481	6.34965E-05	0.000425995	0	0	0	
0.170167	0.00283868	-0.00364414	6.83824E-05	0.000345748	0	0	0	
0.170333	-0.003202	0.00983925	6.62089E-05	0.000246184	0	0	0	
0.1705	3.33109E-05	-0.00619046	6.4687E-05	0.000268901	0	0	0	
0.170667	-0.00284788	-0.00211582	6.06146E-05	0.000397265	0	0	0	
0.170833	0.00287478	0.00554705	7.32787E-05	0.00047547	0	0	0	
0.171	0.00121046	0.000813387	7.13069E-05	0.000417343	0	0	0	
0.171167	-0.00261586	-0.00898928	5.7876E-05	0.000303482	0	0	0	
0.171333	0.000750603	0.00852379	6.75022E-05	0.000263906	0	0	0	
0.1715	0.00160911	-0.0068319	9.75461E-05	0.000332441	0	0	0	
0.171667	0.00108477	0.000408671	9.84793E-05	0.000455718	0	0	0	
0.171833	-0.000773941	0.0197121	6.86059E-05	0.000573097	0	0	0	
0.172	-0.0021404	-0.017314	7.24242E-05	0.000521866	0	0	0	
0.172167	0.00148433	-0.0333969	7.77934E-05	0.00061221	0	0	0	
0.172333	0.00807812	0.0564667	0.000111351	0.00062409	0	0	0	
0.1725	-0.0143984	-0.000967735	0.000131051	0.00104373	0	0	0	
0.172667	0.00494518	-0.0553066	0.000198326	0.00128949	0	0	0	
0.172833	0.00514639	0.0404607	0.000211296	0.00131007	0	0	0	
0.173	-0.00126222	0.0160506	0.000170502	0.0011819	0	0	0	
0.173167	-0.00473188	-0.0647209	0.000119502	0.000976166	0	0	0	
0.173333	0.000267835	0.0443478	7.2294E-05	0.0010875	0	0	0	
0.1735	0.000306704	0.039846	7.07348E-05	0.00142175	0	0	0	
0.173667	0.00726234	-0.0683701	0.000104777	0.00152365	0	0	0	
0.173833	-0.00622688	-0.00844217	0.00012972	0.00153973	0	0	0	
0.174	-0.00583974	0.0428194	0.000158074	0.000990035	0	0	0	
0.174167	0.00530233	0.0134534	0.000124531	0.000976944	0	0	0	
0.174333	0.00273068	-0.0137113	0.000142401	0.000705395	0	0	0	
0.1745	-0.00641019	-0.0472023	0.000119955	0.000757457	0	0	0	
0.174667	0.000839734	0.0239123	0.000123832	0.000694561	0	0	0	
0.174833	0.000822641	0.0477668	9.51763E-05	0.00117929	0	0	0	
0.175	-0.00122071	-0.0371241	7.57277E-05	0.00119522	0	0	0	
0.175167	0.00236743	-0.0240469	7.21824E-05	0.00118658	0	0	0	
0.175333	-0.0048578	0.0433659	8.96983E-05	0.000764461	0	0	0	
0.1755	-0.000602866	-0.0184137	9.29241E-05	0.00082764	0	0	0	
0.175667	0.00469091	-0.0196416	0.000100896	0.000902957	0	0	0	
0.175833	-0.00768221	0.0344222	9.32593E-05	0.000975312	0	0	0	
0.176	0.00222888	0.0027165	0.000115699	0.000809335	0	0	0	
0.176167	0.000228153	-0.0416421	0.000104377	0.000553852	0	0	0	
0.176333	0.00167391	0.0201737	8.17259E-05	0.000588283	0	0	0	
0.1765	-0.00195586	0.0206636	6.26108E-05	0.000869208	0	0	0	
0.176667	0.000639766	-0.0248777	4.38243E-05	0.000921069	0	0	0	
0.176833	0.00267388	-0.00224153	4.88339E-05	0.000736331	0	0	0	
0.177	-0.00450113	0.0316503	6.10054E-05	0.000434602	0	0	0	
0.177167	0.00262781	-0.0287876	8.17008E-05	0.000438896	0	0	0	
0.177333	-0.000266782	-0.00792934	9.28743E-05	0.000695705	0	0	0	
0.1775	-0.00285714	0.0293909	7.63103E-05	0.000825906	0	0	0	
0.177667	0.00408339	-0.00449464	6.81807E-05	0.000721036	0	0	0	
0.177833	0.000364591	-0.0290227	8.18539E-05	0.000511969	0	0	0	
0.178	-0.00465068	0.0206169	0.000140943	0.000453892	0	0	0	
0.178167	0.00660392	0.0200589	0.000182958	0.000726898	0	0	0	
0.178333	-0.00738534	-0.0307294	0.000185008	0.00079022	0	0	0	
0.1785	0.000583963	-0.00928259	0.000137547	0.000770688	0	0	0	
0.178667	0.00179787	0.0348676	8.86592E-05	0.000505025	0	0	0	
0.178833	-0.00544353	-0.000947194	6.78589E-05	0.000634547	0	0	0	
0.179	0.00822152	-0.0261258	8.83696E-05	0.000777135	0	0	0	
0.179167	-0.00283402	0.00252163	0.000153002	0.000748544	0	0	0	
0.179333	-0.0108978	0.0117108	0.000228925	0.0004454	0	0	0	
0.1795	0.0112469	0.0020141	0.000262647	0.000293913	0	0	0	
0.179667	-0.00604502	0.00561827	0.000233443	0.000285895	0	0	0	
0.179833	-0.00162203	-0.01079	0.000193632	0.000357339	0	0	0	
0.18	0.00795644	-0.0104174	0.000170314	0.000431834	0	0	0	
0.180167	-0.00797806	0.00491914	0.000162531	0.000431021	0	0	0	
0.180333	0.00395912	0.0250746	0.000153341	0.000386106	0	0	0	
0.1805	-0.000473811	-0.00631165	0.000154735	0.000374332	0	0	0	
0.180667	-0.00268628	-0.0247172	0.000151179	0.000599418	0	0	0	
0.180833	0.00278156	0.000932653	0.000133347	0.000600694	0	0	0	
0.181	-0.00168048	0.0269604	9.51423E-05	0.000444826	0	0	0	
0.181167	-0.00278736	-0.00433279	6.74411E-05	0.000385589	0	0	0	
0.181333	0.00388024	-0.0144918	5.03532E-05	0.000555773	0	0	0	
0.1815	0.00325652	-0.000912335	7.36796E-05	0.000530968	0	0	0	
0.181667	-0.00640995	0.0150441	0.000103045	0.000346881	0	0	0	
0.181833	0.00358308	-0.00667563	0.000116857	0.000265185	0	0	0	
0.182	-0.000834022	-0.00297401	9.26303E-05	0.000397606	0	0	0	
0.182167	0.000680924	0.00682966	5.88009E-05	0.000481543	0	0	0	
0.182333	-0.00398174	-0.00296716	4.75656E-05	0.000397805	0	0	0	
0.1825	0.00251346	-0.00780655	4.01583E-05	0.000250921	0	0	0	
0.182667	-0.000327042	0.0109633	4.58244E-05	0.000217364	0	0	0	
0.182833	0.00442203	0.000813728	4.31521E-05	0.000322216	0	0	0	
0.183	-0.0026406	-0.00514094	6.35241E-05	0.000427074	0	0	0	
0.183167	-0.000842141	-0.00220784	6.566E-05	0.000385298	0	0	0	
0.183333	0.00626771	0.00688522	7.27609E-05	0.0002806	0	0	0	
0.1835	-0.00396648	-0.00653477	8.64079E-05	0.000256581	0	0	0	
0.183667	-0.00517201	0.00440526	0.00014036	0.000329791	0	0	0	
0.183833	0.00839372	0.0101021	0.000176824	0.000377962	0	0	0	
0.184	-0.000576494	-0.0192148	0.000169545	0.000376604	0	0	0	
0.184167	0.000358612	0.00616365	0.000105046	0.000337477	0	0	0	
0.184333	8.19205E-05	0.00647563	6.45011E-05	0.000267816	0	0	0	
0.1845	-0.00167486	-0.0134663	4.72524E-05	0.000269303	0	0	0	
0.184667	0.00759392	0.0163518	6.6409E-05	0.000345946	0	0	0	
0.184833	-0.00949745	0.00104174	0.000100221	0.000553235	0	0	0	
0.185	-0.000119126	-0.0220513	0.000169286	0.000757201	0	0	0	
0.185167	0.0115511	0.0131414	0.0002083	0.000813606	0	0	0	
0.185333	-0.000400757	0.00285619	0.000229535	0.000649389	0	0	0	
0.1855	-0.0235581	-0.0070414	0.000268116	0.000428321	0	0	0	
0.185667	0.0217466	0.00808552	0.000331	0.000287254	0	0	0	
0.185833	0.00132122	-0.0193094	0.00040749	0.000278978	0	0	0	
0.186	-0.0106643	0.0257358	0.000343565	0.000327739	0	0	0	
0.186167	-0.000406413	-0.0182189	0.000255013	0.000452832	0	0	0	
0.186333	0.00261214	-0.00139909	0.000115506	0.000633303	0	0	0	
0.1865	0.000812436	0.0143714	6.51586E-05	0.000699537	0	0	0	
0.186667	0.00437268	-0.00184625	0.000106393	0.000545366	0	0	0	
0.186833	-0.0114323	-0.0202956	0.000200026	0.000322939	0	0	0	
0.187	0.00788434	0.00867372	0.000235299	0.000301015	0	0	0	
0.187167	-0.000676148	0.0160183	0.000259096	0.000489468	0	0	0	
0.187333	-0.00237395	0.000563755	0.000237363	0.000478141	0	0	0	
0.1875	0.00426881	-0.0312338	0.000208949	0.000400746	0	0	0	
0.187667	-0.00160756	0.020193	0.000135331	0.000391564	0	0	0	
0.187833	-0.000459849	-0.0028977	6.65711E-05	0.000729244	0	0	0	
0.188	0.00100664	-0.0473502	7.7654E-05	0.000751726	0	0	0	
0.188167	0.00251295	0.0407865	0.000101984	0.00112747	0	0	0	
0.188333	-0.0140412	0.0704935	0.000224933	0.00149233	0	0	0	
0.1885	0.0464641	-0.140855	0.000387406	0.00198756	0	0	0	
0.188667	-0.142082	-0.0315382	0.00103827	0.00216772	0	0	0	
0.188833	0.0543573	0.0887295	0.00140014	0.00256256	0	0	0	
0.189	-0.0288374	-0.10109	0.00146673	0.00261055	0	0	0	
0.189167	-0.00222749	0.0442263	0.000868738	0.00229078	0	0	0	
0.189333	0.00363155	-0.0146705	0.000428531	0.00154799	0	0	0	
0.1895	0.0365384	0.0645423	0.00031811	0.00164329	0	0	0	
0.189667	-0.0297258	-0.0721926	0.000398668	0.00165961	0	0	0	
0.189833	0.00534987	-0.0387948	0.000525119	0.0016011	0	0	0	
0.19	0.0198228	0.0963991	0.000520331	0.00119859	0	0	0	
0.190167	-0.00997617	-0.0143625	0.0004214	0.00124358	0	0	0	
0.190333	-0.00390227	-0.00278883	0.000302994	0.00106401	0	0	0	
0.1905	0.00380437	-0.133748	0.000190996	0.00111301	0	0	0	
0.190667	-0.00430553	0.139165	0.000135088	0.00152018	0	0	0	
0.190833	0.00617212	0.016329	9.44842E-05	0.00241367	0	0	0	
0.191	-0.0117064	-0.0983606	0.000133584	0.00266328	0	0	0	
0.191167	0.00313519	0.0453219	0.000169804	0.00241466	0	0	0	
0.191333	0.000377348	0.0461205	0.000179776	0.002198	0	0	0	
0.1915	-0.00260068	-0.0469184	0.000118763	0.00181912	0	0	0	
0.191667	0.00345091	-0.00797457	6.66805E-05	0.00131263	0	0	0	
0.191833	-0.000444421	0.0198372	5.98521E-05	0.000696491	0	0	0	
0.192	-0.0103533	-0.0694924	9.49855E-05	0.000782367	0	0	0	
0.192167	0.00243745	0.131523	0.00014248	0.00110372	0	0	0	
0.192333	0.000371929	-0.0613946	0.000128457	0.00161265	0	0	0	
0.1925	0.00126749	-0.0140896	0.00010539	0.00167477	0	0	0	
0.192667	-0.00397101	0.039856	5.80795E-05	0.00129962	0	0	0	
0.192833	0.00253559	-0.0423936	6.5399E-05	0.000883709	0	0	0	
0.193	0.00139531	0.0456192	7.04245E-05	0.000717157	0	0	0	
0.193167	0.000228012	-0.021662	7.33055E-05	0.000914348	0	0	0	
0.193333	-0.000331137	-0.0108584	6.14514E-05	0.00126642	0	0	0	
0.1935	0.000875552	0.0508133	3.71472E-05	0.00148204	0	0	0	
0.193667	-0.00114246	-0.00896595	2.35172E-05	0.0013828	0	0	0	
0.193833	0.00314795	-0.0600933	2.2635E-05	0.00142634	0	0	0	
0.194	0.000671964	0.0653404	5.01988E-05	0.00135294	0	0	0	
0.194167	-0.00696189	-0.00571526	8.31957E-05	0.00152656	0	0	0	
0.194333	0.00535725	-0.0368287	0.000101056	0.00119423	0	0	0	
0.1945	-0.000319277	0.0168497	0.000117665	0.000937292	0	0	0	
0.194667	-0.00252822	0.0102545	0.000102032	0.000704985	0	0	0	
0.194833	0.00424555	0.0176748	9.14159E-05	0.000403349	0	0	0	
0.195	-0.00450322	-0.0413751	7.79868E-05	0.000588421	0	0	0	
0.195167	0.000249099	0.0233909	7.95638E-05	0.000602158	0	0	0	
0.195333	0.0048105	-0.00264657	0.000125054	0.000625687	0	0	0	
0.1955	-0.00543394	-0.00373691	0.000143628	0.000325436	0	0	0	
0.195667	0.00256314	-0.0036782	0.000133838	0.000252199	0	0	0	
0.195833	0.000412631	-0.0043476	9.48527E-05	0.000203101	0	0	0	
0.196	-0.000619611	0.0234621	7.49863E-05	0.000304647	0	0	0	
0.196167	-0.000380186	0.00887959	8.92895E-05	0.000518477	0	0	0	
0.196333	-0.00191147	-0.0244608	7.52327E-05	0.000721442	0	0	0	
0.1965	0.000796365	-0.00239897	5.24643E-05	0.000657987	0	0	0	
0.196667	-0.000337109	0.0156185	2.82938E-05	0.000428844	0	0	0	
0.196833	-0.000812283	-0.00519149	2.47268E-05	0.000246966	0	0	0	
0.197	0.00398794	0.0334955	2.94144E-05	0.000277649	0	0	0	
0.197167	-0.00445	-0.0691481	5.10614E-05	0.000534737	0	0	0	
0.197333	-0.00162506	0.0274353	7.6814E-05	0.00091101	0	0	0	
0.1975	0.005472	0.0348911	9.51752E-05	0.00138914	0	0	0	
0.197667	-0.00402172	-0.0408122	8.94458E-05	0.00125472	0	0	0	
0.197833	0.00199043	-0.000645549	7.62816E-05	0.00103903	0	0	0	
0.198	-0.000547942	0.0113564	5.49391E-05	0.000518691	0	0	0	
0.198167	-0.00296485	-0.000537949	5.73713E-05	0.000347662	0	0	0	
0.198333	0.00566529	0.000184697	7.84496E-05	0.000137135	0	0	0	
0.1985	-0.00503321	-0.0041681	9.8095E-05	0.000163755	0	0	0	
0.198667	0.00335655	-0.013312	0.000110409	0.000289004	0	0	0	
0.198833	4.67646E-05	0.0153204	0.000105194	0.000398805	0	0	0	
0.199	-0.00195723	0.000547526	9.54199E-05	0.000343473	0	0	0	
0.199167	-0.000696219	-0.0137402	6.44892E-05	0.00019873	0	0	0	
0.199333	0.00275135	0.0231652	5.39557E-05	0.000220764	0	0	0	
0.1995	-0.0031169	-0.0186558	5.13198E-05	0.000359676	0	0	0	
0.199667	0.00219074	0.0118432	5.953E-05	0.000523703	0	0	0	
0.199833	0.000183937	-0.0032276	4.8671E-05	0.000544575	0	0	0	
0.2	-0.000307433	-0.00174884	3.6923E-05	0.000456262	0	0	0	
0.200167	0.000138798	-0.000640598	2.41986E-05	0.000281582	0	0	0	
0.200333	-0.00121087	0.00448979	1.33786E-05	0.000139431	0	0	0	
0.2005	-0.000682131	-0.00607036	1.11614E-05	0.000101206	0	0	0	
0.200667	0.00285334	0.00448623	1.9749E-05	0.00014633	0	0	0	
0.200833	-0.000111178	-0.000774412	3.70721E-05	0.00015845	0	0	0	
0.201	0.000903709	-0.000850124	3.73619E-05	0.000115366	0	0	0	
0.201167	-0.000597655	-0.00318127	3.63358E-05	5.59706E-05	0	0	0	
0.201333	-0.0013157	0.00566443	2.00673E-05	5.18904E-05	0	0	0	
0.2015	-0.00105321	-0.0154865	3.42411E-05	0.000126695	0	0	0	
0.201667	0.00296397	0.0167306	5.60588E-05	0.000254782	0	0	0	
0.201833	-0.00282166	-0.00105192	7.00473E-05	0.00037305	0	0	0	
0.202	0.00287453	-0.00959593	7.31996E-05	0.000462283	0	0	0	
0.202167	-0.00131309	0.00825602	5.58631E-05	0.00041022	0	0	0	
0.202333	-0.000335849	0.00660521	4.33537E-05	0.000312325	0	0	0	
0.2025	0.00278669	-0.0194668	4.88411E-05	0.0002119	0	0	0	
0.202667	-0.00553077	0.0208077	6.98283E-05	0.000280095	0	0	0	
0.202833	0.0025149	-0.0101039	8.20171E-05	0.000394998	0	0	0	
0.203	0.00178626	0.010174	7.91046E-05	0.000425004	0	0	0	
0.203167	-0.00179141	-0.00957149	6.13927E-05	0.000370911	0	0	0	
0.203333	0.000261966	-0.000846366	5.2496E-05	0.00028876	0	0	0	
0.2035	0.00119057	0.00553755	3.77892E-05	0.000232015	0	0	0	
0.203667	-0.000229537	-0.000603928	2.84593E-05	0.000169773	0	0	0	
0.203833	-0.00359282	-0.0137671	4.21538E-05	0.000113949	0	0	0	
0.204	0.00321971	0.0106533	5.47682E-05	0.000145732	0	0	0	
0.204167	-0.00301832	-0.0041289	7.30151E-05	0.000234775	0	0	0	
0.204333	0.000701311	-0.00422009	6.98979E-05	0.000284369	0	0	0	
0.2045	0.00097129	-0.0050618	6.81295E-05	0.00023549	0	0	0	
0.204667	-0.00488463	0.0229987	6.69119E-05	0.000194882	0	0	0	
0.204833	0.00590008	-0.025857	8.13969E-05	0.000248181	0	0	0	
0.205	-0.00245347	0.0191922	8.61004E-05	0.000437371	0	0	0	
0.205167	-0.00120853	-0.00838569	9.79806E-05	0.000588501	0	0	0	
0.205333	0.0010441	0.00323784	9.25764E-05	0.000652304	0	0	0	
0.2055	-0.00324398	0.0088094	9.28634E-05	0.00053439	0	0	0	
0.205667	0.0075033	-0.0146824	8.39327E-05	0.000354727	0	0	0	
0.205833	-0.012867	0.0407671	0.000136241	0.000457429	0	0	0	
0.206	0.00478003	-0.00771322	0.000197049	0.000529291	0	0	0	
0.206167	0.00247085	0.019891	0.000214301	0.000568397	0	0	0	
0.206333	-0.00202922	-0.0339951	0.00014536	0.000459725	0	0	0	
0.2065	0.00208196	-0.00182452	7.08428E-05	0.000388822	0	0	0	
0.206667	-0.00186437	0.00178656	3.56988E-05	0.000370757	0	0	0	
0.206833	-0.0110792	0.0931144	9.9795E-05	0.000687538	0	0	0	
0.207	0.0147397	-0.0759834	0.00021244	0.00112556	0	0	0	
0.207167	-0.0121172	-0.0283066	0.00026884	0.00157584	0	0	0	
0.207333	-0.00117368	0.0946572	0.000281898	0.00137505	0	0	0	
0.2075	0.0049469	-0.0594618	0.000207463	0.00177935	0	0	0	
0.207667	-0.000640216	-0.0364793	0.000160173	0.00205033	0	0	0	
0.207833	-0.00201064	0.0312803	9.10102E-05	0.00192766	0	0	0	
0.208	0.00025861	-0.0352275	4.79428E-05	0.00127965	0	0	0	
0.208167	-0.00250467	0.030293	3.44226E-05	0.000707349	0	0	0	
0.208333	0.0085482	0.00296746	4.77833E-05	0.000710964	0	0	0	
0.2085	-0.0109735	-0.0802946	0.000106492	0.000859068	0	0	0	
0.208667	0.00313653	0.0681262	0.000144258	0.00110325	0	0	0	
0.208833	0.000633826	-0.00358405	0.00012954	0.00129713	0	0	0	
0.209	0.00178094	-0.140184	7.08011E-05	0.00157873	0	0	0	
0.209167	-0.00464351	0.104426	4.67309E-05	0.0020131	0	0	0	
0.209333	0.00753418	-0.0278724	6.83016E-05	0.00200243	0	0	0	
0.2095	-0.00394778	-0.0321802	0.000104789	0.00152396	0	0	0	
0.209667	-0.000925542	0.022829	0.000104018	0.000887356	0	0	0	
0.209833	-7.89624E-05	0.00201179	8.11345E-05	0.000809275	0	0	0	
0.21	0.000873304	0.00109937	4.39194E-05	0.000708428	0	0	0	
0.210167	-0.00308437	-0.0282084	3.96613E-05	0.000779691	0	0	0	
0.210333	0.00488202	-0.0048686	5.30273E-05	0.000833085	0	0	0	
0.2105	-0.00371795	-0.0168705	8.51882E-05	0.000752028	0	0	0	
0.210667	0.000690522	0.085189	9.31194E-05	0.000726891	0	0	0	
0.210833	-0.000137157	-0.04643	7.25708E-05	0.000756429	0	0	0	
0.211	0.0020168	-0.00819203	4.30767E-05	0.000997441	0	0	0	
0.211167	-0.00161323	0.0199145	3.67429E-05	0.000764108	0	0	0	
0.211333	-0.000916396	0.0109604	6.25363E-05	0.00055308	0	0	0	
0.2115	0.00452835	-0.0071983	8.19301E-05	0.000363333	0	0	0	
0.211667	-0.00234391	-0.0314124	8.94358E-05	0.000616577	0	0	0	
0.211833	-0.000950563	0.0365721	0.00010381	0.000656466	0	0	0	
0.212	0.00358266	0.0149454	0.000108296	0.000814401	0	0	0	
0.212167	-0.00172695	-0.0114397	9.61322E-05	0.000564523	0	0	0	
0.212333	0.00173604	-0.0177185	6.89514E-05	0.000776429	0	0	0	
0.2125	-0.00190347	0.0105987	6.64953E-05	0.000725229	0	0	0	
0.212667	0.00016449	0.0208465	8.79905E-05	0.000715099	0	0	0	
0.212833	0.00350705	-0.0199857	9.30717E-05	0.000457887	0	0	0	
0.213	-0.00195783	0.000521148	7.77184E-05	0.000481985	0	0	0	
0.213167	-0.00198683	0.00717073	5.93938E-05	0.000543122	0	0	0	
0.213333	0.00493343	-0.000298605	5.06818E-05	0.000437174	0	0	0	
0.2135	-0.00298852	-0.00789966	8.73884E-05	0.000246084	0	0	0	
0.213667	-0.000959749	0.0201937	0.000123603	0.000241685	0	0	0	
0.213833	0.00121835	-0.0230208	0.000109864	0.000315104	0	0	0	
0.214	-9.04706E-05	0.0130263	9.16527E-05	0.000535323	0	0	0	
0.214167	-0.00157069	0.00239416	6.30223E-05	0.000593388	0	0	0	
0.214333	0.00160001	-0.00732729	6.47178E-05	0.000564412	0	0	0	
0.2145	-0.000959412	0.0249722	4.17588E-05	0.000401172	0	0	0	
0.214667	0.00327996	-0.00744173	3.10117E-05	0.000334696	0	0	0	
0.214833	-0.00153579	-0.0252784	5.17249E-05	0.000346016	0	0	0	
0.215	-0.00197204	0.046991	6.18174E-05	0.000454061	0	0	0	
0.215167	0.00196736	-0.0139386	6.64427E-05	0.000580191	0	0	0	
0.215333	-0.00150712	-0.00492432	5.18531E-05	0.000627768	0	0	0	
0.2155	0.0028023	0.00916021	4.52452E-05	0.000475768	0	0	0	
0.215667	-0.000101969	0.00251611	4.26948E-05	0.000324895	0	0	0	
0.215833	-0.00450235	0.000283034	4.71148E-05	0.000248466	0	0	0	
0.216	0.00343581	0.0034085	6.02481E-05	0.000266678	0	0	0	
0.216167	0.000687313	-0.00170102	8.28736E-05	0.000279173	0	0	0	
0.216333	-0.00298515	0.000585651	9.45961E-05	0.000267236	0	0	0	
0.2165	0.00225766	-0.00149681	8.48264E-05	0.000230402	0	0	0	
0.216667	-0.000212274	-0.00257899	5.84449E-05	0.000239119	0	0	0	
0.216833	-0.00436014	0.0083827	4.31309E-05	0.000281155	0	0	0	
0.217	0.00523354	0.0125846	5.83227E-05	0.000299393	0	0	0	
0.217167	-0.00453538	-0.0337352	7.72627E-05	0.00034701	0	0	0	
0.217333	0.00143875	0.015902	8.33534E-05	0.000441182	0	0	0	
0.2175	0.00112134	-0.00037355	7.47186E-05	0.000506064	0	0	0	
0.217667	-0.00229349	-0.00365193	5.84987E-05	0.000415315	0	0	0	
0.217833	-0.00161391	0.00735076	4.86696E-05	0.000311351	0	0	0	
0.218	0.00466998	-0.0042808	4.3324E-05	0.000297735	0	0	0	
0.218167	-0.00342707	-0.00194751	6.38203E-05	0.000260096	0	0	0	
0.218333	0.000820147	0.0064967	6.96243E-05	0.000224874	0	0	0	
0.2185	0.000583067	-0.00852679	6.17917E-05	0.000146378	0	0	0	
0.218667	-0.00118784	0.00169925	3.59595E-05	0.000173796	0	0	0	
0.218833	0.00106788	-0.000828752	2.9475E-05	0.000221406	0	0	0	
0.219	-3.95716E-05	-0.00266195	1.99399E-05	0.0002843	0	0	0	
0.219167	-0.00212319	0.00280448	2.19847E-05	0.000327984	0	0	0	
0.219333	0.00283604	-0.0159442	3.74896E-05	0.000325372	0	0	0	
0.2195	-0.000288578	0.0100558	6.16322E-05	0.000325863	0	0	0	
0.219667	-0.0010727	-0.00145135	5.99261E-05	0.000255174	0	0	0	
0.219833	-0.00200547	-6.61324E-05	4.3178E-05	0.0001602	0	0	0	
0.22	0.00565791	0.00767025	4.59946E-05	8.30721E-05	0	0	0	
0.220167	-0.0052582	-0.0338323	7.67975E-05	0.000157394	0	0	0	
0.220333	0.000821024	0.0331875	0.000105807	0.000394229	0	0	0	
0.2205	0.00264369	-0.0130189	0.000104015	0.000726618	0	0	0	
0.220667	-0.00258311	-0.0183343	8.15225E-05	0.000901383	0	0	0	
0.220833	0.00091851	0.0182631	5.63748E-05	0.000746708	0	0	0	
0.221	0.00386086	0.0200608	5.08023E-05	0.000613967	0	0	0	
0.221167	-0.00188748	-0.0522401	5.93926E-05	0.000562905	0	0	0	
0.221333	0.000589212	0.0375638	6.26461E-05	0.000785245	0	0	0	
0.2215	0.00124276	0.0060874	8.96224E-05	0.000978391	0	0	0	
0.221667	-0.000667516	-0.0248117	0.000107089	0.000995172	0	0	0	
0.221833	0.000690943	0.0120518	0.000108966	0.000778462	0	0	0	
0.222	-0.00167641	-0.001527	7.16617E-05	0.000412895	0	0	0	
0.222167	0.00626678	-0.0123879	6.45437E-05	0.000228772	0	0	0	
0.222333	-0.00314053	0.0202129	9.05542E-05	0.000261883	0	0	0	
0.2225	-0.00371612	-0.0209808	9.68347E-05	0.000337233	0	0	0	
0.222667	0.00430998	0.012097	0.000117043	0.000499239	0	0	0	
0.222833	-0.00241158	-0.0072801	0.000111302	0.000539035	0	0	0	
0.223	0.00611468	-0.00104663	0.00012136	0.000530471	0	0	0	
0.223167	-0.00909735	0.0287645	0.000115066	0.00044605	0	0	0	
0.223333	0.00751285	-0.0319786	0.000164751	0.00046573	0	0	0	
0.2235	0.000118213	-0.00605321	0.000187446	0.000492995	0	0	0	
0.223667	-0.0061277	0.0268125	0.000157635	0.000423699	0	0	0	
0.223833	0.00523947	-0.0245256	0.000114164	0.000433191	0	0	0	
0.224	-5.9475E-06	0.0271063	7.94709E-05	0.000436194	0	0	0	
0.224167	-0.00368796	0.00550128	8.32744E-05	0.000626524	0	0	0	
0.224333	0.00516194	-0.0898041	8.03653E-05	0.00105819	0	0	0	
0.2245	-0.0018955	0.108565	0.000103981	0.00160131	0	0	0	
0.224667	-0.00998716	-0.0377794	0.00012066	0.00181904	0	0	0	
0.224833	0.00478552	-0.024577	0.000138732	0.00170266	0	0	0	
0.225	0.00202912	0.0387467	0.000136554	0.00126863	0	0	0	
0.225167	-0.00166399	-0.0356676	0.000104402	0.000988806	0	0	0	
0.225333	0.000921894	0.0224707	5.91706E-05	0.00078255	0	0	0	
0.2255	-0.00452097	0.00363448	4.00699E-05	0.00119369	0	0	0	
0.225667	0.00195776	-0.0545997	6.22317E-05	0.0016889	0	0	0	
0.225833	-0.00490343	0.0680302	7.3161E-05	0.00171978	0	0	0	
0.226	0.00213355	-0.020326	9.1122E-05	0.0014218	0	0	0	
0.226167	0.00151147	-0.023482	8.14535E-05	0.00105671	0	0	0	
0.226333	5.3687E-05	0.0204448	6.00728E-05	0.000826776	0	0	0	
0.2265	-0.000577932	0.00342006	3.91208E-05	0.000690343	0	0	0	
0.226667	0.000751784	-0.00424303	2.87667E-05	0.000615305	0	0	0	
0.226833	2.2778E-06	0.0165439	3.36858E-05	0.000746723	0	0	0	
0.227	-0.00107605	-0.0304383	3.35949E-05	0.000816424	0	0	0	
0.227167	0.000599457	0.0247004	3.2666E-05	0.000758778	0	0	0	
0.227333	-0.00110683	0.00167668	2.93347E-05	0.000613179	0	0	0	
0.2275	0.00218681	-0.0266573	3.00494E-05	0.000412976	0	0	0	
0.227667	0.000828344	0.0257152	3.76553E-05	0.000350143	0	0	0	
0.227833	-0.00163646	-0.00505543	4.41622E-05	0.000352746	0	0	0	
0.228	0.000776652	0.0215649	4.16269E-05	0.000334022	0	0	0	
0.228167	-0.000158599	-0.0256375	3.92427E-05	0.000380383	0	0	0	
0.228333	-0.000298928	0.00347553	3.69925E-05	0.000426352	0	0	0	
0.2285	-3.20096E-05	0.00662163	3.30621E-05	0.000408718	0	0	0	
0.228667	-0.00116189	-0.0206771	2.45318E-05	0.000351463	0	0	0	
0.228833	0.00207812	0.0181409	2.34029E-05	0.000391294	0	0	0	
0.229	-0.00138292	-0.0282641	3.08734E-05	0.000516009	0	0	0	
0.229167	-0.00126738	0.0226855	3.30924E-05	0.000541178	0	0	0	
0.229333	-0.0007045	0.00154729	3.04109E-05	0.000502666	0	0	0	
0.2295	0.00110724	-0.0124422	2.01145E-05	0.000370277	0	0	0	
0.229667	-0.000160189	0.0114981	2.06527E-05	0.000284507	0	0	0	
0.229833	0.00122148	-0.0251985	2.15421E-05	0.000335816	0	0	0	
0.23	-0.00307861	0.0061545	4.7463E-05	0.000579175	0	0	0	
0.230167	0.00191623	0.0174112	4.63645E-05	0.000879178	0	0	0	
0.230333	-0.000395989	-0.0119296	6.72786E-05	0.000925566	0	0	0	
0.2305	-0.00187965	0.00712102	5.19889E-05	0.00069241	0	0	0	
0.230667	0.00101212	-0.00408022	6.06295E-05	0.000360593	0	0	0	
0.230833	0.000545044	0.00202823	5.88718E-05	0.000248471	0	0	0	
0.231	-0.00200163	0.0234203	6.42012E-05	0.000331438	0	0	0	
0.231167	0.00300009	-0.0383209	5.81569E-05	0.000481346	0	0	0	
0.231333	-0.00327622	0.0305602	5.15315E-05	0.00064125	0	0	0	
0.2315	0.00123783	-0.00765132	4.51364E-05	0.000639778	0	0	0	
0.231667	1.7354E-05	0.00495021	3.95158E-05	0.000509705	0	0	0	
0.231833	-0.000277903	0.0178417	2.26969E-05	0.000375605	0	0	0	
0.232	-0.000502294	-0.0302541	1.97584E-05	0.000530954	0	0	0	
0.232167	0.0018177	0.0286239	3.32323E-05	0.00066398	0	0	0	
0.232333	-0.000414625	0.00692625	4.31097E-05	0.000660762	0	0	0	
0.2325	-0.000142653	-0.0173424	4.75727E-05	0.000489711	0	0	0	
0.232667	0.00140561	0.00526618	3.79445E-05	0.000361869	0	0	0	
0.232833	-0.00199169	-0.00608434	3.3815E-05	0.00024473	0	0	0	
0.233	0.00210801	0.0345897	4.47728E-05	0.000229239	0	0	0	
0.233167	0.00321672	-0.0277499	7.29711E-05	0.000394483	0	0	0	
0.233333	-0.00147809	-0.00506547	8.72258E-05	0.000794768	0	0	0	
0.2335	0.000773408	0.0340207	6.97887E-05	0.00103039	0	0	0	
0.233667	0.00115863	-0.0138708	4.09202E-05	0.000933521	0	0	0	
0.233833	-0.000644774	-0.00428566	2.43467E-05	0.000562051	0	0	0	
0.234	0.000611605	-0.0189837	2.4678E-05	0.000308815	0	0	0	
0.234167	-4.60294E-05	0.0172712	3.27945E-05	0.000359082	0	0	0	
0.234333	-0.00148597	0.0116297	4.36263E-05	0.000348097	0	0	0	
0.2345	0.00259593	-0.0262435	5.27862E-05	0.000358154	0	0	0	
0.234667	-0.00021597	0.015458	4.73329E-05	0.000392396	0	0	0	
0.234833	-0.00122086	0.00253401	3.98745E-05	0.000490497	0	0	0	
0.235	0.00269948	0.00344903	2.97653E-05	0.000397756	0	0	0	
0.235167	-0.00403261	-0.0199149	4.69213E-05	0.000271623	0	0	0	
0.235333	0.000250504	0.0103809	6.55255E-05	0.000286074	0	0	0	
0.2355	0.00156514	0.00365231	7.66827E-05	0.000429233	0	0	0	
0.235667	-0.00180852	0.00418085	6.28857E-05	0.000373744	0	0	0	
0.235833	0.00122605	-0.0186862	4.18149E-05	0.000283089	0	0	0	
0.236	-0.001848	0.0136496	3.18929E-05	0.000246722	0	0	0	
0.236167	0.00161547	0.0464823	3.04775E-05	0.000623309	0	0	0	
0.236333	-0.00267207	-0.0558422	5.87963E-05	0.00116213	0	0	0	
0.2365	-0.00377267	0.0573362	0.000101434	0.00145275	0	0	0	
0.236667	0.00816874	-0.0269909	0.000130029	0.00128674	0	0	0	
0.236833	-0.00576243	0.00759273	0.000138929	0.000905989	0	0	0	
0.237	0.00180359	0.00541251	0.000116382	0.000633854	0	0	0	
0.237167	0.00129503	-0.0292783	0.000106242	0.000526871	0	0	0	
0.237333	-0.00467986	0.092013	0.000101953	0.000629422	0	0	0	
0.2375	0.0061055	-0.0813615	0.000120414	0.00107172	0	0	0	
0.237667	-0.00226187	0.0147836	0.000116556	0.0015947	0	0	0	
0.237833	-0.000418595	0.0312753	8.56154E-05	0.00176645	0	0	0	
0.238	-0.00166626	-0.0132951	5.35715E-05	0.00135106	0	0	0	
0.238167	0.00633048	-0.00494621	4.5176E-05	0.000730929	0	0	0	
0.238333	0.00745856	-0.00944935	0.000142962	0.000334259	0	0	0	
0.2385	-0.0461901	0.0506725	0.000331415	0.000346984	0	0	0	
0.238667	0.145206	0.0395072	0.00101356	0.000923161	0	0	0	
0.238833	-0.050766	-0.012215	0.00139547	0.000961358	0	0	0	
0.239	0.0235123	-0.0160418	0.00150619	0.000858878	0	0	0	
0.239167	0.00494063	0.0172186	0.000962035	0.000382019	0	0	0	
0.239333	-4.60712E-05	-0.0240454	0.000493218	0.000343412	0	0	0	
0.2395	-0.0334525	0.0204111	0.000268835	0.00050936	0	0	0	
0.239667	0.0134672	0.0410437	0.000243389	0.000747729	0	0	0	
0.239833	0.00601493	-0.0691589	0.000391295	0.000947713	0	0	0	
0.24	-0.0125712	0.0313683	0.000425303	0.0011327	0	0	0	
0.240167	0.0018915	0.0134169	0.00033086	0.00121491	0	0	0	
0.240333	0.00688437	-0.0182344	0.000191291	0.00109483	0	0	0	
0.2405	-0.0023094	-0.00160342	0.000114014	0.000730753	0	0	0	
0.240667	-0.00809346	0.0327537	0.000150865	0.000422167	0	0	0	
0.240833	0.00530245	-0.0430332	0.000174557	0.000450023	0	0	0	
0.241	0.0015207	0.00240106	0.000159054	0.000792605	0	0	0	
0.241167	0.00360156	0.0409751	0.00018245	0.00105	0	0	0	
0.241333	-0.0137079	-0.0196536	0.000227472	0.00098377	0	0	0	
0.2415	0.00811482	-0.0348231	0.000260501	0.000947841	0	0	0	
0.241667	0.00293899	0.0692247	0.000244088	0.000866009	0	0	0	
0.241833	-0.00381509	-0.0544834	0.000168999	0.00112036	0	0	0	
0.242	0.00454438	-0.0122008	0.000134239	0.00134727	0	0	0	
0.242167	-0.00786086	0.0550296	9.71097E-05	0.00143953	0	0	0	
0.242333	0.00798492	-0.00148376	0.000140081	0.00130072	0	0	0	
0.2425	0.00203402	-0.0544355	0.000181289	0.00102248	0	0	0	
0.242667	-0.00398078	0.0171501	0.000190543	0.000895928	0	0	0	
0.242833	-0.0035309	0.00969929	0.000148012	0.000869353	0	0	0	
0.243	0.00807875	0.0290226	0.000112995	0.000641973	0	0	0	
0.243167	0.00222789	-0.0145841	0.000102293	0.000590407	0	0	0	
0.243333	-0.00292975	-0.04118	0.000130029	0.000794358	0	0	0	
0.2435	0.00197247	0.0127111	0.000128533	0.000839507	0	0	0	
0.243667	-0.0011214	0.0509443	0.000101367	0.000973124	0	0	0	
0.243833	-0.000822226	-0.0432933	5.82034E-05	0.000804311	0	0	0	
0.244	0.00131031	0.00307354	4.03168E-05	0.00106187	0	0	0	
0.244167	-5.17281E-05	0.0146877	3.5078E-05	0.000964775	0	0	0	
0.244333	0.00519371	-0.0185788	7.9859E-05	0.000846237	0	0	0	
0.2445	-0.00360718	-0.00239258	0.000104977	0.000527249	0	0	0	
0.244667	-0.000778972	0.0401372	0.000111982	0.000447278	0	0	0	
0.244833	0.000373983	-0.0318316	7.67638E-05	0.000532431	0	0	0	
0.245	-0.00337234	-0.0150079	5.93928E-05	0.000851235	0	0	0	
0.245167	0.00199596	0.0170632	6.44518E-05	0.000787842	0	0	0	
0.245333	0.0049528	0.0226759	6.30989E-05	0.000712332	0	0	0	
0.2455	-0.00439958	-0.0348352	7.02501E-05	0.000478113	0	0	0	
0.245667	-0.00260353	0.00992063	7.7522E-05	0.000598702	0	0	0	
0.245833	0.00406774	0.00940222	9.14671E-05	0.000679198	0	0	0	
0.246	-0.00169136	-0.0109589	9.08942E-05	0.000628783	0	0	0	
0.246167	-0.010021	-0.0018053	0.000119479	0.00040141	0	0	0	
0.246333	0.0117051	0.0197155	0.000161566	0.000240826	0	0	0	
0.2465	0.0504175	-0.0798999	0.000418553	0.0004019	0	0	0	
0.246667	0.0368191	-0.0804904	0.00175825	0.00204437	0	0	0	
0.246833	0.000183617	0.0127695	0.0026162	0.00304122	0	0	0	
0.247	-0.0184821	0.0468766	0.00252564	0.00330234	0	0	0	
0.247167	0.00683574	-0.0511631	0.00120955	0.00191937	0	0	0	
0.247333	-0.00081753	-0.0110553	0.000316243	0.00138274	0	0	0	
0.2475	-2.04131E-05	0.0681549	0.000188749	0.00128404	0	0	0	
0.247667	0.0111703	-0.0669115	0.00062266	0.00172638	0	0	0	
0.247833	-0.0705303	0.0939915	0.00213643	0.00316948	0	0	0	
0.248	-0.0071014	-0.0343951	0.00222132	0.0030429	0	0	0	
0.248167	0.00904689	-0.00891594	0.00180788	0.00261742	0	0	0	
0.248333	0.012702	0.0486378	0.000447838	0.000881718	0	0	0	
0.2485	-0.027255	-0.010339	0.000430786	0.000821194	0	0	0	
0.248667	0.0214761	-0.0239566	0.000485894	0.000754251	0	0	0	
0.248833	-0.00735222	-0.0156505	0.000571875	0.000734615	0	0	0	
0.249	-0.0115493	0.0116961	0.000772748	0.000524408	0	0	0	
0.249167	0.0270926	0.0614126	0.000872011	0.000773087	0	0	0	
0.249333	-0.0266817	-0.0581602	0.000766479	0.0008674	0	0	0	
0.2495	0.0180154	-0.0392819	0.000561168	0.00139584	0	0	0	
0.249667	-0.0166681	0.0498606	0.000413564	0.00114125	0	0	0	
0.249833	0.0135526	0.00974833	0.000342974	0.00124829	0	0	0	
0.25	-0.00157245	-0.00823062	0.000301826	0.000773738	0	0	0	
0.250167	-0.00508322	-0.0254724	0.000292221	0.000687968	0	0	0	
0.250333	0.00702628	0.0130102	0.000233911	0.000398843	0	0	0	
0.2505	-0.0046892	0.00902766	0.000176041	0.000474489	0	0	0	
0.250667	0.00434314	-0.000453113	0.000120584	0.000356162	0	0	0	
0.250833	-0.00210254	-0.00885588	0.000128785	0.000228088	0	0	0	
0.251	-0.00140292	0.00952929	0.000143542	0.000130189	0	0	0	
0.251167	0.00540921	-0.0113816	0.000136622	0.000208006	0	0	0	
0.251333	-0.00324785	0.00227252	0.000124947	0.000340858	0	0	0	
0.2515	-0.00189936	0.00999044	8.90045E-05	0.000403227	0	0	0	
0.251667	0.00663205	0.0042887	8.49631E-05	0.000334585	0	0	0	
0.251833	-0.00653324	-0.0294161	0.00010416	0.00028169	0	0	0	
0.252	-0.000912236	0.0255145	0.000143902	0.000343548	0	0	0	
0.252167	0.00561394	0.003547	0.000149494	0.000615394	0	0	0	
0.252333	-0.00145515	-0.0176121	0.000116905	0.000701453	0	0	0	
0.2525	-0.00462764	-0.00416457	8.74655E-05	0.000574361	0	0	0	
0.252667	0.00699336	0.0321399	9.55597E-05	0.000387892	0	0	0	
0.252833	-0.00620302	-0.0238527	0.000124838	0.000402923	0	0	0	
0.253	0.00252676	-0.00727881	0.00013092	0.000633939	0	0	0	
0.253167	-0.000215582	0.0170361	9.01358E-05	0.000665451	0	0	0	
0.253333	0.000993027	0.0101538	5.2633E-05	0.000568483	0	0	0	
0.2535	-0.0022546	-0.0334494	4.84083E-05	0.0004002	0	0	0	
0.253667	-0.000722606	0.0241752	5.59854E-05	0.00046681	0	0	0	
0.253833	0.000984226	0.00194933	5.22431E-05	0.000615337	0	0	0	
0.254	0.000657366	-0.00106327	4.28394E-05	0.000576049	0	0	0	
0.254167	-0.00112467	-0.0184025	3.68203E-05	0.000409388	0	0	0	
0.254333	0.00301948	0.0255456	4.85538E-05	0.000309018	0	0	0	
0.2545	-0.00516998	-0.00775943	5.39001E-05	0.000447426	0	0	0	
0.254667	0.00281305	-0.00470596	7.40462E-05	0.000576239	0	0	0	
0.254833	0.00247229	-0.00307864	8.68593E-05	0.000448877	0	0	0	
0.255	-0.00459105	0.0193478	8.60718E-05	0.000282964	0	0	0	
0.255167	-0.00110835	-0.0236544	8.14836E-05	0.000239685	0	0	0	
0.255333	0.00380646	0.0174064	7.21323E-05	0.000406531	0	0	0	
0.2555	0.00209481	-0.00381245	6.05016E-05	0.000554706	0	0	0	
0.255667	-0.00287891	-0.00401862	5.09133E-05	0.000560254	0	0	0	
0.255833	-0.00149872	-0.00831741	4.89398E-05	0.000393475	0	0	0	
0.256	0.00359946	0.0282694	5.7358E-05	0.000280341	0	0	0	
0.256167	-0.00152382	-0.017662	6.20905E-05	0.000337898	0	0	0	
0.256333	0.00045235	-0.00635833	4.44324E-05	0.000577969	0	0	0	
0.2565	-0.000903188	0.000835489	3.15773E-05	0.000543847	0	0	0	
0.256667	-0.00087224	0.0234695	2.55007E-05	0.000429885	0	0	0	
0.256833	0.0014057	-0.0198608	4.00737E-05	0.000300361	0	0	0	
0.257	-0.000225986	0.00291541	3.64866E-05	0.000415046	0	0	0	
0.257167	-0.00207936	-0.00437538	2.852E-05	0.000424778	0	0	0	
0.257333	0.0025243	0.0123418	3.0267E-05	0.000367654	0	0	0	
0.2575	-0.00194495	-0.00850532	4.21775E-05	0.000287502	0	0	0	
0.257667	0.00148713	0.0119122	6.0805E-05	0.000268182	0	0	0	
0.257833	0.00588981	-0.021653	0.000107305	0.000294786	0	0	0	
0.258	-0.0136524	0.0122036	0.000175176	0.000383922	0	0	0	
0.258167	0.0124429	0.00765108	0.000227633	0.000546505	0	0	0	
0.258333	-0.0083678	-0.00678216	0.000248977	0.000521934	0	0	0	
0.2585	0.00584192	-0.0191144	0.000264133	0.000436335	0	0	0	
0.258667	-0.000582014	0.0378293	0.000251558	0.000358138	0	0	0	
0.258833	-0.00420217	-0.011412	0.00018903	0.000561252	0	0	0	
0.259	0.00439681	-0.0276897	0.000120896	0.000790247	0	0	0	
0.259167	0.00237786	0.0124236	0.000118089	0.000726437	0	0	0	
0.259333	-0.00673065	0.0382344	0.000144905	0.000728462	0	0	0	
0.2595	0.00794529	-0.0460663	0.000166691	0.000633462	0	0	0	
0.259667	-0.00601161	0.0139777	0.000153036	0.000871745	0	0	0	
0.259833	0.000796773	0.0143019	0.000119969	0.000882758	0	0	0	
0.26	0.00394754	-0.0245672	8.49924E-05	0.00079552	0	0	0	
0.260167	-0.00265809	-0.00410687	6.69103E-05	0.000614203	0	0	0	
0.260333	-0.00634182	0.0510715	0.000108324	0.000551519	0	0	0	
0.2605	0.012398	-0.0287254	0.000143263	0.000704087	0	0	0	
0.260667	-0.00548294	-0.0326637	0.000202531	0.00100755	0	0	0	
0.260833	-0.00828309	0.00125914	0.000214098	0.000867419	0	0	0	
0.261	0.00403262	0.0514013	0.000205646	0.000803542	0	0	0	
0.261167	0.00643109	-0.00146122	0.000192962	0.000739046	0	0	0	
0.261333	-0.0072348	-0.040939	0.000146787	0.000974326	0	0	0	
0.2615	0.000946214	-0.0290502	0.000153555	0.0011104	0	0	0	
0.261667	-0.00218679	0.0686385	9.92692E-05	0.00100794	0	0	0	
0.261833	0.0010308	-0.00499559	7.64756E-05	0.00118155	0	0	0	
0.262	0.00205103	-0.0340195	7.74343E-05	0.00116301	0	0	0	
0.262167	-0.00957722	0.0020026	0.000114817	0.000987044	0	0	0	
0.262333	0.00858923	0.018574	0.000163395	0.000587818	0	0	0	
0.2625	-0.00136915	-0.0244521	0.00016526	0.000358219	0	0	0	
0.262667	-0.00430953	0.0357829	0.000140935	0.000417682	0	0	0	
0.262833	0.00302128	-0.0110027	0.000107869	0.000606106	0	0	0	
0.263	-0.00252792	-0.0267627	7.88665E-05	0.000796078	0	0	0	
0.263167	0.00273115	0.00298148	6.19013E-05	0.000712048	0	0	0	
0.263333	-0.00196514	0.0449263	5.23704E-05	0.000644762	0	0	0	
0.2635	-3.11759E-06	-0.0356707	6.11612E-05	0.000591366	0	0	0	
0.263667	0.00155996	-0.00672847	8.94815E-05	0.000882113	0	0	0	
0.263833	-0.00442438	0.0168304	9.22607E-05	0.000843937	0	0	0	
0.264	0.00426447	0.00610566	9.81558E-05	0.000675397	0	0	0	
0.264167	0.00027954	-0.0324794	9.02066E-05	0.000432149	0	0	0	
0.264333	-0.00138172	0.0297635	8.28027E-05	0.000454185	0	0	0	
0.2645	-0.00124737	0.000452665	6.59264E-05	0.000644604	0	0	0	
0.264667	0.0009433	-0.0141045	5.3645E-05	0.000684073	0	0	0	
0.264833	-0.00131161	-0.00979554	6.05855E-05	0.000559304	0	0	0	
0.265	0.00515096	0.0385232	6.83785E-05	0.000435921	0	0	0	
0.265167	-0.00702366	-0.0306598	8.42403E-05	0.000500354	0	0	0	
0.265333	0.00377886	-0.0117162	0.000105294	0.000801907	0	0	0	
0.2655	0.00105226	0.02449	0.000113253	0.000820536	0	0	0	
0.265667	-0.000325884	0.0173492	9.51579E-05	0.00078404	0	0	0	
0.265833	0.00367607	-0.042385	7.09595E-05	0.000572979	0	0	0	
0.266	-0.00511591	0.0100429	5.91479E-05	0.000675674	0	0	0	
0.266167	-0.000978799	0.0124661	9.64802E-05	0.000706574	0	0	0	
0.266333	0.00672312	0.0100683	0.000150296	0.000584356	0	0	0	
0.2665	-0.00383087	-0.0263932	0.00016264	0.000405967	0	0	0	
0.266667	-0.000702605	0.0169103	0.00011754	0.000339862	0	0	0	
0.266833	-0.0107893	-0.00484138	0.000144953	0.000480707	0	0	0	
0.267	0.0473509	-0.0482212	0.000282326	0.00069335	0	0	0	
0.267167	-0.144867	-0.0169426	0.000905722	0.00108522	0	0	0	
0.267333	0.0469909	-0.0198672	0.00134686	0.00117719	0	0	0	
0.2675	-0.0177093	0.00389466	0.00146483	0.00123923	0	0	0	
0.267667	-0.00128968	0.00158048	0.000927353	0.000811056	0	0	0	
0.267833	-0.00584708	-0.00166015	0.000439956	0.00057353	0	0	0	
0.268	0.034932	0.0133516	0.000228646	0.000401494	0	0	0	
0.268167	-0.0167499	-0.0286722	0.000281372	0.000366315	0	0	0	
0.268333	0.00330597	0.00284966	0.000377308	0.000636603	0	0	0	
0.2685	0.0050596	0.0235657	0.000392116	0.000726905	0	0	0	
0.268667	-0.00350591	-0.0130045	0.000272379	0.000739481	0	0	0	
0.268833	-0.000777048	-0.00760537	0.000136137	0.000513387	0	0	0	
0.269	0.000972515	0.0189131	4.81769E-05	0.000292879	0	0	0	
0.269167	0.00106779	-0.0155918	3.53554E-05	0.000294479	0	0	0	
0.269333	-0.00209159	0.015471	4.01704E-05	0.000331865	0	0	0	
0.2695	0.000306369	-0.0206345	6.06557E-05	0.000389916	0	0	0	
0.269667	0.001764	0.0177679	7.21695E-05	0.000428925	0	0	0	
0.269833	-0.0013781	-0.00761714	7.05709E-05	0.000368824	0	0	0	
0.27	0.000979899	0.000762928	4.93204E-05	0.000271522	0	0	0	
0.270167	-0.00164772	-0.0111729	3.58773E-05	0.000186419	0	0	0	
0.270333	0.00238837	0.0365169	5.84058E-05	0.000242359	0	0	0	
0.2705	0.000242912	-0.0235013	8.3396E-05	0.000401659	0	0	0	
0.270667	-5.03846E-05	-0.00653216	8.09307E-05	0.000585698	0	0	0	
0.270833	-7.47349E-05	0.0163232	5.47719E-05	0.000586545	0	0	0	
0.271	0.000945248	-0.000582893	2.67406E-05	0.000444024	0	0	0	
0.271167	-0.00237084	-0.0136506	2.53134E-05	0.000263185	0	0	0	
0.271333	0.00337088	0.0202985	4.27336E-05	0.000243497	0	0	0	
0.2715	0.001203	-0.017934	4.77916E-05	0.000327921	0	0	0	
0.271667	-0.0022774	0.00854996	6.54585E-05	0.000458154	0	0	0	
0.271833	0.00133534	0.00179166	5.97577E-05	0.000553044	0	0	0	
0.272	0.000267724	-0.00419234	5.99763E-05	0.000488539	0	0	0	
0.272167	-0.00137093	-0.00654737	4.39978E-05	0.000318174	0	0	0	
0.272333	0.0017224	0.00903655	4.20962E-05	0.000163197	0	0	0	
0.2725	-0.00352741	-0.001487	4.56102E-05	0.000178863	0	0	0	
0.272667	0.00589455	0.000553417	5.72843E-05	0.00023903	0	0	0	
0.272833	-0.00426311	-0.00642883	8.23521E-05	0.000233508	0	0	0	
0.273	9.84496E-05	0.00985504	9.99077E-05	0.000195566	0	0	0	
0.273167	0.00235992	-0.00785824	9.52323E-05	0.000158485	0	0	0	
0.273333	-0.00356273	-0.00275428	7.28097E-05	0.000191049	0	0	0	
0.2735	0.000207507	0.00614453	5.8475E-05	0.000210387	0	0	0	
0.273667	0.00174325	0.00768079	6.20641E-05	0.000190791	0	0	0	
0.273833	-0.0027712	-0.0222265	7.05567E-05	0.000211674	0	0	0	
0.274	0.00421433	0.0194262	7.72489E-05	0.000278916	0	0	0	
0.274167	-0.00266345	0.00132977	7.48925E-05	0.000385824	0	0	0	
0.274333	0.00168464	-0.00745273	6.31992E-05	0.000344517	0	0	0	
0.2745	-0.00420802	-0.0148405	5.94051E-05	0.000324408	0	0	0	
0.274667	0.000638886	0.0337621	5.6211E-05	0.000378441	0	0	0	
0.274833	-0.000882192	-0.0305081	5.70864E-05	0.000530489	0	0	0	
0.275	0.00612167	0.00330165	6.28002E-05	0.000660299	0	0	0	
0.275167	-0.00246295	0.00931653	7.06427E-05	0.000620971	0	0	0	
0.275333	-0.000586591	0.00182343	6.01899E-05	0.000442042	0	0	0	
0.2755	-0.00119709	-0.0142656	4.47175E-05	0.000240204	0	0	0	
0.275667	0.00173687	0.00951963	3.60578E-05	0.000193308	0	0	0	
0.275833	-0.00195977	0.00168843	5.07357E-05	0.000323788	0	0	0	
0.276	0.0015101	0.00499693	5.48062E-05	0.000337171	0	0	0	
0.276167	0.000204948	-0.0154108	4.04815E-05	0.000330213	0	0	0	
0.276333	-0.00161037	0.00730908	2.95791E-05	0.000242375	0	0	0	
0.2765	0.00323986	-0.0112715	4.65E-05	0.000247508	0	0	0	
0.276667	-0.00547474	0.0437948	7.15232E-05	0.000337199	0	0	0	
0.276833	0.0030495	-0.037771	8.9071E-05	0.000529209	0	0	0	
0.277	0.00264582	-0.0259975	8.04082E-05	0.000934765	0	0	0	
0.277167	-0.00152559	0.0744699	9.22737E-05	0.00100547	0	0	0	
0.277333	-0.0021044	-0.0369777	0.000124548	0.00131703	0	0	0	
0.2775	0.00180496	-0.0390057	0.00012711	0.00135355	0	0	0	
0.277667	-0.00169643	0.039655	0.000100414	0.00129467	0	0	0	
0.277833	0.00397702	-0.00420698	6.51325E-05	0.00117407	0	0	0	
0.278	-0.000420183	-0.0316233	6.10655E-05	0.00100729	0	0	0	
0.278167	-0.0112663	0.0291699	0.000100229	0.000972139	0	0	0	
0.278333	0.0137757	-0.0126389	0.000158806	0.000719389	0	0	0	
0.2785	-0.00445917	0.00610235	0.000195978	0.000427052	0	0	0	
0.278667	0.000291775	0.0231029	0.000187309	0.000425632	0	0	0	
0.278833	0.000751592	-0.117959	0.000151864	0.000816511	0	0	0	
0.279	-0.000904963	0.079686	0.00014752	0.00134989	0	0	0	
0.279167	0.00407984	0.0208866	0.000120767	0.00171362	0	0	0	
0.279333	-0.00116438	-0.069331	0.000106603	0.00136685	0	0	0	
0.2795	-0.00294418	0.0159088	8.98396E-05	0.00137531	0	0	0	
0.279667	0.00211992	0.0206305	8.09755E-05	0.00113639	0	0	0	
0.279833	-0.000350078	0.052899	5.95687E-05	0.00111812	0	0	0	
0.28	-0.00189635	-0.11338	3.48556E-05	0.00123253	0	0	0	
0.280167	0.00638195	-0.0296046	6.04509E-05	0.00191569	0	0	0	
0.280333	-0.00344569	0.0898885	8.04274E-05	0.00222708	0	0	0	
0.2805	-0.000462052	-0.0116161	8.14368E-05	0.00207341	0	0	0	
0.280667	0.00195027	-0.0427214	6.63392E-05	0.00174944	0	0	0	
0.280833	-0.00256323	0.0162512	4.67055E-05	0.00136537	0	0	0	
0.281	-0.0022258	0.0244292	6.82782E-05	0.000962324	0	0	0	
0.281167	0.00300205	-0.013699	0.000107611	0.000466406	0	0	0	
0.281333	-0.00208699	-0.00450355	0.000133475	0.000354147	0	0	0	
0.2815	0.00368043	-0.0360797	0.000114176	0.000438456	0	0	0	
0.281667	-0.00015594	0.0490799	6.90095E-05	0.000560995	0	0	0	
0.281833	-0.00180401	0.00358528	3.58473E-05	0.000796546	0	0	0	
0.282	0.0019602	-0.0316484	3.3748E-05	0.000659158	0	0	0	
0.282167	-0.00227777	0.0235945	3.41917E-05	0.0008503	0	0	0	
0.282333	-0.00079435	0.0291396	5.14803E-05	0.000992339	0	0	0	
0.2825	0.00461254	-0.0179348	6.7585E-05	0.00104244	0	0	0	
0.282667	0.00104845	-0.0242202	8.68843E-05	0.000837383	0	0	0	
0.282833	-0.000111389	0.00921554	7.53509E-05	0.000517634	0	0	0	
0.283	-0.00188493	-0.000163593	5.89007E-05	0.000405488	0	0	0	
0.283167	0.00431932	0.0605062	4.52779E-05	0.000447222	0	0	0	
0.283333	-0.00130323	-0.0477651	5.40616E-05	0.000740423	0	0	0	
0.2835	-0.00229762	-0.00706098	5.60621E-05	0.00103117	0	0	0	
0.283667	0.00189394	0.0628599	6.87544E-05	0.00109678	0	0	0	
0.283833	0.00233582	-0.0521654	7.91105E-05	0.0010963	0	0	0	
0.284	-5.8634E-05	-0.000823557	7.1431E-05	0.00113998	0	0	0	
0.284167	-0.00200455	0.00554882	4.40327E-05	0.000889991	0	0	0	
0.284333	0.00418911	0.0102166	4.90473E-05	0.000552674	0	0	0	
0.2845	-0.00244854	0.00613258	8.52401E-05	0.000312756	0	0	0	
0.284667	0.000366869	-0.0081393	9.68848E-05	0.000209828	0	0	0	
0.284833	-0.000300354	-0.0294811	6.9855E-05	0.000436113	0	0	0	
0.285	-0.00090549	0.035499	3.79073E-05	0.000555575	0	0	0	
0.285167	0.000658891	-0.00505796	2.47093E-05	0.000708295	0	0	0	
0.285333	0.00325961	-0.0350839	2.84978E-05	0.000638679	0	0	0	
0.2855	-0.00391006	0.00952394	4.87834E-05	0.00051155	0	0	0	
0.285667	0.00194454	0.018225	6.07573E-05	0.000487779	0	0	0	
0.285833	-0.00108584	-0.0149408	5.94054E-05	0.000380593	0	0	0	
0.286	0.000527232	0.00273478	3.73963E-05	0.000318028	0	0	0	
0.286167	0.000707517	-0.00644945	2.31616E-05	0.000211488	0	0	0	
0.286333	-0.000135734	0.00318419	2.69005E-05	0.000170287	0	0	0	
0.2865	-0.00242236	0.00272619	5.05573E-05	0.000227899	0	0	0	
0.286667	0.00425739	0.00305162	7.49121E-05	0.000226185	0	0	0	
0.286833	-0.00263679	-0.0181861	8.2438E-05	0.000262045	0	0	0	
0.287	-0.00196797	0.0281189	8.35624E-05	0.000280868	0	0	0	
0.287167	0.00300623	-0.0116419	7.71489E-05	0.000373324	0	0	0	
0.287333	-0.00280262	0.00292883	7.35974E-05	0.000347701	0	0	0	
0.2875	0.00105157	0.000857817	5.5426E-05	0.000254928	0	0	0	
0.287667	0.00214208	0.00113964	5.36891E-05	0.000202149	0	0	0	
0.287833	-0.00449943	-0.00187306	5.95902E-05	0.00020523	0	0	0	
0.288	0.00447392	0.00699992	6.93796E-05	0.000207199	0	0	0	
0.288167	-0.00118174	-0.00701758	7.01391E-05	0.000185755	0	0	0	
0.288333	-0.000500125	0.00735549	5.42465E-05	0.000147904	0	0	0	
0.2885	0.000391667	-0.00994506	3.54837E-05	0.000153307	0	0	0	
0.288667	-1.37959E-05	0.0170047	2.04097E-05	0.000219845	0	0	0	
0.288833	-0.00193311	-0.0131115	2.11993E-05	0.000373742	0	0	0	
0.289	0.000112485	0.00366357	3.91345E-05	0.000486872	0	0	0	
0.289167	-0.00195352	-0.00701247	4.31418E-05	0.000447251	0	0	0	
0.289333	0.000600037	0.00752721	4.74584E-05	0.000304651	0	0	0	
0.2895	0.000391341	-0.00432706	3.49517E-05	0.00018911	0	0	0	
0.289667	-9.04741E-05	1.25977E-05	3.05124E-05	0.000144549	0	0	0	
0.289833	0.000417992	-0.00849447	2.93378E-05	0.000123692	0	0	0	
0.29	-0.00523746	0.0283864	4.31409E-05	0.00022001	0	0	0	
0.290167	0.00307035	-0.0238642	7.09699E-05	0.000364991	0	0	0	
0.290333	-0.001097	0.00895512	7.5009E-05	0.000461864	0	0	0	
0.2905	-0.000344488	-0.00462422	6.70922E-05	0.000363814	0	0	0	
0.290667	0.000635946	0.00572031	3.76613E-05	0.000218909	0	0	0	
0.290833	0.00264791	-0.0134518	3.8207E-05	0.000201034	0	0	0	
0.291	-0.000988988	0.01899	5.05536E-05	0.000320071	0	0	0	
0.291167	0.000886181	-0.0146993	7.53069E-05	0.000409934	0	0	0	
0.291333	-0.00040427	0.00897885	7.25035E-05	0.000389346	0	0	0	
0.2915	0.000421491	-0.00336689	4.66122E-05	0.000274904	0	0	0	
0.291667	0.0013704	0.0067504	2.38021E-05	0.000179838	0	0	0	
0.291833	0.00136478	-0.0201869	2.40772E-05	0.000164729	0	0	0	
0.292	-0.000895766	0.0139398	4.60643E-05	0.00024726	0	0	0	
0.292167	0.00175035	-0.00860807	5.17247E-05	0.000357755	0	0	0	
0.292333	-0.00141622	0.00720978	4.50773E-05	0.000349281	0	0	0	
0.2925	0.00140975	-0.0110099	3.13632E-05	0.000309382	0	0	0	
0.292667	-0.000941667	0.0097404	2.8946E-05	0.000226698	0	0	0	
0.292833	0.00117335	-0.00467047	2.83955E-05	0.000210316	0	0	0	
0.293	0.000321828	0.00552659	3.15119E-05	0.000153717	0	0	0	
0.293167	-0.00143993	-0.0193234	4.8881E-05	0.0001704	0	0	0	
0.293333	0.00410708	0.00895727	6.40122E-05	0.000253824	0	0	0	
0.2935	-0.00324152	0.0103013	6.648E-05	0.000363216	0	0	0	
0.293667	0.000476492	-0.0102798	5.89526E-05	0.00035357	0	0	0	
0.293833	0.00111724	-0.00311178	4.37234E-05	0.00029311	0	0	0	
0.294	0.00124668	0.016002	3.92584E-05	0.000212783	0	0	0	
0.294167	-0.00195664	-0.0281976	3.92628E-05	0.000283572	0	0	0	
0.294333	0.00201204	0.0259527	5.07982E-05	0.000383158	0	0	0	
0.2945	0.000544116	-0.0129899	7.22267E-05	0.000557618	0	0	0	
0.294667	-0.00243277	-0.000177025	7.69686E-05	0.000599107	0	0	0	
0.294833	0.00187409	0.00250614	7.08718E-05	0.000490261	0	0	0	
0.295	-0.000981203	0.000289981	4.20516E-05	0.000255872	0	0	0	
0.295167	0.00114913	-0.00121353	4.18197E-05	7.98349E-05	0	0	0	
0.295333	0.00287673	0.00738331	7.93846E-05	5.83663E-05	0	0	0	
0.2955	-0.00817884	-0.0156001	0.00012819	0.000156702	0	0	0	
0.295667	0.0109503	0.0126741	0.000161009	0.000301199	0	0	0	
0.295833	-0.00602763	-0.0258603	0.00016905	0.000417161	0	0	0	
0.296	0.00266812	0.0240956	0.000141534	0.000472072	0	0	0	
0.296167	2.65119E-05	0.0343646	9.64533E-05	0.00071046	0	0	0	
0.296333	-0.00294041	-0.0746513	8.13405E-05	0.000980213	0	0	0	
0.2965	0.00433012	0.0444663	9.69051E-05	0.00116334	0	0	0	
0.296667	-0.00375265	-0.0191039	0.000109687	0.00108048	0	0	0	
0.296833	0.00221347	0.00405635	0.000102685	0.000793103	0	0	0	
0.297	-0.00128174	0.0215973	8.73628E-05	0.00056379	0	0	0	
0.297167	-0.001049	-0.0373456	9.16195E-05	0.000432022	0	0	0	
0.297333	0.00519987	0.00890686	6.67745E-05	0.00067749	0	0	0	
0.2975	-0.0040508	0.016373	9.00995E-05	0.00115943	0	0	0	
0.297667	-0.0046114	-0.024869	0.000116729	0.00135382	0	0	0	
0.297833	0.00511857	0.0100763	0.000135115	0.001158	0	0	0	
0.298	0.000981225	-0.00296677	0.000109775	0.000625013	0	0	0	
0.298167	-0.00163312	-0.00425047	6.81562E-05	0.000308803	0	0	0	
0.298333	-0.000571636	0.0171309	4.92495E-05	0.000189132	0	0	0	
0.2985	0.000184017	-0.0243615	3.02981E-05	0.000283234	0	0	0	
0.298667	0.000534627	0.0186411	2.90662E-05	0.000409076	0	0	0	
0.298833	0.00717994	-0.0218166	6.50635E-05	0.000489546	0	0	0	
0.299	-0.00491139	0.0268387	0.000147734	0.000523995	0	0	0	
0.299167	0.00386277	-0.0148596	0.000183638	0.000463122	0	0	0	
0.299333	-0.0013106	-0.00615536	0.00014829	0.000441343	0	0	0	
0.2995	-0.000393295	0.0108805	6.51291E-05	0.000306963	0	0	0	
0.299667	-0.0020847	0.0196439	2.69434E-05	0.000297278	0	0	0	
0.299833	0.00345386	-0.0229938	4.98613E-05	0.000314602	0	0	0	
0.3	0.00400906	-0.0033995	6.73613E-05	0.000348699	0	0	0	
0.300167	-0.0034685	0.0136646	8.88298E-05	0.000322957	0	0	0	
0.300333	0.000855936	0.0118458	6.95782E-05	0.000304378	0	0	0	
0.3005	-0.00061132	-0.0263593	4.82564E-05	0.000308137	0	0	0	
0.300667	-0.00121803	0.0244542	2.79086E-05	0.000486888	0	0	0	
0.300833	-4.07577E-05	-0.0111628	4.6076E-05	0.000531074	0	0	0	
0.301	-0.00361852	0.0065622	8.18235E-05	0.000486969	0	0	0	
0.301167	0.00387063	-0.0145638	0.000105437	0.000306916	0	0	0	
0.301333	-0.00163866	0.00987163	8.79673E-05	0.000217274	0	0	0	
0.3015	-0.000817859	-0.0151745	5.47113E-05	0.000243832	0	0	0	
0.301667	0.000661752	0.0272062	3.10446E-05	0.000320413	0	0	0	
0.301833	-0.000515877	-0.00671264	3.51574E-05	0.000324593	0	0	0	
0.302	6.30847E-05	-0.0125936	3.14411E-05	0.000336868	0	0	0	
0.302167	-0.0023029	0.00719814	4.31307E-05	0.000289147	0	0	0	
0.302333	0.00407142	0.0038889	4.40176E-05	0.000447506	0	0	0	
0.3025	0.000117005	-0.0197738	7.00445E-05	0.000513424	0	0	0	
0.302667	-0.00227384	0.0255988	6.04578E-05	0.000529893	0	0	0	
0.302833	0.000241163	-0.0260076	7.11824E-05	0.000492301	0	0	0	
0.303	0.00185921	0.008769	8.8539E-05	0.000628728	0	0	0	
0.303167	-0.00194236	0.0242379	0.000110011	0.000778703	0	0	0	
0.303333	0.00461796	-0.0273822	0.000104771	0.000748739	0	0	0	
0.3035	-0.00413257	0.00794464	8.60095E-05	0.000551207	0	0	0	
0.303667	0.00104015	0.0085505	7.30689E-05	0.000391065	0	0	0	
0.303833	0.00676501	-0.0384031	9.21117E-05	0.000430648	0	0	0	
0.304	-0.00701991	0.0493327	0.000107278	0.000636533	0	0	0	
0.304167	0.00221592	-0.0387197	0.000124877	0.000767177	0	0	0	
0.304333	0.00267595	0.00952938	0.000133857	0.000837517	0	0	0	
0.3045	-0.00317531	0.00231236	0.000119456	0.000759353	0	0	0	
0.304667	0.000907953	-0.00234664	9.44969E-05	0.000557722	0	0	0	
0.304833	0.00223002	-0.00345608	5.84924E-05	0.000301977	0	0	0	
0.305	-0.00188516	0.00285801	4.64429E-05	0.000108207	0	0	0	
0.305167	0.00180072	-0.0121	5.26968E-05	0.000145126	0	0	0	
0.305333	0.000522896	0.0253643	6.32373E-05	0.000240951	0	0	0	
0.3055	-0.002993	-0.0222393	7.11157E-05	0.0003715	0	0	0	
0.305667	0.00219428	0.00626931	6.89761E-05	0.00038275	0	0	0	
0.305833	0.000107076	-0.00278234	4.95554E-05	0.000301225	0	0	0	
0.306	-0.000304304	0.0104608	5.01379E-05	0.00017402	0	0	0	
0.306167	-0.000935725	-0.0203311	6.20255E-05	0.000196821	0	0	0	
0.306333	0.00167365	0.0123989	7.95861E-05	0.000276439	0	0	0	
0.3065	-0.000620477	-0.00339555	6.53762E-05	0.00034357	0	0	0	
0.306667	0.000734224	0.000753491	4.4461E-05	0.000271025	0	0	0	
0.306833	-0.000905062	-0.0031844	2.93166E-05	0.00016529	0	0	0	
0.307	0.00178235	0.00832462	2.98377E-05	0.000105594	0	0	0	
0.307167	-0.000792295	-0.0166508	3.40382E-05	0.000147186	0	0	0	
0.307333	0.00155377	0.0213946	3.1194E-05	0.000251076	0	0	0	
0.3075	-0.00369595	-0.0165101	3.22969E-05	0.000341993	0	0	0	
0.307667	0.00380108	0.00959151	4.58817E-05	0.000368262	0	0	0	
0.307833	-0.00203751	-0.00308101	5.58743E-05	0.000297544	0	0	0	
0.308	-0.000192021	0.00368712	5.5641E-05	0.000187612	0	0	0	
0.308167	0.00423991	-0.00429369	4.62059E-05	0.000102546	0	0	0	
0.308333	-0.00276476	0.00962581	5.29494E-05	0.000134029	0	0	0	
0.3085	-0.00286407	-0.007989	6.13605E-05	0.000194819	0	0	0	
0.308667	0.00426434	0.0107138	7.9126E-05	0.000253209	0	0	0	
0.308833	-0.00239352	-0.00575397	7.78661E-05	0.000229885	0	0	0	
0.309	0.000757007	0.00433903	6.6004E-05	0.000178771	0	0	0	
0.309167	0.000529568	-0.00912278	3.83671E-05	0.000137726	0	0	0	
0.309333	-0.000156167	0.00702788	2.67448E-05	0.000135535	0	0	0	
0.3095	0.000295543	0.00704163	2.89359E-05	0.000154179	0	0	0	
0.309667	0.00107722	-0.00811151	2.50298E-05	0.000281816	0	0	0	
0.309833	-0.00299431	-0.0178507	2.67202E-05	0.000611054	0	0	0	
0.31	0.00163409	0.0298147	3.24742E-05	0.000803957	0	0	0	
0.310167	0.00126616	-0.00815602	5.06286E-05	0.000753189	0	0	0	
0.310333	-0.00284599	0.00397773	5.31078E-05	0.00041888	0	0	0	
0.3105	0.00231166	-0.0175715	5.5537E-05	0.000466675	0	0	0	
0.310667	-0.00207303	0.0326386	7.49155E-05	0.000608896	0	0	0	
0.310833	0.0014961	-0.00622023	0.000100062	0.000661833	0	0	0	
0.311	-0.000105011	-0.0023661	0.00011023	0.000428383	0	0	0	
0.311167	-0.000615984	-0.0133282	8.11681E-05	0.000232817	0	0	0	
0.311333	0.000773979	0.00962207	4.22472E-05	0.000196304	0	0	0	
0.3115	-0.00127035	0.0278136	2.21483E-05	0.000322162	0	0	0	
0.311667	-0.00107066	-0.0375039	2.48038E-05	0.000446684	0	0	0	
0.311833	0.00479241	0.0149531	5.19544E-05	0.000619459	0	0	0	
0.312	-0.00592061	0.00988071	8.65249E-05	0.000652751	0	0	0	
0.312167	0.0041659	-0.00726433	0.000101933	0.000540691	0	0	0	
0.312333	-0.00108484	0.00480718	9.30558E-05	0.000345833	0	0	0	
0.3125	-0.0034294	-0.0201172	7.76849E-05	0.000212053	0	0	0	
0.312667	0.00292896	0.0270728	8.43264E-05	0.000277757	0	0	0	
0.312833	-0.00400562	-0.0184704	8.90215E-05	0.000442942	0	0	0	
0.313	0.00512521	-0.000664196	9.92726E-05	0.000564492	0	0	0	
0.313167	-0.00367823	0.00439875	9.77443E-05	0.00049536	0	0	0	
0.313333	1.10768E-05	0.00782714	8.54838E-05	0.00034331	0	0	0	
0.3135	0.000691261	-0.0195712	5.35587E-05	0.000221399	0	0	0	
0.313667	0.00187554	0.0146242	4.44718E-05	0.000295726	0	0	0	
0.313833	-0.0029692	0.00588569	5.64908E-05	0.000468736	0	0	0	
0.314	-0.00313555	-0.0130615	6.79637E-05	0.000491548	0	0	0	
0.314167	0.00621175	-0.00727489	7.49893E-05	0.000466519	0	0	0	
0.314333	-0.00254157	0.014052	7.60333E-05	0.000326528	0	0	0	
0.3145	0.00068291	0.0102183	7.25017E-05	0.00033973	0	0	0	
0.314667	-0.00428862	-0.015289	5.62898E-05	0.000291492	0	0	0	
0.314833	0.000481252	-0.0391528	4.51228E-05	0.000584875	0	0	0	
0.315	0.00632049	0.0732616	6.92166E-05	0.000805467	0	0	0	
0.315167	-0.00989571	-0.0343693	0.000106983	0.00117497	0	0	0	
0.315333	0.00242856	-0.0244809	0.000174324	0.00122456	0	0	0	
0.3155	0.00359795	0.0272851	0.000189907	0.00102718	0	0	0	
0.315667	-0.000856213	0.0127435	0.000152806	0.000838817	0	0	0	
0.315833	-0.00288413	-0.0862729	8.55719E-05	0.000659468	0	0	0	
0.316	0.00107119	0.0785565	5.87275E-05	0.00108699	0	0	0	
0.316167	-0.00271561	0.0115134	5.83536E-05	0.00162887	0	0	0	
0.316333	0.00988293	-0.0959042	8.62109E-05	0.00202034	0	0	0	
0.3165	-0.00867669	0.0540731	0.000116128	0.00188487	0	0	0	
0.316667	0.00580571	-0.00292549	0.000146374	0.00140071	0	0	0	
0.316833	0.004193	-0.047566	0.000204375	0.00109836	0	0	0	
0.317	-0.0394531	0.120678	0.000272686	0.00136002	0	0	0	
0.317167	0.134505	-0.0373883	0.000822774	0.00173613	0	0	0	
0.317333	-0.0361944	0.0631935	0.00115571	0.00200503	0	0	0	
0.3175	0.011927	-0.0680552	0.00130554	0.00191032	0	0	0	
0.317667	0.00494728	0.0556379	0.000818881	0.00169198	0	0	0	
0.317833	-0.000481458	-0.0273456	0.000415369	0.00149787	0	0	0	
0.318	-0.0297291	0.0147422	0.000224595	0.00133965	0	0	0	
0.318167	0.00802005	-0.0120592	0.000258862	0.00106548	0	0	0	
0.318333	0.00283551	0.00241245	0.000403764	0.000808748	0	0	0	
0.3185	-0.00784345	0.0237519	0.000459058	0.000563112	0	0	0	
0.318667	0.00566917	-0.00532285	0.000377119	0.000493965	0	0	0	
0.318833	-0.00294413	-0.0407551	0.000229694	0.000640525	0	0	0	
0.319	0.00170133	0.0460868	0.00012624	0.000696204	0	0	0	
0.319167	-0.00522875	-0.0150061	0.000121007	0.000880485	0	0	0	
0.319333	0.00924729	-0.0137404	0.000138542	0.000865876	0	0	0	
0.3195	-0.00619115	0.0171795	0.000153892	0.000702939	0	0	0	
0.319667	-0.00124212	0.0145417	0.000118297	0.000622591	0	0	0	
0.319833	-0.00182509	-0.0524275	8.89703E-05	0.000619102	0	0	0	
0.32	0.00540497	0.043666	7.48283E-05	0.000821264	0	0	0	
0.320167	-0.00685661	0.00408171	9.37064E-05	0.000966367	0	0	0	
0.320333	0.00495235	-0.0214038	0.000136282	0.00082721	0	0	0	
0.3205	0.00116669	-0.016753	0.000138895	0.000795551	0	0	0	
0.320667	-0.00714902	0.0540578	0.00013559	0.000703336	0	0	0	
0.320833	0.00504075	-0.0323959	0.000120568	0.000842094	0	0	0	
