0	0.00382716	0.000620472	3.82716E-07	6.20472E-08	0	5	0	
0.000166667	0.00588697	0.00228146	0.000107792	1.29871E-05	0	5	0	
0.000333333	-0.0165607	-0.00690333	0.000222644	4.26833E-05	0	5	0	
0.0005	0.0119935	0.0020982	0.000314501	7.11596E-05	0	5	0	
0.000666667	0.010942	0.00312946	0.000403155	8.28999E-05	0	5	0	
0.000833333	-0.025575	-0.00517479	0.000433666	8.26138E-05	0	5	0	
0.001	0.0194893	0.0100235	0.00047922	0.000111537	0	5	0	
0.00116667	-0.00901529	-0.0176216	0.000453679	0.000187295	0	5	0	
0.00133333	-0.000185693	0.00986549	0.000463774	0.000237201	0	5	0	
0.0015	0.012798	-0.00358083	0.000453201	0.000267624	0	5	0	
0.00166667	-0.0186615	-0.00287346	0.000380701	0.000255889	0	5	0	
0.00183333	0.00592041	0.00933472	0.000317537	0.000213496	0	5	0	
0.002	0.00886108	-0.0059834	0.000316509	0.000174403	0	5	0	
0.00216667	-0.0160246	-0.00321225	0.000292332	0.000167387	0	5	0	
0.00233333	0.00897473	0.00250828	0.000284475	0.000213933	0	5	0	
0.0025	-0.00142467	-0.00802714	0.000238976	0.000188187	0	5	0	
0.00266667	0.00147087	0.00689344	0.000198897	0.000170715	0	5	0	
0.00283333	-0.00927015	0.00130959	0.000155127	0.000117863	0	5	0	
0.003	0.00815936	0.000463438	0.000143407	0.000133114	0	5	0	
0.00316667	-0.00466218	-0.0046562	0.000239196	9.91123E-05	0	5	0	
0.00333333	-0.00470046	0.0107854	0.000348392	0.000120713	0	5	0	
0.0035	0.00986327	-0.0153143	0.000380084	0.000156536	0	5	0	
0.00366667	-0.00401155	-0.00471607	0.000282999	0.000245131	0	5	0	
0.00383333	-0.0111978	0.0176382	0.000216036	0.000383788	0	5	0	
0.004	0.026661	-0.00464839	0.000223678	0.000413271	0	5	0	
0.00416667	-0.0190541	-0.00156988	0.000401439	0.000311672	0	5	0	
0.00433333	-0.0309934	-0.0327492	0.000792811	0.000349422	0	5	0	
0.0045	0.0420796	0.00370992	0.00116385	0.000951891	0	5	0	
0.00466667	-0.0531592	0.0254468	0.00123399	0.00151836	0	5	0	
0.00483333	-0.00147425	-0.0447237	0.0012004	0.00157844	0	5	0	
0.005	0.0265619	-0.0145611	0.00127671	0.00152673	0	5	0	
0.00516667	-0.0356081	0.0649221	0.00137895	0.00164516	0	5	0	
0.00533333	0.0517592	-0.0513432	0.0011626	0.0018828	0	5	0	
0.0055	-0.0742023	-0.082939	0.00115129	0.00166374	0	5	0	
0.00566667	0.00498086	0.0815368	0.0013127	0.0017667	0	5	0	
0.00583333	0.0395577	0.0119407	0.00178391	0.00169856	0	5	0	
0.006	-0.0963386	-0.103666	0.00174584	0.00158453	0	5	0	
0.00616667	0.0472679	0.116236	0.00159175	0.00162179	0	5	0	
0.00633333	0.0126932	-0.0464915	0.0011454	0.00180476	0	5	0	
0.0065	0.000179287	-0.0232951	0.000799591	0.00192206	0	5	0	
0.00666667	-0.072916	0.0258813	0.000585423	0.00133936	0	5	0	
0.00683333	0.135856	-0.0684099	0.00128637	0.000992104	0	5	0	
0.007	-0.0224409	0.0611972	0.00173646	0.00104321	0	5	0	
0.00716667	-0.0504806	-0.00747013	0.00176375	0.000982818	0	5	0	
0.00733333	0.026533	0.000923637	0.00107906	0.00077336	0	5	0	
0.0075	-0.0297721	-0.00113886	0.000623708	0.000410625	0	5	0	
0.00766667	0.0079123	0.000930718	0.000682738	0.000369417	0	5	0	
0.00783333	0.0801651	0.0202644	0.00110232	0.000405046	0	5	0	
0.008	0.0137123	-0.024506	0.0019072	0.000417443	0	5	0	
0.00816667	-0.00519225	0.0028534	0.00209242	0.000345713	0	5	0	
0.00833333	-0.0287612	0.00871164	0.00151416	0.000327525	0	5	0	
0.0085	0.0119571	-0.00699991	0.000706688	0.000274297	0	5	0	
0.00866667	-0.00168534	0.0253263	0.000285696	0.000285998	0	5	0	
0.00883333	0.013549	-0.0148452	0.00025842	0.000333199	0	5	0	
0.009	-0.00838172	0.0124053	0.000205616	0.000361298	0	5	0	
0.00916667	-0.00997477	-0.0141892	0.000301493	0.000448667	0	5	0	
0.00933333	0.0221976	-0.000277588	0.000375624	0.000473044	0	5	0	
0.0095	-0.035707	0.0158606	0.000470952	0.000465548	0	5	0	
0.00966667	0.0356863	0.000695268	0.000560375	0.000328899	0	5	0	
0.00983333	-0.00748916	-0.00864904	0.000664254	0.000239338	0	5	0	
0.01	-0.0157545	-0.00156121	0.000707217	0.000172916	0	5	0	
0.0101667	0.00890456	0.0131132	0.000575132	0.000243892	0	5	0	
0.0103333	-0.00335268	0.000732977	0.000353172	0.000270506	0	5	0	
0.0105	0.014247	-0.00201541	0.000193952	0.000277556	0	5	0	
0.0106667	-0.0155454	0.00534371	0.000211662	0.000188605	0	5	0	
0.0108333	-0.0154155	0.00241743	0.000401737	0.000144943	0	5	0	
0.011	0.0346723	0.00909422	0.00051453	0.000142089	0	5	0	
0.0111667	-0.0184989	-0.00583914	0.000576315	0.00019616	0	5	0	
0.0113333	-0.00206111	0.000310887	0.000549932	0.000178733	0	5	0	
0.0115	0.00659305	0.00380097	0.000466659	0.000185234	0	5	0	
0.0116667	-0.00076299	-0.00338517	0.000321885	0.000189503	0	5	0	
0.0118333	-0.00806526	0.00739214	0.000156022	0.000228259	0	5	0	
0.012	0.0107348	0.0100398	0.00010958	0.000234571	0	5	0	
0.0121667	-0.00837048	-0.0108706	0.00014771	0.00020382	0	5	0	
0.0123333	0.00569899	-0.00992932	0.000210719	0.000239439	0	5	0	
0.0125	-0.00470457	0.0184455	0.000234861	0.000333242	0	5	0	
0.0126667	0.00366839	-0.0203536	0.000240537	0.00041595	0	5	0	
0.0128333	-0.00258634	0.0111953	0.000208084	0.000411422	0	5	0	
0.013	0.000959476	0.00548005	0.000179784	0.000295823	0	5	0	
0.0131667	-0.00340032	-0.00404677	0.000144566	0.000219879	0	5	0	
0.0133333	0.00850087	0.00971884	0.000126455	0.000140133	0	5	0	
0.0135	-0.0128758	-0.0166264	0.00013163	0.000193528	0	5	0	
0.0136667	0.0147529	0.0168332	0.000198709	0.000243424	0	5	0	
0.0138333	-0.0162303	-0.0135101	0.000255811	0.00035007	0	5	0	
0.014	0.0114644	0.00787295	0.000310257	0.000375251	0	5	0	
0.0141667	-0.00231078	-0.00489738	0.00036175	0.000309598	0	5	0	
0.0143333	-0.0073492	0.0142904	0.000400844	0.000245866	0	5	0	
0.0145	0.0125664	-0.0086283	0.000378448	0.000226126	0	5	0	
0.0146667	-0.00645258	0.00578038	0.000293132	0.000241897	0	5	0	
0.0148333	-0.00333098	-0.0116275	0.000279471	0.00021909	0	5	0	
0.015	0.0142114	0.00997457	0.000259633	0.000188467	0	5	0	
0.0151667	-0.0143013	-0.00196621	0.000300167	0.000177605	0	5	0	
0.0153333	0.00776217	0.00233117	0.000268943	0.000172301	0	5	0	
0.0155	-0.00570403	0.0106208	0.000271461	0.00019849	0	5	0	
0.0156667	0.00846493	-0.00384276	0.000269797	0.000213301	0	5	0	
0.0158333	0.00492899	0.0171135	0.000284139	0.000205154	0	5	0	
0.016	-0.00354514	-0.025833	0.000309016	0.000263014	0	5	0	
0.0161667	-0.000486705	0.0275555	0.000244729	0.00032708	0	5	0	
0.0163333	0.00797996	-0.0251277	0.000189339	0.000493224	0	5	0	
0.0165	0.00432387	0.0423334	0.000199202	0.000578918	0	5	0	
0.0166667	0.00255636	-0.0133359	0.000213283	0.000639962	0	5	0	
0.0168333	-0.0108154	0.021116	0.000243803	0.000499231	0	5	0	
0.017	0.0159965	-0.00487671	0.000221564	0.000444013	0	5	0	
0.0171667	0.00303505	-0.00367343	0.000298967	0.000379774	0	5	0	
0.0173333	0.00241066	-0.00514819	0.000252124	0.000448716	0	5	0	
0.0175	-0.00984484	0.0166902	0.000231935	0.000449621	0	5	0	
0.0176667	0.0140539	0.00238864	0.000196939	0.000517519	0	5	0	
0.0178333	-0.00111072	-0.000269278	0.000218152	0.000495659	0	5	0	
0.018	0.00654202	0.00368543	0.000204264	0.00037683	0	5	0	
0.0181667	-0.0067593	-0.00758889	0.000169717	0.000244349	0	5	0	
0.0183333	0.00440649	0.00235813	0.000198033	0.000172293	0	5	0	
0.0185	0.00483489	0.00175963	0.000226478	0.000140966	0	5	0	
0.0186667	-0.00526751	-0.0113866	0.000223322	0.000141382	0	5	0	
0.0188333	0.00326987	0.00605277	0.000157464	0.000135945	0	5	0	
0.019	0.0042808	-0.00512772	0.000109731	0.000178341	0	5	0	
0.0191667	-0.00975883	-0.00275348	0.000106506	0.000164794	0	5	0	
0.0193333	0.0134302	0.000159692	0.000155125	0.000163972	0	5	0	
0.0195	-0.0118998	-0.000136487	0.000203216	0.000111329	0	5	0	
0.0196667	0.0106491	-0.000908253	0.000231305	7.34102E-05	0	5	0	
0.0198333	-0.00969787	-0.00608039	0.000235693	7.1891E-05	0	5	0	
0.02	0.00436376	0.0058702	0.000243756	9.90714E-05	0	5	0	
0.0201667	0.000659482	-0.0050206	0.000246757	0.000144999	0	5	0	
0.0203333	0.00584127	-0.00327177	0.000193865	0.000138815	0	5	0	
0.0205	-0.0130516	0.000329094	0.000161043	0.000119395	0	5	0	
0.0206667	-0.000959788	0.00397809	0.000155794	0.000121008	0	5	0	
0.0208333	0.00469688	-0.0221784	0.000224595	0.000175641	0	5	0	
0.021	0.00220423	0.0160058	0.00018256	0.000263842	0	5	0	
0.0211667	-0.0108743	-0.0113796	0.000176072	0.000293169	0	5	0	
0.0213333	0.0146849	0.00160016	0.000170039	0.000259596	0	5	0	
0.0215	-0.0142231	-0.00187955	0.000234982	0.000156185	0	5	0	
0.0216667	0.0110415	-0.00183901	0.000262176	8.14182E-05	0	5	0	
0.0218333	-0.00323107	-0.00707806	0.000308511	6.76773E-05	0	5	0	
0.022	-0.00451047	0.0125067	0.000309198	0.000140564	0	5	0	
0.0221667	0.000131845	-0.0104725	0.000231336	0.000208073	0	5	0	
0.0223333	0.00551764	-0.00114145	0.000123549	0.000211922	0	5	0	
0.0225	-0.00459251	0.00630889	6.90428E-05	0.000192847	0	5	0	
0.0226667	0.0105103	-0.00243867	0.000100275	0.000127403	0	5	0	
0.0228333	-0.0111751	-0.00482981	0.000155501	0.000126474	0	5	0	
0.023	0.00299016	0.0147186	0.000224695	0.000126991	0	5	0	
0.0231667	0.00272233	-0.00888279	0.000247339	0.000194042	0	5	0	
0.0233333	0.00122271	0.00545324	0.000181027	0.000187992	0	5	0	
0.0235	-0.00924881	0.00158159	0.000115002	0.00016791	0	5	0	
0.0236667	0.0136196	0.00241411	0.000120359	0.000111475	0	5	0	
0.0238333	-0.0166306	-0.00514763	0.000200161	0.000111024	0	5	0	
0.024	0.00699437	0.00491468	0.000282166	0.000105829	0	5	0	
0.0241667	0.00962693	-0.00333804	0.000362759	0.000108467	0	5	0	
0.0243333	-0.0143352	0.00409829	0.000342099	0.000128924	0	5	0	
0.0245	-0.00591128	-0.00608173	0.000383561	0.000139101	0	5	0	
0.0246667	0.0261449	0.00819692	0.000456286	0.000170074	0	5	0	
0.0248333	-0.03139	-0.0032708	0.000569955	0.000166124	0	5	0	
0.025	0.0262373	0.000435938	0.000591264	0.000139446	0	5	0	
0.0251667	-0.0161251	-0.00541243	0.000543827	0.000101507	0	5	0	
0.0253333	-0.00250534	0.00179494	0.000577907	9.95462E-05	0	5	0	
0.0255	0.022963	-0.0103916	0.00060828	0.000165973	0	5	0	
0.0256667	-0.0283667	0.00414154	0.000570391	0.000208999	0	5	0	
0.0258333	0.00545129	-0.0005897	0.000556807	0.000178132	0	5	0	
0.026	0.0221413	-0.00143969	0.000580852	0.000168575	0	5	0	
0.0261667	-0.0238952	0.006705	0.000574429	0.000230846	0	5	0	
0.0263333	0.011792	-0.0019936	0.00049239	0.000305903	0	5	0	
0.0265	-0.0114272	-0.0081721	0.000353973	0.000255693	0	5	0	
0.0266667	0.012944	0.00573819	0.000296747	0.000201646	0	5	0	
0.0268333	-0.00919491	-0.00765898	0.000260506	0.000136411	0	5	0	
0.027	0.000448609	0.0112923	0.000237312	0.00019386	0	5	0	
0.0271667	-0.00221326	-0.0106734	0.000164806	0.000189521	0	5	0	
0.0273333	0.00735969	0.011919	0.000110595	0.000290919	0	5	0	
0.0275	-0.00799636	0.00228245	9.21777E-05	0.000330285	0	5	0	
0.0276667	0.00828416	-0.00513261	0.000136384	0.000362765	0	5	0	
0.0278333	-0.0120145	0.00449044	0.000159964	0.000284445	0	5	0	
0.028	0.00897227	-0.00293895	0.000180885	0.000175972	0	5	0	
0.0281667	-0.00355633	0.00113682	0.00020767	0.000113473	0	5	0	
0.0283333	0.000252002	0.00865394	0.000225023	0.00011943	0	5	0	
0.0285	0.00128912	-0.00946695	0.000202845	0.000164914	0	5	0	
0.0286667	0.00191669	0.00679926	0.000144367	0.000183381	0	5	0	
0.0288333	-0.0078372	-0.000427805	0.000102611	0.00015827	0	5	0	
0.029	0.00849285	-0.00374261	0.000100157	0.000122583	0	5	0	
0.0291667	-0.00874554	0.00657132	0.000142432	8.32544E-05	0	5	0	
0.0293333	0.0108257	-0.00411407	0.000174586	8.36845E-05	0	5	0	
0.0295	-0.00903142	0.000861222	0.000193322	7.60076E-05	0	5	0	
0.0296667	0.0068149	0.00301456	0.000200142	7.53511E-05	0	5	0	
0.0298333	-0.00793408	-0.00218658	0.000203689	7.18205E-05	0	5	0	
0.03	0.00911885	-0.00168442	0.000191986	9.70302E-05	0	5	0	
0.0301667	-0.0107882	0.00187658	0.000193509	0.000116958	0	5	0	
0.0303333	0.00504455	0.00188101	0.000203494	0.000110005	0	5	0	
0.0305	0.0030446	-0.00318762	0.00023107	9.43327E-05	0	5	0	
0.0306667	-0.00749173	0.00455978	0.00022483	0.000115254	0	5	0	
0.0308333	-0.000930809	-0.00078782	0.000170443	0.000135164	0	5	0	
0.031	0.0163564	-0.00371775	0.00019678	0.000124781	0	5	0	
0.0311667	-0.0208552	-0.000935862	0.000236994	0.000103849	0	5	0	
0.0313333	-0.00410095	0.00510753	0.000393257	8.63337E-05	0	5	0	
0.0315	0.0287184	-0.00364147	0.000462523	9.85259E-05	0	5	0	
0.0316667	-0.0228595	0.00335825	0.000513183	0.000111554	0	5	0	
0.0318333	-2.88715E-05	0.00114587	0.000503005	0.000148648	0	5	0	
0.032	0.00989629	-0.013405	0.000460013	0.000188069	0	5	0	
0.0321667	-0.0298126	0.00206791	0.000497326	0.000181671	0	5	0	
0.0323333	0.0955338	0.0571932	0.000688244	0.000364838	0	5	0	
0.0325	-0.0549806	-0.10569	0.00109434	0.00117049	0	5	0	
0.0326667	0.00883241	0.0190875	0.0012894	0.00192255	0	5	0	
0.0328333	0.0379172	0.0154384	0.00127818	0.00202542	0	5	0	
0.033	-0.017051	-0.00362687	0.000877493	0.00126122	0	5	0	
0.0331667	-0.0135861	0.00148923	0.000689385	0.000597929	0	5	0	
0.0333333	0.0151085	-0.00964089	0.00044818	0.000284667	0	5	0	
0.0335	0.0481098	0.0384686	0.000531729	0.000557932	0	5	0	
0.0336667	-0.00308979	-0.108093	0.000590119	0.00134516	0	5	0	
0.0338333	-0.00977437	0.0576608	0.000695206	0.00188261	0	5	0	
0.034	0.0151842	-0.00289394	0.000558167	0.00173095	0	5	0	
0.0341667	-0.0144544	-0.0123421	0.000403015	0.000924635	0	5	0	
0.0343333	0.0209144	0.0135418	0.000301371	0.000447008	0	5	0	
0.0345	-0.0257578	-0.00488462	0.000356542	0.000276902	0	5	0	
0.0346667	0.0120801	0.00747428	0.00038704	0.000223688	0	5	0	
0.0348333	-0.000971999	-0.00451413	0.000378355	0.000189245	0	5	0	
0.035	-0.00352727	0.00223356	0.000305156	0.000137085	0	5	0	
0.0351667	-0.00036086	-0.00757785	0.000183926	0.00012257	0	5	0	
0.0353333	0.00845759	0.0135572	0.000114798	0.000121775	0	5	0	
0.0355	-0.0110264	-0.0107228	0.00011036	0.000210221	0	5	0	
0.0356667	0.00367697	0.00502551	0.000152963	0.000228762	0	5	0	
0.0358333	-0.0168513	-0.0140001	0.000188282	0.000235682	0	5	0	
0.036	0.0324792	0.0286995	0.000256652	0.00025442	0	5	0	
0.0361667	-0.055061	-0.063281	0.000617375	0.000589019	0	5	0	
0.0363333	-0.0225805	0.113578	0.000991789	0.00146971	0	5	0	
0.0365	0.0234031	0.0137692	0.00110294	0.00172812	0	5	0	
0.0366667	-0.00786898	-0.0128448	0.000806811	0.00151653	0	5	0	
0.0368333	-0.00913492	-0.0127182	0.000517266	0.000646031	0	5	0	
0.037	0.022991	0.0095331	0.000388984	0.00038771	0	5	0	
0.0371667	-0.0558771	-0.0480921	0.000492293	0.0003593	0	5	0	
0.0373333	0.0257175	0.0960812	0.000680284	0.00098763	0	5	0	
0.0375	-0.0182146	0.0230184	0.000776934	0.00143709	0	5	0	
0.0376667	-0.0105977	0.00790551	0.00075522	0.00144906	0	5	0	
0.0378333	0.00874735	-0.0170728	0.000487005	0.000914932	0	5	0	
0.038	0.0122866	-0.000357244	0.000372148	0.000443844	0	5	0	
0.0381667	-0.0201661	-0.0128157	0.000282713	0.000344725	0	5	0	
0.0383333	0.013912	0.0240938	0.000326098	0.000289252	0	5	0	
0.0385	-0.00230605	-0.0184514	0.000348941	0.000346536	0	5	0	
0.0386667	0.00433672	0.0056812	0.000279248	0.000351664	0	5	0	
0.0388333	-0.0076331	-0.00389814	0.000199921	0.000290842	0	5	0	
0.039	0.00190959	0.00204933	0.000129619	0.000186783	0	5	0	
0.0391667	0.00183263	0.00312048	0.000108451	0.000125746	0	5	0	
0.0393333	0.0105714	0.000940442	0.000133992	9.64249E-05	0	5	0	
0.0395	-0.0170741	-0.0137305	0.00016928	0.000113225	0	5	0	
0.0396667	0.00036085	0.00479774	0.000275681	0.000143547	0	5	0	
0.0398333	0.0579575	0.067387	0.000564041	0.000489224	0	5	0	
0.04	-0.0280217	0.0135983	0.000888228	0.00141005	0	5	0	
0.0401667	0.0359488	-0.0560208	0.000982481	0.00217807	0	5	0	
0.0403333	0.0127193	-0.0411568	0.000884848	0.00209419	0	5	0	
0.0405	-0.0246938	0.00220434	0.000696114	0.00133561	0	5	0	
0.0406667	0.0279983	0.0245451	0.00061421	0.0006617	0	5	0	
0.0408333	-0.0365204	-0.0209083	0.000588129	0.000480757	0	5	0	
0.041	0.0579241	0.13425	0.00089463	0.00081093	0	5	0	
0.0411667	0.0151203	-0.101069	0.00112466	0.00187043	0	5	0	
0.0413333	-0.0183883	-0.0477185	0.00114526	0.00214943	0	5	0	
0.0415	0.0116561	-0.00150276	0.000716344	0.00188478	0	5	0	
0.0416667	0.0141535	0.0193015	0.000496676	0.000853538	0	5	0	
0.0418333	-0.0173689	0.00459767	0.000359872	0.000536362	0	5	0	
0.042	-0.00668617	0.00768729	0.000452972	0.00037128	0	5	0	
0.0421667	0.0126114	-0.00507035	0.000419788	0.000332973	0	5	0	
0.0423333	-0.00159605	-7.11521E-05	0.000363656	0.000298846	0	5	0	
0.0425	-0.0137816	-0.00159563	0.000268991	0.000194311	0	5	0	
0.0426667	0.0160012	0.0109979	0.000258624	9.83552E-05	0	5	0	
0.0428333	-0.0163968	-0.00890652	0.000294788	0.000137175	0	5	0	
0.043	0.0117614	0.00501363	0.000294054	0.000172626	0	5	0	
0.0431667	-0.0104639	0.0072101	0.00027049	0.00016849	0	5	0	
0.0433333	0.00787902	-0.0193273	0.000249467	0.000189333	0	5	0	
0.0435	-0.00337045	0.0329097	0.00022713	0.0003561	0	5	0	
0.0436667	-0.006151	0.00175685	0.000310554	0.000586907	0	5	0	
0.0438333	0.0157308	-0.0148072	0.000325769	0.000697896	0	5	0	
0.044	0.000176348	-0.00647397	0.000313683	0.000547016	0	5	0	
0.0441667	-0.00865657	-0.00407084	0.000213568	0.000323884	0	5	0	
0.0443333	0.00156567	0.00320142	0.000167006	0.000169801	0	5	0	
0.0445	-0.012566	0.00493877	0.000147707	0.000189661	0	5	0	
0.0446667	0.0253607	0.0391095	0.000208908	0.000376213	0	5	0	
0.0448333	-0.0114795	-0.032923	0.00027123	0.000669106	0	5	0	
0.045	0.00827892	-0.00758969	0.00033878	0.000658214	0	5	0	
0.0451667	-0.0041371	-0.00211445	0.000273251	0.000518272	0	5	0	
0.0453333	0.00590616	0.00245474	0.000199277	0.000217517	0	5	0	
0.0455	-0.0059715	0.00200302	0.000135777	0.000146941	0	5	0	
0.0456667	-0.00372919	0.00254145	0.000131019	8.69249E-05	0	5	0	
0.0458333	0.00595735	-0.0076709	0.000127357	0.000102171	0	5	0	
0.046	0.00340423	0.00315194	0.000160286	0.000121357	0	5	0	
0.0461667	-0.0160757	-0.00174376	0.000215182	0.000128441	0	5	0	
0.0463333	0.0191003	0.00255184	0.000291752	9.10791E-05	0	5	0	
0.0465	-0.0138471	-0.00643317	0.000316931	7.77657E-05	0	5	0	
0.0466667	0.00676015	0.0100911	0.000297154	0.000105835	0	5	0	
0.0468333	-0.00146689	-0.00514204	0.000237551	0.000152912	0	5	0	
0.047	0.00403505	0.0022793	0.000158627	0.000162446	0	5	0	
0.0471667	-0.00537908	-0.00593842	0.000102083	0.000145601	0	5	0	
0.0473333	0.00588618	0.00339383	9.51211E-05	0.000115711	0	5	0	
0.0475	-0.00941687	-0.00435079	0.000119766	0.000117061	0	5	0	
0.0476667	0.0100979	0.00768883	0.000145302	0.000116538	0	5	0	
0.0478333	-0.00570014	-0.00709442	0.00016463	0.00012741	0	5	0	
0.048	0.00596633	0.00618185	0.000164674	0.000142405	0	5	0	
0.0481667	-0.00754103	-0.00487905	0.000147884	0.000133382	0	5	0	
0.0483333	0.00808791	0.00275757	0.000143196	0.000103465	0	5	0	
0.0485	-0.00677672	-0.00632395	0.000144592	8.40107E-05	0	5	0	
0.0486667	0.00441123	0.00257528	0.000147869	7.59706E-05	0	5	0	
0.0488333	-0.00553161	-0.00215659	0.000139281	7.68771E-05	0	5	0	
0.049	0.0135345	-0.00218845	0.000163428	6.04288E-05	0	5	0	
0.0491667	-0.0163417	-0.00209543	0.000205356	4.17365E-05	0	5	0	
0.0493333	0.00643382	0.00846862	0.000252602	6.00201E-05	0	5	0	
0.0495	0.0019635	-0.00834005	0.000239736	0.000100068	0	5	0	
0.0496667	-0.000748162	0.00537859	0.000165255	0.000128088	0	5	0	
0.0498333	-0.00648754	-0.00347088	0.000124017	0.000148694	0	5	0	
0.05	0.0118035	0.00211713	0.000130155	0.000149609	0	5	0	
0.0501667	-0.0157503	-0.00230656	0.000210701	0.000141331	0	5	0	
0.0503333	0.0153099	-0.00117442	0.000255058	0.000133871	0	5	0	
0.0505	-0.00860635	-0.00131672	0.000276176	0.000140641	0	5	0	
0.0506667	0.00160142	0.0150386	0.000256522	0.000172271	0	5	0	
0.0508333	0.00107327	-0.0233938	0.000225403	0.000243422	0	5	0	
0.051	-0.0083542	0.00606126	0.00017875	0.000303399	0	5	0	
0.0511667	0.0112602	0.0215337	0.000208728	0.000324317	0	5	0	
0.0513333	-0.0164299	-0.0449417	0.000519672	0.000526797	0	5	0	
0.0515	-0.0420855	0.100021	0.00089242	0.00125525	0	5	0	
0.0516667	0.0451354	0.020251	0.00108869	0.00152833	0	5	0	
0.0518333	-0.0160005	-0.0300424	0.000926856	0.00149824	0	5	0	
0.052	0.000361344	0.00457505	0.000707831	0.000791762	0	5	0	
0.0521667	0.0129694	-0.00533505	0.000472247	0.000502562	0	5	0	
0.0523333	-0.0340578	-0.0346774	0.000386188	0.000373181	0	5	0	
0.0525	0.0199603	0.0971008	0.000435784	0.000830575	0	5	0	
0.0526667	-0.0114293	0.0140286	0.000495775	0.00133831	0	5	0	
0.0528333	-0.00891166	0.00594869	0.00056283	0.00136685	0	5	0	
0.053	0.0207346	-0.019936	0.000474223	0.000986473	0	5	0	
0.0531667	-0.0160149	0.00365651	0.000468175	0.000515155	0	5	0	
0.0533333	0.0151658	0.00449164	0.000374002	0.000385838	0	5	0	
0.0535	-0.0157895	-0.00855075	0.000310904	0.000251447	0	5	0	
0.0536667	0.0177111	0.0101405	0.000304199	0.000202377	0	5	0	
0.0538333	0.000439573	0.00226271	0.000452875	0.000310188	0	5	0	
0.054	-0.0216121	0.0253803	0.000661039	0.000587646	0	5	0	
0.0541667	0.0304746	0.00455407	0.000727829	0.000763884	0	5	0	
0.0543333	-0.00309295	-0.0195827	0.000677181	0.000706345	0	5	0	
0.0545	-0.0215341	0.00114908	0.000604328	0.000393999	0	5	0	
0.0546667	0.0292839	0.0131686	0.000584897	0.000279105	0	5	0	
0.0548333	-0.0264206	-0.028414	0.00055811	0.000274759	0	5	0	
0.055	0.0313125	0.0633537	0.000562089	0.000522642	0	5	0	
0.0551667	-0.0198784	-0.0154679	0.000535317	0.000781611	0	5	0	
0.0553333	0.0112764	-0.0105411	0.000521741	0.000776355	0	5	0	
0.0555	0.00499651	-0.00683751	0.00040957	0.000543398	0	5	0	
0.0556667	-0.00308924	0.00466921	0.00031821	0.000219263	0	5	0	
0.0558333	-0.00470669	-0.00316116	0.000202812	0.00012468	0	5	0	
0.056	0.00658035	0.00576559	0.000117862	0.000102836	0	5	0	
0.0561667	-0.00461988	-0.00308926	0.000120298	8.80864E-05	0	5	0	
0.0563333	0.00489428	0.00573718	0.000118317	0.000105652	0	5	0	
0.0565	-0.00775177	-0.00374394	0.000121384	0.000111095	0	5	0	
0.0566667	0.0064535	0.00738235	0.000125397	0.000102325	0	5	0	
0.0568333	-0.00444606	-0.00731956	0.000130155	0.000135068	0	5	0	
0.057	0.0115797	0.00424834	0.000157586	0.000123921	0	5	0	
0.0571667	-0.01457	0.00151729	0.000196548	0.000127267	0	5	0	
0.0573333	0.00979896	-0.00369524	0.000219125	9.15113E-05	0	5	0	
0.0575	-0.00734668	0.00207778	0.000217114	7.94294E-05	0	5	0	
0.0576667	0.00434016	0.000851232	0.000171235	8.52279E-05	0	5	0	
0.0578333	-0.00538856	0.00562953	0.000147059	9.8917E-05	0	5	0	
0.058	0.0127542	-0.00748029	0.000143796	0.00012554	0	5	0	
0.0581667	-0.0175268	-0.00192437	0.000192822	0.000128303	0	5	0	
0.0583333	0.00504688	0.00804071	0.000282623	0.000125312	0	5	0	
0.0585	0.0134429	-0.00976824	0.000363487	0.000138841	0	5	0	
0.0586667	-0.00558396	0.0129859	0.000338936	0.000187078	0	5	0	
0.0588333	-0.0189719	-0.00735591	0.000378241	0.000224252	0	5	0	
0.059	0.0176485	-0.00047876	0.000351305	0.000197109	0	5	0	
0.0591667	-0.00931058	-0.00449926	0.000372458	0.00015248	0	5	0	
0.0593333	0.0162865	0.00872772	0.000287513	0.000124915	0	5	0	
0.0595	-0.0222692	-0.0123396	0.00028768	0.000159937	0	5	0	
0.0596667	0.0112934	0.00965882	0.000318868	0.00019622	0	5	0	
0.0598333	0.00208726	-0.00367402	0.000303961	0.000186282	0	5	0	
0.06	-0.000243615	0.00156732	0.000196699	0.000175258	0	5	0	
0.0601667	-0.0030676	-0.00248872	9.26385E-05	0.000169351	0	5	0	
0.0603333	0.000891405	0.00267022	5.0052E-05	0.000166873	0	5	0	
0.0605	-0.000871617	-0.00766688	7.34838E-05	0.000141557	0	5	0	
0.0606667	0.00880241	0.00556833	0.000151316	0.000137273	0	5	0	
0.0608333	-0.0152215	-0.00374161	0.000215862	0.000129182	0	5	0	
0.061	0.0172868	0.00501292	0.000283166	0.000130774	0	5	0	
0.0611667	-0.00634955	-0.00427517	0.000321889	0.000103882	0	5	0	
0.0613333	-0.00445551	0.00551978	0.000341606	0.000116004	0	5	0	
0.0615	0.00349256	-0.00787636	0.000259071	0.000133661	0	5	0	
0.0616667	0.00607394	0.00820363	0.000217706	0.000164189	0	5	0	
0.0618333	-0.0134838	-0.00750439	0.00019974	0.000183465	0	5	0	
0.062	0.0134033	0.00445753	0.000267232	0.000161912	0	5	0	
0.0621667	-0.0123424	-0.00513563	0.000258629	0.000139009	0	5	0	
0.0623333	0.00993187	0.00233567	0.000239956	0.000158452	0	5	0	
0.0625	-0.00848028	0.00233031	0.000214681	0.000186055	0	5	0	
0.0626667	0.00556402	-0.00505132	0.000178178	0.000161316	0	5	0	
0.0628333	-0.00583402	0.00224908	0.000157729	0.000111865	0	5	0	
0.063	-0.00168647	-0.0030423	0.00016553	8.82408E-05	0	5	0	
0.0631667	0.00446494	-0.00624838	0.000149627	8.63514E-05	0	5	0	
0.0633333	0.000810845	0.0156704	0.00017135	0.000142579	0	5	0	
0.0635	-0.0136528	-0.02084	0.000242183	0.00021772	0	5	0	
0.0636667	0.0223485	0.0141751	0.000359153	0.000311543	0	5	0	
0.0638333	-0.0245051	-0.00707701	0.000423543	0.000327252	0	5	0	
0.064	0.0109714	-0.00140053	0.000406804	0.000281273	0	5	0	
0.0641667	-0.0044313	0.000169942	0.000348218	0.000186433	0	5	0	
0.0643333	0.00208735	0.000749471	0.000238481	0.000108617	0	5	0	
0.0645	0.00062693	-0.00639426	0.000133348	9.41839E-05	0	5	0	
0.0646667	-0.00339078	0.005775	5.8064E-05	0.000159236	0	5	0	
0.0648333	-0.00550288	-0.00809999	0.000105317	0.000195762	0	5	0	
0.065	0.0135135	0.00844283	0.000190996	0.000187579	0	5	0	
0.0651667	-0.0146292	-0.00617912	0.000259241	0.000166953	0	5	0	
0.0653333	0.00791739	-0.000835667	0.000256881	0.000124431	0	5	0	
0.0655	-0.00843397	-0.00278681	0.00021346	0.000114193	0	5	0	
0.0656667	0.009388	0.00666965	0.000190147	0.000108656	0	5	0	
0.0658333	-0.00632821	-0.0091288	0.000163454	0.000134727	0	5	0	
0.066	0.00460565	0.00771951	0.000145016	0.000173334	0	5	0	
0.0661667	-0.00927241	-0.00325439	0.000132516	0.000163097	0	5	0	
0.0663333	0.00950138	-0.000412394	0.000141819	0.000133534	0	5	0	
0.0665	-0.00567185	-0.00398189	0.000177682	0.000122188	0	5	0	
0.0666667	0.00105034	0.00894017	0.000266094	0.000298525	0	5	0	
0.0668333	0.0107525	-0.0286757	0.000320577	0.000644151	0	5	0	
0.067	-0.0102037	0.000559431	0.000304988	0.000760649	0	5	0	
0.0671667	-0.00346962	0.0081902	0.000299386	0.000602584	0	5	0	
0.0673333	0.0148278	0.0106976	0.00032409	0.000350095	0	5	0	
0.0675	-0.0250492	-0.0266244	0.000382027	0.000290921	0	5	0	
0.0676667	0.0310606	0.0462076	0.000424159	0.000437494	0	5	0	
0.0678333	-0.0188255	-0.0620387	0.000464128	0.000734454	0	5	0	
0.068	0.00294093	0.0197412	0.000520511	0.000918805	0	5	0	
0.0681667	0.0156523	0.000362726	0.000536997	0.000761735	0	5	0	
0.0683333	-0.031295	-0.0133397	0.000494713	0.000481028	0	5	0	
0.0685	0.0101415	0.0410666	0.000482329	0.000383515	0	5	0	
0.0686667	0.0138657	0.00512423	0.000521779	0.000477047	0	5	0	
0.0688333	-0.0245936	-0.0111034	0.000542386	0.000488362	0	5	0	
0.069	0.020665	0.00471454	0.000521324	0.000385702	0	5	0	
0.0691667	-0.00998966	-0.0118381	0.000403122	0.00029046	0	5	0	
0.0693333	0.00612027	0.0114518	0.000310153	0.000233901	0	5	0	
0.0695	-0.00377292	0.00419068	0.000279672	0.000256687	0	5	0	
0.0696667	-0.0181882	0.0105254	0.000300103	0.000428523	0	5	0	
0.0698333	0.0121243	0.033152	0.000361703	0.000530273	0	5	0	
0.07	0.00148521	-0.00655933	0.0004148	0.000599426	0	5	0	
0.0701667	-0.0159655	-0.00627318	0.000456727	0.000435091	0	5	0	
0.0703333	0.0138931	0.00666116	0.000425125	0.000349058	0	5	0	
0.0705	-0.0122757	-0.00577209	0.000343963	0.000191551	0	5	0	
0.0706667	0.0229977	-0.000288162	0.000290922	0.000203463	0	5	0	
0.0708333	-0.0287442	0.00391306	0.000342668	0.000179917	0	5	0	
0.071	0.000739854	0.0269663	0.00047098	0.000272915	0	5	0	
0.0711667	0.0186653	-0.0102148	0.000517543	0.000377131	0	5	0	
0.0713333	-0.00628667	0.00384917	0.000440932	0.000353702	0	5	0	
0.0715	-0.0089565	-0.00871438	0.000344838	0.000293167	0	5	0	
0.0716667	0.0063246	0.00887971	0.000263202	0.000193389	0	5	0	
0.0718333	-0.00714007	0.00491041	0.000286713	0.000191419	0	5	0	
0.072	0.0187151	-0.00967894	0.000284522	0.000191718	0	5	0	
0.0721667	-0.0184625	-0.00323344	0.000311665	0.000203464	0	5	0	
0.0723333	0.0108003	0.00905185	0.000330786	0.000288226	0	5	0	
0.0725	-0.00557448	-0.0163762	0.000283942	0.000304664	0	5	0	
0.0726667	0.00705009	0.0120951	0.000215891	0.000291651	0	5	0	
0.0728333	-0.00562481	0.00273565	0.000151891	0.000219939	0	5	0	
0.073	0.00902835	-0.0108709	0.000136544	0.000194793	0	5	0	
0.0731667	-0.0145989	-0.00785499	0.000181806	0.000218748	0	5	0	
0.0733333	0.0048323	0.0067469	0.000222647	0.00035164	0	5	0	
0.0735	-0.00169957	-0.0130365	0.000233429	0.00040985	0	5	0	
0.0736667	0.0126577	0.00783892	0.000257166	0.000355916	0	5	0	
0.0738333	-0.0167969	-0.00968208	0.000294733	0.000238314	0	5	0	
0.074	0.0124033	0.00549522	0.000324392	0.000176562	0	5	0	
0.0741667	-0.00780062	-0.00286329	0.000277642	0.000184553	0	5	0	
0.0743333	-0.00116915	-0.0129501	0.00018631	0.00020677	0	5	0	
0.0745	0.00869212	0.0127971	0.000148059	0.000284062	0	5	0	
0.0746667	0.0022412	0.00926748	0.000134305	0.000359006	0	5	0	
0.0748333	-0.0372069	-0.0411278	0.000278806	0.000432367	0	5	0	
0.075	0.0723531	0.139949	0.000725891	0.000843017	0	5	0	
0.0751667	-0.0154167	-0.0182698	0.000967156	0.00146644	0	5	0	
0.0753333	-0.0117683	0.00832571	0.00105093	0.00139576	0	5	0	
0.0755	0.011824	0.0185669	0.000688158	0.00095427	0	5	0	
0.0756667	0.0123534	-0.0093341	0.00052862	0.000363209	0	5	0	
0.0758333	-0.00753577	-0.0131146	0.000391514	0.000368094	0	5	0	
0.076	0.0502147	0.0643909	0.000569698	0.000576785	0	5	0	
0.0761667	-0.0336794	0.0285192	0.000874996	0.00105699	0	5	0	
0.0763333	0.0478718	-0.00478525	0.00107873	0.00131032	0	5	0	
0.0765	-0.00260448	0.0307822	0.000989443	0.00112313	0	5	0	
0.0766667	-0.0106363	-0.0198443	0.00075197	0.000765141	0	5	0	
0.0768333	0.012732	0.000784015	0.000517642	0.000458649	0	5	0	
0.077	0.0103984	0.00758034	0.000409073	0.000500095	0	5	0	
0.0771667	-0.0101136	-0.0228543	0.00029732	0.00035602	0	5	0	
0.0773333	0.00676566	0.0160482	0.000253254	0.000425192	0	5	0	
0.0775	-0.00896401	-0.0145786	0.000197635	0.00040373	0	5	0	
0.0776667	0.0158561	0.00804266	0.000200017	0.000410994	0	5	0	
0.0778333	-0.0146536	0.00144059	0.000243043	0.000364633	0	5	0	
0.078	0.00791604	-0.00373889	0.000272813	0.000240549	0	5	0	
0.0781667	-0.00113937	0.000970243	0.000254631	0.000108489	0	5	0	
0.0783333	0.00324111	-0.000159287	0.000178823	4.24124E-05	0	5	0	
0.0785	-0.0110034	-0.00294884	0.000134065	3.30341E-05	0	5	0	
0.0786667	0.0137503	-0.00142266	0.000144471	4.46391E-05	0	5	0	
0.0788333	-0.00495198	-0.00753976	0.000207529	6.49531E-05	0	5	0	
0.079	-0.00273712	0.0110665	0.000244635	0.000114452	0	5	0	
0.0791667	0.00730092	-0.00457135	0.000197391	0.000132864	0	5	0	
0.0793333	-0.00360858	-0.00243033	0.000182305	0.000153367	0	5	0	
0.0795	-0.00818228	0.0023788	0.000216468	0.000108054	0	5	0	
0.0796667	0.0183345	-0.000497113	0.0003121	0.000102162	0	5	0	
0.0798333	-0.0206866	-0.00657572	0.00037415	0.000103841	0	5	0	
0.08	0.016572	0.00497205	0.000363805	0.000144141	0	5	0	
0.0801667	-0.00923167	-0.00597689	0.000331997	0.000153271	0	5	0	
0.0803333	0.00248573	0.00627954	0.00027915	0.000156835	0	5	0	
0.0805	0.00162907	-0.00323451	0.00023413	0.000120329	0	5	0	
0.0806667	-0.00469119	0.000914648	0.000162061	9.92665E-05	0	5	0	
0.0808333	0.00270879	0.00211978	0.000134014	5.88847E-05	0	5	0	
0.081	0.004735	9.40311E-05	0.000161513	6.76322E-05	0	5	0	
0.0811667	-0.0112202	-0.0112162	0.000222592	8.42874E-05	0	5	0	
0.0813333	0.0104803	0.0186123	0.000249632	0.000171469	0	5	0	
0.0815	-0.011231	-0.0061664	0.000226971	0.000208043	0	5	0	
0.0816667	0.0153829	-0.000518917	0.000228466	0.000207398	0	5	0	
0.0818333	-0.00986816	0.00268115	0.000228314	0.000129456	0	5	0	
0.082	-0.00017504	0.00164827	0.000223131	8.17085E-05	0	5	0	
0.0821667	0.00495202	-0.00163363	0.000150469	9.0718E-05	0	5	0	
0.0823333	-0.00129777	0.00412251	0.000147642	0.000169006	0	5	0	
0.0825	-0.0049178	-0.00412059	0.000162162	0.000258522	0	5	0	
0.0826667	0.00793763	0.0103623	0.000205913	0.000260993	0	5	0	
0.0828333	-0.00448231	-0.00526924	0.000177176	0.000228568	0	5	0	
0.083	-0.000444327	0.00148449	0.000119565	0.000137379	0	5	0	
0.0831667	0.000120123	0.00294807	9.8464E-05	9.31121E-05	0	5	0	
0.0833333	0.00857236	-0.00194614	0.000141715	4.92017E-05	0	5	0	
0.0835	-0.011837	-0.00971119	0.000198416	6.88664E-05	0	5	0	
0.0836667	0.00511924	0.0119621	0.000210424	0.000131566	0	5	0	
0.0838333	-0.00601624	-0.000351993	0.000160764	0.000146873	0	5	0	
0.084	0.012644	-0.00535192	0.000149116	0.000172489	0	5	0	
0.0841667	-0.00759066	0.00317409	0.000167018	0.000126931	0	5	0	
0.0843333	-0.00135742	-0.00652435	0.000196591	0.000145342	0	5	0	
0.0845	-0.000195556	-0.0110613	0.000150559	0.000123052	0	5	0	
0.0846667	0.00560267	0.0105149	0.00014333	0.000195133	0	5	0	
0.0848333	-0.00703946	-0.00308647	0.000123343	0.000206522	0	5	0	
0.085	0.00436583	0.00714174	0.000147317	0.000193689	0	5	0	
0.0851667	-0.00646591	-0.0052521	0.000132886	0.000136209	0	5	0	
0.0853333	0.0101441	0.00214029	0.000158345	9.0222E-05	0	5	0	
0.0855	-0.00945695	-0.0111842	0.000183193	0.00011176	0	5	0	
0.0856667	0.00541288	0.00583677	0.000173822	0.000173551	0	5	0	
0.0858333	-0.00338709	-0.000338153	0.000138418	0.000229032	0	5	0	
0.086	0.00602485	0.00647974	0.000106272	0.000201978	0	5	0	
0.0861667	-0.00628803	-0.00395307	0.000107229	0.000136006	0	5	0	
0.0863333	-0.000758864	-5.46749E-05	0.000105313	7.82973E-05	0	5	0	
0.0865	0.00200658	0.00153227	8.15565E-05	7.63131E-05	0	5	0	
0.0866667	0.00593563	0.00212661	0.000122459	7.41409E-05	0	5	0	
0.0868333	-0.0127906	-0.00433798	0.000171769	8.86257E-05	0	5	0	
0.087	0.0129365	0.003287	0.000240063	9.97119E-05	0	5	0	
0.0871667	-0.0100884	-0.00292026	0.000237196	9.0176E-05	0	5	0	
0.0873333	0.00845804	0.00192783	0.000211564	0.000101614	0	5	0	
0.0875	-0.00539474	-0.00335917	0.000187337	0.000122008	0	5	0	
0.0876667	0.00147071	0.00571227	0.000154297	0.000135179	0	5	0	
0.0878333	-0.006349	0.00290542	0.000165673	0.000131519	0	5	0	
0.088	0.011963	-0.00109768	0.000199153	0.000104749	0	5	0	
0.0881667	-0.0150739	-0.000523561	0.000250976	7.78941E-05	0	5	0	
0.0883333	0.0120985	-0.00369837	0.000260449	6.32244E-05	0	5	0	
0.0885	-0.0023056	0.00314786	0.000230805	6.58726E-05	0	5	0	
0.0886667	-0.00652116	-0.000843308	0.000151848	6.22168E-05	0	5	0	
0.0888333	0.00422568	0.0128769	0.000164255	8.46454E-05	0	5	0	
0.089	0.00556135	-0.00699643	0.000215218	0.000127979	0	5	0	
0.0891667	-0.00782657	-0.000711178	0.00026259	0.000181344	0	5	0	
0.0893333	0.00326419	0.00478478	0.000218668	0.0002158	0	5	0	
0.0895	-0.00603278	-0.00555179	0.000156432	0.000173751	0	5	0	
0.0896667	0.00661596	0.00220005	0.000136268	0.000157805	0	5	0	
0.0898333	0.00263841	0.00013481	0.000109405	0.000125445	0	5	0	
0.09	-0.00129206	-0.00155354	7.81521E-05	0.000135065	0	5	0	
0.0901667	-0.00779631	0.00982466	9.78357E-05	0.000117531	0	5	0	
0.0903333	0.00947003	-0.0110236	0.000140997	0.000159914	0	5	0	
0.0905	-0.00395053	0.00170804	0.000169782	0.000228869	0	5	0	
0.0906667	0.0015041	0.00625126	0.000125487	0.000288936	0	5	0	
0.0908333	-0.00481138	-0.00542592	0.000133754	0.000244049	0	5	0	
0.091	0.0114278	-0.000864994	0.000144243	0.000163379	0	5	0	
0.0911667	-0.00228198	0.00800008	0.000170699	0.000119171	0	5	0	
0.0913333	-0.00448342	-0.00659558	0.000135654	0.00011568	0	5	0	
0.0915	0.000859881	0.00514392	0.00013829	0.000138182	0	5	0	
0.0916667	0.00833319	-0.000266089	0.000187837	0.000128286	0	5	0	
0.0918333	-0.0067519	-0.00412663	0.000204311	0.000109885	0	5	0	
0.092	-0.00485363	-0.00482116	0.000219621	0.00014915	0	5	0	
0.0921667	0.0179994	0.023917	0.000179068	0.000182607	0	5	0	
0.0923333	-0.033219	-0.0529853	0.000457332	0.000516645	0	5	0	
0.0925	-0.0301923	0.0764266	0.000804114	0.00120057	0	5	0	
0.0926667	0.0371071	0.0130436	0.00105329	0.00137026	0	5	0	
0.0928333	-0.0302511	-0.00347012	0.000924398	0.00113669	0	5	0	
0.093	-0.000526574	0.00830258	0.000691004	0.000407927	0	5	0	
0.0931667	0.00471235	0.00361495	0.000416462	0.000214936	0	5	0	
0.0933333	0.0167563	0.0182136	0.000402664	0.000243187	0	5	0	
0.0935	-0.0215982	0.0167363	0.000446826	0.0005343	0	5	0	
0.0936667	0.0253267	-0.0233384	0.00058824	0.000780466	0	5	0	
0.0938333	-0.00805392	-0.00436836	0.000515939	0.000734968	0	5	0	
0.094	-0.00947754	-0.0025761	0.000394226	0.000455221	0	5	0	
0.0941667	0.0190044	0.0238077	0.000302601	0.000272026	0	5	0	
0.0943333	-0.0211729	-0.0215642	0.000371388	0.000281664	0	5	0	
0.0945	0.0337958	0.0805722	0.000717094	0.00075484	0	5	0	
0.0946667	0.0403876	-0.0907541	0.00109499	0.00160792	0	5	0	
0.0948333	-0.0390854	-0.036925	0.00123913	0.00177314	0	5	0	
0.095	0.0262307	0.00105018	0.0009956	0.00142862	0	5	0	
0.0951667	0.00496985	0.00900251	0.000773032	0.00056464	0	5	0	
0.0953333	-0.0128147	-0.00258146	0.000495963	0.000335271	0	5	0	
0.0955	-0.0112856	0.00622042	0.000444598	0.000228229	0	5	0	
0.0956667	0.0224853	0.00636915	0.000350816	0.000186229	0	5	0	
0.0958333	0.00188117	0.0064202	0.00037439	0.000165332	0	5	0	
0.096	-0.0142758	-0.0437775	0.000327593	0.000294042	0	5	0	
0.0961667	0.00941824	0.0040285	0.000260956	0.00046163	0	5	0	
0.0963333	0.00379904	0.012084	0.000377281	0.000507645	0	5	0	
0.0965	-0.0213583	-0.00448642	0.000467571	0.000356691	0	5	0	
0.0966667	0.032431	0.00661015	0.000588588	0.000191617	0	5	0	
0.0968333	-0.0247121	-0.00165355	0.000566598	0.000167328	0	5	0	
0.097	0.00612858	-0.00706557	0.000561683	0.000186017	0	5	0	
0.0971667	0.0138707	-0.0262508	0.000526256	0.000305601	0	5	0	
0.0973333	-0.0166728	0.00748672	0.00045695	0.00040841	0	5	0	
0.0975	0.00667713	0.0010505	0.00037752	0.000391715	0	5	0	
0.0976667	0.00579192	0.0121345	0.000383602	0.000255624	0	5	0	
0.0978333	-0.0143217	-0.00644857	0.000428791	0.000172309	0	5	0	
0.098	0.0105941	-0.00682306	0.000412561	0.000147411	0	5	0	
0.0981667	-0.00192739	0.00887411	0.00029134	0.000156872	0	5	0	
0.0983333	-5.04644E-05	-0.00221423	0.000172278	0.000147215	0	5	0	
0.0985	-0.0057199	-0.00858415	0.000144007	0.000159113	0	5	0	
0.0986667	0.0106107	0.00845332	0.000192987	0.000163468	0	5	0	
0.0988333	-0.0107466	-0.00209213	0.000240346	0.000134684	0	5	0	
0.099	0.00755213	-0.00322438	0.000217522	0.000129498	0	5	0	
0.0991667	-0.00265626	0.000795159	0.000160256	0.000133262	0	5	0	
0.0993333	-0.00111057	0.000237841	0.00010329	0.00014397	0	5	0	
0.0995	0.00597009	0.000110147	7.98011E-05	0.000131767	0	5	0	
0.0996667	-0.00281115	0.00337777	0.000106881	9.08919E-05	0	5	0	
0.0998333	-0.00549067	-0.00179309	0.000177222	7.49353E-05	0	5	0	
0.1	0.0069154	-0.00172933	0.000217465	7.30456E-05	0	5	0	
0.100167	-0.0024481	0.00275442	0.000198206	7.83206E-05	0	5	0	
0.100333	4.92025E-05	-0.00123283	0.000143393	6.72808E-05	0	5	0	
0.1005	-0.000563557	-0.00162165	0.000137643	7.2423E-05	0	5	0	
0.100667	0.00825938	0.00414613	0.00018585	8.73737E-05	0	5	0	
0.100833	-0.0110683	-0.00141982	0.000237651	0.000110669	0	5	0	
0.101	0.00576435	0.00306313	0.000224708	0.000116645	0	5	0	
0.101167	0.00546472	-0.00579864	0.00017499	0.000112613	0	5	0	
0.101333	-0.00966722	0.00505821	0.000135375	0.000109539	0	5	0	
0.1015	0.00327378	0.00322161	0.000188998	0.000119898	0	5	0	
0.101667	0.00757087	-0.00728484	0.000249374	0.00016856	0	5	0	
0.101833	-0.00609908	0.00835539	0.000249942	0.000196603	0	5	0	
0.102	-0.00580296	-0.00746972	0.000188793	0.000194408	0	5	0	
0.102167	0.0157042	0.0087594	0.00014979	0.000193499	0	5	0	
0.102333	-0.0206542	-0.0177143	0.000306201	0.00033964	0	5	0	
0.1025	-0.00942027	0.0302271	0.00053967	0.000621005	0	5	0	
0.102667	0.0290396	0.0221515	0.000695671	0.000654107	0	5	0	
0.102833	-0.0293024	-0.0207864	0.000664455	0.00061825	0	5	0	
0.103	0.0123929	0.00513143	0.00054342	0.000353208	0	5	0	
0.103167	0.00794908	0.00272659	0.000491771	0.000316182	0	5	0	
0.103333	-0.0298855	-0.023505	0.000461668	0.000217128	0	5	0	
0.1035	0.0211173	0.0304137	0.000482521	0.000400925	0	5	0	
0.103667	-0.0122883	0.0124112	0.000454168	0.000501394	0	5	0	
0.103833	0.0155621	0.0219364	0.000424739	0.000546464	0	5	0	
0.104	-0.00854362	-0.0206161	0.000307874	0.000634248	0	5	0	
0.104167	0.00626785	-0.0187169	0.000309202	0.000676521	0	5	0	
0.104333	0.0196892	-0.00305696	0.000395213	0.000660368	0	5	0	
0.1045	-0.0313895	-0.0116264	0.000493551	0.000377251	0	5	0	
0.104667	0.0181747	0.0224715	0.000489358	0.000318264	0	5	0	
0.104833	-0.0139484	-0.0051347	0.000436151	0.000300314	0	5	0	
0.105	0.0152479	0.0286133	0.000467705	0.000377491	0	5	0	
0.105167	0.0195458	-0.0383272	0.000441338	0.000563143	0	5	0	
0.105333	-0.00333537	-0.00589078	0.000392784	0.00060679	0	5	0	
0.1055	-0.0242898	-0.00866269	0.000476006	0.000524445	0	5	0	
0.105667	0.0338795	0.00999433	0.000609201	0.000321399	0	5	0	
0.105833	-0.0162804	0.00740383	0.000672363	0.000309436	0	5	0	
0.106	-0.0135231	0.00355468	0.000574268	0.000308426	0	5	0	
0.106167	0.0260653	-0.00252007	0.000439059	0.000213558	0	5	0	
0.106333	-0.00328352	-0.00204035	0.000493954	0.000111298	0	5	0	
0.1065	-0.0160458	-6.33796E-06	0.000559237	9.82966E-05	0	5	0	
0.106667	0.0220635	0.00324473	0.000593144	8.71613E-05	0	5	0	
0.106833	-0.0134187	-0.00485951	0.000486392	8.71133E-05	0	5	0	
0.107	0.00109437	5.48324E-05	0.000337615	9.42274E-05	0	5	0	
0.107167	0.0129724	0.00507561	0.000299876	7.5123E-05	0	5	0	
0.107333	-0.0180283	-0.00210093	0.000292559	9.28494E-05	0	5	0	
0.1075	0.00845628	-0.00813943	0.000311984	8.39125E-05	0	5	0	
0.107667	0.0112677	0.00484021	0.000368274	0.000114251	0	5	0	
0.107833	-0.0168638	0.000214297	0.000386651	9.68749E-05	0	5	0	
0.108	0.00905026	0.000642961	0.000345725	0.000106967	0	5	0	
0.108167	-0.000904286	-0.00510735	0.000278048	9.4856E-05	0	5	0	
0.108333	-0.00369184	0.003714	0.000220187	0.000109302	0	5	0	
0.1085	0.00325365	-0.00501717	0.00016871	0.000103007	0	5	0	
0.108667	0.00132682	0.000824737	0.000103641	0.000106218	0	5	0	
0.108833	-0.00608014	0.00395317	9.07513E-05	0.000119906	0	5	0	
0.109	0.00724949	-0.00515279	0.000116679	0.000136451	0	5	0	
0.109167	-0.00669497	0.000537916	0.000135159	0.000122496	0	5	0	
0.109333	0.00688479	-0.000385274	0.000133076	8.58732E-05	0	5	0	
0.1095	-0.00835456	-0.00306558	0.000138645	5.33403E-05	0	5	0	
0.109667	0.00493205	-0.000281782	0.000135099	5.65364E-05	0	5	0	
0.109833	-0.000801831	-0.00115083	0.00012476	9.24918E-05	0	5	0	
0.11	-0.00552867	0.00545249	9.3019E-05	9.95835E-05	0	5	0	
0.110167	0.000590517	-0.00322507	9.33832E-05	0.00010589	0	5	0	
0.110333	0.00534238	-0.00140207	0.000137251	8.03659E-05	0	5	0	
0.1105	-0.0104903	-6.70149E-06	0.00020923	6.38034E-05	0	5	0	
0.110667	0.0122518	-0.00117482	0.00026266	6.17898E-05	0	5	0	
0.110833	-0.0116088	-0.0015386	0.000262732	9.44033E-05	0	5	0	
0.111	0.00496399	0.00184145	0.000219504	0.000151015	0	5	0	
0.111167	0.00204408	-0.00313185	0.000149271	0.000168053	0	5	0	
0.111333	-0.00724887	0.00614727	9.83266E-05	0.000134711	0	5	0	
0.1115	0.0101705	-0.0047233	0.000166222	0.000116638	0	5	0	
0.111667	0.000337881	-4.23553E-07	0.000311132	8.69832E-05	0	5	0	
0.111833	-0.0165683	-0.00132021	0.000456175	0.000101307	0	5	0	
0.112	0.0149919	-0.00193811	0.000474684	0.000112554	0	5	0	
0.112167	-0.0162246	0.0037583	0.000403332	0.000141149	0	5	0	
0.112333	0.0125114	0.00964987	0.000326611	0.000180323	0	5	0	
0.1125	-0.0187561	-0.0249134	0.00027677	0.000233909	0	5	0	
0.112667	0.0276775	0.0683337	0.000421251	0.000462591	0	5	0	
0.112833	0.0131933	-0.0562723	0.000511776	0.000931292	0	5	0	
0.113	-0.0222992	-0.0223393	0.00055328	0.00113227	0	5	0	
0.113167	-0.0313956	0.0372444	0.000542902	0.0012747	0	5	0	
0.113333	0.0231647	0.096452	0.000642128	0.00114837	0	5	0	
0.1135	-0.013981	-0.031969	0.000617276	0.00138581	0	5	0	
0.113667	0.0116838	0.0196691	0.00051235	0.00106384	0	5	0	
0.113833	0.0116693	-0.0101317	0.00036206	0.000940949	0	5	0	
0.114	-0.0131098	-0.0463522	0.000338471	0.000777669	0	5	0	
0.114167	-0.00311665	0.0286959	0.000258775	0.00108657	0	5	0	
0.114333	0.00209824	0.055162	0.000336362	0.00113212	0	5	0	
0.1145	-0.0265917	0.0302158	0.000451279	0.00120505	0	5	0	
0.114667	0.0227894	0.00784377	0.000578819	0.00106734	0	5	0	
0.114833	-0.00102467	-0.0329273	0.000485118	0.000909128	0	5	0	
0.115	-0.00512723	0.00505939	0.000364268	0.000594023	0	5	0	
0.115167	0.0056499	0.0055445	0.000223923	0.000391718	0	5	0	
0.115333	-0.00306099	-0.00787465	0.000132	0.000245287	0	5	0	
0.1155	0.00316275	0.00144759	0.000138681	0.000161278	0	5	0	
0.115667	0.0148946	0.0162842	0.000230399	0.000203544	0	5	0	
0.115833	-0.0210085	-0.00440314	0.000292172	0.000230271	0	5	0	
0.116	0.0330792	0.0300752	0.000522127	0.000516496	0	5	0	
0.116167	0.0142957	-0.11707	0.000791365	0.00122089	0	5	0	
0.116333	-0.0198341	0.0660635	0.000953122	0.00177178	0	5	0	
0.1165	0.043777	-0.0158303	0.000820521	0.00175628	0	5	0	
0.116667	-0.0218678	-0.0201805	0.000730405	0.00108082	0	5	0	
0.116833	-0.03452	-0.0170788	0.00104298	0.000750222	0	5	0	
0.117	0.0956243	0.0369691	0.00157248	0.00110185	0	5	0	
0.117167	-0.134108	-0.0896072	0.00206536	0.00203524	0	5	0	
0.117333	0.0433411	-0.0959943	0.00196002	0.00314975	0	5	0	
0.1175	0.0144872	0.0332569	0.00181419	0.0032987	0	5	0	
0.117667	-0.0771596	0.00678573	0.00134107	0.00233354	0	5	0	
0.117833	0.0488562	0.0246293	0.00123368	0.00101074	0	5	0	
0.118	-0.0425255	-0.0746624	0.00116969	0.000470133	0	5	0	
0.118167	-0.0353856	0.101127	0.00124631	0.00106725	0	5	0	
0.118333	0.00822473	-0.142695	0.00115397	0.00158146	0	5	0	
0.1185	-0.0350684	-0.00254681	0.000859546	0.00213961	0	5	0	
0.118667	-0.0127919	0.0367056	0.000586249	0.00186259	0	5	0	
0.118833	-0.00634979	0.0259651	0.00041231	0.00153143	0	5	0	
0.119	-0.00877806	0.00340963	0.000272096	0.000799957	0	5	0	
0.119167	-0.0052549	-0.00310235	0.000231351	0.000424715	0	5	0	
0.119333	0.0443058	-0.040321	0.000331189	0.000268751	0	5	0	
0.1195	-0.03919	0.0786017	0.000510137	0.000526975	0	5	0	
0.119667	0.0188679	-0.12679	0.000840169	0.00153677	0	5	0	
0.119833	0.0338759	0.0880278	0.00103826	0.00272433	0	5	0	
0.12	-0.0315188	0.055722	0.000982792	0.00283661	0	5	0	
0.120167	0.00935657	-0.0151802	0.00075229	0.00203805	0	5	0	
0.120333	0.0111866	0.0154754	0.000506607	0.00084183	0	5	0	
0.1205	-0.0123561	0.00974233	0.000528185	0.000576722	0	5	0	
0.120667	0.0546727	-0.119563	0.000634738	0.000830079	0	5	0	
0.120833	-0.056626	0.134411	0.000935998	0.00184157	0	5	0	
0.121	0.0534384	-0.012205	0.00104071	0.00218937	0	5	0	
0.121167	-0.0198411	0.0341129	0.00105855	0.00196105	0	5	0	
0.121333	-0.0265607	0.00249263	0.000982786	0.00102062	0	5	0	
0.1215	0.0473472	-0.00497645	0.000899139	0.000515642	0	5	0	
0.121667	-0.0143759	-0.0113833	0.000844263	0.000293593	0	5	0	
0.121833	-0.0108209	0.0107109	0.000777753	0.000233604	0	5	0	
0.122	0.0100004	-0.000404676	0.000767875	0.000307602	0	5	0	
0.122167	-0.0156967	-0.00697797	0.000730793	0.000341613	0	5	0	
0.122333	0.0269571	0.00196306	0.000647899	0.000273314	0	5	0	
0.1225	-0.0131279	0.00453406	0.000567977	0.000161231	0	5	0	
0.122667	-0.0061648	-0.000513483	0.000430045	8.39178E-05	0	5	0	
0.122833	0.00713604	-0.0111465	0.000238611	0.000126162	0	5	0	
0.123	-0.00485264	0.0105171	0.000215471	0.000187715	0	5	0	
0.123167	-0.00697655	0.000753983	0.000295352	0.000192401	0	5	0	
0.123333	0.0187067	-0.00823099	0.000454648	0.000136581	0	5	0	
0.1235	-0.0111798	0.00863272	0.00047134	0.000140714	0	5	0	
0.123667	-0.00614067	0.000606029	0.000359782	0.000212232	0	5	0	
0.123833	0.0121016	-0.00268579	0.000224807	0.000241344	0	5	0	
0.124	-0.00337592	-0.00187172	0.000259871	0.000161227	0	5	0	
0.124167	-0.00498438	0.00242159	0.000386894	7.57966E-05	0	5	0	
0.124333	0.00288105	-0.00340821	0.000447792	6.44871E-05	0	5	0	
0.1245	0.000204814	0.00478044	0.000370845	0.000104268	0	5	0	
0.124667	0.0065923	-0.00108341	0.000309079	0.000119317	0	5	0	
0.124833	-0.0207357	-0.00409457	0.00034303	0.000126608	0	5	0	
0.125	0.024941	0.00640406	0.000397391	0.00012893	0	5	0	
0.125167	-0.0145734	-0.00178678	0.000419233	0.000118529	0	5	0	
0.125333	-0.0122247	-0.000763691	0.000483535	9.97293E-05	0	5	0	
0.1255	0.0238912	-0.00235331	0.00044018	6.17663E-05	0	5	0	
0.125667	-0.00362462	0.00215298	0.000494302	9.23803E-05	0	5	0	
0.125833	-0.0151342	-0.00323992	0.000502097	0.000100421	0	5	0	
0.126	0.01308	0.001525	0.00053088	0.000107633	0	5	0	
0.126167	-0.0110101	0.00750144	0.000445895	8.32039E-05	0	5	0	
0.126333	0.0126864	-0.013197	0.000332422	0.000119176	0	5	0	
0.1265	0.000121211	0.0146129	0.000267053	0.000183076	0	5	0	
0.126667	-0.0155321	-0.00354983	0.000260171	0.000307292	0	5	0	
0.126833	0.0153399	-0.0125946	0.000270544	0.000359605	0	5	0	
0.127	0.0058244	0.010522	0.000391437	0.000379004	0	5	0	
0.127167	-0.010274	-0.000560043	0.000441669	0.00029018	0	5	0	
0.127333	0.0115501	0.00430361	0.000433115	0.000193021	0	5	0	
0.1275	-0.0130853	0.00572423	0.00033407	0.00020303	0	5	0	
0.127667	0.00767598	-0.0113795	0.000247418	0.000238722	0	5	0	
0.127833	0.00350311	0.00171285	0.000194424	0.000262274	0	5	0	
0.128	-0.0023293	0.00371357	0.000130414	0.000253137	0	5	0	
0.128167	-0.00215486	0.00320686	0.000102756	0.00019917	0	5	0	
0.128333	-0.00202554	0.00355857	7.07733E-05	0.000186834	0	5	0	
0.1285	0.00852757	-0.00199372	9.93865E-05	9.9728E-05	0	5	0	
0.128667	-0.00421228	0.00271261	0.000152905	8.61976E-05	0	5	0	
0.128833	-0.00755995	0.00325921	0.000274586	8.02784E-05	0	5	0	
0.129	0.0180897	-0.00335908	0.000418863	0.000106165	0	5	0	
0.129167	-0.0311749	0.00483382	0.000518389	0.000133054	0	5	0	
0.129333	0.0196814	-0.000800258	0.000527786	0.000165016	0	5	0	
0.1295	0.00563004	-0.00215022	0.000468876	0.000200579	0	5	0	
0.129667	-0.018396	0.00595285	0.000374337	0.000205028	0	5	0	
0.129833	0.0191316	-0.00208445	0.000342755	0.000168135	0	5	0	
0.13	-0.0154298	0.00229446	0.000369532	0.000108896	0	5	0	
0.130167	-0.00322814	0.00343295	0.000490013	6.11837E-05	0	5	0	
0.130333	0.0207287	-0.00824797	0.000581467	8.00432E-05	0	5	0	
0.1305	-0.025227	0.0050577	0.00062442	0.000108938	0	5	0	
0.130667	0.0253868	-0.00219977	0.00057996	0.0001269	0	5	0	
0.130833	-0.0348934	0.00454658	0.000559096	0.000136082	0	5	0	
0.131	0.0221244	0.00213438	0.000543055	0.000187898	0	5	0	
0.131167	0.00549072	-0.00136891	0.000599781	0.000240705	0	5	0	
0.131333	-0.0202105	-0.000957226	0.000560903	0.000211148	0	5	0	
0.1315	0.0225458	-0.00352919	0.000490026	0.000136807	0	5	0	
0.131667	-0.0186801	0.0046384	0.000485554	9.18697E-05	0	5	0	
0.131833	-0.00255289	0.00518241	0.00060279	0.000102436	0	5	0	
0.132	0.0185743	-0.0108007	0.000765209	0.000141487	0	5	0	
0.132167	-0.0229116	0.00508341	0.00070553	0.000153745	0	5	0	
0.132333	0.0104183	-0.00166569	0.000546461	0.00017193	0	5	0	
0.1325	0.00434436	-0.0031027	0.000323728	0.000125841	0	5	0	
0.132667	-0.0047056	0.000420569	0.000189715	0.000114763	0	5	0	
0.132833	-0.00229896	0.00595167	0.000166468	0.000100887	0	5	0	
0.133	0.00715491	-0.0117048	0.000204454	0.00014262	0	5	0	
0.133167	-0.00650258	-0.00629669	0.00020944	0.000201452	0	5	0	
0.133333	-0.00508631	0.00397403	0.000193236	0.000276258	0	5	0	
0.1335	0.012189	-0.00810813	0.000164488	0.000236403	0	5	0	
0.133667	0.00360774	0.00265298	0.00022322	0.000217344	0	5	0	
0.133833	-0.00957772	0.00536746	0.000238201	0.000119204	0	5	0	
0.134	0.00784296	-0.00601173	0.000227893	0.000156444	0	5	0	
0.134167	-0.00368426	0.00671255	0.000169059	0.000150355	0	5	0	
0.134333	0.000997468	-0.00863156	0.000111562	0.000232594	0	5	0	
0.1345	0.0111219	-0.00622796	0.000102398	0.000310282	0	5	0	
0.134667	-0.00915112	0.0022493	0.000132061	0.000318908	0	5	0	
0.134833	-0.00415986	0.00483967	0.000274738	0.000297098	0	5	0	
0.135	0.0143832	-0.0163435	0.000364996	0.000266981	0	5	0	
0.135167	-0.00705459	0.0145313	0.000364741	0.00028188	0	5	0	
0.135333	-0.00278754	-0.00680726	0.000226335	0.000287407	0	5	0	
0.1355	0.00371072	0.00630643	0.000177237	0.000249816	0	5	0	
0.135667	0.00369231	-0.00865318	0.00023272	0.000220586	0	5	0	
0.135833	-0.0116933	-0.00699759	0.000270737	0.000185182	0	5	0	
0.136	0.00830503	-0.000586328	0.000242841	0.000174264	0	5	0	
0.136167	0.0037186	0.00476829	0.000169644	0.000198721	0	5	0	
0.136333	-0.0103712	-0.0015947	0.00014276	0.000203824	0	5	0	
0.1365	0.0112904	-0.00353907	0.000163584	0.000157126	0	5	0	
0.136667	-0.00488199	0.00261455	0.000214395	8.58674E-05	0	5	0	
0.136833	-0.00502777	0.000775796	0.000284222	6.73911E-05	0	5	0	
0.137	0.00836887	-0.00536452	0.000305742	9.30677E-05	0	5	0	
0.137167	-0.000480618	0.00345075	0.000262711	0.00011554	0	5	0	
0.137333	0.000109277	0.00223789	0.00016163	0.000107014	0	5	0	
0.1375	-0.00204144	-0.00377894	9.33326E-05	9.79051E-05	0	5	0	
0.137667	0.00928688	0.00417734	0.000115523	0.000120072	0	5	0	
0.137833	-0.0133189	-0.0128374	0.000179013	0.000196959	0	5	0	
0.138	0.0044362	0.0269019	0.000226897	0.000364111	0	5	0	
0.138167	0.0072406	0.0122001	0.000200603	0.000460882	0	5	0	
0.138333	-0.00566475	-0.00298831	0.000154942	0.000488468	0	5	0	
0.1385	0.00216246	0.0103005	0.000134701	0.000428752	0	5	0	
0.138667	0.00202394	-0.0157333	0.000132135	0.000338019	0	5	0	
0.138833	-0.00565964	0.0212607	0.000149792	0.000377271	0	5	0	
0.139	0.00774413	-0.0156432	0.000173145	0.000462619	0	5	0	
0.139167	-0.00326276	0.0294704	0.00020614	0.000661876	0	5	0	
0.139333	0.00974815	0.0148933	0.000213568	0.00059099	0	5	0	
0.1395	-0.00353317	-0.0221518	0.000205976	0.000518248	0	5	0	
0.139667	-0.00373972	0.00982822	0.000215452	0.000330201	0	5	0	
0.139833	0.00387446	0.0134527	0.000185917	0.000300902	0	5	0	
0.14	-0.00252953	-0.0108781	0.000176925	0.000265249	0	5	0	
0.140167	0.00313216	0.00293297	0.000161313	0.000210751	0	5	0	
0.140333	0.00468186	-0.00384926	0.000222322	0.000194186	0	5	0	
0.1405	-0.0147053	-0.00673142	0.000276951	0.000105387	0	5	0	
0.140667	0.0237349	0.0320977	0.00031763	0.000206275	0	5	0	
0.140833	-0.00662249	0.0224087	0.000326832	0.00034227	0	5	0	
0.141	-0.00738877	-0.0128613	0.000313527	0.000507397	0	5	0	
0.141167	0.0124605	-0.0133412	0.00026728	0.000491989	0	5	0	
0.141333	-0.00441765	0.00665275	0.000222915	0.000383501	0	5	0	
0.1415	0.00139891	-0.00484941	0.000185889	0.000255739	0	5	0	
0.141667	0.00518438	0.00649628	0.000215369	0.000234158	0	5	0	
0.141833	0.00141756	0.030747	0.000241394	0.000357533	0	5	0	
0.142	0.00572352	0.0109965	0.000203796	0.000415721	0	5	0	
0.142167	0.00253356	-0.0321872	0.000132698	0.000520891	0	5	0	
0.142333	-0.00123223	0.00737711	0.000112114	0.000471984	0	5	0	
0.1425	-0.000771086	0.00891944	0.000169246	0.000407098	0	5	0	
0.142667	0.00737936	-0.00415662	0.000210221	0.000284318	0	5	0	
0.142833	0.00209469	-0.00399244	0.000187629	0.000167058	0	5	0	
0.143	-0.00618419	-0.00438887	0.000146763	0.000155084	0	5	0	
0.143167	0.00506009	0.0116029	0.000154625	0.000148696	0	5	0	
0.143333	0.00590493	-0.00748998	0.000269947	0.000216401	0	5	0	
0.1435	-0.0172906	0.00466115	0.000307295	0.0002774	0	5	0	
0.143667	0.0103262	0.00663851	0.000314356	0.000241929	0	5	0	
0.143833	-0.00336453	-0.00448761	0.000215769	0.000198235	0	5	0	
0.144	-0.00561714	-0.000701139	0.000156949	0.000147452	0	5	0	
0.144167	0.00962033	0.00464778	0.000120927	0.000160476	0	5	0	
0.144333	-0.00851928	-0.0110135	0.000152502	0.000148171	0	5	0	
0.1445	-0.00702565	0.00942222	0.000260079	0.00016113	0	5	0	
0.144667	0.0109186	0.00500253	0.00033701	0.000207308	0	5	0	
0.144833	-0.00720842	-0.0106251	0.000325978	0.000304344	0	5	0	
0.145	0.00263858	0.0347392	0.00021924	0.000373594	0	5	0	
0.145167	0.00893169	-0.00529532	0.000134768	0.000451304	0	5	0	
0.145333	-0.0120447	0.00564107	0.00012711	0.00037586	0	5	0	
0.1455	-0.000127159	-0.00303809	0.00024673	0.000374556	0	5	0	
0.145667	0.0111656	-0.0172834	0.000411241	0.000293341	0	5	0	
0.145833	-0.0142931	0.0208572	0.000462234	0.000321699	0	5	0	
0.146	0.0111736	-0.000572008	0.000391466	0.0003259	0	5	0	
0.146167	-0.000985726	0.0108246	0.000221527	0.000396643	0	5	0	
0.146333	-0.000613842	0.00728462	0.000124324	0.000370786	0	5	0	
0.1465	0.0063481	-0.0139999	8.96237E-05	0.000346422	0	5	0	
0.146667	-0.0073396	-0.00114367	0.000149188	0.000253773	0	5	0	
0.146833	0.000879936	0.00374018	0.000232498	0.000216767	0	5	0	
0.147	0.00506219	-0.00921446	0.000293348	0.000217341	0	5	0	
0.147167	-0.00615462	-0.0178671	0.000311412	0.000223239	0	5	0	
0.147333	0.00327355	0.016348	0.000284549	0.000321515	0	5	0	
0.1475	0.00140654	-0.00140009	0.000224303	0.000267389	0	5	0	
0.147667	0.0028051	-0.00880415	0.000202229	0.000244298	0	5	0	
0.147833	-0.00606555	0.00722408	0.000230656	0.000207831	0	5	0	
0.148	0.0016595	-0.00901675	0.000218304	0.000230517	0	5	0	
0.148167	0.00309213	-0.00629137	0.000150438	0.000251489	0	5	0	
0.148333	-0.00302559	-0.00701697	0.000127134	0.000201716	0	5	0	
0.1485	-0.00141569	0.0119183	0.000182843	0.000214838	0	5	0	
0.148667	-0.000417215	-0.00280721	0.000230213	0.000208339	0	5	0	
0.148833	0.0028819	-0.00896652	0.000237287	0.000188653	0	5	0	
0.149	0.00317052	0.00877511	0.000266347	0.000164729	0	5	0	
0.149167	-0.0071985	0.000491505	0.000307021	0.000156168	0	5	0	
0.149333	-0.000460042	-0.00505222	0.000275021	0.000170248	0	5	0	
0.1495	0.00783139	0.0056418	0.000189646	0.000131253	0	5	0	
0.149667	-0.00960939	-0.00627227	0.00015234	0.000108095	0	5	0	
0.149833	0.00644915	0.000651611	0.000203015	8.8774E-05	0	5	0	
0.15	-0.00316655	0.00166554	0.000264892	9.36794E-05	0	5	0	
0.150167	0.00229205	0.000191995	0.000282485	8.58011E-05	0	5	0	
0.150333	0.00485072	-0.00469827	0.000266717	8.96502E-05	0	5	0	
0.1505	-0.00725554	0.00672426	0.000218886	8.57118E-05	0	5	0	
0.150667	0.00114254	-0.00100997	0.000183899	0.000102349	0	5	0	
0.150833	0.0128668	-0.00252342	0.000201207	0.000173388	0	5	0	
0.151	-0.0209738	0.00564681	0.000256528	0.000247903	0	5	0	
0.151167	0.0154384	-0.00859744	0.00032654	0.000263164	0	5	0	
0.151333	-0.00642494	0.00416229	0.000338366	0.000206029	0	5	0	
0.1515	0.00248454	-0.000543752	0.000320276	0.000149511	0	5	0	
0.151667	-0.000145278	-0.00544847	0.000267716	0.000130904	0	5	0	
0.151833	-0.00394153	0.0141449	0.00022129	0.000149395	0	5	0	
0.152	0.00464033	-0.0105507	0.000178885	0.000177393	0	5	0	
0.152167	-0.000781162	0.000841764	0.000124601	0.000202963	0	5	0	
0.152333	-0.0102606	0.00916632	0.000118512	0.000191583	0	5	0	
0.1525	0.0252098	-0.0134826	0.000178269	0.000257274	0	5	0	
0.152667	-0.0247107	-0.0078332	0.000317508	0.00024796	0	5	0	
0.152833	0.0115722	-0.000462997	0.000427648	0.000300829	0	5	0	
0.153	0.00370856	-0.00374692	0.000490713	0.000209378	0	5	0	
0.153167	-0.00889313	0.00167966	0.000418211	0.000197629	0	5	0	
0.153333	0.0031706	0.00603458	0.000284564	0.000161197	0	5	0	
0.1535	-0.000573351	-0.00932609	0.000166818	0.0002113	0	5	0	
0.153667	-0.00663402	-0.00894099	0.000208654	0.00025525	0	5	0	
0.153833	0.0263125	-0.00346196	0.00031453	0.000252904	0	5	0	
0.154	-0.0198587	0.00271893	0.000424482	0.000194455	0	5	0	
0.154167	0.00808824	-0.00223204	0.000389632	0.000126454	0	5	0	
0.154333	-0.00802174	0.00365863	0.000320769	0.00010887	0	5	0	
0.1545	0.00702021	-0.00134306	0.000216816	9.65433E-05	0	5	0	
0.154667	-0.00479526	0.000140014	0.000197356	0.00010949	0	5	0	
0.154833	0.00410856	0.00252705	0.000189614	9.23729E-05	0	5	0	
0.155	0.000896065	-0.0037962	0.000181417	0.000125366	0	5	0	
0.155167	-0.00671065	0.00474971	0.000178484	0.000114028	0	5	0	
0.155333	0.012661	0.00163088	0.000184663	0.000135129	0	5	0	
0.1555	-0.00742466	0.00105321	0.000199149	0.000131087	0	5	0	
0.155667	-0.00035955	-0.000330033	0.000195026	0.000147104	0	5	0	
0.155833	0.00711238	-0.00204002	0.000192478	0.000105598	0	5	0	
0.156	-0.0120197	0.00139449	0.000199533	6.62788E-05	0	5	0	
0.156167	0.017313	-0.00420436	0.000224207	7.04815E-05	0	5	0	
0.156333	-0.00994737	0.000995676	0.000287809	9.17736E-05	0	5	0	
0.1565	-0.00301047	0.00739865	0.00038301	0.000117069	0	5	0	
0.156667	0.0114023	-0.00399371	0.000429736	0.000141423	0	5	0	
0.156833	-0.012091	-0.00470331	0.000382774	0.000161453	0	5	0	
0.157	0.00674852	0.00429946	0.000287859	0.000151742	0	5	0	
0.157167	0.000812139	0.000518739	0.000168794	0.000128391	0	5	0	
0.157333	0.00279003	0.000509225	9.07839E-05	0.000149791	0	5	0	
0.1575	0.00390023	-0.00891323	6.04668E-05	0.000175709	0	5	0	
0.157667	-0.0292588	0.00312301	0.000149397	0.000170167	0	5	0	
0.157833	0.027815	0.00602402	0.000329452	0.000146996	0	5	0	
0.158	0.0387	0.00746756	0.000725474	0.000223012	0	5	0	
0.158167	-0.119403	-0.0726937	0.00106581	0.000430418	0	5	0	
0.158333	0.130639	0.333563	0.00219011	0.00163478	0	5	0	
0.1585	0.0297228	-0.134266	0.00291757	0.00373996	0	5	0	
0.158667	-0.091549	-0.0470304	0.00340156	0.00400629	0	5	0	
0.158833	0.0864529	0.0174592	0.00267674	0.00306704	0	5	0	
0.159	-0.00971637	0.0106279	0.00202911	0.00090944	0	5	0	
0.159167	-0.0525079	-0.0202782	0.00162997	0.00062301	0	5	0	
0.159333	0.135185	0.162229	0.00175344	0.00084022	0	5	0	
0.1595	-0.0419176	0.0538747	0.00159505	0.00216173	0	5	0	
0.159667	-0.0241722	-0.106523	0.00149474	0.00311356	0	5	0	
0.159833	0.0912674	0.115494	0.00134679	0.00315144	0	5	0	
0.16	-0.00297772	-0.0470777	0.00156617	0.00241373	0	5	0	
0.160167	-0.106236	-0.0191149	0.00188601	0.00136101	0	5	0	
0.160333	0.134091	0.128782	0.0021084	0.00115997	0	5	0	
0.1605	-0.0455511	-0.181731	0.00258056	0.00158701	0	5	0	
0.160667	-0.117965	0.166152	0.00294413	0.00262243	0	5	0	
0.160833	0.205776	-0.109302	0.00313727	0.00336228	0	5	0	
0.161	-0.0882455	0.073464	0.00286465	0.00382855	0	5	0	
0.161167	-0.0205913	-0.12377	0.00255956	0.00399094	0	5	0	
0.161333	0.119115	0.156356	0.00237515	0.00396173	0	5	0	
0.1615	-0.089396	-0.0439666	0.00209587	0.00344883	0	5	0	
0.161667	-0.0871177	-0.0723951	0.00219018	0.00272031	0	5	0	
0.161833	0.232338	0.0540937	0.00221648	0.00247649	0	5	0	
0.162	0.0291661	-0.0372547	0.00239225	0.00252763	0	5	0	
0.162167	-0.051789	-0.189166	0.00225485	0.0025455	0	5	0	
0.162333	0.0229883	0.0598707	0.0016676	0.00288148	0	5	0	
0.1625	0.00199925	0.203236	0.00116823	0.00291802	0	5	0	
0.162667	-0.00539192	-0.200687	0.000740712	0.00395291	0	5	0	
0.162833	0.0472335	-0.0113529	0.000612752	0.00358576	0	5	0	
0.163	-0.00669219	0.177937	0.000823965	0.00360416	0	5	0	
0.163167	0.0514958	-0.178863	0.00156356	0.00526328	0	5	0	
0.163333	0.0325359	-0.0548274	0.00232849	0.00870028	0	5	0	
0.1635	-0.0339271	0.230863	0.00276084	0.0111996	0	5	0	
0.163667	-0.132714	-0.00354844	0.00330076	0.0110757	0	5	0	
0.163833	0.20692	-0.0506942	0.00344357	0.00894524	0	5	0	
0.164	-0.119512	0.0624367	0.00365495	0.00592802	0	5	0	
0.164167	0.128577	0.0681481	0.00355734	0.00402941	0	5	0	
0.164333	-0.136051	0.217671	0.0037163	0.00262311	0	5	0	
0.1645	0.032511	-0.264149	0.00344824	0.00411955	0	5	0	
0.164667	0.126435	0.415754	0.00272076	0.00608643	0	5	0	
0.164833	-0.296375	-0.301748	0.00297827	0.00830758	0	5	0	
0.165	0.154214	0.0810686	0.00404844	0.0074344	0	5	0	
0.165167	0.249891	0.392798	0.00444277	0.00544993	0	5	0	
0.165333	-0.319214	-0.111862	0.004402	0.00502521	0	5	0	
0.1655	0.215073	-0.139959	0.00409751	0.00590622	0	5	0	
0.165667	0.177549	0.046541	0.00446956	0.00643171	0	5	0	
0.165833	-0.104535	-0.00443519	0.00402586	0.00433502	0	5	0	
0.166	-0.361066	-0.270503	0.00382951	0.00356289	0	5	0	
0.166167	0.503715	0.534971	0.00623473	0.0047194	0	5	0	
0.166333	-0.201092	-0.561937	0.00770769	0.00877802	0	5	0	
0.1665	0.168907	0.550911	0.00804044	0.0104545	0	5	0	
0.166667	-0.426525	-0.336463	0.00749521	0.0108593	0	5	0	
0.166833	0.579593	0.0770451	0.00853168	0.00782977	0	5	0	
0.167	0.0315307	0.0820052	0.00928429	0.00610618	0	5	0	
0.167167	-0.626298	-0.247422	0.00767532	0.00645255	0	5	0	
0.167333	0.294873	0.330307	0.00764249	0.00913564	0	5	0	
0.1675	0.0948542	-0.181735	0.00773201	0.0102486	0	5	0	
0.167667	-0.10434	-0.00887227	0.00693352	0.0073937	0	5	0	
0.167833	-0.0610599	0.483367	0.00460019	0.00506368	0	5	0	
0.168	-0.026439	-0.359417	0.00401052	0.00596654	0	5	0	
0.168167	0.193258	0.317774	0.00395132	0.00712535	0	5	0	
0.168333	-0.0386591	-0.148675	0.00521523	0.00675383	0	5	0	
0.1685	-0.37777	0.284695	0.00591119	0.00512513	0	5	0	
0.168667	0.361263	-0.319079	0.0076073	0.00604035	0	5	0	
0.168833	0.164241	0.0497356	0.00861245	0.00750668	0	5	0	
0.169	-0.412939	-0.0357391	0.00864819	0.00809602	0	5	0	
0.169167	0.310505	0.195159	0.00827502	0.00741394	0	5	0	
0.169333	-0.130653	-0.0395971	0.00669435	0.00705749	0	5	0	
0.1695	-0.11593	-0.059999	0.00642473	0.00692331	0	5	0	
0.169667	0.188169	0.253301	0.00716894	0.00759965	0	5	0	
0.169833	-0.132469	-0.52707	0.00716036	0.00922928	0	5	0	
0.17	0.0571058	0.333093	0.0052943	0.0104847	0	5	0	
0.170167	0.189077	-0.463598	0.00301296	0.0100426	0	5	0	
0.170333	-0.045951	0.400269	0.00216206	0.00870385	0	5	0	
0.1705	0.0521948	-0.111589	0.00205361	0.00690392	0	5	0	
0.170667	-0.239763	-0.0787302	0.00243691	0.00490684	0	5	0	
0.170833	0.230314	0.185466	0.00291645	0.00368386	0	5	0	
0.171	0.0536377	-0.227261	0.00421261	0.00557859	0	5	0	
0.171167	0.113795	-0.0341205	0.00414687	0.00872313	0	5	0	
0.171333	-0.10082	0.0101702	0.00370377	0.00993019	0	5	0	
0.1715	0.166746	-0.119328	0.00290056	0.00745034	0	5	0	
0.171667	0.0235278	-0.216145	0.00283968	0.00473417	0	5	0	
0.171833	0.0281938	0.347792	0.00219204	0.00371858	0	5	0	
0.172	-0.0390585	-0.410435	0.00196823	0.00562794	0	5	0	
0.172167	0.0839943	0.259763	0.00165831	0.00610552	0	5	0	
0.172333	0.059811	-0.131292	0.00226382	0.00607231	0	5	0	
0.1725	0.00540442	-0.156838	0.00175297	0.00388698	0	5	0	
0.172667	-0.106835	-0.121432	0.00244578	0.00331696	0	5	0	
0.172833	0.208315	0.0723567	0.00237705	0.00338414	0	5	0	
0.173	-0.0831291	-0.221732	0.00374276	0.00379448	0	5	0	
0.173167	-0.0972655	0.147932	0.00389729	0.00402207	0	5	0	
0.173333	0.122978	-0.00669037	0.00395907	0.00321466	0	5	0	
0.1735	-0.0325543	-0.0253528	0.00288117	0.00244315	0	5	0	
0.173667	-0.0360289	0.0216761	0.00173272	0.00284008	0	5	0	
0.173833	0.027906	-0.00271929	0.0011175	0.00322872	0	5	0	
0.174	-0.0765924	-0.0335271	0.001242	0.00350132	0	5	0	
0.174167	0.0729189	0.000732058	0.00120263	0.00232113	0	5	0	
0.174333	0.00590445	0.0310736	0.00145773	0.00119515	0	5	0	
0.1745	-0.0950843	-0.0630451	0.00167726	0.000802666	0	5	0	
0.174667	0.0756885	0.0385995	0.00196316	0.00184144	0	5	0	
0.174833	-0.0790856	0.153656	0.00199546	0.00300483	0	5	0	
0.175	-0.00563514	-0.164338	0.00160168	0.00380739	0	5	0	
0.175167	0.0337279	0.0545413	0.00142955	0.0034176	0	5	0	
0.175333	-0.0251449	-0.0331169	0.00103569	0.00284101	0	5	0	
0.1755	0.153039	0.0251013	0.00138895	0.00217646	0	5	0	
0.175667	-0.0568525	-0.168905	0.00128001	0.0019552	0	5	0	
0.175833	0.0370631	0.082091	0.00190766	0.00205187	0	5	0	
0.176	-0.0957813	0.00778693	0.00226344	0.00207515	0	5	0	
0.176167	0.016514	0.0725308	0.00277325	0.00195948	0	5	0	
0.176333	0.0875303	0.0553611	0.00254507	0.00196672	0	5	0	
0.1765	0.0150066	-0.144342	0.00200792	0.00242998	0	5	0	
0.176667	0.00458312	0.113217	0.00208382	0.00279059	0	5	0	
0.176833	0.130777	-0.0704049	0.00219693	0.00360583	0	5	0	
0.177	-0.0877613	-0.0284373	0.00228058	0.00376136	0	5	0	
0.177167	0.0126225	0.0663936	0.00178991	0.00375381	0	5	0	
0.177333	-0.00428645	0.135546	0.00141653	0.00394407	0	5	0	
0.1775	-0.0687945	-0.0713448	0.00116688	0.00476338	0	5	0	
0.177667	0.100419	0.0231487	0.0013542	0.00460247	0	5	0	
0.177833	-0.00142306	0.0379154	0.00123315	0.00289392	0	5	0	
0.178	-0.0396859	-0.0713734	0.00131296	0.00159581	0	5	0	
0.178167	0.0823031	0.0899441	0.00123011	0.00147347	0	5	0	
0.178333	-0.0605871	-0.161855	0.00145763	0.00219607	0	5	0	
0.1785	0.0153026	0.128655	0.00157374	0.00264132	0	5	0	
0.178667	-0.00175841	-0.124019	0.0015391	0.00272584	0	5	0	
0.178833	0.0120796	0.15118	0.00138281	0.00291358	0	5	0	
0.179	-0.0288873	-0.0826636	0.00115819	0.00292112	0	5	0	
0.179167	-0.0126621	0.0247541	0.00117875	0.00303139	0	5	0	
0.179333	0.0264183	-0.1198	0.00135458	0.00295038	0	5	0	
0.1795	0.0137968	0.146368	0.00138418	0.00323376	0	5	0	
0.179667	0.00624226	-0.112466	0.00128074	0.00330566	0	5	0	
0.179833	-0.0330076	0.0562239	0.00113447	0.00292309	0	5	0	
0.18	-0.0211097	0.00452485	0.0009112	0.00192045	0	5	0	
0.180167	0.051362	0.0207401	0.000983882	0.00153006	0	5	0	
0.180333	-0.0796586	-0.105347	0.00113073	0.00144185	0	5	0	
0.1805	0.0768087	0.10616	0.00149377	0.00218674	0	5	0	
0.180667	-0.0514145	-0.0525643	0.00154301	0.00241048	0	5	0	
0.180833	0.0304557	0.07157	0.00150617	0.00215703	0	5	0	
0.181	-0.0111946	-0.0491892	0.00133851	0.00157092	0	5	0	
0.181167	-0.0374705	0.00459417	0.000995722	0.00142459	0	5	0	
0.181333	0.0349047	0.0043635	0.000846498	0.00147246	0	5	0	
0.1815	0.0398699	0.0213925	0.00075288	0.00110455	0	5	0	
0.181667	-0.108148	-0.11809	0.00108462	0.00103963	0	5	0	
0.181833	0.164285	0.220245	0.00179664	0.0014456	0	5	0	
0.182	-0.0107123	-0.170418	0.00249353	0.00295324	0	5	0	
0.182167	-0.115246	-0.0218201	0.00320084	0.00301472	0	5	0	
0.182333	0.110791	-0.00212534	0.00306989	0.00319282	0	5	0	
0.1825	-0.0871682	-0.0358195	0.00270727	0.00255916	0	5	0	
0.182667	0.0280506	0.110386	0.00189295	0.00275988	0	5	0	
0.182833	0.041518	-0.0700659	0.00177248	0.00225622	0	5	0	
0.183	-0.0723372	0.0794216	0.002037	0.00217214	0	5	0	
0.183167	0.113738	-0.0230957	0.00225546	0.00234422	0	5	0	
0.183333	-0.098177	-0.145591	0.00234738	0.00222542	0	5	0	
0.1835	0.0112047	0.127131	0.00217512	0.00242109	0	5	0	
0.183667	-0.00560352	-0.0823625	0.00208941	0.00198617	0	5	0	
0.183833	-0.0209788	0.117744	0.00161453	0.00242947	0	5	0	
0.184	-0.00321625	-0.0657963	0.00117473	0.00198748	0	5	0	
0.184167	-0.0271284	0.0737731	0.000754798	0.00231803	0	5	0	
0.184333	0.0153428	-0.0135185	0.000575062	0.0021496	0	5	0	
0.1845	0.00015536	-0.0328222	0.000353032	0.00185961	0	5	0	
0.184667	-0.0129671	0.0405155	0.000305049	0.00126615	0	5	0	
0.184833	0.0238478	-0.009576	0.000271927	0.000778168	0	5	0	
0.185	-0.0141033	-0.0113328	0.000347576	0.000459883	0	5	0	
0.185167	-0.00630039	0.0155446	0.000371164	0.000311456	0	5	0	
0.185333	0.010503	-0.0211219	0.000344366	0.00025758	0	5	0	
0.1855	0.00306751	0.0139798	0.00028239	0.00033814	0	5	0	
0.185667	-0.0186154	0.0016539	0.000252452	0.000397387	0	5	0	
0.185833	0.0139961	0.00297347	0.000253802	0.000490235	0	5	0	
0.186	0.00336001	7.91106E-05	0.000335832	0.000468235	0	5	0	
0.186167	-0.00742054	0.000142432	0.000278931	0.000326903	0	5	0	
0.186333	-0.00638655	-0.00443807	0.000272369	0.000146064	0	5	0	
0.1865	0.0185499	0.00661335	0.000218581	8.84009E-05	0	5	0	
0.186667	-0.0165197	-0.00678115	0.000289038	0.000101477	0	5	0	
0.186833	0.0100262	-0.000250222	0.000324008	0.000153185	0	5	0	
0.187	-0.00553598	-0.000338337	0.000321326	0.000187623	0	5	0	
0.187167	0.00455104	-0.000334931	0.000267005	0.000176337	0	5	0	
0.187333	-0.00393219	0.00340082	0.000197286	0.000149118	0	5	0	
0.1875	0.00745656	-0.00167304	0.000180331	0.000117332	0	5	0	
0.187667	-0.0124005	-0.00798003	0.000201452	0.000140683	0	5	0	
0.187833	0.0129976	0.0144084	0.000252927	0.000165365	0	5	0	
0.188	-0.00602083	-0.0148952	0.000300721	0.000229289	0	5	0	
0.188167	0.00254756	0.00437956	0.000274857	0.000279972	0	5	0	
0.188333	-0.00741143	0.0111465	0.000186532	0.00030466	0	5	0	
0.1885	0.00936167	-0.0138394	0.000144096	0.000327692	0	5	0	
0.188667	-0.002236	0.0206696	0.000169473	0.000339876	0	5	0	
0.188833	0.00712029	0.000477194	0.000198038	0.000300528	0	5	0	
0.189	-0.0204179	-0.00248802	0.000223266	0.000247004	0	5	0	
0.189167	0.022319	-0.00518415	0.000280056	0.000182474	0	5	0	
0.189333	-0.0148921	-0.009084	0.00035809	0.000178969	0	5	0	
0.1895	0.0103902	0.011765	0.00038924	0.000161472	0	5	0	
0.189667	-0.007402	0.000139408	0.000371476	0.000156702	0	5	0	
0.189833	0.00209146	0.0158294	0.000359283	0.000226016	0	5	0	
0.19	0.00813207	-0.00614249	0.000333249	0.000262241	0	5	0	
0.190167	-0.00438662	0.0104609	0.00024081	0.000253612	0	5	0	
0.190333	-0.0104631	-0.0185914	0.000258426	0.000267743	0	5	0	
0.1905	0.0225926	0.0252342	0.000292433	0.0002983	0	5	0	
0.190667	-0.0210126	-0.0113964	0.000388959	0.000419899	0	5	0	
0.190833	0.017935	-0.00577756	0.000420428	0.000621408	0	5	0	
0.191	-0.0156007	0.0210712	0.000429529	0.000813911	0	5	0	
0.191167	0.00116742	-0.0436891	0.000430314	0.000930386	0	5	0	
0.191333	-0.000734968	0.0355772	0.000573721	0.00077178	0	5	0	
0.1915	0.0562048	-0.0237757	0.000876749	0.000771688	0	5	0	
0.191667	-0.021857	-0.00630801	0.00113684	0.000710089	0	5	0	
0.191833	0.0048097	0.0232697	0.00105592	0.000685135	0	5	0	
0.192	-0.0413739	-0.0497916	0.000782718	0.000663028	0	5	0	
0.192167	0.0491952	0.0112971	0.000810682	0.000607448	0	5	0	
0.192333	-0.0436816	-0.00489563	0.000907151	0.000711323	0	5	0	
0.1925	0.0616471	-0.0129618	0.00110875	0.000614928	0	5	0	
0.192667	0.010262	0.00383872	0.00100634	0.000636226	0	5	0	
0.192833	-0.0314343	-0.0150304	0.000916199	0.000541374	0	5	0	
0.193	-0.000291394	0.0104102	0.000707646	0.000487407	0	5	0	
0.193167	-0.00504626	-0.00694937	0.000509908	0.000398123	0	5	0	
0.193333	0.0522604	-0.0983746	0.000506114	0.000519197	0	5	0	
0.1935	-0.0899091	0.227959	0.000994562	0.00170171	0	5	0	
0.193667	-0.00353031	-0.113078	0.00120553	0.0027811	0	5	0	
0.193833	0.0322347	0.0396195	0.0012578	0.00335698	0	5	0	
0.194	-0.0205787	-0.0303163	0.000770399	0.00226842	0	5	0	
0.194167	-0.0337022	0.0559019	0.000613526	0.00154751	0	5	0	
0.194333	0.0269053	0.00413777	0.000595837	0.000858058	0	5	0	
0.1945	-0.0699474	-0.134395	0.000824664	0.00163214	0	5	0	
0.194667	-0.0111601	0.221804	0.000948384	0.00329939	0	5	0	
0.194833	-0.00554566	-0.157205	0.000883703	0.00429924	0	5	0	
0.195	-0.00622039	0.097978	0.000634466	0.00449679	0	5	0	
0.195167	-0.0172921	-0.045521	0.000530681	0.00283833	0	5	0	
0.195333	0.0365726	0.0336073	0.000659565	0.00217521	0	5	0	
0.1955	-0.0656264	-0.0991927	0.000953516	0.00172379	0	5	0	
0.195667	0.0415116	0.0791145	0.000942419	0.00249276	0	5	0	
0.195833	-0.0366454	0.0504508	0.00105724	0.00273694	0	5	0	
0.196	0.00311275	-0.0326972	0.000961449	0.0022905	0	5	0	
0.196167	0.0443301	0.0235467	0.000926278	0.0013344	0	5	0	
0.196333	-0.0408587	-0.20941	0.000786118	0.00185333	0	5	0	
0.1965	0.0375111	0.238391	0.00067883	0.00322062	0	5	0	
0.196667	0.000683303	0.0252599	0.000729884	0.0039473	0	5	0	
0.196833	-0.0139359	-0.170034	0.000518096	0.00345544	0	5	0	
0.197	0.000689521	0.17587	0.000668172	0.00314783	0	5	0	
0.197167	-0.00991018	-0.0062235	0.000885774	0.00322277	0	5	0	
0.197333	0.0297364	-0.0545861	0.000973409	0.00308282	0	5	0	
0.1975	-0.031343	0.0412863	0.000699133	0.00212995	0	5	0	
0.197667	0.0317134	0.109605	0.000726773	0.00175923	0	5	0	
0.197833	0.00971008	-0.0640227	0.000658765	0.00191129	0	5	0	
0.198	-0.0719532	-0.121477	0.000907541	0.00224862	0	5	0	
0.198167	0.0423602	0.191522	0.000922685	0.0029097	0	5	0	
0.198333	-0.0273693	-0.021063	0.00107063	0.00299466	0	5	0	
0.1985	0.0358238	0.00462702	0.00101678	0.00251922	0	5	0	
0.198667	-0.0116762	-0.0279463	0.000762702	0.00151243	0	5	0	
0.198833	-0.0107119	0.0129377	0.000628472	0.000868516	0	5	0	
0.199	0.00222287	0.0267317	0.000382943	0.000674393	0	5	0	
0.199167	0.00709308	-0.02015	0.000249908	0.000520429	0	5	0	
0.199333	-0.00421768	0.0323293	0.000198285	0.000508917	0	5	0	
0.1995	0.00901214	-0.0187805	0.000197102	0.000705597	0	5	0	
0.199667	-0.00158701	-0.00498104	0.000270433	0.000679776	0	5	0	
0.199833	0.00632242	0.00857914	0.000252833	0.000620151	0	5	0	
0.2	-0.0325768	-0.0209328	0.000370205	0.000443259	0	5	0	
0.200167	0.0484653	0.00977816	0.000481789	0.000341746	0	5	0	
0.200333	-0.0205849	0.00975964	0.000679677	0.000320924	0	5	0	
0.2005	0.0022519	-0.0447681	0.000825956	0.000603147	0	5	0	
0.200667	0.00747273	0.0301352	0.000785776	0.00107306	0	5	0	
0.200833	-0.0161992	-0.0218626	0.000573163	0.00118087	0	5	0	
0.201	0.0143825	0.013961	0.000380991	0.000902873	0	5	0	
0.201167	0.00529851	-0.0338779	0.000343818	0.000517459	0	5	0	
0.201333	-0.0415635	-0.0298726	0.000516891	0.000648542	0	5	0	
0.2015	0.0355128	0.0430927	0.000566947	0.00091997	0	5	0	
0.201667	-0.0100993	-0.0621413	0.000707954	0.00106004	0	5	0	
0.201833	-0.0131179	0.020547	0.000738433	0.00104252	0	5	0	
0.202	0.00551427	0.00410121	0.000619327	0.000726363	0	5	0	
0.202167	0.0151834	0.00925698	0.000452662	0.000522881	0	5	0	
0.202333	-0.0597399	-0.0607758	0.000460096	0.000460388	0	5	0	
0.2025	0.0481224	0.0233323	0.00064502	0.000881816	0	5	0	
0.202667	-0.0377444	0.0137431	0.000841252	0.000930294	0	5	0	
0.202833	0.00702653	-0.0250997	0.000890766	0.000813102	0	5	0	
0.203	0.0102397	-0.00171756	0.000856966	0.000440253	0	5	0	
0.203167	-0.00014887	0.0116783	0.000572876	0.000389127	0	5	0	
0.203333	-0.0100953	-0.00742136	0.000306738	0.000296629	0	5	0	
0.2035	0.00384383	0.00504768	0.000148428	0.000246276	0	5	0	
0.203667	0.0010113	0.000390114	0.00012369	0.000203213	0	5	0	
0.203833	0.00757265	-0.00998461	0.000116589	0.000149349	0	5	0	
0.204	-0.0172272	0.00333159	0.000133856	0.000129746	0	5	0	
0.204167	0.0264491	0.00502823	0.000250899	0.000147373	0	5	0	
0.204333	-0.0230934	-0.0154291	0.000374607	0.000168501	0	5	0	
0.2045	0.0130927	0.00889013	0.000455914	0.000225558	0	5	0	
0.204667	-0.00313237	0.00375378	0.000434802	0.000236092	0	5	0	
0.204833	0.00959017	0.00414544	0.000344689	0.000223964	0	5	0	
0.205	-0.0196223	0.000602982	0.000262047	0.000205601	0	5	0	
0.205167	0.0412655	0.0153818	0.000356403	0.000178365	0	5	0	
0.205333	0.00946317	-0.100253	0.000422275	0.00065418	0	5	0	
0.2055	-0.00690832	0.0655413	0.000601466	0.00109097	0	5	0	
0.205667	-0.00571596	-0.0489508	0.000681814	0.00163379	0	5	0	
0.205833	0.0200173	-0.00226386	0.000700017	0.00158082	0	5	0	
0.206	-0.0378682	0.00199969	0.000622904	0.00108695	0	5	0	
0.206167	0.0306317	0.0596428	0.000540651	0.000966029	0	5	0	
0.206333	-0.0102626	-0.0631762	0.000651575	0.00124424	0	5	0	
0.2065	0.00623789	0.0643832	0.000793876	0.00178989	0	5	0	
0.206667	-0.0583796	-0.188791	0.0011695	0.00198418	0	5	0	
0.206833	0.00064121	0.237561	0.00118648	0.00282567	0	5	0	
0.207	0.0746448	-0.0559492	0.000991974	0.00340229	0	5	0	
0.207167	-0.0474264	-0.216987	0.000717153	0.00375251	0	5	0	
0.207333	-0.0242116	0.306985	0.000776897	0.00419784	0	5	0	
0.2075	0.0108274	-0.119617	0.00106182	0.00434682	0	5	0	
0.207667	-0.0587412	0.0499248	0.00104585	0.00405467	0	5	0	
0.207833	-0.0453652	-0.0357683	0.000946915	0.00219489	0	5	0	
0.208	0.120555	0.204834	0.000842666	0.00192133	0	5	0	
0.208167	-0.00714964	-0.343669	0.00116242	0.00353228	0	5	0	
0.208333	0.0618384	0.214281	0.00177687	0.00485139	0	5	0	
0.2085	0.0617391	-0.15441	0.00213278	0.00536797	0	5	0	
0.208667	-0.037751	0.0313576	0.00196229	0.00358467	0	5	0	
0.208833	0.0385711	-0.000300075	0.00136001	0.00233474	0	5	0	
0.209	0.020255	-0.00255182	0.00112853	0.00149121	0	5	0	
0.209167	-0.083702	-0.107744	0.00139316	0.0021494	0	5	0	
0.209333	0.16868	0.173922	0.00184325	0.0033764	0	5	0	
0.2095	-0.0240095	-0.26979	0.00204673	0.00463416	0	5	0	
0.209667	0.0363748	0.162125	0.00198649	0.00481976	0	5	0	
0.209833	0.0419158	-0.154611	0.00160609	0.00431649	0	5	0	
0.21	-0.0105661	0.0278091	0.00120181	0.00309456	0	5	0	
0.210167	-0.00576062	0.0818721	0.000603242	0.0022742	0	5	0	
0.210333	-0.0301642	-0.151093	0.000551671	0.00229824	0	5	0	
0.2105	0.0139086	0.112092	0.000458202	0.00286612	0	5	0	
0.210667	-0.0540056	-0.0369385	0.000624676	0.00291023	0	5	0	
0.210833	0.019949	0.0434698	0.000617348	0.00252849	0	5	0	
0.211	-0.0597309	-0.0500944	0.00101365	0.00185922	0	5	0	
0.211167	0.0295205	0.187605	0.00117077	0.00257488	0	5	0	
0.211333	-0.0525805	-0.297144	0.0012509	0.00324579	0	5	0	
0.2115	0.052077	0.253804	0.00102863	0.00456825	0	5	0	
0.211667	-0.014242	-0.118121	0.00118318	0.00426532	0	5	0	
0.211833	-0.059646	0.0772122	0.0013045	0.00393956	0	5	0	
0.212	-0.0357498	-0.125572	0.00131212	0.0027196	0	5	0	
0.212167	0.0462144	0.120228	0.0013824	0.00292108	0	5	0	
0.212333	-0.0767736	-0.101372	0.00141488	0.00327309	0	5	0	
0.2125	0.0695491	0.0888144	0.0015192	0.00348354	0	5	0	
0.212667	-0.0556348	-0.099973	0.00127904	0.00285563	0	5	0	
0.212833	0.0614186	0.109581	0.00128441	0.00208839	0	5	0	
0.213	-0.0223419	-0.101865	0.0012911	0.0019707	0	5	0	
0.213167	-0.00693607	-0.046346	0.00135573	0.00171608	0	5	0	
0.213333	0.0289779	0.0519826	0.000988824	0.00163277	0	5	0	
0.2135	-1.19685E-05	-0.00958576	0.000678289	0.00113841	0	5	0	
0.213667	-0.00848789	-0.0184637	0.000334834	0.000925029	0	5	0	
0.213833	0.00228882	0.0252315	0.000331207	0.000689754	0	5	0	
0.214	-0.00411343	-0.0398728	0.000248797	0.000780969	0	5	0	
0.214167	0.0253463	0.0184698	0.000283239	0.00107286	0	5	0	
0.214333	-0.0136773	-0.0130378	0.000261325	0.00119104	0	5	0	
0.2145	0.00886486	0.010574	0.000396878	0.00098539	0	5	0	
0.214667	-0.000684724	-0.00591219	0.000421113	0.000731923	0	5	0	
0.214833	-0.000150875	-0.00401231	0.000348582	0.000648391	0	5	0	
0.215	0.00735943	0.0254131	0.000200109	0.000645215	0	5	0	
0.215167	-0.000275617	-0.0168215	9.88309E-05	0.000560109	0	5	0	
0.215333	-0.00128302	0.00519019	0.000102925	0.000386323	0	5	0	
0.2155	0.0141421	-0.0343654	0.000197397	0.000361174	0	5	0	
0.215667	-0.0421066	-0.0132259	0.000356964	0.000610811	0	5	0	
0.215833	0.0796484	0.0757839	0.000615222	0.000854806	0	5	0	
0.216	-0.074223	-0.18077	0.00110558	0.00155597	0	5	0	
0.216167	-0.0645229	0.0637403	0.00162912	0.00222999	0	5	0	
0.216333	0.0974635	0.0712969	0.00200513	0.00243417	0	5	0	
0.2165	-0.0714285	-0.0896971	0.00194035	0.00227027	0	5	0	
0.216667	0.0167275	-0.0129379	0.00174874	0.00181064	0	5	0	
0.216833	0.0699171	0.0417705	0.00171027	0.0014889	0	5	0	
0.217	-0.0698172	-0.0663119	0.00180045	0.00139167	0	5	0	
0.217167	0.0234008	-0.0466078	0.00157396	0.00177554	0	5	0	
0.217333	-0.0355755	0.0141438	0.00150203	0.00231524	0	5	0	
0.2175	-0.0168756	0.0548067	0.00133224	0.00210523	0	5	0	
0.217667	0.0160571	-0.0181415	0.00119843	0.00160169	0	5	0	
0.217833	0.0102134	0.0285636	0.000767763	0.00122436	0	5	0	
0.218	0.000499077	-0.00367746	0.000442114	0.00111851	0	5	0	
0.218167	0.0109507	-0.00641009	0.000356695	0.000847273	0	5	0	
0.218333	-0.0194557	-0.0103495	0.000387106	0.000729405	0	5	0	
0.2185	-0.00604729	-0.0212276	0.0004114	0.000719148	0	5	0	
0.218667	0.0193778	0.0675349	0.000505327	0.000839879	0	5	0	
0.218833	-0.00938366	0.0193678	0.00042403	0.000939238	0	5	0	
0.219	-0.0219039	-0.00540374	0.000361506	0.000910507	0	5	0	
0.219167	0.0423434	-0.0354245	0.000417544	0.000882706	0	5	0	
0.219333	-0.0204558	0.0232091	0.000614646	0.000811079	0	5	0	
0.2195	0.00622469	-0.0139029	0.000682978	0.000794478	0	5	0	
0.219667	-0.00886504	0.0035136	0.000499361	0.000703861	0	5	0	
0.219833	0.0192894	0.00325974	0.00035425	0.000487737	0	5	0	
0.22	-0.0158163	0.0129825	0.000332322	0.000332001	0	5	0	
0.220167	0.0263035	-0.0428053	0.000472879	0.000472502	0	5	0	
0.220333	0.00272676	0.0247135	0.000479139	0.000824474	0	5	0	
0.2205	-0.00633421	-0.0309943	0.00041891	0.00100521	0	5	0	
0.220667	-0.0105005	0.0227103	0.000286143	0.000899596	0	5	0	
0.220833	0.0312152	-0.0100786	0.000264293	0.000597173	0	5	0	
0.221	-0.0259636	-0.00905988	0.000374249	0.000354558	0	5	0	
0.221167	0.0150186	0.0247066	0.00045181	0.000268032	0	5	0	
0.221333	-0.0153046	-0.0372314	0.000453936	0.000348219	0	5	0	
0.2215	0.0236091	0.041498	0.000405644	0.000595948	0	5	0	
0.221667	-0.0089644	-0.0280302	0.000382419	0.000746552	0	5	0	
0.221833	-0.0113554	0.00458587	0.000389065	0.000732807	0	5	0	
0.222	0.0164096	0.00242415	0.000320051	0.000566842	0	5	0	
0.222167	0.000654853	-0.00721595	0.000340339	0.00037521	0	5	0	
0.222333	-0.020986	0.00026146	0.000380055	0.000226433	0	5	0	
0.2225	0.0284041	0.0116438	0.000457779	0.000244724	0	5	0	
0.222667	-0.0174158	-0.0283407	0.000462259	0.000346372	0	5	0	
0.222833	0.0118335	0.0186194	0.000380765	0.000481524	0	5	0	
0.223	-0.0124274	-0.00468066	0.000307441	0.000396114	0	5	0	
0.223167	0.0138552	-0.00598349	0.000244099	0.000299395	0	5	0	
0.223333	-0.0147048	0.0118459	0.000251984	0.000198175	0	5	0	
0.2235	0.00998266	-0.00683377	0.00026093	0.00020645	0	5	0	
0.223667	0.00266037	-0.0221746	0.000276646	0.00029966	0	5	0	
0.223833	-0.00313554	0.0321208	0.000205815	0.000514155	0	5	0	
0.224	-0.00432895	-0.0230708	0.000200718	0.000659085	0	5	0	
0.224167	0.0106656	0.0179774	0.000183466	0.000600679	0	5	0	
0.224333	-0.00937626	-0.0137934	0.000237389	0.000470407	0	5	0	
0.2245	0.0128875	-0.000828555	0.000247001	0.000407249	0	5	0	
0.224667	-0.0228087	0.0182731	0.000306507	0.000375996	0	5	0	
0.224833	0.0130757	-0.0291181	0.000333878	0.000457834	0	5	0	
0.225	0.00499231	0.0229714	0.000382433	0.000685871	0	5	0	
0.225167	-0.0100689	0.00653299	0.000298955	0.000831891	0	5	0	
0.225333	-0.00353383	-0.01385	0.000318833	0.0006948	0	5	0	
0.2255	0.0150767	0.0116047	0.00033308	0.000399703	0	5	0	
0.225667	-0.0197021	-0.0039118	0.000404543	0.000218138	0	5	0	
0.225833	0.0116232	-0.0200429	0.000374056	0.000234633	0	5	0	
0.226	0.0130621	0.0572526	0.000316277	0.000387915	0	5	0	
0.226167	-0.00847933	-0.0263273	0.000268274	0.000694943	0	5	0	
0.226333	-0.00805231	0.00416906	0.000391131	0.000747937	0	5	0	
0.2265	0.0316382	0.0111889	0.000461598	0.000674938	0	5	0	
0.226667	-0.0178531	-0.0135284	0.000522944	0.000419834	0	5	0	
0.226833	0.00730717	-0.00601908	0.000447566	0.00030792	0	5	0	
0.227	0.00378512	0.00887071	0.000370583	0.000216381	0	5	0	
0.227167	-0.0166592	0.0141588	0.000335922	0.000248285	0	5	0	
0.227333	-0.0119935	0.0808055	0.000494746	0.000782597	0	5	0	
0.2275	0.0485043	0.00988765	0.000734598	0.00106571	0	5	0	
0.227667	-0.0773553	-0.102166	0.00105335	0.00125971	0	5	0	
0.227833	0.00431574	0.0842186	0.00123459	0.0014864	0	5	0	
0.228	0.0315878	-0.0134864	0.00146077	0.00157119	0	5	0	
0.228167	-0.076094	-0.0131467	0.00132153	0.00165401	0	5	0	
0.228333	0.0332856	0.128942	0.00133638	0.00138716	0	5	0	
0.2285	-0.00959265	0.0113193	0.00120893	0.00154829	0	5	0	
0.228667	-0.0755244	-0.0423271	0.0014565	0.00138091	0	5	0	
0.228833	0.0569574	0.0574546	0.00140655	0.00149237	0	5	0	
0.229	-0.0513601	-0.019521	0.00140891	0.00125032	0	5	0	
0.229167	-0.0129571	0.0449305	0.00129046	0.00127399	0	5	0	
0.229333	0.0077016	-0.00774531	0.00102931	0.000766702	0	5	0	
0.2295	0.00995028	0.0273376	0.000694834	0.00052221	0	5	0	
0.229667	-0.0212815	-0.00933692	0.000365603	0.000401707	0	5	0	
0.229833	-0.00133635	0.0246325	0.000332451	0.000401375	0	5	0	
0.23	0.0063831	-0.0143979	0.000287213	0.000438697	0	5	0	
0.230167	0.028662	0.039019	0.000385789	0.000446574	0	5	0	
0.230333	-0.0382816	-0.0333874	0.000457239	0.000678551	0	5	0	
0.2305	0.02182	0.00631038	0.000622488	0.000751581	0	5	0	
0.230667	0.00261772	0.00424886	0.000524276	0.00063594	0	5	0	
0.230833	0.0060734	-0.0152031	0.000327921	0.00038107	0	5	0	
0.231	0.000446146	0.025233	0.000133887	0.000301969	0	5	0	
0.231167	-0.0188328	-0.0267895	0.000123488	0.000460345	0	5	0	
0.231333	0.0217392	0.0305254	0.000353005	0.000476561	0	5	0	
0.2315	0.0203084	-0.0247335	0.000603361	0.00058576	0	5	0	
0.231667	-0.0283298	0.0139139	0.000696251	0.000555914	0	5	0	
0.231833	0.0185333	-0.00509878	0.000599107	0.000599534	0	5	0	
0.232	-0.00371643	-0.00467008	0.000470313	0.000546315	0	5	0	
0.232167	-0.00706504	0.00458931	0.00039953	0.000556912	0	5	0	
0.232333	0.00761703	-0.0110309	0.000280844	0.000491694	0	5	0	
0.2325	0.011246	0.0260149	0.000205656	0.000436167	0	5	0	
0.232667	-0.0268104	-0.0232747	0.000238201	0.00043381	0	5	0	
0.232833	0.00714085	0.0104921	0.000352331	0.000487341	0	5	0	
0.233	0.0318123	0.0562138	0.000713649	0.000906906	0	5	0	
0.233167	-0.0417653	0.0469106	0.000919993	0.00162469	0	5	0	
0.233333	0.0170085	-0.0252238	0.000989239	0.00196044	0	5	0	
0.2335	-0.000995511	0.025175	0.000721439	0.00162679	0	5	0	
0.233667	-0.0137078	-0.00402009	0.000492969	0.00085024	0	5	0	
0.233833	0.0249605	0.0213586	0.000432888	0.000416891	0	5	0	
0.234	-0.0509741	-0.0375847	0.000459108	0.000372999	0	5	0	
0.234167	0.0492968	0.146358	0.000911194	0.000907207	0	5	0	
0.234333	-0.022263	-0.0570171	0.00110263	0.00171262	0	5	0	
0.2345	-0.0115565	0.0211052	0.00122437	0.00182634	0	5	0	
0.234667	0.0096165	0.00390867	0.000758328	0.00130372	0	5	0	
0.234833	-0.00412715	0.00153466	0.000514016	0.000461952	0	5	0	
0.235	-0.00920018	-0.010524	0.000328972	0.00022363	0	5	0	
0.235167	0.00716156	0.00498827	0.000310289	0.000185385	0	5	0	
0.235333	0.0115669	-0.00710704	0.000241259	0.000245056	0	5	0	
0.2355	-0.00277916	0.00323887	0.000176031	0.000304423	0	5	0	
0.235667	-0.0205622	-0.00630166	0.000288165	0.000307805	0	5	0	
0.235833	0.0346848	-0.00219549	0.000439907	0.000281841	0	5	0	
0.236	-0.0191633	-0.0178141	0.000553541	0.000262586	0	5	0	
0.236167	0.00195016	-0.0218261	0.000411847	0.00047074	0	5	0	
0.236333	-0.0198119	0.0123718	0.000302334	0.000744668	0	5	0	
0.2365	0.00709925	0.0198037	0.000206407	0.000970376	0	5	0	
0.236667	0.00710633	-0.0124773	0.000297937	0.000959352	0	5	0	
0.236833	-0.00565474	0.00142017	0.000268296	0.000738895	0	5	0	
0.237	-0.00903298	-0.00784321	0.000337044	0.000444317	0	5	0	
0.237167	0.0097284	-0.0351529	0.000335514	0.000252313	0	5	0	
0.237333	-0.0138669	0.0562836	0.000391939	0.000479987	0	5	0	
0.2375	-0.00965685	-0.085148	0.000307062	0.000910834	0	5	0	
0.237667	-0.00408158	0.0245592	0.000199868	0.00119308	0	5	0	
0.237833	0.0140626	-0.0223229	0.000163359	0.000997523	0	5	0	
0.238	-0.0258995	0.0197757	0.000253277	0.000744579	0	5	0	
0.238167	0.0238247	-0.00267623	0.000391808	0.00047549	0	5	0	
0.238333	-0.0192579	-0.00640639	0.000443178	0.000417244	0	5	0	
0.2385	0.00837493	0.00726464	0.000417986	0.000268708	0	5	0	
0.238667	0.00340611	-0.0699547	0.000334326	0.000600092	0	5	0	
0.238833	-0.000978314	0.00448225	0.000249203	0.000780681	0	5	0	
0.239	-0.00758891	0.0101108	0.000163367	0.000790369	0	5	0	
0.239167	0.0082563	0.00467586	0.000138565	0.000402915	0	5	0	
0.239333	-0.0112833	-0.00783249	0.000164153	0.000175156	0	5	0	
0.2395	0.0118723	0.0053051	0.000198747	0.000151533	0	5	0	
0.239667	-0.0132007	0.00301974	0.00021647	0.000130035	0	5	0	
0.239833	0.00740366	-0.00769473	0.000235702	0.000131537	0	5	0	
0.24	0.00477903	0.0101338	0.000210105	0.000130741	0	5	0	
0.240167	0.00287389	-0.0101612	0.00018741	0.000232579	0	5	0	
0.240333	-0.0142876	-0.0100966	0.000220146	0.000263264	0	5	0	
0.2405	0.0107607	-0.00718849	0.000243546	0.000321265	0	5	0	
0.240667	-0.00494698	0.00176643	0.000292757	0.000248303	0	5	0	
0.240833	-0.00146457	0.00629705	0.000205976	0.000211733	0	5	0	
0.241	-0.00371941	-0.0128406	0.000164896	0.00019948	0	5	0	
0.241167	0.0061809	0.0112952	0.000115969	0.000187622	0	5	0	
0.241333	0.00712108	-0.00884636	0.000164279	0.000274699	0	5	0	
0.2415	-0.00370907	-0.0212387	0.000178197	0.000268985	0	5	0	
0.241667	-0.0209054	-0.00329754	0.000292207	0.000369068	0	5	0	
0.241833	0.0233328	0.0141896	0.000349323	0.000335707	0	5	0	
0.242	-0.0175288	-0.00202597	0.000482885	0.000363293	0	5	0	
0.242167	0.00942759	-0.0124661	0.000566925	0.000336219	0	5	0	
0.242333	0.00370302	0.0072672	0.000562	0.000359707	0	5	0	
0.2425	-0.00891025	0.00615741	0.000425173	0.000319818	0	5	0	
0.242667	-0.00144295	-0.0127127	0.000303133	0.000358028	0	5	0	
0.242833	0.0195335	0.0118966	0.00031983	0.000362894	0	5	0	
0.243	-0.0361265	-0.0136097	0.000458604	0.000397821	0	5	0	
0.243167	0.0358079	0.0063501	0.000558376	0.000304955	0	5	0	
0.243333	-0.0158402	-0.00113556	0.000576773	0.000258781	0	5	0	
0.2435	0.00334407	0.00113262	0.000465064	0.000199178	0	5	0	
0.243667	0.00614413	-0.0137838	0.00033571	0.000203437	0	5	0	
0.243833	-0.0131219	0.0124181	0.000230022	0.000206328	0	5	0	
0.244	0.0066664	-0.00537306	0.000278972	0.000203903	0	5	0	
0.244167	0.0150084	0.000484366	0.000381584	0.000202182	0	5	0	
0.244333	-0.0237125	-0.0152289	0.000459314	0.00026759	0	5	0	
0.2445	0.0192791	0.0174034	0.000466986	0.000327555	0	5	0	
0.244667	-0.0108527	-0.00611438	0.000399591	0.000348033	0	5	0	
0.244833	0.00389641	0.00112913	0.000337893	0.000263873	0	5	0	
0.245	0.0013497	-0.00817777	0.000274591	0.0002051	0	5	0	
0.245167	-0.00468143	0.0090595	0.000204955	0.000188133	0	5	0	
0.245333	0.00155709	-0.00219133	0.000140725	0.000153626	0	5	0	
0.2455	0.00305656	-0.000342596	0.00016027	0.000113133	0	5	0	
0.245667	-0.0127749	-0.00159003	0.000192691	4.81901E-05	0	5	0	
0.245833	0.0275644	0.00443401	0.000295431	3.68053E-05	0	5	0	
0.246	-0.0208148	-0.00181114	0.000415361	8.92752E-05	0	5	0	
0.246167	-0.0100419	-0.000117407	0.000477695	0.000155359	0	5	0	
0.246333	0.0156558	0.0146426	0.000474288	0.000234561	0	5	0	
0.2465	-0.00527623	-0.00800282	0.000360243	0.000273738	0	5	0	
0.246667	-0.0242744	-0.0279129	0.000394555	0.0003485	0	5	0	
0.246833	0.0408121	0.0633718	0.000485257	0.000591932	0	5	0	
0.247	-0.0298095	-0.0223499	0.000638223	0.000808733	0	5	0	
0.247167	-0.00535171	-0.00675654	0.000621806	0.000716597	0	5	0	
0.247333	0.00577153	0.017333	0.000572449	0.00046388	0	5	0	
0.2475	-0.00314309	0.000365956	0.000412627	0.000225249	0	5	0	
0.247667	0.0102658	-0.00222054	0.000283753	0.000199081	0	5	0	
0.247833	-0.00650731	-0.00380621	0.000227654	0.000328212	0	5	0	
0.248	-0.0238993	0.0133256	0.000305705	0.000695986	0	5	0	
0.248167	0.0265424	0.0039976	0.000450105	0.00102711	0	5	0	
0.248333	-0.00753267	-0.000885493	0.000439339	0.000939898	0	5	0	
0.2485	-0.00597167	0.00805704	0.000361413	0.000521975	0	5	0	
0.248667	-0.00113562	0.00162747	0.000237511	0.000230571	0	5	0	
0.248833	0.0183027	-0.0343055	0.000244247	0.000224858	0	5	0	
0.249	-0.0185341	0.0391437	0.000286816	0.000420981	0	5	0	
0.249167	-0.00860579	-0.0278652	0.000316828	0.000592449	0	5	0	
0.249333	0.014883	-0.00860727	0.000333736	0.000705067	0	5	0	
0.2495	-0.0136926	0.0444762	0.000280399	0.00064558	0	5	0	
0.249667	0.00467365	-0.0476811	0.000259519	0.000745689	0	5	0	
0.249833	0.0217543	0.0314988	0.000287939	0.000842111	0	5	0	
0.25	-0.0355901	0.000747152	0.000403912	0.000974171	0	5	0	
0.250167	0.0232616	-0.0173511	0.000499489	0.000868077	0	5	0	
0.250333	-0.011023	0.00622107	0.000538075	0.00062522	0	5	0	
0.2505	-0.00275596	0.011498	0.000592532	0.000515613	0	5	0	
0.250667	0.0229433	-0.0373651	0.00064188	0.000601474	0	5	0	
0.250833	-0.0118965	0.0547107	0.000572503	0.000828612	0	5	0	
0.251	0.000803884	-0.0334334	0.000598414	0.00100798	0	5	0	
0.251167	0.0310826	0.0108387	0.00072834	0.000787793	0	5	0	
0.251333	-0.0434852	-0.00309111	0.00088796	0.000516771	0	5	0	
0.2515	0.0394119	0.00163087	0.000851261	0.000221075	0	5	0	
0.251667	-0.0164469	-0.00410897	0.000732266	0.000201179	0	5	0	
0.251833	-0.0080012	0.00326298	0.000646321	0.000192898	0	5	0	
0.252	0.0316321	0.0171024	0.000506701	0.000222112	0	5	0	
0.252167	-0.0140115	-0.0215345	0.00044363	0.000357838	0	5	0	
0.252333	-0.00560833	-0.0134852	0.000529185	0.000471956	0	5	0	
0.2525	0.0247998	0.0258191	0.000642859	0.00057505	0	5	0	
0.252667	-0.028607	-0.00350367	0.000627353	0.000491773	0	5	0	
0.252833	0.00469067	-0.00212119	0.000528481	0.000372804	0	5	0	
0.253	0.0113907	0.00608768	0.000496495	0.000193846	0	5	0	
0.253167	-0.0203898	-0.0037779	0.000441468	0.000103302	0	5	0	
0.253333	0.0182431	0.00327916	0.00042403	9.3075E-05	0	5	0	
0.2535	0.00899078	-0.0110261	0.000432557	0.000192019	0	5	0	
0.253667	-0.0244547	0.0151025	0.000521601	0.000353367	0	5	0	
0.253833	0.0194372	0.00512134	0.000530454	0.00040704	0	5	0	
0.254	-0.0264311	-0.00446128	0.000495768	0.000335776	0	5	0	
0.254167	0.0174993	-0.00150603	0.000441183	0.00016629	0	5	0	
0.254333	0.000219966	0.00460147	0.000435298	0.000108058	0	5	0	
0.2545	-0.0187746	0.00351759	0.000444969	0.000110731	0	5	0	
0.254667	0.0226722	-0.00237216	0.000430636	0.000136043	0	5	0	
0.254833	-0.0129967	0.00288196	0.000425053	0.000122807	0	5	0	
0.255	0.00357986	-0.00172486	0.000381341	0.000114487	0	5	0	
0.255167	0.00209636	-0.00413072	0.00041809	9.05973E-05	0	5	0	
0.255333	-0.0202626	-2.0447E-05	0.000431432	0.000105329	0	5	0	
0.2555	0.0258462	0.0123876	0.000468221	0.000119872	0	5	0	
0.255667	-0.00894244	-0.0138795	0.000448762	0.000166372	0	5	0	
0.255833	0.000509641	0.0177987	0.000445617	0.000239071	0	5	0	
0.256	-0.000191654	-0.0181572	0.000424825	0.000316472	0	5	0	
0.256167	-0.00608391	0.0124353	0.000375164	0.000353889	0	5	0	
0.256333	-0.00102225	-0.00524295	0.000241571	0.00034238	0	5	0	
0.2565	0.016462	0.00236081	0.000186532	0.000230537	0	5	0	
0.256667	-0.0131304	-0.00307317	0.000199796	0.000142865	0	5	0	
0.256833	0.00760905	0.0101768	0.000238725	0.000118075	0	5	0	
0.257	0.00287425	-0.0120749	0.000205549	0.000148199	0	5	0	
0.257167	-0.0108142	0.0161078	0.00020565	0.000217589	0	5	0	
0.257333	-0.0128996	0.00441544	0.000283068	0.000228978	0	5	0	
0.2575	0.0198418	-0.00302467	0.000395054	0.000208517	0	5	0	
0.257667	-0.00706517	-0.00693152	0.00039267	0.000165053	0	5	0	
0.257833	0.00657486	0.0125103	0.000310997	0.000160825	0	5	0	
0.258	-0.0132031	-0.00831367	0.00024457	0.000175636	0	5	0	
0.258167	0.00973593	0.0121191	0.000201105	0.000191157	0	5	0	
0.258333	0.000925371	-0.00819588	0.000280325	0.000213509	0	5	0	
0.2585	-0.0116932	0.00676132	0.000275486	0.000197895	0	5	0	
0.258667	0.00588075	-0.0043315	0.000294427	0.000164346	0	5	0	
0.258833	0.0071771	0.00515577	0.00025377	0.000108932	0	5	0	
0.259	-0.00360149	-0.00871352	0.000240487	0.000113445	0	5	0	
0.259167	0.00728864	0.0116347	0.00023894	0.000135592	0	5	0	
0.259333	-0.0134229	0.0100793	0.000273286	0.000224561	0	5	0	
0.2595	0.0141842	-0.0608886	0.000277203	0.000436652	0	5	0	
0.259667	-0.013809	0.0826511	0.00032652	0.000947889	0	5	0	
0.259833	-0.00391005	-0.0265344	0.000281657	0.00118774	0	5	0	
0.26	0.0106642	-0.00390874	0.000258809	0.00113666	0	5	0	
0.260167	0.00361986	0.0112803	0.000212435	0.000711051	0	5	0	
0.260333	-0.003883	-0.00568371	0.000251529	0.00044895	0	5	0	
0.2605	0.00896732	0.0126577	0.000323795	0.000312232	0	5	0	
0.260667	-0.0260513	-0.0158116	0.00037675	0.000556945	0	5	0	
0.260833	0.0265545	0.0182183	0.000460179	0.00102602	0	5	0	
0.261	-0.0201653	0.00909865	0.000474021	0.00125533	0	5	0	
0.261167	0.00671145	-0.0119662	0.000501287	0.000937788	0	5	0	
0.261333	0.00582032	0.0100237	0.000380808	0.000458939	0	5	0	
0.2615	0.00612903	-0.00191538	0.000268532	0.000198382	0	5	0	
0.261667	-0.00388436	-0.0019786	0.000151735	0.000138186	0	5	0	
0.261833	-0.00394924	0.00418772	8.48934E-05	9.16579E-05	0	5	0	
0.262	-0.0010779	-0.00892293	0.000119753	0.000144566	0	5	0	
0.262167	0.011941	0.0138449	0.000195095	0.000223977	0	5	0	
0.262333	-0.0175758	-0.00825785	0.000260074	0.00025783	0	5	0	
0.2625	0.0142564	0.00654096	0.000307672	0.000212343	0	5	0	
0.262667	-0.0115508	-0.00134246	0.00029359	0.000143597	0	5	0	
0.262833	0.0118535	-0.0125008	0.000299587	0.000195156	0	5	0	
0.263	-0.0157119	0.00565956	0.000282862	0.000426875	0	5	0	
0.263167	0.00974814	-0.0353944	0.000247993	0.000654839	0	5	0	
0.263333	-0.0139486	0.0194018	0.000253901	0.000857061	0	5	0	
0.2635	0.00432615	0.00600972	0.000206625	0.000672394	0	5	0	
0.263667	-0.0150002	-0.00707251	0.000210195	0.000558971	0	5	0	
0.263833	0.00906098	0.0164359	0.000197955	0.000345892	0	5	0	
0.264	-0.00502414	-0.050101	0.00018607	0.000504734	0	5	0	
0.264167	0.00518332	0.0284571	0.00014474	0.000627086	0	5	0	
0.264333	-0.0111975	-0.034042	0.000123786	0.000750362	0	5	0	
0.2645	0.0101089	0.0308862	0.00018203	0.000791985	0	5	0	
0.264667	-0.0199973	-0.00644183	0.000265571	0.000643521	0	5	0	
0.264833	0.0161941	0.0178218	0.000341455	0.00067233	0	5	0	
0.265	-0.0142783	-0.0334063	0.000353986	0.000884678	0	5	0	
0.265167	0.0206245	-0.0210767	0.000340436	0.00108283	0	5	0	
0.265333	-0.019167	0.0323026	0.000334411	0.00103482	0	5	0	
0.2655	0.0141844	-0.00918268	0.000370576	0.000688285	0	5	0	
0.265667	0.00803636	-0.00320783	0.000444289	0.000480827	0	5	0	
0.265833	-0.0118191	0.0452415	0.000403128	0.000428478	0	5	0	
0.266	0.0066688	-0.0705255	0.000349673	0.000706362	0	5	0	
0.266167	0.00518442	0.0233578	0.000311228	0.000904096	0	5	0	
0.266333	-0.00918528	-0.0158011	0.000345176	0.000903331	0	5	0	
0.2665	0.0209916	0.0111055	0.00041823	0.000590139	0	5	0	
0.266667	-0.0230456	-0.00380997	0.000477824	0.000379322	0	5	0	
0.266833	0.0182374	0.00547294	0.000467991	0.000240569	0	5	0	
0.267	-0.00115624	-0.00855988	0.000372571	0.000195994	0	5	0	
0.267167	0.00366968	0.00772892	0.000251394	0.000180218	0	5	0	
0.267333	-0.0125125	-0.00726752	0.0002826	0.000214726	0	5	0	
0.2675	0.0101777	0.00685987	0.00029876	0.000199696	0	5	0	
0.267667	-0.000426581	-0.00610552	0.000310311	0.000162515	0	5	0	
0.267833	-0.0091434	0.00608958	0.00023257	0.000165063	0	5	0	
0.268	0.0129301	-0.00396069	0.000222468	0.000152626	0	5	0	
0.268167	-0.0150595	-0.00202594	0.000234192	0.000135013	0	5	0	
0.268333	0.00852816	0.00749	0.000306165	0.000131635	0	5	0	
0.2685	0.0143275	-0.00264705	0.000438368	0.000188115	0	5	0	
0.268667	-0.0309495	0.00925774	0.000540707	0.000310666	0	5	0	
0.268833	0.0187922	0.00102587	0.000569165	0.00033527	0	5	0	
0.269	-0.00481117	-0.00708652	0.000420006	0.000252615	0	5	0	
0.269167	-0.000905987	0.00105773	0.000247885	0.000143769	0	5	0	
0.269333	-0.000241221	0.00531162	0.000101029	7.21972E-05	0	5	0	
0.2695	0.0078189	3.0523E-05	0.000125126	8.00527E-05	0	5	0	
0.269667	-0.0079112	0.00459696	0.000219707	7.38442E-05	0	5	0	
0.269833	0.00430076	-4.2001E-05	0.000260701	0.000123576	0	5	0	
0.27	-0.000880079	-0.00806685	0.000200915	0.000152197	0	5	0	
0.270167	0.005776	0.00311261	0.000107916	0.000190909	0	5	0	
0.270333	-0.00286205	0.00183971	7.95639E-05	0.000164488	0	5	0	
0.2705	-0.00808445	-0.00405478	0.00014643	0.000160358	0	5	0	
0.270667	0.0109717	-0.00227969	0.000165416	0.000215382	0	5	0	
0.270833	0.00679093	-0.00795721	0.000306234	0.000240676	0	5	0	
0.271	-0.0266917	0.0227802	0.000428378	0.000308187	0	5	0	
0.271167	0.0296749	-0.0192872	0.000550387	0.000386987	0	5	0	
0.271333	-0.0183565	-0.00766051	0.000518367	0.000390229	0	5	0	
0.2715	0.0135457	0.0159882	0.000422388	0.000364089	0	5	0	
0.271667	-0.00546191	-0.0234324	0.000346142	0.000258913	0	5	0	
0.271833	-0.00990855	0.0090121	0.000307237	0.000301548	0	5	0	
0.272	0.0145229	0.0100297	0.000254603	0.000281858	0	5	0	
0.272167	0.00385529	-0.0104784	0.000365491	0.000321747	0	5	0	
0.272333	-0.0252765	-0.0060295	0.000486866	0.000275605	0	5	0	
0.2725	0.026719	-0.00153317	0.000585707	0.000258039	0	5	0	
0.272667	-0.00905837	0.00842503	0.000514251	0.000176689	0	5	0	
0.272833	-0.00326845	-0.00502617	0.000372913	0.000153913	0	5	0	
0.273	0.00473934	-0.00414247	0.000231756	0.000149908	0	5	0	
0.273167	-0.00252249	0.00855746	0.000172304	0.000167278	0	5	0	
0.273333	-0.00434004	-0.00760581	0.000183331	0.000177834	0	5	0	
0.2735	0.0143751	0.0039148	0.000282501	0.000160242	0	5	0	
0.273667	-0.0157707	-0.00586865	0.000329536	0.000138963	0	5	0	
0.273833	0.012766	0.00337673	0.000308243	0.000135527	0	5	0	
0.274	-0.0145492	0.00536918	0.000287216	0.000125739	0	5	0	
0.274167	0.0138449	-0.00493542	0.000254701	0.000110429	0	5	0	
0.274333	-0.00493021	-9.59489E-05	0.00029266	0.000159339	0	5	0	
0.2745	-0.00954314	0.0103354	0.000319232	0.00024703	0	5	0	
0.274667	0.0137908	-0.0130855	0.000299112	0.000303089	0	5	0	
0.274833	-0.00298401	0.00984098	0.000299006	0.000288314	0	5	0	
0.275	-0.015003	-0.00398768	0.000373045	0.000215575	0	5	0	
0.275167	0.0262074	0.00183457	0.000460109	0.000137332	0	5	0	
0.275333	-0.0200595	0.000219086	0.000490066	5.9346E-05	0	5	0	
0.2755	0.00931986	0.000964946	0.000402518	2.67601E-05	0	5	0	
0.275667	-0.00747574	-0.000201141	0.000347641	5.00467E-05	0	5	0	
0.275833	-0.00374861	0.00532505	0.000286779	9.26415E-05	0	5	0	
0.276	0.01229	-0.0028949	0.000223628	0.000113949	0	5	0	
0.276167	0.00521492	-0.00187098	0.000257114	9.21374E-05	0	5	0	
0.276333	-0.0212901	-0.00212295	0.000306429	5.50604E-05	0	5	0	
0.2765	0.0127274	0.00826724	0.000362363	6.46285E-05	0	5	0	
0.276667	0.00426856	-0.00640236	0.000321421	0.000102594	0	5	0	
0.276833	0.000945283	-0.00124308	0.000221928	0.00011655	0	5	0	
0.277	-0.0105942	0.00152291	0.000197872	9.57231E-05	0	5	0	
0.277167	0.00838059	0.00129999	0.00016911	6.40932E-05	0	5	0	
0.277333	0.000249065	-0.00429126	0.000184852	6.15963E-05	0	5	0	
0.2775	-0.000890092	0.00542374	0.000122949	8.33643E-05	0	5	0	
0.277667	0.00344698	-0.00294329	7.26642E-05	9.95116E-05	0	5	0	
0.277833	-0.00604004	0.00290274	5.95042E-05	9.93833E-05	0	5	0	
0.278	0.00331602	-0.00397193	9.05901E-05	8.38628E-05	0	5	0	
0.278167	0.00720056	0.00182082	0.000220276	6.25508E-05	0	5	0	
0.278333	-0.0201699	-0.00319671	0.00032981	6.3774E-05	0	5	0	
0.2785	0.0244478	0.0031764	0.000426027	5.85673E-05	0	5	0	
0.278667	-0.0131121	-0.00406001	0.00040905	6.48772E-05	0	5	0	
0.278833	0.00646909	0.0023266	0.000330501	6.43826E-05	0	5	0	
0.279	-0.00854731	0.00126399	0.00024654	5.18882E-05	0	5	0	
0.279167	0.00818	0.00125415	0.000190545	4.02677E-05	0	5	0	
0.279333	-0.00597628	-0.00357731	0.000158406	6.93057E-05	0	5	0	
0.2795	-0.00323875	0.00203397	0.000129965	0.000117693	0	5	0	
0.279667	0.0081098	-0.00507126	0.000128611	0.000134699	0	5	0	
0.279833	0.00438006	0.00691311	0.000205317	0.000117331	0	5	0	
0.28	-0.0124855	-0.00796075	0.00026885	0.000110364	0	5	0	
0.280167	0.00710849	0.00719116	0.000279348	0.000129279	0	5	0	
0.280333	-0.0120251	0.000378782	0.000253729	0.000144306	0	5	0	
0.2805	0.0239104	-0.00612038	0.000315613	0.00015391	0	5	0	
0.280667	-0.0222824	0.0130935	0.000363535	0.000148717	0	5	0	
0.280833	-0.00147039	-0.00857827	0.000488864	0.000225643	0	5	0	
0.281	0.0180151	0.00766549	0.000471893	0.00052394	0	5	0	
0.281167	-0.0053746	-0.00720058	0.000432859	0.000900393	0	5	0	
0.281333	-0.00491926	-0.0221214	0.000322054	0.00095487	0	5	0	
0.2815	-0.000109131	0.0236776	0.000229188	0.000754963	0	5	0	
0.281667	-0.00511407	0.000749787	0.000228587	0.000419171	0	5	0	
0.281833	0.0195324	-0.0148506	0.000263791	0.000299915	0	5	0	
0.282	-0.0196559	0.0400034	0.000331245	0.000291666	0	5	0	
0.282167	0.00821925	-0.0499836	0.000384658	0.000560926	0	5	0	
0.282333	0.00316601	0.00721262	0.000401535	0.000696928	0	5	0	
0.2825	-0.00644183	0.0115196	0.000372508	0.000633315	0	5	0	
0.282667	-0.00414924	-0.00879758	0.000261019	0.000411447	0	5	0	
0.282833	0.00792862	-0.0188022	0.000184432	0.000345558	0	5	0	
0.283	-0.00742646	0.00338728	0.000157054	0.000340901	0	5	0	
0.283167	0.00515918	0.0109771	0.000169801	0.000293714	0	5	0	
0.283333	-0.00979217	-0.019478	0.000148978	0.00028637	0	5	0	
0.2835	0.0109517	0.0285505	0.000161674	0.000344492	0	5	0	
0.283667	-0.00770927	-0.00327713	0.000181682	0.000389526	0	5	0	
0.283833	0.00584975	-0.0349595	0.00020309	0.000392105	0	5	0	
0.284	-0.0106112	6.60485E-05	0.000202554	0.000389155	0	5	0	
0.284167	0.0145656	0.0124455	0.000219753	0.000399255	0	5	0	
0.284333	-0.00981027	-0.0068519	0.000227716	0.000490762	0	5	0	
0.2845	0.00116933	0.00926851	0.000224226	0.000536923	0	5	0	
0.284667	0.00488253	-0.000242633	0.00019421	0.000564523	0	5	0	
0.284833	-0.00255055	0.0039657	0.000132231	0.000460187	0	5	0	
0.285	-0.00263814	-0.01125	0.00016795	0.000322752	0	5	0	
0.285167	0.0137669	-0.00214922	0.000227283	0.000201869	0	5	0	
0.285333	-0.0124712	0.0175225	0.000299068	0.000166685	0	5	0	
0.2855	0.00847848	-0.0110858	0.000274113	0.000234649	0	5	0	
0.285667	-0.00764296	-0.000848574	0.000217173	0.000265268	0	5	0	
0.285833	0.0095143	0.001934	0.000206881	0.000232923	0	5	0	
0.286	-0.0138756	-0.00187153	0.000251154	0.000145798	0	5	0	
0.286167	0.0219705	0.00861801	0.000304489	0.000121403	0	5	0	
0.286333	-0.00967832	-0.0105373	0.00036422	0.000151257	0	5	0	
0.2865	-0.0149882	0.0083225	0.000402506	0.000177466	0	5	0	
0.286667	0.0117485	0.00425071	0.000375067	0.000172314	0	5	0	
0.286833	0.00670842	-0.0103378	0.000414083	0.000147397	0	5	0	
0.287	-0.0133308	0.00245609	0.00040385	0.000184217	0	5	0	
0.287167	0.0149255	0.00443442	0.000414864	0.000248717	0	5	0	
0.287333	-0.00922138	-0.00542359	0.000321792	0.00028709	0	5	0	
0.2875	0.00600605	0.00850776	0.000241155	0.000255811	0	5	0	
0.287667	-0.00958967	-0.00450422	0.000204015	0.000196896	0	5	0	
0.287833	0.00236371	0.00440683	0.000158022	0.000138945	0	5	0	
0.288	-0.000153811	-0.00297906	0.000113873	0.000108902	0	5	0	
0.288167	0.00503626	0.000725779	0.000133018	8.85687E-05	0	5	0	
0.288333	-0.00437702	-0.00271165	0.000168513	9.14757E-05	0	5	0	
0.2885	-0.000538394	0.0044738	0.000163984	0.000103912	0	5	0	
0.288667	0.00560635	-0.00571701	0.000114082	0.00010613	0	5	0	
0.288833	-0.00657977	0.00638146	0.000111775	0.000126735	0	5	0	
0.289	-0.0079577	0.00238209	0.000232406	0.000137522	0	5	0	
0.289167	0.0146833	-0.00329443	0.000323061	0.000117908	0	5	0	
0.289333	-0.00779747	-0.00287711	0.000329683	8.79576E-05	0	5	0	
0.2895	0.00709429	0.00127688	0.000257261	5.9165E-05	0	5	0	
0.289667	-0.0156113	0.00472275	0.000264142	5.65144E-05	0	5	0	
0.289833	0.017241	-0.0143502	0.000285388	0.000114905	0	5	0	
0.29	-0.0147852	0.0187348	0.000323668	0.000265088	0	5	0	
0.290167	-0.000450204	-0.00895695	0.000298559	0.000366758	0	5	0	
0.290333	0.0153994	-0.00338305	0.000283582	0.000345714	0	5	0	
0.2905	-0.0265637	0.00854984	0.000310798	0.000251228	0	5	0	
0.290667	0.0198534	-0.00530547	0.000399062	0.000181819	0	5	0	
0.290833	0.0042907	-0.00476854	0.000586866	0.000181061	0	5	0	
0.291	-0.0225232	0.00737672	0.000686891	0.000234208	0	5	0	
0.291167	0.0180994	-0.00346027	0.000677819	0.000302458	0	5	0	
0.291333	-0.0194245	0.00358331	0.000515477	0.000290145	0	5	0	
0.2915	0.0165667	-0.00194888	0.000396451	0.000182346	0	5	0	
0.291667	-0.0041884	0.00260495	0.000301579	0.000116871	0	5	0	
0.291833	-0.00967035	-0.0024784	0.000265908	0.000113725	0	5	0	
0.292	0.0148159	0.00902399	0.000217461	0.000158185	0	5	0	
0.292167	-0.0167046	-0.0378372	0.000320177	0.000295647	0	5	0	
0.292333	-0.00980244	0.0436051	0.000429726	0.000674237	0	5	0	
0.2925	0.0107676	-0.0128809	0.000498825	0.000834481	0	5	0	
0.292667	-0.0044967	-0.00653372	0.000367439	0.000720023	0	5	0	
0.292833	0.00146515	0.0189657	0.000190202	0.000408647	0	5	0	
0.293	-0.0132897	-0.013409	0.000125252	0.000320976	0	5	0	
0.293167	0.00883107	-0.0230769	0.000155328	0.000336037	0	5	0	
0.293333	-0.00648304	0.036801	0.000244553	0.00052446	0	5	0	
0.2935	-0.00516203	-0.00869669	0.000208108	0.000575865	0	5	0	
0.293667	-0.0101016	-0.010205	0.000235961	0.000542631	0	5	0	
0.293833	0.0135212	0.0174334	0.000225584	0.000352117	0	5	0	
0.294	-0.000109156	-0.00897117	0.000243951	0.000265663	0	5	0	
0.294167	-0.00849441	-0.00741258	0.000162845	0.000283728	0	5	0	
0.294333	-1.54723E-06	-0.00544113	0.000163276	0.000212336	0	5	0	
0.2945	0.00755553	0.0166476	0.000224549	0.000205718	0	5	0	
0.294667	-0.00823528	-0.00795102	0.000287497	0.000280675	0	5	0	
0.294833	0.00680541	0.0107257	0.000251383	0.000324653	0	5	0	
0.295	-0.00531438	-0.0124529	0.000169266	0.000297568	0	5	0	
0.295167	0.00803888	-0.00074361	0.000131823	0.000202922	0	5	0	
0.295333	-0.00905834	0.00166455	0.000144586	0.000128408	0	5	0	
0.2955	0.00685519	0.00397386	0.000161851	0.000146374	0	5	0	
0.295667	-0.00446773	0.0031404	0.000158314	0.00022674	0	5	0	
0.295833	0.00920093	0.00461627	0.00018285	0.000291197	0	5	0	
0.296	-0.021808	-0.00676824	0.000252659	0.000239939	0	5	0	
0.296167	0.0205548	0.00732442	0.000342865	0.000179576	0	5	0	
0.296333	-0.00928132	-0.000684208	0.000349645	0.000159729	0	5	0	
0.2965	-0.00341696	0.00491432	0.000313907	0.000138432	0	5	0	
0.296667	0.0125191	0.00256246	0.000293759	9.612E-05	0	5	0	
0.296833	-0.0187646	0.00623077	0.000276349	8.59279E-05	0	5	0	
0.297	0.00705562	-0.011151	0.000342666	0.000142904	0	5	0	
0.297167	0.0135074	0.0139243	0.000447265	0.000213371	0	5	0	
0.297333	-0.019886	-0.00705114	0.000521064	0.000248255	0	5	0	
0.2975	0.0135214	0.00760088	0.000481699	0.000221509	0	5	0	
0.297667	-0.0168699	-0.00742625	0.000350526	0.000170977	0	5	0	
0.297833	0.013064	0.00943795	0.000300597	0.000156272	0	5	0	
0.298	0.00433579	-0.0015744	0.00022881	0.000180629	0	5	0	
0.298167	0.000541534	1.03572E-05	0.00018995	0.000223799	0	5	0	
0.298333	-0.0121388	-0.00530171	0.000195867	0.000238857	0	5	0	
0.2985	0.00994469	0.00593328	0.000246002	0.000238264	0	5	0	
0.298667	0.00635304	-0.0144562	0.000228848	0.000233508	0	5	0	
0.298833	-0.00231085	0.025795	0.000162427	0.000288695	0	5	0	
0.299	-0.00261182	-0.0148228	0.00018763	0.000360675	0	5	0	
0.299167	0.00874343	-0.00172746	0.000248282	0.000306048	0	5	0	
0.299333	-0.00999208	0.000395601	0.000284768	0.000188601	0	5	0	
0.2995	0.0175465	-0.000577806	0.000271063	9.39439E-05	0	5	0	
0.299667	-0.00680566	-0.00368242	0.000242519	0.000163316	0	5	0	
0.299833	-0.00352447	0.011007	0.000259841	0.000275894	0	5	0	
0.3	0.0138808	-0.00260658	0.000199683	0.000372613	0	5	0	
0.300167	-0.00291051	-0.000480706	0.00029459	0.000347304	0	5	0	
0.300333	-0.0169485	0.00109022	0.000390939	0.000227385	0	5	0	
0.3005	0.0217472	-0.000820064	0.000501847	0.000131388	0	5	0	
0.300667	-0.0105818	-0.00213135	0.000436925	7.71864E-05	0	5	0	
0.300833	0.0122973	0.00257339	0.000312886	0.000133891	0	5	0	
0.301	-0.00707336	-0.00330459	0.000234964	0.000111447	0	5	0	
0.301167	-0.00478492	0.00626047	0.000174552	0.000145085	0	5	0	
0.301333	0.00545242	-0.00844598	0.000135591	0.000152103	0	5	0	
0.3015	0.00145218	0.0127755	0.000183115	0.000192111	0	5	0	
0.301667	-0.016501	-0.00343422	0.000278621	0.000222277	0	5	0	
0.301833	0.0174077	-0.00680534	0.000384518	0.000195943	0	5	0	
0.302	-0.010466	0.00593391	0.00035511	0.000192475	0	5	0	
0.302167	0.0089443	0.00104925	0.000287556	0.000123352	0	5	0	
0.302333	-0.00173731	-0.00297234	0.000189715	0.000104236	0	5	0	
0.3025	-0.00849107	-0.00743809	0.000128384	9.92987E-05	0	5	0	
0.302667	0.00315511	0.00262095	0.000108963	0.000125306	0	5	0	
0.302833	0.00759026	0.00444958	0.000170782	0.000131461	0	5	0	
0.303	-0.0135209	0.00251704	0.000321938	0.000101802	0	5	0	
0.303167	0.0172387	0.00192099	0.000377422	7.54468E-05	0	5	0	
0.303333	0.000131373	0.000198513	0.000332228	4.72008E-05	0	5	0	
0.3035	-0.00513484	-0.00993588	0.00017192	5.64986E-05	0	5	0	
0.303667	-0.0105764	0.000266554	0.000188721	8.86549E-05	0	5	0	
0.303833	0.0204986	0.0059381	0.000256613	0.000118607	0	5	0	
0.304	-0.00352555	0.000608748	0.000323086	0.000130681	0	5	0	
0.304167	-0.00137786	0.00137213	0.000226827	0.000104441	0	5	0	
0.304333	-0.00013743	-0.000403881	0.000107182	9.97657E-05	0	5	0	
0.3045	-0.00974193	0.00463337	5.29639E-05	7.05568E-05	0	5	0	
0.304667	0.0140315	-0.0018198	0.000130867	7.78188E-05	0	5	0	
0.304833	0.00189907	0.000225684	0.000267655	7.74544E-05	0	5	0	
0.305	-0.0140511	-0.00027272	0.000422403	6.78297E-05	0	5	0	
0.305167	0.0189161	0.00335139	0.00046963	5.42909E-05	0	5	0	
0.305333	-0.0158127	-0.000952684	0.000429174	4.10139E-05	0	5	0	
0.3055	0.00094113	0.00429158	0.000307749	5.90246E-05	0	5	0	
0.305667	0.00765949	0.001636	0.000196494	6.1975E-05	0	5	0	
0.305833	0.00105484	-0.00658357	0.00014862	6.90859E-05	0	5	0	
0.306	-0.00650551	0.00749267	0.000150274	9.45775E-05	0	5	0	
0.306167	-0.000938347	0.000663857	0.000139241	0.000147044	0	5	0	
0.306333	0.0057349	-0.00969099	0.000108821	0.000227362	0	5	0	
0.3065	-0.00507708	0.0200276	9.64006E-05	0.00027647	0	5	0	
0.306667	0.00801699	-0.0109378	0.000119846	0.000312917	0	5	0	
0.306833	-0.0158849	0.00130472	0.000166308	0.000246666	0	5	0	
0.307	0.00539978	0.00396044	0.000237461	0.000186413	0	5	0	
0.307167	0.012912	-0.00622702	0.000370023	0.000125602	0	5	0	
0.307333	-0.0181626	0.00444361	0.000411983	0.000111667	0	5	0	
0.3075	0.0177912	0.00213028	0.000400323	0.000153519	0	5	0	
0.307667	-0.0226397	-0.0037612	0.000353091	0.000217397	0	5	0	
0.307833	0.0145066	0.000409028	0.000366887	0.000261799	0	5	0	
0.308	0.00302244	0.00157237	0.00041467	0.000199421	0	5	0	
0.308167	-0.00990117	-0.00376147	0.000380075	0.000124364	0	5	0	
0.308333	0.00616373	-0.00556766	0.000348463	8.34086E-05	0	5	0	
0.3085	0.00980714	0.00320161	0.000366592	8.87496E-05	0	5	0	
0.308667	-0.0145103	-0.000611656	0.000410567	7.68773E-05	0	5	0	
0.308833	0.0104083	-0.00623928	0.000399834	7.55739E-05	0	5	0	
0.309	-0.00642612	0.0033254	0.000279145	9.17954E-05	0	5	0	
0.309167	0.00775969	-0.00557958	0.000196987	0.000130907	0	5	0	
0.309333	-0.00562863	-0.0052846	0.00017304	0.000136709	0	5	0	
0.3095	0.000249014	0.00418577	0.000218272	0.000131951	0	5	0	
0.309667	0.00180393	-0.00198216	0.000322124	8.96396E-05	0	5	0	
0.309833	0.0116607	-0.00272278	0.000383217	6.85077E-05	0	5	0	
0.31	-0.0157482	0.00570342	0.000378381	6.34077E-05	0	5	0	
0.310167	0.00869943	-0.00363858	0.000301474	8.43922E-05	0	5	0	
0.310333	-0.00500274	-0.012447	0.000215277	0.000123576	0	5	0	
0.3105	-0.0102121	0.0188486	0.000152972	0.000196209	0	5	0	
0.310667	0.0159066	-0.00704637	0.000175199	0.00024646	0	5	0	
0.310833	-0.00187847	0.00372622	0.00020741	0.000243247	0	5	0	
0.311	-0.00328099	0.00114242	0.000226429	0.000154816	0	5	0	
0.311167	-0.00433545	0.000109752	0.000186577	8.86058E-05	0	5	0	
0.311333	-0.00240941	-0.00582015	0.000242488	9.56306E-05	0	5	0	
0.3115	0.0196402	0.0111763	0.000357209	0.000136425	0	5	0	
0.311667	-0.0217595	0.00020518	0.000444576	0.000155043	0	5	0	
0.311833	0.00892496	0.00156933	0.000410154	0.00012559	0	5	0	
0.312	-0.00354491	-0.00156422	0.000290154	9.52712E-05	0	5	0	
0.312167	0.00151822	0.000411933	0.000161484	8.00197E-05	0	5	0	
0.312333	0.00320517	0.000646234	8.73472E-05	8.24072E-05	0	5	0	
0.3125	-0.0134142	0.00562949	0.000105034	0.00011161	0	5	0	
0.312667	0.0235754	-0.0107303	0.000186835	0.000166928	0	5	0	
0.312833	-0.0177296	0.00822962	0.000313504	0.000210291	0	5	0	
0.313	-0.00180341	-0.000605964	0.000448869	0.000181701	0	5	0	
0.313167	0.0125961	0.00438771	0.000511073	0.000114401	0	5	0	
0.313333	-0.0114821	-0.0167408	0.000456752	0.000107246	0	5	0	
0.3135	0.00820987	0.0145092	0.000322661	0.000162206	0	5	0	
0.313667	-0.0142946	-0.00829837	0.000219585	0.000226298	0	5	0	
0.313833	0.0105066	-0.000575085	0.000226181	0.00019402	0	5	0	
0.314	0.00350353	-0.000674121	0.000232553	0.000121773	0	5	0	
0.314167	-0.00899179	0.00958457	0.000210177	8.87925E-05	0	5	0	
0.314333	0.00121291	-0.0134233	0.000151518	0.000151005	0	5	0	
0.3145	-0.0102794	0.00227357	0.000108949	0.000238676	0	5	0	
0.314667	0.01409	-0.00362342	0.000141012	0.000240443	0	5	0	
0.314833	-0.00571108	0.00555361	0.000195517	0.000171994	0	5	0	
0.315	-0.00344966	-0.00684445	0.000282019	0.000128091	0	5	0	
0.315167	0.0078227	0.00499892	0.000313469	0.0001336	0	5	0	
0.315333	-0.0193185	0.00319274	0.000305098	0.000136054	0	5	0	
0.3155	0.0110297	-0.00669414	0.000284564	0.000128228	0	5	0	
0.315667	-0.00147715	0.000552633	0.000238545	0.000117372	0	5	0	
0.315833	-0.00253959	0.00611937	0.000182093	0.000116276	0	5	0	
0.316	-4.87992E-05	-0.00398806	0.000101348	0.000116532	0	5	0	
0.316167	0.000142151	0.0004394	7.62476E-05	0.000101431	0	5	0	
0.316333	-0.0054341	0.00178186	0.000115745	0.000106524	0	5	0	
0.3165	0.00746997	0.00256363	0.000170335	0.000105715	0	5	0	
0.316667	-0.001846	-0.00820013	0.00015668	0.000107576	0	5	0	
0.316833	-0.00602591	0.0108956	0.000151743	0.000154794	0	5	0	
0.317	0.00514317	0.00161875	0.000111858	0.000156633	0	5	0	
0.317167	0.00618916	-0.0119859	0.000183106	0.00016035	0	5	0	
0.317333	-0.00778572	0.00552332	0.000192875	0.000189838	0	5	0	
0.3175	0.000580993	-0.00132567	0.000193616	0.000354183	0	5	0	
0.317667	-0.00266755	-0.017355	0.000143908	0.000519817	0	5	0	
0.317833	0.0151663	0.0222058	0.000180965	0.000594752	0	5	0	
0.318	-0.0143129	-0.0142317	0.000246033	0.000497847	0	5	0	
0.318167	0.00887556	0.00255744	0.000294054	0.000365201	0	5	0	
0.318333	0.000936376	0.00550874	0.000253181	0.000277437	0	5	0	
0.3185	-7.81677E-05	-0.0291883	0.000167918	0.000277222	0	5	0	
0.318667	0.0031253	0.0178929	9.22751E-05	0.000382365	0	5	0	
0.318833	-0.0152083	-0.00872994	7.46514E-05	0.00044573	0	5	0	
0.319	0.0151473	-0.000653572	0.000197432	0.000433828	0	5	0	
0.319167	0.0074442	0.00573717	0.00036312	0.000287076	0	5	0	
0.319333	-0.0180526	-0.00261393	0.000484843	0.000170363	0	5	0	
0.3195	0.0194825	-0.00995968	0.000459779	0.000131037	0	5	0	
0.319667	-0.0131126	-4.43393E-05	0.000391125	0.000164124	0	5	0	
0.319833	-0.00188383	0.0038787	0.000362834	0.000167244	0	5	0	
0.32	0.0184656	-0.00698635	0.000423877	0.000142181	0	5	0	
0.320167	-0.0220772	0.0081523	0.000456631	0.000131823	0	5	0	
0.320333	0.014079	-0.0059841	0.000414186	0.000143293	0	5	0	
0.3205	0.000702271	0.00190588	0.000369505	0.000120484	0	5	0	
0.320667	-0.0106979	-0.00534998	0.000345566	0.00010921	0	5	0	
0.320833	0.00759257	0.00881439	0.000323895	0.000128024	0	5	0	
0.321	-0.00445186	-0.0194945	0.000230152	0.000196821	0	5	0	
0.321167	0.010416	0.0272184	0.00018007	0.000375565	0	5	0	
0.321333	-0.0204681	0.00164883	0.000224813	0.000397309	0	5	0	
0.3215	0.0046648	-0.000387249	0.000250051	0.000340515	0	5	0	
0.321667	0.00641786	-0.00962474	0.000294648	0.000168876	0	5	0	
0.321833	-0.0138313	0.00891446	0.000256707	0.000152417	0	5	0	
0.322	0.0134953	-0.00319134	0.000283297	0.000188164	0	5	0	
0.322167	-0.0146667	0.00202873	0.000258449	0.000264898	0	5	0	
0.322333	0.0130797	0.0102616	0.000279873	0.000360064	0	5	0	
0.3225	-0.00848041	0.00660426	0.000359676	0.000358043	0	5	0	
0.322667	-0.0150494	-0.00515853	0.000410166	0.000289766	0	5	0	
0.322833	0.0154729	-0.00439345	0.00041483	0.000137575	0	5	0	
0.323	-0.00267352	-0.000519493	0.00030519	0.000123009	0	5	0	
0.323167	-0.00137938	0.00622592	0.000189593	0.000138229	0	5	0	
0.323333	-0.00553563	-0.000173682	0.000111359	0.00015907	0	5	0	
0.3235	0.00320274	-0.00511888	0.000102084	0.000142266	0	5	0	
0.323667	0.0084057	-0.00255608	0.000108341	0.000125291	0	5	0	
0.323833	-0.0154536	0.0130492	0.000153949	0.000197683	0	5	0	
