0	0.00292022	0.00356849	2.92022E-07	3.56849E-07	0	0	0	
0.000166667	-0.00482383	0.000846096	4.06321E-05	0.000109375	0	0	0	
0.000333333	0.00800754	0.00071379	0.000132169	0.000258981	0	0	0	
0.0005	-0.00161768	0.000515509	0.000235253	0.000396973	0	0	0	
0.000666667	-0.0131112	-0.00977625	0.000297243	0.000446941	0	0	0	
0.000833333	0.0149427	0.0135635	0.000294425	0.000467085	0	0	0	
0.001	-0.00776457	-0.00610193	0.000270508	0.000468245	0	0	0	
0.00116667	-0.00848028	-0.00928484	0.000227783	0.000443279	0	0	0	
0.00133333	0.0195698	0.0172311	0.000232476	0.000466157	0	0	0	
0.0015	-0.0147828	-0.0243874	0.00026367	0.000535435	0	0	0	
0.00166667	0.0100571	0.0231506	0.000307191	0.000612655	0	0	0	
0.00183333	-0.000852638	-0.022243	0.000349021	0.000681334	0	0	0	
0.002	-0.00331712	0.0210592	0.000389842	0.000772145	0	0	0	
0.00216667	-0.00130862	-0.021132	0.000377732	0.000826869	0	0	0	
0.00233333	0.00818998	0.0176639	0.000288292	0.000771527	0	0	0	
0.0025	-0.0125087	-0.0277882	0.000220973	0.000718708	0	0	0	
0.00266667	0.0134972	0.0247574	0.000217936	0.00070473	0	0	0	
0.00283333	-0.00529731	-0.0240542	0.000230629	0.000746398	0	0	0	
0.003	0.00843628	0.028703	0.000220872	0.000717435	0	0	0	
0.00316667	-0.00929226	-0.0329119	0.000210702	0.000698788	0	0	0	
0.00333333	0.00360337	0.0183744	0.000212468	0.00071362	0	0	0	
0.0035	-0.0037071	-0.0119458	0.000217215	0.000756568	0	0	0	
0.00366667	0.00518684	0.0239798	0.000175358	0.000686652	0	0	0	
0.00383333	-0.0153801	-0.0389124	0.000191511	0.000632495	0	0	0	
0.004	0.0128352	0.027552	0.000219527	0.000621513	0	0	0	
0.00416667	-0.00682764	-0.013269	0.000310453	0.000763076	0	0	0	
0.00433333	0.000837259	0.0024991	0.000332016	0.000765242	0	0	0	
0.0045	-0.00765821	-0.013306	0.000312114	0.000659104	0	0	0	
0.00466667	0.0114294	0.0280098	0.000266597	0.000542087	0	0	0	
0.00483333	-0.0174125	-0.0255341	0.000265894	0.000536297	0	0	0	
0.005	0.0126439	0.0148803	0.00027714	0.00064032	0	0	0	
0.00516667	-0.00631191	-0.0132802	0.000275834	0.000668861	0	0	0	
0.00533333	0.0102675	0.0214087	0.000214853	0.000619571	0	0	0	
0.0055	-0.0131084	-0.0344964	0.000207158	0.000610068	0	0	0	
0.00566667	-0.000222277	0.0203398	0.000261251	0.000678121	0	0	0	
0.00583333	0.00558519	-0.00207716	0.000323456	0.000766798	0	0	0	
0.006	0.00652026	0.0145249	0.000262333	0.000689077	0	0	0	
0.00616667	-0.00940787	-0.031732	0.000183231	0.000579015	0	0	0	
0.00633333	0.00629628	0.0312099	0.000199274	0.000599517	0	0	0	
0.0065	0.00147363	-0.0107891	0.000310507	0.000826144	0	0	0	
0.00666667	0.003728	-0.00377983	0.000296314	0.000878137	0	0	0	
0.00683333	-0.0192023	-0.0238761	0.000261845	0.000694255	0	0	0	
0.007	0.0173949	0.0381691	0.000236403	0.000534403	0	0	0	
0.00716667	-0.003572	-0.0123637	0.000352674	0.000584852	0	0	0	
0.00733333	0.000568549	0.0117904	0.000393073	0.000634956	0	0	0	
0.0075	-0.00806642	-0.0469015	0.000323705	0.000603346	0	0	0	
0.00766667	0.0108396	0.0482332	0.000231319	0.000652789	0	0	0	
0.00783333	-0.000637592	-0.0100008	0.000195649	0.000864768	0	0	0	
0.008	-0.00682323	-0.00948798	0.000202453	0.000944245	0	0	0	
0.00816667	-0.0132275	-0.00131136	0.000182244	0.000720452	0	0	0	
0.00833333	0.0192416	0.0127403	0.000218051	0.000451611	0	0	0	
0.0085	-0.00274635	-0.0191407	0.000309593	0.00032478	0	0	0	
0.00866667	-0.00251284	0.0195253	0.000396886	0.000404543	0	0	0	
0.00883333	-0.00598769	-0.0145389	0.000313323	0.000458753	0	0	0	
0.009	0.013622	0.0149906	0.000226611	0.000509468	0	0	0	
0.00916667	-0.0139707	-0.0215143	0.000204617	0.000636049	0	0	0	
0.00933333	0.00973655	0.0256677	0.000270525	0.000783645	0	0	0	
0.0095	-0.0112195	-0.0197862	0.000291699	0.000783502	0	0	0	
0.00966667	0.011982	0.00772466	0.000279119	0.000687371	0	0	0	
0.00983333	-0.00998144	-0.00603363	0.000249197	0.000577332	0	0	0	
0.01	0.0106221	0.0281667	0.000234395	0.000532016	0	0	0	
0.0101667	-0.0115823	-0.035684	0.000225116	0.000544433	0	0	0	
0.0103333	0.0150008	0.0190973	0.000256282	0.000567674	0	0	0	
0.0105	-0.0146746	-0.01873	0.000297691	0.000529244	0	0	0	
0.0106667	0.00562801	0.0247059	0.000287695	0.000544027	0	0	0	
0.0108333	0.00403281	-0.0137908	0.000257462	0.000648586	0	0	0	
0.011	0.000668023	0.00783196	0.000160112	0.000695647	0	0	0	
0.0111667	-0.00986931	-0.0108643	0.000130607	0.000566451	0	0	0	
0.0113333	0.00381777	0.0089494	0.000119186	0.00049755	0	0	0	
0.0115	0.00210473	-0.0168377	0.000185864	0.000613518	0	0	0	
0.0116667	0.00145118	0.0114513	0.000150388	0.000690354	0	0	0	
0.0118333	-0.0137885	-0.00768557	0.000141483	0.000605524	0	0	0	
0.012	0.0116508	0.0145548	0.000174253	0.000445406	0	0	0	
0.0121667	-0.00825983	-0.0406399	0.00024854	0.00047662	0	0	0	
0.0123333	0.00608781	0.0455867	0.000286626	0.00071597	0	0	0	
0.0125	-0.0113293	-0.0370381	0.000299201	0.00100042	0	0	0	
0.0126667	0.00798406	0.0203489	0.000299667	0.00103343	0	0	0	
0.0128333	-0.0098295	-0.0154876	0.000271306	0.000886987	0	0	0	
0.013	0.00234229	0.00322017	0.000221652	0.000730921	0	0	0	
0.0131667	-0.00128401	-0.02062	0.000188237	0.000629058	0	0	0	
0.0133333	0.0110953	0.0422826	0.000187803	0.000623894	0	0	0	
0.0135	-0.0126442	-0.0400783	0.000197424	0.000649034	0	0	0	
0.0136667	0.00372455	0.0205825	0.000241155	0.00077812	0	0	0	
0.0138333	-0.00130183	-0.0179246	0.000270151	0.000736189	0	0	0	
0.014	0.00456241	0.0230023	0.000257256	0.000656522	0	0	0	
0.0141667	-0.014772	-0.0184583	0.00027991	0.000647291	0	0	0	
0.0143333	0.0059169	0.0113335	0.00029755	0.000681253	0	0	0	
0.0145	-0.00398209	-0.0203113	0.000265066	0.00063719	0	0	0	
0.0146667	0.0139722	0.0339165	0.000191378	0.000593969	0	0	0	
0.0148333	-0.0181821	-0.0215662	0.00019471	0.000607066	0	0	0	
0.015	0.00983945	0.0142495	0.000252779	0.000670692	0	0	0	
0.0151667	-0.0112417	-0.0149656	0.000315758	0.000639268	0	0	0	
0.0153333	0.00480026	0.00483222	0.000302921	0.00062871	0	0	0	
0.0155	-0.00543382	0.00512287	0.00033152	0.000714027	0	0	0	
0.0156667	-0.000780598	0.00559491	0.000302832	0.000721958	0	0	0	
0.0158333	-0.000240261	-0.013119	0.00021178	0.000585905	0	0	0	
0.016	0.00674765	0.0259612	0.000113382	0.000413045	0	0	0	
0.0161667	-0.0079411	-0.0356525	9.27346E-05	0.000483209	0	0	0	
0.0163333	0.0100445	0.0254967	0.000176377	0.000656136	0	0	0	
0.0165	-0.018206	-0.03268	0.000266453	0.000835739	0	0	0	
0.0166667	0.0141453	0.0312934	0.000320964	0.000903601	0	0	0	
0.0168333	-0.00247099	-0.0153454	0.000341522	0.000911454	0	0	0	
0.017	-0.000823324	0.0177482	0.000345947	0.000851712	0	0	0	
0.0171667	0.00105086	-0.022518	0.000271784	0.000730665	0	0	0	
0.0173333	0.0122396	0.0118489	0.000204253	0.000606607	0	0	0	
0.0175	-0.0153053	-0.0105706	0.000191234	0.000506197	0	0	0	
0.0176667	0.0132357	0.0201815	0.000241331	0.000455928	0	0	0	
0.0178333	-0.00919872	-0.0260825	0.000285723	0.000519699	0	0	0	
0.018	0.0105315	0.0295823	0.00029615	0.000592091	0	0	0	
0.0181667	-0.00808092	-0.0298991	0.000302707	0.000632496	0	0	0	
0.0183333	0.0100868	0.0311668	0.000310957	0.000628118	0	0	0	
0.0185	-0.00229877	-0.0454283	0.000289474	0.000757798	0	0	0	
0.0186667	-0.00340792	0.0416273	0.000239378	0.000855837	0	0	0	
0.0188333	-0.00524355	-0.0438027	0.000171067	0.000950858	0	0	0	
0.019	0.0122537	0.036921	0.000137204	0.000854198	0	0	0	
0.0191667	-0.00977057	-0.0255437	0.000171722	0.000788552	0	0	0	
0.0193333	0.0165715	0.0190862	0.000226729	0.000713473	0	0	0	
0.0195	-0.0160303	-0.0243827	0.000291554	0.000699057	0	0	0	
0.0196667	0.0124158	0.00782953	0.000343328	0.000560052	0	0	0	
0.0198333	-0.011173	-0.0166932	0.00038741	0.000436391	0	0	0	
0.02	0.00204217	0.0141318	0.000373224	0.000310498	0	0	0	
0.0201667	0.00570718	-0.0162113	0.000317135	0.000344239	0	0	0	
0.0203333	0.00581637	0.0253676	0.000216248	0.000376242	0	0	0	
0.0205	-0.013757	-0.0449918	0.000166853	0.000507973	0	0	0	
0.0206667	0.0119289	0.0351002	0.000198285	0.00070234	0	0	0	
0.0208333	-0.000256487	-0.0270309	0.00028707	0.000918137	0	0	0	
0.021	0.00198092	0.035033	0.000245596	0.00101961	0	0	0	
0.0211667	-0.00904646	-0.0396986	0.000195782	0.00104251	0	0	0	
0.0213333	0.0100095	0.0247079	0.000136613	0.00103419	0	0	0	
0.0215	-0.00332236	-0.0144332	0.000206143	0.000935901	0	0	0	
0.0216667	0.00818664	0.0340472	0.000191148	0.000797625	0	0	0	
0.0218333	-0.0222962	-0.0432714	0.000240391	0.000781036	0	0	0	
0.022	0.0154489	0.0291628	0.000293045	0.000887626	0	0	0	
0.0221667	0.00825841	-0.0267838	0.000419944	0.000871943	0	0	0	
0.0223333	-0.00798246	0.0579161	0.000394675	0.000857714	0	0	0	
0.0225	-0.00544546	-0.0463663	0.000321328	0.000828492	0	0	0	
0.0226667	0.00981521	0.0440644	0.000177711	0.00092485	0	0	0	
0.0228333	-0.00562498	-0.0337899	0.000198352	0.000920962	0	0	0	
0.023	0.00387816	0.0250325	0.000190455	0.000818466	0	0	0	
0.0231667	-0.0111792	-0.0234307	0.000215772	0.000688057	0	0	0	
0.0233333	0.0114733	0.0359887	0.000187977	0.000592856	0	0	0	
0.0235	-0.00493956	-0.0203527	0.00027268	0.000624827	0	0	0	
0.0236667	-0.00289141	0.0204463	0.000338251	0.000723996	0	0	0	
0.0238333	-0.0110934	-0.023122	0.00033635	0.000724715	0	0	0	
0.024	0.0161221	0.0141502	0.000291924	0.000682404	0	0	0	
0.0241667	-0.0141139	0.00420463	0.000280648	0.000665083	0	0	0	
0.0243333	0.0010898	0.00466658	0.000275673	0.000607813	0	0	0	
0.0245	0.00244746	-0.0328265	0.000208682	0.000562529	0	0	0	
0.0246667	0.00473293	0.0580881	0.000121247	0.000632383	0	0	0	
0.0248333	-0.0244524	-0.056249	0.000144997	0.000855365	0	0	0	
0.025	0.0232384	0.0430341	0.000279174	0.00105972	0	0	0	
0.0251667	-0.00722526	-0.026535	0.000383693	0.00109625	0	0	0	
0.0253333	-0.0060052	0.02904	0.000367281	0.000978385	0	0	0	
0.0255	0.000780681	-0.0341568	0.00026685	0.000879634	0	0	0	
0.0256667	0.00315298	0.0188732	0.000229659	0.000867743	0	0	0	
0.0258333	-0.00441086	-0.012227	0.000210158	0.000828877	0	0	0	
0.026	0.0187754	0.0371607	0.000225172	0.000732735	0	0	0	
0.0261667	-0.011039	-0.0419902	0.000253532	0.0006435	0	0	0	
0.0263333	-0.00888701	0.0260519	0.000398702	0.00072491	0	0	0	
0.0265	0.0086966	-0.0163778	0.000474619	0.000770606	0	0	0	
0.0266667	0.00443033	0.0221713	0.000407489	0.000692767	0	0	0	
0.0268333	-0.0104361	-0.036711	0.000253195	0.000640596	0	0	0	
0.027	0.0175576	0.0367029	0.000194772	0.000704102	0	0	0	
0.0271667	-0.0207002	-0.0354349	0.000285377	0.000749209	0	0	0	
0.0273333	0.0236889	0.0371977	0.000398571	0.000741961	0	0	0	
0.0275	-0.0179541	-0.0190668	0.000472324	0.00072935	0	0	0	
0.0276667	0.00893596	0.00303255	0.00050264	0.00083453	0	0	0	
0.0278333	-0.000903072	-0.00827314	0.000412788	0.000825421	0	0	0	
0.028	0.00782297	0.00659314	0.000282531	0.000713743	0	0	0	
0.0281667	-0.00652645	0.0108236	0.000171304	0.000578039	0	0	0	
0.0283333	0.0024142	0.0226549	0.000152851	0.000526162	0	0	0	
0.0285	-0.00131909	-0.076507	0.000128764	0.000732186	0	0	0	
0.0286667	0.0039896	0.0851162	0.000105655	0.00117994	0	0	0	
0.0288333	-0.00562416	-0.0369805	8.71016E-05	0.00170557	0	0	0	
0.029	0.0120422	0.00679144	0.000124748	0.00185283	0	0	0	
0.0291667	-0.00699693	-0.00996434	0.000194816	0.00145118	0	0	0	
0.0293333	-0.000803783	0.0210337	0.000332645	0.000894776	0	0	0	
0.0295	0.00176669	-0.0453095	0.000356428	0.000655376	0	0	0	
0.0296667	0.00878964	0.0778144	0.000295663	0.000862111	0	0	0	
0.0298333	-0.0162292	-0.079614	0.000191786	0.00118642	0	0	0	
0.03	0.00854157	0.0360265	0.000223892	0.00133723	0	0	0	
0.0301667	-0.00589693	0.00376671	0.000277814	0.0012892	0	0	0	
0.0303333	0.00762357	-0.0327624	0.000267717	0.0010871	0	0	0	
0.0305	-0.00403235	0.00914458	0.000199151	0.000912927	0	0	0	
0.0306667	0.000894907	0.0112565	0.000168047	0.000649731	0	0	0	
0.0308333	-0.000843189	-0.0214467	0.000158324	0.000527229	0	0	0	
0.031	0.00646124	0.0283835	0.000138555	0.000472421	0	0	0	
0.0311667	-0.0156385	-0.0304725	0.000139615	0.000613281	0	0	0	
0.0313333	0.00135846	0.019134	0.000202863	0.000788469	0	0	0	
0.0315	0.0107774	-0.0219961	0.000297593	0.000906034	0	0	0	
0.0316667	0.00319641	0.0301999	0.000291098	0.00088109	0	0	0	
0.0318333	-0.00876831	-0.0263151	0.000228397	0.000772319	0	0	0	
0.032	0.00579348	0.0161061	0.000180554	0.000735625	0	0	0	
0.0321667	-0.00705789	0.000402434	0.000185266	0.00071019	0	0	0	
0.0323333	0.00663098	-0.00181182	0.000191254	0.000613775	0	0	0	
0.0325	-0.0100397	-0.0125582	0.000184218	0.000455236	0	0	0	
0.0326667	0.0102759	0.0194283	0.000261342	0.000421111	0	0	0	
0.0328333	-0.0098011	-0.0151947	0.000350102	0.00052573	0	0	0	
0.033	0.00721951	0.0156924	0.000377678	0.000633163	0	0	0	
0.0331667	-0.00165848	-0.013884	0.000290705	0.000621647	0	0	0	
0.0333333	-0.00195229	0.0169209	0.000217546	0.000588996	0	0	0	
0.0335	-0.00267552	-0.0257607	0.000202582	0.000649771	0	0	0	
0.0336667	0.00945669	0.0190829	0.00022905	0.000753216	0	0	0	
0.0338333	-0.0144205	-0.0197338	0.000257635	0.000765025	0	0	0	
0.034	0.0104949	0.0292592	0.000269945	0.000673543	0	0	0	
0.0341667	-0.00710987	-0.0264531	0.000249258	0.000622231	0	0	0	
0.0343333	0.00259102	0.0158622	0.000230631	0.000679013	0	0	0	
0.0345	-0.0054588	-0.0200021	0.000213923	0.000714099	0	0	0	
0.0346667	0.0151693	0.0184387	0.000240002	0.00066424	0	0	0	
0.0348333	-0.0146832	-0.0107176	0.000267787	0.000571052	0	0	0	
0.035	0.00941767	0.00826791	0.000289621	0.000506104	0	0	0	
0.0351667	-0.00397252	-0.0183483	0.000256586	0.000489538	0	0	0	
0.0353333	0.00627887	0.0187851	0.000215872	0.000515215	0	0	0	
0.0355	-0.00773425	-0.0139538	0.000210028	0.000527833	0	0	0	
0.0356667	0.00783072	0.0153162	0.000242086	0.00051293	0	0	0	
0.0358333	0.00239838	-0.0165934	0.000245287	0.000516442	0	0	0	
0.036	-0.00260885	0.0131943	0.00019546	0.000580221	0	0	0	
0.0361667	-0.00301246	-0.0193061	0.000153349	0.000636489	0	0	0	
0.0363333	0.0162501	0.0308926	0.000136796	0.000657105	0	0	0	
0.0365	-0.0154166	-0.0245148	0.000205043	0.000663285	0	0	0	
0.0366667	0.0122097	0.0220033	0.000252763	0.000679746	0	0	0	
0.0368333	-0.00770191	-0.0284006	0.00029324	0.000716872	0	0	0	
0.037	0.0100535	0.029027	0.000308056	0.000748738	0	0	0	
0.0371667	-0.00495307	-0.0253689	0.000330661	0.000787936	0	0	0	
0.0373333	0.00213031	0.0221651	0.000343502	0.000745849	0	0	0	
0.0375	0.00771231	-0.0126337	0.000305349	0.000634256	0	0	0	
0.0376667	-0.00254065	0.0262695	0.00022801	0.000501213	0	0	0	
0.0378333	-0.0136265	-0.0432417	0.000197399	0.000559096	0	0	0	
0.038	0.0234276	0.0125259	0.000227203	0.000745854	0	0	0	
0.0381667	-0.00195978	0.00959476	0.000313058	0.000953212	0	0	0	
0.0383333	0.00447521	0.01692	0.000283407	0.000769785	0	0	0	
0.0385	-0.0184101	-0.0367481	0.000243361	0.0005926	0	0	0	
0.0386667	0.0136396	0.0214377	0.000238516	0.000537895	0	0	0	
0.0388333	0.00256845	-0.0133796	0.000386569	0.000757026	0	0	0	
0.039	0.00424393	0.019964	0.000374975	0.00074394	0	0	0	
0.0391667	-0.0113222	-0.0339817	0.000352085	0.000688631	0	0	0	
0.0393333	0.0101545	0.0221994	0.000212686	0.000717488	0	0	0	
0.0395	0.00621597	-0.00418197	0.000301627	0.000884415	0	0	0	
0.0396667	-0.00872004	0.00617886	0.000299478	0.000845668	0	0	0	
0.0398333	-0.00679999	-0.0363779	0.000283264	0.000695778	0	0	0	
0.04	0.0137264	0.0393327	0.000195624	0.000698949	0	0	0	
0.0401667	-0.00579794	-0.00974663	0.000176717	0.000924171	0	0	0	
0.0403333	0.00124078	0.00054782	0.00019616	0.00100567	0	0	0	
0.0405	-0.0114871	-0.0242028	0.000181982	0.000778962	0	0	0	
0.0406667	0.0192297	0.0299038	0.00020765	0.000555806	0	0	0	
0.0408333	-0.00788845	-0.0115396	0.000295269	0.00045355	0	0	0	
0.041	-0.00595312	0.00684304	0.000432399	0.000567289	0	0	0	
0.0411667	0.00445148	-0.0119482	0.0004599	0.000541881	0	0	0	
0.0413333	0.00236074	0.013023	0.000356077	0.000529169	0	0	0	
0.0415	-0.00438329	-0.00174494	0.000192184	0.00049096	0	0	0	
0.0416667	0.00390573	-0.00360739	0.000106737	0.000583644	0	0	0	
0.0418333	-0.00620564	0.0055234	0.000135658	0.00070013	0	0	0	
0.042	0.0147343	0.0161075	0.000204217	0.000753629	0	0	0	
0.0421667	-0.0183347	-0.0254858	0.000281182	0.000754103	0	0	0	
0.0423333	0.00834547	0.0168943	0.00035912	0.000803888	0	0	0	
0.0425	0.00467709	-0.00147285	0.000417556	0.000879431	0	0	0	
0.0426667	0.000265315	0.00469152	0.000371512	0.000812718	0	0	0	
0.0428333	-0.0129915	-0.0177877	0.000284777	0.000638504	0	0	0	
0.043	0.0140008	0.0286557	0.000225364	0.000576361	0	0	0	
0.0431667	-0.00494873	-0.0215044	0.00026329	0.000702276	0	0	0	
0.0433333	0.000237659	0.0057338	0.000321716	0.000881177	0	0	0	
0.0435	-0.00221646	-0.0060975	0.0003046	0.000937617	0	0	0	
0.0436667	0.00344562	0.0189393	0.000224055	0.000907404	0	0	0	
0.0438333	-0.0092681	-0.0239779	0.000136448	0.000856661	0	0	0	
0.044	0.0137138	0.0329585	0.00013911	0.000832401	0	0	0	
0.0441667	-0.0132385	-0.0435259	0.000202957	0.000861538	0	0	0	
0.0443333	0.0120815	0.0390833	0.000274051	0.000933571	0	0	0	
0.0445	-0.00781241	-0.0421589	0.000318653	0.00105326	0	0	0	
0.0446667	-0.00481092	0.0458824	0.000308418	0.00115531	0	0	0	
0.0448333	0.00304622	-0.0321746	0.000284437	0.00115345	0	0	0	
0.045	0.00127164	0.0430357	0.000214827	0.0011115	0	0	0	
0.0451667	-0.000234039	-0.033652	0.000145182	0.000965062	0	0	0	
0.0453333	0.0124739	0.0414962	0.000124463	0.00087234	0	0	0	
0.0455	-0.0146564	-0.0288732	0.000176289	0.000741515	0	0	0	
0.0456667	0.00492192	0.0199886	0.000255773	0.000667163	0	0	0	
0.0458333	-0.000144992	-0.0240443	0.000233739	0.000583223	0	0	0	
0.046	0.00913337	0.0316487	0.000184365	0.000533719	0	0	0	
0.0461667	-0.010911	-0.00561035	0.000153953	0.000464771	0	0	0	
0.0463333	0.0137903	0.00883102	0.000236402	0.000398576	0	0	0	
0.0465	-0.010209	-0.00944663	0.000305939	0.000325028	0	0	0	
0.0466667	0.00652439	0.0162289	0.000343152	0.000349999	0	0	0	
0.0468333	-0.00381797	-0.0189385	0.00031373	0.000471103	0	0	0	
0.047	0.00421075	0.0152556	0.000276716	0.000590698	0	0	0	
0.0471667	-0.00298558	-0.0207377	0.000224864	0.000652449	0	0	0	
0.0473333	0.00646325	0.0359887	0.000175926	0.000720941	0	0	0	
0.0475	-0.0122401	-0.0278497	0.000165383	0.000800306	0	0	0	
0.0476667	0.0130744	0.0189845	0.000208021	0.000822271	0	0	0	
0.0478333	-0.0132387	-0.0180157	0.000250069	0.00072655	0	0	0	
0.048	0.0107065	0.0165124	0.000276033	0.000641531	0	0	0	
0.0481667	-0.00454301	-0.0122834	0.000271937	0.000624103	0	0	0	
0.0483333	0.0055503	0.0295461	0.00026299	0.000652254	0	0	0	
0.0485	-0.00835508	-0.0267819	0.000243656	0.000647405	0	0	0	
0.0486667	0.00245889	0.0161808	0.00023969	0.000659731	0	0	0	
0.0488333	0.000273502	-0.00846094	0.000232463	0.000671184	0	0	0	
0.049	0.0101432	0.0165461	0.000219202	0.000631583	0	0	0	
0.0491667	-0.0130594	-0.0261085	0.000226373	0.000594163	0	0	0	
0.0493333	0.0108477	0.0255913	0.000280942	0.000586703	0	0	0	
0.0495	-0.00522224	-0.0212985	0.000296007	0.000646033	0	0	0	
0.0496667	0.00412637	0.0201598	0.000260851	0.000660782	0	0	0	
0.0498333	-0.00567495	-0.0252229	0.000209918	0.000675532	0	0	0	
0.05	0.00580082	0.0157951	0.000214548	0.000657711	0	0	0	
0.0501667	-0.00318328	-0.0101786	0.000211394	0.000675486	0	0	0	
0.0503333	0.00552881	0.0109478	0.000182229	0.000652298	0	0	0	
0.0505	-0.00520814	-0.0157869	0.000127102	0.000614904	0	0	0	
0.0506667	0.00682501	0.0172792	0.000101452	0.000541937	0	0	0	
0.0508333	-0.0120123	-0.0260679	0.000134051	0.000548712	0	0	0	
0.051	0.0103764	0.0230817	0.000206192	0.000620699	0	0	0	
0.0511667	-0.00819157	-0.0190344	0.000315439	0.00071341	0	0	0	
0.0513333	0.00103165	0.0251527	0.000361443	0.000757745	0	0	0	
0.0515	0.00375336	-0.0261398	0.000338768	0.000786871	0	0	0	
0.0516667	-0.00727095	0.00911617	0.000259602	0.00074999	0	0	0	
0.0518333	0.00175158	-0.0077769	0.000188419	0.000662583	0	0	0	
0.052	0.0071824	0.0234552	0.000149295	0.000546102	0	0	0	
0.0521667	-0.0136876	-0.0393779	0.000172672	0.000556858	0	0	0	
0.0523333	0.0176932	0.0442331	0.000224719	0.000648858	0	0	0	
0.0525	-0.0094598	-0.0285428	0.000305262	0.000805573	0	0	0	
0.0526667	0.00175253	0.00603049	0.000329243	0.000803298	0	0	0	
0.0528333	-0.0107765	-0.0243208	0.000330539	0.000700375	0	0	0	
0.053	0.0113712	0.0387718	0.000354917	0.000661293	0	0	0	
0.0531667	0.00685653	-0.0193038	0.000453878	0.000745333	0	0	0	
0.0533333	-0.00727799	0.00571348	0.000496434	0.00076744	0	0	0	
0.0535	0.00339365	-0.0207443	0.000370413	0.000635558	0	0	0	
0.0536667	0.00736968	0.0145977	0.00020464	0.000531424	0	0	0	
0.0538333	-0.0149413	-0.00684351	0.000154624	0.000536277	0	0	0	
0.054	0.0158044	0.0576774	0.000267314	0.000592552	0	0	0	
0.0541667	-0.0155314	-0.12563	0.000413057	0.000991208	0	0	0	
0.0543333	0.00680352	0.15317	0.000641999	0.00173768	0	0	0	
0.0545	0.0171065	-0.0914504	0.00098423	0.00230196	0	0	0	
0.0546667	-0.0323755	0.0558815	0.00118279	0.00224896	0	0	0	
0.0548333	0.015008	-0.044965	0.00102178	0.00180919	0	0	0	
0.055	0.0147808	0.0201807	0.000608043	0.0014156	0	0	0	
0.0551667	-0.0279488	-0.00556067	0.000370391	0.00105499	0	0	0	
0.0553333	0.0322819	0.0225764	0.0004025	0.00106224	0	0	0	
0.0555	-0.0422568	-0.00759556	0.00062194	0.00123473	0	0	0	
0.0556667	0.031043	0.020778	0.00076344	0.00133003	0	0	0	
0.0558333	-0.00934587	-0.0293718	0.000852543	0.000955052	0	0	0	
0.056	-0.000140993	0.0173577	0.000793172	0.000572347	0	0	0	
0.0561667	-0.00203981	-0.0297613	0.000559503	0.000436926	0	0	0	
0.0563333	0.0125973	0.0375875	0.000317229	0.000556687	0	0	0	
0.0565	-0.0143459	-0.0354186	0.00019941	0.000618803	0	0	0	
0.0566667	-0.00124779	0.0142362	0.000298516	0.000810629	0	0	0	
0.0568333	0.00263119	-0.0160198	0.00036698	0.000879396	0	0	0	
0.057	0.0107363	0.0429469	0.000321238	0.00100316	0	0	0	
0.0571667	-0.00690998	-0.02426	0.000232598	0.000913635	0	0	0	
0.0573333	0.00266762	0.00610975	0.000245994	0.000770266	0	0	0	
0.0575	-0.000230181	-0.00612529	0.000303482	0.000583663	0	0	0	
0.0576667	3.23596E-06	0.0109922	0.000267533	0.000503894	0	0	0	
0.0578333	-0.00326236	-0.023561	0.000198005	0.000513087	0	0	0	
0.058	0.0113383	0.0394888	0.000154631	0.000644815	0	0	0	
0.0581667	-0.0244968	-0.0211738	0.000259505	0.000764739	0	0	0	
0.0583333	0.0444907	-0.0188584	0.000443836	0.000708605	0	0	0	
0.0585	-0.0456985	0.0412157	0.0006468	0.000729683	0	0	0	
0.0586667	0.00729103	-0.0181052	0.000693466	0.000738648	0	0	0	
0.0588333	0.0283976	-0.00846864	0.000615286	0.000673641	0	0	0	
0.059	-0.0247205	0.0401933	0.000520789	0.000556707	0	0	0	
0.0591667	0.00872377	-0.0514206	0.00043682	0.000605878	0	0	0	
0.0593333	-0.00813357	0.00525642	0.000347717	0.000765398	0	0	0	
0.0595	0.00443459	0.0367094	0.000257449	0.000856108	0	0	0	
0.0596667	0.00815064	-0.0177973	0.000274961	0.000862304	0	0	0	
0.0598333	-0.012158	-0.0130382	0.000245859	0.000788725	0	0	0	
0.06	0.00897397	0.0355356	0.00035596	0.000696204	0	0	0	
0.0601667	-0.0010519	-0.0408402	0.000479046	0.000632514	0	0	0	
0.0603333	0.00662857	0.0351505	0.000569464	0.000751069	0	0	0	
0.0605	-0.020796	-0.016522	0.000483827	0.000812324	0	0	0	
0.0606667	0.020258	-0.0298269	0.000407668	0.000684596	0	0	0	
0.0608333	-0.040606	0.00605972	0.00055671	0.000575661	0	0	0	
0.061	0.027676	0.0242519	0.000728458	0.000822998	0	0	0	
0.0611667	-0.0147525	-0.04997	0.000725411	0.00097555	0	0	0	
0.0613333	0.0154361	-0.000880532	0.000550778	0.00103995	0	0	0	
0.0615	-0.00268292	0.0101189	0.000316367	0.000787702	0	0	0	
0.0616667	0.00548206	0.000888045	0.000178692	0.000498295	0	0	0	
0.0618333	-0.0261331	-0.0294384	0.000168378	0.000357528	0	0	0	
0.062	0.0110836	-0.0029911	0.000358565	0.000278372	0	0	0	
0.0621667	0.0138318	-0.0178216	0.000417891	0.000328259	0	0	0	
0.0623333	-0.00875816	0.0293579	0.000428399	0.000443711	0	0	0	
0.0625	0.00674899	-0.0360755	0.000259624	0.000737538	0	0	0	
0.0626667	0.00877885	0.0220529	0.000251913	0.0011733	0	0	0	
0.0628333	-0.0202862	-0.0177125	0.000278168	0.00121192	0	0	0	
0.063	0.0232052	0.014698	0.000385369	0.000906957	0	0	0	
0.0631667	-0.0111752	-0.0274589	0.000504074	0.000521995	0	0	0	
0.0633333	0.00346285	0.0298414	0.000497429	0.000459113	0	0	0	
0.0635	-0.00910151	-0.0313521	0.000368722	0.000518263	0	0	0	
0.0636667	0.0137333	0.0321997	0.000253169	0.000714742	0	0	0	
0.0638333	-0.0100878	-0.0158907	0.000218149	0.000983587	0	0	0	
0.064	0.000128878	-0.0134812	0.000228072	0.00102679	0	0	0	
0.0641667	0.00395637	-0.00500315	0.000206623	0.000753031	0	0	0	
0.0643333	0.0126672	0.0373576	0.000189051	0.000439264	0	0	0	
0.0645	-0.0140836	-0.0331563	0.000218592	0.000435928	0	0	0	
0.0646667	0.00130101	0.0263614	0.000254438	0.000705499	0	0	0	
0.0648333	-0.00619404	-0.0503552	0.000222652	0.00098154	0	0	0	
0.065	0.0121916	0.0424424	0.000201345	0.00108751	0	0	0	
0.0651667	-0.00445082	-0.000511542	0.000166724	0.00103452	0	0	0	
0.0653333	0.0099059	-0.00665161	0.000174971	0.000789808	0	0	0	
0.0655	-0.0201346	-0.0218874	0.000205745	0.000527173	0	0	0	
0.0656667	0.0187403	0.0304668	0.000326424	0.000473861	0	0	0	
0.0658333	-0.00226618	-0.0149882	0.000513099	0.000521223	0	0	0	
0.066	-0.0182243	0.0228061	0.000586963	0.000585235	0	0	0	
0.0661667	0.0232914	-0.0427805	0.000525308	0.000602461	0	0	0	
0.0663333	-0.0111175	0.0423922	0.000465075	0.000651153	0	0	0	
0.0665	-0.00710967	-0.03612	0.000415823	0.0008086	0	0	0	
0.0666667	0.0137685	0.0167338	0.000363275	0.00103624	0	0	0	
0.0668333	-0.00979075	0.00634459	0.000266938	0.00129942	0	0	0	
0.067	0.00410951	-0.00826794	0.000194634	0.00145281	0	0	0	
0.0671667	0.012449	0.00551201	0.000252829	0.00132112	0	0	0	
0.0673333	-0.0212213	-0.00849766	0.000358326	0.000838011	0	0	0	
0.0675	0.00840677	-0.0406383	0.000417818	0.000507029	0	0	0	
0.0676667	0.012507	0.0712196	0.000358355	0.00056039	0	0	0	
0.0678333	-0.00747515	-0.057398	0.000307152	0.00104219	0	0	0	
0.068	-0.00757725	0.0290239	0.000376229	0.00130874	0	0	0	
0.0681667	0.00742667	-0.0292601	0.000474948	0.00120473	0	0	0	
0.0683333	0.00445827	0.0239488	0.000450442	0.000961595	0	0	0	
0.0685	0.000163654	-0.0160104	0.000322814	0.000781611	0	0	0	
0.0686667	0.00406072	0.0154783	0.000187851	0.000667986	0	0	0	
0.0688333	-0.00682809	-0.0299726	0.000105719	0.000594126	0	0	0	
0.069	0.00788727	0.0192731	0.000122143	0.000683673	0	0	0	
0.0691667	-0.00807445	-0.0029923	0.000211806	0.000913973	0	0	0	
0.0693333	0.00693038	0.00592308	0.00026013	0.000912757	0	0	0	
0.0695	-0.00965492	-0.0321101	0.000245109	0.000742989	0	0	0	
0.0696667	0.0100137	0.0381834	0.000242659	0.000681407	0	0	0	
0.0698333	0.00124857	-0.0234906	0.000306907	0.000876011	0	0	0	
0.07	0.00571028	0.0211953	0.000307864	0.000963418	0	0	0	
0.0701667	-0.0147319	-0.0229595	0.000254874	0.000851674	0	0	0	
0.0703333	0.00687559	0.00635489	0.00019694	0.000743678	0	0	0	
0.0705	0.00167414	-0.0128611	0.000225709	0.000760381	0	0	0	
0.0706667	0.00248995	0.0211275	0.000189144	0.000751866	0	0	0	
0.0708333	-0.0123733	-0.00809134	0.000150993	0.000632127	0	0	0	
0.071	0.0136032	0.00620948	0.000149676	0.000447988	0	0	0	
0.0711667	-0.011579	-0.0308441	0.000202129	0.000390157	0	0	0	
0.0713333	0.0025701	0.0139909	0.000253338	0.000513924	0	0	0	
0.0715	-0.000363832	-0.0042915	0.000242096	0.00069018	0	0	0	
0.0716667	0.0147734	0.0340019	0.000215035	0.000688695	0	0	0	
0.0718333	-0.0196789	-0.0452524	0.000256797	0.000644526	0	0	0	
0.072	-0.00479771	0.000758267	0.000372591	0.000848741	0	0	0	
0.0721667	0.0132124	0.00896575	0.000411387	0.00105032	0	0	0	
0.0723333	0.00568349	0.0133882	0.000389965	0.000895366	0	0	0	
0.0725	-0.0185804	-0.0192051	0.000278384	0.000652137	0	0	0	
0.0726667	0.0176251	0.00616933	0.000336465	0.000675441	0	0	0	
0.0728333	-0.00578582	0.000205263	0.000323898	0.000814227	0	0	0	
0.073	0.0107106	0.0223837	0.000286576	0.000735215	0	0	0	
0.0731667	-0.0107126	-0.0423173	0.000231021	0.000634374	0	0	0	
0.0733333	-0.000583981	0.0300404	0.000294348	0.000744475	0	0	0	
0.0735	0.0101358	-0.0181006	0.00042371	0.000965584	0	0	0	
0.0736667	0.00433783	0.0240833	0.000394195	0.000941696	0	0	0	
0.0738333	-0.00898069	-0.0278253	0.000301522	0.000782951	0	0	0	
0.074	0.0165723	0.0230643	0.000216593	0.000666929	0	0	0	
0.0741667	-0.00606709	-0.00601201	0.000270042	0.000673287	0	0	0	
0.0743333	0.00703065	0.00844611	0.00025506	0.000620969	0	0	0	
0.0745	-0.00927583	-0.0214154	0.000236981	0.000532759	0	0	0	
0.0746667	0.00594715	0.0187076	0.000217922	0.000520783	0	0	0	
0.0748333	0.000996459	-0.00484203	0.000194558	0.000575797	0	0	0	
0.075	0.0126298	0.00831657	0.000174674	0.000548513	0	0	0	
0.0751667	-0.0183015	-0.0172751	0.000186428	0.000462712	0	0	0	
0.0753333	0.0152558	0.0262454	0.000273965	0.000514736	0	0	0	
0.0755	-0.00187886	-0.0229937	0.000344914	0.000661899	0	0	0	
0.0756667	-0.00268441	0.0217892	0.000345094	0.0007899	0	0	0	
0.0758333	-0.00113008	-0.0176872	0.000275767	0.000765207	0	0	0	
0.076	0.0123346	0.0211653	0.000239693	0.000687088	0	0	0	
0.0761667	-0.00430779	-0.0264654	0.000217646	0.000677968	0	0	0	
0.0763333	0.000156683	0.0188326	0.000218874	0.000754033	0	0	0	
0.0765	0.00277345	-0.00517396	0.000152823	0.000767552	0	0	0	
0.0766667	0.00246935	0.0045408	0.000103161	0.000633694	0	0	0	
0.0768333	-0.0115224	-0.00918205	9.74375E-05	0.000467746	0	0	0	
0.077	0.0185925	0.00458857	0.000203125	0.000429153	0	0	0	
0.0771667	-0.00932076	-0.00304944	0.000290112	0.00050073	0	0	0	
0.0773333	0.0097004	0.010839	0.000390982	0.00050351	0	0	0	
0.0775	-0.000117873	-0.0260202	0.000386639	0.000473039	0	0	0	
0.0776667	-0.00700141	0.0225718	0.00032239	0.000510598	0	0	0	
0.0778333	-0.00363087	-0.00432606	0.000208154	0.000721867	0	0	0	
0.078	0.0125521	0.00774071	0.000136977	0.000853638	0	0	0	
0.0781667	-0.0188167	-0.0255063	0.000201523	0.000865184	0	0	0	
0.0783333	0.0168891	0.0241312	0.000310856	0.000842694	0	0	0	
0.0785	-0.00916441	-0.0185971	0.000402104	0.000838457	0	0	0	
0.0786667	0.00506672	0.0180367	0.000398604	0.000751128	0	0	0	
0.0788333	-0.00545055	-0.0158732	0.000334897	0.000595929	0	0	0	
0.079	0.0071188	0.0178285	0.000243617	0.000562869	0	0	0	
0.0791667	-0.0146162	-0.0171028	0.000203944	0.000640865	0	0	0	
0.0793333	0.0122488	0.0178439	0.000219524	0.000718941	0	0	0	
0.0795	-0.00624202	-0.0141394	0.000291231	0.000673842	0	0	0	
0.0796667	0.00627396	0.0163819	0.000314586	0.000567113	0	0	0	
0.0798333	-0.00672201	-0.023833	0.000284533	0.000500972	0	0	0	
0.08	0.00743879	0.0262328	0.000253832	0.000547016	0	0	0	
0.0801667	0.00120611	-0.0247663	0.000253166	0.000681093	0	0	0	
0.0803333	-0.00290843	0.0388236	0.000260871	0.000828161	0	0	0	
0.0805	-0.00359989	-0.0257112	0.000204905	0.000857578	0	0	0	
0.0806667	0.0133652	0.0197367	0.000181749	0.000822357	0	0	0	
0.0808333	-0.0121284	-0.0137562	0.000216828	0.00076665	0	0	0	
0.081	0.0113215	0.0139971	0.000302028	0.000695529	0	0	0	
0.0811667	-0.00899605	-0.0207239	0.000304421	0.000610007	0	0	0	
0.0813333	0.00598513	0.0224642	0.000255196	0.000531911	0	0	0	
0.0815	-0.00657564	-0.00747657	0.000204596	0.00044817	0	0	0	
0.0816667	0.00852609	0.031324	0.000186589	0.000428376	0	0	0	
0.0818333	-0.00947201	-0.0421845	0.000211647	0.000536726	0	0	0	
0.082	0.00548977	0.0217202	0.000272167	0.000753201	0	0	0	
0.0821667	0.000488803	-0.0101043	0.000321022	0.00086586	0	0	0	
0.0823333	-0.000552912	0.0121547	0.000286445	0.000710748	0	0	0	
0.0825	-0.00212982	-0.0173307	0.000205622	0.000581445	0	0	0	
0.0826667	-0.00242701	0.0128701	0.000153	0.000641136	0	0	0	
0.0828333	-0.00168252	0.00722404	0.000142755	0.000805671	0	0	0	
0.083	0.00787398	-0.00802769	0.000155582	0.000915148	0	0	0	
0.0831667	0.0025063	-0.00849135	0.000210609	0.000951443	0	0	0	
0.0833333	-0.00825161	0.00845347	0.000287463	0.000976433	0	0	0	
0.0835	0.00606975	-0.0250939	0.000293442	0.00100185	0	0	0	
0.0836667	-0.00137337	0.0373869	0.000206549	0.00101673	0	0	0	
0.0838333	-0.000655787	-0.0430577	9.91602E-05	0.00106136	0	0	0	
0.084	0.010051	0.0577866	6.99273E-05	0.00118148	0	0	0	
0.0841667	-0.0143457	-0.0596088	0.000154844	0.00137875	0	0	0	
0.0843333	0.0089535	0.035998	0.000332351	0.00146285	0	0	0	
0.0845	0.000942441	-0.0346669	0.000468524	0.00135156	0	0	0	
0.0846667	-0.000745945	0.0385539	0.000443116	0.00107339	0	0	0	
0.0848333	-0.00213048	-0.0325485	0.00031383	0.000875561	0	0	0	
0.085	0.000811914	0.0183749	0.000257116	0.000778042	0	0	0	
0.0851667	0.00425775	-0.00555889	0.000296716	0.000721733	0	0	0	
0.0853333	-0.000975722	0.00739937	0.000284913	0.000648665	0	0	0	
0.0855	-0.00787621	-0.0208057	0.000192788	0.000588144	0	0	0	
0.0856667	0.0102461	0.0238885	0.00013278	0.000554069	0	0	0	
0.0858333	-0.00495974	-0.0309828	0.000154075	0.00060153	0	0	0	
0.086	0.00858563	0.00796455	0.000207967	0.00060819	0	0	0	
0.0861667	-0.0107373	0.0184078	0.000263967	0.000546527	0	0	0	
0.0863333	-0.000170522	0.00037047	0.000362179	0.000465635	0	0	0	
0.0865	0.0113654	-0.0227226	0.000401094	0.000474825	0	0	0	
0.0866667	-0.00227885	0.00570813	0.000335662	0.000674305	0	0	0	
0.0868333	-0.0158781	0.0218286	0.000261042	0.000857804	0	0	0	
0.087	0.018604	-0.0438677	0.000249119	0.000850814	0	0	0	
0.0871667	-0.012903	0.0232505	0.000345317	0.000914745	0	0	0	
0.0873333	0.00710682	0.00715678	0.000366193	0.000951458	0	0	0	
0.0875	0.00162657	-0.0316723	0.000350907	0.00116268	0	0	0	
0.0876667	-0.00943417	0.0337894	0.000331308	0.00121683	0	0	0	
0.0878333	0.00941064	-0.00265749	0.000324724	0.00131647	0	0	0	
0.088	0.00286833	-0.0146382	0.000260312	0.00129685	0	0	0	
0.0881667	-0.0200144	-0.00897352	0.000201699	0.0011001	0	0	0	
0.0883333	0.0163238	0.0161441	0.00021962	0.000856964	0	0	0	
0.0885	7.93766E-05	-0.0317546	0.000309839	0.000707382	0	0	0	
0.0886667	0.000392305	0.046788	0.00033842	0.000733541	0	0	0	
0.0888333	-0.00555323	-0.0449799	0.000295409	0.000837326	0	0	0	
0.089	0.00749578	0.0166325	0.000271754	0.00101602	0	0	0	
0.0891667	-0.00453865	0.0125524	0.000255155	0.00116271	0	0	0	
0.0893333	0.00751266	-0.0179837	0.000232435	0.00115332	0	0	0	
0.0895	-0.00946105	-0.00409133	0.000212231	0.000947061	0	0	0	
0.0896667	0.00266695	0.0123584	0.000223749	0.000692912	0	0	0	
0.0898333	0.00494669	-0.000378625	0.000312286	0.000589291	0	0	0	
0.09	-0.00968083	0.0118341	0.000297007	0.000576929	0	0	0	
0.0901667	0.00122921	-0.042598	0.000272419	0.000650444	0	0	0	
0.0903333	0.010868	0.0538987	0.000151955	0.0007173	0	0	0	
0.0905	-0.00918452	-0.0402912	0.00019738	0.000918762	0	0	0	
0.0906667	0.00592349	0.013528	0.000217971	0.00086669	0	0	0	
0.0908333	-0.0139095	-0.0182662	0.000319214	0.000698214	0	0	0	
0.091	-0.000594903	0.019611	0.00038616	0.000446091	0	0	0	
0.0911667	0.0132345	-0.00530818	0.000479145	0.000410535	0	0	0	
0.0913333	-0.00127183	-0.0164218	0.000453094	0.000383698	0	0	0	
0.0915	-0.00972052	0.0178461	0.000326118	0.000401401	0	0	0	
0.0916667	0.0179207	-0.0620437	0.000235757	0.000533474	0	0	0	
0.0918333	-0.012088	0.0815261	0.000276588	0.000902564	0	0	0	
0.092	0.00598432	-0.0658762	0.000333188	0.00122435	0	0	0	
0.0921667	-0.0126241	0.0207467	0.000322603	0.00121638	0	0	0	
0.0923333	0.00625267	0.00375887	0.000240967	0.000857221	0	0	0	
0.0925	0.0026045	-0.0225518	0.000186681	0.000591569	0	0	0	
0.0926667	0.00837782	0.0202152	0.000159951	0.00056922	0	0	0	
0.0928333	-0.0149817	-0.0158226	0.000182106	0.000906182	0	0	0	
0.093	0.0121092	-0.0060563	0.000258017	0.00141954	0	0	0	
0.0931667	-0.00320935	0.0387911	0.000343464	0.00177852	0	0	0	
0.0933333	-0.00725033	-0.0284258	0.000329931	0.00161257	0	0	0	
0.0935	-0.00255214	-0.0161981	0.000256441	0.00102038	0	0	0	
0.0936667	0.00988112	0.0194878	0.000188859	0.000692988	0	0	0	
0.0938333	-0.00908333	-0.00951219	0.000200503	0.000730327	0	0	0	
0.094	0.0131397	0.0195844	0.000247597	0.00079937	0	0	0	
0.0941667	-0.0141283	-0.0136678	0.000270224	0.000742294	0	0	0	
0.0943333	0.00568823	-0.00735497	0.000276913	0.000806532	0	0	0	
0.0945	-2.39267E-05	-0.00204723	0.000250271	0.00092716	0	0	0	
0.0946667	0.00815249	0.0257888	0.000238568	0.000894531	0	0	0	
0.0948333	-0.00881178	-0.04051	0.000273086	0.000771735	0	0	0	
0.095	0.0006509	0.033003	0.000302703	0.000793419	0	0	0	
0.0951667	-0.00529381	-0.013116	0.000281469	0.000926268	0	0	0	
0.0953333	0.00816509	0.00749005	0.000221517	0.00087167	0	0	0	
0.0955	-0.00915165	-0.0182602	0.000213267	0.000653351	0	0	0	
0.0956667	0.00926369	0.0268667	0.000294321	0.000520049	0	0	0	
0.0958333	-0.0040843	-0.0259594	0.000373494	0.000577873	0	0	0	
0.096	-0.00341737	0.0238252	0.000355036	0.000702289	0	0	0	
0.0961667	-0.00362273	-0.0152412	0.000236656	0.000714104	0	0	0	
0.0963333	0.0103546	0.00614	0.000150271	0.000695678	0	0	0	
0.0965	-0.013869	-0.00392386	0.000166293	0.000721895	0	0	0	
0.0966667	0.0121573	0.00562745	0.000244012	0.000751016	0	0	0	
0.0968333	-0.00967759	-0.00896466	0.000298891	0.000706212	0	0	0	
0.097	0.00135993	0.0124323	0.000381627	0.000616276	0	0	0	
0.0971667	0.0094859	-0.0211981	0.000456776	0.000585587	0	0	0	
0.0973333	-0.00604051	0.0290408	0.000453701	0.000623745	0	0	0	
0.0975	-0.00396265	-0.0262739	0.000315429	0.000696991	0	0	0	
0.0976667	0.015801	0.0170374	0.000204607	0.000752683	0	0	0	
0.0978333	-0.00903051	-0.0147416	0.000194009	0.000772704	0	0	0	
0.098	0.00238896	0.015209	0.000338229	0.000757182	0	0	0	
0.0981667	-0.00360621	-0.00817502	0.000373111	0.000725208	0	0	0	
0.0983333	0.00862398	0.009903	0.000329878	0.000652662	0	0	0	
0.0985	-0.00921771	-0.0147166	0.000213736	0.000570169	0	0	0	
0.0986667	0.00881525	0.0147889	0.000205772	0.000590183	0	0	0	
0.0988333	-0.00148339	-0.0110147	0.000186404	0.00074637	0	0	0	
0.099	0.00343319	0.00348439	0.000177952	0.000865455	0	0	0	
0.0991667	-0.00317108	-0.00886511	0.000140113	0.000804366	0	0	0	
0.0993333	0.00251364	0.0285308	0.000141581	0.000695716	0	0	0	
0.0995	-0.00346751	-0.0256976	0.00012214	0.000679732	0	0	0	
0.0996667	0.00149857	0.0177434	0.000108776	0.000738269	0	0	0	
0.0998333	0.00212063	-0.0276933	0.000127464	0.000759265	0	0	0	
0.1	-0.0032419	0.0239526	0.000154334	0.000758524	0	0	0	
0.100167	-0.00352155	-0.0165235	0.000176212	0.000804199	0	0	0	
0.100333	0.0037902	0.0153643	0.00019763	0.000838302	0	0	0	
0.1005	-0.004346	-0.0192645	0.00020251	0.000809357	0	0	0	
0.100667	0.00729743	0.0154661	0.000188606	0.0007555	0	0	0	
0.100833	-0.00853107	-0.0136267	0.000178714	0.000752527	0	0	0	
0.101	0.0022742	0.0100292	0.000211688	0.000776144	0	0	0	
0.101167	0.00272972	-0.0176619	0.000253102	0.000783981	0	0	0	
0.101333	-0.00193205	0.0234819	0.000244441	0.000770292	0	0	0	
0.1015	-0.00703654	-0.0252627	0.00019255	0.000763922	0	0	0	
0.101667	0.00804477	0.0249187	0.000152242	0.000768637	0	0	0	
0.101833	-0.00459989	-0.0261555	0.000146142	0.000797856	0	0	0	
0.102	0.00885097	0.0167125	0.000186145	0.00085945	0	0	0	
0.102167	-0.00732564	-0.0178422	0.000209468	0.000842957	0	0	0	
0.102333	0.00623236	0.0353423	0.000249979	0.000737264	0	0	0	
0.1025	-0.00192914	-0.0462776	0.000254687	0.000681582	0	0	0	
0.102667	-0.000393876	0.0243957	0.000244802	0.000829379	0	0	0	
0.102833	-0.000951071	-0.0103907	0.000195583	0.000999213	0	0	0	
0.103	0.00890758	0.0214064	0.000168294	0.000908082	0	0	0	
0.103167	-0.0107098	-0.0248445	0.000181354	0.000696972	0	0	0	
0.103333	0.0100365	0.00614141	0.000228918	0.00050604	0	0	0	
0.1035	-0.00709779	-0.0203299	0.000248711	0.000485015	0	0	0	
0.103667	0.00612409	0.0396206	0.000263672	0.000550623	0	0	0	
0.103833	-0.0051643	-0.0317993	0.000248882	0.000667975	0	0	0	
0.104	0.0103563	0.00411681	0.000213874	0.000687718	0	0	0	
0.104167	-0.0168384	0.0110003	0.000219394	0.000505109	0	0	0	
0.104333	0.0114881	-0.0127285	0.000305402	0.000390373	0	0	0	
0.1045	0.00137509	0.000173596	0.000386153	0.000359416	0	0	0	
0.104667	0.0014054	0.0170266	0.000323302	0.000389058	0	0	0	
0.104833	-0.00734745	-0.00378144	0.000207862	0.000363464	0	0	0	
0.105	0.00106077	-0.0255989	0.000135322	0.000516377	0	0	0	
0.105167	-0.00837441	0.032752	0.000159476	0.00069462	0	0	0	
0.105333	0.018174	0.00447714	0.000208235	0.000740863	0	0	0	
0.1055	-0.0137604	-0.0238717	0.000264293	0.000682919	0	0	0	
0.105667	0.00444765	0.0221113	0.000309355	0.000768102	0	0	0	
0.105833	-0.00323475	-0.00940396	0.000311272	0.000915952	0	0	0	
0.106	0.00604993	0.0329605	0.000245576	0.00100495	0	0	0	
0.106167	-0.0132239	-0.0381327	0.000213324	0.000988091	0	0	0	
0.106333	0.00988123	0.0612322	0.000190626	0.00108422	0	0	0	
0.1065	-0.00389791	-0.0403752	0.000220745	0.00121936	0	0	0	
0.106667	0.00147378	0.0230227	0.000193726	0.00114157	0	0	0	
0.106833	-0.00706737	-0.0101834	0.000192506	0.000892855	0	0	0	
0.107	0.00364977	0.0128487	0.000209737	0.000673559	0	0	0	
0.107167	0.000435135	-0.0127859	0.000233354	0.000581357	0	0	0	
0.107333	-0.00212274	0.0369902	0.000208856	0.000662301	0	0	0	
0.1075	-0.00189541	-0.0403326	0.00014484	0.000788281	0	0	0	
0.107667	0.00930228	0.0458437	0.000113575	0.000916337	0	0	0	
0.107833	-0.0161407	-0.0361931	0.000153805	0.00139679	0	0	0	
0.108	0.00827228	0.0446721	0.000262866	0.00187743	0	0	0	
0.108167	-0.00313919	-0.0449386	0.000348135	0.00223049	0	0	0	
0.108333	0.00397279	-0.000887093	0.000326015	0.00180882	0	0	0	
0.1085	-0.00619554	-0.00382547	0.000242733	0.00114735	0	0	0	
0.108667	0.0038766	0.0365643	0.000163043	0.000634738	0	0	0	
0.108833	-0.0069975	-0.0661466	0.00013119	0.000683711	0	0	0	
0.109	0.00922079	0.0765892	0.000145575	0.00100005	0	0	0	
0.109167	-0.00996798	-0.0541077	0.000185272	0.00131602	0	0	0	
0.109333	0.00397467	0.034552	0.000248176	0.00123004	0	0	0	
0.1095	0.000313067	-0.0377777	0.000302721	0.000928007	0	0	0	
0.109667	-4.98819E-05	0.0150365	0.000307758	0.000771307	0	0	0	
0.109833	-0.0134538	0.011813	0.00026669	0.000725406	0	0	0	
0.11	0.0153999	0.00494687	0.0002591	0.000819201	0	0	0	
0.110167	-0.00409038	0.00210685	0.000276436	0.000857717	0	0	0	
0.110333	0.000640902	-0.00519863	0.000339247	0.000836131	0	0	0	
0.1105	-0.012059	-0.0130221	0.000308327	0.000636519	0	0	0	
0.110667	0.0189502	0.0253252	0.000321386	0.000475537	0	0	0	
0.110833	-0.00983538	-0.00220138	0.000316791	0.000455729	0	0	0	
0.111	0.00235634	0.00585838	0.000301569	0.000671263	0	0	0	
0.111167	-0.00459604	-0.00472351	0.000202815	0.000755173	0	0	0	
0.111333	0.0153789	0.00239057	0.000169217	0.000709445	0	0	0	
0.1115	-0.00875085	-0.0122805	0.000199492	0.000564217	0	0	0	
0.111667	0.00522182	0.0124514	0.000241796	0.000495907	0	0	0	
0.111833	-0.00692804	-0.00577289	0.000216231	0.00049085	0	0	0	
0.112	0.00963604	0.00705613	0.000180222	0.000485454	0	0	0	
0.112167	-0.00535524	0.0137358	0.000226407	0.000506683	0	0	0	
0.112333	-0.000576483	-0.0198653	0.000270752	0.000609043	0	0	0	
0.1125	-0.000765696	-0.00345447	0.000245965	0.000633801	0	0	0	
0.112667	0.00741042	0.0127892	0.000181446	0.000595105	0	0	0	
0.112833	-0.0062494	-0.0121182	0.000157248	0.000549277	0	0	0	
0.113	0.00726138	0.0159409	0.000186085	0.00054471	0	0	0	
0.113167	-0.0120993	-0.0072357	0.000242491	0.000581968	0	0	0	
0.113333	0.00494042	0.0146853	0.000295564	0.000784646	0	0	0	
0.1135	-0.000852484	-0.0130703	0.000335393	0.000994383	0	0	0	
0.113667	0.00210097	0.0148173	0.000262008	0.000997749	0	0	0	
0.113833	-0.012215	-0.020656	0.000196584	0.000771668	0	0	0	
0.114	0.012578	0.0108092	0.000186591	0.000565052	0	0	0	
0.114167	-0.0117774	-0.0156063	0.000243197	0.000529431	0	0	0	
0.114333	0.0120923	0.0258352	0.000275746	0.000590897	0	0	0	
0.1145	-0.00617037	-0.0134331	0.00032327	0.00070946	0	0	0	
0.114667	-0.00152141	0.00712463	0.000352889	0.00079174	0	0	0	
0.114833	-0.00490631	-0.0154277	0.000320071	0.000738923	0	0	0	
0.115	-0.00392762	0.0119245	0.00021857	0.0006476	0	0	0	
0.115167	0.00723309	-0.0122828	0.000144718	0.00058899	0	0	0	
0.115333	0.00671327	0.0213777	0.000112712	0.000543657	0	0	0	
0.1155	-0.0161967	-0.0274981	0.000157714	0.000536024	0	0	0	
0.115667	0.00443587	0.0204028	0.000246129	0.000616654	0	0	0	
0.115833	-0.00310837	-0.0155587	0.00034592	0.000702856	0	0	0	
0.116	0.0108767	0.0112692	0.00036294	0.000678877	0	0	0	
0.116167	-0.000247894	-0.0082026	0.000328502	0.000644274	0	0	0	
0.116333	-0.00760714	0.0122787	0.000320024	0.000632904	0	0	0	
0.1165	0.00485106	-0.0103058	0.000313478	0.000596286	0	0	0	
0.116667	0.00310991	0.00258759	0.00028158	0.000518949	0	0	0	
0.116833	-0.0127303	-0.00488254	0.00023226	0.000431879	0	0	0	
0.117	0.0185946	0.0170032	0.000243398	0.000386833	0	0	0	
0.117167	-0.0149381	-0.0254639	0.000272424	0.000447466	0	0	0	
0.117333	0.0134863	0.0206513	0.000360189	0.000667141	0	0	0	
0.1175	-0.00654867	-0.015449	0.000400313	0.000803488	0	0	0	
0.117667	0.00972293	0.0240709	0.000410608	0.000781367	0	0	0	
0.117833	-0.00875994	-0.0129717	0.000343356	0.000729864	0	0	0	
0.118	-0.000904377	-0.00901092	0.000245648	0.000822986	0	0	0	
0.118167	-0.00370073	-0.00243678	0.000171253	0.000818892	0	0	0	
0.118333	0.00590612	0.0267438	0.00012363	0.000678423	0	0	0	
0.1185	0.00217954	-0.0339564	9.19439E-05	0.00057825	0	0	0	
0.118667	0.00561305	0.0159407	8.99839E-05	0.000578473	0	0	0	
0.118833	-0.0120184	0.00322988	0.000120565	0.000619824	0	0	0	
0.119	0.00555151	-0.00208007	0.000172825	0.000523594	0	0	0	
0.119167	-0.00623064	-0.0239845	0.000202209	0.000460284	0	0	0	
0.119333	0.0108922	0.024122	0.000181274	0.000482053	0	0	0	
0.1195	-0.00967359	-0.0130365	0.000201032	0.00055467	0	0	0	
0.119667	0.00348421	0.00875158	0.000258488	0.000551378	0	0	0	
0.119833	-0.012712	-0.0168248	0.000271849	0.000481228	0	0	0	
0.12	0.0248452	0.0101365	0.000299959	0.000483646	0	0	0	
0.120167	-0.0183602	-0.0113789	0.000334196	0.0005537	0	0	0	
0.120333	-0.00530851	0.00960165	0.000415432	0.000497584	0	0	0	
0.1205	0.0144705	-0.038182	0.000379053	0.00049144	0	0	0	
0.120667	-0.0145429	0.0331494	0.00032467	0.000509822	0	0	0	
0.120833	0.00610239	0.000151181	0.000276648	0.000638596	0	0	0	
0.121	0.00373076	-0.0112688	0.000302121	0.000687746	0	0	0	
0.121167	-0.0163643	-0.0037491	0.000336484	0.000606584	0	0	0	
0.121333	0.0143259	-0.00312658	0.0003081	0.000494509	0	0	0	
0.1215	0.0028615	0.000822969	0.000347423	0.000337577	0	0	0	
0.121667	-0.0102545	0.0089396	0.00041444	0.000228404	0	0	0	
0.121833	0.00735797	-0.0147366	0.000499868	0.00022612	0	0	0	
0.122	-0.005257	0.00959013	0.000440491	0.000462522	0	0	0	
0.122167	0.00550782	-0.00709456	0.000265881	0.000687955	0	0	0	
0.122333	0.00171067	0.0164929	0.000171684	0.000692308	0	0	0	
0.1225	-0.00467075	-0.0181015	0.000101306	0.000532722	0	0	0	
0.122667	0.0100669	0.0108016	0.000154577	0.00049609	0	0	0	
0.122833	-0.0163903	-0.0134093	0.000197066	0.000478655	0	0	0	
0.123	0.0171119	0.0281893	0.000281699	0.000416293	0	0	0	
0.123167	0.000769708	-0.0182259	0.000301554	0.000457056	0	0	0	
0.123333	-0.0091648	-0.00953357	0.000299073	0.000582514	0	0	0	
0.1235	-0.00717063	-0.0190571	0.000238675	0.000539493	0	0	0	
0.123667	0.0251126	0.0516291	0.000258835	0.000518163	0	0	0	
0.123833	-0.00769982	-0.0107423	0.000310147	0.000715516	0	0	0	
0.124	-0.00896664	-0.0235977	0.000417976	0.0010521	0	0	0	
0.124167	0.00418822	-0.00386374	0.000346781	0.000932841	0	0	0	
0.124333	0.000444548	0.00926273	0.000220792	0.000671515	0	0	0	
0.1245	0.0137125	0.020858	0.000175858	0.000666962	0	0	0	
0.124667	-0.011678	-0.00830234	0.000202264	0.000706845	0	0	0	
0.124833	-0.0276608	-0.0353112	0.000395151	0.000805036	0	0	0	
0.125	0.038221	0.0249985	0.000513144	0.000622479	0	0	0	
0.125167	-0.0136525	-0.000501439	0.000630488	0.000711034	0	0	0	
0.125333	-0.00724742	0.00873259	0.00062759	0.000685496	0	0	0	
0.1255	0.00181422	-0.0248738	0.000509567	0.000661243	0	0	0	
0.125667	0.00484369	0.0122822	0.000383343	0.000733707	0	0	0	
0.125833	0.00292036	0.0282695	0.000271503	0.000928323	0	0	0	
0.126	-0.0149594	-0.0336795	0.000235241	0.00105359	0	0	0	
0.126167	-0.00211061	-0.00654006	0.000224054	0.000940233	0	0	0	
0.126333	0.0122817	0.0196955	0.000152688	0.000793196	0	0	0	
0.1265	-0.0083958	-0.00173497	0.000216095	0.000783038	0	0	0	
0.126667	-0.00104223	0.0115733	0.000248181	0.000736328	0	0	0	
0.126833	-0.00733539	-0.0401993	0.00023302	0.000679711	0	0	0	
0.127	0.0155307	0.0345467	0.000181398	0.000746142	0	0	0	
0.127167	-0.0123554	-0.011664	0.000237273	0.000926735	0	0	0	
0.127333	0.00930601	0.0117282	0.000310931	0.000913533	0	0	0	
0.1275	-0.0137846	-0.0165898	0.000319678	0.00076934	0	0	0	
0.127667	0.00378853	0.00028722	0.000272494	0.000747319	0	0	0	
0.127833	0.00425812	0.00712219	0.000253496	0.000791341	0	0	0	
0.128	0.00176822	0.0089312	0.000188957	0.000634686	0	0	0	
0.128167	-0.0143792	-0.0257914	0.000160799	0.000437677	0	0	0	
0.128333	0.0112023	0.0274417	0.000183066	0.000452174	0	0	0	
0.1285	-0.0136647	-0.0358656	0.000235599	0.00067957	0	0	0	
0.128667	0.0238762	0.0451643	0.000311897	0.000890568	0	0	0	
0.128833	-0.00503616	-0.0138133	0.000408961	0.00102605	0	0	0	
0.129	-0.0107274	-0.0058421	0.000496692	0.00107102	0	0	0	
0.129167	-0.000796281	-0.0226726	0.000390106	0.000848848	0	0	0	
0.129333	0.0110231	0.0378902	0.000252872	0.000633895	0	0	0	
0.1295	-0.00304966	-0.0250388	0.000118352	0.000562497	0	0	0	
0.129667	0.0137987	0.0188228	0.000150588	0.000656934	0	0	0	
0.129833	-0.0132569	-0.0277627	0.000194407	0.000650313	0	0	0	
0.13	0.0149977	0.0150913	0.000280485	0.000648841	0	0	0	
0.130167	-0.00325803	-0.00145243	0.000361108	0.000689591	0	0	0	
0.130333	0.0027342	0.000808596	0.000417425	0.000682249	0	0	0	
0.1305	0.00835773	-0.00265964	0.00044115	0.000617092	0	0	0	
0.130667	-0.00185734	0.012015	0.000369464	0.000542432	0	0	0	
0.130833	-0.000783195	-0.027065	0.000234326	0.000552115	0	0	0	
0.131	0.00669198	0.019504	0.000189717	0.000632616	0	0	0	
0.131167	-0.00117937	-0.0052536	0.000236625	0.000767595	0	0	0	
0.131333	0.0118672	0.00757302	0.000305403	0.000762657	0	0	0	
0.1315	-0.0121847	-0.0200574	0.000301449	0.000635919	0	0	0	
0.131667	0.0131169	0.0313121	0.000293672	0.00058759	0	0	0	
0.131833	-0.00322085	-0.033242	0.000356546	0.00074529	0	0	0	
0.132	0.0026465	0.0313314	0.00043974	0.000898966	0	0	0	
0.132167	-0.00827601	-0.0374027	0.000467107	0.000956854	0	0	0	
0.132333	0.00930149	0.0298545	0.000437103	0.000964376	0	0	0	
0.1325	-0.00211332	-0.0183638	0.000401074	0.00106091	0	0	0	
0.132667	-0.0013386	0.00978322	0.000388792	0.0011053	0	0	0	
0.132833	0.00882356	-0.0152852	0.00032701	0.000996272	0	0	0	
0.133	0.00506289	0.020266	0.00023595	0.000757304	0	0	0	
0.133167	-0.0145562	-0.0233776	0.000189912	0.000600841	0	0	0	
0.133333	0.0177847	0.0257881	0.000267501	0.000672345	0	0	0	
0.1335	-0.0162414	-0.0185474	0.000392143	0.000797501	0	0	0	
0.133667	0.0138884	0.0182922	0.000446104	0.0008067	0	0	0	
0.133833	-0.0141048	-0.0174187	0.000399104	0.000685865	0	0	0	
0.134	0.0112463	0.0150457	0.00033001	0.000636747	0	0	0	
0.134167	-0.00545812	-0.014987	0.000280563	0.000705642	0	0	0	
0.134333	0.00625419	0.0314045	0.00023943	0.000802954	0	0	0	
0.1345	-0.00631777	-0.0360093	0.000175893	0.000835102	0	0	0	
0.134667	0.00439631	0.0342645	0.000121156	0.000833814	0	0	0	
0.134833	-0.0066788	-0.0127149	0.000129819	0.000847109	0	0	0	
0.135	-0.00240402	-0.0062444	0.000136309	0.000775743	0	0	0	
0.135167	0.00126825	-0.0154231	0.000134046	0.000582674	0	0	0	
0.135333	0.00563192	0.0324857	0.000100164	0.000462589	0	0	0	
0.1355	-0.00160245	-0.025069	0.000126537	0.000494602	0	0	0	
0.135667	-0.000178397	0.0252714	0.000184089	0.000607171	0	0	0	
0.135833	-0.000251638	-0.0241307	0.000188557	0.000662441	0	0	0	
0.136	0.00362809	-0.00771317	0.000168605	0.000745281	0	0	0	
0.136167	-0.00111304	0.0160237	0.00016574	0.000835012	0	0	0	
0.136333	0.00712314	0.00352548	0.000191613	0.000752984	0	0	0	
0.1365	-0.00999813	-0.00959156	0.000197857	0.000558749	0	0	0	
0.136667	0.00618057	0.00417499	0.000181744	0.000454997	0	0	0	
0.136833	0.000605997	-0.00893639	0.000253635	0.000495071	0	0	0	
0.137	0.0109665	0.0135196	0.000318728	0.000492724	0	0	0	
0.137167	-0.0226457	-0.0257753	0.000403994	0.000433822	0	0	0	
0.137333	0.0153373	0.0307419	0.000460793	0.000438719	0	0	0	
0.1375	0.00152418	0.00103919	0.000527855	0.000518392	0	0	0	
0.137667	-0.00562236	0.000173574	0.000458068	0.000520136	0	0	0	
0.137833	-0.00989442	-0.0222766	0.000309532	0.000480313	0	0	0	
0.138	0.0101242	0.0107474	0.000197727	0.000567178	0	0	0	
0.138167	-0.00645976	0.0129083	0.000178006	0.000761113	0	0	0	
0.138333	0.00968129	0.0147092	0.000188083	0.000799104	0	0	0	
0.1385	-0.0220697	-0.0358151	0.000205807	0.000754055	0	0	0	
0.138667	0.0141006	0.0243837	0.000314706	0.000786986	0	0	0	
0.138833	-0.000317546	-0.00810159	0.000447228	0.000977921	0	0	0	
0.139	-0.0088276	0.011043	0.000438258	0.000976113	0	0	0	
0.139167	-0.00229852	-0.0255713	0.000310583	0.000799685	0	0	0	
0.139333	0.00431309	0.034417	0.000189557	0.000673665	0	0	0	
0.1395	-0.00635455	-0.0257208	0.000222851	0.000666063	0	0	0	
0.139667	0.00974908	0.0509969	0.000268169	0.000742442	0	0	0	
0.139833	-0.0153397	-0.03357	0.000280466	0.000854669	0	0	0	
0.14	0.014979	0.0250137	0.000287303	0.00077921	0	0	0	
0.140167	0.00162052	-0.0193234	0.000407852	0.000662027	0	0	0	
0.140333	-0.0114055	0.0345858	0.000465168	0.000475668	0	0	0	
0.1405	-0.00119859	-0.0243693	0.000371598	0.000552929	0	0	0	
0.140667	0.0147877	0.0289984	0.000211809	0.00088689	0	0	0	
0.140833	-0.00796037	0.0225806	0.000164882	0.00112523	0	0	0	
0.141	0.00998678	-0.0254581	0.000198958	0.00129924	0	0	0	
0.141167	-0.0193632	0.0266082	0.000252896	0.00116132	0	0	0	
0.141333	0.022738	-0.0176095	0.000286347	0.000942858	0	0	0	
0.1415	-0.00524246	0.00338794	0.000390184	0.00068214	0	0	0	
0.141667	-0.00995437	0.0356362	0.000454424	0.000592666	0	0	0	
0.141833	0.00244524	-0.0654382	0.000362112	0.000782161	0	0	0	
0.142	0.0129977	0.0814672	0.000236386	0.00110592	0	0	0	
0.142167	-0.00483568	-0.0476584	0.000176152	0.00135802	0	0	0	
0.142333	-0.0100297	0.00397472	0.000256594	0.00134321	0	0	0	
0.1425	-0.00022763	-0.0118014	0.000275336	0.00104492	0	0	0	
0.142667	0.0131381	0.0295361	0.000239365	0.00070548	0	0	0	
0.142833	-0.00493087	-0.017587	0.000229846	0.000596584	0	0	0	
0.143	-0.00358859	0.00535442	0.000239357	0.000643777	0	0	0	
0.143167	-0.00876536	-0.0139882	0.000233558	0.000595793	0	0	0	
0.143333	0.020025	0.0105766	0.000226424	0.000440212	0	0	0	
0.1435	-0.00686442	0.0361118	0.000261539	0.000566097	0	0	0	
0.143667	-0.0097263	-0.0439543	0.000302534	0.000979412	0	0	0	
0.143833	0.0101321	0.0336901	0.00027993	0.00124216	0	0	0	
0.144	-0.00674555	-0.0104522	0.000223958	0.00119664	0	0	0	
0.144167	-0.00414368	-0.0224565	0.00014745	0.000839358	0	0	0	
0.144333	0.0236976	0.0895501	0.000165162	0.000808853	0	0	0	
0.1445	-0.0490278	-0.155835	0.000312043	0.00126437	0	0	0	
0.144667	0.150049	0.396893	0.000893045	0.00387237	0	0	0	
0.144833	0.0287355	-0.0820051	0.00163233	0.00647369	0	0	0	
0.145	-0.0173992	-0.0451913	0.00169304	0.00730713	0	0	0	
0.145167	0.00904063	0.0328481	0.00123194	0.00495536	0	0	0	
0.145333	-4.95641E-06	-0.00989854	0.000443744	0.00219901	0	0	0	
0.1455	-0.0209812	-0.0862769	0.000341389	0.000982484	0	0	0	
0.145667	0.063138	0.348046	0.00056955	0.00193626	0	0	0	
0.145833	0.123938	-0.146108	0.00135731	0.00494617	0	0	0	
0.146	0.0223671	0.175437	0.00153007	0.0055257	0	0	0	
0.146167	-0.00779371	-0.0780883	0.00136754	0.00503669	0	0	0	
0.146333	-0.00547932	0.0297178	0.000693554	0.00238476	0	0	0	
0.1465	-0.00270807	-0.0535766	0.000398677	0.00171344	0	0	0	
0.146667	0.0128796	0.0764308	0.000233917	0.00131429	0	0	0	
0.146833	-0.0127403	-0.0229729	0.000177261	0.00105673	0	0	0	
0.147	0.0078566	-0.0240545	0.000238352	0.0010343	0	0	0	
0.147167	-0.00717588	0.0254896	0.000287929	0.00067174	0	0	0	
0.147333	0.00425957	-0.00454157	0.000292095	0.000602364	0	0	0	
0.1475	-0.00288874	-0.00195968	0.000283435	0.000492154	0	0	0	
0.147667	0.00404594	0.00175523	0.000246778	0.000415889	0	0	0	
0.147833	0.0585622	0.125016	0.000314227	0.000438971	0	0	0	
0.148	-0.0285713	-0.119523	0.000691026	0.00129876	0	0	0	
0.148167	-0.0129939	0.0272966	0.00118933	0.00249406	0	0	0	
0.148333	-0.00799166	-0.013561	0.00142982	0.00296392	0	0	0	
0.1485	0.0122732	-0.00132979	0.00110001	0.00226167	0	0	0	
0.148667	-0.00186801	0.0133951	0.000589074	0.00121949	0	0	0	
0.148833	0.00817141	0.00355319	0.000208509	0.000684687	0	0	0	
0.149	0.0595024	0.0649709	0.000436762	0.000958431	0	0	0	
0.149167	-0.0308411	-0.0622008	0.000819693	0.00169158	0	0	0	
0.149333	0.0329179	0.0743988	0.00142521	0.00271183	0	0	0	
0.1495	-0.003277	-0.0287626	0.00122195	0.0025255	0	0	0	
0.149667	0.00333687	-0.00451098	0.000900714	0.00188425	0	0	0	
0.149833	-0.00729087	0.0128573	0.000369166	0.000826977	0	0	0	
0.15	0.011686	0.0126997	0.000339755	0.00058455	0	0	0	
0.150167	0.00619946	-0.0260496	0.000416231	0.000397327	0	0	0	
0.150333	-0.00237472	0.00481737	0.000662955	0.000806897	0	0	0	
0.1505	0.0120809	0.0187821	0.000830926	0.00126329	0	0	0	
0.150667	-0.00657163	-0.00461987	0.000750688	0.00130308	0	0	0	
0.150833	-0.00138034	-0.0218629	0.000430311	0.000896233	0	0	0	
0.151	0.00728385	0.00987378	0.000154847	0.000620464	0	0	0	
0.151167	-0.0110781	-0.013415	0.000113887	0.000704837	0	0	0	
0.151333	0.00876834	0.0219303	0.000233368	0.00074383	0	0	0	
0.1515	-0.0244115	-0.0439099	0.000582365	0.000962794	0	0	0	
0.151667	0.00458492	0.00834267	0.000649785	0.00101601	0	0	0	
0.151833	-0.00531517	-0.0103677	0.000593999	0.00101864	0	0	0	
0.152	0.0039743	0.0166219	0.000294434	0.000667079	0	0	0	
0.152167	0.00373942	-0.0174694	0.000280899	0.000579584	0	0	0	
0.152333	-0.00398472	0.0377049	0.000279741	0.000607041	0	0	0	
0.1525	-0.00456155	-0.0256946	0.000233818	0.000680554	0	0	0	
0.152667	0.00225528	0.00137529	0.000185466	0.000890561	0	0	0	
0.152833	0.00106506	-0.000320912	0.000235771	0.000967507	0	0	0	
0.153	-0.00318202	0.0197016	0.000266874	0.000838138	0	0	0	
0.153167	-0.00533672	-0.031916	0.000212923	0.000673487	0	0	0	
0.153333	0.0109939	0.0230858	0.000154102	0.000761627	0	0	0	
0.1535	-0.00556324	0.00384667	0.000209117	0.000981038	0	0	0	
0.153667	-8.09005E-06	-0.00836774	0.000275884	0.00100289	0	0	0	
0.153833	-0.00485395	-0.0100524	0.000242965	0.000785687	0	0	0	
0.154	0.008234	0.0193197	0.000172542	0.000605715	0	0	0	
0.154167	-0.00375371	-0.0168806	0.000179543	0.000615925	0	0	0	
0.154333	-0.00358665	0.011257	0.000247071	0.000693404	0	0	0	
0.1545	0.000548731	-0.0188246	0.000210594	0.000647603	0	0	0	
0.154667	0.0163477	0.0251417	0.000180584	0.000536207	0	0	0	
0.154833	-0.01625	-0.0162852	0.000185125	0.000645644	0	0	0	
0.155	0.00279507	-0.00717475	0.000346971	0.000838638	0	0	0	
0.155167	0.00165917	0.000584175	0.000365478	0.000774939	0	0	0	
0.155333	0.0088034	0.0116264	0.000273312	0.000476092	0	0	0	
0.1555	-0.00884511	-0.00640143	0.000175891	0.000377257	0	0	0	
0.155667	0.00581542	-0.00421268	0.000176414	0.000587819	0	0	0	
0.155833	-0.00721988	-0.0135211	0.000202167	0.000743525	0	0	0	
0.156	0.0146165	0.0168113	0.000193336	0.000730239	0	0	0	
0.156167	-0.00875846	-0.00106785	0.000225853	0.000734866	0	0	0	
0.156333	0.00166294	0.00215694	0.000266189	0.000801962	0	0	0	
0.1565	-0.00618888	-0.0161161	0.000243351	0.000829433	0	0	0	
0.156667	0.00814729	-0.00718893	0.000181244	0.000868933	0	0	0	
0.156833	-0.00205268	0.0278324	0.000198587	0.000895068	0	0	0	
0.157	0.00575672	0.0028243	0.000250534	0.000717764	0	0	0	
0.157167	-0.00705635	-0.0429322	0.000256564	0.000523731	0	0	0	
0.157333	0.00348485	0.0507315	0.000176553	0.000552926	0	0	0	
0.1575	-0.00791431	-0.032282	0.000135203	0.0007988	0	0	0	
0.157667	0.00975144	0.0276126	0.00014102	0.000887125	0	0	0	
0.157833	-0.0105369	-0.0162572	0.000238985	0.000898571	0	0	0	
0.158	0.00213886	-0.0106574	0.000301711	0.000953088	0	0	0	
0.158167	0.00356516	0.00728213	0.000303673	0.000886107	0	0	0	
0.158333	-0.000850698	0.0102367	0.000236689	0.000608739	0	0	0	
0.1585	0.000293641	-0.00635184	0.000180454	0.000308486	0	0	0	
0.158667	0.00227227	0.00587614	0.000142627	0.000270988	0	0	0	
0.158833	-0.0115027	-0.00316464	0.000144572	0.000380088	0	0	0	
0.159	0.00638304	-0.0048707	0.000172504	0.000496752	0	0	0	
0.159167	-0.000995036	-0.00351273	0.000251127	0.000480271	0	0	0	
0.159333	0.00469995	0.0212687	0.000256187	0.000428617	0	0	0	
0.1595	-0.00704556	-0.0233814	0.000202473	0.000423017	0	0	0	
0.159667	0.00851373	0.0167118	0.000161756	0.000539514	0	0	0	
0.159833	-0.00158256	-0.00759341	0.000195317	0.000652728	0	0	0	
0.16	0.00170514	0.00994073	0.000267737	0.000666714	0	0	0	
0.160167	-0.00503904	-0.0133424	0.000282146	0.000604555	0	0	0	
0.160333	0.00891107	0.0134411	0.000255626	0.000558664	0	0	0	
0.1605	-0.00821806	-0.008471	0.000203022	0.00055878	0	0	0	
0.160667	0.0110128	0.00684508	0.000219108	0.000606104	0	0	0	
0.160833	-0.000639355	0.00186958	0.000266839	0.000667004	0	0	0	
0.161	-0.00439823	-0.00170682	0.00030685	0.000656692	0	0	0	
0.161167	0.00141026	-0.0127611	0.000229204	0.000541948	0	0	0	
0.161333	0.0122388	0.0215798	0.000181204	0.000459882	0	0	0	
0.1615	-0.0177093	-0.0183213	0.000183162	0.000534185	0	0	0	
0.161667	0.0130124	0.0113763	0.000273966	0.000683302	0	0	0	
0.161833	-0.00403624	-0.00801942	0.000297301	0.000731728	0	0	0	
0.162	0.00192052	0.00891945	0.000310577	0.000678467	0	0	0	
0.162167	-0.000386497	-0.00766791	0.00030036	0.00062566	0	0	0	
0.162333	0.00242635	0.00442379	0.000294597	0.000625886	0	0	0	
0.1625	-0.00440113	-0.00607927	0.000240083	0.000612888	0	0	0	
0.162667	0.00701535	0.015607	0.000190407	0.000569578	0	0	0	
0.162833	-0.0130417	-0.0185852	0.000148188	0.000549169	0	0	0	
0.163	0.00782384	0.0156388	0.000178139	0.00059515	0	0	0	
0.163167	-0.0045184	-0.00753212	0.000194634	0.000612887	0	0	0	
0.163333	0.00953058	0.00627647	0.000224652	0.000584626	0	0	0	
0.1635	-0.00667765	-0.0103823	0.000233358	0.000587999	0	0	0	
0.163667	-0.00143556	0.00975814	0.00026793	0.000653353	0	0	0	
0.163833	0.00251362	-0.0103829	0.000266561	0.000674545	0	0	0	
0.164	-0.00354721	0.0145755	0.000194828	0.000603488	0	0	0	
0.164167	-0.00298084	-0.00892632	0.000112638	0.000511634	0	0	0	
0.164333	0.020707	0.0115782	0.000130371	0.000531621	0	0	0	
0.1645	-0.01836	-0.0168264	0.000252192	0.000636363	0	0	0	
0.164667	0.0123588	0.0132084	0.000358891	0.000720873	0	0	0	
0.164833	-0.00682309	-0.0120538	0.000374203	0.000731488	0	0	0	
0.165	-0.00391499	0.00388848	0.000326606	0.000694462	0	0	0	
0.165167	0.00548175	0.000340607	0.000250332	0.000631247	0	0	0	
0.165333	0.00737938	0.0105108	0.000188018	0.000486368	0	0	0	
0.1655	-0.0137752	-0.0228905	0.00016617	0.000396043	0	0	0	
0.165667	0.00768458	0.0188821	0.000200765	0.000470389	0	0	0	
0.165833	0.00228876	-0.0105122	0.000220656	0.000715757	0	0	0	
0.166	0.00362692	-0.00143936	0.000187039	0.000862779	0	0	0	
0.166167	-0.00602427	-0.00426123	0.000157864	0.000809652	0	0	0	
0.166333	0.00134346	0.0127987	0.000161004	0.000657331	0	0	0	
0.1665	-0.00885956	-0.014178	0.000207858	0.00062984	0	0	0	
0.166667	0.00911874	0.00981341	0.000267804	0.000721365	0	0	0	
0.166833	0.00242687	-0.0142778	0.000324347	0.000742489	0	0	0	
0.167	-0.00182709	0.0208836	0.000324097	0.000673071	0	0	0	
0.167167	-0.0014092	-0.013858	0.00023579	0.00066915	0	0	0	
0.167333	0.00380188	0.00360119	0.000138057	0.000724186	0	0	0	
0.1675	-0.0129516	-0.0170194	0.000132982	0.000693123	0	0	0	
0.167667	0.0137656	0.0236052	0.000187606	0.000645977	0	0	0	
0.167833	-0.00675503	-0.00206134	0.000269069	0.000727036	0	0	0	
0.168	-0.00483245	-0.0085073	0.000318716	0.000879686	0	0	0	
0.168167	0.00127864	-0.0165745	0.000312998	0.00085328	0	0	0	
0.168333	0.00793029	0.0373527	0.000246858	0.00075559	0	0	0	
0.1685	-0.0118711	-0.036378	0.000206573	0.000759926	0	0	0	
0.168667	0.00535146	0.0196508	0.000217654	0.000859015	0	0	0	
0.168833	-0.00313584	-0.00161483	0.00025927	0.000876969	0	0	0	
0.169	0.00188934	0.0142329	0.00024916	0.000822831	0	0	0	
0.169167	-0.000415636	-0.0238549	0.000259473	0.00084139	0	0	0	
0.169333	0.00250329	0.0180937	0.000277194	0.000861521	0	0	0	
0.1695	-0.00194498	-0.013863	0.000259362	0.000759774	0	0	0	
0.169667	0.00634965	0.0108953	0.000211419	0.000569531	0	0	0	
0.169833	-0.00823644	0.0122229	0.000192988	0.000567682	0	0	0	
0.17	0.0077822	0.00543986	0.000249062	0.000766553	0	0	0	
0.170167	-0.00884731	-0.0218534	0.000304376	0.000910471	0	0	0	
0.170333	0.0109563	0.0302679	0.000328522	0.000888303	0	0	0	
0.1705	-0.0047798	-0.0276101	0.00032041	0.000788077	0	0	0	
0.170667	-0.00267909	0.0197386	0.000302597	0.000799285	0	0	0	
0.170833	-0.0043229	-0.0131763	0.000271534	0.000850313	0	0	0	
0.171	0.00560551	0.0244165	0.000245558	0.000958606	0	0	0	
0.171167	-0.00712019	-0.0273139	0.000230699	0.00101773	0	0	0	
0.171333	0.0127604	0.0213117	0.00022611	0.000939463	0	0	0	
0.1715	-0.0127471	-0.0201356	0.000221453	0.00075165	0	0	0	
0.171667	0.00625113	0.00834339	0.000270147	0.000598715	0	0	0	
0.171833	-0.00840775	-0.0121004	0.000324749	0.000544078	0	0	0	
0.172	0.00918269	0.0226493	0.000346116	0.000521415	0	0	0	
0.172167	-0.00783311	-0.0262494	0.000329733	0.000591978	0	0	0	
0.172333	0.00373336	0.0127595	0.000286132	0.000706301	0	0	0	
0.1725	-0.00547304	-0.0196321	0.00022926	0.000755793	0	0	0	
0.172667	0.00779042	0.0253738	0.000175487	0.000733444	0	0	0	
0.172833	-0.00576413	-0.00297492	0.000180707	0.000801726	0	0	0	
0.173	0.000625413	-0.0153725	0.000217794	0.000887308	0	0	0	
0.173167	-0.00152617	-0.00499205	0.000204172	0.000754841	0	0	0	
0.173333	-0.000569882	0.0290627	0.000157732	0.0005858	0	0	0	
0.1735	0.00201314	-0.0193991	0.000141126	0.000554402	0	0	0	
0.173667	0.00103307	0.0173432	0.000131636	0.000636736	0	0	0	
0.173833	-0.0105157	-0.0303565	0.00012589	0.000616797	0	0	0	
0.174	0.00950261	0.0279466	0.000168206	0.00061651	0	0	0	
0.174167	0.00340953	0.00302251	0.0003077	0.000775473	0	0	0	
0.174333	-0.0103706	-0.00128543	0.000423322	0.00087346	0	0	0	
0.1745	0.00399483	-0.0142805	0.000410806	0.000734529	0	0	0	
0.174667	-0.0020731	0.0323045	0.000284253	0.000584071	0	0	0	
0.174833	0.00129945	-0.0199315	0.000173318	0.000561494	0	0	0	
0.175	0.00749508	0.00720901	0.000136316	0.000587895	0	0	0	
0.175167	-0.0162516	-0.00190733	0.000187615	0.000505546	0	0	0	
0.175333	0.0152946	0.0128534	0.000268169	0.000451716	0	0	0	
0.1755	-0.00618268	-0.0165748	0.000347991	0.000556472	0	0	0	
0.175667	-0.00400106	0.00830978	0.000402421	0.000688834	0	0	0	
0.175833	0.000965531	0.00452554	0.000381714	0.000675048	0	0	0	
0.176	0.011777	-0.0028812	0.000332267	0.000537701	0	0	0	
0.176167	-0.00873914	-0.00173712	0.000283869	0.000464415	0	0	0	
0.176333	0.00127189	0.00355977	0.000249664	0.000516028	0	0	0	
0.1765	-0.00626632	-0.00831491	0.000203707	0.000572956	0	0	0	
0.176667	0.0160981	0.0075148	0.000197026	0.00056795	0	0	0	
0.176833	-0.010006	-0.00652468	0.000259679	0.000603993	0	0	0	
0.177	0.00457036	0.00183004	0.000329164	0.000699511	0	0	0	
0.177167	-0.00357191	-0.00644524	0.000279668	0.000753443	0	0	0	
0.177333	0.00722461	0.00517029	0.000182915	0.000704013	0	0	0	
0.1775	-0.0123699	-0.00400408	0.000132684	0.00063491	0	0	0	
0.177667	0.0184199	0.0171927	0.000189218	0.000574338	0	0	0	
0.177833	-0.0860649	-0.0807185	0.000324488	0.000542399	0	0	0	
0.178	0.00258647	0.0355742	0.000951543	0.0011906	0	0	0	
0.178167	-0.0119444	-0.0715257	0.000935066	0.00134369	0	0	0	
0.178333	-0.00214538	0.0448151	0.000905014	0.00161404	0	0	0	
0.1785	0.00559177	-0.0321548	0.000289272	0.000983292	0	0	0	
0.178667	-0.00304272	0.0373735	0.000242878	0.000887653	0	0	0	
0.178833	-0.0190107	-0.0588801	0.000265557	0.000962866	0	0	0	
0.179	0.0120022	0.0320326	0.000354516	0.00117409	0	0	0	
0.179167	-0.00604128	-0.00502221	0.00046789	0.00130269	0	0	0	
0.179333	0.00681599	-0.00108306	0.000410173	0.00103629	0	0	0	
0.1795	-0.00847241	1.45173E-06	0.000353506	0.000733413	0	0	0	
0.179667	0.00444425	0.00477258	0.000300551	0.000448446	0	0	0	
0.179833	-0.000211418	-0.00858719	0.000281965	0.000343551	0	0	0	
0.18	-0.00260991	0.0049206	0.000265546	0.000463776	0	0	0	
0.180167	0.00469983	0.0120808	0.000261781	0.000661061	0	0	0	
0.180333	-0.00553521	-0.0112984	0.000234383	0.000699496	0	0	0	
0.1805	-0.00413251	0.003686	0.000178064	0.000501454	0	0	0	
0.180667	0.00374908	0.00388276	0.000131652	0.000245983	0	0	0	
0.180833	0.00114952	0.00146633	0.00014054	0.000123363	0	0	0	
0.181	0.00363062	-0.0150055	0.000155226	0.000161032	0	0	0	
0.181167	-0.0139068	0.0161492	0.000192831	0.000284143	0	0	0	
0.181333	0.00923567	0.0203262	0.000263773	0.00032251	0	0	0	
0.1815	-0.0013386	-0.0335456	0.000391045	0.000430171	0	0	0	
0.181667	-0.00310966	0.0237653	0.000424763	0.000470688	0	0	0	
0.181833	-0.000398465	-0.00819951	0.000322255	0.000551484	0	0	0	
0.182	0.00775741	-0.00817505	0.000199201	0.000528374	0	0	0	
0.182167	-0.0058465	0.0016227	0.000161287	0.00050649	0	0	0	
0.182333	-0.000118148	0.0133948	0.000177651	0.000457308	0	0	0	
0.1825	-6.76235E-05	-0.0121928	0.000144556	0.000415482	0	0	0	
0.182667	0.00373141	0.0103172	9.68861E-05	0.00041597	0	0	0	
0.182833	-0.00103079	-0.00817313	9.81053E-05	0.000385197	0	0	0	
0.183	0.0030345	0.00204457	0.000169462	0.000342824	0	0	0	
0.183167	0.00133388	0.00898277	0.000248077	0.000388973	0	0	0	
0.183333	-0.00233394	0.00900503	0.00026549	0.000505606	0	0	0	
0.1835	-0.00131743	-0.0195718	0.000201235	0.000572302	0	0	0	
0.183667	0.00474414	0.0241038	0.000146685	0.000578723	0	0	0	
0.183833	-0.00240209	-0.00894881	0.000163363	0.000540322	0	0	0	
0.184	0.00789582	0.000992487	0.000210087	0.000523431	0	0	0	
0.184167	-0.00567312	0.0119341	0.000210632	0.000490139	0	0	0	
0.184333	0.00331249	0.00156709	0.000157918	0.000525302	0	0	0	
0.1845	-3.96587E-06	-0.0108469	0.000150687	0.000545343	0	0	0	
0.184667	-0.0020388	0.0141517	0.000175438	0.000528684	0	0	0	
0.184833	0.00543757	-0.00775611	0.00019186	0.0004829	0	0	0	
0.185	0.000446825	-0.00139516	0.000159264	0.000444749	0	0	0	
0.185167	-0.0044195	0.00639119	0.000105107	0.000356589	0	0	0	
0.185333	-0.00380191	-0.00546439	0.000137575	0.000262882	0	0	0	
0.1855	0.00670915	-0.0128332	0.000196246	0.00025383	0	0	0	
0.185667	0.00129179	0.00551854	0.00021148	0.00040953	0	0	0	
0.185833	-0.00366692	0.0123956	0.000161066	0.000603385	0	0	0	
0.186	0.00407891	-0.0106059	0.000155374	0.00063468	0	0	0	
0.186167	0.00228236	0.000695216	0.000220865	0.00046092	0	0	0	
0.186333	-0.00197916	-0.00611248	0.000260394	0.000289994	0	0	0	
0.1865	-0.00159149	-0.0138248	0.000221299	0.0003412	0	0	0	
0.186667	0.00278465	0.0123173	0.000200114	0.000497953	0	0	0	
0.186833	0.0061245	-0.00567937	0.000257779	0.000652493	0	0	0	
0.187	-0.00344081	0.00381911	0.000296555	0.000702581	0	0	0	
0.187167	-0.00418376	0.00136462	0.000231261	0.000611841	0	0	0	
0.187333	0.0142452	0.00345247	0.000178585	0.000428217	0	0	0	
0.1875	-0.00605593	-0.00859047	0.000200624	0.000337512	0	0	0	
0.187667	0.0018178	-0.000589121	0.000277234	0.000425529	0	0	0	
0.187833	-0.00648693	-0.00246966	0.000280767	0.000529069	0	0	0	
0.188	0.00873663	0.01574	0.000264958	0.000522812	0	0	0	
0.188167	-0.000371453	-0.00671392	0.000259815	0.00042304	0	0	0	
0.188333	-0.00560813	0.00583592	0.000278351	0.000348567	0	0	0	
0.1885	0.00435973	-0.0168957	0.000245705	0.000295515	0	0	0	
0.188667	0.00273231	0.0346705	0.000172011	0.000403197	0	0	0	
0.188833	-0.00558292	-0.0160528	0.000102216	0.000643297	0	0	0	
0.189	0.00225309	-0.00822373	0.000102855	0.000985986	0	0	0	
0.189167	-0.00317629	0.0123056	0.000142516	0.00102366	0	0	0	
0.189333	0.0108013	0.00135378	0.000186162	0.000729336	0	0	0	
0.1895	-0.00627368	-0.00426644	0.000220801	0.000321387	0	0	0	
0.189667	-0.0065171	0.00153616	0.000282421	0.000165944	0	0	0	
0.189833	0.0018792	-0.0228752	0.00027096	0.000250342	0	0	0	
0.19	0.00836813	0.0311248	0.000202672	0.000447157	0	0	0	
0.190167	-0.00953712	-0.0229447	0.000143366	0.000677543	0	0	0	
0.190333	0.00212525	-0.00172032	0.000174592	0.000816268	0	0	0	
0.1905	0.00471878	0.00178702	0.000228097	0.000668833	0	0	0	
0.190667	-0.0040247	0.0119518	0.000232785	0.000388643	0	0	0	
0.190833	-0.00240288	-0.0301378	0.000180562	0.000303874	0	0	0	
0.191	0.00279041	0.022925	0.00012591	0.000466231	0	0	0	
0.191167	-0.00382326	-0.0147115	0.000127013	0.000709683	0	0	0	
0.191333	0.00172094	0.00512942	0.000180595	0.000859506	0	0	0	
0.1915	-0.00261456	0.00787207	0.000228012	0.000811959	0	0	0	
0.191667	0.00305636	0.000224795	0.000218423	0.00057214	0	0	0	
0.191833	-0.00284888	-0.012894	0.000199211	0.000295775	0	0	0	
0.192	0.000545288	0.00454825	0.000202861	0.000197425	0	0	0	
0.192167	-0.00537428	-0.0026257	0.000214025	0.000296056	0	0	0	
0.192333	0.00756542	0.0101673	0.000214221	0.000413581	0	0	0	
0.1925	-0.00721449	-0.0047981	0.00022838	0.000410109	0	0	0	
0.192667	0.000623339	0.00795608	0.000247088	0.000314386	0	0	0	
0.192833	-0.000598587	-0.0153495	0.000246379	0.000229728	0	0	0	
0.193	0.000695488	0.0294637	0.000213168	0.000343847	0	0	0	
0.193167	-0.00446838	-0.0310772	0.000209605	0.000605352	0	0	0	
0.193333	-0.00720317	0.0158723	0.000280784	0.000850934	0	0	0	
0.1935	0.0063411	0.00210735	0.000404534	0.000962545	0	0	0	
0.193667	-0.00885603	-0.00900448	0.000435806	0.000816681	0	0	0	
0.193833	0.00842194	-0.00199372	0.000363137	0.000525617	0	0	0	
0.194	-0.00550505	0.022836	0.000255188	0.000304492	0	0	0	
0.194167	-0.0082803	-0.0210119	0.000210195	0.000344577	0	0	0	
0.194333	0.0145293	0.00926821	0.000228702	0.000462661	0	0	0	
0.1945	-0.0250465	-0.0108064	0.000335888	0.000536852	0	0	0	
0.194667	0.010411	0.00405461	0.000445504	0.000453201	0	0	0	
0.194833	-0.000789633	-0.0035924	0.000531449	0.000356469	0	0	0	
0.195	0.00106624	0.0145085	0.000488785	0.000256771	0	0	0	
0.195167	-0.0007153	-0.0163679	0.000392592	0.000300319	0	0	0	
0.195333	0.0017417	0.00400252	0.000259501	0.000514577	0	0	0	
0.1955	-0.00581864	-0.00200907	0.000163856	0.000700581	0	0	0	
0.195667	0.00033246	0.00563716	0.000146162	0.000650837	0	0	0	
0.195833	-0.00236077	-0.00787478	0.000220714	0.000430052	0	0	0	
0.196	0.00585036	0.00943638	0.000287909	0.000241167	0	0	0	
0.196167	-0.00305177	-0.0140528	0.000284225	0.000255997	0	0	0	
0.196333	0.00407685	0.017402	0.000231606	0.000449224	0	0	0	
0.1965	0.000767385	-0.00603034	0.000183735	0.000689966	0	0	0	
0.196667	0.00275056	-0.0122907	0.000163752	0.000793246	0	0	0	
0.196833	-0.010384	0.0129553	0.000185042	0.000647043	0	0	0	
0.197	0.0105726	0.00430753	0.000261436	0.000401045	0	0	0	
0.197167	0.00107874	-0.0227873	0.000322571	0.000232873	0	0	0	
0.197333	0.00272758	0.0290021	0.000317895	0.000342309	0	0	0	
0.1975	0.00343149	-0.0148607	0.000277002	0.000576073	0	0	0	
0.197667	-0.00648497	0.00231097	0.000273021	0.000753919	0	0	0	
0.197833	0.00266296	-0.00294064	0.000247544	0.000657819	0	0	0	
0.198	0.00769259	0.0047067	0.000202873	0.000417041	0	0	0	
0.198167	-0.0046402	-0.00695089	0.000198616	0.000251249	0	0	0	
0.198333	0.00928726	0.00788007	0.000261968	0.000306428	0	0	0	
0.1985	-0.00733498	-0.00310195	0.000291267	0.000530574	0	0	0	
0.198667	0.00358287	-0.00651866	0.000270682	0.000709622	0	0	0	
0.198833	-0.0050066	0.0118197	0.000267439	0.000654556	0	0	0	
0.199	-9.22334E-05	-0.00559271	0.000276008	0.00043499	0	0	0	
0.199167	-0.0014913	-0.0123977	0.000268472	0.000212426	0	0	0	
0.199333	0.00460155	0.0309248	0.000236232	0.000224371	0	0	0	
0.1995	0.00166484	-0.03458	0.000241863	0.000486595	0	0	0	
0.199667	-0.00290488	0.0134063	0.000255841	0.000826121	0	0	0	
0.199833	-0.00681856	-0.000431297	0.000221766	0.000856784	0	0	0	
0.2	0.00691553	0.0132808	0.000175841	0.000637297	0	0	0	
0.200167	-0.00504249	-0.0223811	0.000212666	0.000367236	0	0	0	
0.200333	-0.000794935	0.0119223	0.000303739	0.000357627	0	0	0	
0.2005	-0.000125048	0.00283658	0.000345994	0.000524472	0	0	0	
0.200667	0.00306978	-0.0111368	0.000276619	0.00073447	0	0	0	
0.200833	-0.00717029	0.0157665	0.000183535	0.000824738	0	0	0	
0.201	0.00849727	-0.0164496	0.00015864	0.000681157	0	0	0	
0.201167	-0.00949222	0.00732072	0.000187113	0.000446116	0	0	0	
0.201333	0.011744	0.0140513	0.000230902	0.000265324	0	0	0	
0.2015	-0.0103731	-0.0218444	0.000273254	0.000263327	0	0	0	
0.201667	-0.00231675	0.0128113	0.000317728	0.000510723	0	0	0	
0.201833	0.00394834	-0.00832788	0.000308751	0.000826747	0	0	0	
0.202	0.00377505	-0.0152798	0.000224321	0.0008713	0	0	0	
0.202167	-0.0101058	0.00688452	0.000174618	0.000646724	0	0	0	
0.202333	0.00355663	0.00241059	0.00023138	0.000324329	0	0	0	
0.2025	0.00642041	-0.00312285	0.00030343	0.000249662	0	0	0	
0.202667	-0.00125293	-0.00534998	0.000256537	0.000362765	0	0	0	
0.202833	-0.00622812	-0.00478938	0.000144393	0.000597278	0	0	0	
0.203	0.00677688	-1.48178E-05	0.000143269	0.000761369	0	0	0	
0.203167	-0.00443336	-0.0106028	0.000229528	0.000854257	0	0	0	
0.203333	0.00675551	0.00260105	0.000290535	0.000859964	0	0	0	
0.2035	-0.000361019	-0.00068067	0.000254742	0.00074055	0	0	0	
0.203667	-0.00104139	0.0152951	0.000233873	0.000512966	0	0	0	
0.203833	-0.000109537	-0.0504251	0.000201575	0.000479045	0	0	0	
0.204	0.00492881	0.0442722	0.000183256	0.00064865	0	0	0	
0.204167	-0.00667318	-0.0347417	0.000128089	0.000814882	0	0	0	
0.204333	0.00341435	0.0214686	0.000189635	0.000758238	0	0	0	
0.2045	0.00766346	-0.0202823	0.000293706	0.000588248	0	0	0	
0.204667	-0.00553312	0.0182008	0.000344567	0.000534969	0	0	0	
0.204833	0.00309457	0.00325898	0.000283777	0.000641963	0	0	0	
0.205	-0.0113175	-0.0195148	0.00022034	0.000747638	0	0	0	
0.205167	0.00785077	0.00199976	0.000225648	0.000611369	0	0	0	
0.205333	0.00496485	0.0197465	0.00024246	0.000351901	0	0	0	
0.2055	-0.00704906	-0.0184827	0.000289284	0.000262441	0	0	0	
0.205667	0.000854418	0.00694946	0.000347119	0.000308782	0	0	0	
0.205833	0.000764182	-0.00822057	0.000369401	0.000299335	0	0	0	
0.206	0.00893139	0.0127014	0.000308322	0.000236967	0	0	0	
0.206167	-0.0108025	0.00680192	0.000249784	0.000240524	0	0	0	
0.206333	0.0067353	-0.00943762	0.000275183	0.000293555	0	0	0	
0.2065	-0.00417157	-0.00807279	0.00034425	0.000248766	0	0	0	
0.206667	0.00208694	0.0114295	0.000339304	0.000192718	0	0	0	
0.206833	-0.00158477	-0.00491117	0.000256542	0.000211636	0	0	0	
0.207	0.00543108	-0.0102812	0.0001864	0.000414948	0	0	0	
0.207167	-0.00180307	-0.00323606	0.00018421	0.000656654	0	0	0	
0.207333	0.00152161	0.00421875	0.00020889	0.000780078	0	0	0	
0.2075	-0.0046788	-0.0124874	0.000206279	0.000767117	0	0	0	
0.207667	-0.000116952	0.00391816	0.000203977	0.000694321	0	0	0	
0.207833	0.00294156	0.00260851	0.000234007	0.000587073	0	0	0	
0.208	0.00122532	0.00208463	0.000228581	0.000419164	0	0	0	
0.208167	-0.00871432	-0.00482617	0.000209242	0.000333531	0	0	0	
0.208333	0.00884085	-0.00650651	0.000208307	0.000372967	0	0	0	
0.2085	-0.00769485	0.0100334	0.000283613	0.000396198	0	0	0	
0.208667	0.0061343	0.00215967	0.000340734	0.000306571	0	0	0	
0.208833	-0.00592933	-0.00395228	0.00036567	0.000172715	0	0	0	
0.209	-0.00141495	0.00742186	0.000364322	0.000127359	0	0	0	
0.209167	0.00555678	-0.0161325	0.000353462	0.000163957	0	0	0	
0.209333	-0.00373895	0.0217284	0.000286617	0.000289194	0	0	0	
0.2095	-0.00971495	-0.0014233	0.000194637	0.000491739	0	0	0	
0.209667	0.0085731	-0.00543629	0.000139776	0.000711873	0	0	0	
0.209833	-0.00487465	0.00330322	0.000162337	0.000756185	0	0	0	
0.21	0.00394499	0.00210113	0.000212184	0.000560367	0	0	0	
0.210167	-0.00188112	-0.0105327	0.000257186	0.000316257	0	0	0	
0.210333	-0.00400558	0.0118663	0.000302	0.000279855	0	0	0	
0.2105	0.00475087	0.000434135	0.000316531	0.00047681	0	0	0	
0.210667	-0.000753153	-0.0261195	0.000265813	0.000685766	0	0	0	
0.210833	-0.00811336	0.0281666	0.000185712	0.000797301	0	0	0	
0.211	0.00974979	-0.0176487	0.000165145	0.000697645	0	0	0	
0.211167	-0.000596289	-0.000639133	0.000212682	0.000483116	0	0	0	
0.211333	0.000715976	0.0106903	0.000250022	0.000252913	0	0	0	
0.2115	-0.00358872	-0.0296418	0.000199252	0.000306012	0	0	0	
0.211667	0.00502377	0.0120739	0.000134965	0.000490345	0	0	0	
0.211833	-0.00451333	-0.0177807	0.000108637	0.000805353	0	0	0	
0.212	-0.0007988	0.0101599	0.00018852	0.00101814	0	0	0	
0.212167	0.006555	0.00308146	0.00030745	0.00103527	0	0	0	
0.212333	-0.00372	0.00840741	0.000383968	0.000768324	0	0	0	
0.2125	0.000249332	-0.0150963	0.000339852	0.000480123	0	0	0	
0.212667	-0.0038301	-0.0229582	0.000238628	0.000394399	0	0	0	
0.212833	0.00329778	0.0126821	0.000168354	0.000477503	0	0	0	
0.213	0.00806331	0.0190073	0.000158847	0.000417262	0	0	0	
0.213167	-0.0127073	-0.0185517	0.000210826	0.000342979	0	0	0	
0.213333	0.00996171	-0.00508147	0.000282837	0.000351359	0	0	0	
0.2135	-0.0102454	0.0415289	0.000331232	0.000495774	0	0	0	
0.213667	0.00678217	-0.0159167	0.000296603	0.000659004	0	0	0	
0.213833	-0.00145189	-0.0216519	0.000219205	0.000761689	0	0	0	
0.214	0.0025225	0.000960459	0.000214676	0.00106445	0	0	0	
0.214167	0.00284288	0.0162591	0.000252871	0.00130648	0	0	0	
0.214333	-0.002689	-0.0156256	0.000275381	0.00122245	0	0	0	
0.2145	0.00356037	0.000167666	0.000202498	0.000777075	0	0	0	
0.214667	-0.00502291	0.0161597	0.000142819	0.000430001	0	0	0	
0.214833	-0.00295356	-0.0250367	0.000104469	0.000467736	0	0	0	
0.215	0.00968929	0.0148888	0.000164647	0.000603534	0	0	0	
0.215167	-0.00278079	-0.0142779	0.000239022	0.000648218	0	0	0	
0.215333	0.000690894	0.00311373	0.000324107	0.000560992	0	0	0	
0.2155	0.00372104	0.00213717	0.000343963	0.000475597	0	0	0	
0.215667	-0.00668045	-0.00344599	0.000337694	0.000354405	0	0	0	
0.215833	-0.00142703	-0.0217604	0.000291075	0.000293402	0	0	0	
0.216	0.00574056	0.0284739	0.000223368	0.000436211	0	0	0	
0.216167	-0.00812305	-0.00693701	0.000180123	0.000905245	0	0	0	
0.216333	0.00543737	-0.0131457	0.000179808	0.00137622	0	0	0	
0.2165	-0.00618071	0.0193343	0.000206041	0.00135981	0	0	0	
0.216667	0.00231869	-0.00520869	0.000234076	0.000893138	0	0	0	
0.216833	0.000221548	-0.0140716	0.000290092	0.000394864	0	0	0	
0.217	-0.00132838	0.0266145	0.000335509	0.00034699	0	0	0	
0.217167	0.00103896	-0.0188933	0.000342401	0.000609826	0	0	0	
0.217333	-0.011493	-0.00692858	0.000316529	0.000913768	0	0	0	
0.2175	0.0059961	0.0141935	0.000292548	0.000909408	0	0	0	
0.217667	0.000635097	0.00681151	0.000232062	0.000626736	0	0	0	
0.217833	-0.00463159	-0.0330366	0.000173209	0.000399318	0	0	0	
0.218	0.00931005	0.0514649	0.000153941	0.000497294	0	0	0	
0.218167	-0.0135878	-0.0548652	0.000215804	0.000836864	0	0	0	
0.218333	0.00670661	0.0327257	0.000318712	0.00107821	0	0	0	
0.2185	-0.00156882	-0.0119615	0.000411191	0.00118231	0	0	0	
0.218667	0.0045931	-0.00208471	0.000419877	0.00101263	0	0	0	
0.218833	-0.00248541	-0.00562234	0.000336852	0.000676821	0	0	0	
0.219	0.00435148	0.0147965	0.000241979	0.00033203	0	0	0	
0.219167	-0.00296428	-0.0101888	0.000200754	0.000201596	0	0	0	
0.219333	-0.00357731	0.0018134	0.000209628	0.000253207	0	0	0	
0.2195	0.00482468	-0.0127085	0.000212858	0.000351912	0	0	0	
0.219667	0.00459854	0.00290892	0.000185732	0.00037469	0	0	0	
0.219833	-0.0059099	-0.0026175	0.00014818	0.000333361	0	0	0	
0.22	8.57876E-05	0.0134051	0.000147618	0.000260083	0	0	0	
0.220167	0.00574916	-0.0296364	0.000215323	0.000349327	0	0	0	
0.220333	-0.00241691	0.0195479	0.000263455	0.000536557	0	0	0	
0.2205	-0.00202533	-0.0102546	0.000242101	0.000590184	0	0	0	
0.220667	0.00767395	0.00538598	0.000231866	0.000462048	0	0	0	
0.220833	0.000854332	-0.00155931	0.000290014	0.000292132	0	0	0	
0.221	-0.00546773	0.000433659	0.000351929	0.00023168	0	0	0	
0.221167	0.00243829	-0.0120529	0.000304823	0.000236812	0	0	0	
0.221333	0.00256264	0.0051263	0.000214378	0.000284679	0	0	0	
0.2215	0.00709975	0.0182706	0.000178486	0.000378607	0	0	0	
0.221667	0.00173908	-0.00980767	0.000196554	0.00050927	0	0	0	
0.221833	-0.0120637	0.00126508	0.000212723	0.000490995	0	0	0	
0.222	0.0154155	0.00414519	0.000242863	0.000368516	0	0	0	
0.222167	-0.00263236	-0.0044404	0.000288111	0.000236597	0	0	0	
0.222333	-0.0020811	-0.000383834	0.000373664	0.000323647	0	0	0	
0.2225	0.00591953	0.0122765	0.000371087	0.000518974	0	0	0	
0.222667	0.005929	0.00172022	0.000299666	0.000559396	0	0	0	
0.222833	-0.0140842	-0.00855181	0.000236716	0.000451223	0	0	0	
0.223	0.00281846	0.0117075	0.000242188	0.000276313	0	0	0	
0.223167	0.0101718	-0.00807408	0.000298137	0.00022271	0	0	0	
0.223333	-0.00453503	0.0111738	0.000269116	0.000269555	0	0	0	
0.2235	-0.00288853	-0.00473793	0.000183481	0.000391998	0	0	0	
0.223667	0.00316318	-0.0135234	0.000144345	0.000571872	0	0	0	
0.223833	-0.00191844	0.0138098	0.000182235	0.000686417	0	0	0	
0.224	0.00480832	-0.00823896	0.000245301	0.000614821	0	0	0	
0.224167	0.00246139	-0.00197246	0.000245267	0.000384706	0	0	0	
0.224333	-0.00210458	0.00572526	0.000236131	0.000190736	0	0	0	
0.2245	0.00361997	-0.00281461	0.000248639	0.000239511	0	0	0	
0.224667	-0.00165009	-0.000156921	0.000255423	0.000459293	0	0	0	
0.224833	-0.00491935	-0.0122866	0.0002188	0.000671003	0	0	0	
0.225	0.0037967	0.00844279	0.000208156	0.000715702	0	0	0	
0.225167	0.00645345	0.000136899	0.000269784	0.000586136	0	0	0	
0.225333	-0.00390461	0.0039647	0.000327305	0.000370031	0	0	0	
0.2255	-0.00543238	-0.0142693	0.00029361	0.000234753	0	0	0	
0.225667	0.0137113	0.0220419	0.000256045	0.000303841	0	0	0	
0.225833	-0.0064817	-0.0090075	0.000276628	0.000496569	0	0	0	
0.226	-0.000348385	0.00335203	0.000348177	0.00064619	0	0	0	
0.226167	-0.00243128	0.00206444	0.000340623	0.000566773	0	0	0	
0.226333	0.005412	0.00433976	0.00029573	0.000358834	0	0	0	
0.2265	-0.00286	-0.00842122	0.000269432	0.000208342	0	0	0	
0.226667	8.77846E-05	0.0127816	0.00024947	0.000288851	0	0	0	
0.226833	0.00206364	-0.0113373	0.000188357	0.000491476	0	0	0	
0.227	0.00481572	-0.0116609	0.000126442	0.000604546	0	0	0	
0.227167	-0.00357614	0.0143326	0.000120838	0.000596168	0	0	0	
0.227333	0.0105754	-0.00202022	0.000201774	0.000436492	0	0	0	
0.2275	-0.00455587	-0.0174283	0.000282547	0.000297929	0	0	0	
0.227667	-0.0122802	0.0136529	0.000341747	0.00030397	0	0	0	
0.227833	0.0861705	0.0696104	0.000363316	0.00071419	0	0	0	
0.228	0.00801394	-0.045325	0.000973765	0.00177436	0	0	0	
0.228167	0.00904073	0.103046	0.000975429	0.00216101	0	0	0	
0.228333	-0.00243658	-0.071307	0.000882766	0.00227599	0	0	0	
0.2285	-0.00933137	0.0307098	0.000197483	0.00147067	0	0	0	
0.228667	0.023724	-0.0272509	0.000174277	0.00107343	0	0	0	
0.228833	0.00708611	0.0688935	0.000293858	0.000994911	0	0	0	
0.229	-0.0141058	-0.0479157	0.0004229	0.00105708	0	0	0	
0.229167	0.00838554	0.0133741	0.000402352	0.00109678	0	0	0	
0.229333	-0.000214236	0.0272643	0.000293954	0.000677842	0	0	0	
0.2295	-0.00559507	-0.017305	0.000139752	0.000492099	0	0	0	
0.229667	0.00808168	0.00293157	0.000101681	0.000412857	0	0	0	
0.229833	-0.0164079	0.000172972	0.00013541	0.00039427	0	0	0	
0.23	0.012491	0.00739282	0.000214015	0.000323997	0	0	0	
0.230167	-0.00501579	-0.0236508	0.000321418	0.000409196	0	0	0	
0.230333	-0.00803935	0.0148678	0.000403118	0.000591227	0	0	0	
0.2305	0.0128579	0.0271027	0.000412895	0.000723449	0	0	0	
0.230667	-0.00762153	-0.0268396	0.000326034	0.000727784	0	0	0	
0.230833	-0.0080356	-0.00200076	0.000205859	0.000613509	0	0	0	
0.231	0.00910539	0.00470701	0.000204095	0.000657316	0	0	0	
0.231167	-0.00329195	0.00423681	0.000304739	0.000807221	0	0	0	
0.231333	-0.00320078	0.00226644	0.000377084	0.000850313	0	0	0	
0.2315	0.00077269	-0.00850036	0.000322485	0.000709921	0	0	0	
0.231667	0.000118648	-0.00361947	0.000218172	0.000594235	0	0	0	
0.231833	0.0033155	0.000277142	0.000193426	0.000659189	0	0	0	
0.232	0.00331232	0.019423	0.000224077	0.000701517	0	0	0	
0.232167	-0.00549428	-0.0251427	0.000230067	0.000648326	0	0	0	
0.232333	0.00106535	0.0162708	0.000192448	0.000609284	0	0	0	
0.2325	-0.00175896	-0.00375789	0.00015733	0.000697204	0	0	0	
0.232667	0.00708189	4.51965E-05	0.000147748	0.000823619	0	0	0	
0.232833	-0.00385517	-0.00258371	0.000204438	0.000929509	0	0	0	
0.233	-0.00084557	0.00678262	0.000318165	0.000886457	0	0	0	
0.233167	0.00510511	-0.00861894	0.000392752	0.000692724	0	0	0	
0.233333	-0.00466828	0.00623159	0.00037701	0.000522168	0	0	0	
0.2335	0.004648	-0.00749524	0.000288013	0.000531944	0	0	0	
0.233667	0.000169502	0.0176794	0.000173274	0.000647884	0	0	0	
0.233833	-0.00859633	-0.0172049	0.000106352	0.000703493	0	0	0	
0.234	0.0118128	0.00789449	0.000113136	0.000696159	0	0	0	
0.234167	-0.00634318	-0.00250286	0.000206252	0.000711469	0	0	0	
0.234333	0.00119268	-0.00015989	0.000279426	0.000725698	0	0	0	
0.2345	0.00165035	-0.0123293	0.000292997	0.000680837	0	0	0	
0.234667	-0.00195698	0.0179558	0.000283841	0.000621501	0	0	0	
0.234833	0.000790942	-0.012049	0.000279986	0.000632107	0	0	0	
0.235	-0.00110064	0.000144138	0.000262679	0.000726756	0	0	0	
0.235167	-0.00446175	0.00528377	0.000227952	0.000803425	0	0	0	
0.235333	0.00357099	0.00470336	0.000209768	0.000709141	0	0	0	
0.2355	0.000106719	-0.0802628	0.000237835	0.000668026	0	0	0	
0.235667	-0.00183041	0.104791	0.000310418	0.00246974	0	0	0	
0.235833	-0.00352935	-0.0149232	0.000374346	0.00352116	0	0	0	
0.236	0.00443039	0.0191686	0.000390129	0.00339173	0	0	0	
0.236167	-0.0119584	-0.015676	0.000351482	0.00162086	0	0	0	
0.236333	0.0121495	0.0265127	0.00029808	0.000834843	0	0	0	
0.2365	-0.0115595	0.0259379	0.000262459	0.0010144	0	0	0	
0.236667	0.00283978	0.00810297	0.000196243	0.000960146	0	0	0	
0.236833	-0.00923231	0.228667	0.00020498	0.0031927	0	0	0	
0.237	0.0124096	-0.0798777	0.000189457	0.00375918	0	0	0	
0.237167	0.000688224	0.0117504	0.000230308	0.00387221	0	0	0	
0.237333	-0.00783005	-0.000385865	0.000211005	0.00151945	0	0	0	
0.2375	0.00591102	0.0267261	0.00018747	0.000795272	0	0	0	
0.237667	-1.00702E-05	0.0132791	0.000147885	0.000632266	0	0	0	
0.237833	0.00120854	-0.0501095	0.000114409	0.000764853	0	0	0	
0.238	0.00524027	0.027404	0.000163024	0.00116712	0	0	0	
0.238167	-0.00308552	-0.0166925	0.000248187	0.00147304	0	0	0	
0.238333	0.00397173	0.0150494	0.000340373	0.00143725	0	0	0	
0.2385	0.00416717	-0.00790602	0.000344774	0.00121728	0	0	0	
0.238667	-0.00178658	0.0157949	0.000265781	0.00107581	0	0	0	
0.238833	-3.76814E-05	-0.0134185	0.000138475	0.00108419	0	0	0	
0.239	0.00783735	5.40713E-05	6.3708E-05	0.00109892	0	0	0	
0.239167	-0.00813961	0.00747667	6.90412E-05	0.00101419	0	0	0	
0.239333	0.00891681	-0.0079396	0.000153281	0.000942047	0	0	0	
0.2395	8.86302E-05	0.0174489	0.000245743	0.000945264	0	0	0	
0.239667	-0.00847773	-0.0153001	0.000287425	0.000917753	0	0	0	
0.239833	0.000999651	0.000681188	0.00025333	0.000738052	0	0	0	
0.24	0.0121346	0.00614291	0.000196348	0.000504872	0	0	0	
0.240167	-0.0126881	-0.0136111	0.000204333	0.000419585	0	0	0	
0.240333	0.0129263	0.0176464	0.000273669	0.000529374	0	0	0	
0.2405	-0.00380808	-0.0081083	0.000329201	0.000684874	0	0	0	
0.240667	-0.0047275	0.000399431	0.000346479	0.000783979	0	0	0	
0.240833	0.0010726	0.000501708	0.000339585	0.000864041	0	0	0	
0.241	-0.00540962	-0.0123692	0.000324036	0.000978357	0	0	0	
0.241167	0.00300559	0.012952	0.000261232	0.00103029	0	0	0	
0.241333	0.00421153	-0.0112635	0.000157377	0.000906444	0	0	0	
0.2415	-0.0121957	0.00620328	0.000117212	0.000691895	0	0	0	
0.241667	0.0102905	0.00425817	0.000159878	0.000556229	0	0	0	
0.241833	-0.00136059	-0.00412756	0.000266861	0.000581386	0	0	0	
0.242	-0.00796941	0.000206188	0.000319374	0.000638776	0	0	0	
0.242167	-0.00162158	-0.01168	0.000287169	0.000634413	0	0	0	
0.242333	0.00594683	0.00811999	0.000218167	0.000588687	0	0	0	
0.2425	-0.00140682	-0.00187626	0.000208836	0.000594916	0	0	0	
0.242667	-0.0010567	0.00829872	0.000223651	0.000623024	0	0	0	
0.242833	-0.00394551	-0.00748217	0.000197014	0.000623864	0	0	0	
0.243	0.0061624	-0.00113403	0.000172281	0.000646466	0	0	0	
0.243167	-0.00315767	0.00494128	0.000237409	0.00070463	0	0	0	
0.243333	0.00220849	-0.000152496	0.000317377	0.000701279	0	0	0	
0.2435	-0.00487445	-0.000866431	0.000318279	0.000599334	0	0	0	
0.243667	0.00603494	-0.000844389	0.000295161	0.000530095	0	0	0	
0.243833	0.00446601	0.00666909	0.000290395	0.000538713	0	0	0	
0.244	-0.00362238	0.00238203	0.000246831	0.000537093	0	0	0	
0.244167	-0.00258029	-0.00530947	0.00014386	0.00053479	0	0	0	
0.244333	0.00447142	-0.00364808	8.88264E-05	0.000621831	0	0	0	
0.2445	-0.00375046	0.0100523	0.000123249	0.000696643	0	0	0	
0.244667	0.00826627	-0.00384403	0.000182674	0.000664259	0	0	0	
0.244833	-0.00031408	0.00276785	0.00020855	0.000594864	0	0	0	
0.245	-0.00655474	-0.00553467	0.000242804	0.000604857	0	0	0	
0.245167	0.00689954	0.00273532	0.000265469	0.000623813	0	0	0	
0.245333	0.00337722	-0.000337374	0.000260282	0.000606181	0	0	0	
0.2455	-0.00276942	0.000462307	0.000215129	0.000599707	0	0	0	
0.245667	0.0030113	-0.00124307	0.000188096	0.000629867	0	0	0	
0.245833	0.00113086	-0.000539588	0.000199212	0.000669647	0	0	0	
0.246	0.000107389	0.00124002	0.000236048	0.000726652	0	0	0	
0.246167	-0.00357628	0.0110417	0.000261032	0.000803418	0	0	0	
0.246333	4.1967E-05	-0.0167579	0.000280763	0.000812456	0	0	0	
0.2465	0.00824837	0.00274949	0.000300432	0.000711105	0	0	0	
0.246667	-0.00649702	0.000700958	0.000281754	0.000598332	0	0	0	
0.246833	0.00699801	0.00579816	0.000227353	0.000619671	0	0	0	
0.247	4.43475E-05	-0.00166709	0.000167702	0.000659062	0	0	0	
0.247167	-0.00473485	-0.00147495	0.00017492	0.000626605	0	0	0	
0.247333	0.00217414	0.00171346	0.000209257	0.000582551	0	0	0	
0.2475	-0.00245776	-0.000424102	0.000252915	0.00060536	0	0	0	
0.247667	-0.00423149	0.00137009	0.000305626	0.000635405	0	0	0	
0.247833	0.0100862	-0.00510343	0.000361994	0.000626972	0	0	0	
0.248	-0.00185901	0.00301169	0.000362453	0.000629099	0	0	0	
0.248167	-0.00806207	-0.00227834	0.000304543	0.000690947	0	0	0	
0.248333	0.00493406	-0.00858155	0.000300067	0.00078059	0	0	0	
0.2485	0.00162786	0.0177907	0.000367849	0.000794867	0	0	0	
0.248667	-0.00173337	-0.00369593	0.000396289	0.000684312	0	0	0	
0.248833	-0.00437268	-0.00795324	0.000321059	0.000510272	0	0	0	
0.249	0.00428608	-0.00319772	0.00021179	0.000475778	0	0	0	
0.249167	-0.00639636	0.00161803	0.000182716	0.000530792	0	0	0	
0.249333	0.00921261	0.00207439	0.000237826	0.000567084	0	0	0	
0.2495	-0.00414551	-0.00246737	0.000301199	0.000583035	0	0	0	
0.249667	-0.00113172	0.000873417	0.000309072	0.000637509	0	0	0	
0.249833	-0.00148616	0.00148995	0.000254853	0.000671006	0	0	0	
0.25	0.002874	-0.00797724	0.000188869	0.000645963	0	0	0	
0.250167	-0.00504766	0.00392574	0.000160066	0.000620767	0	0	0	
0.250333	0.00441949	0.00118303	0.000162159	0.000603141	0	0	0	
0.2505	0.00194748	-0.00177783	0.000189968	0.000593617	0	0	0	
0.250667	-0.00436183	0.000753799	0.000226546	0.000615458	0	0	0	
0.250833	0.00474198	0.00422869	0.000246917	0.000667257	0	0	0	
0.251	9.16021E-05	-0.0033999	0.000232935	0.000687699	0	0	0	
0.251167	-0.00281926	0.00210242	0.000193448	0.000657224	0	0	0	
0.251333	0.0022695	-0.00344339	0.000163347	0.000625666	0	0	0	
0.2515	-0.000129013	0.00466442	0.000175938	0.000626294	0	0	0	
0.251667	-0.00789331	-0.0016016	0.00023955	0.000661524	0	0	0	
0.251833	0.012812	-0.000922132	0.000316704	0.000705295	0	0	0	
0.252	-0.00310684	-0.000339978	0.00032409	0.000719824	0	0	0	
0.252167	-0.00208965	0.00374941	0.000249336	0.000749496	0	0	0	
0.252333	-0.00101975	-0.00571908	0.000219087	0.000822957	0	0	0	
0.2525	0.00374502	0.0267446	0.000251912	0.000765953	0	0	0	
0.252667	0.000674268	-0.0134876	0.000280129	0.000627942	0	0	0	
0.252833	-0.00624141	0.0118163	0.000279198	0.000424489	0	0	0	
0.253	-0.0027953	-0.0273845	0.000324406	0.000417976	0	0	0	
0.253167	0.0130148	0.0227208	0.000381799	0.000487934	0	0	0	
0.253333	-0.00666006	0.00776328	0.000377818	0.000469132	0	0	0	
0.2535	-0.0030215	0.00520939	0.000273732	0.000497099	0	0	0	
0.253667	9.12288E-05	-0.0323024	0.0002077	0.000745136	0	0	0	
0.253833	0.000224277	0.0463951	0.000141703	0.00108182	0	0	0	
0.254	0.00957327	-0.0208771	0.000145641	0.00121904	0	0	0	
0.254167	-0.00244743	0.0138962	0.000220538	0.00109243	0	0	0	
0.254333	-0.00627904	-0.0256747	0.000375583	0.00105164	0	0	0	
0.2545	0.00137979	0.0143954	0.000429882	0.000959273	0	0	0	
0.254667	0.000731569	0.0135432	0.000349244	0.000698849	0	0	0	
0.254833	0.0102195	-0.0449839	0.000305487	0.00057566	0	0	0	
0.255	0.0968185	0.128908	0.000713868	0.00111044	0	0	0	
0.255167	-0.00684345	-0.00762968	0.000993667	0.00175434	0	0	0	
0.255333	-4.63652E-05	-0.011849	0.000984666	0.00204166	0	0	0	
0.2555	-0.000613765	-0.00429599	0.000544134	0.00162862	0	0	0	
0.255667	-0.00714673	-0.00183947	0.000285317	0.0011635	0	0	0	
0.255833	0.023582	0.0203477	0.000279081	0.00102234	0	0	0	
0.256	-0.00559232	-0.0231155	0.000360597	0.00117336	0	0	0	
0.256167	0.00364425	0.0432932	0.000414614	0.00133887	0	0	0	
0.256333	-0.00589705	-0.0339443	0.000368285	0.00125224	0	0	0	
0.2565	0.00156614	0.0122332	0.000240648	0.000898367	0	0	0	
0.256667	-0.00380422	-0.00215593	0.000137205	0.000559291	0	0	0	
0.256833	0.0058618	0.00478962	0.000101396	0.000304345	0	0	0	
0.257	-0.0035195	-0.00793323	0.000116239	0.000218162	0	0	0	
0.257167	0.00113002	0.0276262	0.000131016	0.000340478	0	0	0	
0.257333	0.000879254	-0.00270651	0.000163613	0.000725183	0	0	0	
0.2575	-0.000976228	-0.000989894	0.000221547	0.0010633	0	0	0	
0.257667	-0.017538	-0.00960828	0.000320634	0.00107346	0	0	0	
0.257833	0.00075501	0.000932731	0.000464227	0.000733032	0	0	0	
0.258	0.00153871	-0.000530511	0.000482454	0.000413686	0	0	0	
0.258167	0.00153266	-0.00955099	0.000423351	0.000363965	0	0	0	
0.258333	0.00149	0.0337751	0.000300446	0.000559584	0	0	0	
0.2585	-0.00663104	-0.0233909	0.000242006	0.000813803	0	0	0	
0.258667	0.00936278	0.00999024	0.00020836	0.000934132	0	0	0	
0.258833	-0.0300133	0.00209066	0.000227448	0.000823984	0	0	0	
0.259	0.00755058	-0.0094332	0.000308377	0.000610676	0	0	0	
0.259167	0.00989754	0.0182879	0.000318218	0.000464623	0	0	0	
0.259333	-0.00325046	-0.0136421	0.000285912	0.000456896	0	0	0	
0.2595	-0.00244018	0.0015316	0.000239919	0.000575045	0	0	0	
0.259667	-0.00942977	0.00543289	0.00030983	0.000680225	0	0	0	
0.259833	0.0106823	0.00215099	0.000319757	0.000608173	0	0	0	
0.26	-0.00259265	0.00374195	0.000259166	0.000447845	0	0	0	
0.260167	0.00472276	0.00564606	0.000175617	0.000382911	0	0	0	
0.260333	-0.00448128	0.00727081	0.00017011	0.000490003	0	0	0	
0.2605	-0.00685714	-0.0106639	0.000219903	0.00061098	0	0	0	
0.260667	0.00772347	0.000286473	0.000271712	0.000654322	0	0	0	
0.260833	-0.00173878	0.00518738	0.000265611	0.000655107	0	0	0	
0.261	-0.00165448	-0.0136726	0.000240001	0.00061423	0	0	0	
0.261167	0.00260871	0.0132375	0.000191413	0.000511317	0	0	0	
0.261333	-0.00353231	-0.0116941	0.000144363	0.000376452	0	0	0	
0.2615	-0.00883024	0.00793633	0.000115914	0.000283393	0	0	0	
0.261667	0.00772738	-0.00236191	0.00015173	0.000317222	0	0	0	
0.261833	0.000266871	-0.00437248	0.0002138	0.000418344	0	0	0	
0.262	-0.00186445	-0.00108629	0.000248529	0.000452864	0	0	0	
0.262167	0.00213289	-0.0132148	0.000208841	0.000351789	0	0	0	
0.262333	-0.00140848	0.0390706	0.000143916	0.000306853	0	0	0	
0.2625	-0.00353742	-0.0323307	9.69644E-05	0.000473533	0	0	0	
0.262667	0.00425407	-0.0120876	8.50271E-05	0.000752014	0	0	0	
0.262833	-0.00247126	0.00957404	9.94348E-05	0.00071779	0	0	0	
0.263	-0.00178435	0.00470963	0.000149962	0.00050302	0	0	0	
0.263167	0.00917828	-0.00727136	0.00021299	0.000207719	0	0	0	
0.263333	-0.00410137	0.0114617	0.000215917	0.000164424	0	0	0	
0.2635	-0.00481207	-0.0147846	0.000179765	0.000212645	0	0	0	
0.263667	0.00486278	-0.0205871	0.000112553	0.000432338	0	0	0	
0.263833	0.00535911	0.030063	0.000149634	0.000702553	0	0	0	
0.264	-0.00547329	-0.0269758	0.00020168	0.00080519	0	0	0	
0.264167	0.0084337	0.0070551	0.000286275	0.000655044	0	0	0	
0.264333	-0.012174	0.0114772	0.000304973	0.000364899	0	0	0	
0.2645	0.0188382	-0.0228703	0.000325769	0.000265365	0	0	0	
0.264667	-0.00376653	0.00445853	0.000307548	0.000511873	0	0	0	
0.264833	-0.00355573	0.0188985	0.000233668	0.000914587	0	0	0	
0.265	0.00331509	-0.0176212	0.000164678	0.000951416	0	0	0	
0.265167	0.000948447	0.00102066	0.000153575	0.000787089	0	0	0	
0.265333	-0.00779532	0.0131708	0.000273605	0.000442013	0	0	0	
0.2655	0.0222541	-0.0135238	0.00040533	0.000371018	0	0	0	
0.265667	-0.0156794	0.0101704	0.000482316	0.000299666	0	0	0	
0.265833	0.0125604	0.00129847	0.000431895	0.00034239	0	0	0	
0.266	-0.0137198	-0.0191352	0.000353752	0.000419959	0	0	0	
0.266167	0.00593686	0.0121926	0.000274565	0.000452142	0	0	0	
0.266333	-0.000569623	-0.000234323	0.000242045	0.000340561	0	0	0	
0.2665	-0.00147598	0.00116583	0.000250253	0.000242611	0	0	0	
0.266667	-0.00739039	-0.0228132	0.000304997	0.000244573	0	0	0	
0.266833	0.0146266	0.0191582	0.000380932	0.000465126	0	0	0	
0.267	-0.0142569	-0.00929425	0.00042757	0.000659671	0	0	0	
0.267167	0.0043868	0.00346294	0.000411898	0.000717005	0	0	0	
0.267333	-0.000550784	-0.00575005	0.000338036	0.000546997	0	0	0	
0.2675	-0.00691373	0.000572639	0.000246491	0.000318397	0	0	0	
0.267667	0.00594014	0.00467479	0.000196795	0.000159796	0	0	0	
0.267833	-0.00525125	-0.0125448	0.000231282	0.000222688	0	0	0	
0.268	-0.00030535	0.0095768	0.000293133	0.000426911	0	0	0	
0.268167	-0.0016741	0.00635813	0.00029205	0.000627481	0	0	0	
0.268333	0.00498029	-0.0133541	0.000217489	0.000674958	0	0	0	
0.2685	-0.00421802	0.00868709	0.000160387	0.000559755	0	0	0	
0.268667	-0.00292084	0.000419328	0.000193357	0.000355738	0	0	0	
0.268833	-0.00159807	-0.00825527	0.000248473	0.000211002	0	0	0	
0.269	0.00613181	0.0131711	0.000300823	0.000271468	0	0	0	
0.269167	0.00612246	-0.00458996	0.000364951	0.000475749	0	0	0	
0.269333	-0.0152428	0.000368932	0.000387703	0.000683796	0	0	0	
0.2695	-0.000801725	0.000386664	0.000310804	0.000754978	0	0	0	
0.269667	0.00508287	-0.0088383	0.000166619	0.000654595	0	0	0	
0.269833	-0.00241219	0.00117666	0.000143233	0.000445264	0	0	0	
0.27	0.00165929	0.00967389	0.000162799	0.000270131	0	0	0	
0.270167	-0.0080633	-0.00566732	0.000178867	0.000304234	0	0	0	
0.270333	0.00682285	-0.00116018	0.000139932	0.000483872	0	0	0	
0.2705	-0.00917626	0.00740712	0.00017051	0.000594799	0	0	0	
0.270667	0.00498832	-0.00469104	0.000280367	0.000511409	0	0	0	
0.270833	0.00231786	-0.00419936	0.00041033	0.000330698	0	0	0	
0.271	-0.0132121	0.00485108	0.000447957	0.00023827	0	0	0	
0.271167	0.0293273	-0.0126101	0.000426682	0.000309695	0	0	0	
0.271333	-0.0157577	0.0152112	0.000396834	0.000469717	0	0	0	
0.2715	-0.000186754	-0.013853	0.000341728	0.000668549	0	0	0	
0.271667	0.0124212	0.00200151	0.000254214	0.000851106	0	0	0	
0.271833	-0.0112929	0.013802	0.000188523	0.000857322	0	0	0	
0.272	0.00492013	-0.00766578	0.000187377	0.000628359	0	0	0	
0.272167	0.0185102	0.00184676	0.000298076	0.000370034	0	0	0	
0.272333	-0.014974	0.00153544	0.000449151	0.000183852	0	0	0	
0.2725	0.0114461	-0.00374987	0.000522989	0.000229181	0	0	0	
0.272667	-0.00229189	0.00967119	0.00045901	0.000316797	0	0	0	
0.272833	0.000542283	-0.0040457	0.000269097	0.000407892	0	0	0	
0.273	0.000566614	-0.00555568	0.000156299	0.000429567	0	0	0	
0.273167	0.00265893	0.0282692	0.00013861	0.00043084	0	0	0	
0.273333	-0.00788296	-0.0324486	0.000186202	0.000604	0	0	0	
0.2735	0.00568695	0.0150239	0.000208514	0.000715637	0	0	0	
0.273667	0.00148101	0.00273081	0.000170407	0.000677141	0	0	0	
0.273833	-0.00416037	-0.00690156	0.000117656	0.000468779	0	0	0	
0.274	0.00422658	0.00439555	9.86595E-05	0.00029355	0	0	0	
0.274167	-0.0105714	0.00382013	0.000125128	0.000278165	0	0	0	
0.274333	0.0158892	-0.024894	0.00016637	0.000440653	0	0	0	
0.2745	-0.0152708	0.0614442	0.000219869	0.000837224	0	0	0	
0.274667	0.00712792	-0.0878369	0.000275138	0.00136542	0	0	0	
0.274833	-0.000822611	0.0703818	0.000295349	0.00175078	0	0	0	
0.275	0.00555626	-0.0272458	0.000250633	0.0015829	0	0	0	
0.275167	0.000238156	-0.00076224	0.000166937	0.00100916	0	0	0	
0.275333	-0.0101336	-0.000409338	0.000155339	0.000492611	0	0	0	
0.2755	0.0160377	0.0139021	0.00018443	0.000535704	0	0	0	
0.275667	-0.00963919	0.00039213	0.000234951	0.000907992	0	0	0	
0.275833	0.00154301	-0.020188	0.000215612	0.0012378	0	0	0	
0.276	0.00629462	0.0178917	0.000154607	0.0012568	0	0	0	
0.276167	-0.00448686	-0.00168973	0.000106511	0.000956517	0	0	0	
0.276333	0.0158133	0.00473267	0.000101836	0.000562292	0	0	0	
0.2765	-0.0152587	-0.0129696	0.000195191	0.00033746	0	0	0	
0.276667	0.000957587	0.0124292	0.000302702	0.000472371	0	0	0	
0.276833	0.0128657	0.0108056	0.000411628	0.000747091	0	0	0	
0.277	-0.010837	-0.022769	0.000430342	0.000845641	0	0	0	
0.277167	0.00802245	0.0177292	0.000343991	0.000700492	0	0	0	
0.277333	0.00683301	-0.00776948	0.000229678	0.000460646	0	0	0	
0.2775	-0.0110693	0.0065086	0.000167285	0.000299524	0	0	0	
0.277667	0.0110005	-0.00640812	0.000189763	0.000245174	0	0	0	
0.277833	-0.00506903	0.00448687	0.000249297	0.000209527	0	0	0	
0.278	-0.00109014	0.0110951	0.00032651	0.000171012	0	0	0	
0.278167	0.00953038	-0.0114428	0.000383219	0.000177155	0	0	0	
0.278333	-0.00589627	0.00399954	0.000364948	0.000174617	0	0	0	
0.2785	0.00567598	-0.0035074	0.000262361	0.000190797	0	0	0	
0.278667	-0.00142271	0.00739343	0.000160192	0.000134436	0	0	0	
0.278833	-0.00139895	-0.00487398	8.53309E-05	0.000192555	0	0	0	
0.279	0.00254593	-0.0195181	9.40359E-05	0.000395085	0	0	0	
0.279167	0.00396573	0.0305479	0.000171724	0.000587525	0	0	0	
0.279333	-0.00937139	-0.0208441	0.000244186	0.000646211	0	0	0	
0.2795	0.00358619	0.00746511	0.000252844	0.000480156	0	0	0	
0.279667	0.00427615	-0.000525262	0.000182894	0.000282097	0	0	0	
0.279833	-0.00685761	-0.002903	0.000178464	0.000136363	0	0	0	
0.28	0.00335136	-0.00330135	0.000235184	0.000159091	0	0	0	
0.280167	0.00433233	0.00720724	0.000292342	0.000423905	0	0	0	
0.280333	-0.00592549	-0.0135831	0.000273628	0.000675175	0	0	0	
0.2805	0.00111983	0.0104005	0.000207333	0.000692974	0	0	0	
0.280667	0.00237522	0.000280647	0.000172801	0.000433384	0	0	0	
0.280833	-0.00326971	-0.00118411	0.000205306	0.000179878	0	0	0	
0.281	-0.00423896	-0.00434302	0.000243185	0.000205438	0	0	0	
0.281167	0.0060188	0.0126375	0.000221698	0.000442592	0	0	0	
0.281333	-0.00170752	-0.00319448	0.00015786	0.000617514	0	0	0	
0.2815	0.00110927	0.00181052	0.000127668	0.000509288	0	0	0	
0.281667	0.00283036	-0.00272804	0.000197954	0.000257195	0	0	0	
0.281833	-0.00909943	0.00684399	0.000259558	8.09522E-05	0	0	0	
0.282	0.0102465	-0.0192095	0.000313486	0.000178015	0	0	0	
0.282167	0.002705	0.0286001	0.000364058	0.000367727	0	0	0	
0.282333	-0.0147925	-0.0114326	0.000392465	0.000548699	0	0	0	
0.2825	0.00728148	0.0125781	0.000363457	0.000467798	0	0	0	
0.282667	0.00875325	-0.0102294	0.000270716	0.000355753	0	0	0	
0.282833	-0.00136335	-0.000508559	0.000251621	0.000228959	0	0	0	
0.283	0.00316217	0.0083365	0.000262147	0.000249203	0	0	0	
0.283167	-0.00110829	-0.0119932	0.000258622	0.000372826	0	0	0	
0.283333	-0.00774955	-0.00870925	0.000263868	0.000724545	0	0	0	
0.2835	0.0130707	0.0417767	0.000295232	0.000966253	0	0	0	
0.283667	0.00401267	-0.0281655	0.000279823	0.000984325	0	0	0	
0.283833	-0.0157862	-0.00583776	0.000230693	0.000685652	0	0	0	
0.284	0.0158277	-0.00314152	0.000227615	0.000392703	0	0	0	
0.284167	-0.00317559	0.0313972	0.000292254	0.000300376	0	0	0	
0.284333	0.0020861	-0.0157044	0.000291256	0.000342555	0	0	0	
0.2845	-0.00436402	-0.00809024	0.000226699	0.000379026	0	0	0	
0.284667	-0.000283363	0.0198272	0.000168182	0.000366605	0	0	0	
0.284833	-0.00325394	-0.0116324	0.000132993	0.000341842	0	0	0	
0.285	0.0174541	0.00146191	0.000181479	0.000448015	0	0	0	
0.285167	-0.0128135	0.0302731	0.000196654	0.000600767	0	0	0	
0.285333	0.026603	-0.0547783	0.000329262	0.000937972	0	0	0	
0.2855	-0.0243403	0.0518784	0.000364186	0.00128798	0	0	0	
0.285667	0.0185046	-0.0244728	0.000428195	0.0012076	0	0	0	
0.285833	-0.00712015	0.00722793	0.000384761	0.00107198	0	0	0	
0.286	0.00252084	0.023172	0.000348321	0.000851206	0	0	0	
0.286167	0.00800597	-0.0221901	0.000287038	0.000756773	0	0	0	
0.286333	0.00404166	-0.00202157	0.00021907	0.000719341	0	0	0	
0.2865	0.0125787	0.00972293	0.000253918	0.000940175	0	0	0	
0.286667	-0.00607951	-0.0212674	0.000358203	0.00127394	0	0	0	
0.286833	-0.00991789	0.0317221	0.000481128	0.00115202	0	0	0	
0.287	0.0160105	-0.00860752	0.000412505	0.000764231	0	0	0	
0.287167	-0.00702741	0.0119708	0.000366298	0.000480564	0	0	0	
0.287333	-0.00453966	-0.0622373	0.000348914	0.00058652	0	0	0	
0.2875	0.00735362	0.054755	0.000386452	0.000959153	0	0	0	
0.287667	-0.00738735	0.0627137	0.000320559	0.00111626	0	0	0	
0.287833	0.00269132	-0.0672646	0.000219752	0.00130462	0	0	0	
0.288	-0.00132978	0.0241291	0.000174269	0.00120732	0	0	0	
0.288167	-0.00103639	-0.0166256	0.000194011	0.00118276	0	0	0	
0.288333	-0.00241159	0.0198991	0.000213921	0.000955885	0	0	0	
0.2885	-0.000531644	-0.023328	0.000232997	0.00116052	0	0	0	
0.288667	-0.0024854	0.0274194	0.000244899	0.00166399	0	0	0	
0.288833	-0.00212516	0.014628	0.000239249	0.00177493	0	0	0	
0.289	0.000781741	-0.00650867	0.000204808	0.00127507	0	0	0	
0.289167	0.00897043	0.000910879	0.000195126	0.000567319	0	0	0	
0.289333	-0.0131035	-0.00117038	0.000223162	0.000293506	0	0	0	
0.2895	0.00476674	-0.00877143	0.000244872	0.000260475	0	0	0	
0.289667	0.00827343	0.00072651	0.000211874	0.000378907	0	0	0	
0.289833	-0.00156779	0.0354764	0.000182917	0.000633403	0	0	0	
0.29	-0.00179742	-0.0519711	0.000163421	0.000864643	0	0	0	
0.290167	-0.00280373	0.023378	0.000147814	0.00091825	0	0	0	
0.290333	0.00633504	-0.000372494	0.000186124	0.000704129	0	0	0	
0.2905	-0.00249276	-0.0159216	0.000347405	0.000519439	0	0	0	
0.290667	-0.00297025	0.0515168	0.000520194	0.00055007	0	0	0	
0.290833	0.00316762	-0.0430037	0.000532145	0.00073934	0	0	0	
0.291	-0.000759439	-0.0396827	0.000431596	0.00138985	0	0	0	
0.291167	0.00916675	0.120516	0.000366489	0.00209331	0	0	0	
0.291333	-0.0178943	-0.0803527	0.000352243	0.00238926	0	0	0	
0.2915	0.00573562	0.0262479	0.000341185	0.00191518	0	0	0	
0.291667	0.00526844	-0.0573752	0.000254579	0.00118488	0	0	0	
0.291833	-0.00718127	0.0519579	0.000250947	0.00105722	0	0	0	
0.292	0.0084319	-0.0459746	0.000226829	0.00118891	0	0	0	
0.292167	-0.0133208	0.0274424	0.000263635	0.00129895	0	0	0	
0.292333	0.00050583	-0.00350287	0.000334758	0.00105909	0	0	0	
0.2925	0.010936	-0.00812532	0.000449037	0.000689642	0	0	0	
0.292667	0.00539232	0.0225158	0.000400815	0.000397993	0	0	0	
0.292833	-0.0194343	-0.056008	0.00033626	0.000500725	0	0	0	
0.293	0.0161261	0.0407398	0.0002478	0.000828091	0	0	0	
0.293167	-0.0088549	-0.0277343	0.000342521	0.0010124	0	0	0	
0.293333	0.00265307	0.0499637	0.00034759	0.00085035	0	0	0	
0.2935	0.00257732	-0.0202397	0.000366525	0.000693568	0	0	0	
0.293667	-0.0213886	-0.0103299	0.000374055	0.000652661	0	0	0	
0.293833	0.0317836	0.00275874	0.000427433	0.00055906	0	0	0	
0.294	-0.0157917	-0.00243871	0.000470784	0.000350936	0	0	0	
0.294167	-0.0110387	0.00967173	0.000469429	0.000164167	0	0	0	
0.294333	0.00707659	-0.0057441	0.000388634	0.000181214	0	0	0	
0.2945	0.0111346	-0.00624332	0.000267947	0.00026981	0	0	0	
0.294667	-0.019066	0.00655535	0.000214288	0.000314299	0	0	0	
0.294833	0.00618231	-0.0202174	0.000249648	0.000293035	0	0	0	
0.295	0.00442829	0.0339196	0.000296657	0.000437562	0	0	0	
0.295167	-0.00822179	0.00551447	0.000227928	0.000726126	0	0	0	
0.295333	-0.00326932	-0.045652	0.000199654	0.000947412	0	0	0	
0.2955	0.021253	0.00414523	0.000280251	0.000824827	0	0	0	
0.295667	-0.0245524	0.00688002	0.000459915	0.000537977	0	0	0	
0.295833	0.0213609	-0.00271349	0.000547826	0.000250598	0	0	0	
0.296	-0.0225658	0.013999	0.000566552	0.000190304	0	0	0	
0.296167	0.0206628	-0.0272911	0.000583618	0.000237128	0	0	0	
0.296333	-0.0187598	0.0101295	0.000543643	0.000547727	0	0	0	
0.2965	0.00852605	0.016832	0.000447795	0.00106851	0	0	0	
0.296667	0.000295904	-0.0392635	0.000250869	0.0013187	0	0	0	
0.296833	-0.00587584	0.0256148	0.000126962	0.00116289	0	0	0	
0.297	0.00193519	0.00778311	0.000134108	0.000754804	0	0	0	
0.297167	-0.00119328	-0.0381859	0.000291811	0.000644251	0	0	0	
0.297333	-0.0078349	0.0340526	0.000432624	0.000673398	0	0	0	
0.2975	0.00691857	0.0238561	0.000457049	0.000818473	0	0	0	
0.297667	-0.00891239	-0.0513208	0.000384287	0.000877957	0	0	0	
0.297833	0.00529677	0.0299753	0.000318042	0.000901686	0	0	0	
0.298	-0.00334672	-0.00437641	0.000236455	0.000687804	0	0	0	
0.298167	-0.00564748	-0.0101842	0.000181644	0.00045248	0	0	0	
0.298333	0.0101107	0.00780148	0.00023078	0.00026014	0	0	0	
0.2985	0.00944645	0.0100852	0.000360304	0.000427148	0	0	0	
0.298667	-0.0128089	-0.0220629	0.000437277	0.000660829	0	0	0	
0.298833	0.00679073	0.0164563	0.000367603	0.000786487	0	0	0	
0.299	-0.0084046	-0.00986568	0.000263273	0.00057842	0	0	0	
0.299167	0.00740204	0.00318355	0.000236635	0.000292381	0	0	0	
0.299333	-0.000374178	0.00634052	0.000205709	0.00014382	0	0	0	
0.2995	0.00334004	-0.00500449	0.000167686	0.000141476	0	0	0	
0.299667	-0.00304847	-0.0130897	0.000130809	0.000252339	0	0	0	
0.299833	0.0028166	0.0113979	0.000165648	0.000371589	0	0	0	
0.3	-0.00263403	-0.00106335	0.000231473	0.000377398	0	0	0	
0.300167	0.00919864	-0.00251958	0.000297172	0.000284225	0	0	0	
0.300333	-0.0196861	0.014599	0.000348951	0.000222636	0	0	0	
0.3005	0.00508305	-0.0136226	0.000368278	0.000294697	0	0	0	
0.300667	-0.00550202	-0.0144451	0.000269845	0.000499398	0	0	0	
0.300833	0.00390465	0.0260651	0.00023319	0.000611979	0	0	0	
0.301	-0.00686421	-0.0113173	0.00025143	0.000564721	0	0	0	
0.301167	0.00781398	-0.00603273	0.000357217	0.00039076	0	0	0	
0.301333	-0.00679721	0.00909867	0.00038648	0.000266689	0	0	0	
0.3015	-0.00776727	-0.00168583	0.000363179	0.000384761	0	0	0	
0.301667	0.00190455	-0.0133192	0.000317798	0.000657848	0	0	0	
0.301833	-0.00386296	0.0341272	0.000251298	0.000966247	0	0	0	
0.302	0.011605	-0.0330728	0.000211902	0.00105022	0	0	0	
0.302167	-0.0182589	0.0127944	0.000200256	0.000845304	0	0	0	
0.302333	-0.000821457	0.00962878	0.000302315	0.000511407	0	0	0	
0.3025	0.0151183	-0.0219591	0.000390854	0.000323218	0	0	0	
0.302667	-0.00860752	0.0177551	0.000380788	0.000503216	0	0	0	
0.302833	0.00730085	0.00613181	0.000277489	0.00086718	0	0	0	
0.303	-0.00789171	-0.0195388	0.000191746	0.000938202	0	0	0	
0.303167	0.0090284	0.00232827	0.000214362	0.000641701	0	0	0	
0.303333	-0.00420914	0.0073238	0.000207171	0.000253467	0	0	0	
0.3035	0.00172355	-0.00910526	0.000213776	0.000124588	0	0	0	
0.303667	-0.00238512	0.0167281	0.000259231	0.000179478	0	0	0	
0.303833	0.00326593	-0.0100541	0.000357927	0.000266721	0	0	0	
0.304	0.000610975	-0.0309077	0.000358179	0.000381821	0	0	0	
0.304167	-0.00487234	0.0279806	0.000236338	0.000501236	0	0	0	
0.304333	0.011176	-0.00216714	0.00015694	0.000481068	0	0	0	
0.3045	-0.00575538	-0.0129932	0.000189788	0.000337183	0	0	0	
0.304667	-0.00212868	-0.0118986	0.000306464	0.000282294	0	0	0	
0.304833	-0.00543399	0.0493529	0.000274236	0.000422499	0	0	0	
0.305	-0.102251	-0.170471	0.000610458	0.000937922	0	0	0	
0.305167	0.00976877	0.0270344	0.00082626	0.00137346	0	0	0	
0.305333	-3.34344E-06	-0.00259471	0.000872237	0.001372	0	0	0	
0.3055	-0.00636828	0.0206549	0.000481629	0.00103006	0	0	0	
0.305667	0.00657992	-0.00731199	0.000169525	0.000590663	0	0	0	
0.305833	-0.0239971	-0.0496281	0.000246862	0.000791672	0	0	0	
0.306	0.0048687	0.0441996	0.000265635	0.00106181	0	0	0	
0.306167	0.00339455	-0.0447917	0.00038497	0.00118842	0	0	0	
0.306333	-0.00885015	0.0331595	0.000356925	0.00101017	0	0	0	
0.3065	0.0041258	-0.00770937	0.000365146	0.000805153	0	0	0	
0.306667	-0.00144363	-0.0179785	0.000311753	0.000804396	0	0	0	
0.306833	0.00523559	0.00414428	0.000334778	0.000695571	0	0	0	
0.307	-0.00686864	0.0131014	0.000370454	0.000466387	0	0	0	
0.307167	0.00274006	-0.0197254	0.000344342	0.000289121	0	0	0	
0.307333	0.00201753	0.00129391	0.000273445	0.000450144	0	0	0	
0.3075	-0.00241483	0.0266121	0.000222963	0.000786588	0	0	0	
0.307667	0.0101585	-0.027962	0.000219333	0.000963212	0	0	0	
0.307833	-0.009184	-0.00514719	0.000249843	0.00081466	0	0	0	
0.308	-0.00396757	0.0028249	0.000322477	0.000717025	0	0	0	
0.308167	0.00744288	0.0527838	0.000367766	0.00116531	0	0	0	
0.308333	-0.000761801	-0.101184	0.000324385	0.00207883	0	0	0	
0.3085	0.00774776	0.111008	0.000269365	0.00289033	0	0	0	
0.308667	-0.0184752	-0.0149244	0.00034826	0.002902	0	0	0	
0.308833	0.0174006	-0.00808266	0.000457952	0.00199201	0	0	0	
0.309	-0.00235642	0.0274152	0.000416862	0.000986224	0	0	0	
0.309167	-0.01167	-0.0619928	0.000250701	0.000550322	0	0	0	
0.309333	0.00426085	0.0872319	0.000188403	0.00108996	0	0	0	
0.3095	0.00353561	-0.0643847	0.000221815	0.00189553	0	0	0	
0.309667	0.0132331	0.0613228	0.000242219	0.00247037	0	0	0	
0.309833	-0.024482	0.0121137	0.000292818	0.00221838	0	0	0	
0.31	0.0115344	-0.0230587	0.000367601	0.001539	0	0	0	
0.310167	0.00383021	-0.0138815	0.000447247	0.00085176	0	0	0	
0.310333	-0.0104329	0.0256413	0.000374038	0.000691471	0	0	0	
0.3105	0.0129491	0.0045943	0.000287765	0.000821926	0	0	0	
0.310667	-0.00145924	-0.00953618	0.000223688	0.000969407	0	0	0	
0.310833	-0.00800568	0.0107399	0.000232243	0.000861276	0	0	0	
0.311	0.00432841	-0.00194619	0.000227252	0.000623453	0	0	0	
0.311167	-0.00593108	0.00148292	0.000188386	0.000445677	0	0	0	
0.311333	0.00368283	-0.0299385	0.000200064	0.000440785	0	0	0	
0.3115	0.0153572	0.0574031	0.000321907	0.000746394	0	0	0	
0.311667	-0.0232049	-0.0241025	0.0004493	0.000933	0	0	0	
0.311833	0.0139283	0.0113183	0.000449675	0.00093541	0	0	0	
0.312	0.0015337	-0.035794	0.000413103	0.000855577	0	0	0	
0.312167	-0.0116192	0.0644931	0.000302719	0.00103124	0	0	0	
0.312333	0.00696482	-0.0586493	0.000293226	0.00151011	0	0	0	
0.3125	0.00239907	0.0290124	0.000278101	0.00193981	0	0	0	
0.312667	-0.00128587	-0.0125634	0.000329076	0.0021175	0	0	0	
0.312833	0.00159869	0.0111092	0.000287039	0.00192029	0	0	0	
0.313	-0.00461628	-0.0128872	0.000210842	0.00139171	0	0	0	
0.313167	0.00224498	0.00968065	0.000186228	0.000812472	0	0	0	
0.313333	-0.00158601	0.00380482	0.000209002	0.000480389	0	0	0	
0.3135	0.00739076	-0.0151575	0.000235916	0.000537145	0	0	0	
0.313667	-0.00890054	0.014096	0.000230191	0.00082352	0	0	0	
0.313833	-0.000925153	0.00145612	0.00017942	0.00104107	0	0	0	
0.314	0.00547515	-0.00824918	0.00012848	0.00100325	0	0	0	
0.314167	0.00266591	0.00229842	0.000138837	0.000789254	0	0	0	
0.314333	-0.00969288	0.0197168	0.000187323	0.000657759	0	0	0	
0.3145	0.00950794	-0.0164753	0.000229302	0.000738214	0	0	0	
0.314667	-0.00816426	-0.00361646	0.000225065	0.00100868	0	0	0	
0.314833	0.000781462	0.0231423	0.000215842	0.00121445	0	0	0	
0.315	0.0029532	-0.0254512	0.000186791	0.00118676	0	0	0	
0.315167	0.000139414	0.0208035	0.000163397	0.000977256	0	0	0	
0.315333	-0.000317735	-0.00672092	0.000168438	0.000716063	0	0	0	
0.3155	0.00233181	0.00473649	0.000221735	0.000430684	0	0	0	
0.315667	-0.0113115	-0.0018078	0.000287727	0.000232643	0	0	0	
0.315833	0.0122273	0.00943206	0.000336351	0.000244897	0	0	0	
0.316	-0.00308034	-0.0127894	0.000293283	0.000406653	0	0	0	
0.316167	-0.00604327	0.00515012	0.000191658	0.000481175	0	0	0	
0.316333	0.0149823	0.00185131	0.000148062	0.000481262	0	0	0	
0.3165	-0.00270348	0.0391694	0.000181566	0.000638799	0	0	0	
0.316667	-0.012183	-0.0676147	0.000258897	0.00111671	0	0	0	
0.316833	0.00720483	0.0280979	0.000266565	0.00155579	0	0	0	
0.317	-0.00191116	-0.011687	0.000239521	0.00160391	0	0	0	
0.317167	0.00435947	0.0294025	0.000241767	0.00137567	0	0	0	
0.317333	-0.000151895	-0.0314884	0.000213225	0.00122745	0	0	0	
0.3175	-0.000525898	0.0235507	0.000171012	0.00130296	0	0	0	
0.317667	-0.0050205	-0.0179827	0.000104032	0.00154015	0	0	0	
0.317833	0.0097201	-0.00579271	0.000144728	0.00175145	0	0	0	
0.318	-0.00586803	0.00126057	0.000213545	0.00166344	0	0	0	
0.318167	0.00223544	-0.00871649	0.000234356	0.00124987	0	0	0	
0.318333	0.00183083	0.0191062	0.00019536	0.000915485	0	0	0	
0.3185	-0.00188113	-0.0196514	0.000172728	0.000950449	0	0	0	
0.318667	-0.00705113	0.00787856	0.000193328	0.00112408	0	0	0	
0.318833	0.00838767	0.0053905	0.000243507	0.00119723	0	0	0	
0.319	-0.00287692	-0.013764	0.000265114	0.00112752	0	0	0	
0.319167	0.000615441	0.00364142	0.000245063	0.000959589	0	0	0	
0.319333	0.000919314	9.15309E-05	0.000214132	0.000761607	0	0	0	
0.3195	0.00397353	0.0110009	0.000214577	0.000728832	0	0	0	
0.319667	-0.00751617	-0.0225061	0.000240655	0.000836473	0	0	0	
0.319833	0.000989103	0.0286106	0.000245808	0.000911335	0	0	0	
0.32	-0.0026757	-0.0185787	0.000245383	0.000830944	0	0	0	
0.320167	0.00471003	0.019323	0.000235721	0.000670242	0	0	0	
0.320333	-0.00960952	-0.0406552	0.000192602	0.00063214	0	0	0	
0.3205	0.00649685	0.0419553	0.000170374	0.000798198	0	0	0	
0.320667	0.00069204	-0.0245698	0.000158761	0.000959262	0	0	0	
0.320833	-0.0070124	0.0120196	0.000189733	0.000899035	0	0	0	
0.321	-0.00125401	-0.0155162	0.000224664	0.000674679	0	0	0	
0.321167	0.0110377	0.0303872	0.000309082	0.000620163	0	0	0	
0.321333	-0.0157678	-0.0341092	0.000354191	0.000797261	0	0	0	
0.3215	0.00939341	0.0129614	0.000351528	0.000976357	0	0	0	
0.321667	0.00169872	-0.0169701	0.000243375	0.000973686	0	0	0	
0.321833	0.000127404	0.0408417	0.000186239	0.000877293	0	0	0	
0.322	-0.00519115	-0.041567	0.000186274	0.000858768	0	0	0	
0.322167	0.00716767	0.0212521	0.000228958	0.00086376	0	0	0	
