0	4.417E-05	-0.00192156	4.417E-09	1.92156E-07	0	0	0	
0.000166667	-0.00637243	-0.00592278	5.96808E-05	9.18393E-05	0	0	0	
0.000333333	0.00896877	0.00643471	9.57313E-05	0.000160245	0	0	0	
0.0005	0.00199787	-0.000707189	0.000183708	0.000177512	0	0	0	
0.000666667	-0.0110288	-0.00149427	0.000194894	0.000101455	0	0	0	
0.000833333	0.00488155	-0.00162644	0.000217814	7.45114E-05	0	0	0	
0.001	0.0041588	-0.00113216	0.00021168	6.89008E-05	0	0	0	
0.00116667	-0.00373161	0.00849008	0.000182718	7.85522E-05	0	0	0	
0.00133333	0.00534925	-0.00685354	0.000165364	0.000108521	0	0	0	
0.0015	-0.00766894	-0.00155859	0.000129939	0.000136072	0	0	0	
0.00166667	0.00496824	-0.000979393	0.000146406	0.000118439	0	0	0	
0.00183333	0.00474542	0.00808233	0.000192561	8.75744E-05	0	0	0	
0.002	-0.0114716	-0.00597717	0.000196464	0.000103634	0	0	0	
0.00216667	0.00997651	0.00368199	0.000209431	0.000122657	0	0	0	
0.00233333	-0.00385434	-0.00131935	0.000190804	0.000108402	0	0	0	
0.0025	-0.00295302	0.00252923	0.000214406	7.12285E-05	0	0	0	
0.00266667	0.00729226	-0.00766257	0.000179384	7.8791E-05	0	0	0	
0.00283333	-0.00256664	0.00868924	0.000143423	0.000117903	0	0	0	
0.003	0.000390735	-0.00509984	8.48707E-05	0.00015075	0	0	0	
0.00316667	-0.000632206	0.005148	5.36606E-05	0.000149505	0	0	0	
0.00333333	-0.000692353	-0.00113215	5.79487E-05	0.000121232	0	0	0	
0.0035	0.00280445	-0.00271802	7.71582E-05	0.00011232	0	0	0	
0.00366667	-0.00243352	-0.00548912	8.95082E-05	0.00012634	0	0	0	
0.00383333	0.00333724	0.015193	7.72688E-05	0.000221866	0	0	0	
0.004	-0.00374676	-0.0184057	7.05681E-05	0.00032125	0	0	0	
0.00416667	0.0032883	0.0119664	7.7625E-05	0.000376717	0	0	0	
0.00433333	-0.000891399	0.000552274	9.51606E-05	0.00027971	0	0	0	
0.0045	0.00558945	-0.00157657	0.000156666	0.000156404	0	0	0	
0.00466667	-0.0123532	-0.00558763	0.000207668	0.000115001	0	0	0	
0.00483333	0.00909463	0.00472163	0.000232372	0.000162425	0	0	0	
0.005	0.00197526	-0.00665895	0.000248556	0.000219237	0	0	0	
0.00516667	-0.00999266	0.0104779	0.000260714	0.000240618	0	0	0	
0.00533333	0.00889843	-0.00825516	0.000241845	0.000217459	0	0	0	
0.0055	-0.00697741	0.00906624	0.00019914	0.000210431	0	0	0	
0.00566667	0.00147888	-0.0046166	0.000167718	0.000225439	0	0	0	
0.00583333	0.0203489	-0.0053271	0.000221423	0.000237735	0	0	0	
0.006	-0.0471319	0.00264364	0.000352234	0.00020524	0	0	0	
0.00616667	0.0449341	0.00365341	0.00067507	0.000164276	0	0	0	
0.00633333	-0.00985433	-0.0036701	0.00125969	0.000167236	0	0	0	
0.0065	-0.0368359	0.0197207	0.00179303	0.000226369	0	0	0	
0.00666667	0.0589197	-0.0205136	0.0018288	0.000341794	0	0	0	
0.00683333	-0.0371035	0.0102543	0.00141802	0.000344085	0	0	0	
0.007	-0.00664519	-0.00398465	0.00106435	0.000402312	0	0	0	
0.00716667	0.0490911	-0.00528471	0.00103294	0.000367844	0	0	0	
0.00733333	-0.0829833	0.00694039	0.00119871	0.000323055	0	0	0	
0.0075	0.0851022	0.00443682	0.00135206	0.000215027	0	0	0	
0.00766667	-0.0530046	0.00232009	0.00140411	0.000124537	0	0	0	
0.00783333	0.011785	0.00442562	0.00136354	0.000132463	0	0	0	
0.008	0.0127244	-0.0185802	0.00116632	0.00017354	0	0	0	
0.00816667	-0.0157631	0.00546035	0.000898524	0.000229248	0	0	0	
0.00833333	0.0156692	0.00331239	0.000614871	0.000269039	0	0	0	
0.0085	-0.0187052	0.00729343	0.00040128	0.000216712	0	0	0	
0.00866667	0.0121172	-0.0126411	0.000323997	0.000202473	0	0	0	
0.00883333	-0.00292023	0.0105393	0.000295073	0.000193036	0	0	0	
0.009	-0.00689406	-0.00643877	0.000320466	0.000223282	0	0	0	
0.00916667	0.0204178	0.00501027	0.000350003	0.000160307	0	0	0	
0.00933333	-0.0178577	-0.00880648	0.000376846	0.000139097	0	0	0	
0.0095	0.00332821	0.00788394	0.000345438	0.000133998	0	0	0	
0.00966667	0.00446542	-0.0030444	0.000322063	0.000145421	0	0	0	
0.00983333	-0.00411392	0.000917974	0.000239794	0.00012804	0	0	0	
0.01	0.0027761	-0.0038834	0.000159731	9.25725E-05	0	0	0	
0.0101667	-0.000785019	0.00493002	8.50296E-05	9.26719E-05	0	0	0	
0.0103333	0.00127157	-0.000175982	5.95575E-05	9.47796E-05	0	0	0	
0.0105	-0.00261062	0.000436692	5.69557E-05	8.4953E-05	0	0	0	
0.0106667	-0.00416328	-0.0065807	8.83748E-05	7.98713E-05	0	0	0	
0.0108333	0.0100254	0.00821434	0.000126507	0.000100279	0	0	0	
0.011	-0.00356927	-0.00712987	0.000144463	0.00013019	0	0	0	
0.0111667	-0.00208067	0.00711001	0.000145651	0.000149979	0	0	0	
0.0113333	-8.0311E-05	-0.00440511	0.000124923	0.000133853	0	0	0	
0.0115	0.00249759	0.00510117	9.35879E-05	0.000128177	0	0	0	
0.0116667	-0.0017694	-0.00406593	5.27831E-05	0.000124851	0	0	0	
0.0118333	-0.000605862	0.00336556	6.02214E-05	0.000136642	0	0	0	
0.012	0.00353445	-0.00285828	6.49194E-05	0.000135554	0	0	0	
0.0121667	-0.000783004	0.00797747	6.54455E-05	0.000130274	0	0	0	
0.0123333	0.000206417	-0.0099095	4.53065E-05	0.000134009	0	0	0	
0.0125	0.00195115	0.00393868	5.92995E-05	0.000159873	0	0	0	
0.0126667	-0.00566587	-0.000925657	8.35942E-05	0.000162671	0	0	0	
0.0128333	0.008026	0.00808743	0.000112988	0.00014324	0	0	0	
0.013	-0.00398046	-0.00804865	0.000131008	0.000133586	0	0	0	
0.0131667	0.00132557	0.00321498	0.000146805	0.00013773	0	0	0	
0.0133333	-8.23062E-05	-0.00388093	0.000140987	0.000127706	0	0	0	
0.0135	-0.00157748	0.0118892	0.000114819	0.000137568	0	0	0	
0.0136667	0.00147095	-0.0116508	8.03324E-05	0.000156846	0	0	0	
0.0138333	-0.000344429	0.00764983	5.04677E-05	0.000210138	0	0	0	
0.014	-5.1989E-05	-0.00813367	4.60743E-05	0.000202756	0	0	0	
0.0141667	0.000454365	0.0139912	2.91868E-05	0.000202024	0	0	0	
0.0143333	0.00216521	-0.0056189	2.96771E-05	0.000210335	0	0	0	
0.0145	0.00137284	-0.00599208	3.42667E-05	0.000236534	0	0	0	
0.0146667	-0.0055196	-0.00139231	7.80237E-05	0.000192494	0	0	0	
0.0148333	0.00362374	0.0132004	9.87881E-05	0.000179013	0	0	0	
0.015	0.000689242	-0.00576777	0.000105234	0.00015663	0	0	0	
0.0151667	-0.0019811	-0.00237652	7.85638E-05	0.000163756	0	0	0	
0.0153333	-0.000469589	-0.00319925	6.7987E-05	0.000159398	0	0	0	
0.0155	0.00435302	0.0161633	6.48303E-05	0.000215734	0	0	0	
0.0156667	-0.00378197	-0.0144731	6.83667E-05	0.000282693	0	0	0	
0.0158333	-0.000543178	-0.00162162	0.000103416	0.000266553	0	0	0	
0.016	0.00162076	-0.00426247	8.22284E-05	0.000228066	0	0	0	
0.0161667	0.00447312	0.0250002	0.000103567	0.000251421	0	0	0	
0.0163333	-0.00147997	-0.0175138	9.32371E-05	0.000332685	0	0	0	
0.0165	-0.0118842	-0.010214	0.000202475	0.000420685	0	0	0	
0.0166667	0.00907906	0.00843857	0.000213328	0.000354779	0	0	0	
0.0168333	0.00686786	0.0165418	0.000282864	0.000391736	0	0	0	
0.017	-0.0070006	-0.014988	0.00020221	0.000304629	0	0	0	
0.0171667	-0.00803752	-0.00582544	0.000232456	0.000386339	0	0	0	
0.0173333	0.00523523	0.00607581	0.000164482	0.000246838	0	0	0	
0.0175	0.0133312	0.0157811	0.000237297	0.000320693	0	0	0	
0.0176667	-0.0168794	-0.0144085	0.000242712	0.000275074	0	0	0	
0.0178333	0.0015297	-0.0052977	0.00030101	0.000344759	0	0	0	
0.018	0.00653848	0.00356286	0.000269952	0.000216327	0	0	0	
0.0181667	0.00191748	0.0121507	0.000226789	0.000249012	0	0	0	
0.0183333	-0.00983971	-0.0138149	0.000175596	0.00020928	0	0	0	
0.0185	-0.00147169	0.00472277	0.000183491	0.000284771	0	0	0	
0.0186667	0.010612	-0.000958013	0.000224755	0.000197425	0	0	0	
0.0188333	-0.00267122	0.00968211	0.000232902	0.000212765	0	0	0	
0.019	-0.00644617	-0.0155069	0.000233633	0.000189425	0	0	0	
0.0191667	0.0027202	0.00574657	0.000165622	0.000227008	0	0	0	
0.0193333	0.00111219	-0.0056244	0.000138456	0.000177439	0	0	0	
0.0195	-0.000143167	0.00914018	9.11868E-05	0.000159811	0	0	0	
0.0196667	-0.00635995	-0.00506475	0.000125574	0.000134783	0	0	0	
0.0198333	0.00940208	0.00373123	0.000142226	0.000136423	0	0	0	
0.02	-0.00483708	-0.00118715	0.000150761	0.000137759	0	0	0	
0.0201667	0.000648247	-0.00576301	0.000123921	0.000132723	0	0	0	
0.0203333	-0.00127527	0.00255199	9.6257E-05	0.000140906	0	0	0	
0.0205	-0.00218866	0.00379444	5.88229E-05	0.000128887	0	0	0	
0.0206667	0.00226921	-0.00690082	5.1874E-05	0.000132817	0	0	0	
0.0208333	0.000223177	0.0109471	3.90503E-05	0.000179121	0	0	0	
0.021	-0.000624187	-0.0153922	4.55514E-05	0.000211645	0	0	0	
0.0211667	-0.00102071	0.0123738	4.66185E-05	0.000249241	0	0	0	
0.0213333	-0.000767489	-0.00362273	5.77835E-05	0.000238291	0	0	0	
0.0215	0.0023858	-0.00160741	5.59153E-05	0.000179801	0	0	0	
0.0216667	-0.000733737	-0.00502519	4.46758E-05	0.000148026	0	0	0	
0.0218333	-0.00468975	0.0059152	3.86946E-05	0.000117805	0	0	0	
0.022	0.00795947	0.0028492	7.23605E-05	0.000145443	0	0	0	
0.0221667	-0.00111044	-0.00493727	0.000128197	0.000124405	0	0	0	
0.0223333	-0.0103487	0.000484082	0.000200953	0.000134088	0	0	0	
0.0225	0.00993621	-0.000570933	0.000214486	0.000160298	0	0	0	
0.0226667	-0.00126646	-0.00217456	0.000213794	0.00016414	0	0	0	
0.0228333	-0.00612142	0.00776096	0.00019004	0.000158628	0	0	0	
0.023	0.00569639	-0.00958132	0.000170688	0.000153826	0	0	0	
0.0231667	0.00100521	0.0107262	0.000120602	0.000179249	0	0	0	
0.0233333	0.000688895	-0.00567809	7.31718E-05	0.00019032	0	0	0	
0.0235	-0.00605257	-0.00142406	5.65389E-05	0.000140766	0	0	0	
0.0236667	0.00261984	-0.00216656	6.5322E-05	0.000102256	0	0	0	
0.0238333	0.00285708	0.00723112	9.70539E-05	8.31995E-05	0	0	0	
0.024	-0.000859971	-0.00428305	8.5595E-05	9.66906E-05	0	0	0	
0.0241667	-0.00335998	0.00070014	7.0525E-05	0.000100159	0	0	0	
0.0243333	-0.000979106	-0.00130939	5.98857E-05	7.67965E-05	0	0	0	
0.0245	0.00662468	-0.000136374	8.92797E-05	7.4116E-05	0	0	0	
0.0246667	-0.00274929	-0.00153585	0.000110532	7.88359E-05	0	0	0	
0.0248333	-0.00205778	0.00662673	9.1213E-05	8.64304E-05	0	0	0	
0.025	0.00299093	-0.00670646	6.13476E-05	0.000107179	0	0	0	
0.0251667	-0.00181507	0.00323411	5.79657E-05	0.000101896	0	0	0	
0.0253333	-0.00394002	-0.00273728	0.000113199	0.000102921	0	0	0	
0.0255	0.00849875	0.00343964	0.000165695	6.77331E-05	0	0	0	
0.0256667	-0.00326425	-0.00305329	0.000169115	5.83865E-05	0	0	0	
0.0258333	-0.00459205	0.00205871	0.000156959	6.54979E-05	0	0	0	
0.026	0.00575066	0.0024987	0.000122486	6.02934E-05	0	0	0	
0.0261667	-0.00184556	0.00172868	0.000120618	8.48163E-05	0	0	0	
0.0263333	0.00142225	-0.00908356	8.4519E-05	0.000106293	0	0	0	
0.0265	-0.0023589	0.00780271	6.93834E-05	0.000144194	0	0	0	
0.0266667	0.000458178	-0.00309676	5.06379E-05	0.000138852	0	0	0	
0.0268333	0.00113251	0.00663827	4.61739E-05	0.00011468	0	0	0	
0.027	0.00160858	-0.00890419	4.95802E-05	0.000112011	0	0	0	
0.0271667	0.00112885	0.00538925	5.11356E-05	0.00011921	0	0	0	
0.0273333	-0.00352071	-0.00158584	5.27219E-05	0.000122825	0	0	0	
0.0275	0.00304043	0.00262422	5.49281E-05	9.49076E-05	0	0	0	
0.0276667	-0.00164522	-0.00649868	5.88786E-05	8.76668E-05	0	0	0	
0.0278333	-0.0017846	0.00477928	6.22398E-05	8.59763E-05	0	0	0	
0.028	0.00319676	-0.000550278	6.91047E-05	8.48769E-05	0	0	0	
0.0281667	-0.00218241	0.00162988	6.74734E-05	6.27021E-05	0	0	0	
0.0283333	0.000615786	-0.00379773	6.08801E-05	7.67395E-05	0	0	0	
0.0285	0.000350076	0.00429807	5.21828E-05	0.000119247	0	0	0	
0.0286667	-0.00328831	-0.00363859	5.54426E-05	0.000172739	0	0	0	
0.0288333	0.00344349	0.00935889	6.8658E-05	0.000203571	0	0	0	
0.029	-0.00242268	-0.0118833	6.01514E-05	0.000219148	0	0	0	
0.0291667	0.000531175	0.00618876	6.00611E-05	0.000204689	0	0	0	
0.0293333	0.000732872	-0.000491104	3.95312E-05	0.000156419	0	0	0	
0.0295	0.0023759	0.00431907	4.70188E-05	0.000133865	0	0	0	
0.0296667	-0.00302791	-0.00663348	4.95162E-05	0.000129294	0	0	0	
0.0298333	-0.00208226	0.00303224	5.38609E-05	0.000131617	0	0	0	
0.03	0.00237219	-0.00347238	6.41092E-05	0.000104916	0	0	0	
0.0301667	0.00241291	0.00344942	5.8373E-05	9.472E-05	0	0	0	
0.0303333	-0.00169878	-0.00155978	5.68624E-05	7.65131E-05	0	0	0	
0.0305	-0.00040345	-0.00131462	4.30652E-05	8.7513E-05	0	0	0	
0.0306667	0.00179305	0.00504701	3.1908E-05	7.64677E-05	0	0	0	
0.0308333	-0.00262434	0.00204204	5.00166E-05	0.000114721	0	0	0	
0.031	0.000742629	-0.00712417	7.06604E-05	0.000141557	0	0	0	
0.0311667	0.00179116	0.00231795	7.40623E-05	0.000178444	0	0	0	
0.0313333	0.000152821	-0.00201401	5.7284E-05	0.000158299	0	0	0	
0.0315	-0.0037306	0.00712837	4.76417E-05	0.000131045	0	0	0	
0.0316667	-0.000794366	-0.00411957	8.12161E-05	9.72562E-05	0	0	0	
0.0318333	0.00510613	0.00533607	8.73969E-05	0.00010276	0	0	0	
0.032	-0.00265086	-0.000129951	9.32386E-05	9.25858E-05	0	0	0	
0.0321667	-0.00145476	-0.00426395	8.39084E-05	8.54892E-05	0	0	0	
0.0323333	0.00432447	-0.000495334	8.50331E-05	6.60033E-05	0	0	0	
0.0325	5.66513E-05	0.00577647	7.75423E-05	5.86033E-05	0	0	0	
0.0326667	-0.00352794	-0.00400764	6.87835E-05	6.92892E-05	0	0	0	
0.0328333	-0.00402771	-0.000561634	0.000111659	8.1187E-05	0	0	0	
0.033	0.0119098	-0.000377167	0.000139599	8.03942E-05	0	0	0	
0.0331667	-0.00633199	0.0106738	0.000193525	0.000119146	0	0	0	
0.0333333	-0.0106102	-0.0173266	0.000221272	0.000191004	0	0	0	
0.0335	0.0164652	0.0104301	0.000253705	0.000249032	0	0	0	
0.0336667	-0.00552538	0.00420825	0.000349964	0.000258915	0	0	0	
0.0338333	-0.00658356	-0.0111784	0.000451513	0.000207858	0	0	0	
0.034	0.0193297	0.00262666	0.000536601	0.000210142	0	0	0	
0.0341667	-0.0355086	0.00371625	0.000565032	0.000222058	0	0	0	
0.0343333	0.0375032	-0.000637075	0.000581825	0.000204806	0	0	0	
0.0345	-0.0132224	0.00124005	0.000716311	0.000139204	0	0	0	
0.0346667	-0.0331939	-0.0102774	0.000930418	0.000106138	0	0	0	
0.0348333	0.0553053	0.0146659	0.00102752	0.000151209	0	0	0	
0.035	-0.0317388	0.00744853	0.00099642	0.000299939	0	0	0	
0.0351667	-0.00284496	-0.0221316	0.000898674	0.000323235	0	0	0	
0.0353333	0.014536	0.00112598	0.000792955	0.00039803	0	0	0	
0.0355	-0.0120132	0.0161633	0.000626553	0.000366366	0	0	0	
0.0356667	0.0166317	-0.00565109	0.000442488	0.000343027	0	0	0	
0.0358333	-0.0255235	0.00207862	0.000375831	0.00021676	0	0	0	
0.036	0.0127005	-0.00441128	0.000406582	0.00015818	0	0	0	
0.0361667	0.00619197	0.00407773	0.000440375	0.000146924	0	0	0	
0.0363333	-0.00505336	0.000986588	0.000371107	0.000132392	0	0	0	
0.0365	-0.00221314	-0.00453718	0.000250251	9.14721E-05	0	0	0	
0.0366667	-0.00394813	-0.0019326	0.00014997	7.47832E-05	0	0	0	
0.0368333	0.0120902	0.00358132	0.000157612	9.74259E-05	0	0	0	
0.037	-0.00716779	-0.000673935	0.000203104	8.50961E-05	0	0	0	
0.0371667	-0.00560757	-0.00121974	0.000232833	5.56287E-05	0	0	0	
0.0373333	0.00639764	0.000489888	0.000213022	4.4491E-05	0	0	0	
0.0375	-0.00127754	-0.002143	0.00019186	8.54866E-05	0	0	0	
0.0376667	-0.00645228	-0.00259638	0.000153507	0.000145315	0	0	0	
0.0378333	0.00718484	0.00501197	0.000138709	0.000193637	0	0	0	
0.038	-0.0012886	-0.00596006	0.000139594	0.000194838	0	0	0	
0.0381667	-0.00573883	0.00457877	0.000129344	0.000172665	0	0	0	
0.0383333	0.00242082	-0.00128843	0.000115701	0.00014182	0	0	0	
0.0385	0.00327742	0.0013183	0.000117631	0.000147998	0	0	0	
0.0386667	-0.00361657	-0.00412411	0.000107237	0.000152914	0	0	0	
0.0388333	-0.000582607	0.00656779	9.71341E-05	0.000155421	0	0	0	
0.039	-0.00206698	-0.00900275	5.98404E-05	0.000162542	0	0	0	
0.0391667	0.00633676	0.00577808	4.97511E-05	0.000190681	0	0	0	
0.0393333	-0.0068228	0.00241132	7.78926E-05	0.000189179	0	0	0	
0.0395	0.00744249	-0.0015818	0.000128059	0.0001709	0	0	0	
0.0396667	-0.00471649	-0.00892327	0.000132992	0.000190343	0	0	0	
0.0398333	0.000126729	0.0122768	0.000143157	0.000235097	0	0	0	
0.04	0.00365628	-0.00373508	0.000140701	0.000226392	0	0	0	
0.0401667	-0.00247238	-0.00358286	0.000120885	0.000154013	0	0	0	
0.0403333	0.000532793	0.00318225	0.000113163	0.000109269	0	0	0	
0.0405	0.000897042	0.000218471	9.99423E-05	8.42169E-05	0	0	0	
0.0406667	-0.00057956	-0.00466336	0.000115307	9.88514E-05	0	0	0	
0.0408333	0.00413137	0.00300502	8.61166E-05	0.000121565	0	0	0	
0.041	-0.0025688	-0.0042558	7.0986E-05	0.000134117	0	0	0	
0.0411667	0.00108358	0.00602398	5.35018E-05	0.000142276	0	0	0	
0.0413333	-0.000814572	-0.00353697	4.35373E-05	0.000126085	0	0	0	
0.0415	0.00171161	0.000257654	3.2974E-05	0.000101786	0	0	0	
0.0416667	-0.00320947	0.00463392	4.98927E-05	0.00010005	0	0	0	
0.0418333	0.00773846	-0.000544921	8.44494E-05	0.000180995	0	0	0	
0.042	-0.00494265	-0.00911298	0.000107667	0.000261178	0	0	0	
0.0421667	-0.00225883	0.00471892	0.000123936	0.000263898	0	0	0	
0.0423333	0.00695508	0.00010982	0.00012108	0.000174186	0	0	0	
0.0425	-0.00164557	0.00501684	0.000105264	0.000137738	0	0	0	
0.0426667	-0.000462911	-0.00426642	8.8339E-05	0.000144362	0	0	0	
0.0428333	-0.00283787	0.00143299	7.09262E-05	0.000135856	0	0	0	
0.043	0.00420061	-0.00311673	7.83808E-05	9.6396E-05	0	0	0	
0.0431667	-0.00186115	0.00140818	9.04131E-05	6.38089E-05	0	0	0	
0.0433333	-0.00114073	0.00111359	0.000105115	6.15046E-05	0	0	0	
0.0435	0.00448614	0.00134145	8.87553E-05	5.80318E-05	0	0	0	
0.0436667	-0.00184517	0.00566457	7.40035E-05	5.1618E-05	0	0	0	
0.0438333	-0.00198093	-0.0112008	4.65632E-05	8.6938E-05	0	0	0	
0.044	-0.00138863	0.00398283	4.19754E-05	0.000169522	0	0	0	
0.0441667	0.000258961	2.67183E-06	2.79421E-05	0.000269533	0	0	0	
0.0443333	0.00206504	-0.000762591	5.26408E-05	0.000302625	0	0	0	
0.0445	-0.00373711	0.00238194	5.98437E-05	0.000281649	0	0	0	
0.0446667	0.000600624	-0.00157481	8.07951E-05	0.000246312	0	0	0	
0.0448333	0.00109016	0.00483169	8.4086E-05	0.000229546	0	0	0	
0.045	-0.000424857	-0.00526321	7.58862E-05	0.000197901	0	0	0	
0.0451667	-0.00042794	-0.00170846	5.10215E-05	0.000135014	0	0	0	
0.0453333	-0.00172384	0.00438513	3.41273E-05	7.98096E-05	0	0	0	
0.0455	0.00221534	2.37207E-05	4.05109E-05	8.01047E-05	0	0	0	
0.0456667	0.000615007	0.000492432	4.78677E-05	8.2119E-05	0	0	0	
0.0458333	-0.00298625	-0.00589639	3.87822E-05	7.3861E-05	0	0	0	
0.046	-0.000314692	0.00417351	5.45485E-05	8.79884E-05	0	0	0	
0.0461667	0.00350313	0.00519355	6.9947E-05	0.000141946	0	0	0	
0.0463333	-0.00174268	-0.00507214	6.94704E-05	0.000166174	0	0	0	
0.0465	0.000274708	-0.00248118	5.3932E-05	0.000124672	0	0	0	
0.0466667	0.00135875	0.00285138	3.19155E-05	7.78964E-05	0	0	0	
0.0468333	-0.00421804	-0.000296943	5.04315E-05	8.62018E-05	0	0	0	
0.047	0.00176379	0.00441227	5.55476E-05	0.000112709	0	0	0	
0.0471667	-0.00046542	-0.00159005	6.96101E-05	0.000120147	0	0	0	
0.0473333	-0.000659274	-0.00407748	7.8965E-05	0.000145136	0	0	0	
0.0475	0.00409172	0.0046964	9.58711E-05	0.000188752	0	0	0	
0.0476667	-0.00340147	-0.00398149	0.000112971	0.000199662	0	0	0	
0.0478333	0.00215504	0.00156157	8.62302E-05	0.000143563	0	0	0	
0.048	-0.00112285	0.000925298	8.1563E-05	8.04777E-05	0	0	0	
0.0481667	-0.00420204	0.00220872	7.37083E-05	7.08386E-05	0	0	0	
0.0483333	0.00586659	-0.00045723	9.82334E-05	6.90864E-05	0	0	0	
0.0485	-0.00277557	-0.00542039	0.000100809	5.91501E-05	0	0	0	
0.0486667	0.000727516	0.00427716	9.62276E-05	7.04254E-05	0	0	0	
0.0488333	0.000333958	0.00332921	8.87476E-05	0.000143747	0	0	0	
0.049	-0.00326262	-0.00690154	8.90342E-05	0.000216633	0	0	0	
0.0491667	0.00138856	0.00353674	7.94115E-05	0.000233467	0	0	0	
0.0493333	0.000228293	-0.0047646	6.01165E-05	0.000186061	0	0	0	
0.0495	0.00180206	0.00719216	4.28194E-05	0.000144248	0	0	0	
0.0496667	-0.00481661	-0.00308017	4.3909E-05	0.000114192	0	0	0	
0.0498333	0.00085668	-0.00684776	7.96635E-05	0.000121032	0	0	0	
0.05	0.00261616	0.00877308	0.000105703	0.00012165	0	0	0	
0.0501667	-0.00194337	-0.00443446	0.000124911	0.000160435	0	0	0	
0.0503333	0.00664812	-0.00252486	0.000139089	0.000174058	0	0	0	
0.0505	-0.0158247	0.00598472	0.00016226	0.000167328	0	0	0	
0.0506667	0.0117186	-0.000447624	0.000215171	0.000149304	0	0	0	
0.0508333	0.00142655	-0.0032098	0.000252297	9.73589E-05	0	0	0	
0.051	-0.0139361	-0.00493031	0.000295013	0.00011606	0	0	0	
0.0511667	0.0210065	0.00892189	0.000313625	0.000107283	0	0	0	
0.0513333	-0.00952931	0.00636436	0.000328539	0.00015969	0	0	0	
0.0515	-0.00747591	-0.00899798	0.00032389	0.000149926	0	0	0	
0.0516667	0.00202037	-0.00270224	0.000246809	0.000243939	0	0	0	
0.0518333	0.00915291	0.0074311	0.000163493	0.000309565	0	0	0	
0.052	0.00679787	0.00483997	0.000144764	0.000286098	0	0	0	
0.0521667	-0.0153811	-0.0086523	0.000182934	0.000227845	0	0	0	
0.0523333	-0.00261286	-0.00884854	0.00027318	0.00034023	0	0	0	
0.0525	0.0108695	0.023867	0.000253934	0.000486374	0	0	0	
0.0526667	0.0077564	-0.00642116	0.000285635	0.000512914	0	0	0	
0.0528333	-0.0171064	-0.0144662	0.000261169	0.000385384	0	0	0	
0.053	0.00383854	0.00883891	0.000305706	0.000290424	0	0	0	
0.0531667	0.0163625	0.00105895	0.000341222	0.000244253	0	0	0	
0.0533333	-0.00916096	0.010664	0.000321702	0.000199727	0	0	0	
0.0535	-0.00638018	-0.0215473	0.000320124	0.000235014	0	0	0	
0.0536667	0.00482891	0.0103922	0.000206086	0.000284165	0	0	0	
0.0538333	0.00852243	-0.00379034	0.000215231	0.000306464	0	0	0	
0.054	-0.00957213	0.0134569	0.000158111	0.000251382	0	0	0	
0.0541667	0.00157247	-0.0144867	0.000192848	0.000237064	0	0	0	
0.0543333	0.00170251	0.00521879	0.000119807	0.0002668	0	0	0	
0.0545	0.00235779	0.000161924	7.71178E-05	0.000309901	0	0	0	
0.0546667	0.00869907	0.00416866	4.10595E-05	0.000264047	0	0	0	
0.0548333	-0.0209887	-0.00542009	0.000143895	0.000196128	0	0	0	
0.055	0.0261777	0.0035793	0.000282287	0.000142066	0	0	0	
0.0551667	-0.0285225	-0.00188742	0.000429104	0.00011593	0	0	0	
0.0553333	0.0200559	0.00126132	0.000484113	7.24609E-05	0	0	0	
0.0555	-0.00736238	0.00239202	0.000484267	3.95973E-05	0	0	0	
0.0556667	0.00121155	-0.00093966	0.000454556	2.87377E-05	0	0	0	
0.0558333	0.0118166	-0.000193904	0.000397058	5.61983E-05	0	0	0	
0.056	-0.0272123	0.00362027	0.000364279	9.64638E-05	0	0	0	
0.0561667	0.0222308	-0.00487986	0.000406601	0.000111302	0	0	0	
0.0563333	-0.00557237	0.002784	0.000543534	0.000116436	0	0	0	
0.0565	-0.0114695	0.00289764	0.000676646	0.000107914	0	0	0	
0.0566667	0.0215559	-0.00393762	0.000671863	0.000111167	0	0	0	
0.0568333	-0.022355	-0.00191167	0.000558834	0.000127313	0	0	0	
0.057	0.0118748	0.00700346	0.000419891	0.000106383	0	0	0	
0.0571667	0.00198499	-0.0051755	0.000389165	0.000172027	0	0	0	
0.0573333	-0.00925464	-0.00307211	0.000352092	0.00022993	0	0	0	
0.0575	0.00141991	0.00637125	0.000270257	0.000272499	0	0	0	
0.0576667	0.00668016	-0.00894508	0.000146331	0.000242527	0	0	0	
0.0578333	0.00219312	0.00444133	0.000152976	0.000214035	0	0	0	
0.058	-0.0172512	-0.00452962	0.000263595	0.000231694	0	0	0	
0.0581667	0.0172654	0.000475032	0.000356712	0.000209583	0	0	0	
0.0583333	-0.00558128	0.00234058	0.000329051	0.000155237	0	0	0	
0.0585	-0.0031238	0.00403851	0.000247922	0.000164047	0	0	0	
0.0586667	0.00389985	-0.0123949	0.000151179	0.000223251	0	0	0	
0.0588333	-0.00295172	0.00332969	0.000103157	0.000229156	0	0	0	
0.059	0.00378678	0.00554849	7.42533E-05	0.000222953	0	0	0	
0.0591667	-0.00248071	-0.0099883	7.7475E-05	0.000158911	0	0	0	
0.0593333	-0.00146262	0.00538015	8.43626E-05	0.000178758	0	0	0	
0.0595	-0.000444485	-0.00692862	6.82839E-05	0.000144143	0	0	0	
0.0596667	0.00440833	0.00762159	7.61091E-05	0.000166848	0	0	0	
0.0598333	-0.00552985	0.00092077	7.55115E-05	0.000163806	0	0	0	
0.06	0.0018403	-0.00360888	9.97413E-05	0.000142008	0	0	0	
0.0601667	0.00111055	-0.00383166	0.000103526	9.72464E-05	0	0	0	
0.0603333	-0.000175173	0.00439819	8.19474E-05	7.30762E-05	0	0	0	
0.0605	-0.0022758	-0.00766704	6.85535E-05	8.32325E-05	0	0	0	
0.0606667	0.00379042	0.0113966	5.08593E-05	0.000129008	0	0	0	
0.0608333	-0.00202386	-0.0070175	7.42508E-05	0.000165074	0	0	0	
0.061	-0.000891148	0.00255247	7.73531E-05	0.000180584	0	0	0	
0.0611667	0.00147976	-0.00488197	6.99118E-05	0.00015592	0	0	0	
0.0613333	-0.000142822	0.00419644	5.2522E-05	0.000122154	0	0	0	
0.0615	-0.00203812	-0.0063838	4.51253E-05	0.000102229	0	0	0	
0.0616667	0.00524492	0.00807477	5.47155E-05	0.000107902	0	0	0	
0.0618333	-0.00359808	-0.00710341	7.0213E-05	0.000133209	0	0	0	
0.062	0.000214943	0.00460749	7.18994E-05	0.000126616	0	0	0	
0.0621667	0.00122753	-0.00841561	6.71933E-05	0.000129918	0	0	0	
0.0623333	0.00171053	0.0097665	4.09271E-05	0.000138162	0	0	0	
0.0625	-0.00406155	-0.0130663	4.16932E-05	0.000167943	0	0	0	
0.0626667	-0.00041696	0.013928	5.41021E-05	0.00021638	0	0	0	
0.0628333	0.000707025	-0.0112578	6.66958E-05	0.000234095	0	0	0	
0.063	0.000386826	0.00795778	5.09634E-05	0.000250796	0	0	0	
0.0631667	-0.000164534	-0.00554963	2.94151E-05	0.000226158	0	0	0	
0.0633333	-0.00104022	0.00313077	2.88665E-05	0.000178837	0	0	0	
0.0635	-0.000206795	-0.00658452	2.52452E-05	0.000156747	0	0	0	
0.0636667	0.000883114	0.00568604	2.59657E-05	0.00015364	0	0	0	
0.0638333	-0.0017554	-0.00104783	4.01467E-05	0.000172699	0	0	0	
0.064	-0.00289917	-0.000812702	5.16123E-05	0.000181091	0	0	0	
0.0641667	0.000983336	-0.00036786	7.61102E-05	0.000175354	0	0	0	
0.0643333	0.00331873	-0.000736181	6.24098E-05	0.000180905	0	0	0	
0.0645	-0.00207424	-0.00115789	6.53151E-05	0.000170483	0	0	0	
0.0646667	0.00143136	0.00139243	5.9763E-05	0.000135366	0	0	0	
0.0648333	-0.000281996	-0.00475174	6.76276E-05	0.000110125	0	0	0	
0.065	-0.00201876	0.00833156	7.26117E-05	0.000129096	0	0	0	
0.0651667	0.000825423	-0.00923672	6.47355E-05	0.000181936	0	0	0	
0.0653333	-0.000488906	0.00752422	5.20805E-05	0.000211065	0	0	0	
0.0655	0.00220371	-0.00785565	4.47141E-05	0.000229529	0	0	0	
0.0656667	0.00191003	0.00474196	3.97808E-05	0.000240694	0	0	0	
0.0658333	-0.00448996	-0.00207556	4.73296E-05	0.000257627	0	0	0	
0.066	-9.45006E-05	0.00232333	6.87089E-05	0.000260252	0	0	0	
0.0661667	0.00134111	-0.000352719	8.39071E-05	0.000252199	0	0	0	
0.0663333	0.00377553	-0.00122511	7.74922E-05	0.000208157	0	0	0	
0.0665	-0.00463431	-0.0047505	7.0219E-05	0.000142225	0	0	0	
0.0666667	-0.00318403	0.00148372	0.000100339	0.000116261	0	0	0	
0.0668333	0.00574425	0.00514427	0.000114712	0.000165799	0	0	0	
0.067	-0.000679203	0.00218436	0.000118564	0.000183324	0	0	0	
0.0671667	-0.00338967	-0.00949469	7.91316E-05	0.000169557	0	0	0	
0.0673333	0.00223135	0.00168652	7.37385E-05	0.000125382	0	0	0	
0.0675	-0.000491926	0.000487816	5.58915E-05	0.000115343	0	0	0	
0.0676667	0.00253625	0.005956	4.91007E-05	0.00010178	0	0	0	
0.0678333	-0.00365144	-0.0116801	4.73494E-05	0.00011458	0	0	0	
0.068	0.00136557	0.00570955	5.86051E-05	0.000174427	0	0	0	
0.0681667	-0.00189194	-0.00425876	7.3939E-05	0.000190378	0	0	0	
0.0683333	0.00163279	0.0127888	7.06767E-05	0.000185445	0	0	0	
0.0685	0.000818919	-0.00677989	6.83476E-05	0.000204192	0	0	0	
0.0686667	-0.00290286	-0.00723248	5.52303E-05	0.0002737	0	0	0	
0.0688333	-0.0019793	-0.00436353	7.46944E-05	0.000246671	0	0	0	
0.069	0.00867072	0.0186223	9.22162E-05	0.000216819	0	0	0	
0.0691667	-0.00259856	-0.00963946	0.000127471	0.000217143	0	0	0	
0.0693333	-0.00815417	-0.00546272	0.000138924	0.00032066	0	0	0	
0.0695	-0.00220884	-0.00174918	0.000146609	0.000288305	0	0	0	
0.0696667	0.0108257	0.0199705	0.000169859	0.000255429	0	0	0	
0.0698333	-0.000586713	-0.00852648	0.000191298	0.000249138	0	0	0	
0.07	-0.011079	-0.0122696	0.000242954	0.000340499	0	0	0	
0.0701667	0.00302651	0.00029222	0.000229459	0.000319358	0	0	0	
0.0703333	0.0125063	0.0203139	0.000257435	0.000328735	0	0	0	
0.0705	-0.00745777	-0.0107316	0.000218375	0.000292237	0	0	0	
0.0706667	-0.00818526	-0.00844801	0.000266711	0.000379263	0	0	0	
0.0708333	0.00567228	-0.00135902	0.000202779	0.000291805	0	0	0	
0.071	0.0101724	0.0222812	0.000238563	0.000305923	0	0	0	
0.0711667	-0.00931171	-0.0154669	0.000185734	0.00029377	0	0	0	
0.0713333	-0.0112236	-0.00166861	0.000276387	0.000398567	0	0	0	
0.0715	0.0148038	-0.00372511	0.000254066	0.000312604	0	0	0	
0.0716667	0.00900209	0.0163099	0.000338655	0.000246597	0	0	0	
0.0718333	-0.0177126	-0.012938	0.000313208	0.00021325	0	0	0	
0.072	0.00336021	0.00447914	0.00031774	0.000294082	0	0	0	
0.0721667	0.00281355	-0.00703821	0.000282208	0.00027559	0	0	0	
0.0723333	-0.00468625	0.00805335	0.000228304	0.000222057	0	0	0	
0.0725	0.00293596	0.00161143	0.000181829	0.000156271	0	0	0	
0.0726667	-8.26271E-05	-0.00203641	9.34872E-05	0.000125796	0	0	0	
0.0728333	0.00127453	-0.00197824	4.8132E-05	9.83015E-05	0	0	0	
0.073	-0.00294563	0.00865564	3.32764E-05	0.000101205	0	0	0	
0.0731667	-0.00413956	-0.00744754	5.54939E-05	0.000135419	0	0	0	
0.0733333	0.00596884	0.00641489	9.04116E-05	0.000149402	0	0	0	
0.0735	-0.00100498	-0.00784629	0.000103868	0.000158222	0	0	0	
0.0736667	-0.00193359	0.0115868	0.000113554	0.000151735	0	0	0	
0.0738333	0.00183072	-0.00585339	8.86496E-05	0.00018603	0	0	0	
0.074	0.00115314	0.00364002	7.50439E-05	0.000175123	0	0	0	
0.0741667	-0.00375998	-0.00821276	5.86789E-05	0.000179354	0	0	0	
0.0743333	0.00505215	0.0136984	7.58755E-05	0.000161103	0	0	0	
0.0745	-0.0051393	-0.00657196	8.83356E-05	0.000185151	0	0	0	
0.0746667	0.00363822	0.00324057	9.40613E-05	0.000164096	0	0	0	
0.0748333	-0.00369021	-0.00540612	9.38728E-05	0.000144333	0	0	0	
0.075	0.00742765	0.0042862	0.000101925	0.000126275	0	0	0	
0.0751667	-0.00756042	-0.00747112	0.000114715	0.000128703	0	0	0	
0.0753333	-0.000417063	0.0066253	0.000150547	0.000130879	0	0	0	
0.0755	0.00889024	0.00159638	0.000174193	0.000107641	0	0	0	
0.0756667	-0.00957797	-0.00543003	0.000178679	9.56176E-05	0	0	0	
0.0758333	0.00214941	0.00429407	0.000186636	9.17952E-05	0	0	0	
0.076	0.0019615	-0.00226047	0.000186464	8.90162E-05	0	0	0	
0.0761667	-0.000952122	0.0031487	0.000148577	9.70706E-05	0	0	0	
0.0763333	-0.000389776	-0.000714806	9.14303E-05	8.80983E-05	0	0	0	
0.0765	-0.00592778	-0.00942952	8.56795E-05	0.000146999	0	0	0	
0.0766667	0.0113806	0.0114482	0.000122949	0.00017047	0	0	0	
0.0768333	-0.0032592	-0.00441011	0.000167388	0.000223366	0	0	0	
0.077	-0.000839412	0.00446108	0.000162722	0.000196778	0	0	0	
0.0771667	-0.000105096	-0.00990316	0.000127615	0.000193194	0	0	0	
0.0773333	0.00303305	0.00860649	9.66075E-05	0.000178515	0	0	0	
0.0775	0.000509447	0.00197333	8.92222E-05	0.000220828	0	0	0	
0.0776667	-0.00422366	-0.0019939	0.000110741	0.000216279	0	0	0	
0.0778333	0.00625213	-0.00651294	0.000108363	0.000173127	0	0	0	
0.078	-0.000607692	0.00386597	9.67338E-05	0.000107067	0	0	0	
0.0781667	-0.00467122	-0.00240854	9.83538E-05	9.782E-05	0	0	0	
0.0783333	0.00266254	0.00294315	9.28356E-05	8.84725E-05	0	0	0	
0.0785	0.00209644	-0.00610413	8.49293E-05	0.000104805	0	0	0	
0.0786667	0.000468924	0.0044076	8.5469E-05	0.000133086	0	0	0	
0.0788333	-0.0080681	-0.00118309	0.000111364	0.000149778	0	0	0	
0.079	0.00677303	0.00240227	0.000133526	0.000117965	0	0	0	
0.0791667	-0.00120998	-0.00823801	0.000141726	9.92643E-05	0	0	0	
0.0793333	-0.000517173	0.00484496	0.000111127	0.000119963	0	0	0	
0.0795	-0.000786809	-0.00471447	7.6309E-05	0.000136254	0	0	0	
0.0796667	-0.00403059	0.0047056	4.37584E-05	0.000134085	0	0	0	
0.0798333	0.0039181	-0.00292968	5.40497E-05	0.000109394	0	0	0	
0.08	0.000245754	0.00472772	6.22714E-05	9.75512E-05	0	0	0	
0.0801667	-0.000577014	-0.00729415	6.13405E-05	9.9637E-05	0	0	0	
0.0803333	-3.6447E-05	0.0051437	4.45712E-05	0.000114209	0	0	0	
0.0805	-0.00240644	-0.00550053	4.87553E-05	0.000128387	0	0	0	
0.0806667	0.00630385	0.00306442	6.34168E-05	0.000128034	0	0	0	
0.0808333	-0.00450118	-0.00240924	8.65227E-05	0.000127786	0	0	0	
0.081	0.00239408	0.00101983	9.85192E-05	0.000136986	0	0	0	
0.0811667	-0.00129573	0.00593341	0.000114488	0.00012975	0	0	0	
0.0813333	-0.000580017	-0.00250309	0.000106809	0.000124163	0	0	0	
0.0815	0.00487126	-0.00413345	8.62235E-05	9.97546E-05	0	0	0	
0.0816667	-0.00444817	-0.000752903	7.54688E-05	7.96381E-05	0	0	0	
0.0818333	0.00315441	0.000751771	7.75112E-05	6.26002E-05	0	0	0	
0.082	0.00248947	0.00514598	0.000113604	5.71946E-05	0	0	0	
0.0821667	-0.00524374	-0.00592351	0.000121721	8.14841E-05	0	0	0	
0.0823333	0.00464453	0.000837942	0.000131483	0.000107588	0	0	0	
0.0825	-0.00523623	3.92477E-05	0.000119905	0.000127462	0	0	0	
0.0826667	0.00779823	0.00454858	0.000112287	0.000106289	0	0	0	
0.0828333	-0.00434001	-0.00461333	0.000142918	8.45215E-05	0	0	0	
0.083	-0.00364368	0.0023043	0.000181759	0.000100339	0	0	0	
0.0831667	0.00546488	-0.00470403	0.000193822	0.000121896	0	0	0	
0.0833333	-0.0031222	0.00385947	0.000152671	0.000136715	0	0	0	
0.0835	-0.00300494	-0.00512836	9.47897E-05	0.000107586	0	0	0	
0.0836667	0.00239756	0.00613746	7.25212E-05	0.00012609	0	0	0	
0.0838333	0.00387057	-0.0012816	8.25439E-05	0.000141717	0	0	0	
0.084	-0.00749587	0.000670891	0.000148629	0.000179132	0	0	0	
0.0841667	0.00146486	-0.00217783	0.000199469	0.000159209	0	0	0	
0.0843333	0.00581991	0.00103259	0.000187742	0.000115792	0	0	0	
0.0845	-0.0227973	-0.00720583	0.000246611	9.12467E-05	0	0	0	
0.0846667	0.0282133	0.00542408	0.000396487	0.00010993	0	0	0	
0.0848333	-0.0225005	-0.00117269	0.000524298	0.000128114	0	0	0	
0.085	0.0169193	0.00934017	0.000504126	0.000146241	0	0	0	
0.0851667	-0.0105139	-0.0107726	0.000404817	0.000157931	0	0	0	
0.0853333	-0.00271404	0.00539104	0.000310859	0.000176453	0	0	0	
0.0855	0.00819208	-0.00722401	0.000234969	0.000169774	0	0	0	
0.0856667	-0.00638244	0.0077045	0.000266441	0.000169447	0	0	0	
0.0858333	-0.000818073	-0.000943665	0.000321774	0.000139311	0	0	0	
0.086	-0.00557844	-0.00297575	0.000287586	0.000148789	0	0	0	
0.0861667	0.013716	0.00438847	0.000195969	9.29398E-05	0	0	0	
0.0863333	-0.00636167	0.00614535	0.000160572	0.000135873	0	0	0	
0.0865	-0.0083202	-0.0141178	0.000241325	0.0001582	0	0	0	
0.0866667	0.0123334	0.00961188	0.00023753	0.000214866	0	0	0	
0.0868333	-0.00222501	0.000392917	0.000222578	0.000246112	0	0	0	
0.087	-0.00483641	-0.00425708	0.000139504	0.000248702	0	0	0	
0.0871667	-0.00501965	0.000383884	0.000157545	0.00020853	0	0	0	
0.0873333	0.00770559	0.00447766	0.000128675	0.000153699	0	0	0	
0.0875	0.00557477	0.00788609	0.000211759	0.000134044	0	0	0	
0.0876667	-0.00660377	-0.0131947	0.000159068	0.000158059	0	0	0	
0.0878333	-0.0073272	-0.00611271	0.000232946	0.00025825	0	0	0	
0.088	0.009282	0.0157481	0.000180754	0.000311811	0	0	0	
0.0881667	0.00443342	0.000739524	0.000255908	0.000321062	0	0	0	
0.0883333	-0.0090665	-0.00834137	0.000192864	0.000205451	0	0	0	
0.0885	-0.00387436	-0.0111573	0.000240573	0.000228971	0	0	0	
0.0886667	0.0149485	0.022183	0.000214157	0.000270484	0	0	0	
0.0888333	-0.00113506	-0.00581003	0.000259811	0.00036503	0	0	0	
0.089	-0.0159981	-0.00593832	0.000285327	0.000293021	0	0	0	
0.0891667	0.0096656	-0.00446479	0.000294258	0.000240422	0	0	0	
0.0893333	0.0091147	0.0100075	0.00033619	0.000162221	0	0	0	
0.0895	-0.00975097	0.00112387	0.000271011	0.000148928	0	0	0	
0.0896667	0.000221897	-0.00334355	0.000247946	0.000119799	0	0	0	
0.0898333	0.00332982	-0.00275112	0.000122934	0.000113513	0	0	0	
0.09	0.00156778	0.00763798	9.68941E-05	0.000128368	0	0	0	
0.0901667	-0.00413035	-0.0143003	5.6162E-05	0.000186971	0	0	0	
0.0903333	0.00194458	0.0215173	9.36863E-05	0.000258218	0	0	0	
0.0905	0.00434812	-0.0116658	9.8382E-05	0.000326568	0	0	0	
0.0906667	-0.0040727	0.00362885	0.000108166	0.000361647	0	0	0	
0.0908333	-0.00374907	-0.000731299	0.00011025	0.000316365	0	0	0	
0.091	0.00341717	0.00302042	0.000109673	0.000220038	0	0	0	
0.0911667	-0.0021424	0.000211907	9.74269E-05	0.000130415	0	0	0	
0.0913333	0.00278761	0.00330963	7.10309E-05	9.82024E-05	0	0	0	
0.0915	-0.00286332	-0.0123776	5.64525E-05	0.000166915	0	0	0	
0.0916667	0.000865233	0.0192169	6.74815E-05	0.000255615	0	0	0	
0.0918333	0.00196866	-0.0187523	7.18644E-05	0.000336966	0	0	0	
0.092	-0.00392385	0.0152026	7.78545E-05	0.00035418	0	0	0	
0.0921667	-0.00126405	-0.0103851	6.43106E-05	0.000318489	0	0	0	
0.0923333	0.0022198	0.0072191	6.286E-05	0.000271734	0	0	0	
0.0925	-0.00316562	-0.00378679	8.11674E-05	0.000195906	0	0	0	
0.0926667	0.0064967	0.001503	9.86848E-05	0.00012947	0	0	0	
0.0928333	-0.00605356	-0.00958871	0.000115497	9.61181E-05	0	0	0	
0.093	0.00313882	0.00909044	0.000112409	0.000117099	0	0	0	
0.0931667	-0.00196287	-0.00290181	0.000110275	0.000139543	0	0	0	
0.0933333	-0.00210543	0.00636149	9.10593E-05	0.000153264	0	0	0	
0.0935	0.00718192	-0.00955003	8.49782E-05	0.000133741	0	0	0	
0.0936667	-0.00240244	-8.44727E-05	9.37069E-05	0.000130607	0	0	0	
0.0938333	-0.00267685	-0.00106628	0.000132015	0.00011286	0	0	0	
0.094	0.00321321	0.00908845	0.000148077	0.000105794	0	0	0	
0.0941667	-0.0073286	-0.00394947	0.000138235	0.00011029	0	0	0	
0.0943333	0.0104588	-0.0010689	0.000135106	0.000110118	0	0	0	
0.0945	-0.00648965	-0.00330682	0.00014543	0.000132086	0	0	0	
0.0946667	-0.00141199	0.0140272	0.000173108	0.000194703	0	0	0	
0.0948333	0.0060956	-0.0107499	0.000148256	0.000246754	0	0	0	
0.095	0.00104331	0.00544091	0.000115834	0.000228537	0	0	0	
0.0951667	-0.0055108	-0.00829098	8.50866E-05	0.000175865	0	0	0	
0.0953333	-0.00721507	0.00992016	0.000120685	0.000161826	0	0	0	
0.0955	0.0252736	-0.00215909	0.000210869	0.00014442	0	0	0	
0.0956667	-0.0184531	0.00147423	0.000335357	0.000136497	0	0	0	
0.0958333	-0.00845369	0.00213635	0.000512159	9.53495E-05	0	0	0	
0.096	0.0222121	0.00124869	0.000533892	9.96228E-05	0	0	0	
0.0961667	-0.00958118	-0.001364	0.000477534	7.68938E-05	0	0	0	
0.0963333	-0.000913134	-0.00334107	0.000331612	8.20317E-05	0	0	0	
0.0965	0.00713402	-0.00125498	0.000307737	8.33794E-05	0	0	0	
0.0966667	-0.0147627	0.011869	0.000313526	0.000119734	0	0	0	
0.0968333	0.0113412	-0.00585276	0.000291072	0.000145045	0	0	0	
0.097	0.000954642	0.00226451	0.000271692	0.000144126	0	0	0	
0.0971667	-0.00574387	-0.00456634	0.000230051	0.000113048	0	0	0	
0.0973333	0.00710779	0.00785254	0.000188393	0.000102864	0	0	0	
0.0975	-0.00823305	-0.00583433	0.000151604	0.000112116	0	0	0	
0.0976667	-0.00696874	0.00770108	0.000187083	0.000133878	0	0	0	
0.0978333	0.0126452	-0.00299886	0.000224955	0.000127122	0	0	0	
0.098	-0.00123764	0.0058299	0.000252862	0.000120249	0	0	0	
0.0981667	-0.00933161	-0.00471325	0.000245796	0.000107788	0	0	0	
0.0983333	0.00428705	0.00375013	0.000222907	0.000102229	0	0	0	
0.0985	0.00489836	-0.00153245	0.0001973	8.56344E-05	0	0	0	
0.0986667	-0.0025645	0.00526984	0.000142787	8.18748E-05	0	0	0	
0.0988333	-0.00689244	-0.00671774	0.000156367	9.99712E-05	0	0	0	
0.099	0.00765933	0.00757726	0.000152396	0.0001238	0	0	0	
0.0991667	-0.00426699	-0.00492678	0.000152316	0.000127953	0	0	0	
0.0993333	0.00449241	0.00884332	0.000124123	0.000124	0	0	0	
0.0995	0.000479667	-0.00899891	9.85256E-05	0.000136598	0	0	0	
0.0996667	-0.00253247	0.0050627	8.13056E-05	0.00015297	0	0	0	
0.0998333	-0.0031514	-0.00126928	5.91849E-05	0.000150224	0	0	0	
0.1	0.00550421	0.000185673	5.72805E-05	0.00011402	0	0	0	
0.100167	-6.01969E-05	-0.00823792	7.79611E-05	0.000112686	0	0	0	
0.100333	-0.0036359	0.0118934	0.000109551	0.00013743	0	0	0	
0.1005	0.00208136	-0.00859429	0.00010024	0.000183419	0	0	0	
0.100667	0.00124828	0.0105183	7.8847E-05	0.00019038	0	0	0	
0.100833	-0.00632792	-0.0106909	5.70229E-05	0.000198313	0	0	0	
0.101	0.00699228	0.00581773	8.52505E-05	0.000181697	0	0	0	
0.101167	-0.00146288	-0.00890732	0.000100812	0.000176887	0	0	0	
0.101333	-0.00242445	0.0179832	0.00010646	0.000208683	0	0	0	
0.1015	0.00131972	-0.0185853	7.45083E-05	0.000266604	0	0	0	
0.101667	0.0035788	0.0119852	9.85932E-05	0.000319836	0	0	0	
0.101833	-0.00734479	-0.00622312	0.000117421	0.000279565	0	0	0	
0.102	0.00865114	0.00748231	0.000152688	0.000212678	0	0	0	
0.102167	-0.00203653	-0.00149459	0.000142648	0.000141241	0	0	0	
0.102333	-0.00427748	-0.00363243	0.000143435	9.14362E-05	0	0	0	
0.1025	0.00749631	-7.59308E-05	0.000135701	9.87124E-05	0	0	0	
0.102667	-0.00476467	0.00615321	0.00012811	0.000122115	0	0	0	
0.102833	0.000238445	-0.00406892	0.000118463	0.00013854	0	0	0	
0.103	0.00316247	0.0023103	9.68882E-05	0.000122709	0	0	0	
0.103167	-0.00169621	-0.00564897	8.19345E-05	0.000120518	0	0	0	
0.103333	0.00216097	0.0122742	4.91007E-05	0.00015094	0	0	0	
0.1035	-0.00165134	-0.0104486	6.50234E-05	0.000179582	0	0	0	
0.103667	-0.00687624	0.00537225	0.000113225	0.000203651	0	0	0	
0.103833	0.0102733	-0.0013138	0.000155367	0.000211909	0	0	0	
0.104	0.00318354	0.00382969	0.000209552	0.00017483	0	0	0	
0.104167	-0.0116429	-0.0144526	0.00020472	0.000155625	0	0	0	
0.104333	-0.000309161	0.0107097	0.000256086	0.000167333	0	0	0	
0.1045	0.0103061	0.00034587	0.000267254	0.000206888	0	0	0	
0.104667	-0.00271247	0.00887366	0.000274569	0.00018396	0	0	0	
0.104833	-0.00983185	-0.0200276	0.000271445	0.00019589	0	0	0	
0.105	0.00618199	0.00756414	0.000225767	0.000238316	0	0	0	
0.105167	0.00355814	0.00893797	0.000212104	0.00031432	0	0	0	
0.105333	0.00501907	0.000193272	0.000149992	0.000289082	0	0	0	
0.1055	-0.0131145	-0.0148438	0.000147627	0.000295025	0	0	0	
0.105667	-0.000486169	0.00361444	0.000192525	0.000249997	0	0	0	
0.105833	0.018854	0.00744681	0.00028289	0.000259065	0	0	0	
0.106	-0.0135356	0.00620554	0.000328132	0.000235859	0	0	0	
0.106167	-0.00707689	-0.0172115	0.000365537	0.000263532	0	0	0	
0.106333	0.0119762	0.00607863	0.000317676	0.000272385	0	0	0	
0.1065	-0.00241068	0.00179879	0.000272963	0.000259714	0	0	0	
0.106667	0.000660283	-0.000986548	0.000167068	0.000184688	0	0	0	
0.106833	-0.00399155	-0.00322873	0.000121682	0.000136146	0	0	0	
0.107	0.005287	-0.000242029	8.25165E-05	9.61092E-05	0	0	0	
0.107167	-0.00415838	-0.00384854	0.000102236	0.000132565	0	0	0	
0.107333	-0.00042744	0.00612419	8.83341E-05	0.000152992	0	0	0	
0.1075	-0.00495168	-0.00589911	0.000137692	0.000165349	0	0	0	
0.107667	0.0139544	0.00447272	0.000179053	0.000160981	0	0	0	
0.107833	-0.0104701	-0.000833843	0.000263561	0.000122425	0	0	0	
0.108	-0.00233305	-0.00221162	0.00022359	9.31423E-05	0	0	0	
0.108167	0.00587218	0.000367546	0.000167919	4.51249E-05	0	0	0	
0.108333	-0.00398191	-0.000148638	9.72225E-05	4.77814E-05	0	0	0	
0.1085	-0.00243608	0.00568392	0.000152861	6.49685E-05	0	0	0	
0.108667	0.0078979	5.73472E-06	0.000214706	7.53989E-05	0	0	0	
0.108833	-0.00768212	-0.00191249	0.000288868	7.04118E-05	0	0	0	
0.109	0.0101784	-0.00113634	0.000243369	4.46963E-05	0	0	0	
0.109167	-0.00798878	0.00354094	0.000250228	6.49053E-05	0	0	0	
0.109333	-0.0047082	-0.00621739	0.000273393	0.00012139	0	0	0	
0.1095	0.0115171	-0.000159239	0.000303349	0.000174231	0	0	0	
0.109667	-0.0112814	0.0119716	0.000263853	0.000197504	0	0	0	
0.109833	0.0128528	-0.0108067	0.000223354	0.000192153	0	0	0	
0.11	-0.00602382	-0.00161472	0.000255269	0.000195727	0	0	0	
0.110167	-0.00665012	0.00663134	0.000337103	0.0001728	0	0	0	
0.110333	0.0156209	-0.00353249	0.000380972	0.000149332	0	0	0	
0.1105	-0.0126484	3.03136E-05	0.000363772	0.000105701	0	0	0	
0.110667	0.00395942	-0.00524084	0.000298719	8.43293E-05	0	0	0	
0.110833	-0.00187492	-0.00420467	0.000216539	0.000106191	0	0	0	
0.111	0.00428753	0.0132276	0.00015926	0.000138125	0	0	0	
0.111167	-0.00678995	-0.00326366	0.000112137	0.000180322	0	0	0	
0.111333	-0.00033692	-0.00246579	0.000140794	0.000126698	0	0	0	
0.1115	0.0056202	-0.00419155	0.00018222	0.000128752	0	0	0	
0.111667	-0.00465332	0.00916107	0.000172159	0.000123671	0	0	0	
0.111833	0.00328144	-0.0104999	0.000121029	0.000167388	0	0	0	
0.112	-0.0027688	0.0133524	7.67233E-05	0.000181112	0	0	0	
0.112167	0.00137503	-0.00915921	6.11698E-05	0.000201212	0	0	0	
0.112333	0.00194139	-0.000407801	9.09285E-05	0.000201109	0	0	0	
0.1125	-0.00932667	0.00199487	0.000169599	0.000140812	0	0	0	
0.112667	0.0112588	0.00488119	0.000221273	0.000118074	0	0	0	
0.112833	-0.00307162	-0.0019594	0.000235685	0.000109415	0	0	0	
0.113	-0.00559845	-0.00044114	0.000201462	0.000131388	0	0	0	
0.113167	0.00308238	-0.00113894	0.000164636	0.000133521	0	0	0	
0.113333	0.00207686	0.00245033	0.000147983	0.000126242	0	0	0	
0.1135	-0.00233027	0.00359392	0.000121108	0.000124613	0	0	0	
0.113667	0.00491642	-0.00622202	0.000119301	0.000133693	0	0	0	
0.113833	-0.00304107	0.00277775	9.73133E-05	0.000170526	0	0	0	
0.114	0.00159751	0.00101319	7.56623E-05	0.000233549	0	0	0	
0.114167	-0.00491123	-0.0038786	7.40746E-05	0.000257447	0	0	0	
0.114333	8.60679E-05	0.00751175	7.15993E-05	0.000231299	0	0	0	
0.1145	0.00372783	-0.00353323	8.10471E-05	0.000164697	0	0	0	
0.114667	-0.00119515	-0.000597196	7.36516E-05	0.00011098	0	0	0	
0.114833	0.000560885	0.000347644	8.24354E-05	6.59077E-05	0	0	0	
0.115	0.00276871	0.00207656	6.65589E-05	4.28513E-05	0	0	0	
0.115167	-0.00332822	0.00185079	7.31828E-05	3.39523E-05	0	0	0	
0.115333	0.0017323	-0.00233843	5.21167E-05	3.75524E-05	0	0	0	
0.1155	-0.00231817	-0.00214171	5.48006E-05	7.10444E-05	0	0	0	
0.115667	-0.000474664	0.00325902	5.44929E-05	9.37973E-05	0	0	0	
0.115833	0.00115729	-0.00206449	4.07886E-05	0.000105791	0	0	0	
0.116	0.00353482	0.00404144	5.84098E-05	0.000117529	0	0	0	
0.116167	-0.00564885	-0.00746779	6.81373E-05	0.000166263	0	0	0	
0.116333	0.00300458	0.00992123	8.98864E-05	0.00021043	0	0	0	
0.1165	-0.00543927	-0.00247267	8.49659E-05	0.000201999	0	0	0	
0.116667	0.00804375	-0.00208578	9.81509E-05	0.000145141	0	0	0	
0.116833	-0.0038743	-0.00650113	0.000124861	0.000134709	0	0	0	
0.117	-0.00986176	-0.00253483	0.000145208	0.000143261	0	0	0	
0.117167	0.0203673	0.0089347	0.000186077	0.000163399	0	0	0	
0.117333	-0.0263169	-0.00200253	0.000294973	0.00017037	0	0	0	
0.1175	0.0132746	-0.00732936	0.000406796	0.000230685	0	0	0	
0.117667	0.00517003	0.00703211	0.000479806	0.000249903	0	0	0	
0.117833	-0.0154368	-0.00768717	0.000475948	0.000229726	0	0	0	
0.118	0.0143077	0.00196912	0.000438045	0.000152152	0	0	0	
0.118167	-0.0107936	-0.00539715	0.000347292	0.000102107	0	0	0	
0.118333	-0.000399112	0.00525889	0.000325418	9.58277E-05	0	0	0	
0.1185	0.00669752	-0.00200948	0.000358195	9.05868E-05	0	0	0	
0.118667	-0.00721149	-0.00182394	0.000389068	0.000111865	0	0	0	
0.118833	0.00754057	-0.00885996	0.000287785	0.000182264	0	0	0	
0.119	-0.00683463	0.0130603	0.000200786	0.000252428	0	0	0	
0.119167	-0.000518048	-0.00112189	0.00015562	0.000248208	0	0	0	
0.119333	-0.000799378	-0.0101951	0.000154569	0.00017313	0	0	0	
0.1195	0.00534926	-0.00121198	0.000131864	0.000164074	0	0	0	
0.119667	-0.00113124	0.00338755	0.000130341	0.000212056	0	0	0	
0.119833	-0.00320104	0.00324931	0.000167413	0.000217252	0	0	0	
0.12	0.00609425	-0.00133375	0.000193835	0.000220738	0	0	0	
0.120167	-0.0117063	-0.00976423	0.000204881	0.000258039	0	0	0	
0.120333	0.00600257	0.00539537	0.000191563	0.000262305	0	0	0	
0.1205	0.00375759	0.00242509	0.000155313	0.000199627	0	0	0	
0.120667	-0.000552518	0.00360226	0.000104421	0.000149569	0	0	0	
0.120833	-0.0056951	-0.012833	6.73187E-05	0.000179966	0	0	0	
0.121	-0.00129755	-0.00581371	7.26446E-05	0.000234489	0	0	0	
0.121167	0.00806006	0.02148	8.61296E-05	0.00026804	0	0	0	
0.121333	0.0027914	-0.00547364	0.000141819	0.000300665	0	0	0	
0.1215	-0.0124232	-0.014147	0.000166378	0.000365024	0	0	0	
0.121667	-0.000576963	0.00602299	0.000226459	0.000309167	0	0	0	
0.121833	0.0128781	0.00377495	0.000252346	0.000246997	0	0	0	
0.122	-0.00852803	0.00490726	0.000265796	0.000176394	0	0	0	
0.122167	-0.00547281	-0.0171722	0.000271402	0.00022095	0	0	0	
0.122333	0.00229662	0.00911119	0.000196825	0.00027038	0	0	0	
0.1225	0.00885584	0.00958673	0.000173827	0.000301556	0	0	0	
0.122667	-0.00448065	-0.00686	0.000132145	0.000272329	0	0	0	
0.122833	-0.0105545	-0.0131203	0.000185246	0.000325358	0	0	0	
0.123	0.00784221	0.0108999	0.000183367	0.000289987	0	0	0	
0.123167	0.00474461	0.00442104	0.000237531	0.000296598	0	0	0	
0.123333	-0.00945672	-0.00241435	0.000210803	0.00021104	0	0	0	
0.1235	-0.00430616	-0.01272	0.000226609	0.000255144	0	0	0	
0.123667	0.0104695	0.00560602	0.000169639	0.000221697	0	0	0	
0.123833	0.0030913	0.00653099	0.00019108	0.000220001	0	0	0	
0.124	-0.00902758	-0.0068592	0.000184766	0.000155202	0	0	0	
0.124167	0.00216798	0.0020946	0.000185759	0.000154827	0	0	0	
0.124333	0.0041419	-0.0064982	0.00017931	0.00012694	0	0	0	
0.1245	-0.00524169	2.64132E-05	0.000151637	0.000127846	0	0	0	
0.124667	0.000420609	0.00411806	0.000118187	0.000141564	0	0	0	
0.124833	0.000979728	0.00102334	5.72801E-05	0.000136238	0	0	0	
0.125	0.00299126	0.0017588	4.15754E-05	0.000108901	0	0	0	
0.125167	-0.00414302	-0.00448937	4.88597E-05	8.65213E-05	0	0	0	
0.125333	-0.00153007	-0.00188682	7.68764E-05	7.51016E-05	0	0	0	
0.1255	0.00804562	0.00275624	9.28811E-05	6.56261E-05	0	0	0	
0.125667	-0.00276215	-0.00518887	0.000118118	8.60294E-05	0	0	0	
0.125833	-0.00685652	0.0099048	0.000159123	0.000148328	0	0	0	
0.126	0.00671979	-0.0015934	0.000179344	0.00019545	0	0	0	
0.126167	-0.00498385	-0.00170428	0.000161656	0.000241329	0	0	0	
0.126333	0.00466308	0.00113168	0.000125233	0.000209827	0	0	0	
0.1265	0.000444506	0.00414196	0.000117234	0.000187213	0	0	0	
0.126667	-0.00537	-0.0128129	0.000152991	0.000144288	0	0	0	
0.126833	0.00466067	0.00801699	0.00015755	0.000177519	0	0	0	
0.127	0.000838489	0.0115694	0.00013056	0.000271197	0	0	0	
0.127167	0.00333031	-0.016998	0.000134233	0.000318374	0	0	0	
0.127333	-0.0177802	0.00671789	0.000203185	0.000326521	0	0	0	
0.1275	0.0160159	0.00294496	0.000281644	0.00024752	0	0	0	
0.127667	0.00577965	0.00418664	0.000393422	0.00018471	0	0	0	
0.127833	-0.0206819	-0.00837726	0.000441446	0.000147195	0	0	0	
0.128	0.0186261	-0.00334908	0.000454565	0.000122882	0	0	0	
0.128167	-0.0121618	0.0075465	0.000386942	0.000119938	0	0	0	
0.128333	0.00597762	0.00604121	0.000304515	0.000206874	0	0	0	
0.1285	-0.00150746	-0.0140048	0.000250505	0.000292027	0	0	0	
0.128667	-0.00861586	0.000731967	0.000212776	0.000295224	0	0	0	
0.128833	0.0141725	0.00997708	0.000207961	0.000182151	0	0	0	
0.129	-0.0049339	0.00108969	0.00022187	0.000227708	0	0	0	
0.129167	-0.00483771	-0.0198425	0.000226015	0.00039199	0	0	0	
0.129333	0.000520305	0.0133274	0.000176165	0.000484224	0	0	0	
0.1295	0.0090368	0.000881864	0.000136934	0.000363868	0	0	0	
0.129667	-0.00613483	-0.00392129	0.000108805	0.000222335	0	0	0	
0.129833	-0.00432723	-0.00286071	0.000163762	0.000220604	0	0	0	
0.13	0.0101608	1.58526E-06	0.000195696	0.00022236	0	0	0	
0.130167	-0.00400557	-0.00181834	0.000187013	0.000193136	0	0	0	
0.130333	-0.00581857	0.00245895	0.000175196	0.000173114	0	0	0	
0.1305	0.00706874	-0.00411467	0.000144011	0.000169293	0	0	0	
0.130667	-0.000149203	-0.00556145	0.000166068	0.000176089	0	0	0	
0.130833	-0.00653312	0.00616808	0.000138117	0.000116832	0	0	0	
0.131	0.00345555	0.00102903	0.000137286	0.000131574	0	0	0	
0.131167	-0.000528886	-0.00201991	8.60758E-05	0.000117348	0	0	0	
0.131333	-0.000988388	-0.00884958	5.33749E-05	0.000122313	0	0	0	
0.1315	0.000908322	0.00399468	4.29574E-05	0.000137051	0	0	0	
0.131667	-0.000270327	0.00389337	5.62896E-05	0.000189341	0	0	0	
0.131833	-0.00121326	-0.000583075	5.47954E-05	0.000199469	0	0	0	
0.132	-0.000921974	-0.00351672	4.68252E-05	0.000158553	0	0	0	
0.132167	0.00109019	0.00074739	2.92356E-05	0.000110332	0	0	0	
0.132333	0.000524038	0.00137167	3.19694E-05	0.000109938	0	0	0	
0.1325	0.000353609	-0.00275637	2.93887E-05	0.000119681	0	0	0	
0.132667	-0.00367851	0.00197372	3.14077E-05	0.00010246	0	0	0	
0.132833	-0.000464954	0.00415507	4.89071E-05	6.66601E-05	0	0	0	
0.133	0.00232685	6.37095E-05	6.31511E-05	7.05539E-05	0	0	0	
0.133167	0.000961524	-0.0075588	6.06429E-05	0.000103538	0	0	0	
0.133333	-0.00114849	0.00368689	5.15532E-05	0.000134941	0	0	0	
0.1335	-0.00440868	0.00280163	6.41594E-05	0.00011673	0	0	0	
0.133667	0.00382908	0.00550919	8.4431E-05	0.000132265	0	0	0	
0.133833	-0.00366066	-0.00658933	9.29776E-05	0.000134693	0	0	0	
0.134	0.000949106	-0.00646297	7.46106E-05	0.000135785	0	0	0	
0.134167	-0.00110924	0.00179469	5.52476E-05	9.78997E-05	0	0	0	
0.134333	-0.00214615	0.00703617	5.64322E-05	0.000102976	0	0	0	
0.1345	0.00294485	0.00367198	8.34032E-05	0.000111511	0	0	0	
0.134667	-0.00380565	-0.00880314	9.65147E-05	0.000131519	0	0	0	
0.134833	0.00436024	0.00605079	0.000100272	0.00012805	0	0	0	
0.135	-0.00212169	-0.0077159	0.000104167	0.000157756	0	0	0	
0.135167	-0.00329427	0.00892824	0.000132124	0.000171043	0	0	0	
0.135333	0.00541783	-0.00693645	0.000142416	0.000207481	0	0	0	
0.1355	-0.00593934	0.00339564	0.000127517	0.000264812	0	0	0	
0.135667	0.00327292	0.00070159	0.000106514	0.000295778	0	0	0	
0.135833	-0.00258904	-0.00213179	7.90438E-05	0.000267294	0	0	0	
0.136	0.00220418	0.004666	6.94407E-05	0.000193577	0	0	0	
0.136167	0.000668822	-0.00155982	5.86326E-05	0.000130533	0	0	0	
0.136333	-0.00160257	-0.00159972	5.99396E-05	9.9786E-05	0	0	0	
0.1365	-0.00254191	-0.000471269	6.36574E-05	5.78062E-05	0	0	0	
0.136667	0.00220979	0.00143968	5.71748E-05	5.41134E-05	0	0	0	
0.136833	0.00164501	0.0046171	7.01995E-05	5.05039E-05	0	0	0	
0.137	-0.00262546	-0.00531514	5.52887E-05	7.10194E-05	0	0	0	
0.137167	0.000874956	0.000872645	7.39377E-05	0.000102003	0	0	0	
0.137333	-0.00189345	-0.000477285	6.72961E-05	0.000107256	0	0	0	
0.1375	0.000593111	0.00298983	6.54742E-05	9.21728E-05	0	0	0	
0.137667	0.00163017	-0.00244453	4.5482E-05	9.23332E-05	0	0	0	
0.137833	-0.000818949	-0.00115329	4.9207E-05	0.000146661	0	0	0	
0.138	0.00160746	0.00521788	5.46337E-05	0.000179952	0	0	0	
0.138167	-0.00441651	-0.00149212	5.98411E-05	0.000168955	0	0	0	
0.138333	-3.85113E-05	-0.00368178	7.30146E-05	0.000107971	0	0	0	
0.1385	0.00837626	0.0063106	9.8064E-05	8.96795E-05	0	0	0	
0.138667	-0.00232846	-0.0020678	0.000131145	0.000156973	0	0	0	
0.138833	-0.00888943	-0.00764619	0.000187908	0.000281611	0	0	0	
0.139	0.00518919	0.00167081	0.000181791	0.000283081	0	0	0	
0.139167	0.00527407	0.0158018	0.000195196	0.000213146	0	0	0	
0.139333	-0.00261567	-0.00987716	0.000142239	0.000204314	0	0	0	
0.1395	-0.00945513	-0.008008	0.000182087	0.00033088	0	0	0	
0.139667	0.00342343	0.00208519	0.000161056	0.000341069	0	0	0	
0.139833	0.00812493	0.0116736	0.000199901	0.000246457	0	0	0	
0.14	-0.00621144	0.00200108	0.000159781	0.000211104	0	0	0	
0.140167	-0.00267683	-0.0162721	0.000194905	0.000301267	0	0	0	
0.140333	0.00485229	0.00353156	0.000137593	0.000315626	0	0	0	
0.1405	0.00557013	0.0116306	0.000158576	0.000328954	0	0	0	
0.140667	-0.00895851	-0.00796462	0.000124868	0.00023821	0	0	0	
0.140833	-0.00888702	5.72868E-05	0.000205689	0.000271013	0	0	0	
0.141	0.0150104	-0.00501914	0.000236105	0.000154253	0	0	0	
0.141167	-0.000455981	0.011165	0.000265098	0.000154726	0	0	0	
0.141333	-0.00888809	-0.00543047	0.000240112	0.000149706	0	0	0	
0.1415	0.00551806	0.00392431	0.000192699	0.000192702	0	0	0	
0.141667	-0.00344684	-0.00463269	0.000156618	0.000192291	0	0	0	
0.141833	0.00359131	0.00287618	0.000103843	0.000196982	0	0	0	
0.142	-0.00043012	-0.000789881	9.84916E-05	0.00019104	0	0	0	
0.142167	-0.00277957	0.00470629	0.000120235	0.00018104	0	0	0	
0.142333	0.00558901	0.00219283	0.000142444	0.000214512	0	0	0	
0.1425	-0.0102008	-0.0127767	0.000157582	0.000318039	0	0	0	
0.142667	0.00209975	0.0142151	0.000143583	0.000383164	0	0	0	
0.142833	0.00420846	-0.00738741	0.000166615	0.000321337	0	0	0	
0.143	-0.00332202	0.00377247	0.00015742	0.000210884	0	0	0	
0.143167	0.00228787	0.00401217	0.000141023	0.000151131	0	0	0	
0.143333	0.00180449	-0.00883787	9.11442E-05	0.000149951	0	0	0	
0.1435	-0.00162813	0.0111243	6.57425E-05	0.0001566	0	0	0	
0.143667	0.00292252	-0.0136307	5.22065E-05	0.000191653	0	0	0	
0.143833	-0.00426079	0.00428317	5.39536E-05	0.000206006	0	0	0	
0.144	1.96958E-05	-0.00288207	6.07008E-05	0.000217262	0	0	0	
0.144167	-0.000196041	0.0100583	4.57431E-05	0.00023012	0	0	0	
0.144333	0.0102545	0.000876215	7.81857E-05	0.000276231	0	0	0	
0.1445	-0.00831265	-0.0139645	0.000126515	0.000329671	0	0	0	
0.144667	0.00233568	0.0111264	0.000170248	0.000323277	0	0	0	
0.144833	0.000829586	-0.00598654	0.000161001	0.000256302	0	0	0	
0.145	-0.00327696	0.00689746	0.000108037	0.000191973	0	0	0	
0.145167	0.00364127	-0.00238008	8.20965E-05	0.000135837	0	0	0	
0.145333	-0.00240513	-0.00538091	6.90647E-05	0.000122458	0	0	0	
0.1455	0.000366287	0.00208807	0.00010694	0.000102141	0	0	0	
0.145667	0.00182055	0.00751696	0.000129566	0.000167948	0	0	0	
0.145833	-0.00613929	-0.00103562	0.000127207	0.000177826	0	0	0	
0.146	0.00530627	-0.00431691	0.000113939	0.000160625	0	0	0	
0.146167	-0.00309831	-0.000593684	9.56512E-05	0.00014626	0	0	0	
0.146333	0.000835734	0.00183127	8.86742E-05	0.000191372	0	0	0	
0.1465	-0.00142697	-0.000352559	7.78848E-05	0.00021125	0	0	0	
0.146667	-0.00629038	0.000552299	0.000100197	0.000164841	0	0	0	
0.146833	0.0102875	-0.00172638	0.000145225	0.000120524	0	0	0	
0.147	-0.00792898	-0.00156669	0.000162846	0.000101549	0	0	0	
0.147167	0.0127168	0.00732259	0.000192274	9.18845E-05	0	0	0	
0.147333	-0.0176363	-0.0100824	0.000245535	0.000112189	0	0	0	
0.1475	0.0143908	0.00521923	0.0003511	0.000159783	0	0	0	
0.147667	-0.00446747	-0.00279288	0.000445813	0.000195058	0	0	0	
0.147833	-0.00722888	0.0048651	0.000508024	0.00017435	0	0	0	
0.148	0.0185223	-0.0088815	0.000538311	0.000162382	0	0	0	
0.148167	-0.0194686	0.00858885	0.000530377	0.000166615	0	0	0	
0.148333	0.0110748	-0.00463839	0.000417154	0.000176829	0	0	0	
0.1485	0.00243147	0.002267	0.000381935	0.000160091	0	0	0	
0.148667	-0.0172326	-0.00148099	0.000394489	0.000135886	0	0	0	
0.148833	0.0291817	-0.00235088	0.000480818	0.000103759	0	0	0	
0.149	-0.026293	-0.00102727	0.000496213	8.00401E-05	0	0	0	
0.149167	0.0127788	0.00538916	0.000501849	6.51692E-05	0	0	0	
0.149333	-0.0016164	-0.00118828	0.00049986	6.58572E-05	0	0	0	
0.1495	-0.0012859	0.00345237	0.000424833	6.68694E-05	0	0	0	
0.149667	0.000396781	-0.00723268	0.000300779	8.4177E-05	0	0	0	
0.149833	-0.000757199	0.00597204	0.000205648	9.44593E-05	0	0	0	
0.15	0.00643654	-0.00714181	0.000167	0.000145631	0	0	0	
0.150167	-0.00561693	0.00534555	0.000155656	0.000157592	0	0	0	
0.150333	0.00160313	-0.0035018	0.000115908	0.000162302	0	0	0	
0.1505	-0.00149281	0.00495655	7.47816E-05	0.000166877	0	0	0	
0.150667	0.00292311	-0.00165993	4.84504E-05	0.000178693	0	0	0	
0.150833	0.000711017	0.00425234	3.65372E-05	0.000162	0	0	0	
0.151	-0.000811277	-0.0104011	3.86701E-05	0.00013995	0	0	0	
0.151167	0.000245076	0.0109004	2.98103E-05	0.000134602	0	0	0	
0.151333	0.00221483	-0.00949665	4.31537E-05	0.000186547	0	0	0	
0.1515	-0.00469781	0.00779485	5.11165E-05	0.000207613	0	0	0	
0.151667	0.00303366	-0.00526067	6.91168E-05	0.000220379	0	0	0	
0.151833	0.00177544	0.000849951	7.5098E-05	0.000186716	0	0	0	
0.152	-0.00340185	0.00054247	7.76958E-05	0.000126957	0	0	0	
0.152167	0.00175606	0.00649976	6.90721E-05	7.11018E-05	0	0	0	
0.152333	-0.00283235	-0.0116739	5.06237E-05	8.93038E-05	0	0	0	
0.1525	0.00440042	0.010643	6.15256E-05	0.000150968	0	0	0	
0.152667	-0.00073077	-0.010056	9.57712E-05	0.000200023	0	0	0	
0.152833	-0.00414488	0.010229	0.000125729	0.000203159	0	0	0	
0.153	0.00595121	-0.0108078	0.000126277	0.000202739	0	0	0	
0.153167	-0.00330064	0.00735569	0.0001034	0.000189658	0	0	0	
0.153333	-0.00254924	-0.0083533	0.000113212	0.000180354	0	0	0	
0.1535	0.00907201	0.00929582	0.000113004	0.000165313	0	0	0	
0.153667	-0.00416218	-0.00659182	0.000139818	0.0001681	0	0	0	
0.153833	-0.00400187	0.00138584	0.000134689	0.00017205	0	0	0	
0.154	0.00149281	-0.00341536	0.000126088	0.000130871	0	0	0	
0.154167	-0.00101927	0.00763425	8.71067E-05	0.000104451	0	0	0	
0.154333	0.00551999	-0.00868938	5.94499E-05	0.000118184	0	0	0	
0.1545	0.0020442	0.00327791	8.06336E-05	0.00019217	0	0	0	
0.154667	-0.00843068	-0.0044535	0.000120319	0.000211663	0	0	0	
0.154833	0.00734225	0.0106202	0.000146813	0.000184979	0	0	0	
0.155	-0.00774434	-0.0133352	0.000156606	0.000164443	0	0	0	
0.155167	6.64752E-05	0.00871517	0.000165168	0.000211333	0	0	0	
0.155333	0.00969799	-0.004043	0.000196608	0.000248624	0	0	0	
0.1555	-0.0060013	0.0103582	0.000183802	0.000239725	0	0	0	
0.155667	-0.00424907	-0.0187703	0.000200096	0.000228567	0	0	0	
0.155833	0.00348314	0.0114566	0.00014895	0.000262463	0	0	0	
0.156	0.00548817	0.00420136	0.000160015	0.000333634	0	0	0	
0.156167	-0.00481296	-4.46013E-05	0.00010487	0.000278443	0	0	0	
0.156333	-0.0052873	-0.0107413	0.000153609	0.000196836	0	0	0	
0.1565	0.00812631	0.0059105	0.00013858	0.000124959	0	0	0	
0.156667	0.00208347	0.00262805	0.000173518	0.000175946	0	0	0	
0.156833	-0.00641853	0.000518928	0.00013304	0.000153057	0	0	0	
0.157	-0.00476373	-0.00966578	0.000153035	0.000143055	0	0	0	
0.157167	0.00942141	0.00831818	0.000129676	0.000133732	0	0	0	
0.157333	0.00184039	0.00512875	0.000201892	0.000226397	0	0	0	
0.1575	-0.0109352	-0.00149665	0.000218901	0.000195696	0	0	0	
0.157667	0.000503606	-0.0159128	0.000247676	0.000185093	0	0	0	
0.157833	0.00834336	0.0169838	0.000214946	0.000189334	0	0	0	
0.158	-0.00122632	-0.0115297	0.000189409	0.000284365	0	0	0	
0.158167	-0.00590896	0.014097	0.000204307	0.000312015	0	0	0	
0.158333	0.00180092	-0.012312	0.000152336	0.000315154	0	0	0	
0.1585	0.00053509	0.00563577	0.000147963	0.000329375	0	0	0	
0.158667	-0.00164218	0.000222492	8.21336E-05	0.000315067	0	0	0	
0.158833	0.000311108	0.00250894	7.50758E-05	0.000258953	0	0	0	
0.159	-0.00491322	0.00393557	5.94104E-05	0.0001851	0	0	0	
0.159167	0.0112058	-0.00360214	9.22277E-05	0.000132882	0	0	0	
0.159333	-0.00387852	-0.00635422	0.000131264	0.000145835	0	0	0	
0.1595	-0.00205697	0.0058246	0.000153825	0.00015991	0	0	0	
0.159667	0.00200843	-0.000682858	0.00012928	0.000163187	0	0	0	
0.159833	-0.00173429	0.00765548	8.81479E-05	0.00012099	0	0	0	
0.16	0.00313506	-0.00547294	5.59999E-05	0.000101186	0	0	0	
0.160167	-0.00202277	-1.1544E-05	5.01501E-05	0.000101606	0	0	0	
0.160333	0.00250685	0.000933305	5.26391E-05	9.24083E-05	0	0	0	
0.1605	-0.000224013	0.00370188	4.11728E-05	7.03675E-05	0	0	0	
0.160667	-0.00213666	-0.0114704	4.66188E-05	8.85349E-05	0	0	0	
0.160833	0.00731949	0.00491767	7.43998E-05	0.000163486	0	0	0	
0.161	-0.0135476	0.00556034	0.000131075	0.000204812	0	0	0	
0.161167	0.0163409	0.00456766	0.000198549	0.000203016	0	0	0	
0.161333	-0.00738626	-0.0170545	0.0002532	0.000166504	0	0	0	
0.1615	-0.00577434	0.0105954	0.000327326	0.0002076	0	0	0	
0.161667	0.0134134	-0.00244471	0.000332018	0.000258107	0	0	0	
0.161833	-0.00887821	0.00480899	0.000299307	0.000235094	0	0	0	
0.162	-0.00203783	-0.00491143	0.000269257	0.00016017	0	0	0	
0.162167	0.00787556	0.00112332	0.000255752	0.000121304	0	0	0	
0.162333	-0.006492	0.0019498	0.000234647	9.9146E-05	0	0	0	
0.1625	0.00669036	0.006334	0.000167562	0.000111398	0	0	0	
0.162667	-0.00656115	-0.0131219	0.000124378	0.000116722	0	0	0	
0.162833	0.00169992	0.00573479	0.000124322	0.000186846	0	0	0	
0.163	0.00230709	0.00374781	0.000120641	0.000219408	0	0	0	
0.163167	0.00269059	-0.00232595	9.01286E-05	0.000170232	0	0	0	
0.163333	-0.00704782	-0.00430142	8.27179E-05	0.000155627	0	0	0	
0.1635	-0.000474747	0.00806457	7.53094E-05	0.000132998	0	0	0	
0.163667	0.0092209	-0.00919337	9.96597E-05	0.000170444	0	0	0	
0.163833	-0.0106468	0.00875255	0.000131972	0.000166214	0	0	0	
0.164	0.00492432	-0.01183	0.000146206	0.000178246	0	0	0	
0.164167	-0.00220972	0.0103185	0.000141368	0.00020773	0	0	0	
0.164333	0.00275574	-0.00461729	9.37884E-05	0.000248353	0	0	0	
0.1645	-0.0153664	0.00202449	0.000101745	0.000258616	0	0	0	
0.164667	0.0245417	1.64529E-05	0.000193726	0.000219349	0	0	0	
0.164833	-0.0200148	-0.00203564	0.000336156	0.000147412	0	0	0	
0.165	0.00421094	0.000625121	0.000424494	0.000110071	0	0	0	
0.165167	0.00433865	0.00142358	0.000425621	9.11099E-05	0	0	0	
0.165333	-0.0109256	-0.00487458	0.000340698	8.73866E-05	0	0	0	
0.1655	0.00936852	0.00534263	0.000254424	8.71278E-05	0	0	0	
0.165667	-0.00200686	-0.000931879	0.000233351	9.82045E-05	0	0	0	
0.165833	-0.0135505	0.000544573	0.000328312	8.1688E-05	0	0	0	
0.166	0.0206135	-0.00484532	0.000436276	6.24615E-05	0	0	0	
0.166167	-0.0150937	0.00847623	0.000447355	9.45404E-05	0	0	0	
0.166333	0.00977275	-0.00521324	0.000350941	0.000147939	0	0	0	
0.1665	-0.00710655	0.00250393	0.000237657	0.000177957	0	0	0	
0.166667	0.00336709	-0.00390515	0.000169269	0.000161797	0	0	0	
0.166833	-0.00160828	0.00297169	0.000142908	0.000136183	0	0	0	
0.167	-0.000120721	-0.00406186	0.000128372	0.000105817	0	0	0	
0.167167	0.00463368	0.0123482	0.000130692	0.000119509	0	0	0	
0.167333	-0.0069626	-0.00939626	0.000138188	0.000170877	0	0	0	
0.1675	0.00771072	0.00523498	0.000148702	0.000199392	0	0	0	
0.167667	-0.00296672	-0.00877668	0.000134008	0.000188368	0	0	0	
0.167833	0.00181459	0.00633501	0.000110148	0.000156836	0	0	0	
0.168	-0.000739886	-0.00668694	9.93155E-05	0.000162522	0	0	0	
0.168167	-0.00302368	0.0105983	8.09426E-05	0.00016787	0	0	0	
0.168333	0.00306418	-0.00593903	7.60535E-05	0.000161943	0	0	0	
0.1685	0.00280203	0.00527932	7.26986E-05	0.000146363	0	0	0	
0.168667	-0.00543139	-0.0109826	9.7679E-05	0.000145868	0	0	0	
0.168833	0.00515432	0.00844887	9.65351E-05	0.000170305	0	0	0	
0.169	-0.00206122	-0.00146902	0.000112183	0.00019663	0	0	0	
0.169167	-0.00136867	-0.00169759	0.000110566	0.000182797	0	0	0	
0.169333	0.00114224	-0.000532499	9.41521E-05	0.000124752	0	0	0	
0.1695	0.000299536	0.00294552	5.67217E-05	8.8245E-05	0	0	0	
0.169667	0.0030188	-0.0018747	4.89301E-05	6.37837E-05	0	0	0	
0.169833	-0.00382869	0.00468684	6.12318E-05	6.54443E-05	0	0	0	
0.17	-0.0047749	-0.0056314	9.11251E-05	9.17013E-05	0	0	0	
0.170167	0.00760588	0.00291319	0.000103542	0.000105082	0	0	0	
0.170333	0.00114357	-0.00413473	0.000109688	0.000108679	0	0	0	
0.1705	-0.0022191	0.00652324	8.91637E-05	0.000100811	0	0	0	
0.170667	-0.00131385	-0.00542821	5.62278E-05	0.000124643	0	0	0	
0.170833	0.00159383	0.0086668	3.96475E-05	0.000138593	0	0	0	
0.171	-0.000908369	-0.00844659	2.46367E-05	0.000156167	0	0	0	
0.171167	0.00117031	0.00699368	2.42375E-05	0.000145307	0	0	0	
0.171333	-0.000466831	-0.0074444	2.35017E-05	0.000158598	0	0	0	
0.1715	-2.48486E-05	0.00526686	2.6111E-05	0.000164914	0	0	0	
0.171667	-0.00301819	9.1487E-05	2.6166E-05	0.000166587	0	0	0	
0.171833	0.00537657	0.00315264	4.90306E-05	0.000123087	0	0	0	
0.172	-0.000397794	-0.0056532	7.47396E-05	8.97232E-05	0	0	0	
0.172167	-0.0052275	-0.00119969	0.000122059	6.9595E-05	0	0	0	
0.172333	0.00444691	0.00373595	0.000108667	0.000106122	0	0	0	
0.1725	0.00439164	0.0127752	0.000157084	0.000199611	0	0	0	
0.172667	-0.010045	-0.021237	0.000145288	0.000287552	0	0	0	
0.172833	-0.0018959	0.0116841	0.000192319	0.000350809	0	0	0	
0.173	0.00819285	-0.00478656	0.000142602	0.000290312	0	0	0	
0.173167	0.0101538	0.0110765	0.0001974	0.000242142	0	0	0	
0.173333	-0.0123856	-0.00969424	0.00020123	0.000195555	0	0	0	
0.1735	-0.00402764	-0.00632981	0.000273713	0.000238959	0	0	0	
0.173667	0.00914236	0.00802784	0.000231942	0.000208821	0	0	0	
0.173833	0.0042361	0.00867287	0.000231221	0.000303764	0	0	0	
0.174	-0.00957306	-0.0203908	0.000173925	0.000325225	0	0	0	
0.174167	-0.00590185	0.00949096	0.000207261	0.000394222	0	0	0	
0.174333	0.017267	0.000776426	0.000216681	0.000292692	0	0	0	
0.1745	-0.000728715	0.0172616	0.000269992	0.000294585	0	0	0	
0.174667	-0.0161046	-0.0303187	0.000307837	0.000362074	0	0	0	
0.174833	0.0102823	0.0119902	0.000305058	0.000437385	0	0	0	
0.175	0.00441913	-0.00913879	0.000285078	0.000393566	0	0	0	
0.175167	-0.00191368	0.0208547	0.000174506	0.0003344	0	0	0	
0.175333	-0.00481777	-0.0136477	0.000125313	0.00030697	0	0	0	
0.1755	0.0023977	-4.84977E-05	7.17474E-05	0.00032252	0	0	0	
0.175667	-0.000475247	-0.000545424	8.17434E-05	0.000236423	0	0	0	
0.175833	0.00157329	0.00402128	6.40407E-05	0.000202171	0	0	0	
0.176	-0.000501702	-0.00209965	4.45911E-05	0.000130714	0	0	0	
0.176167	0.000809533	0.00362748	2.62358E-05	0.000171609	0	0	0	
0.176333	0.00364534	-0.00974105	2.75001E-05	0.000172147	0	0	0	
0.1765	-0.00825897	0.00763771	6.14723E-05	0.000196056	0	0	0	
0.176667	0.000609031	0.00240545	9.41413E-05	0.000167066	0	0	0	
0.176833	0.00850051	0.0042873	0.000178543	0.000188117	0	0	0	
0.177	-0.0104337	-0.0145542	0.00021451	0.0002143	0	0	0	
0.177167	0.00521656	0.0123326	0.000216467	0.000263695	0	0	0	
0.177333	-0.00101405	-0.002917	0.000169721	0.000213859	0	0	0	
0.1775	-0.00265713	0.00748471	0.000133868	0.000160987	0	0	0	
0.177667	0.00552796	-0.00109195	0.000128713	0.000108718	0	0	0	
0.177833	-0.00765738	-0.00914671	0.00011164	9.81977E-05	0	0	0	
0.178	0.00428751	0.00230237	0.000133742	0.000120937	0	0	0	
0.178167	0.00301229	0.0109171	0.000128483	0.000181197	0	0	0	
0.178333	0.00368738	-0.00438221	0.000114417	0.000190315	0	0	0	
0.1785	-0.00821345	-0.00759157	8.98829E-05	0.000257403	0	0	0	
0.178667	0.00068949	0.00885793	0.00012795	0.000209703	0	0	0	
0.178833	0.00826963	-0.00215882	0.000189788	0.000229466	0	0	0	
0.179	-0.0104028	-0.0013235	0.0002022	0.000118058	0	0	0	
0.179167	0.00403356	-0.00213365	0.00020982	8.26823E-05	0	0	0	
0.179333	0.00459489	-0.00579704	0.000199893	0.000106831	0	0	0	
0.1795	-0.00310503	0.0160187	0.000183063	0.000209627	0	0	0	
0.179667	0.0017847	-0.0112602	0.000111188	0.000276555	0	0	0	
0.179833	-0.00321039	0.000728164	6.32019E-05	0.000250855	0	0	0	
0.18	-0.00196904	-0.00249458	5.89171E-05	0.000155694	0	0	0	
0.180167	0.00695388	0.00514553	0.000108619	0.000154082	0	0	0	
0.180333	-0.00450452	-0.00627867	0.000119726	0.000139156	0	0	0	
0.1805	-0.00372925	-0.000583277	0.000146519	0.0001527	0	0	0	
0.180667	0.00678106	0.00460169	0.000125838	9.26101E-05	0	0	0	
0.180833	-0.00286257	0.0039185	0.000164343	7.75637E-05	0	0	0	
0.181	-0.00552606	-0.00601556	0.000266101	8.14334E-05	0	0	0	
0.181167	0.0154175	-0.00118411	0.000394159	9.54888E-05	0	0	0	
0.181333	-0.0150153	-0.00175424	0.000428237	8.27611E-05	0	0	0	
0.1815	0.0100193	0.00398171	0.000342289	7.00053E-05	0	0	0	
0.181667	-0.014805	0.0025777	0.00025906	5.99004E-05	0	0	0	
0.181833	0.0149395	-0.000605406	0.000263897	7.23344E-05	0	0	0	
0.182	0.00113668	-0.00614894	0.000238052	0.000120594	0	0	0	
0.182167	-0.00741773	0.00880986	0.000189148	0.000171117	0	0	0	
0.182333	0.00109201	-0.0064942	0.000137664	0.000186404	0	0	0	
0.1825	0.0068893	0.00509676	0.000163694	0.00014486	0	0	0	
0.182667	-0.0131821	-0.00796352	0.000186729	0.000123046	0	0	0	
0.182833	0.00726262	0.00798183	0.000204726	0.000128216	0	0	0	
0.183	0.00695414	-0.00678957	0.000160982	0.000152521	0	0	0	
0.183167	-0.00968888	0.00707721	0.000156759	0.000164776	0	0	0	
0.183333	0.00606078	-0.00490473	0.000145525	0.000156144	0	0	0	
0.1835	0.000988226	0.00890516	0.000205388	0.000141801	0	0	0	
0.183667	-0.00928114	-0.00870377	0.000253327	0.000162514	0	0	0	
0.183833	0.0150827	6.73451E-05	0.000290044	0.000167254	0	0	0	
0.184	-0.015142	-0.00047991	0.00029651	0.000142605	0	0	0	
0.184167	0.0107544	0.00838861	0.000276714	9.0372E-05	0	0	0	
0.184333	-0.00729881	-0.00464795	0.000244163	0.000109541	0	0	0	
0.1845	0.00236611	0.00752158	0.00019861	0.000165293	0	0	0	
0.184667	0.00215503	-0.014353	0.000171193	0.00021236	0	0	0	
0.184833	-0.00311884	0.0127719	0.000154134	0.000239711	0	0	0	
0.185	0.00213701	-0.0123215	0.000119471	0.000238757	0	0	0	
0.185167	0.00101282	0.0151323	8.85406E-05	0.000251238	0	0	0	
0.185333	-0.00296953	-0.0120821	5.36698E-05	0.000249575	0	0	0	
0.1855	-0.000171042	0.00587778	4.84165E-05	0.000239822	0	0	0	
0.185667	-0.000778606	-0.00887552	3.91511E-05	0.000202415	0	0	0	
0.185833	0.00177645	0.00457198	3.31135E-05	0.000168171	0	0	0	
0.186	-0.000133509	0.000431503	3.34251E-05	0.000125577	0	0	0	
0.186167	-0.00104143	0.000579573	3.84191E-05	0.000114515	0	0	0	
0.186333	-0.00416868	-0.00812217	6.29488E-05	0.000138561	0	0	0	
0.1865	0.00320748	0.0105077	7.40606E-05	0.000196205	0	0	0	
0.186667	0.00150593	-0.00761423	8.78775E-05	0.000219068	0	0	0	
0.186833	-0.00123473	-5.17772E-05	6.64183E-05	0.000179437	0	0	0	
0.187	-0.000742768	-0.000208016	5.90989E-05	0.000121588	0	0	0	
0.187167	-0.00286495	0.000528801	4.24946E-05	7.63745E-05	0	0	0	
0.187333	0.00288703	0.00253699	4.71717E-05	7.12454E-05	0	0	0	
0.1875	-0.0010763	-0.00014756	5.15426E-05	6.21539E-05	0	0	0	
0.187667	-0.00190134	-0.00437427	5.04091E-05	8.47343E-05	0	0	0	
0.187833	0.00139159	0.0101676	4.35719E-05	8.98569E-05	0	0	0	
0.188	0.000607436	-0.00758539	3.84304E-05	0.000142152	0	0	0	
0.188167	0.00226377	0.00494268	4.27406E-05	0.00015004	0	0	0	
0.188333	-0.0043354	-0.00936422	5.39064E-05	0.000149877	0	0	0	
0.1885	0.00362582	0.0114149	6.01067E-05	0.000164898	0	0	0	
0.188667	-0.0047763	-0.0129731	7.95928E-05	0.000188741	0	0	0	
0.188833	0.000938054	0.0180432	8.47251E-05	0.000252345	0	0	0	
0.189	0.00110327	-0.0163171	0.000104336	0.000290205	0	0	0	
0.189167	-0.00134488	0.00932318	7.74601E-05	0.000290436	0	0	0	
0.189333	-0.00171618	-0.0113776	0.00010496	0.000258378	0	0	0	
0.1895	0.00721711	0.0166262	0.000104334	0.00024503	0	0	0	
0.189667	-0.00138478	-0.00956217	0.000149177	0.000248891	0	0	0	
0.189833	-0.00826873	-0.00133675	0.000124838	0.000238207	0	0	0	
0.19	-0.00358562	-0.0060397	0.000166102	0.000183322	0	0	0	
0.190167	0.0116873	0.0123082	0.000192046	0.000170612	0	0	0	
0.190333	-0.000774151	-0.000278856	0.000209171	0.000160273	0	0	0	
0.1905	-0.00424473	-0.00547735	0.000182117	0.000122959	0	0	0	
0.190667	-0.00648936	-0.0102996	0.000161041	0.000172893	0	0	0	
0.190833	0.0115286	0.0250814	0.000172411	0.000264591	0	0	0	
0.191	0.000170232	-0.0185893	0.000223949	0.000389034	0	0	0	
0.191167	-0.012973	0.00152322	0.000276206	0.000357754	0	0	0	
0.191333	0.00356993	-0.00701666	0.00028611	0.000259332	0	0	0	
0.1915	0.0133749	0.0230408	0.000318981	0.000249732	0	0	0	
0.191667	-0.0096692	-0.0185921	0.000270635	0.000288281	0	0	0	
0.191833	-0.00634035	0.00104894	0.000286918	0.000368109	0	0	0	
0.192	0.00115335	-0.00468805	0.000176873	0.000280121	0	0	0	
0.192167	0.0109873	0.0112094	0.000186672	0.000222734	0	0	0	
0.192333	-0.00624757	-0.00659145	0.000155312	0.000167351	0	0	0	
0.1925	-0.00324033	-0.00291657	0.000159934	0.000208455	0	0	0	
0.192667	-0.000467625	0.00123772	0.000119378	0.000168948	0	0	0	
0.192833	0.00327432	0.003879	9.5646E-05	0.000135571	0	0	0	
0.193	-0.00286059	0.00197089	8.36187E-05	7.96148E-05	0	0	0	
0.193167	-0.000376751	-0.00621172	7.18379E-05	0.000142647	0	0	0	
0.193333	0.00341004	-0.00447429	5.03343E-05	0.00027021	0	0	0	
0.1935	-0.00452133	0.0158417	6.64187E-05	0.000411391	0	0	0	
0.193667	-7.37104E-05	-0.0153383	8.83799E-05	0.000471294	0	0	0	
0.193833	-0.00167213	0.0175748	0.000103081	0.000420652	0	0	0	
0.194	0.00210512	-0.0152175	8.80951E-05	0.000359561	0	0	0	
0.194167	0.000110199	0.00827404	9.91959E-05	0.000283246	0	0	0	
0.194333	-0.00526297	0.00265584	0.00012527	0.000250292	0	0	0	
0.1945	0.00530339	-0.00925819	0.000135007	0.000207308	0	0	0	
0.194667	-0.000582974	0.00543641	0.000125998	0.00019087	0	0	0	
0.194833	-0.00457283	0.00624701	0.000100238	0.000185706	0	0	0	
0.195	0.00422886	-0.000769486	9.56843E-05	0.000166294	0	0	0	
0.195167	-0.00497703	-0.0106034	9.04546E-05	0.000152284	0	0	0	
0.195333	0.00158237	0.00828334	0.000136579	0.000164241	0	0	0	
0.1955	0.00777607	0.0028064	0.000224179	0.000238007	0	0	0	
0.195667	-0.0139741	-0.00727921	0.00026831	0.000294468	0	0	0	
0.195833	0.00694087	0.00882925	0.000263226	0.000304326	0	0	0	
0.196	0.00478846	-0.00906099	0.000223612	0.000305081	0	0	0	
0.196167	-0.00872459	0.00943639	0.000187723	0.000294255	0	0	0	
0.196333	0.00701209	-0.00958388	0.000170282	0.000251979	0	0	0	
0.1965	-0.00210156	0.00496047	0.000145844	0.000195154	0	0	0	
0.196667	-0.00176425	0.000786493	0.000130795	0.000121167	0	0	0	
0.196833	-0.00175015	-0.0015635	0.000103891	9.12421E-05	0	0	0	
0.197	0.000957257	-0.000250406	9.20606E-05	7.81808E-05	0	0	0	
0.197167	0.00346013	-0.000602872	0.000104252	0.000117906	0	0	0	
0.197333	-0.0036038	0.00223483	0.000105667	0.000138011	0	0	0	
0.1975	0.00381028	-0.00142801	9.53741E-05	0.000117741	0	0	0	
0.197667	-0.00522491	0.00414604	8.79752E-05	9.34834E-05	0	0	0	
0.197833	0.00382578	-0.00428858	8.88155E-05	8.85733E-05	0	0	0	
0.198	0.00217512	0.00114369	0.000111644	0.000111877	0	0	0	
0.198167	-0.00618928	-0.00185368	0.000116843	0.000133909	0	0	0	
0.198333	0.00418345	0.00627136	0.000128273	0.000143148	0	0	0	
0.1985	-0.00329536	-0.000134809	0.000105575	0.000129788	0	0	0	
0.198667	-0.00219271	-0.00116476	0.000120359	0.000145675	0	0	0	
0.198833	0.0104796	0.00492189	0.000136705	0.000155616	0	0	0	
0.199	-0.00662037	-0.00278789	0.000159085	0.000156388	0	0	0	
0.199167	0.0016861	0.00313944	0.000134359	0.000125664	0	0	0	
0.199333	-0.00397114	-0.004755	0.000106164	0.000110996	0	0	0	
0.1995	0.00299761	0.0062415	8.22548E-05	0.000110519	0	0	0	
0.199667	-0.00113094	0.00140416	7.60933E-05	9.33831E-05	0	0	0	
0.199833	-0.000364749	0.000253357	6.88308E-05	7.06152E-05	0	0	0	
0.2	0.0027648	-0.00145704	6.73939E-05	7.7791E-05	0	0	0	
0.200167	0.00139132	-0.00159405	6.52372E-05	9.79657E-05	0	0	0	
0.200333	-0.00324842	0.000892686	7.51452E-05	0.000123471	0	0	0	
0.2005	0.00311393	0.0039572	7.77941E-05	0.000143316	0	0	0	
0.200667	-0.00244812	-0.00455237	6.79537E-05	0.000156367	0	0	0	
0.200833	5.72243E-05	0.000419964	5.33575E-05	0.000128265	0	0	0	
0.201	-0.0002653	-0.000248482	3.82456E-05	8.00843E-05	0	0	0	
0.201167	0.00396561	-0.00102	4.01584E-05	6.24256E-05	0	0	0	
0.201333	-0.00284349	0.000395234	4.98013E-05	7.05794E-05	0	0	0	
0.2015	0.00197187	-0.0028999	5.19105E-05	7.48122E-05	0	0	0	
0.201667	-0.00165013	0.00163497	4.86764E-05	7.07897E-05	0	0	0	
0.201833	-6.08492E-05	0.00154774	3.39291E-05	7.18426E-05	0	0	0	
0.202	0.00246348	-0.00328659	2.87792E-05	7.65703E-05	0	0	0	
0.202167	0.00132676	-0.00385167	3.99928E-05	7.53278E-05	0	0	0	
0.202333	-0.00506962	0.00111925	6.07737E-05	0.000102105	0	0	0	
0.2025	0.00127338	0.0037778	7.3198E-05	0.000106783	0	0	0	
0.202667	0.00283119	-0.000761244	6.00536E-05	0.000106492	0	0	0	
0.202833	-0.00194428	-0.00402299	4.81079E-05	6.24098E-05	0	0	0	
0.203	0.00196391	0.00121926	5.03554E-05	8.41871E-05	0	0	0	
0.203167	-0.000422221	-0.00124073	6.82007E-05	9.74097E-05	0	0	0	
0.203333	-0.00133003	0.00632988	8.89531E-05	0.000121422	0	0	0	
0.2035	0.00229399	-0.000862796	0.000104052	0.000113036	0	0	0	
0.203667	-0.00339155	-0.00866224	9.86505E-05	0.000141815	0	0	0	
0.203833	0.00464062	0.0076007	8.56975E-05	0.000176251	0	0	0	
0.204	-0.00214853	-0.00344298	7.95305E-05	0.000159938	0	0	0	
0.204167	-0.00321791	0.000664427	8.28409E-05	0.000111414	0	0	0	
0.204333	0.00351048	0.00647833	8.28637E-05	6.81055E-05	0	0	0	
0.2045	-0.00364162	-0.00346893	7.7144E-05	8.48295E-05	0	0	0	
0.204667	0.000236513	-0.00345747	9.43663E-05	0.000134938	0	0	0	
0.204833	0.00341811	0.000478865	0.000100287	0.00020218	0	0	0	
0.205	-0.00169957	-0.0003132	9.77721E-05	0.000235456	0	0	0	
0.205167	-0.000283413	0.0026822	9.48896E-05	0.000232432	0	0	0	
0.205333	-0.00878447	-0.00147098	0.000134965	0.000220093	0	0	0	
0.2055	0.00861559	0.00501369	0.000170495	0.000205071	0	0	0	
0.205667	0.00106464	-0.000196178	0.000182174	0.000147251	0	0	0	
0.205833	-0.00706582	-0.0109009	0.000139301	9.59572E-05	0	0	0	
0.206	-0.00128859	0.00234481	0.000163652	0.000140104	0	0	0	
0.206167	0.0115573	0.015917	0.0001995	0.000284295	0	0	0	
0.206333	-0.00524114	-0.0098825	0.000233377	0.000334133	0	0	0	
0.2065	-0.00967866	-0.0101723	0.000246001	0.000319537	0	0	0	
0.206667	0.00691323	0.00110726	0.000212016	0.000234906	0	0	0	
0.206833	0.00591742	0.026964	0.000229024	0.000353229	0	0	0	
0.207	-0.000412218	-0.0199332	0.000147995	0.0004022	0	0	0	
0.207167	-0.00903971	-0.00438477	0.000142315	0.000451875	0	0	0	
0.207333	0.00412023	0.000533061	0.000123642	0.000310105	0	0	0	
0.2075	0.00871726	0.0162554	0.000217086	0.000349351	0	0	0	
0.207667	-0.0115777	-0.0114062	0.000232626	0.000307376	0	0	0	
0.207833	0.00217941	-0.0137364	0.000240108	0.000358012	0	0	0	
0.208	0.00550481	0.00933416	0.00016303	0.000308987	0	0	0	
0.208167	0.00457381	0.0149021	0.000182909	0.000468105	0	0	0	
0.208333	-0.0159034	-0.0113344	0.000186922	0.000477157	0	0	0	
0.2085	0.0045643	-0.00386883	0.000250986	0.000397548	0	0	0	
0.208667	0.00823787	-0.00584269	0.000265272	0.000271494	0	0	0	
0.208833	-0.0026728	0.014469	0.000232938	0.000268162	0	0	0	
0.209	-0.00561793	-0.00778541	0.000194256	0.00028292	0	0	0	
0.209167	-0.000690256	0.00351483	0.000112361	0.000204979	0	0	0	
0.209333	0.00238972	-0.00591734	9.50014E-05	0.000132225	0	0	0	
0.2095	0.00102375	-0.00278447	7.50665E-05	8.97785E-05	0	0	0	
0.209667	-0.00254268	0.007625	0.000103174	9.83077E-05	0	0	0	
0.209833	-0.00103568	-0.00557805	0.000106136	0.000115387	0	0	0	
0.21	-0.00142386	-0.00328134	7.77664E-05	0.000190136	0	0	0	
0.210167	0.00306534	0.00791578	4.75276E-05	0.000211904	0	0	0	
0.210333	-0.00992639	-0.00204491	8.74196E-05	0.000194551	0	0	0	
0.2105	0.0228659	0.00180485	0.000254004	0.000138383	0	0	0	
0.210667	-0.0405341	-0.00908948	0.000497944	0.000137691	0	0	0	
0.210833	0.0542293	0.00182713	0.000701613	0.000143194	0	0	0	
0.211	-0.0520792	0.00313462	0.000885357	0.000134362	0	0	0	
0.211167	0.0309851	-0.00782319	0.000971102	0.000127769	0	0	0	
0.211333	0.000865189	0.00406831	0.000991857	0.000170024	0	0	0	
0.2115	-0.0289334	-0.000719618	0.000820384	0.000186436	0	0	0	
0.211667	0.031299	0.00179108	0.000650757	0.000206725	0	0	0	
0.211833	-0.0123516	0.00717308	0.000610407	0.000247421	0	0	0	
0.212	-0.00637965	-0.0150258	0.000749855	0.000285058	0	0	0	
0.212167	0.0236248	0.0010784	0.000956033	0.000265442	0	0	0	
0.212333	-0.0342697	0.00069694	0.00102979	0.000146308	0	0	0	
0.2125	0.0297389	0.00797461	0.000907406	8.99032E-05	0	0	0	
0.212667	-0.0216399	-0.00145892	0.000678427	7.79601E-05	0	0	0	
0.212833	0.0158423	-0.0116685	0.000482456	0.000102277	0	0	0	
0.213	-0.0078749	0.000938718	0.000406133	0.000178161	0	0	0	
0.213167	-0.0011421	0.013306	0.000356944	0.000254665	0	0	0	
0.213333	0.00705736	-0.00152646	0.00028938	0.000263778	0	0	0	
0.2135	-0.0101193	-0.00998491	0.000231628	0.000186278	0	0	0	
0.213667	0.00959912	-0.00255822	0.000185002	0.000166884	0	0	0	
0.213833	-0.0042485	0.00647654	0.000179722	0.000207586	0	0	0	
0.214	4.77195E-06	0.00395448	0.000140443	0.000199931	0	0	0	
0.214167	-0.000818426	-0.00279183	0.000101692	0.000149929	0	0	0	
0.214333	0.000528163	-0.00724218	8.03995E-05	0.000205118	0	0	0	
0.2145	0.00316498	0.00408256	7.69271E-05	0.00026105	0	0	0	
0.214667	-0.00350464	0.000214838	8.61698E-05	0.000223503	0	0	0	
0.214833	0.00183447	0.000427597	6.65604E-05	0.000112322	0	0	0	
0.215	0.0003881	-0.0032985	6.54024E-05	8.33619E-05	0	0	0	
0.215167	-0.00359567	-3.08622E-05	5.12667E-05	8.93004E-05	0	0	0	
0.215333	0.000209485	0.00657337	7.66499E-05	0.000106441	0	0	0	
0.2155	0.00332297	-0.0066723	8.72348E-05	0.000107587	0	0	0	
0.215667	-0.00293197	-0.00312193	9.34736E-05	0.000154314	0	0	0	
0.215833	-0.000417341	0.00280825	7.17648E-05	0.000138085	0	0	0	
0.216	0.00321001	0.00191949	5.22366E-05	0.00010424	0	0	0	
0.216167	-0.00768582	-0.000519296	6.54399E-05	7.87299E-05	0	0	0	
0.216333	0.00442293	-0.00318806	9.66856E-05	9.72341E-05	0	0	0	
0.2165	-8.01593E-05	0.0015529	0.000125771	0.000112428	0	0	0	
0.216667	-0.00220537	-0.000653914	0.000107606	9.91851E-05	0	0	0	
0.216833	0.000153904	0.00675583	7.58096E-05	0.000116422	0	0	0	
0.217	0.000268117	-0.00838438	3.98016E-05	0.000150669	0	0	0	
0.217167	-0.00188535	0.00142618	4.41339E-05	0.000153188	0	0	0	
0.217333	0.00530662	0.00412305	5.9287E-05	0.000138571	0	0	0	
0.2175	-0.00494147	-0.00450037	7.51512E-05	9.03073E-05	0	0	0	
0.217667	-0.000656281	0.00345405	9.04898E-05	0.000103811	0	0	0	
0.217833	0.000732177	-0.002949	7.12271E-05	7.9821E-05	0	0	0	
0.218	0.00151481	0.00629439	4.74189E-05	9.72546E-05	0	0	0	
0.218167	0.0012033	-0.00218834	4.03246E-05	0.000142011	0	0	0	
0.218333	-0.00292308	-0.0108437	4.76776E-05	0.00023271	0	0	0	
0.2185	-0.00286904	0.0122584	7.5923E-05	0.000285105	0	0	0	
0.218667	0.00707531	-0.00454538	8.10113E-05	0.000245064	0	0	0	
0.218833	-0.000959721	0.00596435	0.000107503	0.000172235	0	0	0	
0.219	-0.00622817	-0.00819616	0.000125262	0.000141665	0	0	0	
0.219167	0.00485823	0.00182685	0.000125885	0.000119728	0	0	0	
0.219333	0.00135243	0.00386745	0.000115144	0.000116019	0	0	0	
0.2195	0.000107758	-0.00220241	8.35834E-05	0.000101846	0	0	0	
0.219667	-0.000604279	-0.00709628	5.94638E-05	0.000159967	0	0	0	
0.219833	-0.000673755	0.00918714	5.36057E-05	0.000175181	0	0	0	
0.22	0.00423672	0.00104787	7.29319E-05	0.000172753	0	0	0	
0.220167	-0.00645169	-0.0055331	9.3498E-05	0.000104613	0	0	0	
0.220333	0.00569744	-0.00144315	0.000122965	9.48209E-05	0	0	0	
0.2205	0.0032153	0.00430315	0.000149413	0.000106443	0	0	0	
0.220667	-0.00696033	0.00014568	0.000163109	0.000114876	0	0	0	
0.220833	0.00326719	-0.00232522	0.000139248	9.58406E-05	0	0	0	
0.221	-0.00305847	-0.00154184	9.07836E-05	9.73604E-05	0	0	0	
0.221167	0.00654344	0.00331897	8.27412E-05	0.000107682	0	0	0	
0.221333	-0.000408711	0.000955859	7.56694E-05	9.32947E-05	0	0	0	
0.2215	-0.00697682	-0.00364528	0.000113997	5.24808E-05	0	0	0	
0.221667	0.00312218	0.00450315	9.9791E-05	6.51098E-05	0	0	0	
0.221833	0.00258481	-0.00235349	0.000151047	0.00011592	0	0	0	
0.222	-0.00530217	-0.000322454	0.000141474	0.000140316	0	0	0	
0.222167	-0.00135785	-0.00750297	0.000154662	0.000126604	0	0	0	
0.222333	0.00556598	0.00777523	0.000105317	0.000162535	0	0	0	
0.2225	0.00500238	0.011404	0.000171509	0.00028216	0	0	0	
0.222667	-0.00818108	-0.0143221	0.000181984	0.000349957	0	0	0	
0.222833	-0.00832171	-0.00588472	0.000255361	0.000333251	0	0	0	
0.223	0.0124744	0.00982094	0.000204029	0.000241281	0	0	0	
0.223167	0.00625637	0.00161952	0.000284143	0.000219442	0	0	0	
0.223333	-0.00788752	-0.000914919	0.000241717	0.00014486	0	0	0	
0.2235	-0.00920662	-0.0197905	0.000254244	0.000193657	0	0	0	
0.223667	0.00733576	0.0186211	0.000180879	0.000229687	0	0	0	
0.223833	0.0101335	0.00563704	0.000226397	0.000410443	0	0	0	
0.224	-0.0092712	-0.00722503	0.000209203	0.000355018	0	0	0	
0.224167	-0.0078629	-0.014244	0.00027929	0.000348692	0	0	0	
0.224333	0.0138587	0.0141289	0.000237876	0.000239115	0	0	0	
0.2245	-0.00251319	-0.00052866	0.000275403	0.00035459	0	0	0	
0.224667	-0.00587052	-0.00313975	0.000223742	0.000329441	0	0	0	
0.224833	-0.000269383	-0.0034188	0.000178181	0.00028702	0	0	0	
0.225	0.00440283	-0.00210677	0.000109229	0.000233213	0	0	0	
0.225167	0.00163641	0.010802	8.18869E-05	0.000246462	0	0	0	
0.225333	-0.00891925	-0.00631931	0.000117574	0.00026092	0	0	0	
0.2255	0.00335554	-0.00146011	0.000130184	0.000178866	0	0	0	
0.225667	0.00209705	0.00327455	0.000137307	0.000100304	0	0	0	
0.225833	-0.00424222	-0.00807583	0.00011122	8.71754E-05	0	0	0	
0.226	0.0049309	0.0121614	0.000102906	0.000115879	0	0	0	
0.226167	-0.00531308	-0.00610575	8.91127E-05	0.000174598	0	0	0	
0.226333	0.00385361	0.00197514	9.06368E-05	0.000181508	0	0	0	
0.2265	-0.00311318	-0.0109035	0.000101042	0.000164719	0	0	0	
0.226667	-0.000730701	0.0102221	0.000103753	0.000151503	0	0	0	
0.226833	0.00309476	-0.00660677	0.000113815	0.000186812	0	0	0	
0.227	-0.00435239	0.00506141	9.57692E-05	0.000225325	0	0	0	
0.227167	-0.000275224	-0.000179686	8.33196E-05	0.00023613	0	0	0	
0.227333	0.00513748	-0.00024484	7.76599E-05	0.000214303	0	0	0	
0.2275	-0.00320291	-0.00191153	8.69498E-05	0.000180844	0	0	0	
0.227667	0.00304093	-0.00609491	9.66041E-05	0.000166632	0	0	0	
0.227833	-0.000818776	0.00492274	0.000111613	0.000179259	0	0	0	
0.228	0.00145255	-0.00147065	0.000107928	0.00016366	0	0	0	
0.228167	-0.00384778	-0.00312377	8.98151E-05	0.00012443	0	0	0	
0.228333	0.0059312	0.0138367	7.8892E-05	0.000110487	0	0	0	
0.2285	-0.0017831	-0.0158652	0.000116556	0.000169609	0	0	0	
0.228667	-0.00446978	0.012721	0.000168578	0.000242865	0	0	0	
0.228833	0.00686841	-0.00709745	0.000177619	0.000286566	0	0	0	
0.229	-0.00122965	0.0042838	0.00013732	0.000251918	0	0	0	
0.229167	-0.0039967	-0.00689757	0.000122564	0.000208475	0	0	0	
0.229333	0.00645521	0.00091487	0.00011045	0.000157827	0	0	0	
0.2295	-0.00526508	0.00645733	0.000132822	0.000122358	0	0	0	
0.229667	0.00362026	0.00183181	0.000115674	9.84795E-05	0	0	0	
0.229833	-0.00837713	-0.00746355	0.000112398	8.97178E-05	0	0	0	
0.23	0.00267508	0.00464561	0.000138706	0.000107366	0	0	0	
0.230167	0.00422429	-0.00572507	0.000164717	0.000144273	0	0	0	
0.230333	-0.00235587	0.00450552	0.00015322	0.000150221	0	0	0	
0.2305	-0.00146373	-0.00399487	9.34591E-05	0.000127931	0	0	0	
0.230667	-0.00154141	0.004643	5.68161E-05	0.000114377	0	0	0	
0.230833	0.00498391	-0.00254079	7.70535E-05	0.000132301	0	0	0	
0.231	-0.004632	-0.000632679	9.53503E-05	0.000163918	0	0	0	
0.231167	0.000889192	-0.0025562	9.78681E-05	0.000135723	0	0	0	
0.231333	0.0047722	0.00352133	8.94276E-05	9.88085E-05	0	0	0	
0.2315	-0.00383985	-0.00208208	8.71918E-05	6.85294E-05	0	0	0	
0.231667	0.000426166	0.00254535	9.07976E-05	8.27248E-05	0	0	0	
0.231833	-0.000409954	-0.00770154	6.94446E-05	0.000100546	0	0	0	
0.232	0.00315483	0.0114854	5.50457E-05	0.000145659	0	0	0	
0.232167	-0.0010706	-0.00820919	4.22584E-05	0.000161256	0	0	0	
0.232333	0.00163455	0.00291904	4.53759E-05	0.000169247	0	0	0	
0.2325	-0.00124524	-0.00534913	4.42752E-05	0.000147249	0	0	0	
0.232667	0.000141653	0.00705014	3.20984E-05	0.000139864	0	0	0	
0.232833	-0.00164063	-0.00362479	2.6005E-05	0.000127981	0	0	0	
0.233	0.00231966	0.00380415	2.83399E-05	0.000112572	0	0	0	
0.233167	-0.000909231	-0.00347729	4.34383E-05	0.000117804	0	0	0	
0.233333	-0.000592447	0.00532887	6.01621E-05	0.000111485	0	0	0	
0.2335	0.00228677	-0.00707987	6.61654E-05	0.000133546	0	0	0	
0.233667	0.00237184	0.00594752	6.71156E-05	0.000126993	0	0	0	
0.233833	-0.00597822	-0.00774643	7.55462E-05	0.000140257	0	0	0	
0.234	0.00324206	0.0091873	0.000101337	0.00014123	0	0	0	
0.234167	-3.42693E-05	-0.0066245	0.000140911	0.000150348	0	0	0	
0.234333	-0.00215798	0.00514115	0.000168713	0.000146391	0	0	0	
0.2345	0.00585473	-0.00793935	0.000151561	0.000156784	0	0	0	
0.234667	-0.00335741	0.00753426	0.000125787	0.000157122	0	0	0	
0.234833	-0.00140626	-0.00629466	7.72203E-05	0.000167327	0	0	0	
0.235	0.00269602	0.00370625	7.20224E-05	0.000163814	0	0	0	
0.235167	-0.00464704	-0.0013696	5.64754E-05	0.000162054	0	0	0	
0.235333	0.00662926	0.00149172	8.47548E-05	0.000138772	0	0	0	
0.2355	-0.00363355	-0.00483764	9.60711E-05	0.000115554	0	0	0	
0.235667	0.00363917	0.00412888	9.13681E-05	9.57418E-05	0	0	0	
0.235833	-0.00419638	-0.00551393	8.86532E-05	9.02057E-05	0	0	0	
0.236	-0.00109602	0.00713258	9.21366E-05	0.000102836	0	0	0	
0.236167	0.00414259	-0.00319527	0.00011214	0.000111114	0	0	0	
0.236333	-0.00424471	0.00556583	0.000108762	0.000130603	0	0	0	
0.2365	0.00361985	-0.00874315	9.70614E-05	0.00014607	0	0	0	
0.236667	-0.00145622	0.00804584	7.33734E-05	0.000154556	0	0	0	
0.236833	-0.000361243	-0.00792182	5.96495E-05	0.000166839	0	0	0	
0.237	0.00288561	0.00397449	5.90757E-05	0.000177087	0	0	0	
0.237167	-0.0063164	-0.000435929	6.99425E-05	0.000178752	0	0	0	
0.237333	0.00591031	0.00530285	0.000101864	0.000167352	0	0	0	
0.2375	0.00136849	-0.000541813	0.000156306	0.000147703	0	0	0	
0.237667	-0.00561919	-0.00620683	0.000193668	0.000163326	0	0	0	
0.237833	0.00439233	0.000483905	0.000167236	0.000149942	0	0	0	
0.238	-0.000689003	0.00466068	0.000126346	0.000118888	0	0	0	
0.238167	-6.34603E-05	0.00184725	7.73862E-05	9.71684E-05	0	0	0	
0.238333	-0.000875108	-0.00620748	5.42761E-05	0.000132938	0	0	0	
0.2385	-0.000629384	-0.000491264	3.42566E-05	0.000151181	0	0	0	
0.238667	0.00771171	0.01527	4.37467E-05	0.000180738	0	0	0	
0.238833	-7.36078E-05	-0.0144072	9.30546E-05	0.000217675	0	0	0	
0.239	-0.0101069	-0.00307077	0.000152457	0.000276148	0	0	0	
0.239167	0.00533816	0.00304864	0.000169912	0.000221652	0	0	0	
0.239333	0.00891484	0.0166844	0.000223887	0.000205542	0	0	0	
0.2395	-0.0104884	-0.0116901	0.000191605	0.000191527	0	0	0	
0.239667	-0.00450338	-0.00347433	0.000280536	0.00030423	0	0	0	
0.239833	0.0103243	-0.00243598	0.000227241	0.000245982	0	0	0	
0.24	0.00666037	0.0174997	0.000267531	0.000279465	0	0	0	
0.240167	-0.0117371	-0.0137727	0.000196285	0.00022889	0	0	0	
0.240333	-0.00565401	-0.00304298	0.000228764	0.000359837	0	0	0	
0.2405	0.00796787	0.0105685	0.000187191	0.000293798	0	0	0	
0.240667	0.0103564	0.0145732	0.00023036	0.000337907	0	0	0	
0.240833	-0.0187766	-0.0278163	0.000236347	0.000312408	0	0	0	
0.241	0.0045875	0.00846013	0.000306661	0.000395565	0	0	0	
0.241167	0.00763159	0.000361089	0.000314417	0.000303925	0	0	0	
0.241333	-0.00152975	0.0207475	0.000274943	0.000278528	0	0	0	
0.2415	-0.0124434	-0.0218269	0.000230949	0.000268516	0	0	0	
0.241667	0.00589232	-0.0010725	0.00020394	0.000414443	0	0	0	
0.241833	0.00825009	0.00675362	0.00024174	0.000397603	0	0	0	
0.242	-0.00364877	0.00724589	0.000207479	0.00032967	0	0	0	
0.242167	-0.00621874	-0.0024221	0.000198952	0.000187719	0	0	0	
0.242333	0.00551922	-0.00430923	0.000143419	0.000116088	0	0	0	
0.2425	-0.00244028	-0.00526639	0.000136806	0.000105646	0	0	0	
0.242667	0.00117978	0.0125423	8.14993E-05	0.000132962	0	0	0	
0.242833	-0.00540673	-0.0089181	7.93496E-05	0.00018114	0	0	0	
0.243	0.0120292	0.00925135	0.000102711	0.000199089	0	0	0	
0.243167	-0.00583237	-0.00842674	0.000150574	0.000202454	0	0	0	
0.243333	0.000813436	0.0104377	0.000150977	0.000190341	0	0	0	
0.2435	-0.00500296	-0.00826784	0.000128684	0.000207097	0	0	0	
0.243667	0.00874482	0.00498381	9.97669E-05	0.000192267	0	0	0	
0.243833	0.000183327	-0.00760179	0.000160658	0.000184835	0	0	0	
0.244	-0.020374	-0.00494883	0.000299714	0.00019241	0	0	0	
0.244167	0.0654241	0.0150754	0.000614134	0.000248016	0	0	0	
0.244333	-0.108606	0.00247397	0.00113243	0.000269502	0	0	0	
0.2445	0.126286	-0.0353407	0.0016742	0.000439711	0	0	0	
0.244667	-0.0967142	0.0473589	0.00205816	0.000590566	0	0	0	
0.244833	0.0329309	-0.0560548	0.00221761	0.000861929	0	0	0	
0.245	0.0369289	0.040803	0.00223914	0.00102604	0	0	0	
0.245167	-0.0736405	0.00282363	0.00194432	0.00105925	0	0	0	
0.245333	0.0814779	-0.0325294	0.00164361	0.000988944	0	0	0	
0.2455	-0.0509625	0.035785	0.00155232	0.000742279	0	0	0	
0.245667	-0.00128131	-0.0113304	0.00193335	0.000726619	0	0	0	
0.245833	0.0621774	-0.0289206	0.00231768	0.000780257	0	0	0	
0.246	-0.0923334	0.0379757	0.00232087	0.000936843	0	0	0	
0.246167	0.077462	-0.0137917	0.00198967	0.000863238	0	0	0	
0.246333	-0.0490907	0.0162784	0.00158402	0.000632419	0	0	0	
0.2465	0.0284862	-0.0164667	0.00134562	0.000456339	0	0	0	
0.246667	-0.00659139	0.00531326	0.00117079	0.00034862	0	0	0	
0.246833	-0.0110376	0.00113313	0.00100613	0.000315966	0	0	0	
0.247	0.0247082	0.00993286	0.000850355	0.000204298	0	0	0	
0.247167	-0.030589	-0.0134138	0.000719706	0.000185891	0	0	0	
0.247333	0.0200058	0.0026317	0.000593056	0.000241417	0	0	0	
0.2475	-0.00538607	0.0053942	0.000473541	0.000310155	0	0	0	
0.247667	0.00212977	0.00102481	0.000365621	0.000243017	0	0	0	
0.247833	-0.00133705	-0.00927674	0.000255991	0.000156547	0	0	0	
0.248	-0.00292331	0.00267687	0.000169733	0.000132447	0	0	0	
0.248167	0.00447568	0.00112797	0.000135038	0.000168525	0	0	0	
0.248333	-0.00372902	0.00708616	0.000109994	0.000159723	0	0	0	
0.2485	0.00323134	-0.00976188	0.00010382	0.0001269	0	0	0	
0.248667	0.00187167	0.00701144	0.000122874	0.000140203	0	0	0	
0.248833	-0.00573957	-0.00637228	0.000132425	0.000158073	0	0	0	
0.249	0.00280672	0.00485131	0.000119995	0.000140763	0	0	0	
0.249167	-0.00197938	-0.0027534	7.89445E-05	0.000108361	0	0	0	
0.249333	0.0027813	0.00847085	6.53877E-05	0.000112865	0	0	0	
0.2495	-0.00305754	-0.00874081	5.6162E-05	0.000141152	0	0	0	
0.249667	0.00312056	0.0104602	7.58329E-05	0.00017029	0	0	0	
0.249833	0.00440551	-0.00653283	0.000106349	0.000179299	0	0	0	
0.25	-0.00817275	0.00442848	0.000130671	0.000168582	0	0	0	
0.250167	0.00291222	-0.00444971	0.000144756	0.000140516	0	0	0	
0.250333	0.0047771	0.0121857	0.000167053	0.000147587	0	0	0	
0.2505	-0.00661212	-0.00686891	0.000160779	0.000149236	0	0	0	
0.250667	0.00469671	0.000499469	0.000145744	0.000184507	0	0	0	
0.250833	-0.00302782	-0.00215276	9.53945E-05	0.000150778	0	0	0	
0.251	0.0011809	0.00797748	9.96304E-05	0.000134513	0	0	0	
0.251167	0.00408949	-0.00323616	0.000100013	0.000100278	0	0	0	
0.251333	-0.00508908	0.001015	0.000110317	0.000100609	0	0	0	
0.2515	-0.000155225	-0.0042551	0.00010916	9.49095E-05	0	0	0	
0.251667	0.0057545	0.00559761	0.000107448	0.000102375	0	0	0	
0.251833	-0.00591289	-0.00698352	0.000113308	0.000128898	0	0	0	
0.252	0.00320071	0.00603271	0.000102858	0.000134377	0	0	0	
0.252167	-0.00154658	-0.00526614	9.24075E-05	0.000137443	0	0	0	
0.252333	0.00310528	0.00699047	7.41796E-05	0.000122956	0	0	0	
0.2525	-0.00162445	-0.00434966	6.1804E-05	0.00012269	0	0	0	
0.252667	-0.00085172	0.00163703	6.24237E-05	0.000102003	0	0	0	
0.252833	0.00305564	-0.00796941	6.34051E-05	9.84232E-05	0	0	0	
0.253	-0.00284366	0.0100901	6.94143E-05	0.000118099	0	0	0	
0.253167	-0.000541728	-0.00741886	7.2667E-05	0.00016306	0	0	0	
0.253333	0.00576024	0.00573862	8.12474E-05	0.000167637	0	0	0	
0.2535	-0.00236417	-0.00780628	9.62765E-05	0.000148566	0	0	0	
0.253667	0.00137766	0.00741128	7.19595E-05	0.000134799	0	0	0	
0.253833	-0.00284471	-0.00519968	6.63356E-05	0.000138499	0	0	0	
0.254	-0.000288519	0.00777626	4.60429E-05	0.000146082	0	0	0	
0.254167	-0.000509782	-0.0112786	6.04346E-05	0.000163181	0	0	0	
0.254333	0.00439574	0.0044351	7.46412E-05	0.000165826	0	0	0	
0.2545	-0.00752968	-0.00156264	0.000117281	0.00015813	0	0	0	
0.254667	0.00751255	0.00751089	0.000140539	0.000125744	0	0	0	
0.254833	-0.00337055	-0.00950268	0.000144099	0.000133873	0	0	0	
0.255	-0.0018282	0.00164375	0.000118585	0.000146772	0	0	0	
0.255167	0.00418624	-0.00125897	9.28216E-05	0.000132478	0	0	0	
0.255333	-0.00415168	0.0101854	7.94765E-05	0.000163559	0	0	0	
0.2555	0.0019131	-0.0134416	6.29444E-05	0.000176966	0	0	0	
0.255667	-0.00289796	0.00327942	8.49755E-05	0.000218838	0	0	0	
0.255833	0.00143052	-0.0028911	9.50384E-05	0.000153312	0	0	0	
0.256	0.00306712	0.011462	0.00012427	0.000164168	0	0	0	
0.256167	-0.00994437	-0.0179391	0.000140159	0.000203625	0	0	0	
0.256333	0.00672902	0.0092482	0.000157285	0.00026511	0	0	0	
0.2565	0.00601613	0.00491123	0.000211139	0.000254928	0	0	0	
0.256667	-0.0100763	-0.00638691	0.000199192	0.000184697	0	0	0	
0.256833	-0.00406254	-0.00995377	0.000251747	0.000201705	0	0	0	
0.257	0.00698243	0.00882693	0.000185016	0.000187726	0	0	0	
0.257167	0.00214906	0.0110431	0.000207626	0.000262883	0	0	0	
0.257333	-0.00195805	-0.0143148	0.000115657	0.000243259	0	0	0	
0.2575	-0.0111083	-0.00850652	0.000172765	0.000354283	0	0	0	
0.257667	0.0108769	0.0116252	0.000165605	0.000303426	0	0	0	
0.257833	0.00329894	0.00731452	0.000265773	0.000353324	0	0	0	
0.258	-0.01186	-0.0103671	0.000252452	0.000223991	0	0	0	
0.258167	-0.0012609	-0.011392	0.000269573	0.000324912	0	0	0	
0.258333	0.0108311	0.010624	0.000231781	0.000273319	0	0	0	
0.2585	0.00249968	0.00545964	0.000232192	0.000343587	0	0	0	
0.258667	-0.0150532	-0.00761917	0.000226589	0.000218173	0	0	0	
0.258833	-0.00160571	-0.0118692	0.000258336	0.000305216	0	0	0	
0.259	0.0130888	0.012862	0.000282559	0.000287469	0	0	0	
0.259167	-0.000732486	0.00129936	0.000258961	0.000335705	0	0	0	
0.259333	-0.00622661	-0.00939788	0.000192965	0.000200531	0	0	0	
0.2595	-0.00146584	-0.00241769	0.000128881	0.000167691	0	0	0	
0.259667	0.00281887	-0.00126751	0.000104052	9.98913E-05	0	0	0	
0.259833	-0.00280662	0.0114538	8.43083E-05	0.000115801	0	0	0	
0.26	-0.00032119	0.00105915	5.99368E-05	0.000163444	0	0	0	
0.260167	0.00421572	-0.015268	5.7103E-05	0.000264069	0	0	0	
0.260333	-0.000872919	0.0105727	4.93618E-05	0.000291975	0	0	0	
0.2605	-0.00514825	-0.00317344	7.5377E-05	0.000276142	0	0	0	
0.260667	0.00302821	-0.00395018	8.38066E-05	0.000248112	0	0	0	
0.260833	-0.000283307	0.00940479	9.43273E-05	0.00024646	0	0	0	
0.261	0.000378532	-0.0123824	6.55668E-05	0.000230487	0	0	0	
0.261167	3.58207E-05	0.0102799	4.49846E-05	0.00022418	0	0	0	
0.261333	0.000281995	0.000293927	3.82308E-05	0.000286359	0	0	0	
0.2615	-0.00136097	-0.0114925	4.01893E-05	0.000346064	0	0	0	
0.261667	0.00156952	0.0179918	6.25678E-05	0.0003718	0	0	0	
0.261833	-0.000799574	-0.0183348	4.8679E-05	0.000353801	0	0	0	
0.262	0.00115038	0.0088774	5.60054E-05	0.000313258	0	0	0	
0.262167	-0.00581675	-0.00227163	0.000100385	0.000255826	0	0	0	
0.262333	0.0152428	0.00119064	0.000193093	0.000211535	0	0	0	
0.2625	-0.0156118	-0.00762613	0.000261146	0.000208687	0	0	0	
0.262667	0.0037644	0.0122815	0.000286587	0.000239291	0	0	0	
0.262833	0.00953601	-0.00797383	0.000312493	0.000249777	0	0	0	
0.263	-0.0137239	0.00399831	0.000293909	0.000231055	0	0	0	
0.263167	0.00675175	-0.00510113	0.000278349	0.000209243	0	0	0	
0.263333	0.00285053	0.00195618	0.000245314	0.000149521	0	0	0	
0.2635	-0.00545151	0.00378357	0.000218193	0.000101193	0	0	0	
0.263667	0.00508931	-0.000888099	0.00017346	7.95847E-05	0	0	0	
0.263833	-0.00909292	-0.000969798	0.000126112	0.000130315	0	0	0	
0.264	0.00681993	-0.00145979	0.000135051	0.000147775	0	0	0	
0.264167	0.000516179	0.00448243	0.000134678	0.000161044	0	0	0	
0.264333	0.00260324	0.00309269	0.000101366	0.00020224	0	0	0	
0.2645	-0.00975845	-0.0123799	9.40418E-05	0.000306349	0	0	0	
0.264667	0.00773651	0.0185373	0.000110581	0.000394899	0	0	0	
0.264833	-0.00202664	-0.0160194	0.000165082	0.000394461	0	0	0	
0.265	-0.00327869	0.0116272	0.000185329	0.000333806	0	0	0	
0.265167	0.0110328	-0.00269871	0.000193574	0.000243345	0	0	0	
0.265333	-0.0144401	0.000283392	0.000213103	0.000146383	0	0	0	
0.2655	0.00280522	-0.00498882	0.000218021	0.000113074	0	0	0	
0.265667	0.00867216	0.0113329	0.000196941	0.000166529	0	0	0	
0.265833	-0.0134036	-0.00938843	0.000198676	0.000241599	0	0	0	
0.266	0.0241523	0.0062988	0.000268532	0.000249167	0	0	0	
0.266167	-0.0274722	-0.0101656	0.000381029	0.000212796	0	0	0	
0.266333	0.0166882	0.0154965	0.000444684	0.00019692	0	0	0	
0.2665	-0.00899576	-0.00960823	0.000485879	0.000220584	0	0	0	
0.266667	0.00105334	0.00299312	0.000476182	0.000212862	0	0	0	
0.266833	0.0121523	-0.00556004	0.000377021	0.000185496	0	0	0	
0.267	-0.0112785	0.0087764	0.000289492	0.000148093	0	0	0	
0.267167	0.0030087	0.00338192	0.000292426	0.000151619	0	0	0	
0.267333	0.00592369	-0.00267706	0.00038453	0.000123428	0	0	0	
0.2675	-0.0132659	-0.0127267	0.000375754	0.000205353	0	0	0	
0.267667	0.0139151	0.0175095	0.000313365	0.000268201	0	0	0	
0.267833	-0.00685513	-0.0103717	0.000254886	0.000324324	0	0	0	
0.268	0.00426558	0.0118862	0.000258461	0.000276127	0	0	0	
0.268167	-0.000957258	-0.0132023	0.000233189	0.000238923	0	0	0	
0.268333	-0.00466841	0.0101923	0.000198981	0.000232916	0	0	0	
0.2685	0.00652376	-0.00394007	0.000141961	0.00022256	0	0	0	
0.268667	0.000458311	0.00326961	0.000130869	0.000176206	0	0	0	
0.268833	-0.00666402	-0.00727414	0.000120881	0.000170392	0	0	0	
0.269	0.00384912	0.00604054	0.000125177	0.0001445	0	0	0	
0.269167	0.00113185	-0.000103264	9.77164E-05	0.000121107	0	0	0	
0.269333	0.00026321	0.0045952	6.04414E-05	9.15158E-05	0	0	0	
0.2695	-0.000834691	-0.00950814	2.64137E-05	0.00012344	0	0	0	
0.269667	0.00256726	0.00505423	2.57057E-05	0.00015863	0	0	0	
0.269833	-2.62657E-05	0.00348258	4.27958E-05	0.00014356	0	0	0	
0.27	-0.00410409	0.00282261	5.78822E-05	9.31061E-05	0	0	0	
0.270167	0.000778652	-0.00803665	5.51024E-05	9.23943E-05	0	0	0	
0.270333	0.000732724	0.00208523	4.78796E-05	0.000120359	0	0	0	
0.2705	0.000744602	0.0022905	5.81592E-05	0.000117009	0	0	0	
0.270667	0.00307071	0.00127655	8.01331E-05	0.00010703	0	0	0	
0.270833	-0.00578782	-0.00475618	0.000104718	0.000104882	0	0	0	
0.271	0.00217058	0.00433737	9.61084E-05	0.000113289	0	0	0	
0.271167	0.000503646	0.00284899	8.79942E-05	8.83757E-05	0	0	0	
0.271333	-0.00649938	-0.00411234	8.21233E-05	7.60585E-05	0	0	0	
0.2715	0.00810248	-0.00355308	0.000108148	0.000103694	0	0	0	
0.271667	-0.00381357	0.00692688	0.000126059	0.000146343	0	0	0	
0.271833	-0.00411629	-0.0036417	0.000138197	0.000159066	0	0	0	
0.272	0.00110137	-0.000779033	0.000114344	0.000112598	0	0	0	
0.272167	0.000874063	-0.00193501	7.20923E-05	7.56894E-05	0	0	0	
0.272333	0.00528605	0.00767629	6.71832E-05	8.24262E-05	0	0	0	
0.2725	-0.00832591	-0.00458899	8.58122E-05	0.000118239	0	0	0	
0.272667	-0.00119485	0.00336273	0.000128763	0.000123228	0	0	0	
0.272833	0.00553283	-0.00076076	0.000131154	9.84529E-05	0	0	0	
0.273	0.00177599	0.00406257	0.000123841	0.000130123	0	0	0	
0.273167	-0.00734847	-0.014134	0.00011648	0.000194055	0	0	0	
0.273333	-0.00168855	0.0113666	0.00011545	0.000249052	0	0	0	
0.2735	0.0116134	0.00844726	0.00013843	0.000229621	0	0	0	
0.273667	-0.00404043	-0.00387379	0.000181896	0.000191487	0	0	0	
0.273833	-0.0145332	-0.0158398	0.000281433	0.000284872	0	0	0	
0.274	0.0132565	0.0168863	0.000308163	0.000345428	0	0	0	
0.274167	0.0034959	0.00363936	0.000304924	0.000390316	0	0	0	
0.274333	-0.00365032	-0.00574695	0.000193167	0.000233138	0	0	0	
0.2745	-0.0114315	-0.0135094	0.000188103	0.000303787	0	0	0	
0.274667	0.00931987	0.0198997	0.000171872	0.000301239	0	0	0	
0.274833	0.00901372	0.00593256	0.000282942	0.000435034	0	0	0	
0.275	-0.0166735	-0.0130695	0.000274769	0.000292272	0	0	0	
0.275167	0.00130812	-0.00980601	0.000342726	0.000381771	0	0	0	
0.275333	0.0109756	0.014986	0.000304091	0.000319926	0	0	0	
0.2755	0.00380153	0.00926156	0.000304114	0.00039194	0	0	0	
0.275667	-0.0113177	-0.014063	0.00022476	0.000269988	0	0	0	
0.275833	-0.00684414	-0.00430209	0.000245228	0.000359777	0	0	0	
0.276	0.0167827	0.0106373	0.000283194	0.00036998	0	0	0	
0.276167	-0.00265948	-0.000455122	0.000311143	0.000350422	0	0	0	
0.276333	-0.0116906	0.00299758	0.000291477	0.000216681	0	0	0	
0.2765	0.00779444	-0.00864907	0.000246243	0.000165425	0	0	0	
0.276667	0.00236223	0.00897933	0.000211959	0.0001886	0	0	0	
0.276833	-0.00489596	-0.00356653	0.000142104	0.000174345	0	0	0	
0.277	0.00249117	0.00058529	0.000105231	0.000111	0	0	0	
0.277167	-0.00287683	0.00211542	7.16484E-05	5.03302E-05	0	0	0	
0.277333	0.00328689	0.00228299	7.19889E-05	6.08873E-05	0	0	0	
0.2775	-0.00378286	-0.00280862	6.53389E-05	0.000103848	0	0	0	
0.277667	-0.00276382	0.00248009	7.97928E-05	0.000122814	0	0	0	
0.277833	0.004221	0.00333984	7.47751E-05	0.000112741	0	0	0	
0.278	0.00339089	0.00182451	0.00010529	0.000104646	0	0	0	
0.278167	-0.00453523	-0.00341047	0.000116222	0.000121638	0	0	0	
0.278333	0.00139997	-0.00214299	0.000109801	0.000125301	0	0	0	
0.2785	0.000574285	0.00214981	6.59759E-05	0.000134187	0	0	0	
0.278667	-0.00570394	0.00543226	4.82018E-05	0.00016674	0	0	0	
0.278833	0.00666228	-0.00570119	6.92058E-05	0.000201537	0	0	0	
0.279	-0.00402761	0.00766314	0.000106155	0.000212567	0	0	0	
0.279167	-0.00262152	-0.0108522	0.000149669	0.000237688	0	0	0	
0.279333	0.0100083	0.0128576	0.000161599	0.000294763	0	0	0	
0.2795	-0.00490327	-0.0128724	0.000169684	0.000313265	0	0	0	
0.279667	-0.0136824	0.00842599	0.000223002	0.000277428	0	0	0	
0.279833	0.0236454	-0.00437965	0.000314428	0.000198172	0	0	0	
0.28	-0.0261433	0.00208929	0.000409399	0.000154225	0	0	0	
0.280167	0.0154437	0.00377051	0.000445971	0.000125721	0	0	0	
0.280333	-0.00461815	-0.0105083	0.000481512	0.000124807	0	0	0	
0.2805	-0.0102196	0.0105266	0.000555613	0.000171342	0	0	0	
0.280667	0.024781	-0.00159092	0.00056858	0.000237261	0	0	0	
0.280833	-0.0203604	-0.0079482	0.000516269	0.000292271	0	0	0	
0.281	0.00164003	0.00752753	0.000465948	0.000324059	0	0	0	
0.281167	0.0123476	-0.00467406	0.0004708	0.00029479	0	0	0	
0.281333	-0.0217413	0.00537316	0.0004704	0.000222392	0	0	0	
0.2815	0.0195213	-0.00108825	0.000428829	0.000135806	0	0	0	
0.281667	-0.0108173	0.00714956	0.00035692	0.000103129	0	0	0	
0.281833	0.00775519	-0.00634534	0.000332454	0.000121703	0	0	0	
0.282	-0.00160453	-0.00644219	0.000263446	0.000112125	0	0	0	
0.282167	-0.000863852	0.00176183	0.000215167	0.000120895	0	0	0	
0.282333	0.00155308	0.0089771	0.000160909	0.000129322	0	0	0	
0.2825	-0.00177191	-0.00129693	0.000116482	0.000149536	0	0	0	
0.282667	-0.00122403	-0.000466442	7.93873E-05	0.000110421	0	0	0	
0.282833	-2.24721E-05	-0.00428545	6.61879E-05	8.61223E-05	0	0	0	
0.283	0.00291018	0.00264795	7.23655E-05	9.32E-05	0	0	0	
0.283167	-0.00171094	-0.00337976	7.94885E-05	0.000120393	0	0	0	
0.283333	0.00161612	0.00386892	7.7934E-05	0.000117681	0	0	0	
0.2835	-0.0054877	-0.000586776	8.49885E-05	9.47928E-05	0	0	0	
0.283667	0.00381573	7.29869E-05	8.93162E-05	9.29879E-05	0	0	0	
0.283833	-0.00218804	-0.00412257	8.66202E-05	0.000105928	0	0	0	
0.284	-0.00105215	0.00241853	8.23577E-05	0.00012252	0	0	0	
0.284167	0.00152801	0.00536138	6.73244E-05	0.000145117	0	0	0	
0.284333	-0.000735786	-0.00116119	5.36499E-05	0.000162285	0	0	0	
0.2845	-0.00233938	-0.0038535	7.07036E-05	0.000178616	0	0	0	
0.284667	0.00570534	-0.00134156	8.3937E-05	0.000187779	0	0	0	
0.284833	-0.00395891	-0.000833971	9.92523E-05	0.000182399	0	0	0	
0.285	-0.00119138	0.00370882	7.1571E-05	0.000163275	0	0	0	
0.285167	0.00141593	0.00026515	5.90382E-05	0.000137227	0	0	0	
0.285333	-0.000590669	0.00372543	4.04772E-05	0.000105877	0	0	0	
0.2855	0.000390832	-0.00262481	3.46631E-05	8.50004E-05	0	0	0	
0.285667	0.00296805	-0.00410424	5.82231E-05	6.37812E-05	0	0	0	
0.285833	-0.0050492	-0.000509616	8.57735E-05	5.29487E-05	0	0	0	
0.286	0.00440737	0.00189217	0.000102265	5.84241E-05	0	0	0	
0.286167	-0.00206658	0.00249387	0.000103858	7.11011E-05	0	0	0	
0.286333	-0.000676576	-0.00369418	9.48142E-05	9.77274E-05	0	0	0	
0.2865	0.00320559	0.0030821	8.326E-05	0.000145488	0	0	0	
0.286667	-0.00316167	0.00230196	6.37046E-05	0.000182708	0	0	0	
0.286833	0.00453129	-0.00154468	7.28427E-05	0.000178206	0	0	0	
0.287	-0.000445878	-0.00465226	0.000103406	0.000157163	0	0	0	
0.287167	-0.00604412	0.00251613	0.000117857	0.000181279	0	0	0	
0.287333	0.00435461	0.00202466	0.000113309	0.000226434	0	0	0	
0.2875	0.0023652	0.00221745	9.35206E-05	0.000216276	0	0	0	
0.287667	3.01595E-05	-0.00198908	6.89114E-05	0.00016281	0	0	0	
0.287833	0.0025515	-0.00145562	4.54276E-05	0.000125062	0	0	0	
0.288	-0.00216295	-0.00166691	5.74473E-05	0.00010469	0	0	0	
0.288167	0.000488921	0.00739409	9.00009E-05	0.000106274	0	0	0	
0.288333	-0.00104638	-0.00310956	9.26866E-05	0.000137115	0	0	0	
0.2885	0.00833439	-0.00606333	9.75702E-05	0.000190563	0	0	0	
0.288667	-0.00572778	0.00864838	0.000101238	0.000199708	0	0	0	
0.288833	-0.000169214	-0.00316012	0.000129951	0.000172003	0	0	0	
0.289	0.00607467	-0.000752658	0.000117615	0.000105178	0	0	0	
0.289167	-0.00460484	0.00286069	0.000109616	6.57674E-05	0	0	0	
0.289333	-0.00101882	-0.00694762	8.35001E-05	5.91201E-05	0	0	0	
0.2895	0.00443018	0.00860462	8.29161E-05	9.1421E-05	0	0	0	
0.289667	-0.000236759	-0.00285892	6.70504E-05	0.000158352	0	0	0	
0.289833	-0.0050871	-0.00459368	8.38512E-05	0.000232286	0	0	0	
0.29	0.00697943	0.0029785	0.000102708	0.000249808	0	0	0	
0.290167	0.000254855	0.00294348	0.000103377	0.000181444	0	0	0	
0.290333	-0.0078835	-0.00480918	0.000100807	0.000109042	0	0	0	
0.2905	0.0026983	-0.00718268	9.52734E-05	0.000136906	0	0	0	
0.290667	-0.000767981	0.0107812	9.22772E-05	0.000184813	0	0	0	
0.290833	0.0105959	0.00378076	0.000112314	0.000205736	0	0	0	
0.291	-0.0130724	-0.00500615	0.000153235	0.000144151	0	0	0	
0.291167	-0.00519863	-0.00878264	0.000313023	0.000189677	0	0	0	
0.291333	0.0127821	0.00705635	0.000328501	0.000170209	0	0	0	
0.2915	0.0065796	0.00908653	0.000340702	0.000268817	0	0	0	
0.291667	-0.00375829	-0.00505117	0.000221238	0.000196809	0	0	0	
0.291833	-0.0352249	-0.0137497	0.000422691	0.000300994	0	0	0	
0.292	0.0540403	0.0101007	0.000641297	0.000234771	0	0	0	
0.292167	-0.0403488	0.0124658	0.000858027	0.000374294	0	0	0	
0.292333	0.0169258	-0.0155993	0.000890945	0.000307639	0	0	0	
0.2925	-0.00264256	0.00169436	0.000844361	0.000414704	0	0	0	
0.292667	-0.0103673	0.00810808	0.000789307	0.000345841	0	0	0	
0.292833	0.0331169	0.00777718	0.000680972	0.000295303	0	0	0	
0.293	-0.0372633	-0.00937784	0.000615573	0.000233816	0	0	0	
0.293167	0.00796255	-0.0162086	0.000719196	0.000300172	0	0	0	
0.293333	0.023938	0.0145644	0.00090003	0.000383907	0	0	0	
0.2935	-0.0328851	0.0050103	0.000926636	0.000320539	0	0	0	
0.293667	0.028268	-0.000588346	0.000799353	0.000186176	0	0	0	
0.293833	-0.0254115	0.000449192	0.000574468	8.85665E-05	0	0	0	
0.294	0.0233634	-0.00871515	0.000515287	7.69691E-05	0	0	0	
0.294167	-0.0126349	0.000510486	0.000466194	8.6058E-05	0	0	0	
0.294333	0.00311465	-0.000264015	0.000441471	0.000118486	0	0	0	
0.2945	0.00452077	0.00878971	0.000413446	0.00014517	0	0	0	
0.294667	-0.0108548	0.00107039	0.000344763	0.000203814	0	0	0	
0.294833	0.00593789	-0.0147863	0.000262559	0.000270574	0	0	0	
0.295	-0.00167344	0.00290082	0.000164483	0.000276603	0	0	0	
0.295167	-0.00369405	0.00378174	0.000122013	0.000188575	0	0	0	
0.295333	0.00567977	-0.000697926	0.000117295	0.000154376	0	0	0	
0.2955	-0.00313449	0.00240579	0.000110185	0.000154267	0	0	0	
0.295667	-0.00265911	-0.008786	0.000115367	0.00018637	0	0	0	
0.295833	0.00167711	0.00516087	8.96756E-05	0.000157034	0	0	0	
0.296	0.000135592	-0.00108796	7.6026E-05	0.000192642	0	0	0	
0.296167	0.00321681	-0.00118692	6.96162E-05	0.000164648	0	0	0	
0.296333	-0.00310121	-0.00414904	7.85834E-05	0.000158588	0	0	0	
0.2965	-0.00522039	0.00607007	7.67011E-05	0.00011332	0	0	0	
0.296667	0.00921354	0.00459839	8.84657E-05	0.000212316	0	0	0	
0.296833	-0.00500081	-0.00693732	0.000114326	0.000236457	0	0	0	
0.297	-0.00235786	-0.00583371	0.000170618	0.000208798	0	0	0	
0.297167	0.0115184	0.00189311	0.000169622	0.00012957	0	0	0	
0.297333	-0.0060247	0.0103591	0.000199333	0.000135843	0	0	0	
0.2975	-0.00803726	-0.00190688	0.000234132	0.000179236	0	0	0	
0.297667	0.0102366	-0.006993	0.000259944	0.000167266	0	0	0	
0.297833	-0.00420191	0.00985821	0.000232699	0.000147629	0	0	0	
0.298	0.00893265	-0.00630596	0.000161626	0.000213489	0	0	0	
0.298167	-0.00931732	-0.00342246	0.000151767	0.000285384	0	0	0	
0.298333	-0.00255974	0.00149405	0.000179422	0.000268759	0	0	0	
0.2985	0.0098465	0.00660244	0.00022083	0.000186751	0	0	0	
0.298667	-0.0039083	-0.00497711	0.000197466	0.000180015	0	0	0	
0.298833	-0.00756416	-3.97343E-05	0.000204124	0.000236843	0	0	0	
0.299	0.00655459	0.000222546	0.000166418	0.000253988	0	0	0	
0.299167	0.00273664	0.00276761	0.000177076	0.000197534	0	0	0	
0.299333	-0.00679482	-0.00463155	0.000122133	0.000134134	0	0	0	
0.2995	0.0025823	0.00315711	0.00012205	0.000120434	0	0	0	
0.299667	0.00135396	-0.00379438	0.000108004	0.000134814	0	0	0	
0.299833	-0.00255592	0.00594918	0.000105024	0.000136486	0	0	0	
0.3	3.91709E-05	-0.00823745	8.68443E-05	0.00013956	0	0	0	
0.300167	-0.00114178	0.00414002	5.72804E-05	0.000195524	0	0	0	
0.300333	0.000918617	0.00104355	4.08632E-05	0.000261705	0	0	0	
0.3005	-0.00213448	-0.00195898	4.06174E-05	0.00025702	0	0	0	
0.300667	0.0040054	-0.00221572	5.67186E-05	0.00018693	0	0	0	
0.300833	-0.00332749	0.00276883	6.92704E-05	0.000132835	0	0	0	
0.301	0.00242583	-0.00186762	7.04758E-05	0.000117598	0	0	0	
0.301167	-0.00294504	0.0059058	6.84135E-05	0.000118408	0	0	0	
0.301333	0.000509182	-0.00725261	6.21175E-05	0.000137391	0	0	0	
0.3015	0.00620744	-0.00168528	8.72297E-05	0.00016231	0	0	0	
0.301667	-0.00829747	0.00174805	0.000110121	0.000157175	0	0	0	
0.301833	-0.00254534	0.00248182	0.000153912	0.000115936	0	0	0	
0.302	0.00622704	0.00116312	0.000154104	9.42102E-05	0	0	0	
0.302167	-0.00259904	0.00388571	0.000134942	9.06628E-05	0	0	0	
0.302333	-0.00141467	-0.0124225	0.000105642	0.000121197	0	0	0	
0.3025	0.00148714	0.0078513	6.19344E-05	0.000144119	0	0	0	
0.302667	-0.0014193	-0.00330817	5.07456E-05	0.000204014	0	0	0	
0.302833	-0.00134592	0.00173044	3.89476E-05	0.000219859	0	0	0	
0.303	0.00621607	-0.000997313	6.92201E-05	0.000218865	0	0	0	
0.303167	-0.00842958	0.000143563	0.0001054	0.000191515	0	0	0	
0.303333	0.00141909	0.000376078	0.000117446	0.000148288	0	0	0	
0.3035	0.00185577	0.00318808	0.000117907	9.74005E-05	0	0	0	
0.303667	-0.00249458	-0.00497643	9.09312E-05	7.17912E-05	0	0	0	
0.303833	0.00501075	0.0051573	8.38185E-05	6.43448E-05	0	0	0	
0.304	-0.00175181	-0.00644225	7.05297E-05	0.000107294	0	0	0	
0.304167	-0.00254533	0.00422433	0.000109545	0.000151769	0	0	0	
0.304333	0.00408156	-0.000739554	0.000127703	0.000190931	0	0	0	
0.3045	-0.00180192	0.00617112	0.000129386	0.000173012	0	0	0	
0.304667	-0.00163608	-0.00503693	8.33247E-05	0.00013943	0	0	0	
0.304833	0.00190062	0.00399843	7.48327E-05	0.000103938	0	0	0	
0.305	0.00263059	-0.00461539	8.01434E-05	0.000106394	0	0	0	
0.305167	-0.0014439	0.00759606	7.5042E-05	0.000120351	0	0	0	
0.305333	7.58597E-05	-0.00540594	4.73225E-05	0.000161224	0	0	0	
0.3055	-0.0020225	3.46015E-05	3.18854E-05	0.000173814	0	0	0	
0.305667	0.000815283	0.00478461	3.16188E-05	0.000130595	0	0	0	
0.305833	0.00747727	-0.00141034	6.63648E-05	9.56638E-05	0	0	0	
0.306	-0.00680478	-0.000399292	0.000106468	6.45116E-05	0	0	0	
0.306167	0.00112004	0.000831407	0.000127145	5.71047E-05	0	0	0	
0.306333	0.00569269	-0.00462118	0.000140565	4.54332E-05	0	0	0	
0.3065	-0.00843975	0.00508592	0.000136958	5.93652E-05	0	0	0	
0.306667	0.00619734	-0.00219634	0.000151356	7.56094E-05	0	0	0	
0.306833	-0.00470895	-0.000532538	0.000127418	0.000101892	0	0	0	
0.307	0.00405758	0.00109007	0.00012061	0.000109305	0	0	0	
0.307167	0.00148931	-0.00535789	0.000122931	0.000122591	0	0	0	
0.307333	-0.0050558	0.00258973	0.000123924	0.00011319	0	0	0	
0.3075	0.00579679	0.00125956	0.000108973	8.91126E-05	0	0	0	
0.307667	-0.004022	-0.00496154	0.000132704	6.89123E-05	0	0	0	
0.307833	-0.00107794	-0.00154761	0.000198196	0.000113684	0	0	0	
0.308	0.00854962	0.00603645	0.000224979	0.000155397	0	0	0	
0.308167	-0.0116601	0.00371802	0.000226267	0.00018076	0	0	0	
0.308333	0.0101412	-0.00866627	0.000202934	0.000137233	0	0	0	
0.3085	-0.0218139	-0.00949975	0.00024578	0.000195113	0	0	0	
0.308667	0.0202993	0.0144256	0.000310006	0.000245046	0	0	0	
0.308833	-0.000810772	0.00659075	0.000354652	0.000295594	0	0	0	
0.309	0.00195175	-0.0107277	0.000286118	0.000244625	0	0	0	
0.309167	-0.0127412	-0.00256334	0.000249995	0.000226952	0	0	0	
0.309333	0.0126431	0.00252822	0.000227253	0.000149994	0	0	0	
0.3095	-0.00968467	0.0168084	0.000269238	0.000205215	0	0	0	
0.309667	0.00328068	-0.0259679	0.000220377	0.000256383	0	0	0	
0.309833	4.84617E-05	0.000275828	0.000191701	0.000448419	0	0	0	
0.31	0.00416396	0.0179115	0.000177617	0.000464445	0	0	0	
0.310167	0.00419549	-0.000882648	0.000142733	0.000397832	0	0	0	
0.310333	-0.00941362	-0.00482084	0.0001173	0.000218811	0	0	0	
0.3105	-0.000273865	-0.0140509	0.000172797	0.000177323	0	0	0	
0.310667	0.0176006	0.00918627	0.000304705	0.000181731	0	0	0	
0.310833	-0.019071	0.00812128	0.000372606	0.00028743	0	0	0	
0.311	0.00640307	-0.0112871	0.000359635	0.000243305	0	0	0	
0.311167	-0.00018804	0.000830447	0.000259754	0.000253169	0	0	0	
0.311333	0.00139411	-0.00377572	0.000172103	0.000160329	0	0	0	
0.3115	0.00391679	0.0123491	0.000123717	0.00018611	0	0	0	
0.311667	-0.00561349	-0.0159734	0.000129728	0.00020609	0	0	0	
0.311833	0.00284083	0.00957311	0.000129322	0.000259653	0	0	0	
0.312	-0.00157415	-0.00776472	0.000131702	0.000236509	0	0	0	
0.312167	0.000234097	0.00863181	0.000107391	0.000199811	0	0	0	
0.312333	0.00166583	-0.00517755	9.38735E-05	0.000186109	0	0	0	
0.3125	0.00100119	-0.00160443	5.32521E-05	0.00017521	0	0	0	
0.312667	-0.000705189	-0.00124441	3.61824E-05	0.000132631	0	0	0	
0.312833	-0.00172418	0.00418117	5.33587E-05	7.55513E-05	0	0	0	
0.313	0.00340651	-0.00232356	8.25628E-05	5.17323E-05	0	0	0	
0.313167	-0.00553149	0.00243739	9.99101E-05	6.84558E-05	0	0	0	
0.313333	0.0024073	-0.000873101	0.000100263	6.77749E-05	0	0	0	
0.3135	0.0028109	0.00112825	7.65532E-05	5.43247E-05	0	0	0	
0.313667	-0.00382758	-0.00863685	6.8734E-05	5.40982E-05	0	0	0	
0.313833	-0.000964176	0.0132044	7.9634E-05	0.000119995	0	0	0	
0.314	0.00381792	-0.00696167	0.000117724	0.000193522	0	0	0	
0.314167	-0.00370202	0.00495724	0.000126916	0.000225805	0	0	0	
0.314333	-0.000188374	-0.00440588	0.00012941	0.000188981	0	0	0	
0.3145	0.00954905	0.00558106	0.000123057	0.000151031	0	0	0	
0.314667	-0.0134553	-0.0110101	0.000161236	0.000155969	0	0	0	
0.314833	0.00471737	0.0140895	0.000214243	0.00020495	0	0	0	
0.315	0.00354881	-0.0141255	0.000267781	0.000256447	0	0	0	
0.315167	-0.00339846	0.0131179	0.000243986	0.00026997	0	0	0	
0.315333	0.00229747	-0.0089166	0.000179031	0.000267418	0	0	0	
0.3155	0.0015936	0.0042061	0.000103209	0.000250725	0	0	0	
0.315667	-0.0048601	-0.0063046	7.81062E-05	0.000228225	0	0	0	
0.315833	0.00702182	0.00572546	8.87801E-05	0.000183487	0	0	0	
0.316	-0.00195276	-0.00120067	9.44113E-05	0.000147988	0	0	0	
0.316167	-0.00702572	-0.00049516	0.000120818	0.000115446	0	0	0	
0.316333	0.00840428	-0.00463758	0.000129631	8.19198E-05	0	0	0	
0.3165	0.000777522	0.00620573	0.00016048	8.95287E-05	0	0	0	
0.316667	-0.00706376	-0.00681432	0.000171784	0.000113682	0	0	0	
0.316833	0.00664474	0.00773065	0.000171754	0.000138644	0	0	0	
0.317	-0.0027994	-0.0043068	0.000132473	0.000141747	0	0	0	
0.317167	0.000520866	0.00121497	0.000101267	0.000127415	0	0	0	
0.317333	-0.000516486	-0.00252981	8.18882E-05	0.000125608	0	0	0	
0.3175	0.000822705	-0.000291161	7.22823E-05	9.88578E-05	0	0	0	
0.317667	-0.00211828	-0.00510335	5.7784E-05	7.57959E-05	0	0	0	
0.317833	0.000579253	0.0136012	4.84265E-05	0.000107371	0	0	0	
0.318	-0.00467664	-0.00739549	4.34575E-05	0.00015331	0	0	0	
