0	-0.0126371	-0.00148629	1.26371E-06	1.48629E-07	0	0	0	
0.000166667	0.0330469	0.00492661	0.000165482	1.85402E-05	0	0	0	
0.000333333	-0.039814	-0.00651714	0.000574002	6.11E-05	0	0	0	
0.0005	0.0372989	0.00741872	0.00120696	0.000118013	0	0	0	
0.000666667	-0.0196352	-0.00798482	0.00177755	0.000162969	0	0	0	
0.000833333	-0.00278039	0.00790686	0.00208212	0.000184932	0	0	0	
0.001	0.013841	-0.00671835	0.00208821	0.000190482	0	0	0	
0.00116667	0.0693309	0.00790719	0.00196466	0.000193109	0	0	0	
0.00133333	-0.100941	-0.0113544	0.00200973	0.000200618	0	0	0	
0.0015	0.089974	0.0166236	0.00203859	0.000228579	0	0	0	
0.00166667	-0.113025	-0.0132285	0.00230711	0.0002622	0	0	0	
0.00183333	0.140519	-0.0149417	0.00250377	0.000327143	0	0	0	
0.002	-0.273631	0.0121733	0.00311078	0.000519944	0	0	0	
0.00216667	0.143975	-0.001434	0.00329302	0.000605195	0	0	0	
0.00233333	-0.125363	-0.011303	0.00337347	0.000549087	0	0	0	
0.0025	0.0613221	0.0195519	0.00284016	0.000391182	0	0	0	
0.00266667	-0.0571283	-0.0195416	0.00265911	0.000323833	0	0	0	
0.00283333	0.0613764	0.0171855	0.00248203	0.000363332	0	0	0	
0.003	-0.0324855	-0.0124503	0.00234352	0.00042317	0	0	0	
0.00316667	0.0175896	0.0334787	0.00246562	0.000658377	0	0	0	
0.00333333	-0.0602295	-0.0151585	0.00206551	0.000753462	0	0	0	
0.0035	0.0807008	0.0174053	0.00227813	0.000722039	0	0	0	
0.00366667	-0.0936941	-0.0131392	0.00223514	0.000466253	0	0	0	
0.00383333	0.0870956	0.0133714	0.00276001	0.000340045	0	0	0	
0.004	-0.102035	-0.00721604	0.00294061	0.000246251	0	0	0	
0.00416667	0.102239	0.00849559	0.00294755	0.000204806	0	0	0	
0.00433333	-0.100838	-0.0108699	0.00295585	0.000181301	0	0	0	
0.0045	0.0937338	0.0149961	0.00296795	0.000202461	0	0	0	
0.00466667	-0.0887049	-0.0161658	0.00297003	0.000247208	0	0	0	
0.00483333	0.0890979	0.0150522	0.00290332	0.000288806	0	0	0	
0.005	-0.0904398	-0.0135544	0.00281562	0.000301429	0	0	0	
0.00516667	0.0889135	0.0144297	0.00280365	0.000292886	0	0	0	
0.00533333	-0.0883955	-0.0159995	0.00283877	0.000287203	0	0	0	
0.0055	0.0880013	0.0151919	0.00284251	0.000291969	0	0	0	
0.00566667	-0.0879084	-0.014898	0.00276553	0.000297322	0	0	0	
0.00583333	0.0961101	0.0141758	0.00274512	0.00029065	0	0	0	
0.006	-0.0865513	-0.0146495	0.00276207	0.00028514	0	0	0	
0.00616667	0.0878273	0.0126879	0.00280822	0.000279336	0	0	0	
0.00633333	-0.0921382	-0.0130411	0.00277057	0.000270299	0	0	0	
0.0065	0.0927026	0.0145311	0.00274568	0.000267127	0	0	0	
0.00666667	-0.0914247	-0.0169038	0.00273437	0.000270483	0	0	0	
0.00683333	0.113683	0.015397	0.00276614	0.000292237	0	0	0	
0.007	-0.111285	-0.0133506	0.00281708	0.000299259	0	0	0	
0.00716667	0.0974897	0.0132484	0.00290037	0.000294444	0	0	0	
0.00733333	-0.0853161	-0.0118261	0.00293599	0.000267075	0	0	0	
0.0075	0.0907375	0.0103558	0.00283974	0.000251508	0	0	0	
0.00766667	-0.101469	-0.0112601	0.00273549	0.000233406	0	0	0	
0.00783333	0.0972739	0.015539	0.00267344	0.000241588	0	0	0	
0.008	-0.0974668	-0.0157849	0.00269565	0.000258459	0	0	0	
0.00816667	0.0964576	0.0143136	0.002656	0.000287124	0	0	0	
0.00833333	-0.0998402	-0.0126229	0.00265629	0.000285628	0	0	0	
0.0085	0.0943738	0.0136468	0.00264349	0.000273866	0	0	0	
0.00866667	-0.0998289	-0.0131823	0.00266731	0.000263269	0	0	0	
0.00883333	0.102958	0.0133584	0.00266346	0.000264187	0	0	0	
0.009	-0.107112	-0.012562	0.00274595	0.000261284	0	0	0	
0.00916667	0.0943414	0.0141364	0.00281863	0.000257966	0	0	0	
0.00933333	-0.0965928	-0.0135398	0.00288896	0.000260562	0	0	0	
0.0095	0.0902039	0.0144668	0.00284899	0.000266146	0	0	0	
0.00966667	-0.0907794	-0.0145111	0.00277547	0.000274703	0	0	0	
0.00983333	0.0935174	0.0140631	0.00266335	0.000279539	0	0	0	
0.01	-0.106506	-0.0133062	0.00264414	0.000280077	0	0	0	
0.0101667	0.10569	0.0133912	0.00269991	0.000272415	0	0	0	
0.0103333	-0.104276	-0.0137679	0.00279441	0.000264891	0	0	0	
0.0105	0.102833	0.0138713	0.00285604	0.000261307	0	0	0	
0.0106667	-0.0987634	-0.0154968	0.00284034	0.000269744	0	0	0	
0.0108333	0.0970796	0.0160062	0.00277093	0.000282422	0	0	0	
0.011	-0.103503	-0.0153341	0.00271165	0.000295818	0	0	0	
0.0111667	0.103481	0.0143349	0.00271383	0.000295368	0	0	0	
0.0113333	-0.102309	-0.0136367	0.00275801	0.000284194	0	0	0	
0.0115	0.0979254	0.0134935	0.00279134	0.000272898	0	0	0	
0.0116667	-0.0932166	-0.012106	0.00280291	0.000259399	0	0	0	
0.0118333	0.0978032	0.012312	0.00273118	0.000249895	0	0	0	
0.012	-0.124082	-0.0201978	0.00266195	0.000268289	0	0	0	
0.0121667	0.15097	0.0338253	0.00278699	0.00034542	0	0	0	
0.0123333	-0.158187	-0.0466884	0.00332842	0.000542661	0	0	0	
0.0125	0.105372	0.0328178	0.00395038	0.000757616	0	0	0	
0.0126667	-0.0680643	-0.00889522	0.00412861	0.000773964	0	0	0	
0.0128333	0.0630173	0.0060443	0.00357611	0.000569089	0	0	0	
0.013	-0.0913159	-0.0089407	0.00279512	0.00030304	0	0	0	
0.0131667	0.126913	0.0167653	0.00236301	0.000221416	0	0	0	
0.0133333	-0.172461	-0.0384407	0.00252213	0.000330625	0	0	0	
0.0135	0.187814	0.0497339	0.00314433	0.00057751	0	0	0	
0.0136667	-0.144699	-0.0308704	0.00368341	0.00074054	0	0	0	
0.0138333	0.0928006	0.017982	0.00383617	0.000707445	0	0	0	
0.014	-0.0879293	-0.0121909	0.00342761	0.000517179	0	0	0	
0.0141667	0.10252	0.0147252	0.00292851	0.000351404	0	0	0	
0.0143333	-0.106776	-0.0155609	0.00264295	0.000302047	0	0	0	
0.0145	0.10672	0.0153991	0.0026938	0.000289063	0	0	0	
0.0146667	-0.103835	-0.0124072	0.00280775	0.000294838	0	0	0	
0.0148333	0.0992193	0.0112647	0.00281757	0.000271662	0	0	0	
0.015	-0.108585	-0.0134966	0.0027565	0.000253863	0	0	0	
0.0151667	0.106534	0.0165153	0.002695	0.000249079	0	0	0	
0.0153333	-0.10814	-0.0167886	0.00272765	0.00028194	0	0	0	
0.0155	0.107059	0.0152292	0.00278969	0.000300973	0	0	0	
0.0156667	-0.105273	-0.0140879	0.00282305	0.000306097	0	0	0	
0.0158333	0.109416	0.0130362	0.00278511	0.000284219	0	0	0	
0.016	-0.115676	-0.0142135	0.00268813	0.000269591	0	0	0	
0.0161667	0.115869	0.0154027	0.00265578	0.000265204	0	0	0	
0.0163333	-0.123758	-0.0142796	0.0026688	0.000274395	0	0	0	
0.0165	0.128722	0.0130281	0.00276175	0.000278302	0	0	0	
0.0166667	-0.117706	-0.0141285	0.0028796	0.000270612	0	0	0	
0.0168333	0.105175	0.0147778	0.00293325	0.000267248	0	0	0	
0.017	-0.0992071	-0.0144305	0.00286224	0.000270003	0	0	0	
0.0171667	0.0929007	0.0164693	0.00272981	0.000285465	0	0	0	
0.0173333	-0.103463	-0.0184798	0.00260429	0.00030311	0	0	0	
0.0175	0.131568	0.0120024	0.00256471	0.000306342	0	0	0	
0.0176667	-0.0848295	0.00226872	0.00253933	0.000284349	0	0	0	
0.0178333	0.0521337	-0.0104369	0.00242615	0.000233472	0	0	0	
0.018	-0.0793757	0.00451845	0.00213969	0.00018107	0	0	0	
0.0181667	0.124586	0.00697476	0.00198573	0.000170994	0	0	0	
0.0183333	-0.147052	-0.0139498	0.00223053	0.00020173	0	0	0	
0.0185	0.151537	0.0188067	0.00268996	0.000261652	0	0	0	
0.0186667	-0.1355	-0.0206048	0.00306205	0.000313487	0	0	0	
0.0188333	0.0828148	0.012303	0.00318902	0.000361334	0	0	0	
0.019	-0.0547543	-0.00436294	0.00324756	0.000398487	0	0	0	
0.0191667	0.0604628	0.00475252	0.0029535	0.000369193	0	0	0	
0.0193333	-0.0950679	-0.00721781	0.00251558	0.000285291	0	0	0	
0.0195	0.127995	0.00944165	0.00217592	0.00019967	0	0	0	
0.0196667	-0.149264	-0.0148773	0.00231654	0.000188959	0	0	0	
0.0198333	0.149601	0.0176593	0.00273809	0.00024803	0	0	0	
0.02	-0.127147	-0.0147907	0.00305538	0.000297014	0	0	0	
0.0201667	0.113618	0.0132708	0.00311864	0.000304423	0	0	0	
0.0203333	-0.107899	-0.0158904	0.00295658	0.000283807	0	0	0	
0.0205	0.107782	0.0159474	0.00271954	0.00027993	0	0	0	
0.0206667	-0.116586	-0.015011	0.00258515	0.00029263	0	0	0	
0.0208333	0.122829	0.0149686	0.00258126	0.000298151	0	0	0	
0.021	-0.123951	-0.0160162	0.00268133	0.000298347	0	0	0	
0.0211667	0.117537	0.0166878	0.00275759	0.0003016	0	0	0	
0.0213333	-0.118028	-0.0160329	0.00281856	0.000305404	0	0	0	
0.0215	0.110407	0.0139603	0.00281981	0.000302114	0	0	0	
0.0216667	-0.11157	-0.0134795	0.00279202	0.000284184	0	0	0	
0.0218333	0.121956	0.0133172	0.00275279	0.000267629	0	0	0	
0.022	-0.123171	-0.0145554	0.00273709	0.00026286	0	0	0	
0.0221667	0.122493	0.0142182	0.00278348	0.000272907	0	0	0	
0.0223333	-0.124231	-0.0148945	0.00282341	0.000279929	0	0	0	
0.0225	0.123044	0.0148359	0.00286555	0.00028343	0	0	0	
0.0226667	-0.118007	-0.0157534	0.00284191	0.000284809	0	0	0	
0.0228333	0.121417	0.0162797	0.00280489	0.000293809	0	0	0	
0.023	-0.122354	-0.0160729	0.00275733	0.000301081	0	0	0	
0.0231667	0.126384	0.0133912	0.0027724	0.000299953	0	0	0	
0.0233333	-0.125179	-0.0125371	0.00280217	0.00028223	0	0	0	
0.0235	0.125944	0.013009	0.00283543	0.000265927	0	0	0	
0.0236667	-0.12555	-0.0138112	0.00284003	0.000258594	0	0	0	
0.0238333	0.129557	0.0144833	0.00285635	0.000266817	0	0	0	
0.024	-0.123371	-0.0153647	0.00287938	0.000274444	0	0	0	
0.0241667	0.12256	0.0160055	0.00288319	0.000285292	0	0	0	
0.0243333	-0.122752	-0.0150221	0.00283389	0.000294509	0	0	0	
0.0245	0.127705	0.0124729	0.00278851	0.000290093	0	0	0	
0.0246667	-0.127197	-0.0120054	0.00279027	0.000268533	0	0	0	
0.0248333	0.127331	0.0129754	0.00282249	0.000248452	0	0	0	
0.025	-0.124977	-0.0144292	0.0028382	0.000244454	0	0	0	
0.0251667	0.125886	0.0149819	0.00281771	0.000259213	0	0	0	
0.0253333	-0.124511	-0.0138115	0.00280346	0.000272985	0	0	0	
0.0255	0.117743	0.013189	0.00277524	0.000274245	0	0	0	
0.0256667	-0.122055	-0.0141595	0.00274507	0.000268385	0	0	0	
0.0258333	0.130611	0.0149552	0.00270622	0.000267676	0	0	0	
0.026	-0.132792	-0.0142462	0.00274468	0.00027156	0	0	0	
0.0261667	0.127438	0.0149469	0.00279983	0.000279145	0	0	0	
0.0263333	-0.12709	-0.0147617	0.00283327	0.000281987	0	0	0	
0.0265	0.127323	0.0147513	0.00281567	0.000283677	0	0	0	
0.0266667	-0.124516	-0.0145351	0.00280187	0.000283646	0	0	0	
0.0268333	0.121497	0.014502	0.00279303	0.000279716	0	0	0	
0.027	-0.123899	-0.0135583	0.00275563	0.000277695	0	0	0	
0.0271667	0.126206	0.014125	0.00272178	0.000271245	0	0	0	
0.0273333	-0.129175	-0.0141777	0.00270468	0.000271494	0	0	0	
0.0275	0.13108	0.0146079	0.00272773	0.000274388	0	0	0	
0.0276667	-0.130962	-0.0152371	0.00276829	0.000285856	0	0	0	
0.0278333	0.130689	0.0152266	0.0028226	0.000287862	0	0	0	
0.028	-0.128783	-0.0152767	0.002839	0.000291329	0	0	0	
0.0281667	0.130252	0.01462	0.00282267	0.000289205	0	0	0	
0.0283333	-0.130828	-0.0139428	0.00278996	0.000285254	0	0	0	
0.0285	0.128358	0.014625	0.00278322	0.000280101	0	0	0	
0.0286667	-0.128257	-0.0158972	0.00276908	0.000279913	0	0	0	
0.0288333	0.132338	0.014761	0.00277346	0.000287987	0	0	0	
0.029	-0.130285	-0.013569	0.00278089	0.000287318	0	0	0	
0.0291667	0.127857	0.0138226	0.00278403	0.000280798	0	0	0	
0.0293333	-0.131195	-0.013867	0.00277555	0.000273029	0	0	0	
0.0295	0.130533	0.0137097	0.00277483	0.000271915	0	0	0	
0.0296667	-0.129415	-0.013066	0.0027799	0.000266821	0	0	0	
0.0298333	0.129071	0.0135828	0.0027848	0.000263436	0	0	0	
0.03	-0.127889	-0.0140065	0.00276411	0.000264499	0	0	0	
0.0301667	0.128362	0.0131737	0.00275791	0.000266256	0	0	0	
0.0303333	-0.132958	-0.0126442	0.00274628	0.000259647	0	0	0	
0.0305	0.135963	0.0128287	0.00276426	0.000251623	0	0	0	
0.0306667	-0.136464	-0.0135255	0.00279311	0.000253439	0	0	0	
0.0308333	0.133819	0.0138068	0.00283618	0.000260405	0	0	0	
0.031	-0.131626	-0.0140416	0.00283756	0.000266477	0	0	0	
0.0311667	0.130774	0.0142943	0.00284167	0.00027104	0	0	0	
0.0313333	-0.126347	-0.0157732	0.00279048	0.000280799	0	0	0	
0.0315	0.132123	0.0147864	0.00275133	0.000289694	0	0	0	
0.0316667	-0.138464	-0.0119993	0.00272894	0.000284976	0	0	0	
0.0318333	0.137208	0.011279	0.0027908	0.000268749	0	0	0	
0.032	-0.129575	-0.0143906	0.00282778	0.000265827	0	0	0	
0.0321667	0.134113	0.016521	0.00282622	0.000283053	0	0	0	
0.0323333	-0.136696	-0.0167229	0.00277987	0.000308043	0	0	0	
0.0325	0.130577	0.0157218	0.00276139	0.000319975	0	0	0	
0.0326667	-0.132395	-0.0148291	0.00274742	0.000313125	0	0	0	
0.0328333	0.142203	0.0114867	0.0027486	0.000288726	0	0	0	
0.033	-0.143639	-0.0107671	0.00278247	0.000258415	0	0	0	
0.0331667	0.134818	0.0139062	0.00284646	0.000247357	0	0	0	
0.0333333	-0.132268	-0.015764	0.0028683	0.000270575	0	0	0	
0.0335	0.132905	0.0153026	0.00283827	0.000300152	0	0	0	
0.0336667	-0.133105	-0.0146965	0.00276632	0.000312488	0	0	0	
0.0338333	0.129768	0.0142657	0.00272028	0.000303584	0	0	0	
0.034	-0.130271	-0.0152042	0.00267751	0.000294965	0	0	0	
0.0341667	0.141428	0.0135624	0.00270122	0.000291178	0	0	0	
0.0343333	-0.141905	-0.0131039	0.0027602	0.000282577	0	0	0	
0.0345	0.139634	0.0111859	0.00284442	0.000268338	0	0	0	
0.0346667	-0.134457	-0.0119446	0.00283653	0.000250914	0	0	0	
0.0348333	0.135247	0.0129506	0.00279217	0.000251218	0	0	0	
0.035	-0.141947	-0.016088	0.00275917	0.000266294	0	0	0	
0.0351667	0.148616	0.0168936	0.00281801	0.00030035	0	0	0	
0.0353333	-0.143048	-0.0164552	0.002893	0.000317975	0	0	0	
0.0355	0.140274	0.0139921	0.00292298	0.000318438	0	0	0	
0.0356667	-0.132953	-0.0123914	0.00286713	0.000288872	0	0	0	
0.0358333	0.136997	0.0106612	0.00279178	0.000263971	0	0	0	
0.036	-0.13697	-0.0122969	0.00275507	0.000245402	0	0	0	
0.0361667	0.140713	0.0151457	0.00276347	0.000263264	0	0	0	
0.0363333	-0.140839	-0.0166905	0.00278154	0.000290433	0	0	0	
0.0365	0.141177	0.0157129	0.00279611	0.000318711	0	0	0	
0.0366667	-0.141729	-0.0133967	0.00282559	0.000312783	0	0	0	
0.0368333	0.137535	0.0119666	0.00282407	0.000290237	0	0	0	
0.037	-0.134861	-0.0110537	0.00280901	0.000257881	0	0	0	
0.0371667	0.135281	0.0114627	0.00274898	0.000241326	0	0	0	
0.0373333	-0.144084	-0.0121227	0.00274725	0.000235856	0	0	0	
0.0375	0.144994	0.0141404	0.00278421	0.000250022	0	0	0	
0.0376667	-0.142755	-0.0128863	0.00284204	0.000266868	0	0	0	
0.0378333	0.134779	0.0120718	0.00286832	0.000270615	0	0	0	
0.038	-0.133222	-0.0119888	0.00280672	0.000265651	0	0	0	
0.0381667	0.136286	0.0124418	0.00275065	0.000255151	0	0	0	
0.0383333	-0.13755	-0.0133903	0.00271559	0.000259502	0	0	0	
0.0385	0.137165	0.014138	0.00273316	0.000263701	0	0	0	
0.0386667	-0.144353	-0.0132314	0.00274258	0.000271201	0	0	0	
0.0388333	0.149443	0.0124358	0.002799	0.000268845	0	0	0	
0.039	-0.14036	-0.0131606	0.00285198	0.000267902	0	0	0	
0.0391667	0.134036	0.012272	0.00287121	0.000261206	0	0	0	
0.0393333	-0.135942	-0.0135765	0.00279491	0.000262939	0	0	0	
0.0395	0.140231	0.0136569	0.00273038	0.000274274	0	0	0	
0.0396667	-0.139236	-0.0153828	0.00271007	0.000289606	0	0	0	
0.0398333	0.142649	0.0147712	0.00273672	0.000306536	0	0	0	
0.04	-0.142126	-0.0146009	0.00277559	0.000307214	0	0	0	
0.0401667	0.144127	0.0143471	0.00281353	0.000303156	0	0	0	
0.0403333	-0.140145	-0.0142973	0.00282439	0.000293872	0	0	0	
0.0405	0.139099	0.0129001	0.00281008	0.000288962	0	0	0	
0.0406667	-0.141747	-0.0118811	0.00278658	0.00027987	0	0	0	
0.0408333	0.143126	0.0123861	0.00277815	0.000274133	0	0	0	
0.041	-0.144492	-0.0132227	0.00279896	0.000270746	0	0	0	
0.0411667	0.143767	0.0136496	0.00282514	0.000277769	0	0	0	
0.0413333	-0.139872	-0.0137319	0.00282845	0.000285574	0	0	0	
0.0415	0.142317	0.0131693	0.00280146	0.000285341	0	0	0	
0.0416667	-0.143553	-0.0125204	0.00277924	0.000275307	0	0	0	
0.0418333	0.142469	0.0127806	0.00278709	0.000261535	0	0	0	
0.042	-0.140754	-0.013236	0.0027911	0.000256517	0	0	0	
0.0421667	0.140459	0.0132137	0.00278476	0.000265006	0	0	0	
0.0423333	-0.140554	-0.0120428	0.00276467	0.000269834	0	0	0	
0.0425	0.144042	0.0124173	0.00275888	0.000266523	0	0	0	
0.0426667	-0.146478	-0.0117987	0.00278589	0.000257106	0	0	0	
0.0428333	0.145207	0.0126181	0.00281745	0.000252934	0	0	0	
0.043	-0.145135	-0.0129592	0.00284724	0.00026211	0	0	0	
0.0431667	0.1366	0.0137135	0.00282785	0.000273487	0	0	0	
0.0433333	-0.138117	-0.0128549	0.00278631	0.000283982	0	0	0	
0.0435	0.136544	0.0145174	0.00273753	0.000281933	0	0	0	
0.0436667	-0.142456	-0.0134649	0.00271203	0.000282478	0	0	0	
0.0438333	0.145026	0.0121499	0.00271928	0.000274482	0	0	0	
0.044	-0.149292	-0.0128721	0.00277308	0.000272139	0	0	0	
0.0441667	0.149509	0.0133994	0.0028383	0.00026703	0	0	0	
0.0443333	-0.151262	-0.0123309	0.00288602	0.000271987	0	0	0	
0.0445	0.14204	0.0129995	0.00290914	0.000277471	0	0	0	
0.0446667	-0.128854	-0.015288	0.00283121	0.000294842	0	0	0	
0.0448333	0.13534	0.0132711	0.00273178	0.000307292	0	0	0	
0.045	-0.147713	-0.0123764	0.00267216	0.000303438	0	0	0	
0.0451667	0.1474	0.0122742	0.00273929	0.000286505	0	0	0	
0.0453333	-0.142306	-0.0147833	0.00280592	0.00027885	0	0	0	
0.0455	0.150393	0.0126043	0.00282693	0.000286009	0	0	0	
0.0456667	-0.149227	-0.0115877	0.00283632	0.000280276	0	0	0	
0.0458333	0.141569	0.0111304	0.00284111	0.0002763	0	0	0	
0.046	-0.139235	-0.0127655	0.00282929	0.000268371	0	0	0	
0.0461667	0.147831	0.012963	0.00277862	0.000275269	0	0	0	
0.0463333	-0.14978	-0.0139439	0.00279614	0.000276565	0	0	0	
0.0465	0.145057	0.0143916	0.00281392	0.000289498	0	0	0	
0.0466667	-0.140562	-0.0147807	0.00282512	0.00029942	0	0	0	
0.0468333	0.139501	0.0143336	0.00277145	0.000309874	0	0	0	
0.047	-0.144754	-0.0124377	0.0027465	0.000306926	0	0	0	
0.0471667	0.145994	0.012406	0.00274803	0.000293296	0	0	0	
0.0473333	-0.147988	-0.0132459	0.00278623	0.000282421	0	0	0	
0.0475	0.144422	0.0131306	0.00281545	0.000281283	0	0	0	
0.0476667	-0.141987	-0.0133797	0.00280757	0.000293025	0	0	0	
0.0478333	0.144218	0.0133733	0.00279138	0.000301914	0	0	0	
0.048	-0.145707	-0.0136604	0.00277098	0.000305411	0	0	0	
0.0481667	0.144393	0.0126571	0.00278069	0.000297757	0	0	0	
0.0483333	-0.14818	-0.0124192	0.00278795	0.000284774	0	0	0	
0.0485	0.146459	0.0114793	0.00280335	0.000274815	0	0	0	
0.0486667	-0.147346	-0.0126775	0.00282008	0.000277227	0	0	0	
0.0488333	0.143264	0.0124881	0.00281647	0.000290181	0	0	0	
0.049	-0.141583	-0.0137017	0.00278961	0.000294687	0	0	0	
0.0491667	0.140375	0.0137409	0.00274825	0.000298709	0	0	0	
0.0493333	-0.14486	-0.012596	0.00273037	0.000291217	0	0	0	
0.0495	0.143692	0.0118163	0.00274706	0.000281423	0	0	0	
0.0496667	-0.144998	-0.0109283	0.00275717	0.000266682	0	0	0	
0.0498333	0.137805	0.0106667	0.00275658	0.000261172	0	0	0	
0.05	-0.145608	-0.0119589	0.00272723	0.000262944	0	0	0	
0.0501667	0.153103	0.0122711	0.00276687	0.000269422	0	0	0	
0.0503333	-0.152861	-0.0107676	0.00282931	0.000268952	0	0	0	
0.0505	0.140744	0.0111573	0.00286351	0.000263114	0	0	0	
0.0506667	-0.140341	-0.0128909	0.0028146	0.000265724	0	0	0	
0.0508333	0.146903	0.0117334	0.00277161	0.000270343	0	0	0	
0.051	-0.147127	-0.0111485	0.00277124	0.000272055	0	0	0	
0.0511667	0.139691	0.0119108	0.00278336	0.000262237	0	0	0	
0.0513333	-0.145615	-0.0112211	0.00275888	0.000256972	0	0	0	
0.0515	0.149227	0.00998411	0.00275875	0.000255496	0	0	0	
0.0516667	-0.148436	-0.011953	0.0027826	0.000254625	0	0	0	
0.0518333	0.144797	0.0121982	0.00282637	0.000260737	0	0	0	
0.052	-0.142668	-0.0121967	0.00280234	0.000273911	0	0	0	
0.0521667	0.14496	0.0127231	0.00277597	0.00027967	0	0	0	
0.0523333	-0.148723	-0.0120077	0.00274762	0.000277267	0	0	0	
0.0525	0.14688	0.0113085	0.00278374	0.000271204	0	0	0	
0.0526667	-0.14334	-0.0126429	0.00279603	0.000271552	0	0	0	
0.0528333	0.146796	0.0123885	0.00280824	0.000275665	0	0	0	
0.053	-0.147521	-0.0127838	0.00280667	0.000279349	0	0	0	
0.0531667	0.147168	0.0121506	0.00281055	0.000284629	0	0	0	
0.0533333	-0.143506	-0.0118271	0.00281616	0.000281539	0	0	0	
0.0535	0.145292	0.012416	0.00278817	0.000280835	0	0	0	
0.0536667	-0.146056	-0.012081	0.00279088	0.000281222	0	0	0	
0.0538333	0.145856	0.0123716	0.00277682	0.000288118	0	0	0	
0.054	-0.149955	-0.012376	0.00280685	0.000297389	0	0	0	
0.0541667	0.147117	0.0130864	0.00280773	0.000306967	0	0	0	
0.0543333	-0.148037	-0.0126147	0.00283712	0.000306128	0	0	0	
0.0545	0.145544	0.0128587	0.00279761	0.000299584	0	0	0	
0.0546667	-0.148117	-0.0110112	0.00281448	0.000288178	0	0	0	
0.0548333	0.14015	0.0111297	0.00276929	0.000278284	0	0	0	
0.055	-0.146374	-0.00989145	0.00277994	0.00027277	0	0	0	
0.0551667	0.143111	0.0101021	0.00275084	0.000267793	0	0	0	
0.0553333	-0.152626	-0.00973281	0.00279046	0.000270645	0	0	0	
0.0555	0.149931	0.011555	0.00282838	0.000278483	0	0	0	
0.0556667	-0.151018	-0.0111041	0.00286813	0.000290329	0	0	0	
0.0558333	0.142447	0.0112949	0.00285414	0.000288094	0	0	0	
0.056	-0.146627	-0.0094803	0.00281331	0.000278422	0	0	0	
0.0561667	0.143007	0.00949489	0.00277812	0.000260987	0	0	0	
0.0563333	-0.14766	-0.00833238	0.00276779	0.000256119	0	0	0	
0.0565	0.146879	0.0100526	0.00279686	0.000252132	0	0	0	
0.0566667	-0.15006	-0.0104306	0.00281333	0.000262258	0	0	0	
0.0568333	0.145233	0.0111103	0.00283583	0.000267364	0	0	0	
0.057	-0.144064	-0.0104938	0.00280992	0.000271498	0	0	0	
0.0571667	0.143922	0.00973973	0.00278552	0.000261783	0	0	0	
0.0573333	-0.151474	-0.00807904	0.00277685	0.000255413	0	0	0	
0.0575	0.152883	0.00827573	0.00283212	0.00024642	0	0	0	
0.0576667	-0.153338	-0.0106916	0.00287905	0.000257921	0	0	0	
0.0578333	0.149416	0.013623	0.00292005	0.000277623	0	0	0	
0.058	-0.149735	-0.012306	0.00288828	0.000298528	0	0	0	
0.0581667	0.147784	0.0103098	0.00287318	0.000288742	0	0	0	
0.0583333	-0.143431	-0.00956224	0.00282672	0.000276908	0	0	0	
0.0585	0.144244	0.00955397	0.00281279	0.000270739	0	0	0	
0.0586667	-0.15501	-0.0108039	0.00282068	0.00027414	0	0	0	
0.0588333	0.154897	0.0114351	0.0028783	0.000278152	0	0	0	
0.059	-0.146253	-0.0117724	0.00290946	0.000288487	0	0	0	
0.0591667	0.144198	0.0118518	0.00287713	0.000297332	0	0	0	
0.0593333	-0.148473	-0.010298	0.00283015	0.000293479	0	0	0	
0.0595	0.146664	0.00952594	0.00280519	0.000281313	0	0	0	
0.0596667	-0.148275	-0.0102753	0.00282891	0.000281696	0	0	0	
0.0598333	0.14485	0.0113613	0.00282611	0.000291168	0	0	0	
0.06	-0.149532	-0.010479	0.00283364	0.000298793	0	0	0	
0.0601667	0.145409	0.0105207	0.00282573	0.000290676	0	0	0	
0.0603333	-0.143947	-0.00951634	0.00280879	0.000279393	0	0	0	
0.0605	0.141495	0.00964871	0.00278162	0.000268066	0	0	0	
0.0606667	-0.147857	-0.0102784	0.00276115	0.000275419	0	0	0	
0.0608333	0.145036	0.0103256	0.00278723	0.000279312	0	0	0	
0.061	-0.147057	-0.0104321	0.00279967	0.000281798	0	0	0	
0.0611667	0.144908	0.0102124	0.00281025	0.000275531	0	0	0	
0.0613333	-0.144399	-0.0106243	0.00279148	0.00027424	0	0	0	
0.0615	0.146264	0.00960828	0.00279836	0.000271935	0	0	0	
0.0616667	-0.146955	-0.010087	0.0028029	0.000267326	0	0	0	
0.0618333	0.147886	0.00905472	0.00282669	0.000263511	0	0	0	
0.062	-0.145668	-0.0106885	0.00282721	0.000265338	0	0	0	
0.0621667	0.144501	0.010284	0.00282488	0.000274199	0	0	0	
0.0623333	-0.144708	-0.0104584	0.00280369	0.000280253	0	0	0	
0.0625	0.142467	0.0103109	0.00280157	0.00028692	0	0	0	
0.0626667	-0.14554	-0.0104667	0.00279	0.000288759	0	0	0	
0.0628333	0.146101	0.00963154	0.0028049	0.000287823	0	0	0	
0.063	-0.144116	-0.0105184	0.00280779	0.000283196	0	0	0	
0.0631667	0.1455	0.00972894	0.00282044	0.000279317	0	0	0	
0.0633333	-0.151273	-0.00847981	0.00283752	0.000270508	0	0	0	
0.0635	0.150941	0.00695308	0.00286948	0.000262528	0	0	0	
0.0636667	-0.140821	-0.00830904	0.00287204	0.000264444	0	0	0	
0.0638333	0.135609	0.00913758	0.0028089	0.000279763	0	0	0	
0.064	-0.139836	-0.0085061	0.00273625	0.000286971	0	0	0	
0.0641667	0.140641	0.00824019	0.00270931	0.000282503	0	0	0	
0.0643333	-0.142356	-0.00908769	0.002724	0.00027669	0	0	0	
0.0645	0.144088	0.00914567	0.00277037	0.000274359	0	0	0	
0.0646667	-0.149631	-0.00803405	0.00281195	0.000268415	0	0	0	
0.0648333	0.143299	0.00815782	0.00282846	0.00026157	0	0	0	
0.065	-0.135487	-0.00909567	0.00278743	0.000264274	0	0	0	
0.0651667	0.136885	0.00882975	0.00272573	0.000267133	0	0	0	
0.0653333	-0.144312	-0.00768397	0.00271128	0.000256917	0	0	0	
0.0655	0.14846	0.00749243	0.00276851	0.000242081	0	0	0	
0.0656667	-0.147098	-0.00808754	0.00283266	0.00024102	0	0	0	
0.0658333	0.148045	0.00916529	0.00286578	0.000257962	0	0	0	
0.066	-0.146943	-0.00916698	0.00287223	0.000275847	0	0	0	
0.0661667	0.141337	0.00922973	0.0028418	0.000280611	0	0	0	
0.0663333	-0.137368	-0.00888003	0.00280392	0.000274803	0	0	0	
0.0665	0.139178	0.00959949	0.00275086	0.000269643	0	0	0	
0.0666667	-0.141901	-0.00886797	0.00275726	0.000272701	0	0	0	
0.0668333	0.143663	0.0087825	0.00279478	0.000270266	0	0	0	
0.067	-0.148635	-0.00867566	0.00284236	0.000268658	0	0	0	
0.0671667	0.14751	0.0100557	0.00288218	0.000266676	0	0	0	
0.0673333	-0.142463	-0.0103672	0.00287323	0.000277717	0	0	0	
0.0675	0.137867	0.00991862	0.00283049	0.000279082	0	0	0	
0.0676667	-0.137566	-0.00966341	0.00275991	0.00027578	0	0	0	
0.0678333	0.143516	0.00806162	0.00275309	0.000267364	0	0	0	
0.068	-0.141017	-0.00967255	0.00277166	0.000268715	0	0	0	
0.0681667	0.142873	0.00918131	0.00280485	0.000280315	0	0	0	
0.0683333	-0.139752	-0.00940894	0.00279705	0.000290622	0	0	0	
0.0685	0.143891	0.00992122	0.00279048	0.000299581	0	0	0	
0.0686667	-0.141979	-0.0113178	0.00279536	0.000298506	0	0	0	
0.0688333	0.142887	0.00950997	0.00281294	0.000299698	0	0	0	
0.069	-0.142372	-0.00841871	0.00282968	0.000291199	0	0	0	
0.0691667	0.147498	0.00721305	0.00285183	0.00028499	0	0	0	
0.0693333	-0.150693	-0.00712238	0.00289343	0.000276498	0	0	0	
0.0695	0.149266	0.00931607	0.00293485	0.000275468	0	0	0	
0.0696667	-0.142354	-0.0083368	0.00294779	0.000276985	0	0	0	
0.0698333	0.138553	0.00833489	0.00291045	0.00027267	0	0	0	
0.07	-0.14164	-0.00745095	0.00284648	0.000270268	0	0	0	
0.0701667	0.140827	0.00833996	0.00281642	0.000266707	0	0	0	
0.0703333	-0.138752	-0.00781942	0.00279194	0.000269971	0	0	0	
0.0705	0.137063	0.00881799	0.00281171	0.000267195	0	0	0	
0.0706667	-0.144553	-0.00856459	0.00282367	0.00027269	0	0	0	
0.0708333	0.149831	0.00801917	0.00288621	0.000282579	0	0	0	
0.071	-0.143217	-0.0101649	0.00289532	0.000299008	0	0	0	
0.0711667	0.132435	0.0125605	0.00286759	0.000306859	0	0	0	
0.0713333	-0.128004	-0.00900725	0.00276002	0.000306888	0	0	0	
0.0715	0.118671	0.00881227	0.00271477	0.000288742	0	0	0	
0.0716667	-0.13686	-0.00541456	0.00269429	0.000279203	0	0	0	
0.0718333	0.168166	0.00269685	0.00288518	0.000273654	0	0	0	
0.072	-0.171048	-0.00422479	0.00312169	0.000284662	0	0	0	
0.0721667	0.152313	0.00726636	0.00326154	0.000298319	0	0	0	
0.0723333	-0.118664	-0.00884759	0.00306509	0.000316028	0	0	0	
0.0725	0.0897946	0.00906716	0.00265997	0.000307092	0	0	0	
0.0726667	-0.101337	-0.0046368	0.00236305	0.000267594	0	0	0	
0.0728333	0.140759	0.00368835	0.00247352	0.000212396	0	0	0	
0.073	-0.17669	-0.0038955	0.00285532	0.000200349	0	0	0	
0.0731667	0.153827	0.00271739	0.00329663	0.000207627	0	0	0	
0.0733333	-0.0863046	-0.014241	0.00335981	0.000189981	0	0	0	
0.0735	0.0567651	0.0130312	0.00312773	0.000216399	0	0	0	
0.0736667	-0.113659	-0.00903862	0.00272504	0.000214076	0	0	0	
0.0738333	0.124854	0.00730248	0.00251626	0.000252617	0	0	0	
0.074	-0.144658	-0.00835933	0.00247268	0.000264739	0	0	0	
0.0741667	0.137538	0.010686	0.00269214	0.000310879	0	0	0	
0.0743333	-0.0651564	-0.0159741	0.00256761	0.000341695	0	0	0	
0.0745	0.00972691	0.0229078	0.00216054	0.00039365	0	0	0	
0.0746667	-0.0568611	-0.015831	0.00165833	0.00042709	0	0	0	
0.0748333	0.120296	0.010312	0.0017237	0.00043046	0	0	0	
0.075	-0.157239	-0.00760801	0.00221402	0.000354208	0	0	0	
0.0751667	0.159813	0.00715859	0.00277225	0.000297354	0	0	0	
0.0753333	-0.130945	-0.0076244	0.00296904	0.000295515	0	0	0	
0.0755	0.107386	0.0100331	0.00288847	0.00031183	0	0	0	
0.0756667	-0.0977487	-0.00555106	0.00262421	0.000315159	0	0	0	
0.0758333	0.138142	0.00578418	0.00254294	0.000298622	0	0	0	
0.076	-0.150908	-0.00947478	0.00268422	0.000308797	0	0	0	
0.0761667	0.135441	0.0119573	0.00280833	0.000334909	0	0	0	
0.0763333	-0.133195	-0.00929633	0.00279188	0.000353605	0	0	0	
0.0765	0.139751	0.00787963	0.00279507	0.000328523	0	0	0	
0.0766667	-0.13446	-0.00693903	0.00288256	0.000300002	0	0	0	
0.0768333	0.12489	0.00869685	0.00289977	0.000303641	0	0	0	
0.077	-0.115787	-0.0107223	0.0027768	0.000330503	0	0	0	
0.0771667	0.128358	0.00795564	0.00274115	0.000332485	0	0	0	
0.0773333	-0.151132	-0.00353082	0.00284709	0.00029498	0	0	0	
0.0775	0.148212	0.00267648	0.00306548	0.000255627	0	0	0	
0.0776667	-0.147621	-0.00464572	0.00315184	0.00023944	0	0	0	
0.0778333	0.149111	0.00554744	0.00325625	0.000251699	0	0	0	
0.078	-0.143108	-0.00576354	0.00320088	0.000279781	0	0	0	
0.0781667	0.119587	0.00793978	0.00304189	0.000312935	0	0	0	
0.0783333	-0.113625	-0.00913124	0.00280343	0.000327874	0	0	0	
0.0785	0.126924	0.00674249	0.00270476	0.000303151	0	0	0	
0.0786667	-0.124809	-0.00527687	0.00272649	0.000248756	0	0	0	
0.0788333	0.111761	0.0047997	0.00276279	0.000214224	0	0	0	
0.079	-0.122644	-0.00451604	0.00271409	0.000226897	0	0	0	
0.0791667	0.124114	0.00609223	0.00275222	0.000273535	0	0	0	
0.0793333	-0.111806	-0.0127059	0.00280149	0.000316991	0	0	0	
0.0795	0.143066	0.00847587	0.00303045	0.000341662	0	0	0	
0.0796667	-0.133915	0.00605884	0.00335421	0.000289826	0	0	0	
0.0798333	0.173246	-0.0108122	0.00356245	0.000234157	0	0	0	
0.08	-0.140735	0.00765176	0.00353556	0.000185475	0	0	0	
0.0801667	0.130565	-0.00204587	0.00322228	0.000217133	0	0	0	
0.0803333	-0.0992704	-0.00639483	0.00294028	0.000265838	0	0	0	
0.0805	0.104055	0.0122272	0.0025481	0.000327086	0	0	0	
0.0806667	-0.0524501	-0.00686058	0.00243423	0.000348796	0	0	0	
0.0808333	0.103567	0.00588958	0.00247047	0.000265525	0	0	0	
0.081	-0.126733	-0.00117601	0.00286346	0.000190524	0	0	0	
0.0811667	0.138605	0.000864336	0.0029897	9.97322E-05	0	0	0	
0.0813333	-0.132514	-0.00214543	0.00307939	0.000134371	0	0	0	
0.0815	0.144423	0.00725401	0.00291125	0.000174215	0	0	0	
0.0816667	-0.141706	-0.0089475	0.0028784	0.000262977	0	0	0	
0.0818333	0.131653	0.00594499	0.00282376	0.000303931	0	0	0	
0.082	-0.120184	-0.00487399	0.00283455	0.000292072	0	0	0	
0.0821667	0.138604	0.00381601	0.00285812	0.000269175	0	0	0	
0.0823333	-0.148951	-0.00331681	0.00291851	0.000261711	0	0	0	
0.0825	0.142633	0.00517655	0.00301075	0.000272815	0	0	0	
0.0826667	-0.129522	-0.00638317	0.00300204	0.000281913	0	0	0	
0.0828333	0.133311	0.00488785	0.00294071	0.000282929	0	0	0	
0.083	-0.110638	-0.00580728	0.00281501	0.000275386	0	0	0	
0.0831667	0.117426	0.00523324	0.00269912	0.000264539	0	0	0	
0.0833333	-0.134734	-0.00375334	0.00269036	0.000251896	0	0	0	
0.0835	0.145137	0.00320822	0.00282899	0.000247672	0	0	0	
0.0836667	-0.130197	-0.00415649	0.00299959	0.000256594	0	0	0	
0.0838333	0.125861	0.005245	0.00298089	0.000277902	0	0	0	
0.084	-0.125403	-0.00533085	0.00285776	0.000294515	0	0	0	
0.0841667	0.127789	0.00456697	0.00277804	0.000291544	0	0	0	
0.0843333	-0.127307	-0.00550445	0.00280534	0.000268676	0	0	0	
0.0845	0.124472	0.00438489	0.00282429	0.000245913	0	0	0	
0.0846667	-0.121876	-0.00429401	0.00282233	0.000236113	0	0	0	
0.0848333	0.118353	0.00570636	0.00279133	0.000247779	0	0	0	
0.085	-0.120667	-0.00608535	0.0027915	0.000267276	0	0	0	
0.0851667	0.126835	0.00559039	0.00283009	0.000278473	0	0	0	
0.0853333	-0.136507	-0.0050653	0.002937	0.000278075	0	0	0	
0.0855	0.13572	0.00419955	0.00301257	0.000268991	0	0	0	
0.0856667	-0.12775	-0.00252432	0.00297844	0.000257899	0	0	0	
0.0858333	0.113151	0.001743	0.00283886	0.000263481	0	0	0	
0.086	-0.110087	-0.00616659	0.00271234	0.000299101	0	0	0	
0.0861667	0.112833	0.00817618	0.00265325	0.000338771	0	0	0	
0.0863333	-0.125793	-0.00587761	0.00271454	0.000337827	0	0	0	
0.0865	0.128061	0.00418047	0.00281017	0.000294328	0	0	0	
0.0866667	-0.126736	-0.00322534	0.00293717	0.000250788	0	0	0	
0.0868333	0.127864	0.0017676	0.0029379	0.000229928	0	0	0	
0.087	-0.115306	-0.00170301	0.00290055	0.000237016	0	0	0	
0.0871667	0.121713	0.00386473	0.00277419	0.000265745	0	0	0	
0.0873333	-0.123848	-0.00565938	0.00277616	0.00030108	0	0	0	
0.0875	0.117225	0.00660967	0.00275701	0.000318576	0	0	0	
0.0876667	-0.117042	-0.00518996	0.00282614	0.000313601	0	0	0	
0.0878333	0.116377	0.00367066	0.00288529	0.000295214	0	0	0	
0.088	-0.12926	-0.00534903	0.00299493	0.000283402	0	0	0	
0.0881667	0.136159	0.00363322	0.00301684	0.000280491	0	0	0	
0.0883333	-0.117013	-0.0041844	0.00302488	0.000276786	0	0	0	
0.0885	0.116598	0.00281727	0.00293747	0.00027521	0	0	0	
0.0886667	-0.116656	-0.00364251	0.00288731	0.000280377	0	0	0	
0.0888333	0.101121	0.00424548	0.00277272	0.00030439	0	0	0	
0.089	-0.100043	-0.00700686	0.00268845	0.000322141	0	0	0	
0.0891667	0.112158	0.00460075	0.00270278	0.000323445	0	0	0	
0.0893333	-0.112195	-0.00440017	0.00277656	0.000300772	0	0	0	
0.0895	0.110949	0.00331346	0.00279895	0.00027763	0	0	0	
0.0896667	-0.105279	-0.00248437	0.00273675	0.000253617	0	0	0	
0.0898333	0.121315	0.00201126	0.00269235	0.0002485	0	0	0	
0.09	-0.12221	-0.00390128	0.00282772	0.000263793	0	0	0	
0.0901667	0.130474	0.00498876	0.00292973	0.000292208	0	0	0	
0.0903333	-0.11582	-0.00661795	0.00296767	0.000303302	0	0	0	
0.0905	0.112799	0.00485499	0.0028187	0.000293351	0	0	0	
0.0906667	-0.120333	-0.00468643	0.00275662	0.000267202	0	0	0	
0.0908333	0.131399	0.00478747	0.00276812	0.000250998	0	0	0	
0.091	-0.115307	-0.00563615	0.00291675	0.000248094	0	0	0	
0.0911667	0.109624	0.0047714	0.00291286	0.000269706	0	0	0	
0.0913333	-0.116049	-0.00529843	0.00289446	0.000291713	0	0	0	
0.0915	0.122888	0.00663721	0.00289001	0.000300266	0	0	0	
0.0916667	-0.125671	-0.00420984	0.00297663	0.00029063	0	0	0	
0.0918333	0.122398	0.00302054	0.00300874	0.000281093	0	0	0	
0.092	-0.120009	-0.00349035	0.0030211	0.000286219	0	0	0	
0.0921667	0.124786	0.00625229	0.00301717	0.00029434	0	0	0	
0.0923333	-0.0926939	-5.42213E-05	0.00291352	0.000272719	0	0	0	
0.0925	0.100376	-0.0072648	0.00266864	0.000212491	0	0	0	
0.0926667	-0.12842	0.0161903	0.00254336	0.000195734	0	0	0	
0.0928333	0.150041	-0.0204747	0.00283463	0.000324161	0	0	0	
0.093	-0.0988978	0.014007	0.00296972	0.000498135	0	0	0	
0.0931667	0.069924	-0.00378726	0.00306483	0.000545037	0	0	0	
0.0933333	-0.0843241	-0.00117832	0.00283447	0.000393722	0	0	0	
0.0935	0.109914	0.0010843	0.0027611	0.000203419	0	0	0	
0.0936667	-0.105582	-8.46368E-05	0.0026574	9.05844E-05	0	0	0	
0.0938333	0.143769	-0.0142844	0.00269767	8.89372E-05	0	0	0	
0.094	-0.081404	0.0157633	0.00299568	0.000170997	0	0	0	
0.0941667	0.102998	-0.00709734	0.00301683	0.000244829	0	0	0	
0.0943333	-0.0827366	-0.0064178	0.00276277	0.000255644	0	0	0	
0.0945	0.0862905	0.00665676	0.00232321	0.000201737	0	0	0	
0.0946667	-0.0752447	0.000460562	0.00218002	0.000146165	0	0	0	
0.0948333	0.08621	-0.00381737	0.00226919	0.000163551	0	0	0	
0.095	-0.102337	0.00268116	0.00243716	0.000236693	0	0	0	
0.0951667	0.102337	0.00426222	0.00261238	0.000337641	0	0	0	
0.0953333	-0.102926	-0.00406268	0.00274693	0.000382448	0	0	0	
0.0955	0.115616	0.00403759	0.00283453	0.000353134	0	0	0	
0.0956667	-0.103327	-0.0047037	0.00280656	0.000306853	0	0	0	
0.0958333	0.0885342	0.00389464	0.00264334	0.000278105	0	0	0	
0.096	-0.0848597	-0.00264538	0.00250196	0.000259242	0	0	0	
0.0961667	0.0981649	0.000430834	0.00251864	0.000240629	0	0	0	
0.0963333	-0.106035	-0.00167816	0.00270527	0.000240013	0	0	0	
0.0965	0.112166	0.000754212	0.0028293	0.000272572	0	0	0	
0.0966667	-0.105238	-0.000717906	0.00284444	0.000309285	0	0	0	
0.0968333	0.0974697	0.00153244	0.00275343	0.000320349	0	0	0	
0.097	-0.0961239	-0.00161222	0.00273128	0.000308235	0	0	0	
0.0971667	0.103504	0.00221736	0.00275776	0.000294366	0	0	0	
0.0973333	-0.103404	-0.00454907	0.00281827	0.000288093	0	0	0	
0.0975	0.102412	0.00295203	0.00285499	0.000280222	0	0	0	
0.0976667	-0.107014	0.000649768	0.00287703	0.000259282	0	0	0	
0.0978333	0.111492	-0.00306046	0.00290082	0.000248067	0	0	0	
0.098	-0.0991744	0.000371485	0.0028759	0.000262149	0	0	0	
0.0981667	0.0916479	0.00343574	0.00277261	0.000290709	0	0	0	
0.0983333	-0.0830485	-0.00939486	0.00270645	0.000308503	0	0	0	
0.0985	0.10771	0.00402049	0.00271043	0.000322835	0	0	0	
0.0986667	-0.103928	-0.00572943	0.00280045	0.000320815	0	0	0	
0.0988333	0.101569	0.00260946	0.00282863	0.000303613	0	0	0	
0.099	-0.105482	0.000931213	0.0028627	0.000256265	0	0	0	
0.0991667	0.10118	0.000558486	0.00282382	0.000237163	0	0	0	
0.0993333	-0.08007	-0.00533632	0.00273238	0.000251981	0	0	0	
0.0995	0.0908149	-0.000603551	0.0025532	0.000294268	0	0	0	
0.0996667	-0.0939061	-0.00374408	0.00256025	0.000320632	0	0	0	
0.0998333	0.103626	0.00248784	0.00266136	0.00033024	0	0	0	
0.1	-0.104223	-0.00225937	0.00282409	0.000319679	0	0	0	
0.100167	0.0979591	0.00286349	0.00281615	0.000306396	0	0	0	
0.100333	-0.0998088	-0.00342816	0.00279677	0.000289035	0	0	0	
0.1005	0.0987515	0.00194818	0.00278308	0.000272629	0	0	0	
0.100667	-0.0972625	-0.000524371	0.00278435	0.000259223	0	0	0	
0.100833	0.0958928	0.00128012	0.00276682	0.000262702	0	0	0	
0.101	-0.0981488	-0.00257265	0.00277144	0.000278997	0	0	0	
0.101167	0.0909161	-0.00117515	0.00273805	0.000267297	0	0	0	
0.101333	-0.0733826	0.0178425	0.00263625	0.000264601	0	0	0	
0.1015	0.0722432	-0.0264894	0.0024764	0.000365457	0	0	0	
0.101667	-0.101045	0.0122871	0.00240344	0.000549909	0	0	0	
0.101833	0.128113	0.00286018	0.00250254	0.000694808	0	0	0	
0.102	-0.0762026	-0.00983837	0.00263623	0.00061547	0	0	0	
0.102167	0.0613244	-0.00198827	0.00267049	0.000405348	0	0	0	
0.102333	-0.0572606	0.011708	0.00260831	0.000200719	0	0	0	
0.1025	0.0777628	-0.0215201	0.00252819	0.000183709	0	0	0	
0.102667	-0.0934827	0.023986	0.00262888	0.000283722	0	0	0	
0.102833	0.107146	-0.0198071	0.00280815	0.000430931	0	0	0	
0.103	-0.110646	0.00164284	0.00301715	0.0004912	0	0	0	
0.103167	0.0832124	0.00660806	0.00294923	0.000485371	0	0	0	
0.103333	-0.0111159	-0.00903753	0.00257465	0.000378374	0	0	0	
0.1035	0.0253683	-0.00112128	0.00230643	0.000248273	0	0	0	
0.103667	-0.16099	0.00720576	0.00271295	0.000175498	0	0	0	
0.103833	0.0835395	-0.00224673	0.00397751	0.000203839	0	0	0	
0.104	-0.168901	0.00175656	0.00435621	0.000243504	0	0	0	
0.104167	0.104301	-0.00239652	0.00420037	0.000219915	0	0	0	
0.104333	-0.0822495	0.00604932	0.00309211	0.00017527	0	0	0	
0.1045	0.0576876	-0.00533248	0.00278449	0.000185111	0	0	0	
0.104667	-0.0661138	-0.000219083	0.00254848	0.000248747	0	0	0	
0.104833	0.0737926	-4.26026E-05	0.00307097	0.000290615	0	0	0	
0.105	-0.0387964	-0.00180636	0.00354057	0.000276201	0	0	0	
0.105167	0.0861003	-0.000291967	0.00364541	0.000221356	0	0	0	
0.105333	-0.101051	0.000633094	0.00323115	0.000170848	0	0	0	
0.1055	0.0786198	0.000252489	0.00294112	0.000164293	0	0	0	
0.105667	-0.0726196	0.000412415	0.00293288	0.000199739	0	0	0	
0.105833	0.0960449	-0.00241368	0.00298697	0.000248083	0	0	0	
0.106	-0.107214	0.00175373	0.00293375	0.000262531	0	0	0	
0.106167	0.0925097	-0.00134454	0.00279955	0.000238291	0	0	0	
0.106333	-0.0936878	-0.000767694	0.00270601	0.000210438	0	0	0	
0.1065	0.0914238	0.00318079	0.00271748	0.000224105	0	0	0	
0.106667	-0.0683571	-0.00241111	0.00293036	0.000280159	0	0	0	
0.106833	0.104034	-0.00419807	0.00304016	0.000322205	0	0	0	
0.107	-0.091331	0.00238671	0.00305196	0.000318155	0	0	0	
0.107167	0.0755784	-0.000883267	0.00284405	0.000299216	0	0	0	
0.107333	-0.0702426	-0.00100115	0.00268682	0.000298926	0	0	0	
0.1075	0.0710171	0.000520973	0.00260553	0.000316656	0	0	0	
0.107667	-0.0534298	0.00187908	0.00276371	0.000329085	0	0	0	
0.107833	0.0855797	-0.00778744	0.00291837	0.000343245	0	0	0	
0.108	-0.0923304	0.00310464	0.00304046	0.000337367	0	0	0	
0.108167	0.0852605	-0.00271039	0.00296122	0.000318122	0	0	0	
0.108333	-0.0750602	0.00327283	0.00285496	0.000289114	0	0	0	
0.1085	0.0766315	-0.0026319	0.00271429	0.000292131	0	0	0	
0.108667	-0.0818628	0.00330034	0.0027253	0.000311568	0	0	0	
0.108833	0.0797221	-0.00103826	0.00280458	0.000312108	0	0	0	
0.109	-0.0827742	0.000909473	0.00285297	0.000289076	0	0	0	
0.109167	0.0860671	-0.00109299	0.00288343	0.000261933	0	0	0	
0.109333	-0.0859546	0.000862534	0.00289771	0.000260834	0	0	0	
0.1095	0.080935	-4.80989E-06	0.00287981	0.000270348	0	0	0	
0.109667	-0.0765366	0.00112763	0.00282039	0.000274058	0	0	0	
0.109833	0.0831994	0.000278615	0.0028203	0.000274657	0	0	0	
0.11	-0.0977075	0.000426926	0.00287375	0.000259147	0	0	0	
0.110167	0.0981235	-0.0106537	0.00279707	0.000223931	0	0	0	
0.110333	-0.0885395	0.0227303	0.00262045	0.000243553	0	0	0	
0.1105	0.0562722	-0.0194191	0.00242139	0.000311532	0	0	0	
0.110667	-0.0587327	0.0100645	0.00243522	0.000446404	0	0	0	
0.110833	0.0703548	-0.000369432	0.00256748	0.000555478	0	0	0	
0.111	-0.0835976	-0.00710064	0.0027302	0.000610826	0	0	0	
0.111167	0.0967572	0.00825424	0.00288234	0.00054217	0	0	0	
0.111333	-0.125059	-8.56848E-05	0.00301977	0.00034291	0	0	0	
0.1115	0.0943248	-0.00823546	0.0031499	0.000195349	0	0	0	
0.111667	-0.0760534	0.0140877	0.00302891	0.00013041	0	0	0	
0.111833	0.0705581	-0.0139703	0.00284033	0.000224716	0	0	0	
0.112	-0.0726512	0.00700121	0.00267	0.000329295	0	0	0	
0.112167	0.0742688	0.000370416	0.00271594	0.000427895	0	0	0	
0.112333	-0.0682969	-0.000229146	0.00277581	0.00041719	0	0	0	
0.1125	0.0628412	-0.00343734	0.00278311	0.000336875	0	0	0	
0.112667	-0.0597927	0.00333019	0.00275221	0.000264605	0	0	0	
0.112833	0.0663299	-0.00180802	0.00276886	0.000246153	0	0	0	
0.113	-0.0698335	0.00148806	0.00285219	0.000255057	0	0	0	
0.113167	0.0729958	-0.00177788	0.00292613	0.000265814	0	0	0	
0.113333	-0.0685014	0.00185967	0.0029242	0.000285026	0	0	0	
0.1135	0.0668148	-0.000950684	0.00286308	0.000307426	0	0	0	
0.113667	-0.0644462	-0.000236165	0.00278423	0.000313108	0	0	0	
0.113833	0.0666096	-0.000533102	0.00271992	0.000295822	0	0	0	
0.114	-0.0587222	-4.26685E-05	0.002697	0.000266933	0	0	0	
0.114167	0.0638454	-0.00305557	0.00272918	0.000238558	0	0	0	
0.114333	-0.0677513	0.00540857	0.00280663	0.000228797	0	0	0	
0.1145	0.0688014	-0.00482517	0.00284712	0.000251219	0	0	0	
0.114667	-0.0656019	0.00239825	0.00284397	0.000278536	0	0	0	
0.114833	0.0722332	-0.00485555	0.00280805	0.000284542	0	0	0	
0.115	-0.0655111	0.00323084	0.00279925	0.000266192	0	0	0	
0.115167	0.065757	-0.00319971	0.00276915	0.000255093	0	0	0	
0.115333	-0.0667552	0.00556104	0.00278278	0.000251331	0	0	0	
0.1155	0.0701268	-0.00720509	0.00280427	0.000258201	0	0	0	
0.115667	-0.0683066	0.00930318	0.00279892	0.000294226	0	0	0	
0.115833	0.0590437	-0.00528342	0.002752	0.000343527	0	0	0	
0.116	-0.0513261	0.00221646	0.00274343	0.000375801	0	0	0	
0.116167	0.0612631	0.000919445	0.00284595	0.000373645	0	0	0	
0.116333	-0.0664704	0.000537156	0.00292043	0.00035645	0	0	0	
0.1165	0.064863	-0.00182967	0.00292087	0.000325779	0	0	0	
0.116667	-0.0635142	0.00619398	0.00286882	0.000285614	0	0	0	
0.116833	0.0680953	-0.00970184	0.00281837	0.000271941	0	0	0	
0.117	-0.0423485	0.00522843	0.0027807	0.000277238	0	0	0	
0.117167	0.0575777	-0.00851422	0.0027493	0.000308453	0	0	0	
0.117333	-0.0533454	0.00720316	0.00280337	0.00031621	0	0	0	
0.1175	0.0573518	-0.00518761	0.00281174	0.000333391	0	0	0	
0.117667	-0.0534266	0.00397419	0.0028095	0.000325251	0	0	0	
0.117833	0.053242	-0.00372269	0.00277411	0.000310077	0	0	0	
0.118	-0.0561506	0.0037003	0.00279047	0.000298043	0	0	0	
0.118167	0.055711	-0.00250718	0.00281869	0.000296751	0	0	0	
0.118333	-0.0550672	0.00160817	0.00283637	0.000281095	0	0	0	
0.1185	0.0535212	-0.00314962	0.00284527	0.000246547	0	0	0	
0.118667	-0.0557148	0.00417664	0.00280784	0.000224968	0	0	0	
0.118833	0.0514597	-0.00429946	0.00274881	0.000241029	0	0	0	
0.119	-0.0494661	0.00421697	0.00271944	0.000270519	0	0	0	
0.119167	0.0521584	-0.00504131	0.00277263	0.000288313	0	0	0	
0.119333	-0.0579217	0.00398603	0.00284482	0.000291783	0	0	0	
0.1195	0.0572918	-0.00302547	0.00288393	0.000295259	0	0	0	
0.119667	-0.0548406	0.00243391	0.00285931	0.000292867	0	0	0	
0.119833	0.0534699	-0.00372174	0.00281973	0.000285028	0	0	0	
0.12	-0.052695	0.00571975	0.00279814	0.000275585	0	0	0	
0.120167	0.0537629	-0.00713478	0.00279526	0.000277567	0	0	0	
0.120333	-0.0535054	0.00673419	0.00278336	0.000289418	0	0	0	
0.1205	0.0472122	-0.00515867	0.00277847	0.00029961	0	0	0	
0.120667	-0.0494784	0.0044929	0.00280681	0.000299838	0	0	0	
0.120833	0.0518128	-0.00416125	0.00286317	0.000291549	0	0	0	
0.121	-0.0517751	0.00539073	0.00288176	0.000287763	0	0	0	
0.121167	0.0488869	-0.00615982	0.00284469	0.000287479	0	0	0	
0.121333	-0.0461592	0.00640763	0.00278986	0.00029184	0	0	0	
0.1215	0.0466249	-0.00493277	0.00276545	0.00029528	0	0	0	
0.121667	-0.0459993	0.00347833	0.00278644	0.000296395	0	0	0	
0.121833	0.0458789	-0.00266096	0.00282171	0.000286446	0	0	0	
0.122	-0.0492351	0.00398295	0.00284557	0.000269965	0	0	0	
0.122167	0.0479025	-0.00463504	0.00283956	0.000255937	0	0	0	
0.122333	-0.0456938	0.00504827	0.00280303	0.00025636	0	0	0	
0.1225	0.0429272	-0.0052963	0.0027455	0.000269196	0	0	0	
0.122667	-0.0444417	0.00463846	0.00272026	0.000278522	0	0	0	
0.122833	0.0428896	-0.00444089	0.00275186	0.000269434	0	0	0	
0.123	-0.0475691	0.00652222	0.00279615	0.000261581	0	0	0	
0.123167	0.0387942	-0.00529464	0.00278994	0.000275933	0	0	0	
0.123333	-0.036736	0.00345304	0.00274469	0.000310691	0	0	0	
0.1235	0.0365535	-0.00210451	0.00276328	0.000320752	0	0	0	
0.123667	-0.0468001	0.00280986	0.0028166	0.000303282	0	0	0	
0.123833	0.044011	-0.000609658	0.00284399	0.000278437	0	0	0	
0.124	-0.0439655	0.00265275	0.00280602	0.000260317	0	0	0	
0.124167	0.0434765	-0.00630014	0.00279162	0.000244296	0	0	0	
0.124333	-0.0447295	0.00878598	0.00279522	0.000244999	0	0	0	
0.1245	0.0370281	-0.00645743	0.00278955	0.000262995	0	0	0	
0.124667	-0.036151	0.00570949	0.00276274	0.000291187	0	0	0	
0.124833	0.0398059	-0.00549943	0.0027769	0.000304845	0	0	0	
0.125	-0.0435227	0.00429353	0.00281654	0.000312097	0	0	0	
0.125167	0.0394867	-0.00346129	0.00283118	0.000310407	0	0	0	
0.125333	-0.0352448	0.00421994	0.00280752	0.000297834	0	0	0	
0.1255	0.035937	-0.00392042	0.00279889	0.00027186	0	0	0	
0.125667	-0.0417123	0.00634728	0.00282488	0.000249685	0	0	0	
0.125833	0.0352753	-0.00665178	0.00284855	0.000239988	0	0	0	
0.126	-0.0368065	0.00621581	0.0028197	0.000254599	0	0	0	
0.126167	0.0348242	-0.00491784	0.00278067	0.000277838	0	0	0	
0.126333	-0.035044	0.00451726	0.0027624	0.00029465	0	0	0	
0.1265	0.035239	-0.00492911	0.00278163	0.000292349	0	0	0	
0.126667	-0.0371201	0.00647366	0.00279365	0.000282009	0	0	0	
0.126833	0.0334453	-0.00600376	0.00279823	0.000271617	0	0	0	
0.127	-0.0358812	0.00591582	0.00279588	0.00027085	0	0	0	
0.127167	0.0355776	-0.00634103	0.00281005	0.000276257	0	0	0	
0.127333	-0.0344656	0.00608003	0.00281392	0.000281064	0	0	0	
0.1275	0.0323958	-0.00688989	0.00280122	0.000284352	0	0	0	
0.127667	-0.0300642	0.00731293	0.00277233	0.00028505	0	0	0	
0.127833	0.0297602	-0.00596448	0.00276901	0.000287617	0	0	0	
0.128	-0.0310017	0.00441873	0.0028016	0.000284045	0	0	0	
0.128167	0.0360235	-0.00610912	0.0028458	0.000278661	0	0	0	
0.128333	-0.030236	0.00553653	0.00286186	0.000267429	0	0	0	
0.1285	0.0296585	-0.00756379	0.0028153	0.000267536	0	0	0	
0.128667	-0.0238477	0.0070663	0.00275688	0.000270966	0	0	0	
0.128833	0.0277764	-0.00665363	0.0027484	0.00028227	0	0	0	
0.129	-0.03186	0.00542557	0.00279867	0.000285371	0	0	0	
0.129167	0.0315661	-0.00542012	0.00282083	0.000286433	0	0	0	
0.129333	-0.026767	0.00494344	0.00281763	0.000283075	0	0	0	
0.1295	0.0312847	-0.00731726	0.00283087	0.000281671	0	0	0	
0.129667	-0.0283736	0.00859941	0.00285197	0.00028171	0	0	0	
0.129833	0.0245263	-0.0077477	0.0028216	0.000285382	0	0	0	
0.13	-0.0246639	0.0069015	0.00277923	0.000288457	0	0	0	
0.130167	0.0290589	-0.00772166	0.00277811	0.000291727	0	0	0	
0.130333	-0.0284069	0.00699166	0.00280469	0.000294628	0	0	0	
0.1305	0.0247634	-0.00749346	0.00280586	0.000299634	0	0	0	
0.130667	-0.0238046	0.00800681	0.00279323	0.000300091	0	0	0	
0.130833	0.0238795	-0.00711818	0.00279088	0.000296091	0	0	0	
0.131	-0.0238677	0.00672477	0.00279094	0.000288917	0	0	0	
0.131167	0.0241555	-0.00702908	0.00277695	0.000281731	0	0	0	
0.131333	-0.0230396	0.00820877	0.00275953	0.000281143	0	0	0	
0.1315	0.018849	-0.00716002	0.0027578	0.000278355	0	0	0	
0.131667	-0.0237649	0.00711333	0.00278922	0.000280399	0	0	0	
0.131833	0.0191198	-0.00574512	0.00284596	0.000272548	0	0	0	
0.132	-0.0186388	0.00704488	0.00287755	0.000264152	0	0	0	
0.132167	0.0151821	-0.00710243	0.00286288	0.00025104	0	0	0	
0.132333	-0.0206416	0.00892249	0.00281769	0.000257996	0	0	0	
0.1325	0.0128974	-0.00704998	0.00279985	0.000266619	0	0	0	
0.132667	-0.0181974	0.00764989	0.00280356	0.000279037	0	0	0	
0.132833	0.0121047	-0.00655021	0.0028259	0.000280142	0	0	0	
0.133	-0.0158213	0.0070893	0.00283481	0.000287728	0	0	0	
0.133167	0.0151631	-0.00599373	0.00282444	0.000286439	0	0	0	
0.133333	-0.0167107	0.00754	0.0027741	0.000284237	0	0	0	
0.1335	0.0138689	-0.00728563	0.00273049	0.00027863	0	0	0	
0.133667	-0.0138336	0.00807623	0.0027252	0.000282339	0	0	0	
0.133833	0.0114203	-0.00704246	0.00276044	0.00027994	0	0	0	
0.134	-0.0149154	0.00809409	0.00280493	0.000272166	0	0	0	
0.134167	0.0149346	-0.00851112	0.00283977	0.000263825	0	0	0	
0.134333	-0.0171413	0.0089742	0.00285404	0.000268902	0	0	0	
0.1345	0.0169953	-0.00884813	0.00284921	0.00028009	0	0	0	
0.134667	-0.0179915	0.00870448	0.00283112	0.0002838	0	0	0	
0.134833	0.013833	-0.00762733	0.0028117	0.000276043	0	0	0	
0.135	-0.0144948	0.00702084	0.00279212	0.000263537	0	0	0	
0.135167	0.0107175	-0.00781147	0.00278648	0.00026009	0	0	0	
0.135333	-0.0103272	0.0082927	0.00279333	0.000261501	0	0	0	
0.1355	0.0102832	-0.00940736	0.00280396	0.000269275	0	0	0	
0.135667	-0.00770179	0.00903918	0.0027984	0.000277546	0	0	0	
0.135833	0.00519694	-0.00605138	0.00280064	0.000286674	0	0	0	
0.136	-0.00935958	0.00526503	0.00285161	0.0002804	0	0	0	
0.136167	0.0163519	-0.00850726	0.0029285	0.000260904	0	0	0	
0.136333	-0.0108271	0.00927299	0.00293311	0.000247073	0	0	0	
0.1365	0.005842	-0.00845531	0.00283379	0.000253298	0	0	0	
0.136667	-0.00507114	0.00832451	0.00275536	0.000261441	0	0	0	
0.136833	0.00812158	-0.00963171	0.00277375	0.000264684	0	0	0	
0.137	-0.00426671	0.00863221	0.00281454	0.0002712	0	0	0	
0.137167	0.00170099	-0.00680373	0.00280349	0.000285744	0	0	0	
0.137333	0.000517423	0.00643329	0.00279949	0.000280025	0	0	0	
0.1375	0.00784809	-0.00831617	0.00283349	0.000258205	0	0	0	
0.137667	-0.00703444	0.00875481	0.00283729	0.000245958	0	0	0	
0.137833	0.0024519	-0.00894386	0.00279043	0.000263732	0	0	0	
0.138	-0.000334416	0.00922473	0.00278296	0.000286156	0	0	0	
0.138167	0.0060931	-0.0102725	0.00283878	0.000295651	0	0	0	
0.138333	-0.00380672	0.00929017	0.00287264	0.000292605	0	0	0	
0.1385	0.00483119	-0.00851758	0.00283853	0.000289383	0	0	0	
0.138667	-0.00565491	0.00916239	0.00279576	0.000286829	0	0	0	
0.138833	0.0050693	-0.00939028	0.00279527	0.000284499	0	0	0	
0.139	-0.00383096	0.0091854	0.00280666	0.000284807	0	0	0	
0.139167	0.00271904	-0.00925848	0.002785	0.000284169	0	0	0	
0.139333	0.00264672	0.0100566	0.0027508	0.00028119	0	0	0	
0.1395	-0.000523611	-0.010262	0.00274566	0.000277193	0	0	0	
0.139667	-0.000101752	0.00963474	0.00277855	0.000279507	0	0	0	
0.139833	-0.00091753	-0.00828772	0.00282574	0.000277955	0	0	0	
0.14	-7.38352E-05	0.00835633	0.00285319	0.000270321	0	0	0	
0.140167	0.00134267	-0.00929167	0.00284414	0.000265653	0	0	0	
0.140333	0.000241002	0.0091113	0.00281308	0.00027095	0	0	0	
0.1405	-0.00273254	-0.00944397	0.00278693	0.000281016	0	0	0	
0.140667	0.00321116	0.0100528	0.00278387	0.000280818	0	0	0	
0.140833	-0.00173449	-0.00940157	0.00281078	0.000273971	0	0	0	
0.141	-0.000322065	0.00824427	0.00284614	0.000265573	0	0	0	
0.141167	-0.00125441	-0.00837766	0.002835	0.000269207	0	0	0	
0.141333	0.0045715	0.00828431	0.00276979	0.000279194	0	0	0	
0.1415	-0.00919138	-0.00913393	0.00273887	0.000286226	0	0	0	
0.141667	0.00360336	0.00968318	0.00278544	0.000278394	0	0	0	
0.141833	-0.00259485	-0.00932926	0.00284269	0.000266573	0	0	0	
0.142	0.00927991	0.00839639	0.00285451	0.000259679	0	0	0	
0.142167	-0.00517537	-0.0101543	0.00286527	0.000267746	0	0	0	
0.142333	0.00260792	0.011456	0.00289271	0.000284748	0	0	0	
0.1425	-0.00643675	-0.011308	0.00287337	0.000304484	0	0	0	
0.142667	0.00860492	0.00959686	0.0028061	0.000305337	0	0	0	
0.142833	-0.00585601	-0.00900667	0.00277653	0.00028808	0	0	0	
0.143	0.00904644	0.0103423	0.00280622	0.000271088	0	0	0	
0.143167	-0.0123939	-0.0112188	0.00281576	0.000273276	0	0	0	
0.143333	0.0158787	0.0107208	0.0027832	0.000287644	0	0	0	
0.1435	-0.0150957	-0.00979366	0.00276823	0.000292573	0	0	0	
0.143667	0.00987081	0.0094298	0.00281029	0.000280337	0	0	0	
0.143833	-0.00620277	-0.010244	0.00285784	0.000267338	0	0	0	
0.144	0.0103632	0.0104645	0.0028603	0.000268055	0	0	0	
0.144167	-0.0136713	-0.00968367	0.00282059	0.000279866	0	0	0	
0.144333	0.0119409	0.0089097	0.00277061	0.000286568	0	0	0	
0.1445	-0.0127979	-0.00967018	0.002739	0.000279308	0	0	0	
0.144667	0.0180045	0.0106797	0.00273793	0.000267366	0	0	0	
0.144833	-0.0198049	-0.0112534	0.0027603	0.000265607	0	0	0	
0.145	0.0172536	0.011878	0.00279359	0.000284324	0	0	0	
0.145167	-0.0146277	-0.0107016	0.00282115	0.000300913	0	0	0	
0.145333	0.0129882	0.0100025	0.00282297	0.000306362	0	0	0	
0.1455	-0.014961	-0.00951576	0.00280108	0.000295977	0	0	0	
0.145667	0.0188453	0.00958852	0.00278005	0.000283164	0	0	0	
0.145833	-0.0205357	-0.00970307	0.00276969	0.000267178	0	0	0	
0.146	0.0191774	0.012915	0.00275827	0.000265373	0	0	0	
0.146167	-0.0203352	-0.0124997	0.00275838	0.000277949	0	0	0	
0.146333	0.0194546	0.0103563	0.00279021	0.000296384	0	0	0	
0.1465	-0.0181877	-0.00985378	0.00283226	0.000301372	0	0	0	
0.146667	0.020435	0.00920769	0.0028367	0.000287083	0	0	0	
0.146833	-0.0193478	-0.00956501	0.00280471	0.000271728	0	0	0	
0.147	0.0218397	0.0107473	0.00278211	0.000258484	0	0	0	
0.147167	-0.0224597	-0.0114389	0.0027784	0.000256437	0	0	0	
0.147333	0.0248397	0.0133098	0.00278309	0.000266105	0	0	0	
0.1475	-0.0231062	-0.0137171	0.00279056	0.000288003	0	0	0	
0.147667	0.0211747	0.011237	0.00280955	0.000311098	0	0	0	
0.147833	-0.0220645	-0.00960251	0.00282395	0.000319375	0	0	0	
0.148	0.0256197	0.00916573	0.00282393	0.00030382	0	0	0	
0.148167	-0.0229837	-0.00866247	0.00281153	0.000277377	0	0	0	
0.148333	0.0242829	0.00953932	0.00281128	0.000254204	0	0	0	
0.1485	-0.0243299	-0.012577	0.00280749	0.000248575	0	0	0	
0.148667	0.0265643	0.0136781	0.00278494	0.000264779	0	0	0	
0.148833	-0.0339421	-0.0108566	0.00277441	0.000287258	0	0	0	
0.149	0.0316289	0.0104255	0.00282334	0.00029929	0	0	0	
0.149167	-0.0211241	-0.0107356	0.00289598	0.000285859	0	0	0	
0.149333	0.0208471	0.0114823	0.00288046	0.000276414	0	0	0	
0.1495	-0.0317201	-0.00983298	0.00277251	0.000275619	0	0	0	
0.149667	0.0313636	0.0106812	0.00269709	0.000280995	0	0	0	
0.149833	-0.0273243	-0.0121543	0.00273197	0.000280146	0	0	0	
0.15	0.0299009	0.0119183	0.00278482	0.000287017	0	0	0	
0.150167	-0.0346567	-0.0100267	0.002781	0.000301412	0	0	0	
0.150333	0.0287028	0.0105564	0.00277703	0.000299617	0	0	0	
0.1505	-0.0233474	-0.0120704	0.00282355	0.000282952	0	0	0	
0.150667	0.0249348	0.0125154	0.00284328	0.00027422	0	0	0	
0.150833	-0.0320118	-0.0120171	0.00279531	0.000284326	0	0	0	
0.151	0.0307676	0.0122076	0.00275406	0.000297699	0	0	0	
0.151167	-0.0313824	-0.011585	0.0027874	0.000294754	0	0	0	
0.151333	0.0286418	0.011553	0.00281475	0.000288769	0	0	0	
0.1515	-0.036393	-0.0104943	0.00280276	0.00027329	0	0	0	
0.151667	0.0337019	0.0119034	0.00278708	0.000269145	0	0	0	
0.151833	-0.0340999	-0.0123081	0.00282293	0.00026815	0	0	0	
0.152	0.0307241	0.0128339	0.00284114	0.000278778	0	0	0	
0.152167	-0.0326959	-0.0116789	0.00281964	0.000282716	0	0	0	
0.152333	0.035189	0.0116534	0.00277	0.000281482	0	0	0	
0.1525	-0.0376357	-0.0112072	0.00274132	0.000280656	0	0	0	
0.152667	0.0422292	0.00938476	0.00275682	0.000272163	0	0	0	
0.152833	-0.036447	-0.0110719	0.00279319	0.000265421	0	0	0	
0.153	0.0370634	0.0118201	0.00283642	0.000259571	0	0	0	
0.153167	-0.0370653	-0.0126274	0.00284162	0.00026513	0	0	0	
0.153333	0.0375224	0.012731	0.00283305	0.000274644	0	0	0	
0.1535	-0.0359776	-0.0132492	0.00281554	0.000282616	0	0	0	
0.153667	0.0389208	0.0111179	0.00279541	0.000283792	0	0	0	
0.153833	-0.0409811	-0.0114729	0.00276088	0.000280565	0	0	0	
0.154	0.0464433	0.0115923	0.00275082	0.000278528	0	0	0	
0.154167	-0.0479113	-0.0112611	0.0028142	0.000275146	0	0	0	
0.154333	0.0403411	0.0127897	0.00291833	0.00027433	0	0	0	
0.1545	-0.0359021	-0.0124942	0.00296	0.000272493	0	0	0	
0.154667	0.0404776	0.011891	0.00286594	0.000276866	0	0	0	
0.154833	-0.0487441	-0.0104429	0.00273858	0.000280382	0	0	0	
0.155	0.0503886	0.00956758	0.00270488	0.000273327	0	0	0	
0.155167	-0.0463835	-0.0109827	0.0027607	0.000264575	0	0	0	
0.155333	0.0531164	0.0114518	0.00283235	0.000255693	0	0	0	
0.1555	-0.0458938	-0.0127158	0.00286127	0.000266924	0	0	0	
0.155667	0.042438	0.0115011	0.00288452	0.000275924	0	0	0	
0.155833	-0.0403603	-0.0117598	0.00285364	0.000288158	0	0	0	
0.156	0.0473095	0.0108518	0.00278883	0.000282687	0	0	0	
0.156167	-0.0460341	-0.0108136	0.002721	0.000281642	0	0	0	
0.156333	0.0459904	0.0109232	0.00272443	0.000273509	0	0	0	
0.1565	-0.0444156	-0.0127163	0.00276237	0.000269045	0	0	0	
0.156667	0.0463148	0.0130831	0.00278993	0.000271699	0	0	0	
0.156833	-0.0492555	-0.0131453	0.00279402	0.000284833	0	0	0	
0.157	0.048013	0.0115345	0.00278554	0.000295468	0	0	0	
0.157167	-0.045425	-0.0111958	0.00278392	0.000293875	0	0	0	
0.157333	0.0501159	0.0110476	0.00279628	0.000276455	0	0	0	
0.1575	-0.046876	-0.0122004	0.00280596	0.000265269	0	0	0	
0.157667	0.0546831	0.0119976	0.00283352	0.000262128	0	0	0	
0.157833	-0.0502179	-0.0137471	0.00283799	0.000275781	0	0	0	
0.158	0.0517779	0.0127928	0.00284783	0.000286674	0	0	0	
0.158167	-0.0455834	-0.0128098	0.00282065	0.000288083	0	0	0	
0.158333	0.055313	0.0108491	0.00281544	0.000276199	0	0	0	
0.1585	-0.0540708	-0.0121508	0.00280006	0.000266807	0	0	0	
0.158667	0.0568301	0.0121779	0.00281702	0.000267197	0	0	0	
0.158833	-0.0522515	-0.0133071	0.00282483	0.000272305	0	0	0	
0.159	0.057375	0.0129476	0.00283667	0.000280101	0	0	0	
0.159167	-0.0552145	-0.0120039	0.00282819	0.000280598	0	0	0	
0.159333	0.0573181	0.011506	0.00283155	0.000279352	0	0	0	
0.1595	-0.0558318	-0.0123625	0.00284061	0.000269549	0	0	0	
0.159667	0.0547249	0.0139017	0.0028372	0.000271699	0	0	0	
0.159833	-0.056623	-0.0140627	0.00282121	0.000279679	0	0	0	
0.16	0.0612517	0.01338	0.0028169	0.00029225	0	0	0	
0.160167	-0.057973	-0.0127915	0.00282342	0.000294619	0	0	0	
0.160333	0.0605504	0.0122994	0.00282707	0.000288333	0	0	0	
0.1605	-0.0601926	-0.0127548	0.00281759	0.000279248	0	0	0	
0.160667	0.0592997	0.012942	0.00281382	0.000274123	0	0	0	
0.160833	-0.0568029	-0.0138619	0.0027969	0.000277412	0	0	0	
0.161	0.0602012	0.0143851	0.00278177	0.000283372	0	0	0	
0.161167	-0.059602	-0.0143224	0.00276816	0.00028817	0	0	0	
0.161333	0.0630028	0.0127998	0.0027872	0.00028693	0	0	0	
0.1615	-0.0648413	-0.0121465	0.00282264	0.000278448	0	0	0	
0.161667	0.0627415	0.0129624	0.00284265	0.000274298	0	0	0	
0.161833	-0.0584289	-0.0135393	0.00282548	0.000271517	0	0	0	
0.162	0.057101	0.0137078	0.00278738	0.000279179	0	0	0	
0.162167	-0.0629137	-0.0121473	0.00277133	0.000271914	0	0	0	
0.162333	0.0643568	0.0119424	0.00277396	0.000263295	0	0	0	
0.1625	-0.0657038	-0.0131284	0.00280303	0.000250678	0	0	0	
0.162667	0.0650616	0.015416	0.00281287	0.00026368	0	0	0	
0.162833	-0.0700072	-0.0136487	0.00280949	0.000285274	0	0	0	
0.163	0.0704717	0.0110319	0.00282588	0.00029128	0	0	0	
0.163167	-0.0577819	-0.0107599	0.00288756	0.000266112	0	0	0	
0.163333	0.0558417	0.0128901	0.00293459	0.000242239	0	0	0	
0.1635	-0.0647456	-0.0126516	0.00287309	0.000240344	0	0	0	
0.163667	0.0705193	0.0138563	0.00277448	0.000257904	0	0	0	
0.163833	-0.0681699	-0.0147562	0.0027435	0.000275435	0	0	0	
0.164	0.0667891	0.0129308	0.00277769	0.000286836	0	0	0	
0.164167	-0.0683453	-0.0113788	0.00280204	0.000285724	0	0	0	
0.164333	0.0704746	0.0121437	0.00282305	0.000273354	0	0	0	
0.1645	-0.0679065	-0.0130397	0.00287702	0.000263432	0	0	0	
0.164667	0.0629619	0.0133423	0.00288623	0.0002637	0	0	0	
0.164833	-0.0687985	-0.0141364	0.00282088	0.000272352	0	0	0	
0.165	0.0721794	0.0145871	0.00275045	0.000284211	0	0	0	
0.165167	-0.0683042	-0.0144174	0.00277922	0.000294235	0	0	0	
0.165333	0.0647335	0.014986	0.00284154	0.00030119	0	0	0	
0.1655	-0.0690313	-0.0147509	0.00284981	0.000302026	0	0	0	
0.165667	0.0720582	0.0145858	0.0028038	0.000305797	0	0	0	
0.165833	-0.0726352	-0.0135392	0.00277117	0.0003052	0	0	0	
0.166	0.0714801	0.0130845	0.00277449	0.000305107	0	0	0	
0.166167	-0.0710776	-0.0129126	0.00278617	0.000293262	0	0	0	
0.166333	0.0713864	0.015606	0.00277878	0.000287786	0	0	0	
0.1665	-0.0765747	-0.0146135	0.00277791	0.000289018	0	0	0	
0.166667	0.0744171	0.013753	0.00279083	0.000292129	0	0	0	
0.166833	-0.0727833	-0.0129646	0.00280893	0.000289462	0	0	0	
0.167	0.0710394	0.0148092	0.00280425	0.000284274	0	0	0	
0.167167	-0.074435	-0.0146818	0.0027818	0.000289955	0	0	0	
0.167333	0.0742275	0.0138281	0.00275825	0.000294256	0	0	0	
0.1675	-0.0757389	-0.0136571	0.002751	0.000290274	0	0	0	
0.167667	0.077587	0.0132131	0.00276924	0.000276538	0	0	0	
0.167833	-0.0759641	-0.013686	0.00278614	0.000274268	0	0	0	
0.168	0.0798271	0.0131731	0.00281414	0.000273578	0	0	0	
0.168167	-0.0818496	-0.0132433	0.00281936	0.000279404	0	0	0	
0.168333	0.0789818	0.0139753	0.00284015	0.000277942	0	0	0	
0.1685	-0.0735249	-0.0141062	0.00283294	0.00027811	0	0	0	
0.168667	0.0750965	0.0137332	0.00279206	0.000284337	0	0	0	
0.168833	-0.0808797	-0.0135808	0.00273043	0.000282945	0	0	0	
0.169	0.0855444	0.0136702	0.00272486	0.000285027	0	0	0	
0.169167	-0.0815899	-0.0145162	0.00277136	0.000275398	0	0	0	
0.169333	0.0798529	0.0153368	0.00279253	0.000284012	0	0	0	
0.1695	-0.0833369	-0.0145685	0.00278106	0.000288163	0	0	0	
0.169667	0.0777205	0.0151956	0.00277201	0.000298556	0	0	0	
0.169833	-0.0810332	-0.0144491	0.00280987	0.000294895	0	0	0	
0.17	0.0783682	0.0151349	0.00279936	0.000296037	0	0	0	
0.170167	-0.083679	-0.0139983	0.00278773	0.000290794	0	0	0	
0.170333	0.0800533	0.0145618	0.00275731	0.000292137	0	0	0	
0.1705	-0.0823386	-0.013117	0.00277035	0.000280719	0	0	0	
0.170667	0.0804265	0.0134277	0.0027607	0.000272776	0	0	0	
0.170833	-0.0857662	-0.0138484	0.00277016	0.000266897	0	0	0	
0.171	0.0870778	0.0144117	0.002781	0.000271137	0	0	0	
0.171167	-0.0893401	-0.0141396	0.0028265	0.000280752	0	0	0	
0.171333	0.08334	0.0154347	0.00286564	0.000287718	0	0	0	
0.1715	-0.0838693	-0.0138748	0.00288896	0.000290409	0	0	0	
0.171667	0.0791199	0.0136809	0.00285288	0.000285772	0	0	0	
0.171833	-0.0853821	-0.0128619	0.00281722	0.00027417	0	0	0	
0.172	0.0877174	0.0124734	0.00279386	0.000264773	0	0	0	
0.172167	-0.09123	-0.01355	0.00282075	0.000258771	0	0	0	
0.172333	0.0877899	0.014781	0.00281494	0.000260645	0	0	0	
0.1725	-0.0935734	-0.0144687	0.00282247	0.000271941	0	0	0	
0.172667	0.0893397	0.0144125	0.00282249	0.00028161	0	0	0	
0.172833	-0.0911348	-0.0141113	0.00285459	0.000287841	0	0	0	
0.173	0.0886299	0.0136226	0.0028464	0.000280923	0	0	0	
0.173167	-0.0919408	-0.0133861	0.00283462	0.00027066	0	0	0	
0.173333	0.0868186	0.014511	0.00279415	0.00026946	0	0	0	
0.1735	-0.0883397	-0.0153271	0.0027784	0.00027696	0	0	0	
0.173667	0.089393	0.0153768	0.00277049	0.000290825	0	0	0	
0.173833	-0.0930128	-0.0144909	0.00279835	0.000294367	0	0	0	
0.174	0.089143	0.013338	0.00279671	0.000291691	0	0	0	
0.174167	-0.091308	-0.0120881	0.00277741	0.000275421	0	0	0	
0.174333	0.09343	0.0134559	0.00276088	0.00026325	0	0	0	
0.1745	-0.0940429	-0.0144762	0.00278418	0.000258151	0	0	0	
0.174667	0.0934176	0.0154865	0.00282263	0.000270554	0	0	0	
0.174833	-0.0935097	-0.0163719	0.00285705	0.000287337	0	0	0	
0.175	0.0942472	0.0168495	0.00287037	0.00030498	0	0	0	
0.175167	-0.0908273	-0.0153284	0.00283451	0.000316947	0	0	0	
0.175333	0.0961592	0.0141079	0.00279827	0.000312671	0	0	0	
0.1755	-0.0957633	-0.0138085	0.00276513	0.000301387	0	0	0	
0.175667	0.0996681	0.0142416	0.0027798	0.000286432	0	0	0	
0.175833	-0.0954418	-0.0163556	0.00278563	0.000287374	0	0	0	
0.176	0.10289	0.0173868	0.00283336	0.000298562	0	0	0	
0.176167	-0.0912687	-0.0174377	0.00283663	0.000316402	0	0	0	
0.176333	0.0921466	0.0157061	0.00281101	0.000324915	0	0	0	
0.1765	-0.0931687	-0.0139561	0.00275932	0.000310532	0	0	0	
0.176667	0.0962027	0.0127376	0.00274631	0.000288185	0	0	0	
0.176833	-0.0993471	-0.0127066	0.00278031	0.000264759	0	0	0	
0.177	0.101609	0.0137033	0.00280369	0.000255561	0	0	0	
0.177167	-0.0993029	-0.0154458	0.00283671	0.00026083	0	0	0	
0.177333	0.0918253	0.0149009	0.0028005	0.000276041	0	0	0	
0.1775	-0.100022	-0.0113495	0.00280164	0.000275218	0	0	0	
0.177667	0.0972297	0.0132172	0.00281485	0.000261095	0	0	0	
0.177833	-0.0954087	-0.0166476	0.0028672	0.000256386	0	0	0	
0.178	0.0891444	0.0157864	0.00279092	0.000278535	0	0	0	
0.178167	-0.103155	-0.0141086	0.00269506	0.000299199	0	0	0	
0.178333	0.103667	0.014418	0.00266501	0.000296073	0	0	0	
0.1785	-0.105357	-0.0141701	0.00274949	0.000281037	0	0	0	
0.178667	0.103363	0.0129311	0.00283207	0.000273271	0	0	0	
0.178833	-0.103263	-0.0133161	0.00285245	0.000266838	0	0	0	
0.179	0.0951812	0.0140815	0.00284045	0.000268676	0	0	0	
0.179167	-0.0947315	-0.0145049	0.00282283	0.000266837	0	0	0	
0.179333	0.0981035	0.0152078	0.00279398	0.000276323	0	0	0	
0.1795	-0.10461	-0.0150934	0.00275563	0.000279101	0	0	0	
0.179667	0.104476	0.0153794	0.00274705	0.000287805	0	0	0	
0.179833	-0.103651	-0.0151211	0.00276353	0.000289381	0	0	0	
0.18	0.100524	0.0150868	0.00277084	0.00029561	0	0	0	
0.180167	-0.108722	-0.012927	0.00277989	0.000286104	0	0	0	
0.180333	0.106685	0.0136615	0.00278215	0.000275223	0	0	0	
0.1805	-0.106708	-0.0148344	0.00281972	0.00026538	0	0	0	
0.180667	0.103898	0.0169603	0.00282249	0.000278404	0	0	0	
0.180833	-0.108259	-0.0169571	0.00282751	0.000299828	0	0	0	
0.181	0.104479	0.0153307	0.00280006	0.000313804	0	0	0	
0.181167	-0.10901	-0.0129483	0.00278682	0.000304027	0	0	0	
0.181333	0.10825	0.0132004	0.00279084	0.000281926	0	0	0	
0.1815	-0.109206	-0.0147017	0.00282361	0.00026627	0	0	0	
0.181667	0.10329	0.0178005	0.00281725	0.000277799	0	0	0	
0.181833	-0.1081	-0.0181206	0.00278734	0.000307812	0	0	0	
0.182	0.109782	0.0169277	0.00278519	0.000330347	0	0	0	
0.182167	-0.109699	-0.0145335	0.00279742	0.000328175	0	0	0	
0.182333	0.10753	0.0132858	0.00281735	0.000303526	0	0	0	
0.1825	-0.112289	-0.0143952	0.00280793	0.000278022	0	0	0	
0.182667	0.111526	0.0168634	0.00282164	0.00027529	0	0	0	
0.182833	-0.111895	-0.0170987	0.00282192	0.000294489	0	0	0	
0.183	0.109704	0.0164935	0.00284183	0.000314664	0	0	0	
0.183167	-0.105249	-0.0162094	0.00280837	0.00032016	0	0	0	
0.183333	0.11046	0.0150954	0.00278775	0.000310566	0	0	0	
0.1835	-0.117766	-0.014522	0.00275566	0.000296095	0	0	0	
0.183667	0.114346	0.0148455	0.00280838	0.000287707	0	0	0	
0.183833	-0.111109	-0.015443	0.00283342	0.000284672	0	0	0	
0.184	0.115643	0.0158609	0.00283264	0.00029205	0	0	0	
0.184167	-0.112309	-0.015663	0.00278493	0.000299372	0	0	0	
0.184333	0.1108	0.0161377	0.00278626	0.000304816	0	0	0	
0.1845	-0.112083	-0.0167902	0.00278512	0.000307932	0	0	0	
0.184667	0.113122	0.0162397	0.00279803	0.000310517	0	0	0	
0.184833	-0.115099	-0.015126	0.0027892	0.00030727	0	0	0	
0.185	0.112618	0.0152021	0.00279268	0.00030321	0	0	0	
0.185167	-0.113459	-0.0152593	0.0028058	0.000295784	0	0	0	
0.185333	0.113086	0.0158819	0.00279617	0.000295147	0	0	0	
0.1855	-0.11441	-0.0158989	0.00277833	0.000297729	0	0	0	
0.185667	0.117295	0.0140585	0.00277041	0.000296042	0	0	0	
0.185833	-0.115785	-0.0124864	0.00278321	0.000282376	0	0	0	
0.186	0.114726	0.0125359	0.00281174	0.000262792	0	0	0	
0.186167	-0.117823	-0.0144311	0.00281832	0.000252439	0	0	0	
0.186333	0.117871	0.0163454	0.00281897	0.000264015	0	0	0	
0.1865	-0.117465	-0.0163257	0.00282303	0.000286921	0	0	0	
0.186667	0.117281	0.0144401	0.00282394	0.00029875	0	0	0	
0.186833	-0.113928	-0.0138702	0.00280462	0.000294971	0	0	0	
0.187	0.117836	0.0124314	0.00277883	0.000274713	0	0	0	
0.187167	-0.121406	-0.01283	0.00277252	0.00025587	0	0	0	
0.187333	0.121163	0.0139157	0.00280981	0.000248663	0	0	0	
0.1875	-0.121541	-0.0158587	0.00284826	0.000258739	0	0	0	
0.187667	0.119507	0.0157111	0.00285273	0.000281229	0	0	0	
0.187833	-0.117766	-0.0158216	0.00283277	0.000295381	0	0	0	
0.188	0.11698	0.013828	0.00279587	0.000296903	0	0	0	
0.188167	-0.11852	-0.0130618	0.00277384	0.000282273	0	0	0	
0.188333	0.121087	0.0139627	0.00277078	0.000268625	0	0	0	
0.1885	-0.122688	-0.0154837	0.00277934	0.000267074	0	0	0	
0.188667	0.122172	0.0152497	0.00279576	0.000279879	0	0	0	
0.188833	-0.123827	-0.0150775	0.00281148	0.000290554	0	0	0	
0.189	0.121402	0.015684	0.00283073	0.000295703	0	0	0	
0.189167	-0.121957	-0.0146842	0.0028366	0.000293422	0	0	0	
0.189333	0.121935	0.0138977	0.00283582	0.000284053	0	0	0	
0.1895	-0.122563	-0.0144802	0.00282473	0.000276163	0	0	0	
0.189667	0.122971	0.0143676	0.00281463	0.000272069	0	0	0	
0.189833	-0.123307	-0.0143214	0.00279761	0.000276691	0	0	0	
0.19	0.123351	0.0140522	0.00280404	0.000274611	0	0	0	
0.190167	-0.122502	-0.0143338	0.00279464	0.000275275	0	0	0	
0.190333	0.127689	0.0140913	0.00281776	0.000273916	0	0	0	
0.1905	-0.12601	-0.0154561	0.00282621	0.000278442	0	0	0	
0.190667	0.123017	0.0147126	0.00284175	0.000278923	0	0	0	
0.190833	-0.122021	-0.0142613	0.00280816	0.000282431	0	0	0	
0.191	0.127978	0.0139358	0.00280465	0.00027571	0	0	0	
0.191167	-0.122729	-0.0158874	0.00279376	0.000278484	0	0	0	
0.191333	0.126372	0.0145123	0.00281612	0.000283637	0	0	0	
0.1915	-0.125145	-0.0152908	0.00280313	0.00029192	0	0	0	
0.191667	0.126959	0.0155735	0.00281287	0.000294454	0	0	0	
0.191833	-0.124706	-0.0141953	0.00280577	0.000290364	0	0	0	
0.192	0.128055	0.0133598	0.00281616	0.00028066	0	0	0	
0.192167	-0.123574	-0.0159595	0.00280976	0.000277139	0	0	0	
0.192333	0.129662	0.0150135	0.00280266	0.000283614	0	0	0	
0.1925	-0.134028	-0.0126115	0.00280573	0.000284871	0	0	0	
0.192667	0.132352	0.0120033	0.00285063	0.000270145	0	0	0	
0.192833	-0.12711	-0.0144436	0.00290665	0.000262947	0	0	0	
0.193	0.124012	0.0169053	0.00290311	0.000272896	0	0	0	
0.193167	-0.128128	-0.0154172	0.00286508	0.000295341	0	0	0	
0.193333	0.128645	0.0137589	0.00281476	0.000293942	0	0	0	
0.1935	-0.124294	-0.0136518	0.00278634	0.000284663	0	0	0	
0.193667	0.130013	0.0131537	0.00277537	0.000264931	0	0	0	
0.193833	-0.134605	-0.0118762	0.00278817	0.000253646	0	0	0	
0.194	0.13513	0.0123184	0.00284165	0.000248027	0	0	0	
0.194167	-0.132761	-0.014715	0.00289675	0.000254727	0	0	0	
0.194333	0.129102	0.0155197	0.00290021	0.000271924	0	0	0	
0.1945	-0.130526	-0.0137815	0.00286349	0.000284184	0	0	0	
0.194667	0.133677	0.0123461	0.00282436	0.000279964	0	0	0	
0.194833	-0.128395	-0.0130711	0.00283618	0.000266895	0	0	0	
0.195	0.125421	0.0141164	0.00282157	0.000264065	0	0	0	
0.195167	-0.131248	-0.0140333	0.00281289	0.000266898	0	0	0	
0.195333	0.131686	0.0134908	0.00278074	0.000270152	0	0	0	
0.1955	-0.133634	-0.0123681	0.0028071	0.000261892	0	0	0	
0.195667	0.13119	0.0128202	0.00280616	0.000257099	0	0	0	
0.195833	-0.133237	-0.0136678	0.00282407	0.000254875	0	0	0	
0.196	0.133432	0.0148899	0.00281635	0.000267022	0	0	0	
0.196167	-0.134029	-0.0152796	0.00284093	0.000277572	0	0	0	
0.196333	0.131	0.0147571	0.00283494	0.000288219	0	0	0	
0.1965	-0.130093	-0.0137838	0.00282308	0.00028355	0	0	0	
0.196667	0.129544	0.0137406	0.00278474	0.000278443	0	0	0	
0.196833	-0.134381	-0.0138581	0.0027699	0.00027133	0	0	0	
0.197	0.136858	0.0149161	0.00277967	0.000276745	0	0	0	
0.197167	-0.137702	-0.0148522	0.00281926	0.000283455	0	0	0	
0.197333	0.137704	0.0144708	0.00285541	0.000287124	0	0	0	
0.1975	-0.129508	-0.013473	0.00285157	0.000282291	0	0	0	
0.197667	0.127192	0.0125026	0.00281373	0.000272493	0	0	0	
0.197833	-0.131124	-0.0123623	0.00275953	0.000264935	0	0	0	
0.198	0.138347	0.0132786	0.00275055	0.000260888	0	0	0	
0.198167	-0.14314	-0.0143201	0.00279787	0.000266572	0	0	0	
0.198333	0.135895	0.0153352	0.00285122	0.00028201	0	0	0	
0.1985	-0.132326	-0.0147155	0.00287258	0.000290126	0	0	0	
0.198667	0.13766	0.0114009	0.00285365	0.000281384	0	0	0	
0.198833	-0.133866	-0.011365	0.00283775	0.000253423	0	0	0	
0.199	0.128022	0.0130059	0.00282893	0.000238948	0	0	0	
0.199167	-0.133598	-0.0136032	0.0027766	0.000244653	0	0	0	
0.199333	0.138102	0.0143626	0.00275532	0.000262432	0	0	0	
0.1995	-0.140162	-0.0130297	0.0027589	0.000272864	0	0	0	
0.199667	0.139461	0.0129962	0.00283518	0.000267672	0	0	0	
0.199833	-0.136291	-0.014414	0.00284886	0.000266641	0	0	0	
0.2	0.140064	0.0144651	0.00285566	0.000271803	0	0	0	
0.200167	-0.136557	-0.0144922	0.00282666	0.000285316	0	0	0	
0.200333	0.134141	0.0136551	0.00283407	0.000287302	0	0	0	
0.2005	-0.128544	-0.014808	0.00278294	0.000286827	0	0	0	
0.200667	0.136994	0.0135474	0.00274811	0.000284397	0	0	0	
0.200833	-0.136697	-0.0138653	0.00273002	0.000281149	0	0	0	
0.201	0.138017	0.0128698	0.00277008	0.0002749	0	0	0	
0.201167	-0.136218	-0.0143938	0.00279652	0.000267835	0	0	0	
0.201333	0.138286	0.0135713	0.00279196	0.000277698	0	0	0	
0.2015	-0.136847	-0.0138751	0.002794	0.000276316	0	0	0	
0.201667	0.138129	0.0130851	0.00278888	0.000281548	0	0	0	
0.201833	-0.138119	-0.0131053	0.0028204	0.000270679	0	0	0	
0.202	0.137494	0.0138539	0.0028011	0.000274647	0	0	0	
0.202167	-0.142054	-0.014476	0.00280842	0.000273566	0	0	0	
0.202333	0.142291	0.0136937	0.00279603	0.000283701	0	0	0	
0.2025	-0.138425	-0.0130896	0.00282884	0.000281496	0	0	0	
0.202667	0.138061	0.0129443	0.00281897	0.000281818	0	0	0	
0.202833	-0.138856	-0.0129359	0.00281314	0.000272506	0	0	0	
0.203	0.13722	0.0129897	0.0027808	0.00027174	0	0	0	
0.203167	-0.138534	-0.0137966	0.00277958	0.000265813	0	0	0	
0.203333	0.138511	0.0135384	0.00276985	0.000270981	0	0	0	
0.2035	-0.136953	-0.0137024	0.00277165	0.000270577	0	0	0	
0.203667	0.138462	0.0137509	0.00274845	0.00028063	0	0	0	
0.203833	-0.142229	-0.0139354	0.00276458	0.000285026	0	0	0	
0.204	0.144389	0.0141945	0.00279977	0.000291775	0	0	0	
0.204167	-0.144891	-0.0131771	0.00286172	0.00028515	0	0	0	
0.204333	0.136924	0.0124036	0.00286244	0.000275007	0	0	0	
0.2045	-0.136205	-0.0135564	0.00283052	0.000274322	0	0	0	
0.204667	0.139442	0.0177344	0.00276602	0.000293032	0	0	0	
0.204833	-0.183579	-0.0322665	0.00283283	0.000317703	0	0	0	
0.205	0.171534	0.00520745	0.00316561	0.000371925	0	0	0	
0.205167	-0.152259	-0.011714	0.00326775	0.000391669	0	0	0	
0.205333	0.135689	0.00744631	0.0032638	0.000341041	0	0	0	
0.2055	-0.132341	-0.00679426	0.00291519	0.000246529	0	0	0	
0.205667	0.131263	0.00614167	0.00278195	0.000170705	0	0	0	
0.205833	-0.129895	-0.0131304	0.00259395	0.000180562	0	0	0	
0.206	0.168478	0.0135972	0.00278131	0.000276987	0	0	0	
0.206167	-0.156171	-0.0289831	0.00283369	0.000356795	0	0	0	
0.206333	0.171978	0.0185605	0.00303369	0.000426554	0	0	0	
0.2065	-0.158554	-0.0151755	0.00296338	0.00038408	0	0	0	
0.206667	0.140279	0.010795	0.00302355	0.00033015	0	0	0	
0.206833	-0.107522	-0.0130895	0.0028625	0.00026826	0	0	0	
0.207	0.114728	0.00853685	0.00257278	0.000236227	0	0	0	
0.207167	-0.114121	-0.00691248	0.0023432	0.000205114	0	0	0	
0.207333	0.13993	0.0026989	0.00230139	0.000166854	0	0	0	
0.2075	-0.15243	-0.00842275	0.00248742	0.000156841	0	0	0	
0.207667	0.159502	0.0131477	0.00272844	0.000196333	0	0	0	
0.207833	-0.155195	-0.0145791	0.00293263	0.000251236	0	0	0	
0.208	0.16042	0.0162994	0.00302346	0.000307144	0	0	0	
0.208167	-0.140052	0.000154392	0.00302126	0.00033867	0	0	0	
0.208333	0.136323	0.002091	0.00287226	0.00031133	0	0	0	
0.2085	-0.139692	-0.0126979	0.00281136	0.000243601	0	0	0	
0.208667	0.146239	0.0124675	0.00271141	0.00021622	0	0	0	
0.208833	-0.150464	-0.0114345	0.00281156	0.000233727	0	0	0	
0.209	0.148797	0.0112123	0.00281166	0.000270147	0	0	0	
0.209167	-0.140089	0.0108454	0.00289661	0.000265612	0	0	0	
0.209333	0.142407	0.00928204	0.00280039	0.000237421	0	0	0	
0.2095	-0.15427	-0.013856	0.00283498	0.000191944	0	0	0	
0.209667	0.138567	0.0125564	0.00279605	0.000199544	0	0	0	
0.209833	-0.140177	-0.0104771	0.00284189	0.000227743	0	0	0	
0.21	0.142886	0.0124982	0.00278033	0.000267682	0	0	0	
0.210167	-0.149542	-0.0126633	0.00279438	0.000270663	0	0	0	
0.210333	0.147279	0.0144358	0.00281335	0.000284627	0	0	0	
0.2105	-0.143431	-0.0278146	0.00283959	0.00030822	0	0	0	
0.210667	0.14549	0.0153122	0.0028317	0.000358272	0	0	0	
0.210833	-0.146851	-0.0155418	0.0028441	0.000365343	0	0	0	
0.211	0.14729	0.015417	0.00284576	0.000364456	0	0	0	
0.211167	-0.142553	-0.0165461	0.00284893	0.000323611	0	0	0	
0.211333	0.138397	0.0149241	0.00281551	0.000322299	0	0	0	
0.2115	-0.12647	-0.0167365	0.00273575	0.000314276	0	0	0	
0.211667	0.132538	0.00855904	0.00261637	0.000348998	0	0	0	
0.211833	-0.144346	-0.0103208	0.00258642	0.000321639	0	0	0	
0.212	0.160326	0.010475	0.00268017	0.000308734	0	0	0	
0.212167	-0.162219	-0.013142	0.00286604	0.000266416	0	0	0	
0.212333	0.155106	0.0155441	0.00297383	0.000310313	0	0	0	
0.2125	-0.149745	-0.0163499	0.00302497	0.000341682	0	0	0	
0.212667	0.13813	0.015751	0.00292275	0.000357763	0	0	0	
0.212833	-0.133362	-0.0137875	0.00282227	0.000328046	0	0	0	
0.213	0.132327	0.0125574	0.00264931	0.000300298	0	0	0	
0.213167	-0.138564	-0.0115409	0.00261607	0.000266846	0	0	0	
0.213333	0.140822	0.01022	0.00260145	0.000255791	0	0	0	
0.2135	-0.145224	-0.00890153	0.00267301	0.000242715	0	0	0	
0.213667	0.142432	0.0109558	0.002711	0.000241734	0	0	0	
0.213833	-0.149424	-0.011331	0.00276819	0.000246994	0	0	0	
0.214	0.149418	0.0114171	0.00279946	0.000255332	0	0	0	
0.214167	-0.150385	-0.0113994	0.00284815	0.000258168	0	0	0	
0.214333	0.146499	0.0121772	0.00285426	0.000262553	0	0	0	
0.2145	-0.143579	-0.0123967	0.00284217	0.000270142	0	0	0	
0.214667	0.142797	0.0128405	0.00279218	0.000283352	0	0	0	
0.214833	-0.147875	-0.0126097	0.00278475	0.000283802	0	0	0	
0.215	0.145281	0.0124709	0.00278196	0.00028326	0	0	0	
0.215167	-0.146566	-0.012697	0.00279981	0.000281691	0	0	0	
0.215333	0.142771	0.0129831	0.0027779	0.000286843	0	0	0	
0.2155	-0.147007	-0.0111802	0.00278274	0.000285444	0	0	0	
0.215667	0.143074	0.0107737	0.00277396	0.000277246	0	0	0	
0.215833	-0.145088	-0.0111813	0.00277454	0.000271588	0	0	0	
0.216	0.142624	0.0126068	0.00276205	0.000278286	0	0	0	
0.216167	-0.145649	-0.011366	0.00275536	0.000288625	0	0	0	
0.216333	0.146123	0.0109693	0.00277107	0.000281004	0	0	0	
0.2165	-0.149089	-0.0104283	0.00278331	0.000265454	0	0	0	
0.216667	0.145594	0.0100325	0.00280253	0.000249199	0	0	0	
0.216833	-0.147474	-0.0108843	0.00280077	0.000248009	0	0	0	
0.217	0.150095	0.0120555	0.00282395	0.000255107	0	0	0	
0.217167	-0.147634	-0.0124366	0.0028241	0.000273681	0	0	0	
0.217333	0.14822	0.0120627	0.00283816	0.000286134	0	0	0	
0.2175	-0.147466	-0.0121827	0.00281919	0.000289079	0	0	0	
0.217667	0.144071	0.0114438	0.0028205	0.000277884	0	0	0	
0.217833	-0.146762	-0.0108431	0.00279757	0.000271013	0	0	0	
0.218	0.148708	0.0105085	0.00280513	0.000268347	0	0	0	
0.218167	-0.144591	-0.012456	0.00279791	0.000277901	0	0	0	
0.218333	0.149018	0.0119973	0.00281655	0.000294278	0	0	0	
0.2185	-0.147636	-0.01172	0.00281071	0.000302177	0	0	0	
0.218667	0.149066	0.0117191	0.0028338	0.000295767	0	0	0	
0.218833	-0.145409	-0.0113066	0.00282324	0.000280059	0	0	0	
0.219	0.14811	0.00950831	0.00282813	0.000262639	0	0	0	
0.219167	-0.145893	-0.00966088	0.00280948	0.000246054	0	0	0	
0.219333	0.14895	0.00976736	0.00281762	0.00023946	0	0	0	
0.2195	-0.14476	-0.0111557	0.00281309	0.000248193	0	0	0	
0.219667	0.145331	0.0129889	0.00280102	0.000273267	0	0	0	
0.219833	-0.143451	-0.0136727	0.00278246	0.000299488	0	0	0	
0.22	0.147188	0.0133323	0.00277068	0.000312934	0	0	0	
0.220167	-0.146833	-0.0118703	0.00278075	0.000307936	0	0	0	
0.220333	0.14697	0.0108625	0.0028048	0.000284163	0	0	0	
0.2205	-0.149112	-0.0107231	0.00281967	0.000266886	0	0	0	
0.220667	0.148703	0.0111673	0.00283229	0.000263918	0	0	0	
0.220833	-0.146121	-0.0115313	0.00282996	0.000279561	0	0	0	
0.221	0.14293	0.0131277	0.00280476	0.000300459	0	0	0	
0.221167	-0.141831	-0.0134502	0.00277058	0.000314137	0	0	0	
0.221333	0.147567	0.0105477	0.0027626	0.00030642	0	0	0	
0.2215	-0.152986	-0.0087702	0.00280041	0.000286839	0	0	0	
0.221667	0.149234	0.0103138	0.00285786	0.000269173	0	0	0	
0.221833	-0.146158	-0.0101447	0.00286751	0.000267915	0	0	0	
0.222	0.148035	0.0105904	0.00284608	0.000275865	0	0	0	
0.222167	-0.149212	-0.0124064	0.00282133	0.000297653	0	0	0	
0.222333	0.14415	0.0134911	0.00282483	0.000319769	0	0	0	
0.2225	-0.143131	-0.0120223	0.00280762	0.000324911	0	0	0	
0.222667	0.147117	0.00935622	0.00279653	0.0002975	0	0	0	
0.222833	-0.148543	-0.00930031	0.0027982	0.000262593	0	0	0	
0.223	0.146136	0.0093865	0.00281907	0.000251276	0	0	0	
0.223167	-0.144206	-0.00987516	0.00281872	0.000266009	0	0	0	
0.223333	0.148171	0.0116759	0.00281277	0.000285892	0	0	0	
0.2235	-0.147481	-0.0120544	0.00281749	0.000298286	0	0	0	
0.223667	0.145442	0.0107077	0.0028165	0.000302446	0	0	0	
0.223833	-0.144261	-0.00987361	0.00280668	0.00030061	0	0	0	
0.224	0.143829	0.0100993	0.002788	0.000298296	0	0	0	
0.224167	-0.149493	-0.00956801	0.00280275	0.000294968	0	0	0	
0.224333	0.147373	0.0103443	0.00282299	0.000290722	0	0	0	
0.2245	-0.145609	-0.00903577	0.00284366	0.000288656	0	0	0	
0.224667	0.141737	0.00878982	0.00282016	0.000285949	0	0	0	
0.224833	-0.143701	-0.00788965	0.0027925	0.000284993	0	0	0	
0.225	0.143976	0.00847343	0.00278338	0.000273514	0	0	0	
0.225167	-0.150028	-0.00878078	0.00280217	0.000265821	0	0	0	
0.225333	0.145285	0.010073	0.00283576	0.000259778	0	0	0	
0.2255	-0.144923	-0.00913097	0.00282277	0.000260561	0	0	0	
0.225667	0.143148	0.00826336	0.00280974	0.000252101	0	0	0	
0.225833	-0.145136	-0.00733232	0.00278286	0.00024747	0	0	0	
0.226	0.145144	0.00868075	0.00280647	0.00024719	0	0	0	
0.226167	-0.14476	-0.009836	0.00280867	0.000264419	0	0	0	
0.226333	0.145039	0.0105787	0.00282731	0.000283334	0	0	0	
0.2265	-0.150408	-0.00983854	0.00284166	0.000292099	0	0	0	
0.226667	0.152963	0.00862028	0.00289853	0.000286136	0	0	0	
0.226833	-0.148721	-0.00720495	0.00291879	0.000281793	0	0	0	
0.227	0.139091	0.00927047	0.00289032	0.000285538	0	0	0	
0.227167	-0.139988	-0.0102147	0.00281096	0.000294442	0	0	0	
0.227333	0.142833	0.00998935	0.0027789	0.000292865	0	0	0	
0.2275	-0.1408	-0.00840937	0.00276931	0.000287473	0	0	0	
0.227667	0.141925	0.00759021	0.00278826	0.00028046	0	0	0	
0.227833	-0.148486	-0.00661252	0.00279406	0.000276578	0	0	0	
0.228	0.14569	0.00713752	0.00282957	0.000265119	0	0	0	
0.228167	-0.140939	-0.00801852	0.00282166	0.000259487	0	0	0	
0.228333	0.142978	0.00896959	0.00280936	0.000263013	0	0	0	
0.2285	-0.140867	-0.0104214	0.00277667	0.000277363	0	0	0	
0.228667	0.144282	0.00831746	0.00278633	0.000285492	0	0	0	
0.228833	-0.14606	-0.00812818	0.00279922	0.000277431	0	0	0	
0.229	0.143658	0.00858135	0.00282347	0.000269557	0	0	0	
0.229167	-0.140603	-0.00894059	0.00282066	0.000268206	0	0	0	
0.229333	0.144997	0.00839254	0.00281739	0.000274585	0	0	0	
0.2295	-0.14601	-0.00938959	0.0028145	0.000278623	0	0	0	
0.229667	0.144101	0.00921335	0.00283918	0.000287024	0	0	0	
0.229833	-0.143297	-0.0101116	0.00284465	0.00029325	0	0	0	
0.23	0.143497	0.0103351	0.00283617	0.000296994	0	0	0	
0.230167	-0.1418	-0.00912116	0.00283418	0.00028533	0	0	0	
0.230333	0.144965	0.00748507	0.00283236	0.000271476	0	0	0	
0.2305	-0.141781	-0.00786311	0.00282929	0.000260958	0	0	0	
0.230667	0.140558	0.00776709	0.00282004	0.000262406	0	0	0	
0.230833	-0.141587	-0.00732292	0.00280692	0.000269434	0	0	0	
0.231	0.141846	0.00810364	0.00281349	0.000275059	0	0	0	
0.231167	-0.14033	-0.00845555	0.00282484	0.000277141	0	0	0	
0.231333	0.14191	0.00786213	0.0028145	0.00027886	0	0	0	
0.2315	-0.140794	-0.00771233	0.00280799	0.000276485	0	0	0	
0.231667	0.140501	0.00776916	0.00279055	0.000275051	0	0	0	
0.231833	-0.141561	-0.00825258	0.00280907	0.000279087	0	0	0	
0.232	0.140426	0.0075461	0.0028129	0.000285779	0	0	0	
0.232167	-0.141322	-0.00694762	0.00282211	0.000280347	0	0	0	
0.232333	0.139961	0.00671713	0.00281268	0.000265877	0	0	0	
0.2325	-0.143073	-0.00675737	0.00281379	0.00025424	0	0	0	
0.232667	0.142536	0.00801992	0.0028269	0.000257034	0	0	0	
0.232833	-0.14029	-0.00804924	0.0028412	0.000274294	0	0	0	
0.233	0.138587	0.00769302	0.00283799	0.000290921	0	0	0	
0.233167	-0.139704	-0.00805122	0.00280998	0.00029608	0	0	0	
0.233333	0.13682	0.0071179	0.00279971	0.000287036	0	0	0	
0.2335	-0.138859	-0.00742078	0.00277205	0.000276471	0	0	0	
0.233667	0.141836	0.0070891	0.00279935	0.000275269	0	0	0	
0.233833	-0.136214	-0.00719169	0.00280834	0.000278837	0	0	0	
0.234	0.138398	0.00723947	0.00282906	0.000282464	0	0	0	
0.234167	-0.138946	-0.00756221	0.00281547	0.000283137	0	0	0	
0.234333	0.136922	0.00726336	0.00282603	0.000284425	0	0	0	
0.2345	-0.135207	-0.00806628	0.00280895	0.000289993	0	0	0	
0.234667	0.142786	0.00670438	0.00280772	0.000298674	0	0	0	
0.234833	-0.138844	-0.00767058	0.00281013	0.000297948	0	0	0	
0.235	0.137346	0.00941901	0.00283208	0.000291353	0	0	0	
0.235167	-0.133176	-0.00833388	0.00281425	0.000282134	0	0	0	
0.235333	0.134245	0.00688	0.0027844	0.000272755	0	0	0	
0.2355	-0.135189	-0.00647123	0.00277502	0.000264616	0	0	0	
0.235667	0.141173	0.00488691	0.00279927	0.000256437	0	0	0	
0.235833	-0.139092	-0.00676986	0.00282838	0.000256846	0	0	0	
0.236	0.132017	0.00881657	0.00283477	0.000267498	0	0	0	
0.236167	-0.130208	-0.0084386	0.00279038	0.000274335	0	0	0	
0.236333	0.137755	0.00692951	0.00278269	0.000270041	0	0	0	
0.2365	-0.140033	-0.0061526	0.00281815	0.00026522	0	0	0	
0.236667	0.134099	0.00829013	0.00286886	0.000271488	0	0	0	
0.236833	-0.131102	-0.00911647	0.00283513	0.000285595	0	0	0	
0.237	0.137177	0.00616213	0.00280429	0.000287264	0	0	0	
0.237167	-0.137439	-0.00565072	0.00279716	0.000282264	0	0	0	
0.237333	0.138102	0.00777604	0.00284572	0.000286891	0	0	0	
0.2375	-0.137145	-0.00788116	0.00287265	0.000299597	0	0	0	
0.237667	0.13854	0.00850277	0.00288701	0.000306271	0	0	0	
0.237833	-0.132862	-0.00890297	0.00285185	0.000306319	0	0	0	
0.238	0.131136	0.00748955	0.00279417	0.000298028	0	0	0	
0.238167	-0.131301	-0.00647484	0.00275749	0.000280579	0	0	0	
0.238333	0.129545	0.00235659	0.00275746	0.000245726	0	0	0	
0.2385	-0.115432	0.00295409	0.00274723	0.000218657	0	0	0	
0.238667	0.117322	-0.00726635	0.00260936	0.000294438	0	0	0	
0.238833	-0.142699	0.0186666	0.00273315	0.000487158	0	0	0	
0.239	0.121908	0.00112083	0.00281091	0.000566767	0	0	0	
0.239167	-0.0789949	-0.00271765	0.00276504	0.000517711	0	0	0	
0.239333	0.068561	0.000658613	0.00232234	0.000334643	0	0	0	
0.2395	-0.0822552	0.00208125	0.00202796	0.000261245	0	0	0	
0.239667	0.127312	0.00752688	0.00207052	0.000265124	0	0	0	
0.239833	-0.146621	-0.0137623	0.00246687	0.000329635	0	0	0	
0.24	0.140348	0.0129185	0.0027528	0.000383885	0	0	0	
0.240167	-0.0969741	-0.00577202	0.00276019	0.000354498	0	0	0	
0.240333	0.0498441	0.00186058	0.00220043	0.00025054	0	0	0	
0.2405	-0.0414514	-0.00152526	0.00155239	0.000151196	0	0	0	
0.240667	0.0877787	0.00442357	0.00126018	0.000120291	0	0	0	
0.240833	-0.125071	-0.00450064	0.00165686	0.000173985	0	0	0	
0.241	0.139627	0.00540619	0.00229295	0.00024673	0	0	0	
0.241167	-0.127573	-0.00529515	0.00270601	0.000291643	0	0	0	
0.241333	0.0762816	0.00317685	0.00258829	0.000275553	0	0	0	
0.2415	-0.0474832	-0.00216859	0.00202374	0.000212832	0	0	0	
0.241667	0.0447051	0.00132227	0.001436	0.000148322	0	0	0	
0.241833	-0.0913453	-0.00246358	0.00118792	0.000130862	0	0	0	
0.242	0.115212	0.00108507	0.00163282	0.000169467	0	0	0	
0.242167	-0.127346	-0.00527619	0.00225312	0.000216457	0	0	0	
0.242333	0.114298	0.00481129	0.00267061	0.0002454	0	0	0	
0.2425	-0.0616314	-0.00222869	0.00242167	0.000239508	0	0	0	
0.242667	0.0424926	0.00261661	0.00182776	0.000204466	0	0	0	
0.242833	-0.0675256	-0.00167449	0.001329	0.000153887	0	0	0	
0.243	0.116925	0.00158581	0.00149696	0.000134772	0	0	0	
0.243167	-0.127112	-0.00508711	0.00209416	0.000174209	0	0	0	
0.243333	0.130649	0.00603801	0.00264307	0.000242294	0	0	0	
0.2435	-0.10078	-0.0025123	0.00271055	0.000278971	0	0	0	
0.243667	0.0561134	0.00154689	0.00226792	0.000247482	0	0	0	
0.243833	-0.0389703	-0.00170338	0.00164841	0.000180091	0	0	0	
0.244	0.0699192	0.00331257	0.00126842	0.000135997	0	0	0	
0.244167	-0.108819	-0.00245214	0.00157564	0.000156469	0	0	0	
0.244333	0.133407	0.00288936	0.00223696	0.000210681	0	0	0	
0.2445	-0.13097	-0.00489111	0.00276543	0.00025907	0	0	0	
0.244667	0.0792455	0.00384298	0.00272137	0.000267985	0	0	0	
0.244833	-0.0445703	-0.00347543	0.00213237	0.000226342	0	0	0	
0.245	0.0404456	0.0013673	0.00147768	0.000163348	0	0	0	
0.245167	-0.0910012	-0.00110726	0.00120693	0.000125798	0	0	0	
0.245333	0.1167	2.72323E-05	0.00169364	0.000148835	0	0	0	
0.2455	-0.129619	-0.0055847	0.00233665	0.000201376	0	0	0	
0.245667	0.109166	0.00458741	0.00273197	0.000252586	0	0	0	
0.245833	-0.056869	-0.00218767	0.00242562	0.000259411	0	0	0	
0.246	0.0392867	0.00206874	0.00180666	0.000219332	0	0	0	
0.246167	-0.0603534	-0.00102326	0.0012986	0.000157294	0	0	0	
0.246333	0.106341	0.00205355	0.00146888	0.000134889	0	0	0	
0.2465	-0.127309	-0.00526544	0.00208436	0.000177547	0	0	0	
0.246667	0.123571	0.0057722	0.00267171	0.000247856	0	0	0	
0.246833	-0.0860806	-0.00286922	0.00268879	0.000282867	0	0	0	
0.247	0.0457564	0.00220284	0.00217673	0.000248048	0	0	0	
0.247167	-0.0337423	-0.00136317	0.00150543	0.000178197	0	0	0	
0.247333	0.0664049	0.00271547	0.00118165	0.000133583	0	0	0	
0.2475	-0.102783	-0.00307183	0.00152213	0.00015605	0	0	0	
0.247667	0.124402	0.0039321	0.00220155	0.000215161	0	0	0	
0.247833	-0.118821	-0.00558118	0.00271618	0.000267861	0	0	0	
0.248	0.0751991	0.00324551	0.00268829	0.000274046	0	0	0	
0.248167	-0.0459477	-0.00218173	0.0021124	0.000224678	0	0	0	
0.248333	0.0394366	0.000873426	0.00147834	0.000161396	0	0	0	
0.2485	-0.0822278	-0.00236996	0.00121781	0.000139865	0	0	0	
0.248667	0.108763	0.00182116	0.00166174	0.000182409	0	0	0	
0.248833	-0.119517	-0.00523155	0.00230142	0.000241006	0	0	0	
0.249	0.103006	0.0032188	0.00268421	0.000273921	0	0	0	
0.249167	-0.0525647	-0.00253903	0.00241805	0.000255245	0	0	0	
0.249333	0.0402033	0.00224727	0.00180709	0.000206192	0	0	0	
0.2495	-0.0585385	-0.00234203	0.0013257	0.000152098	0	0	0	
0.249667	0.0996695	0.00162097	0.0014638	0.000138905	0	0	0	
0.249833	-0.11854	-0.00272104	0.00205533	0.000172695	0	0	0	
0.25	0.121972	0.00303525	0.00261432	0.000229365	0	0	0	
0.250167	-0.0825542	-0.00286763	0.00270159	0.00026163	0	0	0	
0.250333	0.04526	0.0019269	0.002207	0.000241205	0	0	0	
0.2505	-0.0328532	-0.00143984	0.00156161	0.00018675	0	0	0	
0.250667	0.0683109	0.00314284	0.00123199	0.000151429	0	0	0	
0.250833	-0.0990365	-0.0019423	0.00162682	0.000168388	0	0	0	
0.251	0.119245	0.00223749	0.00230634	0.00021328	0	0	0	
0.251167	-0.114496	-0.00251418	0.00277727	0.000254375	0	0	0	
0.251333	0.0701082	0.00187084	0.00267153	0.000261083	0	0	0	
0.2515	-0.0419133	-0.00227515	0.00207322	0.000227883	0	0	0	
0.251667	0.0356331	0.00167884	0.00143646	0.00017603	0	0	0	
0.251833	-0.0686528	-0.00322395	0.00119368	0.000142903	0	0	0	
0.252	0.0917192	0.00139569	0.00163044	0.000151402	0	0	0	
0.252167	-0.113673	-0.000267238	0.00226337	0.000183722	0	0	0	
0.252333	0.0958452	0.000722405	0.00266873	0.000226194	0	0	0	
0.2525	-0.051153	-0.0011447	0.00242694	0.000244843	0	0	0	
0.252667	0.040568	0.00112581	0.00184763	0.000219582	0	0	0	
0.252833	-0.0591003	-0.00127374	0.00134775	0.000171047	0	0	0	
0.253	0.0961534	0.003128	0.00147212	0.000159146	0	0	0	
0.253167	-0.108408	-0.00203322	0.002013	0.000197619	0	0	0	
0.253333	0.109156	0.00252533	0.00256651	0.000238767	0	0	0	
0.2535	-0.0724024	-0.000862431	0.00262389	0.00024949	0	0	0	
0.253667	0.0416078	0.00130576	0.00214884	0.000221759	0	0	0	
0.253833	-0.0311667	-0.00126286	0.0015197	0.000179726	0	0	0	
0.254	0.0697518	0.00223953	0.00125469	0.000149333	0	0	0	
0.254167	-0.0920733	-0.000500191	0.00168892	0.000164139	0	0	0	
0.254333	0.115064	-0.000379179	0.0023655	0.000216395	0	0	0	
0.2545	-0.110603	-0.00203558	0.00282594	0.000267099	0	0	0	
0.254667	0.0696482	0.000465264	0.00270193	0.000273956	0	0	0	
0.254833	-0.0389499	-0.000219129	0.00209412	0.000228705	0	0	0	
0.255	0.0322944	-0.000461882	0.00144078	0.000171783	0	0	0	
0.255167	-0.0684015	-0.000749056	0.00121431	0.000160609	0	0	0	
0.255333	0.0980213	-0.00115509	0.00167491	0.000208532	0	0	0	
0.2555	-0.104674	-0.00147084	0.00234522	0.000260932	0	0	0	
0.255667	0.0912799	0.00109398	0.00272647	0.000270985	0	0	0	
0.255833	-0.0478261	-0.00015496	0.00248332	0.000231742	0	0	0	
0.256	0.0355525	-0.000662006	0.0018575	0.000174836	0	0	0	
0.256167	-0.0462192	-3.1087E-05	0.00134091	0.000135278	0	0	0	
0.256333	0.0835451	0.000536206	0.00142079	0.000145104	0	0	0	
0.2565	-0.0974838	-0.00155043	0.00202409	0.000196589	0	0	0	
0.256667	0.107319	0.00209957	0.0026028	0.000244721	0	0	0	
0.256833	-0.0715943	-0.000349808	0.00270954	0.000252024	0	0	0	
0.257	0.0384473	-4.77309E-06	0.00218463	0.000215401	0	0	0	
0.257167	-0.0251951	-0.000666548	0.00153101	0.000165899	0	0	0	
0.257333	0.0615578	0.00220991	0.00124025	0.0001372	0	0	0	
0.2575	-0.0843817	2.15975E-05	0.00169367	0.000153234	0	0	0	
0.257667	0.104031	0.000364957	0.00237994	0.000198017	0	0	0	
0.257833	-0.102823	-0.00113059	0.00284952	0.000238111	0	0	0	
0.258	0.0655795	-0.000656251	0.00274825	0.000237084	0	0	0	
0.258167	-0.0399877	9.07789E-05	0.00218079	0.000193896	0	0	0	
0.258333	0.0272885	-0.000169179	0.00151859	0.000145299	0	0	0	
0.2585	-0.0561447	0.000199334	0.00125129	0.000136056	0	0	0	
0.258667	0.0816065	-0.00208051	0.00170869	0.000175236	0	0	0	
0.258833	-0.103025	-0.000456194	0.00240973	0.000226427	0	0	0	
0.259	0.0861067	0.00103173	0.00281639	0.000254558	0	0	0	
0.259167	-0.0431694	-0.00138113	0.00253764	0.000234572	0	0	0	
0.259333	0.0319668	0.000511426	0.00187672	0.000177263	0	0	0	
0.2595	-0.0469388	0.000408364	0.00134264	0.000120488	0	0	0	
0.259667	0.0800566	-0.00166013	0.00144926	0.000116832	0	0	0	
0.259833	-0.0915622	-0.000329339	0.00204579	0.000166319	0	0	0	
0.26	0.0970183	0.000447709	0.0026343	0.000223212	0	0	0	
0.260167	-0.0691134	-0.000260532	0.00273945	0.000240646	0	0	0	
0.260333	0.0403141	0.000267056	0.00225005	0.000212259	0	0	0	
0.2605	-0.0250014	-0.00020827	0.0015735	0.000168172	0	0	0	
0.260667	0.0509485	0.00184369	0.00122036	0.000146445	0	0	0	
0.260833	-0.0702323	0.000682257	0.00159366	0.000166708	0	0	0	
0.261	0.0923449	-0.000134458	0.00229271	0.000211629	0	0	0	
0.261167	-0.0966453	-0.000649403	0.00280818	0.000243868	0	0	0	
0.261333	0.0578337	-0.000750069	0.00272729	0.000232028	0	0	0	
0.2615	-0.0361387	0.0013211	0.00211407	0.000184256	0	0	0	
0.261667	0.0247431	-0.00134936	0.00143802	0.000136224	0	0	0	
0.261833	-0.0539099	0.00148845	0.00116571	0.000124533	0	0	0	
0.262	0.0689823	-0.00256529	0.00160941	0.000151457	0	0	0	
0.262167	-0.0867497	0.000357547	0.00228007	0.000194477	0	0	0	
0.262333	0.077006	-0.00037176	0.00270786	0.000232307	0	0	0	
0.2625	-0.0420755	-6.30672E-05	0.00247779	0.000235638	0	0	0	
0.262667	0.0307638	0.000130549	0.0018601	0.000196952	0	0	0	
0.262833	-0.0430674	6.26217E-05	0.00132637	0.000143209	0	0	0	
0.263	0.0727796	-0.00146965	0.00141468	0.000128958	0	0	0	
0.263167	-0.0781581	0.00101469	0.00199362	0.000165482	0	0	0	
0.263333	0.0867631	-0.00295485	0.00256595	0.000218667	0	0	0	
0.2635	-0.0557481	0.0031256	0.00266305	0.000244764	0	0	0	
0.263667	0.0337452	-0.0011017	0.00216535	0.000226468	0	0	0	
0.263833	-0.0223918	0.000200064	0.00153174	0.00018189	0	0	0	
0.264	0.0530308	0.000434456	0.00123786	0.000149012	0	0	0	
0.264167	-0.0637537	0.00162083	0.001665	0.00016261	0	0	0	
0.264333	0.0839931	-0.00213589	0.00234204	0.000209242	0	0	0	
0.2645	-0.0847115	0.000125099	0.00279951	0.000244078	0	0	0	
0.264667	0.0512373	-0.000836404	0.0026524	0.000234896	0	0	0	
0.264833	-0.030682	0.000359921	0.00204536	0.000186533	0	0	0	
0.265	0.0203563	-0.000737114	0.00139387	0.000140366	0	0	0	
0.265167	-0.0449802	0.000151768	0.00119088	0.000133197	0	0	0	
0.265333	0.0623901	-0.00341524	0.00166632	0.000171776	0	0	0	
0.2655	-0.0810541	0.00129886	0.00236039	0.000221012	0	0	0	
0.265667	0.0715267	-0.000792166	0.0027609	0.000253821	0	0	0	
0.265833	-0.0376466	-2.31726E-05	0.00251386	0.000245905	0	0	0	
0.266	0.0251209	0.000480162	0.00186433	0.000202478	0	0	0	
0.266167	-0.0339824	0.000270938	0.00131868	0.000146635	0	0	0	
0.266333	0.0582451	-0.00258224	0.00138977	0.000126393	0	0	0	
0.2665	-0.0718375	0.00255104	0.00198078	0.000162448	0	0	0	
0.266667	0.074222	-0.000448853	0.00256645	0.000231437	0	0	0	
0.266833	-0.0442921	-0.00105006	0.00265021	0.000279024	0	0	0	
0.267	0.0263901	0.000645473	0.00215572	0.000258976	0	0	0	
0.267167	-0.0191803	0.00112092	0.00152548	0.000188316	0	0	0	
0.267333	0.0434316	-0.0012568	0.00125209	0.000127869	0	0	0	
0.2675	-0.0528518	0.00459786	0.00165186	0.000130293	0	0	0	
0.267667	0.0752787	-0.00446151	0.00233572	0.000178257	0	0	0	
0.267833	-0.0798348	0.00244884	0.00281685	0.000236619	0	0	0	
0.268	0.049372	-0.00197717	0.00270616	0.000266571	0	0	0	
0.268167	-0.0271161	7.53845E-05	0.00208035	0.000241938	0	0	0	
0.268333	0.0162689	-0.00124448	0.00140955	0.000175075	0	0	0	
0.2685	-0.0381405	0.00230288	0.00121897	0.000122194	0	0	0	
0.268667	0.0501748	-0.00525486	0.00170136	0.000137724	0	0	0	
0.268833	-0.0669228	0.00198185	0.00238428	0.000191001	0	0	0	
0.269	0.0613516	-0.0017273	0.0027832	0.000234892	0	0	0	
0.269167	-0.0331157	0.00140923	0.00258691	0.000224773	0	0	0	
0.269333	0.0241493	-0.00120562	0.00197107	0.000179061	0	0	0	
0.2695	-0.0272775	0.000771993	0.00138736	0.000131053	0	0	0	
0.269667	0.0437612	-0.00232215	0.00136774	0.000124207	0	0	0	
0.269833	-0.0578242	0.00181132	0.00192617	0.000156932	0	0	0	
0.27	0.0660797	-0.00254792	0.00254232	0.00020032	0	0	0	
0.270167	-0.0389005	0.00459692	0.00268401	0.000230497	0	0	0	
0.270333	0.0247128	-0.00202468	0.00220049	0.00022548	0	0	0	
0.2705	-0.0161192	0.00127194	0.00154844	0.000189585	0	0	0	
0.270667	0.0399719	-0.00173332	0.00124711	0.000146851	0	0	0	
0.270833	-0.0464374	0.00473008	0.00162928	0.000154112	0	0	0	
0.271	0.062462	-0.00457539	0.00230192	0.000208095	0	0	0	
0.271167	-0.0648671	0.0036799	0.0027637	0.000262	0	0	0	
0.271333	0.0394311	-0.00328178	0.00263301	0.000265957	0	0	0	
0.2715	-0.0217577	0.00174467	0.0020088	0.000216378	0	0	0	
0.271667	0.0112511	-0.00297244	0.00134991	0.000157522	0	0	0	
0.271833	-0.0242624	0.00447861	0.00116479	0.000131375	0	0	0	
0.272	0.0372724	-0.00774521	0.00164551	0.000167086	0	0	0	
0.272167	-0.0537297	0.00331437	0.00237416	0.000218849	0	0	0	
0.272333	0.0594028	-0.00287787	0.00281146	0.000262881	0	0	0	
0.2725	-0.0320932	0.00177194	0.00261298	0.000256236	0	0	0	
0.272667	0.0231881	-0.00213422	0.00194569	0.000212428	0	0	0	
0.272833	-0.026713	0.00370167	0.00134383	0.000155341	0	0	0	
0.273	0.0434476	-0.00591568	0.00130698	0.000141856	0	0	0	
0.273167	-0.0455151	0.00430275	0.00183292	0.000187746	0	0	0	
0.273333	0.0565736	-0.00317643	0.00242828	0.000257733	0	0	0	
0.2735	-0.0301165	0.00295086	0.00261156	0.000297509	0	0	0	
0.273667	0.0216016	-0.000930208	0.0021835	0.000274525	0	0	0	
0.273833	-0.012523	0.0023525	0.00156511	0.000202109	0	0	0	
0.274	0.0379228	-0.00570789	0.00127087	0.000138983	0	0	0	
0.274167	-0.0381655	0.00872786	0.00167714	0.000147412	0	0	0	
0.274333	0.0548408	-0.00708425	0.00236984	0.000214626	0	0	0	
0.2745	-0.0631152	0.00443451	0.00285069	0.000284691	0	0	0	
0.274667	0.0405362	-0.00328434	0.00273034	0.000299914	0	0	0	
0.274833	-0.0229873	0.00214491	0.00209385	0.000252023	0	0	0	
0.275	0.00573499	-0.00355316	0.00137837	0.000182538	0	0	0	
0.275167	-0.0192491	0.00704927	0.00114067	0.000153017	0	0	0	
0.275333	0.0293961	-0.00753535	0.00162075	0.000185603	0	0	0	
0.2755	-0.0498916	0.00377689	0.00236958	0.000236734	0	0	0	
0.275667	0.046141	-0.00191904	0.00281605	0.00026618	0	0	0	
0.275833	-0.0244025	0.0015713	0.00260637	0.000246356	0	0	0	
0.276	0.0182541	-0.00310213	0.00196191	0.000192882	0	0	0	
0.276167	-0.023399	0.0062152	0.00136239	0.000146773	0	0	0	
0.276333	0.0313468	-0.00811367	0.0013135	0.000158812	0	0	0	
0.2765	-0.0295497	0.00448855	0.00183349	0.000215721	0	0	0	
0.276667	0.0420798	-0.00225944	0.00246661	0.000266883	0	0	0	
0.276833	-0.0249335	0.00330234	0.00267896	0.000274532	0	0	0	
0.277	0.0181881	-0.00247075	0.00224339	0.000240328	0	0	0	
0.277167	-0.00721634	0.00382305	0.00157086	0.000182749	0	0	0	
0.277333	0.0312088	-0.00564427	0.00125417	0.000140289	0	0	0	
0.2775	-0.0243456	0.00667157	0.00165212	0.000154677	0	0	0	
0.277667	0.0383838	-0.00566266	0.00233861	0.000218243	0	0	0	
0.277833	-0.0469411	0.00399295	0.00279888	0.000279802	0	0	0	
0.278	0.0294676	-0.00357493	0.00268579	0.000290868	0	0	0	
0.278167	-0.017724	0.00203441	0.00209246	0.000239478	0	0	0	
0.278333	0.00372934	-0.00304237	0.00141497	0.000167268	0	0	0	
0.2785	-0.00891188	0.00607882	0.00118984	0.000126202	0	0	0	
0.278667	0.0160545	-0.0104101	0.00165385	0.000154639	0	0	0	
0.278833	-0.0376821	0.00887492	0.00238161	0.000217121	0	0	0	
0.279	0.0308379	-0.0066721	0.00281314	0.000270862	0	0	0	
0.279167	-0.0172462	0.00405104	0.00260946	0.000269129	0	0	0	
0.279333	0.0136914	-0.00262922	0.00197502	0.000221041	0	0	0	
0.2795	-0.0166626	0.00343271	0.00137727	0.000162334	0	0	0	
0.279667	0.0207247	-0.00529167	0.00134154	0.000137841	0	0	0	
0.279833	-0.0251698	0.00499348	0.00187325	0.000157583	0	0	0	
0.28	0.0355352	-0.00508156	0.00248239	0.00019649	0	0	0	
0.280167	-0.0166597	0.00537423	0.00264161	0.000225673	0	0	0	
0.280333	0.0119166	-0.00297406	0.00219397	0.000219006	0	0	0	
0.2805	-0.00451584	0.00286955	0.00155187	0.000180351	0	0	0	
0.280667	0.0230948	-0.00365182	0.00126162	0.000141112	0	0	0	
0.280833	-0.0157698	0.00675858	0.00163166	0.000153527	0	0	0	
0.281	0.031788	-0.00749819	0.00230787	0.000211179	0	0	0	
0.281167	-0.0390781	0.0066886	0.00276889	0.000269125	0	0	0	
0.281333	0.0209662	-0.0047768	0.0026463	0.000278956	0	0	0	
0.2815	-0.0104461	0.00245217	0.00202514	0.000235296	0	0	0	
0.281667	-0.000236798	-0.00334935	0.00137466	0.000171961	0	0	0	
0.281833	-0.0108592	0.00811412	0.00123624	0.000142703	0	0	0	
0.282	0.0140993	-0.0120133	0.00173429	0.00018452	0	0	0	
0.282167	-0.0247043	0.00639991	0.00239854	0.000247815	0	0	0	
0.282333	0.0239035	-0.00338554	0.00272974	0.000280538	0	0	0	
0.2825	-0.0134283	0.00262018	0.00251085	0.000240739	0	0	0	
0.282667	0.0102002	-0.00301702	0.00191417	0.000177651	0	0	0	
0.282833	-0.00660962	0.00388743	0.00134936	0.00013033	0	0	0	
0.283	0.00884782	-0.00715952	0.00131428	0.000131367	0	0	0	
0.283167	-0.0177438	0.00771259	0.00187238	0.000170042	0	0	0	
0.283333	0.0250603	-0.00614	0.00250569	0.000220587	0	0	0	
0.2835	0.0034741	0.00352654	0.00265409	0.000255367	0	0	0	
0.283667	0.00172333	-0.00121643	0.00220128	0.00024281	0	0	0	
0.283833	-0.000543189	0.00284805	0.00158178	0.000189646	0	0	0	
0.284	0.0128107	-0.00428982	0.00128778	0.000139949	0	0	0	
0.284167	0.00135904	0.00760714	0.00158213	0.000154473	0	0	0	
0.284333	0.0121774	-0.00675042	0.00223981	0.000209218	0	0	0	
0.2845	-0.0216409	0.00561639	0.00275771	0.000255112	0	0	0	
0.284667	0.0177953	-0.00570308	0.00267783	0.000256941	0	0	0	
0.284833	-0.00769706	0.0037508	0.00201677	0.000219056	0	0	0	
0.285	-0.00673642	-0.00404432	0.00128987	0.000175197	0	0	0	
0.285167	0.00738161	0.00756917	0.0011059	0.00015822	0	0	0	
0.285333	-0.00340371	-0.00976074	0.00160675	0.000196516	0	0	0	
0.2855	-0.00934337	0.00815505	0.00236172	0.000247054	0	0	0	
0.285667	0.0185609	-0.00726217	0.00280536	0.000274916	0	0	0	
0.285833	-0.010847	0.00326899	0.00262038	0.000244822	0	0	0	
0.286	0.00541877	-0.00300314	0.00195859	0.000187249	0	0	0	
0.286167	0.000147536	0.00478948	0.00133393	0.000133121	0	0	0	
0.286333	-0.00123743	-0.00967889	0.00128161	0.000134396	0	0	0	
0.2865	0.00245568	0.0089162	0.00185182	0.000180323	0	0	0	
0.286667	0.0145499	-0.00861369	0.00252725	0.000233201	0	0	0	
0.286833	-0.000557964	0.00619087	0.00274129	0.000253536	0	0	0	
0.287	0.00528139	-0.00349963	0.00230447	0.000228941	0	0	0	
0.287167	0.00578091	0.0035045	0.00159846	0.000179518	0	0	0	
0.287333	0.00131519	-0.00428941	0.00122067	0.000138759	0	0	0	
0.2875	0.0119752	0.00789799	0.00155151	0.000150232	0	0	0	
0.287667	0.00937154	-0.00845729	0.00231387	0.000190875	0	0	0	
0.287833	-0.0245515	0.00867499	0.00286992	0.000238361	0	0	0	
0.288	0.0113888	-0.00762641	0.00273968	0.000255142	0	0	0	
0.288167	-0.000475403	0.00431624	0.00202377	0.000232335	0	0	0	
0.288333	-0.00831068	-0.00276209	0.00132988	0.000189723	0	0	0	
0.2885	-0.00108622	0.00242391	0.00122596	0.000150395	0	0	0	
0.288667	0.0041538	0.001795	0.00181686	0.000138695	0	0	0	
0.288833	-0.00236518	-0.0167945	0.00251884	0.000243287	0	0	0	
0.289	0.018177	-0.00323032	0.00281396	0.000246181	0	0	0	
0.289167	-0.0359535	0.00635099	0.00264307	0.000245725	0	0	0	
0.289333	0.0291378	-0.00423521	0.00229511	0.000162473	0	0	0	
0.2895	-0.021224	0.00068752	0.00199298	0.000179968	0	0	0	
0.289667	-0.0128614	-0.00770866	0.00191112	0.000198204	0	0	0	
0.289833	0.0291117	0.0121336	0.0021238	0.000189913	0	0	0	
0.29	-0.0216431	-0.0139264	0.00254344	0.00021735	0	0	0	
0.290167	0.00999948	0.0117677	0.00290098	0.000260528	0	0	0	
0.290333	-0.00157416	-0.0105555	0.00302267	0.000310228	0	0	0	
0.2905	0.00300621	0.0111457	0.00295978	0.000315257	0	0	0	
0.290667	-0.00846025	-0.0120858	0.00282449	0.000310637	0	0	0	
0.290833	0.0168124	0.0115843	0.00274286	0.000309341	0	0	0	
0.291	-0.00898345	-0.010252	0.00273593	0.000325605	0	0	0	
0.291167	0.0122234	0.00809727	0.00277914	0.00032698	0	0	0	
0.291333	-0.00582697	-0.00935448	0.00281859	0.000319767	0	0	0	
0.2915	0.00768038	0.00864823	0.00284727	0.000299886	0	0	0	
0.291667	-0.00602384	-0.0093673	0.00284262	0.000287275	0	0	0	
0.291833	0.013806	0.00974647	0.00281631	0.000272884	0	0	0	
0.292	-0.0116256	-0.0129914	0.00277568	0.000278891	0	0	0	
0.292167	0.0189352	0.0116166	0.00276268	0.000293361	0	0	0	
0.292333	-0.0149729	-0.0104329	0.00276363	0.000307205	0	0	0	
0.2925	0.0144173	0.00942777	0.00277202	0.000301009	0	0	0	
0.292667	-0.0085354	-0.00977995	0.00277585	0.000287076	0	0	0	
0.292833	0.016067	0.00930503	0.00279128	0.000271491	0	0	0	
0.293	-0.0172374	-0.0112305	0.00279847	0.000265089	0	0	0	
0.293167	0.0229773	0.0114499	0.00280355	0.000272225	0	0	0	
0.293333	-0.017767	-0.00990785	0.0028079	0.000284078	0	0	0	
0.2935	0.0172732	0.008685	0.00282519	0.000288256	0	0	0	
0.293667	-0.0115099	-0.0098052	0.00282475	0.000283146	0	0	0	
0.293833	0.0155503	0.00944511	0.00280847	0.000277626	0	0	0	
0.294	-0.0161208	-0.0088359	0.00278172	0.000277851	0	0	0	
0.294167	0.0212905	0.00877685	0.00276332	0.000278971	0	0	0	
0.294333	-0.0227522	-0.00907997	0.00274986	0.000277597	0	0	0	
0.2945	0.0247026	0.009644	0.00275686	0.000273388	0	0	0	
0.294667	-0.0242873	-0.00991309	0.00278442	0.000268482	0	0	0	
0.294833	0.020552	0.0112002	0.00282107	0.000269621	0	0	0	
0.295	-0.0163107	-0.0129106	0.00285533	0.000281458	0	0	0	
0.295167	0.0201086	0.0123627	0.00286934	0.000295451	0	0	0	
0.295333	-0.0204501	-0.0114671	0.00284504	0.000312445	0	0	0	
0.2955	0.0218256	0.0106837	0.00280223	0.000314482	0	0	0	
0.295667	-0.027375	-0.0104597	0.00277963	0.000308319	0	0	0	
0.295833	0.0272369	0.0106467	0.00277997	0.000296353	0	0	0	
0.296	-0.0268502	-0.0108981	0.00278035	0.000287816	0	0	0	
0.296167	0.0284178	0.0114578	0.00278235	0.000281857	0	0	0	
0.296333	-0.0283145	-0.0127305	0.00280788	0.00028015	0	0	0	
0.2965	0.0234772	0.0137552	0.00283474	0.000286952	0	0	0	
0.296667	-0.0279914	-0.0117701	0.00283627	0.000294273	0	0	0	
0.296833	0.0279359	0.011477	0.00279874	0.000304417	0	0	0	
0.297	-0.0333622	-0.0101432	0.00278037	0.000297255	0	0	0	
0.297167	0.0271392	0.0133334	0.00278988	0.000289737	0	0	0	
0.297333	-0.0295091	-0.0148645	0.00281703	0.000293989	0	0	0	
0.2975	0.0310543	0.0120633	0.00279268	0.00031205	0	0	0	
0.297667	-0.0369242	-0.00921024	0.00275506	0.000312286	0	0	0	
0.297833	0.0332693	0.0116654	0.00277078	0.000288954	0	0	0	
0.298	-0.0186922	-0.0144905	0.00287311	0.000277554	0	0	0	
0.298167	0.00705865	0.0146799	0.00287465	0.000294409	0	0	0	
0.298333	-0.117231	0.00361054	0.00252631	0.0003658	0	0	0	
0.2985	-0.174627	0.0534204	0.00329068	0.000751665	0	0	0	
0.298667	0.000408213	-0.0216685	0.00307403	0.000895913	0	0	0	
0.298833	0.0259161	0.0123271	0.00319652	0.00092778	0	0	0	
0.299	-0.00569604	-0.00554497	0.00247687	0.000579325	0	0	0	
0.299167	-0.050431	0.0111849	0.00292611	0.000471926	0	0	0	
0.299333	0.0301192	-0.00822719	0.00323038	0.000423742	0	0	0	
0.2995	-0.410396	0.0867333	0.00281153	0.000607629	0	0	0	
0.299667	0.042139	-0.0164735	0.00387076	0.000820122	0	0	0	
0.299833	0.0108429	0.0180049	0.00360149	0.000801021	0	0	0	
0.3	-0.0749436	-0.0170036	0.00390272	0.000573507	0	0	0	
0.300167	0.0574108	0.0264926	0.00288177	0.000368145	0	0	0	
0.300333	-0.0414614	-0.0221866	0.00347459	0.000435885	0	0	0	
0.3005	-0.0105249	0.0192804	0.00376466	0.000538816	0	0	0	
0.300667	-0.00294708	-0.005991	0.00350608	0.000567509	0	0	0	
0.300833	-0.00302906	0.00542	0.00284445	0.000528314	0	0	0	
0.301	-0.0357944	4.31766E-06	0.00224245	0.000416195	0	0	0	
0.301167	0.0516117	0.00641458	0.00194982	0.000285166	0	0	0	
0.301333	-0.0758431	-0.00833526	0.0020233	0.000187175	0	0	0	
0.3015	0.0700375	0.0097552	0.00230989	0.000173517	0	0	0	
0.301667	-0.0567544	-0.0112852	0.00274062	0.000204866	0	0	0	
0.301833	0.0392683	0.0142031	0.00308074	0.00025049	0	0	0	
0.302	-0.029472	-0.0160343	0.00321923	0.000284417	0	0	0	
0.302167	0.0303493	0.0143107	0.00307754	0.000317573	0	0	0	
0.302333	-0.0368925	-0.0124098	0.00279742	0.000330139	0	0	0	
0.3025	0.0435375	0.0110073	0.00255523	0.000323491	0	0	0	
0.302667	-0.0589633	-0.0101483	0.00247569	0.000300696	0	0	0	
0.302833	0.0597803	0.0106098	0.00253516	0.00027748	0	0	0	
0.303	-0.0545308	-0.0110143	0.0026907	0.000254374	0	0	0	
0.303167	0.0451014	0.0139766	0.00282615	0.000251639	0	0	0	
0.303333	-0.0469258	-0.0130896	0.00288449	0.000252544	0	0	0	
0.3035	0.0471052	0.0125648	0.00286727	0.000272978	0	0	0	
0.303667	-0.0448644	-0.0115539	0.00285849	0.000277747	0	0	0	
0.303833	0.0425176	0.0106632	0.00284374	0.000277003	0	0	0	
0.304	-0.0451649	-0.0100796	0.00277632	0.000267306	0	0	0	
0.304167	0.0520913	0.0112866	0.00269454	0.000257919	0	0	0	
0.304333	-0.0542641	-0.0111087	0.00266886	0.000253484	0	0	0	
0.3045	0.0588693	0.0124524	0.00270889	0.000253586	0	0	0	
0.304667	-0.0625696	-0.0125962	0.00274093	0.000259664	0	0	0	
0.304833	0.0647696	0.0128213	0.00278858	0.000268453	0	0	0	
0.305	-0.0587555	-0.0129816	0.00287385	0.000276897	0	0	0	
0.305167	0.0514747	0.0121947	0.00297044	0.000282134	0	0	0	
0.305333	-0.0437419	-0.0120418	0.00297578	0.000284634	0	0	0	
0.3055	0.0489082	0.0116965	0.00287994	0.000274862	0	0	0	
0.305667	-0.0560289	-0.0116063	0.00274468	0.000259298	0	0	0	
0.305833	0.0586335	0.013319	0.00266871	0.000252408	0	0	0	
0.306	-0.0635317	-0.0134722	0.00269215	0.000266507	0	0	0	
0.306167	0.0623717	0.0131439	0.00276704	0.00028864	0	0	0	
0.306333	-0.0581721	-0.0128964	0.00283418	0.000301725	0	0	0	
0.3065	0.0607732	0.0127889	0.00287016	0.000295751	0	0	0	
0.306667	-0.0597633	-0.0137496	0.00287015	0.000284637	0	0	0	
0.306833	0.0603237	0.0143034	0.00285766	0.000280511	0	0	0	
0.307	-0.0605244	-0.0149326	0.0028317	0.000292843	0	0	0	
0.307167	0.0610405	0.0139166	0.00282343	0.000303999	0	0	0	
0.307333	-0.0573171	-0.0134929	0.00280777	0.00030784	0	0	0	
0.3075	0.063425	0.0131158	0.00279799	0.000297775	0	0	0	
0.307667	-0.0652823	-0.0136908	0.00277524	0.00028949	0	0	0	
0.307833	0.0658575	0.0149651	0.00278316	0.000290017	0	0	0	
0.308	-0.0661874	-0.01569	0.00281224	0.00029792	0	0	0	
0.308167	0.0643342	0.0149561	0.0028504	0.000308163	0	0	0	
0.308333	-0.0607876	-0.0134123	0.0028548	0.000308852	0	0	0	
0.3085	0.0630631	0.0131448	0.0028209	0.00030322	0	0	0	
0.308667	-0.0641288	-0.0130951	0.00276226	0.000297971	0	0	0	
0.308833	0.0665792	0.0139764	0.00272879	0.000295943	0	0	0	
0.309	-0.0689871	-0.0144803	0.00273192	0.000299286	0	0	0	
0.309167	0.0681855	0.0142452	0.00277554	0.000297477	0	0	0	
0.309333	-0.0677872	-0.0135727	0.00281694	0.00029673	0	0	0	
0.3095	0.0671647	0.0133029	0.00283917	0.00029102	0	0	0	
0.309667	-0.0642703	-0.0132772	0.00282345	0.000295115	0	0	0	
0.309833	0.0694101	0.0129413	0.0028142	0.000289562	0	0	0	
0.31	-0.0692887	-0.0142811	0.00278625	0.000288554	0	0	0	
0.310167	0.0716795	0.015076	0.00278791	0.000280881	0	0	0	
0.310333	-0.0733706	-0.0158981	0.00279391	0.000289569	0	0	0	
0.3105	0.0750525	0.0150092	0.00282764	0.00029854	0	0	0	
0.310667	-0.0697026	-0.0145006	0.00282739	0.000313279	0	0	0	
0.310833	0.0740309	0.0130012	0.0028314	0.000308937	0	0	0	
0.311	-0.0701	-0.0128602	0.00279125	0.000296052	0	0	0	
0.311167	0.0728296	0.0121894	0.00276598	0.00027202	0	0	0	
0.311333	-0.0753993	-0.0124385	0.00274458	0.000256327	0	0	0	
0.3115	0.0794659	0.0129125	0.00278956	0.00024964	0	0	0	
0.311667	-0.0721502	-0.0142855	0.00282876	0.000256534	0	0	0	
0.311833	0.0710927	0.0156014	0.00283838	0.000274248	0	0	0	
0.312	-0.074416	-0.0137105	0.00279434	0.000289097	0	0	0	
0.312167	0.079728	0.011535	0.0027703	0.000287209	0	0	0	
0.312333	-0.0802276	-0.0121022	0.00278548	0.00026919	0	0	0	
0.3125	0.0822413	0.0137021	0.0028252	0.000256757	0	0	0	
0.312667	-0.0819418	-0.0124932	0.00283673	0.00025552	0	0	0	
0.312833	0.0798116	0.0138223	0.00282532	0.000263161	0	0	0	
0.313	-0.0756169	-0.015665	0.00282624	0.000274608	0	0	0	
0.313167	0.0786306	0.0160675	0.00283271	0.000289589	0	0	0	
0.313333	-0.0830685	-0.013902	0.00281378	0.000306482	0	0	0	
0.3135	0.0840117	0.0122349	0.00279589	0.000303872	0	0	0	
0.313667	-0.0789092	-0.0120964	0.00280409	0.000283176	0	0	0	
0.313833	0.0796582	0.0145364	0.002805	0.000266969	0	0	0	
0.314	-0.0838528	-0.0146728	0.00278204	0.000269571	0	0	0	
0.314167	0.0874443	0.0140111	0.00278517	0.000283355	0	0	0	
0.314333	-0.0871981	-0.0140574	0.00283862	0.000285803	0	0	0	
0.3145	0.0831248	0.0148113	0.00286511	0.000285586	0	0	0	
0.314667	-0.0877164	-0.0143259	0.00286184	0.000284388	0	0	0	
0.314833	0.0848804	0.0159203	0.00284445	0.000295473	0	0	0	
0.315	-0.0833056	-0.0142051	0.00286649	0.000299792	0	0	0	
0.315167	0.0854565	0.0139069	0.00286106	0.000298379	0	0	0	
0.315333	-0.085967	-0.0140157	0.00282352	0.000289416	0	0	0	
0.3155	0.0842675	0.0154129	0.00279363	0.000285253	0	0	0	
0.315667	-0.087746	-0.0137315	0.00280898	0.000287139	0	0	0	
0.315833	0.0872249	0.0141742	0.00284095	0.00028329	0	0	0	
0.316	-0.0873227	-0.0147694	0.00283542	0.000284257	0	0	0	
0.316167	0.0909606	0.0147671	0.00280464	0.000282336	0	0	0	
0.316333	-0.0902716	-0.0152039	0.00277679	0.000288859	0	0	0	
0.3165	0.0957989	0.0146369	0.0027983	0.000288061	0	0	0	
0.316667	-0.0932183	-0.0146613	0.00284789	0.000289345	0	0	0	
0.316833	0.0865749	0.0132741	0.00291138	0.000285401	0	0	0	
0.317	-0.0811545	-0.0134546	0.00287796	0.000277677	0	0	0	
0.317167	0.0799978	0.0199122	0.00269781	0.000292811	0	0	0	
0.317333	-0.104507	-0.0266823	0.00251706	0.000450331	0	0	0	
0.3175	0.115858	0.0160328	0.00262761	0.000541294	0	0	0	
0.317667	-0.10128	-0.0178091	0.00280374	0.000533642	0	0	0	
0.317833	0.0755093	0.0129996	0.0026878	0.000374953	0	0	0	
0.318	-0.0907298	-0.0120259	0.00229829	0.000275406	0	0	0	
0.318167	0.0882704	0.0168314	0.00202973	0.000253613	0	0	0	
0.318333	-0.106901	-0.0210499	0.00230184	0.000292164	0	0	0	
0.3185	0.0828545	0.0198464	0.00273567	0.000337244	0	0	0	
0.318667	-0.0649022	-0.0118081	0.00302447	0.000370172	0	0	0	
0.318833	0.0316257	0.00569275	0.00274209	0.000314438	0	0	0	
0.319	-0.0283658	-0.00318794	0.00202856	0.000221468	0	0	0	
0.319167	0.0526511	0.00589846	0.0013622	0.000138042	0	0	0	
0.319333	-0.102381	-0.0117028	0.0013332	0.00011936	0	0	0	
0.3195	0.109113	0.0137887	0.00192977	0.000173341	0	0	0	
0.319667	-0.0889754	-0.0139445	0.00262563	0.000226438	0	0	0	
0.319833	0.0693487	0.0124316	0.00289716	0.000256362	0	0	0	
0.32	-0.0329697	-0.00725461	0.00254336	0.00023646	0	0	0	
0.320167	0.0297352	0.00504179	0.00185328	0.000196126	0	0	0	
0.320333	-0.0452833	-0.007366	0.00124193	0.000149659	0	0	0	
0.3205	0.096211	0.0121523	0.00126133	0.000148102	0	0	0	
0.320667	-0.104903	-0.0135992	0.00182559	0.000182631	0	0	0	
0.320833	0.0914266	0.0146576	0.00247642	0.000237718	0	0	0	
0.321	-0.0664165	-0.0112822	0.00269261	0.000261794	0	0	0	
0.321167	0.0377561	0.00589645	0.00226195	0.00024194	0	0	0	
0.321333	-0.0442338	-0.00569477	0.00164569	0.000186135	0	0	0	
0.3215	0.0768083	0.0100716	0.00128632	0.000143786	0	0	0	
0.321667	-0.109715	-0.0142798	0.00166161	0.000164434	0	0	0	
0.321833	0.101055	0.0157736	0.00227902	0.000222346	0	0	0	
0.322	-0.0832411	-0.0136718	0.00275719	0.000269941	0	0	0	
0.322167	0.0435717	0.00906866	0.002603	0.000272318	0	0	0	
0.322333	-0.0321272	-0.00582824	0.00201689	0.000223166	0	0	0	
0.3225	0.0533498	0.00689989	0.00137846	0.000167947	0	0	0	
0.322667	-0.104285	-0.0120505	0.00127865	0.000148657	0	0	0	
0.322833	0.116469	0.014419	0.00179058	0.000190353	0	0	0	
0.323	-0.103636	-0.0144644	0.00248035	0.000239321	0	0	0	
0.323167	0.0811141	0.0125722	0.00283215	0.000266109	0	0	0	
0.323333	-0.0399003	-0.00658034	0.00256563	0.000236784	0	0	0	
0.3235	0.0341081	0.0046069	0.00191232	0.000182263	0	0	0	
0.323667	-0.0522967	-0.00738388	0.00130349	0.000131133	0	0	0	
0.323833	0.103987	0.0125618	0.00132574	0.000138236	0	0	0	
0.324	-0.115807	-0.0132897	0.00188511	0.000182561	0	0	0	
0.324167	0.0998327	0.0139314	0.00252536	0.000236567	0	0	0	
0.324333	-0.0734595	-0.0102903	0.00273195	0.00024775	0	0	0	
0.3245	0.0387789	0.00623213	0.00228868	0.000219002	0	0	0	
0.324667	-0.0445253	-0.00591589	0.0016594	0.000166611	0	0	0	
0.324833	0.0811724	0.00976039	0.00127642	0.00013513	0	0	0	
0.325	-0.118559	-0.0132041	0.00164827	0.000163592	0	0	0	
0.325167	0.111667	0.0155745	0.00228471	0.000218015	0	0	0	
0.325333	-0.0930142	-0.0132561	0.00277011	0.000263978	0	0	0	
0.3255	0.0482523	0.00877058	0.00260748	0.000259666	0	0	0	
0.325667	-0.0358726	-0.00619834	0.00200228	0.000212058	0	0	0	
0.325833	0.0572379	0.00740175	0.00137994	0.000161481	0	0	0	
0.326	-0.109007	-0.0137495	0.00130872	0.000156603	0	0	0	
0.326167	0.127424	0.0156425	0.00185275	0.000209884	0	0	0	
0.326333	-0.112471	-0.0154822	0.00252061	0.000265452	0	0	0	
0.3265	0.0860723	0.0125758	0.00282265	0.000286545	0	0	0	
0.326667	-0.0416484	-0.00728999	0.00250533	0.00024986	0	0	0	
0.326833	0.036535	0.00582816	0.0018463	0.000194078	0	0	0	
0.327	-0.0630027	-0.005821	0.00127755	0.00013968	0	0	0	
0.327167	0.119023	0.00939047	0.00134054	0.000133652	0	0	0	
0.327333	-0.1298	-0.0117986	0.00196006	0.000159608	0	0	0	
0.3275	0.108079	0.0151542	0.00261014	0.000210705	0	0	0	
0.327667	-0.0743384	-0.0119637	0.00277711	0.000243467	0	0	0	
0.327833	0.0426193	0.00563527	0.00227844	0.000230595	0	0	0	
0.328	-0.0460757	-0.00525082	0.00163815	0.000176389	0	0	0	
0.328167	0.0791257	0.0112166	0.00126582	0.000134781	0	0	0	
0.328333	-0.118038	-0.0147547	0.00161377	0.000164665	0	0	0	
0.3285	0.116377	0.0151255	0.00218088	0.000228306	0	0	0	
0.328667	-0.0960959	-0.0148268	0.00263525	0.000275692	0	0	0	
0.328833	0.0512285	0.00954229	0.00246068	0.00027329	0	0	0	
0.329	-0.0410853	-0.00542781	0.00190155	0.000220991	0	0	0	
0.329167	0.0644659	0.0053502	0.00134385	0.000160814	0	0	0	
0.329333	-0.116479	-0.0112531	0.00136594	0.000134707	0	0	0	
0.3295	0.126781	0.0148374	0.00191568	0.00018137	0	0	0	
0.329667	-0.117049	-0.0157178	0.00256883	0.000241523	0	0	0	
0.329833	0.0871965	0.0126045	0.00281072	0.000278248	0	0	0	
0.33	-0.0426621	-0.00703	0.00249459	0.000247056	0	0	0	
0.330167	0.0374716	0.00565749	0.00182323	0.000193417	0	0	0	
0.330333	-0.0610964	-0.00931163	0.00126239	0.000145708	0	0	0	
0.3305	0.111143	0.0131368	0.00130238	0.00016413	0	0	0	
0.330667	-0.126305	-0.0140017	0.00185508	0.000208496	0	0	0	
0.330833	0.115543	0.0142946	0.00246923	0.000256254	0	0	0	
0.331	-0.0851982	-0.0101922	0.00270448	0.000255574	0	0	0	
0.331167	0.0448765	0.0066074	0.00229711	0.000222194	0	0	0	
0.331333	-0.0491263	-0.00650219	0.00169458	0.000169706	0	0	0	
0.3315	0.0899545	0.00993621	0.00128155	0.000142709	0	0	0	
0.331667	-0.128379	-0.0121351	0.00163241	0.000163953	0	0	0	
0.331833	0.127268	0.0139975	0.00224974	0.000208029	0	0	0	
0.332	-0.108286	-0.0129195	0.00275187	0.000241123	0	0	0	
0.332167	0.057643	0.00843326	0.00258375	0.00023959	0	0	0	
0.332333	-0.0410653	-0.00621484	0.00199832	0.000199874	0	0	0	
0.3325	0.0579419	0.00726839	0.00138369	0.000158689	0	0	0	
0.332667	-0.108887	-0.0131743	0.00129667	0.000151243	0	0	0	
0.332833	0.13899	0.0148135	0.00177498	0.000200893	0	0	0	
0.333	-0.135357	-0.0129592	0.00241023	0.000242911	0	0	0	
