0	-0.000561972	0.432901	5.61972E-08	4.32901E-05	0	5	0	
0.000166667	0.000246197	-1.37185	3.78806E-06	0.00548385	0	5	0	
0.000333333	0.00113368	1.79333	2.51304E-05	0.0174094	0	5	0	
0.0005	-0.00639269	-1.70259	4.57866E-05	0.031816	0	5	0	
0.000666667	0.00477669	1.55439	8.54888E-05	0.0409373	0	5	0	
0.000833333	0.00162978	-1.45943	0.000107552	0.0428392	0	5	0	
0.001	0.00146814	1.50456	0.00010356	0.0414091	0	5	0	
0.00116667	-0.00390046	-2.15969	8.23906E-05	0.0403846	0	5	0	
0.00133333	0.00221346	2.69496	5.74572E-05	0.0430005	0	5	0	
0.0015	-0.00182712	-3.00404	6.68104E-05	0.0479809	0	5	0	
0.00166667	0.000598531	3.09677	6.67468E-05	0.0535455	0	5	0	
0.00183333	-0.00260333	-3.03601	8.31587E-05	0.0563236	0	5	0	
0.002	0.00839865	3.03555	0.000101706	0.0573727	0	5	0	
0.00216667	-0.00439836	-3.12159	0.000128974	0.0575861	0	5	0	
0.00233333	0.00402959	3.23256	0.000128789	0.058197	0	5	0	
0.0025	-0.00665218	-3.26723	0.000118099	0.0594849	0	5	0	
0.00266667	0.00560396	3.24571	0.000106132	0.0606902	0	5	0	
0.00283333	0.000909909	-3.20947	0.000121919	0.0611735	0	5	0	
0.003	-0.00697144	3.23842	0.000113016	0.0611231	0	5	0	
0.00316667	0.00271666	-3.24778	0.000139047	0.0610102	0	5	0	
0.00333333	0.00636118	3.23935	0.00017546	0.061042	0	5	0	
0.0035	-0.00618531	-3.21531	0.000198134	0.0610322	0	5	0	
0.00366667	0.0067657	3.20886	0.000175738	0.0608529	0	5	0	
0.00383333	-0.0041156	-3.20563	0.00012611	0.0606494	0	5	0	
0.004	-0.000913514	3.23042	0.000101479	0.0605552	0	5	0	
0.00416667	0.000936343	-3.22072	9.93751E-05	0.0605581	0	5	0	
0.00433333	-0.0023481	3.22563	7.23547E-05	0.060599	0	5	0	
0.0045	-0.0005687	-3.21608	9.19138E-05	0.0606155	0	5	0	
0.00466667	0.00823739	3.21478	8.71231E-05	0.0605617	0	5	0	
0.00483333	-0.00292029	-3.21162	0.000112742	0.0604678	0	5	0	
0.005	3.03738E-05	3.23885	8.57278E-05	0.0604287	0	5	0	
0.00516667	-0.00440099	-3.23918	7.04742E-05	0.0605265	0	5	0	
0.00533333	0.000845904	3.23733	8.32481E-05	0.0606519	0	5	0	
0.0055	-0.00295113	-3.21871	9.48413E-05	0.0606766	0	5	0	
0.00566667	0.00407134	3.21777	0.000113322	0.0605143	0	5	0	
0.00583333	0.00171452	-3.21285	8.45036E-05	0.0603554	0	5	0	
0.006	-0.000638718	3.23077	7.6027E-05	0.0602954	0	5	0	
0.00616667	-0.00180651	-3.22604	8.05311E-05	0.0603583	0	5	0	
0.00633333	0.00291107	3.23506	0.000111102	0.0604393	0	5	0	
0.0065	-0.00716679	-3.2434	0.000119016	0.0605419	0	5	0	
0.00666667	0.00806898	3.25553	0.000137297	0.0606562	0	5	0	
0.00683333	0.000956179	-3.27342	0.000137627	0.0608396	0	5	0	
0.007	-0.00503413	3.30573	0.000173439	0.061085	0	5	0	
0.00716667	0.00720235	-3.27108	0.000147947	0.0611363	0	5	0	
0.00733333	-0.00296281	3.22023	0.000150223	0.061078	0	5	0	
0.0075	-0.00299268	-3.12676	0.000147888	0.060528	0	5	0	
0.00766667	0.0079691	3.10533	0.000161602	0.0598556	0	5	0	
0.00783333	-0.00579369	-3.09986	0.000151927	0.0591466	0	5	0	
0.008	0.00612081	3.21433	0.000136151	0.0589297	0	5	0	
0.00816667	-0.00394131	-3.38111	0.000137006	0.059726	0	5	0	
0.00833333	0.00723338	3.48884	0.000134455	0.0615638	0	5	0	
0.0085	-0.00376667	-3.39317	0.000124964	0.063289	0	5	0	
0.00866667	0.00257473	3.23405	9.52144E-05	0.063506	0	5	0	
0.00883333	-0.00166479	-3.04232	7.44316E-05	0.0616226	0	5	0	
0.009	-0.00180564	3.02757	4.93037E-05	0.0589945	0	5	0	
0.00916667	0.0054161	-3.12069	6.31259E-05	0.0575564	0	5	0	
0.00933333	-0.000120347	3.21838	9.78026E-05	0.0578727	0	5	0	
0.0095	-0.00614543	-3.24356	0.000148177	0.0592183	0	5	0	
0.00966667	0.0031601	3.22739	0.00014016	0.0601804	0	5	0	
0.00983333	0.00589278	-3.1984	0.00010139	0.0604221	0	5	0	
0.01	0.00264938	3.21244	0.000155473	0.0603361	0	5	0	
0.0101667	-0.0198927	-3.21524	0.000354981	0.0602296	0	5	0	
0.0103333	0.0179682	3.21959	0.000457146	0.0602681	0	5	0	
0.0105	0.0160561	-3.23683	0.000536166	0.0603698	0	5	0	
0.0106667	-0.0495376	3.28207	0.000544275	0.0606807	0	5	0	
0.0108333	0.0419317	-3.25474	0.000707941	0.0610245	0	5	0	
0.011	-0.00928733	3.20359	0.000874178	0.0610558	0	5	0	
0.0111667	-0.0173124	-3.17481	0.000994288	0.0606192	0	5	0	
0.0113333	0.0310391	3.19335	0.000895108	0.0601467	0	5	0	
0.0115	-0.0209331	-3.2048	0.000704515	0.0600215	0	5	0	
0.0116667	0.000309872	3.21498	0.000658312	0.0602455	0	5	0	
0.0118333	0.027276	-3.21122	0.000807329	0.0604678	0	5	0	
0.012	-0.0420014	3.2237	0.000874243	0.0606158	0	5	0	
0.0121667	0.0229722	-3.21429	0.000779921	0.0606035	0	5	0	
0.0123333	0.0110306	3.19569	0.000718304	0.0605022	0	5	0	
0.0125	-0.0241255	-3.17124	0.000654358	0.060302	0	5	0	
0.0126667	0.0119138	3.1811	0.000547427	0.0601417	0	5	0	
0.0128333	0.00498808	-3.18565	0.000382091	0.0601047	0	5	0	
0.013	-0.00869069	3.18965	0.000250529	0.0601926	0	5	0	
0.0131667	0.00294017	-3.17395	0.000212688	0.0602413	0	5	0	
0.0133333	0.00769225	3.17363	0.000199968	0.0602544	0	5	0	
0.0135	-0.0126925	-3.20112	0.000235262	0.0603164	0	5	0	
0.0136667	0.00469624	3.18725	0.000217396	0.0605613	0	5	0	
0.0138333	0.00188913	-3.17974	0.000166238	0.0606169	0	5	0	
0.014	-0.00135614	3.17424	9.60765E-05	0.0605533	0	5	0	
0.0141667	-0.00365693	-3.15619	8.93387E-05	0.0603338	0	5	0	
0.0143333	0.00511579	3.16586	8.07081E-05	0.0602543	0	5	0	
0.0145	-0.00253441	-3.16423	0.000102509	0.0602461	0	5	0	
0.0146667	-0.00402672	3.11958	7.37576E-05	0.0602124	0	5	0	
0.0148333	0.00199049	-3.13652	7.65669E-05	0.0600145	0	5	0	
0.015	0.00725933	3.15466	8.90219E-05	0.0599603	0	5	0	
0.0151667	-0.00529945	-3.14766	0.000117411	0.0599769	0	5	0	
0.0153333	-0.00044215	3.15256	9.67055E-05	0.0601919	0	5	0	
0.0155	0.00313037	-3.15692	6.93905E-05	0.0602849	0	5	0	
0.0156667	0.000652523	3.15891	6.6036E-05	0.0604016	0	5	0	
0.0158333	-0.00205291	-3.15168	9.67433E-05	0.0604973	0	5	0	
0.016	0.00396479	3.1575	0.000101995	0.0605928	0	5	0	
0.0161667	0.000519776	-3.14632	8.0904E-05	0.0606156	0	5	0	
0.0163333	0.00264743	3.15029	4.81327E-05	0.0606495	0	5	0	
0.0165	-0.00389747	-3.15222	5.46104E-05	0.0606665	0	5	0	
0.0166667	0.00576751	3.1514	6.64344E-05	0.0607562	0	5	0	
0.0168333	-0.000957123	-3.14866	8.67949E-05	0.0608295	0	5	0	
0.017	0.00455884	3.14401	7.82367E-05	0.060917	0	5	0	
0.0171667	-0.00642635	-3.13554	8.95713E-05	0.0608849	0	5	0	
0.0173333	0.00320235	3.14564	8.09922E-05	0.0608905	0	5	0	
0.0175	0.00062775	-3.13283	7.97525E-05	0.0608815	0	5	0	
0.0176667	-0.00144178	3.13168	6.35706E-05	0.0609209	0	5	0	
0.0178333	-0.000852525	-3.11777	9.91957E-05	0.0609231	0	5	0	
0.018	0.0035237	3.1037	0.000136224	0.0608324	0	5	0	
0.0181667	-0.00422562	-3.10057	0.000135964	0.0607027	0	5	0	
0.0183333	0.00359287	3.10779	0.00011548	0.0607042	0	5	0	
0.0185	0.00168378	-3.10012	9.41955E-05	0.0607695	0	5	0	
0.0186667	0.00167202	3.10704	8.05992E-05	0.0608933	0	5	0	
0.0188333	-0.00342702	-3.08984	6.35066E-05	0.0608906	0	5	0	
0.019	0.00354309	3.09431	7.12971E-05	0.0608601	0	5	0	
0.0191667	-0.00647145	-3.09247	8.08373E-05	0.0608948	0	5	0	
0.0193333	0.00598599	3.09914	0.000114856	0.0609884	0	5	0	
0.0195	0.00547627	-3.08431	0.000118018	0.0610482	0	5	0	
0.0196667	-0.0014368	3.07871	0.000132135	0.0610453	0	5	0	
0.0198333	-0.00135075	-3.07973	0.000107907	0.0610193	0	5	0	
0.02	0.00233741	3.07393	0.000117563	0.0610744	0	5	0	
0.0201667	-0.00255028	-3.05819	0.00012886	0.0610575	0	5	0	
0.0203333	0.00602244	3.06831	0.000150415	0.0610423	0	5	0	
0.0205	-0.00661878	-3.05201	0.000148804	0.0610228	0	5	0	
0.0206667	0.00437177	3.04684	0.000134772	0.0610898	0	5	0	
0.0208333	0.000987508	-3.03923	0.000112609	0.0610969	0	5	0	
0.021	-0.000556181	3.04084	7.14575E-05	0.0610582	0	5	0	
0.0211667	-0.00241512	-3.0411	7.64545E-05	0.0609919	0	5	0	
0.0213333	0.00404969	3.04617	7.10703E-05	0.0610667	0	5	0	
0.0215	-0.00158676	-3.02099	7.53057E-05	0.0611317	0	5	0	
0.0216667	0.00218658	3.01728	5.48315E-05	0.0611744	0	5	0	
0.0218333	-0.00260206	-3.00546	4.4551E-05	0.0610732	0	5	0	
0.022	0.00159039	3.01437	5.71942E-05	0.0610463	0	5	0	
0.0221667	-7.78926E-05	-3.02108	5.56122E-05	0.0611447	0	5	0	
0.0223333	0.00248784	3.02086	6.41751E-05	0.0613631	0	5	0	
0.0225	-0.00209883	-2.98001	6.73834E-05	0.0614144	0	5	0	
0.0226667	0.00564793	2.96193	8.22906E-05	0.0612795	0	5	0	
0.0228333	0.00200196	-3.01218	9.31593E-05	0.0613455	0	5	0	
0.023	-0.00471025	3.15096	8.99899E-05	0.0623789	0	5	0	
0.0231667	0.000836944	-3.27218	8.96813E-05	0.0641781	0	5	0	
0.0233333	0.0132564	3.20289	0.000112879	0.0658197	0	5	0	
0.0235	-0.0130039	-3.03936	0.000184763	0.0656067	0	5	0	
0.0236667	0.0214244	2.93317	0.000260756	0.0640024	0	5	0	
0.0238333	-0.0113105	-2.87768	0.000312554	0.0619522	0	5	0	
0.024	0.00204517	2.85143	0.000307892	0.0609994	0	5	0	
0.0241667	0.00549237	-2.84008	0.000280778	0.0609864	0	5	0	
0.0243333	-0.00277159	2.86422	0.000183117	0.0617057	0	5	0	
0.0245	0.00436388	-2.91531	0.000195895	0.0621757	0	5	0	
0.0246667	0.0112953	2.92576	0.000250485	0.0623315	0	5	0	
0.0248333	-0.0115162	-2.88879	0.000349132	0.06181	0	5	0	
0.025	0.00699404	2.87978	0.000283491	0.061411	0	5	0	
0.0251667	-0.00157	-2.8805	0.000193127	0.0612071	0	5	0	
0.0253333	0.00141196	2.90948	9.46386E-05	0.0614287	0	5	0	
0.0255	-0.000967652	-2.90902	8.03447E-05	0.0617268	0	5	0	
0.0256667	0.0025474	2.87449	6.27309E-05	0.0618485	0	5	0	
0.0258333	-0.00366954	-2.8548	7.5895E-05	0.0616668	0	5	0	
0.026	0.00465973	2.8466	7.5411E-05	0.0614729	0	5	0	
0.0261667	-0.00311317	-2.83951	7.90353E-05	0.0613349	0	5	0	
0.0263333	-0.000362694	2.82992	6.44052E-05	0.0613645	0	5	0	
0.0265	0.00475654	-2.80675	4.97848E-05	0.061264	0	5	0	
0.0266667	-0.00364993	2.799	5.98417E-05	0.061188	0	5	0	
0.0268333	-0.00746068	-2.8081	0.000104972	0.0611383	0	5	0	
0.027	0.00724222	2.80021	0.000158208	0.0612485	0	5	0	
0.0271667	-0.00416695	-2.78486	0.000148221	0.0612733	0	5	0	
0.0273333	0.00080342	2.77306	0.00011343	0.0612387	0	5	0	
0.0275	-0.000558124	-2.77131	6.15586E-05	0.0610795	0	5	0	
0.0276667	-0.00112547	2.7692	4.34645E-05	0.0611045	0	5	0	
0.0278333	-0.00115024	-2.75789	3.25313E-05	0.0611293	0	5	0	
0.028	-0.00454557	2.74405	3.91645E-05	0.0612043	0	5	0	
0.0281667	0.000496297	-2.73097	6.19643E-05	0.0611536	0	5	0	
0.0283333	0.00219739	2.72878	0.000108083	0.0611534	0	5	0	
0.0285	-0.00456056	-2.73448	0.000131343	0.06117	0	5	0	
0.0286667	0.00524549	2.72108	0.000136614	0.0612873	0	5	0	
0.0288333	-0.00230587	-2.72407	0.000102	0.0613481	0	5	0	
0.029	0.00100241	2.71123	7.48482E-05	0.0614551	0	5	0	
0.0291667	0.000151993	-2.69037	5.87952E-05	0.0613717	0	5	0	
0.0293333	-0.00325722	2.66949	4.45402E-05	0.0612446	0	5	0	
0.0295	-0.000775577	-2.66224	6.66242E-05	0.0610036	0	5	0	
0.0296667	0.00702204	2.6514	9.84271E-05	0.0609806	0	5	0	
0.0298333	-0.004413	-2.65206	0.000139376	0.0610622	0	5	0	
0.03	0.00467416	2.64957	0.000126472	0.0613179	0	5	0	
0.0301667	-0.00529515	-2.65321	0.000107904	0.0614376	0	5	0	
0.0303333	0.0017308	2.64803	9.13957E-05	0.0615821	0	5	0	
0.0305	0.00254403	-2.63792	8.1734E-05	0.0615807	0	5	0	
0.0306667	-0.00245534	2.61609	5.66889E-05	0.0615757	0	5	0	
0.0308333	0.00100676	-2.60744	4.86555E-05	0.061411	0	5	0	
0.031	0.000416954	2.60093	7.65015E-05	0.0613709	0	5	0	
0.0311667	-0.00196821	-2.57743	9.63202E-05	0.0613112	0	5	0	
0.0313333	-0.00278958	2.56338	8.62698E-05	0.061356	0	5	0	
0.0315	0.0150822	-2.55908	0.000103294	0.0612792	0	5	0	
0.0316667	-0.0162518	2.55048	0.000186658	0.0612788	0	5	0	
0.0318333	0.00481876	-2.54102	0.000397051	0.061256	0	5	0	
0.032	0.0031004	2.52038	0.000580796	0.0612966	0	5	0	
0.0321667	-0.0119909	-2.48638	0.00062637	0.0611912	0	5	0	
0.0323333	0.022947	2.48795	0.000533498	0.0610726	0	5	0	
0.0325	-0.0271809	-2.48482	0.000430901	0.0610038	0	5	0	
0.0326667	0.00496193	2.47877	0.000544217	0.0611854	0	5	0	
0.0328333	0.0388486	-2.47717	0.000801151	0.0614926	0	5	0	
0.033	-0.0540448	2.49586	0.000989861	0.0617409	0	5	0	
0.0331667	0.0299916	-2.48437	0.0009658	0.0617563	0	5	0	
0.0333333	-0.00318545	2.47074	0.000776409	0.0615408	0	5	0	
0.0335	-0.0189218	-2.44668	0.000639184	0.0612822	0	5	0	
0.0336667	0.0403206	2.42526	0.000590862	0.0611321	0	5	0	
0.0338333	-0.040076	-2.41701	0.000633572	0.0610657	0	5	0	
0.034	0.025377	2.40417	0.000703309	0.06101	0	5	0	
0.0341667	-0.00224361	-2.39037	0.000746423	0.0610075	0	5	0	
0.0343333	-0.00648872	2.39372	0.00062575	0.0611184	0	5	0	
0.0345	0.000224012	-2.37982	0.000401066	0.0612016	0	5	0	
0.0346667	0.0132155	2.35578	0.000243952	0.0612604	0	5	0	
0.0348333	-0.0133949	-2.35431	0.000218788	0.0614879	0	5	0	
0.035	0.0132085	2.37493	0.000274112	0.0618774	0	5	0	
0.0351667	-0.0146543	-2.37109	0.000299507	0.0621398	0	5	0	
0.0353333	0.0136885	2.34932	0.000290901	0.0620081	0	5	0	
0.0355	-0.00531497	-2.33221	0.000260023	0.061644	0	5	0	
0.0356667	0.00644578	2.30754	0.000181339	0.0613922	0	5	0	
0.0358333	-0.00693546	-2.27216	0.000141841	0.0612873	0	5	0	
0.036	0.00297758	2.28845	0.000117616	0.0613662	0	5	0	
0.0361667	0.00220085	-2.30944	0.000115927	0.0617004	0	5	0	
0.0363333	-0.000923702	2.30759	8.46757E-05	0.0620535	0	5	0	
0.0365	-0.0029641	-2.26617	9.04854E-05	0.0621126	0	5	0	
0.0366667	0.00187738	2.23674	9.66132E-05	0.0617597	0	5	0	
0.0368333	-0.00122762	-2.21891	9.55023E-05	0.0613745	0	5	0	
0.037	8.7569E-05	2.20603	5.70529E-05	0.0612571	0	5	0	
0.0371667	1.80162E-05	-2.17222	2.48407E-05	0.0612972	0	5	0	
0.0373333	0.000888371	2.16239	3.01986E-05	0.0613564	0	5	0	
0.0375	-0.00184641	-2.1622	4.75782E-05	0.061453	0	5	0	
0.0376667	-0.000282075	2.14301	6.83151E-05	0.0617475	0	5	0	
0.0378333	-0.000100723	-2.18243	8.35369E-05	0.0619875	0	5	0	
0.038	0.00251622	2.18524	9.34642E-05	0.062117	0	5	0	
0.0381667	-0.000338953	-2.15364	8.73465E-05	0.0618667	0	5	0	
0.0383333	-0.000581554	2.13891	6.06367E-05	0.0616222	0	5	0	
0.0385	-0.00213333	-2.10829	4.89692E-05	0.0613369	0	5	0	
0.0386667	-0.000634575	2.02984	6.81143E-05	0.0610585	0	5	0	
0.0388333	0.00174972	-2.04165	9.69301E-05	0.0606454	0	5	0	
0.039	5.70275E-05	2.0626	0.000101083	0.0606289	0	5	0	
0.0391667	0.00131342	-2.07766	8.30798E-05	0.0609112	0	5	0	
0.0393333	-0.000790057	2.07544	6.45278E-05	0.0614387	0	5	0	
0.0395	-0.000986012	-2.05368	5.93999E-05	0.0615857	0	5	0	
0.0396667	-0.00484123	2.03438	7.9267E-05	0.0615694	0	5	0	
0.0398333	0.00069237	-2.03704	0.000107167	0.0615677	0	5	0	
0.04	0.00194484	2.02453	0.00013758	0.0617182	0	5	0	
0.0401667	-0.00286845	-2.01736	0.000109468	0.0617849	0	5	0	
0.0403333	-0.00277968	2.00268	8.83461E-05	0.0617375	0	5	0	
0.0405	0.00671375	-1.97911	6.9799E-05	0.0615025	0	5	0	
0.0406667	-0.00576803	1.95255	0.000105867	0.0613723	0	5	0	
0.0408333	-0.00125237	-1.94882	0.000125805	0.0613361	0	5	0	
0.041	0.00207009	1.9293	0.00012025	0.0614502	0	5	0	
0.0411667	0.00171606	-1.91896	8.28195E-05	0.0614645	0	5	0	
0.0413333	-6.96749E-05	1.91991	4.31191E-05	0.0614571	0	5	0	
0.0415	-0.000543544	-1.91344	4.10497E-05	0.0614225	0	5	0	
0.0416667	-0.000420188	1.88369	3.19002E-05	0.0614869	0	5	0	
0.0418333	0.00241724	-1.87543	3.1005E-05	0.0614207	0	5	0	
0.042	-0.00151262	1.85911	4.77451E-05	0.0613121	0	5	0	
0.0421667	-0.00176087	-1.84325	8.86849E-05	0.0611451	0	5	0	
0.0423333	0.00205354	1.84124	9.88648E-05	0.0610736	0	5	0	
0.0425	0.00325416	-1.83163	6.84634E-05	0.0610496	0	5	0	
0.0426667	-0.00610301	1.80164	5.84436E-05	0.0610859	0	5	0	
0.0428333	0.00392315	-1.79806	7.78678E-05	0.0610754	0	5	0	
0.043	-0.00430799	1.78372	0.000108716	0.0611295	0	5	0	
0.0431667	0.00186333	-1.78041	0.000115101	0.0612326	0	5	0	
0.0433333	-0.00115386	1.78899	0.000118224	0.0614649	0	5	0	
0.0435	-0.000940429	-1.78315	0.000100299	0.0616367	0	5	0	
0.0436667	-0.00432176	1.76046	7.41884E-05	0.0617389	0	5	0	
0.0438333	0.00374596	-1.75153	8.09731E-05	0.0616817	0	5	0	
0.044	-0.00843964	1.70745	9.21037E-05	0.0614974	0	5	0	
0.0441667	0.0146121	-1.68151	0.000155218	0.0612518	0	5	0	
0.0443333	-0.0114533	1.64873	0.000188524	0.0612594	0	5	0	
0.0445	0.00132618	-1.67516	0.000236652	0.0613872	0	5	0	
0.0446667	0.00416648	1.68369	0.000241353	0.0616813	0	5	0	
0.0448333	-0.00927889	-1.71748	0.000190685	0.0617978	0	5	0	
0.045	0.00383114	1.75562	0.000167705	0.0618231	0	5	0	
0.0451667	0.00538878	-1.70253	0.0001379	0.0615913	0	5	0	
0.0453333	-0.00687767	1.58511	0.000149332	0.0611028	0	5	0	
0.0455	0.00194866	-1.57409	0.000135155	0.0606337	0	5	0	
0.0456667	0.00563551	1.57063	0.000164552	0.0607018	0	5	0	
0.0458333	-0.00949387	-1.59662	0.000178845	0.0612926	0	5	0	
0.046	0.00672128	1.63677	0.000190618	0.06222	0	5	0	
0.0461667	0.000109421	-1.62992	0.000164371	0.0629953	0	5	0	
0.0463333	-0.00576978	1.59317	0.000171296	0.0632529	0	5	0	
0.0465	0.0136722	-1.55399	0.00017971	0.062765	0	5	0	
0.0466667	-0.0128042	1.50124	0.000200925	0.0618496	0	5	0	
0.0468333	0.00922506	-1.48093	0.000248384	0.061213	0	5	0	
0.047	0.0013113	1.46696	0.000293291	0.0611384	0	5	0	
0.0471667	-0.00758106	-1.4643	0.000328694	0.0613329	0	5	0	
0.0473333	0.0137486	1.45079	0.000330909	0.0615909	0	5	0	
0.0475	-0.0134421	-1.44695	0.000305726	0.061795	0	5	0	
0.0476667	0.0114427	1.43977	0.000280265	0.062037	0	5	0	
0.0478333	-0.00317012	-1.44284	0.000233842	0.0621574	0	5	0	
0.048	0.00429465	1.42203	0.00017913	0.0620764	0	5	0	
0.0481667	-0.00343023	-1.38851	0.000124968	0.0617446	0	5	0	
0.0483333	-0.00330662	1.35961	8.54097E-05	0.0614032	0	5	0	
0.0485	0.0073748	-1.33832	9.69958E-05	0.0611483	0	5	0	
0.0486667	-0.00641583	1.31796	0.000101324	0.061001	0	5	0	
0.0488333	0.00756466	-1.31446	0.000154729	0.0609467	0	5	0	
0.049	-0.00851937	1.29979	0.00020126	0.0610129	0	5	0	
0.0491667	0.00451008	-1.27642	0.000250932	0.0611092	0	5	0	
0.0493333	0.00389751	1.25924	0.00026915	0.0612535	0	5	0	
0.0495	-0.00975829	-1.24039	0.000243892	0.0615662	0	5	0	
0.0496667	0.00801366	1.27012	0.000221756	0.0619299	0	5	0	
0.0498333	0.00233986	-1.27593	0.000207461	0.0620619	0	5	0	
0.05	-0.00732159	1.24304	0.000218614	0.0617349	0	5	0	
0.0501667	0.00499281	-1.2292	0.000199799	0.0612423	0	5	0	
0.0503333	0.0013489	1.18443	0.000151063	0.0608641	0	5	0	
0.0505	-0.00343962	-1.12198	9.89786E-05	0.0606539	0	5	0	
0.0506667	-0.00038583	1.12525	7.6751E-05	0.0606547	0	5	0	
0.0508333	0.00323342	-1.17515	6.87502E-05	0.0609482	0	5	0	
0.051	-0.000906907	1.1775	5.58548E-05	0.0614019	0	5	0	
0.0511667	0.00427897	-1.16762	5.6645E-05	0.061654	0	5	0	
0.0513333	-0.00276688	1.13161	8.63819E-05	0.0616337	0	5	0	
0.0515	-0.0073807	-1.12304	0.00017001	0.0614911	0	5	0	
0.0516667	0.00819943	1.12318	0.000185805	0.0614895	0	5	0	
0.0518333	-0.0161834	-1.14858	0.00030529	0.0614948	0	5	0	
0.052	0.0129674	1.10087	0.00045355	0.0614764	0	5	0	
0.0521667	0.0116385	-1.06192	0.000552142	0.061202	0	5	0	
0.0523333	-0.0118472	1.02408	0.000473041	0.060864	0	5	0	
0.0525	0.0060321	-1.01745	0.000279148	0.060659	0	5	0	
0.0526667	0.00239933	1.01029	0.00022422	0.0608737	0	5	0	
0.0528333	-0.0209093	-1.02846	0.000203786	0.0613155	0	5	0	
0.053	0.0262417	1.00467	0.000348895	0.0617932	0	5	0	
0.0531667	-0.00784504	-0.997782	0.000419948	0.0619725	0	5	0	
0.0533333	0.00979626	0.97701	0.000408727	0.0619	0	5	0	
0.0535	-0.0011182	-0.964822	0.00027979	0.0616995	0	5	0	
0.0536667	-0.00390413	0.933192	0.000176895	0.061687	0	5	0	
0.0538333	0.00304684	-0.942265	0.000178403	0.061797	0	5	0	
0.054	-0.00129911	0.920715	0.000160738	0.0619283	0	5	0	
0.0541667	0.0180806	-0.90702	0.000176844	0.0618287	0	5	0	
0.0543333	-0.0317735	0.875672	0.000275796	0.0615647	0	5	0	
0.0545	0.0250832	-0.845016	0.000450002	0.0612197	0	5	0	
0.0546667	0.00212606	0.810373	0.000670033	0.0610682	0	5	0	
0.0548333	-0.0231537	-0.817649	0.000734937	0.0611077	0	5	0	
0.055	0.0157553	0.803369	0.000619072	0.0613242	0	5	0	
0.0551667	0.0101413	-0.823461	0.000494522	0.0615623	0	5	0	
0.0553333	-0.0215439	0.822871	0.000430128	0.0617531	0	5	0	
0.0555	0.021412	-0.814719	0.000447553	0.0616509	0	5	0	
0.0556667	-0.0183539	0.777583	0.000418127	0.0612905	0	5	0	
0.0558333	0.00999384	-0.74962	0.000338964	0.0608196	0	5	0	
0.056	-0.0106788	0.699241	0.000324974	0.0605813	0	5	0	
0.0561667	0.00306354	-0.699011	0.000263632	0.0606448	0	5	0	
0.0563333	-0.00831005	0.692753	0.000235527	0.0609912	0	5	0	
0.0565	0.0167284	-0.70551	0.00022802	0.0613593	0	5	0	
0.0566667	-0.00780333	0.685119	0.000286726	0.0616498	0	5	0	
0.0568333	-0.0122007	-0.682871	0.000426314	0.0617298	0	5	0	
0.057	0.0218369	0.65831	0.000494544	0.0616926	0	5	0	
0.0571667	-0.0194747	-0.662505	0.000481284	0.0615752	0	5	0	
0.0573333	-0.00476444	0.64424	0.000437444	0.0615449	0	5	0	
0.0575	0.0200755	-0.640808	0.000412158	0.0615697	0	5	0	
0.0576667	-0.0174262	0.609068	0.00039412	0.0615983	0	5	0	
0.0578333	0.0105625	-0.605053	0.000355074	0.0614146	0	5	0	
0.058	-0.000580714	0.567555	0.000299323	0.0611129	0	5	0	
0.0581667	-0.000970436	-0.540462	0.000245197	0.0608579	0	5	0	
0.0583333	-0.000339644	0.51319	0.000138394	0.0608691	0	5	0	
0.0585	0.00505384	-0.513368	6.59545E-05	0.0610377	0	5	0	
0.0586667	-0.0056728	0.487442	5.93322E-05	0.0612152	0	5	0	
0.0588333	0.00236496	-0.498833	0.000107768	0.0613006	0	5	0	
0.059	0.00309946	0.4833	0.000138399	0.0614212	0	5	0	
0.0591667	-0.00188588	-0.473546	0.000132945	0.0615335	0	5	0	
0.0593333	0.00113619	0.450052	0.000110208	0.0615688	0	5	0	
0.0595	-0.00298856	-0.447253	0.000102172	0.0614792	0	5	0	
0.0596667	0.00525334	0.425278	8.65643E-05	0.0614584	0	5	0	
0.0598333	0.000736663	-0.408528	7.97092E-05	0.0615564	0	5	0	
0.06	-0.00347378	0.378107	7.18148E-05	0.0615906	0	5	0	
0.0601667	0.00281879	-0.382211	7.11585E-05	0.06142	0	5	0	
0.0603333	-0.00835334	0.362365	8.30368E-05	0.0611882	0	5	0	
0.0605	0.00824635	-0.357649	0.000109036	0.0610548	0	5	0	
0.0606667	-0.00526482	0.323214	0.000130397	0.0610649	0	5	0	
0.0608333	0.00626309	-0.301957	0.000169716	0.0610953	0	5	0	
0.061	0.00392755	0.285222	0.000190946	0.0611011	0	5	0	
0.0611667	-0.00919566	-0.311798	0.000212257	0.061091	0	5	0	
0.0613333	0.00106448	0.293663	0.00016414	0.0611199	0	5	0	
0.0615	0.000838321	-0.280774	0.000134132	0.0611504	0	5	0	
0.0616667	-0.00511806	0.248967	0.000109587	0.0611743	0	5	0	
0.0618333	0.00640273	-0.241632	0.000116022	0.0611887	0	5	0	
0.062	-0.0015325	0.209514	9.72343E-05	0.0612513	0	5	0	
0.0621667	0.0034741	-0.219955	0.00010026	0.0612885	0	5	0	
0.0623333	-0.00116788	0.198011	9.46764E-05	0.0613103	0	5	0	
0.0625	-0.00267663	-0.187731	8.312E-05	0.0613467	0	5	0	
0.0626667	-0.00368709	0.174975	6.12343E-05	0.0613975	0	5	0	
0.0628333	0.00159349	-0.1663	6.33033E-05	0.0613775	0	5	0	
0.063	-0.00372202	0.130118	7.46689E-05	0.0612931	0	5	0	
0.0631667	0.00420231	-0.138728	0.000120417	0.0612277	0	5	0	
0.0633333	0.00331247	0.114111	0.000106366	0.0612317	0	5	0	
0.0635	0.000952783	-0.0974067	9.84762E-05	0.0612318	0	5	0	
0.0636667	-0.00406343	0.0844986	6.29123E-05	0.0612029	0	5	0	
0.0638333	-0.00163849	-0.0746679	5.87107E-05	0.061168	0	5	0	
0.064	-0.00312908	0.0486077	6.37441E-05	0.061152	0	5	0	
0.0641667	0.00205929	-0.0470303	6.7932E-05	0.0611536	0	5	0	
0.0643333	0.00338744	0.0286367	9.1605E-05	0.061165	0	5	0	
0.0645	-0.00651088	-0.0239612	0.000116875	0.0612058	0	5	0	
0.0646667	0.00867807	0.00377546	0.000127223	0.0612504	0	5	0	
0.0648333	-0.00053504	-0.00236743	0.000133956	0.0612589	0	5	0	
0.065	-0.00220274	-0.0178556	0.000123284	0.0612613	0	5	0	
0.0651667	0.00215883	0.0277336	9.39111E-05	0.0612735	0	5	0	
0.0653333	-0.00813083	-0.0445718	8.7809E-05	0.0612832	0	5	0	
0.0655	0.00635282	0.0506298	0.00010082	0.0613119	0	5	0	
0.0656667	-0.00210917	-0.0762438	0.000146525	0.0613685	0	5	0	
0.0658333	-0.000800352	0.0735986	0.00022974	0.0613947	0	5	0	
0.066	0.0128187	-0.110125	0.000273536	0.0613294	0	5	0	
0.0661667	-0.00635138	0.125125	0.000288472	0.061188	0	5	0	
0.0663333	-0.000105721	-0.150468	0.00018259	0.0610871	0	5	0	
0.0665	-0.00336214	0.159377	9.87166E-05	0.0610942	0	5	0	
0.0666667	0.00467964	-0.178748	6.26967E-05	0.061212	0	5	0	
0.0668333	0.00297672	0.17693	7.15443E-05	0.0613459	0	5	0	
0.067	-0.00446105	-0.197578	9.87114E-05	0.0614364	0	5	0	
0.0671667	0.00564343	0.187546	9.86153E-05	0.0614625	0	5	0	
0.0673333	-0.000924085	-0.200176	0.000105222	0.0614315	0	5	0	
0.0675	0.00411705	0.211859	8.80572E-05	0.0613087	0	5	0	
0.0676667	-0.0108789	-0.242688	0.000100101	0.0611758	0	5	0	
0.0678333	0.00710056	0.252727	0.000127851	0.0611165	0	5	0	
0.068	0.00253955	-0.272579	0.000198791	0.0611428	0	5	0	
0.0681667	-0.00916985	0.279889	0.000243972	0.0611725	0	5	0	
0.0683333	0.00992468	-0.30668	0.000262722	0.0612252	0	5	0	
0.0685	-0.00773139	0.307413	0.000219779	0.0613055	0	5	0	
0.0686667	0.00348769	-0.323403	0.00018484	0.0613986	0	5	0	
0.0688333	0.00605734	0.326797	0.000184821	0.0613818	0	5	0	
0.069	-0.0139313	-0.348735	0.000221602	0.061246	0	5	0	
0.0691667	0.0158822	0.370912	0.000240358	0.0610576	0	5	0	
0.0693333	-0.0140541	-0.403244	0.000280916	0.0609902	0	5	0	
0.0695	0.000729247	0.408846	0.000324579	0.0611008	0	5	0	
0.0696667	0.0154204	-0.421266	0.000362205	0.0613154	0	5	0	
0.0698333	-0.0127489	0.414513	0.000339541	0.0614717	0	5	0	
0.07	0.00498203	-0.427761	0.000285528	0.0615838	0	5	0	
0.0701667	0.00463258	0.42065	0.000286673	0.0615902	0	5	0	
0.0703333	-0.0117063	-0.447437	0.000301988	0.061424	0	5	0	
0.0705	0.0133979	0.486286	0.000303601	0.0610927	0	5	0	
0.0706667	-0.0119697	-0.520912	0.0002746	0.0608665	0	5	0	
0.0708333	0.00457364	0.520224	0.000249739	0.0609049	0	5	0	
0.071	0.000584972	-0.544638	0.000237346	0.0611378	0	5	0	
0.0711667	0.000795369	0.549487	0.000176734	0.0613054	0	5	0	
0.0713333	0.000445231	-0.569595	0.000103147	0.0613997	0	5	0	
0.0715	-0.00134009	0.572762	5.26643E-05	0.0614389	0	5	0	
0.0716667	-0.000968913	-0.591626	3.45843E-05	0.0614884	0	5	0	
0.0718333	-0.00117742	0.591955	3.56308E-05	0.0614675	0	5	0	
0.072	-0.000588057	-0.610653	4.26603E-05	0.0614166	0	5	0	
0.0721667	0.0053131	0.617264	7.19071E-05	0.0612889	0	5	0	
0.0723333	-0.00665698	-0.659653	0.00011981	0.0611344	0	5	0	
0.0725	0.00950076	0.696458	0.000139869	0.0610853	0	5	0	
0.0726667	-0.00687309	-0.741878	0.000165781	0.0614349	0	5	0	
0.0728333	-0.000279411	0.689034	0.000174865	0.0619081	0	5	0	
0.073	0.00659665	-0.680959	0.000166963	0.0621432	0	5	0	
0.0731667	-0.00195009	0.68201	0.000148904	0.0618508	0	5	0	
0.0733333	-0.011706	-0.712041	0.000180151	0.0614046	0	5	0	
0.0735	0.0110315	0.755954	0.00025446	0.0609851	0	5	0	
0.0736667	-0.0239826	-0.835589	0.000318351	0.0607424	0	5	0	
0.0738333	0.00612814	0.822069	0.000372487	0.0607041	0	5	0	
0.074	0.013723	-0.823909	0.000407014	0.0611614	0	5	0	
0.0741667	-0.00600908	0.78977	0.000399785	0.0617745	0	5	0	
0.0743333	0.00324652	-0.771299	0.000289359	0.0621364	0	5	0	
0.0745	-0.000351139	0.756484	0.000213374	0.0618431	0	5	0	
0.0746667	-0.0278077	-0.790806	0.000195331	0.061291	0	5	0	
0.0748333	0.0137725	0.838949	0.000327337	0.0609552	0	5	0	
0.075	-0.00505693	-0.877862	0.000358906	0.061063	0	5	0	
0.0751667	0.00358758	0.873544	0.000401672	0.0613211	0	5	0	
0.0753333	0.0069174	-0.893317	0.000249596	0.0615183	0	5	0	
0.0755	0.00634383	0.893042	0.000211782	0.0615938	0	5	0	
0.0756667	-0.0185529	-0.908617	0.000183147	0.0617643	0	5	0	
0.0758333	0.0140709	0.932597	0.000283695	0.0618937	0	5	0	
0.076	-0.012318	-0.961561	0.000287979	0.0618487	0	5	0	
0.0761667	0.00877579	0.967211	0.000292817	0.0616296	0	5	0	
0.0763333	0.00195844	-0.990759	0.000218878	0.0615046	0	5	0	
0.0765	0.00159992	0.995779	0.00017226	0.0614818	0	5	0	
0.0766667	-0.00201703	-0.996668	8.4708E-05	0.0615133	0	5	0	
0.0768333	-0.000400724	0.991337	4.55582E-05	0.0615165	0	5	0	
0.077	0.00139417	-1.00123	4.84311E-05	0.0614879	0	5	0	
0.0771667	0.00569983	0.997299	6.16036E-05	0.0612409	0	5	0	
0.0773333	-0.00412414	-1.03801	9.01976E-05	0.060963	0	5	0	
0.0775	0.00653579	1.07213	0.000107147	0.0608935	0	5	0	
0.0776667	0.00203154	-1.07394	0.00014149	0.0610526	0	5	0	
0.0778333	-0.00816771	1.11287	0.000168159	0.0612149	0	5	0	
0.078	0.00616099	-1.1405	0.000179484	0.0613701	0	5	0	
0.0781667	-0.00260697	1.13373	0.00014126	0.0617	0	5	0	
0.0783333	-0.00326648	-1.13288	0.000117426	0.0620605	0	5	0	
0.0785	0.00896078	1.14325	0.000130907	0.062186	0	5	0	
0.0786667	-0.0101862	-1.14797	0.000170747	0.062111	0	5	0	
0.0788333	0.0128847	1.16314	0.000194984	0.0620395	0	5	0	
0.079	-0.0102647	-1.18106	0.000231001	0.0619253	0	5	0	
0.0791667	-4.58967E-05	1.20421	0.000250959	0.0615942	0	5	0	
0.0793333	0.00703667	-1.21785	0.000245233	0.0611491	0	5	0	
0.0795	-0.00661505	1.23519	0.000179781	0.0609506	0	5	0	
0.0796667	0.00436673	-1.26187	0.00019138	0.0611532	0	5	0	
0.0798333	0.00624645	1.27328	0.000215996	0.0614621	0	5	0	
0.08	-0.00753376	-1.28253	0.000246533	0.0616147	0	5	0	
0.0801667	0.0034097	1.28308	0.000183994	0.0615072	0	5	0	
0.0803333	-0.00484897	-1.30811	0.000130549	0.0614246	0	5	0	
0.0805	0.00149816	1.31738	0.000129559	0.0614459	0	5	0	
0.0806667	0.00997547	-1.32367	0.000184385	0.0616401	0	5	0	
0.0808333	-0.00907547	1.32309	0.000243194	0.0617731	0	5	0	
0.081	0.00762595	-1.33651	0.000216364	0.0618369	0	5	0	
0.0811667	-0.000441609	1.34103	0.000171161	0.0617607	0	5	0	
0.0813333	-0.00635341	-1.35748	0.000102555	0.0616896	0	5	0	
0.0815	0.00277301	1.36555	0.000108353	0.0615965	0	5	0	
0.0816667	0.00180946	-1.37666	0.000122101	0.0615611	0	5	0	
0.0818333	0.000343664	1.38559	0.000136846	0.0614722	0	5	0	
0.082	-0.00128424	-1.41728	0.000111919	0.0614147	0	5	0	
0.0821667	0.00287473	1.42228	7.52888E-05	0.0612636	0	5	0	
0.0823333	-0.00121006	-1.45045	6.69421E-05	0.0611975	0	5	0	
0.0825	0.00607274	1.46754	8.80304E-05	0.0611583	0	5	0	
0.0826667	-0.00582152	-1.48536	0.000111971	0.0612861	0	5	0	
0.0828333	0.0049776	1.49781	0.000130381	0.0613935	0	5	0	
0.083	-0.00278076	-1.51568	0.000131659	0.0615267	0	5	0	
0.0831667	0.00463092	1.5075	0.000118284	0.0615247	0	5	0	
0.0833333	-0.00452631	-1.53209	0.000113059	0.0615582	0	5	0	
0.0835	0.00350422	1.54987	0.000135073	0.0615325	0	5	0	
0.0836667	-0.000643437	-1.55575	0.000154323	0.0615822	0	5	0	
0.0838333	-0.00144183	1.55717	0.000145314	0.0615814	0	5	0	
0.084	0.00113049	-1.5641	0.000105879	0.0615929	0	5	0	
0.0841667	-3.3832E-05	1.57187	6.73536E-05	0.0614447	0	5	0	
0.0843333	-0.0033531	-1.61605	7.29137E-05	0.06129	0	5	0	
0.0845	0.0078684	1.6211	0.000102246	0.0610621	0	5	0	
0.0846667	-0.00659435	-1.5687	0.000132872	0.0608757	0	5	0	
0.0848333	0.0081604	1.5267	0.00014517	0.0604537	0	5	0	
0.085	-0.00125611	-1.58037	0.000123458	0.0600295	0	5	0	
0.0851667	-0.00497241	1.63825	9.32326E-05	0.0598148	0	5	0	
0.0853333	0.00239507	-1.67577	7.74285E-05	0.0601428	0	5	0	
0.0855	0.00452361	1.66222	0.000109371	0.0605359	0	5	0	
0.0856667	-0.00521218	-1.65795	0.000132368	0.0607914	0	5	0	
0.0858333	0.00556992	1.67204	0.00014173	0.0608796	0	5	0	
0.086	-0.00125985	-1.70861	0.000112204	0.0612787	0	5	0	
0.0861667	0.00331303	1.72155	9.37241E-05	0.0617144	0	5	0	
0.0863333	-0.00548205	-1.75513	7.70214E-05	0.0618788	0	5	0	
0.0865	-0.00117544	1.78201	7.37128E-05	0.0616713	0	5	0	
0.0866667	0.00184159	-1.79743	8.45032E-05	0.0616099	0	5	0	
0.0868333	0.00150473	1.78959	7.62432E-05	0.0617214	0	5	0	
0.087	0.00166529	-1.77804	7.07395E-05	0.0617834	0	5	0	
0.0871667	-0.00413573	1.77888	6.60822E-05	0.0614951	0	5	0	
0.0873333	0.00197374	-1.81185	6.25543E-05	0.0611603	0	5	0	
0.0875	-0.00117183	1.83252	5.9739E-05	0.0609551	0	5	0	
0.0876667	-0.00103727	-1.85216	5.46339E-05	0.0610322	0	5	0	
0.0878333	0.00679497	1.86851	7.04551E-05	0.0610428	0	5	0	
0.088	-0.00565412	-1.89486	9.59515E-05	0.0610765	0	5	0	
0.0881667	0.00639348	1.89339	0.000115138	0.0611198	0	5	0	
0.0883333	-0.00994672	-1.86818	0.00014348	0.0612339	0	5	0	
0.0885	0.0128372	1.87471	0.000167554	0.0610917	0	5	0	
0.0886667	-0.00811452	-1.92013	0.000211275	0.0608425	0	5	0	
0.0888333	-0.00317719	1.95439	0.000263357	0.0607646	0	5	0	
0.089	0.00936164	-1.96872	0.000272948	0.0611238	0	5	0	
0.0891667	-0.00963993	1.9618	0.000245446	0.0614403	0	5	0	
0.0893333	-0.000441188	-1.95307	0.000185461	0.0616029	0	5	0	
0.0895	0.00265238	1.94912	0.000159378	0.0615921	0	5	0	
0.0896667	-0.00409687	-1.94665	0.000144116	0.0616127	0	5	0	
0.0898333	0.00392928	1.9783	0.000126083	0.0614575	0	5	0	
0.09	-0.0083193	-2.01187	0.000110528	0.0611949	0	5	0	
0.0901667	-0.00213967	2.03116	0.00010408	0.0609443	0	5	0	
0.0903333	0.0020169	-2.05252	0.000111227	0.0610897	0	5	0	
0.0905	0.00145451	2.03432	8.97616E-05	0.0613166	0	5	0	
0.0906667	-0.00296679	-2.0038	8.28174E-05	0.0613961	0	5	0	
0.0908333	0.00160639	2.0189	7.25823E-05	0.0608932	0	5	0	
0.091	0.00268661	-2.02883	0.000130014	0.0600609	0	5	0	
0.0911667	-0.0158559	2.06339	0.000159868	0.0594433	0	5	0	
0.0913333	0.00652786	-2.11482	0.000211346	0.0596864	0	5	0	
0.0915	0.000857434	2.13003	0.000181503	0.0604382	0	5	0	
0.0916667	-0.00242538	-2.11805	0.000158194	0.0612177	0	5	0	
0.0918333	0.00523753	2.08822	9.99524E-05	0.0614075	0	5	0	
0.092	-0.0053444	-2.0496	0.000102017	0.0612509	0	5	0	
0.0921667	0.00314344	2.07306	0.000142044	0.0608724	0	5	0	
0.0923333	0.00543401	-2.14759	0.000206975	0.0607477	0	5	0	
0.0925	-0.00791983	2.18464	0.000218466	0.0608182	0	5	0	
0.0926667	0.00180504	-2.18733	0.000184761	0.0611224	0	5	0	
0.0928333	0.00900105	2.19122	0.000163515	0.0612473	0	5	0	
0.093	-0.0126076	-2.20126	0.000167878	0.0612878	0	5	0	
0.0931667	0.013252	2.2149	0.000223615	0.0611118	0	5	0	
0.0933333	-0.00348837	-2.24146	0.000211449	0.0610445	0	5	0	
0.0935	0.00281304	2.26325	0.000211609	0.0611042	0	5	0	
0.0936667	0.00234556	-2.26966	0.000162984	0.0613815	0	5	0	
0.0938333	-0.00290084	2.28029	0.000128613	0.0615315	0	5	0	
0.094	-0.00532793	-2.27614	0.000145643	0.0615071	0	5	0	
0.0941667	0.0134874	2.28912	0.000186194	0.0613573	0	5	0	
0.0943333	-0.0146011	-2.30937	0.000243866	0.061335	0	5	0	
0.0945	0.00748917	2.32642	0.000251314	0.0613626	0	5	0	
0.0946667	-0.000525483	-2.33535	0.000222689	0.061442	0	5	0	
0.0948333	-0.0025238	2.35276	0.000154989	0.0614018	0	5	0	
0.095	-0.00232521	-2.35493	8.90267E-05	0.0614613	0	5	0	
0.0951667	0.00220019	2.35744	6.1558E-05	0.061493	0	5	0	
0.0953333	-0.00341878	-2.37212	5.74353E-05	0.061582	0	5	0	
0.0955	0.00895692	2.37583	8.77359E-05	0.0615059	0	5	0	
0.0956667	-0.0079036	-2.37778	0.000106281	0.0614464	0	5	0	
0.0958333	0.0045038	2.3892	0.000153506	0.061291	0	5	0	
0.096	0.00079688	-2.40208	0.000157778	0.0612933	0	5	0	
0.0961667	-0.00106169	2.40744	0.000119203	0.0612902	0	5	0	
0.0963333	-0.00844037	-2.41828	9.33878E-05	0.0613687	0	5	0	
0.0965	0.0116741	2.42657	0.000113375	0.0613204	0	5	0	
0.0966667	-0.00446554	-2.43866	0.000177982	0.0612622	0	5	0	
0.0968333	-0.000226777	2.46229	0.000202147	0.0611826	0	5	0	
0.097	-0.00216033	-2.48929	0.00014115	0.0613153	0	5	0	
0.0971667	0.000764216	2.4924	8.43422E-05	0.0614804	0	5	0	
0.0973333	-0.00107683	-2.49426	4.28642E-05	0.0616781	0	5	0	
0.0975	-0.00336157	2.49586	3.96561E-05	0.0617044	0	5	0	
0.0976667	-0.00196802	-2.48518	5.78159E-05	0.0616442	0	5	0	
0.0978333	0.00591569	2.49833	0.00010462	0.0614617	0	5	0	
0.098	-0.0157296	-2.51565	0.000157925	0.0612877	0	5	0	
0.0981667	0.00611924	2.53138	0.000212295	0.0611948	0	5	0	
0.0983333	0.00121556	-2.54529	0.000255803	0.0613753	0	5	0	
0.0985	-0.00731504	2.54478	0.000270356	0.0615946	0	5	0	
0.0986667	0.00625767	-2.53876	0.000233328	0.061687	0	5	0	
0.0988333	-0.005045	2.56695	0.000167862	0.0615229	0	5	0	
0.099	0.00185465	-2.58992	0.000115513	0.0613522	0	5	0	
0.0991667	-0.0104252	2.60665	9.99127E-05	0.0614083	0	5	0	
0.0993333	0.00570169	-2.53671	0.000110222	0.0615888	0	5	0	
0.0995	0.00085334	2.44313	0.000159184	0.0613135	0	5	0	
0.0996667	-0.0109635	-2.47342	0.000185684	0.0606707	0	5	0	
0.0998333	0.00583615	2.58255	0.000184588	0.0601031	0	5	0	
0.1	-0.000173709	-2.6274	0.000185475	0.0602002	0	5	0	
0.100167	-0.000352694	2.63198	0.000173626	0.060563	0	5	0	
0.100333	-0.00607032	-2.68514	0.000192607	0.0609641	0	5	0	
0.1005	-0.00160926	2.79085	0.000222924	0.0615667	0	5	0	
0.100667	0.0103143	-2.8992	0.000259096	0.0632222	0	5	0	
0.100833	-0.0072326	2.82279	0.000246564	0.0652142	0	5	0	
0.101	0.00137902	-2.75237	0.000174898	0.0667786	0	5	0	
0.101167	-0.00539878	2.6599	0.0001223	0.0664633	0	5	0	
0.101333	0.00472251	-2.64468	0.000119485	0.0647613	0	5	0	
0.1015	0.000374706	2.65155	0.000113571	0.062603	0	5	0	
0.101667	-0.0042012	-2.70545	0.000149549	0.0610458	0	5	0	
0.101833	0.0125754	2.84278	0.000146397	0.0605871	0	5	0	
0.102	-0.00449159	-3.02831	0.000178417	0.0615314	0	5	0	
0.102167	-0.00143346	2.97293	0.000196782	0.0631331	0	5	0	
0.102333	0.00261978	-2.84485	0.000210635	0.0641858	0	5	0	
0.1025	-0.000170906	2.77418	0.000160761	0.0638128	0	5	0	
0.102667	-0.000473262	-2.75697	8.58665E-05	0.0625585	0	5	0	
0.102833	-0.0015314	2.8042	4.6957E-05	0.0616874	0	5	0	
0.103	0.00511346	-2.81287	4.74361E-05	0.0614681	0	5	0	
0.103167	-0.000805584	2.80467	7.26643E-05	0.0616844	0	5	0	
0.103333	-0.00449355	-2.8131	9.27335E-05	0.0619155	0	5	0	
0.1035	0.00164843	2.8151	0.000105847	0.0618225	0	5	0	
0.103667	0.00253837	-2.79851	8.02332E-05	0.0616244	0	5	0	
0.103833	-0.000557669	2.80625	6.30544E-05	0.0613281	0	5	0	
0.104	-0.00648017	-2.81528	6.11463E-05	0.0612394	0	5	0	
0.104167	0.00244133	2.8247	7.51519E-05	0.0611881	0	5	0	
0.104333	-0.000791843	-2.83715	7.61208E-05	0.0611933	0	5	0	
0.1045	0.000437953	2.85724	7.62713E-05	0.0610848	0	5	0	
0.104667	0.00169809	-2.87722	7.27181E-05	0.0611506	0	5	0	
0.104833	-0.00355335	2.88643	7.90793E-05	0.0613172	0	5	0	
0.105	0.000979815	-2.87942	6.28477E-05	0.0616122	0	5	0	
0.105167	0.00388027	2.88004	8.24569E-05	0.0616711	0	5	0	
0.105333	-0.0068842	-2.88548	8.75117E-05	0.0615295	0	5	0	
0.1055	0.00521477	2.89928	0.000119567	0.0613149	0	5	0	
0.105667	-0.000626735	-2.9011	0.000102293	0.0612552	0	5	0	
0.105833	0.0026107	2.91711	7.26946E-05	0.0613357	0	5	0	
0.106	-0.0033811	-2.92726	6.10841E-05	0.0614329	0	5	0	
0.106167	0.00132188	2.9436	5.04539E-05	0.0614829	0	5	0	
0.106333	-0.00123306	-2.94049	6.24235E-05	0.0614838	0	5	0	
0.1065	0.00220807	2.94756	5.23838E-05	0.0614974	0	5	0	
0.106667	-0.00428742	-2.94524	7.15869E-05	0.0615111	0	5	0	
0.106833	0.00629354	2.95909	8.07722E-05	0.0615363	0	5	0	
0.107	-0.0057946	-2.95835	0.000106957	0.0615001	0	5	0	
0.107167	0.0038713	2.97052	0.000100392	0.0614455	0	5	0	
0.107333	-0.00713256	-2.97327	0.000106682	0.0613724	0	5	0	
0.1075	0.00228677	2.99916	9.59536E-05	0.0613982	0	5	0	
0.107667	0.00191465	-2.99832	9.79371E-05	0.0615127	0	5	0	
0.107833	-0.0021377	3.02152	7.06688E-05	0.0616677	0	5	0	
0.108	-0.00297295	-3.02314	7.19851E-05	0.0617666	0	5	0	
0.108167	0.00471532	3.02141	7.86154E-05	0.0617389	0	5	0	
0.108333	-0.00300028	-3.0109	9.43411E-05	0.0616307	0	5	0	
0.1085	-0.00213213	3.02163	8.62818E-05	0.0614964	0	5	0	
0.108667	-0.00140642	-3.01803	6.6378E-05	0.0614136	0	5	0	
0.108833	0.00740794	3.04044	9.26502E-05	0.0613684	0	5	0	
0.109	-0.00694358	-3.03018	0.00010443	0.0613128	0	5	0	
0.109167	0.00283242	3.04016	0.000132751	0.0612325	0	5	0	
0.109333	-0.00189054	-3.04854	0.000122396	0.0612383	0	5	0	
0.1095	0.00211786	3.06068	9.97297E-05	0.0613023	0	5	0	
0.109667	-0.00235704	-3.05021	6.9803E-05	0.0613928	0	5	0	
0.109833	0.00333714	3.07588	4.97156E-05	0.0614037	0	5	0	
0.11	-0.00336499	-3.08576	6.11015E-05	0.061446	0	5	0	
0.110167	0.004343	3.09591	7.27724E-05	0.0615372	0	5	0	
0.110333	-0.00734265	-3.08675	9.86812E-05	0.0615995	0	5	0	
0.1105	-0.000211415	3.08889	9.46401E-05	0.0615611	0	5	0	
0.110667	0.000252731	-3.08175	7.13957E-05	0.0614568	0	5	0	
0.110833	0.0051222	3.10594	4.34814E-05	0.0613943	0	5	0	
0.111	-0.00701864	-3.10735	7.10753E-05	0.0614215	0	5	0	
0.111167	0.000370098	3.11565	9.21112E-05	0.0614468	0	5	0	
0.111333	-0.00290041	-3.11339	8.52806E-05	0.0614353	0	5	0	
0.1115	0.00229477	3.12654	5.93471E-05	0.061427	0	5	0	
0.111667	-0.00422723	-3.12492	6.04118E-05	0.0614446	0	5	0	
0.111833	0.00382737	3.14065	8.24728E-05	0.0615216	0	5	0	
0.112	-0.00601382	-3.13375	9.28483E-05	0.0615254	0	5	0	
0.112167	0.00167664	3.14612	8.51695E-05	0.0615005	0	5	0	
0.112333	0.000670081	-3.14434	7.84185E-05	0.061461	0	5	0	
0.1125	-0.00262978	3.16165	5.75265E-05	0.0614719	0	5	0	
0.112667	0.00193586	-3.15942	6.57399E-05	0.0614876	0	5	0	
0.112833	0.000638994	3.17471	8.47649E-05	0.0615524	0	5	0	
0.113	-0.0065921	-3.16797	0.000115311	0.0615553	0	5	0	
0.113167	0.0100214	3.17617	0.000144792	0.0615499	0	5	0	
0.113333	-0.00766906	-3.17084	0.000154954	0.0614903	0	5	0	
0.1135	0.00362596	3.18294	0.000151603	0.0614362	0	5	0	
0.113667	-0.00453159	-3.18036	0.000137638	0.0614204	0	5	0	
0.113833	0.00150114	3.18759	0.000113025	0.061447	0	5	0	
0.114	-0.000998828	-3.18016	8.46222E-05	0.0614444	0	5	0	
0.114167	0.00208355	3.18868	5.34127E-05	0.0614076	0	5	0	
0.114333	-0.00362307	-3.18522	5.4732E-05	0.0613455	0	5	0	
0.1145	0.00124997	3.19126	7.27638E-05	0.0613184	0	5	0	
0.114667	-0.00720353	-3.19032	8.86575E-05	0.0613295	0	5	0	
0.114833	0.00170201	3.21075	9.93742E-05	0.0613449	0	5	0	
0.115	-0.00263511	-3.20699	7.79106E-05	0.0614045	0	5	0	
0.115167	0.00317465	3.2134	8.82868E-05	0.0614391	0	5	0	
0.115333	0.00372434	-3.21681	6.52782E-05	0.061454	0	5	0	
0.1155	-0.000280664	3.22052	9.32592E-05	0.0614313	0	5	0	
0.115667	-0.00701523	-3.2295	0.00011159	0.0614442	0	5	0	
0.115833	0.00981082	3.27437	0.00014657	0.0615919	0	5	0	
0.116	-0.00196184	-3.24726	0.000146516	0.0618088	0	5	0	
0.116167	0.00600693	3.2639	0.000117124	0.0618803	0	5	0	
0.116333	-0.00175399	-3.25672	8.35301E-05	0.0618648	0	5	0	
0.1165	0.000957324	3.25385	7.63784E-05	0.0617815	0	5	0	
0.116667	0.00129367	-3.25097	7.41881E-05	0.061797	0	5	0	
0.116833	0.0109453	3.26408	0.000107088	0.0618084	0	5	0	
0.117	-0.0081886	-3.22555	0.000153334	0.0617159	0	5	0	
0.117167	0.00194176	3.23138	0.000153095	0.0614904	0	5	0	
0.117333	-0.000695937	-3.24223	0.000125577	0.061239	0	5	0	
0.1175	-0.000741241	3.25732	5.44591E-05	0.0612114	0	5	0	
0.117667	0.000336957	-3.2429	5.96325E-05	0.0613101	0	5	0	
0.117833	0.00269819	3.25239	7.01875E-05	0.0613926	0	5	0	
0.118	-0.00663208	-3.25419	0.000114919	0.0613275	0	5	0	
0.118167	0.000554327	3.2771	0.000114578	0.0613852	0	5	0	
0.118333	-0.00532809	-3.28584	0.000102107	0.0614696	0	5	0	
0.1185	0.00152148	3.19038	7.21285E-05	0.0614188	0	5	0	
0.118667	0.00201428	-3.00567	5.75263E-05	0.0604266	0	5	0	
0.118833	0.0029777	2.89601	5.39262E-05	0.0585284	0	5	0	
0.119	0.000199025	-2.95642	0.000145494	0.0563322	0	5	0	
0.119167	0.00117724	3.20441	0.000282557	0.0559585	0	5	0	
0.119333	-0.0164089	-3.32334	0.000395564	0.0576301	0	5	0	
0.1195	0.0148819	3.34516	0.000414794	0.0602173	0	5	0	
0.119667	-0.0114313	-3.28004	0.000333995	0.0617332	0	5	0	
0.119833	0.00554918	3.13637	0.000270013	0.0615649	0	5	0	
0.12	0.0153221	-2.99518	0.000185651	0.0599922	0	5	0	
0.120167	-0.0211142	3.06832	0.000254388	0.058539	0	5	0	
0.120333	0.00881011	-3.16762	0.000269564	0.0580327	0	5	0	
0.1205	-0.00409377	3.26212	0.000353714	0.0589635	0	5	0	
0.120667	-0.00667902	-3.27169	0.000310687	0.0601407	0	5	0	
0.120833	0.00793379	3.25376	0.000278766	0.06089	0	5	0	
0.121	-0.00216972	-3.22554	0.000176902	0.060992	0	5	0	
0.121167	-0.00176202	3.25846	8.99649E-05	0.060833	0	5	0	
0.121333	-0.00270358	-3.29264	5.89141E-05	0.0608448	0	5	0	
0.1215	0.00190366	3.31139	6.67349E-05	0.0611922	0	5	0	
0.121667	-0.00365516	-3.28614	8.1172E-05	0.061527	0	5	0	
0.121833	0.00269791	3.28195	0.000103325	0.0616223	0	5	0	
0.122	-0.00590824	-3.28608	0.000107147	0.0615216	0	5	0	
0.122167	0.00291362	3.29541	0.000113185	0.0614782	0	5	0	
0.122333	0.000553517	-3.28341	9.81085E-05	0.0614821	0	5	0	
0.1225	-0.00112941	3.28862	6.33473E-05	0.0615109	0	5	0	
0.122667	-0.0045941	-3.26856	6.77425E-05	0.0614332	0	5	0	
0.122833	0.000250366	3.28312	5.93231E-05	0.0613504	0	5	0	
0.123	0.000623698	-3.27724	6.9332E-05	0.0612652	0	5	0	
0.123167	-0.00111566	3.28432	5.52513E-05	0.0612879	0	5	0	
0.123333	-0.00587208	-3.27661	8.4123E-05	0.0613237	0	5	0	
0.1235	0.00723509	3.28895	0.000113499	0.0613871	0	5	0	
0.123667	-0.00580777	-3.27525	0.000135109	0.0613823	0	5	0	
0.123833	0.000769387	3.29527	0.000108468	0.0614055	0	5	0	
0.124	-0.00334082	-3.27736	8.266E-05	0.0614225	0	5	0	
0.124167	-7.65369E-07	3.29583	5.6876E-05	0.0614721	0	5	0	
0.124333	-0.00114222	-3.29906	5.2202E-05	0.061579	0	5	0	
0.1245	-0.000872256	3.29328	4.55997E-05	0.0616899	0	5	0	
0.124667	-0.000258295	-3.27959	6.05538E-05	0.0616918	0	5	0	
0.124833	0.00594611	3.2777	8.11109E-05	0.0615958	0	5	0	
0.125	-0.00439532	-3.25279	0.000108547	0.0613845	0	5	0	
0.125167	0.000484046	3.26641	8.56709E-05	0.0612617	0	5	0	
0.125333	-0.00408965	-3.24852	6.60137E-05	0.0611689	0	5	0	
0.1255	0.00595898	3.24827	8.48657E-05	0.0611668	0	5	0	
0.125667	-0.00404266	-3.25655	0.000119876	0.0611459	0	5	0	
0.125833	-4.16441E-05	3.27617	0.000115935	0.0611974	0	5	0	
0.126	-0.00157686	-3.26144	6.8317E-05	0.0612856	0	5	0	
0.126167	0.00198783	3.26879	4.08483E-05	0.0613924	0	5	0	
0.126333	0.00106141	-3.25918	3.26185E-05	0.0613992	0	5	0	
0.1265	-0.000490212	3.25756	3.21414E-05	0.0613928	0	5	0	
0.126667	-0.000380695	-3.24515	5.95459E-05	0.0612956	0	5	0	
0.126833	0.00422334	3.24593	9.33126E-05	0.0612219	0	5	0	
0.127	-0.00710902	-3.2208	0.000118869	0.0610592	0	5	0	
0.127167	0.000724947	3.22731	0.000106326	0.0609323	0	5	0	
0.127333	-0.00221588	-3.2261	7.1649E-05	0.0608463	0	5	0	
0.1275	0.00257369	3.22267	6.26395E-05	0.0608739	0	5	0	
0.127667	0.000852752	-3.23018	5.87295E-05	0.0609334	0	5	0	
0.127833	0.000500909	3.24301	7.55586E-05	0.061037	0	5	0	
0.128	0.00087719	-3.2287	7.90723E-05	0.0610633	0	5	0	
0.128167	-0.00204221	3.23788	9.5327E-05	0.0611521	0	5	0	
0.128333	-0.00290983	-3.23835	0.000128786	0.0612023	0	5	0	
0.1285	0.00597271	3.24767	0.000162613	0.0613702	0	5	0	
0.128667	-0.00984152	-3.24228	0.000171231	0.0614956	0	5	0	
0.128833	0.00435438	3.23942	0.00015777	0.0615461	0	5	0	
0.129	0.00308061	-3.21843	0.00015019	0.0614243	0	5	0	
0.129167	-0.00302038	3.21978	0.000134126	0.0612801	0	5	0	
0.129333	0.00323229	-3.20839	0.000121627	0.0611568	0	5	0	
0.1295	-0.000754931	3.20451	0.000107411	0.061133	0	5	0	
0.129667	-0.00184031	-3.19777	0.000119549	0.0611132	0	5	0	
0.129833	0.00611615	3.22011	0.000146263	0.0611776	0	5	0	
0.13	-0.00883652	-3.21299	0.000156052	0.061277	0	5	0	
0.130167	0.00549847	3.21775	0.00015052	0.0614199	0	5	0	
0.130333	0.00223851	-3.20523	0.00011377	0.0614666	0	5	0	
0.1305	-0.00352601	3.20265	9.3545E-05	0.0614393	0	5	0	
0.130667	-0.000227062	-3.1949	6.04173E-05	0.0614143	0	5	0	
0.130833	0.00234721	3.19581	6.62108E-05	0.0613863	0	5	0	
0.131	-0.00137468	-3.17352	5.84669E-05	0.0613668	0	5	0	
0.131167	-0.000394282	3.18043	5.50541E-05	0.0613012	0	5	0	
0.131333	0.000979766	-3.17942	4.92568E-05	0.0612958	0	5	0	
0.1315	0.00467046	3.17887	6.78814E-05	0.061328	0	5	0	
0.131667	-0.00646353	-3.17074	0.000104455	0.0613786	0	5	0	
0.131833	0.00497563	3.16275	0.000116974	0.0613455	0	5	0	
0.132	-0.000549357	-3.15423	0.000102307	0.0612782	0	5	0	
0.132167	-0.000652691	3.16678	7.73292E-05	0.0613049	0	5	0	
0.132333	0.00397249	-3.15717	6.25846E-05	0.0613855	0	5	0	
0.1325	-0.00101381	3.1397	6.31887E-05	0.0614176	0	5	0	
0.132667	0.00210801	-3.15152	7.9797E-05	0.0614314	0	5	0	
0.132833	0.00205024	3.21115	8.98266E-05	0.0617957	0	5	0	
0.133	-0.000418129	-3.18003	9.68449E-05	0.0621792	0	5	0	
0.133167	0.00452782	3.15083	8.4263E-05	0.0623207	0	5	0	
0.133333	-0.00114156	-3.11471	7.3479E-05	0.0618849	0	5	0	
0.1335	0.00329583	3.10459	5.93566E-05	0.0614407	0	5	0	
0.133667	0.00364198	-3.09617	5.4353E-05	0.0611135	0	5	0	
0.133833	-0.00193177	3.08589	6.11088E-05	0.0610291	0	5	0	
0.134	0.00283258	-3.04557	6.59456E-05	0.0609034	0	5	0	
0.134167	0.00622103	3.09037	0.000100068	0.0608896	0	5	0	
0.134333	-0.00628313	-3.10672	0.000128916	0.0609873	0	5	0	
0.1345	0.00688725	3.09491	0.00014095	0.0612251	0	5	0	
0.134667	0.00107785	-3.09458	0.000117201	0.0613533	0	5	0	
0.134833	0.00254326	3.08727	8.44182E-05	0.0614079	0	5	0	
0.135	-0.00185398	-3.07117	8.19034E-05	0.061383	0	5	0	
0.135167	0.00128049	3.08145	6.53E-05	0.0614429	0	5	0	
0.135333	0.00383936	-3.07682	7.14162E-05	0.06146	0	5	0	
0.1355	-0.00644105	3.07535	8.35755E-05	0.0615261	0	5	0	
0.135667	0.000810883	-3.07417	9.58955E-05	0.0615961	0	5	0	
0.135833	-0.0101086	3.072	9.8867E-05	0.0616141	0	5	0	
0.136	0.0175729	-3.05912	0.000147302	0.0615628	0	5	0	
0.136167	0.00174319	3.03023	0.000251173	0.0614233	0	5	0	
0.136333	-0.0140549	-3.00483	0.000350371	0.0611819	0	5	0	
0.1365	0.0130542	3.00063	0.000315246	0.0610183	0	5	0	
0.136667	-0.00840657	-3.00874	0.000310854	0.0609921	0	5	0	
0.136833	-0.00248995	3.0302	0.000252503	0.0612082	0	5	0	
0.137	0.00393692	-3.04184	0.000260844	0.0615468	0	5	0	
0.137167	-0.00351338	3.02721	0.000206194	0.0618036	0	5	0	
0.137333	0.00730956	-3.01654	0.000164171	0.0618308	0	5	0	
0.1375	0.00102969	2.99316	0.000146098	0.0616521	0	5	0	
0.137667	-0.00613652	-2.99116	0.000142151	0.0614394	0	5	0	
0.137833	0.00474769	2.98349	0.000154561	0.0614159	0	5	0	
0.138	-0.00317636	-2.966	0.000132449	0.0613963	0	5	0	
0.138167	-0.0022076	2.95583	0.000104816	0.0613329	0	5	0	
0.138333	-0.00428551	-2.94863	0.000113865	0.061167	0	5	0	
0.1385	0.0050443	2.93861	0.000124696	0.0610979	0	5	0	
0.138667	0.00362474	-2.93997	0.000109263	0.0611276	0	5	0	
0.138833	-0.00272682	2.92883	9.01467E-05	0.0612341	0	5	0	
0.139	-0.00101172	-2.92166	9.40997E-05	0.0612522	0	5	0	
0.139167	0.000120746	2.93207	0.000126057	0.0612991	0	5	0	
0.139333	-0.00535443	-2.92467	0.00012027	0.0613258	0	5	0	
0.1395	0.00244926	2.90834	0.000106025	0.0614008	0	5	0	
0.139667	0.00174213	-2.90659	6.67189E-05	0.0613885	0	5	0	
0.139833	0.00105139	2.90777	6.10399E-05	0.0614476	0	5	0	
0.14	0.00243671	-2.89407	4.92955E-05	0.0614562	0	5	0	
0.140167	-0.00291774	2.88511	7.67557E-05	0.0615104	0	5	0	
0.140333	-0.00315464	-2.86928	9.70248E-05	0.0613884	0	5	0	
0.1405	0.00272861	2.86115	0.000125524	0.0612984	0	5	0	
0.140667	-0.00497171	-2.8556	0.000115057	0.0611488	0	5	0	
0.140833	0.00476901	2.84661	0.000115862	0.0611063	0	5	0	
0.141	-0.00132975	-2.8309	0.000109083	0.0610321	0	5	0	
0.141167	0.000480479	2.83248	9.51786E-05	0.0610704	0	5	0	
0.141333	-0.00359402	-2.82522	8.17567E-05	0.061032	0	5	0	
0.1415	-0.000678337	2.82443	7.50605E-05	0.0611064	0	5	0	
0.141667	-0.00657379	-2.82678	9.76152E-05	0.0611802	0	5	0	
0.141833	-0.00110578	2.82454	8.90532E-05	0.0613489	0	5	0	
0.142	0.00851935	-2.81389	0.000107447	0.061418	0	5	0	
0.142167	-0.0111782	2.80705	0.000132613	0.0614375	0	5	0	
0.142333	0.000443004	-2.7967	0.000215062	0.0613844	0	5	0	
0.1425	0.00419665	2.78375	0.000270572	0.0614238	0	5	0	
0.142667	-0.00803274	-2.76824	0.00024593	0.0614163	0	5	0	
0.142833	-0.00191945	2.75857	0.000170277	0.0614088	0	5	0	
0.143	-0.000181122	-2.74974	8.18478E-05	0.0613352	0	5	0	
0.143167	0.000654984	2.74918	5.06351E-05	0.0613388	0	5	0	
0.143333	0.00368891	-2.75376	3.38933E-05	0.0614062	0	5	0	
0.1435	-0.00270551	2.72905	4.19528E-05	0.0615517	0	5	0	
0.143667	-0.00593152	-2.71767	8.73416E-05	0.0615632	0	5	0	
0.143833	0.00689132	2.71191	0.000130155	0.0615506	0	5	0	
0.144	-0.0018013	-2.70393	0.000133507	0.0614367	0	5	0	
0.144167	-0.00364793	2.70663	0.000121158	0.0614368	0	5	0	
0.144333	0.00267414	-2.68917	9.00057E-05	0.0613654	0	5	0	
0.1445	-0.00236563	2.65113	8.85707E-05	0.0612854	0	5	0	
0.144667	0.00179016	-2.64352	8.51223E-05	0.0611108	0	5	0	
0.144833	0.00150149	2.63946	0.000106727	0.0611058	0	5	0	
0.145	-0.00464529	-2.63273	0.000111837	0.0611638	0	5	0	
0.145167	0.00173489	2.63098	8.71306E-05	0.0613671	0	5	0	
0.145333	-0.00141027	-2.63812	7.7698E-05	0.0614487	0	5	0	
0.1455	-0.00483432	2.64547	6.17072E-05	0.0616081	0	5	0	
0.145667	0.000644479	-2.61917	8.01951E-05	0.0615997	0	5	0	
0.145833	0.00143647	2.54868	8.61121E-05	0.0614229	0	5	0	
0.146	-0.00152303	-2.51536	0.000116476	0.06121	0	5	0	
0.146167	0.00685116	2.5502	0.000128208	0.0617563	0	5	0	
0.146333	-0.0100499	-2.63995	0.000144633	0.0627026	0	5	0	
0.1465	-0.000724165	2.6363	0.000145932	0.0634024	0	5	0	
0.146667	0.00345513	-2.4904	0.000153046	0.0627588	0	5	0	
0.146833	-0.00823224	2.46002	0.000139915	0.0614159	0	5	0	
0.147	0.00152593	-2.43297	0.000174305	0.0603506	0	5	0	
0.147167	0.00814114	2.37354	0.000206908	0.0598878	0	5	0	
0.147333	-0.00952735	-2.37431	0.0002377	0.0597281	0	5	0	
0.1475	0.00817977	2.44214	0.00020643	0.0599972	0	5	0	
0.147667	-0.00295688	-2.4789	0.000168184	0.0606278	0	5	0	
0.147833	-0.00960217	2.50809	0.000124846	0.061347	0	5	0	
0.148	0.00746643	-2.44946	0.000131622	0.0613626	0	5	0	
0.148167	-0.000695227	2.42876	0.00017543	0.0609949	0	5	0	
0.148333	-0.0040626	-2.44661	0.000253051	0.0608616	0	5	0	
0.1485	0.00991728	2.45479	0.000247811	0.0611307	0	5	0	
0.148667	0.00170382	-2.42347	0.00020387	0.0613385	0	5	0	
0.148833	-0.00641739	2.37012	0.00014106	0.0612075	0	5	0	
0.149	-0.000297419	-2.36702	0.00011599	0.0607474	0	5	0	
0.149167	-0.00210952	2.40406	0.00010647	0.0607437	0	5	0	
0.149333	0.0031681	-2.4233	0.00010397	0.061032	0	5	0	
0.1495	0.00391462	2.40345	0.00012299	0.0613756	0	5	0	
0.149667	-0.00142876	-2.36296	0.000123116	0.0612206	0	5	0	
0.149833	0.00064526	2.3363	0.000100857	0.0610627	0	5	0	
0.15	0.00470468	-2.31352	6.48702E-05	0.0613443	0	5	0	
0.150167	-0.00349867	2.36947	7.24008E-05	0.0618659	0	5	0	
0.150333	-0.00220813	-2.37842	9.20538E-05	0.062146	0	5	0	
0.1505	0.002144	2.34617	0.000113588	0.061871	0	5	0	
0.150667	-0.00178935	-2.33166	8.24238E-05	0.0614904	0	5	0	
0.150833	0.000234041	2.28882	6.91216E-05	0.0612272	0	5	0	
0.151	0.00643748	-2.21201	9.9059E-05	0.060893	0	5	0	
0.151167	0.00436928	2.22541	0.000166262	0.0604451	0	5	0	
0.151333	-0.00554241	-2.26974	0.000214428	0.060359	0	5	0	
0.1515	0.00538578	2.28775	0.000185018	0.0608007	0	5	0	
0.151667	-0.00589169	-2.27751	0.00014257	0.061377	0	5	0	
0.151833	0.00111839	2.24728	0.000100441	0.0615071	0	5	0	
0.152	0.00751003	-2.22992	0.000107321	0.0612542	0	5	0	
0.152167	-0.00823329	2.21688	0.000133762	0.0611446	0	5	0	
0.152333	0.0125121	-2.21752	0.000168098	0.0611168	0	5	0	
0.1525	0.00101555	2.19706	0.000209916	0.0612253	0	5	0	
0.152667	-0.00749936	-2.17891	0.000230225	0.0611809	0	5	0	
0.152833	0.00356397	2.16411	0.000212827	0.0611798	0	5	0	
0.153	5.45111E-05	-2.15935	0.000136504	0.0611443	0	5	0	
0.153167	0.000899442	2.16123	7.56158E-05	0.0612598	0	5	0	
0.153333	-0.000174543	-2.16226	6.93146E-05	0.0613218	0	5	0	
0.1535	0.00256045	2.14417	8.27451E-05	0.0614158	0	5	0	
0.153667	0.00024268	-2.1388	8.49598E-05	0.0614034	0	5	0	
0.153833	-0.000159577	2.11392	7.04994E-05	0.0613751	0	5	0	
0.154	-0.00290802	-2.08968	5.90484E-05	0.061124	0	5	0	
0.154167	-0.0012905	2.06621	5.13703E-05	0.060963	0	5	0	
0.154333	0.000287127	-2.07285	2.79188E-05	0.0609275	0	5	0	
0.1545	0.00363356	2.06615	4.70638E-05	0.0612102	0	5	0	
0.154667	-0.00233261	-2.0588	5.50895E-05	0.0613487	0	5	0	
0.154833	-0.00309146	2.04618	7.95911E-05	0.0614049	0	5	0	
0.155	0.00446828	-2.03708	7.10496E-05	0.0612707	0	5	0	
0.155167	-0.00534365	2.01445	9.91732E-05	0.0612123	0	5	0	
0.155333	0.000253292	-1.99548	0.000126862	0.0610504	0	5	0	
0.1555	-0.00338905	1.9772	0.000167125	0.0610332	0	5	0	
0.155667	-0.00195451	-1.98508	0.000184951	0.061049	0	5	0	
0.155833	0.00716101	1.96651	0.000197638	0.061209	0	5	0	
0.156	-0.00716803	-1.94281	0.000181298	0.0612447	0	5	0	
0.156167	-0.00178277	1.9117	0.000140293	0.0614097	0	5	0	
0.156333	0.000928412	-1.94006	8.62196E-05	0.0614808	0	5	0	
0.1565	-0.00493442	1.92444	8.11402E-05	0.0615762	0	5	0	
0.156667	-0.00305653	-1.91216	9.86322E-05	0.0613576	0	5	0	
0.156833	0.0120518	1.90796	0.000151604	0.0612494	0	5	0	
0.157	-0.0125018	-1.88936	0.000177102	0.0611869	0	5	0	
0.157167	-0.0055272	1.83758	0.000305714	0.0611971	0	5	0	
0.157333	0.0285115	-1.8577	0.000527417	0.0609587	0	5	0	
0.1575	-0.0425537	1.86155	0.000761756	0.0608847	0	5	0	
0.157667	0.0391591	-1.86673	0.000829951	0.0608271	0	5	0	
0.157833	-0.0137233	1.83321	0.00077262	0.0608821	0	5	0	
0.158	-0.0147281	-1.78053	0.000796368	0.0606975	0	5	0	
0.158167	0.0383998	1.7678	0.000788558	0.060698	0	5	0	
0.158333	-0.0416886	-1.78948	0.000786684	0.0609382	0	5	0	
0.1585	0.031194	1.80382	0.000753292	0.0613872	0	5	0	
0.158667	-0.00463755	-1.80553	0.00079604	0.0616948	0	5	0	
0.158833	-0.0157615	1.79305	0.000776568	0.0617986	0	5	0	
0.159	0.0199482	-1.76166	0.000590021	0.0616268	0	5	0	
0.159167	-0.0104991	1.73337	0.000429185	0.0613786	0	5	0	
0.159333	0.000173111	-1.72161	0.000320705	0.0611062	0	5	0	
0.1595	0.00213976	1.70944	0.000282293	0.0610306	0	5	0	
0.159667	-0.00757864	-1.69763	0.000216637	0.0610951	0	5	0	
0.159833	0.00993217	1.68523	0.000164957	0.0612111	0	5	0	
0.16	-0.0111598	-1.65981	0.000331676	0.0611281	0	5	0	
0.160167	-0.00225198	1.64029	0.000610093	0.060899	0	5	0	
0.160333	0.0189033	-1.63063	0.000706756	0.0606596	0	5	0	
0.1605	-0.0159247	1.59051	0.000609512	0.0606441	0	5	0	
0.160667	-0.00147241	-1.58004	0.000377516	0.0607645	0	5	0	
0.160833	0.00720874	1.57758	0.000337917	0.0609932	0	5	0	
0.161	-0.0373154	-1.59692	0.000356192	0.0611886	0	5	0	
0.161167	0.0525703	1.60765	0.000577749	0.0614456	0	5	0	
0.161333	-0.0189843	-1.61504	0.000700794	0.061534	0	5	0	
0.1615	-0.00698572	1.56555	0.000691848	0.0614433	0	5	0	
0.161667	0.00640914	-1.54466	0.000430737	0.0611125	0	5	0	
0.161833	0.00116257	1.52292	0.000259163	0.060866	0	5	0	
0.162	-0.004344	-1.50753	0.000141572	0.0607426	0	5	0	
0.162167	-0.00274036	1.48125	0.000122821	0.060868	0	5	0	
0.162333	0.00762534	-1.48722	9.80977E-05	0.0610407	0	5	0	
0.1625	-0.00153469	1.48225	0.000117603	0.0612374	0	5	0	
0.162667	-0.00349237	-1.4759	0.000126412	0.0611822	0	5	0	
0.162833	0.00401106	1.46654	0.000117717	0.060989	0	5	0	
0.163	0.00234078	-1.41717	8.95394E-05	0.0610005	0	5	0	
0.163167	-0.0040689	1.38071	7.67194E-05	0.0613013	0	5	0	
0.163333	-0.00444353	-1.40191	0.000111681	0.0616865	0	5	0	
0.1635	0.00904172	1.41054	0.000154974	0.0618351	0	5	0	
0.163667	-0.00487155	-1.41789	0.000152696	0.0618234	0	5	0	
0.163833	0.00349463	1.41405	0.000129861	0.0617687	0	5	0	
0.164	-0.000200531	-1.35425	9.83993E-05	0.0616234	0	5	0	
0.164167	-0.0055621	1.28717	8.96928E-05	0.0612508	0	5	0	
0.164333	0.00796161	-1.28037	9.63177E-05	0.0608264	0	5	0	
0.1645	-0.00226017	1.26982	0.000151457	0.0606548	0	5	0	
0.164667	-0.00237923	-1.27934	0.000222235	0.0608628	0	5	0	
0.164833	0.00642745	1.29077	0.000227299	0.0612214	0	5	0	
0.165	-0.00402564	-1.27743	0.000187856	0.0614432	0	5	0	
0.165167	-0.00188639	1.25446	0.000119101	0.0615159	0	5	0	
0.165333	0.00213769	-1.25733	9.10149E-05	0.0614459	0	5	0	
0.1655	-0.000561096	1.23429	5.37909E-05	0.0613177	0	5	0	
0.165667	0.00116022	-1.22245	4.03555E-05	0.0611826	0	5	0	
0.165833	0.00113762	1.19432	3.53921E-05	0.0611569	0	5	0	
0.166	-0.00175559	-1.15973	4.41438E-05	0.0611882	0	5	0	
0.166167	-0.00418587	1.1365	4.76237E-05	0.0613004	0	5	0	
0.166333	0.00412182	-1.14045	5.67609E-05	0.0614102	0	5	0	
0.1665	-0.00544832	1.11151	8.7065E-05	0.061515	0	5	0	
0.166667	0.00297627	-1.10486	0.000132258	0.0615064	0	5	0	
0.166833	-0.000450388	1.09485	0.00017209	0.0614738	0	5	0	
0.167	-0.00484791	-1.08494	0.000164249	0.0614152	0	5	0	
0.167167	0.00532964	1.06461	0.000139103	0.0613771	0	5	0	
0.167333	0.0023284	-1.06028	0.000107527	0.0612013	0	5	0	
0.1675	-0.00792333	1.03947	0.000121901	0.0609345	0	5	0	
0.167667	0.00776031	-1.04004	0.000128991	0.0606613	0	5	0	
0.167833	-0.00453793	1.02553	0.000152139	0.0606635	0	5	0	
0.168	-0.00464348	-1.00967	0.000154631	0.0608935	0	5	0	
0.168167	0.00522743	1.01322	0.000155976	0.0611888	0	5	0	
0.168333	-0.00237215	-1.00848	0.000122341	0.0613211	0	5	0	
0.1685	0.00293242	0.964631	8.96632E-05	0.0613382	0	5	0	
0.168667	0.00210032	-0.953111	7.04032E-05	0.0613162	0	5	0	
0.168833	-0.00693879	0.933118	6.47674E-05	0.0613276	0	5	0	
0.169	0.00181484	-0.908897	0.000109723	0.061319	0	5	0	
0.169167	0.00672582	0.898035	0.000183042	0.0613969	0	5	0	
0.169333	-0.0116421	-0.900996	0.000221416	0.0615494	0	5	0	
0.1695	0.00392836	0.869842	0.000214612	0.0617181	0	5	0	
0.169667	0.00443466	-0.875361	0.000155086	0.0616848	0	5	0	
0.169833	-0.00412695	0.875685	0.000115725	0.0614848	0	5	0	
0.17	0.00324726	-0.860383	0.000104109	0.0612094	0	5	0	
0.170167	-0.00220252	0.832017	0.000106849	0.0610101	0	5	0	
0.170333	0.00127293	-0.821226	0.000110702	0.0608457	0	5	0	
0.1705	-0.00384433	0.788326	9.56549E-05	0.0607232	0	5	0	
0.170667	0.00162329	-0.770455	9.38915E-05	0.0606696	0	5	0	
0.170833	-0.000597241	0.761836	9.61534E-05	0.0608677	0	5	0	
0.171	0.00429829	-0.749991	9.04747E-05	0.0613952	0	5	0	
0.171167	-0.00199975	0.788289	6.89051E-05	0.0619428	0	5	0	
0.171333	0.00342677	-0.804078	8.12933E-05	0.0620626	0	5	0	
0.1715	0.00376621	0.759764	9.80429E-05	0.0616744	0	5	0	
0.171667	-0.00107569	-0.744586	0.000107755	0.0612061	0	5	0	
0.171833	-0.00306243	0.706013	8.06705E-05	0.0609558	0	5	0	
0.172	0.00377556	-0.659301	6.94151E-05	0.0607775	0	5	0	
0.172167	0.00196766	0.659188	6.46647E-05	0.0606782	0	5	0	
0.172333	0.00134057	-0.683233	8.18467E-05	0.0608466	0	5	0	
0.1725	-0.000529782	0.675746	6.63466E-05	0.0612969	0	5	0	
0.172667	8.63009E-05	-0.679061	7.92877E-05	0.0616334	0	5	0	
0.172833	0.00172505	0.638719	9.60986E-05	0.0616321	0	5	0	
0.173	0.00261427	-0.617414	9.52555E-05	0.0614485	0	5	0	
0.173167	-0.00532284	0.587822	9.64422E-05	0.0614613	0	5	0	
0.173333	0.00672997	-0.587576	8.39586E-05	0.0615749	0	5	0	
0.1735	-0.00621987	0.561279	0.000137372	0.0616697	0	5	0	
0.173667	-0.00102832	-0.562599	0.000174298	0.0616429	0	5	0	
0.173833	0.00272635	0.55104	0.000199625	0.0615965	0	5	0	
0.174	-0.00231661	-0.558584	0.000165715	0.061478	0	5	0	
0.174167	0.00552272	0.532606	0.000114058	0.0612462	0	5	0	
0.174333	0.00432697	-0.511632	0.000118385	0.0609142	0	5	0	
0.1745	-0.0208903	0.478048	0.000161587	0.0607183	0	5	0	
0.174667	0.0230811	-0.477792	0.000281527	0.0607208	0	5	0	
0.174833	-0.00930372	0.464696	0.000344157	0.0608712	0	5	0	
0.175	-0.00214925	-0.453299	0.000323121	0.0610674	0	5	0	
0.175167	0.00631391	0.420924	0.000224626	0.0612935	0	5	0	
0.175333	-0.00362379	-0.417267	0.000144618	0.0615065	0	5	0	
0.1755	-0.00345408	0.387259	0.000123659	0.061699	0	5	0	
0.175667	0.0129553	-0.386948	0.000167443	0.0617767	0	5	0	
0.175833	-0.00829002	0.357192	0.000221776	0.0616865	0	5	0	
0.176	0.00150912	-0.299588	0.00019788	0.0614971	0	5	0	
0.176167	-0.000239271	0.265962	0.00014712	0.0614175	0	5	0	
0.176333	0.00105472	-0.32928	8.51022E-05	0.0615321	0	5	0	
0.1765	-0.00171845	0.308633	9.74377E-05	0.0615972	0	5	0	
0.176667	0.00344368	-0.286831	7.35769E-05	0.0614072	0	5	0	
0.176833	-0.00422897	0.282252	7.51849E-05	0.0612106	0	5	0	
0.177	0.00652076	-0.265348	6.93243E-05	0.0610541	0	5	0	
0.177167	-0.00571577	0.236061	0.00011038	0.0607076	0	5	0	
0.177333	0.00207496	-0.229034	0.000105166	0.0602906	0	5	0	
0.1775	-0.00103623	0.192007	0.000122001	0.0603454	0	5	0	
0.177667	0.000452662	-0.21847	9.27234E-05	0.0609314	0	5	0	
0.177833	-0.000245605	0.22238	8.22699E-05	0.0614051	0	5	0	
0.178	0.00296521	-0.207191	6.78429E-05	0.0612922	0	5	0	
0.178167	-0.00243515	0.192785	7.35727E-05	0.0610017	0	5	0	
0.178333	0.00164662	-0.167032	6.7416E-05	0.0609599	0	5	0	
0.1785	-0.00120563	0.141561	6.47558E-05	0.0611242	0	5	0	
0.178667	0.00313982	-0.130197	5.86675E-05	0.0612621	0	5	0	
0.178833	-0.00405798	0.123195	7.74406E-05	0.0613222	0	5	0	
0.179	0.00663375	-0.139166	9.07536E-05	0.0614237	0	5	0	
0.179167	-0.00362639	0.126031	0.000101357	0.0615782	0	5	0	
0.179333	0.00508575	-0.112837	0.000120853	0.0616204	0	5	0	
0.1795	-0.00122877	0.0883828	0.000118465	0.0614652	0	5	0	
0.179667	0.00116198	-0.0726469	0.000100605	0.0612082	0	5	0	
0.179833	0.00305195	0.0586504	7.32681E-05	0.0609986	0	5	0	
0.18	0.00124576	-0.0438563	5.9388E-05	0.0609249	0	5	0	
0.180167	-0.00269173	0.0175173	6.95723E-05	0.0609575	0	5	0	
0.180333	0.00693887	-0.0141868	7.14504E-05	0.0610445	0	5	0	
0.1805	0.0010692	-0.011428	8.94088E-05	0.0612038	0	5	0	
0.180667	-0.00435897	0.0269949	0.000100045	0.0614425	0	5	0	
0.180833	0.00128773	-0.0371309	9.53278E-05	0.0616732	0	5	0	
0.181	0.00266215	0.041385	8.19093E-05	0.0617871	0	5	0	
0.181167	0.00127324	-0.0703649	7.58853E-05	0.0617408	0	5	0	
0.181333	0.00805431	0.0851936	7.86894E-05	0.0616011	0	5	0	
0.1815	-0.00605949	-0.113691	0.000106438	0.0614378	0	5	0	
0.181667	0.00277166	0.12788	0.00013821	0.061257	0	5	0	
0.181833	0.000940782	-0.136934	0.000163587	0.0610954	0	5	0	
0.182	-0.00298972	0.158824	0.000134919	0.06102	0	5	0	
0.182167	0.00196328	-0.180396	9.81214E-05	0.0610557	0	5	0	
0.182333	-0.000308949	0.190771	5.9544E-05	0.0611537	0	5	0	
0.1825	0.000504363	-0.198716	4.79632E-05	0.061184	0	5	0	
0.182667	0.00328168	0.199134	4.10347E-05	0.0611439	0	5	0	
0.182833	0.000949032	-0.226684	4.49146E-05	0.0611625	0	5	0	
0.183	0.00210204	0.231781	5.36154E-05	0.06125	0	5	0	
0.183167	-0.00490039	-0.217478	5.48993E-05	0.0613247	0	5	0	
0.183333	0.00139413	0.231664	6.58215E-05	0.0612927	0	5	0	
0.1835	-0.00409307	-0.250568	8.35464E-05	0.0611653	0	5	0	
0.183667	0.00908065	0.252995	0.000118495	0.0610217	0	5	0	
0.183833	-0.00114455	-0.29072	0.000121544	0.0609102	0	5	0	
0.184	-0.000556355	0.308942	0.00014959	0.0608498	0	5	0	
0.184167	0.00335715	-0.323727	0.000102143	0.0609294	0	5	0	
0.184333	0.00871655	0.341232	0.000160228	0.0611296	0	5	0	
0.1845	-0.0155591	-0.346456	0.000213794	0.0613486	0	5	0	
0.184667	-0.00114548	0.34199	0.000302246	0.061467	0	5	0	
0.184833	0.00875614	-0.381212	0.000344913	0.061489	0	5	0	
0.185	0.00694114	0.38694	0.000422859	0.0614271	0	5	0	
0.185167	-0.0169915	-0.401757	0.000523325	0.0613079	0	5	0	
0.185333	0.0327528	0.425586	0.000547647	0.0611135	0	5	0	
0.1855	-0.0345941	-0.429504	0.000577636	0.0609185	0	5	0	
0.185667	0.0033	0.447849	0.000542298	0.0607905	0	5	0	
0.185833	0.0238716	-0.491275	0.000615935	0.0607532	0	5	0	
0.186	-0.0348611	0.501146	0.000582096	0.0608588	0	5	0	
0.186167	0.0246502	-0.523776	0.000601539	0.0611664	0	5	0	
0.186333	-0.0015024	0.517423	0.000548931	0.061534	0	5	0	
0.1865	-0.0103946	-0.487696	0.000583442	0.0617536	0	5	0	
0.186667	0.0183056	0.47688	0.000595377	0.0616766	0	5	0	
0.186833	-0.0143113	-0.498103	0.000529388	0.0613783	0	5	0	
0.187	-0.00188118	0.517625	0.000369427	0.0609656	0	5	0	
0.187167	0.0103859	-0.57038	0.000231805	0.0605911	0	5	0	
0.187333	0.00241102	0.587494	0.000153809	0.0604352	0	5	0	
0.1875	-0.00852375	-0.592585	0.000144008	0.0606261	0	5	0	
0.187667	0.0134407	0.606004	0.000153491	0.0609326	0	5	0	
0.187833	-0.00737339	-0.639563	0.000219993	0.0611769	0	5	0	
0.188	0.00142055	0.650839	0.000246452	0.0613538	0	5	0	
0.188167	0.00171827	-0.663329	0.00023837	0.0615772	0	5	0	
0.188333	0.00364587	0.663297	0.000182383	0.0617396	0	5	0	
0.1885	-0.00371747	-0.684574	0.000140295	0.0618324	0	5	0	
0.188667	0.00194329	0.64969	0.000119106	0.0618694	0	5	0	
0.188833	0.00232873	-0.686035	9.31264E-05	0.062007	0	5	0	
0.189	0.000897567	0.694539	6.27969E-05	0.0618971	0	5	0	
0.189167	-0.000610262	-0.727841	3.44845E-05	0.061535	0	5	0	
0.189333	0.0036768	0.737145	3.62154E-05	0.0610812	0	5	0	
0.1895	-0.00536134	-0.760974	6.30081E-05	0.0609523	0	5	0	
0.189667	0.0050809	0.766564	0.000101386	0.0610455	0	5	0	
0.189833	0.00174451	-0.838004	9.8719E-05	0.0612939	0	5	0	
0.19	0.00416547	0.814046	7.99024E-05	0.0614426	0	5	0	
0.190167	-0.00359768	-0.824906	6.53792E-05	0.061664	0	5	0	
0.190333	0.00619591	0.816314	8.69877E-05	0.0617437	0	5	0	
0.1905	-0.00142894	-0.823509	0.000118928	0.0617209	0	5	0	
0.190667	0.00160019	0.830839	0.00010253	0.0614959	0	5	0	
0.190833	-0.00236172	-0.868621	8.92668E-05	0.0612682	0	5	0	
0.191	0.00485502	0.878363	7.65226E-05	0.0611336	0	5	0	
0.191167	0.00214309	-0.885784	0.000101929	0.0611816	0	5	0	
0.191333	0.00244867	0.888931	9.22415E-05	0.061271	0	5	0	
0.1915	-0.00502345	-0.900454	9.3303E-05	0.0613029	0	5	0	
0.191667	-6.12981E-06	0.916125	7.55388E-05	0.061183	0	5	0	
0.191833	-0.00223448	-0.950842	8.20076E-05	0.0610222	0	5	0	
0.192	0.0095244	0.962172	9.80514E-05	0.0609017	0	5	0	
0.192167	-0.0163941	-0.990157	0.000145774	0.0610016	0	5	0	
0.192333	0.00807537	1.00003	0.000235095	0.0612935	0	5	0	
0.1925	0.00718222	-1.00261	0.000298329	0.0617188	0	5	0	
0.192667	-0.0105917	0.988893	0.000288362	0.0619119	0	5	0	
0.192833	0.00289933	-1.00594	0.00024146	0.061781	0	5	0	
0.193	0.00417725	1.03128	0.000228001	0.0614004	0	5	0	
0.193167	-0.0110793	-1.08175	0.000256046	0.0611644	0	5	0	
0.193333	0.0169494	1.09099	0.000284861	0.0611327	0	5	0	
0.1935	-0.0109774	-1.09337	0.000266912	0.061309	0	5	0	
0.193667	0.0013623	1.08341	0.00026207	0.0614113	0	5	0	
0.193833	0.00809155	-1.10034	0.000240174	0.0614685	0	5	0	
0.194	-0.00375372	1.10856	0.000201686	0.0613247	0	5	0	
0.194167	0.00243957	-1.16969	0.000137278	0.0610837	0	5	0	
0.194333	0.00643842	1.18636	0.000102674	0.0607483	0	5	0	
0.1945	-0.00949711	-1.19619	0.000112289	0.0608318	0	5	0	
0.194667	0.006283	1.1821	0.000140744	0.0612611	0	5	0	
0.194833	-0.000846113	-1.18976	0.000166097	0.0617722	0	5	0	
0.195	0.00122078	1.18345	0.000163247	0.0619059	0	5	0	
0.195167	0.000785547	-1.2025	0.00012477	0.0618166	0	5	0	
0.195333	0.00487644	1.20379	8.90627E-05	0.0615154	0	5	0	
0.1955	-0.00574249	-1.26237	8.37764E-05	0.0612121	0	5	0	
0.195667	0.00425211	1.28104	0.000103672	0.0609854	0	5	0	
0.195833	-0.00461387	-1.28741	0.000110028	0.0611192	0	5	0	
0.196	0.0038073	1.28503	9.03109E-05	0.0613112	0	5	0	
0.196167	-0.00592598	-1.3279	8.69069E-05	0.0614169	0	5	0	
0.196333	0.00448106	1.3557	0.000102948	0.0613688	0	5	0	
0.1965	0.001242	-1.38382	9.30117E-05	0.0613896	0	5	0	
0.196667	0.00276468	1.38468	7.93974E-05	0.0615092	0	5	0	
0.196833	-0.00154866	-1.38772	6.16425E-05	0.0617528	0	5	0	
0.197	0.00647949	1.37758	5.83715E-05	0.0619141	0	5	0	
0.197167	-0.00667471	-1.39268	9.72997E-05	0.0619115	0	5	0	
0.197333	0.00224885	1.39588	9.58778E-05	0.0616515	0	5	0	
0.1975	-0.00233728	-1.42003	0.000111306	0.0613815	0	5	0	
0.197667	0.00142808	1.44357	8.03004E-05	0.0611185	0	5	0	
0.197833	0.00118812	-1.46671	5.99028E-05	0.0609871	0	5	0	
0.198	0.0041165	1.48357	4.30778E-05	0.0609729	0	5	0	
0.198167	-0.00190642	-1.49549	5.401E-05	0.0611105	0	5	0	
0.198333	0.00180531	1.48602	5.24827E-05	0.0612092	0	5	0	
0.1985	-0.00340597	-1.50276	7.16889E-05	0.0612727	0	5	0	
0.198667	0.0036074	1.51814	7.00693E-05	0.0612445	0	5	0	
0.198833	-0.0100122	-1.55059	0.000117267	0.0613446	0	5	0	
0.199	0.00537729	1.54835	0.000130448	0.0614026	0	5	0	
0.199167	-0.00224854	-1.55058	0.000142327	0.0614446	0	5	0	
0.199333	-0.000581728	1.5462	0.000108679	0.0613136	0	5	0	
0.1995	-0.00021064	-1.56669	6.90608E-05	0.0612179	0	5	0	
0.199667	0.00245406	1.58767	3.58778E-05	0.0611408	0	5	0	
0.199833	-0.0036043	-1.62739	5.20961E-05	0.0612573	0	5	0	
0.2	-3.18352E-05	1.61454	5.65071E-05	0.0612641	0	5	0	
0.200167	-0.00607195	-1.62594	6.83669E-05	0.0612738	0	5	0	
0.200333	0.00455067	1.64325	7.54887E-05	0.061225	0	5	0	
0.2005	-0.0011643	-1.65046	0.000112694	0.0613268	0	5	0	
0.200667	-0.000182168	1.64247	0.000105241	0.0613565	0	5	0	
0.200833	-0.00373253	-1.66837	7.68379E-05	0.061299	0	5	0	
0.201	0.00747636	1.69232	6.39581E-05	0.0610431	0	5	0	
0.201167	-0.00631882	-1.72992	0.000105211	0.0609395	0	5	0	
0.201333	0.00154795	1.73884	0.000116615	0.061019	0	5	0	
0.2015	-0.00449576	-1.72635	0.00010915	0.0613245	0	5	0	
0.201667	4.68705E-06	1.72905	8.18394E-05	0.0615227	0	5	0	
0.201833	-0.00450052	-1.7549	7.452E-05	0.0616312	0	5	0	
0.202	0.00248742	1.74785	8.01809E-05	0.0616027	0	5	0	
0.202167	-0.00200826	-1.7502	7.82693E-05	0.0615076	0	5	0	
0.202333	0.00154851	1.76607	6.52762E-05	0.0611833	0	5	0	
0.2025	-0.00240212	-1.79639	5.23686E-05	0.060948	0	5	0	
0.202667	-0.00493498	1.81407	4.65599E-05	0.0609233	0	5	0	
0.202833	-0.00156318	-1.82393	6.08556E-05	0.0611499	0	5	0	
0.203	0.00277632	1.82318	6.32603E-05	0.0612472	0	5	0	
0.203167	-0.0067346	-1.85445	6.88148E-05	0.0612908	0	5	0	
0.203333	0.00503123	1.87283	9.17456E-05	0.061282	0	5	0	
0.2035	-0.00303265	-1.88272	9.30097E-05	0.0614119	0	5	0	
0.203667	0.000168702	1.88446	8.62657E-05	0.0614517	0	5	0	
0.203833	-0.00111763	-1.90873	7.83212E-05	0.0615614	0	5	0	
0.204	-0.000368447	1.90612	8.13242E-05	0.0615887	0	5	0	
0.204167	0.000835352	-1.92465	7.36725E-05	0.0616594	0	5	0	
0.204333	0.00125187	1.93529	4.52691E-05	0.0615445	0	5	0	
0.2045	-0.00338398	-1.93977	3.65255E-05	0.0614582	0	5	0	
0.204667	0.0029217	1.94824	4.75043E-05	0.0613446	0	5	0	
0.204833	-0.00489959	-1.97494	7.91776E-05	0.0613787	0	5	0	
0.205	0.00138002	1.98077	8.91888E-05	0.0613471	0	5	0	
0.205167	-0.00464266	-1.99935	8.37191E-05	0.0613662	0	5	0	
0.205333	0.00687721	2.00642	8.80643E-05	0.06131	0	5	0	
0.2055	-0.0108298	-2.02384	0.000115986	0.0613828	0	5	0	
0.205667	0.0115076	2.04762	0.000172087	0.0614189	0	5	0	
0.205833	-0.00956571	-2.06531	0.000211655	0.0615449	0	5	0	
0.206	-0.000538784	2.07006	0.000222861	0.0616386	0	5	0	
0.206167	0.00308477	-2.07322	0.000196466	0.0617356	0	5	0	
0.206333	-0.0026968	2.07269	0.000123759	0.0616663	0	5	0	
0.2065	0.000216318	-2.08489	8.85242E-05	0.0615486	0	5	0	
0.206667	0.00621601	2.11079	8.86593E-05	0.0613598	0	5	0	
0.206833	-0.00785567	-2.155	0.000145613	0.0613786	0	5	0	
0.207	0.00693626	2.17254	0.000155187	0.0615462	0	5	0	
0.207167	-0.00233622	-2.1836	0.000158575	0.0617118	0	5	0	
0.207333	0.00263848	2.24891	0.000128481	0.0619214	0	5	0	
0.2075	-0.00433439	-2.23273	0.000112505	0.062247	0	5	0	
0.207667	0.00596834	2.19871	9.7985E-05	0.0624991	0	5	0	
0.207833	-0.00271283	-2.19085	0.000129263	0.0623549	0	5	0	
0.208	-0.000423332	2.19525	0.00014333	0.0617525	0	5	0	
0.208167	0.00012385	-2.19451	0.000109962	0.0611864	0	5	0	
0.208333	0.000211236	2.22329	5.29442E-05	0.0608648	0	5	0	
0.2085	-0.00321816	-2.22928	3.82889E-05	0.0607215	0	5	0	
0.208667	0.00578933	2.26406	6.9932E-05	0.060637	0	5	0	
0.208833	-0.0110345	-2.27681	0.000116251	0.0607885	0	5	0	
0.209	0.00555958	2.2801	0.000151111	0.0610914	0	5	0	
0.209167	-0.00423096	-2.2753	0.00014295	0.0614764	0	5	0	
0.209333	0.000720856	2.28951	0.000122699	0.061523	0	5	0	
0.2095	0.00160833	-2.33102	9.28573E-05	0.0615118	0	5	0	
0.209667	-0.00314758	2.38424	9.19967E-05	0.0616113	0	5	0	
0.209833	-0.00147646	-2.37661	9.48254E-05	0.0618764	0	5	0	
0.21	0.00263369	2.34447	8.15519E-05	0.0620195	0	5	0	
0.210167	-0.0021327	-2.33275	7.99955E-05	0.0619366	0	5	0	
0.210333	-0.00293487	2.33443	6.12114E-05	0.0616778	0	5	0	
0.2105	-0.00597255	-2.33654	7.3951E-05	0.0614335	0	5	0	
0.210667	0.00621566	2.35531	9.73624E-05	0.0611618	0	5	0	
0.210833	0.000426683	-2.36439	0.000123865	0.0608481	0	5	0	
0.211	-0.00140987	2.39271	0.000127027	0.0606003	0	5	0	
0.211167	-0.00152913	-2.42576	0.000114975	0.0607588	0	5	0	
0.211333	0.00932903	2.42827	0.000136386	0.0611838	0	5	0	
0.2115	-0.0115734	-2.42126	0.000154642	0.0615477	0	5	0	
0.211667	0.003408	2.44211	0.0001871	0.0615902	0	5	0	
0.211833	0.00116159	-2.44977	0.000140219	0.0615301	0	5	0	
0.212	0.00307164	2.44559	0.000117116	0.0614118	0	5	0	
0.212167	-0.00307983	-2.46328	7.32974E-05	0.0613956	0	5	0	
0.212333	0.000370203	2.46709	8.24241E-05	0.0613267	0	5	0	
0.2125	0.00590979	-2.47106	7.35096E-05	0.0612448	0	5	0	
0.212667	-0.00178999	2.55228	0.000106042	0.0612348	0	5	0	
0.212833	-0.00600709	-2.55582	0.000125744	0.0614836	0	5	0	
0.213	0.00654784	2.53386	0.000156186	0.0618274	0	5	0	
0.213167	-0.00292072	-2.52447	0.000132392	0.0619863	0	5	0	
0.213333	0.00602313	2.52723	0.000120331	0.061782	0	5	0	
0.2135	-0.00366202	-2.52859	0.000100178	0.0615202	0	5	0	
0.213667	0.0029117	2.54848	9.87835E-05	0.0613223	0	5	0	
0.213833	-0.000967198	-2.54144	8.61699E-05	0.0611415	0	5	0	
0.214	0.00444761	2.56995	7.9524E-05	0.0609754	0	5	0	
0.214167	-0.00697591	-2.58629	8.64754E-05	0.0609245	0	5	0	
0.214333	0.00549742	2.60064	0.000104405	0.0611231	0	5	0	
0.2145	0.000343507	-2.6001	0.000109796	0.0613588	0	5	0	
0.214667	0.00480593	2.61655	0.000113048	0.0614373	0	5	0	
0.214833	-0.00140466	-2.6273	9.58229E-05	0.0613805	0	5	0	
0.215	0.00195131	2.62563	7.86183E-05	0.0614059	0	5	0	
0.215167	-0.0047349	-2.62731	6.36416E-05	0.0614224	0	5	0	
0.215333	0.00714877	2.65879	8.90199E-05	0.0614404	0	5	0	
0.2155	-0.00502768	-2.70733	0.000104199	0.0614587	0	5	0	
0.215667	0.0040012	2.72331	0.000125748	0.0616861	0	5	0	
0.215833	-0.00350816	-2.70187	9.92274E-05	0.0619219	0	5	0	
0.216	0.00597289	2.6897	0.000110645	0.062046	0	5	0	
0.216167	-0.00205805	-2.70152	8.33964E-05	0.0619253	0	5	0	
0.216333	0.0072054	2.71073	9.7398E-05	0.061781	0	5	0	
0.2165	-0.0149792	-2.70228	0.000153421	0.0615966	0	5	0	
0.216667	0.027289	2.70497	0.000267155	0.0613566	0	5	0	
0.216833	-0.0229798	-2.73794	0.000388576	0.0610749	0	5	0	
0.217	-5.038E-05	2.75668	0.000503792	0.0610186	0	5	0	
0.217167	0.0242574	-2.75978	0.000552443	0.0611874	0	5	0	
0.217333	-0.0177299	2.76128	0.000498247	0.0613985	0	5	0	
0.2175	0.00427416	-2.7743	0.000504195	0.0613722	0	5	0	
0.217667	0.0133792	2.85747	0.000567204	0.061415	0	5	0	
0.217833	-0.0232881	-2.82765	0.000642896	0.0615725	0	5	0	
0.218	0.0256025	2.79207	0.000594037	0.0617489	0	5	0	
0.218167	-0.0162852	-2.77252	0.000462373	0.0616737	0	5	0	
0.218333	0.00215931	2.78306	0.000452801	0.0613726	0	5	0	
0.2185	0.0222352	-2.79008	0.000435069	0.0611051	0	5	0	
0.218667	-0.0129814	2.80272	0.000423437	0.0609205	0	5	0	
0.218833	-0.00757204	-2.78396	0.000384403	0.060742	0	5	0	
0.219	0.0162839	2.83105	0.000326859	0.0606127	0	5	0	
0.219167	-0.00181622	-2.85793	0.000302202	0.0607585	0	5	0	
0.219333	-0.00474982	2.87065	0.000247335	0.0611715	0	5	0	
0.2195	0.00448584	-2.87082	0.000202365	0.0615798	0	5	0	
0.219667	0.00880886	2.8922	0.00019463	0.0616978	0	5	0	
0.219833	-0.00874428	-2.91597	0.000179531	0.0617016	0	5	0	
0.22	0.00341832	2.92111	0.000166776	0.0617142	0	5	0	
0.220167	-0.00159594	-2.91953	0.00012727	0.0617609	0	5	0	
0.220333	0.00253173	2.93156	9.84616E-05	0.0618548	0	5	0	
0.2205	0.000542857	-2.90919	8.43418E-05	0.0618273	0	5	0	
0.220667	-0.0020111	2.91767	6.48169E-05	0.0616242	0	5	0	
0.220833	-0.00280756	-2.92732	6.84397E-05	0.0613279	0	5	0	
0.221	0.00837257	2.93013	9.37319E-05	0.0611244	0	5	0	
0.221167	-0.00930713	-2.92749	0.000139414	0.0610837	0	5	0	
0.221333	0.00343671	2.9613	0.00014592	0.0611223	0	5	0	
0.2215	-0.00375509	-2.99981	0.000126491	0.0613131	0	5	0	
0.221667	0.00198177	3.00219	9.67279E-05	0.0615248	0	5	0	
0.221833	-0.00223672	-2.98634	5.9811E-05	0.0616989	0	5	0	
0.222	0.00380084	2.97447	6.0102E-05	0.0616618	0	5	0	
0.222167	-0.00452305	-2.97378	6.21097E-05	0.0615297	0	5	0	
0.222333	0.00172024	2.99582	7.49847E-05	0.0613819	0	5	0	
0.2225	-0.00374754	-2.99608	6.5197E-05	0.0613396	0	5	0	
0.222667	0.00528178	2.99242	7.25332E-05	0.0612366	0	5	0	
0.222833	-0.00672808	-3.01401	8.86312E-05	0.0611112	0	5	0	
0.223	0.00679682	3.04551	0.000121468	0.0611048	0	5	0	
0.223167	-0.00529148	-3.03314	0.00012592	0.061284	0	5	0	
0.223333	0.0057473	3.03785	0.000117075	0.0614966	0	5	0	
0.2235	-0.0054332	-3.028	0.000113015	0.0614831	0	5	0	
0.223667	0.00138712	3.05728	0.000102128	0.0613939	0	5	0	
0.223833	-0.00566022	-3.05819	0.000100663	0.0613613	0	5	0	
0.224	0.00434591	3.05397	9.93188E-05	0.0613282	0	5	0	
0.224167	0.00162477	-3.04285	8.16119E-05	0.0612678	0	5	0	
0.224333	0.0028784	3.06788	6.63638E-05	0.0612009	0	5	0	
0.2245	-0.00457957	-3.05034	6.32431E-05	0.0611722	0	5	0	
0.224667	0.000897573	3.06133	6.92231E-05	0.0611573	0	5	0	
0.224833	-0.000123141	-3.05508	0.000106547	0.0610509	0	5	0	
0.225	-0.0103955	3.07169	0.000113104	0.0609503	0	5	0	
0.225167	0.00855816	-3.08049	0.000161198	0.0609469	0	5	0	
0.225333	0.00230972	3.11331	0.000218079	0.0610782	0	5	0	
0.2255	-0.0121042	-3.10975	0.000276922	0.0612852	0	5	0	
0.225667	0.0114166	3.13897	0.000286424	0.0614642	0	5	0	
0.225833	-0.00303252	-3.13127	0.000237067	0.0616027	0	5	0	
0.226	-0.00209361	3.14393	0.000154182	0.0616614	0	5	0	
0.226167	-0.00758901	-3.14456	0.000133909	0.0617159	0	5	0	
0.226333	-0.00616365	3.16291	0.000178343	0.0617304	0	5	0	
0.2265	0.0127011	-3.13957	0.000262452	0.0617418	0	5	0	
0.226667	-0.0133015	3.16765	0.000272643	0.061673	0	5	0	
0.226833	0.00353838	-3.23878	0.00024182	0.0617853	0	5	0	
0.227	-0.00298148	3.28722	0.000147514	0.0621985	0	5	0	
0.227167	0.00312841	-3.23366	0.000111209	0.0625549	0	5	0	
0.227333	0.00376661	3.22264	0.000133761	0.0626514	0	5	0	
0.2275	-0.0152817	-3.16508	0.000195551	0.0622811	0	5	0	
0.227667	0.00849717	3.11649	0.000247583	0.0616828	0	5	0	
0.227833	-0.00219874	-3.07581	0.000294252	0.0609576	0	5	0	
0.228	0.00208552	3.0618	0.000282571	0.0602475	0	5	0	
0.228167	-0.00842615	-3.09399	0.000312538	0.0595818	0	5	0	
0.228333	0.0213994	3.20737	0.000285349	0.0596165	0	5	0	
0.2285	-0.00802767	-3.20203	0.000338714	0.0601702	0	5	0	
0.228667	-0.0122062	3.23643	0.000411876	0.061134	0	5	0	
0.228833	0.00928667	-3.2743	0.000358666	0.0618951	0	5	0	
0.229	-0.00815204	3.27167	0.000387128	0.0624676	0	5	0	
0.229167	-0.000669458	-3.22164	0.000392422	0.062641	0	5	0	
0.229333	0.0247576	3.23218	0.000588079	0.0623554	0	5	0	
0.2295	-0.0361972	-3.2251	0.000657406	0.0618927	0	5	0	
0.229667	0.00352607	3.23243	0.00071733	0.0617001	0	5	0	
0.229833	0.0388747	-3.22166	0.00078365	0.0615469	0	5	0	
0.23	-0.0166474	3.23831	0.000758585	0.0615284	0	5	0	
0.230167	-0.0599904	-3.24354	0.000839672	0.0615352	0	5	0	
0.230333	0.0707245	3.27336	0.000923255	0.06175	0	5	0	
0.2305	-0.0203809	-3.27019	0.00113966	0.0619248	0	5	0	
0.230667	-0.0262956	3.29072	0.00117762	0.0620124	0	5	0	
0.230833	0.0443816	-3.27145	0.0010548	0.0620468	0	5	0	
0.231	-0.0443562	3.23958	0.000907276	0.0618907	0	5	0	
0.231167	0.00189558	-3.20697	0.00110405	0.0615927	0	5	0	
0.231333	0.0606301	3.2111	0.0015699	0.0611714	0	5	0	
0.2315	-0.0774031	-3.19882	0.00188222	0.0607827	0	5	0	
0.231667	0.0482242	3.23662	0.00166042	0.0606102	0	5	0	
0.231833	-0.00227834	-3.26294	0.00135876	0.0607564	0	5	0	
0.232	-0.0479871	3.29556	0.00119312	0.0611189	0	5	0	
0.232167	0.0506632	-3.27617	0.00116328	0.0615717	0	5	0	
0.232333	-0.019844	3.2718	0.00094268	0.0616976	0	5	0	
0.2325	0.00162844	-3.28143	0.000710712	0.0617312	0	5	0	
0.232667	0.00900961	3.27449	0.00051074	0.0616581	0	5	0	
0.232833	-0.000985557	-3.27539	0.000372322	0.0615834	0	5	0	
0.233	-0.0136409	3.27908	0.000273691	0.0615262	0	5	0	
0.233167	-0.00239997	-3.2654	0.00028406	0.0614497	0	5	0	
0.233333	0.0257473	3.27076	0.000396741	0.0614443	0	5	0	
0.2335	-0.0122192	-3.25766	0.000438274	0.0613492	0	5	0	
0.233667	-0.0054364	3.24296	0.000436879	0.0612417	0	5	0	
0.233833	0.0075577	-3.30264	0.000306815	0.0612034	0	5	0	
0.234	0.015233	3.30648	0.000300864	0.061419	0	5	0	
0.234167	-0.00690599	-3.28312	0.000310212	0.061594	0	5	0	
0.234333	-0.016473	3.25718	0.000421461	0.0616043	0	5	0	
0.2345	0.0204686	-3.24544	0.000418375	0.0612532	0	5	0	
0.234667	-0.00880168	3.27344	0.00039005	0.0610783	0	5	0	
0.234833	0.00480257	-3.26191	0.000278936	0.0610418	0	5	0	
0.235	-0.00711442	3.27592	0.000287955	0.0611599	0	5	0	
0.235167	-0.00699419	-3.28431	0.000328996	0.0612339	0	5	0	
0.235333	0.0271331	3.31083	0.000449157	0.0613786	0	5	0	
0.2355	-0.0372548	-3.29159	0.000520525	0.0615423	0	5	0	
0.235667	0.0103741	3.29705	0.000639868	0.0616493	0	5	0	
0.235833	0.0157755	-3.26518	0.000723754	0.0615601	0	5	0	
0.236	-0.0218029	3.28371	0.000645462	0.0614079	0	5	0	
0.236167	-1.14128E-05	-3.27009	0.000504532	0.0613302	0	5	0	
0.236333	-0.00562673	3.30634	0.000285559	0.0613843	0	5	0	
0.2365	-0.00463089	-3.29231	0.000287246	0.0615638	0	5	0	
0.236667	0.0317762	3.30586	0.000338969	0.0616873	0	5	0	
0.236833	-0.0222264	-3.27048	0.000434748	0.0616619	0	5	0	
0.237	-0.00991754	3.2604	0.000597892	0.0614537	0	5	0	
0.237167	0.0323002	-3.26224	0.000674564	0.0612476	0	5	0	
0.237333	-0.0196997	3.38253	0.000670081	0.0615595	0	5	0	
0.2375	-0.00984734	-3.30415	0.000594878	0.0621032	0	5	0	
0.237667	0.016927	3.32133	0.000459529	0.0623582	0	5	0	
0.237833	0.00342667	-3.28647	0.00041779	0.0621471	0	5	0	
0.238	0.00233834	3.28949	0.000278811	0.0617704	0	5	0	
0.238167	-0.0168281	-3.25193	0.00025827	0.0616022	0	5	0	
0.238333	0.0104297	3.23845	0.000237766	0.0613805	0	5	0	
0.2385	0.0192089	-3.14197	0.000371983	0.0609356	0	5	0	
0.238667	-0.0212295	3.2294	0.000405619	0.0604087	0	5	0	
0.238833	-0.00375904	-3.24881	0.000459986	0.0603217	0	5	0	
0.239	0.0074517	3.25101	0.000322667	0.0606098	0	5	0	
0.239167	0.0119371	-3.24468	0.000247925	0.0610364	0	5	0	
0.239333	-0.0050623	3.25961	0.000196023	0.0612115	0	5	0	
0.2395	-0.0268675	-3.26493	0.000302371	0.0613103	0	5	0	
0.239667	0.031197	3.26985	0.000422333	0.0614742	0	5	0	
0.239833	0.00544014	-3.25842	0.00057414	0.0615082	0	5	0	
0.24	-0.0217259	3.25635	0.000540774	0.0615234	0	5	0	
0.240167	0.00740287	-3.23247	0.000458254	0.0613968	0	5	0	
0.240333	0.00139934	3.23142	0.000298664	0.0613242	0	5	0	
0.2405	-0.00513262	-3.22306	0.000187667	0.0611789	0	5	0	
0.240667	0.00315484	3.23894	0.000122052	0.0611707	0	5	0	
0.240833	0.00401639	-3.23548	9.48484E-05	0.0611808	0	5	0	
0.241	-0.00413158	3.25786	0.000134166	0.0613505	0	5	0	
0.241167	-0.00392919	-3.22943	0.000132429	0.0614668	0	5	0	
0.241333	-0.00443457	3.23083	0.000101617	0.0614705	0	5	0	
0.2415	0.00574923	-3.21186	7.48448E-05	0.0613547	0	5	0	
0.241667	0.00185811	3.22512	0.000183088	0.0612383	0	5	0	
0.241833	-0.0376243	-3.21184	0.000417154	0.0612508	0	5	0	
0.242	0.0522478	3.21976	0.000639972	0.0612899	0	5	0	
0.242167	-0.0258651	-3.20317	0.000844425	0.0614081	0	5	0	
0.242333	-0.0476612	3.21726	0.000996606	0.0614574	0	5	0	
0.2425	0.0777064	-3.20348	0.00119015	0.0615145	0	5	0	
0.242667	-0.0395863	3.20479	0.00120978	0.0615375	0	5	0	
0.242833	0.0216602	-3.21048	0.000972709	0.0615454	0	5	0	
0.243	-0.0143069	3.21822	0.000695463	0.0616809	0	5	0	
0.243167	-0.0269715	-3.20194	0.000586781	0.0617468	0	5	0	
0.243333	0.0427344	3.1863	0.000629761	0.0617103	0	5	0	
0.2435	-0.00939614	-3.15989	0.000789463	0.0614138	0	5	0	
0.243667	-0.000294383	3.1645	0.000927477	0.0611542	0	5	0	
0.243833	0.00448834	-3.1389	0.000765721	0.0609742	0	5	0	
0.244	0.024936	3.12622	0.000616521	0.0609899	0	5	0	
0.244167	-0.0387711	-3.16658	0.000448102	0.061004	0	5	0	
0.244333	0.0317824	3.20442	0.000604476	0.061414	0	5	0	
0.2445	0.0105165	-3.1964	0.000644323	0.0617726	0	5	0	
0.244667	-0.0360906	3.19218	0.000614774	0.0621299	0	5	0	
0.244833	0.0234656	-3.13301	0.000580421	0.0619759	0	5	0	
0.245	-0.00420579	3.12444	0.000531592	0.0616078	0	5	0	
0.245167	0.00393355	-3.12185	0.000462221	0.0612461	0	5	0	
0.245333	0.00312186	3.11317	0.000367302	0.0611915	0	5	0	
0.2455	-0.00546511	-3.11534	0.000269362	0.0612607	0	5	0	
0.245667	0.00420984	3.12766	0.000185179	0.0614862	0	5	0	
0.245833	-0.0100182	-3.10611	0.000170873	0.0615448	0	5	0	
0.246	0.00622316	3.13582	0.000165643	0.0617799	0	5	0	
0.246167	-0.0105839	-3.1004	0.000172488	0.0618175	0	5	0	
0.246333	0.00445279	3.09975	0.000159825	0.0618093	0	5	0	
0.2465	0.00237855	-3.09728	0.000137747	0.0616683	0	5	0	
0.246667	-0.0176818	3.09953	0.0001585	0.061617	0	5	0	
0.246833	0.0199982	-3.06565	0.000230148	0.0615899	0	5	0	
0.247	-0.00397245	3.04542	0.000390782	0.0615361	0	5	0	
0.247167	-0.01403	-3.01101	0.00061883	0.0612391	0	5	0	
0.247333	0.0277428	3.03479	0.000736008	0.061092	0	5	0	
0.2475	-0.0122145	-3.05607	0.000635415	0.0611206	0	5	0	
0.247667	-0.0244204	3.0665	0.000490657	0.0614224	0	5	0	
0.247833	0.0291837	-3.03837	0.000461832	0.061647	0	5	0	
0.248	0.00547585	3.01451	0.000437825	0.0615478	0	5	0	
0.248167	0.00949521	-2.99833	0.000368822	0.0612572	0	5	0	
0.248333	-0.0343385	2.98866	0.000314507	0.0610502	0	5	0	
0.2485	0.0382167	-2.9901	0.000476168	0.0609367	0	5	0	
0.248667	0.0332364	3.01727	0.000895926	0.0611437	0	5	0	
0.248833	-0.135074	-3.03965	0.00126325	0.061464	0	5	0	
0.249	0.131125	3.04184	0.00190009	0.0619854	0	5	0	
0.249167	-0.00698579	-3.03023	0.00207723	0.0622642	0	5	0	
0.249333	-0.0449947	2.99378	0.00191075	0.0622647	0	5	0	
0.2495	0.00662391	-2.96346	0.00115792	0.0618951	0	5	0	
0.249667	0.00461895	2.96238	0.000719105	0.0616282	0	5	0	
0.249833	-0.0180914	-2.95123	0.000771991	0.0614959	0	5	0	
0.25	0.0520262	2.95573	0.00132563	0.061729	0	5	0	
0.250167	-0.0496171	-2.94402	0.00165674	0.0618491	0	5	0	
0.250333	0.00810812	2.9184	0.0014139	0.0618693	0	5	0	
0.2505	0.0153835	-2.92195	0.000789632	0.0616757	0	5	0	
0.250667	-0.0096019	2.92063	0.000603365	0.0616137	0	5	0	
0.250833	-0.017646	-2.90814	0.000935175	0.0615703	0	5	0	
0.251	0.0371909	2.91099	0.00116401	0.0617139	0	5	0	
0.251167	-0.0316535	-2.88903	0.00101307	0.0617538	0	5	0	
0.251333	-0.0285114	2.87746	0.000933034	0.0617653	0	5	0	
0.2515	0.0648895	-2.86732	0.00106851	0.0615907	0	5	0	
0.251667	-0.0320765	2.85956	0.00109581	0.0614629	0	5	0	
0.251833	-0.0152241	-2.84361	0.00102648	0.0614028	0	5	0	
0.252	0.0406508	2.84774	0.000787762	0.0615784	0	5	0	
0.252167	-0.0223634	-2.82627	0.000783291	0.0616781	0	5	0	
0.252333	0.014262	2.83182	0.000611556	0.0617876	0	5	0	
0.2525	-0.0443494	-2.80566	0.00071028	0.061664	0	5	0	
0.252667	0.0355305	2.79174	0.000852612	0.0615436	0	5	0	
0.252833	-0.021319	-2.76157	0.000885165	0.0613673	0	5	0	
0.253	0.0169433	2.7558	0.000739172	0.0612943	0	5	0	
0.253167	-0.00509374	-2.75496	0.000410269	0.061313	0	5	0	
0.253333	-0.00219366	2.76783	0.000247457	0.0615546	0	5	0	
0.2535	0.0249848	-2.77342	0.000211536	0.0617815	0	5	0	
0.253667	-0.0455966	2.76087	0.000528882	0.0618426	0	5	0	
0.253833	0.00251633	-2.72708	0.000755785	0.0615346	0	5	0	
0.254	0.0219556	2.71471	0.000762756	0.0611922	0	5	0	
0.254167	-0.0120283	-2.6992	0.000517696	0.0609526	0	5	0	
0.254333	-0.00557391	2.66668	0.000399916	0.0610137	0	5	0	
0.2545	0.00339669	-2.65952	0.000309492	0.0613061	0	5	0	
0.254667	0.0170258	2.69778	0.000318611	0.0616375	0	5	0	
0.254833	-0.0334694	-2.68172	0.000311081	0.0617477	0	5	0	
0.255	0.0159585	2.64323	0.000488499	0.0615768	0	5	0	
0.255167	0.00207464	-2.63925	0.000512026	0.0613415	0	5	0	
0.255333	-0.00388259	2.65616	0.000418313	0.0615838	0	5	0	
0.2555	0.000968086	-2.6179	0.000233462	0.0618293	0	5	0	
0.255667	-0.00089278	2.62413	0.000102056	0.0618757	0	5	0	
0.255833	-0.0107982	-2.63587	0.000197993	0.0616275	0	5	0	
0.256	0.0233179	2.63648	0.000397925	0.0614776	0	5	0	
0.256167	-0.0208181	-2.57383	0.000478262	0.0612174	0	5	0	
0.256333	0.00444715	2.51066	0.00047561	0.0608963	0	5	0	
0.2565	0.00818825	-2.53385	0.000340864	0.061203	0	5	0	
0.256667	-0.0009806	2.5001	0.00029437	0.0620693	0	5	0	
0.256833	-0.00616475	-2.58615	0.000231792	0.0627429	0	5	0	
0.257	0.00425444	2.59275	0.000194674	0.0627085	0	5	0	
0.257167	-0.00643516	-2.56623	0.00015837	0.0622715	0	5	0	
0.257333	0.0117296	2.51672	0.00013081	0.0619365	0	5	0	
0.2575	-0.00187047	-2.44069	0.00014895	0.0614075	0	5	0	
0.257667	0.000800134	2.30353	0.000134672	0.0605127	0	5	0	
0.257833	-0.00438147	-2.40625	0.000177321	0.0596574	0	5	0	
0.258	0.00944421	2.45685	0.00023255	0.0597116	0	5	0	
0.258167	-0.00725774	-2.46853	0.000267783	0.0604696	0	5	0	
0.258333	-0.00061213	2.44674	0.000187461	0.0612937	0	5	0	
0.2585	0.00699336	-2.42762	0.000109407	0.0614103	0	5	0	
0.258667	-0.00040317	2.42386	0.000108346	0.061498	0	5	0	
0.258833	0.00400021	-2.4245	0.000163808	0.0615419	0	5	0	
0.259	-0.00144746	2.42156	0.000206952	0.0617048	0	5	0	
0.259167	-0.00426365	-2.39847	0.000215573	0.0615469	0	5	0	
0.259333	0.00491104	2.37644	0.000169932	0.0614	0	5	0	
0.2595	0.00144839	-2.37076	0.000126139	0.0612713	0	5	0	
0.259667	-0.0085843	2.3606	8.98547E-05	0.0614998	0	5	0	
0.259833	0.00460037	-2.36665	0.000120918	0.0616355	0	5	0	
0.26	0.00107096	2.34355	0.000131727	0.0617255	0	5	0	
0.260167	0.0156798	-2.32024	0.00015112	0.0614731	0	5	0	
0.260333	-0.0169451	2.3052	0.000219995	0.0614055	0	5	0	
0.2605	0.00392164	-2.2966	0.000398099	0.0613391	0	5	0	
0.260667	0.00763608	2.25305	0.000643307	0.0614171	0	5	0	
0.260833	-0.0297622	-2.22553	0.000713981	0.0611958	0	5	0	
0.261	0.0278464	2.22402	0.000655758	0.0611792	0	5	0	
0.261167	-0.0073105	-2.21619	0.000593907	0.0616451	0	5	0	
0.261333	-0.0264177	2.2053	0.000671917	0.0621983	0	5	0	
0.2615	0.0538471	-2.24276	0.000724381	0.0623716	0	5	0	
0.261667	-0.0326955	2.19864	0.000859288	0.0620633	0	5	0	
0.261833	-0.0043715	-2.16022	0.00101627	0.0616305	0	5	0	
0.262	0.0315751	2.15124	0.00113991	0.0613988	0	5	0	
0.262167	-0.0445532	-2.10609	0.00100818	0.0611876	0	5	0	
0.262333	0.0109235	2.07819	0.000757314	0.0609693	0	5	0	
0.2625	0.0261383	-2.14598	0.000637865	0.0608403	0	5	0	
0.262667	-0.0364119	2.13506	0.000609265	0.0609734	0	5	0	
0.262833	0.0334316	-2.09998	0.000663764	0.0610442	0	5	0	
0.263	-0.000501689	2.06195	0.000650492	0.0609796	0	5	0	
0.263167	-0.0054529	-2.00995	0.000464402	0.0608347	0	5	0	
0.263333	-0.0148561	2.02985	0.00046819	0.0611928	0	5	0	
0.2635	0.0205796	-2.05725	0.00048717	0.0616429	0	5	0	
0.263667	-0.0242124	2.0704	0.000590366	0.0619658	0	5	0	
0.263833	0.00880189	-2.05322	0.000492593	0.0620143	0	5	0	
0.264	0.00675286	2.01226	0.000426217	0.0619165	0	5	0	
0.264167	-0.0267591	-1.96852	0.000422868	0.0615719	0	5	0	
0.264333	0.0338363	1.96138	0.000464808	0.061231	0	5	0	
0.2645	-0.0207485	-1.97292	0.000539666	0.0610172	0	5	0	
0.264667	-0.00181397	1.97179	0.000536045	0.061123	0	5	0	
0.264833	0.000242567	-1.94739	0.000411393	0.0612775	0	5	0	
0.265	-0.00726338	1.92009	0.000202546	0.0613394	0	5	0	
0.265167	0.000579207	-1.92269	0.000119183	0.0612105	0	5	0	
0.265333	0.0015884	1.9128	6.3E-05	0.0612783	0	5	0	
0.2655	0.00214496	-1.90722	7.07097E-05	0.0613633	0	5	0	
0.265667	-0.00869313	1.87619	7.52546E-05	0.061487	0	5	0	
0.265833	0.000516862	-1.86501	0.000119597	0.06134	0	5	0	
0.266	0.00115646	1.86666	0.00014302	0.0613471	0	5	0	
0.266167	-0.00158308	-1.86684	0.000116808	0.061381	0	5	0	
0.266333	-0.00639051	1.83103	8.78554E-05	0.0615215	0	5	0	
0.2665	0.00805346	-1.81099	9.79119E-05	0.0614415	0	5	0	
0.266667	-9.94481E-05	1.8	0.000214043	0.0614119	0	5	0	
0.266833	-0.0107399	-1.79264	0.000325521	0.0613592	0	5	0	
0.267	0.00746275	1.77396	0.00035562	0.0614992	0	5	0	
0.267167	-0.00333282	-1.76737	0.000255328	0.0616158	0	5	0	
0.267333	-0.00513356	1.74199	0.000153323	0.0617566	0	5	0	
0.2675	0.0109784	-1.72751	0.000107869	0.0616028	0	5	0	
0.267667	-0.0105657	1.69269	0.000146605	0.061373	0	5	0	
0.267833	0.00745397	-1.67034	0.00019019	0.061121	0	5	0	
0.268	0.000436079	1.66131	0.000222306	0.0612267	0	5	0	
0.268167	-0.00538724	-1.66205	0.000215703	0.0614486	0	5	0	
0.268333	0.00360621	1.64053	0.000175321	0.0617137	0	5	0	
0.2685	0.00597795	-1.62937	0.00018179	0.0616362	0	5	0	
0.268667	-0.0115379	1.59642	0.000184562	0.0614909	0	5	0	
0.268833	0.0020539	-1.50498	0.000202599	0.061497	0	5	0	
0.269	0.00332731	1.51361	0.000189823	0.0615862	0	5	0	
0.269167	-0.00253638	-1.56315	0.000192821	0.0617943	0	5	0	
0.269333	0.00593587	1.53621	0.000210003	0.0619415	0	5	0	
0.2695	-0.00860447	-1.55509	0.000210621	0.0619212	0	5	0	
0.269667	0.00262882	1.52673	0.000169159	0.0616872	0	5	0	
0.269833	-0.00190122	-1.45151	0.000133006	0.0610828	0	5	0	
0.27	-0.00207144	1.42282	8.21579E-05	0.0604054	0	5	0	
0.270167	0.00232244	-1.42949	8.9465E-05	0.0600299	0	5	0	
0.270333	-0.00922965	1.40499	0.000111522	0.0602531	0	5	0	
0.2705	0.00726042	-1.44399	0.0001536	0.060859	0	5	0	
0.270667	-0.00584873	1.43396	0.000207803	0.0613638	0	5	0	
0.270833	-0.00202919	-1.43033	0.000194067	0.0614504	0	5	0	
0.271	-0.00185304	1.40175	0.00015748	0.0615144	0	5	0	
0.271167	0.00196021	-1.39048	9.74359E-05	0.0614488	0	5	0	
0.271333	-0.00221569	1.37469	8.19132E-05	0.0615103	0	5	0	
0.2715	0.00149426	-1.37406	7.20779E-05	0.0615083	0	5	0	
0.271667	-0.00139856	1.33459	7.51982E-05	0.0614556	0	5	0	
0.271833	-0.00542759	-1.31271	8.36968E-05	0.061288	0	5	0	
0.272	-0.00314027	1.2879	8.37201E-05	0.0613771	0	5	0	
0.272167	0.00510503	-1.30155	8.31334E-05	0.0616348	0	5	0	
0.272333	-0.00729312	1.27502	8.61404E-05	0.0619251	0	5	0	
0.2725	0.00649228	-1.26737	0.000123225	0.0618493	0	5	0	
0.272667	0.0014523	1.24995	0.000179186	0.0616933	0	5	0	
0.272833	-0.00943617	-1.24194	0.000223459	0.0614335	0	5	0	
0.273	0.00415793	1.19641	0.000216571	0.0612001	0	5	0	
0.273167	4.84376E-05	-1.19371	0.000160051	0.0608463	0	5	0	
0.273333	-0.00883305	1.15587	0.000100766	0.0607566	0	5	0	
0.2735	0.00413784	-1.15977	0.000140431	0.0607628	0	5	0	
0.273667	0.0409731	1.14772	0.000366234	0.0609326	0	5	0	
0.273833	-0.0571883	-1.13842	0.000722998	0.0610245	0	5	0	
0.274	0.0224353	1.12834	0.000843525	0.0612436	0	5	0	
0.274167	0.011495	-1.13529	0.000873605	0.0614232	0	5	0	
0.274333	-0.014142	1.09142	0.000582875	0.0615226	0	5	0	
0.2745	-0.00372217	-1.088	0.000497909	0.0613834	0	5	0	
0.274667	0.0143033	1.04621	0.000266084	0.0613024	0	5	0	
0.274833	0.00929976	-1.03291	0.000238284	0.0612572	0	5	0	
0.275	-0.014843	1.01493	0.000198158	0.0613844	0	5	0	
0.275167	0.00459321	-1.00472	0.000218879	0.0614193	0	5	0	
0.275333	-0.0121886	0.978349	0.000200361	0.0613637	0	5	0	
0.2755	0.00793785	-0.972744	0.000216667	0.061168	0	5	0	
0.275667	0.0226684	0.925854	0.000393011	0.0610363	0	5	0	
0.275833	-0.057712	-0.923773	0.00059961	0.0610008	0	5	0	
0.276	0.0488064	0.911467	0.000860772	0.0611609	0	5	0	
0.276167	-0.00794026	-0.907057	0.000970331	0.0612768	0	5	0	
0.276333	-0.0185568	0.898511	0.00100473	0.0612887	0	5	0	
0.2765	0.018333	-0.913093	0.000763046	0.0611178	0	5	0	
0.276667	-0.00960729	0.870874	0.000523908	0.0609557	0	5	0	
0.276833	-0.0162018	-0.859283	0.00040535	0.0608142	0	5	0	
0.277	0.025866	0.823849	0.000434325	0.06077	0	5	0	
0.277167	-0.0160411	-0.803849	0.000446747	0.0606774	0	5	0	
0.277333	-0.0037307	0.762483	0.000393101	0.060739	0	5	0	
0.2775	0.00211941	-0.695176	0.000267051	0.0610684	0	5	0	
0.277667	-0.00214618	0.715721	0.000176641	0.0615636	0	5	0	
0.277833	0.00364701	-0.771831	0.000102028	0.0620265	0	5	0	
0.278	-0.00751909	0.77059	0.000141175	0.0622496	0	5	0	
0.278167	0.00769782	-0.748559	0.000143159	0.0621264	0	5	0	
0.278333	-0.00497944	0.685778	0.000217236	0.0616701	0	5	0	
0.2785	6.61207E-05	-0.620788	0.000286793	0.0610023	0	5	0	
0.278667	0.00316398	0.638472	0.000361828	0.0604498	0	5	0	
0.278833	-0.0139076	-0.64186	0.000305167	0.0603701	0	5	0	
0.279	0.00696715	0.624288	0.000248154	0.0607451	0	5	0	
0.279167	0.00735064	-0.628507	0.000210137	0.0612716	0	5	0	
0.279333	-0.0124974	0.610673	0.000211689	0.0615107	0	5	0	
0.2795	0.0158099	-0.60542	0.000230368	0.0613466	0	5	0	
0.279667	-0.0146357	0.575851	0.000247372	0.0611187	0	5	0	
0.279833	0.012422	-0.546853	0.00028209	0.0610036	0	5	0	
0.28	-0.0111606	0.528819	0.000294644	0.0610729	0	5	0	
0.280167	0.002109	-0.515422	0.000310523	0.0612308	0	5	0	
0.280333	0.0070094	0.493232	0.000317742	0.0614023	0	5	0	
0.2805	-0.00906305	-0.505266	0.000280151	0.0615485	0	5	0	
0.280667	0.0132772	0.496004	0.000243193	0.0617041	0	5	0	
0.280833	-0.00393469	-0.485231	0.000214874	0.0617069	0	5	0	
0.281	-0.00520924	0.418165	0.000252857	0.0613743	0	5	0	
0.281167	0.0131133	-0.317793	0.000264943	0.060648	0	5	0	
0.281333	-0.0120295	0.356777	0.000263211	0.0600356	0	5	0	
0.2815	0.00295335	-0.398883	0.000229412	0.0601292	0	5	0	
0.281667	0.00330946	0.377334	0.000228986	0.0607669	0	5	0	
0.281833	-0.00137417	-0.370435	0.000240373	0.0613621	0	5	0	
0.282	0.00305924	0.355153	0.000200375	0.0614823	0	5	0	
0.282167	0.00419782	-0.346681	0.000127859	0.0610749	0	5	0	
0.282333	-0.00674585	0.354072	8.69701E-05	0.0604084	0	5	0	
0.2825	0.000419619	-0.302803	8.61296E-05	0.0600668	0	5	0	
0.282667	-0.00298082	0.242558	0.000107753	0.0604797	0	5	0	
0.282833	0.00356401	-0.26037	0.000100447	0.0613181	0	5	0	
0.283	0.00118037	0.249731	9.40828E-05	0.0617482	0	5	0	
0.283167	-0.00576306	-0.219487	7.86468E-05	0.0616136	0	5	0	
0.283333	-0.00226082	0.19481	0.000106071	0.0614143	0	5	0	
0.2835	0.00917169	-0.195738	0.000146651	0.061284	0	5	0	
0.283667	-0.00546516	0.100041	0.000162521	0.0609117	0	5	0	
0.283833	0.00161246	-0.0546878	0.00013036	0.0606604	0	5	0	
0.284	-0.0159582	0.11935	0.000126889	0.0619673	0	5	0	
0.284167	0.0218956	-0.153744	0.000194686	0.0647089	0	5	0	
0.284333	-0.025407	0.215642	0.000438837	0.066275	0	5	0	
0.2845	-0.000292761	-0.137571	0.000669784	0.0648919	0	5	0	
0.284667	0.0193592	0.0763142	0.00069259	0.0620744	0	5	0	
0.284833	-0.00245503	-0.0466191	0.000486142	0.0603797	0	5	0	
0.285	-0.0087447	-0.100095	0.000309569	0.060199	0	5	0	
0.285167	0.0165762	0.273964	0.000294519	0.0607593	0	5	0	
0.285333	-0.0321616	-0.136066	0.000394939	0.0617574	0	5	0	
0.2855	0.0251983	-0.00850592	0.000477319	0.0629257	0	5	0	
0.285667	-0.00718116	0.0443198	0.000460998	0.0631241	0	5	0	
0.285833	0.00105703	0.0375469	0.000342862	0.0621529	0	5	0	
0.286	-0.000952749	-0.12231	0.00016343	0.0610412	0	5	0	
0.286167	0.00260945	0.119899	0.00010281	0.060925	0	5	0	
0.286333	-0.00465909	-0.0876981	8.99988E-05	0.0616565	0	5	0	
0.2865	0.00550814	0.0723834	9.41488E-05	0.062191	0	5	0	
0.286667	-0.000316027	-0.111707	0.000124139	0.0620761	0	5	0	
0.286833	-0.0102719	0.141223	0.000149031	0.0617049	0	5	0	
0.287	0.00446574	-0.146447	0.00016391	0.061552	0	5	0	
0.287167	0.00288267	0.136549	0.0001825	0.0616143	0	5	0	
0.287333	-0.00973257	-0.15752	0.00015105	0.0615533	0	5	0	
0.2875	0.00254169	0.177239	0.000177354	0.0612569	0	5	0	
0.287667	0.00358697	-0.225531	0.000141526	0.0609625	0	5	0	
0.287833	0.00110852	0.249546	0.000128273	0.0608839	0	5	0	
0.288	-0.0081523	-0.282912	0.000107235	0.0610525	0	5	0	
0.288167	0.0267721	0.28025	0.000167805	0.0612823	0	5	0	
0.288333	-0.0363298	-0.298461	0.000346316	0.0614631	0	5	0	
0.2885	0.0183579	0.295364	0.000544167	0.0615088	0	5	0	
0.288667	0.0147039	-0.328777	0.000784707	0.0614768	0	5	0	
0.288833	-0.0270878	0.364282	0.000814459	0.0614259	0	5	0	
0.289	0.0173725	-0.381863	0.000700387	0.0614481	0	5	0	
0.289167	-0.000667521	0.378237	0.000473521	0.061525	0	5	0	
0.289333	0.00636524	-0.391355	0.000338981	0.0616026	0	5	0	
0.2895	-0.00130291	0.376567	0.000362834	0.0616166	0	5	0	
0.289667	-0.0266108	-0.404028	0.000497783	0.0615817	0	5	0	
0.289833	0.0488677	0.422813	0.000670179	0.0614149	0	5	0	
0.29	-0.0381133	-0.463773	0.000773877	0.0611903	0	5	0	
0.290167	0.0166709	0.509479	0.000810951	0.0610483	0	5	0	
0.290333	-8.97663E-05	-0.53053	0.000790824	0.0611452	0	5	0	
0.2905	-0.00611383	0.518803	0.000716613	0.0614027	0	5	0	
0.290667	0.0169831	-0.536934	0.000613915	0.0616481	0	5	0	
0.290833	-0.0227828	0.531871	0.000522439	0.0617365	0	5	0	
0.291	0.0121034	-0.553579	0.000460213	0.0617638	0	5	0	
0.291167	0.0148826	0.566968	0.00048268	0.0616703	0	5	0	
0.291333	-0.0242055	-0.606147	0.000492719	0.0614467	0	5	0	
0.2915	0.0197235	0.651406	0.00050705	0.0611884	0	5	0	
0.291667	-0.00527434	-0.712355	0.000410083	0.0613208	0	5	0	
0.291833	0.00222512	0.681613	0.000293476	0.06183	0	5	0	
0.292	-0.013631	-0.651953	0.000212675	0.0623309	0	5	0	
0.292167	0.0205885	0.662305	0.000205643	0.06231	0	5	0	
0.292333	-0.00728138	-0.700248	0.000283507	0.0618781	0	5	0	
0.2925	-0.00504772	0.719487	0.00038594	0.0613969	0	5	0	
0.292667	0.00750625	-0.799102	0.000312774	0.0611929	0	5	0	
0.292833	0.00582701	0.779515	0.000272116	0.0610187	0	5	0	
0.293	-0.0115911	-0.802749	0.000179608	0.0610762	0	5	0	
0.293167	0.00636168	0.813818	0.000198584	0.0613929	0	5	0	
0.293333	-0.00697507	-0.7747	0.000169381	0.0619099	0	5	0	
0.2935	0.00472204	0.7622	0.000161194	0.0619732	0	5	0	
0.293667	-0.00223422	-0.844968	0.000144652	0.0614781	0	5	0	
0.293833	0.00376966	0.848966	0.000147569	0.0609349	0	5	0	
0.294	0.0024632	-0.873868	0.000114948	0.0609137	0	5	0	
0.294167	0.00265795	0.913496	9.07291E-05	0.0610806	0	5	0	
0.294333	-0.0124394	-0.944745	9.87934E-05	0.0612645	0	5	0	
0.2945	0.00115625	0.975997	0.000112223	0.0616336	0	5	0	
0.294667	0.00447717	-0.931636	0.00019178	0.0621954	0	5	0	
0.294833	-0.00234828	0.899061	0.000145256	0.0624999	0	5	0	
0.295	-0.00159554	-0.934819	0.00019219	0.062144	0	5	0	
0.295167	0.00274882	0.960398	0.000136077	0.0615582	0	5	0	
0.295333	0.00472275	-0.990782	0.000180094	0.0612113	0	5	0	
0.2955	0.00294526	1.04198	0.000342269	0.060952	0	5	0	
0.295667	-0.0232688	-1.06028	0.000641818	0.060671	0	5	0	
0.295833	0.0274723	1.05368	0.00074962	0.060594	0	5	0	
0.296	-0.0109415	-1.06381	0.000667697	0.0609438	0	5	0	
0.296167	-0.00210486	1.06833	0.000509129	0.0613941	0	5	0	
0.296333	0.0129041	-1.09854	0.000462188	0.0616547	0	5	0	
0.2965	-0.0313439	1.1047	0.000426414	0.061671	0	5	0	
0.296667	0.0409843	-1.10479	0.000482504	0.0617312	0	5	0	
0.296833	-0.0264744	1.07943	0.000590679	0.0616703	0	5	0	
0.297	3.85974E-05	-1.11183	0.000577905	0.0615546	0	5	0	
0.297167	0.0147717	1.12454	0.000446647	0.0612942	0	5	0	
0.297333	-0.0117696	-1.15409	0.000316145	0.061141	0	5	0	
0.2975	-0.000666769	1.16568	0.000234283	0.0609904	0	5	0	
0.297667	-0.00243462	-1.19043	0.000168615	0.0610076	0	5	0	
0.297833	0.0118883	1.20239	0.000158923	0.0610766	0	5	0	
0.298	-0.0163609	-1.24008	0.000209831	0.0612636	0	5	0	
0.298167	0.00890084	1.25301	0.000264801	0.0614042	0	5	0	
0.298333	0.00230769	-1.26804	0.000272783	0.0616319	0	5	0	
0.2985	-0.00583893	1.25302	0.000243108	0.0617505	0	5	0	
0.298667	0.00740212	-1.28925	0.000185529	0.0617933	0	5	0	
0.298833	0.00147109	1.34869	0.00012111	0.0616556	0	5	0	
0.299	-0.00401998	-1.45428	0.000101253	0.0619312	0	5	0	
0.299167	0.00520941	1.55127	9.10431E-05	0.0628172	0	5	0	
0.299333	-0.00434166	-1.39795	9.36342E-05	0.0633273	0	5	0	
0.2995	0.000508289	1.34176	9.07914E-05	0.0631423	0	5	0	
0.299667	0.0031236	-1.3567	8.77939E-05	0.0622066	0	5	0	
0.299833	0.0019321	1.37607	7.071E-05	0.0615011	0	5	0	
0.3	-0.000344913	-1.44536	6.76314E-05	0.0609803	0	5	0	
0.300167	0.0041767	1.54641	8.1808E-05	0.0604948	0	5	0	
0.300333	-0.00302174	-1.44724	8.49048E-05	0.0598874	0	5	0	
0.3005	0.00147621	1.47975	0.000100138	0.0599513	0	5	0	
0.300667	-0.00115545	-1.48522	8.21157E-05	0.0605607	0	5	0	
0.300833	0.00523797	1.47335	9.21601E-05	0.0614136	0	5	0	
0.301	-0.00383631	-1.50936	6.77986E-05	0.06166	0	5	0	
0.301167	0.0093375	1.54823	0.000108126	0.0615442	0	5	0	
0.301333	-0.00396854	-1.58179	0.000122701	0.0616712	0	5	0	
0.3015	0.00143966	1.56078	0.000158024	0.0617949	0	5	0	
0.301667	0.00999681	-1.56816	0.000153157	0.0618661	0	5	0	
0.301833	-0.0113906	1.56831	0.000184653	0.0616021	0	5	0	
0.302	-0.00156212	-1.60149	0.000210943	0.0613729	0	5	0	
0.302167	0.00730393	1.62698	0.000216092	0.061184	0	5	0	
0.302333	-0.011119	-1.6652	0.000203965	0.0612338	0	5	0	
0.3025	0.022899	1.68732	0.00024485	0.0613089	0	5	0	
0.302667	-0.0288021	-1.73382	0.000355159	0.0617303	0	5	0	
0.302833	0.0123521	1.686	0.000411259	0.0620553	0	5	0	
0.303	-0.00461352	-1.66103	0.000385045	0.0622446	0	5	0	
0.303167	-0.000570443	1.68284	0.000257178	0.0618496	0	5	0	
0.303333	-0.000471199	-1.71596	0.00017955	0.0613291	0	5	0	
0.3035	-0.0109234	1.74435	0.000109125	0.0608875	0	5	0	
0.303667	0.00903326	-1.78466	0.000185823	0.0608245	0	5	0	
0.303833	-0.00113145	1.78251	0.000313521	0.0608427	0	5	0	
0.304	-0.00887829	-1.80059	0.000398572	0.0611191	0	5	0	
0.304167	0.00934958	1.79792	0.000323726	0.061341	0	5	0	
0.304333	-0.0065566	-1.78445	0.000228225	0.0615628	0	5	0	
0.3045	-0.000689894	1.80157	0.000154081	0.0614035	0	5	0	
0.304667	0.00107076	-1.83187	0.000120901	0.0611605	0	5	0	
0.304833	0.00577772	1.8511	7.25512E-05	0.0610713	0	5	0	
0.305	-0.0045905	-1.86764	8.27188E-05	0.0612682	0	5	0	
0.305167	0.0131091	1.87312	0.000122143	0.0613736	0	5	0	
0.305333	-0.00824715	-1.89135	0.00017332	0.0613959	0	5	0	
0.3055	0.00143889	1.90616	0.000178875	0.0613234	0	5	0	
0.305667	0.00249994	-1.92165	0.000188115	0.0613919	0	5	0	
0.305833	-0.00275647	1.94076	0.000126261	0.0614482	0	5	0	
0.306	-0.00117898	-1.9771	9.81677E-05	0.0615819	0	5	0	
0.306167	0.01282	1.98254	8.98126E-05	0.0615537	0	5	0	
0.306333	-0.0120448	-1.99957	0.000149221	0.0616299	0	5	0	
0.3065	0.0114215	1.99888	0.000223127	0.0615898	0	5	0	
0.306667	-0.00281397	-2.01002	0.000261509	0.0616831	0	5	0	
0.306833	-0.00171341	2.01351	0.000214654	0.061607	0	5	0	
0.307	-0.0054754	-2.02701	0.000137989	0.0615069	0	5	0	
0.307167	0.00966113	2.04004	0.000118953	0.0612145	0	5	0	
0.307333	-0.013876	-2.07767	0.000152469	0.061107	0	5	0	
0.3075	0.00308522	2.08954	0.000204984	0.061055	0	5	0	
0.307667	0.0194806	-2.1195	0.000185336	0.0612929	0	5	0	
0.307833	-0.0296868	2.12984	0.00029467	0.0614401	0	5	0	
0.308	0.0126353	-2.13457	0.000400841	0.0615656	0	5	0	
0.308167	0.0119296	2.15559	0.000471215	0.061586	0	5	0	
0.308333	-0.0162892	-2.16285	0.000398325	0.0616231	0	5	0	
0.3085	0.0158491	2.16486	0.00031583	0.0616123	0	5	0	
0.308667	-0.00524086	-2.1778	0.000309767	0.0615585	0	5	0	
0.308833	-0.0163751	2.18393	0.000451191	0.0614035	0	5	0	
0.309	0.0222325	-2.20089	0.000582223	0.0612722	0	5	0	
0.309167	-8.95494E-05	2.24607	0.000522389	0.0612575	0	5	0	
0.309333	-0.0124327	-2.25237	0.000417492	0.0613532	0	5	0	
0.3095	0.0175992	2.25603	0.000287958	0.061466	0	5	0	
0.309667	-0.00853094	-2.26135	0.000314391	0.0615592	0	5	0	
0.309833	0.000837757	2.26937	0.000232339	0.0615158	0	5	0	
0.31	0.00213531	-2.29378	0.000170447	0.0614878	0	5	0	
0.310167	0.00219795	2.33292	0.000122761	0.0613796	0	5	0	
0.310333	-0.00127792	-2.3581	9.69108E-05	0.0614391	0	5	0	
0.3105	0.0046291	2.37373	8.45004E-05	0.0616445	0	5	0	
0.310667	-0.00313439	-2.36009	8.47082E-05	0.0618836	0	5	0	
0.310833	0.00340165	2.353	9.19915E-05	0.0619091	0	5	0	
0.311	-0.00464211	-2.37053	0.000104052	0.061802	0	5	0	
0.311167	0.00936827	2.39644	0.00010806	0.0615658	0	5	0	
0.311333	-0.0121193	-2.41286	0.000154059	0.061505	0	5	0	
0.3115	0.0175199	2.43037	0.000218695	0.0614177	0	5	0	
0.311667	-0.00465064	-2.43185	0.00024851	0.0613745	0	5	0	
0.311833	-0.0197498	2.4428	0.000296198	0.0613611	0	5	0	
0.312	0.0147993	-2.45294	0.000297702	0.0614241	0	5	0	
0.312167	0.017994	2.48671	0.00045086	0.0613971	0	5	0	
0.312333	-0.0437488	-2.5145	0.000491495	0.0614896	0	5	0	
0.3125	0.0276799	2.52652	0.000684063	0.061484	0	5	0	
0.312667	0.00491755	-2.52188	0.000833435	0.0618066	0	5	0	
0.312833	-0.0283264	2.50246	0.00103993	0.0618382	0	5	0	
0.313	0.0481078	-2.50157	0.00106957	0.0618463	0	5	0	
0.313167	-0.0470246	2.54301	0.00096558	0.0616296	0	5	0	
0.313333	0.000954717	-2.52782	0.000953428	0.0615124	0	5	0	
0.3135	0.0531367	2.51954	0.00110489	0.0611514	0	5	0	
0.313667	-0.0672894	-2.54191	0.00123651	0.0608806	0	5	0	
0.313833	0.0438272	2.56588	0.00122849	0.0606137	0	5	0	
0.314	-0.00344742	-2.60455	0.0010868	0.0608566	0	5	0	
0.314167	-0.0134268	2.64519	0.00094686	0.0611667	0	5	0	
0.314333	0.0142691	-2.66666	0.000715473	0.0615642	0	5	0	
0.3145	-0.00801154	2.69192	0.000445097	0.0619936	0	5	0	
0.314667	-0.00182443	-2.64274	0.000240857	0.0621433	0	5	0	
0.314833	0.00345962	2.61475	0.000148726	0.0621274	0	5	0	
0.315	-0.00150753	-2.63043	0.000131424	0.061796	0	5	0	
0.315167	-0.00290059	2.66421	0.000163898	0.0615421	0	5	0	
0.315333	0.012111	-2.67204	0.000180865	0.0613293	0	5	0	
0.3155	-0.00621678	2.69292	0.000208384	0.0612258	0	5	0	
0.315667	-0.00721637	-2.6835	0.000241927	0.060955	0	5	0	
0.315833	0.0120877	2.7077	0.000265441	0.0609138	0	5	0	
0.316	0.00305049	-2.72523	0.000260913	0.0609962	0	5	0	
0.316167	-0.0185441	2.7525	0.000228506	0.061393	0	5	0	
0.316333	0.0189628	-2.72465	0.000279928	0.0614734	0	5	0	
0.3165	0.0026871	2.74921	0.000316903	0.0613927	0	5	0	
0.316667	-0.00690959	-2.76104	0.000301832	0.0613073	0	5	0	
0.316833	0.00694933	2.7696	0.000217098	0.0613332	0	5	0	
0.317	-0.000460356	-2.77509	0.000143062	0.0613966	0	5	0	
0.317167	0.00775596	2.79039	9.33658E-05	0.0613901	0	5	0	
0.317333	-0.00160789	-2.7826	0.000130221	0.0613142	0	5	0	
0.3175	-0.00555388	2.82263	0.000198065	0.0612761	0	5	0	
0.317667	0.00614611	-2.85936	0.000201776	0.0614344	0	5	0	
0.317833	0.00355024	2.83413	0.000198227	0.0616449	0	5	0	
0.318	-0.00198909	-2.8308	0.000165344	0.0616261	0	5	0	
0.318167	0.00163946	2.85505	0.000157692	0.0614235	0	5	0	
0.318333	0.0114718	-2.84713	0.000126289	0.0612899	0	5	0	
0.3185	-0.00291275	2.84709	0.00012807	0.0612717	0	5	0	
0.318667	-0.00911749	-2.86246	0.000166012	0.0612596	0	5	0	
0.318833	0.0123522	2.84551	0.000199556	0.0611238	0	5	0	
0.319	-0.00211833	-2.87209	0.000181581	0.0609696	0	5	0	
0.319167	0.000702324	2.8917	0.000141656	0.0609367	0	5	0	
0.319333	0.00177421	-2.88931	9.62889E-05	0.0609949	0	5	0	
0.3195	0.00553823	2.9083	7.52948E-05	0.0611461	0	5	0	
0.319667	-0.00114234	-2.92369	9.74602E-05	0.0613072	0	5	0	
0.319833	0.00406702	2.92151	9.05959E-05	0.0614269	0	5	0	
0.32	-0.00454923	-2.91795	9.92312E-05	0.061464	0	5	0	
0.320167	-0.00200009	2.92138	9.27304E-05	0.061279	0	5	0	
0.320333	0.00190652	-2.94642	0.000107305	0.0611434	0	5	0	
0.3205	0.0052515	3.00198	0.000118337	0.0612189	0	5	0	
0.320667	-0.0069078	-3.01304	0.000142681	0.0615442	0	5	0	
0.320833	0.0128003	2.99718	0.000173663	0.0617808	0	5	0	
0.321	-0.0107746	-2.98577	0.000192982	0.0618374	0	5	0	
0.321167	0.00280627	2.99714	0.000197914	0.0616608	0	5	0	
0.321333	-0.00202889	-2.98465	0.000188831	0.0615437	0	5	0	
0.3215	-0.00126162	2.99237	0.000140233	0.061369	0	5	0	
0.321667	-0.00203852	-2.98414	9.35123E-05	0.0612006	0	5	0	
0.321833	0.00423852	2.99572	7.49289E-05	0.0609395	0	5	0	
0.322	0.000490255	-3.01792	7.60519E-05	0.0608978	0	5	0	
0.322167	0.00352477	3.02549	8.65493E-05	0.0609966	0	5	0	
0.322333	-0.0051209	-3.01189	8.07775E-05	0.0611311	0	5	0	
0.3225	0.00239804	3.03666	9.77623E-05	0.0610912	0	5	0	
0.322667	0.000107573	-3.06666	8.54195E-05	0.0611132	0	5	0	
0.322833	0.00458525	3.07184	8.26295E-05	0.0613006	0	5	0	
0.323	-0.000967119	-3.0602	7.80731E-05	0.0615578	0	5	0	
0.323167	0.00275849	3.05904	8.27209E-05	0.0616392	0	5	0	
0.323333	-0.00525119	-3.08338	7.61289E-05	0.0615566	0	5	0	
0.3235	0.0042049	3.10116	8.47456E-05	0.0615358	0	5	0	
0.323667	-0.0057719	-3.09153	9.30697E-05	0.0615361	0	5	0	
0.323833	0.00771376	3.10213	0.000114211	0.061558	0	5	0	
0.324	-0.000314015	-3.12819	0.00011577	0.0615866	0	5	0	
0.324167	-0.00603947	3.1503	0.000138121	0.0617167	0	5	0	
0.324333	0.00656507	-3.14953	0.000155341	0.0619129	0	5	0	
0.3245	-0.00691156	3.14802	0.000146211	0.0620231	0	5	0	
0.324667	0.00716325	-3.15039	0.000148921	0.0619509	0	5	0	
0.324833	-0.00205456	3.15717	0.000150827	0.0618565	0	5	0	
0.325	-0.00662093	-3.13849	0.000197569	0.0617265	0	5	0	
0.325167	0.0119309	3.14762	0.000248535	0.0615977	0	5	0	
0.325333	-0.0148892	-3.14525	0.000254607	0.0614785	0	5	0	
0.3255	0.0136218	3.14977	0.000283936	0.06138	0	5	0	
0.325667	0.00252476	-3.14803	0.00027211	0.061285	0	5	0	
0.325833	-0.000460325	3.18549	0.00026516	0.0611814	0	5	0	
0.326	0.00414617	-3.22477	0.000172444	0.0613315	0	5	0	
0.326167	-0.00403128	3.25742	0.000105744	0.0617747	0	5	0	
0.326333	0.00396707	-3.21102	8.55127E-05	0.0622256	0	5	0	
0.3265	0.00473004	3.19362	0.000128057	0.0622236	0	5	0	
0.326667	-0.00190652	-3.16724	0.000164108	0.0618373	0	5	0	
0.326833	0.00520141	3.16529	0.0001414	0.0613564	0	5	0	
0.327	-0.00252626	-3.16616	0.000122248	0.0610546	0	5	0	
0.327167	0.00335735	3.21049	0.000103408	0.0609685	0	5	0	
0.327333	-0.00353031	-3.22539	0.000126639	0.0611281	0	5	0	
0.3275	0.00651466	3.24553	0.000113269	0.0613603	0	5	0	
0.327667	-0.00217717	-3.22452	0.00010065	0.0616171	0	5	0	
0.327833	-0.00181309	3.2239	7.39745E-05	0.0616436	0	5	0	
0.328	-0.00138658	-3.2326	7.26979E-05	0.0615816	0	5	0	
0.328167	0.00847229	3.26581	0.000100157	0.061595	0	5	0	
0.328333	-0.00821737	-3.24206	0.000137175	0.0616905	0	5	0	
0.3285	-0.00391791	3.23676	0.000173452	0.0616993	0	5	0	
0.328667	0.00241294	-3.22987	0.000135531	0.0615574	0	5	0	
0.328833	0.0138918	3.23491	0.000198563	0.0613638	0	5	0	
0.329	-0.0203513	-3.23648	0.000222036	0.0612846	0	5	0	
0.329167	0.00222693	3.26007	0.000373155	0.0613096	0	5	0	
0.329333	0.0129773	-3.24905	0.000367623	0.0613979	0	5	0	
0.3295	-0.0166723	3.28968	0.000400201	0.0615167	0	5	0	
0.329667	0.00831077	-3.30505	0.000347088	0.0617788	0	5	0	
0.329833	-0.0115643	3.27602	0.000297083	0.0619939	0	5	0	
0.33	0.00516718	-3.17445	0.000297136	0.0616691	0	5	0	
0.330167	0.0208783	3.16283	0.000421779	0.0608058	0	5	0	
0.330333	-0.0334904	-3.1977	0.000561421	0.060083	0	5	0	
0.3305	0.0112738	3.25255	0.00059077	0.0600949	0	5	0	
0.330667	0.0122054	-3.26583	0.000627857	0.0606537	0	5	0	
0.330833	-0.0226401	3.29499	0.000628761	0.0611473	0	5	0	
0.331	0.0168159	-3.29504	0.00059891	0.0614451	0	5	0	
0.331167	-0.0116355	3.31663	0.000402346	0.0616355	0	5	0	
0.331333	0.00707317	-3.28031	0.000268789	0.0618322	0	5	0	
0.3315	0.00100392	3.25193	0.000238506	0.0618003	0	5	0	
0.331667	-0.0141466	-3.25561	0.000272644	0.061516	0	5	0	
0.331833	0.0140627	3.27235	0.000285967	0.0612063	0	5	0	
0.332	-0.00592321	-3.24647	0.000296553	0.0611283	0	5	0	
0.332167	-0.00432252	3.2162	0.000241191	0.0609687	0	5	0	
0.332333	-0.00264233	-3.16858	0.000179887	0.0605096	0	5	0	
0.3325	0.00448146	3.20418	0.000117123	0.0599822	0	5	0	
0.332667	-0.00343721	-3.26977	7.56898E-05	0.0599724	0	5	0	
0.332833	0.000194885	3.30393	8.36137E-05	0.0605805	0	5	0	
0.333	0.00183148	-3.31609	5.7807E-05	0.0613643	0	5	0	
0.333167	-0.00519652	3.33283	7.22746E-05	0.0619251	0	5	0	
0.333333	-0.00156003	-3.28509	8.38086E-05	0.0619815	0	5	0	
0.3335	0.00578744	3.32705	0.000118919	0.0619629	0	5	0	
0.333667	-0.0122194	-3.32997	0.000139964	0.0621126	0	5	0	
0.333833	0.0123246	3.30625	0.00018066	0.0622052	0	5	0	
0.334	-0.00421777	-3.28417	0.000201766	0.0621257	0	5	0	
0.334167	-0.00143604	3.24483	0.000239092	0.0616163	0	5	0	
0.334333	0.00825017	-3.2162	0.000202958	0.0611361	0	5	0	
0.3345	-0.000801212	3.2319	0.000158328	0.0607937	0	5	0	
0.334667	-0.00240055	-3.22118	0.000124271	0.060647	0	5	0	
0.334833	0.0047105	3.24145	0.000138847	0.0606095	0	5	0	
0.335	-0.0072559	-3.29078	0.000161687	0.0608543	0	5	0	
0.335167	0.0090376	3.28257	0.000168353	0.061149	0	5	0	
0.335333	-0.00284918	-3.2813	0.000129186	0.0614937	0	5	0	
0.3355	0.00248321	3.25988	0.000136975	0.0615492	0	5	0	
0.335667	0.00646398	-3.24643	9.59419E-05	0.0614176	0	5	0	
0.335833	-0.000722158	3.24407	0.000123323	0.0613404	0	5	0	
0.336	-0.00945243	-3.27446	0.000156856	0.0613987	0	5	0	
0.336167	0.00838135	3.28623	0.000203075	0.0615734	0	5	0	
0.336333	-0.00660246	-3.27363	0.000200916	0.0616918	0	5	0	
0.3365	0.00171227	3.25586	0.00016061	0.0616602	0	5	0	
0.336667	0.0021208	-3.23507	0.000106908	0.0615092	0	5	0	
0.336833	-0.00118997	3.22747	7.45087E-05	0.0612835	0	5	0	
0.337	0.00323215	-3.20653	5.28661E-05	0.0610164	0	5	0	
0.337167	-0.00432003	3.19244	7.56308E-05	0.060748	0	5	0	
0.337333	-0.000436917	-3.20613	0.000115126	0.0606255	0	5	0	
0.3375	0.00595445	3.24824	0.000166076	0.0607695	0	5	0	
0.337667	-0.0103039	-3.24288	0.000211019	0.0611441	0	5	0	
0.337833	0.0108633	3.24347	0.00022853	0.0614273	0	5	0	
0.338	-0.00629933	-3.2198	0.000208985	0.0615008	0	5	0	
0.338167	0.00360813	3.22883	0.000250204	0.0614905	0	5	0	
0.338333	-0.000928972	-3.22661	0.000380591	0.0614791	0	5	0	
0.3385	-0.0141018	3.25532	0.000608371	0.061606	0	5	0	
0.338667	0.0344796	-3.22602	0.000791515	0.0617266	0	5	0	
0.338833	-0.0402553	3.22841	0.000828002	0.0617912	0	5	0	
0.339	0.0151815	-3.21139	0.000727317	0.0616942	0	5	0	
0.339167	0.017831	3.19679	0.000610567	0.0615114	0	5	0	
0.339333	-0.0326279	-3.157	0.000515892	0.0612311	0	5	0	
0.3395	0.0219562	3.15635	0.000527379	0.0609609	0	5	0	
0.339667	-0.0184057	-3.15869	0.000521966	0.06081	0	5	0	
0.339833	0.0121135	3.21633	0.000512335	0.0610492	0	5	0	
0.34	-0.00861635	-3.21302	0.000397159	0.0615691	0	5	0	
0.340167	0.00596588	3.19516	0.000291563	0.0619683	0	5	0	
0.340333	-0.00822699	-3.18744	0.00020881	0.0620567	0	5	0	
0.3405	0.00898003	3.18948	0.000200647	0.0618939	0	5	0	
0.340667	-0.00141224	-3.1777	0.000223188	0.0617619	0	5	0	
0.340833	-0.0119315	3.17372	0.000250533	0.0617934	0	5	0	
0.341	0.00894414	-3.15841	0.000259786	0.0618439	0	5	0	
0.341167	0.00378631	3.14595	0.000208637	0.0618164	0	5	0	
0.341333	-0.00149101	-3.1238	0.000161615	0.0616133	0	5	0	
0.3415	-0.00152249	3.10048	8.73528E-05	0.061314	0	5	0	
0.341667	0.00261139	-3.10212	5.00684E-05	0.0611722	0	5	0	
0.341833	-0.00613907	3.25508	3.99091E-05	0.0617314	0	5	0	
0.342	0.00484348	-3.4535	8.84117E-05	0.0632082	0	5	0	
0.342167	0.00708161	3.52953	0.000149808	0.0649836	0	5	0	
0.342333	-0.0088345	-3.3108	0.00016805	0.0659269	0	5	0	
0.3425	-0.000468552	3.0839	0.000207712	0.0647822	0	5	0	
0.342667	0.0119233	-2.99622	0.000207226	0.0626742	0	5	0	
0.342833	-0.00217065	3.01768	0.000228878	0.0609219	0	5	0	
0.343	-0.00934723	-3.11946	0.000261369	0.0611008	0	5	0	
0.343167	0.0172574	3.32507	0.000278728	0.0631317	0	5	0	
0.343333	-0.0160373	-3.38576	0.000320127	0.0660358	0	5	0	
0.3435	0.00723889	3.28966	0.000299035	0.0675342	0	5	0	
0.343667	0.000972419	-3.11976	0.000285268	0.0667103	0	5	0	
0.343833	-0.00339242	3.01191	0.000204952	0.0641468	0	5	0	
0.344	0.00577789	-3.02409	0.000146449	0.062174	0	5	0	
0.344167	-0.00288955	3.075	0.000114571	0.0616058	0	5	0	
0.344333	0.000307723	-3.07491	0.000139977	0.0617639	0	5	0	
0.3445	0.00400692	2.99153	0.000126655	0.0618066	0	5	0	
