0	0.00235787	-0.139532	2.35787E-07	1.39532E-05	0	0	0	
0.000166667	-0.00746998	-0.0230306	2.78409E-05	0.00355851	0	0	0	
0.000333333	0.00687053	0.197397	9.51888E-05	0.00950249	0	0	0	
0.0005	-0.000130014	-0.310272	0.000191059	0.0157916	0	0	0	
0.000666667	-0.00162018	0.335926	0.000242999	0.0182382	0	0	0	
0.000833333	-0.000741399	-0.315214	0.000211753	0.0178897	0	0	0	
0.001	0.00353876	0.175169	0.000148485	0.0164895	0	0	0	
0.00116667	-0.00853753	0.154954	0.000126972	0.0151642	0	0	0	
0.00133333	0.0120158	-0.462508	0.000169948	0.0157972	0	0	0	
0.0015	-0.0135309	0.487085	0.000229779	0.0186147	0	0	0	
0.00166667	0.014659	-0.415381	0.000280485	0.0221979	0	0	0	
0.00183333	-0.0147299	0.407017	0.000319482	0.0238493	0	0	0	
0.002	0.0151227	-0.480711	0.000340129	0.0236141	0	0	0	
0.00216667	-0.0158767	0.535166	0.000348936	0.0230798	0	0	0	
0.00233333	0.0185871	-0.514668	0.000346452	0.0235406	0	0	0	
0.0025	-0.0175387	0.464398	0.000360364	0.0247405	0	0	0	
0.00266667	0.0124431	-0.444269	0.000365602	0.0256506	0	0	0	
0.00283333	-0.01307	0.433493	0.000354102	0.0259033	0	0	0	
0.003	0.0175367	-0.406121	0.000323788	0.0258084	0	0	0	
0.00316667	-0.0194279	0.393158	0.000320349	0.0255968	0	0	0	
0.00333333	0.0182111	-0.416071	0.000332065	0.0252098	0	0	0	
0.0035	-0.0163404	0.431716	0.000351621	0.0248122	0	0	0	
0.00366667	0.011249	-0.435403	0.000333685	0.0247353	0	0	0	
0.00383333	-0.0114277	0.432219	0.000308124	0.0248722	0	0	0	
0.004	0.0128648	-0.448821	0.000271963	0.024936	0	0	0	
0.00416667	-0.0143768	0.458336	0.000256267	0.0249037	0	0	0	
0.00433333	0.0148329	-0.446644	0.000262861	0.0249906	0	0	0	
0.0045	-0.0142818	0.439349	0.000278311	0.0251653	0	0	0	
0.00466667	0.014551	-0.454032	0.000294297	0.0252002	0	0	0	
0.00483333	-0.0147384	0.463241	0.000300077	0.0250468	0	0	0	
0.005	0.0102338	-0.468245	0.000292009	0.0249156	0	0	0	
0.00516667	-0.0103907	0.46058	0.000263594	0.0249054	0	0	0	
0.00533333	0.0159381	-0.463087	0.000249845	0.0249766	0	0	0	
0.0055	-0.0177941	0.477272	0.000273674	0.0249971	0	0	0	
0.00566667	0.0168662	-0.489148	0.000316599	0.024969	0	0	0	
0.00583333	-0.014907	0.490662	0.000346117	0.0249628	0	0	0	
0.006	0.0140993	-0.48573	0.000336127	0.0250042	0	0	0	
0.00616667	-0.0177997	0.483277	0.000323258	0.0250056	0	0	0	
0.00633333	0.0188508	-0.498601	0.000332403	0.0250036	0	0	0	
0.0065	-0.0128988	0.492488	0.000334682	0.0250676	0	0	0	
0.00666667	0.0130636	-0.482948	0.000322087	0.0251752	0	0	0	
0.00683333	-0.0187998	0.48811	0.000296945	0.0251209	0	0	0	
0.007	0.0188114	-0.499799	0.000309181	0.0249125	0	0	0	
0.00716667	-0.0172061	0.503788	0.000335024	0.0247286	0	0	0	
0.00733333	0.0172629	-0.521758	0.000349953	0.0247253	0	0	0	
0.0075	-0.0199166	0.529289	0.000347888	0.0248452	0	0	0	
0.00766667	0.0184143	-0.529362	0.000358757	0.0250065	0	0	0	
0.00783333	-0.0148327	0.520888	0.000355187	0.0251084	0	0	0	
0.008	0.0131568	-0.514177	0.000340027	0.0251438	0	0	0	
0.00816667	-0.0122427	0.50845	0.000297232	0.0250954	0	0	0	
0.00833333	0.0152305	-0.523718	0.000273259	0.0249695	0	0	0	
0.0085	-0.0196688	0.532274	0.000284342	0.0247844	0	0	0	
0.00866667	0.020349	-0.545887	0.000322993	0.0246809	0	0	0	
0.00883333	-0.0177846	0.543729	0.000360229	0.0247127	0	0	0	
0.009	0.0168938	-0.548545	0.000365435	0.0248639	0	0	0	
0.00916667	-0.0139047	0.542043	0.000350191	0.0250113	0	0	0	
0.00933333	0.0128168	-0.540095	0.00031647	0.0250803	0	0	0	
0.0095	-0.0130338	0.537586	0.000290776	0.0250148	0	0	0	
0.00966667	0.0172934	-0.556974	0.000277874	0.0249065	0	0	0	
0.00983333	-0.018078	0.562084	0.000302327	0.0248537	0	0	0	
0.01	0.0203743	-0.571237	0.000321514	0.0249103	0	0	0	
0.0101667	-0.0158188	0.581889	0.000352584	0.0250236	0	0	0	
0.0103333	0.013554	-0.582542	0.000335307	0.0251589	0	0	0	
0.0105	-0.0134971	0.571484	0.0003232	0.0252459	0	0	0	
0.0106667	0.0146486	-0.574564	0.000295873	0.0251912	0	0	0	
0.0108333	-0.0114626	0.582297	0.000286632	0.0250043	0	0	0	
0.011	0.0134139	-0.595866	0.000277414	0.0248603	0	0	0	
0.0111667	-0.0133057	0.603035	0.000276076	0.0248676	0	0	0	
0.0113333	0.0153683	-0.594217	0.00027702	0.0249587	0	0	0	
0.0115	-0.0146865	0.588493	0.000293174	0.0249904	0	0	0	
0.0116667	0.0160228	-0.593693	0.000290642	0.0249362	0	0	0	
0.0118333	-0.0182188	0.592727	0.000306513	0.0248766	0	0	0	
0.012	0.0208741	-0.59741	0.00032573	0.0248915	0	0	0	
0.0121667	-0.0164108	0.599214	0.00035222	0.024893	0	0	0	
0.0123333	0.0159187	-0.612051	0.000352352	0.0248719	0	0	0	
0.0125	-0.0167386	0.625579	0.000341166	0.0248665	0	0	0	
0.0126667	0.01655	-0.627234	0.000326989	0.0249451	0	0	0	
0.0128333	-0.0158676	0.618334	0.000332026	0.0250241	0	0	0	
0.013	0.01638	-0.623908	0.000331856	0.0250323	0	0	0	
0.0131667	-0.0171972	0.627866	0.00033735	0.0249754	0	0	0	
0.0133333	0.0161923	-0.635023	0.000335789	0.0249917	0	0	0	
0.0135	-0.0148127	0.626566	0.000329855	0.0250311	0	0	0	
0.0136667	0.0152521	-0.625606	0.000318958	0.0250162	0	0	0	
0.0138333	-0.0183055	0.631225	0.000319391	0.0248697	0	0	0	
0.014	0.0192647	-0.645544	0.000338685	0.0247598	0	0	0	
0.0141667	-0.0189407	0.644254	0.000354305	0.0247894	0	0	0	
0.0143333	0.014027	-0.646965	0.000350692	0.0249202	0	0	0	
0.0145	-0.011531	0.654733	0.00030802	0.0250011	0	0	0	
0.0146667	0.0132236	-0.663001	0.000271266	0.0250731	0	0	0	
0.0148333	-0.0136952	0.648556	0.000252731	0.0251451	0	0	0	
0.015	0.0129491	-0.6469	0.000255524	0.0251728	0	0	0	
0.0151667	-0.0201702	0.654855	0.000276134	0.0250657	0	0	0	
0.0153333	0.0235671	-0.672049	0.000324972	0.0249608	0	0	0	
0.0155	-0.0197662	0.674927	0.000382582	0.0249632	0	0	0	
0.0156667	0.0141383	-0.676532	0.000408815	0.0250623	0	0	0	
0.0158333	-0.0121073	0.677748	0.000376216	0.0251208	0	0	0	
0.016	0.0103417	-0.677524	0.000308873	0.0250922	0	0	0	
0.0161667	-0.0123691	0.680143	0.000254869	0.0250589	0	0	0	
0.0163333	0.0145284	-0.689577	0.000237041	0.0250616	0	0	0	
0.0165	-0.0166168	0.685691	0.000261815	0.0251035	0	0	0	
0.0166667	0.0180507	-0.681395	0.000297095	0.0251403	0	0	0	
0.0168333	-0.018891	0.683983	0.000328672	0.0250818	0	0	0	
0.017	0.0168199	-0.701158	0.000339968	0.0249369	0	0	0	
0.0171667	-0.0115489	0.710505	0.000329845	0.0248944	0	0	0	
0.0173333	0.0093275	-0.689125	0.000290075	0.0250406	0	0	0	
0.0175	-0.012673	0.690422	0.000251423	0.0251452	0	0	0	
0.0176667	0.0159444	-0.720307	0.000244049	0.0250317	0	0	0	
0.0178333	-0.0179719	0.725774	0.000276948	0.0249623	0	0	0	
0.018	0.0185441	-0.698371	0.000316335	0.0251127	0	0	0	
0.0181667	-0.0169386	0.697609	0.000336051	0.0251524	0	0	0	
0.0183333	0.0124432	-0.74129	0.000323935	0.0249719	0	0	0	
0.0185	-0.0136533	0.743062	0.000297005	0.0248801	0	0	0	
0.0186667	0.0130113	-0.710986	0.0002773	0.025095	0	0	0	
0.0188333	-0.015851	0.712349	0.000274399	0.0251945	0	0	0	
0.019	0.0180397	-0.746962	0.000301263	0.025044	0	0	0	
0.0191667	-0.0195457	0.74125	0.000328275	0.0248833	0	0	0	
0.0193333	0.0174278	-0.730025	0.000344544	0.0249368	0	0	0	
0.0195	-0.0189969	0.733776	0.000343827	0.0249291	0	0	0	
0.0196667	0.0155077	-0.757593	0.000337107	0.0248327	0	0	0	
0.0198333	-0.0154502	0.76345	0.000322347	0.0248654	0	0	0	
0.02	0.0145118	-0.75684	0.000318993	0.0250876	0	0	0	
0.0201667	-0.0121762	0.745933	0.000286274	0.0252105	0	0	0	
0.0203333	0.0123349	-0.744866	0.000273462	0.0251202	0	0	0	
0.0205	-0.0151502	0.741175	0.000255435	0.0249165	0	0	0	
0.0206667	0.0174862	-0.76162	0.000291374	0.0247661	0	0	0	
0.0208333	-0.0207646	0.789303	0.000327802	0.024714	0	0	0	
0.021	0.022038	-0.792527	0.00037599	0.0248181	0	0	0	
0.0211667	-0.0175435	0.77916	0.000378877	0.0250276	0	0	0	
0.0213333	0.0137403	-0.768145	0.000360396	0.0251594	0	0	0	
0.0215	-0.0109346	0.770167	0.000303817	0.0251388	0	0	0	
0.0216667	0.0137618	-0.774261	0.000272994	0.0250556	0	0	0	
0.0218333	-0.0180023	0.777347	0.000276576	0.024962	0	0	0	
0.022	0.0205353	-0.784649	0.000317492	0.0248426	0	0	0	
0.0221667	-0.0181512	0.805351	0.000350934	0.024785	0	0	0	
0.0223333	0.0147151	-0.805834	0.000351342	0.0249111	0	0	0	
0.0225	-0.00964986	0.796288	0.000332587	0.025131	0	0	0	
0.0226667	0.00934576	-0.798887	0.000282076	0.025188	0	0	0	
0.0228333	-0.0101848	0.812668	0.000240394	0.0250675	0	0	0	
0.023	0.0128129	-0.805994	0.000208485	0.0249915	0	0	0	
0.0231667	-0.015949	0.802625	0.000229896	0.0250542	0	0	0	
0.0233333	0.0201353	-0.81245	0.000271323	0.0250802	0	0	0	
0.0235	-0.0191569	0.826989	0.000334055	0.0250011	0	0	0	
0.0236667	0.0145319	-0.825754	0.000357023	0.0249644	0	0	0	
0.0238333	-0.0116351	0.816322	0.000337937	0.0250305	0	0	0	
0.024	0.0130449	-0.825722	0.000286154	0.0251332	0	0	0	
0.0241667	-0.015519	0.83717	0.000257978	0.025162	0	0	0	
0.0243333	0.0184462	-0.83891	0.000279068	0.0251669	0	0	0	
0.0245	-0.0179945	0.831196	0.000318559	0.0251597	0	0	0	
0.0246667	0.0136614	-0.830851	0.000338631	0.0250995	0	0	0	
0.0248333	-0.0112752	0.842547	0.000309921	0.0250059	0	0	0	
0.025	0.011048	-0.860127	0.000261442	0.0250022	0	0	0	
0.0251667	-0.0124595	0.854756	0.00022861	0.0251033	0	0	0	
0.0253333	0.0183225	-0.846475	0.0002443	0.0252054	0	0	0	
0.0255	-0.0228125	0.848084	0.000305753	0.0251789	0	0	0	
0.0256667	0.0209861	-0.851963	0.000367184	0.0250715	0	0	0	
0.0258333	-0.019167	0.859292	0.000396491	0.0250305	0	0	0	
0.026	0.0185413	-0.868178	0.000384251	0.0250974	0	0	0	
0.0261667	-0.013114	0.869812	0.000353396	0.0251659	0	0	0	
0.0263333	0.013236	-0.878822	0.000308907	0.0251946	0	0	0	
0.0265	-0.0156431	0.879686	0.000293149	0.025165	0	0	0	
0.0266667	0.0143954	-0.872757	0.000288279	0.0251864	0	0	0	
0.0268333	-0.0144139	0.868974	0.000309998	0.0251922	0	0	0	
0.027	0.0148186	-0.873952	0.000295985	0.0251839	0	0	0	
0.0271667	-0.0146941	0.876647	0.000301147	0.0250661	0	0	0	
0.0273333	0.0173947	-0.890131	0.000296146	0.0249636	0	0	0	
0.0275	-0.018441	0.894316	0.00031919	0.0249191	0	0	0	
0.0276667	0.0131094	-0.895319	0.000311299	0.0250274	0	0	0	
0.0278333	-0.0106298	0.896925	0.000297374	0.0251418	0	0	0	
0.028	0.00949412	-0.902729	0.000249906	0.0252378	0	0	0	
0.0281667	-0.0133202	0.898796	0.0002401	0.0252432	0	0	0	
0.0283333	0.0205497	-0.897787	0.000263648	0.0252041	0	0	0	
0.0285	-0.0211883	0.897978	0.000325237	0.0251001	0	0	0	
0.0286667	0.0175899	-0.903777	0.000359549	0.0250269	0	0	0	
0.0288333	-0.0165423	0.907143	0.000365138	0.0249743	0	0	0	
0.029	0.0151425	-0.915392	0.000335865	0.0249725	0	0	0	
0.0291667	-0.0125706	0.921073	0.00030474	0.0249984	0	0	0	
0.0293333	0.0139268	-0.920175	0.000283643	0.0250788	0	0	0	
0.0295	-0.0158126	0.913288	0.000294424	0.0251452	0	0	0	
0.0296667	0.0196436	-0.909151	0.000323682	0.0251466	0	0	0	
0.0298333	-0.0213192	0.911186	0.000360977	0.0250369	0	0	0	
0.03	0.0208066	-0.921606	0.000381504	0.0248928	0	0	0	
0.0301667	-0.0210626	0.934355	0.000399606	0.0248161	0	0	0	
0.0303333	0.0191966	-0.944447	0.000398035	0.0248874	0	0	0	
0.0305	-0.0128016	0.944899	0.000363827	0.025056	0	0	0	
0.0306667	0.00764927	-0.938621	0.000294759	0.0252282	0	0	0	
0.0308333	-0.0104628	0.929956	0.000228112	0.0253053	0	0	0	
0.031	0.0143443	-0.920742	0.000224009	0.0252452	0	0	0	
0.0311667	-0.018053	0.925977	0.000268598	0.0250801	0	0	0	
0.0313333	0.0197218	-0.939988	0.000330865	0.0249224	0	0	0	
0.0315	-0.0180523	0.953392	0.000351861	0.0248641	0	0	0	
0.0316667	0.0152396	-0.960125	0.000346836	0.0249387	0	0	0	
0.0318333	-0.0152531	0.9623	0.000321833	0.025059	0	0	0	
0.032	0.0173603	-0.965553	0.000317347	0.0251631	0	0	0	
0.0321667	-0.0198878	0.969054	0.000327765	0.0252089	0	0	0	
0.0323333	0.0185467	-0.961908	0.000357876	0.0252483	0	0	0	
0.0325	-0.0159744	0.947279	0.000354538	0.0251985	0	0	0	
0.0326667	0.0143965	-0.954931	0.00033525	0.0250805	0	0	0	
0.0328333	-0.0133084	0.968388	0.000300784	0.0249471	0	0	0	
0.033	0.0126253	-0.977955	0.000283268	0.024964	0	0	0	
0.0331667	-0.0146732	0.976455	0.000278352	0.0250483	0	0	0	
0.0333333	0.0158267	-0.976052	0.000287065	0.0250853	0	0	0	
0.0335	-0.0167574	0.979655	0.000306503	0.0250567	0	0	0	
0.0336667	0.0161305	-0.980812	0.00032141	0.0250722	0	0	0	
0.0338333	-0.0154587	0.966285	0.000315303	0.0250818	0	0	0	
0.034	0.0118412	-0.964083	0.000296191	0.0250328	0	0	0	
0.0341667	-0.0130669	0.972812	0.000274643	0.0248678	0	0	0	
0.0343333	0.0149666	-0.993416	0.000260371	0.024775	0	0	0	
0.0345	-0.0117402	1.00907	0.000264068	0.0248778	0	0	0	
0.0346667	0.0122568	-0.994525	0.000268738	0.0250831	0	0	0	
0.0348333	-0.021243	0.979399	0.00029607	0.025153	0	0	0	
0.035	0.0207746	-0.993042	0.000336529	0.0250658	0	0	0	
0.0351667	-0.0134927	1.00154	0.00035336	0.024938	0	0	0	
0.0353333	0.0120975	-1.01282	0.000322879	0.0249548	0	0	0	
0.0355	-0.00876547	1.02043	0.000261171	0.0250529	0	0	0	
0.0356667	0.00814261	-1.01599	0.000210753	0.0251449	0	0	0	
0.0358333	-0.0124011	1.01081	0.000222254	0.0251778	0	0	0	
0.036	0.015261	-1.00518	0.000276603	0.0251291	0	0	0	
0.0361667	-0.0200695	0.999251	0.000355279	0.0250138	0	0	0	
0.0363333	0.0210637	-1.01501	0.000395194	0.0249022	0	0	0	
0.0365	-0.0154427	1.02946	0.000374941	0.0248813	0	0	0	
0.0366667	0.00993068	-1.03067	0.000322798	0.0249952	0	0	0	
0.0368333	-0.00908915	1.02311	0.000256371	0.0250855	0	0	0	
0.037	0.0123389	-1.0242	0.00021654	0.0250995	0	0	0	
0.0371667	-0.0121535	1.02211	0.000207596	0.0250232	0	0	0	
0.0373333	0.0075635	-1.03145	0.000216539	0.0249916	0	0	0	
0.0375	-0.00916306	1.04717	0.000211957	0.0249952	0	0	0	
0.0376667	0.00949776	-1.05272	0.000207693	0.0251052	0	0	0	
0.0378333	-0.0162096	1.04353	0.000239202	0.0252015	0	0	0	
0.038	0.0239887	-1.04043	0.000320977	0.0252501	0	0	0	
0.0381667	-0.0242032	1.03525	0.00041074	0.0251259	0	0	0	
0.0383333	0.0213482	-1.04214	0.000448724	0.0249973	0	0	0	
0.0385	-0.0162151	1.0542	0.000423516	0.0249147	0	0	0	
0.0386667	0.00774786	-1.05669	0.000343842	0.0249792	0	0	0	
0.0388333	-0.00876901	1.05784	0.000267731	0.0250331	0	0	0	
0.039	0.00838273	-1.05918	0.00021548	0.0250678	0	0	0	
0.0391667	-0.0104481	1.05716	0.000221309	0.0250351	0	0	0	
0.0393333	0.0139952	-1.05722	0.000246089	0.0250887	0	0	0	
0.0395	-0.0145683	1.05082	0.000268413	0.0250897	0	0	0	
0.0396667	0.0109618	-1.05043	0.000273705	0.0250592	0	0	0	
0.0398333	-0.00732753	1.05805	0.000249735	0.0249159	0	0	0	
0.04	0.0104505	-1.0723	0.000240877	0.0248809	0	0	0	
0.0401667	-0.0156901	1.07706	0.000257285	0.0249266	0	0	0	
0.0403333	0.0185876	-1.07087	0.000303429	0.0250703	0	0	0	
0.0405	-0.0205271	1.05682	0.000350558	0.0250835	0	0	0	
0.0406667	0.0197506	-1.06619	0.000378859	0.02502	0	0	0	
0.0408333	-0.01123	1.07485	0.000357804	0.0249027	0	0	0	
0.041	0.00751358	-1.08347	0.000294916	0.0249068	0	0	0	
0.0411667	-0.00759434	1.09201	0.000213907	0.0249755	0	0	0	
0.0413333	0.00944213	-1.09848	0.000196625	0.025081	0	0	0	
0.0415	-0.0119097	1.09595	0.000225595	0.025164	0	0	0	
0.0416667	0.014036	-1.08746	0.000268691	0.0252329	0	0	0	
0.0418333	-0.0151991	1.08075	0.000301038	0.0251954	0	0	0	
0.042	0.0182781	-1.08512	0.00031259	0.0250893	0	0	0	
0.0421667	-0.0123496	1.09437	0.000315358	0.0249553	0	0	0	
0.0423333	0.0081399	-1.10265	0.000271611	0.0249267	0	0	0	
0.0425	-0.0128058	1.10189	0.000244186	0.0249916	0	0	0	
0.0426667	0.0140461	-1.09603	0.00023115	0.0250666	0	0	0	
0.0428333	-0.0132404	1.10832	0.00025721	0.025102	0	0	0	
0.043	0.0175848	-1.1131	0.000285083	0.025109	0	0	0	
0.0431667	-0.0180836	1.11018	0.000322023	0.0251389	0	0	0	
0.0433333	0.0155498	-1.10625	0.000335288	0.0251558	0	0	0	
0.0435	-0.0147054	1.11823	0.000325802	0.0251503	0	0	0	
0.0436667	0.0112253	-1.1171	0.00028239	0.0251312	0	0	0	
0.0438333	-0.0137956	1.11527	0.000262328	0.0251336	0	0	0	
0.044	0.0173487	-1.11185	0.000277319	0.0250952	0	0	0	
0.0441667	-0.0168148	1.11883	0.000320316	0.0250333	0	0	0	
0.0443333	0.0172219	-1.12627	0.000349648	0.0250129	0	0	0	
0.0445	-0.0183225	1.12881	0.0003526	0.025032	0	0	0	
0.0446667	0.0139307	-1.12836	0.000326838	0.0250953	0	0	0	
0.0448333	-0.00833694	1.13104	0.000290653	0.0251243	0	0	0	
0.045	0.00365884	-1.12977	0.000226278	0.0251609	0	0	0	
0.0451667	-0.00860882	1.12706	0.000201466	0.025138	0	0	0	
0.0453333	0.0129905	-1.13408	0.00024397	0.0251234	0	0	0	
0.0455	-0.0195487	1.12958	0.000327519	0.0250792	0	0	0	
0.0456667	0.0239798	-1.12609	0.0003953	0.0250447	0	0	0	
0.0458333	-0.0181859	1.13409	0.000412765	0.0249674	0	0	0	
0.046	0.0158234	-1.16247	0.00038968	0.0249399	0	0	0	
0.0461667	-0.0127907	1.18347	0.000343329	0.0250697	0	0	0	
0.0463333	0.0100333	-1.15239	0.000292555	0.025341	0	0	0	
0.0465	-0.0120887	1.11216	0.000271594	0.0254116	0	0	0	
0.0466667	0.0131628	-1.12709	0.000281397	0.0251553	0	0	0	
0.0468333	-0.00994354	1.15047	0.000294036	0.0248283	0	0	0	
0.047	0.0117773	-1.13355	0.00029093	0.0247345	0	0	0	
0.0471667	-0.0100082	1.13468	0.000274253	0.0247422	0	0	0	
0.0473333	0.0112353	-1.17367	0.000259253	0.0247382	0	0	0	
0.0475	-0.0116047	1.18718	0.000259464	0.0248597	0	0	0	
0.0476667	0.0110524	-1.14863	0.000261515	0.0251586	0	0	0	
0.0478333	-0.0129672	1.12495	0.000267682	0.0252322	0	0	0	
0.048	0.0111511	-1.14486	0.000266192	0.0250238	0	0	0	
0.0481667	-0.0078392	1.16257	0.000239726	0.0247959	0	0	0	
0.0483333	0.0110834	-1.1562	0.000228555	0.0248465	0	0	0	
0.0485	-0.0141247	1.1485	0.000251844	0.0249245	0	0	0	
0.0486667	0.011848	-1.15944	0.000292456	0.0249038	0	0	0	
0.0488333	-0.0123463	1.17599	0.000289034	0.0248511	0	0	0	
0.049	0.0122282	-1.18031	0.000261481	0.0249811	0	0	0	
0.0491667	-0.0131385	1.17978	0.000241237	0.0251579	0	0	0	
0.0493333	0.014764	-1.17494	0.000264588	0.0252614	0	0	0	
0.0495	-0.0130404	1.16503	0.000283426	0.0251707	0	0	0	
0.0496667	0.0134595	-1.1676	0.000298146	0.0250679	0	0	0	
0.0498333	-0.0174586	1.17699	0.000300087	0.024973	0	0	0	
0.05	0.0171036	-1.18278	0.000315927	0.0249863	0	0	0	
0.0501667	-0.0150884	1.18972	0.000320655	0.0250196	0	0	0	
0.0503333	0.0132596	-1.18431	0.000315754	0.0250788	0	0	0	
0.0505	-0.00807547	1.18491	0.000283547	0.0250839	0	0	0	
0.0506667	0.00947978	-1.18744	0.000254165	0.0251134	0	0	0	
0.0508333	-0.00836824	1.18049	0.00023022	0.025084	0	0	0	
0.051	0.0106819	-1.18436	0.000212988	0.0250544	0	0	0	
0.0511667	-0.0120541	1.19759	0.000228887	0.0249963	0	0	0	
0.0513333	0.0124026	-1.1972	0.000256107	0.0250601	0	0	0	
0.0515	-0.0128563	1.19348	0.000284003	0.0251308	0	0	0	
0.0516667	0.0144746	-1.19982	0.000288819	0.0251851	0	0	0	
0.0518333	-0.015138	1.20555	0.000290525	0.0251547	0	0	0	
0.052	0.0186906	-1.19281	0.000311404	0.0251553	0	0	0	
0.0521667	-0.0168238	1.17324	0.000334572	0.0250577	0	0	0	
0.0523333	0.0147288	-1.19224	0.000327266	0.0249252	0	0	0	
0.0525	-0.0121655	1.21678	0.000307941	0.0248259	0	0	0	
0.0526667	0.00383594	-1.22908	0.000244122	0.0249474	0	0	0	
0.0528333	-0.00229973	1.22956	0.000181286	0.0251956	0	0	0	
0.053	0.0047409	-1.20892	0.000156963	0.0254247	0	0	0	
0.0531667	-0.00898098	1.17072	0.000183634	0.0253689	0	0	0	
0.0533333	0.0144817	-1.16293	0.000259955	0.0250517	0	0	0	
0.0535	-0.0206495	1.18422	0.000320714	0.0246419	0	0	0	
0.0536667	0.020575	-1.21406	0.000375254	0.0244988	0	0	0	
0.0538333	-0.0208071	1.23506	0.000408942	0.0247004	0	0	0	
0.054	0.0141639	-1.2408	0.000390169	0.0250681	0	0	0	
0.0541667	-0.0122667	1.23251	0.000331724	0.0253235	0	0	0	
0.0543333	0.0116498	-1.20743	0.000280311	0.0253685	0	0	0	
0.0545	-0.0126352	1.19389	0.000260323	0.0252264	0	0	0	
0.0546667	0.0101521	-1.19526	0.000274127	0.0250036	0	0	0	
0.0548333	-0.0104209	1.21073	0.000274242	0.0248102	0	0	0	
0.055	0.0115317	-1.21381	0.000288895	0.0247466	0	0	0	
0.0551667	-0.0166353	1.21867	0.000302466	0.024808	0	0	0	
0.0553333	0.0154596	-1.21241	0.000329228	0.0248714	0	0	0	
0.0555	-0.0130428	1.23172	0.000318422	0.0249155	0	0	0	
0.0556667	0.00909574	-1.23421	0.000292637	0.0250085	0	0	0	
0.0558333	-0.0081414	1.22208	0.000259632	0.025109	0	0	0	
0.056	0.0133761	-1.19891	0.000271277	0.0250901	0	0	0	
0.0561667	-0.0168917	1.19948	0.00032285	0.0249091	0	0	0	
0.0563333	0.0165031	-1.20695	0.000367173	0.0246931	0	0	0	
0.0565	-0.0154912	1.23654	0.00036604	0.0246373	0	0	0	
0.0566667	0.0142868	-1.25694	0.000333556	0.0248134	0	0	0	
0.0568333	-0.0123053	1.26727	0.000297362	0.02516	0	0	0	
0.057	0.0127698	-1.24074	0.00026868	0.0254352	0	0	0	
0.0571667	-0.0109578	1.20179	0.000257204	0.025362	0	0	0	
0.0573333	0.00790318	-1.1945	0.000244415	0.0250142	0	0	0	
0.0575	-0.00711922	1.21613	0.000248026	0.0246398	0	0	0	
0.0576667	0.0102114	-1.24898	0.000255198	0.0245924	0	0	0	
0.0578333	-0.0134813	1.26172	0.000287999	0.0248077	0	0	0	
0.058	0.0160907	-1.2459	0.000324256	0.0250796	0	0	0	
0.0581667	-0.0165761	1.2314	0.000353656	0.0251188	0	0	0	
0.0583333	0.0140363	-1.23907	0.000351678	0.0250781	0	0	0	
0.0585	-0.0113572	1.23338	0.000320215	0.0250011	0	0	0	
0.0586667	0.00751318	-1.23334	0.000262881	0.0250131	0	0	0	
0.0588333	-0.00928689	1.23984	0.000236315	0.0249153	0	0	0	
0.059	0.0132655	-1.2632	0.000253956	0.0249106	0	0	0	
0.0591667	-0.0147363	1.2735	0.000291756	0.025029	0	0	0	
0.0593333	0.0133488	-1.25313	0.000307181	0.0252667	0	0	0	
0.0595	-0.0119328	1.22543	0.000300016	0.02529	0	0	0	
0.0596667	0.00749141	-1.20686	0.000265945	0.0250441	0	0	0	
0.0598333	-0.00718307	1.20366	0.000228997	0.024606	0	0	0	
0.06	0.00775958	-1.23357	0.000205339	0.024331	0	0	0	
0.0601667	-0.0110871	1.28999	0.000220397	0.0244096	0	0	0	
0.0603333	0.0133954	-1.28761	0.000260484	0.0248485	0	0	0	
0.0605	-0.0145675	1.22496	0.000289356	0.0251427	0	0	0	
0.0606667	0.0142846	-1.24698	0.000306935	0.0251573	0	0	0	
0.0608333	-0.013314	1.26127	0.000292356	0.0250456	0	0	0	
0.061	0.0128466	-1.23753	0.00028762	0.0249706	0	0	0	
0.0611667	-0.0140668	1.22306	0.000294583	0.0248568	0	0	0	
0.0613333	0.0170244	-1.25096	0.000330732	0.0246545	0	0	0	
0.0615	-0.0169274	1.27163	0.000357114	0.0246629	0	0	0	
0.0616667	0.0160533	-1.28328	0.000364608	0.0249525	0	0	0	
0.0618333	-0.0139384	1.23248	0.000344395	0.0251821	0	0	0	
0.062	0.0126311	-1.21919	0.000318203	0.0249672	0	0	0	
0.0621667	-0.0104735	1.24611	0.000296656	0.0245823	0	0	0	
0.0623333	0.0122811	-1.27844	0.000288559	0.0244601	0	0	0	
0.0625	-0.014271	1.27473	0.000309646	0.0247326	0	0	0	
0.0626667	0.0155812	-1.24833	0.000335136	0.0249638	0	0	0	
0.0628333	-0.0173945	1.24158	0.000359353	0.0248992	0	0	0	
0.063	0.0143454	-1.253	0.000346416	0.0247559	0	0	0	
0.0631667	-0.0121513	1.25445	0.000325075	0.0246599	0	0	0	
0.0633333	0.0116713	-1.25075	0.000313358	0.024704	0	0	0	
0.0635	-0.0122046	1.24826	0.000314469	0.0246883	0	0	0	
0.0636667	0.0125947	-1.26216	0.000293683	0.0246995	0	0	0	
0.0638333	-0.011498	1.27346	0.000276329	0.0247259	0	0	0	
0.064	0.0111425	-1.25336	0.000261018	0.0248193	0	0	0	
0.0641667	-0.0118951	1.24268	0.000284391	0.0247591	0	0	0	
0.0643333	0.00895734	-1.25405	0.000300895	0.0246336	0	0	0	
0.0645	-0.0123955	1.26581	0.000321343	0.0245441	0	0	0	
0.0646667	0.0182584	-1.26704	0.000351386	0.0246284	0	0	0	
0.0648333	-0.0162859	1.26563	0.000395321	0.0247364	0	0	0	
0.065	0.0105559	-1.25491	0.000385812	0.0247719	0	0	0	
0.0651667	-0.00676275	1.25584	0.000326545	0.0247074	0	0	0	
0.0653333	0.00607584	-1.25111	0.000255987	0.0246485	0	0	0	
0.0655	-0.0117126	1.24846	0.000244898	0.0245536	0	0	0	
0.0656667	0.0110617	-1.25939	0.00026865	0.0245588	0	0	0	
0.0658333	-0.00676658	1.26902	0.000267495	0.0245684	0	0	0	
0.066	0.00486171	-1.26382	0.000225954	0.024669	0	0	0	
0.0661667	-0.00719677	1.2612	0.000183128	0.0246844	0	0	0	
0.0663333	0.00895786	-1.25935	0.000175536	0.0246841	0	0	0	
0.0665	-0.0108955	1.257	0.000212334	0.0245992	0	0	0	
0.0666667	0.0106109	-1.26625	0.000276532	0.0246015	0	0	0	
0.0668333	-0.0145418	1.27114	0.000334077	0.0246101	0	0	0	
0.067	0.0147286	-1.26471	0.000370682	0.02468	0	0	0	
0.0671667	-0.0141783	1.25903	0.000360247	0.0246828	0	0	0	
0.0673333	0.01551	-1.25557	0.000331504	0.0246345	0	0	0	
0.0675	-0.0137779	1.26661	0.000316659	0.02457	0	0	0	
0.0676667	0.0123415	-1.27303	0.000311969	0.0245619	0	0	0	
0.0678333	-0.0114946	1.27804	0.000315179	0.0246267	0	0	0	
0.068	0.0101874	-1.27549	0.000309048	0.0247271	0	0	0	
0.0681667	-0.0116496	1.27895	0.000300811	0.0247904	0	0	0	
0.0683333	0.0129861	-1.26604	0.000290998	0.0247837	0	0	0	
0.0685	-0.0119408	1.25517	0.000286746	0.0246752	0	0	0	
0.0686667	0.0104549	-1.25817	0.000284692	0.0245383	0	0	0	
0.0688333	-0.00891335	1.27684	0.00029061	0.0244953	0	0	0	
0.069	0.0102631	-1.27628	0.000298478	0.0245901	0	0	0	
0.0691667	-0.0162572	1.2649	0.000328615	0.0246768	0	0	0	
0.0693333	0.019388	-1.26193	0.0003746	0.0246314	0	0	0	
0.0695	-0.0191635	1.26744	0.000415262	0.0245426	0	0	0	
0.0696667	0.0133954	-1.26948	0.000407226	0.0244982	0	0	0	
0.0698333	-0.0114508	1.2809	0.000368347	0.0245634	0	0	0	
0.07	0.0117154	-1.28054	0.000338513	0.0246409	0	0	0	
0.0701667	-0.0114031	1.28234	0.0003407	0.0247368	0	0	0	
0.0703333	0.00917044	-1.27791	0.000363094	0.0247546	0	0	0	
0.0705	-0.00967293	1.28738	0.00037581	0.0247724	0	0	0	
0.0706667	0.00904351	-1.27629	0.000370797	0.0247735	0	0	0	
0.0708333	-0.00977806	1.27178	0.000343663	0.0247515	0	0	0	
0.071	0.0135753	-1.27292	0.000325808	0.0246816	0	0	0	
0.0711667	-0.0140674	1.29822	0.000329848	0.0246673	0	0	0	
0.0713333	0.0121855	-1.30476	0.000329753	0.0248006	0	0	0	
0.0715	-0.0113905	1.29453	0.000298775	0.0249389	0	0	0	
0.0716667	0.00783861	-1.27589	0.000249598	0.0249481	0	0	0	
0.0718333	-0.00790313	1.27653	0.000220374	0.02479	0	0	0	
0.072	0.011765	-1.2743	0.000258929	0.02466	0	0	0	
0.0721667	-0.014329	1.27105	0.000337927	0.0245593	0	0	0	
0.0723333	0.0159226	-1.27406	0.000409055	0.0245306	0	0	0	
0.0725	-0.0199517	1.29396	0.000445202	0.0245406	0	0	0	
0.0726667	0.0194658	-1.30932	0.000450446	0.0246976	0	0	0	
0.0728333	-0.0170726	1.2977	0.000437038	0.0248868	0	0	0	
0.073	0.0100182	-1.27037	0.000385647	0.0249101	0	0	0	
0.0731667	-0.00777138	1.27453	0.000330332	0.024742	0	0	0	
0.0733333	0.0106256	-1.28994	0.000310091	0.0246019	0	0	0	
0.0735	-0.0103945	1.29493	0.000324499	0.0246356	0	0	0	
0.0736667	0.00862154	-1.28552	0.000325497	0.0247421	0	0	0	
0.0738333	-0.0111995	1.27819	0.000304233	0.0247101	0	0	0	
0.074	0.00962482	-1.27799	0.000278366	0.0246176	0	0	0	
0.0741667	-0.00429828	1.28233	0.000253934	0.0245481	0	0	0	
0.0743333	0.00431447	-1.28416	0.000229041	0.0245911	0	0	0	
0.0745	-0.00613831	1.28464	0.000233516	0.0246216	0	0	0	
0.0746667	0.0106354	-1.2807	0.000272493	0.0246176	0	0	0	
0.0748333	-0.0148274	1.27304	0.000317669	0.0245573	0	0	0	
0.075	0.0173541	-1.28027	0.000337277	0.0245206	0	0	0	
0.0751667	-0.012913	1.29952	0.000334756	0.0245648	0	0	0	
0.0753333	0.00932378	-1.29904	0.000303947	0.02469	0	0	0	
0.0755	-0.00538306	1.28642	0.000245541	0.0247613	0	0	0	
0.0756667	0.00483693	-1.28	0.000205263	0.0247304	0	0	0	
0.0758333	-0.0105566	1.28738	0.000217673	0.0246279	0	0	0	
0.076	0.0131235	-1.27554	0.000261229	0.0245646	0	0	0	
0.0761667	-0.0117415	1.27533	0.000301204	0.0245099	0	0	0	
0.0763333	0.0129272	-1.28999	0.000319033	0.0245126	0	0	0	
0.0765	-0.0133841	1.3153	0.000320507	0.0246188	0	0	0	
0.0766667	0.00927155	-1.30784	0.000308665	0.0248278	0	0	0	
0.0768333	-0.00614964	1.29122	0.000284542	0.0249344	0	0	0	
0.077	0.00769025	-1.27725	0.00028086	0.0248594	0	0	0	
0.0771667	-0.0132104	1.28303	0.000307049	0.0246691	0	0	0	
0.0773333	0.0153709	-1.28279	0.000360841	0.0245715	0	0	0	
0.0775	-0.012881	1.28555	0.000392383	0.0245312	0	0	0	
0.0776667	0.00961809	-1.29377	0.000374963	0.0246218	0	0	0	
0.0778333	-0.00915134	1.30218	0.000328545	0.0247014	0	0	0	
0.078	0.0139213	-1.30301	0.000290181	0.0248122	0	0	0	
0.0781667	-0.0109073	1.30259	0.00029158	0.0248597	0	0	0	
0.0783333	0.0104968	-1.29177	0.00029234	0.0248501	0	0	0	
0.0785	-0.0155536	1.2932	0.000310295	0.0247985	0	0	0	
0.0786667	0.0137168	-1.28887	0.00031793	0.0247446	0	0	0	
0.0788333	-0.013942	1.2906	0.000321313	0.0246905	0	0	0	
0.079	0.00940301	-1.3017	0.000296917	0.0247254	0	0	0	
0.0791667	-0.00394253	1.31071	0.000257771	0.0247909	0	0	0	
0.0793333	0.00664312	-1.29353	0.000264975	0.0248668	0	0	0	
0.0795	-0.0114946	1.27294	0.000314957	0.0247727	0	0	0	
0.0796667	0.0103761	-1.25743	0.000393665	0.024567	0	0	0	
0.0798333	-0.0129594	1.28141	0.000447281	0.0244113	0	0	0	
0.08	0.0198927	-1.32331	0.000481559	0.0245486	0	0	0	
0.0801667	-0.0242605	1.33881	0.000486493	0.0248865	0	0	0	
0.0803333	0.0160128	-1.30112	0.00047444	0.025161	0	0	0	
0.0805	-0.0112539	1.27893	0.00040185	0.0250679	0	0	0	
0.0806667	0.00757999	-1.27507	0.000322208	0.0247787	0	0	0	
0.0808333	-0.00162908	1.25496	0.000238534	0.0244467	0	0	0	
0.081	0.00424711	-1.23707	0.000200375	0.0242086	0	0	0	
0.0811667	-0.00628001	1.27995	0.000229448	0.0240976	0	0	0	
0.0813333	0.00702101	-1.31627	0.000312384	0.0243164	0	0	0	
0.0815	-0.0118035	1.31194	0.000392504	0.0246822	0	0	0	
0.0816667	0.0107314	-1.27715	0.000420333	0.0248844	0	0	0	
0.0818333	-0.012724	1.27647	0.000393492	0.024749	0	0	0	
0.082	0.0103242	-1.2781	0.000363392	0.0245726	0	0	0	
0.0821667	-0.00958809	1.29609	0.000330213	0.0245306	0	0	0	
0.0823333	0.0113991	-1.29018	0.000346733	0.0246257	0	0	0	
0.0825	-0.0118389	1.27924	0.000369574	0.0246417	0	0	0	
0.0826667	0.0105827	-1.26313	0.000362057	0.0246014	0	0	0	
0.0828333	-0.00812766	1.29329	0.000321223	0.0245415	0	0	0	
0.083	0.0115434	-1.32508	0.000305722	0.0246753	0	0	0	
0.0831667	-0.0100865	1.31731	0.000312415	0.0248482	0	0	0	
0.0833333	0.000149205	-1.22778	0.000291854	0.024723	0	0	0	
0.0835	0.00312112	1.1571	0.000276476	0.024145	0	0	0	
0.0836667	0.00785442	-1.18403	0.000347173	0.0234136	0	0	0	
0.0838333	-0.0183638	1.30127	0.000465314	0.0233365	0	0	0	
0.084	0.0192473	-1.3519	0.000519261	0.0241057	0	0	0	
0.0841667	-0.016436	1.35394	0.000460363	0.025189	0	0	0	
0.0843333	0.015565	-1.37519	0.000383158	0.0259365	0	0	0	
0.0845	-0.00474107	1.37526	0.000327133	0.026156	0	0	0	
0.0846667	0.00329783	-1.27497	0.000271334	0.0257912	0	0	0	
0.0848333	-0.00567585	1.20606	0.00023084	0.0249377	0	0	0	
0.085	0.00607788	-1.22143	0.000244092	0.0241163	0	0	0	
0.0851667	-0.00883916	1.26288	0.000305319	0.0238141	0	0	0	
0.0853333	0.00980596	-1.27506	0.000357211	0.0240167	0	0	0	
0.0855	-0.00586812	1.26392	0.000370913	0.0242153	0	0	0	
0.0856667	0.0105629	-1.26023	0.000374219	0.0243478	0	0	0	
0.0858333	-0.00989725	1.29536	0.000376494	0.0245409	0	0	0	
0.086	0.00948179	-1.33946	0.000362647	0.0249773	0	0	0	
0.0861667	-0.00884662	1.34617	0.000346235	0.0254358	0	0	0	
0.0863333	0.0123984	-1.30978	0.000350876	0.0256401	0	0	0	
0.0865	-0.0115424	1.2787	0.000390623	0.0253813	0	0	0	
0.0866667	0.0130216	-1.25943	0.000417005	0.024932	0	0	0	
0.0868333	-0.0119326	1.25857	0.000409788	0.0245714	0	0	0	
0.087	0.0090023	-1.27874	0.000351109	0.0244975	0	0	0	
0.0871667	-0.0033699	1.29701	0.00027584	0.0246388	0	0	0	
0.0873333	-0.00142252	-1.28688	0.000211551	0.0248327	0	0	0	
0.0875	0.0040487	1.26357	0.00022331	0.0248297	0	0	0	
0.0876667	0.00460971	-1.26383	0.000303061	0.0246861	0	0	0	
0.0878333	-0.012086	1.29614	0.000401415	0.0246425	0	0	0	
0.088	0.0104351	-1.29511	0.000423152	0.0248131	0	0	0	
0.0881667	-0.00189793	1.28079	0.000350647	0.0249704	0	0	0	
0.0883333	-0.00889974	-1.26385	0.000278733	0.0249805	0	0	0	
0.0885	-0.00384873	1.27574	0.00031116	0.024809	0	0	0	
0.0886667	0.0169041	-1.28612	0.000434081	0.0247808	0	0	0	
0.0888333	-0.0163115	1.29429	0.000514178	0.0248591	0	0	0	
0.089	0.00975886	-1.29526	0.000460628	0.0250515	0	0	0	
0.0891667	-0.000587114	1.28905	0.000342719	0.0251284	0	0	0	
0.0893333	-0.00347324	-1.26301	0.000222331	0.025023	0	0	0	
0.0895	-0.00406162	1.27079	0.000150345	0.0247698	0	0	0	
0.0896667	-0.00698024	-1.27207	0.00013325	0.0246761	0	0	0	
0.0898333	0.00589748	1.27744	0.000193888	0.0247144	0	0	0	
0.09	0.00160873	-1.28263	0.000304051	0.0249077	0	0	0	
0.0901667	-0.00494011	1.27864	0.000376192	0.0249657	0	0	0	
0.0903333	0.00435258	-1.2693	0.000362084	0.0249493	0	0	0	
0.0905	-0.0111551	1.2712	0.000338924	0.0248631	0	0	0	
0.0906667	0.0104714	-1.27431	0.000368949	0.024852	0	0	0	
0.0908333	-0.015012	1.27958	0.000367429	0.0249006	0	0	0	
0.091	0.00858648	-1.27478	0.000323654	0.0249799	0	0	0	
0.0911667	0.00335711	1.26997	0.000196202	0.0249385	0	0	0	
0.0913333	-0.00847796	-1.27199	0.000188868	0.024938	0	0	0	
0.0915	-0.000186554	1.2804	0.00025889	0.0249114	0	0	0	
0.0916667	0.00879945	-1.28619	0.000365838	0.0249923	0	0	0	
0.0918333	-0.0111583	1.26134	0.000387523	0.02496	0	0	0	
0.092	0.0149545	-1.25431	0.000356878	0.0249013	0	0	0	
0.0921667	-0.0158901	1.28308	0.000347949	0.0249069	0	0	0	
0.0923333	0.0138029	-1.30052	0.000341506	0.0251236	0	0	0	
0.0925	-0.00620241	1.29738	0.00028173	0.0253826	0	0	0	
0.0926667	0.000834078	-1.31309	0.000200132	0.025585	0	0	0	
0.0928333	-0.00265384	1.32767	0.000184118	0.0256997	0	0	0	
0.093	0.00521192	-1.28894	0.000230275	0.025676	0	0	0	
0.0931667	-0.00710349	1.22345	0.000287263	0.0252872	0	0	0	
0.0933333	0.00969317	-1.20341	0.000330924	0.0246714	0	0	0	
0.0935	-0.0122312	1.23334	0.000370991	0.0243273	0	0	0	
0.0936667	0.0112454	-1.24895	0.000409748	0.0244312	0	0	0	
0.0938333	-0.0105602	1.26113	0.000401042	0.0247707	0	0	0	
0.094	0.00741564	-1.28977	0.00035708	0.0251213	0	0	0	
0.0941667	-0.00366842	1.32591	0.000286888	0.0254833	0	0	0	
0.0943333	0.00597519	-1.30828	0.000239564	0.0257828	0	0	0	
0.0945	-0.00849743	1.25724	0.00022733	0.0257051	0	0	0	
0.0946667	0.00532888	-1.23143	0.0002395	0.0252956	0	0	0	
0.0948333	-0.00183423	1.24678	0.000233709	0.0248822	0	0	0	
0.095	0.00236063	-1.24379	0.000232178	0.0247423	0	0	0	
0.0951667	-0.00733601	1.2362	0.000250944	0.024729	0	0	0	
0.0953333	0.0060741	-1.23402	0.000269537	0.0247567	0	0	0	
0.0955	-0.0048169	1.23991	0.000252762	0.0247688	0	0	0	
0.0956667	0.00573456	-1.23566	0.000245431	0.0248119	0	0	0	
0.0958333	-0.0104751	1.2393	0.000274357	0.0248102	0	0	0	
0.096	0.0112615	-1.24443	0.000306456	0.0248511	0	0	0	
0.0961667	-0.00712239	1.25366	0.000291649	0.02493	0	0	0	
0.0963333	0.000966004	-1.24693	0.000241876	0.0250059	0	0	0	
0.0965	-0.00342024	1.23816	0.000213548	0.0249735	0	0	0	
0.0966667	-0.00345844	-1.22962	0.000226781	0.0248733	0	0	0	
0.0968333	0.00329758	1.22879	0.00027533	0.0247745	0	0	0	
0.097	0.00317549	-1.22367	0.000360093	0.0247285	0	0	0	
0.0971667	-0.0112416	1.22837	0.000437849	0.0247585	0	0	0	
0.0973333	0.0136257	-1.23838	0.000453094	0.024829	0	0	0	
0.0975	-0.00775474	1.2453	0.000368044	0.0249379	0	0	0	
0.0976667	-0.00345988	-1.23295	0.000240172	0.0249869	0	0	0	
0.0978333	0.00683039	1.21777	0.000166636	0.0249408	0	0	0	
0.098	-0.00535686	-1.2149	0.000177976	0.0248004	0	0	0	
0.0981667	-0.00269141	1.23055	0.000264469	0.0247592	0	0	0	
0.0983333	0.0111661	-1.22982	0.000353318	0.0248236	0	0	0	
0.0985	-0.012529	1.22256	0.000394237	0.0249287	0	0	0	
0.0986667	0.00935528	-1.22544	0.000366096	0.0249684	0	0	0	
0.0988333	-0.00829465	1.24342	0.000309336	0.025037	0	0	0	
0.099	0.00121722	-1.22656	0.000240462	0.0250258	0	0	0	
0.0991667	0.00171982	1.21167	0.000192978	0.0249326	0	0	0	
0.0993333	0.00174788	-1.2083	0.000215075	0.0247911	0	0	0	
0.0995	-0.00615967	1.22142	0.000310364	0.0248028	0	0	0	
0.0996667	0.0112475	-1.22188	0.000407232	0.0249268	0	0	0	
0.0998333	-0.0119339	1.22095	0.000434074	0.0249957	0	0	0	
0.1	0.000230777	-1.21051	0.000378532	0.0249583	0	0	0	
0.100167	-0.00109492	1.22091	0.000297485	0.0249173	0	0	0	
0.100333	0.00321925	-1.21664	0.000243561	0.0249251	0	0	0	
0.1005	0.000691567	1.2058	0.000225515	0.0249302	0	0	0	
0.100667	-0.00100715	-1.20458	0.000229552	0.0249096	0	0	0	
0.100833	0.000480699	1.21778	0.000243356	0.0249112	0	0	0	
0.101	0.00164463	-1.22007	0.000275715	0.0249721	0	0	0	
0.101167	-0.00513255	1.20465	0.000299911	0.0249988	0	0	0	
0.101333	0.0106791	-1.19631	0.000291611	0.0249257	0	0	0	
0.1015	-0.0096295	1.21022	0.000273986	0.0248982	0	0	0	
0.101667	0.0102178	-1.21839	0.000241866	0.0249783	0	0	0	
0.101833	-0.00503885	1.21281	0.000209016	0.0251145	0	0	0	
0.102	-0.00230226	-1.19522	0.000149436	0.0251063	0	0	0	
0.102167	0.00332327	1.19267	0.000148894	0.0249871	0	0	0	
0.102333	0.00595499	-1.19515	0.000218721	0.0248761	0	0	0	
0.1025	-0.0114355	1.1985	0.000346213	0.0248617	0	0	0	
0.102667	0.0183977	-1.19003	0.000433733	0.0248922	0	0	0	
0.102833	-0.015925	1.19066	0.000454594	0.0249231	0	0	0	
0.103	0.0128181	-1.18805	0.000394532	0.0249588	0	0	0	
0.103167	-0.000564101	1.19972	0.000286935	0.0249654	0	0	0	
0.103333	-0.00555196	-1.18969	0.000178712	0.0249643	0	0	0	
0.1035	0.00538427	1.18089	0.000200508	0.0249113	0	0	0	
0.103667	0.000708259	-1.18004	0.000321195	0.0248943	0	0	0	
0.103833	-0.00545835	1.19057	0.000444399	0.0249185	0	0	0	
0.104	0.0116493	-1.16883	0.000474716	0.0248908	0	0	0	
0.104167	-0.00987739	1.13166	0.000447725	0.0246388	0	0	0	
0.104333	0.00518268	-1.11834	0.00038532	0.0243235	0	0	0	
0.1045	0.000410107	1.16202	0.000311033	0.0242863	0	0	0	
0.104667	5.93231E-05	-1.17539	0.000254852	0.0245913	0	0	0	
0.104833	-0.00140313	1.16384	0.000254372	0.0248345	0	0	0	
0.105	0.0038894	-1.17577	0.000300571	0.0249236	0	0	0	
0.105167	-0.00779392	1.20281	0.000347125	0.0249691	0	0	0	
0.105333	0.00553084	-1.18445	0.000346037	0.0250055	0	0	0	
0.1055	-0.000358366	1.14114	0.000273082	0.0247935	0	0	0	
0.105667	-0.00415311	-1.12644	0.000198674	0.0244286	0	0	0	
0.105833	0.00597171	1.13406	0.000193794	0.024213	0	0	0	
0.106	-0.00304104	-1.12814	0.000264788	0.0242375	0	0	0	
0.106167	-0.00109465	1.13843	0.000362602	0.0243989	0	0	0	
0.106333	0.00649987	-1.16333	0.000430569	0.0246652	0	0	0	
0.1065	-0.0101756	1.17388	0.000453277	0.0249823	0	0	0	
0.106667	0.00786659	-1.17492	0.000418022	0.0251902	0	0	0	
0.106833	-0.00686848	1.16411	0.000334901	0.0251771	0	0	0	
0.107	0.00263558	-1.14565	0.000244795	0.0250026	0	0	0	
0.107167	0.00188833	1.14236	0.000187041	0.0248153	0	0	0	
0.107333	-0.00169834	-1.1377	0.000189242	0.0247218	0	0	0	
0.1075	0.00113313	1.13809	0.000232592	0.0247305	0	0	0	
0.107667	0.000928674	-1.15219	0.00028384	0.0248282	0	0	0	
0.107833	-0.003452	1.15079	0.000308992	0.0249292	0	0	0	
0.108	0.00164807	-1.13867	0.000309254	0.0249823	0	0	0	
0.108167	-0.00444308	1.14016	0.000295731	0.024956	0	0	0	
0.108333	0.00347722	-1.1389	0.000275354	0.0249208	0	0	0	
0.1085	-0.000437332	1.12528	0.000239305	0.0248886	0	0	0	
0.108667	0.00220847	-1.12207	0.000224936	0.0248401	0	0	0	
0.108833	-0.00729208	1.1265	0.000263911	0.0247896	0	0	0	
0.109	0.00562604	-1.12458	0.000320901	0.0247497	0	0	0	
0.109167	-0.00435952	1.11871	0.000320291	0.024742	0	0	0	
0.109333	0.00254258	-1.11702	0.000276514	0.0247315	0	0	0	
0.1095	-0.00559932	1.12644	0.00024131	0.0248023	0	0	0	
0.109667	0.00206616	-1.12985	0.000238671	0.02488	0	0	0	
0.109833	-0.000585865	1.12669	0.000245503	0.0249119	0	0	0	
0.11	0.00142949	-1.12893	0.000285461	0.0249152	0	0	0	
0.110167	-0.00713283	1.12635	0.000336336	0.0249643	0	0	0	
0.110333	0.00887856	-1.12254	0.000356471	0.0249976	0	0	0	
0.1105	-0.00612822	1.1147	0.000317679	0.0249985	0	0	0	
0.110667	0.00257484	-1.10929	0.000256724	0.024951	0	0	0	
0.110833	-0.00066646	1.10998	0.000215582	0.0249309	0	0	0	
0.111	-0.00178548	-1.11366	0.000204251	0.0249195	0	0	0	
0.111167	0.00169797	1.11396	0.000234299	0.024953	0	0	0	
0.111333	0.0011086	-1.10368	0.00029842	0.0249412	0	0	0	
0.1115	-0.00250158	1.09452	0.000358163	0.0248913	0	0	0	
0.111667	0.00522862	-1.09651	0.000373062	0.0248024	0	0	0	
0.111833	-0.00569634	1.10919	0.000340774	0.0248612	0	0	0	
0.112	0.00105801	-1.11018	0.000279594	0.0249392	0	0	0	
0.112167	0.00139773	1.10516	0.000229672	0.024997	0	0	0	
0.112333	-0.0013763	-1.0859	0.000231436	0.0249065	0	0	0	
0.1125	-0.000636354	1.08975	0.000282306	0.0248145	0	0	0	
0.112667	0.00481614	-1.09147	0.000328535	0.0247758	0	0	0	
0.112833	-0.00453021	1.0933	0.000311576	0.0248493	0	0	0	
0.113	0.00201683	-1.08593	0.000249988	0.0249257	0	0	0	
0.113167	-0.000899038	1.09322	0.000206654	0.0249803	0	0	0	
0.113333	-0.00219262	-1.0926	0.000213099	0.025006	0	0	0	
0.1135	0.00355236	1.09057	0.000261933	0.0250148	0	0	0	
0.113667	0.00264606	-1.07841	0.000332477	0.0249496	0	0	0	
0.113833	-0.00856861	1.07292	0.000391108	0.0248399	0	0	0	
0.114	0.00934328	-1.05863	0.000401675	0.0247389	0	0	0	
0.114167	-0.00247653	1.06295	0.000353503	0.0247062	0	0	0	
0.114333	-0.00357992	-1.06669	0.000289822	0.0247383	0	0	0	
0.1145	0.0035099	1.06903	0.000260861	0.0247877	0	0	0	
0.114667	-0.00389174	-1.07187	0.000259314	0.0248442	0	0	0	
0.114833	0.00309312	1.07832	0.000263419	0.0248816	0	0	0	
0.115	-0.000596211	-1.06758	0.00026639	0.0248909	0	0	0	
0.115167	0.00128905	1.06248	0.000286052	0.0248292	0	0	0	
0.115333	-0.000765144	-1.04892	0.000313253	0.0247315	0	0	0	
0.1155	-0.00183578	1.04902	0.000334889	0.0246698	0	0	0	
0.115667	0.00488714	-1.0563	0.000346285	0.024752	0	0	0	
0.115833	-0.0072403	1.06365	0.000343658	0.0248768	0	0	0	
0.116	0.0053757	-1.05699	0.00032908	0.024938	0	0	0	
0.116167	-0.000295827	1.05233	0.000312533	0.0249137	0	0	0	
0.116333	0.00384438	-1.05395	0.000311523	0.0249038	0	0	0	
0.1165	-0.00386315	1.05777	0.000318959	0.0249652	0	0	0	
0.116667	0.00205638	-1.0471	0.000306467	0.024964	0	0	0	
0.116833	0.00266886	1.0392	0.000280798	0.0248889	0	0	0	
0.117	-0.00727202	-1.04288	0.000278307	0.0248081	0	0	0	
0.117167	0.00660286	1.04541	0.000310028	0.0248674	0	0	0	
0.117333	-0.00228384	-1.0336	0.000353795	0.024895	0	0	0	
0.1175	-0.00186966	1.02283	0.000389361	0.0248869	0	0	0	
0.117667	0.00523855	-1.03431	0.000403941	0.0248418	0	0	0	
0.117833	-0.00572461	1.04158	0.000377311	0.0249392	0	0	0	
0.118	-0.00100728	-1.03477	0.000295162	0.0249816	0	0	0	
0.118167	0.00594352	1.02573	0.00021573	0.0249896	0	0	0	
0.118333	-0.00393997	-1.01809	0.000198404	0.024896	0	0	0	
0.1185	0.000743423	0.997372	0.000257642	0.0248618	0	0	0	
0.118667	0.0019729	-1.07386	0.000339056	0.0252419	0	0	0	
0.118833	-0.00509724	1.28729	0.000400017	0.0263862	0	0	0	
0.119	0.00644376	-1.144	0.000405235	0.0263303	0	0	0	
0.119167	-0.0183314	0.445531	0.00032176	0.0214358	0	0	0	
0.119333	0.00510495	-0.462428	0.000282285	0.0178733	0	0	0	
0.1195	0.00170003	0.462706	0.000228681	0.0141007	0	0	0	
0.119667	-0.000521756	-0.856863	0.000279546	0.0184447	0	0	0	
0.119833	0.00216019	1.0749	0.000281732	0.0218575	0	0	0	
0.12	-0.00157076	-1.26482	0.000330697	0.0271914	0	0	0	
0.120167	-0.0118449	1.70237	0.000379765	0.0292141	0	0	0	
0.120333	0.00592426	-2.25586	0.000470622	0.0338928	0	0	0	
0.1205	-0.00367835	1.35085	0.000487997	0.0356306	0	0	0	
0.120667	-6.20211E-05	-0.829991	0.000433827	0.0329346	0	0	0	
0.120833	0.00234052	0.851296	0.000336406	0.0263957	0	0	0	
0.121	-0.00144633	-1.05696	0.000322405	0.0235331	0	0	0	
0.121167	-0.00521837	1.07718	0.00036977	0.0246243	0	0	0	
0.121333	0.00579625	-0.946731	0.000403037	0.024873	0	0	0	
0.1215	-0.00375896	0.975426	0.00037822	0.0237872	0	0	0	
0.121667	0.00195302	-0.964517	0.000316422	0.0237056	0	0	0	
0.121833	-0.000994298	0.960725	0.000255654	0.024084	0	0	0	
0.122	-0.00159844	-0.976665	0.000223782	0.0243457	0	0	0	
0.122167	0.00151042	0.935385	0.000236619	0.0238051	0	0	0	
0.122333	0.00398309	-0.912058	0.000299561	0.0237518	0	0	0	
0.1225	-0.00425891	0.907774	0.000362077	0.0241118	0	0	0	
0.122667	0.00331288	-0.901393	0.000354302	0.024933	0	0	0	
0.122833	-0.00181893	1.0345	0.000290297	0.0256845	0	0	0	
0.123	0.00172463	-1.11621	0.000247719	0.0263316	0	0	0	
0.123167	-0.00184383	0.99465	0.000269259	0.0260732	0	0	0	
0.123333	0.000890769	-0.894807	0.000312686	0.0253519	0	0	0	
0.1235	-0.00125735	0.965022	0.000369832	0.0250396	0	0	0	
0.123667	0.0183578	-1.26546	0.00045489	0.0262586	0	0	0	
0.123833	-0.0215962	1.2262	0.000462558	0.0269708	0	0	0	
0.124	-0.0107993	0.350898	0.000720587	0.0227298	0	0	0	
0.124167	-0.121611	-1.04596	0.00146444	0.0247776	0	0	0	
0.124333	-0.0170375	0.480765	0.00157617	0.0230255	0	0	0	
0.1245	0.0136834	0.217176	0.00126726	0.025179	0	0	0	
0.124667	-0.00891348	-0.91713	0.000414989	0.0239596	0	0	0	
0.124833	-0.00428882	1.31879	0.000273661	0.0279613	0	0	0	
0.125	0.0379429	-1.69322	0.000289301	0.0323228	0	0	0	
0.125167	-0.137236	2.76156	0.000769401	0.034589	0	0	0	
0.125333	-0.0108839	-2.54536	0.00145161	0.0430519	0	0	0	
0.1255	0.00731785	1.04343	0.00140796	0.0438769	0	0	0	
0.125667	-0.00647246	-0.583329	0.000930006	0.0370253	0	0	0	
0.125833	-0.00900494	0.827253	0.000332599	0.0252177	0	0	0	
0.126	0.019196	-1.02875	0.000450617	0.0223623	0	0	0	
0.126167	-0.0142224	0.887821	0.000486254	0.0240814	0	0	0	
0.126333	0.00531765	-0.663059	0.000371398	0.0226168	0	0	0	
0.1265	0.00690184	0.654719	0.000261948	0.0203019	0	0	0	
0.126667	-0.0133835	-0.833851	0.000201825	0.0206734	0	0	0	
0.126833	0.0183594	0.948962	0.00023755	0.0230798	0	0	0	
0.127	-0.0176317	-0.850842	0.000293831	0.0245999	0	0	0	
0.127167	-0.0146695	0.863158	0.000458946	0.0247253	0	0	0	
0.127333	-0.0828283	0.152187	0.000988303	0.0284817	0	0	0	
0.1275	0.0939252	-0.790285	0.00143913	0.0358048	0	0	0	
0.127667	-0.030172	-0.0983468	0.00184781	0.0409317	0	0	0	
0.127833	0.00792865	0.870694	0.00136391	0.0386425	0	0	0	
0.128	-0.0031686	-1.04246	0.000956258	0.0326847	0	0	0	
0.128167	0.00824682	0.857598	0.000477735	0.027498	0	0	0	
0.128333	-0.102364	0.290757	0.000756985	0.0243178	0	0	0	
0.1285	0.0322699	-0.383861	0.00107604	0.0189663	0	0	0	
0.128667	0.0416285	-0.272005	0.0013643	0.0150853	0	0	0	
0.128833	0.00197916	0.607504	0.00116132	0.0130085	0	0	0	
0.129	-0.015312	-0.686557	0.000743382	0.0159681	0	0	0	
0.129167	0.0115061	0.817761	0.000421246	0.0199839	0	0	0	
0.129333	-0.00809959	-0.854908	0.000321875	0.023771	0	0	0	
0.1295	0.0113996	0.813493	0.000377905	0.0254658	0	0	0	
0.129667	-0.020942	-0.740909	0.000429026	0.0254945	0	0	0	
0.129833	0.0198632	0.822554	0.000603558	0.0249545	0	0	0	
0.13	-0.00695516	-0.845303	0.000615009	0.0245719	0	0	0	
0.130167	-0.00454079	0.868132	0.000615059	0.024632	0	0	0	
0.130333	0.014398	-0.849035	0.000498547	0.0248507	0	0	0	
0.1305	-0.014349	0.838726	0.000524934	0.0248977	0	0	0	
0.130667	0.00425628	-0.887338	0.000458761	0.0251568	0	0	0	
0.130833	-0.0126735	0.971036	0.000420407	0.025875	0	0	0	
0.131	-0.000554446	-0.924389	0.00033084	0.0264085	0	0	0	
0.131167	0.00657545	0.859685	0.000283176	0.0261497	0	0	0	
0.131333	-0.00532065	-0.820577	0.000260881	0.0252676	0	0	0	
0.1315	0.00852302	0.813247	0.000346631	0.0245933	0	0	0	
0.131667	-0.00559864	-0.824944	0.000456367	0.024514	0	0	0	
0.131833	0.0069023	0.856739	0.000509083	0.0247281	0	0	0	
0.132	-0.00233393	-0.862418	0.000553786	0.0247545	0	0	0	
0.132167	-0.0339187	0.802562	0.000723833	0.0242986	0	0	0	
0.132333	0.0306712	-0.733104	0.00107865	0.023589	0	0	0	
0.1325	-0.0201519	0.754924	0.00116697	0.0233859	0	0	0	
0.132667	0.00853406	-0.820766	0.000885522	0.0240368	0	0	0	
0.132833	0.00783468	0.841175	0.000395756	0.0248885	0	0	0	
0.133	-0.0155872	-0.833143	0.000192516	0.0252735	0	0	0	
0.133167	0.0182435	0.868058	0.000296184	0.0252654	0	0	0	
0.133333	-0.048408	-0.864196	0.000645783	0.0252082	0	0	0	
0.1335	0.0300386	0.794868	0.00100155	0.0248318	0	0	0	
0.133667	0.0020166	-0.753273	0.00107223	0.024237	0	0	0	
0.133833	0.000379114	0.77109	0.000809768	0.0240052	0	0	0	
0.134	-0.0050968	-0.802312	0.000450095	0.0244211	0	0	0	
0.134167	0.0021255	0.807002	0.000337089	0.0249652	0	0	0	
0.134333	-0.00280752	-0.791995	0.000380619	0.025092	0	0	0	
0.1345	-0.000805337	0.778056	0.00042789	0.0248898	0	0	0	
0.134667	0.00197059	-0.777417	0.000380107	0.0247146	0	0	0	
0.134833	0.00678322	0.785597	0.000270251	0.0247242	0	0	0	
0.135	-0.00858738	-0.782455	0.000218158	0.0248308	0	0	0	
0.135167	0.00548121	0.772636	0.000279332	0.024843	0	0	0	
0.135333	0.0018756	-0.754975	0.000402171	0.0247074	0	0	0	
0.1355	-0.00505066	0.761205	0.000450004	0.0245893	0	0	0	
0.135667	-0.00200456	-0.771551	0.00037556	0.0246779	0	0	0	
0.135833	0.0073508	0.777967	0.000250431	0.0248755	0	0	0	
0.136	-0.00840119	-0.763903	0.0001948	0.0250106	0	0	0	
0.136167	0.00973103	0.762294	0.000227861	0.0249643	0	0	0	
0.136333	-0.0101936	-0.754586	0.000287556	0.0248393	0	0	0	
0.1365	0.00900328	0.748695	0.00034854	0.0247496	0	0	0	
0.136667	-0.00366752	-0.754328	0.000373232	0.0247995	0	0	0	
0.136833	0.00537523	0.754125	0.000341302	0.0248956	0	0	0	
0.137	-0.0105717	-0.733976	0.000294416	0.0248473	0	0	0	
0.137167	0.00438836	0.73149	0.000293414	0.0247275	0	0	0	
0.137333	0.00142673	-0.741665	0.000319486	0.0247076	0	0	0	
0.1375	0.00508603	0.73485	0.000281485	0.0247868	0	0	0	
0.137667	-0.00718921	-0.714769	0.000210572	0.0247395	0	0	0	
0.137833	0.0079373	0.724926	0.000188853	0.0247411	0	0	0	
0.138	-0.00549051	-0.762624	0.000245199	0.0250412	0	0	0	
0.138167	0.00700237	0.778532	0.000334233	0.0254328	0	0	0	
0.138333	-0.00261818	-0.745946	0.000389403	0.0253986	0	0	0	
0.1385	0.00131447	0.710314	0.000406175	0.0249468	0	0	0	
0.138667	-0.00260238	-0.702198	0.000374408	0.024546	0	0	0	
0.138833	0.00749225	0.698845	0.000316978	0.0244937	0	0	0	
0.139	-0.0105918	-0.683864	0.0002734	0.024638	0	0	0	
0.139167	0.0160505	0.683702	0.000282069	0.0248455	0	0	0	
0.139333	-0.0130289	-0.712379	0.000325978	0.0251176	0	0	0	
0.1395	0.0155147	0.730786	0.000364277	0.0253674	0	0	0	
0.139667	-0.0155961	-0.71958	0.000399157	0.0253148	0	0	0	
0.139833	0.0100927	0.694931	0.000441446	0.0249563	0	0	0	
0.14	-0.00622093	-0.685918	0.000490212	0.0246013	0	0	0	
0.140167	0.00374736	0.681796	0.000486483	0.0244964	0	0	0	
0.140333	-0.000339645	-0.672526	0.00044635	0.0245119	0	0	0	
0.1405	0.0023883	0.674224	0.000367994	0.0245885	0	0	0	
0.140667	-0.00868693	-0.689492	0.000278465	0.024744	0	0	0	
0.140833	0.0163729	0.694279	0.000227885	0.0249171	0	0	0	
0.141	-0.0212313	-0.682905	0.000284272	0.0249482	0	0	0	
0.141167	0.0115712	0.67931	0.000392402	0.0249017	0	0	0	
0.141333	-0.00224684	-0.67911	0.000474196	0.0248956	0	0	0	
0.1415	0.00140939	0.672428	0.000441245	0.0248822	0	0	0	
0.141667	-0.00552486	-0.654141	0.000352316	0.024763	0	0	0	
0.141833	0.00495496	0.652897	0.000251699	0.0246631	0	0	0	
0.142	-0.0111267	-0.670234	0.000216871	0.0247354	0	0	0	
0.142167	0.00980336	0.663891	0.00024058	0.0248833	0	0	0	
0.142333	-0.00461357	-0.640988	0.00031246	0.0248792	0	0	0	
0.1425	0.000495958	0.638732	0.000358908	0.0248229	0	0	0	
0.142667	-0.00340025	-0.664139	0.000337661	0.0248644	0	0	0	
0.142833	0.00632243	0.661687	0.000275085	0.0249828	0	0	0	
0.143	-0.00804495	-0.642117	0.000267839	0.0249279	0	0	0	
0.143167	0.00250441	0.633619	0.000341684	0.02481	0	0	0	
0.143333	0.00113769	-0.638014	0.000414098	0.0247732	0	0	0	
0.1435	-0.00383562	0.631	0.000409874	0.0248183	0	0	0	
0.143667	0.00322609	-0.63213	0.000342752	0.0247621	0	0	0	
0.143833	0.00297502	0.621486	0.000238767	0.0247141	0	0	0	
0.144	-0.0144493	-0.623455	0.000181908	0.0247547	0	0	0	
0.144167	0.0189641	0.627549	0.000202476	0.0249183	0	0	0	
0.144333	-0.0170866	-0.625916	0.000317248	0.0250097	0	0	0	
0.1445	0.00713881	0.623798	0.000436939	0.02497	0	0	0	
0.144667	-0.00364867	-0.622661	0.000508569	0.0248286	0	0	0	
0.144833	0.00100308	0.61078	0.000498247	0.0247404	0	0	0	
0.145	-0.00121522	-0.606028	0.000431651	0.0247623	0	0	0	
0.145167	0.00147974	0.610591	0.000348586	0.024882	0	0	0	
0.145333	-0.00420118	-0.635403	0.000293661	0.0249738	0	0	0	
0.1455	0.00544791	0.68649	0.000264193	0.0249807	0	0	0	
0.145667	-0.00947124	-0.665346	0.000263768	0.0249101	0	0	0	
0.145833	0.0108343	0.601496	0.000279307	0.0246845	0	0	0	
0.146	-0.0139498	-0.567226	0.000325786	0.0244748	0	0	0	
0.146167	0.00911835	0.565103	0.00036708	0.0244318	0	0	0	
0.146333	-0.00535121	-0.588842	0.000392081	0.0246845	0	0	0	
0.1465	0.0050743	0.636256	0.000348388	0.0251443	0	0	0	
0.146667	-0.00918557	-0.630311	0.000291347	0.0256156	0	0	0	
0.146833	0.011727	0.598881	0.000274261	0.0257881	0	0	0	
0.147	-0.011308	-0.581798	0.000318488	0.0255707	0	0	0	
0.147167	0.00980132	0.565505	0.000359713	0.0251001	0	0	0	
0.147333	-0.00945343	-0.562784	0.000363287	0.024745	0	0	0	
0.1475	0.00776216	0.571304	0.000356067	0.0246962	0	0	0	
0.147667	-0.00310815	-0.591615	0.000344025	0.0248321	0	0	0	
0.147833	0.00539259	0.58046	0.000316457	0.024982	0	0	0	
0.148	-0.00791576	-0.559538	0.000279367	0.0249006	0	0	0	
0.148167	0.0075257	0.539506	0.000261632	0.0246889	0	0	0	
0.148333	-0.00810849	-0.541282	0.000266101	0.0245344	0	0	0	
0.1485	0.0110887	0.542045	0.000284057	0.0245823	0	0	0	
0.148667	-0.00830775	-0.538468	0.000299173	0.0246412	0	0	0	
0.148833	0.0092257	0.527514	0.000327071	0.0246468	0	0	0	
0.149	-0.00704302	-0.531802	0.000338487	0.0246369	0	0	0	
0.149167	0.00724172	0.542982	0.000342752	0.0247541	0	0	0	
0.149333	-0.00658525	-0.54167	0.000331519	0.0248991	0	0	0	
0.1495	0.00586596	0.53516	0.000319699	0.0249346	0	0	0	
0.149667	-0.00869694	-0.528743	0.000304313	0.0248343	0	0	0	
0.149833	0.0114199	0.52487	0.000292567	0.0247274	0	0	0	
0.15	-0.00855256	-0.515874	0.000285772	0.0246988	0	0	0	
0.150167	0.0088362	0.50223	0.000304807	0.0247611	0	0	0	
0.150333	-0.00892402	-0.500114	0.000312857	0.0248534	0	0	0	
0.1505	0.0106668	0.508719	0.000314631	0.0249244	0	0	0	
0.150667	-0.0102754	-0.507953	0.000303444	0.0249227	0	0	0	
0.150833	0.00852438	0.499969	0.000309883	0.0248671	0	0	0	
0.151	-0.0073573	-0.490357	0.000307778	0.0248026	0	0	0	
0.151167	0.00728607	0.485616	0.00029069	0.0247588	0	0	0	
0.151333	-0.00664944	-0.49063	0.000264375	0.0247439	0	0	0	
0.1515	0.00139171	0.491394	0.000235631	0.0247971	0	0	0	
0.151667	-0.00144343	-0.490378	0.000199687	0.0248435	0	0	0	
0.151833	0.00865991	0.483353	0.000180605	0.0248466	0	0	0	
0.152	-0.0105862	-0.471416	0.000200785	0.0247758	0	0	0	
0.152167	0.00845884	0.469871	0.000248107	0.0247376	0	0	0	
0.152333	-0.00792832	-0.466057	0.000297208	0.0248059	0	0	0	
0.1525	0.0034459	0.472953	0.000332279	0.0249239	0	0	0	
0.152667	-0.00295544	-0.47549	0.000367065	0.0249631	0	0	0	
0.152833	0.0053611	0.465723	0.000379966	0.0248441	0	0	0	
0.153	-0.00714392	-0.448022	0.000359823	0.0246725	0	0	0	
0.153167	0.00885918	0.445095	0.000311733	0.0246046	0	0	0	
0.153333	-0.00942024	-0.450579	0.000278746	0.0247322	0	0	0	
0.1535	0.006276	0.471171	0.00028558	0.024967	0	0	0	
0.153667	-0.00520678	-0.480726	0.000310262	0.0251163	0	0	0	
0.153833	0.00518129	0.458846	0.000306946	0.0250381	0	0	0	
0.154	-0.00587127	-0.435665	0.000282511	0.0248655	0	0	0	
0.154167	0.00549777	0.441711	0.000240397	0.0248108	0	0	0	
0.154333	-0.010724	-0.444481	0.000223718	0.0248516	0	0	0	
0.1545	0.0114584	0.42826	0.000240744	0.024842	0	0	0	
0.154667	-0.00890228	-0.41916	0.000303275	0.0248203	0	0	0	
0.154833	0.00644767	0.428328	0.000364312	0.0249676	0	0	0	
0.155	-0.00487929	-0.454097	0.000393103	0.025215	0	0	0	
0.155167	0.00457392	0.468083	0.000378778	0.0251625	0	0	0	
0.155333	-0.00419356	-0.517102	0.000332445	0.0245452	0	0	0	
0.1555	0.00689217	0.356575	0.000281562	0.0238239	0	0	0	
0.155667	-0.00877882	-0.284961	0.000243675	0.0232194	0	0	0	
0.155833	0.00879584	0.346772	0.000233604	0.0234721	0	0	0	
0.156	-0.00952186	-0.392833	0.000249052	0.0241873	0	0	0	
0.156167	0.00943829	0.421886	0.000275468	0.0250639	0	0	0	
0.156333	-0.00745899	-0.523648	0.000296663	0.0256966	0	0	0	
0.1565	0.00999275	0.455409	0.00033059	0.0260582	0	0	0	
0.156667	-0.00180548	-0.447238	0.000333902	0.0254914	0	0	0	
0.156833	0.00405289	0.394532	0.000301041	0.0242794	0	0	0	
0.157	-0.0113484	-0.276111	0.000243319	0.0229851	0	0	0	
0.157167	0.0103265	0.304939	0.000245541	0.0235537	0	0	0	
0.157333	-0.00505166	-0.709974	0.000316082	0.0266278	0	0	0	
0.1575	-0.00102197	1.21312	0.000371301	0.0289955	0	0	0	
0.157667	-0.000631819	-1.477	0.000447778	0.02932	0	0	0	
0.157833	-0.0175826	-1.49636	0.000998832	0.0265743	0	0	0	
0.158	-0.00286727	0.862247	0.000975371	0.0235309	0	0	0	
0.158167	0.0102776	-0.559239	0.000863923	0.0222104	0	0	0	
0.158333	-0.0086027	-0.113946	0.000273901	0.0244281	0	0	0	
0.1585	-0.000179896	0.211113	0.000280615	0.0240244	0	0	0	
0.158667	-0.0179913	0.0786386	0.000380341	0.0185386	0	0	0	
0.158833	0.0108731	0.0287941	0.000404948	0.0101997	0	0	0	
0.159	-0.00996208	-0.0853616	0.000392834	0.0102996	0	0	0	
0.159167	0.0107753	0.289696	0.000306301	0.0173622	0	0	0	
0.159333	-0.00808926	-0.421597	0.000254466	0.0220107	0	0	0	
0.1595	0.00527757	0.306863	0.000214292	0.0192101	0	0	0	
0.159667	-0.0014931	-0.281854	0.000197858	0.0132235	0	0	0	
0.159833	0.00355757	0.126846	0.000208254	0.0099475	0	0	0	
0.16	-0.00374689	-0.188606	0.000222019	0.00922233	0	0	0	
0.160167	0.00595831	0.349972	0.000214439	0.0103963	0	0	0	
0.160333	-0.00229687	-0.12389	0.000168933	0.0121821	0	0	0	
0.1605	-0.000802806	0.152797	0.000120148	0.01289	0	0	0	
0.160667	-0.00275548	-0.147228	6.9991E-05	0.0118975	0	0	0	
0.160833	0.00840427	0.121749	6.7632E-05	0.0101738	0	0	0	
0.161	-0.0121666	-0.631653	0.000121102	0.0104641	0	0	0	
0.161167	0.0103031	0.471583	0.000227372	0.0135352	0	0	0	
0.161333	-0.0082499	-0.124483	0.00032528	0.0163317	0	0	0	
0.1615	0.00169373	0.111481	0.000357246	0.0167652	0	0	0	
0.161667	0.00155332	-0.148076	0.000304324	0.0139907	0	0	0	
0.161833	0.00100287	0.281675	0.000188076	0.0117325	0	0	0	
0.162	-0.00730174	-0.261727	0.000107192	0.0116576	0	0	0	
0.162167	0.0113191	0.0120057	0.000111061	0.0123913	0	0	0	
0.162333	-0.0120087	-0.245263	0.00019157	0.0136258	0	0	0	
0.1625	0.00546106	0.118808	0.000243255	0.0148475	0	0	0	
0.162667	-0.000183172	-0.191868	0.000231808	0.0146944	0	0	0	
0.162833	-0.000557197	0.119267	0.000166472	0.012787	0	0	0	
0.163	-0.00320816	0.12532	0.000101224	0.00980858	0	0	0	
0.163167	0.00990059	0.135025	9.07055E-05	0.00852051	0	0	0	
0.163333	-0.0122599	-0.270186	0.000148021	0.0105789	0	0	0	
0.1635	0.0084452	0.0674416	0.000236087	0.0144476	0	0	0	
0.163667	-0.00546087	-0.133356	0.00027898	0.016717	0	0	0	
0.163833	0.00157764	0.190955	0.000252406	0.015465	0	0	0	
0.164	-0.00129764	-0.281283	0.000197009	0.0123514	0	0	0	
0.164167	0.00579522	0.000147728	0.000155459	0.0101179	0	0	0	
0.164333	-0.0115154	0.0246423	0.000171942	0.00845275	0	0	0	
0.1645	0.0129297	0.128837	0.000229296	0.00878956	0	0	0	
0.164667	-0.00898761	-0.0242558	0.000283219	0.0110035	0	0	0	
0.164833	0.00468906	0.138225	0.000272371	0.0131993	0	0	0	
0.165	-0.00590991	-0.127301	0.000223393	0.0128992	0	0	0	
0.165167	0.00674718	-0.0416011	0.000190716	0.010949	0	0	0	
0.165333	-0.00927716	-0.565071	0.000222312	0.00964133	0	0	0	
0.1655	0.0132677	0.437725	0.000277249	0.011843	0	0	0	
0.165667	-0.0138367	-0.0427207	0.000323154	0.0144753	0	0	0	
0.165833	0.00779783	0.0423734	0.000324518	0.016249	0	0	0	
0.166	-0.00579713	-0.108992	0.00028895	0.0144432	0	0	0	
0.166167	0.00905993	0.22587	0.000228747	0.0123721	0	0	0	
0.166333	-0.016278	-0.45059	0.000223188	0.0119358	0	0	0	
0.1665	0.0170936	0.290699	0.000287883	0.0132664	0	0	0	
0.166667	-0.0110613	-0.312944	0.00035206	0.0141849	0	0	0	
0.166833	0.00736489	0.0413082	0.000329406	0.0143033	0	0	0	
0.167	-0.007115	-0.0841669	0.000237888	0.0126695	0	0	0	
0.167167	0.00889581	0.0312107	0.000166845	0.010928	0	0	0	
0.167333	-0.0157139	0.164735	0.000175919	0.00965767	0	0	0	
0.1675	0.0178906	0.0373241	0.000255388	0.0102329	0	0	0	
0.167667	-0.0137232	-0.29819	0.000333673	0.0133669	0	0	0	
0.167833	0.00708831	0.108588	0.00036722	0.0174558	0	0	0	
0.168	-0.00231144	-0.120712	0.00032164	0.0187849	0	0	0	
0.168167	0.0041918	0.128535	0.000238594	0.0164119	0	0	0	
0.168333	-0.00646018	-0.196091	0.000167238	0.0125054	0	0	0	
0.1685	0.00803772	0.322152	0.000145573	0.0107843	0	0	0	
0.168667	-0.00708697	-0.104522	0.000154061	0.0115066	0	0	0	
0.168833	0.00884128	0.127131	0.000170245	0.0127854	0	0	0	
0.169	-0.00913654	0.00880507	0.000186793	0.0141582	0	0	0	
0.169167	0.00561397	0.0830242	0.000184262	0.0139138	0	0	0	
0.169333	-0.00658094	-0.0476051	0.000167827	0.0124141	0	0	0	
0.1695	0.0103637	-0.137275	0.000153606	0.0107862	0	0	0	
0.169667	-0.0105726	0.0784487	0.000196679	0.0104962	0	0	0	
0.169833	0.00853963	0.352918	0.000267867	0.011969	0	0	0	
0.17	-0.00697491	-0.0897983	0.0003074	0.01476	0	0	0	
0.170167	0.00287115	0.0577776	0.000275504	0.016066	0	0	0	
0.170333	-0.00256336	-0.099205	0.000212325	0.0151865	0	0	0	
0.1705	-0.000382023	0.13155	0.000164933	0.0122425	0	0	0	
0.170667	-0.0037022	-0.286394	0.000163661	0.0104843	0	0	0	
0.170833	0.00439383	-0.0610314	0.000193684	0.0115989	0	0	0	
0.171	-0.00118046	-0.0466342	0.000259803	0.0141613	0	0	0	
0.171167	-0.00299671	-0.0079673	0.000309468	0.01669	0	0	0	
0.171333	-0.00220767	-0.0944415	0.000259789	0.0162103	0	0	0	
0.1715	0.00981605	0.0287485	0.000180159	0.0133833	0	0	0	
0.171667	-0.0167325	0.155252	0.000148628	0.0108487	0	0	0	
0.171833	0.0197232	-0.327689	0.000248818	0.0109218	0	0	0	
0.172	-0.0168926	-0.280266	0.000367815	0.0122833	0	0	0	
0.172167	0.00627519	0.0808585	0.00046049	0.0146915	0	0	0	
0.172333	-0.000347853	-0.0383913	0.000453203	0.0153691	0	0	0	
0.1725	-0.000791085	0.090878	0.000333854	0.0147718	0	0	0	
0.172667	-0.00619464	-0.0989763	0.000188836	0.0120753	0	0	0	
0.172833	0.0113994	0.156657	0.000141834	0.00954032	0	0	0	
0.173	-0.00835738	-0.124701	0.00021674	0.0093809	0	0	0	
0.173167	0.00469769	0.0377339	0.000311966	0.0115207	0	0	0	
0.173333	-0.00677066	0.0502169	0.00033551	0.0147022	0	0	0	
0.1735	0.00489882	0.0595489	0.000273714	0.015532	0	0	0	
0.173667	-0.00911457	-0.0230567	0.000206714	0.0134648	0	0	0	
0.173833	0.0151956	-0.066243	0.000188764	0.011293	0	0	0	
0.174	-0.014071	0.150391	0.000259535	0.0113411	0	0	0	
0.174167	0.00581079	0.300937	0.000349381	0.0129156	0	0	0	
0.174333	0.00139084	-0.10766	0.000387723	0.0152169	0	0	0	
0.1745	-0.00245286	0.0217641	0.000299063	0.0158458	0	0	0	
0.174667	-0.0055587	-0.0747256	0.000184912	0.0148849	0	0	0	
0.174833	0.0120774	0.108055	0.000115471	0.0122519	0	0	0	
0.175	-0.0175226	-0.211888	0.000172783	0.00974102	0	0	0	
0.175167	0.0184216	0.145893	0.0002692	0.00851545	0	0	0	
0.175333	-0.0196527	-0.0502071	0.000373373	0.00877923	0	0	0	
0.1755	0.0140567	-0.139712	0.000432963	0.0111591	0	0	0	
0.175667	-0.00346339	0.00877375	0.000399712	0.0130151	0	0	0	
0.175833	-0.000799678	-0.0136061	0.000300341	0.0129191	0	0	0	
0.176	0.000482023	0.00214153	0.000184353	0.0120645	0	0	0	
0.176167	0.00505347	-0.171788	0.000120895	0.0128831	0	0	0	
0.176333	-0.0140707	-0.413872	0.000130832	0.0146127	0	0	0	
0.1765	0.0144131	0.175776	0.000193413	0.0164766	0	0	0	
0.176667	-0.00835188	-0.00635	0.000238654	0.0160461	0	0	0	
0.176833	0.0071666	0.0378271	0.000233754	0.0144997	0	0	0	
0.177	-0.00712377	-0.0233523	0.000200127	0.011506	0	0	0	
0.177167	0.0122989	-0.0443286	0.000213357	0.00894405	0	0	0	
0.177333	-0.0135735	-0.1897	0.000254553	0.00797311	0	0	0	
0.1775	0.0143305	-0.000426252	0.000291064	0.00987897	0	0	0	
0.177667	-0.0129607	0.129913	0.000300007	0.0134613	0	0	0	
0.177833	0.00696958	-0.00377356	0.00026442	0.0153823	0	0	0	
0.178	-0.00582841	-0.00548696	0.000209937	0.0138885	0	0	0	
0.178167	0.00968154	0.0439692	0.00017194	0.0118376	0	0	0	
0.178333	-0.0117573	0.125529	0.00017777	0.0118189	0	0	0	
0.1785	0.0141674	0.100943	0.000203519	0.0128783	0	0	0	
0.178667	-0.0143939	-0.0440051	0.000239191	0.0142869	0	0	0	
0.178833	0.0066708	-0.0335126	0.000235855	0.0149693	0	0	0	
0.179	-0.00552523	-0.038886	0.00022062	0.0144064	0	0	0	
0.179167	0.00718325	-0.00885213	0.000182811	0.0121626	0	0	0	
0.179333	-0.0100172	0.0757241	0.000170495	0.00938078	0	0	0	
0.1795	0.00873253	0.160002	0.000188319	0.00881172	0	0	0	
0.179667	-0.00576609	0.0588361	0.00022381	0.0117215	0	0	0	
0.179833	0.00205277	-0.149222	0.000245363	0.0158091	0	0	0	
0.18	-0.00391756	0.00212285	0.000213327	0.0173916	0	0	0	
0.180167	0.00704086	0.0473149	0.000157878	0.0153	0	0	0	
0.180333	-0.0114968	-0.163864	0.00012543	0.0125124	0	0	0	
0.1805	0.0172687	0.244144	0.000189343	0.0105798	0	0	0	
0.180667	-0.0193652	-0.0116691	0.000277014	0.00924249	0	0	0	
0.180833	0.0156777	-0.0436206	0.000370078	0.0087698	0	0	0	
0.181	-0.0079351	0.133451	0.000388614	0.0104839	0	0	0	
0.181167	0.0019952	-0.0206494	0.000334582	0.0121777	0	0	0	
0.181333	-0.00379115	0.00330911	0.000223218	0.0123503	0	0	0	
0.1815	0.00987946	0.0665459	0.000146248	0.0107976	0	0	0	
0.181667	-0.0114679	-0.36772	0.000142812	0.0112926	0	0	0	
0.181833	0.0128275	0.196755	0.000205596	0.0141575	0	0	0	
0.182	-0.011273	0.101034	0.000253034	0.0170531	0	0	0	
0.182167	0.00779519	-0.0397933	0.000256157	0.0169775	0	0	0	
0.182333	-0.00532886	0.0161389	0.000219428	0.0141984	0	0	0	
0.1825	0.00551021	0.103066	0.000170301	0.0119399	0	0	0	
0.182667	-0.0139301	0.0216435	0.00018185	0.0117938	0	0	0	
0.182833	0.0155045	-0.141312	0.000227437	0.0126737	0	0	0	
0.183	-0.0129921	0.0503005	0.000289162	0.0137595	0	0	0	
0.183167	0.00711821	-0.107217	0.000294257	0.0147641	0	0	0	
0.183333	-0.00529164	-0.00327844	0.000246828	0.0145055	0	0	0	
0.1835	0.00730227	-0.0364009	0.000182354	0.0127316	0	0	0	
0.183667	-0.012019	0.250325	0.000169589	0.0102134	0	0	0	
0.183833	0.014913	0.00561163	0.000209745	0.00858315	0	0	0	
0.184	-0.0179664	0.0907872	0.000270402	0.0101824	0	0	0	
0.184167	0.0157649	-0.273712	0.000312326	0.0138192	0	0	0	
0.184333	-0.00670455	0.0786647	0.000307084	0.0166053	0	0	0	
0.1845	0.00242569	0.0186878	0.000255185	0.015985	0	0	0	
0.184667	-0.00553453	-0.122329	0.00016808	0.0130458	0	0	0	
0.184833	0.0142992	-0.117047	0.000148041	0.0106674	0	0	0	
0.185	-0.0174331	0.183591	0.000199639	0.00912917	0	0	0	
0.185167	0.0158345	-0.155169	0.000271335	0.00945172	0	0	0	
0.185333	-0.0108338	0.193866	0.000294596	0.0118327	0	0	0	
0.1855	0.00760298	-0.0345522	0.000258908	0.0137981	0	0	0	
0.185667	-0.00678088	0.0378731	0.000219795	0.0133881	0	0	0	
0.185833	0.00877915	-0.24385	0.000191427	0.0112713	0	0	0	
0.186	-0.0131155	-0.269469	0.000211329	0.00978805	0	0	0	
0.186167	0.0136537	0.202751	0.000238225	0.0116137	0	0	0	
0.186333	-0.0148127	0.149778	0.000275304	0.014634	0	0	0	
0.1865	0.00820717	-0.0703927	0.000266057	0.0165014	0	0	0	
0.186667	-0.00723545	0.0349181	0.000225545	0.0148905	0	0	0	
0.186833	0.0123137	0.0699317	0.000181953	0.0122297	0	0	0	
0.187	-0.0195902	-0.0616936	0.000205712	0.0111506	0	0	0	
0.187167	0.0174197	-0.308819	0.000278517	0.0119882	0	0	0	
0.187333	-0.0136907	0.203203	0.000332317	0.0137787	0	0	0	
0.1875	0.00646155	-0.181774	0.000324379	0.0160362	0	0	0	
0.187667	-0.00220026	0.0146342	0.000258289	0.0161208	0	0	0	
0.187833	0.00439317	-0.0795492	0.000173273	0.0139057	0	0	0	
0.188	-0.0143219	0.441262	0.000141617	0.0112927	0	0	0	
0.188167	0.0203159	-0.268829	0.00020609	0.0101651	0	0	0	
0.188333	-0.0183779	-0.0364379	0.000290864	0.0116208	0	0	0	
0.1885	0.0150839	-0.226196	0.000351496	0.0146051	0	0	0	
0.188667	-0.00904689	0.0919694	0.000320401	0.0163904	0	0	0	
0.188833	0.00519083	-0.040339	0.000276167	0.0156433	0	0	0	
0.189	-0.00203939	-0.0359007	0.000209685	0.0126736	0	0	0	
0.189167	0.00324298	0.142108	0.000186697	0.0108688	0	0	0	
0.189333	-0.0026471	0.229839	0.000178232	0.0110686	0	0	0	
0.1895	0.0059738	-0.204908	0.000165342	0.0123157	0	0	0	
0.189667	-0.00937793	0.252238	0.000159203	0.0140697	0	0	0	
0.189833	0.0106705	-0.112873	0.000165407	0.0142285	0	0	0	
0.19	-0.0131427	0.132247	0.000195264	0.0129242	0	0	0	
0.190167	0.0230967	-0.370813	0.000270914	0.0115644	0	0	0	
0.190333	-0.0214996	0.186245	0.000380423	0.0112799	0	0	0	
0.1905	0.0146646	0.127624	0.000473425	0.0126709	0	0	0	
0.190667	-0.00504888	0.208094	0.000467144	0.0149396	0	0	0	
0.190833	-0.00266612	-0.117642	0.000366046	0.0161206	0	0	0	
0.191	-0.00115784	0.0667466	0.000213052	0.0150415	0	0	0	
0.191167	0.0123181	-0.031343	0.000124734	0.0121386	0	0	0	
0.191333	-0.0183269	-0.117585	0.000159875	0.0104407	0	0	0	
0.1915	0.0178356	-0.377102	0.000263476	0.0115269	0	0	0	
0.191667	-0.0160186	0.289163	0.000333624	0.0140059	0	0	0	
0.191833	0.0123882	-0.265855	0.00032542	0.0165342	0	0	0	
0.192	-0.00885062	0.0936592	0.000281918	0.0161401	0	0	0	
0.192167	0.0069773	-0.137412	0.000235429	0.0136681	0	0	0	
0.192333	-0.00902624	0.42426	0.000202467	0.0115075	0	0	0	
0.1925	0.0129613	-0.498099	0.000195143	0.0118475	0	0	0	
0.192667	-0.0172193	-0.00180241	0.000229258	0.0126473	0	0	0	
0.192833	0.014419	-0.310543	0.000278562	0.0147016	0	0	0	
0.193	-0.0064027	0.172045	0.000300811	0.0153483	0	0	0	
0.193167	0.00363313	-0.0689968	0.000246253	0.0153558	0	0	0	
0.193333	-0.006914	0.0405968	0.000164352	0.0127137	0	0	0	
0.1935	0.00933501	0.055084	0.000127059	0.00988049	0	0	0	
0.193667	-0.0139959	0.181371	0.000161055	0.0092397	0	0	0	
0.193833	0.0138646	-0.28259	0.000223768	0.0112438	0	0	0	
0.194	-0.0100951	0.287819	0.000260063	0.0144056	0	0	0	
0.194167	0.0061986	-0.134132	0.000237755	0.0153797	0	0	0	
0.194333	-0.00849465	0.152318	0.000189221	0.0135654	0	0	0	
0.1945	0.0169328	-0.3404	0.0001808	0.0117824	0	0	0	
0.194667	-0.0188333	0.355134	0.000242071	0.0121095	0	0	0	
0.194833	0.0112402	0.0661241	0.000316151	0.0133594	0	0	0	
0.195	-0.00614117	0.249634	0.00033684	0.0151277	0	0	0	
0.195167	0.00559907	-0.192343	0.000284469	0.0155841	0	0	0	
0.195333	-0.00718827	0.101748	0.000206804	0.0148425	0	0	0	
0.1955	0.013431	-0.0549808	0.000170828	0.012436	0	0	0	
0.195667	-0.0177304	-0.0972723	0.000208314	0.0099109	0	0	0	
0.195833	0.018979	-0.0931204	0.00028662	0.00858016	0	0	0	
0.196	-0.0125804	0.270282	0.000341195	0.00922666	0	0	0	
0.196167	0.00655194	-0.360279	0.00033297	0.0120023	0	0	0	
0.196333	-0.00320268	0.181885	0.000245483	0.0138532	0	0	0	
0.1965	0.0089751	-0.184816	0.000175665	0.0134194	0	0	0	
0.196667	-0.0156835	0.297644	0.000168396	0.0121521	0	0	0	
0.196833	0.0209488	-0.4046	0.000244396	0.0130085	0	0	0	
0.197	-0.015879	-0.125103	0.000316231	0.0142206	0	0	0	
0.197167	0.0098231	-0.213053	0.000339672	0.0156372	0	0	0	
0.197333	-0.00218984	0.203071	0.000291575	0.0154079	0	0	0	
0.1975	0.00227828	-0.114295	0.00018822	0.0144552	0	0	0	
0.197667	-0.00695604	0.121215	0.000119656	0.0119213	0	0	0	
0.197833	0.0176333	-0.119407	0.000132506	0.00917775	0	0	0	
0.198	-0.0189657	0.0990194	0.000233231	0.00803657	0	0	0	
0.198167	0.0154861	-0.345843	0.000312279	0.0101694	0	0	0	
0.198333	-0.00728175	0.375737	0.000334138	0.014024	0	0	0	
0.1985	0.00444338	-0.175907	0.000277161	0.0159782	0	0	0	
0.198667	-0.00605404	0.159915	0.00020207	0.0142967	0	0	0	
0.198833	0.0113983	-0.231284	0.000158673	0.0119606	0	0	0	
0.199	-0.0131191	0.425323	0.000181606	0.0122262	0	0	0	
0.199167	0.0144559	-0.0697062	0.000221516	0.0130949	0	0	0	
0.199333	-0.0104737	0.305187	0.00025355	0.0146515	0	0	0	
0.1995	0.00768025	-0.237674	0.000232535	0.0151269	0	0	0	
0.199667	-0.00859142	0.12894	0.000200138	0.0146678	0	0	0	
0.199833	0.0123917	-0.159884	0.000183068	0.0123367	0	0	0	
0.2	-0.0165492	0.123471	0.000205682	0.00955723	0	0	0	
0.200167	0.0181045	-0.106874	0.000275526	0.00887205	0	0	0	
0.200333	-0.0103925	0.412365	0.000335491	0.0115709	0	0	0	
0.2005	0.00481171	-0.420544	0.000342027	0.0154033	0	0	0	
0.200667	-0.00360759	0.203872	0.000264411	0.01693	0	0	0	
0.200833	0.00632982	-0.130651	0.000173772	0.0149442	0	0	0	
0.201	-0.0126762	0.083068	0.000131505	0.0122652	0	0	0	
0.201167	0.0198151	-0.0425403	0.000197296	0.0106656	0	0	0	
0.201333	-0.0172411	0.118064	0.000290127	0.00949258	0	0	0	
0.2015	0.0124558	-0.345907	0.000344945	0.00980971	0	0	0	
0.201667	-0.00555679	0.312424	0.000303293	0.011808	0	0	0	
0.201833	0.003737	-0.176812	0.000214854	0.0133262	0	0	0	
0.202	-0.00589824	0.160002	0.000147447	0.0126295	0	0	0	
0.202167	0.0129052	-0.0385997	0.000138627	0.0103365	0	0	0	
0.202333	-0.0139597	-0.0475833	0.000185304	0.0101171	0	0	0	
0.2025	0.0141369	-0.253579	0.000243911	0.0126658	0	0	0	
0.202667	-0.0116206	0.41116	0.000280509	0.0161083	0	0	0	
0.202833	0.0161512	-0.236652	0.000279655	0.0168014	0	0	0	
0.203	-0.0230562	0.176161	0.00030027	0.0145326	0	0	0	
0.203167	0.0160721	-0.116948	0.000345471	0.0119826	0	0	0	
0.203333	-0.00502063	0.32818	0.00041444	0.0118802	0	0	0	
0.2035	0.000911752	-0.264935	0.000386955	0.0128057	0	0	0	
0.203667	-0.00217067	0.387592	0.000275899	0.0141015	0	0	0	
0.203833	0.00381955	-0.305041	0.000178742	0.0150789	0	0	0	
0.204	-0.0116531	0.162186	0.000173366	0.0145443	0	0	0	
0.204167	0.0189281	-0.202625	0.0002577	0.0125363	0	0	0	
0.204333	-0.024749	0.348327	0.000332058	0.0102461	0	0	0	
0.2045	0.0196168	-0.110128	0.000400282	0.00864212	0	0	0	
0.204667	-0.0125681	0.416951	0.000404713	0.0106859	0	0	0	
0.204833	0.0107565	-0.506104	0.000355039	0.0141749	0	0	0	
0.205	-0.00916508	0.253951	0.000262264	0.0167465	0	0	0	
0.205167	0.00866984	-0.132789	0.000200997	0.0155188	0	0	0	
0.205333	-0.00899085	0.0306222	0.000169898	0.0122712	0	0	0	
0.2055	0.0125407	-0.154637	0.000185219	0.00994194	0	0	0	
0.205667	-0.0133483	0.305361	0.000216976	0.00826927	0	0	0	
0.205833	0.0118671	-0.473664	0.000242263	0.00899198	0	0	0	
0.206	-0.00675305	0.384245	0.000224241	0.0119582	0	0	0	
0.206167	0.00430022	-0.199577	0.00017757	0.014148	0	0	0	
0.206333	-0.00317234	0.196298	0.000124558	0.0133849	0	0	0	
0.2065	0.00934166	-0.237754	0.000116264	0.0110762	0	0	0	
0.206667	-0.0159271	-0.173365	0.000169788	0.0100177	0	0	0	
0.206833	0.0173228	-0.233528	0.000249685	0.0117735	0	0	0	
0.207	-0.0140693	0.448041	0.000308327	0.0145538	0	0	0	
0.207167	0.00866197	-0.236224	0.000285717	0.0153854	0	0	0	
0.207333	-0.00985655	0.535908	0.00024246	0.0130761	0	0	0	
0.2075	0.0187648	-1.06489	0.000213458	0.0121296	0	0	0	
0.207667	-0.0166638	1.69356	0.000379624	0.0215231	0	0	0	
0.207833	0.0389942	1.13599	0.000939706	0.0350992	0	0	0	
0.208	-0.018158	-0.667666	0.00112662	0.0468326	0	0	0	
0.208167	0.0055628	0.366805	0.000971581	0.0407204	0	0	0	
0.208333	-0.00913547	0.2883	0.000408621	0.0273707	0	0	0	
0.2085	0.0209372	-0.449051	0.000245717	0.0161925	0	0	0	
0.208667	-0.00440433	0.430307	0.000330125	0.0177835	0	0	0	
0.208833	0.0151196	-0.345465	0.000336486	0.0233756	0	0	0	
0.209	-0.0124886	0.457231	0.000339706	0.0239209	0	0	0	
0.209167	0.009539	-0.741257	0.000260425	0.0211153	0	0	0	
0.209333	-0.0111468	0.817839	0.000275404	0.0202839	0	0	0	
0.2095	0.0113054	-0.697132	0.000248213	0.0227922	0	0	0	
0.209667	-0.0146602	0.583883	0.000262285	0.0251115	0	0	0	
0.209833	0.021913	-0.60565	0.000306783	0.0251757	0	0	0	
0.21	-0.0232403	0.699458	0.000377142	0.023972	0	0	0	
0.210167	0.0201469	-0.754767	0.000405681	0.0234829	0	0	0	
0.210333	-0.013892	0.709961	0.000402018	0.0242776	0	0	0	
0.2105	0.00740692	-0.655647	0.000356936	0.025425	0	0	0	
0.210667	-0.00137559	0.649859	0.000269922	0.025691	0	0	0	
0.210833	0.00819257	-0.689053	0.000182414	0.0251748	0	0	0	
0.211	-0.0127621	0.702858	0.000147893	0.0247723	0	0	0	
0.211167	0.0162382	-0.679091	0.000195968	0.0249559	0	0	0	
0.211333	-0.0207408	0.66898	0.00028776	0.0252035	0	0	0	
0.2115	0.0257289	-0.691974	0.00036188	0.0251458	0	0	0	
0.211667	-0.0160139	0.689409	0.000401715	0.0248905	0	0	0	
0.211833	0.013726	-0.687623	0.000398896	0.024759	0	0	0	
0.212	-0.0140681	0.694606	0.000347998	0.0247435	0	0	0	
0.212167	0.0149136	-0.705653	0.000315457	0.0248141	0	0	0	
0.212333	-0.0171805	0.699465	0.000302477	0.0248848	0	0	0	
0.2125	0.0220323	-0.705668	0.000335196	0.0249287	0	0	0	
0.212667	-0.0194298	0.722718	0.000366898	0.0248538	0	0	0	
0.212833	0.0157931	-0.751001	0.000383097	0.0248874	0	0	0	
0.213	-0.0122685	0.716642	0.00034835	0.0251809	0	0	0	
0.213167	0.012866	-0.614109	0.000290897	0.0256346	0	0	0	
0.213333	-0.0138048	0.637888	0.000255352	0.0259116	0	0	0	
0.2135	0.0138622	-0.600586	0.000263627	0.0249279	0	0	0	
0.213667	-0.0168291	0.709056	0.000284501	0.0236007	0	0	0	
0.213833	0.0193034	-0.775079	0.000314015	0.0229139	0	0	0	
0.214	-0.0130135	0.782712	0.000312741	0.0236442	0	0	0	
0.214167	0.0130095	-0.79968	0.000305196	0.0248425	0	0	0	
0.214333	-0.0147126	0.831488	0.00028378	0.0260356	0	0	0	
0.2145	0.0160035	-0.653928	0.000283949	0.0265731	0	0	0	
0.214667	-0.0138952	0.648542	0.000289257	0.0264222	0	0	0	
0.214833	0.0122632	-0.723234	0.000275265	0.0253597	0	0	0	
0.215	-0.0143584	0.772094	0.000258654	0.0246584	0	0	0	
0.215167	0.0214924	-0.754181	0.000279089	0.024583	0	0	0	
0.215333	-0.0185997	0.754356	0.000316731	0.0247495	0	0	0	
0.2155	-0.00745032	-0.845767	0.000387051	0.0248447	0	0	0	
0.215667	-0.0456832	0.431159	0.000762984	0.0235195	0	0	0	
0.215833	0.0208448	-0.63429	0.00104752	0.0228703	0	0	0	
0.216	-0.0258252	0.670556	0.00111622	0.0227055	0	0	0	
0.216167	0.0378791	-0.742845	0.000862409	0.023382	0	0	0	
0.216333	-0.0418567	0.835491	0.000761065	0.0234534	0	0	0	
0.2165	0.0306074	-0.876705	0.000855008	0.023485	0	0	0	
0.216667	-0.0453709	0.678434	0.00109337	0.0239361	0	0	0	
0.216833	0.0262528	-0.916621	0.00139837	0.0250703	0	0	0	
0.217	-0.00937672	0.839017	0.00119658	0.0266759	0	0	0	
0.217167	0.0215956	-0.710165	0.000881431	0.0276619	0	0	0	
0.217333	-0.0431306	0.654219	0.000586129	0.0270711	0	0	0	
0.2175	0.0559919	-0.71175	0.00083649	0.0248258	0	0	0	
0.217667	-0.0555228	0.827074	0.000997884	0.0231022	0	0	0	
0.217833	0.0384986	-0.88471	0.00101948	0.0227371	0	0	0	
0.218	-0.0196867	0.884182	0.000952704	0.0236348	0	0	0	
0.218167	0.0106481	-0.854749	0.000828914	0.0248617	0	0	0	
0.218333	-0.00923208	0.840012	0.000609366	0.0256368	0	0	0	
0.2185	0.00654027	-0.828051	0.000392096	0.0257741	0	0	0	
0.218667	-0.00786015	0.825479	0.00025559	0.0255125	0	0	0	
0.218833	0.00695518	-0.835404	0.00020173	0.025154	0	0	0	
0.219	-0.00825321	0.850254	0.000169335	0.0249099	0	0	0	
0.219167	0.0167128	-0.868489	0.000195418	0.024933	0	0	0	
0.219333	-0.0293867	0.869869	0.000280236	0.025142	0	0	0	
0.2195	0.0301397	-0.858868	0.00042255	0.0253727	0	0	0	
0.219667	-0.0212322	0.853393	0.000519181	0.0253243	0	0	0	
0.219833	0.00540058	-0.872651	0.000524015	0.025137	0	0	0	
0.22	0.000542721	0.872274	0.000417639	0.0250286	0	0	0	
0.220167	0.00265968	-0.856583	0.000248264	0.025115	0	0	0	
0.220333	-0.0165642	0.857152	0.000190052	0.0251059	0	0	0	
0.2205	0.0290667	-0.877149	0.000284788	0.0249627	0	0	0	
0.220667	-0.0371096	0.874377	0.000480623	0.0248356	0	0	0	
0.220833	0.0306443	-0.865642	0.000592109	0.0248938	0	0	0	
0.221	-0.0183632	0.869758	0.000597373	0.0249458	0	0	0	
0.221167	0.0117135	-0.884542	0.000515738	0.02492	0	0	0	
0.221333	-0.0143623	0.88985	0.000398269	0.0249605	0	0	0	
0.2215	0.0155165	-0.860644	0.000318092	0.0250596	0	0	0	
0.221667	-0.0172632	0.838376	0.000301733	0.0249617	0	0	0	
0.221833	0.0184467	-0.873328	0.000319045	0.0246738	0	0	0	
0.222	-0.0140314	0.904361	0.00032093	0.0244983	0	0	0	
0.222167	0.00837501	-0.902391	0.000284855	0.0247021	0	0	0	
0.222333	-0.00698671	0.893241	0.000232453	0.0250193	0	0	0	
0.2225	0.0129137	-0.896781	0.000190323	0.0251589	0	0	0	
0.222667	-0.0172354	0.892376	0.000215897	0.0251171	0	0	0	
0.222833	0.0185208	-0.89873	0.000273894	0.0251149	0	0	0	
0.223	-0.020933	0.894266	0.000359549	0.0250995	0	0	0	
0.223167	0.0245974	-0.902131	0.000407372	0.0250212	0	0	0	
0.223333	-0.0246373	0.909992	0.000452855	0.0248171	0	0	0	
0.2235	0.0247523	-0.935954	0.000450524	0.0247236	0	0	0	
0.223667	-0.0239886	0.955961	0.000460624	0.0248733	0	0	0	
0.223833	0.0211399	-0.93504	0.00044565	0.0251978	0	0	0	
0.224	-0.0145993	0.902802	0.000424166	0.0254608	0	0	0	
0.224167	0.00818959	-0.892662	0.000338298	0.0253674	0	0	0	
0.224333	-0.00422163	0.899321	0.000241523	0.0250405	0	0	0	
0.2245	0.00625953	-0.901565	0.000163165	0.0247338	0	0	0	
0.224667	-0.00940935	0.916817	0.000167015	0.0245555	0	0	0	
0.224833	0.0118674	-0.961008	0.000200918	0.0245092	0	0	0	
0.225	-0.0119573	0.991587	0.000241816	0.0247329	0	0	0	
0.225167	0.0159213	-0.968083	0.000270296	0.0252562	0	0	0	
0.225333	-0.0205087	0.927363	0.000306754	0.0256694	0	0	0	
0.2255	0.0194725	-0.925123	0.00035268	0.0255802	0	0	0	
0.225667	-0.0121982	0.947659	0.000340676	0.0251744	0	0	0	
0.225833	0.0140007	-0.964953	0.000308721	0.0250117	0	0	0	
0.226	-0.0142085	0.949102	0.000268566	0.0251276	0	0	0	
0.226167	0.0130661	-0.944458	0.000260385	0.025226	0	0	0	
0.226333	-0.0105142	0.95287	0.000253912	0.0250859	0	0	0	
0.2265	0.0143697	-0.958731	0.000237018	0.0249516	0	0	0	
0.226667	-0.0148213	0.959187	0.000248184	0.0249355	0	0	0	
0.226833	0.0133001	-0.963918	0.000261171	0.0249634	0	0	0	
0.227	-0.00887437	0.975606	0.000257077	0.0249316	0	0	0	
0.227167	0.0138436	-0.982769	0.000236718	0.0249555	0	0	0	
0.227333	-0.0164623	0.973629	0.000249294	0.0250841	0	0	0	
0.2275	0.0134233	-0.953493	0.000272503	0.0252239	0	0	0	
0.227667	-0.0111134	0.950892	0.000277898	0.0251437	0	0	0	
0.227833	0.0129712	-0.971303	0.000257289	0.0249729	0	0	0	
0.228	-0.0167068	0.974929	0.000255822	0.0248971	0	0	0	
0.228167	0.0171608	-0.952434	0.00029481	0.024959	0	0	0	
0.228333	-0.0175744	0.961395	0.000335396	0.0248902	0	0	0	
0.2285	0.0182612	-0.999072	0.000362863	0.0247794	0	0	0	
0.228667	-0.0135697	0.996298	0.000331758	0.0248551	0	0	0	
0.228833	0.0104107	-0.976873	0.00028851	0.0250876	0	0	0	
0.229	-0.010872	0.986422	0.000243451	0.0251038	0	0	0	
0.229167	0.0119078	-1.00768	0.000245282	0.0249938	0	0	0	
0.229333	-0.0131579	0.995578	0.000257023	0.0250075	0	0	0	
0.2295	0.015587	-0.979989	0.000282064	0.025161	0	0	0	
0.229667	-0.0179611	0.986798	0.000299035	0.0251515	0	0	0	
0.229833	0.0193403	-0.996811	0.000322974	0.02499	0	0	0	
0.23	-0.0135653	0.99911	0.000332899	0.0248722	0	0	0	
0.230167	0.012838	-1.00228	0.000310383	0.0249148	0	0	0	
0.230333	-0.0128504	1.00712	0.000285275	0.0249565	0	0	0	
0.2305	0.0146731	-1.02262	0.000266113	0.0250022	0	0	0	
0.230667	-0.0152521	1.02257	0.000288295	0.0250449	0	0	0	
0.230833	0.0146818	-1.0119	0.000294856	0.0251269	0	0	0	
0.231	-0.0126168	1.0039	0.000293738	0.0251085	0	0	0	
0.231167	0.0148626	-1.01421	0.000274507	0.025037	0	0	0	
0.231333	-0.0148622	1.01811	0.000275227	0.0249409	0	0	0	
0.2315	0.0156175	-1.02378	0.000283515	0.0249475	0	0	0	
0.231667	-0.013798	1.02674	0.000292785	0.0249662	0	0	0	
0.231833	0.0120895	-1.0285	0.00027847	0.0250033	0	0	0	
0.232	-0.0160259	1.01708	0.000273524	0.0250176	0	0	0	
0.232167	0.0170818	-1.01947	0.000284482	0.0249448	0	0	0	
0.232333	-0.0130609	0.996324	0.000306083	0.0245588	0	0	0	
0.2325	0.0128535	-1.08091	0.000292146	0.0241363	0	0	0	
0.232667	-0.0149128	1.19227	0.000268242	0.0248947	0	0	0	
0.232833	0.0122839	-1.08678	0.000248014	0.0261006	0	0	0	
0.233	-0.0127498	1.02154	0.000252912	0.0268437	0	0	0	
0.233167	0.0135498	-1.00541	0.000259005	0.0261536	0	0	0	
0.233333	-0.0156046	0.95046	0.000279443	0.0250249	0	0	0	
0.2335	0.0178029	-0.984009	0.000305552	0.0241921	0	0	0	
0.233667	-0.0196741	1.12899	0.000336932	0.0241509	0	0	0	
0.233833	0.0202237	-1.11496	0.00035718	0.0245027	0	0	0	
0.234	-0.0177687	1.09817	0.00037024	0.025126	0	0	0	
0.234167	0.0131413	-1.06493	0.00034057	0.0253795	0	0	0	
0.234333	-0.0143646	1.05923	0.000307852	0.0253994	0	0	0	
0.2345	0.0166222	-0.980728	0.000291122	0.025337	0	0	0	
0.234667	-0.0159291	0.818746	0.000300067	0.0246042	0	0	0	
0.234833	0.0166935	-1.14164	0.000322251	0.0232117	0	0	0	
0.235	-0.0180924	2.60532	0.000371046	0.026848	0	0	0	
0.235167	-0.0400077	-1.1907	0.000624729	0.0337118	0	0	0	
0.235333	-0.0425082	1.56989	0.00110269	0.0398118	0	0	0	
0.2355	0.0134993	-0.658931	0.00112	0.0438392	0	0	0	
0.235667	-0.00756016	0.329325	0.000841068	0.0364195	0	0	0	
0.235833	0.0080674	-0.774455	0.000356012	0.0272418	0	0	0	
0.236	0.0112189	1.00087	0.000328171	0.0167918	0	0	0	
0.236167	0.0125222	-0.556944	0.000354783	0.0150026	0	0	0	
0.236333	-0.0148565	0.362092	0.00033486	0.0173679	0	0	0	
0.2365	0.0175104	-0.491243	0.000291727	0.0177418	0	0	0	
0.236667	-0.0124408	0.561708	0.000288368	0.0171261	0	0	0	
0.236833	0.00713157	-0.555609	0.000263614	0.0146366	0	0	0	
0.237	-0.00817013	0.517481	0.000214184	0.0127396	0	0	0	
0.237167	0.0140283	-0.652696	0.000201371	0.0128837	0	0	0	
0.237333	-0.0164151	0.636756	0.00025275	0.0143934	0	0	0	
0.2375	0.0161156	-0.374529	0.000298846	0.0135221	0	0	0	
0.237667	-0.0138124	0.776971	0.000315382	0.0136035	0	0	0	
0.237833	0.00585698	-0.542246	0.000270599	0.0131625	0	0	0	
0.238	-0.00633343	0.384905	0.000217036	0.0137405	0	0	0	
0.238167	0.0111896	-0.363446	0.000187783	0.0117483	0	0	0	
0.238333	-0.0126097	0.279137	0.000218585	0.00942789	0	0	0	
0.2385	0.0138156	-0.564796	0.000256807	0.00827798	0	0	0	
0.238667	-0.0103116	0.92943	0.000266264	0.0111461	0	0	0	
0.238833	0.00391905	-0.752373	0.000222916	0.0149822	0	0	0	
0.239	-0.00483596	0.502029	0.000182114	0.0167485	0	0	0	
0.239167	0.0073313	-0.393982	0.000158699	0.0144675	0	0	0	
0.239333	-0.0148781	0.426202	0.00019558	0.0116644	0	0	0	
0.2395	0.0244837	-0.242497	0.000287584	0.00981134	0	0	0	
0.239667	-0.0198906	0.410437	0.000357599	0.00881782	0	0	0	
0.239833	0.00866267	-0.841676	0.000368631	0.0101185	0	0	0	
0.24	0.000525836	0.604328	0.00027461	0.0127731	0	0	0	
0.240167	0.000440154	-0.433413	0.000167464	0.0140722	0	0	0	
0.240333	-0.00665011	0.427004	0.000126406	0.0125285	0	0	0	
0.2405	0.0160481	-0.0878306	0.000189863	0.0100319	0	0	0	
0.240667	-0.0196349	0.503513	0.000292664	0.00975266	0	0	0	
0.240833	0.0157713	-0.824395	0.000343476	0.0124356	0	0	0	
0.241	-0.00494267	0.729393	0.000301173	0.015915	0	0	0	
0.241167	0.00436365	-0.516943	0.000209438	0.0164233	0	0	0	
0.241333	-0.00563741	0.441258	0.000134724	0.0139945	0	0	0	
0.2415	0.0131444	-0.495991	0.000124104	0.0114333	0	0	0	
0.241667	-0.0157817	0.725279	0.000191537	0.0118514	0	0	0	
0.241833	0.0180575	-0.56141	0.000267249	0.0129414	0	0	0	
0.242	-0.0148611	0.838646	0.000316677	0.0147446	0	0	0	
0.242167	0.00759835	-0.566127	0.000285405	0.0153	0	0	0	
0.242333	-0.00396155	0.394197	0.000213534	0.014317	0	0	0	
0.2425	0.0107794	-0.436768	0.00017026	0.0119309	0	0	0	
0.242667	-0.0166773	0.493379	0.000214633	0.0105654	0	0	0	
0.242833	0.0149589	-0.473759	0.000285688	0.00949457	0	0	0	
0.243	-0.0105878	0.949275	0.000315717	0.0122325	0	0	0	
0.243167	0.00642653	-0.75776	0.000265832	0.0153853	0	0	0	
0.243333	-0.00651476	0.47572	0.000199908	0.0172695	0	0	0	
0.2435	0.00580051	-0.373862	0.000162078	0.0149601	0	0	0	
0.243667	-0.0103369	0.339697	0.000159611	0.0110565	0	0	0	
0.243833	0.0126922	-0.199808	0.000207204	0.00919633	0	0	0	
0.244	-0.0131592	0.559674	0.000257539	0.00830122	0	0	0	
0.244167	0.0106727	-0.952142	0.000273135	0.0104773	0	0	0	
0.244333	-0.00758793	0.675747	0.000233759	0.0135696	0	0	0	
0.2445	0.0053238	-0.446766	0.000175539	0.0151618	0	0	0	
0.244667	-0.00946938	0.461005	0.000147994	0.0132493	0	0	0	
0.244833	0.0134402	-0.329783	0.000177787	0.0113419	0	0	0	
0.245	-0.0139429	0.369257	0.000238631	0.00969878	0	0	0	
0.245167	0.0151915	-0.813846	0.00028454	0.0120568	0	0	0	
0.245333	-0.0146083	0.775274	0.00030207	0.0147179	0	0	0	
0.2455	0.00885232	-0.530498	0.000268744	0.0165291	0	0	0	
0.245667	-0.00550668	0.424473	0.000223667	0.0143836	0	0	0	
0.245833	0.00854656	-0.381587	0.000189708	0.0109875	0	0	0	
0.246	-0.0148053	0.641345	0.000232844	0.0102789	0	0	0	
0.246167	0.0182957	-0.761178	0.000298628	0.0123706	0	0	0	
0.246333	-0.0150889	0.931461	0.000340411	0.0150355	0	0	0	
0.2465	0.0086916	-0.617887	0.000304613	0.0169056	0	0	0	
0.246667	-0.00490387	0.425882	0.00023464	0.015093	0	0	0	
0.246833	0.00716918	-0.486767	0.000167834	0.0124753	0	0	0	
0.247	-0.0124744	0.679986	0.000172573	0.0115588	0	0	0	
0.247167	0.0167937	-0.453233	0.000222786	0.0115995	0	0	0	
0.247333	-0.0167704	0.859285	0.000287513	0.0128303	0	0	0	
0.2475	0.012265	-0.833909	0.00031172	0.0149696	0	0	0	
0.247667	-0.0062684	0.539789	0.000276541	0.0156863	0	0	0	
0.247833	0.00881059	-0.420832	0.000228299	0.0148295	0	0	0	
0.248	-0.0154666	0.352423	0.00023542	0.0110507	0	0	0	
0.248167	0.0213241	-0.432288	0.00030306	0.00935396	0	0	0	
0.248333	-0.0204023	0.724002	0.000377753	0.0106804	0	0	0	
0.2485	0.0107741	-0.898196	0.000370392	0.0132567	0	0	0	
0.248667	-0.00236644	0.631478	0.000278051	0.0156599	0	0	0	
0.248833	0.00136291	-0.466278	0.000165207	0.0145508	0	0	0	
0.249	-0.00320154	0.510081	0.000113832	0.0123372	0	0	0	
0.249167	0.00885744	-0.68265	0.000164842	0.0116519	0	0	0	
0.249333	-0.0184858	0.548497	0.000261328	0.0119339	0	0	0	
0.2495	0.017225	-0.828744	0.000332151	0.0133345	0	0	0	
0.249667	-0.0126013	0.846627	0.000335005	0.0154872	0	0	0	
0.249833	0.00577403	-0.560638	0.000272336	0.0160366	0	0	0	
0.25	-0.00403086	0.459743	0.000186731	0.0149462	0	0	0	
0.250167	0.00846039	-0.335371	0.000155467	0.0113333	0	0	0	
0.250333	-0.0142574	0.298489	0.000180611	0.00960007	0	0	0	
0.2505	0.0150606	-0.359767	0.0002462	0.00857795	0	0	0	
0.250667	-0.0136489	0.800882	0.000273235	0.0100241	0	0	0	
0.250833	0.0085875	-0.641386	0.000265226	0.0120849	0	0	0	
0.251	-0.00594192	0.515503	0.000212335	0.0132052	0	0	0	
0.251167	0.0072364	-0.578175	0.000174904	0.012183	0	0	0	
0.251333	-0.0111392	0.844388	0.000167625	0.0123876	0	0	0	
0.2515	0.0123488	-0.3682	0.000207617	0.0129807	0	0	0	
0.251667	-0.0107895	0.799115	0.000239178	0.0151882	0	0	0	
0.251833	0.009206	-0.796157	0.000259108	0.0169598	0	0	0	
0.252	-0.00556855	0.522745	0.00023071	0.0170352	0	0	0	
0.252167	0.00578153	-0.441606	0.000205805	0.0146463	0	0	0	
0.252333	-0.0109858	0.376028	0.000189807	0.0106884	0	0	0	
0.2525	0.0175648	-0.251413	0.000230438	0.00816671	0	0	0	
0.252667	-0.0141752	0.714251	0.000287292	0.00866879	0	0	0	
0.252833	0.0103384	-0.9575	0.000305642	0.0114567	0	0	0	
0.253	-0.00486787	0.687594	0.000259373	0.0151634	0	0	0	
0.253167	0.00389902	-0.502974	0.000187212	0.0151649	0	0	0	
0.253333	-0.00543896	0.508521	0.000148835	0.0128276	0	0	0	
0.2535	0.0123669	-0.73421	0.000177712	0.0117432	0	0	0	
0.253667	-0.0131613	0.645394	0.000250309	0.0126657	0	0	0	
0.253833	0.0132565	-0.744425	0.00029866	0.0131233	0	0	0	
0.254	-0.0116927	0.885946	0.000296493	0.015007	0	0	0	
0.254167	0.00714928	-0.573364	0.000239571	0.0148994	0	0	0	
0.254333	-0.00212262	0.428433	0.000170122	0.0146021	0	0	0	
0.2545	0.00587472	-0.395335	0.000129323	0.0111613	0	0	0	
0.254667	-0.0133598	0.381098	0.00015871	0.0085474	0	0	0	
0.254833	0.0138477	-0.880648	0.000243785	0.00928903	0	0	0	
0.255	-0.0158151	1.01855	0.00029918	0.0127569	0	0	0	
0.255167	0.0123772	-0.726549	0.000306105	0.0165608	0	0	0	
0.255333	-0.0099485	0.561683	0.000259979	0.0164046	0	0	0	
0.2555	0.0111741	-0.497939	0.000230264	0.013662	0	0	0	
0.255667	-0.0150153	0.490671	0.000226509	0.0118249	0	0	0	
0.255833	0.0114351	-0.331337	0.000243121	0.0103884	0	0	0	
0.256	-0.0110385	0.481818	0.000247249	0.00940883	0	0	0	
0.256167	0.00912159	-0.859584	0.000227937	0.0106308	0	0	0	
0.256333	-0.00512881	0.630797	0.000207759	0.0125864	0	0	0	
0.2565	0.00716872	-0.517047	0.000203356	0.0137024	0	0	0	
0.256667	-0.0150593	0.498153	0.000229083	0.011873	0	0	0	
0.256833	0.0138981	-0.355449	0.000268348	0.00989118	0	0	0	
0.257	-0.0115473	0.904279	0.000295283	0.0123144	0	0	0	
0.257167	0.00731502	-0.945516	0.000287818	0.015438	0	0	0	
0.257333	-0.00530444	0.685733	0.000274757	0.0184185	0	0	0	
0.2575	0.00860836	-0.55407	0.00023069	0.0160554	0	0	0	
0.257667	-0.0103458	0.536438	0.00021094	0.0130397	0	0	0	
0.257833	0.0132586	-0.675409	0.00019841	0.0115277	0	0	0	
0.258	-0.014006	0.776847	0.000250653	0.0129252	0	0	0	
0.258167	0.00949673	-0.673579	0.000258815	0.0132221	0	0	0	
0.258333	-0.00681569	0.929576	0.000235587	0.0150178	0	0	0	
0.2585	0.00657107	-0.628142	0.000186209	0.0146934	0	0	0	
0.258667	-0.00613311	0.472632	0.000169532	0.0145679	0	0	0	
0.258833	0.00186089	-0.463027	0.000158425	0.0117993	0	0	0	
0.259	-0.0114007	0.385603	0.000154342	0.00972355	0	0	0	
0.259167	0.0105869	-0.748126	0.000181043	0.00887711	0	0	0	
0.259333	-0.0109084	1.04905	0.000230027	0.0119361	0	0	0	
0.2595	0.00663402	-0.797749	0.000267531	0.015337	0	0	0	
0.259667	-0.00700641	0.599828	0.000235913	0.0167558	0	0	0	
0.259833	0.0073578	-0.488639	0.000186486	0.0142043	0	0	0	
0.26	-0.0165083	0.48963	0.000169983	0.0115332	0	0	0	
0.260167	0.0130128	-0.241984	0.000234627	0.00927788	0	0	0	
0.260333	-0.0140319	0.490018	0.000321529	0.00826859	0	0	0	
0.2605	0.0121201	-0.913119	0.000379958	0.0096987	0	0	0	
0.260667	-0.00871595	0.689682	0.000334374	0.012645	0	0	0	
0.260833	0.00434717	-0.542943	0.000248585	0.01397	0	0	0	
0.261	-0.00575059	0.528808	0.000163404	0.0124971	0	0	0	
0.261167	0.00753767	-0.082253	0.000156844	0.00998106	0	0	0	
0.261333	-0.00800426	0.699669	0.000175983	0.0101028	0	0	0	
0.2615	0.00822646	-0.993784	0.000194013	0.0129985	0	0	0	
0.261667	-0.00527661	0.75547	0.000176153	0.0166834	0	0	0	
0.261833	0.00277357	-0.583039	0.000146869	0.0167174	0	0	0	
0.262	-0.00523844	0.531387	0.00012851	0.0138875	0	0	0	
0.262167	0.00979943	-0.605842	0.000149571	0.0113896	0	0	0	
0.262333	-0.0117168	0.825895	0.000202504	0.0121035	0	0	0	
0.2625	0.0119072	-0.69469	0.000242595	0.0132305	0	0	0	
0.262667	-0.00674954	0.933394	0.000243212	0.0152673	0	0	0	
0.262833	0.00261594	-0.647524	0.000193282	0.0153996	0	0	0	
0.263	-0.00345577	0.499365	0.000150366	0.0143937	0	0	0	
0.263167	0.0113894	-0.531693	0.000164094	0.0120294	0	0	0	
0.263333	-0.0177327	0.43875	0.000257888	0.0109174	0	0	0	
0.2635	0.0201244	-0.519406	0.000337956	0.00965296	0	0	0	
0.263667	-0.0163343	1.03263	0.00036612	0.0118432	0	0	0	
0.263833	0.010187	-0.840465	0.000321233	0.0144695	0	0	0	
0.264	-0.00427269	0.622275	0.000245739	0.0164282	0	0	0	
0.264167	0.00423099	-0.528858	0.000169031	0.0146284	0	0	0	
0.264333	-0.00641385	0.519782	0.0001379	0.0114923	0	0	0	
0.2645	0.0117129	-0.722414	0.000172193	0.0112545	0	0	0	
0.264667	-0.0131473	0.662136	0.000243059	0.0125097	0	0	0	
0.264833	0.0124057	-0.859659	0.000284859	0.0143782	0	0	0	
0.265	-0.00737099	0.621881	0.000285034	0.014889	0	0	0	
0.265167	0.0068665	-0.510995	0.00023483	0.0135177	0	0	0	
0.265333	-0.0100372	0.566678	0.000207132	0.0116887	0	0	0	
0.2655	0.01605	-0.540267	0.000227418	0.0112221	0	0	0	
0.265667	-0.0158519	0.628136	0.000283812	0.0107907	0	0	0	
0.265833	0.015446	-1.0464	0.00030637	0.0130773	0	0	0	
0.266	-0.00896722	0.833167	0.000301189	0.0155188	0	0	0	
0.266167	0.00455827	-0.594389	0.000231371	0.0167047	0	0	0	
0.266333	-0.00553218	0.510367	0.000182193	0.0145741	0	0	0	
0.2665	0.0117883	-0.503674	0.000151752	0.0110783	0	0	0	
0.266667	-0.0142133	0.830546	0.000210697	0.0109054	0	0	0	
0.266833	0.0158393	-0.834974	0.000280009	0.0133583	0	0	0	
0.267	-0.0132226	1.0025	0.000334715	0.0162927	0	0	0	
0.267167	0.00588103	-0.671864	0.000316619	0.0173936	0	0	0	
0.267333	-0.00506208	0.497502	0.000252525	0.0150935	0	0	0	
0.2675	0.00542084	-0.554408	0.000181062	0.0123203	0	0	0	
0.267667	-0.00513966	0.639678	0.000165114	0.011805	0	0	0	
0.267833	0.00901726	-0.466539	0.000197477	0.0119009	0	0	0	
0.268	-0.0112744	0.995552	0.000259891	0.0131946	0	0	0	
0.268167	0.00538318	-0.836474	0.00030502	0.0149912	0	0	0	
0.268333	-0.00728446	0.605357	0.000293081	0.0155168	0	0	0	
0.2685	0.00702582	-0.503088	0.000240184	0.0144501	0	0	0	
0.268667	-0.00870715	0.439231	0.000182622	0.0108899	0	0	0	
0.268833	0.0108792	-0.562977	0.000184664	0.00947909	0	0	0	
0.269	-0.0100249	0.781753	0.000222445	0.0110093	0	0	0	
0.269167	0.00139968	-0.953726	0.000240969	0.0138212	0	0	0	
0.269333	-0.00119348	0.667154	0.000217586	0.0159913	0	0	0	
0.2695	0.00350628	-0.524631	0.000171061	0.0146316	0	0	0	
0.269667	-0.00486087	0.582083	0.000154751	0.0122844	0	0	0	
0.269833	0.00580842	-0.656166	0.000180341	0.0119937	0	0	0	
0.27	-0.00563983	0.600096	0.00022482	0.0123133	0	0	0	
0.270167	0.00477457	-0.978493	0.000270609	0.0136728	0	0	0	
0.270333	-0.0084554	0.836433	0.000279966	0.0154363	0	0	0	
0.2705	0.00799545	-0.611282	0.000247466	0.0157568	0	0	0	
0.270667	-0.00376795	0.534486	0.000187912	0.0145535	0	0	0	
0.270833	0.00324694	-0.402849	0.000141914	0.0110512	0	0	0	
0.271	-0.00440731	0.376446	0.000149476	0.00930255	0	0	0	
0.271167	0.00689502	-0.474888	0.000192372	0.0079779	0	0	0	
0.271333	-0.00676432	0.844195	0.000238656	0.00981043	0	0	0	
0.2715	0.00441926	-0.66163	0.000235753	0.0120722	0	0	0	
0.271667	-0.00403926	0.558159	0.000207536	0.0135177	0	0	0	
0.271833	0.00670325	-0.622301	0.000186481	0.0122822	0	0	0	
0.272	-0.00827224	0.815334	0.00020283	0.0125893	0	0	0	
0.272167	0.00780926	-0.501342	0.000239225	0.0126366	0	0	0	
0.272333	-0.00708318	0.979563	0.000287982	0.0149505	0	0	0	
0.2725	0.00766533	-0.800828	0.00030076	0.0164016	0	0	0	
0.272667	-0.00357405	0.568839	0.000263725	0.0167603	0	0	0	
0.272833	0.00186156	-0.485082	0.000184857	0.0141321	0	0	0	
0.273	-0.00412991	0.407952	0.000155037	0.0104103	0	0	0	
0.273167	0.0103605	-0.337649	0.000200931	0.00800952	0	0	0	
0.273333	-0.0135099	0.772153	0.000279409	0.00881609	0	0	0	
0.2735	0.0109867	-0.997704	0.000298544	0.0119724	0	0	0	
0.273667	-0.00505406	0.690887	0.000245191	0.015585	0	0	0	
0.273833	0.00449176	-0.542326	0.000163805	0.0152023	0	0	0	
0.274	-0.00115414	0.573606	0.000105873	0.0126005	0	0	0	
0.274167	-0.000372105	-0.720413	8.22186E-05	0.0120262	0	0	0	
0.274333	-0.00457755	0.635134	0.000134606	0.0130002	0	0	0	
0.2745	0.0117663	-0.889365	0.000236625	0.013434	0	0	0	
0.274667	-0.0138294	0.868335	0.000336632	0.0149621	0	0	0	
0.274833	0.0109307	-0.603349	0.000348503	0.0146173	0	0	0	
0.275	-0.00776458	0.48449	0.000291495	0.0141564	0	0	0	
0.275167	0.00955842	-0.442717	0.000228513	0.010896	0	0	0	
0.275333	-0.0119864	0.476555	0.00021901	0.00850869	0	0	0	
0.2755	0.00899691	-0.923155	0.000229865	0.00987308	0	0	0	
0.275667	-0.0062165	1.01943	0.000235366	0.0133167	0	0	0	
0.275833	0.000886499	-0.702267	0.000231477	0.0168246	0	0	0	
0.276	-0.00347413	0.592526	0.000229126	0.0159278	0	0	0	
0.276167	0.00405368	-0.54567	0.000215519	0.0129688	0	0	0	
0.276333	-0.00173487	0.442504	0.000190465	0.0112618	0	0	0	
0.2765	0.00279361	-0.423308	0.000191618	0.00988298	0	0	0	
0.276667	-0.0087476	0.612236	0.00023065	0.00904137	0	0	0	
0.276833	0.00535173	-0.813768	0.000260543	0.0105875	0	0	0	
0.277	-0.00145091	0.629498	0.000217518	0.0124289	0	0	0	
0.277167	0.00222126	-0.543442	0.0001499	0.0133907	0	0	0	
0.277333	-0.00426955	0.529712	0.000119221	0.0114301	0	0	0	
0.2775	0.00597717	-0.677062	0.000152437	0.0095743	0	0	0	
0.277667	-0.00607866	0.967438	0.000198662	0.0123209	0	0	0	
0.277833	0.00466953	-1.03369	0.000217307	0.0158306	0	0	0	
0.278	-0.00445574	0.669574	0.000209351	0.0188617	0	0	0	
0.278167	0.00579964	-0.548722	0.000186339	0.0161735	0	0	0	
0.278333	-0.0049619	0.548858	0.000162152	0.0126776	0	0	0	
0.2785	0.00705192	-0.682464	0.000159582	0.01128	0	0	0	
0.278667	-0.00671012	0.712147	0.000185588	0.0126046	0	0	0	
0.278833	0.00753438	-0.80987	0.000207607	0.0130322	0	0	0	
0.279	-0.00661725	0.901367	0.000218449	0.0149875	0	0	0	
0.279167	0.00269445	-0.628346	0.00019516	0.0145126	0	0	0	
0.279333	-0.00238481	0.478404	0.000162603	0.0141423	0	0	0	
0.2795	0.00573021	-0.459729	0.000148591	0.0110772	0	0	0	
0.279667	-0.00806141	0.365107	0.000197698	0.00929018	0	0	0	
0.279833	0.0116104	-0.835305	0.000285708	0.00890442	0	0	0	
0.28	-0.0127933	1.08512	0.000357161	0.0125514	0	0	0	
0.280167	0.00952575	-0.751437	0.000349709	0.0158142	0	0	0	
0.280333	-0.00837862	0.591326	0.00028268	0.0167752	0	0	0	
0.2805	0.00592624	-0.516247	0.000206049	0.0135409	0	0	0	
0.280667	-0.00484347	0.5213	0.000161928	0.0110597	0	0	0	
0.280833	0.000527	-0.355952	0.000161877	0.00938093	0	0	0	
0.281	0.00472018	0.58667	0.000186885	0.00903976	0	0	0	
0.281167	-0.00812026	-0.857017	0.000263091	0.0108217	0	0	0	
0.281333	0.000780351	0.646015	0.000355644	0.0130676	0	0	0	
0.2815	0.00857338	-0.527633	0.000407381	0.0135969	0	0	0	
0.281667	-0.0103003	0.538198	0.000366844	0.0116106	0	0	0	
0.281833	0.00901823	-0.208768	0.000271087	0.00930818	0	0	0	
0.282	-0.00441811	0.827501	0.000198549	0.00999721	0	0	0	
0.282167	-0.0108607	-1.0292	0.000147848	0.0131829	0	0	0	
0.282333	0.0125225	0.693714	0.000183347	0.0166881	0	0	0	
0.2825	-0.00131421	-0.563287	0.000228626	0.0162029	0	0	0	
0.282667	-0.00662216	0.529727	0.000302487	0.0130658	0	0	0	
0.282833	0.00845727	-0.630042	0.000293961	0.0108714	0	0	0	
0.283	-0.00515357	0.819245	0.000300342	0.0119893	0	0	0	
0.283167	0.00609012	-0.753045	0.000311478	0.0133562	0	0	0	
0.283333	-0.0249438	0.88578	0.000309593	0.0155365	0	0	0	
0.2835	0.0091268	-0.618457	0.000322697	0.0151572	0	0	0	
0.283667	-0.00155759	0.482381	0.000239838	0.0138167	0	0	0	
0.283833	0.0052269	-0.529656	0.000239794	0.0112718	0	0	0	
0.284	-0.00774983	0.400008	0.000204354	0.010603	0	0	0	
0.284167	0.00905985	-0.640064	0.000251596	0.0099642	0	0	0	
0.284333	-0.0139417	1.05865	0.000261344	0.0128263	0	0	0	
0.2845	0.0091125	-0.808002	0.000264784	0.0153334	0	0	0	
0.284667	-0.00640255	0.79088	0.000232996	0.0173482	0	0	0	
0.284833	0.00607675	-0.470308	0.000173216	0.0153178	0	0	0	
0.285	-0.00706622	-0.688158	0.000182446	0.0159631	0	0	0	
0.285167	0.0415511	-0.807708	0.000526286	0.0185728	0	0	0	
0.285333	0.0367132	0.166917	0.00108831	0.0257859	0	0	0	
0.2855	0.0245647	-1.27558	0.00113353	0.0316421	0	0	0	
0.285667	-0.0123652	1.5729	0.000913568	0.0334154	0	0	0	
0.285833	0.0208207	-1.07081	0.000435266	0.0303685	0	0	0	
0.286	-0.0584188	0.780406	0.00048541	0.0238013	0	0	0	
0.286167	0.0196261	-0.993567	0.000627595	0.021253	0	0	0	
0.286333	-0.0111363	1.46958	0.000603554	0.0217896	0	0	0	
0.2865	0.0195424	-1.58315	0.000519769	0.0254247	0	0	0	
0.286667	-0.00566985	1.33198	0.000342309	0.0279302	0	0	0	
0.286833	0.0342872	-1.10599	0.000373208	0.0270299	0	0	0	
0.287	-0.0504903	1.16267	0.000581304	0.0246314	0	0	0	
0.287167	0.0279493	-1.34041	0.000681304	0.0239795	0	0	0	
0.287333	-0.0115646	1.42622	0.00071972	0.0251019	0	0	0	
0.2875	-0.0129768	-1.3276	0.000529751	0.0262971	0	0	0	
0.287667	0.0261355	1.22204	0.000407163	0.0260033	0	0	0	
0.287833	-0.0119599	-1.22065	0.000402623	0.0250782	0	0	0	
0.288	-0.00621126	1.28974	0.000505913	0.0246077	0	0	0	
0.288167	0.00926754	-1.31888	0.000680979	0.0249429	0	0	0	
0.288333	-0.0272049	1.29836	0.000754215	0.025344	0	0	0	
0.2885	0.020015	-1.25399	0.000668302	0.0253362	0	0	0	
0.288667	-0.0116845	1.25466	0.000490445	0.025023	0	0	0	
0.288833	0.00270225	-1.27585	0.000330061	0.0248845	0	0	0	
0.289	0.00526542	1.27886	0.000231009	0.0249529	0	0	0	
0.289167	0.00359918	-1.27431	0.00024462	0.0250829	0	0	0	
0.289333	-0.0179027	1.28211	0.000371998	0.0251493	0	0	0	
0.2895	0.0240394	-1.26914	0.000508791	0.0251749	0	0	0	
0.289667	-0.0142389	1.25978	0.000525078	0.0251229	0	0	0	
0.289833	0.00550931	-1.26418	0.00046939	0.0250478	0	0	0	
0.29	-0.00712533	1.28425	0.000523766	0.025059	0	0	0	
0.290167	0.0144477	-1.28718	0.000536369	0.0252335	0	0	0	
0.290333	-0.00243906	1.26113	0.00044571	0.0252881	0	0	0	
0.2905	-0.0109429	-1.25212	0.000241366	0.025159	0	0	0	
0.290667	0.00351048	1.27395	0.000280292	0.0250211	0	0	0	
0.290833	0.000976609	-1.2666	0.000432667	0.0249846	0	0	0	
0.291	0.0119451	1.24208	0.000496284	0.024949	0	0	0	
0.291167	-0.0139453	-1.23192	0.000404348	0.0248184	0	0	0	
0.291333	-0.00898645	1.24593	0.000392989	0.0247097	0	0	0	
0.2915	0.0257632	-1.26176	0.000516732	0.0248237	0	0	0	
0.291667	-0.0212127	1.26839	0.00056185	0.025023	0	0	0	
0.291833	0.0069552	-1.27065	0.000462268	0.0252004	0	0	0	
0.292	-0.00185902	1.27507	0.000325511	0.0252816	0	0	0	
0.292167	0.0102667	-1.27045	0.000321564	0.0253154	0	0	0	
0.292333	-0.0124198	1.26112	0.000332382	0.0252911	0	0	0	
0.2925	0.00540128	-1.25099	0.000310654	0.0252042	0	0	0	
0.292667	-0.000709786	1.24702	0.000233726	0.0250824	0	0	0	
0.292833	0.00679891	-1.2466	0.000261834	0.0249985	0	0	0	
0.293	-0.0115603	1.25016	0.000350351	0.0250128	0	0	0	
0.293167	0.0137711	-1.24944	0.000405251	0.0250591	0	0	0	
0.293333	-0.00786175	1.24322	0.000358733	0.0250528	0	0	0	
0.2935	0.00520338	-1.22611	0.000283867	0.0249509	0	0	0	
0.293667	-0.0109293	1.24188	0.000294016	0.0249284	0	0	0	
0.293833	0.0182668	-1.28366	0.000353087	0.0251385	0	0	0	
0.294	-0.0114287	1.28888	0.000392617	0.0254671	0	0	0	
0.294167	-0.00261319	-1.24098	0.000315103	0.0255476	0	0	0	
0.294333	0.00988472	1.23102	0.000268269	0.0253354	0	0	0	
0.2945	-0.00238807	-1.25928	0.000307778	0.025199	0	0	0	
0.294667	-0.00945895	1.26797	0.000460028	0.0252681	0	0	0	
0.294833	0.0149372	-1.22779	0.000555862	0.025318	0	0	0	
0.295	-0.00663929	1.22376	0.000534238	0.0251528	0	0	0	
0.295167	0.00330679	-1.25397	0.000419633	0.0251363	0	0	0	
0.295333	-0.000734751	1.24992	0.000281422	0.025249	0	0	0	
0.2955	-0.00418071	-1.21287	0.000158362	0.0252498	0	0	0	
0.295667	0.00562266	1.20914	0.000133242	0.0250349	0	0	0	
0.295833	0.0101897	-1.24671	0.000256121	0.0249854	0	0	0	
0.296	-0.0124631	1.25977	0.000373818	0.0252161	0	0	0	
0.296167	0.0100815	-1.23393	0.000377902	0.0253847	0	0	0	
0.296333	0.00278535	1.21316	0.000237978	0.0252984	0	0	0	
0.2965	0.00516797	-1.24036	0.000210705	0.0252287	0	0	0	
0.296667	-0.0156201	1.2311	0.000321268	0.0253315	0	0	0	
0.296833	0.0332484	-1.24532	0.000510495	0.0254529	0	0	0	
0.297	-0.0261237	1.23087	0.000624116	0.0254272	0	0	0	
0.297167	0.0145068	-1.23062	0.000569478	0.0252604	0	0	0	
0.297333	0.00212225	1.22746	0.000412578	0.0251965	0	0	0	
0.2975	0.00369537	-1.19749	0.000331744	0.0250321	0	0	0	
0.297667	-0.00522206	1.15678	0.000383348	0.024777	0	0	0	
0.297833	0.00817515	-1.1905	0.000513245	0.024525	0	0	0	
0.298	-0.0163086	1.21677	0.000602587	0.0246243	0	0	0	
0.298167	0.0182806	-1.24684	0.000608791	0.0250502	0	0	0	
0.298333	-0.0127192	1.25046	0.000541481	0.0255795	0	0	0	
0.2985	0.000449259	-1.24741	0.00045004	0.0257613	0	0	0	
0.298667	-0.00122642	1.23563	0.000428138	0.0257346	0	0	0	
0.298833	-0.00311698	-1.20708	0.000469753	0.0254773	0	0	0	
0.299	-0.0131757	1.19902	0.000495471	0.0252539	0	0	0	
0.299167	0.0228297	-1.18588	0.000515607	0.0250206	0	0	0	
0.299333	-0.00803111	1.17295	0.000533109	0.0249046	0	0	0	
0.2995	0.00384424	-1.21226	0.000558446	0.0249428	0	0	0	
0.299667	0.00205247	1.24754	0.000626245	0.0252957	0	0	0	
0.299833	-0.00656178	-1.22724	0.000649297	0.0255767	0	0	0	
0.3	0.00292887	1.20155	0.000572771	0.0255914	0	0	0	
0.300167	-0.000346471	-1.179	0.000408134	0.0252378	0	0	0	
0.300333	0.0253276	1.18489	0.000372429	0.0249761	0	0	0	
0.3005	-0.0200145	-1.19927	0.000507144	0.0249624	0	0	0	
0.300667	0.0287308	1.19236	0.000779723	0.0250604	0	0	0	
0.300833	0.000801819	-1.15862	0.000882013	0.0249752	0	0	0	
0.301	-0.0120018	1.17411	0.000736887	0.0248818	0	0	0	
0.301167	0.00193004	-1.19311	0.000433432	0.0248719	0	0	0	
0.301333	0.0101526	1.18249	0.000243364	0.0249959	0	0	0	
0.3015	-0.00968684	-1.14206	0.000275835	0.0249256	0	0	0	
0.301667	0.0431045	1.18641	0.000386154	0.0249176	0	0	0	
0.301833	-0.0442097	-1.24272	0.000569334	0.0252337	0	0	0	
0.302	0.0203039	1.24691	0.000805264	0.0257065	0	0	0	
0.302167	0.0107526	-1.18591	0.00108562	0.0257428	0	0	0	
0.302333	-0.0260012	1.16538	0.00110201	0.0253174	0	0	0	
0.3025	0.0224394	-1.16357	0.000900896	0.0249122	0	0	0	
0.302667	-0.0123706	1.15903	0.000570809	0.0247768	0	0	0	
0.302833	-0.00170783	-1.13243	0.000323146	0.0247274	0	0	0	
0.303	0.0110646	1.14753	0.000212561	0.0247304	0	0	0	
0.303167	-0.0156267	-1.19151	0.000180457	0.0249906	0	0	0	
0.303333	0.0239336	1.20776	0.000278501	0.0253724	0	0	0	
0.3035	-0.00754844	-1.1694	0.000373851	0.025517	0	0	0	
0.303667	-0.00920767	1.13996	0.000449125	0.0252438	0	0	0	
0.303833	0.000346286	-1.15388	0.0004823	0.0249841	0	0	0	
0.304	-0.00469106	1.1856	0.000532379	0.025042	0	0	0	
0.304167	0.00902273	-1.19274	0.00058454	0.0253017	0	0	0	
0.304333	-0.0131011	1.16643	0.000589707	0.0254005	0	0	0	
0.3045	0.0112322	-1.14744	0.000543888	0.025253	0	0	0	
0.304667	-0.00867518	1.15226	0.000481356	0.0250927	0	0	0	
0.304833	0.00369862	-1.14986	0.000428841	0.0250831	0	0	0	
0.305	-0.00200363	1.15585	0.000358341	0.0251629	0	0	0	
0.305167	0.00176301	-1.15814	0.000251829	0.0252312	0	0	0	
0.305333	0.00486837	1.16514	0.000142896	0.0252614	0	0	0	
0.3055	-0.0239736	-1.15953	0.000161922	0.0252741	0	0	0	
0.305667	0.0286126	1.15011	0.000292425	0.0252229	0	0	0	
0.305833	-0.00819236	-1.12624	0.000565062	0.0251525	0	0	0	
0.306	-0.0219504	1.1301	0.000867585	0.0250528	0	0	0	
0.306167	0.0299422	-1.15659	0.00109846	0.0250473	0	0	0	
0.306333	-0.0290724	1.15874	0.00109933	0.0251319	0	0	0	
0.3065	0.0179747	-1.13263	0.000852205	0.025227	0	0	0	
0.306667	0.00190623	1.13481	0.000547452	0.0252752	0	0	0	
0.306833	-0.0278891	-1.12723	0.000405124	0.0252695	0	0	0	
0.307	0.0252182	1.12264	0.000409987	0.0251731	0	0	0	
0.307167	0.000430709	-1.09962	0.000452206	0.025019	0	0	0	
0.307333	0.00964306	1.10806	0.00039822	0.0248392	0	0	0	
0.3075	-0.00484357	-1.10431	0.000427086	0.024898	0	0	0	
0.307667	-0.0546303	1.11258	0.000949952	0.0247267	0	0	0	
0.307833	0.134216	-1.06642	0.00166334	0.0245462	0	0	0	
0.308	-0.117667	1.00557	0.00218912	0.023981	0	0	0	
0.308167	0.0201039	-1.06365	0.00219609	0.023642	0	0	0	
0.308333	-0.00150929	1.09836	0.00151559	0.0236401	0	0	0	
0.3085	0.0231258	-1.1309	0.00115839	0.0240992	0	0	0	
0.308667	0.024005	1.1341	0.000574511	0.0246496	0	0	0	
0.308833	-0.129515	-1.13491	0.000902034	0.0249884	0	0	0	
0.309	0.0456696	1.15502	0.00165658	0.0252521	0	0	0	
0.309167	0.102326	-1.19458	0.00359226	0.0254704	0	0	0	
0.309333	-0.169627	1.12404	0.00441361	0.0257439	0	0	0	
0.3095	0.0464378	-1.0937	0.00395538	0.0253994	0	0	0	
0.309667	0.048363	1.10554	0.00275605	0.0252443	0	0	0	
0.309833	-0.028124	-1.12207	0.00166343	0.0249392	0	0	0	
0.31	-0.0446344	1.09155	0.00143033	0.0251894	0	0	0	
0.310167	-0.0635141	-1.01612	0.000892188	0.0250163	0	0	0	
0.310333	0.105996	1.04131	0.00154268	0.0249089	0	0	0	
0.3105	-0.0256263	-1.09813	0.00145374	0.024886	0	0	0	
0.310667	-0.0655059	1.14902	0.00165755	0.0253504	0	0	0	
0.310833	0.00968567	-1.11389	0.00103878	0.0256897	0	0	0	
0.311	0.0480826	1.0946	0.000822944	0.0257922	0	0	0	
0.311167	0.0308597	-1.07785	0.00102978	0.025711	0	0	0	
0.311333	-0.126446	1.07727	0.00152673	0.0255372	0	0	0	
0.3115	0.102764	-1.05046	0.00221326	0.0253378	0	0	0	
0.311667	-0.015334	1.02884	0.00194884	0.02498	0	0	0	
0.311833	-0.0312719	-1.0363	0.00161848	0.024789	0	0	0	
0.312	0.0616366	1.06805	0.00109008	0.0248326	0	0	0	
0.312167	-0.0243129	-1.03439	0.000912821	0.0250546	0	0	0	
0.312333	-0.00820033	1.03081	0.000884921	0.0250393	0	0	0	
0.3125	0.0110908	-1.05866	0.000736729	0.0249939	0	0	0	
0.312667	0.0197204	1.05939	0.000593906	0.0249484	0	0	0	
0.312833	-0.0185349	-1.04611	0.000322253	0.0249984	0	0	0	
0.313	0.00629437	1.03859	0.000388434	0.0249556	0	0	0	
0.313167	0.0263852	-1.01764	0.000490443	0.0249047	0	0	0	
0.313333	-0.023348	1.03327	0.000587299	0.0249564	0	0	0	
0.3135	0.00819518	-1.05457	0.000500882	0.0250964	0	0	0	
0.313667	-0.00315322	1.0404	0.000367111	0.0251692	0	0	0	
0.313833	0.0135557	-1.02436	0.000344476	0.0251172	0	0	0	
0.314	-0.0171319	1.03317	0.000332216	0.0249928	0	0	0	
0.314167	0.00758438	-1.03191	0.000345701	0.0249188	0	0	0	
0.314333	0.00693194	1.02656	0.000269789	0.0249344	0	0	0	
0.3145	-0.0132889	-1.02837	0.000226396	0.0249506	0	0	0	
0.314667	0.0145865	1.03919	0.000273867	0.0250312	0	0	0	
0.314833	-0.00461205	-1.04018	0.000389728	0.0251759	0	0	0	
0.315	-0.00100205	1.04083	0.000485355	0.0253251	0	0	0	
0.315167	-0.00508834	-1.02852	0.000408283	0.0253341	0	0	0	
0.315333	0.00600596	1.02271	0.000320464	0.0252418	0	0	0	
0.3155	0.0104386	-1.02269	0.000356558	0.0251219	0	0	0	
0.315667	-0.0126291	1.02068	0.000429714	0.0250697	0	0	0	
0.315833	0.00743526	-1.00686	0.000376723	0.0250675	0	0	0	
0.316	-0.00123353	1.01827	0.000235156	0.0251517	0	0	0	
0.316167	-0.00844589	-1.01841	0.00016131	0.0252596	0	0	0	
0.316333	0.0225364	1.02018	0.00018812	0.0252977	0	0	0	
0.3165	-0.0210209	-1.00847	0.000339947	0.025274	0	0	0	
0.316667	0.0025432	1.01338	0.000605562	0.0252365	0	0	0	
0.316833	0.0216859	-1.01777	0.000854475	0.0253442	0	0	0	
0.317	-0.0276549	1.0209	0.000883649	0.0254575	0	0	0	
0.317167	0.0159987	-1.00316	0.000673373	0.0254354	0	0	0	
0.317333	0.0136107	0.99207	0.000435262	0.0252277	0	0	0	
0.3175	-0.0376523	-0.975965	0.000373506	0.0250096	0	0	0	
0.317667	0.0265477	0.983346	0.000542701	0.0249649	0	0	0	
0.317833	0.00399468	-0.993022	0.000829897	0.0251386	0	0	0	
0.318	-0.0165873	1.0066	0.000970171	0.0253587	0	0	0	
0.318167	0.0140499	-1.00962	0.000840128	0.0254713	0	0	0	
0.318333	-0.000216695	0.992691	0.000511288	0.0254249	0	0	0	
0.3185	-0.0159163	-0.966972	0.000263444	0.0252113	0	0	0	
0.318667	0.0202951	0.959118	0.000213861	0.0250398	0	0	0	
0.318833	-0.014369	-0.958683	0.000328867	0.0250046	0	0	0	
0.319	0.00288396	0.973913	0.000455803	0.0251543	0	0	0	
0.319167	-0.00203094	-0.978969	0.00045155	0.0253246	0	0	0	
0.319333	0.00980243	0.968532	0.000352216	0.0253815	0	0	0	
0.3195	-0.0176976	-0.964647	0.000285261	0.0252938	0	0	0	
0.319667	0.0166077	0.953027	0.000348424	0.0251656	0	0	0	
0.319833	-0.00794809	-0.947765	0.000493051	0.0250403	0	0	0	
0.32	-0.00379071	0.948005	0.000600092	0.0250333	0	0	0	
0.320167	0.0106836	-0.948482	0.000580962	0.0250456	0	0	0	
0.320333	-0.0109103	0.940712	0.000453374	0.0250815	0	0	0	
0.3205	0.00235117	-0.938472	0.000282797	0.0250513	0	0	0	
0.320667	0.00762196	0.928588	0.000157819	0.0250474	0	0	0	
0.320833	-0.0169897	-0.928756	0.00015783	0.0250569	0	0	0	
0.321	0.0114647	0.942925	0.000228938	0.0251818	0	0	0	
0.321167	0.00364256	-0.946605	0.00043271	0.0253078	0	0	0	
0.321333	-0.0142581	0.940849	0.000578144	0.0253586	0	0	0	
0.3215	0.00165125	-0.928537	0.000589737	0.0252645	0	0	0	
0.321667	0.00717566	0.916577	0.000461883	0.0251367	0	0	0	
0.321833	0.0119123	-0.914129	0.00041222	0.0251196	0	0	0	
0.322	-0.0173052	0.924733	0.000406106	0.0252239	0	0	0	
0.322167	-0.0168093	-0.9282	0.000410641	0.0253445	0	0	0	
0.322333	0.0346028	0.919965	0.000378695	0.0254329	0	0	0	
0.3225	-0.0196878	-0.925231	0.000480412	0.0254504	0	0	0	
0.322667	-0.0023889	0.919721	0.000583584	0.0253637	0	0	0	
0.322833	0.00710541	-0.888501	0.000534853	0.0250823	0	0	0	
0.323	-0.00531424	0.866541	0.000396428	0.0247658	0	0	0	
0.323167	0.00656244	-0.875589	0.00032826	0.0246836	0	0	0	
0.323333	-0.0221068	0.897521	0.000389259	0.0249525	0	0	0	
0.3235	0.0207737	-0.908969	0.00044951	0.0252596	0	0	0	
0.323667	0.00809826	0.912198	0.000409398	0.0253953	0	0	0	
0.323833	-0.0418814	-0.907776	0.000413744	0.0253513	0	0	0	
0.324	0.0278185	0.897879	0.000501192	0.0252829	0	0	0	
0.324167	0.00156178	-0.868218	0.000749688	0.0251707	0	0	0	
0.324333	-0.0188372	0.869482	0.000866464	0.0250611	0	0	0	
0.3245	0.0175637	-0.874377	0.000818106	0.0251022	0	0	0	
0.324667	-0.0142768	0.895169	0.00057386	0.0252831	0	0	0	
0.324833	-0.000978139	-0.892391	0.00040312	0.0254992	0	0	0	
0.325	0.0227479	0.877303	0.00050735	0.0254711	0	0	0	
0.325167	-0.0567609	-0.851134	0.000604217	0.0252222	0	0	0	
0.325333	0.0291297	0.847903	0.000934825	0.0249125	0	0	0	
0.3255	0.0323961	-0.834874	0.00129451	0.0248001	0	0	0	
0.325667	-0.0525817	0.840454	0.00149838	0.0248806	0	0	0	
0.325833	0.0155549	-0.845723	0.00124341	0.0250667	0	0	0	
0.326	0.0123924	0.856264	0.000714668	0.0252221	0	0	0	
0.326167	-0.0365621	-0.854676	0.000446694	0.0252782	0	0	0	
0.326333	0.0381588	0.842712	0.000489914	0.0251879	0	0	0	
0.3265	-0.0213928	-0.823869	0.000660825	0.0250335	0	0	0	
0.326667	-0.0130189	0.828507	0.000849921	0.0249827	0	0	0	
0.326833	0.0126793	-0.841249	0.000803863	0.0250296	0	0	0	
0.327	-0.0017669	0.83706	0.00055072	0.0251042	0	0	0	
0.327167	-0.0142016	-0.825216	0.000268844	0.0250666	0	0	0	
0.327333	0.0245408	0.817824	0.000218285	0.0249955	0	0	0	
0.3275	-0.0122444	-0.813522	0.00037491	0.0249689	0	0	0	
0.327667	-0.00889249	0.823551	0.000580933	0.0250947	0	0	0	
0.327833	0.00670769	-0.827912	0.000634146	0.0252544	0	0	0	
0.328	-0.00567315	0.816294	0.000537287	0.0252851	0	0	0	
0.328167	-0.00529724	-0.814367	0.00040313	0.0252391	0	0	0	
0.328333	0.00723366	0.831037	0.000351728	0.0252835	0	0	0	
0.3285	-0.00153373	-0.821387	0.000382469	0.0253639	0	0	0	
0.328667	-0.00171119	0.786893	0.000424967	0.0252627	0	0	0	
0.328833	0.00373593	-0.778342	0.000412717	0.0250499	0	0	0	
0.329	-0.00351101	0.801818	0.000330366	0.0250294	0	0	0	
0.329167	-0.00686475	-0.803028	0.000207069	0.0252173	0	0	0	
0.329333	0.00806226	0.787779	0.000160275	0.0253065	0	0	0	
0.3295	-0.00399886	-0.776906	0.00025602	0.025245	0	0	0	
0.329667	0.000436115	0.785212	0.000387859	0.0252136	0	0	0	
0.329833	-0.00156715	-0.792669	0.000402028	0.0252558	0	0	0	
0.33	0.00455892	0.776464	0.000305996	0.0252216	0	0	0	
0.330167	0.00289464	-0.758391	0.000250771	0.0250869	0	0	0	
0.330333	-0.00576311	0.764824	0.000327674	0.02505	0	0	0	
0.3305	-0.000706371	-0.780721	0.000384879	0.025142	0	0	0	
0.330667	0.0163084	0.76563	0.000350429	0.0252374	0	0	0	
0.330833	-0.0188867	-0.749231	0.000317084	0.0251776	0	0	0	
0.331	0.00315091	0.739081	0.000383179	0.025101	0	0	0	
0.331167	0.00756155	-0.744468	0.000495897	0.0250934	0	0	0	
0.331333	-0.000724796	0.745571	0.00048087	0.0251965	0	0	0	
0.3315	-0.0104386	-0.756001	0.000380912	0.025248	0	0	0	
0.331667	0.0159543	0.748257	0.000309425	0.025332	0	0	0	
0.331833	-0.0139071	-0.749384	0.000327357	0.0253842	0	0	0	
0.332	0.00910119	0.75176	0.000343013	0.0254327	0	0	0	
0.332167	-0.00925825	-0.741612	0.0003235	0.0253189	0	0	0	
0.332333	0.00647354	0.735401	0.000315781	0.025128	0	0	0	
0.3325	-0.00545788	-0.722507	0.000340317	0.0249542	0	0	0	
0.332667	0.00879038	0.712474	0.000330266	0.0249127	0	0	0	
0.332833	-0.00846367	-0.708772	0.00027831	0.0249929	0	0	0	
0.333	0.00693803	0.709144	0.000213883	0.025131	0	0	0	
0.333167	-0.00716331	-0.714669	0.000204191	0.0252725	0	0	0	
0.333333	0.00753171	0.722775	0.000263644	0.0253673	0	0	0	
0.3335	-0.0038731	-0.715125	0.000349671	0.0253857	0	0	0	
0.333667	0.00285556	0.706746	0.000347784	0.0253172	0	0	0	
0.333833	-0.00468844	-0.701112	0.000266187	0.0252291	0	0	0	
0.334	0.0107772	0.698013	0.000215301	0.025172	0	0	0	
0.334167	-0.00909228	-0.703751	0.000243166	0.0251547	0	0	0	
0.334333	0.00730128	0.701236	0.000306869	0.0251721	0	0	0	
0.3345	-0.0107626	-0.699161	0.000331909	0.0251587	0	0	0	
0.334667	0.00998661	0.695111	0.0002956	0.0251805	0	0	0	
0.334833	-0.00872385	-0.690741	0.000244475	0.0252032	0	0	0	
0.335	0.00317335	0.688548	0.00025413	0.0252396	0	0	0	
0.335167	0.00115015	-0.682753	0.000261811	0.0252194	0	0	0	
0.335333	0.00666508	0.673781	0.000233135	0.0251736	0	0	0	
0.3355	-0.00902846	-0.668388	0.000197144	0.025138	0	0	0	
0.335667	-0.00387284	0.665064	0.00023294	0.0251338	0	0	0	
0.335833	0.000108699	-0.651448	0.000280978	0.0250925	0	0	0	
0.336	0.00658729	0.638587	0.000271995	0.0251271	0	0	0	
0.336167	-0.0014935	-0.670922	0.000282501	0.025421	0	0	0	
0.336333	-0.00321234	0.706529	0.000355191	0.0258288	0	0	0	
0.3365	0.000369645	-0.665385	0.000388927	0.0258058	0	0	0	
0.336667	0.00359718	0.617047	0.000329745	0.025279	0	0	0	
0.336833	-0.00906707	-0.637121	0.000234531	0.0249404	0	0	0	
0.337	0.0137949	0.647171	0.000193665	0.0250407	0	0	0	
0.337167	-0.0221669	-0.597876	0.000250137	0.0250916	0	0	0	
0.337333	0.0131125	0.577594	0.000380031	0.024943	0	0	0	
0.3375	0.00140568	-0.634396	0.000533233	0.0250772	0	0	0	
0.337667	-0.0072011	0.664101	0.000582069	0.0254452	0	0	0	
0.337833	0.00637382	-0.621196	0.000501963	0.0254122	0	0	0	
0.338	-0.00163636	0.597977	0.00035974	0.0249893	0	0	0	
0.338167	-0.00626031	-0.610772	0.000242783	0.0248799	0	0	0	
0.338333	0.0100937	0.6257	0.000198932	0.0251261	0	0	0	
0.3385	-0.0151533	-0.616194	0.000228808	0.0252666	0	0	0	
0.338667	0.0141658	0.601521	0.000323087	0.0251244	0	0	0	
0.338833	-0.00747982	-0.593732	0.000385756	0.0250414	0	0	0	
0.339	0.00351944	0.596903	0.000387369	0.0251526	0	0	0	
0.339167	-0.00206349	-0.592508	0.000326518	0.0252614	0	0	0	
0.339333	0.00412695	0.582816	0.00028142	0.0252051	0	0	0	
0.3395	-0.00298058	-0.578129	0.000259801	0.0251224	0	0	0	
0.339667	0.00372148	0.583347	0.000218662	0.0251747	0	0	0	
0.339833	-0.0106788	-0.588545	0.000176701	0.0253049	0	0	0	
0.34	0.0161344	0.585823	0.000174515	0.0253446	0	0	0	
0.340167	-0.0146336	-0.580838	0.000298101	0.0252297	0	0	0	
0.340333	0.00449047	0.564398	0.000433172	0.0250723	0	0	0	
0.3405	0.00252957	-0.551352	0.000518029	0.0249266	0	0	0	
0.340667	-0.0060966	0.547586	0.000472516	0.0249125	0	0	0	
0.340833	0.00656892	-0.547879	0.000347594	0.0250208	0	0	0	
0.341	0.00473807	0.550298	0.000200929	0.0251636	0	0	0	
0.341167	-0.0126806	-0.549183	0.000125938	0.0252895	0	0	0	
0.341333	0.0108768	0.563329	0.000143872	0.0254088	0	0	0	
0.3415	-0.0133986	-0.563337	0.000230469	0.0254188	0	0	0	
0.341667	0.00813829	0.53741	0.000299163	0.0252033	0	0	0	
0.341833	-0.00558712	-0.526446	0.000327058	0.0249774	0	0	0	
0.342	0.0108153	0.546513	0.00030528	0.0249973	0	0	0	
0.342167	-0.0115215	-0.546116	0.000280298	0.0251225	0	0	0	
0.342333	0.00722015	0.514226	0.000293327	0.0250533	0	0	0	
0.3425	-0.0031236	-0.49981	0.000277839	0.0249351	0	0	0	
0.342667	0.00689292	0.531185	0.00022484	0.0251291	0	0	0	
0.342833	-0.0109056	-0.549039	0.000192951	0.0255093	0	0	0	
0.343	0.00170873	0.525219	0.000242472	0.0256111	0	0	0	
0.343167	7.11297E-05	-0.50721	0.000305629	0.0253833	0	0	0	
0.343333	0.00118631	0.504036	0.000265274	0.0251434	0	0	0	
0.3435	-0.00720446	-0.485285	0.000196687	0.0249422	0	0	0	
0.343667	0.00877191	0.465354	0.000177256	0.0247646	0	0	0	
