0	-0.000780641	-0.000120718	7.80641E-08	1.20718E-08	0	0	0	
0.000166667	0.00064108	2.28703E-05	1.79914E-05	1.04463E-06	0	0	0	
0.000333333	0.000178874	-8.84135E-05	4.85209E-05	3.19131E-06	0	0	0	
0.0005	0.00105631	-5.52027E-05	7.77262E-05	4.91561E-06	0	0	0	
0.000666667	-0.000765003	-0.000316101	7.25565E-05	5.86657E-06	0	0	0	
0.000833333	0.00340277	-8.55875E-05	5.64601E-05	4.78339E-06	0	0	0	
0.001	-0.0033054	0.000112976	5.20201E-05	4.70917E-06	0	0	0	
0.00116667	0.00442412	0.000685963	6.57167E-05	8.70121E-06	0	0	0	
0.00133333	-0.00594697	-0.000897061	9.03096E-05	1.46243E-05	0	0	0	
0.0015	0.00427673	0.000977218	9.61874E-05	2.0261E-05	0	0	0	
0.00166667	0.00282314	-0.000220644	0.000147303	2.17329E-05	0	0	0	
0.00183333	-0.0101612	0.000957265	0.00020001	3.36622E-05	0	0	0	
0.002	0.000939299	-0.00268612	0.000219089	4.63483E-05	0	0	0	
0.00216667	0.0105795	0.00182587	0.000208417	5.20324E-05	0	0	0	
0.00233333	-0.00246743	-0.000214125	0.000293258	4.78258E-05	0	0	0	
0.0025	-0.00758306	-0.00103488	0.000431159	4.64903E-05	0	0	0	
0.00266667	0.00240527	0.00336046	0.000426434	4.36463E-05	0	0	0	
0.00283333	0.0161151	-0.00429931	0.000300331	5.93494E-05	0	0	0	
0.003	-0.0207099	-2.11805E-05	0.000252481	7.91063E-05	0	0	0	
0.00316667	0.0144718	0.00452575	0.000319341	0.000106428	0	0	0	
0.00333333	-0.0141423	-0.00532783	0.00038081	0.000103943	0	0	0	
0.0035	0.00998772	0.000825493	0.000355963	0.00010133	0	0	0	
0.00366667	0.0054714	0.00556696	0.000346271	0.000118594	0	0	0	
0.00383333	-0.0125528	-0.00944666	0.000291901	0.000139355	0	0	0	
0.004	0.00435705	0.00549186	0.000300997	0.000151364	0	0	0	
0.00416667	-0.00429817	-0.000266186	0.000340553	0.000133993	0	0	0	
0.00433333	0.0070652	-0.00161021	0.00036126	0.000122939	0	0	0	
0.0045	-0.0153971	0.00148144	0.000317464	0.0001017	0	0	0	
0.00466667	0.0145433	-0.000384822	0.000253806	6.68884E-05	0	0	0	
0.00483333	-0.00354975	-0.00305593	0.000246421	5.79976E-05	0	0	0	
0.005	-0.00106728	0.00379181	0.000219549	6.69446E-05	0	0	0	
0.00516667	-0.0131424	-0.00215265	0.000295236	7.94296E-05	0	0	0	
0.00533333	0.0237287	0.000343938	0.000457584	6.45598E-05	0	0	0	
0.0055	-0.0296054	-0.000438287	0.000615216	4.37408E-05	0	0	0	
0.00566667	0.036433	0.000319884	0.000693484	4.03973E-05	0	0	0	
0.00583333	-0.0272311	-0.000854193	0.000670618	3.56249E-05	0	0	0	
0.006	0.0022115	0.000187859	0.000546827	2.73793E-05	0	0	0	
0.00616667	0.0334502	0.000114877	0.000456059	2.5788E-05	0	0	0	
0.00633333	-0.0463843	0.00169257	0.000483722	3.57386E-05	0	0	0	
0.0065	0.0232774	-0.00430434	0.000721749	4.83583E-05	0	0	0	
0.00666667	0.00220731	0.00392969	0.000903517	6.6723E-05	0	0	0	
0.00683333	-0.0103844	0.000477071	0.000969858	8.58408E-05	0	0	0	
0.007	0.0259931	-0.00220186	0.000855086	9.35246E-05	0	0	0	
0.00716667	-0.000907673	0.00231464	0.00059242	7.60153E-05	0	0	0	
0.00733333	-0.0277513	-0.00305917	0.000408648	5.86562E-05	0	0	0	
0.0075	-0.00897157	-0.000107497	0.000653932	5.69781E-05	0	0	0	
0.00766667	0.0842082	0.00695021	0.00151597	9.34033E-05	0	0	0	
0.00783333	-0.0974906	-0.00837911	0.00214969	0.000127899	0	0	0	
0.008	0.0374631	0.00503164	0.00208776	0.000143023	0	0	0	
0.00816667	-0.0012902	-0.000328321	0.00125849	0.000136987	0	0	0	
0.00833333	0.00312713	-0.000826838	0.000550625	0.000104252	0	0	0	
0.0085	0.0180522	0.000379618	0.000204238	7.34051E-05	0	0	0	
0.00866667	-0.0533024	0.00152815	0.000360414	4.03405E-05	0	0	0	
0.00883333	0.043461	-0.00288529	0.00089347	5.40144E-05	0	0	0	
0.009	-0.0166306	0.00520551	0.00143553	8.47337E-05	0	0	0	
0.00916667	0.0142525	-0.00603988	0.00147114	0.00010956	0	0	0	
0.00933333	-0.026272	0.0038463	0.00105674	0.000108238	0	0	0	
0.0095	0.0138609	-0.000724641	0.000612868	9.89218E-05	0	0	0	
0.00966667	0.0109681	-0.00201268	0.000365486	9.21752E-05	0	0	0	
0.00983333	-0.0211914	0.00229109	0.000350805	7.66161E-05	0	0	0	
0.01	0.00127942	-0.000869029	0.000532475	5.49403E-05	0	0	0	
0.0101667	0.0341487	-2.79812E-05	0.000876462	3.89171E-05	0	0	0	
0.0103333	-0.0350001	0.000713943	0.00102253	2.61074E-05	0	0	0	
0.0105	0.00993788	-0.00105471	0.000912692	2.38048E-05	0	0	0	
0.0106667	0.00116701	0.00118596	0.000780295	2.83434E-05	0	0	0	
0.0108333	0.0149361	-0.000393186	0.00091652	3.83538E-05	0	0	0	
0.011	-0.0293904	-0.000437036	0.00105393	4.94228E-05	0	0	0	
0.0111667	0.0219301	0.00144089	0.000972052	4.83031E-05	0	0	0	
0.0113333	-0.00714308	-0.00171802	0.000629273	4.19552E-05	0	0	0	
0.0115	-0.0120154	0.001327	0.000325308	3.43969E-05	0	0	0	
0.0116667	0.0250108	-0.00105511	0.000281839	2.80603E-05	0	0	0	
0.0118333	-0.0227897	0.00185278	0.000384384	2.59359E-05	0	0	0	
0.012	0.00348081	-0.00205663	0.000504888	2.89409E-05	0	0	0	
0.0121667	0.0136919	0.00097292	0.000459285	3.1179E-05	0	0	0	
0.0123333	-0.0166186	-0.000184639	0.000382322	3.47075E-05	0	0	0	
0.0125	0.0044958	0.00020003	0.000331409	3.24679E-05	0	0	0	
0.0126667	-0.00513783	-0.000600804	0.000289802	2.85016E-05	0	0	0	
0.0128333	0.0124868	0.00254006	0.00023258	2.65423E-05	0	0	0	
0.013	-0.0165393	-0.00476822	0.000215093	3.82749E-05	0	0	0	
0.0131667	0.00731876	0.00238604	0.000235396	6.57267E-05	0	0	0	
0.0133333	0.00236187	-0.00032682	0.000205602	0.000108264	0	0	0	
0.0135	-0.00450377	-0.00051096	0.000155773	0.00013075	0	0	0	
0.0136667	0.00299426	-0.000543227	0.000110406	0.000126425	0	0	0	
0.0138333	-0.0125683	0.00155265	0.00013578	9.79164E-05	0	0	0	
0.014	0.0136892	-0.00396753	0.000169154	7.98014E-05	0	0	0	
0.0141667	0.000818606	0.00539216	0.000294137	8.35632E-05	0	0	0	
0.0143333	-0.00479357	-0.00654325	0.000305295	9.63911E-05	0	0	0	
0.0145	-0.0145398	0.00696302	0.000388407	0.000116706	0	0	0	
0.0146667	0.0298252	-0.00564945	0.000527154	0.000127366	0	0	0	
0.0148333	-0.0277728	0.00402002	0.000719888	0.000122845	0	0	0	
0.015	0.0218589	-0.00199217	0.000725287	0.000103088	0	0	0	
0.0151667	-0.0104602	-0.00172782	0.000529632	8.07305E-05	0	0	0	
0.0153333	-0.00411295	0.00315359	0.000376707	6.25807E-05	0	0	0	
0.0155	0.014267	-0.000886333	0.000265127	5.90257E-05	0	0	0	
0.0156667	-0.00266494	-0.00195418	0.000282996	6.68623E-05	0	0	0	
0.0158333	-0.00486275	0.00252937	0.000332991	6.90214E-05	0	0	0	
0.016	0.000288884	-0.000934015	0.000326219	5.75513E-05	0	0	0	
0.0161667	0.00899027	-0.00129823	0.000250476	4.87989E-05	0	0	0	
0.0163333	-0.00108781	0.00300794	0.000135932	5.49139E-05	0	0	0	
0.0165	-0.00193728	-0.00362131	9.52201E-05	6.50032E-05	0	0	0	
0.0166667	-0.00102747	0.00169885	9.35317E-05	5.97393E-05	0	0	0	
0.0168333	0.000203217	0.000410784	6.72515E-05	4.94848E-05	0	0	0	
0.017	0.00830585	-0.000859734	0.000107473	3.539E-05	0	0	0	
0.0171667	-0.00773281	0.000619258	0.000111009	2.74595E-05	0	0	0	
0.0173333	0.000214081	-0.00126068	0.000218158	2.28275E-05	0	0	0	
0.0175	0.00862389	-9.78307E-05	0.000278612	1.87332E-05	0	0	0	
0.0176667	-0.000171057	0.000977478	0.000257446	2.68741E-05	0	0	0	
0.0178333	-0.0121001	-0.00127454	0.000234685	3.48532E-05	0	0	0	
0.018	0.00696748	0.00145547	0.000192551	3.93728E-05	0	0	0	
0.0181667	0.00437412	0.000148121	0.000200948	2.81898E-05	0	0	0	
0.0183333	-0.00932415	-0.00145063	0.000148628	2.2981E-05	0	0	0	
0.0185	0.00375002	0.00189012	0.000154313	2.63258E-05	0	0	0	
0.0186667	0.0038141	-0.00119727	0.000194241	3.3484E-05	0	0	0	
0.0188333	-0.00442544	-9.06515E-05	0.000200666	4.14846E-05	0	0	0	
0.019	-0.000542797	0.000962908	0.00016716	3.49507E-05	0	0	0	
0.0191667	0.00129746	0.0017486	0.000132339	3.36604E-05	0	0	0	
0.0193333	-0.00341544	-0.0030399	0.000110845	3.37764E-05	0	0	0	
0.0195	0.00438185	0.00132018	9.41783E-05	4.02293E-05	0	0	0	
0.0196667	-0.00213225	0.000421103	8.86306E-05	4.95324E-05	0	0	0	
0.0198333	0.00545373	-0.000751957	8.46369E-05	4.88867E-05	0	0	0	
0.02	-0.00785805	0.00156407	0.00011276	4.45976E-05	0	0	0	
0.0201667	0.00354383	-0.000770109	0.000169541	3.37835E-05	0	0	0	
0.0203333	0.00264725	-0.000754814	0.00025267	2.71544E-05	0	0	0	
0.0205	0.00129615	0.000603516	0.000242064	2.81307E-05	0	0	0	
0.0206667	-0.0183793	-0.000484348	0.000232408	2.93849E-05	0	0	0	
0.0208333	0.0304625	0.00228934	0.000269718	3.30071E-05	0	0	0	
0.021	-0.0239084	-0.00363131	0.000420166	4.14779E-05	0	0	0	
0.0211667	0.00601956	0.00178742	0.000512016	5.51212E-05	0	0	0	
0.0213333	-0.000994104	0.00174247	0.000455791	6.76189E-05	0	0	0	
0.0215	0.00178392	-0.00285047	0.000290726	6.47111E-05	0	0	0	
0.0216667	-0.00803425	0.00119187	0.000177415	5.49976E-05	0	0	0	
0.0218333	0.016656	-0.000828445	0.000181228	4.45881E-05	0	0	0	
0.022	-0.0275668	-0.000806937	0.000316958	4.00206E-05	0	0	0	
0.0221667	0.0268191	0.0024185	0.000419797	3.75337E-05	0	0	0	
0.0223333	-0.00784231	-0.00161785	0.000467187	3.52766E-05	0	0	0	
0.0225	-0.00281733	0.000544449	0.000403824	3.42964E-05	0	0	0	
0.0226667	-0.00511358	-0.00185994	0.000270294	3.14669E-05	0	0	0	
0.0228333	0.0147605	0.00269985	0.000215897	3.18568E-05	0	0	0	
0.023	-0.0186576	-0.00180327	0.000217721	4.02454E-05	0	0	0	
0.0231667	0.0159175	0.000545164	0.000296825	4.38615E-05	0	0	0	
0.0233333	-0.011758	0.000421145	0.000319318	3.80173E-05	0	0	0	
0.0235	0.00519001	-0.000363092	0.000276208	2.36231E-05	0	0	0	
0.0236667	-0.0034273	-0.00112367	0.000211211	2.43443E-05	0	0	0	
0.0238333	0.00327958	0.00345547	0.000143415	3.89264E-05	0	0	0	
0.024	-0.00276598	-0.00447807	0.000119644	6.24114E-05	0	0	0	
0.0241667	0.0048409	0.000562013	0.000123402	6.38731E-05	0	0	0	
0.0243333	-0.00286919	0.00160309	0.000127729	5.97634E-05	0	0	0	
0.0245	-0.00162118	-0.00137337	0.000123622	4.475E-05	0	0	0	
0.0246667	0.00171595	-0.000885003	0.000117849	3.84098E-05	0	0	0	
0.0248333	0.0050528	0.0023934	0.000140833	3.42556E-05	0	0	0	
0.025	-0.0155063	-0.00263216	0.000200515	3.85732E-05	0	0	0	
0.0251667	0.0224891	0.00166623	0.000274474	4.48655E-05	0	0	0	
0.0253333	-0.00916671	0.000512638	0.000310377	5.51985E-05	0	0	0	
0.0255	-0.000969524	-0.00198888	0.000341466	6.57014E-05	0	0	0	
0.0256667	0.013203	0.00195305	0.000346102	6.21881E-05	0	0	0	
0.0258333	-0.0224324	-0.00104889	0.000352562	5.4228E-05	0	0	0	
0.026	0.0270473	-0.00103474	0.000338687	5.33472E-05	0	0	0	
0.0261667	-0.00718933	0.00383602	0.00051416	6.42248E-05	0	0	0	
0.0263333	0.00188239	-0.00494007	0.000637732	7.20721E-05	0	0	0	
0.0265	0.0112469	0.00287605	0.000809748	8.69203E-05	0	0	0	
0.0266667	-0.00256802	0.000715329	0.000813015	0.000102453	0	0	0	
0.0268333	0.000804177	-0.00386542	0.000779913	9.11634E-05	0	0	0	
0.027	-0.0280983	0.0011894	0.000608128	6.89061E-05	0	0	0	
0.0271667	0.0287171	0.00188061	0.000457685	4.72289E-05	0	0	0	
0.0273333	-0.0482549	-0.00155838	0.000725406	4.54656E-05	0	0	0	
0.0275	0.0222266	0.00143479	0.000966382	3.52458E-05	0	0	0	
0.0276667	-0.0195681	-0.00043332	0.00101585	3.01136E-05	0	0	0	
0.0278333	0.0234603	-0.000883251	0.000681418	2.34525E-05	0	0	0	
0.028	-0.00186689	4.171E-05	0.00041818	2.228E-05	0	0	0	
0.0281667	-0.0120675	0.0011313	0.000284775	1.91508E-05	0	0	0	
0.0283333	0.00237117	-0.000883038	0.000316838	2.46587E-05	0	0	0	
0.0285	-0.0111297	-0.00108152	0.000304388	3.27195E-05	0	0	0	
0.0286667	0.0383471	0.00165795	0.000422805	3.98481E-05	0	0	0	
0.0288333	-0.0352031	-0.00154785	0.000478985	3.9957E-05	0	0	0	
0.029	0.0036163	0.000158487	0.000614212	3.01233E-05	0	0	0	
0.0291667	0.0126507	0.00177597	0.000482435	2.52451E-05	0	0	0	
0.0293333	-0.000834259	-0.00279206	0.000502194	2.78904E-05	0	0	0	
0.0295	-0.0111471	0.000930445	0.00064433	3.85973E-05	0	0	0	
0.0296667	0.0210491	0.000277742	0.000961255	4.0183E-05	0	0	0	
0.0298333	-0.0286875	8.74965E-05	0.00107069	2.92881E-05	0	0	0	
0.03	0.0240814	-0.00092378	0.000952749	2.25351E-05	0	0	0	
0.0301667	0.00773535	0.00135852	0.000652577	2.34871E-05	0	0	0	
0.0303333	-0.0480331	-0.00152128	0.000484723	2.95661E-05	0	0	0	
0.0305	0.0744864	0.00213966	0.000636426	3.29656E-05	0	0	0	
0.0306667	-0.0571616	-0.00264213	0.00103185	4.88133E-05	0	0	0	
0.0308333	0.0230599	0.000917784	0.00128049	6.99234E-05	0	0	0	
0.031	-0.000651766	0.00136276	0.00123185	7.82538E-05	0	0	0	
0.0311667	0.00513792	-0.00128486	0.000891707	5.64616E-05	0	0	0	
0.0313333	-0.0252529	0.000400316	0.00056997	5.30321E-05	0	0	0	
0.0315	0.0327733	0.00389953	0.000421767	5.91564E-05	0	0	0	
0.0316667	-0.0179343	-0.00551748	0.000473186	8.00775E-05	0	0	0	
0.0318333	0.00914393	0.00408397	0.000461825	9.09069E-05	0	0	0	
0.032	-0.0135542	0.00060476	0.000380976	9.64393E-05	0	0	0	
0.0321667	0.0125534	-0.00274564	0.00029897	8.87289E-05	0	0	0	
0.0323333	-0.0162217	0.00291239	0.000285865	6.97926E-05	0	0	0	
0.0325	0.0175263	0.000287794	0.000285013	6.63755E-05	0	0	0	
0.0326667	0.00145771	-0.00280144	0.00033235	6.85604E-05	0	0	0	
0.0328333	-0.0353917	0.00240439	0.000413065	6.43704E-05	0	0	0	
0.033	0.0375646	-0.000961002	0.00052473	5.58564E-05	0	0	0	
0.0331667	-0.0115657	-0.000148329	0.000615616	5.36051E-05	0	0	0	
0.0333333	-0.0160545	0.00105886	0.000593307	5.06442E-05	0	0	0	
0.0335	0.0182001	-0.00134714	0.00047741	3.75192E-05	0	0	0	
0.0336667	-0.0100014	0.000439285	0.000399189	2.42365E-05	0	0	0	
0.0338333	0.00307557	2.8945E-05	0.000368072	1.6696E-05	0	0	0	
0.034	-0.0111834	-0.000141453	0.000353743	1.24169E-05	0	0	0	
0.0341667	0.0172288	-0.000866007	0.000325189	1.11565E-05	0	0	0	
0.0343333	-0.0166721	0.000354306	0.00033614	1.04856E-05	0	0	0	
0.0345	0.0148829	0.000507752	0.000383079	1.26264E-05	0	0	0	
0.0346667	-0.0163229	-0.000241575	0.000428588	1.18354E-05	0	0	0	
0.0348333	0.00797598	-0.00122207	0.000438633	1.39694E-05	0	0	0	
0.035	-0.00492885	0.00126485	0.000450456	1.67912E-05	0	0	0	
0.0351667	0.0162972	-0.000887531	0.000555753	2.02948E-05	0	0	0	
0.0353333	-0.0262342	0.000375801	0.000656061	2.79357E-05	0	0	0	
0.0355	0.00905616	0.000168644	0.000613976	3.3635E-05	0	0	0	
0.0356667	0.0087875	0.000124829	0.00039789	3.1871E-05	0	0	0	
0.0358333	-0.00927124	-0.00096651	0.000227487	2.40397E-05	0	0	0	
0.036	-0.0083245	0.000913912	0.000271677	1.86877E-05	0	0	0	
0.0361667	0.0253036	-0.00108849	0.000395295	1.9495E-05	0	0	0	
0.0363333	-0.0291638	0.00153195	0.000492577	2.56817E-05	0	0	0	
0.0365	0.0159321	-0.00201623	0.000491191	3.42448E-05	0	0	0	
0.0366667	-0.0119151	0.00118456	0.000416784	4.20691E-05	0	0	0	
0.0368333	0.015055	0.000640876	0.000388168	3.68264E-05	0	0	0	
0.037	-0.0142077	-0.00194158	0.000378988	2.81637E-05	0	0	0	
0.0371667	0.00775827	0.000804657	0.00042497	2.61129E-05	0	0	0	
0.0373333	-0.0175781	0.00062571	0.000497193	2.40919E-05	0	0	0	
0.0375	0.0256918	-0.00105988	0.000547297	2.59744E-05	0	0	0	
0.0376667	-0.0121954	-0.000342618	0.000503621	2.14907E-05	0	0	0	
0.0378333	-0.0125989	0.000385062	0.000417209	2.09021E-05	0	0	0	
0.038	0.0148141	0.000392423	0.000306469	1.4317E-05	0	0	0	
0.0381667	-0.0028932	-0.000142931	0.0003257	1.77864E-05	0	0	0	
0.0383333	-0.00953567	-0.000214773	0.000302969	2.99239E-05	0	0	0	
0.0385	0.0096201	9.20091E-05	0.000287742	3.58124E-05	0	0	0	
0.0386667	-0.00392945	-0.000703545	0.000254584	2.76767E-05	0	0	0	
0.0388333	0.013576	0.000211973	0.000219625	1.57216E-05	0	0	0	
0.039	-0.0275421	0.000353107	0.000293569	9.33055E-06	0	0	0	
0.0391667	0.0229363	-0.000851005	0.000361064	1.14339E-05	0	0	0	
0.0393333	-0.00965913	-0.000645711	0.000446665	1.42247E-05	0	0	0	
0.0395	0.00535073	0.001276	0.000369973	2.47263E-05	0	0	0	
0.0396667	-0.00753917	-0.0011022	0.00026502	2.62238E-05	0	0	0	
0.0398333	0.00317775	-0.000518553	0.000185863	3.34706E-05	0	0	0	
0.04	-0.0120672	5.30983E-05	0.00027511	2.8233E-05	0	0	0	
0.0401667	0.0297395	0.000560395	0.000447103	2.53799E-05	0	0	0	
0.0403333	-0.0312045	5.66998E-05	0.000554592	1.70722E-05	0	0	0	
0.0405	0.00321753	-0.000647984	0.000567319	1.5603E-05	0	0	0	
0.0406667	0.0119228	-0.000596416	0.000423869	2.48356E-05	0	0	0	
0.0408333	0.00353931	0.00248128	0.000379046	3.17623E-05	0	0	0	
0.041	-0.0146117	-0.00312605	0.000345175	4.21273E-05	0	0	0	
0.0411667	0.00550795	0.00170556	0.000323877	4.63202E-05	0	0	0	
0.0413333	-0.0045572	-0.000397507	0.000228848	4.27684E-05	0	0	0	
0.0415	0.0193772	0.000101291	0.000191185	2.70235E-05	0	0	0	
0.0416667	-0.0177552	-0.000576711	0.00024696	1.66447E-05	0	0	0	
0.0418333	0.00340747	-0.000882879	0.000305745	2.10789E-05	0	0	0	
0.042	-0.0015239	0.00222326	0.000232296	2.93658E-05	0	0	0	
0.0421667	0.0106264	0.000980586	0.000204617	5.88373E-05	0	0	0	
0.0423333	-0.00897329	-0.00384591	0.000165595	7.69635E-05	0	0	0	
0.0425	-0.00107951	0.000805121	0.000223276	7.75021E-05	0	0	0	
0.0426667	0.0077786	0.000774568	0.000185793	7.31492E-05	0	0	0	
0.0428333	0.00049019	-0.000437514	0.000151015	6.04877E-05	0	0	0	
0.043	-0.00423475	-0.000552195	9.97214E-05	5.86596E-05	0	0	0	
0.0431667	-0.00150203	-0.00143912	0.000169844	3.55849E-05	0	0	0	
0.0433333	0.0113585	0.00159315	0.000250445	2.42106E-05	0	0	0	
0.0435	0.0156868	-0.000381946	0.000276122	2.9784E-05	0	0	0	
0.0436667	-0.0312538	-0.00194601	0.000333613	2.56891E-05	0	0	0	
0.0438333	0.032869	0.00177895	0.000443942	4.04032E-05	0	0	0	
0.044	-0.00942949	-0.000572073	0.000662998	4.95865E-05	0	0	0	
0.0441667	-0.0193893	8.92617E-05	0.000663068	5.49173E-05	0	0	0	
0.0443333	0.0154793	-0.000117943	0.000523441	3.94113E-05	0	0	0	
0.0445	0.00127	0.000750279	0.000373099	2.74769E-05	0	0	0	
0.0446667	-0.0227749	-0.00131146	0.000337972	2.50887E-05	0	0	0	
0.0448333	0.0220577	0.000220593	0.000381284	2.78435E-05	0	0	0	
0.045	-0.0100232	-0.000567819	0.000374192	3.13638E-05	0	0	0	
0.0451667	-0.0101823	0.000586161	0.000307192	3.56086E-05	0	0	0	
0.0453333	-0.00643872	-0.000579377	0.000275696	3.72551E-05	0	0	0	
0.0455	0.0071633	-0.000909203	0.00025143	3.25903E-05	0	0	0	
0.0456667	-0.00284241	0.000458835	0.000500456	2.68326E-05	0	0	0	
0.0458333	-0.0133819	-0.000279045	0.000681422	2.6206E-05	0	0	0	
0.046	-0.00505311	-0.00169987	0.000627887	2.96382E-05	0	0	0	
0.0461667	0.0281398	0.00278601	0.000498231	3.7423E-05	0	0	0	
0.0463333	-0.0296047	-0.00276925	0.000429247	4.46342E-05	0	0	0	
0.0465	0.0362463	0.00110299	0.000584413	5.23802E-05	0	0	0	
0.0466667	-0.045171	0.0013727	0.000629218	6.2557E-05	0	0	0	
0.0468333	0.0341859	-0.00282177	0.000726744	6.05841E-05	0	0	0	
0.047	0.0173585	0.00206104	0.000834496	5.4207E-05	0	0	0	
0.0471667	-0.0202524	8.77928E-05	0.000705001	4.98582E-05	0	0	0	
0.0473333	-0.0048998	-0.00237035	0.000754581	5.17603E-05	0	0	0	
0.0475	0.0314153	0.0031633	0.000781979	5.15401E-05	0	0	0	
0.0476667	-0.0243126	-0.00185035	0.000824367	5.64167E-05	0	0	0	
0.0478333	-0.00255026	-0.001509	0.000655823	6.18386E-05	0	0	0	
0.048	0.0151217	0.00259538	0.000381867	5.89526E-05	0	0	0	
0.0481667	-0.00257868	-0.000754369	0.000326863	5.18187E-05	0	0	0	
0.0483333	-0.0112995	-0.000835259	0.000200732	4.55759E-05	0	0	0	
0.0485	-0.00024	0.000900697	0.000226871	3.68259E-05	0	0	0	
0.0486667	0.00839771	-0.00097102	0.000259665	3.63846E-05	0	0	0	
0.0488333	-0.016736	-0.00189556	0.000337315	3.48707E-05	0	0	0	
0.049	0.0147446	0.00341631	0.000357092	4.81933E-05	0	0	0	
0.0491667	-0.00603629	-0.00201304	0.000304889	5.83126E-05	0	0	0	
0.0493333	-0.00926926	-0.000660483	0.000214274	6.34719E-05	0	0	0	
0.0495	0.00465969	-0.00122392	0.000167951	5.41127E-05	0	0	0	
0.0496667	-0.00341147	0.000664645	0.000162061	4.64168E-05	0	0	0	
0.0498333	0.00524128	-0.00134995	0.000208052	4.39304E-05	0	0	0	
0.05	-0.00027124	0.00220545	0.000275306	4.96175E-05	0	0	0	
0.0501667	-0.00960846	-0.00264923	0.000317928	4.43858E-05	0	0	0	
0.0503333	0.00769334	0.000873985	0.000276115	4.85544E-05	0	0	0	
0.0505	8.56233E-05	-1.98746E-05	0.000227674	5.34731E-05	0	0	0	
0.0506667	-0.00548507	0.000146806	0.000139813	4.70078E-05	0	0	0	
0.0508333	0.00588242	-0.000871471	0.000156586	4.64124E-05	0	0	0	
0.051	-0.00844721	0.00204607	0.000163272	5.17361E-05	0	0	0	
0.0511667	0.00496542	-0.00166634	0.000214363	6.42291E-05	0	0	0	
0.0513333	0.00163183	0.00235161	0.000258477	5.56304E-05	0	0	0	
0.0515	-0.0138107	-0.00256902	0.000302431	4.75173E-05	0	0	0	
0.0516667	0.0221372	0.00151718	0.000333873	4.1112E-05	0	0	0	
0.0518333	-0.0109645	-0.0020821	0.00035483	4.34754E-05	0	0	0	
0.052	-0.00870658	0.000796439	0.000351523	4.53006E-05	0	0	0	
0.0521667	0.00789413	0.00267197	0.00031771	3.87952E-05	0	0	0	
0.0523333	0.00476113	-0.00279991	0.000229111	6.24568E-05	0	0	0	
0.0525	0.0121245	-0.00252686	0.00043285	0.000114922	0	0	0	
0.0526667	-0.0321351	0.00734628	0.000788196	0.000173012	0	0	0	
0.0528333	-0.00563205	-0.0082058	0.000846531	0.000174325	0	0	0	
0.053	0.0644175	0.00437632	0.000741135	0.000155449	0	0	0	
0.0531667	-0.0323877	0.00023853	0.000824126	0.000135591	0	0	0	
0.0533333	-0.0381977	-0.00266374	0.0015121	0.000107557	0	0	0	
0.0535	0.0533678	0.002644	0.00172726	8.99653E-05	0	0	0	
0.0536667	-0.0149141	0.000883686	0.00150452	9.27182E-05	0	0	0	
0.0538333	-0.030126	-0.00367986	0.00138232	0.000122747	0	0	0	
0.054	0.0653117	0.00444182	0.00145646	0.000117887	0	0	0	
0.0541667	-0.0463251	-0.00309477	0.00150069	9.40078E-05	0	0	0	
0.0543333	0.00266036	0.000782743	0.0015245	7.18608E-05	0	0	0	
0.0545	0.0262421	0.00124528	0.00165797	6.07573E-05	0	0	0	
0.0546667	-0.0661261	0.000879222	0.00183968	7.69108E-05	0	0	0	
0.0548333	0.0961373	-0.00244651	0.00166378	9.05027E-05	0	0	0	
0.055	-0.0462549	0.00288681	0.00153344	9.12184E-05	0	0	0	
0.0551667	-0.0419795	0.000225157	0.00139833	6.44107E-05	0	0	0	
0.0553333	0.0479314	-0.00255276	0.00133015	4.4774E-05	0	0	0	
0.0555	0.0172607	0.00284204	0.00157702	4.32394E-05	0	0	0	
0.0556667	-0.0235048	-0.00268212	0.00153915	5.39516E-05	0	0	0	
0.0558333	-0.0193027	0.0013004	0.00132161	5.54635E-05	0	0	0	
0.056	0.0547873	0.000537913	0.000957641	4.9013E-05	0	0	0	
0.0561667	-0.0614555	-0.000896957	0.000970089	3.18425E-05	0	0	0	
0.0563333	0.0485842	0.000232194	0.00111631	2.85525E-05	0	0	0	
0.0565	-0.0139558	0.00175384	0.000927103	4.23327E-05	0	0	0	
0.0566667	-0.00539474	-0.0033916	0.000661292	5.49591E-05	0	0	0	
0.0568333	0.0180372	0.00194497	0.000361036	6.00029E-05	0	0	0	
0.057	-0.0213008	-0.0011264	0.000277538	4.76813E-05	0	0	0	
0.0571667	0.0178442	-0.000857541	0.000394315	4.93263E-05	0	0	0	
0.0573333	0.0235873	0.003083	0.000627437	6.02323E-05	0	0	0	
0.0575	-0.0389097	-0.00334522	0.000842293	7.23769E-05	0	0	0	
0.0576667	0.0271204	0.00096327	0.000843984	6.42431E-05	0	0	0	
0.0578333	-0.00086061	0.000584298	0.000646083	5.45813E-05	0	0	0	
0.058	-0.0126924	-0.000606929	0.000421896	4.55865E-05	0	0	0	
0.0581667	0.0139619	0.00174542	0.00028821	4.21477E-05	0	0	0	
0.0583333	-0.00910761	-0.00255365	0.000284892	3.46354E-05	0	0	0	
0.0585	-0.0154516	0.00268946	0.00031205	4.71356E-05	0	0	0	
0.0586667	0.0108221	-0.000689058	0.00038046	7.41618E-05	0	0	0	
0.0588333	-0.00678462	-0.00131366	0.000338774	9.49661E-05	0	0	0	
0.059	-0.00478109	0.00266598	0.000344822	8.58078E-05	0	0	0	
0.0591667	0.00326436	-0.00131766	0.000281545	5.77149E-05	0	0	0	
0.0593333	0.0109219	0.000694034	0.000261735	4.23947E-05	0	0	0	
0.0595	-0.0203538	0.00347858	0.000227938	4.7025E-05	0	0	0	
0.0596667	0.00665336	-0.00707906	0.000274333	7.29359E-05	0	0	0	
0.0598333	0.00257879	0.00655886	0.000267057	0.000100027	0	0	0	
0.06	0.000971395	-0.00178394	0.000248452	0.000119224	0	0	0	
0.0601667	-0.00530373	-0.0012042	0.000221511	0.000116417	0	0	0	
0.0603333	0.00629032	0.00193441	0.000236693	8.17604E-05	0	0	0	
0.0605	-0.00721822	-0.000509315	0.000174954	5.06001E-05	0	0	0	
0.0606667	0.00724121	-0.000705367	0.000139766	3.19277E-05	0	0	0	
0.0608333	0.00758189	0.00231914	0.00013209	4.91982E-05	0	0	0	
0.061	-0.0233998	-0.00395801	0.000214064	7.2754E-05	0	0	0	
0.0611667	0.0201011	0.00426331	0.000290132	8.16598E-05	0	0	0	
0.0613333	0.00283303	0.000211353	0.000319517	8.63186E-05	0	0	0	
0.0615	-0.0197481	-0.00431823	0.000299886	6.91745E-05	0	0	0	
0.0616667	0.00677382	0.00134598	0.000410314	8.24782E-05	0	0	0	
0.0618333	0.0170034	0.00555499	0.000640945	0.000105968	0	0	0	
0.062	-0.027537	-0.00651871	0.000721043	0.000126823	0	0	0	
0.0621667	0.017501	0.00215455	0.000598234	0.000127046	0	0	0	
0.0623333	-0.00184508	0.00359051	0.000440376	0.000103162	0	0	0	
0.0625	-0.00760802	-0.00500822	0.000386467	9.19184E-05	0	0	0	
0.0626667	0.0114983	0.00345051	0.000348696	9.64708E-05	0	0	0	
0.0628333	-0.0102923	-7.50896E-05	0.00026935	0.000114745	0	0	0	
0.063	-0.0015146	-0.00414971	0.000190688	0.000137366	0	0	0	
0.0631667	0.0094128	0.00532994	0.000166119	0.000137907	0	0	0	
0.0633333	-0.0113284	-0.00284951	0.000180256	0.00011265	0	0	0	
0.0635	0.00894002	-0.00210756	0.000200995	9.36661E-05	0	0	0	
0.0636667	-0.0130735	0.0044723	0.000201471	7.75013E-05	0	0	0	
0.0638333	0.0150286	-0.00296542	0.000223211	8.04048E-05	0	0	0	
0.064	-0.0116152	-0.00201027	0.000240948	8.29605E-05	0	0	0	
0.0641667	0.00290556	0.00335362	0.00024641	7.89258E-05	0	0	0	
0.0643333	0.00618716	1.95222E-05	0.000236562	6.57283E-05	0	0	0	
0.0645	-0.00656426	-0.00327716	0.000210041	4.32451E-05	0	0	0	
0.0646667	-0.00452815	0.000745001	0.000183763	4.34833E-05	0	0	0	
0.0648333	0.0160313	0.00350701	0.000177611	6.40674E-05	0	0	0	
0.065	-0.0184349	-0.0039599	0.000222627	8.01374E-05	0	0	0	
0.0651667	0.0201862	0.00172124	0.000302139	7.77542E-05	0	0	0	
0.0653333	-0.0122374	0.0011908	0.000384439	5.93938E-05	0	0	0	
0.0655	0.000337763	-0.00217455	0.000510784	4.38418E-05	0	0	0	
0.0656667	0.00405828	0.000807667	0.000482249	3.67663E-05	0	0	0	
0.0658333	0.0115356	9.11912E-05	0.000388353	3.22217E-05	0	0	0	
0.066	-0.0162679	0.000583121	0.000255292	3.60918E-05	0	0	0	
0.0661667	0.010419	-0.000387404	0.000249131	3.76614E-05	0	0	0	
0.0663333	-0.0186645	0.000196922	0.000286972	3.15126E-05	0	0	0	
0.0665	0.0209931	-0.0013884	0.000317766	2.38811E-05	0	0	0	
0.0666667	0.000326081	0.00139283	0.000372623	2.08382E-05	0	0	0	
0.0668333	-0.049706	-0.000826969	0.000412791	2.4153E-05	0	0	0	
0.067	0.0203943	0.000456048	0.000519382	2.96106E-05	0	0	0	
0.0671667	-0.00215469	-0.00085829	0.000475333	2.59262E-05	0	0	0	
0.0673333	0.00662377	0.00122544	0.00054408	2.98687E-05	0	0	0	
0.0675	-0.0527171	-0.00265737	0.000666849	3.13206E-05	0	0	0	
0.0676667	0.110854	0.00147583	0.00107999	3.93939E-05	0	0	0	
0.0678333	-0.0959016	-1.62052E-05	0.00148907	3.49714E-05	0	0	0	
0.068	0.0437766	0.000224471	0.00170642	2.47813E-05	0	0	0	
0.0681667	-0.0121883	-0.000614648	0.00148374	2.34096E-05	0	0	0	
0.0683333	-0.0171972	0.000409376	0.00112096	2.91057E-05	0	0	0	
0.0685	0.0196835	-0.000386162	0.000842213	3.02805E-05	0	0	0	
0.0686667	0.0151896	0.000182508	0.00095153	2.05791E-05	0	0	0	
0.0688333	-0.0419751	-0.000649417	0.00124131	8.90525E-06	0	0	0	
0.069	0.0303228	0.000813473	0.00143525	1.38669E-05	0	0	0	
0.0691667	-0.00337723	-0.000469095	0.00122798	2.64402E-05	0	0	0	
0.0693333	-0.019551	-0.0010945	0.000772355	4.09099E-05	0	0	0	
0.0695	0.0158156	0.00124929	0.000423181	4.11261E-05	0	0	0	
0.0696667	-0.00448077	9.80142E-05	0.000326867	2.95826E-05	0	0	0	
0.0698333	-0.00185205	-0.0011907	0.000274059	1.88561E-05	0	0	0	
0.07	-0.00233774	0.00155497	0.000251298	1.8408E-05	0	0	0	
0.0701667	4.93276E-05	-0.0016579	0.000231067	2.28021E-05	0	0	0	
0.0703333	0.000527999	0.0024392	0.000227683	3.35038E-05	0	0	0	
0.0705	0.00423709	-0.0014827	0.000186515	3.64237E-05	0	0	0	
0.0706667	-0.00847738	6.81044E-05	0.000197276	3.90995E-05	0	0	0	
0.0708333	0.000929933	0.000155204	0.000237984	3.25069E-05	0	0	0	
0.071	0.00166553	0.000243244	0.000258403	2.56388E-05	0	0	0	
0.0711667	0.00316693	-0.000240029	0.000286853	1.85629E-05	0	0	0	
0.0713333	-0.00562276	-0.000627476	0.000290287	1.1529E-05	0	0	0	
0.0715	0.00416632	0.00129494	0.000253811	1.30238E-05	0	0	0	
0.0716667	-0.000997658	-0.00110577	0.000198978	2.00214E-05	0	0	0	
0.0718333	-0.00506771	0.000675603	0.000182315	2.51287E-05	0	0	0	
0.072	0.012685	0.00065269	0.000203792	2.40246E-05	0	0	0	
0.0721667	-0.0157935	-0.000235394	0.000246119	1.95157E-05	0	0	0	
0.0723333	0.0105594	-0.000974134	0.000253476	1.86893E-05	0	0	0	
0.0725	0.00222912	0.00121755	0.000240025	2.01768E-05	0	0	0	
0.0726667	-0.00361936	-0.00122373	0.000213854	2.36065E-05	0	0	0	
0.0728333	0.000838431	-0.000496462	0.000236489	2.02439E-05	0	0	0	
0.073	-0.00111876	0.00100927	0.000214507	2.00258E-05	0	0	0	
0.0731667	0.0125551	0.000242846	0.000179021	2.07316E-05	0	0	0	
0.0733333	-0.0202771	-0.00112271	0.000185595	2.74023E-05	0	0	0	
0.0735	0.0174552	0.000526186	0.000264836	3.03266E-05	0	0	0	
0.0736667	-0.0164642	-0.000755126	0.000369612	2.56924E-05	0	0	0	
0.0738333	0.0129088	0.000402246	0.000365868	1.97592E-05	0	0	0	
0.074	-0.00987012	-0.000260615	0.000329821	1.40498E-05	0	0	0	
0.0741667	0.00576374	-0.00024112	0.000227432	1.41661E-05	0	0	0	
0.0743333	-0.00506722	0.000929074	0.000166923	1.51348E-05	0	0	0	
0.0745	0.00695463	-0.000400799	0.00011951	1.53499E-05	0	0	0	
0.0746667	-0.00371213	-0.000405501	0.000112923	1.91731E-05	0	0	0	
0.0748333	7.48076E-05	-0.000644305	9.85424E-05	2.54438E-05	0	0	0	
0.075	-0.00019478	-7.56862E-05	8.15831E-05	2.55128E-05	0	0	0	
0.0751667	0.00397711	0.000222588	5.79501E-05	1.61032E-05	0	0	0	
0.0753333	-0.00910509	-0.00117943	7.8371E-05	1.03862E-05	0	0	0	
0.0755	0.00982432	0.00153332	0.000123912	1.37904E-05	0	0	0	
0.0756667	-0.00461038	-0.000778363	0.000180905	2.10565E-05	0	0	0	
0.0758333	0.00214254	-0.000780229	0.000159829	2.02811E-05	0	0	0	
0.076	-0.00630242	0.000248604	0.000125028	1.82737E-05	0	0	0	
0.0761667	0.00474882	4.89845E-05	9.55418E-05	1.42505E-05	0	0	0	
0.0763333	0.00981446	-0.000823287	0.00012468	2.33706E-05	0	0	0	
0.0765	-0.0070464	0.00145417	0.000173183	3.44228E-05	0	0	0	
0.0766667	-0.0203151	-0.0017544	0.000305079	4.0889E-05	0	0	0	
0.0768333	0.0403941	0.000389061	0.000469404	3.57396E-05	0	0	0	
0.077	-0.0190535	0.000117457	0.000556914	2.56541E-05	0	0	0	
0.0771667	0.0155486	-0.000873623	0.000516863	2.19452E-05	0	0	0	
0.0773333	-0.019777	0.000582553	0.000422449	3.17339E-05	0	0	0	
0.0775	0.00851552	0.000913832	0.000342878	4.81506E-05	0	0	0	
0.0776667	0.00957265	-0.00222524	0.000321135	5.55057E-05	0	0	0	
0.0778333	0.00384186	0.00116395	0.000251453	4.78659E-05	0	0	0	
0.078	-0.0104382	0.000330605	0.000374833	3.78549E-05	0	0	0	
0.0781667	0.0212411	-0.00103384	0.000414571	3.31799E-05	0	0	0	
0.0783333	-0.0032956	0.0017012	0.000453794	3.08679E-05	0	0	0	
0.0785	0.00378118	-0.000942187	0.000289776	3.00308E-05	0	0	0	
0.0786667	-0.00217314	0.000666616	0.000194179	3.91402E-05	0	0	0	
0.0788333	-0.00124211	-0.000605123	0.000110923	4.55542E-05	0	0	0	
0.079	0.0110411	0.000188097	0.000109662	4.43275E-05	0	0	0	
0.0791667	-0.00107749	0.00072572	0.000115671	4.36649E-05	0	0	0	
0.0793333	-0.00465027	-0.00108273	0.000118923	4.73585E-05	0	0	0	
0.0795	-0.0113311	-0.000515278	0.000255138	4.53688E-05	0	0	0	
0.0796667	0.0290968	0.00211514	0.000348124	3.92704E-05	0	0	0	
0.0798333	0.0172274	0.000212804	0.000588171	3.28263E-05	0	0	0	
0.08	-0.0970184	-0.00228397	0.000714163	3.88746E-05	0	0	0	
0.0801667	0.108017	0.00214573	0.00139823	4.10098E-05	0	0	0	
0.0803333	-0.0174752	-0.000185072	0.00228695	4.33123E-05	0	0	0	
0.0805	-0.010632	0.000229453	0.00277899	3.51987E-05	0	0	0	
0.0806667	-0.0290741	-0.000703115	0.00221243	2.66539E-05	0	0	0	
0.0808333	0.050233	0.0011124	0.0013808	1.58938E-05	0	0	0	
0.081	-0.0654132	-0.000695936	0.000978251	1.794E-05	0	0	0	
0.0811667	0.137137	0.00161139	0.00141472	1.98531E-05	0	0	0	
0.0813333	-0.17058	-0.00316406	0.00216722	3.36745E-05	0	0	0	
0.0815	0.142571	0.00304447	0.00275054	4.4269E-05	0	0	0	
0.0816667	-0.0711035	-0.00102963	0.0027683	5.1366E-05	0	0	0	
0.0818333	0.0449205	-0.00183363	0.00211115	4.0302E-05	0	0	0	
0.082	-0.0700073	5.44562E-05	0.00157298	3.07044E-05	0	0	0	
0.0821667	0.0881125	0.00293413	0.00137958	3.01502E-05	0	0	0	
0.0823333	-0.0621691	-0.00326884	0.00145322	4.35871E-05	0	0	0	
0.0825	0.0249116	0.000953963	0.00129683	5.10198E-05	0	0	0	
0.0826667	-0.0139204	0.000515476	0.000971803	4.97373E-05	0	0	0	
0.0828333	0.0280525	0.000562781	0.000762227	3.61954E-05	0	0	0	
0.083	-0.0267053	0.000488109	0.000673463	2.88185E-05	0	0	0	
0.0831667	0.0306038	-0.00165865	0.000653773	3.34508E-05	0	0	0	
0.0833333	-0.0364103	0.00149727	0.000630424	3.73425E-05	0	0	0	
0.0835	0.0376229	0.000848876	0.000695337	4.28842E-05	0	0	0	
0.0836667	-0.028769	-0.00281945	0.000742732	4.3655E-05	0	0	0	
0.0838333	0.0156034	0.00316967	0.000629965	5.11947E-05	0	0	0	
0.084	0.000484697	-0.000656742	0.000424012	5.72715E-05	0	0	0	
0.0841667	0.0079885	-0.00111208	0.000268872	5.99048E-05	0	0	0	
0.0843333	-0.0250942	0.000649201	0.000294913	5.13566E-05	0	0	0	
0.0845	0.0305194	-0.000191613	0.000389874	3.35808E-05	0	0	0	
0.0846667	-0.00920341	-0.0002793	0.000536253	2.10368E-05	0	0	0	
0.0848333	-0.00545546	0.00192339	0.000591859	2.13242E-05	0	0	0	
0.085	0.00706785	-0.00330433	0.000491899	3.4079E-05	0	0	0	
0.0851667	0.00316931	0.00257193	0.000355741	4.52387E-05	0	0	0	
0.0853333	-0.0115518	-0.000656458	0.000294324	5.29672E-05	0	0	0	
0.0855	0.0160193	-0.000766146	0.000416708	4.61402E-05	0	0	0	
0.0856667	-0.0220804	-0.00021193	0.000460955	3.0735E-05	0	0	0	
0.0858333	0.0223301	0.00156813	0.000427171	1.9655E-05	0	0	0	
0.086	-0.0212232	-0.00286073	0.000413829	2.53769E-05	0	0	0	
0.0861667	0.00854413	0.00242213	0.000378214	3.8212E-05	0	0	0	
0.0863333	0.00757762	-0.00160673	0.000312735	4.3914E-05	0	0	0	
0.0865	-0.0125649	0.000290481	0.000294294	4.07236E-05	0	0	0	
0.0866667	0.00328845	0.00105356	0.000343222	3.13614E-05	0	0	0	
0.0868333	0.00883019	-0.000126214	0.000371745	2.29611E-05	0	0	0	
0.087	-0.0176433	-0.00149142	0.000314996	1.85993E-05	0	0	0	
0.0871667	0.00670805	0.00126533	0.000321614	2.54732E-05	0	0	0	
0.0873333	0.00490906	-0.000617556	0.000415461	3.04856E-05	0	0	0	
0.0875	-0.0176392	0.000334889	0.000442633	2.69437E-05	0	0	0	
0.0876667	0.00379616	-0.000190938	0.00033784	1.42429E-05	0	0	0	
0.0878333	0.0249678	0.00020021	0.000344305	1.0396E-05	0	0	0	
0.088	-0.0468251	-0.00019337	0.00048178	1.52744E-05	0	0	0	
0.0881667	0.0448241	2.3131E-05	0.000717325	2.06878E-05	0	0	0	
0.0883333	-0.0166155	0.000239797	0.000832853	1.81846E-05	0	0	0	
0.0885	-0.00368754	0.00124797	0.00082847	1.25834E-05	0	0	0	
0.0886667	0.00307203	-0.00111499	0.000575133	1.47618E-05	0	0	0	
0.0888333	0.00873875	0.000911225	0.000394085	1.87469E-05	0	0	0	
0.089	-0.0139935	8.80754E-05	0.00026176	2.68604E-05	0	0	0	
0.0891667	0.00844164	-0.00125268	0.000293372	2.78755E-05	0	0	0	
0.0893333	-0.0077618	0.000646493	0.000246705	2.65133E-05	0	0	0	
0.0895	0.0211892	-4.45076E-05	0.000283288	1.97339E-05	0	0	0	
0.0896667	-0.0269618	0.00166488	0.000399881	2.14294E-05	0	0	0	
0.0898333	0.015233	-0.000642737	0.000439714	4.09847E-05	0	0	0	
0.09	-0.00384773	-0.00253598	0.000366575	7.10978E-05	0	0	0	
0.0901667	0.0081386	0.00299981	0.000214703	8.254E-05	0	0	0	
0.0903333	-0.00818201	-0.00236962	0.000183044	7.70903E-05	0	0	0	
0.0905	-0.0141832	0.000552751	0.000212505	6.56398E-05	0	0	0	
0.0906667	0.0157534	0.000983982	0.000272924	6.33381E-05	0	0	0	
0.0908333	0.00144417	-0.00338799	0.000369952	6.07324E-05	0	0	0	
0.091	-0.0158521	0.00327659	0.000377217	5.74783E-05	0	0	0	
0.0911667	0.00735691	-0.00159822	0.000349495	6.14509E-05	0	0	0	
0.0913333	-0.00577482	-0.00138339	0.000252775	6.42959E-05	0	0	0	
0.0915	0.0064501	0.00338178	0.000190019	5.90714E-05	0	0	0	
0.0916667	-0.0106033	-0.00292687	0.000183175	5.40766E-05	0	0	0	
0.0918333	0.00725756	0.00114407	0.000157584	4.93031E-05	0	0	0	
0.092	-0.000310171	0.000262883	0.000141074	3.99649E-05	0	0	0	
0.0921667	-0.00080192	0.000920673	9.20177E-05	2.40504E-05	0	0	0	
0.0923333	-0.00384819	-0.00189969	8.66762E-05	1.86393E-05	0	0	0	
0.0925	0.00701182	0.00117647	0.000108114	2.35602E-05	0	0	0	
0.0926667	-0.00428461	-0.000332549	0.000134751	2.85327E-05	0	0	0	
0.0928333	0.00347601	0.000512116	0.000117091	2.29037E-05	0	0	0	
0.093	-0.00474354	-0.00168716	8.52297E-05	1.95324E-05	0	0	0	
0.0931667	0.00651025	0.000617892	8.58771E-05	1.64384E-05	0	0	0	
0.0933333	-0.00154773	-0.000520499	0.000110419	2.47047E-05	0	0	0	
0.0935	-0.000923236	-0.00052807	0.00013669	2.50299E-05	0	0	0	
0.0936667	-0.00059146	0.00086679	0.00011133	2.46167E-05	0	0	0	
0.0938333	0.00697592	-0.000471759	8.07339E-05	1.80867E-05	0	0	0	
0.094	-0.00229234	-0.00106005	6.48721E-05	2.30314E-05	0	0	0	
0.0941667	-0.000578033	0.00279369	7.4574E-05	3.56025E-05	0	0	0	
0.0943333	-0.00491455	-0.00358841	8.74413E-05	4.92887E-05	0	0	0	
0.0945	0.0181411	0.00242609	0.000144124	5.55306E-05	0	0	0	
0.0946667	-0.0182385	-0.000192451	0.000245711	5.59565E-05	0	0	0	
0.0948333	-0.000289839	-0.000820266	0.000275567	5.94614E-05	0	0	0	
0.095	0.0152467	0.00257547	0.000229777	5.70383E-05	0	0	0	
0.0951667	-0.0121592	-0.00114002	0.000223805	4.81535E-05	0	0	0	
0.0953333	0.00183093	-0.000599675	0.000300697	4.86386E-05	0	0	0	
0.0955	0.00633002	0.0022621	0.000356583	5.61289E-05	0	0	0	
0.0956667	-0.00681326	-0.00310377	0.000305931	6.32413E-05	0	0	0	
0.0958333	-0.00105505	0.00270174	0.000190523	5.95024E-05	0	0	0	
0.096	0.00784945	-0.000680181	0.000146103	5.77506E-05	0	0	0	
0.0961667	-0.0122257	-0.00163057	0.000160896	6.25365E-05	0	0	0	
0.0963333	0.00909913	0.00217115	0.000193596	5.4369E-05	0	0	0	
0.0965	0.00315238	-0.000494922	0.000200506	4.795E-05	0	0	0	
0.0966667	-0.00843649	-0.00194717	0.000172126	4.69692E-05	0	0	0	
0.0968333	0.00508367	0.00229825	0.000154432	5.33818E-05	0	0	0	
0.097	-0.00385074	-0.000613003	0.000113152	4.41547E-05	0	0	0	
0.0971667	0.0105765	-0.000936175	0.000138916	3.3374E-05	0	0	0	
0.0973333	-0.0413152	0.00307261	0.000259106	2.97631E-05	0	0	0	
0.0975	0.036885	-0.00091052	0.000497367	3.45246E-05	0	0	0	
0.0976667	-0.0366815	-0.00156099	0.000678221	4.4064E-05	0	0	0	
0.0978333	0.0208852	0.001889	0.000694904	4.90914E-05	0	0	0	
0.098	-0.00754438	-0.000144423	0.000549991	4.28841E-05	0	0	0	
0.0981667	0.0140563	-0.000428995	0.000454434	3.20132E-05	0	0	0	
0.0983333	-0.0346331	0.00145715	0.000519145	1.69572E-05	0	0	0	
0.0985	0.0307853	-0.000460054	0.000717359	2.00824E-05	0	0	0	
0.0986667	-0.0177349	-0.000231395	0.000739309	2.04073E-05	0	0	0	
0.0988333	0.00497043	0.000251743	0.000639198	2.9553E-05	0	0	0	
0.099	-0.00307451	-0.000689723	0.000436416	3.12636E-05	0	0	0	
0.0991667	-0.00813772	0.00121588	0.000321971	2.85489E-05	0	0	0	
0.0993333	0.0094967	-0.00209421	0.000255311	2.75163E-05	0	0	0	
0.0995	-0.00242358	0.00159257	0.000250868	2.85344E-05	0	0	0	
0.0996667	0.000640378	-0.000121062	0.000236532	3.10593E-05	0	0	0	
0.0998333	0.00242342	-0.0011445	0.000198207	3.10339E-05	0	0	0	
0.1	-0.00642145	0.00113659	0.000157427	2.95755E-05	0	0	0	
0.100167	0.011887	-0.000564901	0.000198656	2.72245E-05	0	0	0	
0.100333	-0.0036208	-0.000426586	0.000297971	1.806E-05	0	0	0	
0.1005	-0.00653776	0.00151933	0.000349889	1.64512E-05	0	0	0	
0.100667	-0.0021456	-0.00152295	0.000268086	2.50908E-05	0	0	0	
0.100833	0.0105207	0.000826049	0.000182874	2.79551E-05	0	0	0	
0.101	0.0144854	0.000760575	0.000314704	4.33738E-05	0	0	0	
0.101167	-0.0391976	-0.00274051	0.000547642	4.63758E-05	0	0	0	
0.101333	0.0189117	0.000339588	0.000678939	5.07229E-05	0	0	0	
0.1015	0.00147596	0.00230273	0.000492317	5.1103E-05	0	0	0	
0.101667	0.017305	-0.00290608	0.000457009	5.49053E-05	0	0	0	
0.101833	-0.0349881	0.000790125	0.00047079	5.51986E-05	0	0	0	
0.102	0.000133977	-0.00046825	0.000542162	5.57174E-05	0	0	0	
0.102167	0.0172501	-0.000503587	0.000396621	5.00429E-05	0	0	0	
0.102333	0.0283853	0.00248499	0.000641164	4.89639E-05	0	0	0	
0.1025	-0.042728	-0.00266251	0.000902942	4.14644E-05	0	0	0	
0.102667	-0.00111219	0.000623479	0.000952546	4.09437E-05	0	0	0	
0.102833	0.0318377	0.00292079	0.000627723	5.53183E-05	0	0	0	
0.103	-0.027774	-0.00528875	0.000459595	6.25298E-05	0	0	0	
0.103167	0.0246549	0.00411109	0.000620233	8.12994E-05	0	0	0	
0.103333	-0.0210906	0.000230722	0.000816183	9.54103E-05	0	0	0	
0.1035	-0.00310349	-0.00226839	0.00104173	0.000101021	0	0	0	
0.103667	0.0378283	0.00023354	0.00119666	7.819E-05	0	0	0	
0.103833	-0.0357393	0.00173436	0.00108092	5.29124E-05	0	0	0	
0.104	8.38331E-05	-0.00206457	0.000896924	4.23012E-05	0	0	0	
0.104167	0.0389307	0.00345991	0.00079038	4.51001E-05	0	0	0	
0.104333	-0.0619361	-0.00361363	0.000925314	6.42381E-05	0	0	0	
0.1045	0.0555045	0.00107188	0.00100102	8.31878E-05	0	0	0	
0.104667	-0.0289377	0.0026004	0.00103376	9.99329E-05	0	0	0	
0.104833	-0.0024414	-0.0036561	0.00101761	8.56971E-05	0	0	0	
0.105	0.0144972	0.00192261	0.000813234	7.20265E-05	0	0	0	
0.105167	-0.00124215	0.00223626	0.000501327	6.09168E-05	0	0	0	
0.105333	-0.00117558	-0.0031048	0.00022936	6.00839E-05	0	0	0	
0.1055	-0.00235792	0.00203461	0.000113827	5.48291E-05	0	0	0	
0.105667	-0.00151231	-0.000294679	0.000163339	5.22841E-05	0	0	0	
0.105833	0.00947082	-0.00103076	0.000245176	4.85087E-05	0	0	0	
0.106	-0.00972269	0.00163538	0.000293403	4.23577E-05	0	0	0	
0.106167	0.00731318	-0.000833184	0.000250256	4.09851E-05	0	0	0	
0.106333	-0.00374123	0.00162615	0.000183415	4.13144E-05	0	0	0	
0.1065	-0.00915319	-0.00342855	0.000194886	4.74139E-05	0	0	0	
0.106667	0.0263759	0.00262917	0.000235457	4.80986E-05	0	0	0	
0.106833	-0.0274037	-0.000718924	0.000425134	6.33783E-05	0	0	0	
0.107	0.00691943	-0.00173594	0.00063579	7.007E-05	0	0	0	
0.107167	0.00450567	0.00175647	0.000700288	6.01995E-05	0	0	0	
0.107333	0.000915601	-0.00088343	0.000491375	4.93446E-05	0	0	0	
0.1075	-0.00692771	-0.00117639	0.000303016	3.61858E-05	0	0	0	
0.107667	0.013258	0.000960974	0.00025246	3.55892E-05	0	0	0	
0.107833	-0.0262266	-0.000885197	0.000340527	2.74181E-05	0	0	0	
0.108	0.0296366	-0.000645007	0.000416477	3.00822E-05	0	0	0	
0.108167	-0.0131756	0.00168864	0.000458593	3.8112E-05	0	0	0	
0.108333	-0.00764896	-0.00143827	0.000404498	3.8428E-05	0	0	0	
0.1085	0.0134252	-0.00064017	0.000312519	3.74664E-05	0	0	0	
0.108667	-0.0019927	0.00152627	0.000317231	3.28381E-05	0	0	0	
0.108833	-0.00151573	-0.00111001	0.000325742	3.4572E-05	0	0	0	
0.109	-0.00467031	0.000231749	0.000289126	3.95293E-05	0	0	0	
0.109167	0.0112452	0.00138844	0.000240759	4.63254E-05	0	0	0	
0.109333	-0.00885326	-0.00149181	0.000218536	4.57315E-05	0	0	0	
0.1095	-0.00308222	0.000736415	0.000196528	3.28258E-05	0	0	0	
0.109667	0.00201211	-0.000346427	0.000112312	2.74748E-05	0	0	0	
0.109833	0.00362075	-0.000696522	8.64868E-05	2.27129E-05	0	0	0	
0.11	-0.00730559	0.000948838	0.000103208	2.24772E-05	0	0	0	
0.110167	0.00288921	0.000527811	0.000133678	2.07482E-05	0	0	0	
0.110333	-0.00566551	-0.00234902	0.000145636	2.64236E-05	0	0	0	
0.1105	0.00479212	0.00159477	0.0001404	3.3605E-05	0	0	0	
0.110667	0.0045058	-0.00115954	0.000144054	3.53398E-05	0	0	0	
0.110833	-0.0116729	-0.000498078	0.000170169	3.67406E-05	0	0	0	
0.111	0.00488964	0.00133026	0.000181972	2.94813E-05	0	0	0	
0.111167	0.00294228	-0.000172201	0.000198077	2.81714E-05	0	0	0	
0.111333	-0.00525996	-0.000521515	0.000139404	3.20048E-05	0	0	0	
0.1115	0.00118827	0.000803679	0.000122732	3.90474E-05	0	0	0	
0.111667	-0.00530591	-0.0024228	8.20571E-05	3.7093E-05	0	0	0	
0.111833	0.00849731	0.00253973	0.000107477	3.94857E-05	0	0	0	
0.112	-0.00418154	-0.00108667	0.000123965	4.73149E-05	0	0	0	
0.112167	0.000588227	-0.000899346	0.000118366	5.5235E-05	0	0	0	
0.112333	-0.00603547	0.00197844	0.00011719	4.50383E-05	0	0	0	
0.1125	0.00815399	-0.000888543	0.000139476	3.62162E-05	0	0	0	
0.112667	-0.00479865	-0.00108245	0.000166798	3.46636E-05	0	0	0	
0.112833	0.00468907	0.00216745	0.000158972	4.24103E-05	0	0	0	
0.113	-0.0113689	-0.00311315	0.000132885	4.78456E-05	0	0	0	
0.113167	0.00311512	0.00166971	0.000178638	4.90892E-05	0	0	0	
0.113333	0.0188814	0.000408272	0.000295662	5.12611E-05	0	0	0	
0.1135	-0.0298326	-0.000198932	0.000382801	4.82522E-05	0	0	0	
0.113667	0.0143298	0.00114364	0.000528442	3.59681E-05	0	0	0	
0.113833	0.000447264	-0.000858881	0.000569601	2.81189E-05	0	0	0	
0.114	-0.00280096	-0.000803179	0.000466036	2.94466E-05	0	0	0	
0.114167	0.00829984	0.00308144	0.000262871	4.48575E-05	0	0	0	
0.114333	-0.0166597	-0.00404774	0.000156643	5.30891E-05	0	0	0	
0.1145	0.002048	0.00297419	0.000282166	6.87856E-05	0	0	0	
0.114667	0.0243177	0.00176369	0.000512883	7.76798E-05	0	0	0	
0.114833	-0.033788	-0.00323018	0.00064979	7.43951E-05	0	0	0	
0.115	0.00848279	0.00215681	0.000618439	6.69805E-05	0	0	0	
0.115167	0.0167653	0.00108245	0.000397712	6.62875E-05	0	0	0	
0.115333	-0.0104989	-0.00271703	0.000320482	6.75386E-05	0	0	0	
0.1155	-0.00354721	0.00278885	0.000333662	6.10072E-05	0	0	0	
0.115667	-0.0097614	0.000445901	0.000323763	5.23002E-05	0	0	0	
0.115833	0.0250326	-0.00218018	0.000322499	4.63366E-05	0	0	0	
0.116	-0.0190305	0.00172653	0.000311271	3.91969E-05	0	0	0	
0.116167	0.00594446	-0.000472542	0.00036888	3.28435E-05	0	0	0	
0.116333	-0.00498484	-0.00180277	0.000272064	3.18027E-05	0	0	0	
0.1165	0.00202642	0.00309928	0.000197842	3.71432E-05	0	0	0	
0.116667	-0.00556867	-0.00128372	0.000217801	4.24662E-05	0	0	0	
0.116833	0.0461431	-0.00214026	0.000516288	5.80569E-05	0	0	0	
0.117	-0.0823252	0.00308594	0.000993366	5.99132E-05	0	0	0	
0.117167	0.0744975	-0.00114407	0.00138283	6.14469E-05	0	0	0	
0.117333	-0.0351248	-0.00201696	0.00138912	5.54433E-05	0	0	0	
0.1175	0.00902539	0.00233471	0.00104052	5.2992E-05	0	0	0	
0.117667	0.00636056	-0.00177911	0.000721883	4.74729E-05	0	0	0	
0.117833	-0.013907	-0.00031575	0.000639557	3.39534E-05	0	0	0	
0.118	0.00620328	0.000780427	0.000902732	2.38723E-05	0	0	0	
0.118167	0.0109993	-0.000275004	0.00125757	1.32616E-05	0	0	0	
0.118333	-0.00851196	-0.000817961	0.00133584	1.23433E-05	0	0	0	
0.1185	-0.0166751	0.000565002	0.00101956	1.39562E-05	0	0	0	
0.118667	0.030019	-0.00113021	0.000653761	1.62152E-05	0	0	0	
0.118833	-0.0157004	-0.000272143	0.000474229	1.57257E-05	0	0	0	
0.119	-0.00179548	0.000887238	0.000408848	1.93758E-05	0	0	0	
0.119167	0.00727496	-0.00122165	0.000315483	2.50965E-05	0	0	0	
0.119333	-0.00240917	0.00197204	0.000326545	3.21529E-05	0	0	0	
0.1195	0.00166032	-0.000594222	0.000413714	3.86568E-05	0	0	0	
0.119667	-0.0129715	-0.000699316	0.000414815	4.15732E-05	0	0	0	
0.119833	0.0239706	0.00122028	0.000369866	3.76149E-05	0	0	0	
0.12	-0.0228455	-0.000243777	0.000370228	2.53917E-05	0	0	0	
0.120167	0.0168231	-0.000608658	0.000427147	2.15988E-05	0	0	0	
0.120333	-0.0192286	0.00222561	0.000435102	2.15167E-05	0	0	0	
0.1205	0.0251881	-0.000918163	0.0004647	2.90809E-05	0	0	0	
0.120667	-0.0177126	-0.000726163	0.000454478	2.75179E-05	0	0	0	
0.120833	0.00244598	0.00143824	0.000380808	2.72423E-05	0	0	0	
0.121	0.00690866	-0.000683274	0.000224808	2.17699E-05	0	0	0	
0.121167	-0.00468301	-0.000639689	0.000152341	2.07226E-05	0	0	0	
0.121333	-0.00199682	0.00178886	0.000186429	2.53601E-05	0	0	0	
0.1215	0.006111	-0.00126234	0.000290947	3.16596E-05	0	0	0	
0.121667	-0.00792695	0.000319415	0.00035694	2.94409E-05	0	0	0	
0.121833	0.00772838	0.00028796	0.000333891	3.00008E-05	0	0	0	
0.122	-0.00430623	-0.000735411	0.000234625	2.65631E-05	0	0	0	
0.122167	0.00269858	0.000524047	0.000137676	2.55171E-05	0	0	0	
0.122333	-0.00526279	-0.0010959	8.63942E-05	2.01972E-05	0	0	0	
0.1225	0.00760057	0.00042937	0.000102948	1.91486E-05	0	0	0	
0.122667	-0.00471239	0.000910359	0.0001182	2.10546E-05	0	0	0	
0.122833	0.00127367	-0.000621222	0.000109075	1.90298E-05	0	0	0	
0.123	-0.000904983	-0.00057109	7.90124E-05	1.49367E-05	0	0	0	
0.123167	0.0040403	0.00139716	9.64236E-05	1.66622E-05	0	0	0	
0.123333	-0.00718361	-0.00152632	0.000157467	2.05711E-05	0	0	0	
0.1235	0.00888954	2.13872E-05	0.000204882	2.34641E-05	0	0	0	
0.123667	-0.0047577	0.000872706	0.000196469	2.10322E-05	0	0	0	
0.123833	0.000576863	7.16502E-05	0.000143454	1.50362E-05	0	0	0	
0.124	0.00129941	-2.78795E-05	0.000108058	1.03549E-05	0	0	0	
0.124167	-0.00183922	0.00113655	9.84286E-05	9.91424E-06	0	0	0	
0.124333	-0.00102236	-0.00050938	0.00012281	1.55265E-05	0	0	0	
0.1245	0.00499118	0.000280102	0.000146954	1.69317E-05	0	0	0	
0.124667	-0.00738381	0.00127282	0.000158429	1.91604E-05	0	0	0	
0.124833	0.00325476	-0.000225927	0.000146307	1.46233E-05	0	0	0	
0.125	-0.00148951	-0.000681928	0.00012047	2.14701E-05	0	0	0	
0.125167	0.00576469	0.00199528	0.000105648	2.45783E-05	0	0	0	
0.125333	-0.00991222	-0.00232886	0.000115212	3.55161E-05	0	0	0	
0.1255	0.00498821	0.000461716	0.000138949	4.38828E-05	0	0	0	
0.125667	-0.0045246	0.00125894	0.000131231	4.57895E-05	0	0	0	
0.125833	0.0028975	-0.00064841	0.000119163	3.6661E-05	0	0	0	
0.126	-0.00656276	-0.000478797	9.73221E-05	3.04805E-05	0	0	0	
0.126167	0.00508103	0.0012695	9.99788E-05	3.06799E-05	0	0	0	
0.126333	-0.00644844	-0.00144166	0.000111227	2.97835E-05	0	0	0	
0.1265	0.00659412	0.00186793	0.000138108	3.19577E-05	0	0	0	
0.126667	-0.00630389	-0.000416538	0.000143658	2.97781E-05	0	0	0	
0.126833	5.57768E-05	-0.000153286	0.000129269	2.53929E-05	0	0	0	
0.127	-0.00545702	0.000422244	9.49533E-05	1.38558E-05	0	0	0	
0.127167	0.00596075	-0.000220045	0.000105549	1.123E-05	0	0	0	
0.127333	-0.00628711	-0.000621771	0.00010614	1.55126E-05	0	0	0	
0.1275	0.00125579	0.0012108	0.000106226	1.91828E-05	0	0	0	
0.127667	-0.000276428	-0.00102189	6.6711E-05	2.48452E-05	0	0	0	
0.127833	0.000743508	-0.000257679	4.79637E-05	2.97432E-05	0	0	0	
0.128	-0.00256929	-2.89766E-05	4.04686E-05	2.85367E-05	0	0	0	
0.128167	0.00326523	-3.93583E-05	5.33503E-05	1.87787E-05	0	0	0	
0.128333	-0.00411305	0.000610323	7.0828E-05	1.25445E-05	0	0	0	
0.1285	0.0036153	0.000747103	9.26407E-05	1.40262E-05	0	0	0	
0.128667	-0.00421873	-0.00162211	8.89477E-05	1.81298E-05	0	0	0	
0.128833	0.000534378	0.00112261	0.000117196	2.65425E-05	0	0	0	
0.129	0.0096765	0.000153328	0.000220711	3.19195E-05	0	0	0	
0.129167	-0.0151213	-0.00050036	0.000311889	2.6509E-05	0	0	0	
0.129333	-0.0020028	-5.93948E-05	0.000301039	2.19418E-05	0	0	0	
0.1295	0.0164735	0.0010611	0.000213848	1.45529E-05	0	0	0	
0.129667	-0.00820443	-0.00109062	0.00022274	1.9551E-05	0	0	0	
0.129833	-0.00679422	0.000982812	0.000275947	2.01324E-05	0	0	0	
0.13	-0.00634434	3.0062E-05	0.000281574	2.22391E-05	0	0	0	
0.130167	0.0213675	-0.00109212	0.000262192	2.12703E-05	0	0	0	
0.130333	-0.0171815	0.000110142	0.000296173	2.96779E-05	0	0	0	
0.1305	0.00570172	0.00186022	0.000361133	3.80014E-05	0	0	0	
0.130667	-0.00939269	-0.00198641	0.000322723	4.77225E-05	0	0	0	
0.130833	0.0065211	0.000522669	0.000244877	3.88224E-05	0	0	0	
0.131	0.0118303	0.00169063	0.000167248	3.04819E-05	0	0	0	
0.131167	-0.0142668	-0.002338	0.000183615	2.61192E-05	0	0	0	
0.131333	-0.0021018	0.00107876	0.000266847	3.8321E-05	0	0	0	
0.1315	0.0182404	0.00182498	0.000353557	5.58034E-05	0	0	0	
0.131667	-0.0170217	-0.00214316	0.000379507	5.92878E-05	0	0	0	
0.131833	0.0017408	-0.000947468	0.000367875	4.73751E-05	0	0	0	
0.132	0.00394597	0.00198085	0.000305213	3.69565E-05	0	0	0	
0.132167	0.00638454	-0.00125207	0.000247426	3.31017E-05	0	0	0	
0.132333	-0.0145057	0.00042028	0.000193811	3.51982E-05	0	0	0	
0.1325	0.0116588	0.000466972	0.000205774	3.79242E-05	0	0	0	
0.132667	-0.00479652	-0.00152503	0.000213004	3.81999E-05	0	0	0	
0.132833	0.00340118	0.000127134	0.000176678	3.45525E-05	0	0	0	
0.133	-0.00727386	0.000606948	0.000142032	2.35706E-05	0	0	0	
0.133167	0.00502773	0.000631201	0.000147119	1.73033E-05	0	0	0	
0.133333	-0.00109946	-0.000321183	0.000153372	1.47871E-05	0	0	0	
0.1335	0.00469057	-0.000633736	0.000153187	1.05529E-05	0	0	0	
0.133667	-0.00363478	-0.00012314	0.0001425	9.17948E-06	0	0	0	
0.133833	0.00437962	0.000764971	0.000121817	9.37519E-06	0	0	0	
0.134	-0.00445591	0.000257799	0.000107743	1.00195E-05	0	0	0	
0.134167	0.0114148	-0.000699062	0.000118335	1.07452E-05	0	0	0	
0.134333	-0.00935814	0.000402296	0.000153324	1.04553E-05	0	0	0	
0.1345	0.0142264	-0.00024159	0.000193987	1.30611E-05	0	0	0	
0.134667	-0.0226158	0.000144792	0.000265252	1.13093E-05	0	0	0	
0.134833	0.0310132	0.00125184	0.000374491	1.96069E-05	0	0	0	
0.135	-0.021283	-0.00249571	0.000465414	3.41188E-05	0	0	0	
0.135167	0.00522436	0.00168036	0.0004495	4.57927E-05	0	0	0	
0.135333	0.00155659	-0.000735244	0.000304571	4.87148E-05	0	0	0	
0.1355	0.00465677	-8.38355E-05	0.00021926	5.34252E-05	0	0	0	
0.135667	-0.0122368	0.00210371	0.000232571	5.83413E-05	0	0	0	
0.135833	0.0183266	-0.00141099	0.000357691	5.23241E-05	0	0	0	
0.136	-0.0171424	-0.000408122	0.000439315	5.27045E-05	0	0	0	
0.136167	0.0149575	0.00215699	0.000428597	6.34544E-05	0	0	0	
0.136333	-0.00595492	-0.00235582	0.000337138	6.83138E-05	0	0	0	
0.1365	-0.00106508	0.00121824	0.000225251	5.84433E-05	0	0	0	
0.136667	0.00431758	0.000587946	0.000131044	4.52648E-05	0	0	0	
0.136833	0.00199268	-0.000701209	0.000101354	3.82326E-05	0	0	0	
0.137	0.0102356	-9.06022E-05	0.00014717	3.15497E-05	0	0	0	
0.137167	-0.0239187	0.000394986	0.00022112	3.22133E-05	0	0	0	
0.137333	0.00490949	-0.000202823	0.000497039	3.61425E-05	0	0	0	
0.1375	0.0354741	-0.000576612	0.000975673	2.96924E-05	0	0	0	
0.137667	-0.0500441	0.000762225	0.00134037	1.83083E-05	0	0	0	
0.137833	0.0324376	-0.000790472	0.00130784	1.17792E-05	0	0	0	
0.138	-0.0169142	-0.000227143	0.000915623	1.57697E-05	0	0	0	
0.138167	0.0182098	0.000488131	0.000620024	1.55141E-05	0	0	0	
0.138333	-0.00777389	0.000107452	0.000545425	1.35317E-05	0	0	0	
0.1385	-0.00514278	-0.000335269	0.000657727	8.96227E-06	0	0	0	
0.138667	0.000887091	8.1091E-06	0.000872016	6.72954E-06	0	0	0	
0.138833	-0.00859588	0.000293412	0.00097243	1.06462E-05	0	0	0	
0.139	0.0244773	-0.00098527	0.000935219	1.22774E-05	0	0	0	
0.139167	-0.0231331	0.000368113	0.000879943	1.50955E-05	0	0	0	
0.139333	0.0186018	-0.000679641	0.000933535	1.16026E-05	0	0	0	
0.1395	-0.0166309	0.000181962	0.000998073	1.69755E-05	0	0	0	
0.139667	0.00231911	-0.000368591	0.00103578	2.77059E-05	0	0	0	
0.139833	0.0216374	0.00301804	0.00103065	5.34163E-05	0	0	0	
0.14	-0.0160159	-0.0051002	0.000783928	7.00829E-05	0	0	0	
0.140167	-0.0302281	0.0019103	0.000833187	9.0044E-05	0	0	0	
0.140333	0.061378	0.00384219	0.000859633	0.000127998	0	0	0	
0.1405	-0.0372664	-0.0066787	0.00108262	0.000139669	0	0	0	
0.140667	0.000459923	0.00493037	0.000878557	0.00015109	0	0	0	
0.140833	0.00518633	0.00144644	0.000516954	0.000146651	0	0	0	
0.141	-0.0106862	-0.00518819	0.000304853	0.000154218	0	0	0	
0.141167	0.0263197	0.00588267	0.000242163	0.000136728	0	0	0	
0.141333	-0.0171982	-0.00369912	0.000462958	0.000114333	0	0	0	
0.1415	-0.0152776	-0.00120593	0.00067566	0.000111703	0	0	0	
0.141667	0.0188595	0.00553961	0.000672265	0.000103651	0	0	0	
0.141833	0.00750057	-0.00425689	0.000563089	9.94938E-05	0	0	0	
0.142	-0.0255671	-0.00079689	0.000410234	8.71505E-05	0	0	0	
0.142167	0.0313909	0.00233534	0.000443485	8.17928E-05	0	0	0	
0.142333	-0.0178747	-0.000179318	0.000473098	6.13256E-05	0	0	0	
0.1425	0.000866082	-0.00235695	0.000423359	5.67808E-05	0	0	0	
0.142667	0.00957171	0.00205303	0.000278351	5.50929E-05	0	0	0	
0.142833	-0.00386609	-0.000977802	0.000277911	5.05734E-05	0	0	0	
0.143	0.00114979	0.000117148	0.000261677	3.01521E-05	0	0	0	
0.143167	-0.0256422	0.000300014	0.000325248	1.67892E-05	0	0	0	
0.143333	0.0317804	-0.000232657	0.000349338	1.03244E-05	0	0	0	
0.1435	-0.00777659	-0.000504743	0.000579287	1.21015E-05	0	0	0	
0.143667	-0.00817462	-0.000240389	0.00067764	1.30487E-05	0	0	0	
0.143833	-0.0104894	0.000700275	0.000576012	1.63134E-05	0	0	0	
0.144	0.01805	-0.000150239	0.000420104	1.39157E-05	0	0	0	
0.144167	-0.0157493	-0.000422364	0.000359666	1.55962E-05	0	0	0	
0.144333	0.0199352	0.00100298	0.000460502	1.10417E-05	0	0	0	
0.1445	-0.0335589	-0.00104243	0.000525075	1.58947E-05	0	0	0	
0.144667	0.0241802	-0.000366906	0.0005869	1.54669E-05	0	0	0	
0.144833	-0.0102928	-0.000109984	0.00051944	1.70773E-05	0	0	0	
0.145	0.00116216	0.00115816	0.000343208	1.84804E-05	0	0	0	
0.145167	-0.00335904	-0.00243718	0.000178824	2.59676E-05	0	0	0	
0.145333	-0.00465759	0.00159812	8.74782E-05	3.61599E-05	0	0	0	
0.1455	0.0169217	0.00023182	0.000105057	4.27046E-05	0	0	0	
0.145667	-0.0188388	-0.00188268	0.000208183	3.72474E-05	0	0	0	
0.145833	0.0015643	0.00102309	0.000344943	3.73152E-05	0	0	0	
0.146	0.00830652	-0.000512749	0.000327268	3.26766E-05	0	0	0	
0.146167	0.00463079	3.31649E-05	0.000407179	3.02601E-05	0	0	0	
0.146333	-0.022545	0.000419433	0.00051664	1.85717E-05	0	0	0	
0.1465	0.0124815	-0.000367448	0.000610958	1.16905E-05	0	0	0	
0.146667	-0.000618756	-0.00148144	0.000437335	1.457E-05	0	0	0	
0.146833	0.00255071	0.00122625	0.000216954	1.97305E-05	0	0	0	
0.147	0.0022699	0.000325619	0.000101591	1.99626E-05	0	0	0	
0.147167	-0.0186462	-0.00114179	0.000131458	1.76327E-05	0	0	0	
0.147333	0.0228487	4.45257E-05	0.000226889	1.7888E-05	0	0	0	
0.1475	-0.00587438	0.00189485	0.000354906	2.05664E-05	0	0	0	
0.147667	-0.00363034	-0.0025737	0.000338988	3.06895E-05	0	0	0	
0.147833	-0.00807184	0.000655844	0.000310089	3.32913E-05	0	0	0	
0.148	0.0182077	0.000559844	0.000247556	3.28453E-05	0	0	0	
0.148167	-0.00567714	-5.02355E-05	0.0002997	2.16725E-05	0	0	0	
0.148333	-0.00679135	-0.00107785	0.000262543	1.90045E-05	0	0	0	
0.1485	-0.0037712	0.00246146	0.000268318	2.27788E-05	0	0	0	
0.148667	0.0187674	-0.00177564	0.000312582	3.44163E-05	0	0	0	
0.148833	-0.0148353	-0.000482305	0.000346208	4.04555E-05	0	0	0	
0.149	0.00881103	0.00187082	0.000328483	3.69077E-05	0	0	0	
0.149167	-0.0107063	-4.90509E-05	0.000248682	3.01137E-05	0	0	0	
0.149333	0.00709253	-0.000632841	0.000213516	2.64705E-05	0	0	0	
0.1495	-0.00286413	0.00110503	0.000194596	2.80969E-05	0	0	0	
0.149667	-0.00131678	-0.00110238	0.000216148	2.64692E-05	0	0	0	
0.149833	-0.00454251	0.000160146	0.000277642	2.21173E-05	0	0	0	
0.15	0.0099414	0.00203812	0.000326433	2.12717E-05	0	0	0	
0.150167	-0.00768934	-0.0010519	0.00027217	2.46945E-05	0	0	0	
0.150333	-0.00500802	-0.00122469	0.000228031	2.75521E-05	0	0	0	
0.1505	0.0118692	0.00253667	0.000210531	3.5272E-05	0	0	0	
0.150667	-0.00957303	-0.000789803	0.000232697	3.58752E-05	0	0	0	
0.150833	-0.000233652	0.000152652	0.000207035	3.66356E-05	0	0	0	
0.151	0.00932107	0.00244224	0.000197017	3.81156E-05	0	0	0	
0.151167	-0.0145376	-0.00381565	0.000228083	5.05438E-05	0	0	0	
0.151333	0.0175818	0.00380233	0.000268297	6.59347E-05	0	0	0	
0.1515	-0.0145433	-0.00175134	0.000293305	6.41681E-05	0	0	0	
0.151667	0.0065375	0.00201129	0.000327789	5.67256E-05	0	0	0	
0.151833	0.00853276	-0.00011075	0.00035385	5.011E-05	0	0	0	
0.152	-0.015115	-0.00174506	0.000334439	4.84236E-05	0	0	0	
0.152167	0.0111332	0.00130691	0.00031111	4.40288E-05	0	0	0	
0.152333	0.00230667	0.00200845	0.000315501	5.09909E-05	0	0	0	
0.1525	-0.00751888	-0.00181134	0.000290603	6.2167E-05	0	0	0	
0.152667	0.00468702	0.00116542	0.000233503	6.14908E-05	0	0	0	
0.152833	-0.00421907	-0.00136151	0.000127798	4.34126E-05	0	0	0	
0.153	0.0117433	0.000109579	0.000120854	2.36835E-05	0	0	0	
0.153167	-0.00666177	0.00223489	0.00016536	2.76841E-05	0	0	0	
0.153333	-0.00108406	-0.00325657	0.000283087	3.93872E-05	0	0	0	
0.1535	0.00614021	0.00207257	0.000361776	4.84431E-05	0	0	0	
0.153667	-0.00553835	-0.000411302	0.000356342	4.95422E-05	0	0	0	
0.153833	0.00237251	-0.000270167	0.000236463	4.08732E-05	0	0	0	
0.154	0.0109829	0.000903998	0.000147348	2.8281E-05	0	0	0	
0.154167	-0.0223674	-0.00118424	0.000158598	2.36309E-05	0	0	0	
0.154333	0.0249079	-0.000589048	0.000356981	3.55561E-05	0	0	0	
0.1545	-0.0252674	0.00192553	0.000630141	6.55191E-05	0	0	0	
0.154667	0.00219161	-0.0017525	0.000805583	7.85613E-05	0	0	0	
0.154833	-0.0104899	0.00144447	0.000727808	6.31165E-05	0	0	0	
0.155	0.0151727	0.000103323	0.00051514	4.0815E-05	0	0	0	
0.155167	-0.0215506	-0.00119136	0.000368861	2.38883E-05	0	0	0	
0.155333	0.023936	-0.000719865	0.000365903	2.07944E-05	0	0	0	
0.1555	-0.00076909	0.00140406	0.000457627	2.25684E-05	0	0	0	
0.155667	-0.000190607	-0.00153692	0.000506116	2.26517E-05	0	0	0	
0.155833	-0.018029	0.00027121	0.000468795	3.48055E-05	0	0	0	
0.156	0.0507177	0.00118604	0.000530701	3.24448E-05	0	0	0	
0.156167	-0.0393549	-0.00016744	0.000641853	3.217E-05	0	0	0	
0.156333	0.00804569	-0.00188678	0.000820959	2.92834E-05	0	0	0	
0.1565	-0.00944199	0.00277575	0.000654626	3.72843E-05	0	0	0	
0.156667	0.0345695	-0.00302558	0.000508356	4.74694E-05	0	0	0	
0.156833	-0.0351801	0.00246435	0.00051086	5.42075E-05	0	0	0	
0.157	0.00191416	0.000263609	0.000740779	4.56972E-05	0	0	0	
0.157167	0.0010305	-0.00218122	0.000774379	3.66516E-05	0	0	0	
0.157333	0.000563484	0.00139617	0.000517017	2.99586E-05	0	0	0	
0.1575	-3.12675E-05	0.000559317	0.000263683	4.06798E-05	0	0	0	
0.157667	0.00877765	-0.00180616	0.000409878	4.68159E-05	0	0	0	
0.157833	-0.0492622	0.000724996	0.000903056	4.20253E-05	0	0	0	
0.158	0.0505679	0.000796107	0.00125695	2.60793E-05	0	0	0	
0.158167	-0.0217727	-0.000154588	0.00116217	2.34396E-05	0	0	0	
0.158333	-0.0167395	-0.000668829	0.000839602	2.60215E-05	0	0	0	
0.1585	0.0211063	0.000277819	0.000528514	2.85674E-05	0	0	0	
0.158667	-0.0177204	-0.000166613	0.000490557	2.03019E-05	0	0	0	
0.158833	0.018654	3.34892E-06	0.000522768	1.28558E-05	0	0	0	
0.159	-0.0147256	0.00153378	0.000646133	1.3338E-05	0	0	0	
0.159167	0.00814937	-0.0018134	0.000577015	2.13341E-05	0	0	0	
0.159333	-0.0242231	0.00176706	0.000502816	2.9615E-05	0	0	0	
0.1595	0.0298837	-0.00100429	0.000432344	3.24662E-05	0	0	0	
0.159667	-0.0150292	0.00117441	0.000473395	3.10632E-05	0	0	0	
0.159833	0.00894097	-0.000390187	0.00041797	2.9526E-05	0	0	0	
0.16	-0.0143537	-0.000196384	0.00035126	3.42682E-05	0	0	0	
0.160167	0.0084602	0.00136452	0.000307177	4.0198E-05	0	0	0	
0.160333	0.00425132	-0.00310716	0.0002664	4.56495E-05	0	0	0	
0.1605	0.00331447	0.0036526	0.000207872	5.06075E-05	0	0	0	
0.160667	-0.00160874	-0.00095922	0.000126408	5.40146E-05	0	0	0	
0.160833	-0.00144303	-0.001991	6.96755E-05	5.63281E-05	0	0	0	
0.161	-0.0192167	0.00190483	0.000168112	4.88333E-05	0	0	0	
0.161167	0.0524208	0.00152292	0.000393961	6.80613E-05	0	0	0	
0.161333	-0.0506556	-0.00528222	0.000710522	9.29587E-05	0	0	0	
0.1615	0.0164629	0.00542807	0.000886532	0.000115497	0	0	0	
0.161667	-0.000197335	-0.00217246	0.000818281	0.000104428	0	0	0	
0.161833	-0.00192839	-0.0013579	0.000551247	9.50588E-05	0	0	0	
0.162	0.020822	0.0032363	0.000339377	7.89732E-05	0	0	0	
0.162167	-0.0339248	-0.00153866	0.000310162	6.84998E-05	0	0	0	
0.162333	0.000400212	-0.00146768	0.000622645	6.42914E-05	0	0	0	
0.1625	0.0415901	0.00381498	0.000924073	7.15324E-05	0	0	0	
0.162667	-0.0377129	-0.00474609	0.000992037	7.9894E-05	0	0	0	
0.162833	0.00861309	0.00289144	0.000837495	7.89323E-05	0	0	0	
0.163	0.0106322	0.000221449	0.000617561	7.2977E-05	0	0	0	
0.163167	-0.0203011	-0.00220208	0.000567209	6.35559E-05	0	0	0	
0.163333	0.0320306	0.00215046	0.000558533	4.77681E-05	0	0	0	
0.1635	-0.0258151	-0.00181929	0.000565231	4.25932E-05	0	0	0	
0.163667	0.00673641	0.0010775	0.000485937	3.83313E-05	0	0	0	
0.163833	0.0026252	-0.00130776	0.000313456	3.28962E-05	0	0	0	
0.164	0.000873286	0.000715637	0.000149877	3.69851E-05	0	0	0	
0.164167	0.000674377	0.00167956	7.73338E-05	4.91687E-05	0	0	0	
0.164333	-0.0272504	-0.00259647	0.000213825	5.28533E-05	0	0	0	
0.1645	0.0621173	-0.000319042	0.0004234	5.93232E-05	0	0	0	
0.164667	-0.0700361	0.00312132	0.0010113	6.63185E-05	0	0	0	
0.164833	0.015253	-0.00232683	0.00169269	7.35373E-05	0	0	0	
0.165	0.00530862	0.0010122	0.00201878	6.47785E-05	0	0	0	
0.165167	0.0242373	-0.000612405	0.00155583	5.70703E-05	0	0	0	
0.165333	-0.0457617	0.000543127	0.000959742	5.65279E-05	0	0	0	
0.1655	0.0493639	-0.000421752	0.000728088	5.45104E-05	0	0	0	
0.165667	-0.0864095	-0.000988615	0.00103508	4.79473E-05	0	0	0	
0.165833	0.109163	0.00178771	0.00144741	5.00815E-05	0	0	0	
0.166	-0.0778582	-0.0015751	0.00169133	5.35157E-05	0	0	0	
0.166167	0.0341503	0.000744555	0.00160888	4.59049E-05	0	0	0	
0.166333	-0.0188527	0.000961621	0.00117297	3.08057E-05	0	0	0	
0.1665	0.0240163	-0.000726649	0.000897708	2.35872E-05	0	0	0	
0.166667	-0.0142917	0.000779508	0.00071896	1.79061E-05	0	0	0	
0.166833	-0.0136495	-0.00136328	0.000540651	2.36821E-05	0	0	0	
0.167	0.0329895	0.000408386	0.000395956	2.69976E-05	0	0	0	
0.167167	-0.024907	8.92163E-05	0.000400373	3.68174E-05	0	0	0	
0.167333	0.0048018	-0.000531922	0.000486109	3.06783E-05	0	0	0	
0.1675	0.000433021	7.10666E-06	0.000366887	2.0287E-05	0	0	0	
0.167667	0.0114846	-0.000132145	0.000272544	1.06606E-05	0	0	0	
0.167833	-0.00861188	0.00066423	0.000191184	1.63903E-05	0	0	0	
0.168	-0.00525598	-0.0014821	0.00026183	1.88028E-05	0	0	0	
0.168167	0.00450764	-0.000668172	0.000179698	2.58116E-05	0	0	0	
0.168333	0.0128317	0.0022103	0.000238541	2.67492E-05	0	0	0	
0.1685	-0.0133165	-0.00203295	0.000219337	3.47259E-05	0	0	0	
0.168667	-0.00377721	0.0005462	0.000296137	3.54142E-05	0	0	0	
0.168833	0.00937614	0.000820329	0.000215564	3.30264E-05	0	0	0	
0.169	-0.000502486	-0.00115576	0.000232457	2.48173E-05	0	0	0	
0.169167	0.00155097	-0.000222675	0.000202042	1.90061E-05	0	0	0	
0.169333	-0.00769364	0.00195887	0.000215399	1.87697E-05	0	0	0	
0.1695	0.00594293	-0.00204817	0.000193182	2.73294E-05	0	0	0	
0.169667	0.00674051	0.00115342	0.000257671	3.21155E-05	0	0	0	
0.169833	-0.032119	-0.000531336	0.000340861	3.14844E-05	0	0	0	
0.17	0.0124639	-0.000574277	0.000550936	2.73916E-05	0	0	0	
0.170167	0.0849613	0.000862746	0.00141605	2.27491E-05	0	0	0	
0.170333	-0.147025	0.000468324	0.00256111	1.80334E-05	0	0	0	
0.1705	0.113665	0.00047095	0.00316534	1.08879E-05	0	0	0	
0.170667	-0.02193	-0.00095848	0.0026062	1.50056E-05	0	0	0	
0.170833	-0.0194037	0.000153507	0.00158168	1.7928E-05	0	0	0	
0.171	0.039244	0.000130726	0.0010686	1.85606E-05	0	0	0	
0.171167	-0.081523	-0.000347453	0.00109533	1.06156E-05	0	0	0	
0.171333	0.111126	0.000657112	0.00174823	1.16123E-05	0	0	0	
0.1715	-0.0510745	0.000180837	0.00251948	2.12418E-05	0	0	0	
0.171667	0.00790021	-5.75409E-05	0.00286697	3.95041E-05	0	0	0	
0.171833	-0.0369427	4.02516E-05	0.0022454	4.57983E-05	0	0	0	
0.172	0.0702759	-0.000195662	0.00146747	3.40719E-05	0	0	0	
0.172167	-0.0523736	-0.000677447	0.00105222	1.74632E-05	0	0	0	
0.172333	0.00175294	0.000832793	0.000960139	1.71955E-05	0	0	0	
0.1725	0.0233761	-0.00040275	0.000705565	2.96297E-05	0	0	0	
0.172667	-0.0110799	0.000520979	0.000627496	3.29745E-05	0	0	0	
0.172833	0.000252912	-0.000870858	0.00072733	2.83422E-05	0	0	0	
0.173	-0.00541762	0.000518253	0.000703092	1.87668E-05	0	0	0	
0.173167	0.0191252	-0.00106078	0.000466437	2.32465E-05	0	0	0	
0.173333	-0.0240266	-4.45063E-05	0.000313313	3.63292E-05	0	0	0	
0.1735	0.00996518	0.00129377	0.000370589	5.35224E-05	0	0	0	
0.173667	0.00632054	-0.00115742	0.000417884	5.27223E-05	0	0	0	
0.173833	-0.00674958	0.000118844	0.000318438	3.83482E-05	0	0	0	
0.174	-0.000183916	0.000227954	0.000224129	2.55013E-05	0	0	0	
0.174167	0.000281335	-0.00219378	0.000113174	2.4355E-05	0	0	0	
0.174333	-0.00272409	0.00149048	9.24357E-05	3.22734E-05	0	0	0	
0.1745	0.00534529	0.000166617	6.85575E-05	4.37203E-05	0	0	0	
0.174667	-0.0127628	-0.00117385	0.000101501	5.59607E-05	0	0	0	
0.174833	0.0133118	0.000379131	0.000171675	4.91607E-05	0	0	0	
0.175	-0.00730287	0.000641179	0.0002259	3.72417E-05	0	0	0	
0.175167	0.00341729	-0.00133297	0.000214927	2.36574E-05	0	0	0	
0.175333	-0.00568953	0.000638052	0.000175319	2.21271E-05	0	0	0	
0.1755	0.00367951	-0.000479906	0.00014786	2.01682E-05	0	0	0	
0.175667	0.00353115	0.000755429	0.00013198	1.74711E-05	0	0	0	
0.175833	-0.00742603	-0.00104774	0.000117984	2.08526E-05	0	0	0	
0.176	0.00806684	-0.000179209	0.000124838	2.78729E-05	0	0	0	
0.176167	-0.00259742	0.000757088	0.000180311	3.32406E-05	0	0	0	
0.176333	-0.00212968	-0.000738369	0.000228003	2.87232E-05	0	0	0	
0.1765	0.00274833	-0.00016806	0.000204998	2.22099E-05	0	0	0	
0.176667	0.000552733	0.000727783	0.000131167	1.81188E-05	0	0	0	
0.176833	-0.0019785	-0.000873446	5.95552E-05	1.68703E-05	0	0	0	
0.177	-0.00339428	0.000558905	5.67328E-05	2.05166E-05	0	0	0	
0.177167	0.00624436	-0.000227558	6.95035E-05	2.61899E-05	0	0	0	
0.177333	0.00763917	-0.000433602	0.00022856	3.09879E-05	0	0	0	
0.1775	-0.0263333	0.000363853	0.000451126	2.58489E-05	0	0	0	
0.177667	0.0168636	-0.000320172	0.000637888	1.52804E-05	0	0	0	
0.177833	0.00843489	0.000251168	0.000554207	8.53428E-06	0	0	0	
0.178	-0.0165967	0.00038021	0.000454781	8.40817E-06	0	0	0	
0.178167	0.0106101	-0.000293112	0.000445942	1.28457E-05	0	0	0	
0.178333	-0.0179754	0.000115701	0.000497061	1.58027E-05	0	0	0	
0.1785	0.0304856	0.000336712	0.000508102	1.69579E-05	0	0	0	
0.178667	-0.0250208	-0.000297709	0.000519021	1.76576E-05	0	0	0	
0.178833	0.019955	0.00155706	0.000586177	1.86392E-05	0	0	0	
0.179	-0.0233262	-0.00107895	0.000562291	2.21521E-05	0	0	0	
0.179167	0.027122	0.000172472	0.000526701	1.86322E-05	0	0	0	
0.179333	-0.0185292	0.000592512	0.000476312	1.50382E-05	0	0	0	
0.1795	0.00170886	-0.000816542	0.000410135	1.75965E-05	0	0	0	
0.179667	0.00477576	0.000411409	0.000320057	3.11531E-05	0	0	0	
0.179833	-0.00379441	0.000898841	0.000278311	3.71119E-05	0	0	0	
0.18	0.00515969	-0.00106854	0.000266263	3.29328E-05	0	0	0	
0.180167	-0.00906679	-0.000179791	0.00023575	2.17824E-05	0	0	0	
0.180333	0.0117975	0.00210892	0.000192216	2.05852E-05	0	0	0	
0.1805	-0.00714326	-0.00257074	0.000186182	2.7762E-05	0	0	0	
0.180667	-0.00188894	0.00213831	0.000211183	3.75896E-05	0	0	0	
0.180833	0.00881598	-0.00075809	0.000201707	4.21497E-05	0	0	0	
0.181	-0.013393	-0.00269035	0.000220974	4.89533E-05	0	0	0	
0.181167	0.023431	0.00428344	0.000292513	5.74514E-05	0	0	0	
0.181333	-0.0232934	-0.00193867	0.000392591	7.34625E-05	0	0	0	
0.1815	-0.00339983	-0.00193811	0.000409377	0.000105417	0	0	0	
0.181667	0.0223152	0.00476009	0.000367329	0.000124511	0	0	0	
0.181833	-0.00529669	-0.00263141	0.000331589	0.000118502	0	0	0	
0.182	-0.0200421	-0.0016501	0.000410996	8.94494E-05	0	0	0	
0.182167	0.0161667	0.00473006	0.000416451	8.12563E-05	0	0	0	
0.182333	1.96967E-06	-0.00598157	0.00034708	9.17411E-05	0	0	0	
0.1825	0.00251585	0.00550485	0.000224783	0.000103957	0	0	0	
0.182667	-0.0121466	-0.0029773	0.000183376	0.000120349	0	0	0	
0.182833	0.0160617	0.000296132	0.000244575	0.000148173	0	0	0	
0.183	-0.0173551	0.00221525	0.000358865	0.000150824	0	0	0	
0.183167	0.0150299	-0.0035554	0.000462222	0.000118314	0	0	0	
0.183333	0.014082	0.000836493	0.000404413	0.000101417	0	0	0	
0.1835	-0.0385992	0.00283908	0.000405409	9.21276E-05	0	0	0	
0.183667	0.0343124	-0.0039252	0.000474149	9.33722E-05	0	0	0	
0.183833	-0.0112611	0.00269719	0.000622287	7.3456E-05	0	0	0	
0.184	0.00724375	-0.00181383	0.000565339	6.16565E-05	0	0	0	
0.184167	-0.00477248	-0.000803148	0.000381717	6.22801E-05	0	0	0	
0.184333	0.000914953	0.00471306	0.000240702	5.92659E-05	0	0	0	
0.1845	-0.00230148	-0.00490363	0.00033891	7.3248E-05	0	0	0	
0.184667	0.0086001	0.00206516	0.000560518	7.29973E-05	0	0	0	
0.184833	0.000908472	-0.000185679	0.000670398	6.71051E-05	0	0	0	
0.185	-0.0185568	-0.000845976	0.000586562	3.85686E-05	0	0	0	
0.185167	0.0164682	0.000760838	0.000463448	3.64303E-05	0	0	0	
0.185333	-0.00972569	0.000864426	0.000405037	3.73143E-05	0	0	0	
0.1855	0.013821	-0.000981115	0.000367801	4.0394E-05	0	0	0	
0.185667	-0.0265109	-0.000392616	0.000380528	2.64802E-05	0	0	0	
0.185833	0.0252893	-0.00084732	0.000455817	2.24896E-05	0	0	0	
0.186	-0.0215674	0.00375206	0.000507034	3.81812E-05	0	0	0	
0.186167	-0.00158601	-0.00416585	0.000428366	6.08058E-05	0	0	0	
0.186333	0.0239571	0.00288848	0.000343291	7.08102E-05	0	0	0	
0.1865	-0.0212618	-0.000323477	0.00033934	7.04717E-05	0	0	0	
0.186667	0.00164483	-0.00141691	0.00039668	6.48947E-05	0	0	0	
0.186833	0.0030563	0.000766604	0.000326874	5.60768E-05	0	0	0	
0.187	0.005517	0.00104504	0.00029706	4.08649E-05	0	0	0	
0.187167	-0.016931	-0.00240445	0.000260037	4.46861E-05	0	0	0	
0.187333	0.00381072	0.00377601	0.000321499	5.80014E-05	0	0	0	
0.1875	0.00414751	-0.00323798	0.000279775	7.1856E-05	0	0	0	
0.187667	-0.00265808	0.000565573	0.00031401	6.33959E-05	0	0	0	
0.187833	-0.00466071	0.00116066	0.000377279	4.5172E-05	0	0	0	
0.188	-0.00164191	0.00039604	0.000400412	3.13052E-05	0	0	0	
0.188167	0.00272667	-0.0018063	0.000300058	3.2942E-05	0	0	0	
0.188333	-0.00601625	0.00235769	0.000181482	4.4963E-05	0	0	0	
0.1885	0.0152686	-0.00243074	0.00016473	5.03476E-05	0	0	0	
0.188667	-0.0109723	0.00153933	0.000244149	4.74758E-05	0	0	0	
0.188833	-0.0417963	0.000719269	0.000592583	3.24533E-05	0	0	0	
0.189	0.0830403	-0.000633146	0.00107703	2.62007E-05	0	0	0	
0.189167	-0.0676774	0.00018865	0.001392	2.25514E-05	0	0	0	
0.189333	0.0139266	0.000660176	0.0012961	3.23932E-05	0	0	0	
0.1895	0.0254394	-0.00152659	0.000870577	3.51635E-05	0	0	0	
0.189667	-0.0367903	0.00185476	0.000647948	3.69346E-05	0	0	0	
0.189833	0.0240742	0.000554085	0.000743893	3.53406E-05	0	0	0	
0.19	-0.00700963	-0.00161641	0.00122906	3.47115E-05	0	0	0	
0.190167	-0.00447029	0.00129047	0.00165113	2.99393E-05	0	0	0	
0.190333	0.00133097	-0.000692383	0.00157437	2.62791E-05	0	0	0	
0.1905	0.0229644	9.88746E-05	0.00107469	2.95121E-05	0	0	0	
0.190667	-0.0261004	0.00130076	0.000636074	4.00816E-05	0	0	0	
0.190833	0.0133086	-0.00188918	0.000549194	5.10901E-05	0	0	0	
0.191	-0.0481611	0.00129961	0.000907868	4.94794E-05	0	0	0	
0.191167	0.00624644	9.01232E-05	0.00180581	4.13669E-05	0	0	0	
0.191333	-0.0706553	-0.00115478	0.00264568	3.28229E-05	0	0	0	
0.1915	0.0693723	0.00157478	0.00266777	3.22249E-05	0	0	0	
0.191667	0.0126955	-0.00164907	0.00186334	3.08253E-05	0	0	0	
0.191833	-0.0567117	0.00204431	0.00105953	3.23239E-05	0	0	0	
0.192	0.0410001	5.14495E-05	0.000873286	3.34336E-05	0	0	0	
0.192167	-0.0732518	-0.00183932	0.00113708	3.03204E-05	0	0	0	
0.192333	0.0597885	0.0019865	0.00174817	3.43734E-05	0	0	0	
0.1925	0.0618287	0.00211714	0.00218489	6.61308E-05	0	0	0	
0.192667	-0.0691906	-0.00645995	0.00206727	0.000115349	0	0	0	
0.192833	0.0184682	0.00795975	0.00171476	0.000141884	0	0	0	
0.193	0.000613837	-0.00373281	0.00115074	0.000143252	0	0	0	
0.193167	0.040315	-0.00347162	0.00126674	0.000136447	0	0	0	
0.193333	-0.0750879	0.00512447	0.00122802	0.000128963	0	0	0	
0.1935	0.045953	-0.00342143	0.00141958	0.000109082	0	0	0	
0.193667	-0.0112849	0.000192821	0.00108021	9.94997E-05	0	0	0	
0.193833	0.0107343	0.00436718	0.000666807	0.000116283	0	0	0	
0.194	-0.00578542	-0.00767206	0.000449719	0.000142811	0	0	0	
0.194167	-0.0104982	0.00627241	0.000587348	0.000145062	0	0	0	
0.194333	-0.0365384	-0.00340703	0.000935449	0.000126492	0	0	0	
0.1945	0.0604045	0.00061172	0.00108768	0.000111415	0	0	0	
0.194667	-0.0210812	-9.69237E-05	0.00122766	8.37558E-05	0	0	0	
0.194833	-0.0306296	0.000475303	0.00127126	6.5154E-05	0	0	0	
0.195	0.0284929	-0.000986357	0.00115114	4.65976E-05	0	0	0	
0.195167	-0.0117247	-0.0011543	0.000883361	3.74919E-05	0	0	0	
0.195333	0.0389457	0.00216134	0.000775499	3.23357E-05	0	0	0	
0.1955	-0.0283143	-0.000564101	0.000751201	4.42942E-05	0	0	0	
0.195667	0.0186578	-0.0018958	0.000986573	6.86349E-05	0	0	0	
0.195833	0.0203037	0.00158357	0.00128121	7.09221E-05	0	0	0	
0.196	-0.0151545	0.00024917	0.00159672	4.77961E-05	0	0	0	
0.196167	0.0301101	-0.0004827	0.00141064	2.56977E-05	0	0	0	
0.196333	0.00178832	0.000446245	0.000938474	2.08814E-05	0	0	0	
0.1965	-0.0436019	-0.00191361	0.000741024	2.51765E-05	0	0	0	
0.196667	0.138948	0.00313502	0.00111384	3.29951E-05	0	0	0	
0.196833	-0.14777	-0.000401254	0.00182599	4.28697E-05	0	0	0	
0.197	0.0988927	-0.00271898	0.00250489	6.658E-05	0	0	0	
0.197167	-0.0482396	0.0033281	0.00252945	8.43346E-05	0	0	0	
0.197333	0.0295784	-0.00193869	0.00193753	7.66916E-05	0	0	0	
0.1975	-0.0322541	-0.000109703	0.00116816	6.48733E-05	0	0	0	
0.197667	0.0395525	0.00323991	0.000798399	4.32382E-05	0	0	0	
0.197833	-0.102965	-0.00341853	0.00110129	5.36242E-05	0	0	0	
0.198	0.0983342	0.00479874	0.00149452	7.303E-05	0	0	0	
0.198167	-0.0477049	-0.00100536	0.00172087	0.00011729	0	0	0	
0.198333	0.0172363	-0.00470944	0.00150838	0.000157247	0	0	0	
0.1985	-0.00650211	0.00693725	0.00104852	0.000153094	0	0	0	
0.198667	-0.0490126	-0.00100291	0.000860823	0.000131131	0	0	0	
0.198833	0.117896	-0.00249292	0.000957858	7.94512E-05	0	0	0	
0.199	-0.0643892	-0.000441717	0.00193969	9.22681E-05	0	0	0	
0.199167	-0.106479	0.00632986	0.00289477	0.000104581	0	0	0	
0.199333	0.166827	-0.00302543	0.00316372	0.000126168	0	0	0	
0.1995	-0.0715275	-0.0021119	0.00296452	0.000105001	0	0	0	
0.199667	-0.00547413	0.00275438	0.00223527	7.2422E-05	0	0	0	
0.199833	-0.00722652	-0.000145825	0.00176154	8.05917E-05	0	0	0	
0.2	-0.0676604	-0.00329667	0.00115623	0.000108257	0	0	0	
0.200167	0.00891294	0.00681121	0.000940988	0.000162725	0	0	0	
0.200333	0.0653753	-0.00737828	0.00106894	0.000191207	0	0	0	
0.2005	-0.0452916	0.00501075	0.00107612	0.000170539	0	0	0	
0.200667	-0.0678212	-0.000101351	0.0011087	0.000137919	0	0	0	
0.200833	0.0131797	-0.00527648	0.00110731	0.000107375	0	0	0	
0.201	-0.066825	0.00496291	0.00130662	0.000101305	0	0	0	
0.201167	0.00341601	0.000345	0.00165233	0.000131606	0	0	0	
0.201333	0.0448146	-0.00450652	0.00193892	0.000157468	0	0	0	
0.2015	-0.0405186	0.00315386	0.00180716	0.000152805	0	0	0	
0.201667	-0.0316216	0.000860318	0.00129671	0.000109881	0	0	0	
0.201833	0.0579579	-0.00195759	0.000909559	5.88645E-05	0	0	0	
0.202	-0.0196541	0.00020553	0.0010444	4.36368E-05	0	0	0	
0.202167	-0.00260612	0.000516471	0.00136686	2.53155E-05	0	0	0	
0.202333	-0.01996	0.000451645	0.0012123	3.57807E-05	0	0	0	
0.2025	0.0463557	-0.000608708	0.000939171	4.52412E-05	0	0	0	
0.202667	-0.0457679	0.000431596	0.000678936	5.09763E-05	0	0	0	
0.202833	0.0494112	-0.000184809	0.000837379	4.12032E-05	0	0	0	
0.203	-0.0569542	0.000914318	0.000899544	3.72254E-05	0	0	0	
0.203167	0.054046	0.000340524	0.000995661	3.66185E-05	0	0	0	
0.203333	-0.0447719	-0.00175952	0.00104856	3.42842E-05	0	0	0	
0.2035	0.0336622	0.00187437	0.00103173	2.94724E-05	0	0	0	
0.203667	-0.00154338	-0.00247336	0.00082322	3.47936E-05	0	0	0	
0.203833	-0.0290498	0.00320694	0.000560474	4.25709E-05	0	0	0	
0.204	0.0182054	-0.00190833	0.000483042	5.7222E-05	0	0	0	
0.204167	0.0219169	0.000162146	0.000472789	6.16802E-05	0	0	0	
0.204333	-0.0161756	0.000301274	0.000520203	4.69865E-05	0	0	0	
0.2045	-0.00820418	-0.000285269	0.00064038	3.157E-05	0	0	0	
0.204667	0.0193823	0.000726071	0.000888843	1.78801E-05	0	0	0	
0.204833	-0.0273081	-0.00213322	0.00110672	2.49967E-05	0	0	0	
0.205	0.0101286	0.00168744	0.000960702	2.74913E-05	0	0	0	
0.205167	0.0280102	-0.00065979	0.000655769	3.44837E-05	0	0	0	
0.205333	-0.042481	0.00059905	0.000519322	3.46378E-05	0	0	0	
0.2055	0.0376771	0.000271764	0.000586055	3.32183E-05	0	0	0	
0.205667	-0.0259274	-0.0017181	0.000842903	3.29715E-05	0	0	0	
0.205833	0.00297151	0.000395171	0.00101891	2.86629E-05	0	0	0	
0.206	-0.00880885	0.00204141	0.00108243	3.59084E-05	0	0	0	
0.206167	0.0203301	-0.00378452	0.000927618	4.50114E-05	0	0	0	
0.206333	-0.0315964	0.00400053	0.000864663	6.40832E-05	0	0	0	
0.2065	0.0356751	-0.000937366	0.000767627	7.29711E-05	0	0	0	
0.206667	-0.00958716	-0.000395331	0.000702088	8.5615E-05	0	0	0	
0.206833	-0.00966484	0.00114036	0.000425643	8.93282E-05	0	0	0	
0.207	-0.00226945	-0.00137652	0.000332564	7.92551E-05	0	0	0	
0.207167	-0.0232392	0.00168507	0.000268653	5.43368E-05	0	0	0	
0.207333	0.0244613	-0.000347919	0.000508368	3.4513E-05	0	0	0	
0.2075	0.0114532	-0.0012044	0.000655849	2.1297E-05	0	0	0	
0.207667	0.00443009	0.00193024	0.000620045	2.43649E-05	0	0	0	
0.207833	-0.0343022	-0.00263048	0.000505499	3.27934E-05	0	0	0	
0.208	0.0214423	0.00389839	0.000491254	4.96646E-05	0	0	0	
0.208167	-0.000911371	-0.00160326	0.000581329	6.02019E-05	0	0	0	
0.208333	0.0178583	-0.00138583	0.000525127	6.07801E-05	0	0	0	
0.2085	-0.0333476	1.44851E-05	0.000443355	4.98554E-05	0	0	0	
0.208667	-0.000127442	0.000319662	0.000556529	2.93885E-05	0	0	0	
0.208833	0.0168354	0.000389357	0.000512944	1.38444E-05	0	0	0	
0.209	-0.0133537	-0.000147158	0.000554558	1.2838E-05	0	0	0	
0.209167	0.0136726	-0.000753584	0.000602161	1.90571E-05	0	0	0	
0.209333	-0.00915471	-0.00111064	0.000677188	2.54356E-05	0	0	0	
0.2095	0.00323588	0.00253006	0.000554013	3.37307E-05	0	0	0	
0.209667	0.00582879	-0.00240676	0.000497721	3.95563E-05	0	0	0	
0.209833	-0.0260918	0.000685041	0.000710913	4.85076E-05	0	0	0	
0.21	0.0373264	0.000669123	0.000970353	4.57458E-05	0	0	0	
0.210167	-0.0352045	-0.00182762	0.000901865	4.4651E-05	0	0	0	
0.210333	-0.00561956	0.0030582	0.000741302	4.07793E-05	0	0	0	
0.2105	0.0316588	-0.00258757	0.000529287	5.03752E-05	0	0	0	
0.210667	-0.0446468	0.00027426	0.000604194	6.24663E-05	0	0	0	
0.210833	0.0267665	0.000916641	0.000671405	6.20367E-05	0	0	0	
0.211	-0.0126251	-0.00125124	0.000708361	4.6932E-05	0	0	0	
0.211167	-0.00305205	-0.000282302	0.000546119	3.44734E-05	0	0	0	
0.211333	0.0287766	0.000717495	0.000371395	2.84062E-05	0	0	0	
0.2115	-0.0138402	-0.00121567	0.000315936	2.75041E-05	0	0	0	
0.211667	3.5367E-05	0.00150569	0.000366167	3.39224E-05	0	0	0	
0.211833	0.0163156	0.000348346	0.000384293	4.57548E-05	0	0	0	
0.212	-0.00444457	-0.00241337	0.000288594	4.82421E-05	0	0	0	
0.212167	-0.0110096	0.00205043	0.000302826	4.7107E-05	0	0	0	
0.212333	0.0214937	0.00149671	0.000257645	4.71354E-05	0	0	0	
0.2125	-0.00890367	-0.00372236	0.000392495	5.37377E-05	0	0	0	
0.212667	-0.0226543	0.0024369	0.000510736	7.37252E-05	0	0	0	
0.212833	0.0420368	8.73468E-05	0.000703305	9.27788E-05	0	0	0	
0.213	-0.0508099	-0.00129998	0.000861781	8.91882E-05	0	0	0	
0.213167	0.0478896	0.000583858	0.000884497	5.82267E-05	0	0	0	
0.213333	-0.0277204	0.000776179	0.00086495	2.32592E-05	0	0	0	
0.2135	-0.00555682	-0.0023051	0.000616905	2.16744E-05	0	0	0	
0.213667	0.0318389	0.00361843	0.000492282	3.46135E-05	0	0	0	
0.213833	-0.0156368	-0.00351235	0.000566464	5.86062E-05	0	0	0	
0.214	-0.0164874	0.00153135	0.000963049	7.63024E-05	0	0	0	
0.214167	0.0399188	0.00183298	0.00122329	8.03119E-05	0	0	0	
0.214333	-0.0332052	4.92754E-05	0.0011847	6.64856E-05	0	0	0	
0.2145	0.00763917	0.000342708	0.00084432	4.09065E-05	0	0	0	
0.214667	0.004987	-0.000973894	0.000458361	2.72727E-05	0	0	0	
0.214833	0.00203965	0.000837417	0.000229626	2.23277E-05	0	0	0	
0.215	-0.00737583	-0.00062426	0.000225698	2.72177E-05	0	0	0	
0.215167	0.00471366	0.000288087	0.000316322	2.17547E-05	0	0	0	
0.215333	0.00841026	-0.000522634	0.000290785	2.75162E-05	0	0	0	
0.2155	-0.00571637	-0.00025532	0.000226477	3.57294E-05	0	0	0	
0.215667	0.00830826	-0.000358798	0.000232372	4.46035E-05	0	0	0	
0.215833	0.00137333	-0.0018308	0.000333412	4.62719E-05	0	0	0	
0.216	-0.0211572	0.000424059	0.000398818	4.35916E-05	0	0	0	
0.216167	0.0201356	0.000101027	0.000407567	5.35172E-05	0	0	0	
0.216333	-0.011284	-0.00181265	0.000360239	7.08469E-05	0	0	0	
0.2165	0.000341658	0.00290083	0.000266425	8.46439E-05	0	0	0	
0.216667	0.00687219	-0.00159007	0.000156292	7.14634E-05	0	0	0	
0.216833	-0.0199423	-0.00119007	0.000146087	5.57584E-05	0	0	0	
0.217	0.0168038	0.00104625	0.000230861	4.47121E-05	0	0	0	
0.217167	-0.0158437	-8.95534E-05	0.000331144	3.6705E-05	0	0	0	
0.217333	0.00558136	-6.1022E-05	0.00039385	2.65821E-05	0	0	0	
0.2175	-0.00503954	0.00121805	0.000379694	1.78763E-05	0	0	0	
0.217667	0.00111732	-0.00154683	0.000299514	2.96529E-05	0	0	0	
0.217833	-0.00365531	0.00108418	0.000191954	3.4282E-05	0	0	0	
0.218	0.0157077	-0.00149851	0.0001449	3.39531E-05	0	0	0	
0.218167	-0.0168864	0.00252153	0.000203814	3.39811E-05	0	0	0	
0.218333	0.0141285	-0.00322503	0.000276938	4.10915E-05	0	0	0	
0.2185	-0.00558968	0.00242039	0.00028957	4.83078E-05	0	0	0	
0.218667	-0.0153561	0.000854958	0.000255859	4.76023E-05	0	0	0	
0.218833	0.0318459	-0.00301659	0.000316629	4.03068E-05	0	0	0	
0.219	-0.0153966	0.00111942	0.000426556	3.91523E-05	0	0	0	
0.219167	-0.00775442	0.00286046	0.000575636	5.02932E-05	0	0	0	
0.219333	0.0217822	-0.00402946	0.000574425	6.76224E-05	0	0	0	
0.2195	-0.0108292	0.00198874	0.00050317	7.13582E-05	0	0	0	
0.219667	-0.0234724	0.000389634	0.000570386	6.46185E-05	0	0	0	
0.219833	0.0460502	-0.00157228	0.00076194	4.9129E-05	0	0	0	
0.22	-0.0516156	0.000856603	0.000983382	4.04579E-05	0	0	0	
0.220167	0.017712	-0.000132478	0.000915666	3.01916E-05	0	0	0	
0.220333	0.0293962	0.00152057	0.000927535	2.72925E-05	0	0	0	
0.2205	-0.0410856	-0.000646095	0.00088627	2.91756E-05	0	0	0	
0.220667	0.0375682	-0.000280302	0.000920544	3.62882E-05	0	0	0	
0.220833	-0.0352519	0.00198536	0.0007591	3.86659E-05	0	0	0	
0.221	0.0265449	-0.000277009	0.000703535	3.7053E-05	0	0	0	
0.221167	0.00630794	-0.000982636	0.000617515	2.74803E-05	0	0	0	
0.221333	-0.0191289	0.000671747	0.000459247	2.08805E-05	0	0	0	
0.2215	0.00302905	-0.000424542	0.000479349	2.42974E-05	0	0	0	
0.221667	0.0270386	0.00179854	0.00050712	3.68108E-05	0	0	0	
0.221833	-0.0146511	-0.00112787	0.000549328	4.14965E-05	0	0	0	
0.222	-0.000925871	-0.000325462	0.000362321	3.9035E-05	0	0	0	
0.222167	0.000725395	0.000336303	0.00029015	3.03141E-05	0	0	0	
0.222333	0.0207573	-0.000472476	0.000396014	2.17699E-05	0	0	0	
0.2225	-0.0277676	0.000342935	0.00047575	1.69448E-05	0	0	0	
0.222667	0.0308864	-0.00049527	0.00054725	1.05265E-05	0	0	0	
0.222833	-0.0281487	0.0013251	0.00055229	1.37316E-05	0	0	0	
0.223	0.0443618	-0.00126245	0.000650096	1.79727E-05	0	0	0	
0.223167	-0.0524234	0.000212726	0.000755042	2.12452E-05	0	0	0	
0.223333	0.0140753	0.000866924	0.00077005	1.94089E-05	0	0	0	
0.2235	-0.00409036	0.000476067	0.000639123	2.52954E-05	0	0	0	
0.223667	0.0232951	-0.00118002	0.000415273	4.01441E-05	0	0	0	
0.223833	-0.0244794	0.00233101	0.000391066	4.30958E-05	0	0	0	
0.224	-0.0238386	-0.000239297	0.000598451	4.09405E-05	0	0	0	
0.224167	0.038579	-0.000438663	0.000726175	3.33318E-05	0	0	0	
0.224333	-0.000728905	0.000933798	0.000791221	2.95154E-05	0	0	0	
0.2245	-0.0378253	-0.000377055	0.000818617	2.1172E-05	0	0	0	
0.224667	0.0694093	0.00102344	0.000975497	1.43043E-05	0	0	0	
0.224833	-0.0700628	-0.000355976	0.00117393	1.96652E-05	0	0	0	
0.225	0.0693843	0.00261886	0.0012656	3.00896E-05	0	0	0	
0.225167	-0.0235101	-0.00677495	0.0013456	5.43658E-05	0	0	0	
0.225333	-0.0300512	0.00239472	0.00187859	8.96105E-05	0	0	0	
0.2255	0.131574	0.020298	0.00271935	0.000186188	0	0	0	
0.225667	-0.169153	-0.0629369	0.00367874	0.000361479	0	0	0	
0.225833	0.0015076	0.0235537	0.00342919	0.00059155	0	0	0	
0.226	0.0450631	-0.0079339	0.00237729	0.000579271	0	0	0	
0.226167	-0.0599798	-0.0042411	0.00138817	0.000479995	0	0	0	
0.226333	0.103957	0.0108302	0.00107903	0.000291585	0	0	0	
0.2265	-0.111216	-0.0097885	0.00156202	0.00025285	0	0	0	
0.226667	0.114051	-0.000974551	0.00206458	0.000245003	0	0	0	
0.226833	-0.223654	-0.00844183	0.00297051	0.000373611	0	0	0	
0.227	0.1512	0.000631095	0.00356949	0.000490783	0	0	0	
0.227167	-0.125656	0.00438658	0.00349055	0.000455764	0	0	0	
0.227333	0.0817771	-0.0053147	0.00275874	0.000274214	0	0	0	
0.2275	-0.02961	0.00623653	0.00189611	0.000126588	0	0	0	
0.227667	0.0111885	-0.0065012	0.00114726	0.000108787	0	0	0	
0.227833	-0.0186327	0.00264541	0.000807913	0.000158689	0	0	0	
0.228	0.0578106	0.00490034	0.000824049	0.000236373	0	0	0	
0.228167	-0.0755289	-0.00736448	0.00136751	0.000263341	0	0	0	
0.228333	0.0971961	0.00368585	0.00178753	0.000208015	0	0	0	
0.2285	-0.0804927	-0.000145038	0.00194621	0.000131787	0	0	0	
0.228667	0.0766949	0.000776567	0.00182218	7.41942E-05	0	0	0	
0.228833	0.00924393	0.00370708	0.0019648	9.2552E-05	0	0	0	
0.229	0.0842455	0.00235518	0.00224207	0.000151206	0	0	0	
0.229167	-0.0445433	-0.00213928	0.00252204	0.000224043	0	0	0	
0.229333	0.0542126	0.00578061	0.00206	0.000201192	0	0	0	
0.2295	-0.0208272	-0.000556341	0.00139964	0.000162825	0	0	0	
0.229667	-0.0190711	-0.00519241	0.000704672	0.000136854	0	0	0	
0.229833	0.048069	0.00698762	0.000564449	0.000140952	0	0	0	
0.23	-0.0506169	-0.00867689	0.00107134	0.000171579	0	0	0	
0.230167	0.110553	0.0130271	0.00155969	0.000208726	0	0	0	
0.230333	-0.0197977	0.00206519	0.00162317	0.000221192	0	0	0	
0.2305	-0.00284204	-0.00577816	0.000969362	0.000170205	0	0	0	
0.230667	0.00230189	0.00579879	0.000501777	0.000105656	0	0	0	
0.230833	-0.0142447	-0.000374389	0.00026621	0.000117496	0	0	0	
0.231	0.00780644	-0.00302794	0.00024965	0.000143881	0	0	0	
0.231167	-0.00562445	0.000428652	0.000283691	0.000141246	0	0	0	
0.231333	-0.010278	0.00925427	0.000483157	0.000178985	0	0	0	
0.2315	0.0392342	-0.0105974	0.000695305	0.000188024	0	0	0	
0.231667	-0.0611203	0.00931357	0.000841606	0.000216161	0	0	0	
0.231833	0.0415072	-0.00266195	0.000936625	0.000237749	0	0	0	
0.232	-0.0145844	-0.0103088	0.000853631	0.000308733	0	0	0	
0.232167	0.00977341	0.0206239	0.000817167	0.000351992	0	0	0	
0.232333	0.0132175	-0.00841478	0.000719017	0.000319593	0	0	0	
0.2325	-0.016366	0.00623246	0.000603181	0.000350022	0	0	0	
0.232667	0.018131	0.00878538	0.000539764	0.000403237	0	0	0	
0.232833	-0.00550958	-0.019954	0.000529099	0.00043299	0	0	0	
0.233	0.0245316	0.0172527	0.000694718	0.000374681	0	0	0	
0.233167	-0.0283774	-0.00309006	0.000873529	0.000332818	0	0	0	
0.233333	-0.0063604	-0.0105026	0.00113677	0.000364538	0	0	0	
0.2335	0.0307761	0.0162396	0.00124478	0.000371608	0	0	0	
0.233667	-0.0181499	-0.0140546	0.00101409	0.00034766	0	0	0	
0.233833	-0.00794285	0.00817089	0.000709755	0.000276956	0	0	0	
0.234	0.022409	-0.00373381	0.000486381	0.000221822	0	0	0	
0.234167	-0.016399	-0.000896908	0.000471585	0.000194844	0	0	0	
0.234333	-0.00799657	0.00276203	0.000382417	0.000185042	0	0	0	
0.2345	0.0216705	-0.00458986	0.000347671	0.00015492	0	0	0	
0.234667	-0.0151232	0.00219475	0.000348483	0.000112607	0	0	0	
0.234833	-0.00417182	-0.000382576	0.000362789	6.70086E-05	0	0	0	
0.235	0.00736562	0.00136111	0.000282045	4.32606E-05	0	0	0	
0.235167	-0.00414664	-0.00195695	0.000222116	3.33922E-05	0	0	0	
0.235333	0.00423258	-0.00178316	0.000133421	4.16246E-05	0	0	0	
0.2355	-0.00564683	0.00284328	0.000148573	5.78602E-05	0	0	0	
0.235667	-0.00936462	-0.00277088	0.000192553	6.14236E-05	0	0	0	
0.235833	0.0298871	0.00347149	0.000336598	5.80627E-05	0	0	0	
0.236	-0.0308966	-0.00282651	0.000527649	5.84396E-05	0	0	0	
0.236167	0.0160023	-0.0010221	0.000545871	8.61764E-05	0	0	0	
0.236333	-0.0067397	0.00396816	0.000437405	0.000106837	0	0	0	
0.2365	0.00310378	-0.00274457	0.000254696	9.84409E-05	0	0	0	
0.236667	-0.000146664	0.000316998	0.000149437	7.99759E-05	0	0	0	
0.236833	-0.00525082	-0.000156785	0.000165452	5.03288E-05	0	0	0	
0.237	-0.00577898	0.00076042	0.000350252	3.64457E-05	0	0	0	
0.237167	0.023001	0.00101313	0.000600987	2.43817E-05	0	0	0	
0.237333	-0.0298245	-0.00469365	0.000712086	3.54775E-05	0	0	0	
0.2375	0.015038	0.00426368	0.000606684	6.23851E-05	0	0	0	
0.237667	0.00304362	0.00045222	0.000403742	8.34704E-05	0	0	0	
0.237833	-0.000803225	-0.00300709	0.000271461	9.40244E-05	0	0	0	
0.238	-0.0151764	0.00261709	0.000305249	8.49611E-05	0	0	0	
0.238167	0.0132081	-0.00234931	0.000326901	6.52823E-05	0	0	0	
0.238333	-0.000265204	0.00175049	0.000309308	5.21808E-05	0	0	0	
0.2385	-0.00149455	0.000854673	0.000203259	6.61249E-05	0	0	0	
0.238667	-0.00256232	-0.00271686	0.000234971	8.44335E-05	0	0	0	
0.238833	0.000698852	0.00241293	0.000282606	7.98011E-05	0	0	0	
0.239	0.0032637	0.00136612	0.000345678	7.21815E-05	0	0	0	
0.239167	0.0039996	-0.00328056	0.000418376	5.5519E-05	0	0	0	
0.239333	-0.0170561	0.00192952	0.000493977	6.22506E-05	0	0	0	
0.2395	0.00444959	0.000578478	0.00044084	5.46323E-05	0	0	0	
0.239667	0.0227167	0.000903823	0.000328109	4.81036E-05	0	0	0	
0.239833	-0.0385634	-0.00165228	0.000348086	3.72369E-05	0	0	0	
0.24	0.0300601	0.00277166	0.000525797	3.06108E-05	0	0	0	
0.240167	-0.0133607	-0.00129809	0.000604968	3.51264E-05	0	0	0	
0.240333	0.00223755	-0.000753949	0.000469105	3.80749E-05	0	0	0	
0.2405	0.00354417	0.00062266	0.00025398	3.37162E-05	0	0	0	
0.240667	-0.00280205	-0.000133215	0.000114338	2.32522E-05	0	0	0	
0.240833	-0.00703952	0.0010467	9.42606E-05	1.60055E-05	0	0	0	
0.241	0.0184567	-0.00218463	0.000138538	1.82568E-05	0	0	0	
0.241167	-0.0141537	0.00152205	0.000229782	2.71202E-05	0	0	0	
0.241333	0.00166757	-0.000166463	0.000351634	3.27961E-05	0	0	0	
0.2415	0.00828299	-0.000775723	0.000379283	2.5515E-05	0	0	0	
0.241667	0.00142121	0.00030591	0.000319611	1.91199E-05	0	0	0	
0.241833	-0.00739408	-0.000181124	0.000230174	1.02612E-05	0	0	0	
0.242	-0.00252066	0.000137307	0.000268013	1.42083E-05	0	0	0	
0.242167	0.0211494	0.000669942	0.000398363	2.63689E-05	0	0	0	
0.242333	-0.0313555	-0.00139962	0.000450722	4.50679E-05	0	0	0	
0.2425	0.0163117	0.0023006	0.000588346	5.42757E-05	0	0	0	
0.242667	0.0109958	-0.00175165	0.000725512	4.91312E-05	0	0	0	
0.242833	-0.00824299	0.000418811	0.000769912	3.72357E-05	0	0	0	
0.243	-0.00164151	0.00022504	0.00052374	3.51514E-05	0	0	0	
0.243167	0.0034132	-0.000653122	0.000277345	3.99336E-05	0	0	0	
0.243333	-0.0329146	0.00231167	0.000359321	4.17292E-05	0	0	0	
0.2435	0.0782316	-0.00201328	0.000705056	4.52445E-05	0	0	0	
0.243667	-0.0596747	-0.00102745	0.0010577	4.76604E-05	0	0	0	
0.243833	0.000493631	0.000551191	0.0014945	4.10193E-05	0	0	0	
0.244	0.0319933	0.000445887	0.00170188	3.69355E-05	0	0	0	
0.244167	-0.0191485	0.000866437	0.00154459	2.11245E-05	0	0	0	
0.244333	-0.0018802	-0.00153081	0.000965858	2.73361E-05	0	0	0	
0.2445	0.0120003	-0.000320885	0.000470427	2.19357E-05	0	0	0	
0.244667	-0.0241263	0.000246884	0.000309694	2.48545E-05	0	0	0	
0.244833	0.041856	0.00192168	0.000400738	2.12261E-05	0	0	0	
0.245	-0.0405468	-0.00160099	0.000620208	2.93106E-05	0	0	0	
0.245167	0.0355074	-0.0012726	0.000807796	4.69012E-05	0	0	0	
0.245333	-0.0478452	0.00149331	0.000914775	5.0276E-05	0	0	0	
0.2455	0.0420268	0.000260247	0.000896404	4.50022E-05	0	0	0	
0.245667	-0.0163647	-0.0015776	0.000764502	3.62597E-05	0	0	0	
0.245833	-0.010891	0.00339538	0.000648372	4.45803E-05	0	0	0	
0.246	0.0354745	-0.00405732	0.000492824	5.49247E-05	0	0	0	
0.246167	-0.0470393	0.000895536	0.000666082	6.63285E-05	0	0	0	
0.246333	0.0417015	0.00256122	0.000921127	8.68279E-05	0	0	0	
0.2465	-0.0242461	-0.00382031	0.00121634	9.59148E-05	0	0	0	
0.246667	-0.0108359	0.00136478	0.00114552	8.93686E-05	0	0	0	
0.246833	0.0311003	-0.000666606	0.00083199	5.58898E-05	0	0	0	
0.247	-0.0101488	0.00108872	0.000569979	4.30724E-05	0	0	0	
0.247167	-0.0078925	0.00112288	0.000382872	4.43509E-05	0	0	0	
0.247333	0.00965138	-0.00355636	0.000363073	5.44359E-05	0	0	0	
0.2475	-0.00436068	0.00498027	0.000279463	6.44538E-05	0	0	0	
0.247667	0.0101168	-0.00487325	0.000319156	8.46378E-05	0	0	0	
0.247833	-0.0128304	0.00120398	0.000297608	0.000116988	0	0	0	
0.248	0.0135535	0.0037311	0.000318795	0.000125829	0	0	0	
0.248167	-0.00486644	-0.00433437	0.000440458	0.000111125	0	0	0	
0.248333	-0.00614838	0.00208359	0.000639991	8.44762E-05	0	0	0	
0.2485	0.00425914	0.000197853	0.000709782	7.03289E-05	0	0	0	
0.248667	0.00842697	-0.00156134	0.000595097	6.27871E-05	0	0	0	
0.248833	0.00702936	0.00236818	0.00058121	5.51892E-05	0	0	0	
0.249	-0.0275385	-0.00177967	0.000752708	4.48679E-05	0	0	0	
0.249167	0.0305756	-0.00016424	0.000800672	3.96179E-05	0	0	0	
0.249333	-0.00318132	0.00220967	0.000646817	3.19967E-05	0	0	0	
0.2495	-0.00558498	5.21045E-05	0.000350433	3.09767E-05	0	0	0	
0.249667	-0.00348224	-0.00195241	0.000333565	2.87032E-05	0	0	0	
0.249833	-0.0208336	0.000497176	0.000364798	2.99783E-05	0	0	0	
0.25	0.0358882	0.000583596	0.000663734	3.36148E-05	0	0	0	
0.250167	0.0326536	-0.00142073	0.00116911	2.8591E-05	0	0	0	
0.250333	-0.107052	0.0018024	0.0016733	3.32296E-05	0	0	0	
0.2505	0.0739079	-0.0027173	0.00182878	3.37122E-05	0	0	0	
0.250667	-0.000799487	0.00285301	0.0016836	3.99428E-05	0	0	0	
0.250833	-0.0419006	-0.00183359	0.00118164	5.75257E-05	0	0	0	
0.251	0.00757576	-0.000684457	0.00112938	7.39964E-05	0	0	0	
0.251167	0.0786161	0.00277915	0.00129839	8.1391E-05	0	0	0	
0.251333	-0.11399	-0.00347308	0.00203472	7.51426E-05	0	0	0	
0.2515	0.101786	0.00483631	0.00245684	6.80916E-05	0	0	0	
0.251667	-0.0884099	-0.00248241	0.00242251	7.88092E-05	0	0	0	
0.251833	0.0575742	-0.00309789	0.00200628	9.2306E-05	0	0	0	
0.252	-0.021252	0.00534353	0.00140198	9.4113E-05	0	0	0	
0.252167	0.0202397	-0.0014649	0.000909319	8.72845E-05	0	0	0	
0.252333	-0.0399462	0.000452777	0.000650192	6.57275E-05	0	0	0	
0.2525	0.025522	-0.00159587	0.000601005	4.84106E-05	0	0	0	
0.252667	-0.00858043	0.00118645	0.000527611	4.03264E-05	0	0	0	
0.252833	-0.000581077	0.000925179	0.000449503	5.26043E-05	0	0	0	
0.253	0.0154874	-0.00128936	0.000271868	6.13655E-05	0	0	0	
0.253167	-0.000506794	0.000339513	0.000343038	5.07873E-05	0	0	0	
0.253333	-0.0499386	-0.00343086	0.000506999	3.56532E-05	0	0	0	
0.2535	0.0938089	0.00439737	0.000955015	4.13352E-05	0	0	0	
0.253667	-0.0875793	-0.0026876	0.00135882	6.6313E-05	0	0	0	
0.253833	0.0586202	-0.00252433	0.00157847	0.000105318	0	0	0	
0.254	-0.0306462	0.00627772	0.00142179	0.000126648	0	0	0	
0.254167	0.024341	-0.0066167	0.00101799	0.000130368	0	0	0	
0.254333	-0.00741206	0.00122629	0.000696567	0.000126185	0	0	0	
0.2545	-0.0283094	0.00444001	0.00071924	0.000133903	0	0	0	
0.254667	0.0304595	-0.00528814	0.000739077	0.000132149	0	0	0	
0.254833	0.0201528	0.00286422	0.000796368	0.000110475	0	0	0	
0.255	-0.0422056	0.000129713	0.000623661	8.12607E-05	0	0	0	
0.255167	-2.25121E-05	-0.00393945	0.0007888	7.28549E-05	0	0	0	
0.255333	0.0469593	0.00585331	0.00090813	7.80428E-05	0	0	0	
0.2555	-0.0330725	-0.00382917	0.000955342	9.29454E-05	0	0	0	
0.255667	-0.010819	-0.00158801	0.000836735	0.000121804	0	0	0	
0.255833	0.027001	0.00316771	0.000559906	0.00012243	0	0	0	
0.256	-0.0197445	-0.000676386	0.000543276	9.53306E-05	0	0	0	
0.256167	0.0160175	-0.00191269	0.0004841	6.09159E-05	0	0	0	
0.256333	-0.0135061	0.001777	0.00050463	4.6641E-05	0	0	0	
0.2565	-0.0151085	-0.00141589	0.000553283	4.6631E-05	0	0	0	
0.256667	0.0424189	0.00219369	0.000697407	3.93124E-05	0	0	0	
0.256833	-0.0217047	-0.00327588	0.000745784	4.02507E-05	0	0	0	
0.257	-0.0182068	0.00288358	0.000740827	5.15303E-05	0	0	0	
0.257167	0.0304165	-0.00131119	0.00058331	5.41246E-05	0	0	0	
0.257333	-0.00447533	-0.00050694	0.000578502	4.07582E-05	0	0	0	
0.2575	-0.0292615	0.00135064	0.000483622	2.51125E-05	0	0	0	
0.257667	0.0334594	-0.000787481	0.000527774	1.94596E-05	0	0	0	
0.257833	-0.00898496	-0.00105028	0.000747645	2.6519E-05	0	0	0	
0.258	-0.00895805	0.000165281	0.000981925	3.25902E-05	0	0	0	
0.258167	0.0054	0.00165636	0.000983597	2.78251E-05	0	0	0	
0.258333	0.000171376	-0.00170751	0.000667662	4.03936E-05	0	0	0	
0.2585	-0.00816333	-0.00103025	0.000337055	6.1246E-05	0	0	0	
0.258667	0.0183487	0.00238411	0.000225561	7.33379E-05	0	0	0	
0.258833	-0.0470853	-0.0010308	0.00036573	6.5847E-05	0	0	0	
0.259	0.0534871	-0.0021187	0.000634562	4.8089E-05	0	0	0	
0.259167	-0.0341888	0.0012054	0.000906305	4.47788E-05	0	0	0	
0.259333	0.00258326	-0.00036529	0.000933673	3.41347E-05	0	0	0	
0.2595	0.0305626	0.0104524	0.000722982	5.86322E-05	0	0	0	
0.259667	-0.0611474	0.00336365	0.000977025	0.00020548	0	0	0	
0.259833	-0.0113926	-0.00134682	0.00119326	0.000281729	0	0	0	
0.26	0.00102641	-0.000964331	0.00115623	0.000267105	0	0	0	
0.260167	0.00900095	0.00448325	0.000591875	0.000133437	0	0	0	
0.260333	-0.0215509	-0.00465123	0.000236372	7.65989E-05	0	0	0	
0.2605	0.0564433	0.00485716	0.000331084	9.89434E-05	0	0	0	
0.260667	-0.0536558	0.000521738	0.000724576	0.000149756	0	0	0	
0.260833	0.0271535	-0.00567711	0.000989489	0.00019599	0	0	0	
0.261	-0.00161049	0.00659717	0.0010351	0.00019861	0	0	0	
0.261167	-0.0160616	-0.0037156	0.000766365	0.000152931	0	0	0	
0.261333	0.0282647	0.00043451	0.000558222	9.79654E-05	0	0	0	
0.2615	-0.0248938	0.00054945	0.000488627	5.84476E-05	0	0	0	
0.261667	0.0268764	0.00133242	0.000500259	3.22505E-05	0	0	0	
0.261833	-0.0340892	-0.00284837	0.000551805	2.96345E-05	0	0	0	
0.262	0.033614	0.00109501	0.000599289	3.33143E-05	0	0	0	
0.262167	-0.0177549	0.00158435	0.000576361	6.02338E-05	0	0	0	
0.262333	-0.00602498	-0.00277683	0.000472012	7.23715E-05	0	0	0	
0.2625	0.0110758	0.0015162	0.000316857	7.10849E-05	0	0	0	
0.262667	-0.000140825	0.000124394	0.000246387	4.43429E-05	0	0	0	
0.262833	3.11164E-05	-4.79604E-05	0.000239395	2.20755E-05	0	0	0	
0.263	-0.00448532	0.00072534	0.00023787	1.17192E-05	0	0	0	
0.263167	0.0082453	-0.000350474	0.000195873	1.40454E-05	0	0	0	
0.263333	-0.00634721	0.000227548	0.000160619	2.37544E-05	0	0	0	
0.2635	0.00623892	0.000555321	0.000164528	3.1678E-05	0	0	0	
0.263667	-0.00230099	-8.86037E-07	0.000156573	2.70679E-05	0	0	0	
0.263833	-0.00394713	-0.000655525	0.000151759	2.06122E-05	0	0	0	
0.264	0.00625427	0.000945947	0.000124871	1.32916E-05	0	0	0	
0.264167	0.0100189	0.00057674	0.000136221	1.50701E-05	0	0	0	
0.264333	-0.0128982	-0.000975445	0.000162099	1.32361E-05	0	0	0	
0.2645	-0.00476924	0.000407015	0.000260841	1.7468E-05	0	0	0	
0.264667	0.0186601	-0.000316687	0.000255313	2.00332E-05	0	0	0	
0.264833	-0.000324759	-5.47497E-05	0.000422608	1.68076E-05	0	0	0	
0.265	-0.0447378	0.000252372	0.000680655	1.28975E-05	0	0	0	
0.265167	0.03484	0.000208325	0.0009546	1.29357E-05	0	0	0	
0.265333	-0.00238922	-0.000581226	0.000833341	1.62136E-05	0	0	0	
0.2655	-0.0219313	0.000993727	0.000552288	1.74788E-05	0	0	0	
0.265667	0.0205341	-0.000756462	0.00038628	1.93109E-05	0	0	0	
0.265833	-0.0296153	0.000275212	0.000423889	2.3493E-05	0	0	0	
0.266	0.0304747	-0.000484159	0.000523713	2.4842E-05	0	0	0	
0.266167	-0.0350527	0.000903758	0.000671471	1.9897E-05	0	0	0	
0.266333	0.0205584	3.69668E-05	0.000788935	1.98578E-05	0	0	0	
0.2665	-0.0239913	-3.68895E-05	0.000773118	1.83834E-05	0	0	0	
0.266667	0.0210387	0.000129003	0.00063812	1.89186E-05	0	0	0	
0.266833	-0.0118071	0.000415376	0.00045068	1.58118E-05	0	0	0	
0.267	-0.000163438	-7.06448E-05	0.000303993	1.11891E-05	0	0	0	
0.267167	0.00588064	-0.00115045	0.000156597	1.36854E-05	0	0	0	
0.267333	-0.00512334	0.0015969	0.000147213	2.09435E-05	0	0	0	
0.2675	0.000436732	-0.000134234	0.00017086	3.20724E-05	0	0	0	
0.267667	-0.00106671	-0.00103836	0.000165283	3.25016E-05	0	0	0	
0.267833	0.00299736	0.00123819	0.000102194	2.71753E-05	0	0	0	
0.268	-0.00161755	-7.44584E-05	5.10802E-05	1.98087E-05	0	0	0	
0.268167	-0.00136106	-0.00152007	4.65241E-05	1.76784E-05	0	0	0	
0.268333	0.0071543	0.00237201	4.30113E-05	2.32872E-05	0	0	0	
0.2685	-0.0120191	-0.000240965	0.000121313	2.69934E-05	0	0	0	
0.268667	-0.00227476	-0.00205499	0.00021158	2.94642E-05	0	0	0	
0.268833	0.00675677	0.00183845	0.000267277	3.05316E-05	0	0	0	
0.269	0.00323525	-0.000111382	0.000227337	3.11832E-05	0	0	0	
0.269167	-0.0103912	8.34728E-05	0.000171382	2.4651E-05	0	0	0	
0.269333	0.000606439	-0.000240001	0.000170436	1.2157E-05	0	0	0	
0.2695	0.00277205	0.000280593	0.000182785	2.15756E-05	0	0	0	
0.269667	0.00451019	0.00142368	0.000175488	4.76162E-05	0	0	0	
0.269833	-0.0181576	-0.00204858	0.000180856	6.59684E-05	0	0	0	
0.27	0.00807504	0.00198275	0.000235148	5.82504E-05	0	0	0	
0.270167	0.00293294	-0.0009594	0.000280582	4.33604E-05	0	0	0	
0.270333	-0.000968584	-0.000201571	0.000213552	4.1672E-05	0	0	0	
0.2705	-0.00443109	0.00286191	0.000114618	5.01725E-05	0	0	0	
0.270667	0.00309745	-0.00322553	7.95449E-05	5.76912E-05	0	0	0	
0.270833	-0.0104143	-0.00109377	0.00011394	5.6594E-05	0	0	0	
0.271	0.0189674	0.00209523	0.000196468	6.22123E-05	0	0	0	
0.271167	-0.0115686	-0.00217147	0.000238693	5.48824E-05	0	0	0	
0.271333	-0.00229469	-0.000233405	0.000279529	5.44853E-05	0	0	0	
0.2715	-0.0125306	0.00283834	0.000207301	4.78622E-05	0	0	0	
0.271667	0.0340717	-0.00380118	0.000271904	5.47564E-05	0	0	0	
0.271833	-0.0188891	6.31202E-05	0.000808962	5.53232E-05	0	0	0	
0.272	-0.039084	0.00152171	0.0017814	6.61459E-05	0	0	0	
0.272167	0.0623319	-0.0029775	0.00235408	6.88233E-05	0	0	0	
0.272333	-0.0284341	0.00165505	0.00205523	6.31018E-05	0	0	0	
0.2725	-0.00816913	0.000365013	0.00113189	4.98062E-05	0	0	0	
0.272667	0.0362193	-0.00302061	0.000546019	4.75043E-05	0	0	0	
0.272833	-0.098352	0.00245362	0.000626692	5.58139E-05	0	0	0	
0.273	0.134601	0.000423509	0.00136428	4.62317E-05	0	0	0	
0.273167	-0.0904073	-0.00178721	0.00209825	3.64612E-05	0	0	0	
0.273333	0.0349264	0.000512193	0.0023688	2.39363E-05	0	0	0	
0.2735	-0.013818	5.31126E-05	0.00182755	2.11688E-05	0	0	0	
0.273667	0.021768	-0.000580752	0.00107937	1.60413E-05	0	0	0	
0.273833	-0.0249866	6.79619E-05	0.000549578	1.55296E-05	0	0	0	
0.274	0.000241551	0.000718317	0.000399153	1.74085E-05	0	0	0	
0.274167	0.0133766	-0.00238662	0.000389553	2.40101E-05	0	0	0	
0.274333	-0.00749182	0.00250301	0.000506694	3.51218E-05	0	0	0	
0.2745	-0.00128884	-0.00141322	0.000651786	4.11837E-05	0	0	0	
0.274667	0.0015982	-0.000134287	0.000638688	3.71621E-05	0	0	0	
0.274833	0.01009	0.000506298	0.000419709	2.65661E-05	0	0	0	
0.275	-0.0158381	0.000443336	0.000230988	2.01521E-05	0	0	0	
0.275167	0.0203413	-0.000573505	0.000249269	2.0376E-05	0	0	0	
0.275333	-0.0163538	0.0012263	0.000306227	2.26316E-05	0	0	0	
0.2755	0.0129088	-0.00142867	0.000335864	2.86299E-05	0	0	0	
0.275667	-0.00634325	0.000637085	0.000269001	2.67152E-05	0	0	0	
0.275833	0.0055812	-0.000370779	0.000203691	2.22496E-05	0	0	0	
0.276	0.00125008	0.000426575	0.000121532	1.62203E-05	0	0	0	
0.276167	-0.00193085	-0.000637355	7.5482E-05	1.83639E-05	0	0	0	
0.276333	-0.00367505	-0.00108955	5.74944E-05	1.88807E-05	0	0	0	
0.2765	0.0068365	0.00123806	9.14417E-05	2.37601E-05	0	0	0	
0.276667	0.00158958	-0.00162455	0.00011346	2.64242E-05	0	0	0	
0.276833	-0.000687175	0.000658065	0.00013175	2.86455E-05	0	0	0	
0.277	8.64483E-05	3.59169E-05	8.02619E-05	2.41132E-05	0	0	0	
0.277167	-0.00692675	-0.000101874	0.000124142	1.76291E-05	0	0	0	
0.277333	0.00713081	0.000445744	0.000213408	1.00746E-05	0	0	0	
0.2775	0.00153887	9.12467E-05	0.000260918	1.51887E-05	0	0	0	
0.277667	-0.0059279	-0.00160371	0.000206101	3.11746E-05	0	0	0	
0.277833	0.00548718	0.00199633	0.000124822	4.86172E-05	0	0	0	
0.278	-0.000774648	-0.00134789	8.7152E-05	4.73475E-05	0	0	0	
0.278167	0.00155996	0.000213789	7.4346E-05	3.55575E-05	0	0	0	
0.278333	-0.00541551	0.00054192	5.60894E-05	2.03972E-05	0	0	0	
0.2785	0.00349943	-0.00147451	6.79985E-05	1.92021E-05	0	0	0	
0.278667	0.000523209	0.00237214	6.14714E-05	2.6079E-05	0	0	0	
0.278833	0.000899417	-0.00151346	5.51221E-05	3.55451E-05	0	0	0	
0.279	-0.00233309	0.000587109	6.29336E-05	3.9991E-05	0	0	0	
0.279167	0.00288711	0.000463781	6.97784E-05	3.26154E-05	0	0	0	
0.279333	0.00183915	-9.13512E-05	8.27575E-05	2.33614E-05	0	0	0	
0.2795	-0.00969933	0.00022567	8.74656E-05	1.37077E-05	0	0	0	
0.279667	0.00527801	0.000783278	0.000114939	1.47228E-05	0	0	0	
0.279833	-0.000676651	0.000400549	0.000111209	2.026E-05	0	0	0	
0.28	0.000535633	-0.000102821	7.25231E-05	2.36501E-05	0	0	0	
0.280167	-0.00058048	0.000177044	3.63989E-05	1.81242E-05	0	0	0	
0.280333	-0.00407296	0.0004259	4.25789E-05	1.22005E-05	0	0	0	
0.2805	0.0124585	-9.91922E-05	8.19581E-05	1.20681E-05	0	0	0	
0.280667	-0.0222843	-0.000620819	0.000198889	1.49953E-05	0	0	0	
0.280833	0.0153213	0.00141643	0.000315421	2.07174E-05	0	0	0	
0.281	-0.0090378	-0.000208717	0.000388694	1.98331E-05	0	0	0	
0.281167	0.00328376	0.00102114	0.000332548	2.13074E-05	0	0	0	
0.281333	-0.00396149	6.42461E-05	0.000215333	1.67064E-05	0	0	0	
0.2815	0.0105095	-0.000956281	0.000157308	1.52776E-05	0	0	0	
0.281667	-0.0263641	0.000896114	0.000210325	1.4387E-05	0	0	0	
0.281833	0.0164529	0.000809148	0.000335704	2.27184E-05	0	0	0	
0.282	-0.00419584	0.000204123	0.00035361	3.42407E-05	0	0	0	
0.282167	-0.00194238	-3.58814E-05	0.000297169	3.52301E-05	0	0	0	
0.282333	-0.000925705	-0.000114952	0.000227736	2.41242E-05	0	0	0	
0.2825	0.0036489	0.000190241	0.000219904	1.09244E-05	0	0	0	
0.282667	-0.00430348	-0.000943703	0.000205968	1.00713E-05	0	0	0	
0.282833	0.00973219	-3.84422E-05	0.000178047	1.58442E-05	0	0	0	
0.283	-0.00867473	0.000830757	0.000152282	2.10174E-05	0	0	0	
0.283167	0.00446815	-0.0019077	0.000181644	2.79165E-05	0	0	0	
0.283333	-0.000868177	0.000997373	0.000210997	3.58344E-05	0	0	0	
0.2835	0.000960774	-0.000938361	0.000204883	3.31932E-05	0	0	0	
0.283667	-0.0052394	0.000969251	0.000166958	2.73907E-05	0	0	0	
0.283833	-0.00299127	-0.000437148	0.000168089	2.51739E-05	0	0	0	
0.284	0.0155521	-0.00205557	0.000238633	3.39289E-05	0	0	0	
0.284167	-0.0170503	0.00335906	0.000306037	4.01207E-05	0	0	0	
0.284333	0.00708557	-0.00301149	0.000298247	5.25353E-05	0	0	0	
0.2845	0.00104289	0.0012025	0.000214565	7.1054E-05	0	0	0	
0.284667	0.00192013	0.00259265	0.000175479	8.702E-05	0	0	0	
0.284833	-0.00883042	-0.00422159	0.000181686	8.72662E-05	0	0	0	
0.285	0.0130438	0.00349282	0.000234575	7.89084E-05	0	0	0	
0.285167	-0.00808405	-0.000977924	0.000222768	7.44394E-05	0	0	0	
0.285333	0.000153279	-0.00364039	0.000157344	7.39341E-05	0	0	0	
0.2855	0.00703376	0.00618483	0.00011782	7.93291E-05	0	0	0	
0.285667	-0.00529262	-0.00245933	0.00013241	8.4629E-05	0	0	0	
0.285833	0.000835298	-0.00212333	0.000183072	9.55088E-05	0	0	0	
0.286	0.00463308	0.00530332	0.000208826	9.93675E-05	0	0	0	
0.286167	-0.00506124	-0.00605576	0.000175983	0.000104629	0	0	0	
0.286333	0.0027779	0.00403854	0.000133918	9.90182E-05	0	0	0	
0.2865	0.00100565	-0.000375826	0.000112999	9.20468E-05	0	0	0	
0.286667	-0.00151726	-0.00194459	8.25135E-05	7.58546E-05	0	0	0	
0.286833	-0.00801468	0.000932024	9.26561E-05	5.35196E-05	0	0	0	
0.287	0.0113772	0.000424284	0.000103302	4.03416E-05	0	0	0	
0.287167	0.00423996	-0.00202231	0.000238468	3.96088E-05	0	0	0	
0.287333	-0.045826	0.00395823	0.000374275	5.50751E-05	0	0	0	
0.2875	0.0542638	-0.00544768	0.000653349	7.11122E-05	0	0	0	
0.287667	-0.0408048	0.0035216	0.000976534	7.89464E-05	0	0	0	
0.287833	0.00915582	-0.00145285	0.00123397	7.43915E-05	0	0	0	
0.288	0.00899142	0.00025285	0.00111699	5.86585E-05	0	0	0	
0.288167	-0.0146344	0.000282551	0.000700183	3.66916E-05	0	0	0	
0.288333	0.00285875	-0.000292261	0.000474233	2.05675E-05	0	0	0	
0.2885	0.0386	-0.000490571	0.000703982	1.73569E-05	0	0	0	
0.288667	-0.0698642	0.00123163	0.00107398	2.52321E-05	0	0	0	
0.288833	0.0530485	-0.00153721	0.00123573	2.92152E-05	0	0	0	
0.289	-0.00333044	0.000896214	0.00114822	2.88436E-05	0	0	0	
0.289167	-0.0234312	-0.000368137	0.000942191	2.32916E-05	0	0	0	
0.289333	0.0280602	-0.000666296	0.000715836	2.29096E-05	0	0	0	
0.2895	-0.0140395	0.00125223	0.000510555	2.05124E-05	0	0	0	
0.289667	-0.0132095	5.37743E-05	0.000345091	2.64655E-05	0	0	0	
0.289833	0.0361608	-0.00176727	0.000383521	4.47916E-05	0	0	0	
0.29	-0.0318839	0.00211065	0.000576412	5.33375E-05	0	0	0	
0.290167	0.000732817	-0.00124013	0.000830841	4.98389E-05	0	0	0	
0.290333	0.00596453	0.000626917	0.00076418	3.1471E-05	0	0	0	
0.2905	0.00579181	-0.000853507	0.000462354	2.26855E-05	0	0	0	
0.290667	-0.0137855	0.00074118	0.000262878	2.08337E-05	0	0	0	
0.290833	0.0204704	0.00092167	0.000275266	2.61112E-05	0	0	0	
0.291	-0.0241024	2.62023E-05	0.000398709	3.47296E-05	0	0	0	
0.291167	0.0121941	-0.00148069	0.000418162	4.14769E-05	0	0	0	
0.291333	0.00245794	0.00137491	0.000320811	3.93436E-05	0	0	0	
0.2915	-0.0062456	-0.000354458	0.000185948	3.1205E-05	0	0	0	
0.291667	0.00418045	-0.00117697	0.000101413	2.59831E-05	0	0	0	
0.291833	-0.00658007	0.00135814	0.000147773	2.72235E-05	0	0	0	
0.292	0.00910032	-9.26048E-06	0.000234438	2.25436E-05	0	0	0	
0.292167	-0.012139	2.24205E-05	0.00027873	1.93741E-05	0	0	0	
0.292333	0.00784736	-0.000221844	0.000260619	1.44244E-05	0	0	0	
0.2925	-0.00424564	-0.000220299	0.000182664	1.63706E-05	0	0	0	
0.292667	-0.000899781	0.00114955	0.000146927	1.41233E-05	0	0	0	
0.292833	-0.00299991	-0.00201681	0.00016665	1.7906E-05	0	0	0	
0.293	0.00122134	0.00141978	0.000182335	2.8255E-05	0	0	0	
0.293167	-0.00120468	-0.000908691	0.000150958	3.99287E-05	0	0	0	
0.293333	0.00451093	-0.000249656	0.000104849	3.66106E-05	0	0	0	
0.2935	-0.0026175	0.000167334	7.76745E-05	2.35586E-05	0	0	0	
0.293667	0.00349678	3.89346E-05	8.88014E-05	8.61624E-06	0	0	0	
0.293833	-0.00904529	0.000369765	9.27886E-05	4.56817E-06	0	0	0	
0.294	0.00516911	-0.000291908	0.000124212	9.10044E-06	0	0	0	
0.294167	0.00401142	-0.00158339	0.000117023	1.80136E-05	0	0	0	
0.294333	-0.00778938	0.00193703	0.000124724	2.83348E-05	0	0	0	
0.2945	0.00387019	-0.000974229	0.000106411	2.99822E-05	0	0	0	
0.294667	-7.20566E-05	0.000129362	0.000110674	2.44931E-05	0	0	0	
0.294833	-0.000572542	0.000592705	7.36669E-05	1.39736E-05	0	0	0	
0.295	-0.00166159	-0.000583473	5.20057E-05	1.25462E-05	0	0	0	
0.295167	0.000162592	0.00117261	5.29571E-05	1.84266E-05	0	0	0	
0.295333	0.00159132	-0.00109003	6.0288E-05	2.64085E-05	0	0	0	
0.2955	-0.00239028	7.70044E-05	5.7497E-05	2.51025E-05	0	0	0	
0.295667	0.00402629	0.000503158	5.68019E-05	1.83631E-05	0	0	0	
0.295833	-0.00286529	-0.000114025	5.90645E-05	1.0929E-05	0	0	0	
0.296	0.000968927	-0.000700217	6.65587E-05	8.22983E-06	0	0	0	
0.296167	2.87884E-05	0.00070195	7.2762E-05	1.09691E-05	0	0	0	
0.296333	0.00402479	0.000191574	8.98791E-05	1.30062E-05	0	0	0	
0.2965	-0.00232582	-0.000259866	9.36896E-05	1.66233E-05	0	0	0	
0.296667	0.00472888	0.000660408	9.2702E-05	2.15217E-05	0	0	0	
0.296833	5.0679E-05	9.68477E-05	7.92576E-05	2.14687E-05	0	0	0	
0.297	0.00220349	0.000747477	5.72731E-05	1.93906E-05	0	0	0	
0.297167	-0.0106028	-0.00190681	8.31206E-05	1.45055E-05	0	0	0	
0.297333	0.0156883	0.00259004	0.000135057	2.78106E-05	0	0	0	
0.2975	-0.00555343	-0.000492418	0.000217467	3.50052E-05	0	0	0	
0.297667	-0.000388713	-0.00062853	0.000216272	3.3615E-05	0	0	0	
0.297833	0.000306763	0.000406745	0.000160227	2.08593E-05	0	0	0	
0.298	0.00310582	-0.000501811	9.23989E-05	1.43786E-05	0	0	0	
0.298167	-0.00214846	0.000794879	6.17306E-05	1.25526E-05	0	0	0	
0.298333	-0.00166039	-0.000770322	5.73467E-05	1.55914E-05	0	0	0	
0.2985	-0.00490438	-0.000695084	5.70623E-05	2.12741E-05	0	0	0	
0.298667	0.00425723	-0.000261279	9.26074E-05	2.61993E-05	0	0	0	
0.298833	4.73603E-05	0.000944422	0.000162605	2.57472E-05	0	0	0	
0.299	-0.0017869	-0.000326188	0.000194214	2.11759E-05	0	0	0	
0.299167	-0.00114401	-0.000287653	0.000143292	1.64243E-05	0	0	0	
0.299333	0.00449054	0.000129033	0.000102648	1.09554E-05	0	0	0	
0.2995	-0.00789292	0.000669365	8.70068E-05	7.7954E-06	0	0	0	
0.299667	0.00756623	-0.000437437	0.000134515	1.10926E-05	0	0	0	
0.299833	-0.00272226	-0.00124991	0.000119862	2.17937E-05	0	0	0	
0.3	0.00581307	0.00281087	0.000115089	3.23409E-05	0	0	0	
0.300167	-0.0048791	-0.000943344	9.39226E-05	4.21021E-05	0	0	0	
0.300333	0.00228774	-0.000725495	9.49007E-05	3.85603E-05	0	0	0	
0.3005	-0.00569505	0.000365125	9.00152E-05	3.58059E-05	0	0	0	
0.300667	0.00646601	0.000995535	9.76188E-05	4.07613E-05	0	0	0	
0.300833	-0.00129767	-0.00193228	0.000118376	5.01885E-05	0	0	0	
0.301	-0.00116825	0.00169625	0.000142067	5.58414E-05	0	0	0	
0.301167	-0.000218587	-0.00125644	0.000107219	4.51639E-05	0	0	0	
0.301333	0.00179027	0.000183184	6.5885E-05	3.12323E-05	0	0	0	
0.3015	0.00179685	0.000965617	2.38951E-05	2.12759E-05	0	0	0	
0.301667	-0.00308014	-0.00143668	5.59441E-05	2.05625E-05	0	0	0	
0.301833	-0.00797548	-0.000121117	0.000153704	3.94549E-05	0	0	0	
0.302	0.0180481	0.00177778	0.000265827	6.13185E-05	0	0	0	
0.302167	-0.0170703	-0.00251561	0.00034875	6.70786E-05	0	0	0	
0.302333	0.00603543	0.000521501	0.000310284	5.3986E-05	0	0	0	
0.3025	0.00100944	0.00141649	0.000216991	3.3093E-05	0	0	0	
0.302667	0.00195494	-0.000187884	0.000196953	3.22807E-05	0	0	0	
0.302833	-0.0243807	-0.00134974	0.000287151	5.6441E-05	0	0	0	
0.303	0.0219333	0.00348196	0.000398788	8.13982E-05	0	0	0	
0.303167	0.0434021	-0.00382104	0.000744419	9.17151E-05	0	0	0	
0.303333	-0.0780468	0.00129088	0.0012246	7.1164E-05	0	0	0	
0.3035	0.0613052	0.000723506	0.00152046	4.93903E-05	0	0	0	
0.303667	-0.0233995	-0.00118397	0.00133288	3.1547E-05	0	0	0	
0.303833	-0.00123572	0.000962405	0.000780593	2.35292E-05	0	0	0	
0.304	0.028694	-0.00049887	0.000459415	2.22767E-05	0	0	0	
0.304167	-0.0526601	-0.00133444	0.000485147	2.15388E-05	0	0	0	
0.304333	0.0633362	0.000269438	0.000993236	2.39302E-05	0	0	0	
0.3045	-0.0282447	0.000155618	0.00164298	2.05858E-05	0	0	0	
0.304667	-0.00733725	0.000321654	0.00185428	1.94891E-05	0	0	0	
0.304833	-0.0131406	-0.0011066	0.0013917	1.83128E-05	0	0	0	
0.305	0.0427675	0.00143199	0.000821902	2.3367E-05	0	0	0	
0.305167	-0.0334727	-0.000715007	0.000599654	2.43063E-05	0	0	0	
0.305333	0.00253359	-0.00102957	0.000643931	2.91536E-05	0	0	0	
0.3055	-0.000615355	0.00253586	0.000571198	2.95849E-05	0	0	0	
0.305667	0.0444045	-0.000658698	0.000718235	3.48651E-05	0	0	0	
0.305833	-0.0705062	-0.00151967	0.00100779	3.81734E-05	0	0	0	
0.306	0.0502481	0.00123745	0.00124667	3.38441E-05	0	0	0	
0.306167	-0.0147333	0.00162935	0.00106198	3.99549E-05	0	0	0	
0.306333	0.00126886	-0.00219416	0.000819217	4.07806E-05	0	0	0	
0.3065	-0.00198144	0.000794482	0.000768441	4.56342E-05	0	0	0	
0.306667	-0.00201231	0.00148309	0.000834225	4.64951E-05	0	0	0	
0.306833	-0.0110878	-0.0015529	0.00103161	4.38388E-05	0	0	0	
0.307	0.0356564	0.000847709	0.00113755	4.02442E-05	0	0	0	
0.307167	-0.0280898	-0.00101302	0.000982245	2.67092E-05	0	0	0	
0.307333	-0.0248972	1.35216E-07	0.000922563	1.76046E-05	0	0	0	
0.3075	0.0466571	0.00020825	0.000774019	1.42211E-05	0	0	0	
0.307667	-0.0191799	0.000288306	0.000848754	1.17157E-05	0	0	0	
0.307833	-0.00639328	-0.000504697	0.00070457	1.32803E-05	0	0	0	
0.308	0.0177292	0.00136108	0.00053219	1.77797E-05	0	0	0	
0.308167	-0.0334981	-0.00157491	0.000460006	2.30633E-05	0	0	0	
0.308333	0.0589528	0.00139422	0.000558547	2.9504E-05	0	0	0	
0.3085	-0.0441376	7.54611E-05	0.000799643	3.07369E-05	0	0	0	
0.308667	0.0224002	0.00223336	0.000884088	3.76051E-05	0	0	0	
0.308833	-0.00897442	-0.00216533	0.00074058	4.03682E-05	0	0	0	
0.309	0.00853953	0.000730463	0.000550289	4.6124E-05	0	0	0	
0.309167	-0.00860103	0.00165677	0.000414189	4.80125E-05	0	0	0	
0.309333	0.008985	-0.000980102	0.000280843	4.00452E-05	0	0	0	
0.3095	-0.0212679	-0.0103539	0.000231902	7.62667E-05	0	0	0	
0.309667	0.0248581	-0.000155292	0.000635137	0.000225278	0	0	0	
0.309833	0.0186042	-0.00515524	0.0011054	0.00030018	0	0	0	
0.31	0.00862455	0.00349083	0.0010702	0.000276157	0	0	0	
0.310167	0.00368546	-0.000614865	0.000826962	0.00012963	0	0	0	
0.310333	-0.00909543	0.000520572	0.000521048	5.06535E-05	0	0	0	
0.3105	-0.0533084	-0.00463661	0.000591213	4.45061E-05	0	0	0	
0.310667	0.0775205	0.00257101	0.00081165	8.95125E-05	0	0	0	
0.310833	-0.0394478	0.00384602	0.00124618	0.000176229	0	0	0	
0.311	-0.00309578	-0.00994679	0.00167636	0.000217296	0	0	0	
0.311167	-0.00491741	0.0089594	0.00138075	0.000209139	0	0	0	
0.311333	0.0259351	-0.00352439	0.000860917	0.000173596	0	0	0	
0.3115	-0.0211756	-0.00028802	0.000495205	0.000144049	0	0	0	
0.311667	-0.00929673	0.000611936	0.000609755	9.67881E-05	0	0	0	
0.311833	0.0566396	3.65184E-05	0.000969717	4.69798E-05	0	0	0	
0.312	-0.083806	-0.000657704	0.00144238	2.70906E-05	0	0	0	
0.312167	0.0683183	0.00319465	0.00173421	3.99778E-05	0	0	0	
0.312333	-0.0225242	-0.00401095	0.00158093	5.78171E-05	0	0	0	
0.3125	-0.0207578	0.000950844	0.00102654	6.15171E-05	0	0	0	
0.312667	0.0462733	0.00187794	0.000693937	5.99938E-05	0	0	0	
0.312833	-0.037762	-0.0017389	0.000729059	4.82004E-05	0	0	0	
0.313	0.0204481	-0.000120099	0.0011358	4.60277E-05	0	0	0	
0.313167	-0.00635284	0.00113397	0.0014114	4.09818E-05	0	0	0	
0.313333	0.0158966	-0.00168791	0.00136076	3.94458E-05	0	0	0	
0.3135	-0.0361996	1.94957E-05	0.00105897	2.93929E-05	0	0	0	
0.313667	0.0432782	0.000878184	0.000789908	2.48352E-05	0	0	0	
0.313833	-0.0274882	-0.000375223	0.000715439	1.77248E-05	0	0	0	
0.314	-0.00280157	-0.000869766	0.000656967	2.74685E-05	0	0	0	
0.314167	0.0252755	0.00142283	0.000538675	2.35454E-05	0	0	0	
0.314333	-0.023014	-0.000644032	0.000453518	3.7207E-05	0	0	0	
0.3145	0.005986	-0.00107271	0.000391701	3.76031E-05	0	0	0	
0.314667	0.00248163	0.000259517	0.000274962	3.51269E-05	0	0	0	
0.314833	0.00233315	0.000810492	0.000214442	2.89844E-05	0	0	0	
0.315	-0.00308157	0.000472754	0.000183754	2.79614E-05	0	0	0	
0.315167	-0.00311422	-0.000335341	0.00017236	4.38534E-05	0	0	0	
0.315333	0.00810901	-0.00154626	0.000116825	5.79076E-05	0	0	0	
0.3155	-0.000571307	0.00192516	0.000102245	5.45564E-05	0	0	0	
0.315667	-0.00366976	-0.00101331	0.000132683	5.34424E-05	0	0	0	
0.315833	0.00298346	-0.00113752	0.000150595	4.65476E-05	0	0	0	
0.316	-0.0074975	0.000768716	0.000214507	4.40395E-05	0	0	0	
0.316167	0.010485	0.0019051	0.000304641	4.13839E-05	0	0	0	
0.316333	-0.00121169	-0.00207717	0.000314859	3.68052E-05	0	0	0	
0.3165	-0.00555155	0.000800159	0.00022537	4.01139E-05	0	0	0	
0.316667	-0.00439818	-0.00184812	0.000158888	3.3882E-05	0	0	0	
0.316833	0.0133966	0.00412042	0.000205185	4.26142E-05	0	0	0	
0.317	-0.0128655	-0.00483121	0.000294548	6.08062E-05	0	0	0	
0.317167	0.0103856	0.005309	0.000352499	8.44727E-05	0	0	0	
0.317333	-0.0173879	-0.00732768	0.000355102	0.000103252	0	0	0	
0.3175	0.00793978	0.00403618	0.000331971	0.000110365	0	0	0	
0.317667	0.0534794	0.0104237	0.000484761	0.000136466	0	0	0	
0.317833	-0.436242	-0.0864282	0.0019286	0.000407442	0	0	0	
0.318	0.0579715	0.0134047	0.00332719	0.00066399	0	0	0	
0.318167	-0.0329543	-0.00816389	0.00324255	0.000648479	0	0	0	
0.318333	0.00898913	-0.00324577	0.00206744	0.000445404	0	0	0	
