0	-0.000995388	0.6059	9.95388E-08	6.059E-05	0	5	0	
0.000166667	0.00911818	-1.67752	5.43272E-05	0.00780348	0	5	0	
0.000333333	-0.0132279	2.07179	0.000136953	0.0235893	0	5	0	
0.0005	0.014884	-1.88994	0.000225754	0.0420793	0	5	0	
0.000666667	-0.0150263	1.71069	0.00026204	0.0529227	0	5	0	
0.000833333	0.0136913	-1.5901	0.000264852	0.0548612	0	5	0	
0.001	-0.00995016	1.70005	0.00025504	0.0528749	0	5	0	
0.00116667	0.00814341	-2.65183	0.000229366	0.051495	0	5	0	
0.00133333	-0.008363	3.42613	0.000225508	0.0546868	0	5	0	
0.0015	0.0121354	-3.76968	0.000254694	0.0609545	0	5	0	
0.00166667	-0.0128715	3.86552	0.000299179	0.0678981	0	5	0	
0.00183333	0.014652	-3.78742	0.000325066	0.0714387	0	5	0	
0.002	-0.0189035	3.80616	0.000341339	0.0727742	0	5	0	
0.00216667	0.0213742	-3.9082	0.000377614	0.0731381	0	5	0	
0.00233333	-0.0197524	4.05109	0.000412002	0.0740106	0	5	0	
0.0025	0.0120597	-4.02468	0.000393775	0.0757144	0	5	0	
0.00266667	-0.00494964	3.98478	0.000318686	0.0770628	0	5	0	
0.00283333	0.0113182	-3.99081	0.000332451	0.0774979	0	5	0	
0.003	-0.0309436	4.06933	0.000481226	0.0775228	0	5	0	
0.00316667	0.0298927	-4.0647	0.000613105	0.0779274	0	5	0	
0.00333333	-0.00496292	3.93704	0.000560813	0.0782905	0	5	0	
0.0035	-0.00319301	-3.6663	0.000337674	0.0771472	0	5	0	
0.00366667	-0.0104888	3.62614	0.000262591	0.0747817	0	5	0	
0.00383333	0.0139323	-2.77833	0.000248548	0.07168	0	5	0	
0.004	-0.0121074	3.60355	0.000292536	0.0660585	0	5	0	
0.00416667	0.0205964	-4.07776	0.000274846	0.0664821	0	5	0	
0.00433333	-0.0240195	4.1409	0.000326363	0.0697174	0	5	0	
0.0045	0.0175551	-3.94597	0.000372139	0.07668	0	5	0	
0.00466667	-0.0160971	3.77963	0.000360774	0.0779661	0	5	0	
0.00483333	0.0153181	-3.16352	0.000316981	0.0752505	0	5	0	
0.005	-0.0140294	3.55353	0.000314938	0.0708773	0	5	0	
0.00516667	0.0275786	-3.78148	0.000427224	0.0703918	0	5	0	
0.00533333	-0.0371252	3.95404	0.000574617	0.0718752	0	5	0	
0.0055	0.0197886	-4.00833	0.000616963	0.0755027	0	5	0	
0.00566667	-0.00252549	3.96311	0.000481256	0.076055	0	5	0	
0.00583333	0.00691233	-3.85789	0.000318093	0.0763871	0	5	0	
0.006	-0.0169005	3.87717	0.000303164	0.0759883	0	5	0	
0.00616667	0.0183504	-3.94793	0.000367211	0.0753972	0	5	0	
0.00633333	-0.0158556	3.88708	0.000402861	0.0753311	0	5	0	
0.0065	0.0113841	-3.66865	0.000357752	0.0747647	0	5	0	
0.00666667	-0.0156457	3.7117	0.000346033	0.073764	0	5	0	
0.00683333	0.0241686	-3.06814	0.000406721	0.0721198	0	5	0	
0.007	-0.0207033	3.78743	0.000448332	0.0686099	0	5	0	
0.00716667	0.00893636	-4.07479	0.000411954	0.0695207	0	5	0	
0.00733333	-0.00825896	4.11053	0.000323567	0.0721205	0	5	0	
0.0075	0.0157256	-3.97135	0.000331148	0.0773198	0	5	0	
0.00766667	-0.016524	3.83414	0.000367558	0.0778715	0	5	0	
0.00783333	0.0123928	-3.30752	0.000376011	0.0754593	0	5	0	
0.008	-0.0121355	3.66446	0.000318785	0.071657	0	5	0	
0.00816667	0.0131965	-3.75208	0.000293963	0.0710841	0	5	0	
0.00833333	-0.0137034	3.94349	0.000299643	0.0721224	0	5	0	
0.0085	0.0138494	-4.01233	0.00030593	0.0752833	0	5	0	
0.00866667	-0.0100863	3.93048	0.000286429	0.0759164	0	5	0	
0.00883333	0.0102827	-3.85988	0.000274095	0.0762219	0	5	0	
0.009	-0.0168933	3.89512	0.000318282	0.075923	0	5	0	
0.00916667	0.0213956	-3.93085	0.000385675	0.0752955	0	5	0	
0.00933333	-0.0171213	4.00055	0.000417177	0.0754789	0	5	0	
0.0095	0.012755	-3.97576	0.00037032	0.0759218	0	5	0	
0.00966667	-0.014342	3.95319	0.000322168	0.076521	0	5	0	
0.00983333	0.0161304	-3.8282	0.000319317	0.076298	0	5	0	
0.01	-0.016779	3.71139	0.000347845	0.0753441	0	5	0	
0.0101667	0.0148264	-2.76969	0.000358535	0.0726617	0	5	0	
0.0103333	-0.013202	3.39437	0.000334747	0.0662091	0	5	0	
0.0105	0.0106553	-3.11008	0.00031838	0.0642777	0	5	0	
0.0106667	-0.017314	3.82057	0.000368467	0.0622455	0	5	0	
0.0108333	0.0222431	-4.07378	0.000450274	0.0685213	0	5	0	
0.011	-0.0160327	3.97313	0.000472568	0.0716936	0	5	0	
0.0111667	0.0104271	-3.34605	0.000413446	0.0751548	0	5	0	
0.0113333	-0.0162783	3.5117	0.000363897	0.0725409	0	5	0	
0.0115	0.0126133	-3.17211	0.000346803	0.0701992	0	5	0	
0.0116667	-0.00236497	3.59407	0.000302509	0.0673704	0	5	0	
0.0118333	0.000812404	-3.75311	0.000258752	0.069595	0	5	0	
0.012	-0.0102914	3.94429	0.000303534	0.0711085	0	5	0	
0.0121667	0.0171036	-3.86139	0.000397412	0.0747026	0	5	0	
0.0123333	-0.0157378	3.82296	0.000430744	0.0749484	0	5	0	
0.0125	0.0131626	-3.82962	0.000368892	0.07429	0	5	0	
0.0126667	-0.014749	3.92906	0.000325101	0.0739066	0	5	0	
0.0128333	0.0172034	-4.01267	0.000322961	0.0743304	0	5	0	
0.013	-0.0123649	4.12976	0.00031932	0.0759849	0	5	0	
0.0131667	0.00598556	-3.98022	0.000268629	0.0772251	0	5	0	
0.0133333	-0.00625076	3.9808	0.000236964	0.0775951	0	5	0	
0.0135	0.0165635	-3.98262	0.000282563	0.0769934	0	5	0	
0.0136667	-0.0213957	4.03102	0.000372272	0.07669	0	5	0	
0.0138333	0.0172486	-3.99476	0.000406391	0.0768386	0	5	0	
0.014	-0.0130235	3.96372	0.00036534	0.0769052	0	5	0	
0.0141667	0.0141246	-3.95139	0.000319353	0.0766575	0	5	0	
0.0143333	-0.0130603	3.9901	0.000306084	0.0763396	0	5	0	
0.0145	0.0123684	-3.99388	0.00030322	0.076349	0	5	0	
0.0146667	-0.0143515	4.01869	0.000331206	0.0766415	0	5	0	
0.0148333	0.0192931	-3.92893	0.00038095	0.0767334	0	5	0	
0.015	-0.0213608	3.86958	0.000436595	0.0762934	0	5	0	
0.0151667	0.0165522	-3.17624	0.000438193	0.0748102	0	5	0	
0.0153333	-0.0117418	3.67236	0.000392376	0.0704165	0	5	0	
0.0155	0.0132736	-3.99281	0.000356195	0.0696906	0	5	0	
0.0156667	-0.00780228	3.97129	0.000383978	0.0707055	0	5	0	
0.0158333	0.014204	-4.01051	0.000392671	0.0749299	0	5	0	
0.016	-0.0105421	4.07036	0.000369389	0.0765746	0	5	0	
0.0161667	0.00599216	-3.61218	0.000286063	0.0764261	0	5	0	
0.0163333	-0.0106921	3.83209	0.00023853	0.0746593	0	5	0	
0.0165	0.0109297	-3.93826	0.000232107	0.0748101	0	5	0	
0.0166667	-8.96583E-05	3.92976	0.000269704	0.075103	0	5	0	
0.0168333	0.0137857	-4.05915	0.000323625	0.0771363	0	5	0	
0.017	-0.0150831	4.06581	0.00036102	0.0772022	0	5	0	
0.0171667	0.0114769	-3.94871	0.000350589	0.0774129	0	5	0	
0.0173333	-0.0181173	4.04491	0.000344445	0.0771883	0	5	0	
0.0175	0.023122	-4.07564	0.000399775	0.0768538	0	5	0	
0.0176667	-0.0167776	4.03912	0.000454602	0.077013	0	5	0	
0.0178333	0.0128741	-4.05424	0.000422861	0.0773456	0	5	0	
0.018	-0.00769982	4.07882	0.000331281	0.0774594	0	5	0	
0.0181667	0.00425058	-4.00586	0.000267841	0.0773689	0	5	0	
0.0183333	-0.00298851	4.07228	0.000232426	0.0773055	0	5	0	
0.0185	-0.00879075	-4.04998	0.000195673	0.0772524	0	5	0	
0.0186667	-2.28302E-05	4.00319	0.000286432	0.0773617	0	5	0	
0.0188333	0.0298228	-3.97866	0.000532555	0.0772815	0	5	0	
0.019	-0.0367293	3.93934	0.00069766	0.0767932	0	5	0	
0.0191667	0.0109715	-3.93125	0.000646739	0.0759431	0	5	0	
0.0193333	-0.00690294	3.97479	0.000453245	0.0757815	0	5	0	
0.0195	0.00796558	-3.94871	0.000293737	0.0755559	0	5	0	
0.0196667	-0.00459181	3.7399	0.000214558	0.0754413	0	5	0	
0.0198333	0.00577232	-3.90617	0.000188648	0.0742511	0	5	0	
0.02	-0.0195905	3.77716	0.000284305	0.0737426	0	5	0	
0.0201667	0.0254933	-3.96322	0.00041827	0.0734356	0	5	0	
0.0203333	-0.0264566	4.02767	0.000510566	0.0748707	0	5	0	
0.0205	0.0150634	-3.96286	0.000486371	0.0756422	0	5	0	
0.0206667	-0.00368572	3.74155	0.000358771	0.076184	0	5	0	
0.0208333	0.00832991	-3.0301	0.000282393	0.0736072	0	5	0	
0.021	-0.0207799	3.52477	0.000319565	0.068607	0	5	0	
0.0211667	0.0212291	-3.8604	0.000407507	0.066722	0	5	0	
0.0213333	-0.014461	4.03725	0.000425784	0.0689856	0	5	0	
0.0215	0.0136447	-3.86526	0.000373794	0.0736421	0	5	0	
0.0216667	-0.0212048	3.94436	0.000358718	0.075517	0	5	0	
0.0218333	0.0201985	-3.30332	0.000385527	0.0736127	0	5	0	
0.022	-0.014725	3.69118	0.000391198	0.0706507	0	5	0	
0.0221667	0.0138236	-3.51939	0.00036862	0.0694226	0	5	0	
0.0223333	-0.019788	3.9199	0.000373489	0.0702274	0	5	0	
0.0225	0.0253182	-3.61675	0.000430566	0.0722236	0	5	0	
0.0226667	-0.0270549	3.75215	0.000498189	0.0727315	0	5	0	
0.0228333	0.0283621	-2.80822	0.000552266	0.0715393	0	5	0	
0.023	-0.0322699	3.7236	0.000606791	0.0675611	0	5	0	
0.0231667	0.0343845	-3.75598	0.000656162	0.0671044	0	5	0	
0.0233333	-0.0253992	3.79544	0.000659565	0.0686476	0	5	0	
0.0235	0.0148654	-2.7878	0.00058122	0.0715234	0	5	0	
0.0236667	-0.0125568	3.68079	0.000517476	0.067595	0	5	0	
0.0238333	0.0152671	-3.50564	0.000493837	0.0663193	0	5	0	
0.024	-0.0105259	3.99168	0.00049768	0.0663858	0	5	0	
0.0241667	0.00524406	-4.08933	0.000492256	0.0731272	0	5	0	
0.0243333	-0.00996076	3.99972	0.000524903	0.075869	0	5	0	
0.0245	0.0177385	-3.34169	0.000568677	0.07679	0	5	0	
0.0246667	-0.0150031	3.68338	0.000561211	0.0728834	0	5	0	
0.0248333	0.0156125	-3.77204	0.00046377	0.0719698	0	5	0	
0.025	-0.0149902	3.9296	0.000363732	0.0723742	0	5	0	
0.0251667	0.0123553	-4.10675	0.00030877	0.0748926	0	5	0	
0.0253333	-0.011869	4.13701	0.000285814	0.0757955	0	5	0	
0.0255	0.0120767	-4.02925	0.000282436	0.0771141	0	5	0	
0.0256667	-0.0142163	4.00507	0.000320005	0.0772835	0	5	0	
0.0258333	0.0233831	-4.1112	0.000386539	0.0767088	0	5	0	
0.026	-0.0239356	4.18599	0.000439707	0.0770613	0	5	0	
0.0261667	0.0175475	-4.05349	0.000432274	0.0779435	0	5	0	
0.0263333	-0.0118537	3.83085	0.000366944	0.0778138	0	5	0	
0.0265	0.0116332	-2.73174	0.000303227	0.0746682	0	5	0	
0.0266667	-0.00956887	3.4615	0.000262413	0.067341	0	5	0	
0.0268333	0.00814749	-2.74071	0.000277334	0.0642491	0	5	0	
0.027	-0.0135383	3.64054	0.000349097	0.0604418	0	5	0	
0.0271667	0.0207168	-3.28238	0.000434825	0.0652565	0	5	0	
0.0273333	-0.0229133	3.94398	0.0004848	0.0648794	0	5	0	
0.0275	0.0195844	-3.57636	0.00046392	0.069913	0	5	0	
0.0276667	-0.0157862	3.85141	0.000406161	0.0697214	0	5	0	
0.0278333	0.0131747	-3.12454	0.000353271	0.0721915	0	5	0	
0.028	-0.0117741	3.58783	0.000319033	0.0700455	0	5	0	
0.0281667	0.0109755	-3.25961	0.000303188	0.0701618	0	5	0	
0.0283333	-0.0105259	3.77684	0.00029492	0.0679331	0	5	0	
0.0285	0.0130994	-3.88153	0.000299453	0.0709664	0	5	0	
0.0286667	-0.0155061	3.96628	0.000318358	0.0721071	0	5	0	
0.0288333	0.0148551	-4.05498	0.000342561	0.075126	0	5	0	
0.029	-0.0144639	4.06922	0.000362503	0.0756484	0	5	0	
0.0291667	0.0153443	-4.07483	0.000379707	0.0764262	0	5	0	
0.0293333	-0.0129141	4.08053	0.00037314	0.0770098	0	5	0	
0.0295	0.0109968	-4.11448	0.000343892	0.0769812	0	5	0	
0.0296667	-0.0139013	4.15385	0.000325936	0.0774109	0	5	0	
0.0298333	0.0159101	-4.1823	0.000342452	0.0779682	0	5	0	
0.03	-0.0105571	4.17435	0.000358579	0.0789194	0	5	0	
0.0301667	0.00893627	-4.14446	0.000349349	0.0789463	0	5	0	
0.0303333	-0.0112532	4.13191	0.000343611	0.0786749	0	5	0	
0.0305	0.0134387	-4.13576	0.000338355	0.0781488	0	5	0	
0.0306667	-0.0145285	4.20989	0.000328068	0.0784878	0	5	0	
0.0308333	0.0122839	-4.2133	0.000306828	0.0789459	0	5	0	
0.031	-0.010481	4.19875	0.000301046	0.0794963	0	5	0	
0.0311667	0.0108618	-4.14627	0.000304244	0.0792831	0	5	0	
0.0313333	-0.01254	4.16541	0.000310945	0.079052	0	5	0	
0.0315	0.0130125	-4.16462	0.000321064	0.0787751	0	5	0	
0.0316667	-0.0137372	4.18202	0.000338794	0.0788618	0	5	0	
0.0318333	0.0136138	-4.09539	0.000357556	0.0786312	0	5	0	
0.032	-0.0165705	4.16038	0.000367115	0.0782969	0	5	0	
0.0321667	0.0132873	-4.16271	0.000352912	0.078205	0	5	0	
0.0323333	-0.0105296	4.1706	0.000314573	0.0784242	0	5	0	
0.0325	0.00948638	-4.14498	0.000300814	0.0785939	0	5	0	
0.0326667	-0.014778	4.15042	0.000325528	0.0784436	0	5	0	
0.0328333	0.0145176	-4.13958	0.00035435	0.0783163	0	5	0	
0.033	-0.0122948	4.1733	0.000344623	0.0783891	0	5	0	
0.0331667	0.00925549	-4.15603	0.000316223	0.0786319	0	5	0	
0.0333333	-0.0142864	4.18388	0.000327765	0.0787646	0	5	0	
0.0335	0.0188627	-4.15868	0.000379663	0.0787267	0	5	0	
0.0336667	-0.0217354	4.16415	0.000427206	0.0785609	0	5	0	
0.0338333	0.0189136	-4.15406	0.000436082	0.0784216	0	5	0	
0.034	-0.0165521	4.16842	0.000401743	0.0784546	0	5	0	
0.0341667	0.0106158	-4.15911	0.00033252	0.0785065	0	5	0	
0.0343333	-0.00371155	4.15909	0.000239149	0.078507	0	5	0	
0.0345	0.00212755	-4.1392	0.000182401	0.0783455	0	5	0	
0.0346667	-0.00796059	4.14136	0.000227398	0.0781582	0	5	0	
0.0348333	0.0152321	-4.11358	0.000335801	0.0779341	0	5	0	
0.035	-0.0188688	4.1494	0.000427092	0.0778936	0	5	0	
0.0351667	0.0187131	-4.15242	0.000434993	0.0779403	0	5	0	
0.0353333	-0.0154158	4.16993	0.000390317	0.0782102	0	5	0	
0.0355	0.00988367	-4.15836	0.00031923	0.0783475	0	5	0	
0.0356667	-0.00789031	4.17247	0.000260759	0.0784608	0	5	0	
0.0358333	0.0125633	-4.15773	0.000268155	0.0784492	0	5	0	
0.036	-0.0165644	4.17429	0.000320103	0.0785133	0	5	0	
0.0361667	0.0144181	-4.14606	0.00035955	0.078424	0	5	0	
0.0363333	-0.0145511	4.15337	0.000348025	0.0783548	0	5	0	
0.0365	0.0160145	-4.12076	0.000326427	0.0780828	0	5	0	
0.0366667	-0.0144184	4.15797	0.000319233	0.0780179	0	5	0	
0.0368333	0.0127802	-4.17075	0.000314686	0.0780612	0	5	0	
0.037	-0.0158143	4.18609	0.000317435	0.0783827	0	5	0	
0.0371667	0.0169861	-4.1638	0.000337409	0.0785127	0	5	0	
0.0373333	-0.0157314	4.21042	0.000359028	0.0786796	0	5	0	
0.0375	0.015364	-4.20908	0.00036734	0.0788098	0	5	0	
0.0376667	-0.0171319	4.21293	0.000370638	0.0790995	0	5	0	
0.0378333	0.016647	-4.17298	0.000383504	0.0791047	0	5	0	
0.038	-0.0170278	4.18741	0.000392008	0.0789812	0	5	0	
0.0381667	0.0164474	-4.18464	0.000394102	0.0787458	0	5	0	
0.0383333	-0.0141855	4.20175	0.000372257	0.0787579	0	5	0	
0.0385	0.0114226	-4.18104	0.000342417	0.0787144	0	5	0	
0.0386667	-0.0108369	4.20643	0.000319136	0.0787955	0	5	0	
0.0388333	0.013409	-4.21043	0.000335647	0.0788148	0	5	0	
0.039	-0.0166187	4.21007	0.000380196	0.0789937	0	5	0	
0.0391667	0.0178273	-4.18782	0.000422665	0.0789643	0	5	0	
0.0393333	-0.020243	4.19577	0.000440992	0.0789183	0	5	0	
0.0395	0.0205126	-4.18541	0.00045099	0.0787304	0	5	0	
0.0396667	-0.0189479	4.21379	0.00044284	0.0788238	0	5	0	
0.0398333	0.0166889	-4.20099	0.000422985	0.0788333	0	5	0	
0.04	-0.0148446	4.20602	0.000395105	0.0789603	0	5	0	
0.0401667	0.0120679	-4.22066	0.000367503	0.0789276	0	5	0	
0.0403333	-0.00890376	4.20917	0.000332108	0.0790375	0	5	0	
0.0405	0.00833972	-4.06276	0.00031584	0.0786295	0	5	0	
0.0406667	-0.0159182	3.98242	0.000360941	0.0777339	0	5	0	
0.0408333	0.0217047	-3.2825	0.000446278	0.0757114	0	5	0	
0.041	-0.0203291	3.97891	0.000485256	0.0720824	0	5	0	
0.0411667	0.0151885	-4.23981	0.000438497	0.0722524	0	5	0	
0.0413333	-0.0120739	4.30829	0.000355576	0.074485	0	5	0	
0.0415	0.0105077	-4.28095	0.000304471	0.078856	0	5	0	
0.0416667	-0.0104716	4.14981	0.000295026	0.0797725	0	5	0	
0.0418333	0.00960016	-3.56787	0.000317405	0.0778493	0	5	0	
0.042	-0.0140325	3.92502	0.000362982	0.0741786	0	5	0	
0.0421667	0.0184566	-3.98455	0.000416724	0.073005	0	5	0	
0.0423333	-0.0141143	4.12732	0.000426886	0.0737425	0	5	0	
0.0425	0.00716556	-4.19425	0.000369669	0.0766419	0	5	0	
0.0426667	-0.00911393	4.20985	0.000311974	0.077613	0	5	0	
0.0428333	0.0149234	-4.14462	0.000304641	0.0782771	0	5	0	
0.043	-0.0134384	4.10552	0.000315268	0.0781486	0	5	0	
0.0431667	0.00833297	-4.13727	0.000288873	0.077514	0	5	0	
0.0433333	-0.00906706	4.21612	0.00025744	0.0775198	0	5	0	
0.0435	0.0135808	-4.23054	0.0002684	0.0781114	0	5	0	
0.0436667	-0.0126777	4.22945	0.000293702	0.0788976	0	5	0	
0.0438333	0.0105172	-4.18049	0.00029167	0.0790377	0	5	0	
0.044	-0.0126145	4.1801	0.000275691	0.0787448	0	5	0	
0.0441667	0.0146183	-4.19616	0.000276268	0.0783537	0	5	0	
0.0443333	-0.00949847	4.23136	0.000280299	0.0784345	0	5	0	
0.0445	0.00594278	-4.1997	0.000269488	0.0786611	0	5	0	
0.0446667	-0.0111651	4.20333	0.000295397	0.0788429	0	5	0	
0.0448333	0.0173651	-4.17785	0.000355598	0.0786045	0	5	0	
0.045	-0.0180225	4.1934	0.000409771	0.0783968	0	5	0	
0.0451667	0.0147793	-4.18777	0.000402194	0.078243	0	5	0	
0.0453333	-0.0124083	4.21519	0.000370893	0.0784533	0	5	0	
0.0455	0.0112566	-4.19516	0.000351986	0.0785482	0	5	0	
0.0456667	-0.00994451	4.20576	0.000337834	0.0786567	0	5	0	
0.0458333	0.00927946	-4.16517	0.00031172	0.0784076	0	5	0	
0.046	-0.0100017	4.17922	0.000291273	0.0782304	0	5	0	
0.0461667	0.0117414	-4.17691	0.00028657	0.0780311	0	5	0	
0.0463333	-0.0127198	4.20513	0.000300562	0.0781887	0	5	0	
0.0465	0.0117279	-4.18502	0.000306769	0.0783181	0	5	0	
0.0466667	-0.0121427	4.22239	0.000303065	0.0785597	0	5	0	
0.0468333	0.0142822	-4.20922	0.000296312	0.0785706	0	5	0	
0.047	-0.0154277	4.20107	0.000309132	0.0786031	0	5	0	
0.0471667	0.014735	-4.19036	0.000335295	0.0784897	0	5	0	
0.0473333	-0.0141286	4.2491	0.00037056	0.0786644	0	5	0	
0.0475	0.016477	-4.23453	0.000403353	0.07894	0	5	0	
0.0476667	-0.0170742	4.2077	0.000436009	0.0791624	0	5	0	
0.0478333	0.0174086	-4.17764	0.000446509	0.0788333	0	5	0	
0.048	-0.015668	4.23099	0.000439948	0.0785026	0	5	0	
0.0481667	0.0107458	-4.23914	0.000407201	0.0784862	0	5	0	
0.0483333	-0.0080442	4.24367	0.000379076	0.0789418	0	5	0	
0.0485	0.0122093	-4.21513	0.000392108	0.0791888	0	5	0	
0.0486667	-0.0172407	4.21881	0.00044538	0.0791459	0	5	0	
0.0488333	0.016851	-4.19713	0.000473699	0.078761	0	5	0	
0.049	-0.0112335	4.20333	0.000436107	0.0784947	0	5	0	
0.0491667	0.0091019	-4.20522	0.000372164	0.0783516	0	5	0	
0.0493333	-0.0105915	4.25259	0.000358307	0.0785985	0	5	0	
0.0495	0.00945814	-4.2527	0.000370004	0.0789822	0	5	0	
0.0496667	-0.00757732	4.22447	0.000367569	0.0792047	0	5	0	
0.0498333	0.0100534	-4.19563	0.000351934	0.0790148	0	5	0	
0.05	-0.0126254	4.21475	0.000354359	0.0786964	0	5	0	
0.0501667	0.0112135	-4.22346	0.000369046	0.0785475	0	5	0	
0.0503333	-0.0111427	4.23577	0.000381593	0.0787603	0	5	0	
0.0505	0.0147463	-4.20979	0.000393281	0.0788706	0	5	0	
0.0506667	-0.0169439	4.21664	0.000399673	0.0788575	0	5	0	
0.0508333	0.0143587	-4.21792	0.000391408	0.0786615	0	5	0	
0.051	-0.0147781	4.22564	0.000378896	0.0786188	0	5	0	
0.0511667	0.0158316	-4.21934	0.000374951	0.0786425	0	5	0	
0.0513333	-0.0118391	4.24803	0.000353325	0.0788269	0	5	0	
0.0515	0.00901105	-4.24846	0.000308249	0.0789796	0	5	0	
0.0516667	-0.0103607	4.26869	0.000299618	0.0792184	0	5	0	
0.0518333	0.0116447	-4.12082	0.000352581	0.0789179	0	5	0	
0.052	-0.015758	3.77122	0.000434226	0.0774601	0	5	0	
0.0521667	0.0212395	-2.55535	0.000479829	0.0730431	0	5	0	
0.0523333	-0.0182633	3.71313	0.000464004	0.0670322	0	5	0	
0.0525	0.0201536	-4.34463	0.000415416	0.067362	0	5	0	
0.0526667	-0.0262604	4.22963	0.000410045	0.0722672	0	5	0	
0.0528333	0.0311952	-3.99067	0.000478383	0.0778169	0	5	0	
0.053	-0.0258637	3.83515	0.000576997	0.0772556	0	5	0	
0.0531667	0.0133253	-3.01332	0.000595415	0.0721083	0	5	0	
0.0533333	-0.00590426	3.40455	0.000515623	0.0671975	0	5	0	
0.0535	0.0130502	-3.2214	0.000411349	0.0640114	0	5	0	
0.0536667	-0.0161946	4.09692	0.000375279	0.0661938	0	5	0	
0.0538333	0.00971913	-4.64076	0.000403175	0.0718392	0	5	0	
0.054	-0.00234357	4.37321	0.000462893	0.0786355	0	5	0	
0.0541667	0.00488169	-3.8485	0.000558365	0.0806418	0	5	0	
0.0543333	-0.0194274	3.94965	0.000647569	0.0790215	0	5	0	
0.0545	0.0261067	-3.94317	0.000632904	0.075345	0	5	0	
0.0546667	-0.0154562	3.93381	0.000514695	0.073872	0	5	0	
0.0548333	0.00787248	-3.9752	0.000352989	0.0737173	0	5	0	
0.055	-0.0143951	4.26871	0.000313818	0.0749696	0	5	0	
0.0551667	0.0185431	-4.18887	0.000348813	0.0766929	0	5	0	
0.0553333	-0.00828055	4.14494	0.000369792	0.0780533	0	5	0	
0.0555	-0.000833301	-4.19954	0.000313403	0.0781075	0	5	0	
0.0556667	-0.00339409	4.26869	0.000296409	0.0781571	0	5	0	
0.0558333	0.0114241	-4.27312	0.000351212	0.0787043	0	5	0	
0.056	-0.0114197	4.25935	0.000404137	0.0792908	0	5	0	
0.0561667	0.0112117	-4.20836	0.000379042	0.0792601	0	5	0	
0.0563333	-0.0175215	4.19429	0.000369929	0.0789174	0	5	0	
0.0565	0.0202151	-4.19569	0.0004171	0.078424	0	5	0	
0.0566667	-0.0170731	4.21188	0.000433547	0.078273	0	5	0	
0.0568333	0.0114746	-4.18926	0.000368036	0.0781895	0	5	0	
0.057	-0.00540163	4.21713	0.000257261	0.0783405	0	5	0	
0.0571667	0.00518046	-4.21877	0.000176604	0.0784231	0	5	0	
0.0573333	-0.00912317	4.23538	0.000187185	0.0786629	0	5	0	
0.0575	0.0112764	-4.21776	0.00024482	0.0786917	0	5	0	
0.0576667	-0.0115443	4.216	0.000305925	0.0787553	0	5	0	
0.0578333	0.0143221	-4.20716	0.000334419	0.0785825	0	5	0	
0.058	-0.0149523	4.25835	0.000354453	0.0787051	0	5	0	
0.0581667	0.0144334	-4.24442	0.00036103	0.0789723	0	5	0	
0.0583333	-0.0157676	4.1999	0.000351025	0.079144	0	5	0	
0.0585	0.0166906	-4.20363	0.000328012	0.0787974	0	5	0	
0.0586667	-0.0123108	4.22034	0.00031402	0.0784242	0	5	0	
0.0588333	0.0110864	-4.10782	0.000299768	0.0779515	0	5	0	
0.059	-0.012915	4.01583	0.000320277	0.0774372	0	5	0	
0.0591667	0.0145123	-3.35843	0.000346802	0.075766	0	5	0	
0.0593333	-0.0120746	3.95408	0.000360066	0.0725966	0	5	0	
0.0595	0.00864139	-4.19194	0.000329372	0.0723931	0	5	0	
0.0596667	-0.0103497	4.32765	0.000330751	0.0743842	0	5	0	
0.0598333	0.0161305	-4.33319	0.00038142	0.0785393	0	5	0	
0.06	-0.015148	4.18449	0.000420156	0.0798026	0	5	0	
0.0601667	0.00807682	-3.63445	0.000379296	0.0780368	0	5	0	
0.0603333	-0.0050469	4.0647	0.000305556	0.0747103	0	5	0	
0.0605	0.00781987	-4.08239	0.000274988	0.0738649	0	5	0	
0.0606667	-0.00709179	4.18844	0.000285407	0.0749876	0	5	0	
0.0608333	0.00743836	-4.25317	0.000319069	0.0777222	0	5	0	
0.061	-0.0129564	4.26215	0.000369884	0.0785467	0	5	0	
0.0611667	0.0138164	-4.16358	0.000404195	0.0788694	0	5	0	
0.0613333	-0.00954721	4.13285	0.000384918	0.0784983	0	5	0	
0.0615	0.00885465	-4.17728	0.000327067	0.0777549	0	5	0	
0.0616667	-0.00761614	4.22505	0.000290063	0.0777471	0	5	0	
0.0618333	0.00402126	-4.2023	0.000278502	0.0780578	0	5	0	
0.062	-0.00690192	4.21744	0.000318767	0.0785006	0	5	0	
0.0621667	0.0160555	-4.1578	0.000402581	0.0783275	0	5	0	
0.0623333	-0.0195769	4.07276	0.000478452	0.0778645	0	5	0	
0.0625	0.0162213	-3.94647	0.000472176	0.0765304	0	5	0	
0.0626667	-0.0122854	4.02156	0.000385064	0.0753985	0	5	0	
0.0628333	0.00480462	-4.09922	0.000265676	0.0749288	0	5	0	
0.063	0.00304576	4.15946	0.000164083	0.0757139	0	5	0	
0.0631667	-0.000745092	-4.06605	9.76154E-05	0.0764372	0	5	0	
0.0633333	-0.00359169	3.97079	0.000128953	0.0765675	0	5	0	
0.0635	0.00434318	-2.96601	0.000189374	0.0741391	0	5	0	
0.0636667	-0.00804642	3.80681	0.000293882	0.0696698	0	5	0	
0.0638333	0.0198145	-4.06713	0.000396869	0.0688531	0	5	0	
0.064	-0.0263695	4.17634	0.00047793	0.0713012	0	5	0	
0.0641667	0.022269	-4.19168	0.000498383	0.0761736	0	5	0	
0.0643333	-0.0165142	4.08211	0.00046375	0.0774117	0	5	0	
0.0645	0.018775	-3.34149	0.00044815	0.0752337	0	5	0	
0.0646667	-0.0160013	4.00192	0.000436014	0.0722029	0	5	0	
0.0648333	0.00635898	-3.99996	0.000361408	0.0718022	0	5	0	
0.065	0.000268146	4.15795	0.000250411	0.0739159	0	5	0	
0.0651667	0.00232877	-4.21779	0.000203759	0.0770086	0	5	0	
0.0653333	-0.00609647	4.18042	0.000242976	0.0777732	0	5	0	
0.0655	0.00568974	-4.12567	0.000291225	0.0779995	0	5	0	
0.0656667	-0.00539279	4.12996	0.00029789	0.0777306	0	5	0	
0.0658333	0.0100833	-4.17725	0.000326119	0.0773988	0	5	0	
0.066	-0.0153802	4.22123	0.000389681	0.0777716	0	5	0	
0.0661667	0.0124726	-4.20827	0.000414063	0.0781859	0	5	0	
0.0663333	-0.00578958	4.20836	0.000352683	0.0786008	0	5	0	
0.0665	0.00312865	-4.18025	0.000265012	0.0784904	0	5	0	
0.0666667	-0.00338428	4.21514	0.000242377	0.0785005	0	5	0	
0.0668333	0.00488557	-4.21745	0.000296852	0.0785379	0	5	0	
0.067	-0.00941472	4.21333	0.00038677	0.078691	0	5	0	
0.0671667	0.0141675	-4.1678	0.000442606	0.0785369	0	5	0	
0.0673333	-0.0133236	4.16926	0.000426801	0.0782684	0	5	0	
0.0675	0.00815253	-4.17774	0.00034028	0.0779624	0	5	0	
0.0676667	-0.00433669	4.22269	0.000248391	0.0781203	0	5	0	
0.0678333	0.00632238	-4.20522	0.000229972	0.078429	0	5	0	
0.068	-0.00982147	4.19868	0.000274822	0.0787221	0	5	0	
0.0681667	0.00871659	-4.18183	0.000316993	0.0785713	0	5	0	
0.0683333	-0.00708159	4.20849	0.000325665	0.0784106	0	5	0	
0.0685	0.00943922	-4.21377	0.000337439	0.0783658	0	5	0	
0.0686667	-0.00938012	4.23332	0.00036038	0.0787232	0	5	0	
0.0688333	0.00706647	-4.21088	0.000369603	0.0789215	0	5	0	
0.069	-0.0105719	4.20082	0.000379469	0.0789942	0	5	0	
0.0691667	0.017199	-4.17597	0.000416574	0.078647	0	5	0	
0.0693333	-0.0173222	4.20926	0.000447593	0.07846	0	5	0	
0.0695	0.0113875	-4.20154	0.000419427	0.0784237	0	5	0	
0.0696667	-0.00629988	4.20927	0.00034128	0.0786661	0	5	0	
0.0698333	0.00417956	-4.17999	0.000278544	0.0786516	0	5	0	
0.07	-0.00464507	4.19483	0.000253705	0.0786206	0	5	0	
0.0701667	0.00660243	-4.18613	0.000276381	0.0784467	0	5	0	
0.0703333	-0.00890425	4.22117	0.000324035	0.0785801	0	5	0	
0.0705	0.00987939	-4.202	0.000369459	0.0786322	0	5	0	
0.0706667	-0.0110139	4.20611	0.000385722	0.078772	0	5	0	
0.0708333	0.0122057	-4.18756	0.000366061	0.0786325	0	5	0	
0.071	-0.0110172	4.1928	0.000327607	0.0785898	0	5	0	
0.0711667	0.00837157	-4.17807	0.000291442	0.078422	0	5	0	
0.0713333	-0.0087835	4.20895	0.000282317	0.0785701	0	5	0	
0.0715	0.00963932	-4.20542	0.000302652	0.0786229	0	5	0	
0.0716667	-0.0120196	4.21139	0.000337031	0.0789043	0	5	0	
0.0718333	0.0142388	-4.19618	0.000380184	0.0788552	0	5	0	
0.072	-0.0156281	4.19492	0.000406958	0.0788509	0	5	0	
0.0721667	0.013719	-4.17074	0.000399085	0.078526	0	5	0	
0.0723333	-0.0105889	4.18377	0.00035289	0.0784632	0	5	0	
0.0725	0.00786458	-4.19398	0.000302415	0.0783689	0	5	0	
0.0726667	-0.00268613	4.18683	0.000268772	0.0786036	0	5	0	
0.0728333	0.00241386	-4.14917	0.000295905	0.0784608	0	5	0	
0.073	-0.0127114	4.15176	0.000407054	0.0783005	0	5	0	
0.0731667	0.0232463	-4.18573	0.000516791	0.0779676	0	5	0	
0.0733333	-0.0180782	4.2357	0.000536355	0.0783301	0	5	0	
0.0735	0.00866405	-4.22832	0.000432467	0.0787812	0	5	0	
0.0736667	-0.00554486	4.21604	0.000326042	0.0793716	0	5	0	
0.0738333	0.00714398	-4.17301	0.000294294	0.0792079	0	5	0	
0.074	-0.00352866	4.12851	0.000308739	0.0787271	0	5	0	
0.0741667	-0.00142845	-4.08272	0.00032005	0.077769	0	5	0	
0.0743333	0.000864162	4.1249	0.000393378	0.0773584	0	5	0	
0.0745	0.0184824	-4.21639	0.000595038	0.0775401	0	5	0	
0.0746667	-0.0268615	4.30071	0.000805026	0.0787004	0	5	0	
0.0748333	0.0145994	-4.34439	0.000799809	0.0798341	0	5	0	
0.075	-0.00122099	4.255	0.000606174	0.080379	0	5	0	
0.0751667	0.00582321	-3.99305	0.000458704	0.0795579	0	5	0	
0.0753333	-0.010121	3.63082	0.000427686	0.0767667	0	5	0	
0.0755	0.00162753	-2.56127	0.000395521	0.0716249	0	5	0	
0.0756667	0.00896489	3.6824	0.000320847	0.065996	0	5	0	
0.0758333	-0.00335512	-4.23371	0.000306053	0.0674206	0	5	0	
0.076	-0.0102663	4.34707	0.000378066	0.0728069	0	5	0	
0.0761667	0.0122033	-4.28304	0.000402179	0.0795215	0	5	0	
0.0763333	-0.00185388	4.06592	0.000318174	0.0798195	0	5	0	
0.0765	-0.00105634	-3.18704	0.00024128	0.0759832	0	5	0	
0.0766667	-0.0154726	3.96468	0.000344143	0.071955	0	5	0	
0.0768333	0.0274744	-3.87701	0.000502017	0.0713205	0	5	0	
0.077	-0.0189901	4.12781	0.000572747	0.0734341	0	5	0	
0.0771667	0.00596783	-4.2909	0.000467179	0.0769374	0	5	0	
0.0773333	-0.00872275	4.22363	0.000387506	0.0784318	0	5	0	
0.0775	0.0128965	-4.02536	0.000387937	0.079081	0	5	0	
0.0776667	-0.011678	4.01058	0.000422313	0.0779765	0	5	0	
0.0778333	0.0171902	-4.13621	0.000452087	0.0768579	0	5	0	
0.078	-0.0210013	4.27288	0.000469866	0.0773675	0	5	0	
0.0781667	0.0135711	-4.05572	0.000449934	0.0783715	0	5	0	
0.0783333	-0.00503069	3.80356	0.000355592	0.0776233	0	5	0	
0.0785	0.00530588	-2.66561	0.000270675	0.073325	0	5	0	
0.0786667	-0.00507312	3.47256	0.000240568	0.067172	0	5	0	
0.0788333	0.00340343	-3.07674	0.000275782	0.0652085	0	5	0	
0.079	-0.0120354	4.0573	0.000378592	0.0661784	0	5	0	
0.0791667	0.0258584	-4.2877	0.000487696	0.0726463	0	5	0	
0.0793333	-0.0203593	4.1637	0.000532258	0.0759028	0	5	0	
0.0795	0.00903232	-3.30964	0.000440827	0.0766275	0	5	0	
0.0796667	-0.00898083	4.03059	0.000347069	0.0734452	0	5	0	
0.0798333	0.00968177	-3.23722	0.00034502	0.0708697	0	5	0	
0.08	-0.000749855	3.95109	0.000363142	0.0700826	0	5	0	
0.0801667	3.11708E-05	-3.97436	0.000383289	0.0720171	0	5	0	
0.0803333	-0.0101622	4.07322	0.000419433	0.0739491	0	5	0	
0.0805	0.0171596	-4.03389	0.000466397	0.0764958	0	5	0	
0.0806667	-0.0123665	3.97373	0.000462393	0.0763796	0	5	0	
0.0808333	0.00509919	-4.01204	0.000371648	0.0760987	0	5	0	
0.081	-0.00317976	4.13012	0.000294336	0.0764433	0	5	0	
0.0811667	0.00327475	-4.21042	0.000243411	0.0774485	0	5	0	
0.0813333	-0.00385407	4.21874	0.000228188	0.0788785	0	5	0	
0.0815	0.00947303	-4.17102	0.000267046	0.0793155	0	5	0	
0.0816667	-0.0144548	4.14201	0.000359469	0.0791878	0	5	0	
0.0818333	0.0115845	-4.08251	0.000436142	0.0784682	0	5	0	
0.082	-0.00742233	4.1235	0.000439342	0.0780393	0	5	0	
0.0821667	0.00801204	-4.15113	0.000409299	0.0779814	0	5	0	
0.0823333	-0.00991471	4.14656	0.000384165	0.0784641	0	5	0	
0.0825	0.00815308	-4.13995	0.000344655	0.0787116	0	5	0	
0.0826667	-0.0034329	4.17188	0.000280133	0.0788529	0	5	0	
0.0828333	0.0020571	-4.1874	0.000257782	0.0788252	0	5	0	
0.083	-0.00952925	4.20727	0.000320755	0.0791655	0	5	0	
0.0831667	0.0132071	-4.18394	0.000392812	0.0793981	0	5	0	
0.0833333	-0.0104605	4.10813	0.000401555	0.079318	0	5	0	
0.0835	0.0103527	-4.09019	0.000361943	0.0787113	0	5	0	
0.0836667	-0.0130101	4.10424	0.000365133	0.0782176	0	5	0	
0.0838333	0.00821509	-4.16953	0.00037829	0.0779934	0	5	0	
0.084	0.000298349	4.15339	0.000332119	0.0785216	0	5	0	
0.0841667	-0.00485631	-4.14948	0.000273328	0.0788255	0	5	0	
0.0843333	-0.00407829	4.17957	0.000325491	0.0791467	0	5	0	
0.0845	0.0152269	-4.16888	0.000462961	0.0790856	0	5	0	
0.0846667	-0.0135392	4.09771	0.000533642	0.0789091	0	5	0	
0.0848333	0.00909538	-4.09948	0.000474308	0.0783256	0	5	0	
0.085	-0.0102398	4.1131	0.000391781	0.0782036	0	5	0	
0.0851667	0.0102266	-4.12898	0.000331682	0.0782113	0	5	0	
0.0853333	-0.00326314	4.12441	0.000289913	0.0785728	0	5	0	
0.0855	0.00390164	-4.11922	0.000275466	0.0785354	0	5	0	
0.0856667	-0.00628372	4.15907	0.000315625	0.0786935	0	5	0	
0.0858333	0.00440195	-4.14951	0.000350596	0.0787779	0	5	0	
0.086	-0.000204397	4.11723	0.000358149	0.0788521	0	5	0	
0.0861667	0.00587637	-4.11714	0.000369842	0.0786523	0	5	0	
0.0863333	-0.00839706	4.14243	0.000409955	0.0786443	0	5	0	
0.0865	0.00891197	-4.12541	0.000428531	0.0785926	0	5	0	
0.0866667	-0.00776953	4.11029	0.000402869	0.078664	0	5	0	
0.0868333	0.00719946	-4.11392	0.000361896	0.0785482	0	5	0	
0.087	-0.00445024	4.1417	0.000332269	0.0787352	0	5	0	
0.0871667	0.00655998	-4.14154	0.000322747	0.078877	0	5	0	
0.0873333	-0.0115147	4.13971	0.000355511	0.0791209	0	5	0	
0.0875	0.0154059	-4.13147	0.000407816	0.079004	0	5	0	
0.0876667	-0.0145472	4.1132	0.000428497	0.0789408	0	5	0	
0.0878333	0.0085594	-4.08786	0.000378825	0.0786317	0	5	0	
0.088	-0.00142979	4.09824	0.000292237	0.0785393	0	5	0	
0.0881667	0.000379993	-4.09482	0.000278347	0.0783655	0	5	0	
0.0883333	-0.00881843	4.09567	0.000390162	0.0784777	0	5	0	
0.0885	0.0168414	-4.10369	0.00055084	0.0783987	0	5	0	
0.0886667	-0.018383	4.11182	0.000618841	0.0785501	0	5	0	
0.0888333	0.0150831	-4.09207	0.000547573	0.0784685	0	5	0	
0.089	-0.00807713	4.08207	0.000413643	0.0784808	0	5	0	
0.0891667	-0.000221656	-4.06753	0.00030409	0.0782124	0	5	0	
0.0893333	0.00135741	4.07256	0.000291047	0.0781871	0	5	0	
0.0895	0.00361944	-4.0701	0.000370209	0.0780803	0	5	0	
0.0896667	-0.0102389	4.09414	0.00047169	0.0782611	0	5	0	
0.0898333	0.013999	-4.10008	0.000504572	0.078309	0	5	0	
0.09	-0.0114632	4.11997	0.00045982	0.0786166	0	5	0	
0.0901667	0.00538078	-4.12413	0.000386252	0.0787284	0	5	0	
0.0903333	-0.00321973	4.10839	0.000343524	0.0789471	0	5	0	
0.0905	0.00533607	-4.07397	0.000341141	0.0787469	0	5	0	
0.0906667	-0.00609794	4.06624	0.000349381	0.0785543	0	5	0	
0.0908333	0.00640793	-4.05128	0.000340339	0.0781823	0	5	0	
0.091	-0.00733904	4.07274	0.000328949	0.0781909	0	5	0	
0.0911667	0.00983647	-4.08643	0.000344232	0.0782044	0	5	0	
0.0913333	-0.00957818	4.07946	0.000365233	0.0784401	0	5	0	
0.0915	0.00742808	-4.07704	0.000347001	0.0783796	0	5	0	
0.0916667	-0.00472341	4.08971	0.000303727	0.0784902	0	5	0	
0.0918333	0.00642228	-4.08024	0.000287276	0.0784479	0	5	0	
0.092	-0.00958519	4.08859	0.000320087	0.0786533	0	5	0	
0.0921667	0.0103146	-4.0781	0.000360528	0.0786003	0	5	0	
0.0923333	-0.00889977	4.07324	0.000371727	0.0786334	0	5	0	
0.0925	0.00845533	-4.08283	0.000353763	0.0785026	0	5	0	
0.0926667	-0.00721345	4.08642	0.000331827	0.0786097	0	5	0	
0.0928333	0.00466144	-4.07685	0.00030869	0.0785902	0	5	0	
0.093	-0.00321045	4.09108	0.00029436	0.0787877	0	5	0	
0.0931667	0.00528482	-4.07914	0.000311976	0.0787924	0	5	0	
0.0933333	-0.0104141	4.07471	0.0003718	0.0788634	0	5	0	
0.0935	0.0128949	-4.06379	0.00042315	0.0786312	0	5	0	
0.0936667	-0.00595377	4.04552	0.00039824	0.0784751	0	5	0	
0.0938333	-0.000979183	-4.03338	0.000301454	0.0782303	0	5	0	
0.094	-0.00068923	4.05278	0.00026497	0.0782614	0	5	0	
0.0941667	0.00986453	-4.07053	0.000331465	0.078313	0	5	0	
0.0943333	-0.013154	4.10561	0.000430127	0.0786796	0	5	0	
0.0945	0.0115414	-4.10616	0.000451363	0.0789597	0	5	0	
0.0946667	-0.0101012	4.09539	0.000408655	0.0792646	0	5	0	
0.0948333	0.00972592	-4.04021	0.000354964	0.0790778	0	5	0	
0.095	-0.00445427	4.01724	0.000303714	0.0786705	0	5	0	
0.0951667	0.00123345	-4.00879	0.000264401	0.0780909	0	5	0	
0.0953333	-0.00305454	4.06229	0.000286909	0.0781029	0	5	0	
0.0955	0.00826489	-4.11664	0.000367047	0.0785606	0	5	0	
0.0956667	-0.0115238	4.13158	0.000442362	0.0793278	0	5	0	
0.0958333	0.00757133	-3.94006	0.000433184	0.0790361	0	5	0	
0.096	-0.00160324	3.68125	0.000364056	0.0775731	0	5	0	
0.0961667	0.00584583	-2.81567	0.000335751	0.0733987	0	5	0	
0.0963333	-0.0112412	3.6731	0.000360679	0.0695085	0	5	0	
0.0965	0.01118	-4.06743	0.000387437	0.0702166	0	5	0	
0.0966667	-0.0101642	4.20904	0.000383755	0.0746867	0	5	0	
0.0968333	0.00933678	-4.12483	0.000362467	0.079538	0	5	0	
0.097	-0.00200447	4.00322	0.000315673	0.0800453	0	5	0	
0.0971667	-0.00367251	-3.35469	0.000266122	0.0769772	0	5	0	
0.0973333	-0.00357986	4.07535	0.000315045	0.0743908	0	5	0	
0.0975	0.0143381	-3.87549	0.000452841	0.073946	0	5	0	
0.0976667	-0.0150348	3.946	0.000559704	0.0757354	0	5	0	
0.0978333	0.0125684	-4.01578	0.000528429	0.0775306	0	5	0	
0.098	-0.0102453	3.98414	0.000426471	0.0777426	0	5	0	
0.0981667	0.00479484	-3.90419	0.000317643	0.0776432	0	5	0	
0.0983333	0.00273954	3.91037	0.000230874	0.0772075	0	5	0	
0.0985	-0.00354104	-4.00288	0.00023067	0.0770988	0	5	0	
0.0986667	-0.0044144	4.05193	0.000352146	0.0778169	0	5	0	
0.0988333	0.0140324	-4.00015	0.000511352	0.0782775	0	5	0	
0.099	-0.0135842	3.99322	0.000561396	0.0784302	0	5	0	
0.0991667	0.00814539	-4.00672	0.000467651	0.0781553	0	5	0	
0.0993333	-0.00462648	4.06104	0.000349068	0.0784428	0	5	0	
0.0995	0.00497204	-4.08098	0.000299146	0.0789832	0	5	0	
0.0996667	-0.00385304	4.07651	0.0003148	0.0796175	0	5	0	
0.0998333	0.00483894	-4.01477	0.000349734	0.0795842	0	5	0	
0.1	-0.00789031	3.98612	0.000384647	0.0791648	0	5	0	
0.100167	0.0110787	-3.96969	0.000402284	0.0784285	0	5	0	
0.100333	-0.00738218	4.01086	0.000375334	0.0782019	0	5	0	
0.1005	-0.000207711	-4.04	0.000287763	0.0783836	0	5	0	
0.100667	0.00294432	4.05323	0.000236135	0.0789931	0	5	0	
0.100833	0.00348491	-4.01312	0.000294142	0.0791653	0	5	0	
0.101	-0.0110274	3.97956	0.000430336	0.0790056	0	5	0	
0.101167	0.0139375	-3.9704	0.000520863	0.078446	0	5	0	
0.101333	-0.0131284	4.00095	0.00049854	0.0782864	0	5	0	
0.1015	0.010138	-3.98879	0.000407178	0.0782381	0	5	0	
0.101667	-0.00700242	3.99917	0.000319	0.0785174	0	5	0	
0.101833	0.00280514	-4.02236	0.000260708	0.0786144	0	5	0	
0.102	0.000283884	4.02655	0.000263293	0.0789155	0	5	0	
0.102167	0.00513763	-3.9796	0.000339194	0.0788155	0	5	0	
0.102333	-0.0118472	3.97345	0.000427942	0.0786785	0	5	0	
0.1025	0.010118	-3.98733	0.000444471	0.0783987	0	5	0	
0.102667	-0.00567786	4.0207	0.000375163	0.0786457	0	5	0	
0.102833	0.00261254	-4.01203	0.000305053	0.0788781	0	5	0	
0.103	-0.00202597	3.99529	0.000300192	0.0791336	0	5	0	
0.103167	0.00488513	-3.9761	0.000350855	0.0788823	0	5	0	
0.103333	-0.00947087	3.98243	0.000412684	0.0788084	0	5	0	
0.1035	0.0109387	-3.97209	0.000434963	0.0786281	0	5	0	
0.103667	-0.00882688	3.97752	0.000403788	0.0787705	0	5	0	
0.103833	0.00449176	-3.98111	0.000338865	0.0787096	0	5	0	
0.104	-0.00199573	4.00055	0.00027954	0.0788725	0	5	0	
0.104167	-0.000828176	-3.986	0.000264812	0.0788046	0	5	0	
0.104333	-0.00331225	3.9499	0.000316034	0.0787829	0	5	0	
0.1045	0.00830548	-3.93791	0.000384921	0.0783427	0	5	0	
0.104667	-0.00618717	3.93798	0.00039465	0.0781777	0	5	0	
0.104833	0.00260946	-3.94003	0.000340757	0.0779872	0	5	0	
0.105	-0.0054351	3.95038	0.000312605	0.0782259	0	5	0	
0.105167	0.00666047	-3.95537	0.00033138	0.0782639	0	5	0	
0.105333	-0.00368571	3.96623	0.00034398	0.0785341	0	5	0	
0.1055	0.00322711	-4.00126	0.000328838	0.0786613	0	5	0	
0.105667	-0.00579963	3.99599	0.000332741	0.0790604	0	5	0	
0.105833	0.00780406	-3.97857	0.000359092	0.0791116	0	5	0	
0.106	-0.00624231	3.95876	0.000365979	0.0791152	0	5	0	
0.106167	0.00405788	-3.94228	0.00033657	0.0787402	0	5	0	
0.106333	-0.0030159	3.93659	0.000315053	0.0786674	0	5	0	
0.1065	0.00336382	-3.94732	0.000315993	0.0785352	0	5	0	
0.106667	-0.00182762	3.95007	0.000324365	0.078725	0	5	0	
0.106833	0.000576878	-3.94894	0.000330026	0.078682	0	5	0	
0.107	-0.00206252	3.95163	0.000357111	0.0788229	0	5	0	
0.107167	0.00645974	-3.94202	0.000408288	0.0787528	0	5	0	
0.107333	-0.0118919	3.92302	0.000435994	0.0787879	0	5	0	
0.1075	0.010233	-3.91172	0.000388066	0.0784453	0	5	0	
0.107667	-0.00183259	3.91602	0.000271684	0.0782611	0	5	0	
0.107833	-0.00779041	-3.9253	0.000162229	0.078104	0	5	0	
0.108	0.00625384	3.94444	0.00021762	0.0784858	0	5	0	
0.108167	0.00409193	-3.93856	0.000413921	0.0787297	0	5	0	
0.108333	-0.012545	3.92284	0.000598515	0.0789383	0	5	0	
0.1085	0.0143141	-3.93306	0.000615396	0.0787101	0	5	0	
0.108667	-0.0158857	3.94175	0.000514372	0.078706	0	5	0	
0.108833	0.0104724	-3.91765	0.000413841	0.0786004	0	5	0	
0.109	0.0002982	3.92023	0.000318147	0.0786877	0	5	0	
0.109167	-0.00672963	-3.9142	0.000274183	0.0785923	0	5	0	
0.109333	0.000974583	3.91532	0.000304744	0.0786668	0	5	0	
0.1095	0.00499455	-3.91124	0.000385367	0.0785895	0	5	0	
0.109667	-0.00727399	3.92026	0.000411101	0.0786603	0	5	0	
0.109833	0.0057964	-3.91638	0.000371388	0.0785723	0	5	0	
0.11	-0.00330237	3.9264	0.000330993	0.0787077	0	5	0	
0.110167	0.00269032	-3.91184	0.000342776	0.0786858	0	5	0	
0.110333	-0.00590993	3.91506	0.000393227	0.0787931	0	5	0	
0.1105	0.00673233	-3.90382	0.000437668	0.0786887	0	5	0	
0.110667	-0.00613131	3.89592	0.000436214	0.0786588	0	5	0	
0.110833	0.00548712	-3.8706	0.000397883	0.0783757	0	5	0	
0.111	-0.00374979	3.89883	0.000362702	0.0783346	0	5	0	
0.111167	0.00385231	-3.91299	0.00035303	0.0782784	0	5	0	
0.111333	-0.00459645	3.90997	0.000358597	0.0785982	0	5	0	
0.1115	0.00387938	-3.88722	0.000352787	0.0786325	0	5	0	
0.111667	-0.00196113	3.88614	0.000334499	0.0786872	0	5	0	
0.111833	0.00227767	-3.88099	0.000324535	0.0784169	0	5	0	
0.112	-0.00258561	3.91121	0.000337001	0.0784813	0	5	0	
0.112167	0.00395705	-3.90222	0.000359078	0.0784967	0	5	0	
0.112333	-0.00602778	3.89429	0.000374151	0.0787535	0	5	0	
0.1125	0.00757945	-3.88343	0.000371246	0.0786657	0	5	0	
0.112667	-0.00599832	3.87886	0.000350986	0.078614	0	5	0	
0.112833	0.0049633	-3.86537	0.00032595	0.0783378	0	5	0	
0.113	-0.00557846	3.90994	0.000323389	0.0784592	0	5	0	
0.113167	0.00561775	-3.91814	0.000334096	0.0786435	0	5	0	
0.113333	-0.00424085	3.89704	0.000343512	0.0790109	0	5	0	
0.1135	0.00501652	-3.88965	0.000355548	0.0790088	0	5	0	
0.113667	-0.00647408	3.88184	0.000385783	0.0789879	0	5	0	
0.113833	0.00759715	-3.86693	0.000409995	0.0787822	0	5	0	
0.114	-0.00583375	3.8848	0.000402793	0.0788309	0	5	0	
0.114167	0.00457129	-3.87256	0.000369897	0.0787364	0	5	0	
0.114333	-0.00352933	3.84277	0.00034065	0.0787048	0	5	0	
0.1145	0.00163071	-3.84954	0.000317229	0.078439	0	5	0	
0.114667	-0.000155524	3.86526	0.000314184	0.0783844	0	5	0	
0.114833	0.00329543	-3.84285	0.000342464	0.0782861	0	5	0	
0.115	-0.00612202	3.8366	0.000386986	0.0783107	0	5	0	
0.115167	0.0104236	-3.86866	0.000424439	0.0782517	0	5	0	
0.115333	-0.0150556	3.88068	0.000444438	0.0784019	0	5	0	
0.1155	0.0137248	-3.83842	0.000433696	0.0784252	0	5	0	
0.115667	-0.00429699	3.85122	0.000372843	0.0785265	0	5	0	
0.115833	-0.000511766	-3.88728	0.000298942	0.0787493	0	5	0	
0.116	-0.00092633	3.88679	0.000290013	0.0790945	0	5	0	
0.116167	0.00196524	-3.83276	0.000337327	0.0790179	0	5	0	
0.116333	-0.00354423	3.84877	0.000409237	0.0787483	0	5	0	
0.1165	0.00931253	-3.87504	0.000466333	0.0786161	0	5	0	
0.116667	-0.010793	3.83733	0.000493244	0.0787283	0	5	0	
0.116833	0.00744485	-3.78682	0.000451209	0.0785452	0	5	0	
0.117	-0.00289964	3.8242	0.000359274	0.0783593	0	5	0	
0.117167	0.000904714	-3.84366	0.000300869	0.0782555	0	5	0	
0.117333	-0.00331047	3.83963	0.000317869	0.0785223	0	5	0	
0.1175	0.0081723	-3.84679	0.000361684	0.0785827	0	5	0	
0.117667	-0.0056564	3.83907	0.000357473	0.0787507	0	5	0	
0.117833	2.84738E-05	-3.81543	0.000291748	0.0786417	0	5	0	
0.118	5.66896E-06	3.8275	0.000269973	0.0786542	0	5	0	
0.118167	0.00730493	-3.84083	0.000336694	0.0784659	0	5	0	
0.118333	-0.00867829	3.83376	0.000415157	0.0786009	0	5	0	
0.1185	0.0053925	-3.82888	0.000407121	0.0785712	0	5	0	
0.118667	-0.00433928	3.81105	0.000343455	0.0787297	0	5	0	
0.118833	0.00737315	-3.80215	0.000312703	0.0785562	0	5	0	
0.119	-0.00478405	3.81336	0.000313031	0.0785489	0	5	0	
0.119167	0.00220546	-3.83719	0.000307796	0.078438	0	5	0	
0.119333	-0.00203254	3.8299	0.000325741	0.0787076	0	5	0	
0.1195	0.00782297	-3.83094	0.000374495	0.0788444	0	5	0	
0.119667	-0.00871603	3.8064	0.000399285	0.0789754	0	5	0	
0.119833	0.00440888	-3.79096	0.000348428	0.078689	0	5	0	
0.12	-0.00126423	3.80352	0.000277929	0.0785473	0	5	0	
0.120167	0.00647079	-3.81839	0.0002865	0.078405	0	5	0	
0.120333	-0.00772449	3.80244	0.000338966	0.0785923	0	5	0	
0.1205	0.00376212	-3.79863	0.000347521	0.0785921	0	5	0	
0.120667	-0.003459	3.77466	0.000314794	0.0785889	0	5	0	
0.120833	0.00833083	-3.77643	0.000309225	0.078352	0	5	0	
0.121	-0.00609874	3.81898	0.000321017	0.0784121	0	5	0	
0.121167	0.000129182	-3.84253	0.000317665	0.0785331	0	5	0	
0.121333	-0.00412446	3.81911	0.000350033	0.0788321	0	5	0	
0.1215	0.0116976	-3.80346	0.000422553	0.0788472	0	5	0	
0.121667	-0.0106532	3.79189	0.000465781	0.0788851	0	5	0	
0.121833	0.00708043	-3.77393	0.000423886	0.0787546	0	5	0	
0.122	-0.00816334	3.77265	0.000369425	0.0787025	0	5	0	
0.122167	0.006032	-3.79985	0.000343452	0.0785402	0	5	0	
0.122333	-0.00194757	3.81623	0.000325707	0.0787487	0	5	0	
0.1225	0.00335578	-3.81255	0.000328016	0.0789988	0	5	0	
0.122667	-0.00671837	3.77282	0.000363307	0.0792028	0	5	0	
0.122833	0.00641694	-3.73029	0.000397807	0.0788198	0	5	0	
0.123	-0.00437331	3.73852	0.000370834	0.0783486	0	5	0	
0.123167	-0.00179153	-3.76944	0.000279583	0.0779424	0	5	0	
0.123333	0.00760077	3.7778	0.000191346	0.0781259	0	5	0	
0.1235	-0.00974595	-3.77716	0.000176775	0.0783841	0	5	0	
0.123667	0.00501043	3.79899	0.00031124	0.0787469	0	5	0	
0.123833	0.0136557	-3.79071	0.000592113	0.0788146	0	5	0	
0.124	-0.035598	3.78011	0.00084051	0.0789177	0	5	0	
0.124167	0.0341189	-3.77255	0.000866232	0.0788187	0	5	0	
0.124333	-0.00778818	3.76767	0.000717739	0.0788759	0	5	0	
0.1245	-0.0137878	-3.74911	0.000519072	0.0787562	0	5	0	
0.124667	0.0142318	3.75508	0.000404269	0.0787972	0	5	0	
0.124833	-0.0090268	-3.76063	0.000418149	0.0787532	0	5	0	
0.125	0.00346546	3.78183	0.00050825	0.0790239	0	5	0	
0.125167	0.0104507	-3.76411	0.000669926	0.0790219	0	5	0	
0.125333	-0.0220253	3.70582	0.000704997	0.0788737	0	5	0	
0.1255	0.0159002	-3.7005	0.00061902	0.0783154	0	5	0	
0.125667	0.000967015	3.73323	0.000412253	0.0781504	0	5	0	
0.125833	-0.00914255	-3.74238	0.000255591	0.0780774	0	5	0	
0.126	0.000307808	3.7384	0.0003002	0.0783792	0	5	0	
0.126167	0.0102243	-3.73847	0.000451143	0.0784205	0	5	0	
0.126333	-0.00971432	3.73099	0.000517414	0.0786274	0	5	0	
0.1265	0.00112052	-3.73546	0.000398471	0.0785464	0	5	0	
0.126667	0.00443003	3.73202	0.000260088	0.0787	0	5	0	
0.126833	0.000319227	-3.73891	0.000252618	0.0786667	0	5	0	
0.127	-0.00537098	3.7422	0.000330121	0.0788835	0	5	0	
0.127167	0.00681943	-3.73818	0.000378645	0.0787689	0	5	0	
0.127333	-0.00634229	3.70669	0.000356655	0.0786869	0	5	0	
0.1275	0.00599762	-3.7167	0.000316133	0.0784114	0	5	0	
0.127667	-0.00306064	3.74515	0.000289404	0.0785879	0	5	0	
0.127833	0.00109414	-3.74404	0.000274731	0.0787404	0	5	0	
0.128	-0.000693664	3.73106	0.00029078	0.0790219	0	5	0	
0.128167	0.00294607	-3.74137	0.000335936	0.0789739	0	5	0	
0.128333	-0.00569505	3.7221	0.000383876	0.0790631	0	5	0	
0.1285	0.00743459	-3.70052	0.000402376	0.0788704	0	5	0	
0.128667	-0.00751722	3.70767	0.000389185	0.0787656	0	5	0	
0.128833	0.00518358	-3.71819	0.000361997	0.0786639	0	5	0	
0.129	-0.00260674	3.73361	0.000330496	0.0789989	0	5	0	
0.129167	-0.000294546	-3.70619	0.000302805	0.0791301	0	5	0	
0.129333	0.000643741	3.68382	0.000294598	0.0791031	0	5	0	
0.1295	0.00124175	-3.68434	0.000321471	0.078701	0	5	0	
0.129667	-0.00405245	3.69843	0.000369698	0.0785306	0	5	0	
0.129833	0.00513229	-3.69585	0.000402366	0.0784884	0	5	0	
0.13	-0.00415757	3.71445	0.000391464	0.0787841	0	5	0	
0.130167	0.00234061	-3.69287	0.000349268	0.078817	0	5	0	
0.130333	-0.00394215	3.66434	0.000324841	0.0786795	0	5	0	
0.1305	0.00839916	-3.66762	0.000345358	0.0782418	0	5	0	
0.130667	-0.00831199	3.68829	0.000364406	0.0781475	0	5	0	
0.130833	9.72853E-05	-3.67631	0.000324335	0.0781008	0	5	0	
0.131	0.00590654	3.66743	0.000284379	0.0783591	0	5	0	
0.131167	0.000485415	-3.69395	0.000343456	0.0785081	0	5	0	
0.131333	-0.00837526	3.70665	0.000463397	0.078947	0	5	0	
0.1315	0.00891493	-3.70681	0.000514237	0.0790637	0	5	0	
0.131667	-0.00673422	3.69983	0.000460208	0.0791685	0	5	0	
0.131833	0.00698046	-3.6948	0.000392255	0.078923	0	5	0	
0.132	-0.00351401	3.67973	0.000355891	0.0789381	0	5	0	
0.132167	-0.00208215	-3.65308	0.000316325	0.0787205	0	5	0	
0.132333	0.00466076	3.62497	0.000298114	0.0785756	0	5	0	
0.1325	0.00138338	-3.62138	0.000349037	0.0780526	0	5	0	
0.132667	-0.0079471	3.61641	0.000454436	0.0777914	0	5	0	
0.132833	0.00846712	-3.6714	0.000514331	0.0777209	0	5	0	
0.133	-0.00355896	3.70156	0.000485691	0.0783123	0	5	0	
0.133167	-0.000293971	-3.65593	0.00041164	0.0786362	0	5	0	
0.133333	0.00143272	3.61865	0.000362712	0.0786806	0	5	0	
0.1335	0.000144526	-3.64373	0.000355241	0.0782229	0	5	0	
0.133667	0.000508415	3.64236	0.000371928	0.0780848	0	5	0	
0.133833	0.000742136	-3.65142	0.000397049	0.0781018	0	5	0	
0.134	-0.00435995	3.67807	0.000429685	0.0785215	0	5	0	
0.134167	0.00656974	-3.67253	0.000438434	0.0787733	0	5	0	
0.134333	-0.00371418	3.67671	0.000391708	0.0790787	0	5	0	
0.1345	-0.00136801	-3.71366	0.000310716	0.0790519	0	5	0	
0.134667	0.00435147	3.65146	0.00027724	0.0791718	0	5	0	
0.134833	-0.00336384	-3.60677	0.000329894	0.0786677	0	5	0	
0.135	-0.00155681	3.61645	0.000437557	0.0783886	0	5	0	
0.135167	0.00555986	-3.65326	0.000509975	0.0783179	0	5	0	
0.135333	-0.00442539	3.69511	0.000501846	0.0790836	0	5	0	
0.1355	0.00637984	-3.70496	0.000452497	0.079601	0	5	0	
0.135667	-0.0119633	3.63487	0.000410872	0.079694	0	5	0	
0.135833	0.0083525	-3.58585	0.000363148	0.0787862	0	5	0	
0.136	-0.0018475	3.55793	0.000285321	0.0779928	0	5	0	
0.136167	0.00315378	-3.58584	0.000238476	0.077475	0	5	0	
0.136333	-0.0066162	3.63031	0.000260509	0.0780237	0	5	0	
0.1365	0.00217206	-3.65311	0.000294368	0.0786732	0	5	0	
0.136667	0.000480847	3.67055	0.000317533	0.0793205	0	5	0	
0.136833	0.00473214	-3.6844	0.00037359	0.0794746	0	5	0	
0.137	-0.00940684	3.65803	0.00044983	0.079328	0	5	0	
0.137167	0.00809247	-3.60628	0.000481262	0.0788318	0	5	0	
0.137333	-0.00599094	3.63349	0.000445728	0.0788288	0	5	0	
0.1375	0.00561189	-3.70351	0.000417999	0.0793886	0	5	0	
0.137667	-0.00929668	3.68695	0.000417788	0.0801209	0	5	0	
0.137833	0.0124956	-3.62263	0.000411653	0.0799142	0	5	0	
0.138	-0.0100195	3.59023	0.000382368	0.0791811	0	5	0	
0.138167	0.00633996	-3.57859	0.000346707	0.0783888	0	5	0	
0.138333	-0.00272491	3.57647	0.000341113	0.0784384	0	5	0	
0.1385	-0.00141618	-3.59294	0.000353069	0.0787221	0	5	0	
0.138667	-0.000147979	3.58918	0.000397309	0.0791391	0	5	0	
0.138833	0.0103672	-3.57274	0.000463674	0.0789929	0	5	0	
0.139	-0.00925657	3.58079	0.000483409	0.0788467	0	5	0	
0.139167	-0.0046555	-3.59558	0.000397844	0.0785546	0	5	0	
0.139333	0.00921008	3.56668	0.000327086	0.0785517	0	5	0	
0.1395	0.000955014	-3.55282	0.000369658	0.0782312	0	5	0	
0.139667	-0.00284531	3.59519	0.000438951	0.0782798	0	5	0	
0.139833	-0.000979298	-3.61491	0.000414457	0.0783762	0	5	0	
0.14	-0.0033	3.58183	0.00037381	0.0786819	0	5	0	
0.140167	0.00921675	-3.57456	0.000380356	0.0785557	0	5	0	
0.140333	-0.00240964	3.57682	0.000365336	0.0785824	0	5	0	
0.1405	-0.00411009	-3.57932	0.000288481	0.0784725	0	5	0	
0.140667	0.00119829	3.5907	0.000283228	0.0786551	0	5	0	
0.140833	0.00243059	-3.59928	0.000358437	0.0786991	0	5	0	
0.141	-0.00164526	3.57731	0.00040308	0.0789814	0	5	0	
0.141167	-0.000596144	-3.54893	0.000357748	0.0788976	0	5	0	
0.141333	0.000555621	3.5271	0.000310827	0.0787237	0	5	0	
0.1415	0.000414595	-3.54792	0.000318551	0.078213	0	5	0	
0.141667	-0.000373998	3.56585	0.00034472	0.0781179	0	5	0	
0.141833	-0.000476188	-3.57781	0.000352764	0.0781627	0	5	0	
0.142	-0.00109906	3.57424	0.000347103	0.078611	0	5	0	
0.142167	0.00134601	-3.55463	0.000337268	0.0786569	0	5	0	
0.142333	0.000796408	3.5256	0.000325372	0.078535	0	5	0	
0.1425	-0.000220183	-3.54643	0.000321101	0.0781301	0	5	0	
0.142667	-0.00278832	3.56708	0.000325474	0.0781938	0	5	0	
0.142833	0.00268439	-3.57851	0.000318681	0.0783841	0	5	0	
0.143	-0.000988384	3.57045	0.000299403	0.0788252	0	5	0	
0.143167	0.00129993	-3.57678	0.00029973	0.0788942	0	5	0	
0.143333	-0.00178928	3.56922	0.000327287	0.0790109	0	5	0	
0.1435	0.00156647	-3.5614	0.000337238	0.0788582	0	5	0	
0.143667	0.000340577	3.54093	0.000307447	0.0788058	0	5	0	
0.143833	-0.00104988	-3.53802	0.000284582	0.0786053	0	5	0	
0.144	-0.00192647	3.5416	0.000312128	0.0787095	0	5	0	
0.144167	0.00379115	-3.5525	0.000362134	0.0787099	0	5	0	
0.144333	-0.00367315	3.53906	0.00038475	0.0788119	0	5	0	
0.1445	0.00367679	-3.54042	0.000366392	0.078628	0	5	0	
0.144667	0.000105202	3.54594	0.000323035	0.0786806	0	5	0	
0.144833	-0.00481899	-3.55026	0.000289215	0.0786808	0	5	0	
0.145	0.00537012	3.53627	0.000311595	0.0787922	0	5	0	
0.145167	0.000611156	-3.53659	0.000393353	0.078593	0	5	0	
0.145333	-0.00419289	3.54242	0.000469234	0.0785663	0	5	0	
0.1455	0.0042624	-3.54083	0.000474896	0.0785824	0	5	0	
0.145667	-0.00409838	3.51328	0.000418776	0.0788376	0	5	0	
0.145833	0.00168166	-3.4828	0.000331415	0.0786669	0	5	0	
0.146	0.0055198	3.4867	0.000245825	0.078353	0	5	0	
0.146167	-0.00749534	-3.53792	0.00022106	0.077962	0	5	0	
0.146333	0.0030166	3.5619	0.000290828	0.0781847	0	5	0	
0.1465	0.00218403	-3.56472	0.000391982	0.0786022	0	5	0	
0.146667	-0.00196017	3.54533	0.000417895	0.0791321	0	5	0	
0.146833	0.000550145	-3.52142	0.000373282	0.0791004	0	5	0	
0.147	-0.00199699	3.52183	0.000337743	0.0789632	0	5	0	
0.147167	0.00438893	-3.52853	0.000346066	0.0786223	0	5	0	
0.147333	-0.00355693	3.51402	0.000355083	0.0785966	0	5	0	
0.1475	0.00198325	-3.53173	0.000338357	0.0785334	0	5	0	
0.147667	-0.00133233	3.52163	0.000331991	0.0788129	0	5	0	
0.147833	0.00280086	-3.5124	0.000350094	0.0788183	0	5	0	
0.148	-0.00337725	3.50666	0.000362541	0.0788645	0	5	0	
0.148167	0.00380498	-3.496	0.000353165	0.078417	0	5	0	
0.148333	-0.0039522	3.5012	0.000344211	0.078186	0	5	0	
0.1485	0.00284587	-3.5521	0.000344893	0.0781478	0	5	0	
0.148667	-0.000131459	3.56841	0.000348999	0.0788644	0	5	0	
0.148833	0.00203889	-3.56165	0.000368515	0.0794898	0	5	0	
0.149	-0.00535482	3.53105	0.000405416	0.0799016	0	5	0	
0.149167	0.00503966	-3.51843	0.000427375	0.079567	0	5	0	
0.149333	-0.00182605	3.51433	0.000420357	0.0793028	0	5	0	
0.1495	0.00179565	-3.50923	0.000418948	0.0790274	0	5	0	
0.149667	-0.00199828	3.49238	0.000440882	0.0791136	0	5	0	
0.149833	0.00205328	-3.48563	0.000466236	0.0790459	0	5	0	
0.15	-0.00267129	3.47887	0.000473947	0.0790698	0	5	0	
0.150167	0.00189144	-3.47637	0.000445252	0.0788159	0	5	0	
0.150333	0.00482214	3.45306	0.00038483	0.0786538	0	5	0	
0.1505	-0.00673668	-3.44728	0.000344031	0.0783083	0	5	0	
0.150667	0.00265934	3.46407	0.000361649	0.0782661	0	5	0	
0.150833	-0.000120621	-3.48097	0.000388716	0.0782084	0	5	0	
0.151	0.00486632	3.47883	0.000352497	0.0784441	0	5	0	
0.151167	-0.00588102	-3.49078	0.000303168	0.0784962	0	5	0	
0.151333	0.00132371	3.49065	0.000320413	0.078671	0	5	0	
0.1515	0.000895495	-3.47977	0.000360228	0.0785629	0	5	0	
0.151667	0.00453311	3.47375	0.000342586	0.0786612	0	5	0	
0.151833	-0.00308223	-3.50193	0.000318131	0.0787403	0	5	0	
0.152	-0.00355336	3.50105	0.000358343	0.0790441	0	5	0	
0.152167	0.00274507	-3.49095	0.000406338	0.0790232	0	5	0	
0.152333	-0.000289314	3.50538	0.000401155	0.0791925	0	5	0	
0.1525	0.00364844	-3.51469	0.000373336	0.0792555	0	5	0	
0.152667	-0.00340695	3.44249	0.000345392	0.0792798	0	5	0	
0.152833	-0.00275538	-3.40508	0.00029961	0.0787109	0	5	0	
0.153	0.00310282	3.4545	0.000265247	0.0783981	0	5	0	
0.153167	-0.00166457	-3.49228	0.000282174	0.0783802	0	5	0	
0.153333	0.00330065	3.45731	0.000314312	0.0787806	0	5	0	
0.1535	-0.0027027	-3.46931	0.000332117	0.078808	0	5	0	
0.153667	-0.00228824	3.48157	0.000365851	0.0789613	0	5	0	
0.153833	0.00361187	-3.46404	0.000399698	0.0787936	0	5	0	
0.154	1.6122E-05	3.43981	0.000364682	0.0787497	0	5	0	
0.154167	-0.00435022	-3.47557	0.000269551	0.0785491	0	5	0	
0.154333	0.00240912	3.49903	0.000215434	0.0788838	0	5	0	
0.1545	0.00503236	-3.50116	0.00025393	0.0788575	0	5	0	
0.154667	-0.000879971	3.43906	0.000292385	0.0786453	0	5	0	
0.154833	-0.0112258	-3.405	0.000274281	0.0779807	0	5	0	
0.155	0.0102402	3.4042	0.000252608	0.0780645	0	5	0	
0.155167	0.00787854	-3.43407	0.000304929	0.0783179	0	5	0	
0.155333	-0.0167169	3.44879	0.000369612	0.0788272	0	5	0	
0.1555	0.012262	-3.5096	0.000385909	0.0789249	0	5	0	
0.155667	-0.00269695	3.53953	0.000335697	0.0793196	0	5	0	
0.155833	-0.000367671	-3.51516	0.000299556	0.0794779	0	5	0	
0.156	0.00231684	3.43919	0.000271149	0.0794847	0	5	0	
0.156167	0.000156827	-3.41366	0.0002773	0.0788197	0	5	0	
0.156333	-0.00447672	3.41655	0.00033299	0.0785276	0	5	0	
0.1565	0.00961412	-3.44618	0.000416128	0.0784984	0	5	0	
0.156667	-0.00852884	3.42682	0.000469172	0.0788783	0	5	0	
0.156833	0.0025788	-3.42826	0.000427387	0.0787514	0	5	0	
0.157	0.00709608	3.40558	0.000329301	0.07844	0	5	0	
0.157167	-0.00814071	-3.36424	0.000270768	0.0776655	0	5	0	
0.157333	0.00487358	3.33201	0.000298622	0.077328	0	5	0	
0.1575	-0.00369757	-3.42616	0.000359233	0.0774505	0	5	0	
0.157667	0.00466173	3.50137	0.000391599	0.0783418	0	5	0	
0.157833	-0.00316244	-3.45445	0.000411088	0.0786902	0	5	0	
0.158	0.00158027	3.37059	0.000429599	0.0783964	0	5	0	
0.158167	-0.00216837	-3.40398	0.00042304	0.0777527	0	5	0	
0.158333	0.00290285	3.43434	0.000388029	0.0779891	0	5	0	
0.1585	-0.000986193	-3.44326	0.000346787	0.0785574	0	5	0	
0.158667	0.00284099	3.45607	0.000311631	0.0792901	0	5	0	
0.158833	-0.0039872	-3.477	0.000290325	0.0795998	0	5	0	
0.159	0.00226788	3.45925	0.000300652	0.0797806	0	5	0	
0.159167	-0.00231535	-3.41787	0.000327806	0.0793294	0	5	0	
0.159333	0.00309274	3.33113	0.000342179	0.0784896	0	5	0	
0.1595	0.00144341	-3.31941	0.000354633	0.0775045	0	5	0	
0.159667	-0.00386678	3.37771	0.000370661	0.0773344	0	5	0	
0.159833	0.000270795	-3.42986	0.000355166	0.0777608	0	5	0	
0.16	0.0046087	3.40651	0.000318834	0.0783944	0	5	0	
0.160167	-0.00139396	-3.36799	0.000321149	0.0784027	0	5	0	
0.160333	-0.0022195	3.35987	0.000363035	0.0781957	0	5	0	
0.1605	0.00103191	-3.42087	0.000368288	0.078184	0	5	0	
0.160667	0.000692551	3.44462	0.000324	0.0786405	0	5	0	
0.160833	-0.000901323	-3.42647	0.00029341	0.0789146	0	5	0	
0.161	0.000812791	3.40533	0.000310678	0.0789423	0	5	0	
0.161167	0.00199434	-3.39841	0.000351892	0.0786644	0	5	0	
0.161333	-0.00408523	3.38616	0.000382288	0.0785911	0	5	0	
0.1615	0.00406338	-3.40698	0.000383882	0.0785878	0	5	0	
0.161667	-0.00306146	3.4069	0.000373203	0.0787825	0	5	0	
0.161833	0.00624708	-3.39589	0.000382965	0.0787557	0	5	0	
0.162	-0.00870679	3.36977	0.000389647	0.0787165	0	5	0	
0.162167	0.00109257	-3.36682	0.000334954	0.0784262	0	5	0	
0.162333	0.00863313	3.37937	0.000250941	0.0784693	0	5	0	
0.1625	-0.00526664	-3.40428	0.000261789	0.0785011	0	5	0	
0.162667	-0.00235111	3.38393	0.000377424	0.0786282	0	5	0	
0.162833	0.00541584	-3.36116	0.000453394	0.0783505	0	5	0	
0.163	-0.00318729	3.35657	0.000417477	0.0782012	0	5	0	
0.163167	0.00214585	-3.38344	0.00034881	0.078092	0	5	0	
0.163333	-0.00233846	3.39903	0.000336004	0.0784103	0	5	0	
0.1635	0.00196143	-3.41887	0.000342589	0.0786163	0	5	0	
0.163667	0.000473948	3.3933	0.000327731	0.0788518	0	5	0	
0.163833	-0.000490352	-3.37381	0.000317121	0.078662	0	5	0	
0.164	-0.00258718	3.37972	0.00034664	0.0786851	0	5	0	
0.164167	0.0053818	-3.46499	0.000379998	0.0790062	0	5	0	
0.164333	0.000457932	3.47501	0.000357522	0.0800557	0	5	0	
0.1645	-0.00570846	-3.43355	0.000304979	0.0805467	0	5	0	
0.164667	0.00376793	3.38249	0.000316128	0.0803041	0	5	0	
0.164833	0.00424144	-3.37033	0.000399019	0.0791804	0	5	0	
0.165	-0.004875	3.34391	0.000441549	0.0783971	0	5	0	
0.165167	-0.000487091	-3.31357	0.000382461	0.0778585	0	5	0	
0.165333	0.00440441	3.26745	0.0003066	0.0778829	0	5	0	
0.1655	-0.00313569	-3.33814	0.000312797	0.077926	0	5	0	
0.165667	0.00145856	3.3951	0.000383326	0.0783239	0	5	0	
0.165833	0.00295514	-3.34585	0.000436971	0.0781674	0	5	0	
0.166	-0.00449709	3.24411	0.000437375	0.0776486	0	5	0	
0.166167	0.00353596	-3.23866	0.000406885	0.0767231	0	5	0	
0.166333	-0.00197451	3.30744	0.000387687	0.0766482	0	5	0	
0.1665	0.000609745	-3.39342	0.000392902	0.0773619	0	5	0	
0.166667	0.000771734	3.42786	0.00040085	0.0786594	0	5	0	
0.166833	-0.00265731	-3.39975	0.00040037	0.0794513	0	5	0	
0.167	0.0029832	3.3615	0.00038274	0.0790049	0	5	0	
0.167167	-0.00543265	-3.39564	0.00034766	0.078233	0	5	0	
0.167333	0.0110736	3.36834	0.000333577	0.0776517	0	5	0	
0.1675	-0.00696436	-3.33478	0.000388315	0.077718	0	5	0	
0.167667	-0.00496989	3.35327	0.000507795	0.077874	0	5	0	
0.167833	0.00645493	-3.34959	0.000556843	0.0780342	0	5	0	
0.168	-0.00310284	3.36525	0.000486113	0.0780707	0	5	0	
0.168167	0.00293978	-3.41937	0.000390907	0.0784566	0	5	0	
0.168333	-0.00430011	3.34351	0.000370763	0.0786254	0	5	0	
0.1685	0.00230198	-3.31164	0.000382389	0.0788692	0	5	0	
0.168667	0.00316957	3.36549	0.000347225	0.0787663	0	5	0	
0.168833	-0.00660145	-3.35224	0.000299974	0.0787671	0	5	0	
0.169	0.00568732	3.33924	0.000306836	0.0788642	0	5	0	
0.169167	-0.00559513	-3.34092	0.000348701	0.0787809	0	5	0	
0.169333	0.00459926	3.33282	0.000379262	0.0786385	0	5	0	
0.1695	-0.000925889	-3.31976	0.000412032	0.0784841	0	5	0	
0.169667	-0.00407307	3.31659	0.000445727	0.0784129	0	5	0	
0.169833	0.00649748	-3.32265	0.00043682	0.0783516	0	5	0	
0.17	-0.00312599	3.30902	0.000362137	0.0784313	0	5	0	
0.170167	-0.00239243	-3.29141	0.000246782	0.0781564	0	5	0	
0.170333	0.0071064	3.34276	0.000188395	0.0781683	0	5	0	
0.1705	-0.00538223	-3.40812	0.00023846	0.0784197	0	5	0	
0.170667	-0.00424818	3.37232	0.000376584	0.0789672	0	5	0	
0.170833	0.0127555	-3.31872	0.000470199	0.0788804	0	5	0	
0.171	-0.0129134	3.30288	0.000454574	0.0785804	0	5	0	
0.171167	0.00611483	-3.32877	0.000335041	0.078158	0	5	0	
0.171333	0.00633544	3.32699	0.000207205	0.0782868	0	5	0	
0.1715	-0.0134585	-3.33906	0.000175518	0.0784084	0	5	0	
0.171667	0.00701696	3.3466	0.000288281	0.0789245	0	5	0	
0.171833	0.00423844	-3.35208	0.000477424	0.0791691	0	5	0	
0.172	-0.00677977	3.33686	0.000576263	0.0793238	0	5	0	
0.172167	0.00574219	-3.33851	0.000547445	0.0790358	0	5	0	
0.172333	-0.00505972	3.3097	0.000451258	0.0788558	0	5	0	
0.1725	0.00254689	-3.33027	0.000353056	0.0786976	0	5	0	
0.172667	0.00378962	3.33551	0.000270929	0.0789804	0	5	0	
0.172833	-0.00538284	-3.36491	0.000245869	0.0790725	0	5	0	
0.173	0.00132653	3.36093	0.000303959	0.0791199	0	5	0	
0.173167	0.00353683	-3.2809	0.000378667	0.0786072	0	5	0	
0.173333	-0.00443577	3.21357	0.000359087	0.078134	0	5	0	
0.1735	0.00191999	-3.29907	0.000254455	0.077877	0	5	0	
0.173667	0.000129381	3.3422	0.00016701	0.0783866	0	5	0	
0.173833	-0.000158432	-3.34495	0.000169308	0.0789096	0	5	0	
0.174	0.00122829	3.3709	0.00022593	0.0794477	0	5	0	
0.174167	0.000239338	-3.39886	0.000292946	0.0796319	0	5	0	
0.174333	-0.00204147	3.34605	0.000347358	0.0796696	0	5	0	
0.1745	0.00343187	-3.30198	0.00039095	0.0790948	0	5	0	
0.174667	-0.00507595	3.24925	0.000451028	0.0785154	0	5	0	
0.174833	0.0125944	-3.30179	0.000530477	0.0783025	0	5	0	
0.175	-0.0132427	3.34655	0.000561129	0.0787922	0	5	0	
0.175167	0.0030937	-3.33821	0.000474691	0.0789414	0	5	0	
0.175333	0.00441428	3.2425	0.000335436	0.0786948	0	5	0	
0.1755	-0.00265167	-3.25823	0.000281994	0.0779815	0	5	0	
0.175667	0.00556401	3.27775	0.000296331	0.0779456	0	5	0	
0.175833	-0.0103637	-3.31532	0.000321038	0.0782467	0	5	0	
0.176	0.00866796	3.3364	0.000318795	0.0788728	0	5	0	
0.176167	-0.00411953	-3.35599	0.000326583	0.0791328	0	5	0	
0.176333	0.00311543	3.35378	0.000336187	0.0794059	0	5	0	
0.1765	-0.0034879	-3.34695	0.000346207	0.0792856	0	5	0	
0.176667	0.0014784	3.22098	0.000361164	0.078917	0	5	0	
0.176833	-0.00175388	-3.1133	0.000357278	0.0778371	0	5	0	
0.177	-0.00161121	3.22424	0.000302784	0.0773361	0	5	0	
0.177167	0.00330009	-3.32159	0.000212754	0.0778309	0	5	0	
0.177333	-0.000198059	3.34358	0.000132448	0.0790471	0	5	0	
0.1775	-0.00368689	-3.34667	0.000106149	0.0795738	0	5	0	
0.177667	0.00268189	3.31599	0.000183241	0.0793267	0	5	0	
0.177833	0.00259175	-3.26352	0.000328058	0.0785876	0	5	0	
0.178	-0.00869127	3.2786	0.000443772	0.0781296	0	5	0	
0.178167	0.0126902	-3.23057	0.000455579	0.0776448	0	5	0	
0.178333	-0.00869153	3.21591	0.000389302	0.0776359	0	5	0	
0.1785	0.00107836	-3.28896	0.000298938	0.0778808	0	5	0	
0.178667	0.00554785	3.31007	0.000267412	0.0785697	0	5	0	
0.178833	0.000510029	-3.28607	0.000339331	0.0789527	0	5	0	
0.179	-0.00629134	3.27806	0.000463225	0.0790591	0	5	0	
0.179167	0.00273388	-3.27111	0.000491236	0.078623	0	5	0	
0.179333	0.00954362	3.27905	0.000403771	0.0785542	0	5	0	
0.1795	-0.0109978	-3.31244	0.000349175	0.07869	0	5	0	
0.179667	0.00478259	3.2959	0.000398812	0.0789651	0	5	0	
0.179833	0.00190307	-3.28543	0.000471085	0.0789064	0	5	0	
0.18	-0.00416879	3.29587	0.000473428	0.0789402	0	5	0	
0.180167	0.00596459	-3.29541	0.000427667	0.0789652	0	5	0	
0.180333	-0.00320901	3.26405	0.000354984	0.0790726	0	5	0	
0.1805	-0.00415835	-3.24987	0.000259214	0.0788746	0	5	0	
0.180667	0.0078475	3.25098	0.00020226	0.0786943	0	5	0	
0.180833	-0.0026738	-3.29285	0.000239664	0.0786372	0	5	0	
0.181	-0.00526724	3.29322	0.000356369	0.0788185	0	5	0	
0.181167	0.00997162	-3.24669	0.000437717	0.0787216	0	5	0	
0.181333	-0.0065325	3.21354	0.000435597	0.0784632	0	5	0	
0.1815	-0.00222864	-3.25389	0.00035468	0.0782907	0	5	0	
0.181667	0.00979305	3.29235	0.000304705	0.0785706	0	5	0	
0.181833	-0.00882935	-3.32097	0.000327526	0.0788973	0	5	0	
0.182	0.00479743	3.29299	0.000398602	0.0790973	0	5	0	
0.182167	-0.00157701	-3.26976	0.000434243	0.0789345	0	5	0	
0.182333	-0.00379423	3.26592	0.000424225	0.0788665	0	5	0	
0.1825	0.00520063	-3.25932	0.000388966	0.0787434	0	5	0	
0.182667	0.000418616	3.23204	0.000335969	0.0787161	0	5	0	
0.182833	-0.00657444	-3.24384	0.000291622	0.0785119	0	5	0	
0.183	0.0025701	3.28991	0.0002782	0.0785893	0	5	0	
0.183167	-0.00365196	-3.20032	0.00028617	0.0786381	0	5	0	
0.183333	0.00597774	3.19939	0.000282602	0.0787327	0	5	0	
0.1835	-0.00830559	-3.25966	0.000300277	0.0789588	0	5	0	
0.183667	0.00778643	3.29682	0.000347026	0.0793765	0	5	0	
0.183833	-0.00581971	-3.28733	0.000371577	0.0794624	0	5	0	
0.184	0.00127946	3.28045	0.000321552	0.0790105	0	5	0	
0.184167	-0.00359401	-3.17539	0.000264223	0.0783217	0	5	0	
0.184333	0.00261946	3.15467	0.000284534	0.0778303	0	5	0	
0.1845	0.00664166	-3.17466	0.00039325	0.0776925	0	5	0	
0.184667	-0.0179943	3.27908	0.000461448	0.0780634	0	5	0	
0.184833	0.0150356	-3.3868	0.00043172	0.0790319	0	5	0	
0.185	0.00203235	3.3631	0.000316161	0.0795403	0	5	0	
0.185167	-0.0113094	-3.1184	0.000247114	0.0785672	0	5	0	
0.185333	0.00823023	2.64212	0.000353132	0.0760295	0	5	0	
0.1855	-0.00453177	-2.21002	0.000502437	0.0710313	0	5	0	
0.185667	-0.000234344	2.92145	0.000595214	0.0688528	0	5	0	
0.185833	0.00595604	-3.27328	0.000574542	0.0712393	0	5	0	
0.186	-0.0090762	3.40742	0.00054256	0.0770755	0	5	0	
0.186167	0.00278318	-3.37614	0.000488312	0.0808043	0	5	0	
0.186333	0.00584462	3.20574	0.000391983	0.0800939	0	5	0	
0.1865	-0.00665872	-2.77257	0.000336603	0.0750971	0	5	0	
0.186667	0.00114668	3.27168	0.000350169	0.0726519	0	5	0	
0.186833	0.00144856	-3.04562	0.000373381	0.0718158	0	5	0	
0.187	0.00508069	3.20066	0.000343992	0.0755302	0	5	0	
0.187167	-0.0156237	-3.31297	0.000334145	0.0779552	0	5	0	
0.187333	0.0196324	3.23058	0.000405531	0.0794853	0	5	0	
0.1875	-0.0113838	-3.14622	0.000530575	0.0784952	0	5	0	
0.187667	0.00133927	3.06996	0.000605406	0.0765637	0	5	0	
0.187833	0.00419603	-3.11193	0.000553049	0.0751548	0	5	0	
0.188	-0.00207649	3.19654	0.000438931	0.0760657	0	5	0	
0.188167	-0.000367836	-3.17513	0.000338825	0.0772247	0	5	0	
0.188333	0.00479244	3.14372	0.000284032	0.078	0	5	0	
0.1885	-0.00542336	-3.25836	0.000261241	0.0778582	0	5	0	
0.188667	0.000501973	3.32046	0.000257787	0.0785166	0	5	0	
0.188833	-0.000806298	-3.24723	0.000238922	0.0790471	0	5	0	
0.189	0.00806219	3.18729	0.000207852	0.0793641	0	5	0	
0.189167	-0.00835346	-3.20112	0.00022549	0.0786297	0	5	0	
0.189333	0.00167156	3.2366	0.000329102	0.078523	0	5	0	
0.1895	0.000587258	-3.26242	0.000428882	0.0787652	0	5	0	
0.189667	-0.000585764	3.23848	0.000449448	0.0790441	0	5	0	
0.189833	0.00304218	-3.2148	0.000425743	0.0789606	0	5	0	
0.19	-0.00559924	3.19914	0.00039813	0.078872	0	5	0	
0.190167	0.00306704	-3.2163	0.000361373	0.0787573	0	5	0	
0.190333	0.00134558	3.20029	0.000310947	0.0787823	0	5	0	
0.1905	-0.00391827	-3.20192	0.000295915	0.0786315	0	5	0	
0.190667	0.00761598	3.18733	0.000338219	0.0787033	0	5	0	
0.190833	-0.00543195	-3.19842	0.000402826	0.0787855	0	5	0	
0.191	0.00130508	3.19774	0.000451031	0.0789856	0	5	0	
0.191167	0.00117397	-3.18974	0.000453904	0.078757	0	5	0	
0.191333	-0.00146152	3.16883	0.000406006	0.0784699	0	5	0	
0.1915	0.00118294	-3.21086	0.000337616	0.0782179	0	5	0	
0.191667	-0.000172867	3.21033	0.000288325	0.0783887	0	5	0	
0.191833	-0.00222664	-3.2021	0.000259682	0.0785211	0	5	0	
0.192	0.00681556	3.20706	0.000254436	0.0787347	0	5	0	
0.192167	-0.00494103	-3.21639	0.000292681	0.078761	0	5	0	
0.192333	-0.00277599	3.1834	0.000365408	0.0787839	0	5	0	
0.1925	0.00328247	-3.20302	0.000392545	0.0786809	0	5	0	
0.192667	-0.00125319	3.22622	0.000355508	0.0788645	0	5	0	
0.192833	0.00254369	-3.21866	0.000310996	0.0791191	0	5	0	
0.193	0.00201886	3.18963	0.000279019	0.0793012	0	5	0	
0.193167	-0.011235	-3.20151	0.000259908	0.0791117	0	5	0	
0.193333	0.0097377	3.19832	0.000294427	0.0789535	0	5	0	
0.1935	0.00415549	-3.19871	0.000435299	0.0787805	0	5	0	
0.193667	-0.0110529	3.17161	0.000549727	0.078699	0	5	0	
0.193833	0.00682779	-3.1609	0.000523432	0.0785242	0	5	0	
0.194	-0.000640613	3.16812	0.00038469	0.0785289	0	5	0	
0.194167	-0.000141931	-3.19776	0.000265794	0.0785146	0	5	0	
0.194333	0.00605227	3.18745	0.000208958	0.0787056	0	5	0	
0.1945	-0.01004	-3.19697	0.000220012	0.0787449	0	5	0	
0.194667	0.00655606	3.18317	0.000306362	0.0788613	0	5	0	
0.194833	0.0014464	-3.18878	0.000438676	0.0787661	0	5	0	
0.195	-0.00550914	3.18336	0.000509641	0.0788137	0	5	0	
0.195167	0.00488057	-3.19198	0.000473655	0.0787573	0	5	0	
0.195333	0.000917867	3.17639	0.000375132	0.0789328	0	5	0	
0.1955	-0.00528587	-3.19814	0.000309119	0.0790013	0	5	0	
0.195667	0.00512389	3.17756	0.000313047	0.0791038	0	5	0	
0.195833	-0.00269117	-3.16405	0.000359291	0.0788071	0	5	0	
0.196	0.0019305	3.15635	0.000394701	0.07858	0	5	0	
0.196167	-0.00115519	-3.1731	0.000398497	0.0784115	0	5	0	
0.196333	0.00383706	3.1542	0.000387786	0.0786236	0	5	0	
0.1965	-0.00406488	-3.16256	0.000372892	0.0787163	0	5	0	
0.196667	0.00475674	3.15688	0.000367304	0.0787648	0	5	0	
0.196833	-0.0026286	-3.17572	0.000368834	0.0786224	0	5	0	
0.197	0.00202277	3.19076	0.000380452	0.0786949	0	5	0	
0.197167	0.000660026	-3.18628	0.000393272	0.0787595	0	5	0	
0.197333	0.00079306	3.14599	0.000394388	0.0788731	0	5	0	
0.1975	-0.00208017	-3.15177	0.000367414	0.0787889	0	5	0	
0.197667	0.00554488	3.14542	0.000346123	0.0787641	0	5	0	
0.197833	-0.000885522	-3.1558	0.000368961	0.0786514	0	5	0	
0.198	-0.00323079	3.15311	0.000417008	0.0786664	0	5	0	
0.198167	0.0024226	-3.15997	0.000410722	0.0785844	0	5	0	
0.198333	0.00125741	3.1381	0.000360758	0.0786454	0	5	0	
0.1985	0.00246536	-3.14816	0.000336734	0.0786235	0	5	0	
0.198667	-0.000892576	3.13995	0.000335196	0.0786647	0	5	0	
0.198833	-0.0054793	-3.13687	0.000308409	0.0785376	0	5	0	
0.199	0.00639018	3.14004	0.000289941	0.0784847	0	5	0	
0.199167	0.000784526	-3.16004	0.000337478	0.0783991	0	5	0	
0.199333	-0.00249626	3.14003	0.000403556	0.0785046	0	5	0	
0.1995	-0.000255399	-3.14852	0.000407185	0.0785145	0	5	0	
0.199667	-1.6326E-05	3.14912	0.000384805	0.0786601	0	5	0	
0.199833	0.00608745	-3.15385	0.000402683	0.0787009	0	5	0	
0.2	-0.00679488	3.16182	0.000435756	0.0788347	0	5	0	
0.200167	0.00350558	-3.16352	0.00041979	0.0788518	0	5	0	
0.200333	0.000577619	3.13501	0.000364658	0.0789221	0	5	0	
0.2005	-0.00270409	-3.1377	0.000314461	0.0788698	0	5	0	
0.200667	0.00546107	3.1213	0.000298239	0.0788501	0	5	0	
0.200833	-0.000294492	-3.12716	0.000337887	0.0786982	0	5	0	
0.201	-0.00769757	3.13635	0.000424203	0.0787404	0	5	0	
0.201167	0.00878177	-3.14962	0.00045625	0.0787035	0	5	0	
0.201333	0.00149364	3.11169	0.000370959	0.0788076	0	5	0	
0.2015	-0.00510869	-3.10241	0.000252405	0.0786834	0	5	0	
0.201667	0.00221457	3.1043	0.000243677	0.078575	0	5	0	
0.201833	0.000731269	-3.12352	0.000317635	0.0783644	0	5	0	
0.202	0.00184243	3.13051	0.000376069	0.078431	0	5	0	
0.202167	0.00129484	-3.17291	0.000404655	0.0786084	0	5	0	
0.202333	-0.00634132	3.1405	0.000441266	0.0790279	0	5	0	
0.2025	0.00661952	-3.12345	0.000447304	0.0790228	0	5	0	
0.202667	-4.3651E-05	3.11531	0.000385524	0.0788811	0	5	0	
0.202833	-0.0037617	-3.11889	0.000316962	0.078511	0	5	0	
0.203	0.00233568	3.10189	0.000309238	0.0784843	0	5	0	
0.203167	9.06872E-05	-3.11262	0.000341194	0.0784196	0	5	0	
0.203333	-0.000248692	3.10036	0.000363644	0.0785535	0	5	0	
0.2035	-0.000922309	-3.12248	0.00035932	0.0786533	0	5	0	
0.203667	0.00171379	3.11002	0.000347651	0.0789111	0	5	0	
0.203833	-0.00145109	-3.1132	0.000347178	0.0788485	0	5	0	
0.204	-0.00202642	3.11473	0.000352828	0.0788031	0	5	0	
0.204167	0.000370008	-3.13981	0.000338896	0.0786328	0	5	0	
0.204333	0.00353554	3.13167	0.000313239	0.0787254	0	5	0	
0.2045	-0.00301131	-3.11455	0.000320029	0.0786941	0	5	0	
0.204667	-0.00129256	3.0807	0.000357843	0.0787008	0	5	0	
0.204833	0.000344764	-3.11115	0.000377339	0.0785241	0	5	0	
0.205	-0.00149138	3.10485	0.000377185	0.0785242	0	5	0	
0.205167	0.00472815	-3.09891	0.00038896	0.0784546	0	5	0	
0.205333	-0.00247189	3.10736	0.000391171	0.0787131	0	5	0	
0.2055	-0.00254059	-3.13474	0.000351483	0.0789255	0	5	0	
0.205667	0.00226798	3.08391	0.000304793	0.0790491	0	5	0	
0.205833	-0.00248676	-3.07818	0.00027687	0.0787092	0	5	0	
0.206	0.0095382	3.11591	0.000266364	0.0787165	0	5	0	
0.206167	-0.0129443	-3.16563	0.000280709	0.0790259	0	5	0	
0.206333	0.00588865	3.13009	0.000338142	0.0792938	0	5	0	
0.2065	-0.00160984	-2.95667	0.000398572	0.0782058	0	5	0	
0.206667	0.00130681	2.51824	0.000399764	0.0759477	0	5	0	
0.206833	0.0026216	-2.15638	0.000375882	0.070921	0	5	0	
0.207	-0.00523792	2.7637	0.000354186	0.0687907	0	5	0	
0.207167	0.00270856	-3.05825	0.000326352	0.0707238	0	5	0	
0.207333	-0.00265421	3.17087	0.000282275	0.0764292	0	5	0	
0.2075	0.00212725	-3.21784	0.000264215	0.0799907	0	5	0	
0.207667	-0.000161781	3.11628	0.00027897	0.0796845	0	5	0	
0.207833	-0.00107883	-2.80543	0.00030511	0.0750928	0	5	0	
0.208	0.00118561	3.2528	0.000322588	0.0735337	0	5	0	
0.208167	-0.00109184	-2.97651	0.000337634	0.0729569	0	5	0	
0.208333	-0.000833922	2.99347	0.000346447	0.0764193	0	5	0	
0.2085	0.0013087	-3.09201	0.000336508	0.0774474	0	5	0	
0.208667	0.0016804	3.08363	0.000312562	0.078343	0	5	0	
0.208833	-0.00467403	-3.00943	0.000301925	0.0783365	0	5	0	
0.209	0.00297122	2.97695	0.000320132	0.0779324	0	5	0	
0.209167	-2.14983E-05	-3.06965	0.000354364	0.0778712	0	5	0	
0.209333	-0.00111255	3.11411	0.000372847	0.0787223	0	5	0	
0.2095	0.00035522	-3.11671	0.000377263	0.0793945	0	5	0	
0.209667	0.00073841	3.06476	0.000385039	0.0794785	0	5	0	
0.209833	-0.00206647	-3.03438	0.000393938	0.0788733	0	5	0	
0.21	0.00157069	3.04729	0.000391231	0.0785963	0	5	0	
0.210167	-0.000281994	-3.04757	0.000382812	0.0785033	0	5	0	
0.210333	-0.00091035	2.98835	0.00037588	0.0784824	0	5	0	
0.2105	0.000893992	-2.99967	0.000361731	0.0782159	0	5	0	
0.210667	0.000850749	3.04551	0.000328889	0.0782741	0	5	0	
0.210833	-0.0041794	-3.07197	0.000295496	0.0784183	0	5	0	
0.211	0.0066248	3.05636	0.000291828	0.078617	0	5	0	
0.211167	-0.00623642	-3.05929	0.000323806	0.0785056	0	5	0	
0.211333	0.00415426	3.0492	0.000375519	0.0784447	0	5	0	
0.2115	-0.000550345	-3.06513	0.000417269	0.0782471	0	5	0	
0.211667	-0.000511924	3.06361	0.000417781	0.0781684	0	5	0	
0.211833	-0.0025019	-3.05416	0.000372849	0.0779367	0	5	0	
0.212	0.00557734	3.0311	0.000320471	0.0779512	0	5	0	
0.212167	-0.0061323	-3.03604	0.000287207	0.0779678	0	5	0	
0.212333	0.00955937	3.05164	0.000282208	0.0783967	0	5	0	
0.2125	-0.00981239	-3.07044	0.000294404	0.0787154	0	5	0	
0.212667	0.00811257	3.04095	0.000326209	0.0789922	0	5	0	
0.212833	-0.0071674	-3.08703	0.000356888	0.0791077	0	5	0	
0.213	0.00743555	3.1439	0.000394215	0.0795436	0	5	0	
0.213167	-0.00186223	-3.0893	0.000467164	0.0796263	0	5	0	
0.213333	-0.00444407	3.01803	0.000541486	0.079305	0	5	0	
0.2135	0.00476928	-3.0375	0.000530124	0.0786872	0	5	0	
0.213667	-0.00216127	3.02482	0.000423906	0.0783846	0	5	0	
0.213833	-0.000568999	-3.00004	0.00029391	0.078014	0	5	0	
0.214	0.00799673	2.9687	0.000223052	0.0776762	0	5	0	
0.214167	-0.0154314	-3.00403	0.000238116	0.0775314	0	5	0	
0.214333	0.0163932	3.04882	0.000333502	0.0781409	0	5	0	
0.2145	-0.00940166	-3.08369	0.00044512	0.0788959	0	5	0	
0.214667	0.00502407	3.07596	0.000499255	0.0794416	0	5	0	
0.214833	-0.00166568	-3.06386	0.00046664	0.079339	0	5	0	
0.215	0.00146419	3.03809	0.000404573	0.0789232	0	5	0	
0.215167	-0.00103255	-3.03856	0.000360768	0.0783955	0	5	0	
0.215333	0.00208759	3.0314	0.000354004	0.0783085	0	5	0	
0.2155	-0.000706374	-3.05151	0.000352026	0.0785514	0	5	0	
0.215667	0.00200008	3.04416	0.000330479	0.079018	0	5	0	
0.215833	-0.00135586	-3.01741	0.000296105	0.0790797	0	5	0	
0.216	0.00379287	3.00707	0.000295886	0.0788358	0	5	0	
0.216167	-0.00425353	-3.03849	0.000358081	0.0785047	0	5	0	
0.216333	-0.00130778	3.04886	0.000459278	0.0785378	0	5	0	
0.2165	0.00562644	-3.03828	0.000509284	0.0785413	0	5	0	
0.216667	-0.000627531	2.99699	0.00045093	0.0784457	0	5	0	
0.216833	-0.00335198	-2.97774	0.000343414	0.0781962	0	5	0	
0.217	0.00630365	3.00559	0.000288805	0.0783038	0	5	0	
0.217167	-0.00964451	-3.03626	0.000291647	0.0785621	0	5	0	
0.217333	0.00976807	3.04801	0.000306094	0.0789399	0	5	0	
0.2175	-0.00490479	-3.10529	0.000335961	0.0791719	0	5	0	
0.217667	7.89812E-05	3.09422	0.000359839	0.0792938	0	5	0	
0.217833	0.000577174	-3.00309	0.000305841	0.0788736	0	5	0	
0.218	0.00119995	2.94477	0.000185157	0.0782717	0	5	0	
0.218167	-0.00435326	-2.96743	0.00012746	0.0779162	0	5	0	
0.218333	0.00360833	3.00648	0.000211604	0.0782766	0	5	0	
0.2185	0.00193389	-3.0749	0.000362953	0.0790231	0	5	0	
0.218667	-0.00743472	3.07461	0.000448393	0.0797827	0	5	0	
0.218833	0.0113148	-3.05844	0.000431135	0.0798881	0	5	0	
0.219	-0.008756	3.00794	0.000356478	0.0794998	0	5	0	
0.219167	-0.00146272	-2.97311	0.000294609	0.0787502	0	5	0	
0.219333	0.00585114	2.9634	0.00028914	0.078432	0	5	0	
0.2195	-0.00635248	-2.98305	0.000307755	0.0784682	0	5	0	
0.219667	0.0068802	2.95946	0.000339099	0.0787189	0	5	0	
0.219833	-0.00135752	-2.96464	0.000360296	0.0787223	0	5	0	
0.22	-0.0010409	2.973	0.000354308	0.0787325	0	5	0	
0.220167	-0.0030359	-2.98519	0.000309467	0.0786673	0	5	0	
0.220333	0.00695976	2.98699	0.000277121	0.078755	0	5	0	
0.2205	-0.00384093	-2.98772	0.000294869	0.0786732	0	5	0	
0.220667	-0.000654416	2.96535	0.00035158	0.0784743	0	5	0	
0.220833	0.00270019	-2.96637	0.000373474	0.0781625	0	5	0	
0.221	-0.00102028	2.98324	0.000352291	0.0780182	0	5	0	
0.221167	-0.000701242	-3.00985	0.000315295	0.0781539	0	5	0	
0.221333	0.00379794	3.00894	0.000293396	0.0785994	0	5	0	
0.2215	-0.00440515	-3.01538	0.000290661	0.0789465	0	5	0	
0.221667	0.00475099	3.01146	0.000315728	0.0791589	0	5	0	
0.221833	-0.00292638	-3.03132	0.00036449	0.0791897	0	5	0	
0.222	0.00097137	3.02304	0.000411063	0.0791588	0	5	0	
0.222167	0.0004125	-2.96056	0.000412022	0.0787409	0	5	0	
0.222333	0.00331713	2.90132	0.000359521	0.0781962	0	5	0	
0.2225	-0.00841591	-2.94773	0.000297387	0.0780571	0	5	0	
0.222667	0.0113176	2.99008	0.000285785	0.0787652	0	5	0	
0.222833	-0.00869091	-2.97867	0.000332884	0.0794308	0	5	0	
0.223	0.00390719	2.96569	0.000390045	0.0795518	0	5	0	
0.223167	0.000958448	-3.00156	0.000414076	0.0791366	0	5	0	
0.223333	-0.00167667	3.00292	0.000412071	0.078862	0	5	0	
0.2235	6.57504E-06	-2.95554	0.000383317	0.0785255	0	5	0	
0.223667	0.00289866	2.89484	0.000320547	0.078174	0	5	0	
0.223833	-0.00587247	-2.93687	0.000250315	0.0778861	0	5	0	
0.224	0.00927964	2.98712	0.000227939	0.0781231	0	5	0	
0.224167	-0.0100445	-3.00101	0.000286496	0.0783903	0	5	0	
0.224333	0.00538966	2.96421	0.00039839	0.0785614	0	5	0	
0.2245	0.00126683	-2.95802	0.000483972	0.0782838	0	5	0	
0.224667	-0.00143033	2.9578	0.000472885	0.0781835	0	5	0	
0.224833	-0.00255001	-3.03789	0.000402536	0.0784084	0	5	0	
0.225	0.00369776	3.06927	0.000355556	0.0789918	0	5	0	
0.225167	-0.00115051	-2.89135	0.000355574	0.078471	0	5	0	
0.225333	-0.000143045	2.32543	0.000353825	0.0763632	0	5	0	
0.2255	0.001091	-1.90945	0.000300039	0.0707662	0	5	0	
0.225667	0.00818606	2.56019	0.000223991	0.0681309	0	5	0	
0.225833	-0.017471	-2.93427	0.000209615	0.0703935	0	5	0	
0.226	0.0135205	3.06809	0.000286334	0.0766829	0	5	0	
0.226167	-0.00701928	-3.12997	0.000387719	0.0803932	0	5	0	
0.226333	0.0113663	3.00053	0.000425449	0.079772	0	5	0	
0.2265	-0.0050076	-2.73617	0.000442132	0.0748759	0	5	0	
0.226667	-0.00899119	3.17293	0.000511306	0.0734283	0	5	0	
0.226833	0.0121739	-2.80805	0.000522007	0.072648	0	5	0	
0.227	-0.00163374	2.81247	0.000410005	0.0757661	0	5	0	
0.227167	-0.00394776	-3.01904	0.000246185	0.0768297	0	5	0	
0.227333	0.00228027	3.02909	0.000216495	0.0784836	0	5	0	
0.2275	-0.0029985	-2.88065	0.000251832	0.0792433	0	5	0	
0.227667	0.00774401	2.74546	0.000266124	0.0786751	0	5	0	
0.227833	-0.0102994	-2.85161	0.00025204	0.0780458	0	5	0	
0.228	0.00535381	3.02414	0.000297259	0.0786405	0	5	0	
0.228167	-0.00228112	-3.03501	0.000382931	0.0793845	0	5	0	
0.228333	0.00441903	2.86689	0.000424455	0.0790257	0	5	0	
0.2285	-0.00523992	-2.82089	0.000415091	0.0779138	0	5	0	
0.228667	0.00303177	2.87474	0.000384993	0.0776988	0	5	0	
0.228833	-0.00332488	-2.91364	0.000357834	0.0781515	0	5	0	
0.229	0.00281035	2.92401	0.000342539	0.0786654	0	5	0	
0.229167	-0.00336296	-2.96846	0.000352626	0.0789474	0	5	0	
0.229333	-0.000355061	3.00184	0.000346125	0.0796205	0	5	0	
0.2295	-0.00505994	-3.02285	0.000298357	0.0802012	0	5	0	
0.229667	0.00848952	2.97225	0.000266156	0.080118	0	5	0	
0.229833	-0.00332081	-2.91662	0.000304383	0.0791749	0	5	0	
0.23	0.00229588	2.88517	0.000360513	0.078407	0	5	0	
0.230167	-0.00214904	-2.92104	0.000355493	0.0783152	0	5	0	
0.230333	-0.00626157	2.91159	0.000332885	0.0787661	0	5	0	
0.2305	0.00350523	-2.87705	0.000311889	0.0787317	0	5	0	
0.230667	0.0102649	2.89303	0.000271889	0.0786241	0	5	0	
0.230833	-0.0157992	-3.01197	0.000279806	0.078995	0	5	0	
0.231	0.00781066	2.98274	0.000388329	0.0794595	0	5	0	
0.231167	0.000745592	-2.73376	0.000515296	0.0782213	0	5	0	
0.231333	0.00290601	2.31638	0.000521276	0.0756227	0	5	0	
0.2315	-0.00267312	-2.14542	0.000448895	0.0713818	0	5	0	
0.231667	0.00266296	2.68605	0.000394546	0.0700525	0	5	0	
0.231833	-0.00553891	-2.87493	0.000382028	0.0717692	0	5	0	
0.232	0.00476414	2.99301	0.000383142	0.0763154	0	5	0	
0.232167	-0.0010839	-3.04372	0.000375049	0.0793146	0	5	0	
0.232333	0.0054713	2.83985	0.000350054	0.0788977	0	5	0	
0.2325	-0.00451054	-2.65109	0.000327187	0.0747388	0	5	0	
0.232667	0.0022996	3.19429	0.000334252	0.0736544	0	5	0	
0.232833	-0.0103388	-3.02326	0.000346008	0.0734667	0	5	0	
0.233	0.0171254	2.83287	0.000385072	0.0759724	0	5	0	
0.233167	-0.0111327	-2.69711	0.000484179	0.0752956	0	5	0	
0.233333	0.00635951	2.44286	0.000598945	0.0747185	0	5	0	
0.2335	-0.0113207	-2.07011	0.00061927	0.0715264	0	5	0	
0.233667	0.0097313	2.44396	0.000591665	0.0692493	0	5	0	
0.233833	9.88221E-05	-2.92675	0.000596413	0.0704287	0	5	0	
0.234	-0.000944475	3.17996	0.000574514	0.07659	0	5	0	
0.234167	-0.00773036	-3.07516	0.000450265	0.0810525	0	5	0	
0.234333	0.0134064	2.80693	0.000318767	0.0806737	0	5	0	
0.2345	-0.0162556	-2.59438	0.000279906	0.075636	0	5	0	
0.234667	0.018357	3.0527	0.000331518	0.0737987	0	5	0	
0.234833	-0.0162614	-2.85542	0.000380533	0.0745386	0	5	0	
0.235	0.00850467	2.84843	0.000416706	0.0780009	0	5	0	
0.235167	-0.00270042	-2.88466	0.000401151	0.0792497	0	5	0	
0.235333	-0.00074895	2.80268	0.000346849	0.0790874	0	5	0	
0.2355	0.00406648	-2.7684	0.000278913	0.0782697	0	5	0	
0.235667	0.00152742	2.76613	0.000210037	0.0773328	0	5	0	
0.235833	-0.00770375	-2.65104	0.000156856	0.0761815	0	5	0	
0.236	0.00508437	2.29435	0.00017312	0.0747588	0	5	0	
0.236167	0.00112323	-2.08422	0.000282494	0.0712656	0	5	0	
0.236333	-0.00177981	2.57864	0.000384372	0.0697415	0	5	0	
0.2365	-0.000206641	-2.79861	0.000435409	0.0712063	0	5	0	
0.236667	0.0021562	2.87023	0.00044548	0.075674	0	5	0	
0.236833	-0.00333488	-2.91276	0.000403174	0.078797	0	5	0	
0.237	0.0122999	2.86753	0.000346002	0.0791988	0	5	0	
0.237167	-0.00822931	-2.70617	0.000355264	0.0762059	0	5	0	
0.237333	-0.00530338	3.10011	0.00047462	0.0752923	0	5	0	
0.2375	0.00769789	-2.85207	0.000526251	0.0751837	0	5	0	
0.237667	0.00114764	2.81197	0.000416963	0.0777816	0	5	0	
0.237833	-0.00439898	-2.85379	0.000229961	0.0782579	0	5	0	
0.238	0.0107422	2.81521	0.000134156	0.0781594	0	5	0	
0.238167	-0.0185516	-2.73748	0.000169109	0.0775812	0	5	0	
0.238333	0.015985	2.72242	0.000305107	0.0770032	0	5	0	
0.2385	-0.00553068	-2.79643	0.000479585	0.0770006	0	5	0	
0.238667	-0.00342143	2.83428	0.000590756	0.077795	0	5	0	
0.238833	0.00452841	-2.87993	0.000555627	0.0787135	0	5	0	
0.239	0.00116538	2.87305	0.000415241	0.0793645	0	5	0	
0.239167	-0.00246616	-2.86042	0.000299945	0.0793535	0	5	0	
0.239333	0.000128783	2.82245	0.000295345	0.0791431	0	5	0	
0.2395	0.00182389	-2.84763	0.000334898	0.0788053	0	5	0	
0.239667	0.00138527	2.85988	0.00033415	0.0788879	0	5	0	
0.239833	-0.00573532	-2.86263	0.000301466	0.0789506	0	5	0	
0.24	0.0085605	2.81108	0.000298622	0.078922	0	5	0	
0.240167	-0.00695026	-2.79886	0.000340992	0.0785215	0	5	0	
0.240333	0.0049917	2.80373	0.000400416	0.0783268	0	5	0	
0.2405	0.00265557	-2.85867	0.00044278	0.0782987	0	5	0	
0.240667	-0.00290626	2.85563	0.000438636	0.0786241	0	5	0	
0.240833	-0.00455342	-2.8633	0.000362145	0.0788119	0	5	0	
0.241	0.0078882	2.85926	0.000273311	0.0790671	0	5	0	
0.241167	-0.00314576	-2.85812	0.00025822	0.0790602	0	5	0	
0.241333	-0.00488796	2.83373	0.000329209	0.0790302	0	5	0	
0.2415	0.00316384	-2.85089	0.000379946	0.0788191	0	5	0	
0.241667	0.00447467	2.84563	0.00036764	0.0787132	0	5	0	
0.241833	-0.0112363	-2.74538	0.000360228	0.0780171	0	5	0	
0.242	0.00726967	2.3682	0.000411146	0.0765307	0	5	0	
0.242167	-0.00190249	-2.0533	0.000522861	0.0724875	0	5	0	
0.242333	-0.00122191	2.52156	0.000622689	0.0704856	0	5	0	
0.2425	0.0022137	-2.79957	0.000700248	0.0719983	0	5	0	
0.242667	-0.0087171	2.90248	0.000700656	0.0766773	0	5	0	
0.242833	0.00124137	-2.91635	0.000559716	0.0795745	0	5	0	
0.243	0.0116427	2.84441	0.0003463	0.0792634	0	5	0	
0.243167	-0.0184213	-2.68462	0.000253958	0.0757338	0	5	0	
0.243333	0.0129123	3.03046	0.000351307	0.0744669	0	5	0	
0.2435	-0.00944133	-2.74326	0.000503292	0.0739241	0	5	0	
0.243667	0.00334579	2.7377	0.000538381	0.0764074	0	5	0	
0.243833	-0.00174835	-2.86498	0.000477396	0.0776574	0	5	0	
0.244	0.00551184	2.87362	0.00038251	0.0787241	0	5	0	
0.244167	-0.0137936	-2.75762	0.000339516	0.0786833	0	5	0	
0.244333	0.0106146	2.67157	0.000379479	0.0777405	0	5	0	
0.2445	-0.00232095	-2.77698	0.000489812	0.0772764	0	5	0	
0.244667	-0.00400983	2.8467	0.000538413	0.0780879	0	5	0	
0.244833	0.00187903	-2.82912	0.000483442	0.0788974	0	5	0	
0.245	-0.0017407	2.79441	0.000383758	0.0790167	0	5	0	
0.245167	0.000315045	-2.82524	0.000302079	0.0786644	0	5	0	
0.245333	0.00458161	2.85684	0.000241013	0.0788333	0	5	0	
0.2455	-0.00951733	-2.85504	0.000213591	0.0791313	0	5	0	
0.245667	0.00796567	2.81545	0.000245859	0.0792266	0	5	0	
0.245833	-0.00533169	-2.8067	0.000338232	0.078923	0	5	0	
0.246	0.00109667	2.81908	0.000413214	0.0787595	0	5	0	
0.246167	-0.00177015	-2.82979	0.000447288	0.0787164	0	5	0	
0.246333	-0.000681925	2.82625	0.00044595	0.0789576	0	5	0	
0.2465	0.00154334	-2.84299	0.000422375	0.0791784	0	5	0	
0.246667	-0.000150433	2.84702	0.00037622	0.079369	0	5	0	
0.246833	-0.000901429	-2.82578	0.000331025	0.0792174	0	5	0	
0.247	0.00326684	2.77942	0.000304477	0.0788868	0	5	0	
0.247167	-0.00919311	-2.76203	0.000295559	0.0784974	0	5	0	
0.247333	0.0110174	2.75964	0.00030523	0.0784776	0	5	0	
0.2475	-0.00584903	-2.81101	0.00033926	0.0786846	0	5	0	
0.247667	0.00300515	2.84186	0.000375201	0.0791656	0	5	0	
0.247833	-0.00357683	-2.868	0.000375587	0.0794924	0	5	0	
0.248	0.000654983	2.8382	0.000387714	0.0795353	0	5	0	
0.248167	0.00658658	-2.78165	0.000424905	0.0789001	0	5	0	
0.248333	0.000637326	2.71771	0.000425146	0.0781313	0	5	0	
0.2485	-0.00734188	-2.76217	0.000362128	0.0777429	0	5	0	
0.248667	0.00770747	2.8031	0.000317047	0.0782111	0	5	0	
0.248833	-0.00479692	-2.82154	0.000339537	0.0787681	0	5	0	
0.249	0.00393028	2.79635	0.000402033	0.0791309	0	5	0	
0.249167	0.00105034	-2.85412	0.000468609	0.0793087	0	5	0	
0.249333	-0.00341903	2.89762	0.000499942	0.0796874	0	5	0	
0.2495	-0.00139699	-2.75917	0.000415947	0.0790361	0	5	0	
0.249667	0.0126929	2.20148	0.000282599	0.0765454	0	5	0	
0.249833	-0.0163629	-1.77461	0.000221449	0.0702259	0	5	0	
0.25	0.0134356	1.99674	0.000308686	0.0663897	0	5	0	
0.250167	-0.00666263	-2.0435	0.000421236	0.0652798	0	5	0	
0.250333	-0.000106339	2.54223	0.000485742	0.0696256	0	5	0	
0.2505	0.00745404	-2.88452	0.000477575	0.0748132	0	5	0	
0.250667	-0.00510789	2.96818	0.000406164	0.0785995	0	5	0	
0.250833	-0.00188396	-2.68866	0.000287003	0.0759892	0	5	0	
0.251	0.00921866	2.42799	0.000214001	0.0719278	0	5	0	
0.251167	-0.00882731	-1.65422	0.000240679	0.0619017	0	5	0	
0.251333	0.00425896	2.44511	0.000362827	0.0609608	0	5	0	
0.2515	0.0032434	-2.67241	0.000472455	0.0634208	0	5	0	
0.251667	-0.00232886	2.86107	0.000479695	0.0734338	0	5	0	
0.251833	-3.47202E-05	-2.7593	0.000393188	0.0781142	0	5	0	
0.252	0.00441496	2.1935	0.000302959	0.0762702	0	5	0	
0.252167	-0.0042569	-1.8044	0.000258574	0.0673941	0	5	0	
0.252333	0.00841147	2.64579	0.00026998	0.0636853	0	5	0	
0.2525	-0.00710369	-2.69055	0.000319027	0.0654249	0	5	0	
0.252667	0.00275895	2.77728	0.000389939	0.0739506	0	5	0	
0.252833	-0.00100009	-2.85082	0.000414347	0.0783006	0	5	0	
0.253	0.00372806	2.76871	0.000388081	0.0787895	0	5	0	
0.253167	2.43314E-05	-2.54145	0.000364392	0.0749979	0	5	0	
0.253333	0.00133071	2.77966	0.000362746	0.0728184	0	5	0	
0.2535	-0.00653893	-2.62682	0.000343049	0.0723047	0	5	0	
0.253667	0.00953297	2.75392	0.000317181	0.0761411	0	5	0	
0.253833	-0.00572882	-2.77655	0.000321796	0.0779668	0	5	0	
0.254	0.00727359	2.32193	0.000362254	0.0774067	0	5	0	
0.254167	-0.0115676	-1.73673	0.000389987	0.0713699	0	5	0	
0.254333	0.0131552	1.66409	0.000411158	0.0658924	0	5	0	
0.2545	-0.00729807	-1.74503	0.000415137	0.0627139	0	5	0	
0.254667	0.00462978	2.5234	0.000393203	0.0665491	0	5	0	
0.254833	-0.00623908	-2.92994	0.000336946	0.0729138	0	5	0	
0.255	0.0108752	2.99351	0.000304909	0.0784566	0	5	0	
0.255167	-0.0109334	-2.8067	0.000294591	0.0779137	0	5	0	
0.255333	0.0107325	2.96786	0.000294425	0.0757215	0	5	0	
0.2555	-0.00601251	-2.52983	0.00026339	0.06984	0	5	0	
0.255667	0.00219215	2.8505	0.000252609	0.0706384	0	5	0	
0.255833	-0.00162026	-2.66344	0.00027598	0.0712798	0	5	0	
0.256	0.00416764	2.73793	0.000323345	0.0764313	0	5	0	
0.256167	-0.000887927	-2.7321	0.000331534	0.0784529	0	5	0	
0.256333	0.00145695	2.56615	0.000285136	0.0784516	0	5	0	
0.2565	-0.000604539	-2.47179	0.000215592	0.0754031	0	5	0	
0.256667	0.00108046	1.90271	0.000189604	0.0717391	0	5	0	
0.256833	8.79982E-05	-1.63087	0.000243384	0.0666151	0	5	0	
0.257	-0.00414041	2.34907	0.000353734	0.0665365	0	5	0	
0.257167	0.00984142	-2.76158	0.000441236	0.0706504	0	5	0	
0.257333	-0.00701535	2.79076	0.000461925	0.0769728	0	5	0	
0.2575	-0.000304271	-2.88169	0.000416963	0.0796244	0	5	0	
0.257667	0.00695308	2.86299	0.000387563	0.0794916	0	5	0	
0.257833	-0.00835639	-2.90145	0.000402577	0.076517	0	5	0	
0.258	0.00541048	3.14753	0.000463149	0.0767267	0	5	0	
0.258167	-0.00198265	-2.57653	0.000532216	0.0741179	0	5	0	
0.258333	-0.00357249	2.09124	0.000588432	0.0736081	0	5	0	
0.2585	0.00273816	-1.74366	0.000609853	0.0678239	0	5	0	
0.258667	0.00029733	1.81796	0.000554032	0.064293	0	5	0	
0.258833	-0.00478522	-1.63311	0.000432092	0.0620578	0	5	0	
0.259	0.00465789	1.79513	0.000323019	0.0642553	0	5	0	
0.259167	-3.60148E-05	-2.06655	0.000324735	0.0667742	0	5	0	
0.259333	-0.00734093	2.65897	0.000429348	0.0703293	0	5	0	
0.2595	0.0088055	-2.74544	0.000530535	0.0707678	0	5	0	
0.259667	-0.000311725	2.99682	0.000514353	0.0726867	0	5	0	
0.259833	-0.00709876	-2.56271	0.000394436	0.0705247	0	5	0	
0.26	0.00715588	2.84635	0.000301332	0.0718562	0	5	0	
0.260167	-0.000619115	-2.6341	0.000313692	0.0688483	0	5	0	
0.260333	0.00280879	2.87837	0.000379559	0.0711247	0	5	0	
0.2605	-0.00599953	-2.6149	0.000443089	0.0718474	0	5	0	
0.260667	-0.000382041	2.63922	0.000554199	0.075235	0	5	0	
0.260833	0.0154811	-2.65439	0.000697842	0.0763509	0	5	0	
0.261	-0.0159759	2.49246	0.000754207	0.0766108	0	5	0	
0.261167	0.00990364	-2.5664	0.000626475	0.0751192	0	5	0	
0.261333	0.000567163	2.57744	0.000387119	0.0742085	0	5	0	
0.2615	-0.0148581	-2.63614	0.000225493	0.0744447	0	5	0	
0.261667	0.0211663	2.73498	0.00022617	0.0767994	0	5	0	
0.261833	-0.0119857	-2.83206	0.00039001	0.0786732	0	5	0	
0.262	0.00180802	2.82628	0.000559586	0.0796355	0	5	0	
0.262167	0.00481337	-2.95242	0.00063659	0.07888	0	5	0	
0.262333	-0.0139643	2.84795	0.000614466	0.078811	0	5	0	
0.2625	0.0154139	-2.80444	0.000518749	0.0787773	0	5	0	
0.262667	0.00128461	2.80046	0.000373234	0.079617	0	5	0	
0.262833	-0.0133933	-2.77167	0.000241331	0.0791031	0	5	0	
0.263	0.00886221	2.68678	0.000252202	0.0785543	0	5	0	
0.263167	0.00159879	-2.53343	0.000409457	0.0772885	0	5	0	
0.263333	-0.0135166	2.05959	0.000620621	0.0750294	0	5	0	
0.2635	0.023507	-1.71648	0.000770404	0.0694978	0	5	0	
0.263667	-0.00611481	2.29636	0.000777893	0.0669923	0	5	0	
0.263833	-0.0160604	-2.70074	0.000652974	0.0698849	0	5	0	
0.264	0.0194108	2.92589	0.000568192	0.0770439	0	5	0	
0.264167	-0.0152117	-2.91756	0.000577858	0.08104	0	5	0	
0.264333	0.0170584	2.78581	0.000635211	0.0796323	0	5	0	
0.2645	-0.0179029	-2.65517	0.000634662	0.0740706	0	5	0	
0.264667	0.0198207	3.01642	0.000641293	0.0728185	0	5	0	
0.264833	-0.0148185	-2.6347	0.000635261	0.0725067	0	5	0	
0.265	0.0109722	2.60922	0.000550118	0.0757262	0	5	0	
0.265167	-0.0100188	-2.64229	0.000391926	0.0759692	0	5	0	
0.265333	0.00796514	2.6413	0.000260534	0.0768241	0	5	0	
0.2655	-0.00337012	-2.67298	0.000221805	0.0776689	0	5	0	
0.265667	-0.00104508	2.66007	0.000265523	0.0781093	0	5	0	
0.265833	-0.00310941	-2.77821	0.00031588	0.0783312	0	5	0	
0.266	0.0121755	2.85196	0.000364068	0.0788638	0	5	0	
0.266167	-0.0142133	-2.67703	0.000439965	0.0782951	0	5	0	
0.266333	0.011297	2.10627	0.000529483	0.0757449	0	5	0	
0.2665	-0.00966993	-1.74788	0.000531424	0.0697361	0	5	0	
0.266667	0.00838818	2.28683	0.000441815	0.0673078	0	5	0	
0.266833	-0.00455371	-2.73395	0.000355989	0.0704523	0	5	0	
0.267	0.00847843	2.91063	0.000342086	0.0774697	0	5	0	
0.267167	-0.00996675	-2.89577	0.000362593	0.0812261	0	5	0	
0.267333	0.0021847	2.79126	0.000366966	0.0803534	0	5	0	
0.2675	-2.67648E-05	-2.67179	0.000303575	0.0755058	0	5	0	
0.267667	0.0107447	2.93569	0.000211853	0.0738044	0	5	0	
0.267833	-0.0121712	-2.61239	0.000168927	0.0730839	0	5	0	
0.268	0.00920894	2.6404	0.000250513	0.0760673	0	5	0	
0.268167	-0.00706164	-2.74266	0.000349443	0.0772043	0	5	0	
0.268333	0.0085062	2.7377	0.000402953	0.0784503	0	5	0	
0.2685	-0.00834293	-2.69458	0.000409812	0.0788922	0	5	0	
0.268667	0.00570524	2.65467	0.000413984	0.0784805	0	5	0	
0.268833	-0.00227281	-2.66487	0.000425305	0.0778514	0	5	0	
0.269	0.00414409	2.69905	0.000439327	0.0777638	0	5	0	
0.269167	-0.00641752	-2.7509	0.000452669	0.078103	0	5	0	
0.269333	0.00803189	2.7076	0.000454903	0.0784589	0	5	0	
0.2695	-0.00667974	-2.65441	0.000429843	0.0783017	0	5	0	
0.269667	0.00278262	2.70761	0.000406273	0.0784215	0	5	0	
0.269833	-0.002719	-2.79393	0.000389381	0.078949	0	5	0	
0.27	0.00582418	2.7467	0.000340288	0.0793892	0	5	0	
0.270167	-0.0126548	-2.68669	0.00027666	0.0789418	0	5	0	
0.270333	0.0121655	2.70603	0.000241164	0.0785721	0	5	0	
0.2705	-0.00599147	-2.78683	0.000259697	0.0787396	0	5	0	
0.270667	0.00707514	2.7594	0.000293655	0.0791599	0	5	0	
0.270833	-0.00731313	-2.70523	0.000330831	0.0787804	0	5	0	
0.271	-0.00435508	2.69854	0.000421952	0.0783554	0	5	0	
0.271167	0.0102959	-2.74928	0.000503358	0.0782751	0	5	0	
0.271333	-0.00368371	2.71136	0.00048186	0.0786651	0	5	0	
0.2715	-0.00495007	-2.72877	0.000362941	0.0787911	0	5	0	
0.271667	0.00821723	2.77008	0.000307826	0.0791281	0	5	0	
0.271833	-0.00204681	-2.80244	0.000349218	0.0792777	0	5	0	
0.272	0.00242202	2.72043	0.000409763	0.0791628	0	5	0	
0.272167	-0.00509382	-2.68172	0.000384335	0.0784258	0	5	0	
0.272333	0.0110757	2.65994	0.000342705	0.0781091	0	5	0	
0.2725	-0.00872234	-2.7162	0.000343056	0.0782079	0	5	0	
0.272667	0.00397711	2.71388	0.000393044	0.0788002	0	5	0	
0.272833	-0.00164802	-2.75685	0.00041972	0.0790147	0	5	0	
0.273	0.00290775	2.75207	0.000401666	0.0790805	0	5	0	
0.273167	-1.38922E-05	-2.73828	0.000361944	0.0786945	0	5	0	
0.273333	0.00220842	2.68158	0.00032279	0.0784532	0	5	0	
0.2735	-0.00564242	-2.7053	0.000278262	0.078284	0	5	0	
0.273667	0.0157354	2.69647	0.000273633	0.0784791	0	5	0	
0.273833	-0.0125365	-2.74448	0.000314165	0.0785859	0	5	0	
0.274	0.00679724	2.76614	0.000408679	0.0788439	0	5	0	
0.274167	-0.00143432	-2.76599	0.000460439	0.0788814	0	5	0	
0.274333	-0.000229908	2.7011	0.000465436	0.0788179	0	5	0	
0.2745	0.00828458	-2.68085	0.000425048	0.0784015	0	5	0	
0.274667	0.000273688	2.67721	0.00033816	0.0781684	0	5	0	
0.274833	-0.0102984	-2.73268	0.000232047	0.078272	0	5	0	
0.275	0.014477	2.76246	0.000217627	0.0787771	0	5	0	
0.275167	-0.00493271	-2.77312	0.000338152	0.0790752	0	5	0	
0.275333	-0.00169341	2.73765	0.000487539	0.0791164	0	5	0	
0.2755	0.00275674	-2.75005	0.000521111	0.0788828	0	5	0	
0.275667	0.00271693	2.74739	0.000481777	0.0785945	0	5	0	
0.275833	-0.000451768	-2.59852	0.000449947	0.0774899	0	5	0	
0.276	-0.00213775	2.15032	0.000435722	0.0754425	0	5	0	
0.276167	-0.00332744	-1.91855	0.000383365	0.0711265	0	5	0	
0.276333	0.00964174	2.40799	0.000329861	0.0695065	0	5	0	
0.2765	-0.00869433	-2.6722	0.000345709	0.0715658	0	5	0	
0.276667	0.00130568	2.81192	0.000432759	0.0766948	0	5	0	
0.276833	-0.00163241	-2.86992	0.000465072	0.0798283	0	5	0	
0.277	0.0120847	2.82794	0.000410443	0.0795902	0	5	0	
0.277167	-0.0115487	-2.74012	0.000360339	0.0757055	0	5	0	
0.277333	0.001933	3.02799	0.000384458	0.0743179	0	5	0	
0.2775	-0.00184587	-2.64319	0.000383829	0.0732251	0	5	0	
0.277667	0.00681637	2.58959	0.00030017	0.0755384	0	5	0	
0.277833	-0.0105121	-2.74003	0.000248485	0.0765842	0	5	0	
0.278	0.00427366	2.79263	0.000294436	0.0782722	0	5	0	
0.278167	0.00658809	-2.69745	0.00037607	0.0790553	0	5	0	
0.278333	-0.00687308	2.67255	0.000360166	0.0788605	0	5	0	
0.2785	-0.00186381	-2.82294	0.000275662	0.0791668	0	5	0	
0.278667	0.00375021	2.83495	0.000248147	0.0799087	0	5	0	
0.278833	-0.000803826	-2.64456	0.000365229	0.0791311	0	5	0	
0.279	-0.00807208	2.36121	0.000515523	0.0765147	0	5	0	
0.279167	0.0157444	-2.42167	0.000563759	0.0740644	0	5	0	
0.279333	-0.0181791	2.64679	0.000498073	0.0741333	0	5	0	
0.2795	0.0112103	-2.72144	0.000397065	0.0746055	0	5	0	
0.279667	0.00302383	2.60134	0.00028089	0.0750763	0	5	0	
0.279833	-0.010808	-2.7272	0.000211286	0.0755773	0	5	0	
0.28	0.00910807	2.87333	0.000240665	0.0771593	0	5	0	
0.280167	-0.00559381	-2.78219	0.000369155	0.0772258	0	5	0	
0.280333	-0.000437189	2.67616	0.000523833	0.0761027	0	5	0	
0.2805	0.00790755	-2.94561	0.00064864	0.075996	0	5	0	
0.280667	-0.0110812	3.06008	0.000700386	0.078697	0	5	0	
0.280833	0.0081981	-2.75281	0.000643931	0.0798126	0	5	0	
0.281	-0.000974077	2.25331	0.000524307	0.077801	0	5	0	
0.281167	-0.00286036	-2.07803	0.000435164	0.0725313	0	5	0	
0.281333	0.00452443	2.47856	0.000406627	0.0703765	0	5	0	
0.2815	-0.00153851	-2.64599	0.000402081	0.0715439	0	5	0	
0.281667	0.000661168	2.6959	0.000386128	0.0750132	0	5	0	
0.281833	0.00119475	-2.74718	0.00035299	0.0773553	0	5	0	
0.282	0.0005267	2.7259	0.0003218	0.0778961	0	5	0	
0.282167	-0.00414393	-2.63372	0.00028079	0.0755447	0	5	0	
0.282333	0.0136347	2.92117	0.000248689	0.0748192	0	5	0	
0.2825	-0.0156527	-2.78244	0.00025323	0.0748445	0	5	0	
0.282667	0.010604	2.79538	0.000327406	0.0774693	0	5	0	
0.282833	-0.000514808	-2.62913	0.000425849	0.0772389	0	5	0	
0.283	-0.000492889	2.08525	0.000479511	0.0751328	0	5	0	
0.283167	0.00577403	-1.77382	0.000481546	0.0696585	0	5	0	
0.283333	-0.011842	2.28816	0.000427967	0.0669963	0	5	0	
0.2835	0.0103361	-2.63056	0.000344032	0.0690011	0	5	0	
0.283667	-0.00298673	2.82833	0.000251218	0.0753981	0	5	0	
0.283833	0.00114085	-2.92657	0.000187911	0.0798805	0	5	0	
0.284	0.00638754	2.8284	0.000186559	0.0800379	0	5	0	
0.284167	-0.010117	-2.51843	0.000228772	0.0743242	0	5	0	
0.284333	0.0071322	2.26894	0.000308026	0.070324	0	5	0	
0.2845	-0.00156154	-1.66281	0.000397961	0.0637033	0	5	0	
0.284667	-0.00191341	2.32692	0.000475014	0.0649612	0	5	0	
0.284833	0.00608351	-2.64833	0.000502984	0.0681023	0	5	0	
0.285	0.00184032	2.67907	0.000431867	0.0747655	0	5	0	
0.285167	-0.01297	-2.65709	0.000331586	0.077697	0	5	0	
0.285333	0.0139016	2.62045	0.000316258	0.0767693	0	5	0	
0.2855	-0.00698373	-2.65181	0.000382369	0.0724723	0	5	0	
0.285667	0.0152425	3.05223	0.00041279	0.0723795	0	5	0	
0.285833	-0.0208522	-2.65532	0.000380201	0.0723079	0	5	0	
0.286	0.0117993	2.69169	0.000391885	0.0762952	0	5	0	
0.286167	0.0023632	-2.81156	0.000476151	0.0770401	0	5	0	
0.286333	-0.00148814	2.69166	0.000472595	0.0776015	0	5	0	
0.2865	-0.00328222	-2.55751	0.00036074	0.0769333	0	5	0	
0.286667	0.00498138	2.59059	0.000244523	0.076306	0	5	0	
0.286833	0.000129877	-2.73483	0.000212818	0.0768572	0	5	0	
0.287	0.00360311	2.73994	0.000234546	0.0781379	0	5	0	
0.287167	-0.00520025	-2.675	0.000248446	0.0782938	0	5	0	
0.287333	0.00578553	2.50267	0.000273013	0.0775738	0	5	0	
0.2875	-0.00287792	-2.58344	0.000298231	0.0758521	0	5	0	
0.287667	0.00557021	2.5832	0.000299775	0.0755369	0	5	0	
0.287833	-0.0115073	-2.65672	0.000295257	0.0743568	0	5	0	
0.288	0.00626616	2.54306	0.000380711	0.0745923	0	5	0	
0.288167	0.0205382	-2.34703	0.00064824	0.0738294	0	5	0	
0.288333	-0.0521768	2.33278	0.000909938	0.0738897	0	5	0	
0.2885	0.0132632	-2.54133	0.000981115	0.0734055	0	5	0	
0.288667	0.0384367	2.70218	0.000759085	0.0741581	0	5	0	
0.288833	-0.0550778	-2.87114	0.000696017	0.0748156	0	5	0	
0.289	0.0490638	2.4632	0.000765218	0.0757603	0	5	0	
0.289167	-0.042534	-2.01735	0.000909846	0.0718568	0	5	0	
0.289333	0.0192918	2.39319	0.000897266	0.0684616	0	5	0	
0.2895	-0.00800814	-2.55827	0.000933361	0.0672046	0	5	0	
0.289667	-0.0029227	2.74758	0.000843248	0.0705593	0	5	0	
0.289833	0.000294691	-2.73297	0.000636666	0.0741193	0	5	0	
0.29	0.00172528	2.11659	0.000383497	0.0735911	0	5	0	
0.290167	0.00852729	-1.52028	0.0002308	0.0655111	0	5	0	
0.290333	-0.0138358	2.22587	0.000248454	0.0601387	0	5	0	
0.2905	0.00239485	-2.27208	0.000236917	0.0604804	0	5	0	
0.290667	0.0121579	2.57496	0.000343161	0.0696312	0	5	0	
0.290833	-0.0237769	-2.87784	0.000469118	0.0755807	0	5	0	
0.291	0.0256427	2.74776	0.00055028	0.076966	0	5	0	
0.291167	-0.0206884	-2.52424	0.000602424	0.0724723	0	5	0	
0.291333	0.0105905	2.87296	0.000520212	0.0705913	0	5	0	
0.2915	-0.0106623	-2.48186	0.000411227	0.0686729	0	5	0	
0.291667	0.0218452	2.52465	0.000304547	0.0712348	0	5	0	
0.291833	-0.0241961	-2.87067	0.000342364	0.0728799	0	5	0	
0.292	0.00400358	2.92118	0.000399156	0.0764429	0	5	0	
0.292167	0.0101345	-2.77934	0.000400303	0.0784965	0	5	0	
0.292333	-0.0131581	2.66767	0.000382275	0.078036	0	5	0	
0.2925	0.012215	-2.72377	0.000490399	0.0764543	0	5	0	
0.292667	0.000359098	2.72726	0.000611773	0.0761505	0	5	0	
0.292833	-0.0143161	-2.73541	0.00059397	0.0767502	0	5	0	
0.293	0.0191273	2.71164	0.00051069	0.0772911	0	5	0	
0.293167	-0.00943294	-2.76769	0.000419656	0.0778257	0	5	0	
0.293333	0.00588936	2.84835	0.000338624	0.0787587	0	5	0	
0.2935	-0.0076978	-2.75268	0.000232693	0.0787177	0	5	0	
0.293667	0.00455682	2.1458	0.000175904	0.0766381	0	5	0	
0.293833	-0.00017051	-1.74723	0.000157291	0.0704285	0	5	0	
0.294	0.0090813	2.33798	0.000138298	0.0672801	0	5	0	
0.294167	-0.0162919	-2.74552	0.000147037	0.0695212	0	5	0	
0.294333	0.0131759	2.89856	0.000218966	0.076341	0	5	0	
0.2945	-0.0058664	-2.93603	0.000379129	0.0805892	0	5	0	
0.294667	-0.000177284	2.85279	0.00058728	0.0803667	0	5	0	
0.294833	0.00455899	-2.71675	0.000790335	0.0755991	0	5	0	
0.295	-0.0035065	3.03711	0.000839796	0.0741001	0	5	0	
0.295167	-0.00604066	-2.72738	0.000690545	0.0734232	0	5	0	
0.295333	0.0107835	2.77587	0.000481155	0.0769501	0	5	0	
0.2955	-0.0134259	-2.73678	0.000361446	0.0772229	0	5	0	
0.295667	0.0243509	2.22887	0.000396221	0.0761322	0	5	0	
0.295833	-0.0291953	-1.84272	0.00049984	0.0714437	0	5	0	
0.296	0.023583	2.34065	0.000561897	0.0687713	0	5	0	
0.296167	-0.0188327	-2.73415	0.00052584	0.0706993	0	5	0	
0.296333	0.0103857	2.90859	0.000404151	0.0766262	0	5	0	
0.2965	0.00762685	-2.8504	0.000336428	0.0798383	0	5	0	
0.296667	-0.00609063	2.32355	0.000299097	0.077703	0	5	0	
0.296833	-0.00578453	-1.7608	0.000241385	0.0682852	0	5	0	
0.297	0.00777132	2.16403	0.000186055	0.0629726	0	5	0	
0.297167	0.00915486	-1.99911	0.00021402	0.0612278	0	5	0	
0.297333	-0.0275473	2.5832	0.000325254	0.0685832	0	5	0	
0.2975	0.0317108	-2.93139	0.000479717	0.0748447	0	5	0	
0.297667	-0.0113601	2.90053	0.000549609	0.0788423	0	5	0	
0.297833	-0.00926947	-2.67192	0.000564733	0.0766983	0	5	0	
0.298	0.00834037	2.77716	0.000559682	0.0732452	0	5	0	
0.298167	0.0091957	-2.48941	0.000603899	0.0687746	0	5	0	
0.298333	-0.0268872	2.82413	0.000628121	0.0702979	0	5	0	
0.2985	0.0169743	-2.76028	0.000588915	0.072188	0	5	0	
0.298667	0.00313115	2.79768	0.000449557	0.0759439	0	5	0	
0.298833	-0.0176201	-2.63407	0.000401244	0.0761859	0	5	0	
0.299	0.0196226	2.03129	0.000407069	0.0738281	0	5	0	
0.299167	-0.0199397	-1.66649	0.000558781	0.0683763	0	5	0	
0.299333	0.00286449	2.29951	0.000738766	0.0663469	0	5	0	
0.2995	0.0186978	-2.77096	0.000901428	0.0696726	0	5	0	
0.299667	-0.0283135	2.96588	0.00090576	0.0766846	0	5	0	
0.299833	0.0154497	-2.89432	0.000751776	0.0798956	0	5	0	
0.3	0.00382599	2.34815	0.00047778	0.0773237	0	5	0	
0.300167	-0.010663	-1.84037	0.000341217	0.0673023	0	5	0	
0.300333	-0.00110719	2.68569	0.000355183	0.0633772	0	5	0	
0.3005	0.00953645	-2.67357	0.000424668	0.0644914	0	5	0	
0.300667	-0.00665833	2.81158	0.000382746	0.073531	0	5	0	
0.300833	0.0108802	-2.93248	0.000293154	0.0778074	0	5	0	
0.301	-0.0194181	2.8362	0.000316666	0.0785089	0	5	0	
0.301167	0.0229843	-2.5727	0.000483239	0.0746754	0	5	0	
0.301333	-0.0161265	2.89555	0.000654528	0.0727382	0	5	0	
0.3015	0.000459315	-2.71893	0.00067228	0.0720778	0	5	0	
0.301667	0.0193109	2.81376	0.00058211	0.0756944	0	5	0	
0.301833	-0.0171726	-2.7508	0.000539184	0.0771206	0	5	0	
0.302	0.0101253	2.23672	0.000638827	0.0767387	0	5	0	
0.302167	-0.0128465	-1.96532	0.000749431	0.0729968	0	5	0	
0.302333	0.0155691	2.4209	0.000787305	0.0714655	0	5	0	
0.3025	-0.0103568	-2.80902	0.000779096	0.0736201	0	5	0	
0.302667	0.0123722	2.99497	0.000737913	0.0787235	0	5	0	
0.302833	-0.0198901	-3.02826	0.000629156	0.0813515	0	5	0	
0.303	0.02482	2.7915	0.000501619	0.0797188	0	5	0	
0.303167	-0.0139387	-2.41195	0.000403056	0.0730923	0	5	0	
0.303333	-0.00366374	2.03572	0.000338781	0.0678245	0	5	0	
0.3035	0.0036251	-1.53573	0.000292833	0.0616116	0	5	0	
0.303667	0.00769182	2.37633	0.000255861	0.0633188	0	5	0	
0.303833	-0.0137372	-2.87227	0.000263188	0.0685924	0	5	0	
0.304	0.00999927	2.96178	0.000253173	0.0768611	0	5	0	
0.304167	-0.00300552	-2.94157	0.0002076	0.0810385	0	5	0	
0.304333	0.00170898	2.8213	0.000150733	0.0799409	0	5	0	
0.3045	0.00131409	-2.65927	0.000178209	0.0743285	0	5	0	
0.304667	-0.00676609	3.08106	0.000324266	0.0727524	0	5	0	
0.304833	0.00388215	-2.73403	0.000432284	0.0720447	0	5	0	
0.305	0.00633583	2.77449	0.000394436	0.0761045	0	5	0	
0.305167	-0.00726804	-2.75159	0.000315636	0.0766495	0	5	0	
0.305333	0.00500004	2.29826	0.000318713	0.0759738	0	5	0	
0.3055	-0.00775209	-1.91568	0.000387212	0.0716774	0	5	0	
0.305667	0.00812006	2.42004	0.000466872	0.0690292	0	5	0	
0.305833	0.00271782	-2.81209	0.000538749	0.0707647	0	5	0	
0.306	-0.00861077	2.91924	0.000539671	0.0762201	0	5	0	
0.306167	0.0038666	-2.79749	0.000417438	0.0792164	0	5	0	
0.306333	-0.00194841	2.60351	0.000225335	0.0778236	0	5	0	
0.3065	-0.00869012	-2.53841	0.000142471	0.0733063	0	5	0	
0.306667	0.0196506	3.02982	0.000154349	0.0721959	0	5	0	
0.306833	-0.0032736	-2.78371	0.000218692	0.0731003	0	5	0	
0.307	-0.0176103	2.78739	0.000319494	0.076705	0	5	0	
0.307167	0.0218805	-2.91656	0.000442011	0.0781337	0	5	0	
0.307333	-0.0184142	2.88865	0.000541981	0.0780621	0	5	0	
0.3075	0.00919303	-2.67584	0.000544592	0.0763258	0	5	0	
0.307667	-0.000634691	2.26212	0.000466802	0.0736332	0	5	0	
0.307833	-0.000314698	-2.0606	0.000370147	0.0699423	0	5	0	
0.308	-0.00166579	2.56969	0.000296309	0.0689313	0	5	0	
0.308167	-0.00278296	-2.73454	0.000255269	0.0709552	0	5	0	
0.308333	0.00736975	2.68469	0.00023982	0.0755814	0	5	0	
0.3085	-0.018984	-2.82263	0.00029207	0.078285	0	5	0	
0.308667	0.0286505	2.83331	0.000444801	0.0787174	0	5	0	
0.308833	-0.0279033	-2.67713	0.000656662	0.075435	0	5	0	
0.309	0.0107235	3.1196	0.000840511	0.07464	0	5	0	
0.309167	0.00776168	-2.89296	0.000912999	0.074323	0	5	0	
0.309333	-0.00652712	2.77443	0.000761469	0.0765234	0	5	0	
0.3095	-0.0164498	-2.85138	0.000495021	0.0760068	0	5	0	
0.309667	0.0187328	2.80107	0.000308002	0.0759548	0	5	0	
0.309833	-0.00945244	-2.80211	0.00026763	0.0761728	0	5	0	
0.31	0.0179434	2.87242	0.000316393	0.0773178	0	5	0	
0.310167	-0.026398	-2.88088	0.00034526	0.0773647	0	5	0	
0.310333	0.0163318	2.70317	0.000390649	0.0772355	0	5	0	
0.3105	-0.00517359	-2.66529	0.000358408	0.0757279	0	5	0	
0.310667	-0.00390232	2.64771	0.000243967	0.0751152	0	5	0	
0.310833	0.0220315	-2.72849	0.0003208	0.0740443	0	5	0	
0.311	-0.0355741	2.7952	0.000648234	0.075437	0	5	0	
0.311167	0.0296087	-2.95193	0.00103564	0.0772247	0	5	0	
0.311333	-0.0153182	3.09276	0.00112335	0.0800792	0	5	0	
0.3115	0.00324778	-3.16802	0.00089766	0.0803128	0	5	0	
0.311667	0.00413627	2.95723	0.000586288	0.0794125	0	5	0	
0.311833	-0.00832018	-2.92378	0.000385246	0.0770895	0	5	0	
0.312	0.0164511	2.92685	0.000348841	0.0777157	0	5	0	
0.312167	-0.0217599	-2.93132	0.000449978	0.0783336	0	5	0	
0.312333	0.019628	2.86736	0.000589273	0.0792967	0	5	0	
0.3125	-0.00948034	-2.7682	0.000617056	0.078232	0	5	0	
0.312667	0.00209568	2.64047	0.000489451	0.0770463	0	5	0	
0.312833	0.0032977	-2.81185	0.000347192	0.0761967	0	5	0	
0.313	-0.0113076	2.85068	0.000357283	0.0766962	0	5	0	
0.313167	0.0221034	-2.84149	0.000511455	0.0773437	0	5	0	
0.313333	-0.0157024	2.85075	0.000633635	0.0786093	0	5	0	
0.3135	-0.00286321	-2.94892	0.000563072	0.0793095	0	5	0	
0.313667	0.0191651	2.97692	0.000433496	0.0795449	0	5	0	
0.313833	-0.0239636	-2.93054	0.000356831	0.0779732	0	5	0	
0.314	0.0269982	2.40226	0.000422292	0.0759447	0	5	0	
0.314167	-0.0126907	-2.10546	0.000426345	0.0717515	0	5	0	
0.314333	-0.0109097	2.60834	0.000467092	0.0707763	0	5	0	
0.3145	0.0260189	-2.88119	0.000510556	0.0711139	0	5	0	
0.314667	-0.0239713	2.82966	0.000544538	0.0744831	0	5	0	
0.314833	0.0151683	-2.89908	0.00052969	0.0767764	0	5	0	
0.315	-0.0101007	3.0038	0.000418269	0.0778751	0	5	0	
0.315167	0.0138026	-2.7565	0.000420792	0.0751261	0	5	0	
0.315333	-0.0224513	2.827	0.000439707	0.0726891	0	5	0	
0.3155	0.0283848	-2.71928	0.000538731	0.0705895	0	5	0	
0.315667	-0.0421872	2.80214	0.00063275	0.0747751	0	5	0	
0.315833	0.0460475	-2.90781	0.000734394	0.0769227	0	5	0	
0.316	-0.0195971	2.63909	0.000748434	0.0776679	0	5	0	
0.316167	-0.00863115	-2.61079	0.000574824	0.0744673	0	5	0	
0.316333	-0.00419966	2.75926	0.00041641	0.0736816	0	5	0	
0.3165	0.0328278	-2.88803	0.000478987	0.0746538	0	5	0	
0.316667	-0.029983	2.7946	0.000732695	0.076527	0	5	0	
0.316833	0.00355963	-2.88789	0.000828788	0.07615	0	5	0	
0.317	0.0182247	2.7975	0.00072207	0.0755543	0	5	0	
0.317167	-0.0260996	-2.81164	0.000591052	0.0736854	0	5	0	
0.317333	0.0244477	2.81608	0.000538026	0.073858	0	5	0	
0.3175	-0.0114494	-2.83889	0.000503548	0.0741306	0	5	0	
0.317667	-0.00292791	2.91108	0.000462643	0.0764567	0	5	0	
0.317833	0.0187149	-3.04285	0.000440865	0.0782682	0	5	0	
0.318	-0.0295475	3.02386	0.000463082	0.0788642	0	5	0	
0.318167	0.0322666	-2.78034	0.000515846	0.0771973	0	5	0	
0.318333	-0.0190764	2.3121	0.000529111	0.0738934	0	5	0	
0.3185	0.00850742	-2.06945	0.00045829	0.0698876	0	5	0	
0.318667	0.000647942	2.65435	0.000326182	0.0696175	0	5	0	
0.318833	-0.0029387	-2.88898	0.00029351	0.0724977	0	5	0	
0.319	0.00212341	2.64167	0.000369489	0.0760801	0	5	0	
0.319167	-0.0102323	-2.30055	0.000462187	0.0748768	0	5	0	
0.319333	0.0171659	2.5128	0.000522669	0.0719383	0	5	0	
0.3195	-0.010062	-2.55498	0.000548985	0.0679348	0	5	0	
0.319667	0.0113444	3.05276	0.000537202	0.0696483	0	5	0	
0.319833	-0.0155257	-2.90176	0.000464091	0.0718624	0	5	0	
0.32	0.0098154	2.90056	0.00040744	0.0759595	0	5	0	
0.320167	0.00362045	-2.72486	0.000419662	0.0747043	0	5	0	
0.320333	-0.00728823	2.97948	0.000381237	0.0736631	0	5	0	
0.3205	-0.000466824	-2.81607	0.00028452	0.0722532	0	5	0	
0.320667	0.00720474	2.85377	0.000212233	0.0746522	0	5	0	
0.320833	-0.00372623	-2.95718	0.000298364	0.076412	0	5	0	
0.321	-0.00453235	3.02751	0.0005566	0.0778502	0	5	0	
0.321167	0.0222919	-2.91798	0.00097712	0.077092	0	5	0	
0.321333	-0.0298636	2.73926	0.00141688	0.0757849	0	5	0	
0.3215	0.0181051	-2.82697	0.00159392	0.0752116	0	5	0	
0.321667	0.00265285	2.89912	0.00132805	0.0766189	0	5	0	
0.321833	-0.0195909	-2.95495	0.000840562	0.0783749	0	5	0	
0.322	0.0426793	3.05181	0.000542001	0.0796127	0	5	0	
0.322167	-0.0613701	-3.07824	0.000630759	0.0797875	0	5	0	
0.322333	0.0604074	2.90891	0.00096363	0.0795404	0	5	0	
0.3225	-0.0373598	-2.88554	0.00124697	0.0778728	0	5	0	
0.322667	0.0125907	2.70856	0.00122815	0.0766486	0	5	0	
0.322833	0.00669694	-2.72425	0.00102461	0.0749693	0	5	0	
0.323	-0.015738	3.01886	0.000861213	0.0760974	0	5	0	
0.323167	0.0201537	-3.23263	0.000881275	0.0776777	0	5	0	
0.323333	-0.0168572	3.05567	0.000936216	0.0793393	0	5	0	
0.3235	0.00428033	-3.02374	0.000854645	0.0791613	0	5	0	
0.323667	0.0174838	2.97311	0.000683328	0.0787491	0	5	0	
0.323833	-0.033905	-2.86547	0.000620817	0.0771928	0	5	0	
0.324	0.0465731	2.35603	0.000743508	0.0754974	0	5	0	
0.324167	-0.0463319	-1.93285	0.000933315	0.0697111	0	5	0	
0.324333	0.0294402	2.51374	0.000992392	0.0677671	0	5	0	
0.3245	-0.00562278	-2.85218	0.000893651	0.0700927	0	5	0	
0.324667	-0.00311461	2.95621	0.000727191	0.0758116	0	5	0	
0.324833	-0.003759	-2.93796	0.000497418	0.0783921	0	5	0	
0.325	0.0155822	2.47023	0.000327367	0.0758946	0	5	0	
0.325167	-0.016294	-1.856	0.000231952	0.0664806	0	5	0	
0.325333	0.0167956	2.81524	0.000337216	0.0632033	0	5	0	
0.3255	-0.0159725	-2.80232	0.000558734	0.0645897	0	5	0	
0.325667	0.0163225	2.92966	0.00078618	0.0729863	0	5	0	
0.325833	-0.0158555	-3.03174	0.000854475	0.0771545	0	5	0	
0.326	0.00609209	2.79933	0.00069138	0.0781337	0	5	0	
0.326167	0.0103307	-2.53222	0.000420488	0.0738215	0	5	0	
0.326333	-0.00337412	2.68796	0.000250038	0.0703172	0	5	0	
0.3265	-0.0219299	-2.43236	0.00021263	0.0663149	0	5	0	
0.326667	0.0401263	2.71283	0.000398416	0.0697093	0	5	0	
0.326833	-0.0360589	-2.99675	0.000599531	0.0736157	0	5	0	
0.327	0.0217199	2.85083	0.000708517	0.0774454	0	5	0	
0.327167	-0.00340563	-2.89389	0.000572166	0.0772822	0	5	0	
0.327333	-0.00208275	2.89788	0.000397929	0.0760042	0	5	0	
0.3275	-0.00768594	-3.00271	0.00030096	0.0749797	0	5	0	
0.327667	0.0163119	2.97318	0.000322025	0.0764508	0	5	0	
0.327833	-0.0148922	-2.88121	0.00035165	0.0764088	0	5	0	
0.328	0.00633348	2.88862	0.000336741	0.0769638	0	5	0	
0.328167	0.00688013	-2.95747	0.000259035	0.0770562	0	5	0	
0.328333	-0.0137228	2.9372	0.000211276	0.0776589	0	5	0	
0.3285	0.0116763	-2.91669	0.0002295	0.0780088	0	5	0	
0.328667	-0.00470742	2.91666	0.000280425	0.0780826	0	5	0	
0.328833	-0.00535551	-2.98533	0.000296057	0.0783959	0	5	0	
0.329	0.00806183	3.03745	0.00031392	0.0789369	0	5	0	
0.329167	-0.00551477	-2.89974	0.000353709	0.0782402	0	5	0	
0.329333	0.00199944	2.33742	0.000401058	0.0759099	0	5	0	
0.3295	0.00198617	-1.92802	0.00042873	0.0703403	0	5	0	
0.329667	-0.000814423	2.57071	0.000418804	0.0678704	0	5	0	
0.329833	-0.00352096	-2.86856	0.00035642	0.0698298	0	5	0	
0.33	0.00881421	3.00085	0.000295898	0.075672	0	5	0	
0.330167	-0.00725279	-3.11665	0.000289041	0.0795232	0	5	0	
0.330333	0.00108061	3.02813	0.000334883	0.0796456	0	5	0	
0.3305	0.00222449	-2.74101	0.000348017	0.0750902	0	5	0	
0.330667	0.00264686	3.16488	0.000302645	0.0733152	0	5	0	
0.330833	-0.00553127	-2.85292	0.000250699	0.072112	0	5	0	
0.331	0.00685856	2.91104	0.000246694	0.0754937	0	5	0	
0.331167	-0.00539862	-3.00988	0.000271398	0.0765922	0	5	0	
0.331333	0.00418666	2.93347	0.000307258	0.0776718	0	5	0	
0.3315	0.00198238	-2.85623	0.00035865	0.0777057	0	5	0	
0.331667	-0.00475976	2.86467	0.000418179	0.0772598	0	5	0	
0.331833	-0.00109936	-2.94727	0.000394112	0.0770777	0	5	0	
0.332	0.0123617	2.99182	0.000308638	0.0776785	0	5	0	
0.332167	-0.0175264	-3.04122	0.000234022	0.0783286	0	5	0	
0.332333	0.0125534	2.98149	0.000274059	0.0786627	0	5	0	
0.3325	0.00220688	-2.86279	0.000422923	0.0780121	0	5	0	
0.332667	-0.00892744	2.80401	0.000552298	0.0775711	0	5	0	
0.332833	-0.00222863	-2.99274	0.00051197	0.0780705	0	5	0	
0.333	0.011298	3.15696	0.000351259	0.0799189	0	5	0	
0.333167	-0.00429034	-3.14629	0.000192316	0.0809321	0	5	0	
0.333333	-0.000100445	3.05453	0.000133246	0.0803754	0	5	0	
0.3335	-0.0063517	-2.8744	0.000113257	0.0779685	0	5	0	
0.333667	0.00223373	2.27737	0.000190691	0.0746122	0	5	0	
0.333833	0.0208549	-1.79604	0.000449164	0.0682811	0	5	0	
0.334	-0.030843	2.49989	0.000675247	0.0654936	0	5	0	
0.334167	0.0185156	-3.0143	0.000713375	0.0680918	0	5	0	
0.334333	0.00187477	3.22819	0.000492175	0.0750813	0	5	0	
0.3345	-0.0102615	-3.19174	0.000279889	0.0789757	0	5	0	
0.334667	0.0140319	2.56892	0.00021498	0.0772522	0	5	0	
0.334833	-0.0115934	-1.74071	0.000349488	0.0671714	0	5	0	
0.335	0.00388748	2.81312	0.000667165	0.0620521	0	5	0	
0.335167	0.00704695	-2.90413	0.00102496	0.0621584	0	5	0	
0.335333	-0.0220442	3.05506	0.0012475	0.0720095	0	5	0	
0.3355	0.0276804	-3.20327	0.00112179	0.0771765	0	5	0	
0.335667	-0.012118	2.93092	0.000776365	0.0781539	0	5	0	
0.335833	-0.0104298	-2.4401	0.000454959	0.0731678	0	5	0	
0.336	0.017874	3.07268	0.000337981	0.0707365	0	5	0	
0.336167	-0.0229003	-2.92666	0.000494749	0.0708324	0	5	0	
0.336333	0.0189705	2.92982	0.000730165	0.0751422	0	5	0	
0.3365	-0.0119094	-3.09913	0.000967356	0.0771943	0	5	0	
0.336667	-0.004557	3.09317	0.000924957	0.0778125	0	5	0	
0.336833	0.0121128	-2.76095	0.000629526	0.0762144	0	5	0	
0.337	-0.0192986	2.0944	0.000374248	0.0722704	0	5	0	
0.337167	0.027111	-1.65887	0.000321491	0.0650155	0	5	0	
0.337333	-0.0153717	2.41313	0.000429213	0.0625352	0	5	0	
0.3375	-0.00880684	-2.90241	0.000378752	0.0664573	0	5	0	
0.337667	0.00968339	3.10085	0.000309936	0.0741385	0	5	0	
0.337833	0.00252096	-3.17095	0.00036304	0.0787378	0	5	0	
0.338	-0.000853607	3.06905	0.000513826	0.0786755	0	5	0	
0.338167	0.000664713	-2.72749	0.000656224	0.0738487	0	5	0	
0.338333	-0.0132	3.14048	0.000768338	0.0720771	0	5	0	
0.3385	0.0222615	-2.81654	0.000800242	0.0705052	0	5	0	
0.338667	-0.0081475	2.92154	0.000662133	0.0743329	0	5	0	
0.338833	-0.0115672	-3.05558	0.000383648	0.076301	0	5	0	
0.339	0.0123545	3.06714	0.000227247	0.078762	0	5	0	
0.339167	-0.00150949	-2.97009	0.000220843	0.078942	0	5	0	
0.339333	-0.00991988	2.85677	0.000254735	0.0777573	0	5	0	
0.3395	0.0234675	-2.88267	0.000287075	0.0768745	0	5	0	
0.339667	-0.0233394	2.91313	0.000336827	0.0770545	0	5	0	
0.339833	0.0174097	-2.92125	0.000419969	0.077618	0	5	0	
0.34	-0.00431196	2.89378	0.000542969	0.077928	0	5	0	
0.340167	0.00442134	-2.92578	0.000564067	0.0775398	0	5	0	
0.340333	-0.0107555	2.59092	0.000484924	0.0768953	0	5	0	
0.3405	0.0152474	-2.16057	0.000396135	0.0727812	0	5	0	
0.340667	-0.00887382	2.30221	0.000428941	0.068773	0	5	0	
0.340833	0.0185448	-1.72672	0.000601877	0.0628621	0	5	0	
0.341	-0.0330553	1.71339	0.000743773	0.0608426	0	5	0	
0.341167	0.0401843	-1.74089	0.000858275	0.0607515	0	5	0	
0.341333	-0.0184714	2.48726	0.000923803	0.0652778	0	5	0	
0.3415	-0.0117728	-2.76972	0.000837527	0.0688829	0	5	0	
0.341667	0.032206	3.44973	0.000729031	0.0735628	0	5	0	
0.341833	-0.0357788	-2.88183	0.00065962	0.0729426	0	5	0	
0.342	0.0262448	3.12896	0.000663996	0.0736401	0	5	0	
0.342167	-0.0133338	-2.20399	0.000584224	0.0660508	0	5	0	
0.342333	0.0110551	2.26102	0.000400578	0.0631244	0	5	0	
0.3425	-0.00270791	-1.92893	0.000323941	0.0586555	0	5	0	
0.342667	-0.00764646	2.58713	0.000329855	0.062944	0	5	0	
0.342833	0.0112295	-2.87313	0.000337922	0.0681396	0	5	0	
0.343	-0.00615125	2.91251	0.00027207	0.074226	0	5	0	
0.343167	-0.000973066	-2.94991	0.00016884	0.0769774	0	5	0	
0.343333	0.000613805	2.88952	0.000210111	0.0765017	0	5	0	
0.3435	-0.000506146	-2.60546	0.000338022	0.0721369	0	5	0	
0.343667	0.00815079	2.96706	0.000481685	0.070073	0	5	0	
0.343833	-0.0132355	-2.84604	0.000547116	0.0693651	0	5	0	
0.344	0.00382924	2.95807	0.000521091	0.0735979	0	5	0	
0.344167	0.0038259	-2.99955	0.000434446	0.0761756	0	5	0	
0.344333	0.000796425	3.00411	0.000272345	0.0779773	0	5	0	
0.3445	-0.00465182	-3.10555	0.000127351	0.0780942	0	5	0	
0.344667	-0.00296723	3.07302	0.000125998	0.0784643	0	5	0	
0.344833	0.00238175	-3.02832	0.000234222	0.0781845	0	5	0	
0.345	-0.00637345	3.06012	0.000393123	0.0787055	0	5	0	
0.345167	0.0131051	-3.08236	0.000584946	0.0782815	0	5	0	
0.345333	-0.0128369	3.03615	0.000774657	0.0782832	0	5	0	
0.3455	0.00310438	-3.0186	0.00085426	0.0779395	0	5	0	
0.345667	-0.000264547	3.03184	0.000794502	0.0776791	0	5	0	
0.345833	-0.00283505	-2.93777	0.000654487	0.0769698	0	5	0	
0.346	0.0125461	2.78564	0.00049368	0.0760329	0	5	0	
0.346167	-0.0195215	-2.97702	0.000398518	0.0749915	0	5	0	
0.346333	0.0193498	3.08947	0.000410272	0.0761364	0	5	0	
0.3465	-0.0172592	-3.09235	0.000509823	0.0775572	0	5	0	
0.346667	0.0161574	3.09975	0.000533237	0.0791392	0	5	0	
