0	-0.00667564	-0.000333107	6.67564E-07	3.33107E-08	0	0	0	
0.000166667	0.00305584	-0.00183709	0.000137923	2.16561E-05	0	0	0	
0.000333333	0.00459121	0.00364024	0.000376614	5.43138E-05	0	0	0	
0.0005	-0.0106942	-0.00419016	0.000626567	8.87835E-05	0	0	0	
0.000666667	0.0129133	0.00408248	0.000719321	0.000100025	0	0	0	
0.000833333	-0.00988639	-0.00393837	0.000697059	9.85987E-05	0	0	0	
0.001	0.00819712	0.00317724	0.000635347	9.25562E-05	0	0	0	
0.00116667	0.0059802	-0.00179839	0.000576957	8.60547E-05	0	0	0	
0.00133333	-0.0180056	0.000753022	0.000570675	8.67966E-05	0	0	0	
0.0015	0.0225922	-0.00100627	0.000664642	0.000100785	0	0	0	
0.00166667	-0.0185805	0.00148169	0.000818284	0.000120942	0	0	0	
0.00183333	0.0202474	-0.00151176	0.000940336	0.000134047	0	0	0	
0.002	-0.0191346	0.00131117	0.000975272	0.000135226	0	0	0	
0.00216667	0.0187947	-0.00128074	0.000969795	0.000133164	0	0	0	
0.00233333	-0.0177778	0.00168511	0.000962692	0.000134836	0	0	0	
0.0025	0.0221888	-0.00186655	0.000982686	0.000139195	0	0	0	
0.00266667	-0.0203544	0.00184787	0.00101222	0.000141675	0	0	0	
0.00283333	0.017786	-0.00168978	0.00103058	0.000141194	0	0	0	
0.003	-0.0171514	0.00174831	0.00100877	0.000140139	0	0	0	
0.00316667	0.0179022	-0.00183132	0.000973392	0.000141067	0	0	0	
0.00333333	-0.018234	0.00199102	0.000975451	0.000142844	0	0	0	
0.0035	0.0155066	-0.0020214	0.000987559	0.000143517	0	0	0	
0.00366667	-0.0158208	0.00203094	0.000958502	0.000142217	0	0	0	
0.00383333	0.0180829	-0.00190338	0.000904306	0.000140079	0	0	0	
0.004	-0.0205824	0.00181547	0.000916371	0.000138296	0	0	0	
0.00416667	0.0195706	-0.00189852	0.000995252	0.000137888	0	0	0	
0.00433333	-0.0165987	0.00201432	0.00104979	0.000138201	0	0	0	
0.0045	0.0124256	-0.00201322	0.0010157	0.000138003	0	0	0	
0.00466667	-0.012707	0.00192295	0.000938489	0.000137155	0	0	0	
0.00483333	0.0166947	-0.00202236	0.000897017	0.000136758	0	0	0	
0.005	-0.0205516	0.0020439	0.000918604	0.000137537	0	0	0	
0.00516667	0.0216512	-0.00207407	0.000966825	0.000138578	0	0	0	
0.00533333	-0.0173747	0.00206679	0.000983346	0.000139139	0	0	0	
0.0055	0.0133327	-0.00211606	0.000976304	0.000139376	0	0	0	
0.00566667	-0.013479	0.00211967	0.000960471	0.000139967	0	0	0	
0.00583333	0.012854	-0.00211698	0.000944242	0.000140343	0	0	0	
0.006	-0.0163517	0.00204684	0.000925605	0.000140389	0	0	0	
0.00616667	0.0185958	-0.0020732	0.000918836	0.000140368	0	0	0	
0.00633333	-0.0167541	0.00213647	0.000933268	0.000140511	0	0	0	
0.0065	0.0152794	-0.00211011	0.00095862	0.000140317	0	0	0	
0.00666667	-0.0141006	0.00203871	0.00097489	0.000139609	0	0	0	
0.00683333	0.0120825	-0.00206221	0.00097302	0.000138965	0	0	0	
0.007	-0.0172495	0.0021027	0.000962159	0.000138909	0	0	0	
0.00716667	0.0179134	-0.00210455	0.000952803	0.000139025	0	0	0	
0.00733333	-0.0175484	0.00211113	0.000963385	0.000138808	0	0	0	
0.0075	0.0173283	-0.00212825	0.000979322	0.000138495	0	0	0	
0.00766667	-0.0154716	0.00216301	0.000988089	0.000138442	0	0	0	
0.00783333	0.0124244	-0.00213365	0.000982339	0.000138716	0	0	0	
0.008	-0.0150924	0.00208004	0.00097312	0.000138936	0	0	0	
0.00816667	0.0145454	-0.00210141	0.000957076	0.00013926	0	0	0	
0.00833333	-0.0139922	0.00224515	0.000945046	0.000139789	0	0	0	
0.0085	0.01829	-0.00224148	0.000950847	0.000140169	0	0	0	
0.00866667	-0.0170591	0.00219131	0.00097707	0.000139677	0	0	0	
0.00883333	0.0152155	-0.00211454	0.00101681	0.000138921	0	0	0	
0.009	-0.0154446	0.00213162	0.00103762	0.00013844	0	0	0	
0.00916667	0.0146427	-0.00210684	0.00102568	0.000138529	0	0	0	
0.00933333	-0.0204647	0.00216963	0.000999497	0.000138692	0	0	0	
0.0095	0.0224674	-0.00222874	0.000980864	0.000139216	0	0	0	
0.00966667	-0.0186677	0.00229936	0.000979051	0.000139852	0	0	0	
0.00983333	0.0194671	-0.0022942	0.000978994	0.000140079	0	0	0	
0.01	-0.0179194	0.00220514	0.000951097	0.00013944	0	0	0	
0.0101667	0.0172831	-0.00209834	0.000931046	0.000138598	0	0	0	
0.0103333	-0.0193165	0.00207628	0.000934663	0.000138178	0	0	0	
0.0105	0.0157594	-0.00209453	0.000935757	0.000138626	0	0	0	
0.0106667	-0.0168886	0.00214073	0.000927017	0.000140032	0	0	0	
0.0108333	0.0158758	-0.00227873	0.000943601	0.000141586	0	0	0	
0.011	-0.00642503	0.00238576	0.000992299	0.000142145	0	0	0	
0.0111667	0.00865116	-0.0023002	0.000991591	0.000141082	0	0	0	
0.0113333	-0.0168178	0.00214969	0.0009117	0.000139093	0	0	0	
0.0115	0.0190237	-0.00219909	0.000858669	0.00013737	0	0	0	
0.0116667	-0.0163879	0.0023138	0.000884103	0.00013673	0	0	0	
0.0118333	0.0158114	-0.00226611	0.00093231	0.000136834	0	0	0	
0.012	-0.0158498	0.00227973	0.000958569	0.000137225	0	0	0	
0.0121667	0.0144455	-0.00226906	0.00096995	0.000137855	0	0	0	
0.0123333	-0.0166198	0.00232146	0.000971338	0.000138589	0	0	0	
0.0125	0.0176216	-0.00232045	0.000955195	0.000139247	0	0	0	
0.0126667	-0.015584	0.00241842	0.000948388	0.000139522	0	0	0	
0.0128333	0.0152202	-0.00238253	0.000963009	0.000140037	0	0	0	
0.013	-0.0155934	0.00244352	0.000985466	0.000140096	0	0	0	
0.0131667	0.0124351	-0.00237482	0.000982613	0.000139692	0	0	0	
0.0133333	-0.0152731	0.00234538	0.00095105	0.000139196	0	0	0	
0.0135	0.0155283	-0.00233042	0.000890819	0.000139757	0	0	0	
0.0136667	-0.0164663	0.00244944	0.000853251	0.000140598	0	0	0	
0.0138333	0.0155587	-0.00247246	0.000854118	0.000140991	0	0	0	
0.014	-0.0158571	0.00243384	0.000895483	0.000140573	0	0	0	
0.0141667	0.0156354	-0.00228458	0.000941868	0.000139887	0	0	0	
0.0143333	-0.0171406	0.00223655	0.000972158	0.000138667	0	0	0	
0.0145	0.0150508	-0.00215684	0.000960232	0.000137461	0	0	0	
0.0146667	-0.0150742	0.00226954	0.00093075	0.000136734	0	0	0	
0.0148333	0.0135565	-0.00233536	0.000913294	0.000137164	0	0	0	
0.015	-0.0175577	0.00240337	0.000937915	0.000137915	0	0	0	
0.0151667	0.0160929	-0.00236853	0.000964839	0.000138193	0	0	0	
0.0153333	-0.0109193	0.00239657	0.000979206	0.000137566	0	0	0	
0.0155	0.0069684	-0.00235952	0.000957206	0.000137002	0	0	0	
0.0156667	-0.0106791	0.00248065	0.000904261	0.000136776	0	0	0	
0.0158333	0.0152022	-0.00250976	0.000848557	0.000137468	0	0	0	
0.016	-0.0153157	0.00252196	0.000812987	0.000138477	0	0	0	
0.0161667	0.0177756	-0.00246449	0.000807189	0.000139704	0	0	0	
0.0163333	-0.0205255	0.00256055	0.0008553	0.000140074	0	0	0	
0.0165	0.0174881	-0.0024777	0.000983962	0.000139754	0	0	0	
0.0166667	-0.00819044	0.00254595	0.00112635	0.000138598	0	0	0	
0.0168333	0.00729577	-0.00255587	0.0011523	0.000137699	0	0	0	
0.017	-0.00731192	0.00242318	0.00103667	0.000136897	0	0	0	
0.0171667	0.0100694	-0.00232615	0.000910301	0.000136774	0	0	0	
0.0173333	-0.0131667	0.00246625	0.000870176	0.000137265	0	0	0	
0.0175	0.0194183	-0.00255788	0.000907421	0.000138874	0	0	0	
0.0176667	-0.020472	0.00267178	0.000962164	0.000140738	0	0	0	
0.0178333	0.015708	-0.00271911	0.00100357	0.000141997	0	0	0	
0.018	-0.0111593	0.00255773	0.00101654	0.00014173	0	0	0	
0.0181667	0.00980295	-0.00248367	0.00099182	0.000140604	0	0	0	
0.0183333	-0.0115578	0.00246382	0.000962605	0.000139773	0	0	0	
0.0185	0.0148316	-0.0024951	0.000949869	0.000139737	0	0	0	
0.0186667	-0.0141537	0.00253327	0.000946035	0.000140423	0	0	0	
0.0188333	0.0154043	-0.00256867	0.000944897	0.000140803	0	0	0	
0.019	-0.0149941	0.00253612	0.000948961	0.000140327	0	0	0	
0.0191667	0.0145932	-0.00251102	0.000975944	0.000138966	0	0	0	
0.0193333	-0.012804	0.00245643	0.00101374	0.000137783	0	0	0	
0.0195	0.012184	-0.00243943	0.00103652	0.000137771	0	0	0	
0.0196667	-0.0129757	0.00257199	0.00102378	0.000138667	0	0	0	
0.0198333	0.0168076	-0.00257883	0.000990899	0.000139168	0	0	0	
0.02	-0.0154678	0.00258867	0.000963418	0.000138552	0	0	0	
0.0201667	0.0167189	-0.00253194	0.000964595	0.000137939	0	0	0	
0.0203333	-0.0142251	0.00259242	0.000967923	0.000138102	0	0	0	
0.0205	0.0118853	-0.0026092	0.000979924	0.000139243	0	0	0	
0.0206667	-0.0105899	0.00270435	0.000991027	0.000140289	0	0	0	
0.0208333	0.0105809	-0.00271003	0.000985382	0.000140918	0	0	0	
0.021	-0.0129899	0.00280795	0.000946945	0.000140674	0	0	0	
0.0211667	0.0197452	-0.00273686	0.000909338	0.000139991	0	0	0	
0.0213333	-0.0183078	0.00272258	0.000897203	0.000138566	0	0	0	
0.0215	0.0159035	-0.00261933	0.000924397	0.00013758	0	0	0	
0.0216667	-0.0138883	0.00257669	0.000971994	0.000137634	0	0	0	
0.0218333	0.0109409	-0.00257098	0.00102601	0.000139032	0	0	0	
0.022	-0.00899208	0.00267849	0.00104377	0.000140411	0	0	0	
0.0221667	0.0104667	-0.00272354	0.00100028	0.000141252	0	0	0	
0.0223333	-0.00866907	0.00282663	0.000916625	0.000141601	0	0	0	
0.0225	0.0119614	-0.0028107	0.000857348	0.000141785	0	0	0	
0.0226667	-0.0153277	0.00274977	0.000862673	0.000140853	0	0	0	
0.0228333	0.0142621	-0.00255908	0.000926887	0.000138981	0	0	0	
0.023	-0.0129411	0.00254591	0.00100601	0.000137417	0	0	0	
0.0231667	0.0115781	-0.00262115	0.00104523	0.000137983	0	0	0	
0.0233333	-0.00712142	0.00269992	0.00101972	0.000139916	0	0	0	
0.0235	0.012663	-0.00273036	0.000962601	0.000141116	0	0	0	
0.0236667	-0.0125992	0.00280929	0.000914006	0.000140572	0	0	0	
0.0238333	0.011307	-0.00270608	0.000899005	0.000139383	0	0	0	
0.024	-0.0132923	0.00267378	0.000901728	0.000138287	0	0	0	
0.0241667	0.0130241	-0.00264428	0.000924605	0.000137762	0	0	0	
0.0243333	-0.00524924	0.00275361	0.00095457	0.000137767	0	0	0	
0.0245	0.0072242	-0.00288291	0.000957276	0.000138696	0	0	0	
0.0246667	-0.00836301	0.00292454	0.000915818	0.00013959	0	0	0	
0.0248333	0.0103607	-0.00277049	0.000892581	0.000139774	0	0	0	
0.025	-0.00976377	0.00284684	0.000911727	0.000139252	0	0	0	
0.0251667	0.0103818	-0.00291622	0.000954618	0.00013906	0	0	0	
0.0253333	-0.00861374	0.0029275	0.00097853	0.000138994	0	0	0	
0.0255	0.0102885	-0.00292874	0.000985279	0.000139268	0	0	0	
0.0256667	-0.0124777	0.00282688	0.000985656	0.000139528	0	0	0	
0.0258333	0.0129016	-0.00280833	0.000983189	0.000139534	0	0	0	
0.026	-0.0102718	0.00278558	0.000974263	0.000139278	0	0	0	
0.0261667	0.0112407	-0.0028294	0.000968155	0.000139582	0	0	0	
0.0263333	-0.0101421	0.00294855	0.000967974	0.000141214	0	0	0	
0.0265	0.00957758	-0.00298413	0.000977531	0.000142895	0	0	0	
0.0266667	-0.0135005	0.00288266	0.000973556	0.000142885	0	0	0	
0.0268333	0.0126351	-0.00291192	0.00093499	0.000141276	0	0	0	
0.027	-0.0108228	0.00294887	0.000902887	0.00013962	0	0	0	
0.0271667	0.0118585	-0.00292243	0.000920891	0.000138946	0	0	0	
0.0273333	-0.00784287	0.00279044	0.000969862	0.000139145	0	0	0	
0.0275	0.00663917	-0.00278646	0.00099619	0.00013935	0	0	0	
0.0276667	-0.00925796	0.00286544	0.000975984	0.000139373	0	0	0	
0.0278333	0.0100263	-0.00289931	0.00094444	0.000139273	0	0	0	
0.028	-0.0100525	0.00296173	0.00092609	0.000139328	0	0	0	
0.0281667	0.0147256	-0.00294198	0.00093464	0.0001395	0	0	0	
0.0283333	-0.0146266	0.00289394	0.000953928	0.000139442	0	0	0	
0.0285	0.0109831	-0.00287141	0.000974787	0.000139293	0	0	0	
0.0286667	-0.00886588	0.00280036	0.000984399	0.000138801	0	0	0	
0.0288333	0.0111241	-0.00289051	0.000964656	0.000138062	0	0	0	
0.029	-0.012277	0.00293171	0.000909922	0.000137803	0	0	0	
0.0291667	0.0151652	-0.00287946	0.000870615	0.000138151	0	0	0	
0.0293333	-0.0136609	0.00293037	0.000879804	0.000138691	0	0	0	
0.0295	0.012352	-0.00290096	0.000916999	0.000138748	0	0	0	
0.0296667	-0.0131351	0.00291443	0.000944005	0.000137994	0	0	0	
0.0298333	0.00657651	-0.00303992	0.0009541	0.000137673	0	0	0	
0.03	-0.00129542	0.00300381	0.000951042	0.000138275	0	0	0	
0.0301667	0.00742977	-0.00291109	0.000914957	0.000139064	0	0	0	
0.0303333	-0.0129997	0.00302191	0.000872288	0.000138941	0	0	0	
0.0305	0.0121241	-0.00295124	0.000854447	0.000138193	0	0	0	
0.0306667	-0.00986651	0.00301615	0.000863959	0.000137915	0	0	0	
0.0308333	0.00578025	-0.00304061	0.00087203	0.000139151	0	0	0	
0.031	-0.0039558	0.00303602	0.000884575	0.00014018	0	0	0	
0.0311667	0.00708616	-0.00294526	0.000907215	0.000140061	0	0	0	
0.0313333	-0.00839524	0.00303786	0.000918716	0.000138386	0	0	0	
0.0315	0.0103583	-0.00297234	0.000920849	0.000137343	0	0	0	
0.0316667	-0.0097629	0.00295818	0.000935875	0.000137674	0	0	0	
0.0318333	0.0049999	-0.00296317	0.000964682	0.000138676	0	0	0	
0.032	-0.00753502	0.00292974	0.000972328	0.000138414	0	0	0	
0.0321667	0.0103105	-0.00299942	0.000944609	0.000137547	0	0	0	
0.0323333	-0.0119993	0.00316311	0.000925908	0.00013753	0	0	0	
0.0325	0.0111709	-0.00313912	0.000936946	0.000139004	0	0	0	
0.0326667	-0.00879141	0.00303044	0.000962379	0.00014024	0	0	0	
0.0328333	0.00627224	-0.00307401	0.000977863	0.000139884	0	0	0	
0.033	-0.00652227	0.00316083	0.000977315	0.000138709	0	0	0	
0.0331667	0.00773379	-0.0031978	0.000961887	0.000138358	0	0	0	
0.0333333	-0.00672785	0.00316654	0.000945646	0.000139054	0	0	0	
0.0335	0.00532007	-0.00307839	0.000944918	0.000139881	0	0	0	
0.0336667	-0.00683712	0.003054	0.000964769	0.000140141	0	0	0	
0.0338333	0.00729933	-0.00301713	0.00098427	0.000139811	0	0	0	
0.034	-0.00592058	0.00310048	0.00098181	0.000138749	0	0	0	
0.0341667	0.0101581	-0.00304389	0.000962698	0.000137767	0	0	0	
0.0343333	-0.0104981	0.00301784	0.000946877	0.000137218	0	0	0	
0.0345	0.0106963	-0.00297408	0.000957991	0.000137778	0	0	0	
0.0346667	-0.00789449	0.00299978	0.000983493	0.000138507	0	0	0	
0.0348333	0.00735048	-0.00308875	0.00100188	0.000138981	0	0	0	
0.035	-0.00690612	0.00328093	0.00100189	0.000138531	0	0	0	
0.0351667	0.00748483	-0.00324375	0.00100377	0.000137949	0	0	0	
0.0353333	-0.0067345	0.00318436	0.00100758	0.000137123	0	0	0	
0.0355	0.0095703	-0.00319392	0.000992249	0.000136799	0	0	0	
0.0356667	-0.00854584	0.00322991	0.000960751	0.000136946	0	0	0	
0.0358333	0.0112748	-0.0032484	0.000960445	0.000137645	0	0	0	
0.036	-0.00723924	0.00323726	0.000986039	0.000137923	0	0	0	
0.0361667	0.00391573	-0.00313528	0.000995899	0.000137694	0	0	0	
0.0363333	-0.00733726	0.00325235	0.000962807	0.000137372	0	0	0	
0.0365	0.00975419	-0.00330661	0.000932891	0.000137816	0	0	0	
0.0366667	-0.00925979	0.00328336	0.000937107	0.000138178	0	0	0	
0.0368333	0.00838782	-0.00318851	0.000948513	0.000138191	0	0	0	
0.037	-0.00582317	0.00326161	0.000939076	0.000137859	0	0	0	
0.0371667	0.00567926	-0.00324166	0.000931172	0.000138093	0	0	0	
0.0373333	-0.00859486	0.00340649	0.000943285	0.000138332	0	0	0	
0.0375	0.00938093	-0.00335237	0.000962187	0.000138712	0	0	0	
0.0376667	-0.00982554	0.00337468	0.000974587	0.000138677	0	0	0	
0.0378333	0.00186802	-0.00334734	0.000988535	0.000138954	0	0	0	
0.038	-0.00169399	0.00338458	0.00101451	0.000138601	0	0	0	
0.0381667	0.00357005	-0.00322725	0.00102491	0.000137982	0	0	0	
0.0383333	-0.00274886	0.00331132	0.00100169	0.000137083	0	0	0	
0.0385	0.000612255	-0.00339025	0.00094758	0.000137284	0	0	0	
0.0386667	-0.00721996	0.00346299	0.000902138	0.000138076	0	0	0	
0.0388333	0.00766974	-0.0034294	0.000904968	0.000138753	0	0	0	
0.039	-0.00895753	0.00338539	0.000963898	0.000138565	0	0	0	
0.0391667	0.00637104	-0.00334553	0.00102454	0.000138434	0	0	0	
0.0393333	-0.00095995	0.00344598	0.00103742	0.000138623	0	0	0	
0.0395	0.00147715	-0.00346197	0.00100465	0.000138794	0	0	0	
0.0396667	-0.00891749	0.00340933	0.000969231	0.000138599	0	0	0	
0.0398333	0.00840215	-0.00339987	0.000954939	0.000138839	0	0	0	
0.04	-0.00561436	0.00339648	0.000967228	0.000139282	0	0	0	
0.0401667	0.00516703	-0.00341589	0.000989466	0.000139168	0	0	0	
0.0403333	-0.00272001	0.00343614	0.00100106	0.000138711	0	0	0	
0.0405	0.00486392	-0.00344653	0.000994882	0.000138755	0	0	0	
0.0406667	-0.00533749	0.00343679	0.000983017	0.000139241	0	0	0	
0.0408333	0.00279708	-0.0033943	0.00097978	0.000139063	0	0	0	
0.041	-0.00249287	0.00333097	0.000969113	0.000137899	0	0	0	
0.0411667	0.00561873	-0.0033247	0.000946603	0.000137004	0	0	0	
0.0413333	-0.00564573	0.00344326	0.000938113	0.000137257	0	0	0	
0.0415	0.00415511	-0.00337669	0.000960225	0.000138287	0	0	0	
0.0416667	-0.00179901	0.00339804	0.000988464	0.00013841	0	0	0	
0.0418333	-0.000379877	-0.0034461	0.00099261	0.000137905	0	0	0	
0.042	-0.00273013	0.00352229	0.000970742	0.00013725	0	0	0	
0.0421667	0.00216568	-0.00357141	0.000948576	0.000137596	0	0	0	
0.0423333	-0.00641896	0.00364969	0.00094117	0.000138267	0	0	0	
0.0425	0.00624109	-0.00352551	0.000939	0.000139149	0	0	0	
0.0426667	-0.00636151	0.00355528	0.000948641	0.000139173	0	0	0	
0.0428333	0.0049026	-0.00349677	0.000961487	0.00013893	0	0	0	
0.043	-0.00906727	0.00345276	0.000981528	0.000138523	0	0	0	
0.0431667	0.008598	-0.00349566	0.0010129	0.000139647	0	0	0	
0.0433333	-0.00493442	0.00363814	0.00105004	0.000141573	0	0	0	
0.0435	0.00232883	-0.0037218	0.00105592	0.000142791	0	0	0	
0.0436667	-0.00620538	0.0036821	0.00101873	0.000141468	0	0	0	
0.0438333	0.00672313	-0.00343516	0.000973237	0.000138643	0	0	0	
0.044	-0.00482228	0.0034542	0.000955296	0.000136441	0	0	0	
0.0441667	0.00719265	-0.00352644	0.000943222	0.000136807	0	0	0	
0.0443333	-0.00876459	0.00359119	0.00092022	0.000138253	0	0	0	
0.0445	0.00859847	-0.00369572	0.000920486	0.000139825	0	0	0	
0.0446667	-0.00537781	0.00380717	0.000948201	0.000140828	0	0	0	
0.0448333	0.00471271	-0.00376773	0.000971648	0.000141156	0	0	0	
0.045	-0.00479197	0.00370665	0.000969213	0.000140181	0	0	0	
0.0451667	0.00708257	-0.0035854	0.000963641	0.000138731	0	0	0	
0.0453333	-0.00680268	0.00352603	0.000967215	0.000138349	0	0	0	
0.0455	0.0045316	-0.00364899	0.000968868	0.000139671	0	0	0	
0.0456667	-0.00914914	0.00374074	0.000937217	0.000141036	0	0	0	
0.0458333	0.0168641	-0.00377302	0.000900258	0.000140872	0	0	0	
0.046	-0.0123262	0.00365619	0.000970427	0.000139354	0	0	0	
0.0461667	-0.0112992	-0.0035375	0.00118956	0.000137546	0	0	0	
0.0463333	0.0167785	0.00341091	0.00127665	0.000136857	0	0	0	
0.0465	0.00254344	-0.00364173	0.00105783	0.000137105	0	0	0	
0.0466667	-0.0202704	0.00376488	0.000804114	0.000138025	0	0	0	
0.0468333	0.00448017	-0.0038175	0.000836896	0.000138459	0	0	0	
0.047	-0.00269664	0.00375047	0.000980385	0.000138671	0	0	0	
0.0471667	0.0224764	-0.00371064	0.000973598	0.000138469	0	0	0	
0.0473333	-0.0166739	0.00365851	0.000973187	0.000137819	0	0	0	
0.0475	-0.0159182	-0.00375175	0.0011552	0.000137106	0	0	0	
0.0476667	0.00797584	0.0037246	0.0012323	0.000137439	0	0	0	
0.0478333	0.00990494	-0.0038081	0.00101072	0.00013921	0	0	0	
0.048	-0.0075938	0.00390527	0.000786636	0.000141129	0	0	0	
0.0481667	0.000172369	-0.00380607	0.000822397	0.000141469	0	0	0	
0.0483333	0.00321838	0.00371645	0.00096639	0.000140531	0	0	0	
0.0485	0.00180956	-0.00383559	0.000981415	0.000140073	0	0	0	
0.0486667	-0.00356467	0.00385812	0.000922497	0.000140745	0	0	0	
0.0488333	0.00111539	-0.00385342	0.000936128	0.000141523	0	0	0	
0.049	0.00192211	0.00375756	0.00101798	0.000141064	0	0	0	
0.0491667	-0.000848273	-0.00371497	0.00106924	0.000139848	0	0	0	
0.0493333	-0.00101803	0.0036724	0.00104663	0.000139124	0	0	0	
0.0495	0.00243097	-0.00375389	0.00098465	0.000139128	0	0	0	
0.0496667	-0.000274925	0.00378311	0.000951249	0.000139434	0	0	0	
0.0498333	0.00125955	-0.00384726	0.000954472	0.000139499	0	0	0	
0.05	-0.0019628	0.00381923	0.000953184	0.000139189	0	0	0	
0.0501667	0.00646915	-0.00380068	0.000946054	0.000138573	0	0	0	
0.0503333	-0.00339048	0.0037145	0.000967277	0.000138072	0	0	0	
0.0505	0.000370298	-0.00386285	0.00102231	0.000138008	0	0	0	
0.0506667	-0.00107007	0.00403038	0.00105807	0.000139043	0	0	0	
0.0508333	0.00229495	-0.00402493	0.00104074	0.00014062	0	0	0	
0.051	0.00126113	0.00398906	0.000990719	0.000141723	0	0	0	
0.0511667	0.00237832	-0.00390475	0.000951459	0.000141558	0	0	0	
0.0513333	-0.00509555	0.00389321	0.000938051	0.000140436	0	0	0	
0.0515	0.00933632	-0.00393314	0.000946408	0.00013983	0	0	0	
0.0516667	-0.00921388	0.00399738	0.00096615	0.000140404	0	0	0	
0.0518333	0.00234879	-0.00393111	0.000995247	0.00014175	0	0	0	
0.052	0.000851164	0.00400053	0.00101174	0.000142035	0	0	0	
0.0521667	0.000332879	-0.00391709	0.000991662	0.00014105	0	0	0	
0.0523333	-0.00261445	0.00386328	0.000955323	0.000138969	0	0	0	
0.0525	0.00170923	-0.00385051	0.000936998	0.000137779	0	0	0	
0.0526667	0.00107942	0.00383051	0.00093565	0.000137631	0	0	0	
0.0528333	0.00201163	-0.00380769	0.000920171	0.000138491	0	0	0	
0.053	-0.00591231	0.00389029	0.00091121	0.00013925	0	0	0	
0.0531667	-0.0002187	-0.00394016	0.000946993	0.000139864	0	0	0	
0.0533333	0.00676649	0.00393102	0.00100014	0.000140414	0	0	0	
0.0535	0.000308467	-0.00395015	0.00099051	0.000140841	0	0	0	
0.0536667	-0.00459939	0.0039495	0.000927416	0.000140681	0	0	0	
0.0538333	0.00370977	-0.00404185	0.00090641	0.000140114	0	0	0	
0.054	0.00186698	0.00400861	0.000953735	0.000139703	0	0	0	
0.0541667	-0.00203264	-0.00403243	0.00100847	0.000139171	0	0	0	
0.0543333	0.00224849	0.00392393	0.00101776	0.000138974	0	0	0	
0.0545	0.00160876	-0.00390716	0.000986773	0.000138487	0	0	0	
0.0546667	-0.00277369	0.00394413	0.000933722	0.000138219	0	0	0	
0.0548333	0.00311003	-0.00402559	0.000888985	0.000138161	0	0	0	
0.055	-0.00302546	0.00409831	0.000903979	0.000138966	0	0	0	
0.0551667	0.000510343	-0.00418487	0.000984512	0.000140182	0	0	0	
0.0553333	-0.000420616	0.00411125	0.00106097	0.000140952	0	0	0	
0.0555	-0.00349292	-0.00402404	0.00106609	0.00014064	0	0	0	
0.0556667	0.00288571	0.00397339	0.00101362	0.000139725	0	0	0	
0.0558333	0.00146134	-0.00399863	0.000945213	0.000139135	0	0	0	
0.056	-0.00522467	0.00412278	0.000913861	0.000139598	0	0	0	
0.0561667	0.0039525	-0.00410428	0.000954894	0.000140613	0	0	0	
0.0563333	0.00135733	0.00410471	0.00105184	0.000140798	0	0	0	
0.0565	-0.00834599	-0.00409334	0.00110973	0.000140212	0	0	0	
0.0566667	0.00400993	0.00404206	0.0010605	0.000139487	0	0	0	
0.0568333	-9.3673E-06	-0.00403166	0.000956881	0.00013916	0	0	0	
0.057	-0.00309383	0.004073	0.000896838	0.00013863	0	0	0	
0.0571667	0.00546041	-0.00401796	0.000886284	0.000137901	0	0	0	
0.0573333	-0.00689434	0.00408244	0.000901343	0.000137673	0	0	0	
0.0575	0.00435895	-0.00410373	0.000951124	0.000138512	0	0	0	
0.0576667	-0.00339274	0.00407315	0.00103251	0.000139155	0	0	0	
0.0578333	0.00232998	-0.00406604	0.00107856	0.000139226	0	0	0	
0.058	-0.00476385	0.00417564	0.00105865	0.000138846	0	0	0	
0.0581667	0.000167462	-0.00422386	0.00102099	0.000138998	0	0	0	
0.0583333	0.00286383	0.00417959	0.000997436	0.00013899	0	0	0	
0.0585	0.0013419	-0.00407592	0.000971102	0.000138532	0	0	0	
0.0586667	-0.00162616	0.00406798	0.000957567	0.000137859	0	0	0	
0.0588333	-0.00349702	-0.004084	0.000978142	0.000137899	0	0	0	
0.059	0.00293051	0.00410005	0.000990311	0.000137986	0	0	0	
0.0591667	-0.000976143	-0.00414829	0.000949378	0.000138044	0	0	0	
0.0593333	-0.00119294	0.0041477	0.00090167	0.000138047	0	0	0	
0.0595	0.000722256	-0.00413227	0.000902995	0.000138523	0	0	0	
0.0596667	-0.00383358	0.00406795	0.00092608	0.000138829	0	0	0	
0.0598333	0.00319644	-0.00407483	0.000952658	0.000138315	0	0	0	
0.06	0.00236266	0.00410256	0.00101091	0.000137361	0	0	0	
0.0601667	-0.0110324	-0.00421316	0.00103502	0.000137052	0	0	0	
0.0603333	-0.00508819	0.00419317	0.000905256	0.000137881	0	0	0	
0.0605	0.0191894	-0.00419025	0.000706597	0.000138441	0	0	0	
0.0606667	-0.0143304	0.00411064	0.000664501	0.000137955	0	0	0	
0.0608333	0.00743256	-0.00415269	0.000857943	0.000136702	0	0	0	
0.061	-0.00907277	0.00416652	0.00109403	0.000136158	0	0	0	
0.0611667	-0.00579647	-0.00415775	0.00124636	0.000135994	0	0	0	
0.0613333	0.0232076	0.00410486	0.0012776	0.000136404	0	0	0	
0.0615	-0.0206978	-0.00424206	0.00115068	0.000137307	0	0	0	
0.0616667	0.00233128	0.00430812	0.000890667	0.000138805	0	0	0	
0.0618333	0.0104344	-0.00424844	0.000707275	0.000139613	0	0	0	
0.062	-0.00770292	0.00419955	0.000739302	0.000139221	0	0	0	
0.0621667	0.00144379	-0.00417311	0.00086643	0.000138321	0	0	0	
0.0623333	0.00023434	0.00425955	0.000935881	0.000137742	0	0	0	
0.0625	-0.00111459	-0.00424181	0.000936585	0.000137851	0	0	0	
0.0626667	-0.0016803	0.00419907	0.000932883	0.000137761	0	0	0	
0.0628333	0.00479069	-0.00420933	0.000919299	0.000137579	0	0	0	
0.063	-0.00375875	0.00425679	0.000913417	0.000137178	0	0	0	
0.0631667	0.00125959	-0.00420899	0.000949206	0.000136841	0	0	0	
0.0633333	0.00194975	0.00432217	0.000996408	0.000136113	0	0	0	
0.0635	-0.00250256	-0.00424378	0.00100481	0.000136164	0	0	0	
0.0636667	0.00128062	0.00427625	0.000978199	0.00013667	0	0	0	
0.0638333	-0.00166204	-0.0043288	0.000953205	0.000138023	0	0	0	
0.064	0.00332512	0.00430099	0.000939499	0.000138981	0	0	0	
0.0641667	-0.0031522	-0.00440588	0.000923249	0.000139933	0	0	0	
0.0643333	0.00459233	0.00455534	0.000904245	0.000140788	0	0	0	
0.0645	0.00101224	-0.00452041	0.000899924	0.00014124	0	0	0	
0.0646667	-0.000589518	0.00439653	0.000922304	0.000140674	0	0	0	
0.0648333	0.000983751	-0.00433588	0.000971659	0.00013934	0	0	0	
0.065	0.00264358	0.00429053	0.00101345	0.000137815	0	0	0	
0.0651667	-0.00279781	-0.00437038	0.00102248	0.000136976	0	0	0	
0.0653333	0.000382332	0.00436238	0.00101054	0.000137339	0	0	0	
0.0655	-0.000524239	-0.00436892	0.00100895	0.000138502	0	0	0	
0.0656667	0.0071061	0.00436349	0.000989338	0.000139375	0	0	0	
0.0658333	0.00731811	-0.00444383	0.000851578	0.00013907	0	0	0	
0.066	-0.0261991	0.00443305	0.000728509	0.000138613	0	0	0	
0.0661667	0.00358455	-0.00443983	0.00100981	0.000138717	0	0	0	
0.0663333	0.119931	0.00444946	0.00195155	0.000139595	0	0	0	
0.0665	-0.113024	-0.00441973	0.00303178	0.000140128	0	0	0	
0.0666667	0.0599328	0.00449131	0.00305263	0.000140035	0	0	0	
0.0668333	-0.00470715	-0.00457306	0.00210016	0.000139661	0	0	0	
0.067	-0.00357806	0.00446979	0.0009638	0.000139127	0	0	0	
0.0671667	0.0271372	-0.0044656	0.000632337	0.00013831	0	0	0	
0.0673333	-0.0498305	0.00440791	0.000875977	0.000137336	0	0	0	
0.0675	0.0994834	-0.00442266	0.00172402	0.00013629	0	0	0	
0.0676667	-0.018137	0.0044471	0.00251561	0.000136356	0	0	0	
0.0678333	-0.0330718	-0.00445561	0.00276686	0.000136902	0	0	0	
0.068	0.0164642	0.00441264	0.00204532	0.000137523	0	0	0	
0.0681667	0.0183057	-0.00449935	0.00117418	0.000137587	0	0	0	
0.0683333	-0.0127319	0.00447676	0.00085854	0.000137492	0	0	0	
0.0685	-0.0152892	-0.00454484	0.0010924	0.000137679	0	0	0	
0.0686667	0.0334372	0.00460129	0.00140324	0.00013886	0	0	0	
0.0688333	-0.0239818	-0.00460152	0.00140194	0.000139858	0	0	0	
0.069	0.00763162	0.00457394	0.00112023	0.00013985	0	0	0	
0.0691667	-0.00129476	-0.00460669	0.000886647	0.000138666	0	0	0	
0.0693333	0.0101108	0.00463786	0.000838877	0.000137758	0	0	0	
0.0695	-0.00899642	-0.00462157	0.000876278	0.000137779	0	0	0	
0.0696667	-0.00264891	0.00454905	0.000868257	0.000138004	0	0	0	
0.0698333	0.00743155	-0.00447406	0.000870206	0.000138034	0	0	0	
0.07	0.000968521	0.0045072	0.000960169	0.000137995	0	0	0	
0.0701667	-0.00745365	-0.0045706	0.00107693	0.000138359	0	0	0	
0.0703333	0.0130312	0.0046088	0.00111762	0.000138774	0	0	0	
0.0705	-0.00737668	-0.00459435	0.0010564	0.000139274	0	0	0	
0.0706667	-0.00308813	0.0046571	0.000916673	0.000139403	0	0	0	
0.0708333	0.00851773	-0.00464448	0.000841071	0.000139553	0	0	0	
0.071	-0.00174337	0.00462287	0.000967785	0.000139043	0	0	0	
0.0711667	-0.0267647	-0.00460315	0.00127521	0.000138412	0	0	0	
0.0713333	0.0446264	0.00453369	0.00154975	0.00013773	0	0	0	
0.0715	-0.0265979	-0.00462413	0.00158107	0.000137889	0	0	0	
0.0716667	0.0140639	0.00463387	0.00132475	0.000138556	0	0	0	
0.0718333	-0.00493161	-0.00462025	0.000992532	0.000138624	0	0	0	
0.072	-0.0121983	0.00463923	0.000792042	0.000138127	0	0	0	
0.0721667	0.0135139	-0.00462539	0.000873233	0.000137542	0	0	0	
0.0723333	-0.00901394	0.00458184	0.00112098	0.000137252	0	0	0	
0.0725	0.00717043	-0.00467269	0.00133702	0.000137435	0	0	0	
0.0726667	0.00576655	0.00463855	0.00138307	0.000138001	0	0	0	
0.0728333	-0.010734	-0.00476296	0.00127142	0.000138473	0	0	0	
0.073	0.00171769	0.00478855	0.00109997	0.000138899	0	0	0	
0.0731667	0.00408802	-0.00469385	0.000988649	0.000138605	0	0	0	
0.0733333	0.00606822	0.0046763	0.00098909	0.000138226	0	0	0	
0.0735	-0.0140866	-0.00475967	0.00104206	0.000137944	0	0	0	
0.0736667	0.00969468	0.00473905	0.00104598	0.000138077	0	0	0	
0.0738333	-0.00297003	-0.00469055	0.000960337	0.000138064	0	0	0	
0.074	0.00122073	0.00466645	0.000889246	0.000137729	0	0	0	
0.0741667	-0.00360197	-0.00464175	0.000921	0.000137367	0	0	0	
0.0743333	0.0108567	0.00471026	0.00102221	0.000137476	0	0	0	
0.0745	-0.00974679	-0.00480607	0.00106502	0.000138129	0	0	0	
0.0746667	0.00451287	0.00485528	0.00099272	0.000139057	0	0	0	
0.0748333	-0.00118815	-0.00489422	0.000902898	0.000139772	0	0	0	
0.075	0.00261584	0.00486204	0.000894825	0.000139553	0	0	0	
0.0751667	-0.00535255	-0.00477002	0.000951236	0.000138231	0	0	0	
0.0753333	0.00544105	0.00474616	0.000988518	0.000136887	0	0	0	
0.0755	-0.0078166	-0.00474722	0.000989229	0.00013656	0	0	0	
0.0756667	0.00701869	0.00481541	0.00099223	0.000137442	0	0	0	
0.0758333	-0.00656453	-0.00492663	0.000991826	0.000139052	0	0	0	
0.076	0.00547816	0.00485332	0.000965305	0.000140244	0	0	0	
0.0761667	-0.00698849	-0.00488805	0.000920703	0.000140335	0	0	0	
0.0763333	0.00429863	0.00488622	0.000893199	0.000140389	0	0	0	
0.0765	-0.00453126	-0.00486117	0.000897219	0.000140247	0	0	0	
0.0766667	0.00210916	0.00479535	0.000930867	0.000139893	0	0	0	
0.0768333	-0.00380995	-0.00479847	0.000960952	0.000138663	0	0	0	
0.077	0.00409059	0.00474271	0.000969925	0.000138004	0	0	0	
0.0771667	-0.00583419	-0.00478874	0.000966363	0.000138262	0	0	0	
0.0773333	0.00762599	0.00485848	0.000982707	0.000138811	0	0	0	
0.0775	-0.0120223	-0.00485009	0.00100887	0.000138528	0	0	0	
0.0776667	0.00998049	0.00481798	0.00100621	0.00013782	0	0	0	
0.0778333	-0.00643073	-0.00488819	0.000957203	0.000137398	0	0	0	
0.078	0.00392381	0.00481695	0.000899015	0.00013758	0	0	0	
0.0781667	-0.000171711	-0.00478011	0.000864816	0.000137672	0	0	0	
0.0783333	-0.000335078	0.00484244	0.000872644	0.000137595	0	0	0	
0.0785	-0.00542707	-0.00493827	0.000922611	0.000137705	0	0	0	
0.0786667	0.0126975	0.00498401	0.000985517	0.000138189	0	0	0	
0.0788333	-0.0130583	-0.00495091	0.00101223	0.000138274	0	0	0	
0.079	0.00707382	0.00486127	0.000975777	0.000137345	0	0	0	
0.0791667	-0.0034622	-0.00479888	0.000919979	0.000136233	0	0	0	
0.0793333	0.00511853	0.0048815	0.000892556	0.000136247	0	0	0	
0.0795	-0.00607403	-0.00501286	0.000912062	0.000137524	0	0	0	
0.0796667	0.0077203	0.00511139	0.000963373	0.000139095	0	0	0	
0.0798333	-0.00801829	-0.00505951	0.00100755	0.000139868	0	0	0	
0.08	0.0058049	0.005004	0.00100752	0.000139414	0	0	0	
0.0801667	-0.00286214	-0.00496889	0.000966366	0.000138614	0	0	0	
0.0803333	0.00634322	0.00494158	0.000928677	0.000138116	0	0	0	
0.0805	-0.00648872	-0.00489416	0.000929458	0.000138223	0	0	0	
0.0806667	0.00882976	0.00491729	0.000954599	0.000138592	0	0	0	
0.0808333	-0.010544	-0.00494382	0.000972774	0.000139178	0	0	0	
0.081	0.0054954	0.00499748	0.00095738	0.000139692	0	0	0	
0.0811667	-0.00300831	-0.00507946	0.000920029	0.000139886	0	0	0	
0.0813333	0.00597929	0.00499341	0.000909392	0.00013937	0	0	0	
0.0815	-0.00663958	-0.00493203	0.000945749	0.000138188	0	0	0	
0.0816667	0.00860814	0.00490374	0.00100807	0.000136997	0	0	0	
0.0818333	-0.0116754	-0.0049548	0.00106539	0.000136516	0	0	0	
0.082	0.0123084	0.00498835	0.00106765	0.000137253	0	0	0	
0.0821667	-0.00971958	-0.00509244	0.00097097	0.000138238	0	0	0	
0.0823333	-0.00587325	0.00503764	0.000839274	0.000138775	0	0	0	
0.0825	0.01222	-0.00503495	0.00083849	0.000138187	0	0	0	
0.0826667	-0.000384515	0.00508188	0.00100131	0.000137844	0	0	0	
0.0828333	-0.00832528	-0.00505489	0.00115392	0.000137723	0	0	0	
0.083	0.00916084	0.00491977	0.00113068	0.000138104	0	0	0	
0.0831667	-0.0102333	-0.00498981	0.000996889	0.000138592	0	0	0	
0.0833333	0.00760895	0.00510592	0.000879978	0.000139369	0	0	0	
0.0835	0.00118383	-0.00523357	0.000804929	0.000139815	0	0	0	
0.0836667	-0.00444751	0.00516458	0.000753106	0.000139848	0	0	0	
0.0838333	0.0025961	-0.00505655	0.000752921	0.000139333	0	0	0	
0.084	0.00719411	0.00500744	0.000842471	0.000139123	0	0	0	
0.0841667	-0.0146943	-0.0051289	0.000962488	0.000138999	0	0	0	
0.0843333	0.0149294	0.00515845	0.00100882	0.000139177	0	0	0	
0.0845	-0.00500076	-0.00516301	0.000964475	0.0001393	0	0	0	
0.0846667	0.00428009	0.00509218	0.000934925	0.000139296	0	0	0	
0.0848333	-0.0138166	-0.00506734	0.000981515	0.000139076	0	0	0	
0.085	0.0170408	0.00508292	0.00101737	0.00013888	0	0	0	
0.0851667	-0.00733015	-0.005129	0.000967183	0.000138991	0	0	0	
0.0853333	0.00815277	0.00515038	0.000894083	0.000139234	0	0	0	
0.0855	-0.0169299	-0.00516627	0.000914888	0.00013943	0	0	0	
0.0856667	0.0090895	0.00512849	0.000977206	0.000138965	0	0	0	
0.0858333	-0.00586852	-0.0050479	0.00098509	0.000138202	0	0	0	
0.086	0.00713925	0.00507325	0.000977809	0.00013762	0	0	0	
0.0861667	-0.0161774	-0.00506815	0.00100764	0.000138098	0	0	0	
0.0863333	0.0134394	0.00522939	0.00102606	0.000138728	0	0	0	
0.0865	-0.00156187	-0.00531099	0.000944714	0.000139724	0	0	0	
0.0866667	-0.00791039	0.005313	0.000880516	0.000139941	0	0	0	
0.0868333	-0.00745154	-0.00531442	0.000972301	0.000139772	0	0	0	
0.087	0.0237861	0.00520028	0.00113061	0.000139038	0	0	0	
0.0871667	-0.0194703	-0.00505627	0.00114891	0.000138259	0	0	0	
0.0873333	0.00415465	0.00493019	0.00100655	0.00013853	0	0	0	
0.0875	-0.00746707	-0.00494286	0.000887607	0.000139492	0	0	0	
0.0876667	0.0144939	0.00523793	0.000881721	0.000140727	0	0	0	
0.0878333	-0.00603216	-0.00530242	0.000900656	0.000141442	0	0	0	
0.088	0.00657003	0.00514305	0.000898632	0.000140857	0	0	0	
0.0881667	-0.00650055	-0.00508126	0.000973459	0.000139215	0	0	0	
0.0883333	0.0158331	0.00494012	0.0010951	0.000137466	0	0	0	
0.0885	-0.0182753	-0.00487895	0.00110917	0.000135493	0	0	0	
0.0886667	0.0089556	0.00503272	0.000969036	0.000134525	0	0	0	
0.0888333	-0.00842081	-0.00511443	0.000857111	0.000134693	0	0	0	
0.089	0.0166568	0.0052228	0.000892208	0.000135769	0	0	0	
0.0891667	-0.0129747	-0.00528463	0.000903971	0.000136656	0	0	0	
0.0893333	-0.00131724	0.00525082	0.000800994	0.000136349	0	0	0	
0.0895	-0.00155274	-0.00518846	0.000743339	0.000136201	0	0	0	
0.0896667	0.010221	0.00514142	0.000879523	0.000136493	0	0	0	
0.0898333	-0.0147731	-0.00518944	0.00108813	0.000136707	0	0	0	
0.09	0.0199794	0.00527732	0.00116664	0.000136634	0	0	0	
0.0901667	-0.0231103	-0.00532236	0.00110064	0.000136913	0	0	0	
0.0903333	0.0116037	0.00533586	0.000991291	0.000137999	0	0	0	
0.0905	-0.011908	-0.0054467	0.000882296	0.00013978	0	0	0	
0.0906667	0.00446317	0.00539475	0.000819078	0.000140864	0	0	0	
0.0908333	-0.00608437	-0.00535965	0.000808274	0.000140079	0	0	0	
0.091	0.0116294	0.00535295	0.000903169	0.000138412	0	0	0	
0.0911667	-0.0195684	-0.00529059	0.0010445	0.000136846	0	0	0	
0.0913333	0.0213344	0.00530227	0.00112218	0.0001367	0	0	0	
0.0915	-0.0145443	-0.00534098	0.00105394	0.000137367	0	0	0	
0.0916667	0.00435469	0.00535484	0.000957206	0.000138395	0	0	0	
0.0918333	-0.0194837	-0.00542987	0.000970701	0.000139147	0	0	0	
0.092	0.0161069	0.00544086	0.00104241	0.000139496	0	0	0	
0.0921667	-0.00753084	-0.00538955	0.000996793	0.000139153	0	0	0	
0.0923333	0.0038078	0.00547882	0.000904148	0.000138921	0	0	0	
0.0925	-0.00519673	-0.0054659	0.00088905	0.00013918	0	0	0	
0.0926667	0.0154282	0.00547676	0.000961023	0.00013913	0	0	0	
0.0928333	-0.0165595	-0.00536717	0.000995009	0.000138718	0	0	0	
0.093	0.0134072	0.00534146	0.00093706	0.000137152	0	0	0	
0.0931667	-0.0133067	-0.00535343	0.000845994	0.00013643	0	0	0	
0.0933333	-0.000637802	0.00537047	0.000777267	0.000136143	0	0	0	
0.0935	0.00437775	-0.00545054	0.00075176	0.000137124	0	0	0	
0.0936667	0.00577395	0.00561255	0.000802383	0.000138318	0	0	0	
0.0938333	-0.0147889	-0.00552009	0.000934874	0.000139797	0	0	0	
0.094	0.0173294	0.00550784	0.00112574	0.000140074	0	0	0	
0.0941667	-0.0336489	-0.005437	0.00124673	0.000140176	0	0	0	
0.0943333	0.0291357	0.00548243	0.00126993	0.000139658	0	0	0	
0.0945	-0.0238151	-0.00552731	0.00111924	0.00013972	0	0	0	
0.0946667	0.0156827	0.00554073	0.000918724	0.000139446	0	0	0	
0.0948333	-0.00970638	-0.0054957	0.00077501	0.000139342	0	0	0	
0.095	0.00222704	0.00545499	0.000812276	0.000138637	0	0	0	
0.0951667	-0.00236583	-0.00528039	0.000911876	0.000137777	0	0	0	
0.0953333	0.00484393	0.00531113	0.000994327	0.000136594	0	0	0	
0.0955	-0.00618765	-0.00539465	0.00106132	0.000136709	0	0	0	
0.0956667	0.0162526	0.00544971	0.00110643	0.000137063	0	0	0	
0.0958333	-0.0155999	-0.00548423	0.00108641	0.000137408	0	0	0	
0.096	0.0122182	0.00546188	0.000999399	0.000137217	0	0	0	
0.0961667	-0.00948418	-0.00545118	0.000942265	0.000137332	0	0	0	
0.0963333	0.0119397	0.00555699	0.000910198	0.000137973	0	0	0	
0.0965	-0.00971576	-0.0055889	0.000897147	0.000138796	0	0	0	
0.0966667	0.0101426	0.00558612	0.00092624	0.000139248	0	0	0	
0.0968333	-0.014921	-0.00557886	0.00101442	0.000139097	0	0	0	
0.097	0.0185822	0.0056019	0.00108242	0.000138858	0	0	0	
0.0971667	-0.0165425	-0.00561031	0.00106279	0.000138486	0	0	0	
0.0973333	0.0125234	0.00554138	0.000971623	0.000138271	0	0	0	
0.0975	-0.0103731	-0.00539627	0.000902308	0.000137599	0	0	0	
0.0976667	0.0112495	0.00534947	0.000898625	0.000137243	0	0	0	
0.0978333	-0.0105473	-0.00543321	0.000897497	0.000137134	0	0	0	
0.098	0.00674767	0.0055452	0.000849829	0.000137426	0	0	0	
0.0981667	-0.00564667	-0.00562867	0.000845159	0.000137927	0	0	0	
0.0983333	0.0165222	0.00567066	0.000937954	0.000138483	0	0	0	
0.0985	-0.0157178	-0.00570798	0.00100945	0.00013892	0	0	0	
0.0986667	0.00474414	0.00557273	0.000960998	0.000138601	0	0	0	
0.0988333	-0.0107887	-0.00557644	0.000921499	0.000137818	0	0	0	
0.099	0.0258958	0.00559564	0.000969071	0.000137218	0	0	0	
0.0991667	-0.0140581	-0.00566467	0.000981894	0.000137258	0	0	0	
0.0993333	0.00124045	0.00569236	0.000866596	0.000137828	0	0	0	
0.0995	-0.00972011	-0.00569483	0.000839998	0.000138418	0	0	0	
0.0996667	0.0166274	0.00553673	0.000926326	0.000138712	0	0	0	
0.0998333	-0.0135777	-0.00552578	0.000983147	0.000138748	0	0	0	
0.1	0.0169259	0.00557249	0.000908786	0.000138753	0	0	0	
0.100167	-0.017056	-0.00568536	0.000839294	0.000138718	0	0	0	
0.100333	0.0120033	0.0057707	0.000827098	0.00013911	0	0	0	
0.1005	-0.0105268	-0.00567165	0.000838848	0.000138935	0	0	0	
0.100667	0.0129454	0.00558906	0.00085119	0.000138256	0	0	0	
0.100833	-0.0137509	-0.00556199	0.000878754	0.000137045	0	0	0	
0.101	0.0161544	0.00559689	0.000915864	0.000136387	0	0	0	
0.101167	-0.0172878	-0.00569677	0.000959828	0.000136819	0	0	0	
0.101333	0.0179602	0.00572028	0.000984601	0.000137885	0	0	0	
0.1015	-0.0142051	-0.00567595	0.000960714	0.000138346	0	0	0	
0.101667	0.0129721	0.00569075	0.000910274	0.00013811	0	0	0	
0.101833	-0.0151338	-0.00567122	0.000907718	0.000137753	0	0	0	
0.102	0.0160853	0.00563805	0.000936889	0.000137732	0	0	0	
0.102167	-0.0151297	-0.00572685	0.000947787	0.000138261	0	0	0	
0.102333	0.0163586	0.0057259	0.000937717	0.000138907	0	0	0	
0.1025	-0.0181814	-0.00577359	0.000938568	0.000139111	0	0	0	
0.102667	0.0159617	0.00581457	0.000938027	0.000139142	0	0	0	
0.102833	-0.0120687	-0.00580723	0.000927377	0.000138825	0	0	0	
0.103	0.0184515	0.00576177	0.000939628	0.000138442	0	0	0	
0.103167	-0.0211046	-0.00569447	0.000993217	0.000137705	0	0	0	
0.103333	0.016735	0.00556044	0.00101237	0.000136897	0	0	0	
0.1035	-0.00919014	-0.00559899	0.00097949	0.000136703	0	0	0	
0.103667	0.0118861	0.00577808	0.000955184	0.000137569	0	0	0	
0.103833	-0.0140726	-0.00582339	0.000973707	0.000138995	0	0	0	
0.104	0.0113629	0.00586253	0.000969781	0.000140116	0	0	0	
0.104167	-0.0258299	-0.00587656	0.000948656	0.000140162	0	0	0	
0.104333	0.0158001	0.00578604	0.000968556	0.000139006	0	0	0	
0.1045	-0.0165766	-0.00565566	0.00095104	0.000137163	0	0	0	
0.104667	0.0150102	0.00564149	0.000900406	0.0001354	0	0	0	
0.104833	-0.0148371	-0.00567221	0.000843696	0.000134873	0	0	0	
0.105	0.0199164	0.00572983	0.000900737	0.000135509	0	0	0	
0.105167	-0.0324214	-0.00579611	0.00101945	0.000136638	0	0	0	
0.105333	0.0140548	0.00577129	0.00111243	0.000137253	0	0	0	
0.1055	-0.0165591	-0.00575676	0.00105763	0.000137448	0	0	0	
0.105667	0.0124738	0.00584871	0.000974883	0.000137392	0	0	0	
0.105833	-0.0161926	-0.00581038	0.000951669	0.000137635	0	0	0	
0.106	0.0200785	0.00574612	0.00103532	0.000137582	0	0	0	
0.106167	-0.0148469	-0.0057833	0.00106495	0.000137688	0	0	0	
0.106333	0.0137941	0.00590114	0.00102222	0.00013789	0	0	0	
0.1065	-0.0166393	-0.00595177	0.00097842	0.000138677	0	0	0	
0.106667	0.00781717	0.00592396	0.000936096	0.000138713	0	0	0	
0.106833	-0.00995436	-0.00585483	0.000911297	0.000138426	0	0	0	
0.107	0.020682	0.00583112	0.000987295	0.000137377	0	0	0	
0.107167	-0.0243839	-0.00582933	0.00111038	0.000136781	0	0	0	
0.107333	0.0208074	0.00581178	0.00114907	0.000136628	0	0	0	
0.1075	-0.0184473	-0.00591852	0.00106152	0.000138036	0	0	0	
0.107667	0.0139719	0.00601044	0.00093766	0.00013983	0	0	0	
0.107833	-0.00867595	-0.00603587	0.000831951	0.000140866	0	0	0	
0.108	0.00846745	0.00598171	0.000795412	0.000140671	0	0	0	
0.108167	-0.0104599	-0.0059493	0.000860778	0.0001399	0	0	0	
0.108333	0.0181367	0.00587744	0.000994391	0.000139314	0	0	0	
0.1085	-0.0217887	-0.00583931	0.00108229	0.000138921	0	0	0	
0.108667	0.0176197	0.00587221	0.00107706	0.000138904	0	0	0	
0.108833	-0.0157574	-0.00593117	0.00103405	0.000138864	0	0	0	
0.109	0.0219405	0.00593946	0.00100794	0.000139093	0	0	0	
0.109167	-0.0212447	-0.00591633	0.000996654	0.000138889	0	0	0	
0.109333	0.0109948	0.00588581	0.000978655	0.000138995	0	0	0	
0.1095	-0.0113774	-0.00596614	0.000968809	0.000139269	0	0	0	
0.109667	0.0193774	0.00598944	0.00101944	0.00013966	0	0	0	
0.109833	-0.0217185	-0.00604788	0.00106736	0.000139499	0	0	0	
0.11	0.0195472	0.00603769	0.00104552	0.000139544	0	0	0	
0.110167	-0.0154052	-0.00602607	0.000991726	0.000139582	0	0	0	
0.110333	0.0201997	0.00594784	0.000958679	0.000139669	0	0	0	
0.1105	-0.0181317	-0.00587021	0.000949375	0.000138842	0	0	0	
0.110667	0.0117242	0.00588327	0.000930386	0.000138196	0	0	0	
0.110833	-0.0160836	-0.00597925	0.000942527	0.000138474	0	0	0	
0.111	0.0149752	0.00599976	0.000960706	0.000139536	0	0	0	
0.111167	-0.00708475	-0.00596573	0.00095422	0.000140249	0	0	0	
0.111333	0.0139752	0.00600809	0.000957014	0.000140337	0	0	0	
0.1115	-0.0217835	-0.00602928	0.000995535	0.000140176	0	0	0	
0.111667	0.0157392	0.00599247	0.00100154	0.000139765	0	0	0	
0.111833	-0.0130845	-0.00590848	0.000937647	0.000138687	0	0	0	
0.112	0.0187836	0.0058431	0.000916018	0.00013678	0	0	0	
0.112167	-0.0287538	-0.00587391	0.000981227	0.000135515	0	0	0	
0.112333	0.0210091	0.00592268	0.00103256	0.000135379	0	0	0	
0.1125	-0.0141066	-0.00593623	0.000955044	0.000136142	0	0	0	
0.112667	0.0145607	0.00605937	0.000880464	0.000137272	0	0	0	
0.112833	-0.0226678	-0.00610632	0.00088874	0.000138319	0	0	0	
0.113	0.0195348	0.00612913	0.000921781	0.000138685	0	0	0	
0.113167	-0.00742606	-0.00610935	0.000905641	0.000138557	0	0	0	
0.113333	0.00845892	0.00610555	0.000943637	0.000138293	0	0	0	
0.1135	-0.0216936	-0.00609803	0.0010411	0.000138801	0	0	0	
0.113667	0.0177887	0.00616483	0.00106219	0.000139584	0	0	0	
0.113833	-0.0107732	-0.00616534	0.000951693	0.000140177	0	0	0	
0.114	0.0137079	0.00620117	0.000913342	0.000140307	0	0	0	
0.114167	-0.0233603	-0.00614218	0.000983849	0.000140061	0	0	0	
0.114333	0.0230525	0.00609623	0.00101066	0.000139282	0	0	0	
0.1145	-0.0103213	-0.00603513	0.000928806	0.000138687	0	0	0	
0.114667	0.0161615	0.00603049	0.000894654	0.000138191	0	0	0	
0.114833	-0.0283816	-0.006016	0.000988177	0.000138111	0	0	0	
0.115	0.0189915	0.00601461	0.00103693	0.000138012	0	0	0	
0.115167	-0.0145223	-0.00607992	0.000925182	0.00013801	0	0	0	
0.115333	0.0162652	0.00613662	0.000832641	0.000138244	0	0	0	
0.1155	-0.0193989	-0.00605808	0.00083083	0.000138476	0	0	0	
0.115667	0.0111327	0.00597976	0.000858437	0.000138223	0	0	0	
0.115833	-0.00773295	-0.00608309	0.000860295	0.000137752	0	0	0	
0.116	0.0235619	0.00624806	0.000952974	0.000137803	0	0	0	
0.116167	-0.0361605	-0.00617459	0.00111856	0.000138577	0	0	0	
0.116333	0.0293899	0.00612016	0.00117086	0.000138821	0	0	0	
0.1165	-0.0212088	-0.00603334	0.00100912	0.000138354	0	0	0	
0.116667	0.0174903	0.00593613	0.000874033	0.000136812	0	0	0	
0.116833	-0.0195254	-0.00596971	0.000910973	0.000135931	0	0	0	
0.117	0.0299158	0.00607366	0.00105941	0.000136179	0	0	0	
0.117167	-0.0173289	-0.00605257	0.00113349	0.000137706	0	0	0	
0.117333	0.016985	0.00617962	0.00107359	0.000138876	0	0	0	
0.1175	-0.00796083	-0.00617552	0.000963022	0.000139051	0	0	0	
0.117667	0.00536403	0.00615611	0.000863981	0.000138616	0	0	0	
0.117833	-0.0033729	-0.00615997	0.000937801	0.000138279	0	0	0	
0.118	0.0298573	0.00616238	0.00112713	0.000137931	0	0	0	
0.118167	-0.0308038	-0.00611305	0.00123051	0.000137848	0	0	0	
0.118333	0.011581	0.00621866	0.00108866	0.00013816	0	0	0	
0.1185	-0.0104708	-0.00620893	0.000869816	0.000138643	0	0	0	
0.118667	0.0230242	0.00613261	0.000794221	0.000138645	0	0	0	
0.118833	-0.0127175	-0.00601031	0.000819376	0.000137741	0	0	0	
0.119	0.0107969	0.00607267	0.000849859	0.000136896	0	0	0	
0.119167	-0.0166255	-0.0061667	0.000909141	0.000137193	0	0	0	
0.119333	0.0187084	0.00620475	0.000979364	0.000138639	0	0	0	
0.1195	-0.0172491	-0.00620134	0.000998729	0.000139724	0	0	0	
0.119667	0.0168636	0.00623373	0.000964802	0.000139763	0	0	0	
0.119833	-0.0122998	-0.00621227	0.00101318	0.000139323	0	0	0	
0.12	0.0127297	0.00622694	0.00117526	0.000138419	0	0	0	
0.120167	-0.0220866	-0.00621135	0.00128421	0.000138053	0	0	0	
0.120333	0.0310805	0.00619089	0.00121548	0.000137923	0	0	0	
0.1205	-0.0326139	-0.00616678	0.00105899	0.000138353	0	0	0	
0.120667	0.0215623	0.00621593	0.000943359	0.000138267	0	0	0	
0.120833	-0.00104573	-0.00624181	0.000746291	0.000138215	0	0	0	
0.121	0.00088404	0.00622149	0.000484737	0.000137781	0	0	0	
0.121167	-0.0223784	-0.00618804	0.000386806	0.000137729	0	0	0	
0.121333	0.00751256	0.00611194	0.000594247	0.00013738	0	0	0	
0.1215	-0.025122	-0.00618515	0.000912716	0.000137483	0	0	0	
0.121667	0.0292773	0.00631404	0.00113782	0.00013791	0	0	0	
0.121833	-0.0615955	-0.0064458	0.00122358	0.000139169	0	0	0	
0.122	0.0743457	0.00648659	0.0013741	0.000140792	0	0	0	
0.122167	-0.0567223	-0.00648518	0.00145492	0.000141764	0	0	0	
0.122333	0.0144225	0.00636974	0.00141914	0.000141422	0	0	0	
0.1225	-0.0220005	-0.00625756	0.00121264	0.000140127	0	0	0	
0.122667	0.0205096	0.0062267	0.00104989	0.000138669	0	0	0	
0.122833	-0.0264618	-0.00626777	0.00106964	0.000137832	0	0	0	
0.123	0.0275651	0.00631758	0.00117695	0.000137879	0	0	0	
0.123167	-0.0153245	-0.00636542	0.00113528	0.000138501	0	0	0	
0.123333	0.0185507	0.00637257	0.0010184	0.000139286	0	0	0	
0.1235	-0.0208587	-0.00626336	0.000985086	0.000139884	0	0	0	
0.123667	0.0206984	0.00625709	0.00105807	0.000139529	0	0	0	
0.123833	-0.0155204	-0.00634441	0.00106817	0.000139109	0	0	0	
0.124	0.0253098	0.00649138	0.000957725	0.000139048	0	0	0	
0.124167	-0.00981362	-0.00646568	0.00087289	0.000140344	0	0	0	
0.124333	0.0237907	0.00645885	0.000858464	0.000140798	0	0	0	
0.1245	-0.0235808	-0.00631854	0.00090574	0.000140428	0	0	0	
0.124667	0.0131764	0.0062609	0.000888432	0.000138744	0	0	0	
0.124833	-0.0122845	-0.00625176	0.000861704	0.000137458	0	0	0	
0.125	0.0280475	0.00626082	0.000886178	0.000136284	0	0	0	
0.125167	-0.0283396	-0.00621745	0.000998971	0.000136061	0	0	0	
0.125333	0.0318525	0.00627398	0.00108686	0.000135613	0	0	0	
0.1255	-0.0244669	-0.00639609	0.00108206	0.000136396	0	0	0	
0.125667	0.0269952	0.00642701	0.000995668	0.000137368	0	0	0	
0.125833	-0.0281826	-0.00641627	0.00097066	0.000138863	0	0	0	
0.126	0.0253725	0.00644185	0.000951653	0.000139093	0	0	0	
0.126167	-0.0220757	-0.00658026	0.000913397	0.000138894	0	0	0	
0.126333	0.018249	0.00649865	0.000877365	0.000138891	0	0	0	
0.1265	-0.00421466	-0.00636873	0.000901988	0.00013894	0	0	0	
0.126667	0.0274765	0.00636214	0.00102658	0.000138664	0	0	0	
0.126833	-0.034769	-0.00631046	0.00113957	0.000138284	0	0	0	
0.127	0.020297	0.00635681	0.00112634	0.000138078	0	0	0	
0.127167	-0.0235006	-0.00656046	0.00107876	0.000139062	0	0	0	
0.127333	0.0322147	0.00661657	0.00116205	0.000140668	0	0	0	
0.1275	-0.00340976	-0.00643798	0.00126307	0.00014162	0	0	0	
0.127667	-0.00337509	0.00631533	0.00110807	0.000140198	0	0	0	
0.127833	-0.0131676	-0.00625332	0.000808026	0.00013771	0	0	0	
0.128	0.0137478	0.00631006	0.000689984	0.000136175	0	0	0	
0.128167	-0.0294893	-0.00636401	0.000825671	0.00013662	0	0	0	
0.128333	0.0101692	0.00642077	0.000990694	0.000137447	0	0	0	
0.1285	-0.00703231	-0.00645616	0.000975648	0.000138422	0	0	0	
0.128667	0.0174985	0.0064403	0.000862595	0.000138944	0	0	0	
0.128833	-0.0415896	-0.00643888	0.000805266	0.00013893	0	0	0	
0.129	0.0206942	0.00638064	0.000804575	0.000138308	0	0	0	
0.129167	-0.0232946	-0.006392	0.000839566	0.00013739	0	0	0	
0.129333	0.0311231	0.00646932	0.000862852	0.000137491	0	0	0	
0.1295	-0.0366182	-0.00659433	0.000904601	0.000138563	0	0	0	
0.129667	0.0248066	0.00646831	0.000919253	0.000139721	0	0	0	
0.129833	-0.00817788	-0.00641159	0.000796549	0.000139195	0	0	0	
0.13	0.00735342	0.0065196	0.000683581	0.000138573	0	0	0	
0.130167	-0.0056792	-0.00661756	0.000704467	0.000138629	0	0	0	
0.130333	0.0193801	0.00656933	0.000849549	0.00013993	0	0	0	
0.1305	-0.0235364	-0.00642645	0.00110655	0.00013967	0	0	0	
0.130667	0.040535	0.00630603	0.00133729	0.000138345	0	0	0	
0.130833	-0.0434005	-0.00648063	0.00143398	0.000136879	0	0	0	
0.131	0.0231882	0.00648419	0.00124493	0.00013738	0	0	0	
0.131167	-0.0192866	-0.00646621	0.000962959	0.000138206	0	0	0	
0.131333	0.0239629	0.00648186	0.000759083	0.000139307	0	0	0	
0.1315	-0.0187915	-0.00653981	0.000651894	0.000139259	0	0	0	
0.131667	0.00921676	0.00654126	0.000601637	0.000139123	0	0	0	
0.131833	-0.0185219	-0.00655521	0.000694445	0.000138365	0	0	0	
0.132	0.0237809	0.00649243	0.000843018	0.000137929	0	0	0	
0.132167	-0.0176951	-0.00644878	0.000909391	0.000137321	0	0	0	
0.132333	0.0110405	0.00642956	0.00087284	0.00013729	0	0	0	
0.1325	-0.0263426	-0.00651118	0.000884497	0.000137209	0	0	0	
0.132667	0.0228206	0.0065897	0.000920874	0.000137911	0	0	0	
0.132833	-0.0103391	-0.00659474	0.000922894	0.00013858	0	0	0	
0.133	0.0244435	0.00657014	0.00101444	0.000139086	0	0	0	
0.133167	-0.0411165	-0.00652355	0.00119673	0.000139156	0	0	0	
0.133333	0.0337452	0.00654816	0.00123891	0.000138834	0	0	0	
0.1335	-0.0212681	-0.00660292	0.00104958	0.000138882	0	0	0	
0.133667	0.0273039	0.00654282	0.000879841	0.000139269	0	0	0	
0.133833	-0.0289091	-0.00649038	0.000882543	0.000139319	0	0	0	
0.134	0.0178913	0.00650671	0.00091812	0.000138591	0	0	0	
0.134167	-0.0176229	-0.00650459	0.000904983	0.000137617	0	0	0	
0.134333	0.0250114	0.00646539	0.000917996	0.000136984	0	0	0	
0.1345	-0.029318	-0.0065516	0.000960395	0.000137347	0	0	0	
0.134667	0.0253102	0.0066418	0.000962468	0.000138434	0	0	0	
0.134833	-0.0172045	-0.00664427	0.000908578	0.000139623	0	0	0	
0.135	0.0211222	0.00661695	0.000914086	0.000139693	0	0	0	
0.135167	-0.0272394	-0.00656765	0.000979143	0.000138978	0	0	0	
0.135333	0.0316749	0.00656951	0.00105788	0.000138236	0	0	0	
0.1355	-0.0315471	-0.00659273	0.00107044	0.000138344	0	0	0	
0.135667	0.0295036	0.00668047	0.00103956	0.000138857	0	0	0	
0.135833	-0.0244115	-0.00673643	0.00100162	0.000139844	0	0	0	
0.136	0.0233349	0.00664376	0.000994753	0.000140245	0	0	0	
0.136167	-0.0215733	-0.00655538	0.000976138	0.000139505	0	0	0	
0.136333	0.0218688	0.00652026	0.000964298	0.000138051	0	0	0	
0.1365	-0.0230944	-0.0064861	0.000966924	0.000137207	0	0	0	
0.136667	0.0282614	0.00668098	0.000986567	0.00013762	0	0	0	
0.136833	-0.022204	-0.00678712	0.000975652	0.000139324	0	0	0	
0.137	0.0223044	0.00665741	0.000923703	0.000140331	0	0	0	
0.137167	-0.0199237	-0.00672425	0.000894535	0.000140441	0	0	0	
0.137333	0.0141815	0.00669327	0.00088772	0.000140117	0	0	0	
0.1375	-0.0221564	-0.00669759	0.000907856	0.00013976	0	0	0	
0.137667	0.0180958	0.00674696	0.000922393	0.000139865	0	0	0	
0.137833	-0.0170482	-0.00670297	0.000916479	0.000139699	0	0	0	
0.138	0.0259178	0.00665816	0.00095287	0.000139595	0	0	0	
0.138167	-0.023848	-0.00668693	0.00100464	0.000139488	0	0	0	
0.138333	0.020504	0.00665842	0.000957772	0.000139156	0	0	0	
0.1385	-0.0192239	-0.00664709	0.000822551	0.000138636	0	0	0	
0.138667	0.0183222	0.00662487	0.000744941	0.000138179	0	0	0	
0.138833	-0.0260084	-0.0065654	0.000795134	0.000137715	0	0	0	
0.139	0.0247378	0.0065989	0.000852902	0.000137696	0	0	0	
0.139167	-0.0175535	-0.00659209	0.000858823	0.000137604	0	0	0	
0.139333	0.0285709	0.00668022	0.00086584	0.000137414	0	0	0	
0.1395	-0.0215509	-0.00668833	0.000908622	0.000138025	0	0	0	
0.139667	0.0178956	0.00678797	0.00089342	0.000138886	0	0	0	
0.139833	-0.0240879	-0.00677479	0.000910391	0.000140039	0	0	0	
0.14	0.0289086	0.00669264	0.000966802	0.000139611	0	0	0	
0.140167	-0.0305475	-0.00665181	0.00103106	0.000138854	0	0	0	
0.140333	0.023532	0.00668006	0.00101119	0.000137694	0	0	0	
0.1405	-0.0177093	-0.00667034	0.000950315	0.000137594	0	0	0	
0.140667	0.0259097	0.00665843	0.000899387	0.000137472	0	0	0	
0.140833	-0.02205	-0.00656976	0.000889917	0.00013781	0	0	0	
0.141	0.0207222	0.00659121	0.000879243	0.000137135	0	0	0	
0.141167	-0.0158442	-0.00671096	0.000890192	0.000137291	0	0	0	
0.141333	0.0181545	0.00666285	0.000897047	0.000137319	0	0	0	
0.1415	-0.0180298	-0.00669393	0.000935016	0.000137905	0	0	0	
0.141667	0.0282206	0.00677416	0.000987389	0.000138357	0	0	0	
0.141833	-0.0343665	-0.00676382	0.00106139	0.000138809	0	0	0	
0.142	0.0374116	0.00677026	0.00112717	0.000138946	0	0	0	
0.142167	-0.0234146	-0.00674802	0.00113763	0.000139228	0	0	0	
0.142333	0.0346883	0.00677497	0.00100563	0.000138979	0	0	0	
0.1425	-0.0127899	-0.00680824	0.000826635	0.000139124	0	0	0	
0.142667	0.00394952	0.00670409	0.000694242	0.000138364	0	0	0	
0.142833	-0.0206176	-0.00662729	0.000826984	0.000137581	0	0	0	
0.143	0.0318195	0.00668622	0.00105433	0.00013708	0	0	0	
0.143167	-0.0302233	-0.0068115	0.00121731	0.000137439	0	0	0	
0.143333	0.0427373	0.00677353	0.00119122	0.000137929	0	0	0	
0.1435	-0.0389217	-0.00675311	0.00112403	0.000138462	0	0	0	
0.143667	0.0243531	0.00671352	0.00102016	0.000138264	0	0	0	
0.143833	-0.024698	-0.00677485	0.000894547	0.000138195	0	0	0	
0.144	0.0195975	0.00685287	0.000823774	0.000138326	0	0	0	
0.144167	-0.0295223	-0.00695556	0.000908435	0.000139267	0	0	0	
0.144333	0.0376878	0.00686402	0.00106332	0.000140373	0	0	0	
0.1445	-0.0319498	-0.00683972	0.00108129	0.000140669	0	0	0	
0.144667	0.0188183	0.00674886	0.000977373	0.000139792	0	0	0	
0.144833	-0.0290757	-0.00680268	0.000919718	0.000138781	0	0	0	
0.145	0.0267176	0.00681909	0.000969527	0.000138777	0	0	0	
0.145167	-0.0336437	-0.00681947	0.00100084	0.000139028	0	0	0	
0.145333	0.0337027	0.00688968	0.00101674	0.000139423	0	0	0	
0.1455	-0.0347109	-0.00691427	0.00100933	0.000139582	0	0	0	
0.145667	0.0353281	0.0067702	0.00106319	0.000139444	0	0	0	
0.145833	-0.0291597	-0.00671845	0.00102796	0.000138835	0	0	0	
0.146	0.0185336	0.00663489	0.000935713	0.000137671	0	0	0	
0.146167	-0.0287884	-0.00675874	0.000895809	0.000136941	0	0	0	
0.146333	0.0349821	0.00688856	0.000958671	0.000137674	0	0	0	
0.1465	-0.0312599	-0.00690141	0.00100283	0.000139005	0	0	0	
0.146667	0.0284778	0.00681447	0.000991226	0.000139718	0	0	0	
0.146833	-0.0277186	-0.00678796	0.000936166	0.000139057	0	0	0	
0.147	0.0246645	0.00671902	0.000950084	0.000137904	0	0	0	
0.147167	-0.0344719	-0.00677296	0.000972301	0.000137343	0	0	0	
0.147333	0.0373223	0.006791	0.00097863	0.000137583	0	0	0	
0.1475	-0.0307375	-0.00686956	0.000938635	0.000137986	0	0	0	
0.147667	0.0219072	0.00683915	0.000897357	0.000138651	0	0	0	
0.147833	-0.0233334	-0.00678028	0.000907477	0.000138846	0	0	0	
0.148	0.0293619	0.0067411	0.000949488	0.000138498	0	0	0	
0.148167	-0.0353481	-0.00683626	0.000978314	0.000138193	0	0	0	
0.148333	0.0276336	0.00691373	0.000978563	0.000138396	0	0	0	
0.1485	-0.0255541	-0.00700194	0.000958476	0.000139264	0	0	0	
0.148667	0.0298326	0.00686958	0.000977249	0.00013994	0	0	0	
0.148833	-0.0349345	-0.00667858	0.00103349	0.000139	0	0	0	
0.149	0.0452996	0.00671886	0.0010834	0.00013739	0	0	0	
0.149167	-0.0252294	-0.00678664	0.00101856	0.000136265	0	0	0	
0.149333	-0.0374053	0.00682479	0.000766796	0.000136961	0	0	0	
0.1495	0.139579	-0.00693695	0.00129461	0.000138256	0	0	0	
0.149667	-0.00202552	0.00685126	0.00133905	0.000139073	0	0	0	
0.149833	0.00134497	-0.00676208	0.00171721	0.000138515	0	0	0	
0.15	0.0435669	0.00683043	0.00136623	0.000138053	0	0	0	
0.150167	-0.0548328	-0.00689093	0.00154195	0.000137842	0	0	0	
0.150333	0.0469036	0.00693915	0.00136555	0.000138764	0	0	0	
0.1505	0.00697646	-0.00691588	0.00112992	0.000139287	0	0	0	
0.150667	0.092246	0.00701241	0.00148135	0.000139505	0	0	0	
0.150833	0.0114584	-0.00691072	0.00140479	0.000139396	0	0	0	
0.151	0.0147576	0.0068071	0.00131916	0.000138702	0	0	0	
0.151167	-0.0308478	-0.00685957	0.000850561	0.000138171	0	0	0	
0.151333	0.0350221	0.00699442	0.000944835	0.000138103	0	0	0	
0.1515	-0.0218909	-0.00705184	0.000968956	0.00013925	0	0	0	
0.151667	0.00949698	0.00699088	0.0007881	0.000139771	0	0	0	
0.151833	-0.0160419	-0.00686645	0.000726162	0.000139462	0	0	0	
0.152	0.035715	0.00682331	0.000868255	0.000138348	0	0	0	
0.152167	-0.0422978	-0.00683115	0.00109546	0.000137983	0	0	0	
0.152333	0.0366511	0.00696095	0.00119097	0.000137907	0	0	0	
0.1525	-0.0326141	-0.00707228	0.00113453	0.000139104	0	0	0	
0.152667	0.0279877	0.00699277	0.00102406	0.000139897	0	0	0	
0.152833	-0.0254425	-0.00700021	0.000927403	0.000140361	0	0	0	
0.153	0.0289996	0.00684756	0.000892777	0.000139643	0	0	0	
0.153167	-0.0268548	-0.00687153	0.000921943	0.000138278	0	0	0	
0.153333	0.0339815	0.00696111	0.000981663	0.000137937	0	0	0	
0.1535	-0.0361565	-0.00693584	0.00103473	0.000138176	0	0	0	
0.153667	0.0332972	0.00690536	0.00101606	0.000138999	0	0	0	
0.153833	-0.0275589	-0.00694452	0.000980234	0.000138781	0	0	0	
0.154	0.0351511	0.00691828	0.000947229	0.000138169	0	0	0	
0.154167	-0.0383475	-0.00700801	0.00100032	0.000137859	0	0	0	
0.154333	0.0392768	0.00702318	0.00106746	0.000138739	0	0	0	
0.1545	-0.0299944	-0.00696698	0.0010895	0.000139327	0	0	0	
0.154667	0.0213792	0.00695596	0.000991899	0.0001396	0	0	0	
0.154833	-0.0154881	-0.00690402	0.000919647	0.000138654	0	0	0	
0.155	0.0356857	0.00693398	0.000928908	0.000138278	0	0	0	
0.155167	-0.0370721	-0.00697494	0.00103767	0.000138017	0	0	0	
0.155333	0.0287844	0.00699318	0.00104976	0.00013843	0	0	0	
0.1555	-0.0262889	-0.00694404	0.000993547	0.000138718	0	0	0	
0.155667	0.0279028	0.00686814	0.000890007	0.000138793	0	0	0	
0.155833	-0.0270666	-0.00682105	0.000803877	0.000137932	0	0	0	
0.156	0.0227059	0.0068811	0.000741541	0.000136982	0	0	0	
0.156167	-0.0193499	-0.0069381	0.000754506	0.000136672	0	0	0	
0.156333	0.0337638	0.00703614	0.000882753	0.000137618	0	0	0	
0.1565	-0.0455327	-0.00692474	0.00103913	0.00013866	0	0	0	
0.156667	0.0495668	0.00682509	0.00112704	0.000138392	0	0	0	
0.156833	-0.0449182	-0.00690849	0.00110335	0.000137333	0	0	0	
0.157	0.0329454	0.00703005	0.00102413	0.000136915	0	0	0	
0.157167	-0.0169842	-0.00701369	0.000893582	0.000137954	0	0	0	
0.157333	0.0218063	0.0070354	0.000836158	0.000138809	0	0	0	
0.1575	-0.0226278	-0.00690543	0.000901948	0.000138736	0	0	0	
0.157667	-0.000874773	0.00687294	0.00112338	0.000137464	0	0	0	
0.157833	-0.0211096	-0.0069674	0.00133324	0.000136815	0	0	0	
0.158	0.0661517	0.00695807	0.00136414	0.0001367	0	0	0	
0.158167	-0.0478872	-0.00697469	0.00124481	0.000137667	0	0	0	
0.158333	0.0176807	0.00702185	0.000977266	0.000138157	0	0	0	
0.1585	0.00660759	-0.00705857	0.000731965	0.000138973	0	0	0	
0.158667	0.000980718	0.0070685	0.000763012	0.000139214	0	0	0	
0.158833	-0.0380462	-0.00702366	0.000808299	0.000139354	0	0	0	
0.159	0.0488317	0.00688946	0.00102171	0.000138816	0	0	0	
0.159167	-0.0513555	-0.00691335	0.00109289	0.000137943	0	0	0	
0.159333	0.0620472	0.00701158	0.0013027	0.000137148	0	0	0	
0.1595	-0.0318612	-0.00712022	0.00132672	0.000137544	0	0	0	
0.159667	0.0165053	0.00709792	0.00107135	0.000138456	0	0	0	
0.159833	-0.0357774	-0.00695486	0.000896415	0.000139294	0	0	0	
0.16	0.0443878	0.00684747	0.000895803	0.000138079	0	0	0	
0.160167	-0.0206291	-0.00688869	0.000947271	0.000136223	0	0	0	
0.160333	-0.00618806	0.00701802	0.000800547	0.000135669	0	0	0	
0.1605	-0.0081557	-0.00716503	0.000812054	0.000137382	0	0	0	
0.160667	0.0403599	0.00720742	0.00104208	0.000139898	0	0	0	
0.160833	-0.0448555	-0.00705134	0.00125206	0.000140972	0	0	0	
0.161	0.0436384	0.00687321	0.00122115	0.000139376	0	0	0	
0.161167	-0.0551538	-0.00695761	0.00113421	0.000137362	0	0	0	
0.161333	0.0516576	0.00693643	0.00111522	0.0001364	0	0	0	
0.1615	-0.0163341	-0.00694082	0.00097372	0.000136481	0	0	0	
0.161667	0.0219788	0.00701759	0.000819973	0.000137071	0	0	0	
0.161833	-0.0431098	-0.00710823	0.000804945	0.000137609	0	0	0	
0.162	0.0324682	0.00708992	0.000890022	0.000138552	0	0	0	
0.162167	-0.0211053	-0.007082	0.000922113	0.000138921	0	0	0	
0.162333	0.0364279	0.00695951	0.00100445	0.000138349	0	0	0	
0.1625	-0.0364959	-0.00699722	0.00112771	0.00013744	0	0	0	
0.162667	0.034885	0.00698932	0.00118513	0.00013702	0	0	0	
0.162833	-0.0387227	-0.00698808	0.00110979	0.000136757	0	0	0	
0.163	0.0401241	0.00696241	0.00102043	0.000136811	0	0	0	
0.163167	-0.0211165	-0.00699948	0.000923609	0.000136834	0	0	0	
0.163333	0.0114397	0.00686493	0.00076642	0.000136919	0	0	0	
0.1635	-0.0190997	-0.00695946	0.000749278	0.000136649	0	0	0	
0.163667	0.0469528	0.00705394	0.000952802	0.000136574	0	0	0	
0.163833	-0.0526274	-0.00720605	0.00117726	0.000137507	0	0	0	
0.164	0.0371517	0.00722328	0.00117592	0.000139414	0	0	0	
0.164167	-0.0266658	-0.00717301	0.00100579	0.000140404	0	0	0	
0.164333	0.0321335	0.00691468	0.000857197	0.000139719	0	0	0	
0.1645	-0.0265141	-0.00696384	0.000785147	0.000137333	0	0	0	
0.164667	0.0259257	0.00703066	0.000756774	0.000136315	0	0	0	
0.164833	-0.0285362	-0.00706611	0.000746236	0.000136485	0	0	0	
0.165	0.0317958	0.00708378	0.0007026	0.000137974	0	0	0	
0.165167	-0.0303792	-0.00713291	0.000736276	0.000138445	0	0	0	
0.165333	0.0311899	0.00704493	0.000814627	0.000138443	0	0	0	
0.1655	-0.0361532	-0.00697453	0.000971297	0.000137821	0	0	0	
0.165667	0.0419134	0.0070827	0.00107249	0.000137518	0	0	0	
0.165833	-0.0418926	-0.00709796	0.0011093	0.000137785	0	0	0	
0.166	0.0450351	0.00700624	0.00107347	0.00013784	0	0	0	
0.166167	-0.0414632	-0.00705569	0.0010736	0.00013764	0	0	0	
0.166333	0.0333933	0.007134	0.00103707	0.000137759	0	0	0	
0.1665	-0.0221337	-0.00713744	0.000954935	0.000138505	0	0	0	
0.166667	0.0206438	0.00716497	0.000824947	0.000139128	0	0	0	
0.166833	-0.0325282	-0.00708351	0.000829605	0.000139031	0	0	0	
0.167	0.0369742	0.00704828	0.000939009	0.000137888	0	0	0	
0.167167	-0.0396288	-0.00713266	0.000995756	0.00013755	0	0	0	
0.167333	0.0447583	0.00703663	0.000994888	0.000137326	0	0	0	
0.1675	-0.0439996	-0.00702984	0.000976425	0.000137591	0	0	0	
0.167667	0.0213682	0.00712067	0.000978295	0.000137474	0	0	0	
0.167833	-0.0154986	-0.00709615	0.00095084	0.000137424	0	0	0	
0.168	0.0542154	0.00718029	0.00118138	0.000137865	0	0	0	
0.168167	-0.0986073	-0.00730884	0.00148658	0.000139137	0	0	0	
0.168333	0.0639836	0.00718648	0.00167662	0.000139908	0	0	0	
0.1685	0.0036805	-0.0070907	0.00131026	0.000140033	0	0	0	
0.168667	0.0033792	0.0070898	0.000950598	0.000138928	0	0	0	
0.168833	-0.0285745	-0.00710485	0.000840403	0.00013831	0	0	0	
0.169	0.0183566	0.00717263	0.000880981	0.00013826	0	0	0	
0.169167	-0.0209395	-0.00715581	0.00103113	0.000138694	0	0	0	
0.169333	0.07063	0.00710554	0.00133962	0.00013853	0	0	0	
0.1695	-0.07841	-0.00724167	0.00165372	0.000138758	0	0	0	
0.169667	0.0437515	0.00721317	0.00161291	0.000139111	0	0	0	
0.169833	-0.00947352	-0.00712665	0.00112326	0.000139376	0	0	0	
0.17	0.0266179	0.00713281	0.000864977	0.000138891	0	0	0	
0.170167	-0.0420693	-0.00712718	0.000917136	0.00013817	0	0	0	
0.170333	0.0502313	0.00712337	0.00109114	0.000138058	0	0	0	
0.1705	-0.0337374	-0.00721903	0.00108439	0.000138227	0	0	0	
0.170667	0.0316812	0.00718902	0.000939782	0.000138476	0	0	0	
0.170833	-0.0320693	-0.00716599	0.000865162	0.000138604	0	0	0	
0.171	0.0392532	0.0071669	0.000885661	0.000138642	0	0	0	
0.171167	-0.0366376	-0.00714092	0.000934167	0.00013866	0	0	0	
0.171333	0.0307532	0.00713615	0.00095308	0.000138345	0	0	0	
0.1715	-0.0278342	-0.0072644	0.000933339	0.000138414	0	0	0	
0.171667	0.0413025	0.00744376	0.000929097	0.000139627	0	0	0	
0.171833	-0.0428196	-0.00769703	0.00098454	0.000142061	0	0	0	
0.172	0.0490887	0.00749033	0.00108168	0.000144831	0	0	0	
0.172167	-0.0421861	-0.00718851	0.00117211	0.000144253	0	0	0	
0.172333	0.045216	0.00704536	0.00115506	0.000141617	0	0	0	
0.1725	-0.038229	-0.00721168	0.0010434	0.000138658	0	0	0	
0.172667	0.0262712	0.00721246	0.000885245	0.000138534	0	0	0	
0.172833	-0.021971	-0.00732495	0.000829823	0.000139418	0	0	0	
0.173	0.0411932	0.00722739	0.000945892	0.0001409	0	0	0	
0.173167	-0.0396781	-0.00718897	0.00110052	0.000140216	0	0	0	
0.173333	0.0542095	0.00721436	0.00111332	0.000140003	0	0	0	
0.1735	-0.0333826	-0.00726786	0.00102861	0.000138983	0	0	0	
0.173667	-0.0028643	0.00708258	0.000818312	0.000139206	0	0	0	
0.173833	0.101222	-0.00702012	0.00106546	0.000138327	0	0	0	
0.174	0.0362168	0.00721327	0.00111237	0.000137494	0	0	0	
0.174167	-0.010817	-0.00728228	0.00132384	0.000137572	0	0	0	
0.174333	0.0614966	0.00716915	0.00119199	0.000138402	0	0	0	
0.1745	-0.0476304	-0.00715032	0.00129654	0.000138613	0	0	0	
0.174667	0.0360893	0.00712659	0.00117372	0.000137864	0	0	0	
0.174833	0.0196561	-0.00711726	0.000924881	0.000137136	0	0	0	
0.175	0.109742	0.00709398	0.00112341	0.000136803	0	0	0	
0.175167	-0.0109873	-0.00707532	0.00130051	0.000136717	0	0	0	
0.175333	0.0326815	0.00710275	0.00137164	0.00013683	0	0	0	
0.1755	-0.0183861	-0.00727175	0.00103748	0.000137379	0	0	0	
0.175667	0.0472005	0.00727898	0.000904273	0.000138486	0	0	0	
0.175833	-0.0344669	-0.00730253	0.000995143	0.000139516	0	0	0	
0.176	0.0273058	0.00717655	0.000911954	0.000140059	0	0	0	
0.176167	-0.0362725	-0.00721668	0.000870102	0.000139402	0	0	0	
0.176333	0.0374453	0.00714938	0.000862066	0.000138968	0	0	0	
0.1765	-0.0242874	-0.00712581	0.000840744	0.000137834	0	0	0	
0.176667	0.0240427	0.00711741	0.000765497	0.000137534	0	0	0	
0.176833	-0.0190127	-0.0072193	0.000701594	0.000137062	0	0	0	
0.177	0.0328533	0.00719119	0.000808724	0.000137916	0	0	0	
0.177167	-0.0467601	-0.00717081	0.000971486	0.00013842	0	0	0	
0.177333	0.0353952	0.00713827	0.00105386	0.000138588	0	0	0	
0.1775	-0.0278075	-0.00725079	0.000973359	0.000138514	0	0	0	
0.177667	0.0334171	0.00737149	0.000886049	0.000139256	0	0	0	
0.177833	-0.0383623	-0.00728194	0.000836612	0.000140092	0	0	0	
0.178	0.0376397	0.00710448	0.000869719	0.000139883	0	0	0	
0.178167	-0.0365371	-0.00704531	0.000880861	0.000138203	0	0	0	
0.178333	0.0340451	0.00704209	0.000903143	0.000136458	0	0	0	
0.1785	-0.0377901	-0.00708834	0.000906149	0.000135877	0	0	0	
0.178667	0.0370815	0.00718233	0.000925138	0.000136301	0	0	0	
0.178833	-0.0356989	-0.00723894	0.000905798	0.000137352	0	0	0	
0.179	0.0417372	0.00732178	0.00093302	0.000138283	0	0	0	
0.179167	-0.0483295	-0.00735906	0.000981752	0.000139492	0	0	0	
0.179333	0.0404264	0.00722722	0.00103104	0.000139814	0	0	0	
0.1795	-0.0376621	-0.00710565	0.00102333	0.000139262	0	0	0	
0.179667	0.0321236	0.00714495	0.00096862	0.000138003	0	0	0	
0.179833	-0.0312589	-0.0072213	0.000892746	0.000137554	0	0	0	
0.18	0.0329475	0.00741083	0.000870553	0.000138501	0	0	0	
0.180167	-0.0409689	-0.00743191	0.000938225	0.000140328	0	0	0	
0.180333	0.0434125	0.00731675	0.00104953	0.000141267	0	0	0	
0.1805	-0.0356687	-0.00731633	0.00106625	0.000141291	0	0	0	
0.180667	0.0144179	0.00727938	0.000905363	0.000140645	0	0	0	
0.180833	-0.0279031	-0.00724652	0.000836667	0.000140274	0	0	0	
0.181	-0.0176793	0.00732179	0.00131157	0.000140123	0	0	0	
0.181167	-0.0129482	-0.00732309	0.00207133	0.000140192	0	0	0	
0.181333	0.0602575	0.00728225	0.00252161	0.000140248	0	0	0	
0.1815	-0.074556	-0.00719345	0.00230435	0.000139689	0	0	0	
0.181667	0.0573753	0.00717881	0.00174647	0.000138883	0	0	0	
0.181833	-0.0154561	-0.00722285	0.00119661	0.000138396	0	0	0	
0.182	-0.0811248	0.00722893	0.000869455	0.000138486	0	0	0	
0.182167	0.0661905	-0.007326	0.000930291	0.000138789	0	0	0	
0.182333	-0.0170073	0.00741685	0.0010291	0.00013964	0	0	0	
0.1825	-0.0254055	-0.00736176	0.00122	0.000140535	0	0	0	
0.182667	0.0423682	0.00728004	0.00117822	0.000140962	0	0	0	
0.182833	-0.0452823	-0.00720566	0.0011969	0.000140316	0	0	0	
0.183	0.0390566	0.00720988	0.00107485	0.000139344	0	0	0	
0.183167	-0.0287607	-0.00726186	0.000972762	0.000138693	0	0	0	
0.183333	0.0424525	0.00721751	0.00103151	0.000138591	0	0	0	
0.1835	-0.0564425	-0.00724718	0.00114943	0.000138642	0	0	0	
0.183667	0.0398818	0.00726628	0.00118005	0.000138773	0	0	0	
0.183833	-0.0254936	-0.00715955	0.00105935	0.000138568	0	0	0	
0.184	0.040159	0.00715582	0.00105124	0.000138131	0	0	0	
0.184167	-0.0702992	-0.00723133	0.00119745	0.00013765	0	0	0	
0.184333	0.0589353	0.00726639	0.00134322	0.000137689	0	0	0	
0.1845	-0.046277	-0.00726202	0.001213	0.00013828	0	0	0	
0.184667	0.040768	0.00722542	0.00106634	0.000138631	0	0	0	
0.184833	-0.0294556	-0.00725249	0.000913014	0.000138852	0	0	0	
0.185	0.0215826	0.00721649	0.000874751	0.000138635	0	0	0	
0.185167	-0.0289999	-0.00723034	0.00082863	0.000138695	0	0	0	
0.185333	0.0419879	0.0071612	0.000980877	0.000138141	0	0	0	
0.1855	-0.0657034	-0.00720796	0.00119295	0.000137903	0	0	0	
0.185667	0.0674788	0.0072148	0.00142314	0.00013769	0	0	0	
0.185833	-0.0329367	-0.00724813	0.00132085	0.000138005	0	0	0	
0.186	0.0238588	0.00717983	0.00108919	0.000138232	0	0	0	
0.186167	-0.0316523	-0.00720162	0.000884245	0.000138028	0	0	0	
0.186333	0.0517515	0.00720837	0.00096399	0.000137918	0	0	0	
0.1865	-0.0506271	-0.00722889	0.0010954	0.00013772	0	0	0	
0.186667	0.0378318	0.0072044	0.0010513	0.000137911	0	0	0	
0.186833	-0.0337954	-0.00720176	0.000925577	0.000137719	0	0	0	
0.187	0.0433983	0.00717891	0.000861977	0.000138058	0	0	0	
0.187167	-0.0365021	-0.00726038	0.00088982	0.000138064	0	0	0	
0.187333	0.0314395	0.00726267	0.000860007	0.000139007	0	0	0	
0.1875	-0.0375104	-0.00726795	0.00085717	0.000138859	0	0	0	
0.187667	0.0499268	0.00725041	0.000913184	0.000139155	0	0	0	
0.187833	-0.0497806	-0.0073078	0.00101395	0.000138758	0	0	0	
0.188	0.0273189	0.00727556	0.00101703	0.000139535	0	0	0	
0.188167	-0.0282213	-0.00730087	0.000882325	0.000139508	0	0	0	
0.188333	0.041632	0.00726024	0.000868577	0.000139824	0	0	0	
0.1885	-0.0489683	-0.00724122	0.000905323	0.000138847	0	0	0	
0.188667	0.0490281	0.00724023	0.00101936	0.000138658	0	0	0	
0.188833	-0.0480746	-0.00727848	0.00101753	0.00013817	0	0	0	
0.189	0.0182788	0.00722117	0.000915141	0.000138819	0	0	0	
0.189167	-0.0385983	-0.00713255	0.000807867	0.000138642	0	0	0	
0.189333	0.001836	0.00712774	0.000705341	0.000138196	0	0	0	
0.1895	-0.0379119	-0.00713829	0.000737339	0.000137229	0	0	0	
0.189667	0.0476441	0.00725005	0.000882307	0.000136809	0	0	0	
0.189833	-0.0467745	-0.00725184	0.00100446	0.000137371	0	0	0	
0.19	0.0467922	0.00710511	0.00104706	0.000137451	0	0	0	
0.190167	-0.0816752	-0.00709285	0.00100977	0.000137276	0	0	0	
0.190333	0.038971	0.00708773	0.00114474	0.000136225	0	0	0	
0.1905	-0.048814	-0.0071534	0.00110209	0.000136033	0	0	0	
0.190667	0.0448056	0.00717152	0.00110991	0.000135908	0	0	0	
0.190833	-0.0386025	-0.00726762	0.000945595	0.000137111	0	0	0	
0.191	0.0450113	0.00717726	0.000977915	0.000137549	0	0	0	
0.191167	-0.0403298	-0.00719813	0.00093275	0.000138163	0	0	0	
0.191333	0.0413093	0.00712512	0.00091242	0.000137482	0	0	0	
0.1915	-0.0346471	-0.00718655	0.000892696	0.000137383	0	0	0	
0.191667	0.0361432	0.00724979	0.000857473	0.000137484	0	0	0	
0.191833	-0.0364074	-0.00733208	0.00087959	0.000138416	0	0	0	
0.192	0.0474898	0.0072264	0.000910088	0.00013898	0	0	0	
0.192167	-0.0294893	-0.00727944	0.000920356	0.000139185	0	0	0	
0.192333	0.0343751	0.00729174	0.000883474	0.000139086	0	0	0	
0.1925	-0.0496233	-0.00730681	0.000928127	0.000139261	0	0	0	
0.192667	0.054366	0.00712833	0.00104025	0.000139179	0	0	0	
0.192833	-0.0462284	-0.00711527	0.00110635	0.000137853	0	0	0	
0.193	0.0400454	0.00706279	0.00109077	0.000136777	0	0	0	
0.193167	-0.0431416	-0.00708557	0.00101097	0.000135787	0	0	0	
0.193333	0.0422495	0.0071116	0.000980532	0.00013594	0	0	0	
0.1935	-0.0396084	-0.00717522	0.00093904	0.000135935	0	0	0	
0.193667	0.0348129	0.00718633	0.00093365	0.00013677	0	0	0	
0.193833	-0.0341715	-0.00729581	0.000876225	0.00013726	0	0	0	
0.194	0.0382871	0.007256	0.00088985	0.000138533	0	0	0	
0.194167	-0.0478145	-0.00720686	0.000892288	0.000138541	0	0	0	
0.194333	0.0446622	0.00727837	0.000972503	0.000138982	0	0	0	
0.1945	-0.0392037	-0.00728055	0.00096019	0.000138742	0	0	0	
0.194667	0.0411857	0.00723247	0.000928565	0.000139155	0	0	0	
0.194833	-0.0453672	-0.00722935	0.00089423	0.000138782	0	0	0	
0.195	0.0484708	0.00720511	0.000968324	0.000138392	0	0	0	
0.195167	-0.04671	-0.00717647	0.00102885	0.000137879	0	0	0	
0.195333	0.0479949	0.00716814	0.00107249	0.000137834	0	0	0	
0.1955	-0.0469694	-0.0071732	0.0010602	0.000137546	0	0	0	
0.195667	0.0493638	0.0072295	0.00103101	0.000137788	0	0	0	
0.195833	-0.0359152	-0.00733324	0.000999034	0.000138056	0	0	0	
0.196	0.0374988	0.00733265	0.000941137	0.000139151	0	0	0	
0.196167	-0.0460656	-0.00722877	0.000943179	0.000139646	0	0	0	
0.196333	0.0475831	0.00707351	0.000969071	0.000139226	0	0	0	
0.1965	-0.0370047	-0.00715663	0.000966837	0.000137703	0	0	0	
0.196667	0.036634	0.00712934	0.000926726	0.000136943	0	0	0	
0.196833	-0.0356633	-0.00712626	0.000904696	0.000136633	0	0	0	
0.197	0.0478275	0.007269	0.000907544	0.000137434	0	0	0	
0.197167	-0.0435342	-0.00733132	0.00095678	0.000138088	0	0	0	
0.197333	0.0466125	0.00722933	0.0009767	0.000139075	0	0	0	
0.1975	-0.0490275	-0.00724045	0.00101135	0.000139036	0	0	0	
0.197667	0.0428456	0.00711195	0.00101189	0.000138587	0	0	0	
0.197833	-0.0368533	-0.0071556	0.00095191	0.00013758	0	0	0	
0.198	0.0439981	0.00714987	0.000888669	0.000137267	0	0	0	
0.198167	-0.042939	-0.00719207	0.000896115	0.000137057	0	0	0	
0.198333	0.040316	0.00719898	0.000893154	0.00013758	0	0	0	
0.1985	-0.0408399	-0.0071464	0.000920608	0.000137605	0	0	0	
0.198667	0.045572	0.00706502	0.000922543	0.000137292	0	0	0	
0.198833	-0.0478618	-0.00706324	0.000950904	0.000136385	0	0	0	
0.199	0.0355544	0.00710651	0.000929902	0.000135962	0	0	0	
0.199167	-0.0351785	-0.00715775	0.000850068	0.000136	0	0	0	
0.199333	0.0451792	0.00714471	0.000833292	0.000136792	0	0	0	
0.1995	-0.043097	-0.00710782	0.000865954	0.000136946	0	0	0	
0.199667	0.038521	0.00715199	0.000884764	0.000137175	0	0	0	
0.199833	-0.0459004	-0.00714833	0.000934827	0.000137075	0	0	0	
0.2	0.0509643	0.00722279	0.000977354	0.000137338	0	0	0	
0.200167	-0.0493789	-0.00729397	0.00104291	0.000138187	0	0	0	
0.200333	0.0490307	0.00727607	0.00101128	0.000139334	0	0	0	
0.2005	-0.0494092	-0.0072104	0.00100955	0.000139856	0	0	0	
0.200667	0.0499924	0.00717316	0.00100044	0.00013942	0	0	0	
0.200833	-0.0409979	-0.00714642	0.00102033	0.000138453	0	0	0	
0.201	0.0374831	0.00716599	0.000905339	0.000137848	0	0	0	
0.201167	-0.0349104	-0.00721379	0.000852239	0.000137973	0	0	0	
0.201333	0.0376695	0.00719867	0.000809928	0.000138247	0	0	0	
0.2015	-0.0517341	-0.00711047	0.000957065	0.00013838	0	0	0	
0.201667	0.0537155	0.00708256	0.00108521	0.000137581	0	0	0	
0.201833	-0.0518774	-0.00720091	0.00120192	0.000137018	0	0	0	
0.202	0.0566417	0.00732458	0.00119575	0.000137522	0	0	0	
0.202167	-0.0318508	-0.00732058	0.00110852	0.000139047	0	0	0	
0.202333	0.00919536	0.00735201	0.00087467	0.000140397	0	0	0	
0.2025	0.0321812	-0.00730186	0.000791866	0.000141106	0	0	0	
0.202667	0.0442155	0.0072292	0.000801932	0.000140728	0	0	0	
0.202833	-0.0283154	-0.00705732	0.000968833	0.000139305	0	0	0	
0.203	0.0379507	0.00713346	0.0010305	0.000137893	0	0	0	
0.203167	-0.0434406	-0.00716767	0.00100776	0.000137138	0	0	0	
0.203333	0.0404806	0.00722468	0.000947628	0.000137685	0	0	0	
0.2035	-0.00452702	-0.00715653	0.000717575	0.000138212	0	0	0	
0.203667	0.0760056	0.00708367	0.000874986	0.000138044	0	0	0	
0.203833	-0.0373197	-0.00700267	0.00100986	0.000136886	0	0	0	
0.204	0.0467002	0.00715293	0.00123072	0.000136282	0	0	0	
0.204167	-0.0332839	-0.00720065	0.000978868	0.000136595	0	0	0	
0.204333	0.0297484	0.00728196	0.000841641	0.000138017	0	0	0	
0.2045	-0.0320846	-0.00726503	0.000744512	0.000139283	0	0	0	
0.204667	0.0251781	0.0072236	0.000725811	0.000139738	0	0	0	
0.204833	-0.0273365	-0.00716949	0.000685279	0.000139758	0	0	0	
0.205	0.0441109	0.00704765	0.000724386	0.000138723	0	0	0	
0.205167	-0.0497576	-0.00687491	0.000889257	0.000137291	0	0	0	
0.205333	0.0475244	0.00689026	0.000974602	0.000135093	0	0	0	
0.2055	-0.0357458	-0.0071066	0.000948533	0.000134348	0	0	0	
0.205667	0.0376053	0.00720405	0.000883788	0.000135274	0	0	0	
0.205833	-0.0377806	-0.00717811	0.000858416	0.000137141	0	0	0	
0.206	0.0412038	0.00710108	0.000917962	0.000138078	0	0	0	
0.206167	-0.0460915	-0.00716329	0.00097044	0.000138257	0	0	0	
0.206333	0.0501114	0.00725348	0.000993974	0.000138542	0	0	0	
0.2065	-0.0446858	-0.00719638	0.00100368	0.000139051	0	0	0	
0.206667	0.040438	0.00706877	0.000946371	0.000139008	0	0	0	
0.206833	-0.0404057	-0.00709058	0.000919609	0.000138173	0	0	0	
0.207	0.0374862	0.00721614	0.000885475	0.000138077	0	0	0	
0.207167	-0.0326342	-0.00726896	0.000832954	0.000138568	0	0	0	
0.207333	0.0368764	0.00722062	0.000818562	0.000139812	0	0	0	
0.2075	-0.052638	-0.00713566	0.000887988	0.000139431	0	0	0	
0.207667	0.0509487	0.00716204	0.00100052	0.000138997	0	0	0	
0.207833	-0.0415919	-0.00712813	0.00104542	0.000138409	0	0	0	
0.208	0.0403458	0.00705997	0.000957834	0.000138459	0	0	0	
0.208167	-0.0404065	-0.00699763	0.000916241	0.000137538	0	0	0	
0.208333	0.0489406	0.00711099	0.000911878	0.000137157	0	0	0	
0.2085	-0.0382124	-0.00728366	0.000961882	0.000137313	0	0	0	
0.208667	0.0494415	0.00734043	0.000942727	0.000139155	0	0	0	
0.208833	-0.0472905	-0.00716981	0.000959462	0.000140377	0	0	0	
0.209	0.0403411	0.00701531	0.000923173	0.000139906	0	0	0	
0.209167	-0.0330568	-0.00694248	0.000907957	0.000138139	0	0	0	
0.209333	0.0435582	0.00693679	0.000871937	0.000136169	0	0	0	
0.2095	-0.0442727	-0.00700996	0.000909783	0.000135378	0	0	0	
0.209667	0.050925	0.00697858	0.000967256	0.000135217	0	0	0	
0.209833	-0.0529461	-0.00695331	0.00105095	0.000135245	0	0	0	
0.21	0.052472	0.00700771	0.00107127	0.000135364	0	0	0	
0.210167	-0.0391604	-0.00697429	0.001014	0.000135759	0	0	0	
0.210333	0.0303284	0.00695522	0.000879794	0.000135567	0	0	0	
0.2105	-0.0410575	-0.00702265	0.000801236	0.000136025	0	0	0	
0.210667	0.0456169	0.0070181	0.000876884	0.000136089	0	0	0	
0.210833	-0.0531785	-0.00698832	0.000980732	0.000136919	0	0	0	
0.211	0.0533639	0.00702983	0.00107443	0.000136954	0	0	0	
0.211167	-0.0549463	-0.00693945	0.00108061	0.000136853	0	0	0	
0.211333	0.0472712	0.00697975	0.00109563	0.000136383	0	0	0	
0.2115	-0.050161	-0.00697847	0.0010708	0.000136311	0	0	0	
0.211667	0.0417484	0.00693524	0.00105412	0.00013577	0	0	0	
0.211833	-0.0392748	-0.00701914	0.000953169	0.000135909	0	0	0	
0.212	0.0384186	0.00700983	0.000921161	0.000135787	0	0	0	
0.212167	-0.0479395	-0.00698635	0.000912606	0.000136508	0	0	0	
0.212333	0.0391201	0.00702302	0.000958384	0.000136846	0	0	0	
0.2125	-0.0376468	-0.00704636	0.000926617	0.000137093	0	0	0	
0.212667	0.0429573	0.00706845	0.000909014	0.000137225	0	0	0	
0.212833	-0.0526368	-0.00717083	0.00090702	0.000137823	0	0	0	
0.213	0.0398586	0.00711517	0.000952417	0.00013874	0	0	0	
0.213167	-0.0358397	-0.00708899	0.000879833	0.000138987	0	0	0	
0.213333	0.0372113	0.0071121	0.000861384	0.000139048	0	0	0	
0.2135	-0.0531573	-0.00709863	0.00086907	0.000138455	0	0	0	
0.213667	0.0479447	0.00717089	0.000999221	0.00013871	0	0	0	
0.213833	-0.0456398	-0.00707131	0.00101539	0.000138655	0	0	0	
0.214	0.0508979	0.00692611	0.00100763	0.000138284	0	0	0	
0.214167	-0.0492647	-0.00695878	0.000947839	0.000137048	0	0	0	
0.214333	0.0366761	0.00695083	0.000934088	0.00013619	0	0	0	
0.2145	-0.0383091	-0.00684739	0.000862156	0.000135587	0	0	0	
0.214667	0.0368413	0.00683037	0.000845804	0.000135282	0	0	0	
0.214833	-0.0388031	-0.00680304	0.000817456	0.000134428	0	0	0	
0.215	0.0487702	0.00686229	0.000874213	0.000134053	0	0	0	
0.215167	-0.0547958	-0.00704526	0.000949324	0.000134687	0	0	0	
0.215333	0.0510761	0.00710547	0.00105847	0.000136235	0	0	0	
0.2155	-0.0521271	-0.0071304	0.00109331	0.000137938	0	0	0	
0.215667	0.0481362	0.00709434	0.00105438	0.000139078	0	0	0	
0.215833	-0.0425761	-0.00699335	0.000963694	0.000139204	0	0	0	
0.216	0.0341918	0.00692125	0.000889442	0.000138663	0	0	0	
0.216167	-0.037723	-0.0068677	0.000826879	0.000137645	0	0	0	
0.216333	0.0459376	0.0068523	0.000865434	0.000136434	0	0	0	
0.2165	-0.0529373	-0.0068855	0.000914266	0.000135457	0	0	0	
0.216667	0.0440255	0.00699732	0.000957445	0.000135291	0	0	0	
0.216833	-0.0412757	-0.00697946	0.000909933	0.000135984	0	0	0	
0.217	0.0364068	0.00691256	0.000869267	0.00013685	0	0	0	
0.217167	-0.0356324	-0.00687888	0.000801689	0.000136912	0	0	0	
0.217333	0.044394	0.00680188	0.000841511	0.00013623	0	0	0	
0.2175	-0.0628747	-0.00677565	0.000924269	0.000135152	0	0	0	
0.217667	0.0942008	0.00681956	0.00117653	0.000134395	0	0	0	
0.217833	-0.054412	-0.006918	0.00136522	0.000134401	0	0	0	
0.218	0.0574823	0.00695408	0.0013556	0.000135278	0	0	0	
0.218167	-0.0329473	-0.00698421	0.00114239	0.000136643	0	0	0	
0.218333	0.0316933	0.00684152	0.000880219	0.000137421	0	0	0	
0.2185	-0.0435157	-0.0068185	0.000817126	0.000137075	0	0	0	
0.218667	0.0586346	0.00675393	0.000934767	0.000136124	0	0	0	
0.218833	-0.0312672	-0.00674898	0.00112526	0.000135142	0	0	0	
0.219	0.0655111	0.00672393	0.00114884	0.000134774	0	0	0	
0.219167	-0.0579797	-0.00682184	0.00118463	0.000134591	0	0	0	
0.219333	0.0516301	0.00689823	0.00108577	0.000134749	0	0	0	
0.2195	-0.0321801	-0.0069625	0.00104815	0.000135559	0	0	0	
0.219667	0.0396722	0.0069673	0.000862868	0.000136792	0	0	0	
0.219833	-0.0516118	-0.00690971	0.000851312	0.000137744	0	0	0	
0.22	0.0545458	0.00687602	0.000932967	0.000138037	0	0	0	
0.220167	-0.0496088	-0.00681792	0.00105131	0.000137326	0	0	0	
0.220333	0.0487857	0.00679568	0.00103072	0.00013658	0	0	0	
0.2205	-0.0446102	-0.00679328	0.00102336	0.00013573	0	0	0	
0.220667	0.0539178	0.00687324	0.000949909	0.000135894	0	0	0	
0.220833	-0.0395872	-0.00676381	0.000979613	0.000135951	0	0	0	
0.221	0.0481274	0.0068127	0.000937565	0.000136314	0	0	0	
0.221167	-0.047067	-0.00678074	0.000973679	0.000136077	0	0	0	
0.221333	0.0476894	0.00679695	0.000968162	0.000136296	0	0	0	
0.2215	-0.0474552	-0.00672634	0.00100147	0.00013572	0	0	0	
0.221667	0.0449909	0.00675649	0.000952568	0.000135606	0	0	0	
0.221833	-0.0408155	-0.00677421	0.000941549	0.000135069	0	0	0	
0.222	0.0509806	0.00692284	0.000895689	0.000135815	0	0	0	
0.222167	-0.0449206	-0.00700997	0.000941141	0.000136871	0	0	0	
0.222333	0.0466383	0.00694645	0.000958894	0.000138358	0	0	0	
0.2225	-0.0455977	-0.00676601	0.000967903	0.000138564	0	0	0	
0.222667	0.0417994	0.00667088	0.000941348	0.000137528	0	0	0	
0.222833	-0.0388245	-0.00662937	0.000880417	0.000135543	0	0	0	
0.223	0.0430045	0.00659386	0.0008809	0.000134221	0	0	0	
0.223167	-0.0596786	-0.00663585	0.000954295	0.000133112	0	0	0	
0.223333	0.0632443	0.00673639	0.00106767	0.000132867	0	0	0	
0.2235	-0.0371551	-0.00684433	0.00107175	0.00013388	0	0	0	
0.223667	0.0282238	0.00686142	0.000926522	0.000135546	0	0	0	
0.223833	-0.038676	-0.00678398	0.000776147	0.000136912	0	0	0	
0.224	0.0299553	0.00675812	0.000704608	0.000137198	0	0	0	
0.224167	-0.0273637	-0.00671416	0.000678205	0.000136368	0	0	0	
0.224333	0.0508614	0.00675457	0.00076504	0.000136029	0	0	0	
0.2245	-0.0763523	-0.006799	0.000985812	0.00013605	0	0	0	
0.224667	0.0660917	0.00676222	0.00121659	0.000136709	0	0	0	
0.224833	-0.0402193	-0.00663655	0.00122594	0.000136319	0	0	0	
0.225	0.0391241	0.00664323	0.00104605	0.000135146	0	0	0	
0.225167	-0.0431428	-0.00673476	0.000892799	0.000134273	0	0	0	
0.225333	0.0419419	0.00684593	0.000830102	0.000135188	0	0	0	
0.2255	-0.047362	-0.00681202	0.00087026	0.000136332	0	0	0	
0.225667	0.0498177	0.0067145	0.000891381	0.000137067	0	0	0	
0.225833	-0.049193	-0.00663046	0.000980892	0.000136093	0	0	0	
0.226	0.0537891	0.00668197	0.000993146	0.000135364	0	0	0	
0.226167	-0.0457995	-0.00678268	0.00102326	0.000135436	0	0	0	
0.226333	0.0438931	0.00675839	0.000957166	0.000136178	0	0	0	
0.2265	-0.042818	-0.00670945	0.000919255	0.000136381	0	0	0	
0.226667	0.0452692	0.00666876	0.000884526	0.000135753	0	0	0	
0.226833	-0.0494599	-0.00667252	0.000938165	0.000135231	0	0	0	
0.227	0.0465186	0.0067255	0.000957125	0.000135602	0	0	0	
0.227167	-0.0409352	-0.00671531	0.00095648	0.0001364	0	0	0	
0.227333	0.0405682	0.00657455	0.000896233	0.000136207	0	0	0	
0.2275	-0.0438018	-0.00664629	0.00087667	0.000135346	0	0	0	
0.227667	0.0505834	0.00667953	0.000885713	0.000134778	0	0	0	
0.227833	-0.0384018	-0.0066394	0.000887471	0.000135128	0	0	0	
0.228	0.0443999	0.00658766	0.000874876	0.000135735	0	0	0	
0.228167	-0.0419738	-0.00657637	0.000880967	0.000135394	0	0	0	
0.228333	0.0199805	0.0065751	0.000832721	0.000134711	0	0	0	
0.2285	-0.0429267	-0.00669131	0.000747374	0.000134418	0	0	0	
0.228667	0.0500141	0.00668847	0.000773487	0.000134939	0	0	0	
0.228833	-0.0589588	-0.00674084	0.000888354	0.000135726	0	0	0	
0.229	0.0545081	0.00677258	0.0010842	0.000136692	0	0	0	
0.229167	-0.0397801	-0.00671192	0.0010445	0.000137296	0	0	0	
0.229333	0.0309236	0.00662027	0.000913793	0.000137696	0	0	0	
0.2295	-0.0536296	-0.00646509	0.000800256	0.000136807	0	0	0	
0.229667	0.0408273	0.00633704	0.000829589	0.00013479	0	0	0	
0.229833	-0.0487224	-0.00638981	0.000898612	0.00013291	0	0	0	
0.23	0.0489831	0.00650119	0.00097108	0.000132086	0	0	0	
0.230167	-0.0480097	-0.00656154	0.000942921	0.000132582	0	0	0	
0.230333	0.048593	0.00663772	0.000984186	0.000133734	0	0	0	
0.2305	-0.0390473	-0.00662499	0.000929239	0.000134597	0	0	0	
0.230667	0.0406038	0.00666686	0.000890105	0.000135712	0	0	0	
0.230833	-0.0424781	-0.00657701	0.000844334	0.000136003	0	0	0	
0.231	0.0537382	0.00661174	0.000889867	0.000135991	0	0	0	
0.231167	-0.0545586	-0.0065756	0.000995919	0.000135542	0	0	0	
0.231333	0.0571726	0.00651999	0.00108196	0.000135425	0	0	0	
0.2315	-0.0506294	-0.00639796	0.0010838	0.000134695	0	0	0	
0.231667	0.0544042	0.00635164	0.00106286	0.000133687	0	0	0	
0.231833	-0.0344511	-0.00633127	0.000964044	0.000132015	0	0	0	
0.232	0.0363514	0.00649514	0.000875534	0.000132255	0	0	0	
0.232167	-0.044317	-0.00645407	0.000836674	0.000133036	0	0	0	
0.232333	0.0610568	0.0064881	0.000982479	0.000134472	0	0	0	
0.2325	-0.062191	-0.00643382	0.00113252	0.00013446	0	0	0	
0.232667	0.0605175	0.00639483	0.00122573	0.000133954	0	0	0	
0.232833	-0.0295467	-0.00653373	0.00108289	0.000134187	0	0	0	
0.233	0.038171	0.0066493	0.000914878	0.0001355	0	0	0	
0.233167	-0.0412124	-0.00664728	0.000804317	0.000136726	0	0	0	
0.233333	0.0446033	0.00668858	0.000837901	0.000137541	0	0	0	
0.2335	-0.0443028	-0.00648457	0.000895459	0.000136949	0	0	0	
0.233667	0.0521773	0.0064423	0.00093963	0.00013609	0	0	0	
0.233833	-0.048095	-0.0064822	0.00094824	0.000135118	0	0	0	
0.234	0.0505274	0.00649175	0.000987925	0.000134631	0	0	0	
0.234167	-0.0346329	-0.0064398	0.000936428	0.000134625	0	0	0	
0.234333	0.0411729	0.00637325	0.000885568	0.000134295	0	0	0	
0.2345	-0.0532851	-0.00633666	0.000891675	0.000133635	0	0	0	
0.234667	0.0468792	0.00648445	0.000933238	0.000133582	0	0	0	
0.234833	-0.0474377	-0.00648659	0.000960491	0.000133928	0	0	0	
0.235	0.0395761	0.00650748	0.000922794	0.000134971	0	0	0	
0.235167	-0.0356346	-0.00627024	0.00082859	0.000135094	0	0	0	
0.235333	0.0411652	0.00603325	0.000796119	0.000133601	0	0	0	
0.2355	-0.051709	-0.00616485	0.000804711	0.000132751	0	0	0	
0.235667	0.0471833	0.0061884	0.00090527	0.000131824	0	0	0	
0.235833	-0.0461586	-0.00622302	0.000930589	0.000131608	0	0	0	
0.236	0.0421303	0.0063868	0.000922387	0.000130939	0	0	0	
0.236167	-0.0463221	-0.00645112	0.000856461	0.000131665	0	0	0	
0.236333	0.0449476	0.00657188	0.000876468	0.000133521	0	0	0	
0.2365	-0.0467599	-0.00666258	0.000876472	0.000137038	0	0	0	
0.236667	0.0465153	0.00635331	0.000921076	0.000138688	0	0	0	
0.236833	-0.0439494	-0.00621915	0.000916962	0.000138451	0	0	0	
0.237	0.0527252	0.00635517	0.000931136	0.000135831	0	0	0	
0.237167	-0.0483128	-0.00642175	0.000932416	0.000134793	0	0	0	
0.237333	0.0475145	0.00627082	0.000957714	0.000134455	0	0	0	
0.2375	-0.0427461	-0.00619987	0.000926027	0.000133858	0	0	0	
0.237667	0.0420524	0.00623401	0.000911579	0.000132535	0	0	0	
0.237833	-0.0489765	-0.00631007	0.000881613	0.000132302	0	0	0	
0.238	0.0549492	0.00633738	0.000936176	0.000133148	0	0	0	
0.238167	-0.044842	-0.00628892	0.000974178	0.000134136	0	0	0	
0.238333	0.0557045	0.00620821	0.00100391	0.000134081	0	0	0	
0.2385	-0.0524701	-0.00613867	0.0010131	0.000133243	0	0	0	
0.238667	0.0518136	0.0061144	0.00101501	0.00013236	0	0	0	
0.238833	-0.0463273	-0.00620748	0.00100358	0.000132091	0	0	0	
0.239	0.0418873	0.00631532	0.000948612	0.000132866	0	0	0	
0.239167	-0.0365785	-0.00624974	0.000887938	0.000133773	0	0	0	
0.239333	0.0504888	0.0061807	0.000837587	0.000134399	0	0	0	
0.2395	-0.0425653	-0.00624111	0.000883077	0.000133938	0	0	0	
0.239667	0.050906	0.00636665	0.000906595	0.000134278	0	0	0	
0.239833	-0.0489443	-0.00631003	0.000967505	0.000134878	0	0	0	
0.24	0.0492274	0.00630327	0.000945876	0.000135763	0	0	0	
0.240167	-0.0507709	-0.00629704	0.000969056	0.000135568	0	0	0	
0.240333	0.0466314	0.00629017	0.000941117	0.000135568	0	0	0	
0.2405	-0.0442	-0.00624309	0.000944453	0.000135399	0	0	0	
0.240667	0.051677	0.00617376	0.000920354	0.000135356	0	0	0	
0.240833	-0.0420007	-0.00616704	0.000913593	0.000134592	0	0	0	
0.241	0.0429803	0.00623008	0.000901078	0.000133876	0	0	0	
0.241167	-0.0478851	-0.0062494	0.000879644	0.000133653	0	0	0	
0.241333	0.0472698	0.00616983	0.000914857	0.000134029	0	0	0	
0.2415	-0.0558573	-0.00611379	0.000948604	0.000134216	0	0	0	
0.241667	0.0574858	0.00609873	0.00102499	0.000133695	0	0	0	
0.241833	-0.0537511	-0.00611535	0.00105339	0.000132955	0	0	0	
0.242	0.0424077	0.00616857	0.00102952	0.000132409	0	0	0	
0.242167	-0.0394858	-0.00627296	0.000936144	0.000133171	0	0	0	
0.242333	0.0489128	0.00623513	0.000888408	0.000134205	0	0	0	
0.2425	-0.0566188	-0.00617823	0.000926265	0.000135169	0	0	0	
0.242667	0.0427359	0.00614789	0.000963149	0.00013522	0	0	0	
0.242833	-0.0471149	-0.00606608	0.000965038	0.000134844	0	0	0	
0.243	0.0473479	0.00605872	0.000932851	0.000134355	0	0	0	
0.243167	-0.0465616	-0.00606055	0.000939809	0.000133666	0	0	0	
0.243333	0.0426309	0.0060386	0.000915618	0.000132658	0	0	0	
0.2435	-0.0424914	-0.0061052	0.000883307	0.000132412	0	0	0	
0.243667	0.0426062	0.0061674	0.000846799	0.000133407	0	0	0	
0.243833	-0.0517493	-0.00610151	0.000873112	0.000134774	0	0	0	
0.244	0.0439383	0.00601964	0.000896819	0.000135204	0	0	0	
0.244167	-0.0390881	-0.00599969	0.000898366	0.000133992	0	0	0	
0.244333	0.051294	0.00602751	0.000866946	0.000133162	0	0	0	
0.2445	-0.0485601	-0.0061089	0.000897475	0.000133108	0	0	0	
0.244667	0.0429409	0.00622863	0.000911923	0.000134267	0	0	0	
0.244833	-0.0466505	-0.00624117	0.000921454	0.000135737	0	0	0	
0.245	0.0468555	0.00609061	0.00089319	0.000136613	0	0	0	
0.245167	-0.0440402	-0.00604521	0.000915056	0.000136393	0	0	0	
0.245333	0.0559741	0.00597126	0.000936986	0.000134946	0	0	0	
0.2455	-0.0481396	-0.00603285	0.000979123	0.00013379	0	0	0	
0.245667	0.0483564	0.006117	0.00096316	0.000133613	0	0	0	
0.245833	-0.0487323	-0.00611991	0.000961941	0.000134463	0	0	0	
0.246	0.0347983	0.00600614	0.000868132	0.000134997	0	0	0	
0.246167	-0.0652427	-0.00597807	0.0010375	0.000134742	0	0	0	
0.246333	0.0369324	0.0059638	0.00100444	0.000133844	0	0	0	
0.2465	-0.0455087	-0.00600583	0.00105641	0.000133744	0	0	0	
0.246667	0.0487051	0.00597282	0.000870051	0.000133958	0	0	0	
0.246833	-0.0502124	-0.00597042	0.00092081	0.000134109	0	0	0	
0.247	0.0560278	0.00589153	0.000939844	0.000133735	0	0	0	
0.247167	-0.0786434	-0.00579777	0.0011425	0.000132806	0	0	0	
0.247333	0.0450446	0.00581631	0.00121263	0.000132048	0	0	0	
0.2475	-0.060655	-0.00590093	0.00123683	0.000131465	0	0	0	
0.247667	0.0479751	0.00608927	0.00108754	0.000132075	0	0	0	
0.247833	-0.0525969	-0.0061108	0.00101744	0.00013375	0	0	0	
0.248	0.0498902	0.00596083	0.000996292	0.000135277	0	0	0	
0.248167	-0.0476055	-0.00588428	0.000988932	0.000135947	0	0	0	
0.248333	0.0430462	0.00580927	0.000953454	0.000135456	0	0	0	
0.2485	-0.038574	-0.00582611	0.000887949	0.000134519	0	0	0	
0.248667	0.0446117	0.00592865	0.000858477	0.000134096	0	0	0	
0.248833	-0.054971	-0.00582895	0.000855428	0.00013361	0	0	0	
0.249	0.0472202	0.00586434	0.000939324	0.000133236	0	0	0	
0.249167	-0.0446366	-0.00590173	0.000939018	0.000133233	0	0	0	
0.249333	0.0401913	0.00574603	0.000922071	0.000133122	0	0	0	
0.2495	-0.0474049	-0.00580178	0.000857546	0.00013295	0	0	0	
0.249667	0.0391374	0.00592829	0.000853465	0.000133016	0	0	0	
0.249833	-0.0371418	-0.00580917	0.000815801	0.000133404	0	0	0	
0.25	0.0625343	0.00587247	0.000885964	0.000134847	0	0	0	
0.250167	-0.0690536	-0.00585211	0.000990791	0.000134963	0	0	0	
0.250333	0.0385535	0.00578133	0.0011188	0.000134524	0	0	0	
0.2505	-0.0198927	-0.00590812	0.00104909	0.000133865	0	0	0	
0.250667	0.0197765	0.0060038	0.000820215	0.000134694	0	0	0	
0.250833	-0.0446756	-0.00600492	0.000731709	0.000136211	0	0	0	
0.251	0.0616611	0.00593542	0.00081367	0.000137369	0	0	0	
0.251167	-0.0562508	-0.00580794	0.00101437	0.000136861	0	0	0	
0.251333	0.0518869	0.00562008	0.0010776	0.000135638	0	0	0	
0.2515	-0.070315	-0.0056746	0.00109866	0.00013385	0	0	0	
0.251667	0.0539865	0.00584208	0.00114446	0.000133161	0	0	0	
0.251833	-0.035945	-0.00588032	0.00114854	0.00013317	0	0	0	
0.252	0.0262461	0.00586855	0.000978897	0.000134055	0	0	0	
0.252167	-0.050208	-0.00586923	0.000855665	0.000134754	0	0	0	
0.252333	0.0603242	0.00564251	0.000862485	0.000134742	0	0	0	
0.2525	-0.0517421	-0.00574075	0.00100328	0.000134488	0	0	0	
0.252667	0.0323776	0.00574518	0.000997058	0.000134163	0	0	0	
0.252833	-0.0338926	-0.00569004	0.000879093	0.000134342	0	0	0	
0.253	0.0463741	0.00571469	0.000788348	0.000134411	0	0	0	
0.253167	-0.0517572	-0.00577001	0.000847578	0.000134132	0	0	0	
0.253333	0.0478202	0.00572119	0.000910591	0.000134276	0	0	0	
0.2535	-0.0464921	-0.00570889	0.000947849	0.000134885	0	0	0	
0.253667	0.0521039	0.00564935	0.000924827	0.000135107	0	0	0	
0.253833	-0.0470069	-0.00573929	0.000968455	0.000135433	0	0	0	
0.254	0.0527245	0.00575031	0.000975139	0.000135642	0	0	0	
0.254167	-0.0443125	-0.00566859	0.000999653	0.000135965	0	0	0	
0.254333	0.0417717	0.00567371	0.000920008	0.000135383	0	0	0	
0.2545	-0.0369637	-0.00567086	0.000882669	0.000134045	0	0	0	
0.254667	0.0472063	0.00576027	0.000785953	0.000133602	0	0	0	
0.254833	-0.0581245	-0.00575292	0.000901797	0.000134377	0	0	0	
0.255	0.0630547	0.00570514	0.000987789	0.000135646	0	0	0	
0.255167	-0.0475105	-0.00562462	0.00110351	0.000136175	0	0	0	
0.255333	0.0490617	0.00550401	0.0010553	0.000135623	0	0	0	
0.2555	-0.0340697	-0.00546734	0.000973061	0.000134547	0	0	0	
0.255667	0.0552632	0.00551678	0.00089799	0.000133584	0	0	0	
0.255833	-0.0554367	-0.00555942	0.000958391	0.000133205	0	0	0	
0.256	0.0456829	0.00561359	0.000991848	0.00013346	0	0	0	
0.256167	-0.0440888	-0.00561089	0.000973689	0.000133765	0	0	0	
0.256333	0.0543714	0.00554533	0.000928474	0.000134234	0	0	0	
0.2565	-0.0402726	-0.00552583	0.000923626	0.000134322	0	0	0	
0.256667	0.0558013	0.00553719	0.000962742	0.000134239	0	0	0	
0.256833	-0.0380726	-0.00561392	0.000945241	0.000134024	0	0	0	
0.257	0.0433433	0.00558759	0.000885455	0.000134012	0	0	0	
0.257167	-0.0585827	-0.0055764	0.000899205	0.000134616	0	0	0	
0.257333	0.057113	0.00547491	0.000961427	0.000135143	0	0	0	
0.2575	-0.0401732	-0.00540743	0.00103654	0.000134959	0	0	0	
0.257667	0.0441953	0.00542718	0.000980292	0.000133798	0	0	0	
0.257833	-0.0490795	-0.00555804	0.000912297	0.000132993	0	0	0	
0.258	0.0519622	0.00558089	0.000900671	0.000133294	0	0	0	
0.258167	-0.043402	-0.00557053	0.000958577	0.000134883	0	0	0	
0.258333	0.0447032	0.0054255	0.000934179	0.000135443	0	0	0	
0.2585	-0.0509098	-0.00548239	0.000928587	0.000135284	0	0	0	
0.258667	0.0498862	0.00549432	0.000912016	0.000134294	0	0	0	
0.258833	-0.0515285	-0.00552681	0.000959595	0.000134184	0	0	0	
0.259	0.0500246	0.00542318	0.000979625	0.000134171	0	0	0	
0.259167	-0.0410024	-0.00537691	0.000972122	0.000134013	0	0	0	
0.259333	0.0438731	0.0053692	0.000916128	0.000133673	0	0	0	
0.2595	-0.0503899	-0.00535629	0.000885523	0.000133223	0	0	0	
0.259667	0.0591079	0.00534478	0.000940333	0.000132562	0	0	0	
0.259833	-0.0521174	-0.00536874	0.00101938	0.000131413	0	0	0	
0.26	0.0462826	0.00545955	0.00103545	0.000131311	0	0	0	
0.260167	-0.039555	-0.00547536	0.000980994	0.000132393	0	0	0	
0.260333	0.0360159	0.00543309	0.000883956	0.00013472	0	0	0	
0.2605	-0.0427157	-0.00523357	0.000825323	0.000135506	0	0	0	
0.260667	0.0474423	0.00525686	0.000826906	0.000134828	0	0	0	
0.260833	-0.0529483	-0.00531388	0.000873832	0.000133027	0	0	0	
0.261	0.056362	0.00537821	0.000973564	0.000132711	0	0	0	
0.261167	-0.0582637	-0.00541924	0.00103704	0.000133759	0	0	0	
0.261333	0.0463512	0.00531728	0.00108064	0.000134911	0	0	0	
0.2615	-0.0468938	-0.00515625	0.00101659	0.000134703	0	0	0	
0.261667	0.0450121	0.00519534	0.000955772	0.000133662	0	0	0	
0.261833	-0.0402025	-0.0052214	0.000897933	0.000132625	0	0	0	
0.262	0.0334635	0.00526493	0.000877367	0.000132475	0	0	0	
0.262167	-0.0399462	-0.00536329	0.000818575	0.000132893	0	0	0	
0.262333	0.0544638	0.00530889	0.000839013	0.000133491	0	0	0	
0.2625	-0.0501814	-0.00519054	0.000896104	0.000133912	0	0	0	
0.262667	0.0555496	0.00515728	0.000983432	0.000133976	0	0	0	
0.262833	-0.0576881	-0.00510871	0.00103922	0.000133536	0	0	0	
0.263	0.0519562	0.00516806	0.00106992	0.000133251	0	0	0	
0.263167	-0.0337486	-0.00526132	0.00104977	0.000133652	0	0	0	
0.263333	0.0357039	0.00519797	0.000904732	0.000134226	0	0	0	
0.2635	-0.0429945	-0.00524032	0.000819908	0.00013475	0	0	0	
0.263667	0.0587196	0.00520473	0.00082716	0.000135046	0	0	0	
0.263833	-0.0520738	-0.00505757	0.000953273	0.000135364	0	0	0	
0.264	0.0427864	0.00505567	0.000987415	0.000135362	0	0	0	
0.264167	-0.0422916	-0.00513776	0.000955108	0.000134723	0	0	0	
0.264333	0.0487799	0.00512063	0.000897367	0.000133791	0	0	0	
0.2645	-0.0556532	-0.00523854	0.000924134	0.000133629	0	0	0	
0.264667	0.0513896	0.00518477	0.000998193	0.000133823	0	0	0	
0.264833	-0.0367478	-0.00518835	0.000966985	0.000134389	0	0	0	
0.265	0.0433292	0.00523845	0.000922607	0.000134785	0	0	0	
0.265167	-0.0461104	-0.00518807	0.000844655	0.000135253	0	0	0	
0.265333	0.0579674	0.00508212	0.000936735	0.000135806	0	0	0	
0.2655	-0.0587497	-0.00508437	0.000988169	0.000135731	0	0	0	
0.265667	0.0521504	0.00506471	0.00108095	0.000135015	0	0	0	
0.265833	-0.036587	-0.00513655	0.00100925	0.000134703	0	0	0	
0.266	0.0487123	0.00500545	0.00094351	0.000134714	0	0	0	
0.266167	-0.0375782	-0.00484033	0.000862207	0.000134302	0	0	0	
0.266333	0.0457696	0.00499722	0.000851316	0.000133773	0	0	0	
0.2665	-0.044602	-0.00507449	0.000842667	0.000133223	0	0	0	
0.266667	0.0442933	0.00503844	0.000861326	0.000133509	0	0	0	
0.266833	-0.0390424	-0.00510496	0.00085743	0.000134034	0	0	0	
0.267	0.0489439	0.00505613	0.000854617	0.000134564	0	0	0	
0.267167	-0.0486404	-0.00502271	0.00089309	0.000134988	0	0	0	
0.267333	0.049005	0.00505253	0.000924844	0.000135828	0	0	0	
0.2675	-0.0467078	-0.00491276	0.00098852	0.000135912	0	0	0	
0.267667	0.0540488	0.00483145	0.000965871	0.000135349	0	0	0	
0.267833	-0.0457612	-0.00489032	0.000994833	0.000133836	0	0	0	
0.268	0.0261315	0.00493835	0.000944686	0.000133553	0	0	0	
0.268167	-0.025717	-0.00495942	0.000815063	0.000134064	0	0	0	
0.268333	0.0470495	0.0048338	0.000703314	0.000134756	0	0	0	
0.2685	-0.0549843	-0.00478154	0.000762896	0.000134834	0	0	0	
0.268667	0.053002	0.00477311	0.000901709	0.000134725	0	0	0	
0.268833	-0.0499488	-0.00478741	0.00100166	0.000134344	0	0	0	
0.269	0.0441323	0.00488741	0.000991645	0.000134323	0	0	0	
0.269167	-0.0377743	-0.00488588	0.000946796	0.000134193	0	0	0	
0.269333	0.039604	0.00484307	0.000870724	0.000134562	0	0	0	
0.2695	-0.0459411	-0.00492947	0.000823156	0.000135284	0	0	0	
0.269667	0.0460063	0.0049403	0.000841631	0.000136322	0	0	0	
0.269833	-0.0428096	-0.00487689	0.000891081	0.000136897	0	0	0	
0.27	0.0448796	0.00486993	0.000926438	0.000136733	0	0	0	
0.270167	-0.0408555	-0.00478537	0.000912074	0.000135742	0	0	0	
0.270333	0.0442667	0.00486284	0.000886423	0.000135337	0	0	0	
0.2705	-0.0420414	-0.00483997	0.000853539	0.000135687	0	0	0	
0.270667	0.0400136	0.00466131	0.000856009	0.000136024	0	0	0	
0.270833	-0.0462035	-0.00462748	0.000860637	0.000135188	0	0	0	
0.271	0.0552145	0.00472926	0.00089333	0.000133683	0	0	0	
0.271167	-0.0520248	-0.00474369	0.000955415	0.000133205	0	0	0	
0.271333	0.0553704	0.00481276	0.00101802	0.000134024	0	0	0	
0.2715	-0.0545894	-0.00486544	0.00108175	0.00013479	0	0	0	
0.271667	0.0385898	0.00477844	0.00102919	0.000134836	0	0	0	
0.271833	-0.0309529	-0.00471442	0.000936362	0.000134648	0	0	0	
0.272	0.0309736	0.00469397	0.000783293	0.000135109	0	0	0	
0.272167	-0.0444584	-0.00465665	0.000742457	0.000135838	0	0	0	
0.272333	0.0504475	0.00466028	0.000795508	0.000136141	0	0	0	
0.2725	-0.0632827	-0.00464646	0.000913267	0.000135146	0	0	0	
0.272667	0.0644731	0.00467275	0.00106593	0.000134204	0	0	0	
0.272833	-0.0560147	-0.00469999	0.00121395	0.000133682	0	0	0	
0.273	0.0580871	0.0047109	0.00137216	0.000134635	0	0	0	
0.273167	-0.025388	-0.00463308	0.00124596	0.000135583	0	0	0	
0.273333	0.0277037	0.00464334	0.00102361	0.000136663	0	0	0	
0.2735	-0.0467778	-0.0045917	0.000765418	0.000136559	0	0	0	
0.273667	0.0630836	0.0045654	0.00085451	0.000135963	0	0	0	
0.273833	-0.0731772	-0.00462522	0.00108299	0.000134613	0	0	0	
0.274	0.0830812	0.00478482	0.00126282	0.000134525	0	0	0	
0.274167	-0.0664214	-0.00478708	0.00133391	0.000135742	0	0	0	
0.274333	0.0435389	0.004718	0.00124293	0.000137957	0	0	0	
0.2745	-0.0175506	-0.00453083	0.00102292	0.000138433	0	0	0	
0.274667	0.011997	0.00454182	0.000719628	0.000137429	0	0	0	
0.274833	-0.0230839	-0.00455793	0.00048544	0.000135177	0	0	0	
0.275	0.0355952	0.0045705	0.000449637	0.000134092	0	0	0	
0.275167	-0.0308705	-0.00445212	0.000532707	0.000133538	0	0	0	
0.275333	0.0201318	0.00436621	0.000554806	0.000132938	0	0	0	
0.2755	-0.0377425	-0.00440944	0.000646164	0.000131473	0	0	0	
0.275667	0.0359085	0.00458014	0.00071413	0.000131283	0	0	0	
0.275833	-0.0196914	-0.00452449	0.000787201	0.000132464	0	0	0	
0.276	0.0493549	0.00444876	0.000918756	0.000134426	0	0	0	
0.276167	-0.0544919	-0.00440641	0.00113433	0.000135159	0	0	0	
0.276333	0.0709696	0.00438702	0.00145518	0.000135531	0	0	0	
0.2765	-0.0637471	-0.00429195	0.00169014	0.000135729	0	0	0	
0.276667	0.0478841	0.00427791	0.00152682	0.000135861	0	0	0	
0.276833	-0.0247764	-0.00432583	0.00123049	0.000134889	0	0	0	
0.277	0.0192485	0.0043387	0.000764982	0.000133521	0	0	0	
0.277167	-0.0759098	-0.00434738	0.000790989	0.000132496	0	0	0	
0.277333	0.0875218	0.00436912	0.0010221	0.000132692	0	0	0	
0.2775	-0.0782414	-0.00440428	0.00152232	0.000133257	0	0	0	
0.277667	0.0438514	0.00440523	0.00151286	0.00013348	0	0	0	
0.277833	-0.0378582	-0.00438637	0.00129528	0.000133254	0	0	0	
0.278	0.0136365	0.00438445	0.000946242	0.000133956	0	0	0	
0.278167	-0.00420534	-0.00425261	0.00101623	0.000135089	0	0	0	
0.278333	-0.0156888	0.00414959	0.000976675	0.000135802	0	0	0	
0.2785	-0.0123037	-0.00421281	0.000798188	0.000134641	0	0	0	
0.278667	0.0477818	0.004263	0.000521997	0.00013307	0	0	0	
0.278833	-0.0605805	-0.00426703	0.00075435	0.000132539	0	0	0	
0.279	0.0455891	0.00423518	0.00111171	0.000133849	0	0	0	
0.279167	-0.0401046	-0.00414729	0.00118163	0.000134903	0	0	0	
0.279333	0.0583819	0.00413666	0.00111134	0.000134984	0	0	0	
0.2795	-0.0435822	-0.00412748	0.000926041	0.000134111	0	0	0	
0.279667	0.037229	0.00415178	0.000988766	0.000133743	0	0	0	
0.279833	-0.0429811	-0.00417026	0.000897658	0.000133235	0	0	0	
0.28	0.0561848	0.00424869	0.00088073	0.000132759	0	0	0	
0.280167	-0.0443379	-0.00430951	0.000924014	0.000132988	0	0	0	
0.280333	0.0304973	0.00425984	0.000969498	0.000134673	0	0	0	
0.2805	-0.0310604	-0.0041527	0.000864574	0.000136711	0	0	0	
0.280667	0.0394518	0.00406887	0.000731653	0.000137596	0	0	0	
0.280833	-0.049222	-0.00400387	0.000700342	0.000136382	0	0	0	
0.281	0.0390426	0.00411325	0.000917872	0.000134714	0	0	0	
0.281167	-0.0296808	-0.00409353	0.00103484	0.000133812	0	0	0	
0.281333	0.0337405	0.00408988	0.000969157	0.000133992	0	0	0	
0.2815	-0.0390858	-0.00415961	0.000789323	0.000134303	0	0	0	
0.281667	0.041676	0.00416355	0.000752336	0.000134446	0	0	0	
0.281833	-0.0425244	-0.00406976	0.000835971	0.000134889	0	0	0	
0.282	0.0399059	0.0040574	0.00095641	0.000135475	0	0	0	
0.282167	-0.0356376	-0.00398066	0.000951641	0.000134816	0	0	0	
0.282333	0.0436466	0.0040044	0.000910198	0.000133443	0	0	0	
0.2825	-0.0385932	-0.00403612	0.000824794	0.000132778	0	0	0	
0.282667	0.0505179	0.00397683	0.000897437	0.000134042	0	0	0	
0.282833	-0.0435536	-0.00384081	0.000969717	0.000135466	0	0	0	
0.283	0.037399	0.00394073	0.000983659	0.000135693	0	0	0	
0.283167	-0.0492433	-0.00386821	0.000903387	0.000134208	0	0	0	
0.283333	0.0492037	0.00384188	0.000877966	0.000133105	0	0	0	
0.2835	-0.0422201	-0.0038761	0.000923998	0.000132955	0	0	0	
0.283667	0.0561185	0.0041056	0.00101876	0.00013459	0	0	0	
0.283833	-0.0554885	-0.00404975	0.00107375	0.000136082	0	0	0	
0.284	0.0406158	0.00406367	0.00108536	0.000137055	0	0	0	
0.284167	-0.030876	-0.00393013	0.0009922	0.000136646	0	0	0	
0.284333	0.0414303	0.00390638	0.000881722	0.000135999	0	0	0	
0.2845	-0.0515237	-0.00392064	0.000853011	0.000135331	0	0	0	
0.284667	0.0581456	0.00396515	0.000946873	0.000135346	0	0	0	
0.284833	-0.0553614	-0.00391708	0.00106831	0.000135556	0	0	0	
0.285	0.0451903	0.00390869	0.00122175	0.000135815	0	0	0	
0.285167	-0.0349807	-0.00385876	0.0011568	0.000135549	0	0	0	
0.285333	0.0391726	0.00377401	0.00104621	0.000134925	0	0	0	
0.2855	-0.0421627	-0.00376125	0.000879436	0.000133923	0	0	0	
0.285667	0.0470918	0.00375869	0.000874283	0.000133368	0	0	0	
0.285833	-0.0702628	-0.00387121	0.000948122	0.000133609	0	0	0	
0.286	0.0748693	0.00389172	0.00115893	0.000134024	0	0	0	
0.286167	-0.0531201	-0.00383553	0.00125999	0.000133937	0	0	0	
0.286333	0.0355929	0.00380506	0.00129074	0.000134412	0	0	0	
0.2865	-0.0386385	-0.0037609	0.00103894	0.000135736	0	0	0	
0.286667	0.0525319	0.003644	0.000938333	0.000137093	0	0	0	
0.286833	-0.0503902	-0.00362449	0.000871854	0.000136673	0	0	0	
0.287	0.0163439	0.00359585	0.000945538	0.000134643	0	0	0	
0.287167	0.00670933	-0.0037366	0.00115444	0.000133064	0	0	0	
0.287333	0.0179586	0.0038868	0.00122003	0.000133291	0	0	0	
0.2875	-0.0282334	-0.00386608	0.00106759	0.000134883	0	0	0	
0.287667	0.0409715	0.00377596	0.000816034	0.000136626	0	0	0	
0.287833	-0.0419207	-0.00362569	0.00069501	0.000137062	0	0	0	
0.288	0.0540223	0.00356682	0.000858001	0.000136686	0	0	0	
0.288167	-0.0542721	-0.00363736	0.00104907	0.000135511	0	0	0	
0.288333	0.0794583	0.00359377	0.00153266	0.000134269	0	0	0	
0.2885	-0.0429129	-0.00349597	0.00166046	0.000133102	0	0	0	
0.288667	0.0455644	0.00355924	0.00154936	0.000133416	0	0	0	
0.288833	-0.0488515	-0.00350556	0.00111323	0.000134004	0	0	0	
0.289	0.0472589	0.00351915	0.000984389	0.000134344	0	0	0	
0.289167	-0.0442933	-0.00355417	0.000986189	0.000133636	0	0	0	
0.289333	0.0339037	0.0035883	0.000997695	0.000133828	0	0	0	
0.2895	-0.0271977	-0.0035173	0.000951495	0.000134453	0	0	0	
0.289667	0.035115	0.00357814	0.000849056	0.000135531	0	0	0	
0.289833	-0.0481617	-0.00348992	0.000799769	0.000135979	0	0	0	
0.29	0.051418	0.003366	0.000859854	0.000136243	0	0	0	
0.290167	-0.0391818	-0.0033977	0.000972774	0.000135384	0	0	0	
0.290333	0.0331004	0.00348438	0.000979635	0.000133947	0	0	0	
0.2905	-0.0452916	-0.00341908	0.000914403	0.000133112	0	0	0	
0.290667	0.0515245	0.00337882	0.00088343	0.000134168	0	0	0	
0.290833	-0.0428091	-0.00325515	0.000939204	0.000135351	0	0	0	
0.291	0.0388371	0.00333984	0.000983975	0.000135676	0	0	0	
0.291167	-0.0393265	-0.00334216	0.000950472	0.000134422	0	0	0	
0.291333	0.0503734	0.00328854	0.000914866	0.000133434	0	0	0	
0.2915	-0.0512847	-0.00332085	0.000943103	0.000133072	0	0	0	
0.291667	0.0413368	0.00348321	0.000991817	0.000134186	0	0	0	
0.291833	-0.0363339	-0.00337909	0.000994893	0.000135896	0	0	0	
0.292	0.0449302	0.00325482	0.000957231	0.00013751	0	0	0	
0.292167	-0.0432718	-0.00322044	0.000944645	0.000137289	0	0	0	
0.292333	0.0388073	0.00327032	0.000953279	0.00013569	0	0	0	
0.2925	-0.0358747	-0.0033514	0.000926028	0.000134152	0	0	0	
0.292667	0.0430574	0.00344029	0.000872512	0.000134464	0	0	0	
0.292833	-0.0475945	-0.00335127	0.000872265	0.000135754	0	0	0	
0.293	0.0420313	0.00322422	0.000925725	0.000136635	0	0	0	
0.293167	-0.0335322	-0.0032471	0.000962577	0.000136569	0	0	0	
0.293333	0.0437187	0.00312177	0.000927193	0.000135531	0	0	0	
0.2935	-0.049814	-0.00325869	0.000921181	0.000134592	0	0	0	
0.293667	0.043563	0.00338801	0.000971406	0.000134115	0	0	0	
0.293833	-0.0354408	-0.00322931	0.00102095	0.000135066	0	0	0	
0.294	0.0383237	0.00304158	0.000967615	0.000136488	0	0	0	
0.294167	-0.0339634	-0.00305504	0.00094998	0.000136706	0	0	0	
0.294333	0.0241822	0.00297213	0.000892763	0.000134935	0	0	0	
0.2945	-0.0374588	-0.00307775	0.000834402	0.000132933	0	0	0	
0.294667	0.0621081	0.00316598	0.00079778	0.00013213	0	0	0	
0.294833	-0.0526799	-0.00320257	0.000927	0.000133193	0	0	0	
0.295	0.044804	0.00322762	0.00108783	0.000134821	0	0	0	
0.295167	-0.0468678	-0.00313291	0.00117659	0.000136204	0	0	0	
0.295333	0.0367767	0.00297252	0.00110549	0.000136892	0	0	0	
0.2955	-0.0261885	-0.0029359	0.0010517	0.000136578	0	0	0	
0.295667	0.0331717	0.00303241	0.000940782	0.000136024	0	0	0	
0.295833	-0.0422467	-0.00310415	0.000882899	0.000135886	0	0	0	
0.296	0.050997	0.00307519	0.000879339	0.000135861	0	0	0	
0.296167	-0.0355224	-0.00301393	0.000974656	0.000135198	0	0	0	
0.296333	0.0246342	0.00300732	0.00102273	0.000134234	0	0	0	
0.2965	-0.0275994	-0.00304674	0.000915047	0.000133942	0	0	0	
0.296667	0.0322604	0.0030668	0.000794822	0.000134839	0	0	0	
0.296833	-0.0242388	-0.00302856	0.000618288	0.00013599	0	0	0	
0.297	0.0500739	0.00293711	0.00067126	0.000136188	0	0	0	
0.297167	-0.0509045	-0.00279721	0.000765564	0.000134969	0	0	0	
0.297333	0.0565665	0.00279685	0.00102973	0.000133554	0	0	0	
0.2975	-0.0466947	-0.00289241	0.00112878	0.00013283	0	0	0	
0.297667	0.041568	0.0030588	0.00114568	0.000133233	0	0	0	
0.297833	-0.0237438	-0.00302647	0.000968003	0.000133979	0	0	0	
0.298	0.0559285	0.00285451	0.000982773	0.000134386	0	0	0	
0.298167	-0.0584392	-0.00280473	0.00104119	0.000134424	0	0	0	
0.298333	0.0563376	0.00291672	0.00124856	0.000134711	0	0	0	
0.2985	-0.0432698	-0.00283088	0.0012634	0.000134935	0	0	0	
0.298667	0.0362076	0.00295518	0.00117789	0.000135149	0	0	0	
0.298833	-0.0206451	-0.00290391	0.000940158	0.000134801	0	0	0	
0.299	0.0436532	0.00280592	0.000737772	0.000134917	0	0	0	
0.299167	-0.0487461	-0.00284014	0.000702508	0.00013571	0	0	0	
0.299333	0.0526189	0.00279575	0.000850084	0.000136283	0	0	0	
0.2995	-0.0656111	-0.00261376	0.00101783	0.000135633	0	0	0	
0.299667	0.070545	0.00260827	0.00114412	0.000133625	0	0	0	
0.299833	-0.0461096	-0.00271377	0.00121703	0.000131727	0	0	0	
0.3	0.0402855	0.00284358	0.00120487	0.000131395	0	0	0	
0.300167	-0.0401873	-0.00292143	0.00105044	0.000132936	0	0	0	
0.300333	0.0433569	0.0027634	0.000960549	0.00013485	0	0	0	
0.3005	-0.0317914	-0.00259551	0.000886385	0.000135932	0	0	0	
0.300667	0.0414043	0.00254132	0.000899516	0.000135669	0	0	0	
0.300833	-0.0427296	-0.00254197	0.000851547	0.000135137	0	0	0	
0.301	0.0467227	0.00265094	0.000903285	0.000134468	0	0	0	
0.301167	-0.048101	-0.00276257	0.000933081	0.000133554	0	0	0	
0.301333	0.0494547	0.00278287	0.00102059	0.000133036	0	0	0	
0.3015	-0.0380122	-0.00270898	0.00105364	0.00013385	0	0	0	
0.301667	0.0347419	0.00266795	0.00105822	0.000135414	0	0	0	
0.301833	-0.036762	-0.00252456	0.000926322	0.000136186	0	0	0	
0.302	0.0470619	0.00241556	0.000877707	0.000135529	0	0	0	
0.302167	-0.0362048	-0.0023586	0.00086112	0.000133892	0	0	0	
0.302333	0.0365981	0.00245784	0.000904014	0.000132381	0	0	0	
0.3025	-0.0424156	-0.00256378	0.000877107	0.000131746	0	0	0	
0.302667	0.0345889	0.00256896	0.000856333	0.000131952	0	0	0	
0.302833	-0.0392472	-0.00247952	0.000876772	0.000132579	0	0	0	
0.303	0.0438728	0.00245069	0.000914789	0.000133614	0	0	0	
0.303167	-0.0441254	-0.00240803	0.000964884	0.000135043	0	0	0	
0.303333	0.0455682	0.00244043	0.000993473	0.000136085	0	0	0	
0.3035	-0.0481691	-0.00245203	0.00100373	0.000135464	0	0	0	
0.303667	0.0388734	0.00242298	0.00100639	0.000133959	0	0	0	
0.303833	-0.0380523	-0.00242745	0.00103379	0.000133228	0	0	0	
0.304	0.04009	0.00250857	0.000998849	0.000133997	0	0	0	
0.304167	-0.0474307	-0.00248148	0.000982722	0.000135215	0	0	0	
0.304333	0.0402506	0.00236519	0.000984633	0.000135796	0	0	0	
0.3045	-0.029568	-0.00226806	0.000990244	0.000135435	0	0	0	
0.304667	0.0352094	0.00224751	0.000937178	0.000134753	0	0	0	
0.304833	-0.0422634	-0.00234474	0.000874824	0.000134113	0	0	0	
0.305	0.0446449	0.00241505	0.000896149	0.000133512	0	0	0	
0.305167	-0.0429643	-0.00237145	0.000948144	0.000133006	0	0	0	
0.305333	0.0497296	0.00237493	0.00100961	0.000133329	0	0	0	
0.3055	-0.0401051	-0.00233535	0.001029	0.000134423	0	0	0	
0.305667	0.034239	0.00229363	0.0010158	0.000135396	0	0	0	
0.305833	-0.0425562	-0.00225802	0.000946629	0.00013529	0	0	0	
0.306	0.0453672	0.00215792	0.000909273	0.000134324	0	0	0	
0.306167	-0.0383624	-0.00208337	0.000924879	0.000133395	0	0	0	
0.306333	0.0403737	0.00218613	0.000944944	0.000133278	0	0	0	
0.3065	-0.0429901	-0.00216667	0.00093028	0.000133799	0	0	0	
0.306667	0.0397737	0.00213619	0.000931704	0.000134547	0	0	0	
0.306833	-0.0321853	-0.00203013	0.000952845	0.000134709	0	0	0	
0.307	0.0376359	0.00200408	0.000933684	0.000134077	0	0	0	
0.307167	-0.0461454	-0.00209301	0.000925915	0.000132892	0	0	0	
0.307333	0.0200461	0.00223363	0.000975943	0.000132281	0	0	0	
0.3075	-0.00352249	-0.00223905	0.00102233	0.000133256	0	0	0	
0.307667	0.0278481	0.0021955	0.000845536	0.000135178	0	0	0	
0.307833	-0.0472314	-0.00204788	0.00068554	0.000136218	0	0	0	
0.308	0.0390061	0.00202707	0.000697242	0.000136078	0	0	0	
0.308167	-0.0326249	-0.00197093	0.0008724	0.000135319	0	0	0	
0.308333	0.0525548	0.00200605	0.000954608	0.000134872	0	0	0	
0.3085	-0.056083	-0.00204433	0.00102564	0.000134473	0	0	0	
0.308667	0.0294541	0.00204979	0.00115063	0.000134225	0	0	0	
0.308833	-0.0186535	-0.0019011	0.00114115	0.000134127	0	0	0	
0.309	0.0356758	0.00184691	0.000972845	0.00013433	0	0	0	
0.309167	-0.0403448	-0.00190918	0.000823772	0.000134373	0	0	0	
0.309333	0.0381549	0.00204418	0.000851561	0.000134165	0	0	0	
0.3095	-0.0362761	-0.0020315	0.000916738	0.000133782	0	0	0	
0.309667	0.0305035	0.00196619	0.000923231	0.000134085	0	0	0	
0.309833	-0.0219208	-0.00195367	0.000875638	0.000134722	0	0	0	
0.31	0.0337769	0.00196531	0.000839927	0.000134855	0	0	0	
0.310167	-0.0401067	-0.00204152	0.000851997	0.000134866	0	0	0	
0.310333	0.0309232	0.00200704	0.000880039	0.000135626	0	0	0	
0.3105	-0.0353207	-0.0017607	0.000908853	0.000136754	0	0	0	
0.310667	0.0504887	0.00178953	0.000917613	0.000137252	0	0	0	
0.310833	-0.0448758	-0.00181569	0.000967627	0.000136465	0	0	0	
0.311	0.0388447	0.00179163	0.00107062	0.000135327	0	0	0	
0.311167	-0.0308064	-0.00183917	0.00106592	0.000134083	0	0	0	
0.311333	0.0393073	0.00197309	0.000998141	0.000133281	0	0	0	
0.3115	-0.0326076	-0.00192773	0.000919177	0.000133401	0	0	0	
0.311667	0.0228252	0.00187365	0.000885968	0.000134829	0	0	0	
0.311833	-0.0296664	-0.00175985	0.000806068	0.000136468	0	0	0	
0.312	0.047381	0.00178719	0.000776167	0.000137163	0	0	0	
0.312167	-0.0379027	-0.00172809	0.000864976	0.000136332	0	0	0	
0.312333	0.0358081	0.001747	0.00102159	0.000135625	0	0	0	
0.3125	-0.0397124	-0.00164245	0.00102147	0.0001356	0	0	0	
0.312667	0.0429733	0.00151933	0.00100024	0.000135894	0	0	0	
0.312833	-0.0225686	-0.00158065	0.00102671	0.000135803	0	0	0	
0.313	0.0315328	0.00169864	0.00101166	0.000135227	0	0	0	
0.313167	-0.0666371	-0.0017643	0.00097725	0.000134399	0	0	0	
0.313333	0.0728126	0.00190571	0.00106486	0.00013418	0	0	0	
0.3135	-0.0368812	-0.00178093	0.00133374	0.000134826	0	0	0	
0.313667	0.0204168	0.0015403	0.00133723	0.000136137	0	0	0	
0.313833	-0.0454718	-0.00152061	0.00109948	0.000136713	0	0	0	
0.314	0.0317518	0.00150043	0.000927097	0.000135742	0	0	0	
0.314167	-0.0127199	-0.00152077	0.000944129	0.00013387	0	0	0	
0.314333	0.0430065	0.00162317	0.000906404	0.00013254	0	0	0	
0.3145	-0.0750119	-0.00161582	0.000898998	0.00013282	0	0	0	
0.314667	0.0438811	0.00140245	0.000998867	0.000133992	0	0	0	
0.314833	-0.0239288	-0.00134448	0.00120482	0.000134497	0	0	0	
0.315	0.034764	0.0011906	0.001098	0.000133001	0	0	0	
0.315167	-0.0434659	-0.00118244	0.000982948	0.000130278	0	0	0	
0.315333	0.0246047	0.00147919	0.000900321	0.000128413	0	0	0	
0.3155	-0.0303988	-0.00155231	0.000898328	0.000128838	0	0	0	
0.315667	0.0448374	0.00148323	0.000857134	0.000131072	0	0	0	
0.315833	-0.0426549	-0.00142839	0.00088777	0.000133357	0	0	0	
0.316	0.0280082	0.00124648	0.000965103	0.00013471	0	0	0	
0.316167	-0.0308536	-0.00109249	0.00097859	0.000135138	0	0	0	
0.316333	0.0351305	0.00124614	0.000930347	0.000135208	0	0	0	
0.3165	-0.031908	-0.00129978	0.000918087	0.00013528	0	0	0	
0.316667	0.034596	0.00128038	0.000926135	0.000135333	0	0	0	
0.316833	-0.0432155	-0.00126401	0.000925089	0.000134747	0	0	0	
0.317	0.0386402	0.00124971	0.000947537	0.000133578	0	0	0	
0.317167	-0.0311721	-0.00126524	0.00101733	0.000132529	0	0	0	
0.317333	0.0271157	0.00137192	0.00101629	0.000132513	0	0	0	
0.3175	-0.0307332	-0.00135703	0.000945288	0.000133632	0	0	0	
0.317667	0.029636	0.00125932	0.000871111	0.000135192	0	0	0	
0.317833	-0.0306586	-0.00124325	0.000846592	0.000136188	0	0	0	
0.318	0.0373153	0.0012019	0.000842439	0.000136044	0	0	0	
0.318167	-0.0395806	-0.00123448	0.00086426	0.000135083	0	0	0	
0.318333	0.0298052	0.00128931	0.000907864	0.000133794	0	0	0	
0.3185	-0.030187	-0.00130089	0.000938654	0.000133129	0	0	0	
0.318667	0.031115	0.00137727	0.000912598	0.000133708	0	0	0	
0.318833	-0.0292197	-0.00131563	0.000867616	0.000135026	0	0	0	
0.319	0.0313632	0.00118235	0.00085196	0.000136175	0	0	0	
0.319167	-0.0359833	-0.00113575	0.000843144	0.000136108	0	0	0	
0.319333	0.0356594	0.00106818	0.000866647	0.00013492	0	0	0	
0.3195	-0.0323613	-0.00110298	0.000905101	0.000133785	0	0	0	
0.319667	0.0277655	0.00113703	0.000959664	0.000133535	0	0	0	
0.319833	-0.0220004	-0.00113179	0.000976985	0.000134252	0	0	0	
0.32	0.0195822	0.00106022	0.000929777	0.000134889	0	0	0	
0.320167	-0.0291002	-0.0010367	0.000826093	0.000134899	0	0	0	
0.320333	0.0376484	0.000976115	0.000774405	0.00013456	0	0	0	
0.3205	-0.0361794	-0.00106912	0.000825462	0.000134614	0	0	0	
0.320667	0.0296346	0.0011384	0.000926709	0.000134999	0	0	0	
0.320833	-0.0309769	-0.00103972	0.000959763	0.000135465	0	0	0	
0.321	0.0287187	0.000936626	0.000938556	0.000135733	0	0	0	
0.321167	-0.0245228	-0.000933469	0.00092866	0.000135677	0	0	0	
0.321333	0.0311347	0.000956065	0.000877244	0.000135137	0	0	0	
0.3215	-0.0589307	-0.00103863	0.000874993	0.000133982	0	0	0	
0.321667	0.0602821	0.00108682	0.000999708	0.000132524	0	0	0	
0.321833	-0.0165477	-0.00102314	0.00136002	0.000132184	0	0	0	
0.322	-0.0123489	0.000913827	0.00158509	0.000133873	0	0	0	
0.322167	-0.0101321	-0.00073863	0.00129704	0.000136226	0	0	0	
0.322333	0.0347779	0.000672864	0.000837342	0.000136847	0	0	0	
0.3225	-0.0434145	-0.000733212	0.000571724	0.000135275	0	0	0	
0.322667	0.0479711	0.000864528	0.000751388	0.000133438	0	0	0	
0.322833	-0.0584857	-0.00088913	0.000985944	0.000132605	0	0	0	
