0	-0.0031077	0.00203778	3.1077E-07	2.03778E-07	0	0	0	
0.000166667	0.00992258	-0.00264139	3.47931E-05	1.4862E-05	0	0	0	
0.000333333	-0.0119103	-0.000414535	0.000120447	4.21961E-05	0	0	0	
0.0005	0.00484711	0.00121335	0.000199215	6.78739E-05	0	0	0	
0.000666667	-0.0059329	-0.000120085	0.000255945	5.77898E-05	0	0	0	
0.000833333	0.00861787	-0.000493652	0.000289291	3.8456E-05	0	0	0	
0.001	0.0073727	-0.00714952	0.000399568	7.07044E-05	0	0	0	
0.00116667	-0.0121645	0.0197857	0.000582571	0.000175186	0	0	0	
0.00133333	0.0106148	-0.0168953	0.000667396	0.000284823	0	0	0	
0.0015	-0.011177	-0.00316888	0.000561657	0.000318372	0	0	0	
0.00166667	-0.000456762	0.00422989	0.000343249	0.000260352	0	0	0	
0.00183333	0.0110019	0.00174143	0.000200763	0.000175014	0	0	0	
0.002	-0.0222983	0.012702	0.000241645	0.000184121	0	0	0	
0.00216667	0.052825	-0.0209995	0.000406652	0.000228019	0	0	0	
0.00233333	-0.0542579	0.00326266	0.000726387	0.000392722	0	0	0	
0.0025	0.0333436	0.0148257	0.000935155	0.000522334	0	0	0	
0.00266667	-0.0233879	-0.0138639	0.00102012	0.000496196	0	0	0	
0.00283333	0.00762562	0.00199105	0.000954114	0.000416034	0	0	0	
0.003	0.0187987	0.00297823	0.000908048	0.00025511	0	0	0	
0.00316667	-0.0579881	0.00111518	0.000825175	0.000268351	0	0	0	
0.00333333	0.0215438	-0.00306974	0.000792786	0.0003066	0	0	0	
0.0035	0.0285324	-0.00532719	0.000739282	0.000331134	0	0	0	
0.00366667	-0.0397879	0.0163217	0.000855834	0.000359549	0	0	0	
0.00383333	0.043254	-0.00279938	0.000797915	0.000334423	0	0	0	
0.004	-0.0454077	-0.00995086	0.00087482	0.000270174	0	0	0	
0.00416667	0.00369009	0.0133044	0.00085129	0.000246773	0	0	0	
0.00433333	-0.00259746	-0.0185903	0.0010959	0.000235324	0	0	0	
0.0045	-0.0124281	0.0103979	0.00114012	0.000326826	0	0	0	
0.00466667	0.029737	0.0118274	0.000926944	0.000292822	0	0	0	
0.00483333	-0.00928989	-0.00964387	0.000621303	0.000286085	0	0	0	
0.005	-0.0181176	0.00196586	0.00039891	0.000218423	0	0	0	
0.00516667	0.0199906	-0.000748512	0.000445568	0.000177195	0	0	0	
0.00533333	-0.0278927	0.00116476	0.000419239	8.07582E-05	0	0	0	
0.0055	0.0350973	-0.00267314	0.000488746	5.38171E-05	0	0	0	
0.00566667	-0.0298169	0.0047389	0.000578779	7.57544E-05	0	0	0	
0.00583333	0.00931054	-0.00505143	0.000670471	8.59743E-05	0	0	0	
0.006	0.0183004	0.00360051	0.000672671	0.000100381	0	0	0	
0.00616667	-0.0290513	-0.00380997	0.000559872	9.38902E-05	0	0	0	
0.00633333	0.0138366	0.00678527	0.000647197	0.000131442	0	0	0	
0.0065	0.0166612	-0.0109702	0.000917828	0.000206436	0	0	0	
0.00666667	-0.044223	0.0109804	0.00117389	0.00028681	0	0	0	
0.00683333	0.0534514	-0.005167	0.00115742	0.000264261	0	0	0	
0.007	-0.0379015	-0.00161082	0.000970035	0.000200558	0	0	0	
0.00716667	0.00361666	0.00291097	0.000869384	0.000126092	0	0	0	
0.00733333	0.0345422	-0.00698187	0.000910232	0.000118924	0	0	0	
0.0075	-0.0479542	0.0120745	0.000950622	0.000155862	0	0	0	
0.00766667	0.0352533	-0.00815348	0.000899769	0.000230834	0	0	0	
0.00783333	-0.00908819	-0.00212583	0.000787512	0.00025984	0	0	0	
0.008	-0.0233809	0.00372294	0.000733494	0.00018882	0	0	0	
0.00816667	0.0422569	0.00319473	0.000709365	0.00010504	0	0	0	
0.00833333	-0.0225536	-0.022631	0.000872059	0.000114521	0	0	0	
0.0085	0.0377702	0.0458103	0.00158808	0.000326183	0	0	0	
0.00866667	0.0178091	-0.044726	0.00245462	0.000667574	0	0	0	
0.00883333	-0.0788621	0.0147534	0.00279206	0.000816068	0	0	0	
0.009	0.0787977	-0.00216266	0.00236165	0.000649798	0	0	0	
0.00916667	-0.0289568	0.00330253	0.0015748	0.000397216	0	0	0	
0.00933333	-0.0396307	-0.00311293	0.00119957	0.000235438	0	0	0	
0.0095	0.16416	-0.00572558	0.00131954	0.000254061	0	0	0	
0.00966667	-0.165447	0.020742	0.00209737	0.000408636	0	0	0	
0.00983333	0.094553	-0.0209489	0.00258491	0.000697301	0	0	0	
0.01	-0.0251954	-0.00778417	0.00271306	0.000783958	0	0	0	
0.0101667	0.000308168	0.0173505	0.00225813	0.000605002	0	0	0	
0.0103333	-0.0243814	-0.0154074	0.00159613	0.000384063	0	0	0	
0.0105	0.0580052	0.00643212	0.0012642	0.0003008	0	0	0	
0.0106667	-0.0815142	-0.00153331	0.00114541	0.000260305	0	0	0	
0.0108333	0.0834078	0.000186344	0.00145759	0.000195898	0	0	0	
0.011	-0.0452951	0.00144636	0.00149995	0.00012432	0	0	0	
0.0111667	-0.00297864	-0.00100097	0.00148203	0.000120605	0	0	0	
0.0113333	0.0313346	-0.00553784	0.00124458	9.23445E-05	0	0	0	
0.0115	-0.0199092	0.00508921	0.000973822	0.000167056	0	0	0	
0.0116667	-0.0931876	-0.0154063	0.000981884	0.000352181	0	0	0	
0.0118333	0.161864	0.01882	0.00159426	0.000691501	0	0	0	
0.012	-0.120693	0.00254334	0.00221673	0.000906904	0	0	0	
0.0121667	0.0551109	-0.00448179	0.00247145	0.000785726	0	0	0	
0.0123333	-0.00947211	-0.007315	0.00236743	0.000461404	0	0	0	
0.0125	-0.0168148	0.00561994	0.00194574	0.00021779	0	0	0	
0.0126667	-0.0153079	0.0160341	0.00133802	0.000149443	0	0	0	
0.0128333	0.0345036	-0.045843	0.00128737	0.000308422	0	0	0	
0.013	-0.0550572	0.0483987	0.00177079	0.000588291	0	0	0	
0.0131667	0.103005	-0.0198482	0.00235996	0.00078778	0	0	0	
0.0133333	-0.134978	0.0107429	0.00236404	0.000682266	0	0	0	
0.0135	0.096407	-0.019027	0.00219555	0.000431773	0	0	0	
0.0136667	-0.0541832	-0.00283042	0.0021413	0.000400178	0	0	0	
0.0138333	0.0344097	0.017653	0.00191657	0.000412708	0	0	0	
0.014	-0.00839392	0.0119875	0.00142947	0.000498596	0	0	0	
0.0141667	6.81202E-05	-0.0338051	0.000966027	0.000450782	0	0	0	
0.0143333	-0.0221099	0.000324345	0.000591258	0.000527119	0	0	0	
0.0145	0.0386211	0.0232513	0.000544113	0.000503021	0	0	0	
0.0146667	-0.023371	-0.00495907	0.000521959	0.000484911	0	0	0	
0.0148333	-0.019698	0.00689633	0.000631937	0.000383634	0	0	0	
0.015	0.0357265	-0.0329545	0.000596245	0.0003682	0	0	0	
0.0151667	0.0296633	0.00249945	0.0011913	0.000438071	0	0	0	
0.0153333	-0.107777	0.0822158	0.00212699	0.000800824	0	0	0	
0.0155	0.142118	-0.0948234	0.00299079	0.00120973	0	0	0	
0.0156667	-0.133763	0.0158951	0.00297891	0.0014876	0	0	0	
0.0158333	0.0865156	0.0308592	0.00267185	0.00131796	0	0	0	
0.016	-0.00283225	-0.0143102	0.00248581	0.000933679	0	0	0	
0.0161667	-0.0807416	0.0130153	0.00242442	0.000581904	0	0	0	
0.0163333	0.129604	-0.00930453	0.00216439	0.000336369	0	0	0	
0.0165	-0.0908682	-0.0194245	0.00212603	0.00056063	0	0	0	
0.0166667	0.00039228	0.0217838	0.00221392	0.000780206	0	0	0	
0.0168333	0.0532569	0.00192324	0.0022757	0.000792318	0	0	0	
0.017	-0.0647002	-0.00361023	0.00198918	0.000445941	0	0	0	
0.0171667	0.0731742	-0.0158911	0.00167531	0.000185521	0	0	0	
0.0173333	-0.0726336	0.025093	0.00146602	0.000273356	0	0	0	
0.0175	0.0601187	-0.0209812	0.00133064	0.000376455	0	0	0	
0.0176667	-0.0387686	0.0152209	0.00127834	0.000400342	0	0	0	
0.0178333	-0.000324935	-0.00338015	0.00120509	0.000422078	0	0	0	
0.018	0.0285096	-0.0109984	0.00109716	0.00042928	0	0	0	
0.0181667	-0.0295417	0.0149742	0.000864714	0.000391258	0	0	0	
0.0183333	0.0136275	-0.00987948	0.000660215	0.000309504	0	0	0	
0.0185	0.0127441	0.0008918	0.000639166	0.00023206	0	0	0	
0.0186667	-0.042497	0.00722686	0.000726306	0.000234915	0	0	0	
0.0188333	0.047583	-0.00765661	0.000844534	0.00020492	0	0	0	
0.019	-0.0404463	0.00404559	0.000824175	0.000170618	0	0	0	
0.0191667	0.0308277	-0.00441091	0.000837591	0.000114558	0	0	0	
0.0193333	-0.0155794	0.000643381	0.000805287	0.000102401	0	0	0	
0.0195	0.00165523	0.00824608	0.000723976	0.000146142	0	0	0	
0.0196667	-0.000768748	-0.00704157	0.000507349	0.00015943	0	0	0	
0.0198333	0.00678419	-0.00600011	0.00029224	0.000193617	0	0	0	
0.02	-0.0182173	0.00567082	0.000193613	0.000152411	0	0	0	
0.0201667	0.0252477	-0.000359246	0.000262333	0.000129963	0	0	0	
0.0203333	-0.0241941	0.00500032	0.000384136	7.30459E-05	0	0	0	
0.0205	0.0202419	-0.00750412	0.000433432	7.86018E-05	0	0	0	
0.0206667	-0.0183133	-0.00294307	0.000428395	0.000134809	0	0	0	
0.0208333	0.015991	0.00734602	0.000385205	0.000170761	0	0	0	
0.021	-0.0167207	-0.0025658	0.000366161	0.00016123	0	0	0	
0.0211667	0.0155653	-0.00475953	0.000333155	0.00011879	0	0	0	
0.0213333	-0.0119483	0.00428967	0.00030511	9.96588E-05	0	0	0	
0.0215	0.0102037	-0.0015173	0.000260193	8.41663E-05	0	0	0	
0.0216667	-0.0136125	5.61391E-05	0.000234551	5.86752E-05	0	0	0	
0.0218333	0.0145595	-0.0033234	0.000236263	4.26013E-05	0	0	0	
0.022	-0.0156952	0.0020437	0.000270205	4.27969E-05	0	0	0	
0.0221667	0.013628	0.00172069	0.000282701	6.03902E-05	0	0	0	
0.0223333	-0.0154931	4.74645E-05	0.00028401	6.52965E-05	0	0	0	
0.0225	0.0170946	-0.00453895	0.000286891	7.8915E-05	0	0	0	
0.0226667	-0.0160605	0.00270247	0.000299405	7.50679E-05	0	0	0	
0.0228333	0.0166104	0.00163047	0.000317415	7.44967E-05	0	0	0	
0.023	-0.0154972	0.000113931	0.000331083	5.83747E-05	0	0	0	
0.0231667	0.00373269	-0.00722713	0.00029311	5.27299E-05	0	0	0	
0.0233333	0.00658743	0.00115198	0.000280971	0.00010058	0	0	0	
0.0235	-0.0141279	0.0171299	0.000280601	0.000179189	0	0	0	
0.0236667	0.0144637	-0.0136446	0.000290678	0.000262053	0	0	0	
0.0238333	0.0046067	-0.00691694	0.000349153	0.000382177	0	0	0	
0.024	-0.0291086	0.00947189	0.0004589	0.00034911	0	0	0	
0.0241667	0.0439012	0.00281362	0.000632338	0.000316916	0	0	0	
0.0243333	-0.0484782	0.00551105	0.000745124	0.000187554	0	0	0	
0.0245	0.0308632	-0.0171785	0.000877861	0.000207397	0	0	0	
0.0246667	0.00904825	-0.00537535	0.00101929	0.000282378	0	0	0	
0.0248333	-0.0336508	0.026361	0.000991531	0.000358154	0	0	0	
0.025	0.0213567	-0.00433971	0.000789787	0.00041829	0	0	0	
0.0251667	0.00798544	-0.0140041	0.00063827	0.000419631	0	0	0	
0.0253333	-0.0338093	0.00165313	0.000665774	0.000352203	0	0	0	
0.0255	0.0493042	0.00461784	0.000808783	0.000273336	0	0	0	
0.0256667	-0.0447032	0.00635776	0.000858492	0.00017899	0	0	0	
0.0258333	0.0244405	-0.00791895	0.000812922	0.000156777	0	0	0	
0.026	-0.0115842	-0.00449837	0.000721735	0.000159394	0	0	0	
0.0261667	0.0101847	0.0090086	0.000566845	0.000154967	0	0	0	
0.0263333	-0.0108024	0.00237961	0.000425936	0.000157821	0	0	0	
0.0265	0.00733412	-0.0121702	0.000294986	0.000138809	0	0	0	
0.0266667	-0.00238098	0.00765577	0.000230159	0.000161047	0	0	0	
0.0268333	0.00208401	0.00291032	0.000225591	0.000146241	0	0	0	
0.027	-0.0140681	-0.00402999	0.000275363	0.000123008	0	0	0	
0.0271667	0.0254536	-0.00324498	0.000385286	8.68034E-05	0	0	0	
0.0273333	-0.0260814	0.00571442	0.000483024	8.88323E-05	0	0	0	
0.0275	0.0234718	-0.00100426	0.000499804	8.80744E-05	0	0	0	
0.0276667	-0.0290416	-0.00292509	0.000482754	6.76623E-05	0	0	0	
0.0278333	0.0461706	0.00540864	0.000546854	8.98703E-05	0	0	0	
0.028	-0.0435649	-9.74373E-05	0.000726504	0.000178673	0	0	0	
0.0281667	0.0206864	-0.00534947	0.000813235	0.000272932	0	0	0	
0.0283333	-0.0123906	-0.000971241	0.000779562	0.000262331	0	0	0	
0.0285	0.0110889	0.00953044	0.000615614	0.000188382	0	0	0	
0.0286667	-0.00831841	-0.00814438	0.000451228	0.000144923	0	0	0	
0.0288333	0.0212167	-0.00450614	0.000351104	0.000126989	0	0	0	
0.029	-0.0326554	0.0184134	0.000438557	0.000159464	0	0	0	
0.0291667	0.0364222	-0.0168775	0.000619907	0.000228969	0	0	0	
0.0293333	-0.0401917	0.00518093	0.000736182	0.000273274	0	0	0	
0.0295	0.0254785	-0.00507312	0.000717163	0.000227995	0	0	0	
0.0296667	-0.0186871	0.0140478	0.00062017	0.000169316	0	0	0	
0.0298333	0.0366031	-0.0194822	0.000696482	0.000226415	0	0	0	
0.03	-0.056997	0.018634	0.000867234	0.000344262	0	0	0	
0.0301667	0.0633876	-0.00618243	0.00107602	0.000378133	0	0	0	
0.0303333	-0.0517782	-0.00762453	0.00112704	0.0003523	0	0	0	
0.0305	0.02801	0.00972117	0.00102342	0.000267019	0	0	0	
0.0306667	-0.00174079	0.00507332	0.000836992	0.000240566	0	0	0	
0.0308333	-0.0254985	-0.0207334	0.000557851	0.000279705	0	0	0	
0.031	0.0268034	0.0170232	0.000459433	0.000378599	0	0	0	
0.0311667	-0.000559659	-0.00229574	0.000526842	0.000383054	0	0	0	
0.0313333	-0.0221637	0.00127672	0.000772735	0.000269732	0	0	0	
0.0315	0.0318916	-0.00517792	0.000857788	0.000129207	0	0	0	
0.0316667	-0.0280681	0.00490345	0.000806753	8.26729E-05	0	0	0	
0.0318333	0.0193494	-0.0037982	0.000634935	9.24374E-05	0	0	0	
0.032	-0.0160501	0.0041548	0.000457164	0.000125335	0	0	0	
0.0321667	0.0188003	-0.00564997	0.00036025	0.00010915	0	0	0	
0.0323333	-0.0158041	0.000924744	0.0003342	0.000133772	0	0	0	
0.0325	0.00918002	0.00554992	0.000316391	0.000153207	0	0	0	
0.0326667	-0.00923596	-0.00303569	0.000280452	0.000158171	0	0	0	
0.0328333	0.0136006	-0.00507525	0.000247429	0.000135966	0	0	0	
0.033	-0.0137861	0.00903992	0.000255286	0.000105104	0	0	0	
0.0331667	0.0178528	-0.00165782	0.000270231	0.000151372	0	0	0	
0.0333333	-0.0190937	-0.00975389	0.000314847	0.000196903	0	0	0	
0.0335	0.00976755	0.00583207	0.000327476	0.000200777	0	0	0	
0.0336667	-0.0123463	0.00697391	0.000369123	0.000231765	0	0	0	
0.0338333	0.0186216	-0.0185553	0.000508273	0.000273653	0	0	0	
0.034	-0.030261	0.0263324	0.000757481	0.000375817	0	0	0	
0.0341667	0.0522625	-0.0176704	0.000951143	0.000405842	0	0	0	
0.0343333	-0.0523442	-0.00416364	0.00101332	0.000455101	0	0	0	
0.0345	0.0258349	0.0199034	0.000892722	0.000470509	0	0	0	
0.0346667	0.0013665	-0.0189115	0.000760323	0.000444537	0	0	0	
0.0348333	-0.0309528	0.0072594	0.000528653	0.000377477	0	0	0	
0.035	0.0383639	0.00355742	0.000542857	0.00035149	0	0	0	
0.0351667	-0.00850874	-0.00991585	0.000684172	0.000390415	0	0	0	
0.0353333	-0.0251858	0.0127905	0.0010025	0.000374586	0	0	0	
0.0355	0.0461157	-0.00584838	0.00112089	0.000310251	0	0	0	
0.0356667	-0.0497064	-0.00485165	0.00108708	0.000287704	0	0	0	
0.0358333	0.0251198	0.00744956	0.000900261	0.0002604	0	0	0	
0.036	0.000930177	-0.00181429	0.000691258	0.000244905	0	0	0	
0.0361667	-0.00727061	-0.00642219	0.000473921	0.000219908	0	0	0	
0.0363333	0.00356101	0.00815983	0.000276603	0.000189008	0	0	0	
0.0365	-0.00241056	0.00346306	0.000196503	0.000254746	0	0	0	
0.0366667	-0.00185932	-0.0151704	0.000217102	0.000271532	0	0	0	
0.0368333	0.0114428	0.00873127	0.000349638	0.000309906	0	0	0	
0.037	-0.0239287	0.00528965	0.00048966	0.000298484	0	0	0	
0.0371667	0.0224795	-0.00322081	0.000575416	0.000218243	0	0	0	
0.0373333	0.00601026	-0.000807211	0.000478409	0.000153922	0	0	0	
0.0375	-0.0133315	-0.00650917	0.000373442	0.000129532	0	0	0	
0.0376667	-0.00601131	0.00723668	0.00024195	0.000166931	0	0	0	
0.0378333	0.0251557	-0.000356956	0.00031599	0.000213014	0	0	0	
0.038	-0.0309974	0.00206978	0.000441003	0.000186609	0	0	0	
0.0381667	0.0261848	-0.0125539	0.000563827	0.000171681	0	0	0	
0.0383333	-0.0207888	0.00696889	0.000586798	0.000175197	0	0	0	
0.0385	0.0199461	0.00481525	0.000695712	0.000188277	0	0	0	
0.0386667	-0.000595829	-0.00825951	0.000892406	0.000198511	0	0	0	
0.0388333	-0.0230082	0.00271634	0.000937491	0.000215079	0	0	0	
0.039	0.0261673	-0.00492609	0.000742742	0.000177274	0	0	0	
0.0391667	-0.00367483	-0.00191247	0.000659349	0.000198985	0	0	0	
0.0393333	-0.0296907	0.00721206	0.000742854	0.000264723	0	0	0	
0.0395	0.0399254	-0.00484391	0.000856246	0.000288945	0	0	0	
0.0396667	-0.0325569	0.0037297	0.000784755	0.000239788	0	0	0	
0.0398333	0.0332841	-0.0168568	0.000686228	0.000215183	0	0	0	
0.04	-0.035963	0.0223943	0.000644732	0.000276167	0	0	0	
0.0401667	0.0258623	-0.0107198	0.000668236	0.000375365	0	0	0	
0.0403333	0.00819419	-0.00163081	0.000756235	0.000401981	0	0	0	
0.0405	-0.0209006	0.00966268	0.000603281	0.000388961	0	0	0	
0.0406667	-0.0396122	-0.00109873	0.00103851	0.000364872	0	0	0	
0.0408333	0.121133	-0.0356899	0.00200116	0.000364702	0	0	0	
0.041	-0.175431	0.0603179	0.00301257	0.000632407	0	0	0	
0.0411667	0.138091	-0.0478848	0.00327177	0.000827444	0	0	0	
0.0413333	-0.0134177	0.00209335	0.00287528	0.000987273	0	0	0	
0.0415	-0.0776099	0.032856	0.00268079	0.000854679	0	0	0	
0.0416667	0.142095	-0.0109622	0.00238467	0.000684138	0	0	0	
0.0418333	-0.172464	-0.0149885	0.00262206	0.000532671	0	0	0	
0.042	0.0603475	0.00139412	0.00310883	0.000584238	0	0	0	
0.0421667	0.0881713	-0.010988	0.00392953	0.000847356	0	0	0	
0.0423333	-0.144602	0.0428503	0.00383262	0.00100021	0	0	0	
0.0425	0.119965	-0.0360435	0.00321372	0.000939378	0	0	0	
0.0426667	-0.0340751	4.01589E-05	0.00258066	0.000933479	0	0	0	
0.0428333	-0.0405261	0.0209269	0.00231436	0.00087894	0	0	0	
0.043	0.0616909	-0.00630648	0.00194704	0.000744029	0	0	0	
0.0431667	-0.038457	-0.00380968	0.00141625	0.000476005	0	0	0	
0.0433333	0.00177838	-0.00408759	0.000979142	0.000249444	0	0	0	
0.0435	0.0163066	-0.00216858	0.000937011	0.000172283	0	0	0	
0.0436667	-0.0337477	0.0166124	0.000890151	0.000133906	0	0	0	
0.0438333	0.0465398	0.00228087	0.000839791	0.000177952	0	0	0	
0.044	-0.0346182	-0.0202989	0.000797287	0.000290408	0	0	0	
0.0441667	0.0215957	0.00492592	0.000831341	0.000282722	0	0	0	
0.0443333	-0.0151892	0.0139706	0.000855888	0.000301428	0	0	0	
0.0445	0.00417212	0.00223495	0.000705443	0.000301325	0	0	0	
0.0446667	-0.00751616	-0.0138231	0.000473023	0.000325932	0	0	0	
0.0448333	0.0280741	-0.00225614	0.000345122	0.000318161	0	0	0	
0.045	-0.0395141	0.00435499	0.000408712	0.000212192	0	0	0	
0.0451667	0.0289973	0.0159023	0.000576588	0.00029041	0	0	0	
0.0453333	-0.0280048	-0.0138231	0.000622509	0.000287252	0	0	0	
0.0455	0.0377772	-0.0136469	0.000635578	0.000426028	0	0	0	
0.0456667	-0.0358358	0.0175263	0.000663087	0.000321824	0	0	0	
0.0458333	0.0229376	0.00541669	0.000660084	0.000426904	0	0	0	
0.046	-0.0151101	-0.00877568	0.000547918	0.000316602	0	0	0	
0.0461667	0.0127412	-0.00406246	0.000390843	0.00031543	0	0	0	
0.0463333	-0.015038	-0.000449625	0.0003283	0.000150073	0	0	0	
0.0465	0.0192758	0.0126496	0.00034648	0.000170302	0	0	0	
0.0466667	-0.0205609	-0.00953821	0.000385213	0.000159089	0	0	0	
0.0468333	0.0196042	-0.0048155	0.000389398	0.000288516	0	0	0	
0.047	-0.0177852	0.0144032	0.000371425	0.000342191	0	0	0	
0.0471667	0.0077487	-0.017229	0.000336294	0.000378332	0	0	0	
0.0473333	0.00972544	0.0186848	0.000271965	0.000344675	0	0	0	
0.0475	-0.0105138	-0.0102473	0.000327798	0.000332359	0	0	0	
0.0476667	-0.0211336	-0.0103074	0.00046336	0.000346765	0	0	0	
0.0478333	0.0598078	0.0272212	0.000638774	0.000397895	0	0	0	
0.048	-0.059259	-0.0242491	0.000871154	0.000474969	0	0	0	
0.0481667	0.0210265	0.00901665	0.000946293	0.000433131	0	0	0	
0.0483333	0.0334198	0.0118823	0.000910274	0.000478592	0	0	0	
0.0485	-0.0577353	-0.0247113	0.000822393	0.00057773	0	0	0	
0.0486667	0.0239551	0.00569319	0.000783331	0.000684043	0	0	0	
0.0488333	0.0183395	0.00530791	0.000893167	0.000528416	0	0	0	
0.049	-0.0473935	0.0129002	0.0010276	0.000304587	0	0	0	
0.0491667	0.0681206	-0.0306652	0.00124152	0.000280834	0	0	0	
0.0493333	-0.0555621	0.0180779	0.00132295	0.000394993	0	0	0	
0.0495	0.0224935	0.0123272	0.00119578	0.000382192	0	0	0	
0.0496667	-0.000816729	-0.0228852	0.00118061	0.000360736	0	0	0	
0.0498333	-0.0213951	0.00486846	0.00113	0.000305244	0	0	0	
0.05	0.0331079	-0.00658804	0.00100497	0.000325622	0	0	0	
0.0501667	-0.0265313	0.0133203	0.000697202	0.000239227	0	0	0	
0.0503333	0.0186033	0.00595593	0.000614143	0.00033055	0	0	0	
0.0505	0.0180479	-0.0170494	0.000718576	0.000465216	0	0	0	
0.0506667	-0.0513215	0.0111341	0.00086712	0.000491505	0	0	0	
0.0508333	0.0520874	-0.00826746	0.000952932	0.000361119	0	0	0	
0.051	-0.039244	0.00811004	0.000906229	0.0002173	0	0	0	
0.0511667	0.0316614	-0.00222947	0.000868087	0.000192022	0	0	0	
0.0513333	-0.0254626	-0.00709442	0.000777525	0.000168968	0	0	0	
0.0515	0.0312542	0.00920691	0.000761096	0.00016452	0	0	0	
0.0516667	-0.0252239	0.00244836	0.000705586	0.000165928	0	0	0	
0.0518333	0.014345	-0.00376546	0.00059708	0.000135632	0	0	0	
0.052	-0.0113202	-0.00299022	0.000455069	9.1223E-05	0	0	0	
0.0521667	0.0107763	0.00333004	0.000324112	7.16404E-05	0	0	0	
0.0523333	0.00409827	0.0104732	0.000243729	0.000119506	0	0	0	
0.0525	-0.0102386	-0.000256587	0.000229654	0.000165948	0	0	0	
0.0526667	-0.0154573	-0.00656765	0.000355934	0.000257593	0	0	0	
0.0528333	0.0518248	-0.00753762	0.000743451	0.000351475	0	0	0	
0.053	-0.076546	0.0154232	0.00124614	0.000343957	0	0	0	
0.0531667	0.084948	-0.0064842	0.00160582	0.000323254	0	0	0	
0.0533333	-0.0697534	0.0259553	0.00161837	0.000298662	0	0	0	
0.0535	0.0561144	-0.00608675	0.00147035	0.000371795	0	0	0	
0.0536667	-0.00726446	-0.0203066	0.00134951	0.00039609	0	0	0	
0.0538333	-0.0587143	0.0268225	0.00112826	0.000497006	0	0	0	
0.054	0.0476919	-0.00959178	0.00105656	0.000458041	0	0	0	
0.0541667	0.000596231	-0.00289527	0.00124481	0.000430501	0	0	0	
0.0543333	0.00123547	0.0142531	0.00173954	0.000276161	0	0	0	
0.0545	-0.00869242	0.0122051	0.00171392	0.000330124	0	0	0	
0.0546667	0.0447621	-0.0327525	0.00129814	0.000494676	0	0	0	
0.0548333	-0.114302	0.00346479	0.00117267	0.00070769	0	0	0	
0.055	0.0671327	-0.00247639	0.00145959	0.000986823	0	0	0	
0.0551667	-0.0265485	-0.0183097	0.00156177	0.00103442	0	0	0	
0.0553333	-0.0228892	0.0264599	0.00124429	0.000860944	0	0	0	
0.0555	0.144302	0.0188559	0.00165105	0.000769028	0	0	0	
0.0556667	-0.104463	0.0128317	0.00259591	0.00104201	0	0	0	
0.0558333	0.0249932	0.00158243	0.00344648	0.00137363	0	0	0	
0.056	0.103639	-0.0740453	0.00379438	0.00127503	0	0	0	
0.0561667	-0.346999	0.0645493	0.00420685	0.00115212	0	0	0	
0.0563333	0.250651	-0.0861935	0.00518125	0.00129938	0	0	0	
0.0565	-0.0455855	0.0322185	0.00473747	0.00170105	0	0	0	
0.0566667	0.0974475	0.108866	0.00492671	0.00176338	0	0	0	
0.0568333	-0.0434992	-0.0509884	0.00432395	0.00216435	0	0	0	
0.057	-0.0910447	-0.0243456	0.00434613	0.00201557	0	0	0	
0.0571667	0.093943	0.00624562	0.00298653	0.0016929	0	0	0	
0.0573333	-0.16653	-0.028128	0.00273359	0.000910381	0	0	0	
0.0575	0.114346	0.0354252	0.00351845	0.000853252	0	0	0	
0.0576667	0.0521603	-0.0475338	0.00437641	0.00107388	0	0	0	
0.0578333	-0.043941	0.0761413	0.00464481	0.00121546	0	0	0	
0.058	-0.0546333	-0.0672187	0.00470533	0.00128531	0	0	0	
0.0581667	-0.0620645	0.0095304	0.00505188	0.00132364	0	0	0	
0.0583333	0.133775	-0.00889418	0.00499729	0.00135723	0	0	0	
0.0585	-0.137619	0.0278048	0.00413557	0.000968407	0	0	0	
0.0586667	0.082878	0.0440328	0.00319664	0.000843992	0	0	0	
0.0588333	0.116168	-0.0617991	0.00297805	0.000737827	0	0	0	
0.059	-0.209536	0.0218617	0.00349025	0.00137822	0	0	0	
0.0591667	0.180125	0.0381579	0.00386218	0.00224852	0	0	0	
0.0593333	-0.0407349	-0.0900573	0.00396996	0.00264386	0	0	0	
0.0595	-0.177178	0.0871558	0.00439301	0.002413	0	0	0	
0.0596667	0.292092	-0.016314	0.00473886	0.00168596	0	0	0	
0.0598333	-0.180135	0.0143882	0.00504767	0.00148402	0	0	0	
0.06	-0.0388327	0.0698331	0.00571126	0.00133688	0	0	0	
0.0601667	0.211771	-0.0898465	0.00590155	0.00143002	0	0	0	
0.0603333	-0.262598	-0.0224078	0.00579476	0.00167075	0	0	0	
0.0605	0.126844	0.0958729	0.00579389	0.00208907	0	0	0	
0.0606667	0.0558286	-0.0164725	0.00661584	0.001912	0	0	0	
0.0608333	-0.15948	-0.0431176	0.00707342	0.00159183	0	0	0	
0.061	0.185846	0.0325917	0.00594444	0.000931745	0	0	0	
0.0611667	-0.205408	-0.00755951	0.00466389	0.00100944	0	0	0	
0.0613333	0.0565935	-0.0196618	0.00352824	0.001121	0	0	0	
0.0615	-0.00407031	0.0514991	0.00230365	0.00133118	0	0	0	
0.0616667	0.0526375	-0.0593099	0.00130079	0.00117077	0	0	0	
0.0618333	-0.0509893	0.0176441	0.000940908	0.00105267	0	0	0	
0.062	-0.0383931	0.0172212	0.00209457	0.0012406	0	0	0	
0.0621667	0.144467	-0.0405657	0.00320126	0.00126731	0	0	0	
0.0623333	-0.151074	0.0308242	0.00352289	0.00110234	0	0	0	
0.0625	0.0653729	0.00452289	0.00306345	0.000674106	0	0	0	
0.0626667	0.0931426	-0.0397909	0.00268542	0.00053291	0	0	0	
0.0628333	-0.278516	0.0542495	0.00298307	0.000567838	0	0	0	
0.063	0.26906	-0.0414	0.00392484	0.000889711	0	0	0	
0.0631667	-0.13441	0.0253391	0.00460556	0.00118998	0	0	0	
0.0633333	0.0124067	-0.000892782	0.00483615	0.00130918	0	0	0	
0.0635	0.0623524	-0.0284415	0.00400571	0.00116897	0	0	0	
0.0636667	-0.0769212	0.0419141	0.00287623	0.000870159	0	0	0	
0.0638333	0.00299867	-0.0128428	0.00198373	0.000755088	0	0	0	
0.064	0.0273128	-0.0269828	0.00210902	0.000826972	0	0	0	
0.0641667	-0.104526	0.05013	0.00271114	0.000913504	0	0	0	
0.0643333	0.123182	-0.037814	0.00298061	0.000922473	0	0	0	
0.0645	-0.0749818	0.0168145	0.00250694	0.00074576	0	0	0	
0.0646667	-0.0185562	0.00722887	0.00219687	0.000703989	0	0	0	
0.0648333	0.0612326	-0.0191055	0.00206209	0.000621173	0	0	0	
0.065	-0.0478071	0.0141447	0.00177939	0.000552546	0	0	0	
0.0651667	0.0246329	-0.00895912	0.00119111	0.000381286	0	0	0	
0.0653333	0.00692468	-0.00810165	0.000845289	0.000306869	0	0	0	
0.0655	-0.052017	0.024428	0.000754585	0.000313282	0	0	0	
0.0656667	0.0616888	-0.0159746	0.00089502	0.000370462	0	0	0	
0.0658333	-0.0268784	-0.00145944	0.000997682	0.00041104	0	0	0	
0.066	-0.00750624	0.00448436	0.0011118	0.000358216	0	0	0	
0.0661667	0.0340513	-0.000538024	0.000919753	0.000257819	0	0	0	
0.0663333	-0.0334178	-0.00646176	0.00080825	0.00014705	0	0	0	
0.0665	0.00750838	0.01413	0.000815703	0.000162827	0	0	0	
0.0666667	0.0236558	-0.0195509	0.00111514	0.000253041	0	0	0	
0.0668333	-0.0370923	0.0253967	0.00111874	0.00032801	0	0	0	
0.067	0.0152229	-0.00226445	0.000935674	0.000438512	0	0	0	
0.0671667	0.0452786	-0.0315366	0.000824121	0.000545242	0	0	0	
0.0673333	-0.0742613	0.0180778	0.000891756	0.000572136	0	0	0	
0.0675	0.0427232	0.0338022	0.00144857	0.000775576	0	0	0	
0.0676667	0.0302603	-0.0456092	0.00190113	0.000843766	0	0	0	
0.0678333	-0.0394584	0.00969654	0.0019719	0.000849016	0	0	0	
0.068	0.0059957	0.00280506	0.00129864	0.000501919	0	0	0	
0.0681667	0.0268516	0.00876328	0.000775693	0.000225036	0	0	0	
0.0683333	-0.0697199	0.0126318	0.000707653	0.00023248	0	0	0	
0.0685	0.116882	-0.0357078	0.00121517	0.000373281	0	0	0	
0.0686667	-0.0903428	0.0168468	0.00158364	0.000568726	0	0	0	
0.0688333	0.032432	0.0195833	0.00192716	0.000687761	0	0	0	
0.069	0.0269512	-0.0389303	0.00183357	0.000674236	0	0	0	
0.0691667	-0.0335842	0.0303272	0.00137479	0.000692237	0	0	0	
0.0693333	-0.0243054	-0.0249729	0.00101926	0.000579493	0	0	0	
0.0695	0.0505274	0.0155925	0.000881426	0.000539006	0	0	0	
0.0696667	-0.0401468	0.00843384	0.00102252	0.00045702	0	0	0	
0.0698333	0.0501239	-0.0196719	0.000967268	0.000499197	0	0	0	
0.07	-0.0618997	0.0224993	0.000954084	0.000536969	0	0	0	
0.0701667	0.0564307	-0.0271551	0.000986262	0.00056881	0	0	0	
0.0703333	-0.0418269	-0.0035051	0.00107102	0.000739268	0	0	0	
0.0705	0.0220132	0.0350949	0.000924445	0.00083888	0	0	0	
0.0706667	-0.0246529	-0.0276898	0.000773327	0.000850266	0	0	0	
0.0708333	0.00675738	0.0150519	0.000585502	0.000619316	0	0	0	
0.071	0.0112127	-0.0279027	0.000436613	0.000484991	0	0	0	
0.0711667	0.00747813	0.00717711	0.000286555	0.000527398	0	0	0	
0.0713333	-0.01768	0.04256	0.00020478	0.000728125	0	0	0	
0.0715	0.0129029	-0.0418071	0.000266722	0.000825055	0	0	0	
0.0716667	-0.0868553	-0.00360024	0.000712344	0.00111472	0	0	0	
0.0718333	0.0606853	0.0176909	0.00124986	0.00111598	0	0	0	
0.072	-0.0353845	0.00824476	0.00158547	0.000941413	0	0	0	
0.0721667	0.0218986	-0.00663934	0.00143118	0.000472979	0	0	0	
0.0723333	-0.0165352	-0.011459	0.000965148	0.000256856	0	0	0	
0.0725	0.0194689	-0.00493379	0.000637964	0.000294674	0	0	0	
0.0726667	-0.100222	0.030854	0.000614742	0.00049885	0	0	0	
0.0728333	0.101297	-0.0109216	0.00125261	0.000473112	0	0	0	
0.073	-0.0848503	-0.00695862	0.00168406	0.000560559	0	0	0	
0.0731667	0.0471466	-0.00181366	0.00176297	0.000360434	0	0	0	
0.0733333	-0.0203275	0.0305026	0.00119093	0.000495896	0	0	0	
0.0735	0.00490702	-0.022361	0.000719092	0.000509485	0	0	0	
0.0736667	-0.0199642	-0.00197895	0.00042867	0.0005251	0	0	0	
0.0738333	0.0171855	0.00100471	0.000342169	0.000372973	0	0	0	
0.074	-0.00686489	0.00976913	0.000339041	0.000286706	0	0	0	
0.0741667	0.0149099	0.00736173	0.000286871	0.000314541	0	0	0	
0.0743333	-0.0274435	-0.0319826	0.000283903	0.000358978	0	0	0	
0.0745	0.0400932	0.0494229	0.000429238	0.000491172	0	0	0	
0.0746667	-0.0265023	-0.0306219	0.000727526	0.00066747	0	0	0	
0.0748333	-0.00559321	0.00395635	0.000941437	0.000675129	0	0	0	
0.075	0.0170837	-0.00155333	0.000918949	0.00046304	0	0	0	
0.0751667	-0.0103084	0.00896726	0.000639592	0.00024903	0	0	0	
0.0753333	-0.0276596	0.00225406	0.000622375	0.00014192	0	0	0	
0.0755	0.081121	-0.00737619	0.000907388	0.000239163	0	0	0	
0.0756667	-0.0961239	-0.00691978	0.00144435	0.000448673	0	0	0	
0.0758333	0.0815752	0.00972038	0.00163897	0.000593473	0	0	0	
0.076	-0.0519576	0.00395887	0.00163755	0.000497711	0	0	0	
0.0761667	0.00749258	-0.00314108	0.0014266	0.000263952	0	0	0	
0.0763333	0.0240555	-0.00948692	0.00109432	0.000207174	0	0	0	
0.0765	-0.0322003	0.00735833	0.000797661	0.00022058	0	0	0	
0.0766667	0.00362359	0.0133078	0.000685455	0.000364252	0	0	0	
0.0768333	0.0333043	-0.0224006	0.00073669	0.000439495	0	0	0	
0.077	-0.0402419	0.00809149	0.000746621	0.00048454	0	0	0	
0.0771667	0.0163119	0.0163391	0.000698512	0.000511502	0	0	0	
0.0773333	0.0140286	-0.0159547	0.000571411	0.000441031	0	0	0	
0.0775	-0.0260886	0.00550227	0.000504581	0.00040957	0	0	0	
0.0776667	0.0132994	-0.00834535	0.000459056	0.000229929	0	0	0	
0.0778333	0.0201434	0.011171	0.000645819	0.00023273	0	0	0	
0.078	-0.0545188	0.0184698	0.000870951	0.000404187	0	0	0	
0.0781667	0.0630808	-0.0262674	0.00101966	0.000537414	0	0	0	
0.0783333	-0.0289433	0.000274448	0.00105663	0.000504237	0	0	0	
0.0785	-0.0188247	0.0200439	0.0011287	0.00037693	0	0	0	
0.0786667	0.0478012	-0.0119656	0.00118352	0.000315711	0	0	0	
0.0788333	-0.0558822	-0.00169855	0.00114885	0.000332783	0	0	0	
0.079	0.0371604	0.00697561	0.00104094	0.000263553	0	0	0	
0.0791667	0.00735028	0.00764684	0.001086	0.000203941	0	0	0	
0.0793333	-0.0431043	-0.0184387	0.00117022	0.000162158	0	0	0	
0.0795	0.0573155	0.010841	0.00117003	0.000241919	0	0	0	
0.0796667	-0.0716433	0.0118714	0.0011177	0.000362275	0	0	0	
0.0798333	0.0655154	-0.0301396	0.00115788	0.000408706	0	0	0	
0.08	-0.0336946	0.023582	0.00123163	0.000490256	0	0	0	
0.0801667	-0.0016622	0.00635129	0.00127229	0.00054336	0	0	0	
0.0803333	0.0265688	-0.0219188	0.00109404	0.000591375	0	0	0	
0.0805	-0.0325075	0.0202312	0.000846227	0.000511219	0	0	0	
0.0806667	0.0170079	-0.00984009	0.000622134	0.000431393	0	0	0	
0.0808333	0.0111393	-0.00527575	0.000735298	0.000459299	0	0	0	
0.081	-0.0355459	0.0230654	0.00103111	0.000516736	0	0	0	
0.0811667	0.0498839	-0.023453	0.00120427	0.000506769	0	0	0	
0.0813333	-0.0425678	0.0135761	0.0011212	0.000447421	0	0	0	
0.0815	0.0194745	0.0010047	0.000887983	0.000393282	0	0	0	
0.0816667	0.00376676	-0.010105	0.000835689	0.000287888	0	0	0	
0.0818333	-0.030982	0.000727238	0.000782187	0.000230677	0	0	0	
0.082	0.0565839	0.0114184	0.000837597	0.000235654	0	0	0	
0.0821667	-0.0326397	-0.00484044	0.000865796	0.000321388	0	0	0	
0.0823333	-0.0077851	-0.00423518	0.000917434	0.000289784	0	0	0	
0.0825	0.0177288	0.0111393	0.000782978	0.000230961	0	0	0	
0.0826667	0.00859891	-0.0152704	0.000553676	0.000239932	0	0	0	
0.0828333	-0.0314292	0.012314	0.000591686	0.000391792	0	0	0	
0.083	0.0524963	-0.00705193	0.000826999	0.000524962	0	0	0	
0.0831667	-0.0530234	0.00441569	0.00104163	0.00048669	0	0	0	
0.0833333	0.0274529	0.00155947	0.000976776	0.000318862	0	0	0	
0.0835	0.0109132	-0.0102584	0.00099907	0.000188042	0	0	0	
0.0836667	-0.0238311	0.0023934	0.000897445	0.000198608	0	0	0	
0.0838333	0.00733811	0.00624408	0.000822569	0.000265453	0	0	0	
0.084	0.0463426	0.0161878	0.000709713	0.000271123	0	0	0	
0.0841667	-0.0814264	-0.0356083	0.000862951	0.000427818	0	0	0	
0.0843333	0.0683973	0.0156959	0.00117932	0.000507342	0	0	0	
0.0845	-0.036603	0.0062062	0.00140857	0.000473759	0	0	0	
0.0846667	0.00452653	0.00799748	0.00157098	0.000355562	0	0	0	
0.0848333	0.0100668	-0.0211792	0.00140594	0.000346802	0	0	0	
0.085	0.0294813	-0.00700299	0.00099203	0.000385709	0	0	0	
0.0851667	-0.0704167	0.0454972	0.000848148	0.00043101	0	0	0	
0.0853333	0.059083	-0.0218517	0.000921777	0.000670035	0	0	0	
0.0855	-0.0434412	-0.0289264	0.00115855	0.000907453	0	0	0	
0.0856667	0.0334372	0.0220865	0.00115184	0.000902542	0	0	0	
0.0858333	-0.0136453	0.0083469	0.00102555	0.000605298	0	0	0	
0.086	0.0161471	0.00415933	0.000873026	0.000382483	0	0	0	
0.0861667	-0.017135	-0.0128026	0.000635888	0.000269201	0	0	0	
0.0863333	-0.00612918	-0.0168422	0.000554631	0.000302007	0	0	0	
0.0865	0.0208611	0.0204378	0.00071805	0.000338237	0	0	0	
0.0866667	-0.0430905	0.00206486	0.000799546	0.000471634	0	0	0	
0.0868333	0.0326718	-0.020595	0.00090186	0.000548976	0	0	0	
0.087	0.0559884	0.0243941	0.00124848	0.000536513	0	0	0	
0.0871667	-0.157028	-0.00307919	0.00193988	0.00053356	0	0	0	
0.0873333	0.201226	-0.0162475	0.00266644	0.000489884	0	0	0	
0.0875	-0.146536	0.0151485	0.00330236	0.000471268	0	0	0	
0.0876667	0.0061691	-0.00632836	0.00404098	0.000359306	0	0	0	
0.0878333	0.127889	0.00210827	0.00460937	0.000229582	0	0	0	
0.088	-0.187142	0.00191509	0.00438841	0.000178406	0	0	0	
0.0881667	0.161011	-0.00499785	0.00374881	0.000175764	0	0	0	
0.0883333	-0.0497288	0.0096664	0.00345027	0.000181109	0	0	0	
0.0885	-0.0774817	-0.0099995	0.00373488	0.000191554	0	0	0	
0.0886667	0.143873	0.00586237	0.0037071	0.00019649	0	0	0	
0.0888333	-0.127599	0.00737207	0.0032032	0.000276894	0	0	0	
0.089	0.0645425	-0.0187351	0.00251052	0.000323363	0	0	0	
0.0891667	0.000539186	0.00985195	0.00220244	0.00033662	0	0	0	
0.0893333	-0.0264584	-0.00135675	0.00185268	0.000319356	0	0	0	
0.0895	-0.00691666	0.00880121	0.00126953	0.000318048	0	0	0	
0.0896667	0.021449	0.0132381	0.000709494	0.000370114	0	0	0	
0.0898333	0.00325257	-0.0192368	0.000355875	0.000440309	0	0	0	
0.09	-0.00728191	0.0106356	0.000493898	0.000436513	0	0	0	
0.0901667	0.0125544	0.0160145	0.000657537	0.000542687	0	0	0	
0.0903333	-0.0414807	-0.0253419	0.000924321	0.000478061	0	0	0	
0.0905	0.0557187	0.0118961	0.00102667	0.000574514	0	0	0	
0.0906667	-0.0659607	0.00687916	0.00109411	0.000527164	0	0	0	
0.0908333	0.0555577	0.0106181	0.00153409	0.000498391	0	0	0	
0.091	0.0208783	-0.0150779	0.00193847	0.000452275	0	0	0	
0.0911667	-0.0929469	0.0115623	0.00209484	0.00040689	0	0	0	
0.0913333	0.105952	-0.0107019	0.00191782	0.000375367	0	0	0	
0.0915	-0.0840675	0.0164399	0.00174517	0.000326419	0	0	0	
0.0916667	0.0312884	-0.0185412	0.00189803	0.000331592	0	0	0	
0.0918333	0.0662829	0.00891978	0.00209062	0.000409886	0	0	0	
0.092	-0.116389	0.0115719	0.00239256	0.000422772	0	0	0	
0.0921667	0.0949858	-0.0342749	0.00245207	0.000400351	0	0	0	
0.0923333	-0.0730965	0.0184183	0.00210832	0.000468052	0	0	0	
0.0925	0.0347687	0.0114311	0.00178938	0.000500583	0	0	0	
0.0926667	0.00597241	-0.0113834	0.00139816	0.000436833	0	0	0	
0.0928333	-0.00147973	-0.00487706	0.000960662	0.00026975	0	0	0	
0.093	-0.0234215	0.00955501	0.000584688	0.000206952	0	0	0	
0.0931667	0.0348257	-0.000524518	0.000505992	0.000289378	0	0	0	
0.0933333	-0.0403638	-0.0154438	0.000705312	0.000356737	0	0	0	
0.0935	0.0254678	0.0265499	0.000722462	0.000396708	0	0	0	
0.0936667	0.00756949	-0.0250905	0.000559148	0.000436764	0	0	0	
0.0938333	-0.025077	-0.0145796	0.000511473	0.000625326	0	0	0	
0.094	0.0052344	0.0416395	0.000686367	0.000797494	0	0	0	
0.0941667	0.0255013	-0.0378472	0.00107424	0.000831464	0	0	0	
0.0943333	-0.044993	0.0238226	0.00141838	0.000737599	0	0	0	
0.0945	0.0552258	-0.0104077	0.0014715	0.000650832	0	0	0	
0.0946667	-0.0392837	-0.0167382	0.00121271	0.000708	0	0	0	
0.0948333	0.00998128	0.0335316	0.00100213	0.000761001	0	0	0	
0.095	0.0184638	-0.0269257	0.00082761	0.000728943	0	0	0	
0.0951667	-0.0255094	0.00105915	0.000705284	0.000608048	0	0	0	
0.0953333	0.016423	0.00934301	0.000570417	0.000415436	0	0	0	
0.0955	-0.00152012	-0.00962925	0.000527526	0.000302041	0	0	0	
0.0956667	-0.023751	0.0115808	0.00063513	0.000204537	0	0	0	
0.0958333	0.0525171	-0.00479454	0.000703323	0.000199392	0	0	0	
0.096	-0.0462733	-0.00137465	0.000803747	0.000158137	0	0	0	
0.0961667	0.0210668	-0.00289292	0.000779618	0.000123686	0	0	0	
0.0963333	-0.0207978	-0.00117618	0.000654861	0.000132768	0	0	0	
0.0965	0.0341277	0.0144595	0.000508664	0.000176303	0	0	0	
0.0966667	-0.0263683	-0.016015	0.000600362	0.000236731	0	0	0	
0.0968333	-0.0109968	0.0113417	0.00105252	0.00026064	0	0	0	
0.097	0.0667141	-0.0121873	0.00149664	0.000285963	0	0	0	
0.0971667	-0.0954207	-0.00208391	0.00166345	0.000241707	0	0	0	
0.0973333	0.0589804	0.011233	0.00167095	0.000196684	0	0	0	
0.0975	0.00601808	-0.00198835	0.00174097	0.000158373	0	0	0	
0.0976667	-0.059948	8.16215E-05	0.00195987	0.000147444	0	0	0	
0.0978333	0.101008	-0.00486961	0.00196808	0.000119583	0	0	0	
0.098	-0.0890645	-0.00301501	0.00184546	0.000145871	0	0	0	
0.0981667	0.0283286	0.0104183	0.00164167	0.000189904	0	0	0	
0.0983333	0.0276179	-0.00252426	0.00156266	0.000203187	0	0	0	
0.0985	-0.0570912	-0.00402112	0.00133843	0.00019301	0	0	0	
0.0986667	0.0604444	-0.00553614	0.00121561	0.000133429	0	0	0	
0.0988333	-0.0464564	0.0173416	0.00104508	0.0001744	0	0	0	
0.099	0.0360043	-0.0224597	0.00105304	0.000239481	0	0	0	
0.0991667	-0.012156	0.0127021	0.0011627	0.000351822	0	0	0	
0.0993333	-0.0229845	0.0113872	0.00137388	0.000470797	0	0	0	
0.0995	0.0578238	-0.0193135	0.00148927	0.000510652	0	0	0	
0.0996667	-0.0599259	0.011513	0.00139362	0.00044424	0	0	0	
0.0998333	0.0279889	-0.00674827	0.00112189	0.000348331	0	0	0	
0.1	0.0195943	-0.0023926	0.00101472	0.000319823	0	0	0	
0.100167	-0.0666065	0.0213888	0.000967061	0.000445349	0	0	0	
0.100333	0.0806717	-0.0302549	0.00113538	0.000484881	0	0	0	
0.1005	-0.0434101	0.0136119	0.00134733	0.000575441	0	0	0	
0.100667	0.00086262	0.0166534	0.0017903	0.000589289	0	0	0	
0.100833	0.0403406	-0.0152493	0.00203986	0.000567141	0	0	0	
0.101	-0.0661069	0.00235043	0.00195131	0.000404183	0	0	0	
0.101167	0.0558193	-0.0113893	0.0015747	0.000287368	0	0	0	
0.101333	-0.0227198	0.00701382	0.00112374	0.000218678	0	0	0	
0.1015	-0.0149584	0.01696	0.000898503	0.00028839	0	0	0	
0.101667	0.0413639	-0.00936327	0.000661513	0.000267204	0	0	0	
0.101833	-0.0393786	-0.00973673	0.000714004	0.000366928	0	0	0	
0.102	0.0220991	-0.000580859	0.000855171	0.000279773	0	0	0	
0.102167	0.00420617	0.0132876	0.00121631	0.000246986	0	0	0	
0.102333	-0.0323785	0.00292527	0.00146228	0.000213004	0	0	0	
0.1025	0.0436989	-0.0166445	0.00148023	0.000239772	0	0	0	
0.102667	-0.0301526	-0.00261882	0.00122519	0.000322864	0	0	0	
0.102833	0.00681434	0.0198965	0.000806726	0.000276886	0	0	0	
0.103	0.00783185	0.00229573	0.000450307	0.000388197	0	0	0	
0.103167	-0.0125203	-0.0220062	0.000315317	0.000452509	0	0	0	
0.103333	0.0117644	0.0157058	0.0003356	0.00049151	0	0	0	
0.1035	0.00242387	-0.000972297	0.000414703	0.000373751	0	0	0	
0.103667	-0.0216653	-0.00406202	0.000430111	0.000205991	0	0	0	
0.103833	0.0280602	0.0071144	0.000456258	0.000141873	0	0	0	
0.104	-0.0173616	-0.0129405	0.000445389	0.00013581	0	0	0	
0.104167	0.00641153	0.00721771	0.000409029	0.000192577	0	0	0	
0.104333	0.0100793	0.00690466	0.000441695	0.000291401	0	0	0	
0.1045	-0.0151193	2.04039E-05	0.000630314	0.000260842	0	0	0	
0.104667	0.0272308	-0.0208824	0.000780626	0.000289173	0	0	0	
0.104833	-0.0233975	0.0155927	0.000733538	0.000280411	0	0	0	
0.105	0.0164794	0.00118426	0.000910357	0.000305525	0	0	0	
0.105167	0.0220345	-0.0113623	0.00126828	0.000342137	0	0	0	
0.105333	-0.0635361	0.0168641	0.00162921	0.000394328	0	0	0	
0.1055	0.101526	-0.0185095	0.00164269	0.000435959	0	0	0	
0.105667	-0.0723896	0.00437931	0.00158977	0.000436309	0	0	0	
0.105833	0.000346241	0.0141453	0.00155712	0.000422859	0	0	0	
0.106	0.0686112	-0.0237496	0.00158616	0.000414679	0	0	0	
0.106167	-0.0773191	0.0223996	0.00153245	0.000453045	0	0	0	
0.106333	0.0614094	-0.0142611	0.00145262	0.000457298	0	0	0	
0.1065	-0.0325504	0.00268464	0.00131338	0.000489787	0	0	0	
0.106667	0.0150056	0.00612445	0.00116626	0.000392333	0	0	0	
0.106833	-0.0188902	-0.00219243	0.0010335	0.000257783	0	0	0	
0.107	0.00476009	-0.00750325	0.000763113	0.000147691	0	0	0	
0.107167	0.00996426	0.0147808	0.000503437	0.000141436	0	0	0	
0.107333	-0.0139507	-0.00511347	0.000368293	0.000163974	0	0	0	
0.1075	0.0155754	-0.00509605	0.000364947	0.000175088	0	0	0	
0.107667	-0.0109514	0.00409674	0.000352086	0.00012732	0	0	0	
0.107833	-0.0147113	0.00383357	0.000327072	8.35455E-05	0	0	0	
0.108	0.0184946	-0.00711969	0.000375298	9.97602E-05	0	0	0	
0.108167	0.0100989	0.00912379	0.000385878	0.000140053	0	0	0	
0.108333	-0.0627233	-0.00541813	0.000540355	0.000231091	0	0	0	
0.1085	0.0567471	0.000125862	0.000755287	0.000357657	0	0	0	
0.108667	-0.0262286	0.00776795	0.000961504	0.000428138	0	0	0	
0.108833	-0.00616477	-0.00433721	0.000966489	0.000386491	0	0	0	
0.109	0.0246887	-0.00529662	0.000784937	0.000242794	0	0	0	
0.109167	-0.0270729	0.00499877	0.000620792	0.000155939	0	0	0	
0.109333	-0.0113115	0.00977479	0.000762389	0.000170444	0	0	0	
0.1095	0.0359324	-0.0298883	0.00125741	0.000273219	0	0	0	
0.109667	-0.0417993	0.0346285	0.00175919	0.000443534	0	0	0	
0.109833	0.0406081	-0.00761261	0.00161226	0.000518308	0	0	0	
0.11	-0.0370803	-0.0170997	0.00116754	0.000466034	0	0	0	
0.110167	0.0258853	0.0135111	0.000756667	0.000359841	0	0	0	
0.110333	-0.0186811	-0.00272309	0.000630603	0.000299574	0	0	0	
0.1105	0.00465673	-0.00340335	0.000456169	0.000298609	0	0	0	
0.110667	0.0130432	0.00667819	0.00027943	0.000231644	0	0	0	
0.110833	0.00182952	0.00459077	0.000232212	0.000160152	0	0	0	
0.111	-0.0163097	-0.0188625	0.000251191	0.000184729	0	0	0	
0.111167	0.00837445	0.0106787	0.000320748	0.000247758	0	0	0	
0.111333	0.00198942	0.0134518	0.000386706	0.000278021	0	0	0	
0.1115	-0.0130438	-0.0299581	0.000610637	0.000344928	0	0	0	
0.111667	0.0159168	0.0315187	0.000972895	0.000471636	0	0	0	
0.111833	0.00996898	-0.0201568	0.00123963	0.000652942	0	0	0	
0.112	-0.032095	0.00532986	0.00118729	0.000591679	0	0	0	
0.112167	0.0289338	0.00399616	0.000978739	0.00041142	0	0	0	
0.112333	-0.0162948	-0.00632286	0.000766886	0.000250909	0	0	0	
0.1125	-0.00333334	0.0034214	0.000584714	0.00016181	0	0	0	
0.112667	0.0386458	-0.00542955	0.000471187	0.000183461	0	0	0	
0.112833	-0.0478448	0.0113628	0.000532947	0.000240371	0	0	0	
0.113	0.0280575	-0.0097221	0.000710491	0.000366258	0	0	0	
0.113167	0.00410514	0.000984167	0.000928981	0.000342417	0	0	0	
0.113333	-0.0440084	-0.00224525	0.000935832	0.000228218	0	0	0	
0.1135	0.055285	0.00636772	0.000969929	0.000157092	0	0	0	
0.113667	-0.0242713	-0.00505675	0.000889716	0.000199933	0	0	0	
0.113833	-0.0115448	0.00460919	0.000844177	0.000242131	0	0	0	
0.114	0.0246278	-0.00454991	0.000708734	0.000208682	0	0	0	
0.114167	-0.0157567	-0.00160485	0.000526495	0.00018314	0	0	0	
0.114333	-0.0217853	0.00483588	0.000482347	0.000152909	0	0	0	
0.1145	0.0527968	-0.0110806	0.000706456	0.000170309	0	0	0	
0.114667	-0.0592306	0.0196135	0.0010283	0.000210268	0	0	0	
0.114833	0.0449904	-0.0185396	0.00114808	0.000311922	0	0	0	
0.115	-0.0270638	0.00635778	0.000974167	0.000334085	0	0	0	
0.115167	0.0106229	0.0049099	0.00067583	0.000306927	0	0	0	
0.115333	-7.12923E-05	-0.0143222	0.000401669	0.000243552	0	0	0	
0.1155	0.00582437	0.0190111	0.000213647	0.000265011	0	0	0	
0.115667	-0.0106437	-0.0197095	0.00015232	0.000303935	0	0	0	
0.115833	0.00843681	0.0108089	0.00025545	0.000324045	0	0	0	
0.116	-0.00378901	0.00536748	0.000365864	0.000326794	0	0	0	
0.116167	0.00312164	-0.0177732	0.000407122	0.000315042	0	0	0	
0.116333	-0.00882388	0.0102968	0.000351557	0.000306604	0	0	0	
0.1165	0.0271693	0.00610031	0.000319987	0.000305992	0	0	0	
0.116667	-0.0275724	-0.00765101	0.000389384	0.000304584	0	0	0	
0.116833	0.0118289	-0.00206513	0.000433933	0.000309728	0	0	0	
0.117	0.00205955	0.00152781	0.000349412	0.00027352	0	0	0	
0.117167	-0.00677293	0.00452904	0.000282077	0.000179374	0	0	0	
0.117333	0.0176058	-0.004513	0.000382318	0.000156431	0	0	0	
0.1175	-0.0591699	0.000927366	0.000613362	0.000194324	0	0	0	
0.117667	0.0790846	-0.000582137	0.000923329	0.000258105	0	0	0	
0.117833	-0.0609633	0.00918729	0.00116339	0.000284679	0	0	0	
0.118	0.0299359	-0.00427486	0.00147166	0.000286215	0	0	0	
0.118167	0.012681	-0.00637291	0.00173534	0.000298964	0	0	0	
0.118333	-0.0708996	0.00473102	0.00188319	0.000264138	0	0	0	
0.1185	0.0841842	0.00472538	0.00182199	0.000175357	0	0	0	
0.118667	-0.0612668	-0.00961287	0.00159727	0.00011793	0	0	0	
0.118833	0.0183658	0.0128091	0.00163866	0.000138178	0	0	0	
0.119	0.0386391	-0.00954798	0.00180009	0.000212255	0	0	0	
0.119167	-0.082035	0.00718551	0.00185554	0.000239425	0	0	0	
0.119333	0.0881276	-0.00688731	0.00170235	0.000204888	0	0	0	
0.1195	-0.0633385	0.00352853	0.00154374	0.00014552	0	0	0	
0.119667	0.0115187	-0.00134577	0.00168769	0.000105643	0	0	0	
0.119833	0.0627846	0.00409529	0.00188071	9.00419E-05	0	0	0	
0.12	-0.111823	-0.0086793	0.00192494	0.00011001	0	0	0	
0.120167	0.0918945	0.00235433	0.00190667	0.000132294	0	0	0	
0.120333	-0.0205067	0.000436191	0.00182311	0.000187954	0	0	0	
0.1205	-0.0439127	0.00753647	0.0018994	0.000280461	0	0	0	
0.120667	0.0824001	-0.0179354	0.00174521	0.000318032	0	0	0	
0.120833	-0.0959084	0.0144633	0.00168185	0.000346663	0	0	0	
0.121	0.0394634	-0.0131216	0.00156184	0.000357937	0	0	0	
0.121167	0.0284377	0.00550764	0.00176588	0.000414259	0	0	0	
0.121333	-0.0685999	0.0195303	0.00190457	0.000444972	0	0	0	
0.1215	0.0774932	-0.0326278	0.00191673	0.000449554	0	0	0	
0.121667	-0.060515	0.010764	0.00162137	0.000478173	0	0	0	
0.121833	0.0255908	0.0122102	0.00125901	0.000511634	0	0	0	
0.122	-0.0174427	-0.0198847	0.00109655	0.000461147	0	0	0	
0.122167	0.00675432	0.0173952	0.000969532	0.000431995	0	0	0	
0.122333	0.00918819	-0.00860164	0.000841758	0.000381713	0	0	0	
0.1225	-0.0135089	-0.00115705	0.000692996	0.000302419	0	0	0	
0.122667	0.0082217	0.000985369	0.000624653	0.000200167	0	0	0	
0.122833	-0.0129845	0.00154246	0.000525529	9.03432E-05	0	0	0	
0.123	0.0227591	-0.00211848	0.00043022	6.86385E-05	0	0	0	
0.123167	-0.0197957	0.000277037	0.000403476	4.4453E-05	0	0	0	
0.123333	0.00590974	0.00431042	0.000535473	5.79473E-05	0	0	0	
0.1235	0.0304621	-0.00564479	0.000760003	0.000106831	0	0	0	
0.123667	-0.0679629	0.000706937	0.00103011	0.000142537	0	0	0	
0.123833	0.068168	0.000196628	0.00129146	0.00012166	0	0	0	
0.124	-0.0428462	-0.000141056	0.00127209	6.51611E-05	0	0	0	
0.124167	0.0226832	-7.22882E-05	0.00103446	3.77178E-05	0	0	0	
0.124333	-0.00640363	0.00315971	0.000695764	6.62067E-05	0	0	0	
0.1245	-0.00723426	-0.00386018	0.000480906	8.84084E-05	0	0	0	
0.124667	0.0143178	0.00138665	0.000340078	8.68139E-05	0	0	0	
0.124833	-0.0201638	0.00186842	0.000286249	8.12443E-05	0	0	0	
0.125	0.018602	-0.00191239	0.000338352	7.22521E-05	0	0	0	
0.125167	-0.00994124	0.00204363	0.000460315	6.52147E-05	0	0	0	
0.125333	-0.00115365	-0.00401653	0.00059317	5.72028E-05	0	0	0	
0.1255	0.0141172	0.00160307	0.000698088	5.48399E-05	0	0	0	
0.125667	-0.0253916	3.56033E-05	0.000755378	7.64141E-05	0	0	0	
0.125833	0.0278383	-0.00648786	0.000728731	9.97709E-05	0	0	0	
0.126	-0.0205213	0.00978048	0.000598871	0.000134848	0	0	0	
0.126167	0.00659927	0.00419828	0.000487917	0.000193134	0	0	0	
0.126333	0.00770111	-0.0254151	0.000435989	0.000271111	0	0	0	
0.1265	-0.0158733	0.0163168	0.000374941	0.000350026	0	0	0	
0.126667	0.0217606	0.00246113	0.000373817	0.000390983	0	0	0	
0.126833	-0.0173617	-0.00262124	0.000411613	0.000301514	0	0	0	
0.127	0.00269295	0.00280435	0.000578869	0.00023986	0	0	0	
0.127167	0.0167207	-0.0282545	0.000725948	0.000274533	0	0	0	
0.127333	-0.0205013	0.0279178	0.000785243	0.000398356	0	0	0	
0.1275	0.010095	0.012602	0.000715914	0.000682355	0	0	0	
0.127667	-0.0008294	-0.0347426	0.000566747	0.000714286	0	0	0	
0.127833	0.00446345	0.0126385	0.000488441	0.000727249	0	0	0	
0.128	-0.00512952	0.00112988	0.000466417	0.00051381	0	0	0	
0.128167	-0.000879425	0.000288432	0.000395832	0.000359836	0	0	0	
0.128333	0.00599745	0.0106441	0.000267183	0.000310242	0	0	0	
0.1285	-0.00166022	-0.0190713	0.000165314	0.000296062	0	0	0	
0.128667	0.00510507	0.00537453	0.000124215	0.000330354	0	0	0	
0.128833	-0.0191883	0.00950235	0.000161275	0.000343627	0	0	0	
0.129	0.0262282	-0.0126192	0.000264117	0.00030396	0	0	0	
0.129167	-0.0173122	0.0102757	0.000367126	0.000284792	0	0	0	
0.129333	0.001884	-0.000190977	0.000431014	0.000259162	0	0	0	
0.1295	0.00955591	-0.00972032	0.000477174	0.000266315	0	0	0	
0.129667	-0.0126936	-0.000895892	0.000498513	0.000244215	0	0	0	
0.129833	-0.000386365	0.0156788	0.000392026	0.00017054	0	0	0	
0.13	0.023783	-0.010658	0.000446596	0.000287048	0	0	0	
0.130167	-0.0388214	0.00875725	0.000615089	0.000444032	0	0	0	
0.130333	0.0401594	-0.0184743	0.000777329	0.000524299	0	0	0	
0.1305	-0.0333666	0.00997128	0.00084602	0.00040969	0	0	0	
0.130667	0.0103401	0.00951934	0.000887508	0.000312774	0	0	0	
0.130833	0.00830592	0.000702405	0.000897206	0.000235276	0	0	0	
0.131	-0.013025	-0.032553	0.000641721	0.000256813	0	0	0	
0.131167	0.0119396	0.0380698	0.000525743	0.00040075	0	0	0	
0.131333	0.0118262	-0.0180267	0.000550114	0.000560608	0	0	0	
0.1315	-0.0352215	0.00815361	0.000639184	0.000575944	0	0	0	
0.131667	0.0180093	-0.0148355	0.000567748	0.000418598	0	0	0	
0.131833	0.0223605	0.0282889	0.000486737	0.00034899	0	0	0	
0.132	-0.0500337	-0.0370364	0.00056627	0.000453747	0	0	0	
0.132167	0.0319236	0.0164519	0.000728956	0.000560672	0	0	0	
0.132333	0.00796789	0.00382255	0.000878279	0.000537121	0	0	0	
0.1325	-0.025051	-0.00142679	0.000934217	0.000417529	0	0	0	
0.132667	0.0324149	-0.00542616	0.000798997	0.000291325	0	0	0	
0.132833	-0.0237603	0.00347656	0.000667365	0.000227393	0	0	0	
0.133	0.00102206	0.00192692	0.000626086	0.000193451	0	0	0	
0.133167	0.00450963	-0.00815925	0.000770242	0.000270735	0	0	0	
0.133333	-0.0177881	0.00291117	0.000917826	0.000313238	0	0	0	
0.1335	0.0399861	-0.00246917	0.000950053	0.000307178	0	0	0	
0.133667	-0.0415529	0.0101233	0.000898077	0.00025738	0	0	0	
0.133833	0.0346994	-0.00641781	0.000794595	0.000215945	0	0	0	
0.134	-0.0211213	-0.0015128	0.000704436	0.000211302	0	0	0	
0.134167	0.00371406	0.00130599	0.000546856	0.000142697	0	0	0	
0.134333	0.00887941	0.00101288	0.000395297	0.000104765	0	0	0	
0.1345	-0.0167639	0.004797	0.000304843	6.45081E-05	0	0	0	
0.134667	0.00987435	-0.00814892	0.000368962	6.7876E-05	0	0	0	
0.134833	0.00854399	0.00282269	0.000543696	0.000142359	0	0	0	
0.135	-0.0192118	0.00754122	0.000658368	0.000199639	0	0	0	
0.135167	0.0201639	-0.00500821	0.000618435	0.000212105	0	0	0	
0.135333	-0.0156794	0.000851659	0.000493401	0.000154265	0	0	0	
0.1355	0.00828595	0.00148427	0.000376459	9.28151E-05	0	0	0	
0.135667	-0.00523345	-0.00262157	0.000284093	6.34741E-05	0	0	0	
0.135833	0.0064125	0.00886507	0.000193583	7.47805E-05	0	0	0	
0.136	-0.0071485	-0.0125329	0.000171367	0.00013011	0	0	0	
0.136167	-0.00307588	0.0137157	0.000161323	0.000213656	0	0	0	
0.136333	0.0133359	-0.00940508	0.000202342	0.000277028	0	0	0	
0.1365	-0.01446	0.0037538	0.000301457	0.00023215	0	0	0	
0.136667	0.00587318	0.00745993	0.000479262	0.000239002	0	0	0	
0.136833	0.0151962	-0.00825869	0.000705959	0.000209015	0	0	0	
0.137	-0.0450253	-0.00207882	0.000852081	0.000248276	0	0	0	
0.137167	0.043546	0.00258832	0.000942506	0.000219854	0	0	0	
0.137333	-0.0222421	0.000254644	0.000817646	0.000165899	0	0	0	
0.1375	0.00057117	0.00943703	0.000769027	0.000133388	0	0	0	
0.137667	0.0231478	-0.0129815	0.000648492	0.000140111	0	0	0	
0.137833	-0.0347982	0.00492419	0.000653768	0.000174243	0	0	0	
0.138	0.0232126	0.00363888	0.000583696	0.000215043	0	0	0	
0.138167	-0.0107399	0.00168519	0.000605169	0.000140503	0	0	0	
0.138333	-0.00751171	-0.011798	0.000675875	0.00015636	0	0	0	
0.1385	0.0227167	0.00694198	0.000683378	0.000149327	0	0	0	
0.138667	-0.00984847	0.00600452	0.000660171	0.000177114	0	0	0	
0.138833	-0.00276107	-0.00388245	0.000604092	0.000186279	0	0	0	
0.139	-0.0288172	0.0110209	0.000694547	0.000267084	0	0	0	
0.139167	0.0637822	-0.0183759	0.000894047	0.000291605	0	0	0	
0.139333	-0.0475674	-0.0176202	0.00112936	0.000627043	0	0	0	
0.1395	0.0039399	0.0385926	0.00111957	0.000716879	0	0	0	
0.139667	0.00035405	0.0108592	0.00104014	0.00109869	0	0	0	
0.139833	0.0307028	-0.0456313	0.000934503	0.00119773	0	0	0	
0.14	-0.0229636	0.0225282	0.000827115	0.00110371	0	0	0	
0.140167	-0.0393984	-0.016584	0.000651475	0.000847437	0	0	0	
0.140333	0.0538707	0.0285797	0.000690483	0.000518282	0	0	0	
0.1405	0.0223201	0.00843879	0.00138521	0.000628919	0	0	0	
0.140667	-0.0704757	-0.0476905	0.00234694	0.000586142	0	0	0	
0.140833	0.115306	0.00637547	0.00279116	0.000785147	0	0	0	
0.141	-0.0927222	0.0358749	0.00256428	0.000799286	0	0	0	
0.141167	0.0325363	-0.0114864	0.00186319	0.000845798	0	0	0	
0.141333	0.0215015	-0.0132627	0.00164044	0.000555077	0	0	0	
0.1415	-0.0772506	-0.000930578	0.00132869	0.000346508	0	0	0	
0.141667	0.127969	-0.00921873	0.00174468	0.00025207	0	0	0	
0.141833	-0.0416055	0.0154369	0.00234827	0.000222062	0	0	0	
0.142	-0.0639994	0.029411	0.00325595	0.000532449	0	0	0	
0.142167	0.107798	-0.0569942	0.00322804	0.000762293	0	0	0	
0.142333	-0.0873734	0.00669449	0.00259729	0.000976376	0	0	0	
0.1425	0.0389896	0.0404238	0.00184644	0.000973171	0	0	0	
0.142667	-0.0274475	-0.0281043	0.00137267	0.000855773	0	0	0	
0.142833	0.029006	-0.00578084	0.00104926	0.000680351	0	0	0	
0.143	-0.0113088	0.0143905	0.000700201	0.00040235	0	0	0	
0.143167	-0.00878852	0.00519091	0.000507038	0.000334627	0	0	0	
0.143333	0.0195072	-0.0162765	0.000383237	0.000305814	0	0	0	
0.1435	-0.0180519	0.0091639	0.000357131	0.000296079	0	0	0	
0.143667	-0.00822027	0.00187103	0.000496803	0.000187511	0	0	0	
0.143833	0.0263132	-0.0178185	0.000819145	0.000190831	0	0	0	
0.144	-0.0325615	0.0253556	0.00110151	0.000259823	0	0	0	
0.144167	0.0336205	-0.014425	0.00108787	0.000359277	0	0	0	
0.144333	-0.029161	0.000439509	0.000848322	0.000327907	0	0	0	
0.1445	0.0179369	0.00855235	0.000603115	0.000242894	0	0	0	
0.144667	-0.0062461	-0.00267635	0.000458694	0.000138688	0	0	0	
0.144833	0.012356	-0.0126222	0.000424449	0.000191815	0	0	0	
0.145	-0.0247173	0.0093108	0.000463903	0.000180631	0	0	0	
0.145167	0.00850137	0.0136929	0.000496187	0.000297351	0	0	0	
0.145333	0.0166767	-0.0176495	0.000404007	0.000293172	0	0	0	
0.1455	-0.0194247	-0.00203807	0.000348562	0.00042594	0	0	0	
0.145667	0.00911576	0.0182787	0.000428782	0.000438372	0	0	0	
0.145833	-0.00539712	-0.00137365	0.000565001	0.000405862	0	0	0	
0.146	0.00756253	-0.0110222	0.000599586	0.000313856	0	0	0	
0.146167	-0.00163482	0.00369688	0.000645398	0.000204473	0	0	0	
0.146333	-0.0174534	-0.000386347	0.000734861	0.000171832	0	0	0	
0.1465	0.0260568	0.0116736	0.000704159	0.000105065	0	0	0	
0.146667	-0.00964226	-0.00521787	0.000561309	0.000132367	0	0	0	
0.146833	-0.0065038	-0.0139943	0.00030415	0.000228235	0	0	0	
0.147	0.00220817	0.0180122	0.00026536	0.00029009	0	0	0	
0.147167	0.00292109	-0.00368013	0.000274047	0.000358103	0	0	0	
0.147333	-0.00161959	-0.0092571	0.000349007	0.000328811	0	0	0	
0.1475	0.00138466	0.0085633	0.000350772	0.00028737	0	0	0	
0.147667	-0.00626416	-0.00193702	0.000351572	0.000239598	0	0	0	
0.147833	0.00650051	-0.0140409	0.000382446	0.000288069	0	0	0	
0.148	-0.00269412	0.0200678	0.000329381	0.000338589	0	0	0	
0.148167	-0.00528528	0.0030781	0.000237831	0.000367244	0	0	0	
0.148333	0.013738	-0.0216735	0.000148325	0.000326356	0	0	0	
0.1485	-0.00656916	0.00576344	0.000284564	0.000341648	0	0	0	
0.148667	-0.00918064	0.00767904	0.000513562	0.000315661	0	0	0	
0.148833	0.0142976	0.00211552	0.000670585	0.000269625	0	0	0	
0.149	-0.012062	-0.0051264	0.000580867	0.000161505	0	0	0	
0.149167	0.0127864	-0.00515266	0.000379824	0.000159114	0	0	0	
0.149333	-0.0122603	0.00637985	0.000268431	0.00013463	0	0	0	
0.1495	0.0133214	0.00948897	0.000269237	0.000242062	0	0	0	
0.149667	-0.00623513	-0.00945916	0.000327021	0.000207552	0	0	0	
0.149833	0.0053014	-0.00831639	0.000368185	0.000279858	0	0	0	
0.15	-0.0133083	0.0116266	0.000377506	0.000233121	0	0	0	
0.150167	0.0175275	0.00298385	0.000339749	0.000230767	0	0	0	
0.150333	-0.00717216	-0.00616115	0.000296376	0.000164978	0	0	0	
0.1505	-0.00743428	-0.00304299	0.000213429	0.000141893	0	0	0	
0.150667	0.015707	0.00581923	0.000297923	0.000102788	0	0	0	
0.150833	0.00169248	0.00212413	0.000510584	0.00013256	0	0	0	
0.151	-0.0246738	-0.0115182	0.000771628	0.000135523	0	0	0	
0.151167	0.021849	0.0145206	0.000814047	0.000203542	0	0	0	
0.151333	-0.0031585	-0.0129954	0.00063226	0.000219056	0	0	0	
0.1515	0.00149349	-0.00173092	0.000442914	0.00031092	0	0	0	
0.151667	-0.00600085	0.0199812	0.000385368	0.000398013	0	0	0	
0.151833	0.00473361	-0.020495	0.000452304	0.000432526	0	0	0	
0.152	-0.00617108	0.0063975	0.000555129	0.000415375	0	0	0	
0.152167	0.0113778	-0.00246179	0.000602172	0.000330119	0	0	0	
0.152333	-0.0117361	-0.00102387	0.000547378	0.000267771	0	0	0	
0.1525	0.00425139	0.00870135	0.000388704	0.000183987	0	0	0	
0.152667	0.0123664	-0.0117383	0.000211862	0.000157185	0	0	0	
0.152833	-0.0179711	0.0032627	0.00021528	0.000182458	0	0	0	
0.153	0.00709078	0.00271103	0.000370338	0.000206464	0	0	0	
0.153167	0.0075366	0.000379608	0.00054924	0.000148196	0	0	0	
0.153333	-0.0108023	-0.00622194	0.000587946	0.000135572	0	0	0	
0.1535	0.00759795	0.00485005	0.000539919	0.000109517	0	0	0	
0.153667	-0.001162	0.00349148	0.000454441	0.000153897	0	0	0	
0.153833	-0.00158358	-0.00683734	0.000370304	0.000151949	0	0	0	
0.154	-0.0034926	0.00205173	0.000327274	0.00014073	0	0	0	
0.154167	0.00918405	-0.00947696	0.00035469	0.000118417	0	0	0	
0.154333	-0.0110473	0.019084	0.00036006	0.000151481	0	0	0	
0.1545	-0.0242976	-0.00502463	0.000409576	0.000320497	0	0	0	
0.154667	0.0808354	-0.00426837	0.000900389	0.00042115	0	0	0	
0.154833	-0.0369306	-0.0184913	0.00181094	0.000724883	0	0	0	
0.155	-0.0793795	0.0666759	0.00261294	0.00119985	0	0	0	
0.155167	0.10564	-0.0657124	0.00254404	0.00141698	0	0	0	
0.155333	-0.0412116	-0.00234524	0.00215728	0.00166692	0	0	0	
0.1555	-0.075014	0.0522391	0.00196264	0.0016366	0	0	0	
0.155667	0.170687	-0.0421922	0.00218389	0.00157248	0	0	0	
0.155833	-0.129361	0.0523525	0.00252851	0.00127289	0	0	0	
0.156	-0.0150375	-0.0510733	0.00261776	0.00110851	0	0	0	
0.156167	0.107085	-0.0192654	0.00280932	0.00130303	0	0	0	
0.156333	-0.131868	0.0865673	0.00261362	0.00135343	0	0	0	
0.1565	0.074845	-0.057548	0.00246229	0.00133456	0	0	0	
0.156667	0.0462449	-0.0113916	0.00243048	0.00141024	0	0	0	
0.156833	-0.136091	0.0293186	0.00231772	0.00124106	0	0	0	
0.157	0.107164	0.00365209	0.00240704	0.000961592	0	0	0	
0.157167	-0.0150953	-0.0276373	0.00265546	0.000644739	0	0	0	
0.157333	-0.0801155	0.0296427	0.00309907	0.000656233	0	0	0	
0.1575	0.112382	-0.0195671	0.00297815	0.000595328	0	0	0	
0.157667	-0.0646605	-0.00191816	0.00230787	0.000608906	0	0	0	
0.157833	0.00174753	0.0255822	0.00160752	0.000633898	0	0	0	
0.158	0.0223294	-0.0201489	0.00123043	0.000633565	0	0	0	
0.158167	-0.0241651	-0.00251157	0.000841158	0.00056652	0	0	0	
0.158333	0.027199	0.00399183	0.000597719	0.000310793	0	0	0	
0.1585	-0.0313441	0.0169004	0.000492855	0.000315532	0	0	0	
0.158667	0.0297364	-0.0176555	0.000579884	0.000230891	0	0	0	
0.158833	-0.0154337	-0.00184126	0.000708497	0.000382024	0	0	0	
0.159	-0.00302165	0.013608	0.000873036	0.00036058	0	0	0	
0.159167	0.0142613	-0.011919	0.000998388	0.000339056	0	0	0	
0.159333	-0.0225514	0.0127853	0.00096823	0.000262319	0	0	0	
0.1595	0.0253338	-0.0108111	0.000758948	0.000229918	0	0	0	
0.159667	-0.00892064	-0.0004007	0.000509801	0.000247352	0	0	0	
0.159833	-0.0117329	0.0100001	0.000337497	0.000259819	0	0	0	
0.16	0.02169	-0.00148141	0.000298256	0.00024512	0	0	0	
0.160167	-0.0117726	-0.0175164	0.000318761	0.000285436	0	0	0	
0.160333	-0.000779673	0.0135931	0.00033463	0.000283315	0	0	0	
0.1605	-0.0479305	0.0383002	0.000462346	0.000512609	0	0	0	
0.160667	0.203588	-0.102435	0.0009972	0.000693728	0	0	0	
0.160833	-0.36347	0.171622	0.00332573	0.00300043	0	0	0	
0.161	0.131772	-0.07007	0.00443336	0.00326008	0	0	0	
0.161167	-0.0112685	-0.00121347	0.00442058	0.00350778	0	0	0	
0.161333	-0.0242206	0.034394	0.00238634	0.00138545	0	0	0	
0.1615	0.028175	-0.0299016	0.00120554	0.00103569	0	0	0	
0.161667	0.00356675	-0.0227713	0.000876744	0.000724006	0	0	0	
0.161833	-0.0734092	0.18009	0.00172855	0.00159891	0	0	0	
0.162	-0.0706656	-0.0597796	0.0031281	0.0026605	0	0	0	
0.162167	0.00358026	0.0199205	0.00325651	0.00273388	0	0	0	
0.162333	-0.0215374	0.0228442	0.00210934	0.00180927	0	0	0	
0.1625	0.0431479	-0.0190301	0.000782613	0.00072526	0	0	0	
0.162667	-0.00653936	-0.0163969	0.000816568	0.000631571	0	0	0	
0.162833	-0.0492499	0.0537617	0.00129549	0.000697865	0	0	0	
0.163	0.101304	-0.0529058	0.00152674	0.000864734	0	0	0	
0.163167	-0.100435	0.0218759	0.00168914	0.000920077	0	0	0	
0.163333	0.0408264	-0.00646406	0.00163979	0.000932947	0	0	0	
0.1635	0.0361945	-0.0103716	0.00168777	0.000783037	0	0	0	
0.163667	-0.0913955	0.0150817	0.001589	0.000621492	0	0	0	
0.163833	0.110648	0.0306984	0.00167691	0.000738089	0	0	0	
0.164	-0.122138	0.0621196	0.00204917	0.00132735	0	0	0	
0.164167	0.0899665	-0.0486771	0.00220814	0.00204594	0	0	0	
0.164333	-0.0118813	0.0703909	0.0018134	0.00230023	0	0	0	
0.1645	0.00172127	-0.0245753	0.00103792	0.00178036	0	0	0	
0.164667	0.0216268	0.0242904	0.000443744	0.00107442	0	0	0	
0.164833	-0.027863	-0.030498	0.000393224	0.000562324	0	0	0	
0.165	-0.0042938	0.101529	0.000613251	0.000701508	0	0	0	
0.165167	-0.0479383	-0.060107	0.00104513	0.00142097	0	0	0	
0.165333	0.0643159	0.0354683	0.00159996	0.00185449	0	0	0	
0.1655	-0.0263769	0.0213665	0.00153825	0.00196978	0	0	0	
0.165667	0.00531361	0.00677482	0.00125499	0.00130088	0	0	0	
0.165833	0.0321374	-0.00487008	0.000807365	0.000751455	0	0	0	
0.166	-0.0619658	-3.49804E-05	0.000849846	0.000315216	0	0	0	
0.166167	0.0387452	-0.00180399	0.000906443	0.000292738	0	0	0	
0.166333	0.0140454	0.0132463	0.000964625	0.000336612	0	0	0	
0.1665	-0.0519305	0.0432293	0.00103737	0.000645587	0	0	0	
0.166667	0.0614348	-0.0285268	0.00108263	0.000700759	0	0	0	
0.166833	-0.0602507	0.0212731	0.00110442	0.000806221	0	0	0	
0.167	0.0394618	0.0047084	0.00117134	0.000622985	0	0	0	
0.167167	-0.00400989	-0.0281346	0.00147536	0.000543149	0	0	0	
0.167333	-0.0305831	0.0184966	0.00189291	0.000504157	0	0	0	
0.1675	0.0611276	0.0556073	0.00201341	0.000529741	0	0	0	
0.167667	-0.0789654	-0.00463599	0.00176307	0.000670565	0	0	0	
0.167833	0.0496244	0.0191225	0.00141912	0.000717216	0	0	0	
0.168	-0.00146996	-0.0275742	0.00125128	0.000655917	0	0	0	
0.168167	-0.0427031	0.0045937	0.00118529	0.000530634	0	0	0	
0.168333	0.0756891	0.0231158	0.00111541	0.000581675	0	0	0	
0.1685	-0.0743323	-0.0130139	0.0011858	0.000561596	0	0	0	
0.168667	0.0434723	-0.00932897	0.00129324	0.000446755	0	0	0	
0.168833	-0.00203697	0.00298152	0.00149303	0.000252157	0	0	0	
0.169	-0.0358133	0.00991452	0.00161184	0.000171771	0	0	0	
0.169167	0.0458479	-0.0066743	0.00159728	0.000190502	0	0	0	
0.169333	-0.0355576	-0.00161334	0.00131084	0.000163379	0	0	0	
0.1695	0.0210039	-0.00145975	0.000880791	0.000148846	0	0	0	
0.169667	-0.00455757	0.0062401	0.000526025	0.000134311	0	0	0	
0.169833	-0.0113194	-0.00195544	0.000299678	0.000134243	0	0	0	
0.17	0.0186043	-0.00282831	0.000244028	0.000126592	0	0	0	
0.170167	-0.0131592	0.00228755	0.000313636	9.48862E-05	0	0	0	
0.170333	0.00352728	-0.000616346	0.000450646	9.40811E-05	0	0	0	
0.1705	-0.000978211	0.000804111	0.000523279	5.81838E-05	0	0	0	
0.170667	-0.0014996	-0.00527329	0.000514514	6.71697E-05	0	0	0	
0.170833	0.00318019	0.00670485	0.000471939	7.32868E-05	0	0	0	
0.171	-0.00616329	0.00140347	0.000429488	0.000120013	0	0	0	
0.171167	0.00593739	-0.00581083	0.000371116	0.000141214	0	0	0	
0.171333	0.00680813	0.00364103	0.000268821	0.000130003	0	0	0	
0.1715	-0.01924	0.00248927	0.00022716	0.000116949	0	0	0	
0.171667	0.0179641	-0.0090193	0.000257513	0.000111377	0	0	0	
0.171833	-0.0178518	0.00783822	0.000382571	0.000133542	0	0	0	
0.172	0.0104051	0.00140161	0.000517303	0.000131513	0	0	0	
0.172167	0.0285961	-0.00903009	0.000739583	0.000123541	0	0	0	
0.172333	-0.0617461	0.0125185	0.00109819	0.000181852	0	0	0	
0.1725	0.0646802	-0.0198138	0.00143634	0.000314313	0	0	0	
0.172667	-0.0540847	0.0291809	0.00146032	0.000459845	0	0	0	
0.172833	0.0402123	-0.0253426	0.0012329	0.000511884	0	0	0	
0.173	-0.0066009	-0.00307918	0.000993005	0.000626691	0	0	0	
0.173167	-0.0242358	0.0189723	0.000927741	0.000711724	0	0	0	
0.173333	0.0602687	-0.00603524	0.000842069	0.000612632	0	0	0	
0.1735	-0.0779683	0.00119308	0.000987298	0.000411155	0	0	0	
0.173667	0.0547431	-0.0195416	0.0012219	0.000323067	0	0	0	
0.173833	-0.00265546	-0.00443067	0.00155935	0.000630849	0	0	0	
0.174	-0.0310977	0.0544226	0.00160678	0.000910097	0	0	0	
0.174167	0.043344	-0.04813	0.00140936	0.00105408	0	0	0	
0.174333	-0.0403119	-0.00303434	0.00110031	0.00100017	0	0	0	
0.1745	0.0257709	0.0228205	0.000824337	0.000788087	0	0	0	
0.174667	0.0366677	-0.0095084	0.000760892	0.000570089	0	0	0	
0.174833	-0.129775	0.00139736	0.00106494	0.000347056	0	0	0	
0.175	0.125348	-0.00833952	0.0016516	0.000414081	0	0	0	
0.175167	-0.0485822	0.00409666	0.001974	0.000634678	0	0	0	
0.175333	-0.0125085	0.00977165	0.00206161	0.000703424	0	0	0	
0.1755	0.0384392	-0.00438922	0.00173089	0.000560406	0	0	0	
0.175667	-0.0285122	-0.00590769	0.00136221	0.000359048	0	0	0	
0.175833	-0.0123373	0.00998314	0.00102979	0.000231297	0	0	0	
0.176	0.021835	-0.0243653	0.00111666	0.000270107	0	0	0	
0.176167	-0.0362249	0.0291363	0.00140976	0.000355922	0	0	0	
0.176333	0.0596433	-0.0161348	0.00138578	0.000478698	0	0	0	
0.1765	-0.0549739	0.00332994	0.00118178	0.000406567	0	0	0	
0.176667	0.0300311	0.00491691	0.000985576	0.000297874	0	0	0	
0.176833	-0.016495	-0.00397603	0.00094534	0.000214877	0	0	0	
0.177	0.0219111	-0.00344378	0.000768517	0.000207288	0	0	0	
0.177167	-0.0244558	0.00221543	0.000677581	0.000174464	0	0	0	
0.177333	0.0107449	0.00295331	0.000648989	0.000206134	0	0	0	
0.1775	0.00314619	-0.00383424	0.000606142	0.000218518	0	0	0	
0.177667	0.00108481	0.00276527	0.000491289	0.000190644	0	0	0	
0.177833	-0.00299424	-0.00388966	0.000383184	0.000109028	0	0	0	
0.178	0.00198045	0.0060065	0.000340242	8.74448E-05	0	0	0	
0.178167	-0.00487314	0.000529517	0.000367891	0.000122498	0	0	0	
0.178333	-0.00113098	-0.00838995	0.000399319	0.000164771	0	0	0	
0.1785	0.00502031	-0.000261718	0.000378389	0.00016995	0	0	0	
0.178667	0.00213881	0.0109229	0.000299581	0.0001423	0	0	0	
0.178833	-0.0076013	-0.00202148	0.000228885	0.000129947	0	0	0	
0.179	0.00873211	-0.0101929	0.000221747	0.000151831	0	0	0	
0.179167	-0.0093933	0.00298421	0.000302483	0.000158319	0	0	0	
0.179333	0.00701635	0.00681703	0.000392402	0.000182653	0	0	0	
0.1795	-0.00747162	-0.00925428	0.000412685	0.000185942	0	0	0	
0.179667	0.00601851	0.00540803	0.000344627	0.000184704	0	0	0	
0.179833	-0.00512586	-0.00124989	0.000269582	0.000129598	0	0	0	
0.18	0.00699543	-0.00114924	0.000244851	8.17965E-05	0	0	0	
0.180167	-0.0091315	0.00210191	0.000269075	5.03953E-05	0	0	0	
0.180333	0.00721083	-0.00216358	0.00030816	5.99169E-05	0	0	0	
0.1805	-0.00192071	-0.000968328	0.000331313	9.4834E-05	0	0	0	
0.180667	-0.00244303	0.00130755	0.000330368	0.000120434	0	0	0	
0.180833	0.00194436	-0.000962699	0.000312268	0.000102768	0	0	0	
0.181	0.000323487	-0.000618381	0.000287945	6.13533E-05	0	0	0	
0.181167	0.000775143	0.00182701	0.000274462	3.10346E-05	0	0	0	
0.181333	-0.00210541	0.000259918	0.000287845	3.3685E-05	0	0	0	
0.1815	-0.000995045	-0.000596295	0.000319096	4.09652E-05	0	0	0	
0.181667	0.00314845	-0.00297005	0.000347487	4.46882E-05	0	0	0	
0.181833	-0.000390425	0.00320571	0.00035927	5.84725E-05	0	0	0	
0.182	-9.71634E-05	-0.00102962	0.00035035	8.15257E-05	0	0	0	
0.182167	-0.00460396	-0.000945839	0.00031958	8.47459E-05	0	0	0	
0.182333	0.00688566	0.000503361	0.000291526	6.50204E-05	0	0	0	
0.1825	-0.00908808	-0.000592515	0.000303863	5.94553E-05	0	0	0	
0.182667	0.00799183	0.000172864	0.000346648	7.16868E-05	0	0	0	
0.182833	-0.00658877	0.00220755	0.000379334	7.52383E-05	0	0	0	
0.183	0.0083154	-0.00195325	0.000377354	6.20548E-05	0	0	0	
0.183167	-0.00772914	-0.00154139	0.000348397	5.36855E-05	0	0	0	
0.183333	0.00555772	-0.000177232	0.00030599	4.40012E-05	0	0	0	
0.1835	-0.00850396	0.00420396	0.000287817	5.68066E-05	0	0	0	
0.183667	0.00914507	-0.00518333	0.000305915	6.12728E-05	0	0	0	
0.183833	-0.00547401	0.000644004	0.000339381	0.000103219	0	0	0	
0.184	0.00205993	0.00451265	0.00033618	0.000141277	0	0	0	
0.184167	-0.000398271	-0.00495545	0.000290503	0.000150143	0	0	0	
0.184333	0.00345264	0.00010616	0.000243384	0.000130084	0	0	0	
0.1845	-0.0104554	0.00317355	0.000234857	9.28321E-05	0	0	0	
0.184667	0.00879061	-0.00350626	0.000242069	8.60645E-05	0	0	0	
0.184833	-0.0108764	0.00384357	0.000239961	0.00011383	0	0	0	
0.185	0.0154016	-0.00232426	0.000256204	0.000126245	0	0	0	
0.185167	-0.0100564	0.000676588	0.00032198	0.000117097	0	0	0	
0.185333	0.00123985	0.0013637	0.000434996	6.95441E-05	0	0	0	
0.1855	0.000280855	0.000706096	0.000488348	5.05097E-05	0	0	0	
0.185667	-0.00841043	-0.00518166	0.000448712	4.42576E-05	0	0	0	
0.185833	0.00783854	0.0053302	0.000363002	7.56961E-05	0	0	0	
0.186	0.00804974	0.00485415	0.000252836	0.000103301	0	0	0	
0.186167	-0.0244222	-0.00942012	0.00025159	0.000155298	0	0	0	
0.186333	0.016138	-0.000246096	0.000293904	0.00014512	0	0	0	
0.1865	-0.000625827	0.00830914	0.000435387	0.00021469	0	0	0	
0.186667	-0.00331205	0.00199771	0.000661201	0.000268496	0	0	0	
0.186833	0.00858751	-0.00174716	0.000831569	0.000285941	0	0	0	
0.187	-0.0212539	-0.00607987	0.000806597	0.000210488	0	0	0	
0.187167	0.0196473	0.00426714	0.00060147	0.000184812	0	0	0	
0.187333	-0.0143982	0.0040772	0.000397884	0.000203517	0	0	0	
0.1875	-0.0024024	-0.0131333	0.000308993	0.000235217	0	0	0	
0.187667	0.0325671	0.0152726	0.000313755	0.000278513	0	0	0	
0.187833	-0.0339874	-0.00347157	0.000459238	0.000289196	0	0	0	
0.188	0.0111639	-0.00929924	0.000590303	0.000247713	0	0	0	
0.188167	-0.00747834	0.0104122	0.000702745	0.000174183	0	0	0	
0.188333	0.0076608	0.0012364	0.000699533	0.000161977	0	0	0	
0.1885	0.00256461	-0.0114921	0.000718354	0.000202523	0	0	0	
0.188667	-0.0117866	0.0106824	0.000703841	0.00020321	0	0	0	
0.188833	0.00487868	-0.0116462	0.000698267	0.000228298	0	0	0	
0.189	-0.0027866	0.0126403	0.000666859	0.000245517	0	0	0	
0.189167	0.00883209	-0.00504804	0.000565639	0.000237354	0	0	0	
0.189333	-0.00619483	-0.00526314	0.00040481	0.000182005	0	0	0	
0.1895	-0.0063661	0.00562303	0.000243738	0.000129918	0	0	0	
0.189667	0.0175606	0.00364905	0.000188879	0.000103674	0	0	0	
0.189833	-0.0308	-0.00609203	0.000266882	0.000115341	0	0	0	
0.19	0.0326074	-0.00287524	0.000460336	0.0001119	0	0	0	
0.190167	-0.0207757	0.0120586	0.000588242	0.000149181	0	0	0	
0.190333	0.0112549	-0.00870219	0.000654236	0.000191395	0	0	0	
0.1905	-0.0026326	-0.00190176	0.000661428	0.000217062	0	0	0	
0.190667	-0.00286189	0.00515999	0.000615622	0.000185648	0	0	0	
0.190833	-0.0123554	-0.00129173	0.000451693	0.000137569	0	0	0	
0.191	0.0376447	-0.00479283	0.000401279	0.000164315	0	0	0	
0.191167	-0.0374133	0.012634	0.00048293	0.000276611	0	0	0	
0.191333	0.0280836	-0.00708686	0.000626526	0.000338859	0	0	0	
0.1915	-0.025515	-0.00160668	0.000732525	0.000277388	0	0	0	
0.191667	0.0126323	0.00330133	0.000791925	0.000157577	0	0	0	
0.191833	0.00482403	-0.000804746	0.000828799	9.91786E-05	0	0	0	
0.192	-0.0112444	-0.00852401	0.000635352	0.000117189	0	0	0	
0.192167	0.0109991	0.0195939	0.000450431	0.000197619	0	0	0	
0.192333	0.013234	-0.0138018	0.000368438	0.000295677	0	0	0	
0.1925	-0.0387079	0.00425493	0.000437379	0.000306619	0	0	0	
0.192667	0.0342228	-0.00122798	0.000558873	0.000251074	0	0	0	
0.192833	-0.0242326	0.0011062	0.000596185	0.000185916	0	0	0	
0.193	0.0289594	-0.00142962	0.000649187	0.000152087	0	0	0	
0.193167	-0.0358455	0.0125938	0.000647907	0.000147887	0	0	0	
0.193333	0.0383148	-0.0127314	0.000718895	0.000151785	0	0	0	
0.1935	-0.0320703	-0.00466698	0.000810179	0.000296841	0	0	0	
0.193667	0.0124571	0.012834	0.000902124	0.000378424	0	0	0	
0.193833	0.00556331	-0.00380357	0.000991561	0.000350925	0	0	0	
0.194	-0.0180515	0.00593903	0.000977147	0.000215752	0	0	0	
0.194167	0.0238034	-0.00824396	0.000781503	0.000134168	0	0	0	
0.194333	-0.0108953	-0.00745808	0.000600657	0.000178928	0	0	0	
0.1945	-0.0175584	0.0233992	0.000594307	0.000261558	0	0	0	
0.194667	0.0386095	-0.0111091	0.000732841	0.000333577	0	0	0	
0.194833	-0.0480474	-0.0025438	0.000814342	0.000331735	0	0	0	
0.195	0.0413675	0.00170008	0.000813315	0.000229563	0	0	0	
0.195167	-0.0202113	-0.00666236	0.000823938	0.000130373	0	0	0	
0.195333	-0.00891413	-0.00771329	0.000894553	0.000181636	0	0	0	
0.1955	0.0316712	0.10865	0.000890286	0.000641799	0	0	0	
0.195667	-0.0223997	-0.230061	0.000884754	0.00205737	0	0	0	
0.195833	0.0178956	0.0550144	0.000753214	0.0029354	0	0	0	
0.196	0.0091825	-0.027118	0.000624681	0.00268733	0	0	0	
0.196167	-0.00829831	-0.00426384	0.000406786	0.00142733	0	0	0	
0.196333	-0.00135047	-0.00427491	0.00035958	0.000518837	0	0	0	
0.1965	0.0179601	-0.04303	0.000318263	0.000396128	0	0	0	
0.196667	-0.00223375	0.074176	0.000342467	0.000587874	0	0	0	
0.196833	-0.00447721	-0.0457226	0.00021018	0.00092081	0	0	0	
0.197	0.0133068	0.01303	0.000176627	0.001082	0	0	0	
0.197167	-0.0117281	0.00855707	0.000208755	0.000930511	0	0	0	
0.197333	0.00990792	-0.010811	0.00030217	0.000572964	0	0	0	
0.1975	-0.0125422	0.00267756	0.000336004	0.000342019	0	0	0	
0.197667	0.0166117	0.00505061	0.000344917	0.000144163	0	0	0	
0.197833	-0.0208259	0.0144964	0.000376085	0.0001274	0	0	0	
0.198	0.021189	-0.00738948	0.000444375	0.000163089	0	0	0	
0.198167	-0.0113767	0.0045673	0.000518734	0.000194244	0	0	0	
0.198333	-0.000930133	0.00108948	0.000611675	0.000138706	0	0	0	
0.1985	0.00805497	0.00148998	0.000686996	0.000103031	0	0	0	
0.198667	-0.0200444	-0.0103286	0.00071171	8.03688E-05	0	0	0	
0.198833	0.0228874	0.0221421	0.000663544	0.000184229	0	0	0	
0.199	-0.0100239	-0.00209366	0.000523536	0.000270019	0	0	0	
0.199167	0.000957125	0.00638402	0.000331255	0.000285061	0	0	0	
0.199333	0.00105939	-0.00401705	0.000171819	0.000217042	0	0	0	
0.1995	-0.00736861	-0.00143639	0.000131053	0.00014661	0	0	0	
0.199667	0.0078541	0.00192957	0.000181509	0.000142236	0	0	0	
0.199833	-0.00705178	-0.00311861	0.000210152	0.000153899	0	0	0	
0.2	0.00656712	0.0114872	0.000179134	0.000190479	0	0	0	
0.200167	-0.00635603	-0.00417466	0.000137032	0.000192932	0	0	0	
0.200333	0.0107314	0.00230187	0.000155036	0.000161924	0	0	0	
0.2005	-0.0118967	-0.00258457	0.000217449	0.000100232	0	0	0	
0.200667	0.00818686	0.00830784	0.000287504	0.000115734	0	0	0	
0.200833	-0.00200585	-0.00872035	0.000312222	0.000121851	0	0	0	
0.201	-0.0074287	-0.00583494	0.000298608	0.000280304	0	0	0	
0.201167	0.00688617	0.0200209	0.000314176	0.000414347	0	0	0	
0.201333	-0.0074334	-0.00994729	0.000350798	0.000457073	0	0	0	
0.2015	0.0145006	-0.00469702	0.000312905	0.000400003	0	0	0	
0.201667	0.0141256	0.00413659	0.000425131	0.000265249	0	0	0	
0.201833	-0.0963381	0.0181059	0.000873301	0.000253744	0	0	0	
0.202	0.149042	-0.0420856	0.00159804	0.000296653	0	0	0	
0.202167	-0.164684	0.0191879	0.00234234	0.000564662	0	0	0	
0.202333	0.110114	0.022368	0.00296907	0.000839327	0	0	0	
0.2025	-0.0111801	-0.0148664	0.00316524	0.000896943	0	0	0	
0.202667	-0.0556491	-0.00213201	0.0028773	0.000598311	0	0	0	
0.202833	0.0802871	9.41333E-05	0.00207292	0.000264685	0	0	0	
0.203	-0.069464	0.00180082	0.0016946	0.000100499	0	0	0	
0.203167	-0.0295577	0.000370221	0.00194447	0.000356282	0	0	0	
0.203333	0.107743	-0.0234158	0.002563	0.000551467	0	0	0	
0.2035	-0.0960197	0.0232811	0.00279457	0.000691541	0	0	0	
0.203667	0.0613765	-0.000971335	0.00225744	0.000636494	0	0	0	
0.203833	-0.0390022	-0.00197971	0.00162923	0.000445997	0	0	0	
0.204	0.0210089	-0.00349281	0.00111689	0.000258864	0	0	0	
0.204167	-0.00908433	-0.0260183	0.001021	0.000236465	0	0	0	
0.204333	-0.00589303	0.0387873	0.000956692	0.000500425	0	0	0	
0.2045	0.021357	-0.00989212	0.000891211	0.000592273	0	0	0	
0.204667	-0.0181254	-0.0176818	0.000744534	0.000589923	0	0	0	
0.204833	0.00214836	0.011172	0.00047581	0.000413853	0	0	0	
0.205	0.0104761	-0.00212005	0.000259102	0.000344582	0	0	0	
0.205167	-0.016684	0.0044252	0.00018	0.000175144	0	0	0	
0.205333	0.0178249	-0.0054601	0.000235721	0.00018966	0	0	0	
0.2055	-0.0128207	-0.00297592	0.00035091	0.000390406	0	0	0	
0.205667	0.00731479	0.0165508	0.000452658	0.000506841	0	0	0	
0.205833	-0.00574188	-0.0123469	0.000515312	0.000471575	0	0	0	
0.206	0.0019721	-0.000344455	0.000497802	0.000318841	0	0	0	
0.206167	0.00283842	0.00626846	0.000413427	0.000193692	0	0	0	
0.206333	-0.00440606	-0.00548704	0.00031912	0.000161053	0	0	0	
0.2065	-0.00286787	0.00695445	0.000255862	0.000179722	0	0	0	
0.206667	0.0126806	0.00350497	0.00023518	0.000248184	0	0	0	
0.206833	-0.0163417	-0.00567153	0.000263281	0.00024405	0	0	0	
0.207	0.0110057	-0.000242958	0.000288024	0.000159393	0	0	0	
0.207167	-0.00851903	0.00410637	0.000298124	8.1822E-05	0	0	0	
0.207333	0.00995847	-0.00716146	0.00027291	7.32052E-05	0	0	0	
0.2075	-0.0169147	0.00765272	0.000301563	9.44366E-05	0	0	0	
0.207667	0.018567	-0.0038342	0.000381108	0.000140702	0	0	0	
0.207833	-0.00903326	-0.000592672	0.000437278	0.000183771	0	0	0	
0.208	0.000887818	0.000348688	0.000419883	0.00019604	0	0	0	
0.208167	-0.000217042	-0.00116504	0.000330732	0.000141123	0	0	0	
0.208333	0.00388225	-0.00120253	0.000239431	7.7453E-05	0	0	0	
0.2085	-0.00961118	0.00608128	0.000185989	5.02966E-05	0	0	0	
0.208667	0.0136629	-0.0223901	0.000185578	0.000144229	0	0	0	
0.208833	-0.0175612	0.00980357	0.000227286	0.000238069	0	0	0	
0.209	0.0168854	-0.00692973	0.000291088	0.000268853	0	0	0	
0.209167	-0.0111931	0.00331736	0.000333341	0.000203084	0	0	0	
0.209333	0.00664048	-0.00452491	0.000352304	0.000113365	0	0	0	
0.2095	0.000619094	0.00616162	0.000320494	8.85315E-05	0	0	0	
0.209667	-0.00303029	-0.0043433	0.000271988	0.000102511	0	0	0	
0.209833	-0.00378839	-0.0103386	0.000221721	0.000108245	0	0	0	
0.21	0.00653345	0.0140481	0.000180814	0.000178913	0	0	0	
0.210167	-0.0101392	-0.00258255	0.000161455	0.000195763	0	0	0	
0.210333	0.0146831	-0.0026754	0.000173397	0.000226146	0	0	0	
0.2105	-0.015204	-0.000497518	0.000245514	0.000141136	0	0	0	
0.210667	0.0144401	0.0031865	0.000336206	9.25932E-05	0	0	0	
0.210833	-0.012652	0.00360754	0.000413594	6.38701E-05	0	0	0	
0.211	0.00625373	-0.0074607	0.000439822	7.56349E-05	0	0	0	
0.211167	-0.00261522	0.00753071	0.000466287	0.000156615	0	0	0	
0.211333	-0.00140844	0.00294343	0.000492203	0.000216081	0	0	0	
0.2115	0.00899066	-0.00528997	0.000479682	0.000224284	0	0	0	
0.211667	-0.00941961	0.00554871	0.000398619	0.000162065	0	0	0	
0.211833	0.00298943	-0.0178885	0.000272325	0.000154026	0	0	0	
0.212	0.00259238	0.00780394	0.000156427	0.000242534	0	0	0	
0.212167	-0.01696	0.000255348	0.000132196	0.00022651	0	0	0	
0.212333	0.027079	-0.0049517	0.000219239	0.000202526	0	0	0	
0.2125	-0.0199188	0.00374356	0.000377155	0.000103828	0	0	0	
0.212667	0.00959926	0.00193507	0.000563757	0.00014581	0	0	0	
0.212833	0.000224391	-0.0204284	0.000673732	0.000252189	0	0	0	
0.213	-0.00840674	0.0202338	0.000712905	0.000469658	0	0	0	
0.213167	0.0147979	-0.0190921	0.000649441	0.000560537	0	0	0	
0.213333	-0.00974863	0.00633243	0.000536225	0.000467863	0	0	0	
0.2135	-0.00095101	-0.00148434	0.000371153	0.000247984	0	0	0	
0.213667	0.00766563	-0.00505348	0.000218691	0.00012642	0	0	0	
0.213833	-0.00974061	0.0115692	0.00014713	0.00011027	0	0	0	
0.214	0.0126453	-0.0185138	0.000203323	0.000231746	0	0	0	
0.214167	-0.0128071	0.00347435	0.000293224	0.000318237	0	0	0	
0.214333	0.00760967	-0.000606084	0.000361435	0.000360745	0	0	0	
0.2145	0.00118848	-0.00246289	0.000383647	0.000246251	0	0	0	
0.214667	-0.00536046	-0.000316575	0.000358368	0.000141146	0	0	0	
0.214833	0.00193403	0.00627964	0.000288028	7.53064E-05	0	0	0	
0.215	0.00284194	-0.0147974	0.000190472	0.000104932	0	0	0	
0.215167	-0.00777857	0.0255545	0.000137494	0.000249572	0	0	0	
0.215333	0.00806483	0.012935	0.000153539	0.000390261	0	0	0	
0.2155	-0.00738513	-0.0187966	0.000222301	0.000452036	0	0	0	
0.215667	0.00901784	0.0107113	0.00028279	0.000403761	0	0	0	
0.215833	-0.00825378	0.00208122	0.000311798	0.00029605	0	0	0	
0.216	0.00462485	-0.00177422	0.000314244	0.000191143	0	0	0	
0.216167	-0.00255272	-0.00324596	0.000309657	9.88158E-05	0	0	0	
0.216333	0.00205324	0.0105558	0.00030843	0.000121528	0	0	0	
0.2165	-0.00197618	-0.00088959	0.000297476	0.00018532	0	0	0	
0.216667	0.00484619	0.000975461	0.000255546	0.000189076	0	0	0	
0.216833	-0.00722808	-0.00404619	0.000198555	0.000150236	0	0	0	
0.217	0.010054	0.00223624	0.0001666	9.62992E-05	0	0	0	
0.217167	-0.0151731	0.00141816	0.00018239	8.50357E-05	0	0	0	
0.217333	0.0180897	-0.0145736	0.000253206	0.000126673	0	0	0	
0.2175	-0.0144326	0.00595767	0.000335397	0.00023908	0	0	0	
0.217667	0.0110477	0.00452082	0.000398012	0.000287291	0	0	0	
0.217833	-0.00588529	-0.00344035	0.000419891	0.000226048	0	0	0	
0.218	-0.0048972	0.00341563	0.000451663	0.000112987	0	0	0	
0.218167	0.0191118	-0.001355	0.000475013	6.90366E-05	0	0	0	
0.218333	-0.0285635	-0.0116961	0.000488224	0.000106916	0	0	0	
0.2185	0.026339	0.0132747	0.000489383	0.000237305	0	0	0	
0.218667	-0.0116614	0.00516968	0.000464233	0.000294267	0	0	0	
0.218833	-0.00753706	-0.00169759	0.000498085	0.000263862	0	0	0	
0.219	0.026446	-0.00788474	0.000498573	0.000130257	0	0	0	
0.219167	-0.0339802	-0.00940186	0.000529824	0.000190703	0	0	0	
0.219333	0.0247285	0.0483503	0.000580162	0.000321913	0	0	0	
0.2195	-0.0109658	-0.0719064	0.00064937	0.000687464	0	0	0	
0.219667	-0.0013807	0.0143852	0.000707504	0.00089894	0	0	0	
0.219833	0.0100121	0.00583627	0.000668382	0.000869326	0	0	0	
0.22	-0.0105792	-0.00222974	0.000575396	0.000518842	0	0	0	
0.220167	0.0027788	0.00944621	0.000413004	0.000222512	0	0	0	
0.220333	0.000316584	-0.00391802	0.000232008	0.000176171	0	0	0	
0.2205	0.00119494	-0.0207956	0.000118555	0.000510853	0	0	0	
0.220667	-0.000649403	0.0174051	7.7032E-05	0.000852174	0	0	0	
0.220833	-0.00967919	-0.0202426	8.59862E-05	0.000861215	0	0	0	
0.221	0.0185103	-0.000960673	0.000139649	0.000643072	0	0	0	
0.221167	-0.0175417	0.00639097	0.000237121	0.000306624	0	0	0	
0.221333	0.00751026	-0.00528022	0.000327288	0.000240477	0	0	0	
0.2215	-0.00146938	0.0108454	0.0003386	0.000154699	0	0	0	
0.221667	0.00573091	0.0134394	0.000286141	0.000193112	0	0	0	
0.221833	-0.0117013	-0.030949	0.000244971	0.000255227	0	0	0	
0.222	0.0130089	0.00839248	0.000226497	0.00029179	0	0	0	
0.222167	-0.0162189	0.00485301	0.00025914	0.000284512	0	0	0	
0.222333	0.0145709	-0.00398906	0.000330303	0.000211247	0	0	0	
0.2225	-0.00241007	-0.00136018	0.000395681	0.000131357	0	0	0	
0.222667	-0.00528371	-0.00173742	0.000421138	7.10984E-05	0	0	0	
0.222833	-0.00488515	0.000257649	0.00036539	0.000129012	0	0	0	
0.223	0.0140375	-0.00678684	0.000316601	0.000192348	0	0	0	
0.223167	-0.0147849	0.014029	0.000299695	0.000232179	0	0	0	
0.223333	0.0135897	-0.00618668	0.00033306	0.000212442	0	0	0	
0.2235	-0.00944767	0.00782471	0.000367921	0.000172073	0	0	0	
0.223667	0.00375944	-0.0187335	0.00038031	0.000182178	0	0	0	
0.223833	-0.00343683	0.0244977	0.000357285	0.000272183	0	0	0	
0.224	0.00182309	-0.00220139	0.000270027	0.000364937	0	0	0	
0.224167	-0.000754499	0.00237183	0.000175358	0.000376685	0	0	0	
0.224333	0.00889048	0.00161026	9.76613E-05	0.000237672	0	0	0	
0.2245	-0.0119857	-0.00417015	0.000127084	0.000116507	0	0	0	
0.224667	0.010163	-0.00274499	0.000169348	0.00010204	0	0	0	
0.224833	-0.0128455	0.0309235	0.000210698	0.000250614	0	0	0	
0.225	0.0158738	-0.022944	0.000230301	0.000534811	0	0	0	
0.225167	-0.0143881	0.0226606	0.000268684	0.000626956	0	0	0	
0.225333	0.015219	-0.0131484	0.000331984	0.000563014	0	0	0	
0.2255	-0.0113242	0.00393559	0.000350454	0.000310367	0	0	0	
0.225667	0.00718867	-0.00236096	0.000366944	0.0001762	0	0	0	
0.225833	0.00369353	0.00605153	0.000419149	0.000129358	0	0	0	
0.226	0.00411224	0.00309088	0.000456931	0.000154471	0	0	0	
0.226167	-0.00473342	-0.00075046	0.000406369	0.000165789	0	0	0	
0.226333	0.00798827	-0.010718	0.000354354	0.000160987	0	0	0	
0.2265	-0.0168681	0.00662537	0.000285237	0.000193282	0	0	0	
0.226667	0.025495	-0.00502936	0.000348897	0.000207543	0	0	0	
0.226833	-0.0220433	-0.000103151	0.000386474	0.000171592	0	0	0	
0.227	0.0188594	0.00664814	0.000525914	7.82427E-05	0	0	0	
0.227167	0.00895529	-0.00222046	0.000561828	0.000101601	0	0	0	
0.227333	-0.0160488	-0.0032407	0.000474867	0.000128256	0	0	0	
0.2275	-0.00684985	0.00245173	0.000381026	0.000139825	0	0	0	
0.227667	0.0261315	-0.00645108	0.000387712	8.78332E-05	0	0	0	
0.227833	-0.0263013	0.00522031	0.000480538	9.09103E-05	0	0	0	
0.228	0.0220633	0.00228235	0.000497654	9.71729E-05	0	0	0	
0.228167	-0.0127648	0.00568846	0.000478443	0.000106877	0	0	0	
0.228333	-0.00733478	-0.0123321	0.000402147	0.000149141	0	0	0	
0.2285	0.0180186	0.0187761	0.000339941	0.000229612	0	0	0	
0.228667	-0.0099992	-0.00984651	0.000313347	0.000314674	0	0	0	
0.228833	-0.0037872	0.00651317	0.000351494	0.000287337	0	0	0	
0.229	0.0121217	-0.00782208	0.000357518	0.000213307	0	0	0	
0.229167	-0.0136929	0.0125932	0.000295467	0.000155635	0	0	0	
0.229333	0.0116708	-0.0148603	0.000280227	0.000245104	0	0	0	
0.2295	-0.00844779	-0.0112367	0.000381101	0.000288132	0	0	0	
0.229667	-0.00211912	0.0149374	0.000479235	0.00029783	0	0	0	
0.229833	0.00729971	-0.00413102	0.000436409	0.000227808	0	0	0	
0.23	0.00175949	-0.00470398	0.000268165	0.000203878	0	0	0	
0.230167	-0.0145348	0.00568261	0.000153808	0.000177101	0	0	0	
0.230333	0.026954	-0.0052437	0.00019843	0.000141374	0	0	0	
0.2305	-0.0288575	0.013715	0.000369887	0.000138999	0	0	0	
0.230667	0.0135101	-0.00354182	0.000502998	0.000163324	0	0	0	
0.230833	-0.00365004	-0.00456471	0.000578895	0.000185711	0	0	0	
0.231	0.00701789	0.00344779	0.000522473	0.000168124	0	0	0	
0.231167	-0.0311307	0.00128238	0.000497375	0.000115894	0	0	0	
0.231333	0.0464625	-0.00349727	0.000607462	0.000141465	0	0	0	
0.2315	-0.026266	0.0292761	0.000808641	0.000382056	0	0	0	
0.231667	-0.00178722	0.00213006	0.000955199	0.000579872	0	0	0	
0.231833	0.00808031	-0.0123315	0.000919759	0.000562757	0	0	0	
0.232	-0.00907545	0.00400124	0.00073081	0.000341021	0	0	0	
0.232167	-0.0097205	0.00158224	0.000464405	0.000146121	0	0	0	
0.232333	0.0342953	-0.00340114	0.000442066	0.000105226	0	0	0	
0.2325	-0.0444606	0.00826921	0.000660552	0.000101806	0	0	0	
0.232667	0.0501989	-0.0106159	0.000887685	0.000200049	0	0	0	
0.232833	-0.0471181	-0.000537549	0.000955133	0.000286312	0	0	0	
0.233	0.0286264	-0.000624611	0.000926646	0.000277777	0	0	0	
0.233167	-0.0118547	0.00148003	0.00093042	0.00017818	0	0	0	
0.233333	0.00360109	0.0078979	0.000814025	0.000144715	0	0	0	
0.2335	0.00155064	-0.0297013	0.000609495	0.000232271	0	0	0	
0.233667	0.000984952	0.0551292	0.00040421	0.000498283	0	0	0	
0.233833	-0.00873779	-0.0281106	0.000243267	0.000714893	0	0	0	
0.234	0.0262727	0.000350143	0.000217928	0.0007794	0	0	0	
0.234167	-0.0337551	0.00437806	0.000345974	0.000566153	0	0	0	
0.234333	0.0214495	-0.000618302	0.000529641	0.000294072	0	0	0	
0.2345	-0.00921239	0.00230195	0.000620757	0.000141801	0	0	0	
0.234667	0.0265871	0.0026574	0.000569107	0.000142725	0	0	0	
0.234833	-0.0496763	-0.00339315	0.000622823	0.000241604	0	0	0	
0.235	0.0458165	-0.0035251	0.000735757	0.000281597	0	0	0	
0.235167	-0.0322907	0.0049002	0.000818262	0.000272722	0	0	0	
0.235333	0.0277717	0.00168951	0.000754582	0.000159848	0	0	0	
0.2355	-0.0225259	0.000704311	0.00067478	0.000105983	0	0	0	
0.235667	0.00893983	-0.024536	0.000620805	0.00020269	0	0	0	
0.235833	0.0130968	0.0156971	0.000459548	0.000341801	0	0	0	
0.236	-0.0184671	-0.012483	0.000430281	0.000416164	0	0	0	
0.236167	-0.00510558	-0.00812598	0.000520324	0.000320108	0	0	0	
0.236333	0.0296263	0.00637573	0.00069257	0.000280584	0	0	0	
0.2365	-0.0357828	0.000636596	0.000708434	0.000245949	0	0	0	
0.236667	0.0271068	0.00218672	0.000635074	0.000198389	0	0	0	
0.236833	-0.0189042	-0.00877189	0.000548112	0.0001659	0	0	0	
0.237	0.0169368	-0.0334052	0.000496994	0.000230843	0	0	0	
0.237167	-0.00520116	0.00592704	0.000483552	0.000341589	0	0	0	
0.237333	-0.00922066	0.00246724	0.000488446	0.000319726	0	0	0	
0.2375	0.0067964	-0.00719354	0.000413193	0.000216804	0	0	0	
0.237667	-2.85221E-05	0.000201361	0.000266418	0.000142272	0	0	0	
0.237833	-0.0055616	0.0145699	0.000145512	0.000160958	0	0	0	
0.238	0.0179897	-0.029628	0.000122713	0.000332117	0	0	0	
0.238167	-0.0239974	0.00449308	0.000231866	0.000422692	0	0	0	
0.238333	0.0206472	-0.00787821	0.000350021	0.00037466	0	0	0	
0.2385	-0.0176545	0.00596576	0.000426948	0.000232441	0	0	0	
0.238667	0.0139546	-0.00451304	0.000422125	0.000123613	0	0	0	
0.238833	-0.00833648	0.00311924	0.000391382	0.000121883	0	0	0	
0.239	0.0053391	-0.00110901	0.000346754	0.000139102	0	0	0	
0.239167	-0.00448066	-0.00701944	0.000301336	0.000219476	0	0	0	
0.239333	0.00101628	0.0103404	0.000246518	0.000281866	0	0	0	
0.2395	-0.00259281	-0.00870827	0.00017191	0.000269376	0	0	0	
0.239667	0.00632951	0.00497494	0.000114659	0.000195098	0	0	0	
0.239833	-0.0078446	0.00227557	0.000109643	0.000144333	0	0	0	
0.24	0.00921731	-0.0223109	0.000147768	0.000178818	0	0	0	
0.240167	-0.0106427	0.0319627	0.000183101	0.000360735	0	0	0	
0.240333	0.00723529	-0.0404846	0.000192483	0.00055134	0	0	0	
0.2405	-0.00847816	0.0273203	0.000184807	0.000648498	0	0	0	
0.240667	0.0163631	-0.0112174	0.00022354	0.000622677	0	0	0	
0.240833	-0.0219436	-0.00168808	0.000296981	0.000520888	0	0	0	
0.241	0.0205262	0.00372398	0.000370331	0.00034468	0	0	0	
0.241167	-0.0113927	0.00547846	0.000393445	0.000246413	0	0	0	
0.241333	0.00326085	-0.0188291	0.000517304	0.000317818	0	0	0	
0.2415	0.00491585	0.0175386	0.000693451	0.000417747	0	0	0	
0.241667	-0.01973	-0.00573481	0.000777416	0.000418096	0	0	0	
0.241833	0.0271469	-0.00221895	0.000646065	0.000296909	0	0	0	
0.242	-0.00845171	-0.00320694	0.000541812	0.000187049	0	0	0	
0.242167	-0.0272861	-0.00179168	0.000558708	0.000114047	0	0	0	
0.242333	0.0496887	0.00767576	0.000694596	7.02601E-05	0	0	0	
0.2425	-0.0465116	-0.0112954	0.000781343	0.000243557	0	0	0	
0.242667	0.0344591	-0.0159992	0.000833683	0.000425168	0	0	0	
0.242833	-0.0172008	0.0180231	0.000844802	0.000524313	0	0	0	
0.243	0.00192868	-0.00148611	0.000764939	0.000417703	0	0	0	
0.243167	-0.00126845	-0.00545494	0.00059293	0.000264844	0	0	0	
0.243333	0.00727774	0.00801154	0.000368724	0.000194348	0	0	0	
0.2435	-0.0129144	-0.0158611	0.00021523	0.000215857	0	0	0	
0.243667	0.0195316	0.0133051	0.00022126	0.000212756	0	0	0	
0.243833	-0.0142387	-0.00823872	0.000301369	0.000248218	0	0	0	
0.244	0.00727358	-0.00240251	0.000311468	0.000223396	0	0	0	
0.244167	-0.0132946	-0.00314118	0.000260629	0.000220241	0	0	0	
0.244333	0.016012	0.0289266	0.000229553	0.000216631	0	0	0	
0.2445	-0.0176238	-0.0382214	0.000272887	0.000362203	0	0	0	
0.244667	0.0201735	-0.00139055	0.000345076	0.000438708	0	0	0	
0.244833	-0.0157819	0.00654591	0.000388606	0.000446152	0	0	0	
0.245	0.00678483	-0.00441206	0.000392903	0.000277901	0	0	0	
0.245167	-0.00551818	0.00468715	0.00032486	0.000182773	0	0	0	
0.245333	0.0174914	0.00339966	0.000273202	0.000149599	0	0	0	
0.2455	-0.0369757	-0.034495	0.000316885	0.00022672	0	0	0	
0.245667	0.0271235	0.155606	0.00058906	0.000979082	0	0	0	
0.245833	-0.0210448	-0.00875962	0.000869098	0.00174304	0	0	0	
0.246	-0.00447402	0.0210562	0.00101086	0.00180892	0	0	0	
0.246167	0.00181788	-0.0011079	0.000723562	0.0012061	0	0	0	
0.246333	0.0140173	-0.00314594	0.000442409	0.000389546	0	0	0	
0.2465	-0.0354889	0.0596112	0.000274082	0.000272066	0	0	0	
0.246667	0.0156995	-0.0443935	0.000360759	0.00049093	0	0	0	
0.246833	-0.00440868	0.0237596	0.000418274	0.000668261	0	0	0	
0.247	-0.00791768	-0.00384379	0.000407188	0.000772008	0	0	0	
0.247167	0.0173968	-0.019664	0.000329874	0.000599398	0	0	0	
0.247333	-0.00878069	0.0260022	0.000310975	0.00055177	0	0	0	
0.2475	-0.00445205	-0.00778779	0.000399187	0.000498784	0	0	0	
0.247667	0.00920574	-0.0149797	0.000550595	0.000395332	0	0	0	
0.247833	-0.0179959	0.0140193	0.000577996	0.00034232	0	0	0	
0.248	0.0276274	-0.00460868	0.0005373	0.000268287	0	0	0	
0.248167	-0.0304704	7.26413E-05	0.000514495	0.000203532	0	0	0	
0.248333	0.0313548	0.00716622	0.000549692	0.000188492	0	0	0	
0.2485	-0.0300782	-0.0122649	0.00057825	0.000199501	0	0	0	
0.248667	0.0256302	0.00325245	0.000560358	0.000222635	0	0	0	
0.248833	-0.0259852	0.0069054	0.000577296	0.000251861	0	0	0	
0.249	0.0133628	-0.00685657	0.000569903	0.000228072	0	0	0	
0.249167	-3.38051E-07	0.00462303	0.000479965	0.000200316	0	0	0	
0.249333	0.0134377	-0.0020701	0.000327818	0.000130847	0	0	0	
0.2495	-0.0253864	0.000207977	0.000302316	0.000115493	0	0	0	
0.249667	0.0277158	-0.000970213	0.000395463	9.18419E-05	0	0	0	
0.249833	-0.0352174	0.000399836	0.000525604	6.76788E-05	0	0	0	
0.25	0.0299114	0.00144216	0.000588992	5.38716E-05	0	0	0	
0.250167	-0.0149676	0.000527718	0.000595354	3.56853E-05	0	0	0	
0.250333	0.0109002	-0.00312564	0.000567123	3.86112E-05	0	0	0	
0.2505	-0.0131388	0.00162973	0.000443528	4.02234E-05	0	0	0	
0.250667	0.0228978	0.00320307	0.000383833	8.98702E-05	0	0	0	
0.250833	-0.0224221	-0.00767255	0.000414718	0.000143825	0	0	0	
0.251	0.0118248	0.0108847	0.000555386	0.00019028	0	0	0	
0.251167	-0.00631428	-0.00754413	0.000671839	0.000197831	0	0	0	
0.251333	-0.00877383	-0.00636294	0.000594228	0.000154002	0	0	0	
0.2515	0.00868647	0.0120085	0.000419809	0.000172616	0	0	0	
0.251667	0.0189203	-0.0115369	0.000286896	0.000180902	0	0	0	
0.251833	-0.0337834	0.0108838	0.000403513	0.000220803	0	0	0	
0.252	0.0395443	-0.00796793	0.000558884	0.000241571	0	0	0	
0.252167	-0.0462088	0.000186783	0.000723529	0.00024972	0	0	0	
0.252333	0.0270996	-0.00103542	0.000742441	0.000200039	0	0	0	
0.2525	-0.0162661	0.0017538	0.000705264	0.000173713	0	0	0	
0.252667	0.0218753	-0.00419298	0.000653401	0.000158585	0	0	0	
0.252833	-0.0130929	0.00402392	0.000610954	0.000178174	0	0	0	
0.253	-0.00223487	0.00135351	0.000618882	0.000184004	0	0	0	
0.253167	0.00743591	-0.00566265	0.000581593	0.000144451	0	0	0	
0.253333	-0.0111335	0.000600409	0.000439031	0.000154299	0	0	0	
0.2535	-0.0145371	0.00633528	0.000363978	0.000142161	0	0	0	
0.253667	0.226658	-0.0663903	0.000640815	0.00028206	0	0	0	
0.253833	-0.0717482	0.00987174	0.00161176	0.000627199	0	0	0	
0.254	0.0598974	-0.0290285	0.00184711	0.00070669	0	0	0	
0.254167	-0.0425795	0.0217116	0.00175632	0.000756085	0	0	0	
0.254333	0.011006	0.0256284	0.00102975	0.000644129	0	0	0	
0.2545	-0.00805533	-0.0577031	0.0010644	0.000731108	0	0	0	
0.254667	0.0612405	0.0435092	0.00112453	0.000902393	0	0	0	
0.254833	0.0776756	-0.0706376	0.00159466	0.00127467	0	0	0	
0.255	-0.0115109	0.00294167	0.00153112	0.00152279	0	0	0	
0.255167	-0.0140258	0.0527146	0.00137716	0.00167829	0	0	0	
0.255333	0.00404542	-0.071283	0.00104601	0.00145641	0	0	0	
0.2555	0.00597286	0.0404658	0.0012355	0.00138502	0	0	0	
0.255667	-0.00659043	0.0279515	0.00140468	0.00139552	0	0	0	
0.255833	0.00741296	-0.0733495	0.00130072	0.00139165	0	0	0	
0.256	0.00263295	0.0720678	0.00106439	0.00140271	0	0	0	
0.256167	-0.0157094	-0.0413381	0.00084928	0.00125765	0	0	0	
0.256333	0.0294213	-0.0135641	0.000726471	0.0013098	0	0	0	
0.2565	-0.0393144	0.054534	0.000729092	0.00132391	0	0	0	
0.256667	0.0443143	-0.0340013	0.000901086	0.00118336	0	0	0	
0.256833	-0.0469444	-0.0185805	0.00124165	0.000988653	0	0	0	
0.257	0.0327149	0.0386333	0.00153664	0.000856168	0	0	0	
0.257167	-0.00945401	-0.0308568	0.0016464	0.000769236	0	0	0	
0.257333	-0.000224426	0.00706931	0.00157516	0.000767206	0	0	0	
0.2575	0.0115519	0.0245539	0.00144033	0.000811967	0	0	0	
0.257667	-0.0226245	-0.0386943	0.00128696	0.000880366	0	0	0	
0.257833	0.0191331	0.0222244	0.00104725	0.000776186	0	0	0	
0.258	-0.00466314	0.00806379	0.000705969	0.000658326	0	0	0	
0.258167	-0.0111034	-0.0204939	0.000385426	0.000555417	0	0	0	
0.258333	0.0197903	0.0102592	0.000250104	0.000465704	0	0	0	
0.2585	-0.0202297	0.00557467	0.000310243	0.000380175	0	0	0	
0.258667	0.0176693	-0.0118003	0.000447625	0.000366742	0	0	0	
0.258833	-0.0169714	0.0105236	0.00051822	0.000353866	0	0	0	
0.259	0.00932759	-0.00431355	0.000512318	0.000252878	0	0	0	
0.259167	-0.0022034	0.00144414	0.000462545	0.000164256	0	0	0	
0.259333	0.00014138	0.00132392	0.000391143	0.000104641	0	0	0	
0.2595	0.00398525	0.00362164	0.000310058	0.000133212	0	0	0	
0.259667	-0.00722563	-0.0144772	0.000228629	0.000201556	0	0	0	
0.259833	0.0101146	0.0147146	0.000169626	0.00026752	0	0	0	
0.26	-0.0174165	0.00209879	0.00017933	0.000298428	0	0	0	
0.260167	0.0170356	-0.00919846	0.000257574	0.000216892	0	0	0	
0.260333	-0.00752589	-0.00756058	0.000349575	0.000272522	0	0	0	
0.2605	8.86806E-06	0.0147951	0.000402997	0.000275315	0	0	0	
0.260667	0.0104523	-0.00372472	0.000409326	0.000300239	0	0	0	
0.260833	-0.0243891	0.00529557	0.000421096	0.000207029	0	0	0	
0.261	0.035634	-0.0167299	0.00045083	0.000168748	0	0	0	
0.261167	-0.0261288	-0.00281406	0.000572426	0.000242144	0	0	0	
0.261333	0.00477984	0.0277084	0.00075874	0.000354261	0	0	0	
0.2615	0.00714232	-0.0165136	0.000933482	0.000431868	0	0	0	
0.261667	-0.0190809	-0.0116457	0.000941085	0.000476713	0	0	0	
0.261833	0.0319618	0.0127397	0.000795446	0.000393022	0	0	0	
0.262	-0.0278021	-0.00227331	0.000634478	0.000302276	0	0	0	
0.262167	0.0112212	0.00530546	0.000522603	0.000175439	0	0	0	
0.262333	0.00838177	-0.00566576	0.000509646	0.000128974	0	0	0	
0.2625	-0.0250584	-0.00919695	0.000496335	0.000165528	0	0	0	
0.262667	0.0298807	0.0055395	0.000542215	0.000158456	0	0	0	
0.262833	-0.0271577	0.017936	0.000528971	0.000285941	0	0	0	
0.263	0.0288434	-0.0235978	0.000541393	0.000331853	0	0	0	
0.263167	-0.0261757	-0.000555721	0.000591965	0.000434546	0	0	0	
0.263333	0.0117935	0.0148509	0.000627049	0.000434478	0	0	0	
0.2635	-0.000760651	-0.00764407	0.000569924	0.000356346	0	0	0	
0.263667	0.00216524	-0.000308771	0.000397841	0.000271422	0	0	0	
0.263833	-0.0102597	-0.00207385	0.000262425	0.000151464	0	0	0	
0.264	0.0191215	0.00106117	0.000249288	0.000146609	0	0	0	
0.264167	-0.0198108	0.0094097	0.000306966	0.000150492	0	0	0	
0.264333	0.0161516	-0.0123311	0.00035172	0.000188648	0	0	0	
0.2645	-0.0135796	-0.000746582	0.000356589	0.000211403	0	0	0	
0.264667	0.0151482	0.00781115	0.000335705	0.000191706	0	0	0	
0.264833	-0.0219111	-0.00438836	0.000356317	0.000158694	0	0	0	
0.265	0.0187988	-0.000859741	0.000392435	0.000105451	0	0	0	
0.265167	-0.0108287	0.00677411	0.00038197	9.05879E-05	0	0	0	
0.265333	0.0122655	-0.00545878	0.000362162	0.000102296	0	0	0	
0.2655	-0.0116852	0.00264786	0.000337863	0.000108612	0	0	0	
0.265667	0.00632212	-0.00382551	0.000322731	9.78889E-05	0	0	0	
0.265833	-0.00908931	0.00228226	0.000268068	7.25473E-05	0	0	0	
0.266	0.0162048	-0.00081386	0.000230388	5.96812E-05	0	0	0	
0.266167	-0.0204491	0.00142029	0.000257216	5.14623E-05	0	0	0	
0.266333	0.0233483	-0.000838095	0.000343926	4.75171E-05	0	0	0	
0.2665	-0.0190226	0.000473572	0.000410205	5.24004E-05	0	0	0	
0.266667	0.0116332	-0.00384455	0.000413915	6.00411E-05	0	0	0	
0.266833	-0.00859469	0.00332932	0.0003568	6.16533E-05	0	0	0	
0.267	0.0102734	0.00054198	0.000296994	5.85113E-05	0	0	0	
0.267167	-0.0110703	-0.0036897	0.000279954	6.14194E-05	0	0	0	
0.267333	0.00836477	0.00290324	0.00026811	6.00551E-05	0	0	0	
0.2675	-0.00610469	0.000173006	0.000233001	5.85436E-05	0	0	0	
0.267667	0.00817094	-0.00414382	0.000236533	6.50907E-05	0	0	0	
0.267833	-0.00388694	0.00428981	0.000277245	6.49998E-05	0	0	0	
0.268	-0.00153422	0.000657821	0.000307234	9.54901E-05	0	0	0	
0.268167	-0.000248822	-0.00333511	0.000225922	0.000111355	0	0	0	
0.268333	0.00611871	-0.000229734	0.000225493	9.80741E-05	0	0	0	
0.2685	-0.0204938	0.0028395	0.000286339	6.89114E-05	0	0	0	
0.268667	0.0310411	-0.00297809	0.000456486	4.51033E-05	0	0	0	
0.268833	-0.0320951	0.00779038	0.00052964	7.12346E-05	0	0	0	
0.269	0.0277581	-0.0117422	0.000565291	0.000114298	0	0	0	
0.269167	-0.0122837	0.0111304	0.00056794	0.000170325	0	0	0	
0.269333	-0.00459639	-0.00293271	0.00056688	0.000211673	0	0	0	
0.2695	0.00946737	-0.0036012	0.000517971	0.000201466	0	0	0	
0.269667	-0.00911626	0.00321783	0.000396501	0.00014678	0	0	0	
0.269833	-0.00249286	-0.00284349	0.000242281	9.74841E-05	0	0	0	
0.27	0.015633	0.00881029	0.00017584	9.23363E-05	0	0	0	
0.270167	-0.0151368	-0.0129428	0.000218425	0.000249688	0	0	0	
0.270333	0.0169323	0.00166195	0.000271903	0.000280188	0	0	0	
0.2705	-0.0239518	-0.00298031	0.000332347	0.000250116	0	0	0	
0.270667	0.0263281	-0.000238564	0.000384888	9.31383E-05	0	0	0	
0.270833	-0.0246415	0.00365135	0.000459602	4.94001E-05	0	0	0	
0.271	0.0162712	-0.00480788	0.000470896	6.67705E-05	0	0	0	
0.271167	-0.00585419	-0.00465048	0.000394009	0.000162059	0	0	0	
0.271333	0.00524971	-0.00825853	0.00029199	0.000311687	0	0	0	
0.2715	-0.00817218	-0.00273922	0.000207929	0.000326695	0	0	0	
0.271667	0.00953623	0.000193587	0.000176496	0.000230213	0	0	0	
0.271833	-0.0124642	-0.000785154	0.00018238	7.4376E-05	0	0	0	
0.272	0.0182781	-0.000253747	0.00021672	5.18057E-05	0	0	0	
0.272167	-0.0221457	0.0034729	0.000297756	6.90735E-05	0	0	0	
0.272333	0.0186635	-0.00147727	0.000393648	7.64387E-05	0	0	0	
0.2725	-0.0129912	-0.00169761	0.000464095	8.19179E-05	0	0	0	
0.272667	0.0123567	0.00236126	0.000489918	7.51612E-05	0	0	0	
0.272833	-0.00667759	-0.00263433	0.000456636	8.47273E-05	0	0	0	
0.273	0.00144658	0.00206342	0.000374504	8.18056E-05	0	0	0	
0.273167	-0.00712407	-0.0024052	0.000256535	6.40463E-05	0	0	0	
0.273333	0.0185345	0.000687306	0.000214166	7.82627E-05	0	0	0	
0.2735	-0.0261464	0.00661526	0.000274932	0.000109124	0	0	0	
0.273667	0.0285646	-0.0115847	0.000399155	0.00016145	0	0	0	
0.273833	-0.0210241	0.00564951	0.000480899	0.000172406	0	0	0	
0.274	0.0153181	0.00567231	0.000527495	0.00019925	0	0	0	
0.274167	-0.0104698	-0.0106602	0.000526724	0.000193493	0	0	0	
0.274333	0.000799734	0.000970942	0.000436484	0.000200345	0	0	0	
0.2745	-0.00287997	0.00597069	0.000269457	0.000173595	0	0	0	
0.274667	0.0166119	0.00253974	0.000163231	0.000144454	0	0	0	
0.274833	-0.0210501	0.000638446	0.000215002	0.000139141	0	0	0	
0.275	0.0118608	-0.0239912	0.000303489	0.000178185	0	0	0	
0.275167	-0.00942576	0.0255784	0.00031909	0.000315013	0	0	0	
0.275333	0.0368219	0.0453772	0.00034214	0.00077136	0	0	0	
0.2755	-0.0573428	0.108601	0.00040639	0.00173354	0	0	0	
0.275667	0.0401571	-0.03952	0.000676952	0.00233849	0	0	0	
0.275833	-0.0113839	0.0425955	0.000696131	0.00232094	0	0	0	
0.276	-0.00636247	-0.00158753	0.000618998	0.00154273	0	0	0	
0.276167	-0.00207906	-0.000257038	0.000305029	0.000828443	0	0	0	
0.276333	0.00771899	-0.00507528	0.000212164	0.000524087	0	0	0	
0.2765	-0.0185837	0.00593998	0.000194839	0.00052714	0	0	0	
0.276667	0.0109207	-0.0123709	0.000267507	0.000784884	0	0	0	
0.276833	-0.000348737	0.0303515	0.000316024	0.000814997	0	0	0	
0.277	-0.0044823	-0.0172468	0.00039562	0.000655273	0	0	0	
0.277167	0.0155367	0.0031832	0.000441532	0.000445318	0	0	0	
0.277333	-0.0273133	-0.0123339	0.000466124	0.000283786	0	0	0	
0.2775	0.023381	0.0219174	0.000469807	0.000330795	0	0	0	
0.277667	-0.00850557	-0.0134114	0.000407458	0.000306437	0	0	0	
0.277833	0.00136779	0.000332969	0.000362683	0.000382819	0	0	0	
0.278	0.00497571	0.003517	0.000288713	0.000298972	0	0	0	
0.278167	-0.00573156	0.00265338	0.000223971	0.000245624	0	0	0	
0.278333	-0.00842634	0.00185048	0.000206443	0.000150178	0	0	0	
0.2785	0.0245187	-0.00365796	0.000259564	0.000110866	0	0	0	
0.278667	-0.0236268	-0.0167492	0.000384279	0.000118976	0	0	0	
0.278833	0.0142388	0.00307857	0.000413627	0.000188233	0	0	0	
0.279	-0.0056782	0.0204796	0.00034543	0.000284147	0	0	0	
0.279167	-0.00195698	-0.0192884	0.000231445	0.000376327	0	0	0	
0.279333	0.00963141	0.00228532	0.000156319	0.000380485	0	0	0	
0.2795	-0.0138207	0.00182981	0.000149986	0.000308299	0	0	0	
0.279667	0.0151583	-0.00550024	0.000230752	0.00023314	0	0	0	
0.279833	-0.0102446	0.0186412	0.00029792	0.000306076	0	0	0	
0.28	0.00668347	-0.0231273	0.00030166	0.000360536	0	0	0	
0.280167	-0.00777103	0.0125619	0.000262538	0.000431697	0	0	0	
0.280333	0.00455006	0.00683331	0.000220263	0.000371747	0	0	0	
0.2805	-0.000508787	-0.0111578	0.000176405	0.000297019	0	0	0	
0.280667	0.00442227	0.00332657	0.000119021	0.000237885	0	0	0	
0.280833	-0.00478627	0.00401998	0.000112604	0.000230204	0	0	0	
0.281	0.00872744	0.00242496	0.000156039	0.000326304	0	0	0	
0.281167	-0.0138512	0.00336942	0.000214988	0.00037985	0	0	0	
0.281333	0.0119106	-0.00245627	0.000228643	0.000318522	0	0	0	
0.2815	-0.00975787	-0.00213319	0.000228549	0.000178928	0	0	0	
0.281667	0.00960234	0.00202367	0.00023978	8.15533E-05	0	0	0	
0.281833	-0.00660088	0.00114941	0.000253982	4.12593E-05	0	0	0	
0.282	0.000800468	0.00321378	0.000265817	6.30073E-05	0	0	0	
0.282167	0.000308218	-0.00373097	0.000234946	7.8095E-05	0	0	0	
0.282333	0.00862254	0.00346066	0.000187855	9.50692E-05	0	0	0	
0.2825	-0.0126818	0.00329849	0.000185426	7.88886E-05	0	0	0	
0.282667	0.0111395	-0.000661177	0.00019788	0.000107415	0	0	0	
0.282833	-0.0128652	-0.0222727	0.000225183	0.00023262	0	0	0	
0.283	0.0138126	0.0372616	0.000247327	0.000475209	0	0	0	
0.283167	-0.0108908	-0.0366239	0.000260085	0.000609695	0	0	0	
0.283333	0.0133444	0.0303524	0.000271064	0.000644439	0	0	0	
0.2835	-0.0142671	-0.00796486	0.000264772	0.000565346	0	0	0	
0.283667	0.0142124	-0.013297	0.000257615	0.000497605	0	0	0	
0.283833	-0.0117671	0.00605426	0.000278639	0.000367181	0	0	0	
0.284	0.00515834	0.0114644	0.000293331	0.000380969	0	0	0	
0.284167	0.00496445	0.00404479	0.000242779	0.000406622	0	0	0	
0.284333	-0.00322594	-0.0185699	0.000204703	0.00044051	0	0	0	
0.2845	-0.00656208	0.0153707	0.000179462	0.000363823	0	0	0	
0.284667	0.0173394	-0.00559503	0.000258081	0.000270738	0	0	0	
0.284833	-0.0262164	0.00955971	0.00033582	0.000236881	0	0	0	
0.285	0.0265076	-0.0200403	0.000405636	0.000198125	0	0	0	
0.285167	-0.0101632	0.00768688	0.00053399	0.000273359	0	0	0	
0.285333	-0.00911286	0.0215544	0.000649398	0.000296987	0	0	0	
0.2855	0.00962372	-0.0211653	0.000655281	0.000471155	0	0	0	
0.285667	-0.00428265	-0.000901271	0.000484055	0.000644311	0	0	0	
0.285833	0.00415141	0.00890762	0.000248295	0.000686192	0	0	0	
0.286	0.00405849	-0.00357715	0.000174033	0.000477988	0	0	0	
0.286167	-0.0261139	-0.00315653	0.000265752	0.000189066	0	0	0	
0.286333	0.0422716	0.00285147	0.000459469	0.000226848	0	0	0	
0.2865	-0.0530682	-0.0376951	0.00066123	0.000514943	0	0	0	
0.286667	0.0480552	0.0440266	0.000920839	0.000880092	0	0	0	
0.286833	-0.0184294	-0.0193743	0.00101228	0.000902043	0	0	0	
0.287	0.0017288	0.00774463	0.000932355	0.000645535	0	0	0	
0.287167	-0.00811125	-0.0237571	0.000660558	0.000352165	0	0	0	
0.287333	0.0205528	0.0436664	0.00047575	0.000424646	0	0	0	
0.2875	-0.0395045	-0.00718092	0.000459408	0.000521916	0	0	0	
0.287667	0.0536268	-0.00862199	0.00063599	0.000546454	0	0	0	
0.287833	-0.0406357	0.0101116	0.000803362	0.000447012	0	0	0	
0.288	0.0313284	-0.00422083	0.000830889	0.000340749	0	0	0	
0.288167	-0.0277028	-0.00160174	0.000749228	0.000318147	0	0	0	
0.288333	0.020331	0.0194068	0.000658955	0.000369156	0	0	0	
0.2885	-0.0164021	0.0135742	0.000583606	0.000555835	0	0	0	
0.288667	0.0218414	0.00860076	0.00050967	0.000552017	0	0	0	
0.288833	-0.0181305	-0.00726351	0.000485177	0.00042357	0	0	0	
0.289	0.00745438	0.00470828	0.000463969	0.00023183	0	0	0	
0.289167	-0.00702896	0.00204623	0.000357101	0.000165552	0	0	0	
0.289333	0.0306473	-0.00147088	0.000303234	0.000123707	0	0	0	
0.2895	-0.0671021	-0.000360361	0.000510808	0.000152524	0	0	0	
0.289667	0.0712349	-0.00160256	0.00090217	0.000242775	0	0	0	
0.289833	-0.051284	0.0141165	0.00115641	0.000353656	0	0	0	
0.29	0.0282725	-0.0107205	0.00110947	0.000397071	0	0	0	
0.290167	-0.0118841	0.00374944	0.000884845	0.000355715	0	0	0	
0.290333	0.0033974	0.00141356	0.000621758	0.000247388	0	0	0	
0.2905	-0.0107043	-0.0085978	0.000459685	0.000170683	0	0	0	
0.290667	0.0191903	-0.00642959	0.00054637	0.000163342	0	0	0	
0.290833	-0.0351778	-0.00763388	0.000657952	0.00024617	0	0	0	
0.291	0.0594748	0.00953554	0.000858593	0.000342198	0	0	0	
0.291167	-0.0428966	-0.00231485	0.000974078	0.000334473	0	0	0	
0.291333	0.00981693	-0.00280816	0.00100396	0.000224759	0	0	0	
0.2915	0.0022315	0.00407039	0.000828037	9.29593E-05	0	0	0	
0.291667	0.00934312	0.00142107	0.000488746	6.68433E-05	0	0	0	
0.291833	-0.0271289	-0.0191961	0.000355492	0.000149173	0	0	0	
0.292	0.0527764	0.0134788	0.000482235	0.000304632	0	0	0	
0.292167	-0.043717	-0.002175	0.00073612	0.000378253	0	0	0	
0.292333	0.0228126	-0.0038522	0.00084229	0.000310572	0	0	0	
0.2925	-0.0210418	0.00419049	0.000692577	0.000167249	0	0	0	
0.292667	0.0352688	-0.000330593	0.000527433	8.49831E-05	0	0	0	
0.292833	-0.0397704	-0.00261147	0.000536968	0.000117813	0	0	0	
0.293	0.0316159	0.00236753	0.000649224	0.000168638	0	0	0	
0.293167	-0.0180852	-0.00512914	0.000698701	0.000203477	0	0	0	
0.293333	-0.00190848	0.00485233	0.000676759	0.000178051	0	0	0	
0.2935	0.0240444	-0.00159861	0.000625276	0.00011326	0	0	0	
0.293667	-0.0438393	-0.0067941	0.000600343	0.000109554	0	0	0	
0.293833	0.0253841	0.0122426	0.000644012	0.000161759	0	0	0	
0.294	0.0114431	-0.00673201	0.000793564	0.000191112	0	0	0	
0.294167	-0.0312575	0.00608264	0.000945081	0.000198316	0	0	0	
0.294333	0.0374606	-0.00155216	0.000968776	0.000176842	0	0	0	
0.2945	-0.0368414	-0.00180739	0.000858575	0.000178038	0	0	0	
0.294667	0.0176335	0.00388964	0.00068272	0.000127819	0	0	0	
0.294833	-0.00598235	-0.00137995	0.000658307	0.000141052	0	0	0	
0.295	-0.00634985	-0.00908352	0.000672537	0.000203637	0	0	0	
0.295167	0.0174432	0.0126374	0.000598284	0.000255928	0	0	0	
0.295333	-0.00815491	-0.00546856	0.000432717	0.000247051	0	0	0	
0.2955	-0.0155905	-0.0022194	0.000340346	0.000184985	0	0	0	
0.295667	0.028116	0.000788132	0.000424087	0.000142024	0	0	0	
0.295833	-0.0265527	-0.000690578	0.000500952	8.83629E-05	0	0	0	
0.296	0.0249336	-0.00460107	0.000511851	6.26325E-05	0	0	0	
0.296167	-0.0229309	-0.0147508	0.000522098	0.000131303	0	0	0	
0.296333	0.0153069	0.00453602	0.000520476	0.000175989	0	0	0	
0.2965	-0.00909365	3.09943E-05	0.000467175	0.000189495	0	0	0	
0.296667	0.0093097	-0.00279051	0.000341408	0.000116369	0	0	0	
0.296833	-0.0145394	0.0046045	0.000274786	7.93374E-05	0	0	0	
0.297	0.0228148	-0.00524573	0.000278155	8.09308E-05	0	0	0	
0.297167	-0.0266911	-0.00256873	0.000363881	0.00017143	0	0	0	
0.297333	0.0219456	0.00388492	0.000447983	0.000313974	0	0	0	
0.2975	-0.0120733	-0.00889791	0.000497127	0.000376282	0	0	0	
0.297667	0.00499825	0.0061166	0.000436261	0.000309904	0	0	0	
0.297833	-0.00339086	0.000943822	0.000289472	0.000178536	0	0	0	
0.298	0.00743004	-0.000846858	0.000179253	0.000100181	0	0	0	
0.298167	-0.0199902	0.00353642	0.000168049	0.00016961	0	0	0	
0.298333	0.0300555	0.0136556	0.000293472	0.000242873	0	0	0	
0.2985	-0.031609	-0.0059161	0.000449726	0.000290251	0	0	0	
0.298667	0.0271051	0.00125377	0.000544886	0.000203965	0	0	0	
0.298833	-0.0230093	-0.00157705	0.000544671	0.000115369	0	0	0	
0.299	0.014209	0.000619861	0.000493288	5.60606E-05	0	0	0	
0.299167	-0.00620871	0.0208702	0.000417878	9.77831E-05	0	0	0	
0.299333	0.00361983	-0.0318589	0.000299851	0.000349593	0	0	0	
0.2995	-0.00479905	0.0219062	0.000191055	0.000560823	0	0	0	
0.299667	0.00509774	-0.011442	0.000162895	0.000581622	0	0	0	
0.299833	-0.0121801	-0.00345929	0.000226405	0.000390463	0	0	0	
0.3	0.0255695	0.0109442	0.000362314	0.000219947	0	0	0	
0.300167	-0.0419856	-0.00608126	0.000527473	0.000187361	0	0	0	
0.300333	0.0530857	0.0276946	0.000704384	0.000320625	0	0	0	
0.3005	-0.0401987	-0.0362371	0.000837305	0.000640913	0	0	0	
0.300667	0.0188638	0.00183347	0.00088615	0.000796323	0	0	0	
0.300833	-0.00120288	0.00826504	0.000812141	0.000700792	0	0	0	
0.301	-0.00897907	-0.000922685	0.00059482	0.000354875	0	0	0	
0.301167	0.00584726	-0.00520612	0.000379748	0.000170964	0	0	0	
0.301333	0.015426	0.0145782	0.00039701	0.000126369	0	0	0	
0.3015	-0.0341412	-0.0200998	0.000599512	0.000269656	0	0	0	
0.301667	0.04426	-0.000397471	0.000792789	0.000298108	0	0	0	
0.301833	-0.0394754	0.00208438	0.000817873	0.000294494	0	0	0	
0.302	0.0227226	-0.00372422	0.000722092	0.000165125	0	0	0	
0.302167	-0.0101425	-0.00537155	0.000589831	0.000144961	0	0	0	
0.302333	0.00375178	0.0125427	0.000425765	0.000119192	0	0	0	
0.3025	-0.00440576	-0.0143301	0.000274102	0.000199825	0	0	0	
0.302667	0.00773316	0.0143719	0.000178136	0.000365306	0	0	0	
0.302833	-0.0123013	-0.00660716	0.000163739	0.000421722	0	0	0	
0.303	0.0131392	0.000723417	0.000215222	0.000375166	0	0	0	
0.303167	-0.0167659	0.0022148	0.000271246	0.000224812	0	0	0	
0.303333	0.0216733	0.000686456	0.000309627	0.000135545	0	0	0	
0.3035	-0.023666	-0.00715153	0.000360487	8.78167E-05	0	0	0	
0.303667	0.0170253	0.0261666	0.000424517	0.000195471	0	0	0	
0.303833	-0.00975223	0.00590912	0.00044068	0.00030003	0	0	0	
0.304	0.0032431	-0.0204259	0.000345225	0.000371443	0	0	0	
0.304167	-0.00437917	0.0106283	0.000213501	0.000311015	0	0	0	
0.304333	0.0117575	0.00288017	0.000136264	0.00024084	0	0	0	
0.3045	-0.0198835	-6.37703E-05	0.000196855	0.000157943	0	0	0	
0.304667	0.0268096	-0.00472405	0.00033675	0.000114825	0	0	0	
0.304833	-0.0266962	0.00478797	0.000456315	8.66766E-05	0	0	0	
0.305	0.021276	-0.00333361	0.000488466	0.000106286	0	0	0	
0.305167	-0.0178765	0.00107711	0.000442755	6.98085E-05	0	0	0	
0.305333	0.017921	0.0043873	0.000385537	7.61257E-05	0	0	0	
0.3055	-0.0167723	-0.000906371	0.000352833	8.63259E-05	0	0	0	
0.305667	0.0167195	-0.00892216	0.000331878	0.000158293	0	0	0	
0.305833	-0.0165768	0.00984242	0.000327589	0.000203524	0	0	0	
0.306	0.014004	-0.0119732	0.000314865	0.000216073	0	0	0	
0.306167	-0.00934596	0.0119348	0.000295428	0.000199879	0	0	0	
0.306333	0.00609463	-0.00592336	0.000246662	0.000191949	0	0	0	
0.3065	-0.0017927	-0.00914959	0.000183916	0.000210283	0	0	0	
0.306667	0.00185043	0.0227276	0.000152643	0.000220803	0	0	0	
0.306833	-0.0151521	-0.0266948	0.00024853	0.000382937	0	0	0	
0.307	0.0351166	-0.0135839	0.000418986	0.000448885	0	0	0	
0.307167	-0.0425838	0.00718804	0.000612686	0.000405695	0	0	0	
0.307333	0.0378871	-7.29577E-05	0.000706094	0.000294944	0	0	0	
0.3075	-0.0312265	-0.00136795	0.000726233	0.000204059	0	0	0	
0.307667	0.0170005	0.0105292	0.000707618	0.000239535	0	0	0	
0.307833	0.00443465	-0.0392706	0.000712247	0.000315393	0	0	0	
0.308	-0.0087548	0.0323821	0.000665599	0.000479888	0	0	0	
0.308167	0.0012415	0.0356997	0.000476304	0.000630731	0	0	0	
0.308333	0.00600622	-0.058494	0.000254481	0.000701661	0	0	0	
0.3085	-0.00665337	0.0237882	0.000115474	0.000812817	0	0	0	
0.308667	0.00947791	0.0104391	0.000146022	0.000815959	0	0	0	
0.308833	-0.0141571	-0.0178992	0.000208963	0.000648797	0	0	0	
0.309	0.0173135	0.0242036	0.000271023	0.000462973	0	0	0	
0.309167	-0.0143495	0.000515807	0.000314218	0.000347259	0	0	0	
0.309333	0.0145999	-0.00975286	0.000323848	0.000539005	0	0	0	
0.3095	-0.0127612	0.02541	0.000336321	0.000716321	0	0	0	
0.309667	0.0119725	-0.022017	0.00031928	0.000774345	0	0	0	
0.309833	-0.0140364	0.00434502	0.000326106	0.00058224	0	0	0	
0.31	0.0217353	0.0112082	0.000399899	0.000350391	0	0	0	
0.310167	-0.0341301	-0.0243096	0.000535736	0.000264324	0	0	0	
0.310333	0.0428041	0.0143551	0.000637654	0.0002915	0	0	0	
0.3105	-0.03717	-0.0149747	0.000726724	0.000296648	0	0	0	
0.310667	0.0138513	0.00732116	0.000736035	0.000299754	0	0	0	
0.310833	0.00449588	0.00119362	0.00063982	0.000239354	0	0	0	
0.311	-0.00757302	-0.00562677	0.000441561	0.000198658	0	0	0	
0.311167	-0.0292597	0.00202082	0.000513462	0.000138367	0	0	0	
0.311333	0.0937474	-0.00598523	0.000927249	0.000152347	0	0	0	
0.3115	-0.11129	0.0228043	0.0015814	0.000283111	0	0	0	
0.311667	0.0813925	-0.0193751	0.00184439	0.000450115	0	0	0	
0.311833	-0.0518951	0.00643331	0.00175125	0.000458786	0	0	0	
0.312	0.0149806	-0.000290915	0.00137843	0.000303922	0	0	0	
0.312167	0.012591	0.00189277	0.00103894	0.0001243	0	0	0	
0.312333	-0.0265334	-0.0184958	0.000693117	0.000131641	0	0	0	
0.3125	0.0424365	0.0337	0.000768213	0.00034659	0	0	0	
0.312667	-0.011931	-0.0133905	0.00102994	0.000562993	0	0	0	
0.312833	-0.0282144	0.00101552	0.00132819	0.000580816	0	0	0	
0.313	0.0232961	-0.0101826	0.00120098	0.000394897	0	0	0	
0.313167	-0.00153987	0.00809531	0.00089779	0.000220293	0	0	0	
0.313333	0.0027338	0.0194745	0.000631653	0.000195485	0	0	0	
0.3135	-0.0127922	-0.0199423	0.000435144	0.000286993	0	0	0	
0.313667	0.028509	0.021363	0.000357951	0.000428967	0	0	0	
0.313833	-0.0299933	0.005541	0.000429178	0.000468055	0	0	0	
0.314	0.0109942	-0.0103613	0.00046267	0.000373647	0	0	0	
0.314167	0.00480043	-0.00566996	0.000566332	0.000225436	0	0	0	
0.314333	-0.0100357	0.0204628	0.000671639	0.00018261	0	0	0	
0.3145	0.0201794	0.00483893	0.000780813	0.000219803	0	0	0	
0.314667	-0.0261599	-0.0259356	0.000711931	0.00032496	0	0	0	
0.314833	0.0100258	0.0113609	0.000526394	0.00037566	0	0	0	
0.315	0.00827917	-0.000424426	0.000401892	0.000314794	0	0	0	
0.315167	-0.0210576	0.00234455	0.000364221	0.000196409	0	0	0	
0.315333	0.0226758	-0.00642046	0.000380747	0.000106682	0	0	0	
0.3155	-0.0165017	0.0191809	0.000374879	0.000169474	0	0	0	
0.315667	0.0117204	-0.0258577	0.000419398	0.000346897	0	0	0	
0.315833	-0.00684219	-0.00533987	0.00044544	0.000370401	0	0	0	
0.316	0.00329293	0.00693453	0.000428539	0.000345624	0	0	0	
0.316167	-0.00314546	-0.000671862	0.000324813	0.00016008	0	0	0	
0.316333	0.00345511	0.00107605	0.000188673	0.000104789	0	0	0	
0.3165	-0.00628414	-0.00779199	0.000107861	7.37237E-05	0	0	0	
0.316667	0.00871354	0.0253894	0.000105829	0.000131545	0	0	0	
0.316833	-0.00406118	-0.0264537	0.000121245	0.000359144	0	0	0	
0.317	0.00535429	0.00358907	0.000122135	0.000414365	0	0	0	
0.317167	-0.00824589	0.00439454	0.000122965	0.00036999	0	0	0	
0.317333	0.00983889	-0.00588306	0.000151838	0.000175614	0	0	0	
0.3175	-0.0142378	0.0017282	0.000193163	0.000107391	0	0	0	
0.317667	0.0206839	0.0146747	0.000248485	0.000149331	0	0	0	
0.317833	-0.0192381	-0.0107379	0.000318078	0.000237136	0	0	0	
0.318	0.0163667	0.0106682	0.000407885	0.000278316	0	0	0	
0.318167	-0.01057	0.00309475	0.000434757	0.000260715	0	0	0	
0.318333	-0.000255312	-0.0087484	0.000354528	0.00018587	0	0	0	
0.3185	-0.00599516	0.00751756	0.000275552	0.000172231	0	0	0	
0.318667	0.0201754	-0.00321373	0.000248124	0.000134828	0	0	0	
0.318833	-0.022125	-0.0135749	0.000344457	0.000135361	0	0	0	
0.319	0.0221312	0.0266093	0.000396076	0.000256937	0	0	0	
0.319167	-0.0139554	-0.0110385	0.000409808	0.000333348	0	0	0	
0.319333	-0.0106224	9.36566E-05	0.000315823	0.000367897	0	0	0	
0.3195	0.0195416	0.0116139	0.000286646	0.000296177	0	0	0	
0.319667	-0.00368752	-0.00672111	0.000285981	0.000239882	0	0	0	
0.319833	-0.0736448	-0.010221	0.000602964	0.000404037	0	0	0	
0.32	0.171662	-0.00970843	0.00137299	0.00069003	0	0	0	
0.320167	-0.165502	0.0194087	0.00230997	0.00101415	0	0	0	
0.320333	0.0912	-0.00248258	0.00282852	0.0010141	0	0	0	
0.3205	-0.0139765	-0.0188646	0.00336278	0.000740162	0	0	0	
0.320667	-0.0874415	0.0151059	0.00371676	0.000480739	0	0	0	
0.320833	0.149433	0.00260576	0.00375636	0.000280001	0	0	0	
0.321	-0.112277	-0.0225945	0.00307201	0.000288887	0	0	0	
0.321167	0.0408264	0.0279896	0.00281018	0.000394048	0	0	0	
0.321333	0.0707049	-0.0263595	0.00311174	0.000601332	0	0	0	
0.3215	-0.176928	0.0117612	0.00331336	0.000563271	0	0	0	
0.321667	0.162125	-0.0134305	0.00320381	0.000479454	0	0	0	
0.321833	-0.0831416	0.00566375	0.00281685	0.000418486	0	0	0	
0.322	0.0352256	0.0205902	0.00279961	0.000625807	0	0	0	
0.322167	-0.00443085	-0.0339076	0.00246874	0.000842745	0	0	0	
0.322333	-0.0325626	0.00877806	0.00196922	0.000865604	0	0	0	
0.3225	0.0717832	0.0176258	0.00135639	0.000661251	0	0	0	
0.322667	-0.0664331	-0.0197812	0.00134126	0.000460775	0	0	0	
0.322833	0.000839609	0.0151908	0.00169492	0.000373291	0	0	0	
0.323	0.0636112	-0.0107701	0.00197605	0.000339332	0	0	0	
0.323167	-0.0759123	0.0128692	0.00178887	0.000384989	0	0	0	
0.323333	0.0482525	-0.0047363	0.00145147	0.000452168	0	0	0	
0.3235	0.0293415	0.00257646	0.00118222	0.000473569	0	0	0	
0.323667	-0.0858362	0.00833212	0.00123779	0.000499814	0	0	0	
0.323833	0.0854637	-0.00692566	0.00149303	0.000466112	0	0	0	
0.324	-0.0606149	0.00141866	0.00157289	0.000468381	0	0	0	
0.324167	0.036521	0.0288817	0.00147878	0.000360355	0	0	0	
0.324333	-0.00937481	-0.0149262	0.00127873	0.000460836	0	0	0	
0.3245	-0.000823762	-0.00605492	0.00115842	0.000512794	0	0	0	
0.324667	0.0122346	0.0254081	0.00090791	0.000538835	0	0	0	
