0	0.000700533	-0.000256435	7.00533E-08	2.56435E-08	0	5	0	
0.000166667	-0.00264189	0.000457734	1.40924E-05	5.31708E-06	0	5	0	
0.000333333	0.00164545	-0.00107947	2.71239E-05	1.34723E-05	0	5	0	
0.0005	-0.000220109	0.00151555	4.75041E-05	2.34588E-05	0	5	0	
0.000666667	0.00134969	-0.000552643	5.06757E-05	3.26133E-05	0	5	0	
0.000833333	0.000556262	-0.000589145	4.43966E-05	4.24613E-05	0	5	0	
0.001	0.00139855	0.000210588	2.94274E-05	3.80793E-05	0	5	0	
0.00116667	-0.00621931	0.00171283	4.25865E-05	2.86972E-05	0	5	0	
0.00133333	0.000731895	-0.00157875	0.000101962	2.7066E-05	0	5	0	
0.0015	0.00394382	-0.000464218	0.000173216	4.03775E-05	0	5	0	
0.00166667	-0.00637054	-8.50515E-05	0.000162658	3.89306E-05	0	5	0	
0.00183333	0.00336696	0.00139574	0.000151149	3.17427E-05	0	5	0	
0.002	0.00405358	0.0015959	0.000157535	3.7611E-05	0	5	0	
0.00216667	0.00515571	-0.00227096	0.000165014	4.72372E-05	0	5	0	
0.00233333	-0.00242916	-0.00205445	0.000186497	5.77393E-05	0	5	0	
0.0025	-0.00775483	0.00383798	0.000134197	4.92953E-05	0	5	0	
0.00266667	0.00441555	-0.00089728	0.000166035	7.04051E-05	0	5	0	
0.00283333	0.000447297	-4.27041E-05	0.000154382	7.93159E-05	0	5	0	
0.003	0.00935229	-0.00130329	0.000218289	7.53702E-05	0	5	0	
0.00316667	-0.000315752	0.00155146	0.000225492	6.01495E-05	0	5	0	
0.00333333	-0.010687	-0.000401309	0.000217966	5.80655E-05	0	5	0	
0.0035	0.00697325	0.000118282	0.000205889	6.13446E-05	0	5	0	
0.00366667	-0.000849277	-0.00214974	0.000151331	5.24948E-05	0	5	0	
0.00383333	-0.0079734	0.00293093	0.000158233	4.74205E-05	0	5	0	
0.004	0.00865155	-0.000849009	0.000123691	6.17662E-05	0	5	0	
0.00416667	-0.00486111	-0.000420064	0.000170077	7.77756E-05	0	5	0	
0.00433333	0.00209124	-0.000551713	0.000143437	6.8446E-05	0	5	0	
0.0045	-0.000861402	0.000571321	0.000107614	5.3821E-05	0	5	0	
0.00466667	0.00290384	0.00135386	7.65913E-05	5.5399E-05	0	5	0	
0.00483333	-0.00345697	-0.002012	5.41073E-05	6.46787E-05	0	5	0	
0.005	0.00410949	-9.67354E-05	7.90322E-05	5.76554E-05	0	5	0	
0.00516667	-0.000204344	0.00130765	6.99597E-05	3.47206E-05	0	5	0	
0.00533333	0.00537784	-0.00227539	7.29716E-05	2.52342E-05	0	5	0	
0.0055	-0.00160604	0.00370479	6.38393E-05	3.86852E-05	0	5	0	
0.00566667	0.00671264	-0.00364182	8.80761E-05	6.19162E-05	0	5	0	
0.00583333	0.0011111	0.00299251	0.000108829	7.68235E-05	0	5	0	
0.006	0.00364271	-0.0030375	0.00011566	8.53675E-05	0	5	0	
0.00616667	-0.00261363	0.00137594	0.000101432	8.87636E-05	0	5	0	
0.00633333	0.000939166	-0.000602385	7.17375E-05	8.14157E-05	0	5	0	
0.0065	-0.00127511	0.00267794	5.76239E-05	6.27994E-05	0	5	0	
0.00666667	0.00167546	-0.00304791	6.27006E-05	4.97515E-05	0	5	0	
0.00683333	-0.00429994	0.0010648	9.47444E-05	4.5276E-05	0	5	0	
0.007	0.0012624	-0.000786789	0.000102459	4.24198E-05	0	5	0	
0.00716667	-0.00260321	0.00234605	8.62424E-05	4.1506E-05	0	5	0	
0.00733333	-0.0030548	-0.00361108	6.43174E-05	4.86677E-05	0	5	0	
0.0075	-0.00099724	0.00334515	6.2084E-05	6.35672E-05	0	5	0	
0.00766667	0.0014807	-0.00306662	7.08993E-05	6.87618E-05	0	5	0	
0.00783333	-0.00433766	0.00346834	9.13181E-05	6.71054E-05	0	5	0	
0.008	0.00292489	-0.00369904	0.000105617	6.53725E-05	0	5	0	
0.00816667	-4.39241E-06	0.00348193	8.63031E-05	6.60998E-05	0	5	0	
0.00833333	0.000566134	-0.00194379	5.56798E-05	6.38561E-05	0	5	0	
0.0085	-0.00238985	0.000281097	3.52638E-05	5.73125E-05	0	5	0	
0.00866667	0.00524661	0.000431672	7.02239E-05	4.32661E-05	0	5	0	
0.00883333	-0.00254697	5.19967E-05	9.00524E-05	2.81891E-05	0	5	0	
0.009	0.00234287	0.000441949	0.000103537	1.93774E-05	0	5	0	
0.00916667	-0.00485844	-0.000172514	9.6017E-05	1.71057E-05	0	5	0	
0.00933333	0.00256311	-0.000618679	9.70646E-05	1.78478E-05	0	5	0	
0.0095	-0.00179806	0.000864261	7.52361E-05	1.37914E-05	0	5	0	
0.00966667	0.000786568	-0.000255948	6.24723E-05	2.32873E-05	0	5	0	
0.00983333	-0.00099769	-0.00119063	4.56293E-05	3.78861E-05	0	5	0	
0.01	0.00200082	0.000693932	4.54597E-05	4.03148E-05	0	5	0	
0.0101667	-0.00196377	0.00144557	5.3249E-05	3.20424E-05	0	5	0	
0.0103333	0.00165417	-0.00224566	6.7078E-05	2.57523E-05	0	5	0	
0.0105	-0.00549426	0.000385077	8.52864E-05	3.3907E-05	0	5	0	
0.0106667	0.00293403	0.000568513	8.41458E-05	3.63219E-05	0	5	0	
0.0108333	-0.00329019	0.000664487	8.70184E-05	2.72248E-05	0	5	0	
0.011	0.00199313	-0.00124944	8.57642E-05	2.27207E-05	0	5	0	
0.0111667	-0.00547149	0.000781569	9.47396E-05	1.8268E-05	0	5	0	
0.0113333	0.0050717	-0.000904032	0.00010101	1.98068E-05	0	5	0	
0.0115	-0.00713913	0.000610799	0.000116344	1.51894E-05	0	5	0	
0.0116667	0.00233859	0.00116652	0.0001189	2.68156E-05	0	5	0	
0.0118333	-0.00214151	-0.00285348	9.33013E-05	3.91315E-05	0	5	0	
0.012	0.00398552	0.00133042	7.05415E-05	4.89218E-05	0	5	0	
0.0121667	-0.00514187	0.000562754	6.08773E-05	4.58366E-05	0	5	0	
0.0123333	0.00352489	0.000166267	8.28416E-05	3.57668E-05	0	5	0	
0.0125	-0.00294162	-0.00193738	7.61019E-05	3.5215E-05	0	5	0	
0.0126667	0.00261175	0.000913438	7.26459E-05	2.96381E-05	0	5	0	
0.0128333	-0.00326204	0.00018285	6.99212E-05	2.79484E-05	0	5	0	
0.013	0.00409269	0.000187782	8.69735E-05	2.90628E-05	0	5	0	
0.0131667	-0.00325668	-0.00121146	8.93132E-05	3.53038E-05	0	5	0	
0.0133333	0.00116073	0.000929688	7.55411E-05	4.23197E-05	0	5	0	
0.0135	-0.00223039	-6.84389E-05	5.02426E-05	3.50574E-05	0	5	0	
0.0136667	0.00715391	-0.000363499	5.9084E-05	2.49101E-05	0	5	0	
0.0138333	-0.00782592	-0.000210236	9.72747E-05	2.32952E-05	0	5	0	
0.014	0.00540229	0.0010392	0.000138338	2.85572E-05	0	5	0	
0.0141667	-0.00627594	-0.000132769	0.000139593	2.60943E-05	0	5	0	
0.0143333	0.00401755	-0.00145424	0.000126089	2.21004E-05	0	5	0	
0.0145	-0.000506382	0.000782889	8.79929E-05	2.09525E-05	0	5	0	
0.0146667	0.00354944	0.00151804	7.86465E-05	3.4812E-05	0	5	0	
0.0148333	-0.00666043	-0.00103543	8.58609E-05	3.64093E-05	0	5	0	
0.015	0.00479114	-0.00117428	0.000117711	3.8404E-05	0	5	0	
0.0151667	-0.00370917	0.000121866	0.000109682	3.13293E-05	0	5	0	
0.0153333	0.00339745	0.00204233	8.8484E-05	4.36535E-05	0	5	0	
0.0155	-0.00274777	-0.00117453	7.00169E-05	3.81435E-05	0	5	0	
0.0156667	0.00255153	-0.0014352	7.87525E-05	4.79104E-05	0	5	0	
0.0158333	-0.00445282	0.00117984	8.6052E-05	3.42612E-05	0	5	0	
0.016	0.00390866	0.00127711	9.7282E-05	4.26547E-05	0	5	0	
0.0161667	-0.00280976	-0.00148745	9.00863E-05	3.06206E-05	0	5	0	
0.0163333	0.00340787	-0.000720295	7.83422E-05	3.95823E-05	0	5	0	
0.0165	-0.00526138	0.00141221	7.34286E-05	3.31476E-05	0	5	0	
0.0166667	0.00407289	0.000654222	8.3373E-05	3.20658E-05	0	5	0	
0.0168333	-0.000719455	-0.00143077	7.94883E-05	2.30231E-05	0	5	0	
0.017	0.00330305	0.000185985	7.66839E-05	1.97291E-05	0	5	0	
0.0171667	-0.00497523	-0.000172048	7.45477E-05	1.5216E-05	0	5	0	
0.0173333	0.0048257	0.00136379	8.60307E-05	1.79036E-05	0	5	0	
0.0175	-0.00480541	-0.00172523	9.17345E-05	2.12893E-05	0	5	0	
0.0176667	0.00385462	0.0010849	9.31224E-05	3.01432E-05	0	5	0	
0.0178333	-0.00145157	-0.000894754	7.91059E-05	2.92411E-05	0	5	0	
0.018	0.00291577	0.00212861	6.49722E-05	2.97962E-05	0	5	0	
0.0181667	-0.00272862	-0.00213263	5.67036E-05	3.22297E-05	0	5	0	
0.0183333	0.00475057	0.000503746	6.91894E-05	3.3805E-05	0	5	0	
0.0185	-0.00388395	0.000291341	7.98488E-05	2.59766E-05	0	5	0	
0.0186667	0.00447382	0.00120386	8.30283E-05	2.23892E-05	0	5	0	
0.0188333	6.98526E-06	-0.0023869	7.12558E-05	2.60863E-05	0	5	0	
0.019	0.000976809	0.00142204	5.73844E-05	3.44829E-05	0	5	0	
0.0191667	-0.00285	-0.00111518	4.94097E-05	3.36322E-05	0	5	0	
0.0193333	0.00452178	0.000731308	6.01505E-05	2.63062E-05	0	5	0	
0.0195	-0.00192449	-0.000375011	7.13053E-05	1.84993E-05	0	5	0	
0.0196667	0.00320072	-0.000747786	6.29197E-05	1.89174E-05	0	5	0	
0.0198333	-0.00624091	0.00117377	7.59384E-05	2.15948E-05	0	5	0	
0.02	0.00103168	-4.07152E-05	0.000103364	2.4503E-05	0	5	0	
0.0201667	0.00700585	-0.00225308	0.000151852	2.6959E-05	0	5	0	
0.0203333	-0.0108009	0.00194918	0.000163898	3.14096E-05	0	5	0	
0.0205	0.0066174	0.000557696	0.000211198	4.76326E-05	0	5	0	
0.0206667	0.00605203	5.34374E-05	0.000249541	4.92665E-05	0	5	0	
0.0208333	-0.0187862	-0.00119166	0.000290269	4.26359E-05	0	5	0	
0.021	0.0220358	0.00030711	0.00030917	3.32886E-05	0	5	0	
0.0211667	-0.00164802	0.000786756	0.000376973	2.3042E-05	0	5	0	
0.0213333	-0.0221755	0.00261766	0.00049606	4.33738E-05	0	5	0	
0.0215	0.0292642	-0.00389627	0.000526008	4.86645E-05	0	5	0	
0.0216667	-0.0143291	-0.000409389	0.000543456	8.25746E-05	0	5	0	
0.0218333	-0.0136055	0.00401958	0.00047522	8.01741E-05	0	5	0	
0.022	0.0135677	-0.00148093	0.000414045	8.19789E-05	0	5	0	
0.0221667	-0.00880546	-0.00017038	0.000312224	6.42722E-05	0	5	0	
0.0223333	0.0125609	-0.00153043	0.000267314	4.99103E-05	0	5	0	
0.0225	0.00386825	-0.000138472	0.000276942	3.97285E-05	0	5	0	
0.0226667	-0.0159822	0.00127228	0.00026264	2.76472E-05	0	5	0	
0.0228333	0.00484913	-0.000319722	0.000249041	2.48924E-05	0	5	0	
0.023	0.008853	-0.000295701	0.000194052	1.99868E-05	0	5	0	
0.0231667	-0.00617222	-0.000499946	0.000181615	1.436E-05	0	5	0	
0.0233333	-0.000980482	-0.00095414	0.000172242	1.22883E-05	0	5	0	
0.0235	0.00641339	0.00212128	0.000151803	2.00689E-05	0	5	0	
0.0236667	0.00179449	0.000115335	0.000148992	2.43198E-05	0	5	0	
0.0238333	-0.0030481	-0.000261598	0.000107464	1.9891E-05	0	5	0	
0.024	0.00546676	-0.0017629	0.000119745	1.7699E-05	0	5	0	
0.0241667	-0.0064496	0.00143106	0.000118977	2.29053E-05	0	5	0	
0.0243333	0.00523075	0.00207974	0.000124029	4.44017E-05	0	5	0	
0.0245	-0.00119952	-0.00217595	0.000122508	4.7702E-05	0	5	0	
0.0246667	-0.0004177	-0.00125577	9.64516E-05	5.74933E-05	0	5	0	
0.0248333	-0.00217186	0.00114002	7.68346E-05	3.97258E-05	0	5	0	
0.025	0.00283887	0.00135791	7.23502E-05	4.90398E-05	0	5	0	
0.0251667	-0.00210548	-0.00225802	7.5799E-05	4.01879E-05	0	5	0	
0.0253333	0.00281727	0.000641902	7.86542E-05	4.58667E-05	0	5	0	
0.0255	-0.00155833	-0.000661024	7.25445E-05	2.93033E-05	0	5	0	
0.0256667	0.00317975	8.49865E-06	5.23584E-05	2.5726E-05	0	5	0	
0.0258333	-0.00290092	-3.59035E-05	6.77899E-05	2.23905E-05	0	5	0	
0.026	-0.00459714	0.000190817	9.17018E-05	2.30189E-05	0	5	0	
0.0261667	0.00639568	0.000104397	0.000125394	1.78203E-05	0	5	0	
0.0263333	0.00478591	-0.000320774	0.000171161	1.36344E-05	0	5	0	
0.0265	0.00065054	-0.000378301	0.000185139	8.40634E-06	0	5	0	
0.0266667	-0.00893848	0.000390954	0.000196168	7.9591E-06	0	5	0	
0.0268333	-0.00621116	0.00218874	0.000154268	1.12816E-05	0	5	0	
0.027	0.0244043	-0.00258047	0.000213081	2.5348E-05	0	5	0	
0.0271667	-0.00861272	-0.00123038	0.000288518	5.15347E-05	0	5	0	
0.0273333	-0.00677783	0.00306589	0.000354669	6.70076E-05	0	5	0	
0.0275	0.0127012	-0.00177223	0.000279971	6.41052E-05	0	5	0	
0.0276667	-0.0133583	0.000555833	0.000258327	4.86747E-05	0	5	0	
0.0278333	-0.00170191	0.0010345	0.000199345	3.22787E-05	0	5	0	
0.028	0.0163652	-0.00277049	0.000230156	3.20694E-05	0	5	0	
0.0281667	-0.0127853	0.00240354	0.00025131	3.47629E-05	0	5	0	
0.0283333	0.00509847	-0.00171246	0.000274961	4.49681E-05	0	5	0	
0.0285	-0.00971276	0.0011141	0.000250239	4.46627E-05	0	5	0	
0.0286667	-0.000337678	-0.000257535	0.000181165	3.36456E-05	0	5	0	
0.0288333	-0.000865207	0.000384533	0.000133568	2.03592E-05	0	5	0	
0.029	0.00116421	-0.00150084	0.000117509	1.64183E-05	0	5	0	
0.0291667	-0.0111151	0.0011483	0.000109506	2.18635E-05	0	5	0	
0.0293333	0.00522989	0.000509244	0.000121349	2.29466E-05	0	5	0	
0.0295	-0.00207617	0.000795688	0.000125609	2.61453E-05	0	5	0	
0.0296667	0.0028426	-0.0028112	8.88829E-05	3.48837E-05	0	5	0	
0.0298333	-0.00570473	0.00214007	8.37091E-05	4.63683E-05	0	5	0	
0.03	0.00178569	0.000840932	7.92084E-05	4.92878E-05	0	5	0	
0.0301667	-0.0018596	-0.0010535	7.69936E-05	3.52693E-05	0	5	0	
0.0303333	-0.0018099	-0.000324597	6.01594E-05	3.60809E-05	0	5	0	
0.0305	-0.00551	0.000569265	6.0141E-05	3.0065E-05	0	5	0	
0.0306667	0.00175562	-0.000302907	6.39786E-05	2.7421E-05	0	5	0	
0.0308333	-0.00281442	0.0010613	7.57498E-05	1.79915E-05	0	5	0	
0.031	0.00129543	-0.00151695	6.01524E-05	1.96879E-05	0	5	0	
0.0311667	-0.00315874	0.00136667	6.47606E-05	2.55606E-05	0	5	0	
0.0313333	0.00249382	0.000491549	7.0438E-05	3.0339E-05	0	5	0	
0.0315	-0.00518188	-0.00161798	6.9334E-05	2.70082E-05	0	5	0	
0.0316667	0.00372382	0.000677313	8.32235E-05	2.86685E-05	0	5	0	
0.0318333	-0.00378161	0.00196213	7.49734E-05	2.42684E-05	0	5	0	
0.032	0.0041495	-0.000633477	8.89474E-05	2.71723E-05	0	5	0	
0.0321667	-0.00128022	-0.000664906	8.36239E-05	2.24128E-05	0	5	0	
0.0323333	0.00123418	-0.000814932	8.54579E-05	3.05111E-05	0	5	0	
0.0325	-1.74244E-05	0.00305088	6.93232E-05	3.53691E-05	0	5	0	
0.0326667	0.00189362	-0.000975109	6.41807E-05	4.33405E-05	0	5	0	
0.0328333	-0.0017838	-0.00111234	4.68157E-05	3.97109E-05	0	5	0	
0.033	0.00506402	-0.000602109	5.65822E-05	3.49239E-05	0	5	0	
0.0331667	-0.0047307	0.00134388	6.84708E-05	3.38483E-05	0	5	0	
0.0333333	0.00530739	0.000433389	9.31538E-05	2.852E-05	0	5	0	
0.0335	-0.000787688	-0.00108396	9.33218E-05	2.41296E-05	0	5	0	
0.0336667	0.00194328	-0.000147844	8.11696E-05	2.10608E-05	0	5	0	
0.0338333	-0.00102807	-0.000252447	5.63964E-05	2.00195E-05	0	5	0	
0.034	0.00518652	0.00131951	5.98138E-05	1.95133E-05	0	5	0	
0.0341667	-0.00321011	-0.00118561	7.02773E-05	2.07561E-05	0	5	0	
0.0343333	0.00257054	6.5191E-05	7.84283E-05	2.82499E-05	0	5	0	
0.0345	-0.00369351	-0.00047807	6.85531E-05	2.65324E-05	0	5	0	
0.0346667	0.00502198	0.000953228	6.75823E-05	2.33168E-05	0	5	0	
0.0348333	-0.00360114	-0.000172964	8.16592E-05	1.49685E-05	0	5	0	
0.035	0.00444157	-0.000579452	8.65312E-05	2.30822E-05	0	5	0	
0.0351667	-0.000297411	0.00109667	6.861E-05	2.37765E-05	0	5	0	
0.0353333	0.00116736	-0.000440611	6.47083E-05	2.50132E-05	0	5	0	
0.0355	-0.00354059	-0.00111773	7.39273E-05	2.10131E-05	0	5	0	
0.0356667	0.00328702	0.0010671	8.68044E-05	1.86239E-05	0	5	0	
0.0358333	-0.000235876	0.000611682	8.03068E-05	2.79686E-05	0	5	0	
0.036	0.00143842	-0.000334848	5.42464E-05	3.27711E-05	0	5	0	
0.0361667	-0.000553851	-0.000906173	3.23824E-05	3.18813E-05	0	5	0	
0.0363333	0.00534316	0.000389631	3.75152E-05	2.60732E-05	0	5	0	
0.0365	-0.00393355	0.000766928	7.14101E-05	2.861E-05	0	5	0	
0.0366667	0.00311194	0.000291365	8.5937E-05	2.67628E-05	0	5	0	
0.0368333	-0.00160917	-0.00233085	7.76241E-05	2.57438E-05	0	5	0	
0.037	0.00434442	0.000436375	5.29471E-05	2.77635E-05	0	5	0	
0.0371667	0.00149405	0.0017938	5.10678E-05	4.38493E-05	0	5	0	
0.0373333	0.00191058	-0.000923534	6.36156E-05	4.51686E-05	0	5	0	
0.0375	-0.00292261	-0.000720281	7.75273E-05	4.38368E-05	0	5	0	
0.0376667	0.00225165	0.000651005	6.86631E-05	2.97424E-05	0	5	0	
0.0378333	-0.00415487	0.000386876	6.58273E-05	2.84101E-05	0	5	0	
0.038	0.00370964	0.000712158	6.04891E-05	1.58159E-05	0	5	0	
0.0381667	-0.00216285	-0.00113361	7.93969E-05	1.68577E-05	0	5	0	
0.0383333	0.00389709	0.000210515	6.94676E-05	1.60973E-05	0	5	0	
0.0385	-0.00510411	0.000959979	8.72689E-05	2.20449E-05	0	5	0	
0.0386667	0.00421634	-0.000759994	8.40084E-05	2.8112E-05	0	5	0	
0.0388333	-0.00486278	0.00114294	0.000102583	2.6713E-05	0	5	0	
0.039	0.00460875	0.000399651	9.22866E-05	2.54085E-05	0	5	0	
0.0391667	-0.00249267	-0.00181905	8.71462E-05	2.09224E-05	0	5	0	
0.0393333	0.00286515	-0.000125004	6.79628E-05	2.40083E-05	0	5	0	
0.0395	-0.00270693	0.00149146	5.49714E-05	2.62015E-05	0	5	0	
0.0396667	0.00195273	-0.000357512	4.52431E-05	2.43348E-05	0	5	0	
0.0398333	-0.00361028	0.000515958	5.92951E-05	1.91341E-05	0	5	0	
0.04	0.00555788	-0.00154959	6.77763E-05	2.07111E-05	0	5	0	
0.0401667	-0.00172978	0.000735859	8.44102E-05	2.36481E-05	0	5	0	
0.0403333	0.00298808	0.00116838	6.74341E-05	2.80893E-05	0	5	0	
0.0405	-0.00429995	-0.00138301	6.46487E-05	2.49242E-05	0	5	0	
0.0406667	0.00222842	-0.00089273	5.89176E-05	3.89419E-05	0	5	0	
0.0408333	-0.00654056	0.00235461	8.12447E-05	4.78563E-05	0	5	0	
0.041	0.00709037	-0.00125835	9.64938E-05	5.12073E-05	0	5	0	
0.0411667	-0.00361348	-0.000189413	0.00011539	3.27197E-05	0	5	0	
0.0413333	0.00389641	-0.000618197	9.97861E-05	2.2018E-05	0	5	0	
0.0415	-0.00553477	0.00102827	0.000102566	1.63973E-05	0	5	0	
0.0416667	0.00216476	-0.000577061	9.06288E-05	1.77845E-05	0	5	0	
0.0418333	-0.0024038	0.000145084	8.14612E-05	1.40908E-05	0	5	0	
0.042	0.00561744	-0.00122735	6.59625E-05	1.36506E-05	0	5	0	
0.0421667	-0.00691203	0.00166874	7.68436E-05	1.94032E-05	0	5	0	
0.0423333	0.0022944	-0.00128376	0.000112589	2.55355E-05	0	5	0	
0.0425	0.00617838	0.000667177	0.000151382	2.7048E-05	0	5	0	
0.0426667	-0.0125087	-0.000555389	0.000163356	2.30524E-05	0	5	0	
0.0428333	0.0110227	0.00147923	0.000202125	2.83043E-05	0	5	0	
0.043	0.00270015	-0.00160644	0.000193395	3.12749E-05	0	5	0	
0.0431667	-0.0196564	0.000327068	0.000231169	2.97402E-05	0	5	0	
0.0433333	0.0270313	-0.000446988	0.000281204	1.99513E-05	0	5	0	
0.0435	-0.0105854	0.000307146	0.000407899	1.49749E-05	0	5	0	
0.0436667	-0.0155111	0.00128383	0.000504885	1.50084E-05	0	5	0	
0.0438333	0.0109626	-0.00196004	0.000456268	2.04477E-05	0	5	0	
0.044	0.0108385	4.1781E-05	0.000358434	3.53667E-05	0	5	0	
0.0441667	-0.0152138	0.0014071	0.000267139	3.96796E-05	0	5	0	
0.0443333	0.0129175	0.000134287	0.00026718	3.78531E-05	0	5	0	
0.0445	-0.0158321	-0.000199084	0.000267062	1.87073E-05	0	5	0	
0.0446667	0.00466427	-0.00110975	0.000249628	1.46972E-05	0	5	0	
0.0448333	0.000877508	-0.000109705	0.000217557	1.4323E-05	0	5	0	
0.045	-0.00823442	0.00176791	0.000155134	1.92857E-05	0	5	0	
0.0451667	-0.00319876	-0.000485071	0.000164512	2.31741E-05	0	5	0	
0.0453333	0.0127364	-0.000363633	0.00020732	1.95253E-05	0	5	0	
0.0455	-0.0131213	-0.00017755	0.000259257	1.54932E-05	0	5	0	
0.0456667	0.00318638	-0.00030924	0.000273401	1.17518E-05	0	5	0	
0.0458333	-0.00226067	0.000787685	0.000212142	1.26616E-05	0	5	0	
0.046	0.000719656	0.000705966	0.000179402	1.86944E-05	0	5	0	
0.0461667	-0.00661912	-0.000692681	9.92532E-05	1.62961E-05	0	5	0	
0.0463333	-0.00112733	-0.00102631	0.000106211	2.26118E-05	0	5	0	
0.0465	0.00140162	0.00111577	8.84988E-05	2.14513E-05	0	5	0	
0.0466667	0.00533198	0.000799915	9.47522E-05	2.37681E-05	0	5	0	
0.0468333	-0.00897237	0.000285124	0.00011228	1.92719E-05	0	5	0	
0.047	0.0109898	-0.00188203	0.000160491	2.25443E-05	0	5	0	
0.0471667	-0.00397005	0.0015017	0.000172717	2.75348E-05	0	5	0	
0.0473333	0.000473443	-0.000491438	0.000160468	2.93744E-05	0	5	0	
0.0475	0.000827547	0.000781744	0.000115938	2.28093E-05	0	5	0	
0.0476667	0.00285345	-0.000440883	9.65736E-05	1.60954E-05	0	5	0	
0.0478333	-0.00197644	-4.70336E-05	6.93842E-05	1.34544E-05	0	5	0	
0.048	0.00773786	-2.77499E-05	7.00751E-05	1.25503E-05	0	5	0	
0.0481667	-0.00504368	0.0014592	9.23056E-05	1.39865E-05	0	5	0	
0.0483333	-0.00390282	0.000202376	0.000112031	1.24385E-05	0	5	0	
0.0485	0.0048193	-0.00172487	0.000118732	1.55408E-05	0	5	0	
0.0486667	0.00734475	0.000607673	0.000127897	2.2088E-05	0	5	0	
0.0488333	-0.00267487	0.000328688	0.0001663	3.46759E-05	0	5	0	
0.049	-0.00501098	0.000820292	0.000166059	4.02376E-05	0	5	0	
0.0491667	-0.00253953	-0.000695681	0.000145174	4.36583E-05	0	5	0	
0.0493333	0.00873193	-0.000369908	0.000112604	4.47663E-05	0	5	0	
0.0495	-0.0028401	-0.000159517	0.000128466	3.73266E-05	0	5	0	
0.0496667	-0.00185419	0.00262729	0.000164163	4.04952E-05	0	5	0	
0.0498333	0.00595512	-0.00399075	0.000130641	4.26689E-05	0	5	0	
0.05	-0.0076453	0.00111588	0.000147373	6.73739E-05	0	5	0	
0.0501667	-0.00373437	0.000816957	0.000113744	6.44533E-05	0	5	0	
0.0503333	0.00568179	0.00122566	0.000157814	5.38401E-05	0	5	0	
0.0505	-0.00256876	-0.0018046	0.000132976	3.72014E-05	0	5	0	
0.0506667	0.00136382	0.000208287	0.000114251	2.93931E-05	0	5	0	
0.0508333	-0.00662814	-0.00125701	8.06574E-05	2.68451E-05	0	5	0	
0.051	0.0038947	0.00307571	7.81547E-05	2.89281E-05	0	5	0	
0.0511667	-5.71574E-05	-0.000801644	8.3201E-05	4.26054E-05	0	5	0	
0.0513333	-0.000711338	-0.00307036	6.93443E-05	6.81131E-05	0	5	0	
0.0515	-0.00418529	0.00138225	4.8278E-05	6.47359E-05	0	5	0	
0.0516667	0.00467982	0.00322464	6.36336E-05	6.90883E-05	0	5	0	
0.0518333	-0.00299749	-0.00241597	7.58485E-05	5.23609E-05	0	5	0	
0.052	0.00288917	8.47247E-05	7.50025E-05	5.89586E-05	0	5	0	
0.0521667	-0.00390522	-0.000966899	6.821E-05	3.74201E-05	0	5	0	
0.0523333	0.00352891	0.00170632	7.08448E-05	3.04239E-05	0	5	0	
0.0525	-0.00553989	0.000444597	8.73911E-05	3.46167E-05	0	5	0	
0.0526667	0.00550018	-0.00148181	0.000109937	3.8078E-05	0	5	0	
0.0528333	-0.0011126	-0.000374643	0.0001128	4.18269E-05	0	5	0	
0.053	0.00024753	0.00106555	8.44236E-05	2.36826E-05	0	5	0	
0.0531667	-0.00848584	-0.000365352	6.81026E-05	2.93618E-05	0	5	0	
0.0533333	0.00565486	0.00078123	9.08375E-05	2.71508E-05	0	5	0	
0.0535	-0.00225853	-0.00106804	0.000101604	3.42891E-05	0	5	0	
0.0536667	0.00619726	0.000234972	9.777E-05	3.17608E-05	0	5	0	
0.0538333	-0.0037245	-0.000191772	9.17568E-05	2.77682E-05	0	5	0	
0.054	0.00289446	0.00194027	9.69029E-05	2.73589E-05	0	5	0	
0.0541667	-0.00639902	-0.00163994	8.70533E-05	3.05446E-05	0	5	0	
0.0543333	0.00508827	0.00157569	9.88948E-05	3.76701E-05	0	5	0	
0.0545	-0.00128291	-0.00185591	0.000107366	4.03116E-05	0	5	0	
0.0546667	0.00288682	0.00102448	0.000100213	4.02152E-05	0	5	0	
0.0548333	-0.00480806	-0.000109843	6.87809E-05	3.50493E-05	0	5	0	
0.055	0.00588174	0.00125683	7.42101E-05	2.67473E-05	0	5	0	
0.0551667	0.000693221	-0.00183872	8.78093E-05	2.30796E-05	0	5	0	
0.0553333	0.00429129	0.000548069	7.77387E-05	2.28001E-05	0	5	0	
0.0555	-0.00188849	-0.000453927	6.9246E-05	2.62859E-05	0	5	0	
0.0556667	-0.00099938	0.00182584	5.16261E-05	2.61487E-05	0	5	0	
0.0558333	-0.00265333	-0.00142183	5.61129E-05	2.73759E-05	0	5	0	
0.056	0.00677601	-1.98677E-05	6.85827E-05	3.11274E-05	0	5	0	
0.0561667	-0.000843259	-1.68293E-05	0.000100431	2.4206E-05	0	5	0	
0.0563333	0.00195634	0.00054498	9.16252E-05	1.86812E-05	0	5	0	
0.0565	-0.00418074	0.000454405	8.55991E-05	1.16105E-05	0	5	0	
0.0566667	0.00261749	-0.00127318	5.93473E-05	1.36456E-05	0	5	0	
0.0568333	-0.00450444	-0.00010966	7.69208E-05	1.65971E-05	0	5	0	
0.057	0.00507647	0.00192719	7.34295E-05	2.25883E-05	0	5	0	
0.0571667	-0.00432316	-0.00212479	9.45658E-05	2.9074E-05	0	5	0	
0.0573333	0.00320827	0.00171296	8.56233E-05	3.60246E-05	0	5	0	
0.0575	-0.00533577	0.000496829	8.91783E-05	3.33053E-05	0	5	0	
0.0576667	0.00165781	-0.00139168	7.98319E-05	2.91771E-05	0	5	0	
0.0578333	-0.00465037	-0.000910171	8.53097E-05	2.99753E-05	0	5	0	
0.058	0.00249771	0.00176077	6.72796E-05	3.17664E-05	0	5	0	
0.0581667	-0.00508645	0.000268938	6.98604E-05	3.56634E-05	0	5	0	
0.0583333	0.00305613	-0.00125428	7.31634E-05	2.83082E-05	0	5	0	
0.0585	-0.00417877	0.000624285	8.06692E-05	3.14476E-05	0	5	0	
0.0586667	0.00455091	-0.000359514	8.24747E-05	3.28216E-05	0	5	0	
0.0588333	-0.00632032	0.000614669	8.58227E-05	3.12108E-05	0	5	0	
0.059	0.00310317	-0.000497997	9.60647E-05	2.18246E-05	0	5	0	
0.0591667	-0.00299516	0.000176115	8.33825E-05	1.30792E-05	0	5	0	
0.0593333	0.00242115	0.000708764	7.44905E-05	1.06716E-05	0	5	0	
0.0595	-0.00161388	0.00115779	5.11279E-05	1.5621E-05	0	5	0	
0.0596667	0.00367279	-0.00246199	5.19369E-05	2.15293E-05	0	5	0	
0.0598333	-0.00481112	0.00125289	5.98087E-05	3.60195E-05	0	5	0	
0.06	0.00465109	0.00140492	9.23873E-05	4.48909E-05	0	5	0	
0.0601667	-0.00202466	-0.000403279	9.7136E-05	3.89178E-05	0	5	0	
0.0603333	0.00223645	-0.00196158	7.84502E-05	3.7591E-05	0	5	0	
0.0605	-0.00256241	0.00267092	5.07082E-05	3.31825E-05	0	5	0	
0.0606667	0.00418032	-0.000434674	5.11582E-05	4.86525E-05	0	5	0	
0.0608333	-0.00418554	-0.000569327	7.06025E-05	4.33253E-05	0	5	0	
0.061	0.00647021	-0.00138058	8.9797E-05	4.37995E-05	0	5	0	
0.0611667	-0.00274997	0.00301103	0.000107035	4.24951E-05	0	5	0	
0.0613333	-0.000103481	-0.00174835	9.31792E-05	4.57858E-05	0	5	0	
0.0615	-0.000524658	0.000437724	6.1693E-05	4.17294E-05	0	5	0	
0.0616667	0.0041474	-0.00120489	4.25418E-05	3.25146E-05	0	5	0	
0.0618333	-0.00453101	0.00209404	5.66983E-05	3.47301E-05	0	5	0	
0.062	0.00368174	-0.00176104	8.0284E-05	3.88344E-05	0	5	0	
0.0621667	-0.0030023	0.000907388	8.3564E-05	4.07095E-05	0	5	0	
0.0623333	0.0012502	-0.000695421	7.58881E-05	3.66485E-05	0	5	0	
0.0625	-0.00256482	0.000330863	5.83089E-05	2.80586E-05	0	5	0	
0.0626667	0.00368971	0.000420839	5.71902E-05	2.02155E-05	0	5	0	
0.0628333	-0.00061977	-1.37779E-05	4.92371E-05	1.47275E-05	0	5	0	
0.063	0.00207943	-0.00145768	5.26858E-05	2.67429E-05	0	5	0	
0.0631667	-0.00366088	0.00207494	4.8999E-05	3.9094E-05	0	5	0	
0.0633333	0.00438657	-0.000892758	6.47943E-05	4.34178E-05	0	5	0	
0.0635	-0.00276632	0.000174747	7.14023E-05	3.01904E-05	0	5	0	
0.0636667	0.00479693	1.17718E-05	7.34681E-05	1.66385E-05	0	5	0	
0.0638333	-0.00270693	0.00014131	7.18349E-05	1.20127E-05	0	5	0	
0.064	0.00482443	4.24322E-05	7.47003E-05	1.91865E-05	0	5	0	
0.0641667	-0.00350569	0.000546502	8.2877E-05	2.86873E-05	0	5	0	
0.0643333	0.00370109	-0.000479018	7.97397E-05	3.61781E-05	0	5	0	
0.0645	-0.00333208	0.00104275	7.58227E-05	3.79586E-05	0	5	0	
0.0646667	0.00495487	2.33183E-05	7.73576E-05	2.93032E-05	0	5	0	
0.0648333	-0.0105573	-0.00174283	0.000102204	2.54773E-05	0	5	0	
0.065	0.0097273	0.00165177	0.000142628	2.25191E-05	0	5	0	
0.0651667	-3.56745E-05	-0.000858642	0.000183252	3.01675E-05	0	5	0	
0.0653333	-0.00905774	0.00105547	0.00022797	2.7106E-05	0	5	0	
0.0655	0.0056877	-0.00200325	0.000248804	2.98565E-05	0	5	0	
0.0656667	-0.00215082	0.000984047	0.000194595	2.89926E-05	0	5	0	
0.0658333	-0.00433288	0.0017217	0.000213164	4.30812E-05	0	5	0	
0.066	0.0227036	-0.00363696	0.000281402	4.92E-05	0	5	0	
0.0661667	-0.0214162	0.0021313	0.00038987	5.8244E-05	0	5	0	
0.0663333	0.0037803	0.000912837	0.000446788	6.08479E-05	0	5	0	
0.0665	0.0108993	-0.00196325	0.000463526	5.58716E-05	0	5	0	
0.0666667	-0.00730918	7.96154E-05	0.000391	4.71485E-05	0	5	0	
0.0668333	0.00541104	0.000422031	0.000291622	2.71075E-05	0	5	0	
0.067	0.00738702	0.00139676	0.000200768	2.13818E-05	0	5	0	
0.0671667	-0.00367778	-0.000268942	0.000244599	2.72074E-05	0	5	0	
0.0673333	0.0135242	-0.00231261	0.00021646	5.26284E-05	0	5	0	
0.0675	-0.00646337	0.000548263	0.000216841	5.14418E-05	0	5	0	
0.0676667	-0.00521241	0.00295334	0.000204968	5.79928E-05	0	5	0	
0.0678333	0.00467138	-0.00106523	0.000195782	4.12111E-05	0	5	0	
0.068	0.00324321	-0.00232837	0.000166737	5.66273E-05	0	5	0	
0.0681667	-0.00554002	0.00167767	0.000149361	4.62001E-05	0	5	0	
0.0683333	0.00295237	0.00147257	0.000129569	4.49894E-05	0	5	0	
0.0685	-0.00408378	-0.00157975	0.000116213	3.54874E-05	0	5	0	
0.0686667	0.00734967	0.000474223	8.9824E-05	3.50825E-05	0	5	0	
0.0688333	-0.0111695	-0.000832722	0.000136321	3.00264E-05	0	5	0	
0.069	0.00519417	0.00150597	0.000153525	2.50491E-05	0	5	0	
0.0691667	-0.003122	-5.83348E-05	0.000143301	1.85649E-05	0	5	0	
0.0693333	0.00341547	-0.000382736	0.000115028	1.96203E-05	0	5	0	
0.0695	-0.00213265	-0.000411054	8.1504E-05	1.76547E-05	0	5	0	
0.0696667	0.00667883	0.00133257	8.56643E-05	2.01989E-05	0	5	0	
0.0698333	-0.00712374	-0.00190977	0.000109394	2.50895E-05	0	5	0	
0.07	0.00587488	0.00164576	0.000144578	2.95887E-05	0	5	0	
0.0701667	-0.0040709	-0.00026533	0.000138848	2.94892E-05	0	5	0	
0.0703333	0.00497446	-0.000489692	0.000108238	2.07539E-05	0	5	0	
0.0705	-0.0052368	-0.000765779	9.82332E-05	1.33898E-05	0	5	0	
0.0706667	0.00687073	-5.17902E-05	0.000110107	1.84604E-05	0	5	0	
0.0708333	-0.00357355	0.00230486	0.000115666	3.22224E-05	0	5	0	
0.071	-0.00524926	-0.000442262	0.00012551	3.77061E-05	0	5	0	
0.0711667	0.00467961	-0.00292341	0.000118085	4.29637E-05	0	5	0	
0.0713333	0.00160022	0.00184074	0.000150771	4.04777E-05	0	5	0	
0.0715	0.000291597	0.000127145	0.000153605	5.63736E-05	0	5	0	
0.0716667	-0.00964523	0.000439718	0.000172911	4.80749E-05	0	5	0	
0.0718333	-0.00746652	-0.000658556	0.000158569	3.67446E-05	0	5	0	
0.072	0.0220724	4.03083E-06	0.000216218	1.9136E-05	0	5	0	
0.0721667	-0.0143283	2.47059E-05	0.000271742	1.17767E-05	0	5	0	
0.0723333	0.000683621	0.00216611	0.000319278	2.49796E-05	0	5	0	
0.0725	0.0145243	-0.00304696	0.000277124	3.4796E-05	0	5	0	
0.0726667	-0.0110242	0.00077591	0.000243714	4.73991E-05	0	5	0	
0.0728333	-0.00188739	0.00184162	0.000187064	4.07222E-05	0	5	0	
0.073	0.0130475	-0.00129494	0.00019269	3.60053E-05	0	5	0	
0.0731667	-0.00399876	0.000164444	0.000209509	2.88492E-05	0	5	0	
0.0733333	0.00815758	-0.000447995	0.000233825	2.11348E-05	0	5	0	
0.0735	-0.00842987	0.00025828	0.000210362	1.24279E-05	0	5	0	
0.0736667	0.00424342	0.000229024	0.000178306	1.19251E-05	0	5	0	
0.0738333	0.0017579	-0.000206524	0.000139102	1.12642E-05	0	5	0	
0.074	0.00423145	-0.00123276	0.000121768	2.16628E-05	0	5	0	
0.0741667	-0.00673453	0.00191596	0.000111581	2.45236E-05	0	5	0	
0.0743333	0.00894863	7.00055E-05	0.000129339	3.37647E-05	0	5	0	
0.0745	-0.00488074	-0.00133735	0.000154457	3.13083E-05	0	5	0	
0.0746667	0.00173643	0.000285166	0.000128136	2.60689E-05	0	5	0	
0.0748333	-0.0027807	0.00124238	0.000107387	2.48308E-05	0	5	0	
0.075	0.0016785	-0.00131424	6.5288E-05	2.24644E-05	0	5	0	
0.0751667	-0.00337865	0.000774449	6.53929E-05	2.43861E-05	0	5	0	
0.0753333	0.00159186	-0.00124835	5.4756E-05	2.37449E-05	0	5	0	
0.0755	-0.004515	0.00221314	6.12025E-05	2.73048E-05	0	5	0	
0.0756667	0.00371992	-0.00302455	7.47614E-05	3.74194E-05	0	5	0	
0.0758333	-0.00332767	0.00127672	9.59603E-05	4.3291E-05	0	5	0	
0.076	0.00338593	-0.000665974	9.70606E-05	3.86557E-05	0	5	0	
0.0761667	-0.00151399	0.000951975	7.90429E-05	2.89519E-05	0	5	0	
0.0763333	0.00103229	-0.00165943	5.17234E-05	2.45162E-05	0	5	0	
0.0765	-0.00530827	0.00174095	4.50638E-05	3.08714E-05	0	5	0	
0.0766667	0.00569466	-0.000863125	6.65117E-05	3.45097E-05	0	5	0	
0.0768333	-0.00409273	0.000297874	9.47471E-05	3.1919E-05	0	5	0	
0.077	0.00215416	-0.000475368	0.000102484	2.84191E-05	0	5	0	
0.0771667	-0.000343917	0.00148323	7.67849E-05	3.0359E-05	0	5	0	
0.0773333	0.00539107	-0.000695095	6.06768E-05	2.9505E-05	0	5	0	
0.0775	-0.0049375	-0.000248698	6.78813E-05	2.27705E-05	0	5	0	
0.0776667	0.00230082	-0.000144607	7.49899E-05	1.76748E-05	0	5	0	
0.0778333	-0.00248311	0.000898658	7.1204E-05	1.98719E-05	0	5	0	
0.078	0.00298725	-3.72182E-05	6.50254E-05	2.28338E-05	0	5	0	
0.0781667	-0.00179342	-0.000304154	7.62969E-05	1.92436E-05	0	5	0	
0.0783333	0.00619607	-0.00123325	8.13225E-05	2.1683E-05	0	5	0	
0.0785	-0.00564705	0.00196079	0.000100866	2.46634E-05	0	5	0	
0.0786667	0.0024675	-0.000462767	0.000100438	3.34209E-05	0	5	0	
0.0788333	-0.00178717	-0.000249263	9.27184E-05	3.03842E-05	0	5	0	
0.079	0.0034379	-0.000854125	6.273E-05	2.31365E-05	0	5	0	
0.0791667	-0.00323327	0.000941578	5.48924E-05	1.76517E-05	0	5	0	
0.0793333	0.00213307	0.000480894	6.19783E-05	1.23792E-05	0	5	0	
0.0795	-0.00315448	0.000378859	6.02795E-05	1.6959E-05	0	5	0	
0.0796667	0.00360454	-0.00182957	6.26374E-05	2.30601E-05	0	5	0	
0.0798333	-0.000542442	0.00233469	6.38935E-05	3.34924E-05	0	5	0	
0.08	0.00180424	-0.00132593	5.28227E-05	3.92301E-05	0	5	0	
0.0801667	-0.0059917	-0.000800663	5.20977E-05	3.0554E-05	0	5	0	
0.0803333	0.00637736	0.00169022	8.09953E-05	2.65257E-05	0	5	0	
0.0805	-0.00231292	-5.24846E-05	0.000120573	2.68077E-05	0	5	0	
0.0806667	0.00124063	-0.000445993	0.000106757	2.97788E-05	0	5	0	
0.0808333	-0.00329906	-0.000998555	7.05206E-05	2.39501E-05	0	5	0	
0.081	0.00542658	0.00161596	6.159E-05	1.98321E-05	0	5	0	
0.0811667	-0.00447258	-0.000330196	7.77564E-05	2.34424E-05	0	5	0	
0.0813333	0.00413764	-0.000377315	9.90404E-05	2.14345E-05	0	5	0	
0.0815	-0.00156104	-0.00170003	9.18064E-05	2.49006E-05	0	5	0	
0.0816667	-0.0011804	0.002101	7.80139E-05	2.66291E-05	0	5	0	
0.0818333	-0.00434696	0.000289905	6.17266E-05	3.62929E-05	0	5	0	
0.082	0.00683095	-0.00162674	7.47741E-05	3.4877E-05	0	5	0	
0.0821667	-0.00402499	0.000171431	0.000106584	2.79411E-05	0	5	0	
0.0823333	0.00297583	-7.72896E-05	0.000108894	2.08394E-05	0	5	0	
0.0825	-0.0022281	0.00104438	8.63149E-05	2.52952E-05	0	5	0	
0.0826667	0.00341565	-0.0021489	5.95309E-05	3.17384E-05	0	5	0	
0.0828333	-0.00418303	0.000563736	6.60859E-05	3.73171E-05	0	5	0	
0.083	0.00516008	0.000617965	7.71836E-05	2.71786E-05	0	5	0	
0.0831667	-0.00580656	0.00024849	9.23808E-05	3.44578E-05	0	5	0	
0.0833333	0.00418499	-0.000782857	9.92695E-05	3.69722E-05	0	5	0	
0.0835	-0.00423189	-0.00133291	0.000105032	3.72164E-05	0	5	0	
0.0836667	0.00364321	0.00245871	9.71516E-05	2.86799E-05	0	5	0	
0.0838333	-0.00385377	-0.00139246	9.12345E-05	3.14648E-05	0	5	0	
0.084	0.00282424	0.000845654	7.83075E-05	3.92022E-05	0	5	0	
0.0841667	-0.00469527	-0.00116271	7.71539E-05	3.71538E-05	0	5	0	
0.0843333	0.00660014	0.00126685	9.56231E-05	3.04549E-05	0	5	0	
0.0845	-0.00345517	-0.000989765	0.000125185	2.5628E-05	0	5	0	
0.0846667	-0.00052229	9.30768E-05	0.000118452	2.07551E-05	0	5	0	
0.0848333	-0.00356225	-4.87546E-05	8.63306E-05	1.96558E-05	0	5	0	
0.085	0.00571577	0.00138872	7.1827E-05	2.68607E-05	0	5	0	
0.0851667	-0.00265452	-0.00268889	8.6146E-05	3.61802E-05	0	5	0	
0.0853333	0.003459	0.000934263	9.23238E-05	4.10366E-05	0	5	0	
0.0855	-0.00287819	0.000969223	9.0745E-05	3.32576E-05	0	5	0	
0.0856667	0.000523093	0.000650257	7.8593E-05	3.19996E-05	0	5	0	
0.0858333	-0.0033325	-0.00212782	6.95132E-05	3.28931E-05	0	5	0	
0.086	0.00520688	0.000143038	6.23673E-05	3.47038E-05	0	5	0	
0.0861667	-0.00497537	0.000999731	8.55864E-05	2.98051E-05	0	5	0	
0.0863333	0.00253053	0.00103151	0.000110357	3.07707E-05	0	5	0	
0.0865	-0.0040893	-0.00161178	0.000108705	3.56561E-05	0	5	0	
0.0866667	0.00229244	0.000126546	8.32489E-05	3.57237E-05	0	5	0	
0.0868333	-0.00405179	0.000515028	6.98517E-05	2.58152E-05	0	5	0	
0.087	0.00333873	0.00129527	6.68319E-05	2.37268E-05	0	5	0	
0.0871667	-0.00556077	-0.0016382	7.87506E-05	2.64558E-05	0	5	0	
0.0873333	0.00280447	-9.80589E-05	0.000100687	3.24336E-05	0	5	0	
0.0875	-0.00492184	0.00152629	0.000111031	2.59181E-05	0	5	0	
0.0876667	0.00241074	-0.000240837	0.000105175	2.4304E-05	0	5	0	
0.0878333	0.0043018	-0.000788524	0.000126557	2.40531E-05	0	5	0	
0.088	-0.0119207	0.00105486	0.000145027	2.38093E-05	0	5	0	
0.0881667	0.00882017	4.86242E-05	0.00019377	1.91373E-05	0	5	0	
0.0883333	-0.00154028	-0.000216297	0.000218161	1.45775E-05	0	5	0	
0.0885	-0.0137736	0.000121435	0.000283175	1.32987E-05	0	5	0	
0.0886667	0.0239552	-0.000794609	0.000325657	1.25331E-05	0	5	0	
0.0888333	-0.0116763	0.00118217	0.000357462	1.69789E-05	0	5	0	
0.089	-0.0138587	0.00276025	0.000422964	3.80427E-05	0	5	0	
0.0891667	0.0153709	-0.00393257	0.000421335	5.58248E-05	0	5	0	
0.0893333	-0.00966856	-0.000315163	0.000415079	7.2703E-05	0	5	0	
0.0895	-0.000343067	0.00305907	0.000375819	6.34706E-05	0	5	0	
0.0896667	0.0177911	0.000414206	0.00035238	6.13403E-05	0	5	0	
0.0898333	-0.0141776	-0.00143807	0.00035176	5.14685E-05	0	5	0	
0.09	0.013982	-0.000154692	0.000281858	4.12152E-05	0	5	0	
0.0901667	0.00240661	-0.000982499	0.000258749	3.61921E-05	0	5	0	
0.0903333	-0.0199976	0.00244269	0.000193667	3.56418E-05	0	5	0	
0.0905	0.00835005	-0.000575796	0.000234326	4.17223E-05	0	5	0	
0.0906667	0.00409152	-0.000882981	0.000253596	3.89673E-05	0	5	0	
0.0908333	-0.0117303	-2.66085E-05	0.000284983	3.20115E-05	0	5	0	
0.091	0.00184946	0.000520581	0.000198413	3.27527E-05	0	5	0	
0.0911667	0.00196545	-0.00021399	0.00015297	2.97473E-05	0	5	0	
0.0913333	-0.00112897	0.0010746	0.000153489	2.93531E-05	0	5	0	
0.0915	-0.00341772	-0.000701639	0.000205584	2.18659E-05	0	5	0	
0.0916667	0.0101208	-0.00115826	0.000205999	2.50593E-05	0	5	0	
0.0918333	-0.005758	0.00103464	0.000159132	2.27122E-05	0	5	0	
0.092	-0.000744802	0.000232411	0.000110621	2.83015E-05	0	5	0	
0.0921667	0.00260771	0.000671876	8.24252E-05	1.95387E-05	0	5	0	
0.0923333	-0.0026347	-0.00233226	9.62217E-05	2.16462E-05	0	5	0	
0.0925	-0.000741804	0.000751913	0.000117862	3.10818E-05	0	5	0	
0.0926667	0.0017027	0.00173003	0.000148602	4.70561E-05	0	5	0	
0.0928333	-0.00266208	-0.000135076	0.000144745	4.30153E-05	0	5	0	
0.093	0.00231275	-0.000968125	0.000126581	3.06918E-05	0	5	0	
0.0931667	-0.00336066	0.00101761	0.000102748	1.91252E-05	0	5	0	
0.0933333	0.00459554	-0.0014954	8.00251E-05	2.34927E-05	0	5	0	
0.0935	-0.00243635	0.00149242	6.92426E-05	2.75239E-05	0	5	0	
0.0936667	-0.00316613	0.00156479	6.77243E-05	4.63675E-05	0	5	0	
0.0938333	0.00489473	-0.00330956	8.09997E-05	6.29912E-05	0	5	0	
0.094	-0.00508846	0.00171548	0.0001274	6.53923E-05	0	5	0	
0.0941667	0.00618353	0.00108944	0.000173823	6.34495E-05	0	5	0	
0.0943333	-0.00730928	-0.00227692	0.0002177	6.0687E-05	0	5	0	
0.0945	0.00115142	0.00454475	0.000226315	6.92624E-05	0	5	0	
0.0946667	0.00999536	-0.00529418	0.000189833	7.66912E-05	0	5	0	
0.0948333	-0.00684648	-5.63788E-06	0.000207502	0.000106858	0	5	0	
0.095	-0.0040522	0.00502294	0.000201886	0.000133015	0	5	0	
0.0951667	0.0126972	-0.00386131	0.000234182	0.0001255	0	5	0	
0.0953333	-0.00906723	0.000320209	0.000189692	0.000104582	0	5	0	
0.0955	0.00618507	0.00189673	0.000185887	7.34085E-05	0	5	0	
0.0956667	0.00675531	-0.00212589	0.000156663	6.10532E-05	0	5	0	
0.0958333	-0.00870557	0.00191217	0.000166862	4.21921E-05	0	5	0	
0.096	0.00495303	-0.00122699	0.00014973	3.42704E-05	0	5	0	
0.0961667	-0.00253313	-0.00063033	0.000141615	3.56354E-05	0	5	0	
0.0963333	0.00343627	0.00135625	0.000106105	2.98924E-05	0	5	0	
0.0965	0.00265777	0.000186067	8.73499E-05	3.35401E-05	0	5	0	
0.0966667	-0.000897926	-0.00221373	0.000111852	3.87328E-05	0	5	0	
0.0968333	-0.00951774	0.00190608	0.000117969	4.42404E-05	0	5	0	
0.097	0.00178881	0.000207446	0.000122981	3.99045E-05	0	5	0	
0.0971667	-0.00153149	-5.35128E-05	8.27962E-05	2.97465E-05	0	5	0	
0.0973333	0.00072848	-0.00193563	6.74395E-05	3.3883E-05	0	5	0	
0.0975	-0.00251357	0.000944809	5.04499E-05	3.3935E-05	0	5	0	
0.0976667	0.00305618	0.00162236	6.10841E-05	3.55913E-05	0	5	0	
0.0978333	-0.00443065	-0.00120885	5.42457E-05	2.70248E-05	0	5	0	
0.098	0.000975294	0.00127853	8.57519E-05	2.63447E-05	0	5	0	
0.0981667	0.00250445	-0.00241326	9.91922E-05	2.89174E-05	0	5	0	
0.0983333	0.00143816	0.00161142	9.97599E-05	3.55351E-05	0	5	0	
0.0985	-0.00136377	0.000507727	5.77373E-05	4.37689E-05	0	5	0	
0.0986667	0.00517103	-0.00072136	4.66128E-05	3.50172E-05	0	5	0	
0.0988333	-0.0030127	-0.000359729	6.83228E-05	3.33195E-05	0	5	0	
0.099	0.000837241	0.00134217	7.91569E-05	2.46136E-05	0	5	0	
0.0991667	-0.00242908	-0.000892596	7.44657E-05	2.87606E-05	0	5	0	
0.0993333	0.00382864	-0.000279968	6.31525E-05	1.96021E-05	0	5	0	
0.0995	-0.00221466	-0.000543228	6.28236E-05	1.99245E-05	0	5	0	
0.0996667	0.00249821	0.00138181	6.58322E-05	1.97866E-05	0	5	0	
0.0998333	-0.00453368	-0.000642699	7.22769E-05	2.32234E-05	0	5	0	
0.1	0.00290775	-0.000374069	8.40915E-05	2.59888E-05	0	5	0	
0.100167	-0.00268	-0.000226004	7.434E-05	2.28659E-05	0	5	0	
0.100333	0.00242402	0.00236906	7.13552E-05	3.33358E-05	0	5	0	
0.1005	-0.00293927	-0.00228069	6.04823E-05	3.75241E-05	0	5	0	
0.100667	0.00290488	5.28205E-05	8.12092E-05	4.23397E-05	0	5	0	
0.100833	-0.00349434	0.000639513	8.9284E-05	2.7924E-05	0	5	0	
0.101	0.00302414	0.00100357	0.000101222	3.48904E-05	0	5	0	
0.101167	-0.00327515	-0.00179913	9.19076E-05	4.17441E-05	0	5	0	
0.101333	0.00569924	-7.71592E-05	9.07531E-05	4.30697E-05	0	5	0	
0.1015	-0.00339066	0.00108437	8.3075E-05	2.51474E-05	0	5	0	
0.101667	-0.000808671	0.000735223	8.00009E-05	2.44871E-05	0	5	0	
0.101833	-0.00205288	-0.00104306	6.64573E-05	3.04273E-05	0	5	0	
0.102	0.00452579	-0.00055918	7.01423E-05	3.12919E-05	0	5	0	
0.102167	-0.0039931	0.000658487	8.09639E-05	2.0299E-05	0	5	0	
0.102333	0.00309783	0.00105623	8.33927E-05	2.18679E-05	0	5	0	
0.1025	-0.00141188	-0.00283679	7.93216E-05	3.49889E-05	0	5	0	
0.102667	0.00203832	0.00208237	6.93922E-05	4.53476E-05	0	5	0	
0.102833	-0.00198439	-0.000571672	5.70674E-05	4.21948E-05	0	5	0	
0.103	0.0052913	0.000532281	5.78962E-05	3.06265E-05	0	5	0	
0.103167	-0.00576499	-0.00252619	8.40828E-05	3.15966E-05	0	5	0	
0.103333	0.00345627	0.00217553	0.000115301	3.66152E-05	0	5	0	
0.1035	-0.00208846	-0.0014607	0.000120977	4.24809E-05	0	5	0	
0.103667	0.00152264	0.000476861	8.87072E-05	3.59543E-05	0	5	0	
0.103833	-0.00321365	-0.00173234	6.41924E-05	3.05241E-05	0	5	0	
0.104	0.00614815	0.00159074	6.32385E-05	2.99629E-05	0	5	0	
0.104167	-0.00524219	-0.00100648	9.35831E-05	3.04216E-05	0	5	0	
0.104333	0.000148218	0.00173263	0.000105031	3.35429E-05	0	5	0	
0.1045	-0.00241959	-0.00269422	9.18029E-05	3.60833E-05	0	5	0	
0.104667	0.00234578	0.00199762	8.01029E-05	4.143E-05	0	5	0	
0.104833	-0.00453574	-0.00249206	8.55678E-05	4.20117E-05	0	5	0	
0.105	0.00768316	0.00276064	0.000111726	4.73528E-05	0	5	0	
0.105167	-0.00486203	-0.00153648	0.00012595	4.45389E-05	0	5	0	
0.105333	0.00207895	0.000948247	0.000113313	4.00917E-05	0	5	0	
0.1055	-0.00520882	-0.000988287	9.12389E-05	2.92028E-05	0	5	0	
0.105667	0.0029415	0.000604135	8.60722E-05	2.70318E-05	0	5	0	
0.105833	-0.000518474	-0.000415816	0.000100761	2.62436E-05	0	5	0	
0.106	0.00160341	0.00122073	0.000103204	2.63513E-05	0	5	0	
0.106167	-0.0031028	-0.00114183	8.66729E-05	2.48152E-05	0	5	0	
0.106333	0.00320875	0.000620256	8.48494E-05	2.37749E-05	0	5	0	
0.1065	-0.00479738	0.000344521	8.79474E-05	1.91672E-05	0	5	0	
0.106667	0.00415634	0.00011632	0.00010241	1.21114E-05	0	5	0	
0.106833	-0.00128812	0.000328953	9.52333E-05	7.86251E-06	0	5	0	
0.107	0.00152426	-0.000363787	8.52509E-05	6.46769E-06	0	5	0	
0.107167	-0.00208343	-0.000751949	6.45178E-05	9.96017E-06	0	5	0	
0.107333	0.00245512	0.00101841	6.53451E-05	1.3174E-05	0	5	0	
0.1075	-0.00177104	0.000724892	6.70897E-05	1.66458E-05	0	5	0	
0.107667	0.00180616	-0.00099202	6.68431E-05	1.80494E-05	0	5	0	
0.107833	-0.0032678	-5.94939E-05	6.75923E-05	2.29871E-05	0	5	0	
0.108	0.00612712	0.000313068	8.55848E-05	2.43943E-05	0	5	0	
0.108167	-0.00449848	3.04521E-05	9.64419E-05	2.31316E-05	0	5	0	
0.108333	0.000266276	0.000741115	0.000102462	2.19129E-05	0	5	0	
0.1085	0.00748492	-0.000917615	9.01409E-05	1.91011E-05	0	5	0	
0.108667	-0.011196	-0.00144019	0.000122124	2.73807E-05	0	5	0	
0.108833	0.00758534	0.00247733	0.000168412	3.48068E-05	0	5	0	
0.109	0.0039025	-0.00192886	0.000221549	4.20328E-05	0	5	0	
0.109167	-0.0188464	0.00110277	0.000253963	4.39246E-05	0	5	0	
0.109333	0.0226949	-0.000130813	0.000302222	3.88031E-05	0	5	0	
0.1095	-0.00612563	-0.00112137	0.000374746	4.37937E-05	0	5	0	
0.109667	-0.0222757	0.00280012	0.000392934	4.2384E-05	0	5	0	
0.109833	0.0101541	-0.0010407	0.00037585	4.76247E-05	0	5	0	
0.11	0.0110764	-0.00201338	0.000337071	5.40334E-05	0	5	0	
0.110167	-0.0186694	0.00196595	0.000335786	5.20689E-05	0	5	0	
0.110333	0.0121349	0.00016013	0.000312428	4.71535E-05	0	5	0	
0.1105	-0.0106464	0.000611488	0.000264856	2.88863E-05	0	5	0	
0.110667	-0.00327954	-0.00038087	0.00022342	2.44437E-05	0	5	0	
0.110833	0.00703897	-0.00203747	0.000219244	2.89822E-05	0	5	0	
0.111	-0.00771166	0.00171617	0.000186277	3.47037E-05	0	5	0	
0.111167	-0.00902556	0.000266251	0.000250541	3.90201E-05	0	5	0	
0.111333	0.0111474	-0.000636105	0.000313088	2.60534E-05	0	5	0	
0.1115	-0.0102965	0.000232488	0.000340845	2.00727E-05	0	5	0	
0.111667	-0.000540985	-0.000706992	0.000260249	1.25167E-05	0	5	0	
0.111833	0.0023387	0.000814603	0.000142973	1.39068E-05	0	5	0	
0.112	0.00548483	0.00017704	0.000114618	2.42507E-05	0	5	0	
0.112167	-0.00435198	-0.00114128	9.68919E-05	2.71059E-05	0	5	0	
0.112333	-0.00434692	-0.000443172	8.60555E-05	2.98458E-05	0	5	0	
0.1125	0.0050245	0.000441	9.65703E-05	1.7428E-05	0	5	0	
0.112667	-0.000879148	0.000517066	0.000107286	1.54471E-05	0	5	0	
0.112833	-0.00574255	-0.000790702	0.000133588	1.26581E-05	0	5	0	
0.113	0.00677257	3.89833E-05	0.000137166	1.73053E-05	0	5	0	
0.113167	-0.00542497	-0.000400041	0.000134628	1.86395E-05	0	5	0	
0.113333	-0.00251698	8.16067E-05	0.000112631	1.93626E-05	0	5	0	
0.1135	0.00159927	-0.000684049	8.81038E-05	1.85023E-05	0	5	0	
0.113667	0.00211005	0.000757415	6.07348E-05	1.84337E-05	0	5	0	
0.113833	-0.00451842	-0.000636777	6.43452E-05	2.20491E-05	0	5	0	
0.114	0.00714494	0.000224103	8.44758E-05	2.40082E-05	0	5	0	
0.114167	-0.00310737	-0.00119292	0.000100703	2.35986E-05	0	5	0	
0.114333	-0.00604423	0.00286423	9.25913E-05	3.04529E-05	0	5	0	
0.1145	0.00234474	-0.00342882	9.99923E-05	4.05637E-05	0	5	0	
0.114667	0.00523202	0.00055192	0.000167974	6.20248E-05	0	5	0	
0.114833	-0.00871341	0.00152235	0.000235378	7.31641E-05	0	5	0	
0.115	0.000652745	0.000430553	0.000265831	6.92528E-05	0	5	0	
0.115167	0.00192969	-0.00018834	0.000237478	5.5223E-05	0	5	0	
0.115333	0.00505942	-0.00193254	0.000167782	4.22655E-05	0	5	0	
0.1155	0.00209736	-0.000372097	0.00014911	3.91456E-05	0	5	0	
0.115667	-0.00923586	0.00473644	0.000119027	5.1681E-05	0	5	0	
0.115833	0.00659572	-0.00410955	0.000170454	6.43993E-05	0	5	0	
0.116	-0.00359259	0.0002346	0.000220273	9.78967E-05	0	5	0	
0.116167	0.00569002	0.00126861	0.000275052	9.18843E-05	0	5	0	
0.116333	0.00221934	0.000994189	0.000242971	7.6938E-05	0	5	0	
0.1165	-0.00635759	-0.00144641	0.000183863	3.74793E-05	0	5	0	
0.116667	0.00670036	-0.000919904	0.00013043	3.10478E-05	0	5	0	
0.116833	-0.00288931	0.000854533	0.000128505	2.445E-05	0	5	0	
0.117	-0.00377026	0.000601365	8.98771E-05	3.23053E-05	0	5	0	
0.117167	0.00274503	-0.000701735	7.60732E-05	2.63047E-05	0	5	0	
0.117333	0.00215419	6.23919E-05	0.000107705	2.38131E-05	0	5	0	
0.1175	-0.00936895	0.000158343	0.000141543	1.42556E-05	0	5	0	
0.117667	0.00328743	0.000573104	0.00017244	1.49905E-05	0	5	0	
0.117833	-0.00321169	-0.000646205	0.000116967	1.55292E-05	0	5	0	
0.118	-0.000420511	-0.000618779	9.69388E-05	1.63575E-05	0	5	0	
0.118167	-0.00255363	0.00111444	6.37425E-05	1.35074E-05	0	5	0	
0.118333	0.00308969	-0.00025009	8.9015E-05	2.24638E-05	0	5	0	
0.1185	0.0015334	-0.000904541	9.06056E-05	3.34805E-05	0	5	0	
0.118667	0.000359067	0.000137407	9.19724E-05	3.70863E-05	0	5	0	
0.118833	-0.00136644	0.000703041	9.99297E-05	3.03097E-05	0	5	0	
0.119	0.00556723	0.0001131	0.000118052	2.87106E-05	0	5	0	
0.119167	-0.00131216	-0.0014915	0.000133047	3.98517E-05	0	5	0	
0.119333	-4.21519E-05	0.000838883	0.000111958	4.52063E-05	0	5	0	
0.1195	-7.19758E-05	0.000965223	7.8945E-05	3.39487E-05	0	5	0	
0.119667	0.00234257	-0.00169459	4.4269E-05	2.39098E-05	0	5	0	
0.119833	-0.00320855	0.000415543	4.60188E-05	2.30498E-05	0	5	0	
0.12	-0.000537959	-9.66243E-05	6.08653E-05	2.22862E-05	0	5	0	
0.120167	-0.000488143	0.0010792	8.04423E-05	1.70552E-05	0	5	0	
0.120333	0.000527094	-0.000906773	8.24295E-05	1.27248E-05	0	5	0	
0.1205	-0.0028096	2.6481E-05	6.74299E-05	1.63361E-05	0	5	0	
0.120667	0.0032863	0.000208914	6.14631E-05	1.27738E-05	0	5	0	
0.120833	-0.00330892	-8.92168E-05	6.16653E-05	1.21033E-05	0	5	0	
0.121	0.000683949	0.000564961	7.63769E-05	1.02825E-05	0	5	0	
0.121167	0.0019838	-0.000173058	7.51564E-05	1.23937E-05	0	5	0	
0.121333	0.00133037	-2.15623E-05	6.2942E-05	1.08295E-05	0	5	0	
0.1215	-0.000195625	0.000167554	6.03043E-05	8.63383E-06	0	5	0	
0.121667	0.00269562	-0.00033483	6.6561E-05	9.28858E-06	0	5	0	
0.121833	-0.00111004	0.00109459	8.62104E-05	1.11421E-05	0	5	0	
0.122	0.000320335	-4.13605E-05	8.61631E-05	1.40317E-05	0	5	0	
0.122167	0.000813393	-0.0002529	7.23529E-05	1.65534E-05	0	5	0	
0.122333	0.00380365	-0.00261432	5.34088E-05	3.83184E-05	0	5	0	
0.1225	0.000258668	0.00394147	5.43711E-05	5.89897E-05	0	5	0	
0.122667	0.000887054	-0.000193227	5.43563E-05	6.46979E-05	0	5	0	
0.122833	-0.00267996	-0.00220681	5.83758E-05	4.36432E-05	0	5	0	
0.123	0.00265616	0.000222418	5.99083E-05	3.83948E-05	0	5	0	
0.123167	-0.000226844	-0.000315999	6.87758E-05	4.1311E-05	0	5	0	
0.123333	0.000736315	0.00216027	7.13275E-05	4.52483E-05	0	5	0	
0.1235	-0.00203925	-0.000919806	7.58055E-05	4.24641E-05	0	5	0	
0.123667	0.00139441	-0.00121225	8.9939E-05	5.40895E-05	0	5	0	
0.123833	-0.00449875	0.000517816	9.5504E-05	4.97597E-05	0	5	0	
0.124	0.00376094	0.00127367	0.000104574	4.55363E-05	0	5	0	
0.124167	0.000219871	-0.000460596	0.000107427	2.35572E-05	0	5	0	
0.124333	-0.00170829	-0.000838936	0.000121175	2.16933E-05	0	5	0	
0.1245	-6.47502E-05	0.000406194	0.000111113	1.87083E-05	0	5	0	
0.124667	0.00163698	0.00109789	9.44401E-05	2.45135E-05	0	5	0	
0.124833	-0.00170667	-0.00054114	7.66575E-05	2.58745E-05	0	5	0	
0.125	0.00175677	-0.000315453	7.40742E-05	1.75629E-05	0	5	0	
0.125167	-0.000700844	0.000474336	7.58233E-05	1.02396E-05	0	5	0	
0.125333	0.00133004	-0.000384188	7.27155E-05	9.9178E-06	0	5	0	
0.1255	-0.00191972	0.000959424	6.44898E-05	1.1039E-05	0	5	0	
0.125667	0.00247787	3.74919E-05	6.96548E-05	1.26845E-05	0	5	0	
0.125833	-4.10071E-05	-0.000276895	7.98197E-05	9.82988E-06	0	5	0	
0.126	0.000670182	-0.000560751	7.64791E-05	9.0548E-06	0	5	0	
0.126167	-0.00127836	-0.000624573	6.25854E-05	1.14608E-05	0	5	0	
0.126333	0.00403474	0.00218942	6.25297E-05	1.82543E-05	0	5	0	
0.1265	-0.00373741	-0.00056556	9.10091E-05	2.85349E-05	0	5	0	
0.126667	0.00417314	-0.000765614	0.000120978	2.75814E-05	0	5	0	
0.126833	-0.00127351	-0.00110173	0.000128835	2.92533E-05	0	5	0	
0.127	0.0022084	0.00172509	9.1736E-05	2.74369E-05	0	5	0	
0.127167	-0.00139618	0.000667773	6.32038E-05	2.96378E-05	0	5	0	
0.127333	0.000493479	-0.000661094	5.02278E-05	2.42681E-05	0	5	0	
0.1275	-0.00121476	-0.0008741	7.19677E-05	2.42738E-05	0	5	0	
0.127667	0.00248444	0.00137244	8.49042E-05	2.28506E-05	0	5	0	
0.127833	-0.00229249	0.000349268	9.44945E-05	2.48921E-05	0	5	0	
0.128	0.00263144	-0.0011459	9.7173E-05	1.83703E-05	0	5	0	
0.128167	-0.00418581	0.000659443	0.000101494	1.81628E-05	0	5	0	
0.128333	0.00240619	0.000121214	9.65166E-05	1.42596E-05	0	5	0	
0.1285	-0.00267002	0.000931312	7.88467E-05	1.23655E-05	0	5	0	
0.128667	0.00505535	-0.000558529	7.75883E-05	1.26389E-05	0	5	0	
0.128833	0.00140614	-0.000284074	8.66943E-05	1.14581E-05	0	5	0	
0.129	4.80811E-05	0.000779592	0.000105726	1.418E-05	0	5	0	
0.129167	-0.00531871	-0.00012855	0.00012275	1.5591E-05	0	5	0	
0.129333	0.00905671	-0.000337142	0.000133442	2.52303E-05	0	5	0	
0.1295	-0.00552675	0.0020059	0.000154322	2.9738E-05	0	5	0	
0.129667	-0.00341789	-0.00169378	0.000191224	3.50183E-05	0	5	0	
0.129833	0.0119687	0.000376911	0.000207447	2.87168E-05	0	5	0	
0.13	-0.00724931	0.00125921	0.000201589	2.3069E-05	0	5	0	
0.130167	-0.0024412	-0.000860378	0.000259576	1.96216E-05	0	5	0	
0.130333	0.0194637	-0.000985178	0.000370783	3.45948E-05	0	5	0	
0.1305	-0.0207196	0.00257167	0.000435175	4.86032E-05	0	5	0	
0.130667	0.00530771	-0.00107169	0.000439875	4.89279E-05	0	5	0	
0.130833	0.00872444	-0.00157522	0.000395697	4.32735E-05	0	5	0	
0.131	-0.0115869	0.00128601	0.000344879	3.52146E-05	0	5	0	
0.131167	0.00775189	0.000485015	0.000284556	4.00987E-05	0	5	0	
0.131333	-0.000344225	-9.56854E-05	0.000270587	3.4271E-05	0	5	0	
0.1315	-0.00881313	-0.000258346	0.000330459	3.42486E-05	0	5	0	
0.131667	0.0157207	-0.00149714	0.000307522	2.95971E-05	0	5	0	
0.131833	-0.00421729	0.00147752	0.000251489	3.14298E-05	0	5	0	
0.132	-0.00773414	0.000508144	0.000204116	3.33288E-05	0	5	0	
0.132167	0.00696578	-0.000161968	0.0001926	2.3495E-05	0	5	0	
0.132333	0.0045018	0.000207889	0.000233349	2.38288E-05	0	5	0	
0.1325	-0.010083	-0.000224976	0.000255499	2.06928E-05	0	5	0	
0.132667	0.00253995	-0.00037204	0.00024441	2.46701E-05	0	5	0	
0.132833	0.00179204	-7.31114E-05	0.000156998	1.60133E-05	0	5	0	
0.133	0.00299807	0.00105871	0.000101675	1.56357E-05	0	5	0	
0.133167	3.26278E-05	-0.00112789	0.000123234	1.56983E-05	0	5	0	
0.133333	0.00290645	0.000236009	0.00012903	2.1852E-05	0	5	0	
0.1335	0.000480551	-0.000609282	9.51539E-05	1.71131E-05	0	5	0	
0.133667	-0.00347944	0.00115365	4.90657E-05	2.00989E-05	0	5	0	
0.133833	0.00290258	-0.000854067	8.22028E-05	1.73713E-05	0	5	0	
0.134	0.00338306	-0.000256881	0.000139448	1.79208E-05	0	5	0	
0.134167	-0.00638464	0.0002442	0.000171993	1.60095E-05	0	5	0	
0.134333	0.00468883	0.000232033	0.00015339	1.69001E-05	0	5	0	
0.1345	-0.00420989	0.000133517	0.000116215	1.68386E-05	0	5	0	
0.134667	0.000629914	0.000247443	8.05558E-05	1.77039E-05	0	5	0	
0.134833	0.00324886	-0.000703163	5.64323E-05	2.01703E-05	0	5	0	
0.135	0.000728026	0.000466846	4.7371E-05	1.99925E-05	0	5	0	
0.135167	-0.00425027	0.000630706	5.91737E-05	1.76311E-05	0	5	0	
0.135333	-0.0017008	-0.000318152	6.14798E-05	1.32461E-05	0	5	0	
0.1355	0.00428336	-0.0015959	6.07228E-05	2.97025E-05	0	5	0	
0.135667	-0.00529268	0.00284352	9.53306E-05	4.76084E-05	0	5	0	
0.135833	0.011448	-0.00180059	0.000169983	5.90268E-05	0	5	0	
0.136	-0.0101044	0.000602973	0.000235924	4.62884E-05	0	5	0	
0.136167	-0.0105207	0.00122289	0.000214696	2.81755E-05	0	5	0	
0.136333	0.0187256	-0.00172138	0.000254971	2.49326E-05	0	5	0	
0.1365	-0.0119142	-3.68475E-05	0.000271049	4.36693E-05	0	5	0	
0.136667	-0.00328519	0.00197358	0.000264549	7.0531E-05	0	5	0	
0.136833	0.0182636	-0.001418	0.000217227	7.52338E-05	0	5	0	
0.137	-0.0100377	-0.000244698	0.000225778	5.40596E-05	0	5	0	
0.137167	-0.00717928	0.000517631	0.000228339	3.08357E-05	0	5	0	
0.137333	0.0099239	0.000373976	0.00023756	2.34448E-05	0	5	0	
0.1375	0.000208115	0.000279421	0.000210779	2.47105E-05	0	5	0	
0.137667	0.00213124	-0.000187192	0.000255476	2.83805E-05	0	5	0	
0.137833	-0.00198186	-0.00143785	0.00022065	3.58392E-05	0	5	0	
0.138	0.00342099	0.00175959	0.000168016	3.93792E-05	0	5	0	
0.138167	0.00207413	-0.000322555	0.000120941	3.91652E-05	0	5	0	
0.138333	-0.0018417	-0.000666515	8.55354E-05	2.88384E-05	0	5	0	
0.1385	-0.0031672	-0.00102529	8.95403E-05	3.19319E-05	0	5	0	
0.138667	0.00643057	0.0025792	7.88991E-05	3.82028E-05	0	5	0	
0.138833	0.00142153	-0.00174288	9.33879E-05	4.35282E-05	0	5	0	
0.139	-0.000260368	-0.000295567	8.50929E-05	4.44826E-05	0	5	0	
0.139167	-0.00178059	-0.000195743	0.000100549	2.91944E-05	0	5	0	
0.139333	0.00428352	0.00139896	8.88659E-05	2.17688E-05	0	5	0	
0.1395	-0.00443491	-0.000729107	9.44735E-05	1.55036E-05	0	5	0	
0.139667	0.00211889	-1.31662E-05	7.96672E-05	2.08575E-05	0	5	0	
0.139833	0.00195479	-0.000468732	9.07503E-05	1.93929E-05	0	5	0	
0.14	0.000229733	0.0010013	9.59988E-05	1.92541E-05	0	5	0	
0.140167	-0.000502215	-0.00133805	0.000101095	1.95049E-05	0	5	0	
0.140333	0.00199687	0.00132987	9.66427E-05	2.40631E-05	0	5	0	
0.1405	-0.00381192	-0.00098179	8.55651E-05	2.34347E-05	0	5	0	
0.140667	0.00290258	0.000381589	7.85912E-05	2.1777E-05	0	5	0	
0.140833	0.00264666	-0.000704336	7.29158E-05	2.00929E-05	0	5	0	
0.141	-0.000438785	0.00114009	6.62251E-05	1.95401E-05	0	5	0	
0.141167	0.000378882	-0.0018446	7.27537E-05	2.46867E-05	0	5	0	
0.141333	0.000841486	0.00190848	8.48668E-05	3.03667E-05	0	5	0	
0.1415	0.00148085	-0.00125514	8.78826E-05	3.38031E-05	0	5	0	
0.141667	0.0019216	0.000445024	7.22557E-05	2.78043E-05	0	5	0	
0.141833	0.00180355	-0.000749873	6.14575E-05	2.12683E-05	0	5	0	
0.142	0.002326	0.00104275	6.23137E-05	1.70476E-05	0	5	0	
0.142167	-0.000179142	-0.00118509	7.57177E-05	1.88539E-05	0	5	0	
0.142333	0.00125009	0.000935436	7.26297E-05	2.12556E-05	0	5	0	
0.1425	0.00117022	-0.00130566	7.16783E-05	2.33326E-05	0	5	0	
0.142667	0.00301836	0.00062525	6.4975E-05	2.17499E-05	0	5	0	
0.142833	0.00145993	-0.000498168	7.67247E-05	1.92585E-05	0	5	0	
0.143	0.00303067	0.00032635	7.47333E-05	1.66598E-05	0	5	0	
0.143167	-0.000734276	-0.00132541	8.27883E-05	1.75887E-05	0	5	0	
0.143333	-0.00115548	0.00168305	6.78125E-05	2.27218E-05	0	5	0	
0.1435	-0.00261392	-0.00157189	6.10898E-05	2.70919E-05	0	5	0	
0.143667	-0.00308971	0.00144352	5.66717E-05	2.97084E-05	0	5	0	
0.143833	0.0013637	-0.000414455	4.72283E-05	2.72697E-05	0	5	0	
0.144	-0.00108168	-0.000685194	5.31379E-05	2.62187E-05	0	5	0	
0.144167	0.000250554	0.000279133	6.54099E-05	2.02863E-05	0	5	0	
0.144333	0.00137693	0.00101076	0.000100915	1.58143E-05	0	5	0	
0.1445	-0.00474592	0.000246904	0.000110731	1.05789E-05	0	5	0	
0.144667	0.00128342	-0.000672187	0.000112251	1.20125E-05	0	5	0	
0.144833	-0.0014995	0.000164467	7.95548E-05	1.17288E-05	0	5	0	
0.145	0.00314949	0.00147045	8.05657E-05	1.37109E-05	0	5	0	
0.145167	-0.000839	-0.00156714	6.98407E-05	1.93773E-05	0	5	0	
0.145333	-0.0039959	0.00059307	8.5274E-05	2.66612E-05	0	5	0	
0.1455	0.000194253	6.31911E-05	8.25077E-05	2.4807E-05	0	5	0	
0.145667	0.000628736	0.00111667	9.21971E-05	2.04475E-05	0	5	0	
0.145833	0.00240362	-0.00106759	0.000100065	1.74262E-05	0	5	0	
0.146	0.00170099	6.72448E-05	9.62181E-05	1.73806E-05	0	5	0	
0.146167	0.00212922	-0.000765937	8.75821E-05	1.92632E-05	0	5	0	
0.146333	0.0011112	0.00280625	8.75284E-05	3.23263E-05	0	5	0	
0.1465	-0.000275422	-0.00291901	9.45866E-05	4.7855E-05	0	5	0	
0.146667	0.000461415	0.000430544	8.98364E-05	5.24181E-05	0	5	0	
0.146833	-8.42465E-05	0.00123376	8.59749E-05	3.59853E-05	0	5	0	
0.147	0.000496312	0.000226511	7.43669E-05	3.68353E-05	0	5	0	
0.147167	-0.00226619	-0.00208113	6.96191E-05	4.46822E-05	0	5	0	
0.147333	0.00170834	0.00101811	6.98431E-05	4.88397E-05	0	5	0	
0.1475	-0.000115642	0.000157178	9.36259E-05	3.25554E-05	0	5	0	
0.147667	-0.000611119	0.000515263	9.36176E-05	1.6983E-05	0	5	0	
0.147833	0.00360421	-0.00172777	7.65521E-05	1.5306E-05	0	5	0	
0.148	-0.00256262	0.000271629	7.65124E-05	2.28798E-05	0	5	0	
0.148167	-0.0045298	0.00119521	0.000109761	2.65633E-05	0	5	0	
0.148333	0.0128707	0.00014499	0.000148795	2.8165E-05	0	5	0	
0.1485	-0.00945093	-0.00229396	0.000179494	3.26256E-05	0	5	0	
0.148667	0.00222017	0.00246392	0.000169834	3.69675E-05	0	5	0	
0.148833	-0.00278306	-0.00173913	0.000164376	4.49878E-05	0	5	0	
0.149	-0.0103145	0.00326468	0.000125499	4.6616E-05	0	5	0	
0.149167	0.00675054	-0.00452543	0.000181685	5.77368E-05	0	5	0	
0.149333	0.0123805	0.00159532	0.000313953	6.84404E-05	0	5	0	
0.1495	-0.0212198	0.00229177	0.000414998	7.73597E-05	0	5	0	
0.149667	0.00789082	-0.000600589	0.000408992	6.93711E-05	0	5	0	
0.149833	0.00229677	-0.00307401	0.000285576	7.77142E-05	0	5	0	
0.15	0.0028129	0.00193764	0.000262362	6.9439E-05	0	5	0	
0.150167	0.00944427	0.000237065	0.000285688	6.08761E-05	0	5	0	
0.150333	0.000685323	0.00201946	0.000291283	5.093E-05	0	5	0	
0.1505	0.00123115	-0.00361874	0.000235702	5.53647E-05	0	5	0	
0.150667	0.00579088	-0.000169347	0.000155771	6.13473E-05	0	5	0	
0.150833	0.00555227	0.00278923	0.000113262	4.36052E-05	0	5	0	
0.151	-0.0186076	-0.000721017	0.000143907	4.39399E-05	0	5	0	
0.151167	0.0103506	-0.000194269	0.000170144	4.37099E-05	0	5	0	
0.151333	0.00115987	-0.00123073	0.000263393	4.04274E-05	0	5	0	
0.1515	-0.0113501	0.000773971	0.000269792	2.48994E-05	0	5	0	
0.151667	0.00662598	0.000734496	0.000244802	2.78031E-05	0	5	0	
0.151833	0.000760046	-0.000761652	0.000168553	3.22852E-05	0	5	0	
0.152	-0.00435917	0.000364405	0.000116895	2.9462E-05	0	5	0	
0.152167	-0.00174709	-0.000411856	0.000141821	1.92568E-05	0	5	0	
0.152333	0.0047787	0.000768927	0.000166882	1.95241E-05	0	5	0	
0.1525	-0.00249293	-0.000726335	0.000182606	2.35119E-05	0	5	0	
0.152667	0.00456197	0.000750629	0.000143883	2.34239E-05	0	5	0	
0.152833	-0.00461909	0.000346686	0.00011479	1.96104E-05	0	5	0	
0.153	-0.00355896	-0.000216907	8.57844E-05	2.35243E-05	0	5	0	
0.153167	0.00833929	-0.000735794	0.00011395	3.35428E-05	0	5	0	
0.153333	-0.000611087	0.000371022	0.000111927	3.46584E-05	0	5	0	
0.1535	-0.00119889	0.00100503	0.000111693	2.58448E-05	0	5	0	
0.153667	-0.00224964	-0.000174703	8.54789E-05	1.85564E-05	0	5	0	
0.153833	-0.00348169	-0.00171943	7.70934E-05	2.43811E-05	0	5	0	
0.154	-0.00186424	0.00186454	0.000113485	3.31858E-05	0	5	0	
0.154167	-0.00383604	0.000228302	0.000140083	5.03881E-05	0	5	0	
0.154333	-0.00587748	-0.00102083	0.000148292	5.57515E-05	0	5	0	
0.1545	0.00151808	0.000337034	0.000145287	4.78355E-05	0	5	0	
0.154667	0.00383784	-0.00112681	0.000116983	2.6961E-05	0	5	0	
0.154833	-0.00977575	0.00255616	0.000164512	2.18426E-05	0	5	0	
0.155	0.000212368	0.00100793	0.000195494	4.22763E-05	0	5	0	
0.155167	0.00517489	-0.00645208	0.000193389	7.98286E-05	0	5	0	
0.155333	-0.000820773	0.00688181	0.000192335	0.000105436	0	5	0	
0.1555	-0.0087108	-0.000541415	0.00013822	0.000119325	0	5	0	
0.155667	0.010999	-0.00203812	0.000198045	9.71158E-05	0	5	0	
0.155833	-0.0182985	-2.749E-06	0.000215071	7.10458E-05	0	5	0	
0.156	0.0169545	0.00168489	0.000292377	3.74725E-05	0	5	0	
0.156167	-0.00127045	0.002034	0.000278282	3.95762E-05	0	5	0	
0.156333	-0.00455105	-0.00287503	0.000204928	4.00077E-05	0	5	0	
0.1565	0.00248447	-0.000872481	0.000113896	6.74455E-05	0	5	0	
0.156667	-0.00396355	0.00275159	6.47381E-05	6.6445E-05	0	5	0	
0.156833	-0.00321604	3.29301E-05	8.63003E-05	6.40996E-05	0	5	0	
0.157	0.00483501	-0.000639549	0.000118871	3.48162E-05	0	5	0	
0.157167	-0.00297804	-0.00202037	0.000143548	3.39162E-05	0	5	0	
0.157333	-0.000419447	0.00276458	0.000107559	3.89966E-05	0	5	0	
0.1575	0.00217279	-0.000197816	5.90729E-05	4.86931E-05	0	5	0	
0.157667	0.00133825	-0.000726016	8.18436E-05	4.15486E-05	0	5	0	
0.157833	-0.0306202	0.00359978	0.000150943	4.62563E-05	0	5	0	
0.158	0.0446803	-0.012663	0.000416764	8.69269E-05	0	5	0	
0.158167	-0.0335728	0.0214588	0.000819493	0.000172199	0	5	0	
0.158333	-0.0224254	-0.0210121	0.0011278	0.000321192	0	5	0	
0.1585	0.0300159	0.00653533	0.00101097	0.000469565	0	5	0	
0.158667	0.000515735	0.0091903	0.000729128	0.000553915	0	5	0	
0.158833	-0.027506	-0.0092044	0.000552911	0.000459133	0	5	0	
0.159	0.038839	-0.00639431	0.000631698	0.000311951	0	5	0	
0.159167	-0.0620324	0.0154447	0.000752584	0.000201787	0	5	0	
0.159333	0.0415422	-0.0182404	0.000899443	0.00023649	0	5	0	
0.1595	-0.0086499	0.0207526	0.000833025	0.000305677	0	5	0	
0.159667	-0.0115042	-0.0198238	0.000636695	0.000357779	0	5	0	
0.159833	-0.00593933	0.00881157	0.000346865	0.000371396	0	5	0	
0.16	0.00746982	-0.00346948	0.000311355	0.000335361	0	5	0	
0.160167	-0.00565496	0.00953373	0.000219424	0.000260282	0	5	0	
0.160333	-0.0054512	-0.0100667	0.000233749	0.000209006	0	5	0	
0.1605	0.00926953	0.00126259	0.000133696	0.000219515	0	5	0	
0.160667	-0.00222895	0.00251989	0.000192193	0.00023235	0	5	0	
0.160833	-0.0105075	0.000825841	0.000210435	0.000171488	0	5	0	
0.161	0.0127789	-0.00303961	0.000276109	8.71441E-05	0	5	0	
0.161167	0.00350095	0.00449398	0.000239323	4.81554E-05	0	5	0	
0.161333	-0.00483981	-0.00521639	0.000175165	6.93128E-05	0	5	0	
0.1615	0.00100227	0.000682319	9.4636E-05	9.88032E-05	0	5	0	
0.161667	0.00155138	0.00338455	9.99607E-05	0.000106243	0	5	0	
0.161833	-0.00715986	0.000549849	0.000106578	9.38153E-05	0	5	0	
0.162	-7.60664E-05	-0.00470136	0.000122758	7.01891E-05	0	5	0	
0.162167	0.00485857	0.00103653	0.000105726	6.42546E-05	0	5	0	
0.162333	0.000643002	0.00198137	9.74484E-05	7.07392E-05	0	5	0	
0.1625	-0.00697364	-0.000971177	0.000117941	5.88193E-05	0	5	0	
0.162667	1.53363E-05	-0.000678815	0.000145421	4.19738E-05	0	5	0	
0.162833	0.00370654	0.000168357	0.000142559	2.34591E-05	0	5	0	
0.163	-0.00299889	0.000901283	0.000113451	3.01214E-05	0	5	0	
0.163167	0.00185591	-0.00183312	6.99518E-05	3.34597E-05	0	5	0	
0.163333	-0.000820597	0.00125604	5.40382E-05	3.5978E-05	0	5	0	
0.1635	0.000777901	-0.000179265	7.78229E-05	2.62919E-05	0	5	0	
0.163667	-0.00381957	0.00128839	0.000140162	2.62039E-05	0	5	0	
0.163833	0.000276513	-0.00322685	0.000171003	3.26844E-05	0	5	0	
0.164	0.00283816	0.00147755	0.000135968	4.27496E-05	0	5	0	
0.164167	0.000855301	0.00100251	8.46222E-05	4.59602E-05	0	5	0	
0.164333	0.00178792	-0.000554608	5.50618E-05	3.47046E-05	0	5	0	
0.1645	-0.00600978	-0.000493491	0.000105842	3.28972E-05	0	5	0	
0.164667	0.00262163	-0.000216223	0.000120996	2.2513E-05	0	5	0	
0.164833	0.00311246	0.000334077	0.000143528	2.24924E-05	0	5	0	
0.165	8.28827E-05	0.000728554	0.000110556	2.79081E-05	0	5	0	
0.165167	-0.00407822	-0.00279326	0.000113819	4.49513E-05	0	5	0	
0.165333	-0.00587906	0.00279127	0.000130493	5.6439E-05	0	5	0	
0.1655	-5.27194E-05	-0.000386026	0.000157467	5.30686E-05	0	5	0	
0.165667	0.0137649	-0.00241195	0.000272796	4.75092E-05	0	5	0	
0.165833	-0.017948	0.00124665	0.000317192	4.22176E-05	0	5	0	
0.166	0.0164762	0.00147056	0.000403113	5.0997E-05	0	5	0	
0.166167	-0.0110798	-0.00269422	0.000318978	5.07656E-05	0	5	0	
0.166333	0.0209789	0.000709448	0.000360655	5.18302E-05	0	5	0	
0.1665	-0.00796605	0.000139566	0.000288574	3.19064E-05	0	5	0	
0.166667	0.00238587	0.00108713	0.000261213	2.87268E-05	0	5	0	
0.166833	-0.00531293	-0.000891276	0.000165079	2.35542E-05	0	5	0	
0.167	0.00819636	-0.000451037	0.000160127	2.33995E-05	0	5	0	
0.167167	-0.00177129	2.55631E-05	0.000173344	2.26294E-05	0	5	0	
0.167333	0.00275308	0.00154225	0.0001597	3.55897E-05	0	5	0	
0.1675	-0.000917247	-8.01455E-05	0.000179522	3.92311E-05	0	5	0	
0.167667	0.0111916	-0.00101567	0.000238194	3.19722E-05	0	5	0	
0.167833	-0.0076564	0.000546293	0.000288614	2.13932E-05	0	5	0	
0.168	-0.00359424	0.00111496	0.000225831	2.81517E-05	0	5	0	
0.168167	0.000972405	-0.000267714	0.000128859	2.9653E-05	0	5	0	
0.168333	0.00724989	-0.000450987	7.99848E-05	2.21061E-05	0	5	0	
0.1685	-0.007148	0.000383816	0.00010939	1.66613E-05	0	5	0	
0.168667	-0.00449558	0.00100097	0.000113666	2.15674E-05	0	5	0	
0.168833	0.00639635	-0.00146096	0.00012041	3.44771E-05	0	5	0	
0.169	-0.00338752	0.00262861	0.000106678	4.30697E-05	0	5	0	
0.169167	-0.00209269	-0.00181727	0.000126009	4.30668E-05	0	5	0	
0.169333	0.00928458	-0.000714308	0.000136575	5.14876E-05	0	5	0	
0.1695	-0.00770643	0.00324442	0.000165582	5.4948E-05	0	5	0	
0.169667	-0.000401311	-0.00261456	0.000149419	6.06354E-05	0	5	0	
0.169833	-0.00197648	0.000889359	0.000110886	5.65072E-05	0	5	0	
0.17	-7.43229E-05	8.77157E-05	6.15114E-05	5.12802E-05	0	5	0	
0.170167	0.00479168	-0.000784541	6.65349E-05	4.24325E-05	0	5	0	
0.170333	8.52838E-06	0.0028524	0.000113132	3.4282E-05	0	5	0	
0.1705	-0.00979952	-0.003198	0.000160316	4.08654E-05	0	5	0	
0.170667	0.00502885	-0.00227829	0.000166337	8.04124E-05	0	5	0	
0.170833	0.0100485	0.0126384	0.000153662	0.000130967	0	5	0	
0.171	-0.0127495	-0.0151085	0.000162236	0.000208941	0	5	0	
0.171167	0.00575985	0.00561969	0.000215571	0.000221951	0	5	0	
0.171333	-0.00174553	0.000518638	0.000214256	0.000191884	0	5	0	
0.1715	0.00150252	-0.00166171	0.000169364	9.99611E-05	0	5	0	
0.171667	0.000889105	0.00125365	0.000117546	4.80203E-05	0	5	0	
0.171833	-0.00332686	0.00111247	0.000128727	3.9808E-05	0	5	0	
0.172	-0.00146926	-0.00678038	0.000103826	8.7371E-05	0	5	0	
0.172167	0.00672927	0.00352014	0.000112318	0.000149509	0	5	0	
0.172333	0.000363676	-0.00383914	0.000111657	0.000163593	0	5	0	
0.1725	-0.00700292	0.00288851	0.00014567	0.000128045	0	5	0	
0.172667	0.0015483	-0.00102762	0.000126772	7.19831E-05	0	5	0	
0.172833	0.00726787	-0.000463963	9.70421E-05	4.21702E-05	0	5	0	
0.173	-0.00697999	-0.00209357	0.000103887	4.11756E-05	0	5	0	
0.173167	-0.00342854	0.0049688	0.00015993	5.03035E-05	0	5	0	
0.173333	0.00672171	-0.00238604	0.000196112	7.01398E-05	0	5	0	
0.1735	0.000500372	-0.00129721	0.000166388	7.33399E-05	0	5	0	
0.173667	-0.00219997	-0.00109009	9.11354E-05	6.16854E-05	0	5	0	
0.173833	0.00351939	0.00342332	7.15168E-05	5.20057E-05	0	5	0	
0.174	0.00172424	-0.00081128	9.36428E-05	4.64444E-05	0	5	0	
0.174167	-0.000599428	-0.00193595	0.000113315	4.83022E-05	0	5	0	
0.174333	0.00380198	3.80172E-06	0.000109724	4.44994E-05	0	5	0	
0.1745	-0.00518803	0.00190104	0.000108231	4.81106E-05	0	5	0	
0.174667	0.00487068	-0.00141036	0.00010534	4.52994E-05	0	5	0	
0.174833	0.00149739	0.000748712	9.80349E-05	4.07298E-05	0	5	0	
0.175	-0.00418418	-0.00177845	6.80599E-05	3.29062E-05	0	5	0	
0.175167	0.00551472	0.00211999	8.37847E-05	3.68307E-05	0	5	0	
0.175333	-0.00189514	-0.0022737	8.87575E-05	4.11883E-05	0	5	0	
0.1755	0.000964708	0.00121712	9.68967E-05	3.99986E-05	0	5	0	
0.175667	-0.000540999	-2.36841E-05	9.68289E-05	2.9369E-05	0	5	0	
0.175833	-0.00268044	3.86825E-05	0.000103778	2.2498E-05	0	5	0	
0.176	0.00674428	-0.000972506	0.000117798	2.50898E-05	0	5	0	
0.176167	0.00126777	0.00124107	9.28062E-05	3.09909E-05	0	5	0	
0.176333	-0.00163511	-0.00089021	6.24459E-05	3.17784E-05	0	5	0	
0.1765	0.00367734	0.00133583	4.73686E-05	3.11927E-05	0	5	0	
0.176667	-0.00480865	-0.00120959	5.67348E-05	3.44278E-05	0	5	0	
0.176833	0.001695	-0.000714351	7.13316E-05	3.06378E-05	0	5	0	
0.177	0.00317442	0.00229506	7.9907E-05	2.4743E-05	0	5	0	
0.177167	-0.00246287	-0.00156724	8.86849E-05	3.31845E-05	0	5	0	
0.177333	-0.000692857	-0.000187771	9.15216E-05	5.23358E-05	0	5	0	
0.1775	0.00700217	-0.000254314	0.000109013	5.37095E-05	0	5	0	
0.177667	-0.00211801	0.00156662	0.000106547	4.08955E-05	0	5	0	
0.177833	-0.00129841	-0.00134918	9.75803E-05	3.13188E-05	0	5	0	
0.178	0.000465371	0.00122374	7.99418E-05	3.17194E-05	0	5	0	
0.178167	0.000639064	-0.0024484	6.35651E-05	3.62025E-05	0	5	0	
0.178333	-0.0010705	0.00310851	6.58923E-05	3.99544E-05	0	5	0	
0.1785	-0.000897235	-0.00264849	6.22768E-05	4.98594E-05	0	5	0	
0.178667	0.00092181	0.00172846	4.73517E-05	5.56441E-05	0	5	0	
0.178833	0.000916152	-0.0011375	3.33265E-05	5.15405E-05	0	5	0	
0.179	-0.00244525	0.00240549	3.68822E-05	4.71439E-05	0	5	0	
0.179167	0.000353645	-0.00386449	7.44584E-05	5.16863E-05	0	5	0	
0.179333	-0.000578304	0.0042264	9.28954E-05	6.18344E-05	0	5	0	
0.1795	0.000322172	-0.00154337	7.59961E-05	7.0782E-05	0	5	0	
0.179667	0.0010295	0.000497144	4.27016E-05	6.28409E-05	0	5	0	
0.179833	-0.00123695	-0.00113969	4.12089E-05	4.7051E-05	0	5	0	
0.18	-0.000511758	0.00196614	4.33316E-05	3.47289E-05	0	5	0	
0.180167	0.00371818	-0.00225613	4.99698E-05	3.43984E-05	0	5	0	
0.180333	-0.0046415	0.00432225	5.35327E-05	4.9036E-05	0	5	0	
0.1805	0.000360325	-0.00535599	9.17543E-05	6.65295E-05	0	5	0	
0.180667	0.00444292	0.00392378	0.000122543	8.44939E-05	0	5	0	
0.180833	-0.00507863	-0.00119062	0.000130775	0.000101714	0	5	0	
0.181	-0.00106631	-0.000180677	0.000100051	9.57975E-05	0	5	0	
0.181167	0.00463615	-0.000924923	7.51853E-05	6.67562E-05	0	5	0	
0.181333	-0.00145835	0.0016587	6.23877E-05	3.65175E-05	0	5	0	
0.1815	0.0018242	-0.00120475	6.36058E-05	2.31081E-05	0	5	0	
0.181667	-0.00231872	0.00271992	8.36863E-05	3.20395E-05	0	5	0	
0.181833	0.00101471	-0.00433016	0.000108835	4.63205E-05	0	5	0	
0.182	0.000543962	0.00409532	0.000129487	6.35311E-05	0	5	0	
0.182167	0.000489489	-0.000915389	0.000107147	7.21377E-05	0	5	0	
0.182333	-0.0012848	-0.00110207	6.87902E-05	6.04156E-05	0	5	0	
0.1825	0.000710261	0.00033633	3.56418E-05	3.8981E-05	0	5	0	
0.182667	-0.000628312	0.000426062	4.96114E-05	1.96197E-05	0	5	0	
0.182833	-0.000773385	0.00020003	8.52454E-05	1.38545E-05	0	5	0	
0.183	0.00120222	-0.000636402	0.000103974	1.04611E-05	0	5	0	
0.183167	0.00253133	-0.00037189	7.81805E-05	1.47014E-05	0	5	0	
0.183333	-0.00448793	0.000630461	5.54847E-05	1.14348E-05	0	5	0	
0.1835	0.00266467	0.000527951	5.76231E-05	2.41819E-05	0	5	0	
0.183667	0.000530949	-0.0020125	8.90275E-05	3.38742E-05	0	5	0	
0.183833	-0.000531243	0.00173195	0.000104005	4.15915E-05	0	5	0	
0.184	0.000941877	0.000276976	0.000105532	4.10704E-05	0	5	0	
0.184167	-0.000248996	-0.00133578	7.4723E-05	3.11795E-05	0	5	0	
0.184333	-0.000482355	-4.45207E-05	5.81203E-05	3.4521E-05	0	5	0	
0.1845	0.00422988	0.00103963	5.30507E-05	3.529E-05	0	5	0	
0.184667	-0.00668926	0.000554495	7.78386E-05	3.16286E-05	0	5	0	
0.184833	0.00460253	-0.00139063	0.000110499	2.39167E-05	0	5	0	
0.185	0.00341218	0.000491861	0.000130775	2.26955E-05	0	5	0	
0.185167	-0.00255799	0.000133125	0.000132828	3.53343E-05	0	5	0	
0.185333	0.000206514	2.41356E-05	8.40529E-05	3.92296E-05	0	5	0	
0.1855	0.00219604	0.000581077	5.40903E-05	4.26962E-05	0	5	0	
0.185667	-0.00193218	-0.00280604	3.07528E-05	4.85801E-05	0	5	0	
0.185833	0.000584336	0.00271109	4.91451E-05	5.46989E-05	0	5	0	
0.186	0.00150247	0.000736486	4.55961E-05	5.81778E-05	0	5	0	
0.186167	0.00834559	-0.00310307	7.52559E-05	5.49807E-05	0	5	0	
0.186333	-0.0171462	0.00168169	0.000143422	5.51365E-05	0	5	0	
0.1865	0.0125533	0.00198928	0.000236729	6.46645E-05	0	5	0	
0.186667	-0.00448092	-0.00356807	0.000239261	6.6227E-05	0	5	0	
0.186833	-0.00305563	0.00252684	0.000270206	6.97572E-05	0	5	0	
0.187	0.0198429	-0.00238809	0.000297168	5.5586E-05	0	5	0	
0.187167	-0.00846441	0.00337897	0.000325856	5.20483E-05	0	5	0	
0.187333	-0.00888747	-0.000255757	0.000356676	5.39573E-05	0	5	0	
0.1875	0.0191491	-0.00188727	0.000350607	4.52352E-05	0	5	0	
0.187667	-0.00942229	-0.00324228	0.000338147	6.50065E-05	0	5	0	
0.187833	-0.000186066	0.00631364	0.000272929	8.15689E-05	0	5	0	
0.188	0.00180081	-0.00260773	0.000233303	0.000101243	0	5	0	
0.188167	-0.000254099	0.000367818	0.000246858	7.9332E-05	0	5	0	
0.188333	0.00233904	-0.00148193	0.000187038	4.94805E-05	0	5	0	
0.1885	0.00136615	0.00282977	0.000140447	3.78809E-05	0	5	0	
0.188667	-0.0156015	-0.00197939	0.000127142	4.03624E-05	0	5	0	
0.188833	0.00243275	0.00212634	0.000171958	4.75201E-05	0	5	0	
0.189	0.00622208	-0.000933598	0.000177074	4.15115E-05	0	5	0	
0.189167	-0.00648359	-0.000295928	0.000150412	2.83209E-05	0	5	0	
0.189333	0.00881401	-7.34966E-06	0.000140183	1.95325E-05	0	5	0	
0.1895	-0.000141761	0.000386458	0.000139454	1.33745E-05	0	5	0	
0.189667	0.00720059	0.00322991	0.000172618	2.37274E-05	0	5	0	
0.189833	-0.0160111	-0.00337208	0.000160822	3.96841E-05	0	5	0	
0.19	0.0108978	0.00116467	0.000214254	7.19049E-05	0	5	0	
0.190167	-0.00369869	-0.00104302	0.000190765	7.66694E-05	0	5	0	
0.190333	-0.00202772	0.00159926	0.000157164	6.49008E-05	0	5	0	
0.1905	0.00218991	0.000532586	0.000119835	4.55426E-05	0	5	0	
0.190667	0.00221315	-0.00136379	0.000177262	3.05804E-05	0	5	0	
0.190833	-0.00629001	-0.00138235	0.00024872	4.80908E-05	0	5	0	
0.191	0.00279371	0.00288734	0.000248139	5.60262E-05	0	5	0	
0.191167	-0.00146198	-0.00256648	0.000160739	7.25542E-05	0	5	0	
0.191333	-0.00187302	0.00397946	9.3718E-05	6.97196E-05	0	5	0	
0.1915	0.00521041	-0.00500186	5.43216E-05	7.13327E-05	0	5	0	
0.191667	-0.00373595	0.00196485	7.70853E-05	8.56198E-05	0	5	0	
0.191833	0.00186056	0.00168625	8.26374E-05	0.000103683	0	5	0	
0.192	-0.0100789	-0.00171455	0.000100171	0.000100604	0	5	0	
0.192167	0.0142037	0.00100491	0.000138415	8.35143E-05	0	5	0	
0.192333	-0.0119029	-0.0036187	0.00022919	6.9561E-05	0	5	0	
0.1925	0.0150187	0.00517215	0.000311864	7.36738E-05	0	5	0	
0.192667	-0.0181041	-0.00238978	0.000358649	8.49695E-05	0	5	0	
0.192833	-0.00395745	-0.0011899	0.000291578	7.97534E-05	0	5	0	
0.193	0.0103278	0.000344737	0.000299052	5.86508E-05	0	5	0	
0.193167	0.0019813	0.00153172	0.000253865	4.70157E-05	0	5	0	
0.193333	-0.0150013	-0.00124676	0.000285045	3.33865E-05	0	5	0	
0.1935	0.015143	-0.000822115	0.000282863	3.51236E-05	0	5	0	
0.193667	-0.0139125	-0.000734073	0.00029372	3.41288E-05	0	5	0	
0.193833	-0.00088214	0.00308039	0.000253181	5.10428E-05	0	5	0	
0.194	-0.00661858	-0.00507832	0.000178199	7.0903E-05	0	5	0	
0.194167	0.0176987	0.00389306	0.000213468	8.36072E-05	0	5	0	
0.194333	-0.00845063	-0.00303205	0.000316426	7.73472E-05	0	5	0	
0.1945	-0.00741251	0.00356036	0.000331248	7.22399E-05	0	5	0	
0.194667	8.66671E-05	-0.00286328	0.000256192	6.43305E-05	0	5	0	
0.194833	0.0111823	0.00178517	0.00016583	7.26005E-05	0	5	0	
0.195	-0.00167163	-0.00141634	0.000152409	7.33604E-05	0	5	0	
0.195167	-0.003875	0.00231523	0.00014172	7.23632E-05	0	5	0	
0.195333	0.000903823	-0.00157649	0.000119965	6.69129E-05	0	5	0	
0.1955	-0.00118091	0.000575121	7.45013E-05	6.98662E-05	0	5	0	
0.195667	-0.0025156	-0.00040771	5.79581E-05	6.77495E-05	0	5	0	
0.195833	0.00163274	0.000242207	5.72189E-05	5.72102E-05	0	5	0	
0.196	0.0053385	-0.000167571	7.34607E-05	4.12912E-05	0	5	0	
0.196167	-0.000382856	0.00046799	9.14575E-05	2.69695E-05	0	5	0	
0.196333	-0.000147613	-0.00120723	7.46281E-05	2.16585E-05	0	5	0	
0.1965	0.00611919	-0.00083826	0.000110536	2.62431E-05	0	5	0	
0.196667	0.00247717	0.00181119	0.000103918	4.02002E-05	0	5	0	
0.196833	-8.99347E-06	-0.00178467	0.000113767	4.38756E-05	0	5	0	
0.197	0.00341966	0.00154112	8.24692E-05	4.40433E-05	0	5	0	
0.197167	-0.00634234	-0.00359596	9.59436E-05	4.99183E-05	0	5	0	
0.197333	0.00456369	0.00438964	0.000116871	6.44E-05	0	5	0	
0.1975	0.00267819	-0.00288043	0.000119248	7.34068E-05	0	5	0	
0.197667	0.0021179	0.00170363	9.28135E-05	6.53971E-05	0	5	0	
0.197833	-0.000693732	-0.00457535	7.23491E-05	6.6323E-05	0	5	0	
0.198	5.98917E-05	0.0060684	5.46941E-05	7.71906E-05	0	5	0	
0.198167	-0.0021549	-0.00311621	4.29134E-05	9.10279E-05	0	5	0	
0.198333	0.00298903	0.00271217	4.97301E-05	8.29259E-05	0	5	0	
0.1985	0.00169269	-0.00534737	7.55253E-05	7.77989E-05	0	5	0	
0.198667	-0.00310051	0.00418535	0.000112625	7.62812E-05	0	5	0	
0.198833	0.00573544	2.02449E-05	0.000143717	8.61268E-05	0	5	0	
0.199	0.000368781	-0.00131945	0.000164823	6.28084E-05	0	5	0	
0.199167	-0.000439287	-0.00116333	0.000148667	5.40335E-05	0	5	0	
0.199333	0.000801619	0.000762377	0.000102846	3.45989E-05	0	5	0	
0.1995	0.00206676	0.000633562	7.04381E-05	3.28669E-05	0	5	0	
0.199667	-0.0053077	0.000818036	7.68323E-05	3.37065E-05	0	5	0	
0.199833	0.00739887	-0.00219308	9.98117E-05	4.18681E-05	0	5	0	
0.2	-0.0054976	-3.19492E-05	0.000120671	4.68519E-05	0	5	0	
0.200167	0.00277318	0.000589657	0.000128385	4.3046E-05	0	5	0	
0.200333	-0.00256276	-6.47309E-07	0.000119379	3.25766E-05	0	5	0	
0.2005	0.00172486	0.000119874	9.65374E-05	3.51306E-05	0	5	0	
0.200667	-0.00369474	-0.00114566	6.67416E-05	4.04631E-05	0	5	0	
0.200833	0.000433035	0.00143498	5.89138E-05	5.18829E-05	0	5	0	
0.201	0.00130635	-0.00100597	5.78198E-05	5.58856E-05	0	5	0	
0.201167	0.000735458	7.95442E-05	6.07011E-05	4.57338E-05	0	5	0	
0.201333	-0.00467961	0.00105107	6.73896E-05	3.18724E-05	0	5	0	
0.2015	0.00412927	-0.00174893	9.01232E-05	2.55127E-05	0	5	0	
0.201667	0.00327682	0.00200269	0.000103756	2.52957E-05	0	5	0	
0.201833	0.0013884	-0.00307849	8.4929E-05	3.74217E-05	0	5	0	
0.202	-0.00248794	0.00424745	5.13536E-05	5.15072E-05	0	5	0	
0.202167	0.00123968	-0.00418847	4.3914E-05	6.98758E-05	0	5	0	
0.202333	-0.00129405	0.00317279	6.80556E-05	7.93398E-05	0	5	0	
0.2025	0.00474895	-0.00330839	9.9752E-05	7.86188E-05	0	5	0	
0.202667	0.00369777	0.00359359	0.000100539	7.2661E-05	0	5	0	
0.202833	0.00330571	-0.00288057	9.58002E-05	6.7724E-05	0	5	0	
0.203	-0.000733296	0.00274572	8.0143E-05	6.23891E-05	0	5	0	
0.203167	-0.000663077	-0.00239136	8.55929E-05	5.87261E-05	0	5	0	
0.203333	-9.4109E-06	0.0017709	7.40817E-05	5.31093E-05	0	5	0	
0.2035	0.00679697	-0.0027542	8.17092E-05	5.32197E-05	0	5	0	
0.203667	-0.00257381	0.00347215	9.64711E-05	5.78971E-05	0	5	0	
0.203833	0.000351083	-0.0024623	0.0001071	6.38738E-05	0	5	0	
0.204	-0.00105453	0.0018432	9.18386E-05	5.89716E-05	0	5	0	
0.204167	0.00193314	-0.00209451	6.59586E-05	5.03355E-05	0	5	0	
0.204333	-0.000514507	0.00155412	5.53336E-05	3.87916E-05	0	5	0	
0.2045	1.46145E-05	0.000508331	5.72912E-05	3.916E-05	0	5	0	
0.204667	-0.00368538	-0.00170667	6.42266E-05	3.06622E-05	0	5	0	
0.204833	0.00434202	-0.00140915	6.91871E-05	3.82102E-05	0	5	0	
0.205	-0.00165481	0.00464075	7.10048E-05	4.42421E-05	0	5	0	
0.205167	0.000267916	-0.00251895	8.2878E-05	6.30278E-05	0	5	0	
0.205333	0.00179976	-0.00139857	9.91792E-05	6.84079E-05	0	5	0	
0.2055	-0.00623849	0.00107202	0.000108134	5.63196E-05	0	5	0	
0.205667	0.00141567	0.000867754	0.000111165	3.64543E-05	0	5	0	
0.205833	0.000738513	-0.000592475	8.25167E-05	1.92134E-05	0	5	0	
0.206	-0.00342137	0.000492079	7.36819E-05	1.59982E-05	0	5	0	
0.206167	0.000461388	-0.00159342	5.32553E-05	2.45446E-05	0	5	0	
0.206333	-0.00293439	0.0012654	6.98629E-05	2.8337E-05	0	5	0	
0.2065	-0.00362877	0.00118001	9.7141E-05	3.65106E-05	0	5	0	
0.206667	0.00601436	-0.00180618	0.000128849	3.03764E-05	0	5	0	
0.206833	-0.00384014	-0.000989193	0.000125161	3.30836E-05	0	5	0	
0.207	0.00102226	0.00163356	0.000109803	3.02329E-05	0	5	0	
0.207167	-0.000435072	9.1238E-05	8.81527E-05	3.68798E-05	0	5	0	
0.207333	-0.0109306	-0.000551882	9.37223E-05	3.63236E-05	0	5	0	
0.2075	0.00206995	-0.000148036	0.000144217	3.38848E-05	0	5	0	
0.207667	0.0140718	-0.00195385	0.000260138	3.89584E-05	0	5	0	
0.207833	-0.00763174	0.0035826	0.000286975	5.1075E-05	0	5	0	
0.208	-0.00152844	-0.000329164	0.000302071	5.96101E-05	0	5	0	
0.208167	0.00133862	-0.00231961	0.000180295	6.26054E-05	0	5	0	
0.208333	0.000187664	0.00203971	0.000207774	5.36255E-05	0	5	0	
0.2085	-0.0040814	-0.00120232	0.000180057	5.9623E-05	0	5	0	
0.208667	-0.0011442	0.00215747	0.000218814	4.85244E-05	0	5	0	
0.208833	0.00150709	-0.00177292	0.000195803	5.08156E-05	0	5	0	
0.209	0.0092206	-0.00113032	0.000167151	5.95517E-05	0	5	0	
0.209167	0.00160604	0.00139389	0.000168386	5.60967E-05	0	5	0	
0.209333	-0.0101017	0.00222118	0.000160567	5.66904E-05	0	5	0	
0.2095	0.0066214	-0.00320765	0.000169484	4.21026E-05	0	5	0	
0.209667	-0.006255	0.00139919	0.000224642	5.34131E-05	0	5	0	
0.209833	-0.00380003	-0.000563646	0.000247816	4.23786E-05	0	5	0	
0.21	0.00957095	0.00159376	0.000236454	3.58066E-05	0	5	0	
0.210167	0.00166654	-0.00212982	0.000155956	2.69422E-05	0	5	0	
0.210333	-0.00503141	0.00140539	0.000113411	3.11666E-05	0	5	0	
0.2105	0.00116092	7.8668E-05	8.69734E-05	2.74224E-05	0	5	0	
0.210667	-0.00273107	-0.00103407	7.49678E-05	2.47549E-05	0	5	0	
0.210833	0.00158013	0.00112122	6.62702E-05	1.88895E-05	0	5	0	
0.211	-0.00383898	0.000386271	8.51579E-05	2.39409E-05	0	5	0	
0.211167	0.000414398	-0.00155796	8.64704E-05	2.08632E-05	0	5	0	
0.211333	0.00304598	0.000826559	6.91525E-05	2.78588E-05	0	5	0	
0.2115	-0.00367994	1.57076E-05	6.4951E-05	3.83957E-05	0	5	0	
0.211667	-0.00277129	-0.000684151	5.70908E-05	5.57162E-05	0	5	0	
0.211833	0.00674558	0.000208182	8.44153E-05	5.93228E-05	0	5	0	
0.212	-0.00637427	-0.000455207	0.000115012	4.6895E-05	0	5	0	
0.212167	0.00550414	8.94575E-05	0.000154521	3.35918E-05	0	5	0	
0.212333	5.15521E-06	0.00107473	0.000156925	2.70642E-05	0	5	0	
0.2125	-0.00561299	-0.00185255	0.000123218	3.05832E-05	0	5	0	
0.212667	0.00693041	0.00107684	0.000107129	4.29083E-05	0	5	0	
0.212833	-0.00348512	0.00123132	0.000108894	5.27266E-05	0	5	0	
0.213	0.0102625	-0.000577819	0.000116012	4.60144E-05	0	5	0	
0.213167	-0.0135799	-0.00113524	0.000160728	3.46904E-05	0	5	0	
0.213333	-0.00293028	0.0017249	0.000174734	2.84629E-05	0	5	0	
0.2135	0.0163931	0.000993958	0.000221545	3.15115E-05	0	5	0	
0.213667	-0.00371732	0.00088449	0.000208561	2.85781E-05	0	5	0	
0.213833	-0.00836406	-0.00136523	0.0002017	2.15043E-05	0	5	0	
0.214	0.00802453	-0.000675326	0.000206811	2.91301E-05	0	5	0	
0.214167	-0.00873633	0.00245824	0.000225578	3.28601E-05	0	5	0	
0.214333	0.00160879	0.00030112	0.000247214	3.76076E-05	0	5	0	
0.2145	0.00792744	0.000781741	0.000219803	2.52374E-05	0	5	0	
0.214667	-0.00694854	-0.0033294	0.000184049	3.37086E-05	0	5	0	
0.214833	-0.00250339	0.0025911	0.000152621	4.00051E-05	0	5	0	
0.215	-0.00270315	0.00229343	0.000119312	6.30773E-05	0	5	0	
0.215167	0.00405176	-0.00120075	0.000109833	5.25898E-05	0	5	0	
0.215333	-0.00485502	-0.000805687	0.000118332	5.59695E-05	0	5	0	
0.2155	-0.00270851	0.000666641	0.000144752	3.61075E-05	0	5	0	
0.215667	-0.00192582	0.00014943	0.000121937	2.98012E-05	0	5	0	
0.215833	0.00292528	0.000911648	9.68641E-05	1.47669E-05	0	5	0	
0.216	-0.00601073	0.00111973	9.10652E-05	2.21855E-05	0	5	0	
0.216167	0.00781649	-0.00350993	0.000133615	4.12088E-05	0	5	0	
0.216333	-0.00419059	0.00237985	0.000144778	5.58031E-05	0	5	0	
0.2165	-0.00114676	0.000516333	0.000124222	6.51964E-05	0	5	0	
0.216667	0.000806913	0.000630399	0.000100914	4.61108E-05	0	5	0	
0.216833	-0.00403627	-0.00107308	0.000107454	3.53927E-05	0	5	0	
0.217	-0.00225837	-0.00155057	9.39999E-05	1.8315E-05	0	5	0	
0.217167	0.00868855	0.000400482	8.59641E-05	3.15061E-05	0	5	0	
0.217333	-0.00338805	0.00254639	9.57887E-05	4.94711E-05	0	5	0	
0.2175	0.000438427	-0.00218128	0.000109726	5.97612E-05	0	5	0	
0.217667	-0.00096749	0.00087117	9.01252E-05	5.37846E-05	0	5	0	
0.217833	0.00567635	-0.00100983	7.0395E-05	4.17681E-05	0	5	0	
0.218	-0.000703065	0.000996207	7.40358E-05	4.66091E-05	0	5	0	
0.218167	-0.00068163	-0.000971951	7.14424E-05	4.60173E-05	0	5	0	
0.218333	-0.0053808	-4.27419E-05	6.47611E-05	3.35636E-05	0	5	0	
0.2185	0.00455698	0.000584298	7.13002E-05	1.462E-05	0	5	0	
0.218667	-0.00024161	-0.000820897	8.17449E-05	1.59144E-05	0	5	0	
0.218833	2.11876E-05	-0.000740345	9.2625E-05	3.85523E-05	0	5	0	
0.219	-0.0035217	0.00201025	7.96186E-05	5.57055E-05	0	5	0	
0.219167	0.00256448	-0.00179523	9.93878E-05	5.84249E-05	0	5	0	
0.219333	0.00474224	-0.000310644	9.46638E-05	5.86921E-05	0	5	0	
0.2195	-0.0130132	0.000104427	0.000145347	5.77056E-05	0	5	0	
0.219667	0.0034322	-0.001046	0.000177448	5.12813E-05	0	5	0	
0.219833	0.00470851	0.00125621	0.000207088	3.41948E-05	0	5	0	
0.22	0.000786097	-8.96271E-06	0.000205942	4.27692E-05	0	5	0	
0.220167	-0.00368676	-0.00386562	0.000159588	7.7163E-05	0	5	0	
0.220333	0.00102546	0.00535601	0.000117652	0.000105446	0	5	0	
0.2205	-0.00183491	-0.0032232	7.79027E-05	0.000103674	0	5	0	
0.220667	-0.000350152	0.00205526	0.000138442	8.28706E-05	0	5	0	
0.220833	0.00842048	-0.00176732	0.00020185	7.16704E-05	0	5	0	
0.221	-0.0149156	-0.000397396	0.000258535	6.47052E-05	0	5	0	
0.221167	0.00860427	0.00224108	0.00024236	6.7521E-05	0	5	0	
0.221333	-0.00416926	0.000997921	0.00026525	8.7404E-05	0	5	0	
0.2215	0.000399215	-0.00322213	0.000266589	0.000100702	0	5	0	
0.221667	0.00632588	-0.00121574	0.000277031	0.000104609	0	5	0	
0.221833	-0.00238478	0.00771528	0.000243516	0.000102172	0	5	0	
0.222	-0.0122871	-0.00628231	0.000207153	0.000114705	0	5	0	
0.222167	0.0166957	0.00156804	0.000235642	0.000114051	0	5	0	
0.222333	-0.00746814	-0.0022772	0.000227331	8.84795E-05	0	5	0	
0.2225	0.00216364	0.00492141	0.000239163	7.0219E-05	0	5	0	
0.222667	-0.00292521	-0.00205463	0.000152037	6.55726E-05	0	5	0	
0.222833	-0.00390736	-0.00226251	0.00011358	5.82305E-05	0	5	0	
0.223	0.00585524	0.00178556	0.000100275	5.50092E-05	0	5	0	
0.223167	0.00323916	-0.000768682	0.00019323	6.21474E-05	0	5	0	
0.223333	-0.00538331	0.0024464	0.000268307	6.45694E-05	0	5	0	
0.2235	0.00801064	-0.00539351	0.000262005	6.62759E-05	0	5	0	
0.223667	-0.00123291	0.00388609	0.000176009	7.20811E-05	0	5	0	
0.223833	-0.00166672	0.00179734	9.77944E-05	0.000104739	0	5	0	
0.224	0.0150234	-0.00111684	0.000106167	9.24976E-05	0	5	0	
0.224167	-0.00365535	-0.00341278	0.000157483	8.30881E-05	0	5	0	
0.224333	0.00491145	0.00384273	0.000184063	6.15319E-05	0	5	0	
0.2245	0.00455874	-0.000274772	0.000156435	6.44226E-05	0	5	0	
0.224667	-0.00223416	-0.000528689	0.000111862	4.35007E-05	0	5	0	
0.224833	0.00487987	0.000458517	9.7138E-05	2.83671E-05	0	5	0	
0.225	-0.00171557	0.000291778	9.37143E-05	2.15063E-05	0	5	0	
0.225167	0.00696128	-0.000606378	9.253E-05	3.4127E-05	0	5	0	
0.225333	-0.00569875	0.00171493	0.000121711	5.17934E-05	0	5	0	
0.2255	0.00201463	-0.00165474	0.00014636	6.49943E-05	0	5	0	
0.225667	-0.00196315	0.00112502	0.000132831	6.16159E-05	0	5	0	
0.225833	0.00311532	-0.00153439	8.70514E-05	4.92692E-05	0	5	0	
0.226	-0.00631876	0.00243119	7.37555E-05	4.26854E-05	0	5	0	
0.226167	0.00619526	-0.00203639	8.48246E-05	4.67474E-05	0	5	0	
0.226333	-0.00587856	0.0010329	0.000112882	4.07098E-05	0	5	0	
0.2265	0.00352663	0.000322544	0.000119868	3.49492E-05	0	5	0	
0.226667	-0.00408766	-0.00174687	0.000136323	3.0289E-05	0	5	0	
0.226833	0.00636858	0.00266388	0.000135618	3.63047E-05	0	5	0	
0.227	-0.00840075	-0.00221418	0.000151703	4.33149E-05	0	5	0	
0.227167	-0.00503544	0.00085911	0.000194953	4.26231E-05	0	5	0	
0.227333	0.0107391	-0.00118945	0.0002287	3.72994E-05	0	5	0	
0.2275	-0.00228613	0.00282701	0.000221916	3.23204E-05	0	5	0	
0.227667	-0.00185149	-0.00175166	0.000164305	3.85134E-05	0	5	0	
0.227833	-0.00222838	-2.40712E-05	0.000182765	5.19059E-05	0	5	0	
0.228	0.0049791	-0.000163407	0.000232346	4.63749E-05	0	5	0	
0.228167	-0.000326791	0.000978512	0.000208604	3.66495E-05	0	5	0	
0.228333	-0.00891688	-0.00115512	0.000143943	2.36364E-05	0	5	0	
0.2285	0.010679	0.00112374	0.000106313	3.06803E-05	0	5	0	
0.228667	-0.00478822	-0.00402218	0.000160446	5.12996E-05	0	5	0	
0.228833	0.00597788	0.00559448	0.000219871	7.4153E-05	0	5	0	
0.229	-0.010013	-0.00191436	0.000275553	8.71953E-05	0	5	0	
0.229167	-0.000641587	-0.000976462	0.000317907	6.96156E-05	0	5	0	
0.229333	0.00699338	-0.00281274	0.000309481	6.72994E-05	0	5	0	
0.2295	-0.0017726	0.00593813	0.000220085	7.73797E-05	0	5	0	
0.229667	-0.00970854	-0.0023208	0.000220074	9.04363E-05	0	5	0	
0.229833	0.0133533	-0.00205727	0.000216714	7.91912E-05	0	5	0	
0.23	-0.00593876	0.00101652	0.000249361	5.85897E-05	0	5	0	
0.230167	0.000776525	0.00156568	0.000187143	5.21104E-05	0	5	0	
0.230333	-0.000147759	-0.00045059	0.000140534	4.24105E-05	0	5	0	
0.2305	0.00517581	8.22723E-05	0.000107979	3.36652E-05	0	5	0	
0.230667	-0.00528155	-0.00240876	0.00011081	3.39756E-05	0	5	0	
0.230833	0.0016467	0.00324961	9.8215E-05	4.71525E-05	0	5	0	
0.231	-0.00157529	-0.0023959	8.8001E-05	5.56423E-05	0	5	0	
0.231167	0.0038985	0.00131147	6.02321E-05	5.16739E-05	0	5	0	
0.231333	-0.0053401	-0.00142534	9.14379E-05	3.95334E-05	0	5	0	
0.2315	0.00116321	0.00127312	0.000120993	3.35787E-05	0	5	0	
0.231667	-0.000686669	-0.000818517	0.000128174	3.3748E-05	0	5	0	
0.231833	0.000475246	-0.00122508	8.48891E-05	4.15947E-05	0	5	0	
0.232	-0.00104719	0.00190716	4.96254E-05	4.26188E-05	0	5	0	
0.232167	0.00019514	-0.00049725	4.37266E-05	3.77935E-05	0	5	0	
0.232333	-0.00227735	4.00282E-05	5.68139E-05	2.85151E-05	0	5	0	
0.2325	0.000848174	-0.00022155	5.43371E-05	2.4987E-05	0	5	0	
0.232667	-0.00132115	0.00154895	5.13696E-05	2.66463E-05	0	5	0	
0.232833	0.00247793	-0.00184625	5.73093E-05	2.81478E-05	0	5	0	
0.233	-0.00310189	0.00141621	7.37252E-05	3.29663E-05	0	5	0	
0.233167	0.00206228	-0.00110067	7.78741E-05	3.04055E-05	0	5	0	
0.233333	1.77947E-06	0.00194764	9.24668E-05	3.12203E-05	0	5	0	
0.2335	0.00132874	-0.00183504	9.0105E-05	3.51031E-05	0	5	0	
0.233667	0.000630301	0.00177837	7.95626E-05	3.73554E-05	0	5	0	
0.233833	0.00129073	-0.00262537	4.95639E-05	4.18656E-05	0	5	0	
0.234	-0.0041341	0.00377031	4.79044E-05	4.95051E-05	0	5	0	
0.234167	0.00166456	-0.00391821	6.598E-05	6.25725E-05	0	5	0	
0.234333	-0.00129963	0.00384687	9.95751E-05	6.96941E-05	0	5	0	
0.2345	-0.000280673	-0.0028921	0.000103275	6.94608E-05	0	5	0	
0.234667	-0.000257914	0.00131227	8.4069E-05	5.93715E-05	0	5	0	
0.234833	0.00037138	-0.00244123	5.21032E-05	5.00071E-05	0	5	0	
0.235	-0.00405277	0.00311806	4.93376E-05	4.54069E-05	0	5	0	
0.235167	0.00455639	-0.000621833	7.07166E-05	4.33619E-05	0	5	0	
0.235333	-0.00389423	-0.000272883	0.00010378	3.97599E-05	0	5	0	
0.2355	-0.00164765	-0.00173386	0.000128073	4.52754E-05	0	5	0	
0.235667	-0.0006433	0.00272957	0.000100679	5.09262E-05	0	5	0	
0.235833	0.00834142	-0.00137128	0.000126666	5.58968E-05	0	5	0	
0.236	-0.0190027	-0.000191097	0.000170662	4.44609E-05	0	5	0	
0.236167	0.0155943	-0.000108646	0.000274392	3.2689E-05	0	5	0	
0.236333	-0.00358487	0.00107836	0.000272035	2.55237E-05	0	5	0	
0.2365	-0.010917	0.00135641	0.000314847	3.34825E-05	0	5	0	
0.236667	0.0147962	-0.00359513	0.000312553	5.50357E-05	0	5	0	
0.236833	-0.00410179	-6.42826E-05	0.000342054	6.25116E-05	0	5	0	
0.237	-0.00761084	0.00582082	0.000350294	8.11479E-05	0	5	0	
0.237167	0.00698452	-0.00553662	0.000293693	8.59586E-05	0	5	0	
0.237333	0.00124359	0.000519574	0.000217897	0.000110456	0	5	0	
0.2375	-0.00272987	0.000367579	0.000101143	9.50548E-05	0	5	0	
0.237667	-0.0033322	0.00148502	9.9195E-05	6.87126E-05	0	5	0	
0.237833	0.00153557	-0.000445252	0.000124945	4.61144E-05	0	5	0	
0.238	-0.00433632	-0.00177659	0.000124808	4.30761E-05	0	5	0	
0.238167	0.00690566	0.000582162	9.21752E-05	4.83183E-05	0	5	0	
0.238333	-0.00453746	0.00403579	0.000122949	5.66606E-05	0	5	0	
0.2385	-0.0109284	-0.0041959	0.00020346	6.29974E-05	0	5	0	
0.238667	0.0103729	5.53398E-05	0.000309173	8.68338E-05	0	5	0	
0.238833	-0.00251159	0.00169008	0.000273371	8.07555E-05	0	5	0	
0.239	-0.008928	0.00205841	0.00022415	6.83844E-05	0	5	0	
0.239167	0.0103896	-0.00324324	0.000183064	5.30547E-05	0	5	0	
0.239333	-0.00541329	0.00141959	0.000186766	5.23639E-05	0	5	0	
0.2395	-0.00534883	-0.000636538	0.000180866	5.34567E-05	0	5	0	
0.239667	-0.000572989	0.00373728	0.000149146	4.83217E-05	0	5	0	
0.239833	0.00930561	-0.00508243	0.000143084	5.85207E-05	0	5	0	
0.24	-0.0123137	0.00180953	0.000156354	7.03947E-05	0	5	0	
0.240167	0.0075256	0.00222108	0.000199061	7.60028E-05	0	5	0	
0.240333	0.00417132	-0.00099252	0.000262302	6.10832E-05	0	5	0	
0.2405	-0.00615466	-0.00229492	0.000247032	5.65207E-05	0	5	0	
0.240667	-0.00324975	0.00193663	0.000178052	4.81908E-05	0	5	0	
0.240833	0.00152036	0.000942224	8.32401E-05	4.15136E-05	0	5	0	
0.241	-0.00495181	0.0005716	6.22404E-05	4.0846E-05	0	5	0	
0.241167	0.0100906	-0.00238882	8.42642E-05	6.03165E-05	0	5	0	
0.241333	-0.0117602	0.00185846	0.000154946	7.25806E-05	0	5	0	
0.2415	0.00970538	-0.00184626	0.000188495	7.05212E-05	0	5	0	
0.241667	-0.012694	0.00706522	0.000218135	7.82552E-05	0	5	0	
0.241833	0.00798546	-0.00899734	0.000201366	0.000104837	0	5	0	
0.242	0.00345971	0.00249002	0.00020227	0.000160114	0	5	0	
0.242167	0.0021225	0.00479954	0.00015068	0.000196036	0	5	0	
0.242333	-0.0197906	-0.00358983	0.000174875	0.000187499	0	5	0	
0.2425	0.00386192	0.0025856	0.000221777	0.000136091	0	5	0	
0.242667	0.00168359	-0.0031442	0.000224369	8.11506E-05	0	5	0	
0.242833	0.00726695	-0.00131452	0.000165562	6.5941E-05	0	5	0	
0.243	-0.00653947	0.00876946	0.000114295	7.5778E-05	0	5	0	
0.243167	0.00396701	-0.00885872	0.000104121	0.000115432	0	5	0	
0.243333	-0.0147848	0.00181438	0.000149234	0.000194788	0	5	0	
0.2435	0.0062526	0.00451156	0.000188243	0.000268017	0	5	0	
0.243667	0.00131639	-0.00594618	0.000208122	0.000284473	0	5	0	
0.243833	0.00818105	0.00449732	0.000169627	0.000238056	0	5	0	
0.244	-0.0057278	-0.00413318	0.000133872	0.00017803	0	5	0	
0.244167	-0.00746699	0.00287838	0.000131698	0.000141996	0	5	0	
0.244333	0.00170534	0.000118691	0.000137807	0.000110572	0	5	0	
0.2445	0.0179312	-0.00323895	0.000143019	9.53605E-05	0	5	0	
0.244667	-0.00836196	0.000476229	0.000186538	0.000119954	0	5	0	
0.244833	0.00171732	0.00341274	0.000199099	0.000175637	0	5	0	
0.245	0.000915633	-0.00270038	0.000139006	0.000197853	0	5	0	
0.245167	0.000930631	0.00164761	7.71152E-05	0.000169761	0	5	0	
0.245333	-0.00639561	-0.00287706	4.6097E-05	0.000137607	0	5	0	
0.2455	0.0088975	0.00486438	9.85763E-05	0.000132861	0	5	0	
0.245667	-0.0014571	-0.00433485	0.000138768	0.000132832	0	5	0	
0.245833	0.00284303	0.00299633	0.000136276	0.00010889	0	5	0	
0.246	0.000246907	-0.00240768	0.000101641	7.77936E-05	0	5	0	
0.246167	-0.00172697	0.00276976	8.54787E-05	5.58747E-05	0	5	0	
0.246333	0.00141254	-0.00167783	9.82275E-05	4.77499E-05	0	5	0	
0.2465	0.000538317	3.90586E-05	9.0195E-05	4.15501E-05	0	5	0	
0.246667	-0.00182695	0.00231889	5.86486E-05	3.60584E-05	0	5	0	
0.246833	0.00537121	-0.00161533	5.12419E-05	3.47186E-05	0	5	0	
0.247	-0.00707369	-0.000973033	6.42428E-05	3.42709E-05	0	5	0	
0.247167	0.00450284	0.000624469	0.000115879	2.90013E-05	0	5	0	
0.247333	0.00258278	0.00158065	0.000151009	2.83785E-05	0	5	0	
0.2475	-0.00177466	-0.00117866	0.000161505	2.61471E-05	0	5	0	
0.247667	-0.00478046	-0.000541129	0.000122754	2.79198E-05	0	5	0	
0.247833	0.00462965	0.000498892	0.000100509	2.64551E-05	0	5	0	
0.248	-0.00686728	0.00143716	9.10412E-05	4.59368E-05	0	5	0	
0.248167	0.00425666	-0.0030775	0.000103499	6.17046E-05	0	5	0	
0.248333	-0.00189191	0.00172316	0.000111084	6.78051E-05	0	5	0	
0.2485	0.0053171	-0.000668	0.000155234	5.36541E-05	0	5	0	
0.248667	-0.0015067	0.000839459	0.000153683	5.11041E-05	0	5	0	
0.248833	0.00461313	-0.00128204	0.000146561	4.7242E-05	0	5	0	
0.249	-0.00640465	-0.00106149	9.79237E-05	3.848E-05	0	5	0	
0.249167	0.00674196	0.0019699	0.000115176	3.09841E-05	0	5	0	
0.249333	-0.00243935	-1.65184E-05	0.000102543	4.19736E-05	0	5	0	
0.2495	0.0105792	-0.00100645	0.000117099	5.42118E-05	0	5	0	
0.249667	-0.000172496	-0.00228983	0.000110296	4.97418E-05	0	5	0	
0.249833	0.00357909	0.00396895	0.000105866	4.54289E-05	0	5	0	
0.25	-0.00232582	-0.00216751	8.98753E-05	5.21593E-05	0	5	0	
0.250167	-2.30451E-05	0.000778696	6.77E-05	6.85056E-05	0	5	0	
0.250333	-0.000656392	-0.00199681	5.83425E-05	6.0515E-05	0	5	0	
0.2505	0.00186043	0.00250383	5.28869E-05	5.11324E-05	0	5	0	
0.250667	-0.000777674	6.9E-06	5.6211E-05	4.65983E-05	0	5	0	
0.250833	-0.000862824	-0.00176043	6.17695E-05	5.03148E-05	0	5	0	
0.251	-0.0055072	2.60893E-05	8.20837E-05	4.10365E-05	0	5	0	
0.251167	0.000287815	0.00206389	7.95664E-05	2.73664E-05	0	5	0	
0.251333	4.94504E-05	-0.00224843	7.32831E-05	3.00667E-05	0	5	0	
0.2515	0.000418455	0.00150643	3.62747E-05	5.51022E-05	0	5	0	
0.251667	0.000301757	-0.000455634	2.95128E-05	7.80288E-05	0	5	0	
0.251833	-0.000387571	-0.000555302	4.30407E-05	8.26599E-05	0	5	0	
0.252	-0.00015482	0.00138978	5.02003E-05	7.83797E-05	0	5	0	
0.252167	0.0026759	-0.00236919	5.35218E-05	7.3517E-05	0	5	0	
0.252333	-0.00269176	0.000493552	5.0818E-05	6.17046E-05	0	5	0	
0.2525	-0.000783384	0.00316651	5.28557E-05	4.54188E-05	0	5	0	
0.252667	-0.00199311	-0.00285549	7.76787E-05	4.64909E-05	0	5	0	
0.252833	0.000980791	0.000537195	9.70418E-05	5.99758E-05	0	5	0	
0.253	-0.0021708	-0.00116703	0.000112367	6.13656E-05	0	5	0	
0.253167	0.00431145	0.0037412	0.000104969	5.38684E-05	0	5	0	
0.253333	-0.00384727	-0.00404386	0.000113649	5.58016E-05	0	5	0	
0.2535	0.00379391	0.00181271	0.000122797	7.3985E-05	0	5	0	
0.253667	-0.00232177	-0.000752671	9.84053E-05	7.6402E-05	0	5	0	
0.253833	0.0101823	0.00108599	0.000103415	5.96141E-05	0	5	0	
0.254	-0.00660399	-0.000802155	0.000125656	3.81999E-05	0	5	0	
0.254167	0.0038077	0.000790864	0.000151128	2.55951E-05	0	5	0	
0.254333	-0.00153951	-0.00268615	0.00011516	3.62644E-05	0	5	0	
0.2545	0.00399425	0.00366594	7.49045E-05	5.07078E-05	0	5	0	
0.254667	-0.00279604	-0.00249186	5.99042E-05	6.07119E-05	0	5	0	
0.254833	0.0037771	0.0017033	6.66487E-05	5.8251E-05	0	5	0	
0.255	-0.00700464	-0.00188149	9.49111E-05	4.98791E-05	0	5	0	
0.255167	0.00440673	0.00144633	0.000115296	4.95732E-05	0	5	0	
0.255333	-0.00460511	-0.00170814	0.000125935	4.43226E-05	0	5	0	
0.2555	0.00408416	0.00426829	0.000116171	5.03426E-05	0	5	0	
0.255667	0.00125868	-0.00523598	0.000115647	6.15437E-05	0	5	0	
0.255833	0.000930965	0.00278214	9.95402E-05	7.8295E-05	0	5	0	
0.256	-0.00407448	-0.00168903	6.99976E-05	7.64054E-05	0	5	0	
0.256167	0.00827354	0.0018209	8.16502E-05	6.10683E-05	0	5	0	
0.256333	-0.00674524	-0.000261715	0.000108473	4.02499E-05	0	5	0	
0.2565	0.00149211	-0.00107665	0.000128872	2.40857E-05	0	5	0	
0.256667	-0.0016173	-0.000101182	8.83503E-05	3.60841E-05	0	5	0	
0.256833	-0.000692889	0.00202431	5.84675E-05	5.66822E-05	0	5	0	
0.257	-0.000241196	-0.00117762	4.4554E-05	7.18277E-05	0	5	0	
0.257167	0.0040321	0.000534572	4.53597E-05	5.72547E-05	0	5	0	
0.257333	-0.0055811	-0.000442702	6.93152E-05	3.46471E-05	0	5	0	
0.2575	-0.000771727	0.000355979	7.05987E-05	2.14986E-05	0	5	0	
0.257667	-0.00405081	0.00115746	9.28077E-05	1.52658E-05	0	5	0	
0.257833	0.00353934	-0.000721519	9.22806E-05	1.59065E-05	0	5	0	
0.258	-0.00572647	0.000921243	0.000100886	1.71334E-05	0	5	0	
0.258167	0.00336819	-0.00135811	0.000100622	2.14605E-05	0	5	0	
0.258333	-0.000442205	3.65761E-05	8.14438E-05	2.60708E-05	0	5	0	
0.2585	-0.00148004	0.00220245	7.36517E-05	3.39493E-05	0	5	0	
0.258667	-0.00685874	-0.000606798	7.92005E-05	3.36243E-05	0	5	0	
0.258833	0.00826631	-0.00105338	0.00012816	3.06457E-05	0	5	0	
0.259	-0.00280406	-0.000160279	0.000144386	2.09667E-05	0	5	0	
0.259167	-0.00149765	0.00172605	0.000115321	1.93065E-05	0	5	0	
0.259333	-0.00170336	-0.000817984	6.44502E-05	2.13888E-05	0	5	0	
0.2595	0.00914709	5.60832E-05	9.24315E-05	2.22918E-05	0	5	0	
0.259667	-0.00175277	-0.00156014	0.000131391	2.60446E-05	0	5	0	
0.259833	-0.00233412	0.00153636	0.000140126	2.36119E-05	0	5	0	
0.26	-0.00512586	0.000674993	0.00012263	3.22556E-05	0	5	0	
0.260167	0.0109037	-0.000763988	0.000150969	2.73958E-05	0	5	0	
0.260333	-0.00396243	-0.000592037	0.000180626	2.50553E-05	0	5	0	
0.2605	0.00591812	-0.000431091	0.000159361	1.55834E-05	0	5	0	
0.260667	-0.00767705	0.000435315	0.000151366	1.57573E-05	0	5	0	
0.260833	0.00355833	0.0012636	0.000147115	1.87138E-05	0	5	0	
0.261	0.0052108	-0.00165756	0.000339593	2.20196E-05	0	5	0	
0.261167	-0.0214768	0.00156599	0.000380102	3.81821E-05	0	5	0	
0.261333	0.00287828	0.00129912	0.000487274	6.63773E-05	0	5	0	
0.2615	0.0128099	-0.00405187	0.00047292	0.000103122	0	5	0	
0.261667	-0.0276083	0.00456993	0.000474507	0.000113399	0	5	0	
0.261833	0.00829482	-0.00142592	0.000414588	9.1848E-05	0	5	0	
0.262	-0.00497174	0.00065652	0.000273317	5.39251E-05	0	5	0	
0.262167	0.00714668	0.0014244	0.000253684	3.50853E-05	0	5	0	
0.262333	-0.00102488	-0.00612625	0.000209163	5.73978E-05	0	5	0	
0.2625	-0.00820465	0.0065756	0.000177267	8.69067E-05	0	5	0	
0.262667	-0.00320849	0.00097505	0.000175921	0.000134456	0	5	0	
0.262833	0.00868013	-0.00373451	0.000236778	0.000134977	0	5	0	
0.263	-0.00517379	0.00111086	0.000251852	0.000114188	0	5	0	
0.263167	-0.00345676	-0.00260771	0.000241122	7.08357E-05	0	5	0	
0.263333	0.00502024	0.00670891	0.000166967	6.02033E-05	0	5	0	
0.2635	0.00253718	-0.00431201	0.00018405	8.6532E-05	0	5	0	
0.263667	-0.00688767	0.000244353	0.000152775	0.000105458	0	5	0	
0.263833	0.00482194	-0.000446058	0.00015556	8.17315E-05	0	5	0	
0.264	-0.00451244	0.00178406	0.00016748	4.83648E-05	0	5	0	
0.264167	-0.000442502	-0.000696475	0.000163607	2.02793E-05	0	5	0	
0.264333	-0.000699458	0.00207268	0.000138369	2.65699E-05	0	5	0	
0.2645	0.00387503	-0.00262448	9.60487E-05	3.39443E-05	0	5	0	
0.264667	0.00303514	0.00133716	6.80274E-05	3.91752E-05	0	5	0	
0.264833	7.53636E-05	-0.00158503	5.59556E-05	4.10363E-05	0	5	0	
0.265	-0.00527089	0.00405475	4.80633E-05	4.49841E-05	0	5	0	
0.265167	0.00893511	-0.00288841	7.65799E-05	5.45596E-05	0	5	0	
0.265333	-0.000618343	0.00194831	0.000100123	5.70553E-05	0	5	0	
0.2655	0.00478661	-0.00366235	0.000112069	5.80538E-05	0	5	0	
0.265667	-0.00284436	0.00413005	0.000103589	5.76738E-05	0	5	0	
0.265833	0.00037824	-0.000507785	0.000125371	7.22706E-05	0	5	0	
0.266	0.00953251	-0.000740309	0.000124629	6.68293E-05	0	5	0	
0.266167	-0.00775099	-0.00252348	0.000156781	5.98379E-05	0	5	0	
0.266333	0.0170232	0.00277895	0.000185799	4.44057E-05	0	5	0	
0.2665	-0.0119337	0.00173799	0.000294826	5.94392E-05	0	5	0	
0.266667	-0.0122719	-0.00375467	0.000282612	6.23433E-05	0	5	0	
0.266833	0.0105565	-0.00088493	0.000318431	7.13549E-05	0	5	0	
0.267	-0.00539486	0.00320878	0.000218299	5.88627E-05	0	5	0	
0.267167	-0.00474404	-0.00141758	0.000210929	5.87818E-05	0	5	0	
0.267333	-0.0018013	-0.000589715	0.000163911	4.85805E-05	0	5	0	
0.2675	-0.00239108	-0.000441151	0.000173252	3.47413E-05	0	5	0	
0.267667	-0.00750225	0.000804635	0.000160152	2.23725E-05	0	5	0	
0.267833	0.00325784	0.00144936	0.000145215	2.49697E-05	0	5	0	
0.268	0.00532148	-0.00198131	0.000117809	3.01629E-05	0	5	0	
0.268167	-0.00591892	-3.55638E-05	0.000107959	3.85202E-05	0	5	0	
0.268333	-0.00570674	0.00148553	8.10012E-05	2.87777E-05	0	5	0	
0.2685	0.00581562	0.000616166	0.000130602	3.68127E-05	0	5	0	
0.268667	0.00951008	-0.00239442	0.000173557	4.38694E-05	0	5	0	
0.268833	-0.00166164	0.00203133	0.000189264	4.96703E-05	0	5	0	
0.269	0.000740969	-0.000675633	0.000140814	4.94668E-05	0	5	0	
0.269167	-0.00110402	-0.000206748	9.84288E-05	4.08944E-05	0	5	0	
0.269333	0.000166618	0.000274157	7.10634E-05	3.80338E-05	0	5	0	
0.2695	0.00488334	-0.00169066	6.81657E-05	3.56416E-05	0	5	0	
0.269667	0.0011426	0.00336261	8.61166E-05	4.20384E-05	0	5	0	
0.269833	0.00318983	-0.00272015	0.000100057	5.06435E-05	0	5	0	
0.27	-0.0057453	-0.000556498	0.0001225	5.98968E-05	0	5	0	
0.270167	-0.00010256	0.00231595	0.000154074	5.239E-05	0	5	0	
0.270333	0.0015493	-0.00154357	0.000188789	5.25052E-05	0	5	0	
0.2705	0.00231314	0.00107712	0.000172126	4.35646E-05	0	5	0	
0.270667	-0.00711046	-0.0019609	0.000136386	4.33927E-05	0	5	0	
0.270833	0.00506551	2.69452E-05	0.00012093	4.64268E-05	0	5	0	
0.271	0.000995289	0.00363566	0.000105443	5.66596E-05	0	5	0	
0.271167	0.00181321	-0.00270472	7.50785E-05	6.50907E-05	0	5	0	
0.271333	-0.00303746	-0.000919539	4.7708E-05	6.98332E-05	0	5	0	
0.2715	0.00398238	0.000510874	6.04058E-05	4.84749E-05	0	5	0	
0.271667	-0.00690499	0.00122585	9.48869E-05	3.99767E-05	0	5	0	
0.271833	0.00853067	-0.000351972	0.000132834	2.18439E-05	0	5	0	
0.272	-0.000809044	-0.00136992	0.000141669	2.85282E-05	0	5	0	
0.272167	-4.26038E-05	-0.000665717	0.0001152	2.45016E-05	0	5	0	
0.272333	-0.00117022	0.00286205	9.47647E-05	3.14526E-05	0	5	0	
0.2725	0.00184765	-0.00249278	9.75504E-05	3.79044E-05	0	5	0	
0.272667	-0.00602111	-0.000759672	0.000119522	4.25947E-05	0	5	0	
0.272833	0.00630798	0.00148336	0.000123972	3.41702E-05	0	5	0	
0.273	-0.00145982	-0.000256852	0.000117677	2.75284E-05	0	5	0	
0.273167	0.00265345	-0.000155005	9.20422E-05	1.81988E-05	0	5	0	
0.273333	-0.00396398	-0.000410909	8.45335E-05	1.78756E-05	0	5	0	
0.2735	0.00583407	0.000642213	0.000104814	1.47804E-05	0	5	0	
0.273667	-0.00767806	0.00146054	0.000148212	2.94353E-05	0	5	0	
0.273833	0.00190701	-0.00103625	0.000145404	3.1734E-05	0	5	0	
0.274	-0.000405388	-0.00129137	0.000106485	3.53945E-05	0	5	0	
0.274167	0.00268917	0.00123248	7.07026E-05	2.55287E-05	0	5	0	
0.274333	-0.000469858	0.000708522	5.33454E-05	2.99302E-05	0	5	0	
0.2745	0.00409236	-0.000116977	5.91208E-05	2.33994E-05	0	5	0	
0.274667	-0.00713549	-0.000575133	7.14536E-05	3.16152E-05	0	5	0	
0.274833	0.0069546	0.000625057	0.000104724	2.31357E-05	0	5	0	
0.275	-0.00675635	0.000525621	0.000130697	2.56557E-05	0	5	0	
0.275167	0.00466865	0.000369773	0.000162695	1.2941E-05	0	5	0	
0.275333	0.00333851	-0.000669219	0.000167991	1.32689E-05	0	5	0	
0.2755	-0.0060172	0.000628499	0.000168077	1.09063E-05	0	5	0	
0.275667	0.00592537	-0.000421801	0.000159402	1.36735E-05	0	5	0	
0.275833	-0.000570779	-6.01358E-05	0.000133563	1.20338E-05	0	5	0	
0.276	-0.0124534	0.00128263	0.000144093	1.178E-05	0	0	0	
0.276167	0.0165524	-0.0015229	0.000185467	1.59252E-05	0	0	0	
0.276333	-0.00456283	0.000618043	0.000224482	2.84739E-05	0	0	0	
0.2765	0.00174395	0.000241232	0.00020339	3.98209E-05	0	0	0	
0.276667	-0.00949052	-0.00022933	0.000146006	3.95004E-05	0	0	0	
0.276833	0.0112567	0.000422128	0.000167657	2.89393E-05	0	0	0	
0.277	-0.00500218	0.000217039	0.000231904	1.61302E-05	0	0	0	
0.277167	0.0116231	-0.00166977	0.000270168	1.36059E-05	0	0	0	
0.277333	0.00152114	0.00331042	0.000237129	2.59222E-05	0	0	0	
0.2775	-0.00858829	-0.00344417	0.000190359	4.56063E-05	0	0	0	
0.277667	-0.00231156	0.00168509	0.000166003	5.55775E-05	0	0	0	
0.277833	0.0110284	0.000186884	0.000209066	5.13495E-05	0	0	0	
0.278	-0.0153863	0.00048322	0.000252623	3.43595E-05	0	0	0	
0.278167	0.0147028	-0.00293641	0.000268288	3.06794E-05	0	0	0	
0.278333	-0.0126668	0.00230639	0.000295486	3.45513E-05	0	0	0	
0.2785	0.00164617	-0.000300064	0.000243812	4.27449E-05	0	0	0	
0.278667	-0.00138175	0.000214905	0.00021764	3.69641E-05	0	0	0	
0.278833	-0.00194276	-0.00227128	0.000109727	3.34158E-05	0	0	0	
0.279	-0.00298958	0.00212118	8.39434E-05	3.4431E-05	0	0	0	
0.279167	0.00515809	-0.000259259	6.69216E-05	3.56055E-05	0	0	0	
0.279333	-0.00645862	0.0004276	9.1941E-05	2.83791E-05	0	0	0	
0.2795	-0.000692667	-0.00131382	0.000118701	2.42251E-05	0	0	0	
0.279667	0.000243353	0.000797755	0.000100336	2.53604E-05	0	0	0	
0.279833	0.00718713	-0.000677803	7.70131E-05	2.3727E-05	0	0	0	
0.28	-0.00618158	0.00101912	8.2786E-05	2.17962E-05	0	0	0	
0.280167	0.0023979	-0.000111911	9.32077E-05	1.67165E-05	0	0	0	
0.280333	-0.00464277	-0.000134714	9.74053E-05	1.73994E-05	0	0	0	
0.2805	0.00509337	0.000415052	8.09448E-05	1.01239E-05	0	0	0	
0.280667	-0.00466614	-0.00219414	9.69393E-05	1.50554E-05	0	0	0	
0.280833	0.00550771	-0.000133658	0.000101341	2.90389E-05	0	0	0	
0.281	-0.000325874	0.00385357	0.000108657	5.40383E-05	0	0	0	
0.281167	-0.0076849	-0.00326009	0.000112895	6.43786E-05	0	0	0	
0.281333	0.0039562	-0.00254216	0.000144724	8.84295E-05	0	0	0	
0.2815	0.0123896	0.0113134	0.000229047	0.00011407	0	0	0	
0.281667	-0.0153448	-0.0148	0.000284836	0.000187041	0	0	0	
0.281833	-0.0055965	0.00846106	0.000266328	0.000213006	0	0	0	
0.282	0.00589831	-0.00406939	0.000198561	0.0002055	0	0	0	
0.282167	0.00894275	-0.000869336	0.00019583	0.000145149	0	0	0	
0.282333	-0.0086511	0.00438296	0.000210555	9.19965E-05	0	0	0	
0.2825	-0.00592672	-1.2582E-06	0.000205417	8.54123E-05	0	0	0	
0.282667	0.0053204	-0.00851186	0.000151949	0.000129472	0	0	0	
0.282833	-0.00533894	0.00469658	0.000138564	0.000184093	0	0	0	
0.283	0.00267716	-0.00151499	0.000123526	0.000164593	0	0	0	
0.283167	-0.00370112	0.001308	0.000124445	9.86639E-05	0	0	0	
0.283333	0.00289534	-0.00188807	9.29914E-05	3.92107E-05	0	0	0	
0.2835	0.00847996	8.65539E-05	0.000131809	3.05618E-05	0	0	0	
0.283667	-0.0120096	-0.000570388	0.000150765	2.22899E-05	0	0	0	
0.283833	0.00144252	0.00383063	0.000230522	2.49104E-05	0	0	0	
0.284	0.00222232	-0.00338689	0.000226956	4.45595E-05	0	0	0	
0.284167	0.0048066	0.000128993	0.000200904	8.06643E-05	0	0	0	
0.284333	-0.0122916	-1.39939E-05	0.000163786	8.13909E-05	0	0	0	
0.2845	0.0119784	0.00140517	0.00016504	6.05738E-05	0	0	0	
0.284667	-0.00406165	-0.00166414	0.000184483	2.95453E-05	0	0	0	
0.284833	-0.000816962	0.000867266	0.000157484	3.0167E-05	0	0	0	
0.285	0.00184947	0.000564255	0.000102199	3.72266E-05	0	0	0	
0.285167	0.00375446	-0.00168014	6.8041E-05	4.06297E-05	0	0	0	
0.285333	-0.00251113	0.000159167	5.28633E-05	3.22367E-05	0	0	0	
0.2855	0.00348873	0.00166934	6.10121E-05	2.82394E-05	0	0	0	
0.285667	-0.00291384	-0.00198235	6.69328E-05	2.89335E-05	0	0	0	
0.285833	0.00566164	0.000778161	7.92805E-05	4.09858E-05	0	0	0	
0.286	-0.00133039	-0.000369082	7.39362E-05	3.74067E-05	0	0	0	
0.286167	0.00342921	0.000669044	6.62226E-05	3.15543E-05	0	0	0	
0.286333	-0.000936959	0.000534326	5.27475E-05	2.88122E-05	0	0	0	
0.2865	0.00582266	-0.000881553	5.75254E-05	3.31406E-05	0	0	0	
0.286667	-0.00336164	-9.00222E-05	6.77123E-05	3.53379E-05	0	0	0	
0.286833	0.00532329	0.00220838	0.000100956	3.37298E-05	0	0	0	
0.287	-0.00235936	-0.00162597	0.000107673	3.3861E-05	0	0	0	
0.287167	-1.9388E-05	-0.000521869	9.19464E-05	3.48065E-05	0	0	0	
0.287333	0.00109057	0.002	5.53567E-05	3.10838E-05	0	0	0	
0.2875	0.00249035	-0.00122602	3.94408E-05	2.91331E-05	0	0	0	
0.287667	-0.00405211	-0.000442911	6.22319E-05	3.54828E-05	0	0	0	
0.287833	0.00510001	0.00106488	7.99928E-05	3.71538E-05	0	0	0	
0.288	-0.002972	-0.000600244	9.24126E-05	3.26376E-05	0	0	0	
0.288167	0.00314538	0.000294121	7.76442E-05	1.98076E-05	0	0	0	
0.288333	-0.00359419	-0.000699634	7.73684E-05	1.24899E-05	0	0	0	
0.2885	0.00260562	-0.000671283	6.97349E-05	2.26033E-05	0	0	0	
0.288667	-0.00495565	0.00189181	8.62196E-05	3.34849E-05	0	0	0	
0.288833	0.00303338	-0.00143503	8.60775E-05	4.15369E-05	0	0	0	
0.289	-0.00396854	-0.000300188	9.52436E-05	3.8616E-05	0	0	0	
0.289167	0.00439426	-0.000111656	8.07378E-05	2.63097E-05	0	0	0	
0.289333	-0.00619279	0.000944688	8.4001E-05	1.69201E-05	0	0	0	
0.2895	0.00286731	0.000384316	8.28203E-05	1.50977E-05	0	0	0	
0.289667	-0.00448765	-0.00136511	9.69665E-05	2.92165E-05	0	0	0	
0.289833	0.00164631	1.77889E-05	8.54378E-05	3.3578E-05	0	0	0	
0.29	-0.00366466	0.000858362	7.78434E-05	2.77457E-05	0	0	0	
0.290167	0.00239758	-0.000467652	6.74998E-05	1.66571E-05	0	0	0	
0.290333	-0.00163647	0.000405863	5.95848E-05	1.22927E-05	0	0	0	
0.2905	0.0030418	-0.000923736	5.87074E-05	1.21474E-05	0	0	0	
0.290667	-0.00513063	0.00176042	5.63897E-05	1.74546E-05	0	0	0	
0.290833	0.00146712	-0.000732592	7.48175E-05	3.44921E-05	0	0	0	
0.291	-0.00197091	-0.00019062	6.03995E-05	4.22934E-05	0	0	0	
0.291167	0.00637511	-0.000133544	7.46673E-05	4.00077E-05	0	0	0	
0.291333	-0.00290983	0.00143871	6.99745E-05	2.95007E-05	0	0	0	
0.2915	0.00536113	-0.000112907	9.538E-05	2.20165E-05	0	0	0	
0.291667	-0.0036257	-0.000200776	8.55188E-05	2.1995E-05	0	0	0	
0.291833	0.00219307	-0.0012738	7.90918E-05	1.80222E-05	0	0	0	
0.292	0.00176101	0.00148005	6.70376E-05	2.01035E-05	0	0	0	
0.292167	0.00391864	0.000180182	6.9788E-05	2.6843E-05	0	0	0	
0.292333	-0.00285542	-0.00111788	7.90213E-05	3.09951E-05	0	0	0	
0.2925	0.00358857	-0.000830775	7.87643E-05	2.81383E-05	0	0	0	
0.292667	-0.00349833	0.00209576	7.53826E-05	2.29053E-05	0	0	0	
0.292833	0.0037619	-0.000685635	6.29027E-05	3.10324E-05	0	0	0	
0.293	-0.00426882	-0.00071232	7.14334E-05	3.74741E-05	0	0	0	
0.293167	0.00696038	-0.000808739	8.26522E-05	3.49004E-05	0	0	0	
0.293333	-0.00498243	0.0017634	0.000121029	2.68935E-05	0	0	0	
0.2935	9.53442E-06	-0.00161935	0.000127026	2.73341E-05	0	0	0	
0.293667	-7.94674E-05	0.00058195	0.000123351	3.05966E-05	0	0	0	
0.293833	-0.000768543	-0.000776551	8.94326E-05	2.66977E-05	0	0	0	
0.294	-0.00503811	0.00171158	8.41573E-05	2.39991E-05	0	0	0	
0.294167	0.000200659	-0.00211925	8.36558E-05	2.68753E-05	0	0	0	
0.294333	-0.00316341	0.000350819	8.11756E-05	3.04388E-05	0	0	0	
0.2945	0.00517202	0.000153962	8.51105E-05	2.59983E-05	0	0	0	
0.294667	-0.00954262	0.00117759	0.000127473	2.09756E-05	0	0	0	
0.294833	0.00463497	-0.0020696	0.000160562	1.97118E-05	0	0	0	
0.295	-0.00225843	0.000445985	0.000169109	3.34201E-05	0	0	0	
0.295167	-0.00103245	0.00126264	0.000107786	3.9182E-05	0	0	0	
0.295333	0.0021978	-0.00032891	7.61967E-05	4.21334E-05	0	0	0	
0.2955	0.00874409	-0.00103638	7.70999E-05	3.99808E-05	0	0	0	
0.295667	-0.00806994	0.00082201	0.000129302	3.45579E-05	0	0	0	
0.295833	0.00135573	-9.85575E-05	0.000133259	2.81905E-05	0	0	0	
0.296	-0.00211351	0.00165041	0.000121751	2.34807E-05	0	0	0	
0.296167	-5.57617E-05	-0.00137646	6.80069E-05	2.61278E-05	0	0	0	
0.296333	-0.00526222	-0.000604727	7.64331E-05	3.15843E-05	0	0	0	
0.2965	0.00349601	0.00142135	7.42279E-05	2.51315E-05	0	0	0	
0.296667	-0.00317144	3.72575E-05	8.74351E-05	3.01622E-05	0	0	0	
0.296833	-0.00164121	-0.000854906	8.41477E-05	3.19127E-05	0	0	0	
0.297	-0.00704721	-0.000129589	0.000125511	3.11393E-05	0	0	0	
0.297167	0.00654717	0.000577473	0.000155011	2.00157E-05	0	0	0	
0.297333	-0.00116916	0.000509704	0.000147709	1.43511E-05	0	0	0	
0.2975	0.00261916	-0.00135225	0.000105071	1.61779E-05	0	0	0	
0.297667	0.00107335	-0.000197689	5.7738E-05	1.82167E-05	0	0	0	
0.297833	0.00336783	0.000956468	5.77508E-05	1.57224E-05	0	0	0	
0.298	-0.0114139	0.000388039	7.9426E-05	1.5601E-05	0	0	0	
0.298167	0.00432717	-0.00104988	0.000137216	1.45471E-05	0	0	0	
0.298333	-0.00119789	0.000239818	0.000142592	1.54152E-05	0	0	0	
0.2985	0.00747615	-0.000515358	0.000160546	1.82413E-05	0	0	0	
0.298667	-0.00460375	0.00077292	0.000135403	3.21798E-05	0	0	0	
0.298833	0.00351264	-0.00157131	0.000139283	4.48999E-05	0	0	0	
0.299	-7.23188E-05	0.00153982	0.000107306	4.76911E-05	0	0	0	
0.299167	-0.000212245	-0.001582	8.50747E-05	3.84607E-05	0	0	0	
0.299333	-0.00442241	-0.000182739	8.79738E-05	3.03087E-05	0	0	0	
0.2995	0.00812517	0.00133209	0.000143542	2.29624E-05	0	0	0	
0.299667	0.00887182	-0.00135056	0.000163073	3.18475E-05	0	0	0	
0.299833	0.00570279	0.000547588	0.000205176	3.71997E-05	0	0	0	
0.3	-0.0100216	-0.00151518	0.00024735	4.14335E-05	0	0	0	
0.300167	0.00870285	0.00137803	0.000281273	3.2843E-05	0	0	0	
0.300333	-0.00541449	0.00038716	0.000235167	2.53567E-05	0	0	0	
0.3005	0.0115107	-0.0016109	0.00019976	2.34767E-05	0	0	0	
0.300667	0.00922843	-0.000299838	0.000273254	2.14888E-05	0	0	0	
0.300833	-0.017982	0.00252431	0.000410229	2.31249E-05	0	0	0	
0.301	0.0169851	-0.000371851	0.000423877	3.38171E-05	0	0	0	
0.301167	0.00743693	-0.00202489	0.000508489	4.67242E-05	0	0	0	
0.301333	-0.0274333	0.00117341	0.000464981	5.32545E-05	0	0	0	
0.3015	0.0168577	0.00154533	0.000495033	6.77382E-05	0	0	0	
0.301667	-0.00820482	-0.000714105	0.000395251	5.5184E-05	0	0	0	
0.301833	0.00625377	0.000299987	0.000327752	4.94417E-05	0	0	0	
0.302	0.00975405	-0.00231253	0.000232446	2.88232E-05	0	0	0	
0.302167	-0.00440281	0.00357161	0.000170266	3.75165E-05	0	0	0	
0.302333	-0.00595967	-0.000801421	0.000151556	4.71641E-05	0	0	0	
0.3025	0.0124113	-0.00192523	0.00020013	5.13645E-05	0	0	0	
0.302667	-0.00906434	0.00177347	0.000179151	4.46013E-05	0	0	0	
0.302833	-0.00421145	-0.000897434	0.000217906	3.53519E-05	0	0	0	
0.303	0.00857881	0.000645108	0.000206213	2.59299E-05	0	0	0	
0.303167	0.00237997	-4.98374E-07	0.000256461	2.35105E-05	0	0	0	
0.303333	-0.012934	-0.00105735	0.000270355	2.09309E-05	0	0	0	
0.3035	0.00466472	0.00043003	0.000248564	1.8829E-05	0	0	0	
0.303667	0.000498447	-0.000196382	0.000184521	2.33183E-05	0	0	0	
0.303833	0.000793284	-0.000556809	0.000133971	3.33163E-05	0	0	0	
0.304	-0.0163217	0.00143497	0.00015058	4.36576E-05	0	0	0	
0.304167	0.0106524	-0.000376443	0.00017975	4.10836E-05	0	0	0	
0.304333	-0.00723834	-0.00143512	0.000228548	3.22515E-05	0	0	0	
0.3045	-0.00477304	0.000301219	0.000197565	3.23264E-05	0	0	0	
0.304667	0.00537879	0.000706802	0.000195529	4.37394E-05	0	0	0	
0.304833	0.00626995	0.0002504	0.000146214	5.3101E-05	0	0	0	
0.305	-0.00421234	-0.000302285	0.000138796	5.12436E-05	0	0	0	
0.305167	0.010127	0.000677416	0.000128144	3.71631E-05	0	0	0	
0.305333	-0.000136012	-0.0026044	0.000143612	3.35669E-05	0	0	0	
0.3055	-0.00418392	0.0040706	0.000152502	4.4956E-05	0	0	0	
0.305667	0.00227536	-0.00264495	0.000141679	5.93266E-05	0	0	0	
0.305833	0.00962482	0.000226888	0.00015787	7.77091E-05	0	0	0	
0.306	-0.00730922	0.000680255	0.000173734	6.3768E-05	0	0	0	
0.306167	0.00397879	0.0021988	0.000221438	5.92903E-05	0	0	0	
0.306333	0.000731732	-0.00222258	0.000312184	4.68905E-05	0	0	0	
0.3065	0.0142806	0.000569242	0.000331695	5.20629E-05	0	0	0	
0.306667	-0.0111853	-0.00155863	0.00033595	5.29852E-05	0	0	0	
0.306833	0.00628789	0.00340138	0.000258676	5.18296E-05	0	0	0	
0.307	-0.00120842	-0.00251902	0.000214251	5.7884E-05	0	0	0	
0.307167	-0.00600574	-0.000223909	0.000147953	4.7654E-05	0	0	0	
0.307333	0.0227669	0.00173263	0.000196339	3.23734E-05	0	0	0	
0.3075	-0.0073575	-0.00194976	0.000293857	2.87752E-05	0	0	0	
0.307667	-0.00875316	0.000340484	0.000326173	3.73323E-05	0	0	0	
0.307833	0.012648	-0.000833105	0.000292326	4.57411E-05	0	0	0	
0.308	-0.0181548	0.00098693	0.000262434	4.61593E-05	0	0	0	
0.308167	0.00985748	0.000872909	0.000289842	5.63631E-05	0	0	0	
0.308333	0.0056548	-0.0015838	0.000229869	5.38975E-05	0	0	0	
0.3085	0.00126729	-0.00165219	0.000156374	5.94295E-05	0	0	0	
0.308667	-0.0166471	0.00376841	0.000144428	5.54443E-05	0	0	0	
0.308833	-0.00103574	-0.00201739	0.000158595	6.39143E-05	0	0	0	
0.309	0.00199964	-2.35238E-05	0.000155973	5.98044E-05	0	0	0	
0.309167	-0.00324127	1.46582E-05	9.9012E-05	4.25691E-05	0	0	0	
0.309333	0.000447867	0.000845129	6.53792E-05	2.64139E-05	0	0	0	
0.3095	0.0028163	-0.001195	4.63657E-05	1.56965E-05	0	0	0	
0.309667	-0.00725829	0.00103684	8.56993E-05	1.62886E-05	0	0	0	
0.309833	0.00479125	-0.00113365	0.000125478	2.27368E-05	0	0	0	
0.31	-0.00528218	0.00112735	0.000153617	2.3357E-05	0	0	0	
0.310167	0.000322486	-0.00126378	0.000108131	3.07802E-05	0	0	0	
0.310333	-0.00281378	0.000324201	8.65164E-05	3.97589E-05	0	0	0	
0.3105	0.00205979	0.000325271	7.18184E-05	4.32321E-05	0	0	0	
0.310667	-0.00567756	0.000539595	8.7543E-05	3.20438E-05	0	0	0	
0.310833	0.00437878	-0.00156221	8.23956E-05	2.05964E-05	0	0	0	
0.311	-0.00790025	0.000776808	0.000104793	2.48771E-05	0	0	0	
0.311167	0.00448916	0.000572956	0.00012186	4.22167E-05	0	0	0	
0.311333	-0.0033085	0.00055827	0.000116583	4.34925E-05	0	0	0	
0.3115	0.001974	-0.0013536	8.79011E-05	3.34699E-05	0	0	0	
0.311667	-0.00111997	0.00152293	5.03736E-05	2.26695E-05	0	0	0	
0.311833	0.00353527	-0.00084055	4.75325E-05	2.39809E-05	0	0	0	
0.312	-0.00460337	0.00117475	5.06423E-05	2.55498E-05	0	0	0	
0.312167	0.00429233	-0.00143995	7.41953E-05	2.56436E-05	0	0	0	
0.312333	-0.00300368	0.00154786	8.38925E-05	2.62101E-05	0	0	0	
0.3125	0.00264821	0.000426188	9.32721E-05	2.63184E-05	0	0	0	
0.312667	-0.000199792	-0.00131554	7.7051E-05	2.26759E-05	0	0	0	
0.312833	0.00327727	0.0006352	5.10132E-05	2.34398E-05	0	0	0	
0.313	-0.00634781	-0.000831316	5.76431E-05	2.58634E-05	0	0	0	
0.313167	0.00468538	0.0010006	8.39207E-05	3.08446E-05	0	0	0	
0.313333	-0.00593171	0.000250761	0.000121222	3.35632E-05	0	0	0	
0.3135	0.00532286	-0.00153697	0.000129539	3.2533E-05	0	0	0	
0.313667	-0.00105918	0.000157635	0.000115692	2.7772E-05	0	0	0	
0.313833	-0.000832914	0.000617904	8.1196E-05	2.22515E-05	0	0	0	
0.314	-0.00226874	-0.000346822	4.73227E-05	1.94396E-05	0	0	0	
0.314167	0.00302403	-0.000229992	4.02799E-05	2.11588E-05	0	0	0	
0.314333	-0.00288378	-0.000566669	5.75539E-05	1.84118E-05	0	0	0	
0.3145	0.00161725	0.00131956	7.57052E-05	1.83327E-05	0	0	0	
0.314667	-0.00290202	6.56505E-05	8.32881E-05	3.52124E-05	0	0	0	
0.314833	0.00301738	-0.00115625	8.01368E-05	5.17365E-05	0	0	0	
0.315	-0.00445905	-0.000180566	7.63004E-05	4.97599E-05	0	0	0	
0.315167	0.00249115	0.00132405	8.0062E-05	3.30176E-05	0	0	0	
