0	0.00125321	-0.000183037	1.25321E-07	1.83037E-08	0	5	0	
0.000166667	0.00341263	0.0100284	5.92371E-05	7.33679E-05	0	5	0	
0.000333333	-0.0049933	-0.0102953	0.000125728	0.000161921	0	5	0	
0.0005	0.00177108	0.00849935	0.000153374	0.000214499	0	5	0	
0.000666667	0.00264408	0.00127086	0.000102907	0.000175386	0	5	0	
0.000833333	-0.00298744	-0.00478265	6.37465E-05	0.00010675	0	5	0	
0.001	0.00326982	0.00704829	7.0784E-05	0.000101766	0	5	0	
0.00116667	-0.00921183	-0.0072012	0.000110044	0.0001332	0	5	0	
0.00133333	0.012888	0.00698923	0.000173159	0.000211901	0	5	0	
0.0015	-0.00647573	0.00455123	0.000279976	0.000205171	0	5	0	
0.00166667	-0.00903626	0.000792342	0.000393383	0.000281194	0	5	0	
0.00183333	0.0142189	-0.0328409	0.000391914	0.000390572	0	5	0	
0.002	-9.38225E-05	0.0716141	0.000333682	0.000646192	0	5	0	
0.00216667	-0.0229047	-0.0331326	0.000264462	0.000877766	0	5	0	
0.00233333	0.0223953	0.000100122	0.000339885	0.000879654	0	5	0	
0.0025	-0.012673	-0.0257534	0.000386552	0.000893674	0	5	0	
0.00266667	0.0157079	0.036891	0.000367687	0.000824662	0	5	0	
0.00283333	-0.017968	-0.0352543	0.000306446	0.000874882	0	5	0	
0.003	0.00424668	0.0296397	0.000326177	0.000806985	0	5	0	
0.00316667	0.00187041	0.0280172	0.000379239	0.000688676	0	5	0	
0.00333333	0.0111884	-0.0287745	0.000318966	0.000576442	0	5	0	
0.0035	-0.0163402	-0.00683714	0.000269158	0.000462546	0	5	0	
0.00366667	0.0102212	-0.00955776	0.000217902	0.000428724	0	5	0	
0.00383333	-0.00125683	-0.000979824	0.000274748	0.000607449	0	5	0	
0.004	0.00251801	0.0351813	0.000219018	0.000804338	0	5	0	
0.00416667	-0.00885219	-0.0277458	0.000185546	0.000852626	0	5	0	
0.00433333	0.0137062	0.0229287	0.000153856	0.000755645	0	5	0	
0.0045	-0.00958598	-0.00805494	0.000203733	0.000648397	0	5	0	
0.00466667	0.00537768	0.0257617	0.000210924	0.000696836	0	5	0	
0.00483333	-0.00718204	-0.042125	0.00020782	0.000733909	0	5	0	
0.005	0.00715984	0.0224997	0.000180412	0.000771621	0	5	0	
0.00516667	-0.00655314	0.00566816	0.000186109	0.000712834	0	5	0	
0.00533333	0.00672684	-0.0197788	0.000175831	0.000574217	0	5	0	
0.0055	-0.00593754	0.0204247	0.000166376	0.000429178	0	5	0	
0.00566667	0.00822555	0.0124982	0.000164782	0.000314992	0	5	0	
0.00583333	-0.0153747	-0.051819	0.000191144	0.000464471	0	5	0	
0.006	0.0145597	0.0365816	0.000247385	0.000660516	0	5	0	
0.00616667	-0.00699874	-0.0132874	0.000300264	0.000731637	0	5	0	
0.00633333	0.00283794	-0.000356349	0.000295099	0.000559022	0	5	0	
0.0065	-0.00706008	-0.00514151	0.000224694	0.000366566	0	5	0	
0.00666667	0.0117122	0.00956229	0.000181307	0.000296072	0	5	0	
0.00683333	-0.00909312	-0.0108546	0.000180355	0.000269856	0	5	0	
0.007	0.00384165	0.00415089	0.000215811	0.000211185	0	5	0	
0.00716667	-0.00182069	-0.00140732	0.000204599	0.00019115	0	5	0	
0.00733333	0.0045293	0.0040087	0.000158499	0.000165466	0	5	0	
0.0075	-0.00806081	-0.00516242	0.00012465	0.000147019	0	5	0	
0.00766667	0.00820883	-0.000519725	0.000127875	0.000110246	0	5	0	
0.00783333	-0.00911824	0.00127465	0.000153161	6.59938E-05	0	5	0	
0.008	0.0112944	-0.00264279	0.000175046	5.35049E-05	0	5	0	
0.00816667	-0.0104271	-0.00123282	0.0002057	4.72199E-05	0	5	0	
0.00833333	0.00593354	0.00272698	0.000241103	5.81023E-05	0	5	0	
0.0085	-0.00295659	-0.00345128	0.000239868	5.2196E-05	0	5	0	
0.00866667	0.00434078	-0.000758376	0.000196874	6.14081E-05	0	5	0	
0.00883333	-0.00746488	0.00121159	0.000152924	9.10175E-05	0	5	0	
0.009	0.00864876	-8.80752E-05	0.000143378	0.00013182	0	5	0	
0.00916667	-0.00607946	-0.00611951	0.000175657	0.000150764	0	5	0	
0.00933333	0.000157775	0.0146995	0.000184885	0.000172668	0	5	0	
0.0095	-0.00877322	-0.00992914	0.000182814	0.000195384	0	5	0	
0.00966667	0.0353675	-0.0035337	0.000265612	0.000201174	0	5	0	
0.00983333	-0.0475645	0.0090353	0.000462431	0.000187177	0	5	0	
0.01	0.0247365	-0.00372176	0.000692705	0.000140076	0	5	0	
0.0101667	-0.00274925	-0.0050044	0.000788812	0.000130002	0	5	0	
0.0103333	0.000241823	0.00425834	0.000673038	0.000131544	0	5	0	
0.0105	-0.00026355	-0.00507084	0.000456179	0.000173949	0	5	0	
0.0106667	-0.00288483	0.00944898	0.000225775	0.000169565	0	5	0	
0.0108333	-0.00852945	-0.000295037	0.00019682	0.000209004	0	5	0	
0.011	0.0269588	-0.00749386	0.00031944	0.000258351	0	5	0	
0.0111667	-0.0299633	0.00772624	0.000462024	0.000289882	0	5	0	
0.0113333	0.014599	-0.00119776	0.00052512	0.000226861	0	5	0	
0.0115	-0.00288764	-0.00300711	0.000432569	0.000162079	0	5	0	
0.0116667	0.00787128	0.00404093	0.00030588	0.000137309	0	5	0	
0.0118333	-0.0167624	-0.00186002	0.000219922	0.000115399	0	5	0	
0.012	0.0195444	0.00346219	0.000229749	7.87603E-05	0	5	0	
0.0121667	-0.0178767	-0.00845276	0.00030948	8.38542E-05	0	5	0	
0.0123333	0.0154623	0.0172948	0.000349625	0.000150572	0	5	0	
0.0125	-0.00907569	-0.0137278	0.000357462	0.000222023	0	5	0	
0.0126667	0.00621771	0.00382011	0.000335799	0.000286478	0	5	0	
0.0128333	-0.00363171	0.0106861	0.000282915	0.000312763	0	5	0	
0.013	0.00111146	-0.0192347	0.000220348	0.000290299	0	5	0	
0.0131667	-0.00107927	0.0198717	0.00014744	0.000387412	0	5	0	
0.0133333	0.0082001	-0.00446443	0.000109338	0.000461421	0	5	0	
0.0135	-0.0111266	-0.0105844	0.000117585	0.000562712	0	5	0	
0.0136667	0.00976616	0.0212951	0.000165692	0.000474156	0	5	0	
0.0138333	-0.00527181	-0.0180038	0.000201758	0.000410499	0	5	0	
0.014	0.00710549	-0.00576138	0.000192134	0.000376503	0	5	0	
0.0141667	-0.00837289	0.0213227	0.000174918	0.000402774	0	5	0	
0.0143333	0.00741393	-0.0131501	0.000170888	0.000401351	0	5	0	
0.0145	-0.00696395	0.00856011	0.000175809	0.000324936	0	5	0	
0.0146667	0.0136908	0.00201877	0.000188353	0.000234451	0	5	0	
0.0148333	-0.0137079	-0.00662973	0.000216874	0.00013773	0	5	0	
0.015	0.00674683	-0.00152463	0.000269411	0.00010794	0	5	0	
0.0151667	-0.00310048	-0.000858869	0.000274909	7.72699E-05	0	5	0	
0.0153333	0.00689264	0.00400166	0.000220504	7.26136E-05	0	5	0	
0.0155	-0.00971518	0.00835274	0.000168939	9.59339E-05	0	5	0	
0.0156667	0.00838065	-0.0144612	0.000158618	0.000204836	0	5	0	
0.0158333	-0.00714136	0.00713692	0.000177756	0.000291845	0	5	0	
0.016	0.0098631	0.000919604	0.000180841	0.000252531	0	5	0	
0.0161667	-0.0105107	-0.00499387	0.00018556	0.000154637	0	5	0	
0.0163333	0.00545314	0.00613377	0.000194968	0.000110284	0	5	0	
0.0165	-0.0027981	-0.00432866	0.000191066	0.000129369	0	5	0	
0.0166667	0.0046649	0.00939067	0.000150003	0.000169307	0	5	0	
0.0168333	-0.00865983	-0.0116381	0.000128727	0.000247852	0	5	0	
0.017	0.0101035	0.00543743	0.000129053	0.000293903	0	5	0	
0.0171667	-0.00905506	0.00061075	0.000169613	0.000247629	0	5	0	
0.0173333	0.007978	-0.00260017	0.000182673	0.000125414	0	5	0	
0.0175	-0.00797381	0.00205033	0.000196479	5.7929E-05	0	5	0	
0.0176667	0.00380896	0.00312517	0.000195467	4.75678E-05	0	5	0	
0.0178333	-0.00363963	-0.00115692	0.000176274	6.00501E-05	0	5	0	
0.018	0.00802497	0.0015855	0.000141742	5.59202E-05	0	5	0	
0.0181667	-0.00974966	-0.000295266	0.000135423	5.20214E-05	0	5	0	
0.0183333	0.00668306	0.00131493	0.000160268	4.38501E-05	0	5	0	
0.0185	-0.0077676	-0.00741425	0.000181517	5.2384E-05	0	5	0	
0.0186667	0.0130101	0.00643788	0.000190488	0.000100877	0	5	0	
0.0188333	-0.0187011	-0.00172876	0.00022395	0.000156641	0	5	0	
0.019	0.0141259	-0.000979074	0.000291606	0.000161452	0	5	0	
0.0191667	-0.00333818	-0.00219905	0.000349229	0.00011112	0	5	0	
0.0193333	0.00140031	0.00160563	0.000314842	4.63706E-05	0	5	0	
0.0195	-0.00873176	-0.00466262	0.000227041	5.07597E-05	0	5	0	
0.0196667	0.0117191	0.00436491	0.000166463	9.21926E-05	0	5	0	
0.0198333	-0.0066127	-0.00887138	0.000171057	0.000152549	0	5	0	
0.02	0.00664419	0.00540234	0.000183306	0.000175662	0	5	0	
0.0201667	-0.0157075	-0.00253996	0.000195454	0.000145994	0	5	0	
0.0203333	0.0178678	0.00121275	0.000226438	9.44177E-05	0	5	0	
0.0205	-0.00602438	0.00273151	0.000292097	5.02378E-05	0	5	0	
0.0206667	-3.92924E-05	-0.00184694	0.00027999	4.46788E-05	0	5	0	
0.0208333	-0.00778047	7.99307E-05	0.000206321	4.86709E-05	0	5	0	
0.021	0.014822	0.000437668	0.000161435	5.57522E-05	0	5	0	
0.0211667	-0.00925668	0.00335934	0.000188914	5.39629E-05	0	5	0	
0.0213333	0.00265613	-0.000127908	0.000237589	5.06221E-05	0	5	0	
0.0215	-0.00694999	0.00110811	0.000205357	4.25942E-05	0	5	0	
0.0216667	0.0121305	0.00373502	0.000170525	7.72733E-05	0	5	0	
0.0218333	-0.0103126	-0.00473436	0.000176434	0.000113519	0	5	0	
0.022	0.00415126	0.0071333	0.000223622	0.00015611	0	5	0	
0.0221667	-0.00432104	-0.00184362	0.000212493	0.000129402	0	5	0	
0.0223333	0.00702344	-0.00190116	0.000170641	0.000102263	0	5	0	
0.0225	-0.00818789	-0.000103086	0.000141159	7.38543E-05	0	5	0	
0.0226667	0.00631964	0.00450699	0.000154424	7.03751E-05	0	5	0	
0.0228333	-0.00742751	-0.00764349	0.000164753	9.72626E-05	0	5	0	
0.023	0.00888621	0.0026698	0.000166653	0.000111225	0	5	0	
0.0231667	-0.00958741	-0.00207839	0.000169744	0.000116255	0	5	0	
0.0233333	0.00815964	0.00241474	0.000190537	7.3154E-05	0	5	0	
0.0235	-0.00606383	-0.00591544	0.000202534	7.40738E-05	0	5	0	
0.0236667	0.00409151	0.00264288	0.000187418	8.27532E-05	0	5	0	
0.0238333	-0.00703231	-0.000796358	0.000156301	8.69548E-05	0	5	0	
0.024	0.0106886	-0.0009787	0.000145504	6.60131E-05	0	5	0	
0.0241667	-0.00903517	-0.00126137	0.000164336	4.05059E-05	0	5	0	
0.0243333	0.00759558	0.00219442	0.000189773	4.9903E-05	0	5	0	
0.0245	-0.00884105	-0.00320539	0.000194713	5.56036E-05	0	5	0	
0.0246667	0.00755893	0.00240717	0.000185509	6.5447E-05	0	5	0	
0.0248333	-0.00705559	-0.000755993	0.000183414	5.55433E-05	0	5	0	
0.025	0.00663846	-0.000673291	0.000171271	3.79092E-05	0	5	0	
0.0251667	-0.00701758	0.00143822	0.000160075	2.94056E-05	0	5	0	
0.0253333	0.00852202	0.0007221	0.000150644	2.09403E-05	0	5	0	
0.0255	-0.00734838	-0.00209376	0.000160723	2.21829E-05	0	5	0	
0.0256667	0.00606969	0.00576819	0.000161986	4.71116E-05	0	5	0	
0.0258333	-0.00895123	-0.0037599	0.000159302	8.45762E-05	0	5	0	
0.026	0.0115188	-0.000859419	0.000158461	8.79743E-05	0	5	0	
0.0261667	-0.0115888	0.00390612	0.000190566	7.37835E-05	0	5	0	
0.0263333	0.00975749	-0.000957543	0.000227243	5.60264E-05	0	5	0	
0.0265	-0.0045555	-0.0052067	0.000240263	7.26455E-05	0	5	0	
0.0266667	0.00263812	0.0070728	0.000204314	9.5442E-05	0	5	0	
0.0268333	-0.00494442	-0.00493962	0.000146262	0.00012112	0	5	0	
0.027	0.00896529	0.00154728	0.000115743	0.000115205	0	5	0	
0.0271667	-0.0118518	0.00292108	0.000137256	9.21733E-05	0	5	0	
0.0273333	0.0106013	0.000767238	0.000179402	6.44573E-05	0	5	0	
0.0275	-0.00751602	-0.00660121	0.000200433	7.53795E-05	0	5	0	
0.0276667	0.00833564	0.00595292	0.000193853	8.54482E-05	0	5	0	
0.0278333	-0.0173499	1.27342E-05	0.000205643	0.000102206	0	5	0	
0.028	0.0252789	-0.0105385	0.000274603	0.000107561	0	5	0	
0.0281667	-0.0181868	0.00565861	0.000477532	0.000148981	0	5	0	
0.0283333	-0.0122614	0.00815856	0.000744817	0.00022138	0	5	0	
0.0285	0.025072	-0.011716	0.000824315	0.000253469	0	5	0	
0.0286667	-0.00692176	0.00594117	0.000657454	0.000251638	0	5	0	
0.0288333	-0.0190075	-0.00197234	0.000506725	0.00019358	0	5	0	
0.029	0.0327282	-0.00422638	0.000480437	0.000159876	0	5	0	
0.0291667	-0.0411454	0.0103579	0.000607551	0.000181316	0	5	0	
0.0293333	0.0327793	-0.0199513	0.000648541	0.00024108	0	5	0	
0.0295	-0.0133944	0.0121897	0.000672901	0.000292671	0	5	0	
0.0296667	-0.00530249	0.00129098	0.000626628	0.000342633	0	5	0	
0.0298333	0.00662932	-0.00879305	0.000422595	0.000347638	0	5	0	
0.03	0.00728048	0.00962909	0.000312341	0.000305393	0	5	0	
0.0301667	-0.0202457	-0.00580627	0.000233893	0.000231502	0	5	0	
0.0303333	0.0178122	0.00725816	0.000318196	0.000181064	0	5	0	
0.0305	-0.00194445	-0.0051804	0.000372725	0.000226314	0	5	0	
0.0306667	-0.00932912	-0.00913718	0.000397611	0.000292997	0	5	0	
0.0308333	0.00222302	0.0167351	0.000304965	0.000331095	0	5	0	
0.031	0.0122168	-0.00791796	0.000238564	0.000312494	0	5	0	
0.0311667	-0.0162017	-0.00290336	0.000200942	0.000242263	0	5	0	
0.0313333	0.00997884	0.00659289	0.000267529	0.000160391	0	5	0	
0.0315	-0.00648356	-0.00556772	0.000249907	0.00014076	0	5	0	
0.0316667	0.00751146	0.00428058	0.000222472	0.000113999	0	5	0	
0.0318333	-0.00460775	-0.000222224	0.000187557	0.000105781	0	5	0	
0.032	0.00282558	-0.00237089	0.000164747	6.82736E-05	0	5	0	
0.0321667	-0.00667183	-0.0060665	0.000137547	5.41138E-05	0	5	0	
0.0323333	0.0112668	0.00795703	0.000133138	8.66194E-05	0	5	0	
0.0325	-0.0100013	-0.00692555	0.000157316	0.000123508	0	5	0	
0.0326667	0.00872964	0.00473816	0.00018624	0.000185159	0	5	0	
0.0328333	-0.0100195	0.00478308	0.000187237	0.000199437	0	5	0	
0.033	0.0107069	-0.00329857	0.000188008	0.000187879	0	5	0	
0.0331667	-0.00576997	-0.00199877	0.000196514	0.000123123	0	5	0	
0.0333333	0.00582188	0.000456776	0.000190917	9.27949E-05	0	5	0	
0.0335	-0.00856475	-0.00390313	0.00016663	6.19138E-05	0	5	0	
0.0336667	0.0101526	0.00925569	0.000155377	0.000110529	0	5	0	
0.0338333	-0.00661378	-0.00740216	0.000167624	0.000120146	0	5	0	
0.034	0.00604737	0.00610206	0.000179847	0.000151933	0	5	0	
0.0341667	-0.0060852	-0.000805044	0.000170943	0.000109428	0	5	0	
0.0343333	0.00793352	-0.00269767	0.000157085	9.49716E-05	0	5	0	
0.0345	-0.00977775	-0.00132979	0.000160455	8.40622E-05	0	5	0	
0.0346667	0.00936959	0.00307574	0.000175659	8.4364E-05	0	5	0	
0.0348333	-0.00783664	-0.00344433	0.000186764	7.53034E-05	0	5	0	
0.035	0.00929014	-7.59389E-05	0.000184082	7.00961E-05	0	5	0	
0.0351667	-0.00928724	-0.00160108	0.000182254	5.51144E-05	0	5	0	
0.0353333	0.00947374	0.00340781	0.000186366	6.13757E-05	0	5	0	
0.0355	-0.00711833	-0.004472	0.000185529	7.11982E-05	0	5	0	
0.0356667	0.00468018	-0.00175625	0.000165932	7.16143E-05	0	5	0	
0.0358333	-0.00272815	0.00443326	0.000134919	8.40436E-05	0	5	0	
0.036	0.000929174	2.92781E-05	8.90595E-05	9.67648E-05	0	5	0	
0.0361667	-0.00696501	-5.13279E-06	0.000104187	0.000104541	0	5	0	
0.0363333	0.0175549	-0.00166144	0.000158682	8.36942E-05	0	5	0	
0.0365	-0.0125784	-0.00288129	0.000234219	7.18299E-05	0	5	0	
0.0366667	0.000381472	0.00302137	0.000283462	6.44231E-05	0	5	0	
0.0368333	0.00122002	0.0037345	0.000234739	0.000111793	0	5	0	
0.037	0.00940678	-0.0078602	0.000185801	0.000141158	0	5	0	
0.0371667	-0.0123287	0.00123529	0.000145081	0.000159405	0	5	0	
0.0373333	0.00347077	0.000862034	0.00019575	9.94434E-05	0	5	0	
0.0375	-0.00092751	-3.03766E-05	0.000196408	4.78755E-05	0	5	0	
0.0376667	0.00823889	0.000881948	0.000160669	2.38093E-05	0	5	0	
0.0378333	-0.00960169	-0.00348412	0.000130439	3.12811E-05	0	5	0	
0.038	0.00402302	0.00627104	0.000150578	5.63341E-05	0	5	0	
0.0381667	-0.00390342	-0.00522251	0.000147845	9.20444E-05	0	5	0	
0.0383333	0.010886	0.00394539	0.000142567	0.000119215	0	5	0	
0.0385	-0.0124761	-0.00366226	0.000147365	0.000105354	0	5	0	
0.0386667	0.00635936	-0.000433682	0.000195396	7.76E-05	0	5	0	
0.0388333	-0.00298553	-0.00394986	0.000194312	5.20085E-05	0	5	0	
0.039	0.00608421	0.00558196	0.0001564	5.15258E-05	0	5	0	
0.0391667	-0.0114699	-0.00116921	0.000139005	6.48833E-05	0	5	0	
0.0393333	0.0118636	0.00410902	0.000163347	7.69752E-05	0	5	0	
0.0395	-0.00803735	-0.00551392	0.000202007	8.67594E-05	0	5	0	
0.0396667	0.00795669	0.00179354	0.000207729	8.1007E-05	0	5	0	
0.0398333	-0.00957585	-0.000766364	0.00018686	7.76884E-05	0	5	0	
0.04	0.0090952	0.00128754	0.000182954	6.38957E-05	0	5	0	
0.0401667	-0.00825698	-0.00732568	0.000184551	8.00996E-05	0	5	0	
0.0403333	0.00698056	0.00775717	0.000186559	0.000108223	0	5	0	
0.0405	-0.00488371	-0.00450679	0.000167005	0.000133626	0	5	0	
0.0406667	0.00526633	0.00179349	0.000141047	0.000119672	0	5	0	
0.0408333	-0.00835855	-0.00271009	0.000124355	9.77397E-05	0	5	0	
0.041	0.0110629	0.00368109	0.000141219	7.06781E-05	0	5	0	
0.0411667	-0.00989427	-0.00415709	0.000173122	7.95314E-05	0	5	0	
0.0413333	0.00640225	0.0010352	0.000198517	7.40129E-05	0	5	0	
0.0415	-0.00850688	-0.00138836	0.000195875	7.36753E-05	0	5	0	
0.0416667	0.00954195	0.000272959	0.000183755	4.80636E-05	0	5	0	
0.0418333	-0.00879278	0.00188844	0.000179419	3.02707E-05	0	5	0	
0.042	0.00621409	-0.000631981	0.000175835	3.38699E-05	0	5	0	
0.0421667	-0.0082671	-7.31882E-05	0.000168066	3.64379E-05	0	5	0	
0.0423333	0.0109158	0.00166577	0.000168936	3.4845E-05	0	5	0	
0.0425	-0.0108166	-0.00435954	0.000188473	4.11044E-05	0	5	0	
0.0426667	0.00858778	0.00125564	0.000200402	4.60973E-05	0	5	0	
0.0428333	-0.0102163	0.000746688	0.00019579	4.97354E-05	0	5	0	
0.043	0.00945596	0.00225018	0.000187361	3.12432E-05	0	5	0	
0.0431667	-0.00708512	-0.000466749	0.000199113	2.93405E-05	0	5	0	
0.0433333	0.00299588	0.000754938	0.000195784	2.97371E-05	0	5	0	
0.0435	-0.00280574	8.86776E-06	0.000154779	2.60648E-05	0	5	0	
0.0436667	0.00763352	0.000295698	0.000118332	2.21447E-05	0	5	0	
0.0438333	-0.0120434	-0.00306502	0.000124564	3.74541E-05	0	5	0	
0.044	0.0107226	0.00497021	0.00017142	7.04696E-05	0	5	0	
0.0441667	-0.00699904	-0.000739929	0.000218478	8.68368E-05	0	5	0	
0.0443333	0.00448624	0.00227433	0.0002095	7.70472E-05	0	5	0	
0.0445	-0.0084281	0.00230256	0.000177431	5.23459E-05	0	5	0	
0.0446667	0.00996534	0.000854378	0.000154139	4.56576E-05	0	5	0	
0.0448333	-0.00912971	-0.00492009	0.000165242	6.61521E-05	0	5	0	
0.045	0.00872653	0.00477758	0.000183763	8.01577E-05	0	5	0	
0.0451667	-0.0111436	-0.000390896	0.000195115	9.27881E-05	0	5	0	
0.0453333	0.00820507	-0.000961877	0.000202173	7.56214E-05	0	5	0	
0.0455	-0.00633688	0.00415868	0.000201985	6.63351E-05	0	5	0	
0.0456667	0.00617334	0.000206275	0.000179218	5.55722E-05	0	5	0	
0.0458333	-0.00817879	-0.00318226	0.000153363	5.80326E-05	0	5	0	
0.046	0.00933776	0.00101786	0.000150061	6.19401E-05	0	5	0	
0.0461667	-0.00988929	0.00187839	0.000164347	5.87477E-05	0	5	0	
0.0463333	0.00803954	0.000718664	0.000179918	7.40738E-05	0	5	0	
0.0465	-0.0106038	-0.00985889	0.000184855	0.000120492	0	5	0	
0.0466667	0.0165761	0.0180017	0.000206634	0.000184869	0	5	0	
0.0468333	-0.0173374	-0.0169865	0.000248465	0.00026342	0	5	0	
0.047	0.00859148	0.0123683	0.000314928	0.000325073	0	5	0	
0.0471667	0.00197421	-0.000998495	0.000340643	0.000316946	0	5	0	
0.0473333	-0.000649302	-0.00952755	0.000256825	0.000238252	0	5	0	
0.0475	-0.0101434	0.0141203	0.000194091	0.000182074	0	5	0	
0.0476667	0.0162926	-0.00536566	0.000174709	0.000204161	0	5	0	
0.0478333	-0.0159505	-0.0122849	0.000253724	0.000316038	0	5	0	
0.048	0.0127955	0.0185213	0.000289251	0.000377419	0	5	0	
0.0481667	-0.0092742	-0.00671387	0.000281983	0.000355093	0	5	0	
0.0483333	0.00624315	0.00199329	0.000247803	0.000235947	0	5	0	
0.0485	-0.00561175	-0.00795615	0.00019497	0.000136224	0	5	0	
0.0486667	0.00837399	0.0189303	0.000157248	0.000209063	0	5	0	
0.0488333	-0.0122525	-0.00838283	0.000151651	0.00035818	0	5	0	
0.049	0.0137242	0.00245067	0.000188158	0.000369151	0	5	0	
0.0491667	-0.0118103	-0.000936138	0.000223435	0.000263305	0	5	0	
0.0493333	0.00817494	0.00123651	0.000244837	0.000115125	0	5	0	
0.0495	-0.00793328	-0.00329041	0.000226373	9.56672E-05	0	5	0	
0.0496667	0.00933994	0.0151685	0.000202728	0.000118894	0	5	0	
0.0498333	-0.0103935	-0.0115882	0.000177102	0.000228394	0	5	0	
0.05	0.00975814	0.00803555	0.000186041	0.000251774	0	5	0	
0.0501667	-0.0051731	-0.00168517	0.000187371	0.00021807	0	5	0	
0.0503333	0.00404431	-0.00292272	0.000177987	0.000103879	0	5	0	
0.0505	-0.00779193	0.00151353	0.000147601	6.89399E-05	0	5	0	
0.0506667	0.0118978	0.000235726	0.000148866	4.67899E-05	0	5	0	
0.0508333	-0.0121903	-0.00199769	0.000179226	4.49578E-05	0	5	0	
0.051	0.0085979	0.0046228	0.000211354	8.1475E-05	0	5	0	
0.0511667	-0.0065533	-0.00193338	0.000200509	0.000104541	0	5	0	
0.0513333	0.0108555	0.0011895	0.000185418	0.000101775	0	5	0	
0.0515	-0.00967505	-0.0035732	0.000178376	6.21683E-05	0	5	0	
0.0516667	0.00816856	0.000767209	0.000185533	5.10176E-05	0	5	0	
0.0518333	-0.00796482	0.000214335	0.000182798	4.83188E-05	0	5	0	
0.052	0.0104312	-0.000249969	0.000175459	4.76562E-05	0	5	0	
0.0521667	-0.0121293	-0.00189647	0.00018615	3.44033E-05	0	5	0	
0.0523333	0.0112303	0.00441318	0.000209235	3.86238E-05	0	5	0	
0.0525	-0.00480228	-0.00471513	0.000221085	6.28789E-05	0	5	0	
0.0526667	0.00222633	0.00206933	0.000189019	7.73751E-05	0	5	0	
0.0528333	-0.0066916	-0.00621185	0.000147201	7.83756E-05	0	5	0	
0.053	0.0159566	0.00818845	0.000156441	9.39154E-05	0	5	0	
0.0531667	-0.0207693	-0.00878094	0.000230632	0.000133643	0	5	0	
0.0533333	0.0187983	0.00462388	0.000320126	0.000155541	0	5	0	
0.0535	-0.00911035	-0.00587162	0.000365173	0.000141723	0	5	0	
0.0536667	0.00253596	-0.00128455	0.000324064	0.000124526	0	5	0	
0.0538333	-0.00735443	0.00234523	0.000237827	9.60629E-05	0	5	0	
0.054	0.0121577	0.00183348	0.000175951	0.000122746	0	5	0	
0.0541667	-0.0051889	-0.00741989	0.000158667	0.000151266	0	5	0	
0.0543333	0.000891137	0.00570783	0.000142386	0.000179032	0	5	0	
0.0545	-0.00698321	-0.00980024	0.000139604	0.000165552	0	5	0	
0.0546667	0.0152221	0.0109573	0.000170853	0.000173715	0	5	0	
0.0548333	-0.010825	-0.00458958	0.000224763	0.000186302	0	5	0	
0.055	0.0049965	-0.00416008	0.000222851	0.000160427	0	5	0	
0.0551667	-0.00841883	0.00481616	0.000185702	0.000130298	0	5	0	
0.0553333	0.0116795	0.00153109	0.000171797	8.97169E-05	0	5	0	
0.0555	-0.00692227	-0.00819014	0.000197689	0.000102514	0	5	0	
0.0556667	0.000135288	0.00647287	0.000233932	0.000106837	0	5	0	
0.0558333	-0.00170418	0.00345847	0.000187728	0.000122437	0	5	0	
0.056	0.0103045	-0.00261109	0.000148956	0.000111849	0	5	0	
0.0561667	-0.0129905	0.000197815	0.000138923	8.28479E-05	0	5	0	
0.0563333	0.00941492	0.00808856	0.000195157	0.000100826	0	5	0	
0.0565	-0.00700249	-0.00765024	0.000209503	0.000130923	0	5	0	
0.0566667	0.00724846	0.00141103	0.000187062	0.000145298	0	5	0	
0.0568333	-0.00951028	0.00220078	0.000170611	0.000133455	0	5	0	
0.057	0.00942637	0.00296671	0.00017282	9.71835E-05	0	5	0	
0.0571667	-0.00569821	-0.00884738	0.000185825	0.000105528	0	5	0	
0.0573333	0.00428141	0.0162329	0.000171295	0.000182335	0	5	0	
0.0575	-0.00635201	-0.00799928	0.000146708	0.000272569	0	5	0	
0.0576667	0.0119688	-0.000960188	0.000147358	0.000251404	0	5	0	
0.0578333	-0.0131456	0.00265467	0.000176779	0.000153175	0	5	0	
0.058	0.0114799	-0.0013069	0.000223574	6.06285E-05	0	5	0	
0.0581667	-0.0088628	-0.00618506	0.000233044	6.05863E-05	0	5	0	
0.0583333	0.0088915	0.0127516	0.000218179	0.00010945	0	5	0	
0.0585	-0.00776174	-0.00972703	0.000190337	0.000200382	0	5	0	
0.0586667	0.0075414	0.00237928	0.000169894	0.000220658	0	5	0	
0.0588333	-0.00831043	0.000783393	0.000163127	0.000166402	0	5	0	
0.059	0.00891251	0.000713097	0.00016524	6.78866E-05	0	5	0	
0.0591667	-0.0082191	-0.00447665	0.000171429	4.21557E-05	0	5	0	
0.0593333	0.00979342	0.00590763	0.000176106	6.41743E-05	0	5	0	
0.0595	-0.0114281	-0.00154142	0.000186221	8.54737E-05	0	5	0	
0.0596667	0.00978464	0.00101928	0.00019888	7.73003E-05	0	5	0	
0.0598333	-0.00620569	0.000913403	0.000208493	6.52787E-05	0	5	0	
0.06	0.00578109	0.000294965	0.000184412	5.70721E-05	0	5	0	
0.0601667	-0.00909559	-0.00286893	0.000159927	7.0586E-05	0	5	0	
0.0603333	0.0121855	0.00299681	0.000157982	7.00904E-05	0	5	0	
0.0605	-0.0122994	-0.00306773	0.000192788	7.93643E-05	0	5	0	
0.0606667	0.00934542	0.00757357	0.000214714	8.91316E-05	0	5	0	
0.0608333	-0.0136839	-0.0059744	0.000232956	0.000120645	0	5	0	
0.061	0.0150091	0.00671267	0.000263543	0.000123797	0	5	0	
0.0611667	-0.0103874	-0.00792498	0.000286132	0.0001399	0	5	0	
0.0613333	0.00522738	0.00971965	0.000278027	0.000142167	0	5	0	
0.0615	-0.0110925	-0.00605113	0.000283323	0.000162583	0	5	0	
0.0616667	0.0164859	-0.0012029	0.000328007	0.000131299	0	5	0	
0.0618333	-0.0100577	-0.000838522	0.00033364	0.000116278	0	5	0	
0.062	-0.00393787	0.0022169	0.000246329	9.23866E-05	0	5	0	
0.0621667	-0.00262864	0.00565567	0.000169663	9.09913E-05	0	5	0	
0.0623333	0.0110049	-0.00211575	0.000152228	9.14421E-05	0	5	0	
0.0625	6.48086E-05	-0.00427918	0.000196228	0.000126035	0	5	0	
0.0626667	-0.0130376	0.00527301	0.000229014	0.000157341	0	5	0	
0.0628333	0.00351889	-0.0036665	0.00022032	0.000151895	0	5	0	
0.063	0.0118351	0.00866039	0.000242671	0.000121533	0	5	0	
0.0631667	-0.0117101	-0.00877473	0.000218769	0.000144322	0	5	0	
0.0633333	0.0041228	-0.00145963	0.000222862	0.000245376	0	5	0	
0.0635	-0.00082885	0.0156311	0.000151672	0.000337145	0	5	0	
0.0636667	0.00268849	-0.0193962	0.000103831	0.000377809	0	5	0	
0.0638333	-0.00895845	0.0128921	9.97797E-05	0.000347164	0	5	0	
0.064	0.0158158	0.00347069	0.00016889	0.000346745	0	5	0	
0.0641667	-0.0178142	-0.0178488	0.000246617	0.000379173	0	5	0	
0.0643333	0.0143197	0.0227619	0.000303775	0.000415548	0	5	0	
0.0645	-0.0102998	-0.0165932	0.000310566	0.000397812	0	5	0	
0.0646667	0.00717038	0.00507665	0.000284536	0.000394886	0	5	0	
0.0648333	-0.00297333	0.0028352	0.000242071	0.000402332	0	5	0	
0.065	-0.000474411	0.00306351	0.00018185	0.000387709	0	5	0	
0.0651667	-0.006439	-0.0023257	0.000141604	0.000293047	0	5	0	
0.0653333	0.0165071	0.000351894	0.000152338	0.000158272	0	5	0	
0.0655	-0.0134329	-0.00211417	0.000201584	8.42063E-05	0	5	0	
0.0656667	0.00196917	0.000807543	0.000251468	5.84602E-05	0	5	0	
0.0658333	-0.00121522	0.0132348	0.000196882	0.000112235	0	5	0	
0.066	0.0132448	-0.0269701	0.000195919	0.000233215	0	5	0	
0.0661667	-0.0185767	0.0833405	0.00027195	0.000801664	0	5	0	
0.0663333	0.0176691	-0.00353825	0.000372203	0.00118649	0	5	0	
0.0665	-0.0128855	-0.0240896	0.000373081	0.00146514	0	5	0	
0.0666667	0.0109126	0.0420269	0.000294488	0.0011572	0	5	0	
0.0668333	-0.00999045	-0.0308751	0.000232619	0.00090993	0	5	0	
0.067	0.00577401	-0.0161101	0.000200319	0.000765147	0	5	0	
0.0671667	0.00384759	0.0780069	0.000148603	0.000884382	0	5	0	
0.0673333	-0.00212132	-0.0206408	0.000126031	0.00117361	0	5	0	
0.0675	-0.00448707	0.0385736	0.00010932	0.00110289	0	5	0	
0.0676667	0.00845806	-0.0186576	0.000128449	0.000884093	0	5	0	
0.0678333	-0.00653656	-0.00249738	0.000132597	0.000569854	0	5	0	
0.068	0.00641428	0.00799224	0.000135124	0.000464513	0	5	0	
0.0681667	-0.00821328	0.000266003	0.000136116	0.000302728	0	5	0	
0.0683333	0.0112542	-0.0102431	0.000150963	0.000172845	0	5	0	
0.0685	-0.0117651	0.00368815	0.000180153	0.000115296	0	5	0	
0.0686667	0.0106738	0.00723539	0.000204367	0.000173077	0	5	0	
0.0688333	-0.00796737	-0.0114511	0.000211557	0.000184348	0	5	0	
0.069	0.00757304	0.00685797	0.000196107	0.000204131	0	5	0	
0.0691667	-0.00749996	-0.000640046	0.000178364	0.000173138	0	5	0	
0.0693333	0.00809857	0.00315561	0.00016338	0.000133204	0	5	0	
0.0695	-0.0116901	-0.00809976	0.000168755	0.000104888	0	5	0	
0.0696667	0.0168024	0.00907457	0.000205232	0.000106399	0	5	0	
0.0698333	-0.0173121	-0.00754892	0.000257084	0.000156585	0	5	0	
0.07	0.0116729	0.00220986	0.00030927	0.000157919	0	5	0	
0.0701667	-0.00260321	0.000893952	0.000303331	0.000135183	0	5	0	
0.0703333	0.00343868	-0.00578808	0.000226575	0.000115984	0	5	0	
0.0705	-0.0104227	0.00325258	0.000162822	0.000125064	0	5	0	
0.0706667	0.0111635	0.00378175	0.000145845	0.000111263	0	5	0	
0.0708333	-0.00836873	-0.00389039	0.000181456	9.17635E-05	0	5	0	
0.071	0.0123726	-0.00425813	0.00020384	0.000120482	0	5	0	
0.0711667	-0.0149563	-0.00279042	0.000218237	0.000176701	0	5	0	
0.0713333	0.00995488	0.00442342	0.000236718	0.000190716	0	5	0	
0.0715	-0.00510753	-0.00543622	0.000229949	0.000178211	0	5	0	
0.0716667	0.008569	0.00324968	0.000193961	0.000149894	0	5	0	
0.0718333	-0.0142877	-0.00940967	0.000182933	0.000143801	0	5	0	
0.072	0.0127592	0.017525	0.000207801	0.000174172	0	5	0	
0.0721667	-0.00740451	-0.0175825	0.000232412	0.000249086	0	5	0	
0.0723333	0.00698637	0.00495532	0.000211207	0.000282049	0	5	0	
0.0725	-0.0104913	-0.00187833	0.000176418	0.000226596	0	5	0	
0.0726667	0.0106104	0.00491978	0.000170085	0.000131149	0	5	0	
0.0728333	-0.00969534	-0.0122678	0.000188871	0.000112242	0	5	0	
0.073	0.00895688	0.0115909	0.000197358	0.000161225	0	5	0	
0.0731667	-0.0089786	0.00275173	0.000191219	0.000194684	0	5	0	
0.0733333	0.00752529	-0.013237	0.000181514	0.000217744	0	5	0	
0.0735	-0.00523523	0.0143977	0.000162316	0.000226809	0	5	0	
0.0736667	0.00751829	-0.00509981	0.000148851	0.00023056	0	5	0	
0.0738333	-0.0123764	-0.00695809	0.000154902	0.000251256	0	5	0	
0.074	0.011577	0.0205714	0.000180773	0.000279419	0	5	0	
0.0741667	-0.00843962	-0.0132518	0.000201695	0.000319566	0	5	0	
0.0743333	0.00875381	0.00722402	0.000198575	0.000316297	0	5	0	
0.0745	-0.0101606	0.00175126	0.000186518	0.000313006	0	5	0	
0.0746667	0.0102606	-0.00584952	0.000188381	0.000290689	0	5	0	
0.0748333	-0.0072586	0.00483059	0.000186458	0.000223363	0	5	0	
0.075	0.00664194	0.00500989	0.000170327	0.000170027	0	5	0	
0.0751667	-0.00860673	-0.00459845	0.000153522	0.000163731	0	5	0	
0.0753333	0.0101497	0.00690698	0.000154814	0.000167448	0	5	0	
0.0755	-0.00954027	-0.00280272	0.000171848	0.000137538	0	5	0	
0.0756667	0.00861723	0.0023251	0.000183461	9.01648E-05	0	5	0	
0.0758333	-0.00779531	-0.00480528	0.000176145	8.91419E-05	0	5	0	
0.076	0.00994613	0.00502216	0.000171727	8.19274E-05	0	5	0	
0.0761667	-0.00916215	-0.00169972	0.000174064	8.53353E-05	0	5	0	
0.0763333	0.00658848	0.00295968	0.000172911	7.1785E-05	0	5	0	
0.0765	-0.00733165	-0.00427562	0.000161502	6.43916E-05	0	5	0	
0.0766667	0.00976086	0.00505586	0.000153566	7.01537E-05	0	5	0	
0.0768333	-0.00932602	-0.00194024	0.000162276	7.1545E-05	0	5	0	
0.077	0.00841605	-0.00261639	0.000177667	6.95029E-05	0	5	0	
0.0771667	-0.00712518	0.00421135	0.000172836	9.53965E-05	0	5	0	
0.0773333	0.00656371	0.00179344	0.00015712	0.000155091	0	5	0	
0.0775	-0.00885459	-0.00603243	0.000148399	0.000193487	0	5	0	
0.0776667	0.00917906	0.00854495	0.000154978	0.000179105	0	5	0	
0.0778333	-0.00802979	-0.00533717	0.000168439	0.000139034	0	5	0	
0.078	0.0103837	0.000631022	0.000173956	0.000127417	0	5	0	
0.0781667	-0.0117461	0.00422797	0.000182639	0.000138253	0	5	0	
0.0783333	0.00959706	-0.00616993	0.00019738	0.000140543	0	5	0	
0.0785	-0.00780526	0.00237435	0.000201704	0.000116127	0	5	0	
0.0786667	0.00804028	0.00412383	0.000185251	9.44036E-05	0	5	0	
0.0788333	-0.00947035	-0.00880074	0.000169221	9.76861E-05	0	5	0	
0.079	0.0110807	0.0113617	0.00017115	0.000140629	0	5	0	
0.0791667	-0.0109386	-0.00316368	0.000189517	0.000228282	0	5	0	
0.0793333	0.0051973	-0.0137823	0.000207818	0.000346974	0	5	0	
0.0795	0.00521888	0.0269977	0.000215732	0.000426604	0	5	0	
0.0796667	-0.00507544	-0.0189762	0.000182005	0.000432881	0	5	0	
0.0798333	-0.0087078	0.0114507	0.000227242	0.000391668	0	5	0	
0.08	0.0195224	0.00159359	0.000275268	0.000344277	0	5	0	
0.0801667	-0.0175815	-0.0150243	0.000347917	0.000295253	0	5	0	
0.0803333	0.0125536	0.0227917	0.000328216	0.000282614	0	5	0	
0.0805	-0.00900863	-0.0170725	0.000294662	0.000345289	0	5	0	
0.0806667	0.00304217	0.00656655	0.00026018	0.000466705	0	5	0	
0.0808333	0.00107143	0.00983054	0.000220204	0.000516304	0	5	0	
0.081	0.000447733	-0.00850189	0.000142548	0.000438553	0	5	0	
0.0811667	-0.00791782	0.000715899	0.000126457	0.000267644	0	5	0	
0.0813333	0.0134733	0.00547015	0.000140218	0.000132118	0	5	0	
0.0815	-0.0127697	-0.00543865	0.000215876	9.11806E-05	0	5	0	
0.0816667	0.00815195	0.000464744	0.000228107	8.77751E-05	0	5	0	
0.0818333	-0.00762814	0.00374948	0.000206067	8.88501E-05	0	5	0	
0.082	0.00808335	-0.00100631	0.000172834	7.03598E-05	0	5	0	
0.0821667	-0.0112519	-0.000291869	0.000163558	5.37463E-05	0	5	0	
0.0823333	0.0086417	-0.000207801	0.000171884	4.25629E-05	0	5	0	
0.0825	-0.00289727	-0.000179139	0.000171273	2.37418E-05	0	5	0	
0.0826667	0.00160921	0.0040251	0.000126926	3.5566E-05	0	5	0	
0.0828333	-0.010494	-0.00115973	0.000120599	4.24038E-05	0	5	0	
0.083	0.01281	-0.00230276	0.000147832	4.5048E-05	0	5	0	
0.0831667	-0.00885473	0.00311834	0.00020048	5.09831E-05	0	5	0	
0.0833333	0.00680632	0.0028196	0.000198225	5.53412E-05	0	5	0	
0.0835	-0.0107724	-0.0061385	0.00018072	8.8168E-05	0	5	0	
0.0836667	0.0104972	0.0116274	0.000180636	0.000119939	0	5	0	
0.0838333	-0.00925405	0.00291415	0.000192165	0.000158189	0	5	0	
0.084	0.00917483	-0.00544373	0.000190117	0.000155941	0	5	0	
0.0841667	-0.00908814	0.000143648	0.000177557	0.000133182	0	5	0	
0.0843333	0.00704791	0.00761795	0.000169239	0.000104315	0	5	0	
0.0845	-0.00577864	-0.00748823	0.000155755	0.000118277	0	5	0	
0.0846667	0.00749959	0.00466392	0.000148782	0.000121601	0	5	0	
0.0848333	-0.009522	0.00250704	0.000146034	0.000126829	0	5	0	
0.085	0.00824488	0.00278705	0.000153844	0.000103611	0	5	0	
0.0851667	-0.0073015	-0.00709528	0.000158603	0.000102292	0	5	0	
0.0853333	0.0106223	0.00747836	0.000163691	0.000115165	0	5	0	
0.0855	-0.0130303	-0.00425135	0.000185532	0.000128288	0	5	0	
0.0856667	0.0102087	-0.000724484	0.000207179	0.000102739	0	5	0	
0.0858333	-0.00280402	0.00125719	0.000209858	7.65586E-05	0	5	0	
0.086	0.00128078	-0.00184987	0.00016742	5.5005E-05	0	5	0	
0.0861667	-0.00518027	0.000366873	0.000124446	5.12159E-05	0	5	0	
0.0863333	0.0109194	0.00249227	0.00013413	6.12251E-05	0	5	0	
0.0865	-0.0145919	-0.00632262	0.000188457	0.000107764	0	5	0	
0.0866667	0.0129899	0.00755759	0.000239457	0.000139448	0	5	0	
0.0868333	-0.00969557	-0.00363066	0.000243262	0.000156933	0	5	0	
0.087	0.0121046	-0.000208075	0.00022946	0.000148242	0	5	0	
0.0871667	-0.0122621	0.000223397	0.00022167	0.000131962	0	5	0	
0.0873333	0.00777007	-0.000291859	0.000212722	8.39622E-05	0	5	0	
0.0875	-0.00456347	0.000389586	0.000184464	4.20919E-05	0	5	0	
0.0876667	0.00800387	0.00231299	0.000153272	4.57259E-05	0	5	0	
0.0878333	-0.0126068	-0.00491369	0.000153714	7.05193E-05	0	5	0	
0.088	0.00963813	0.00496038	0.000178599	8.13964E-05	0	5	0	
0.0881667	-0.00402552	-0.00537908	0.000182807	9.56809E-05	0	5	0	
0.0883333	0.00521034	0.00418637	0.000155989	0.000109401	0	5	0	
0.0885	-0.0113964	0.00100955	0.000153754	9.37173E-05	0	5	0	
0.0886667	0.0150821	-0.00739512	0.000189996	8.22579E-05	0	5	0	
0.0888333	-0.011706	0.000820934	0.000234466	8.3403E-05	0	5	0	
0.089	0.0067393	0.0256394	0.000232019	0.000262692	0	5	0	
0.0891667	-0.00850551	-0.00136625	0.00020019	0.000545292	0	5	0	
0.0893333	0.00955634	0.00976651	0.000175505	0.000654752	0	5	0	
0.0895	-0.00829042	-0.00448918	0.000163612	0.000505217	0	5	0	
0.0896667	0.00693561	0.00243408	0.000162386	0.000236912	0	5	0	
0.0898333	-0.00769435	0.00243479	0.000151953	0.000143208	0	5	0	
0.09	0.0104565	-0.011043	0.00016284	0.000128629	0	5	0	
0.0901667	-0.0137423	0.0430104	0.00018615	0.000293137	0	5	0	
0.0903333	0.0111118	-0.0107088	0.000212439	0.000421019	0	5	0	
0.0905	-0.00756453	0.00163111	0.000213245	0.000465371	0	5	0	
0.0906667	0.00850788	0.00362929	0.000189283	0.000272072	0	5	0	
0.0908333	-0.0106773	-0.00167901	0.000180876	0.000106097	0	5	0	
0.091	0.00996128	0.000944293	0.00018349	4.87036E-05	0	5	0	
0.0911667	-0.00890627	-0.00337367	0.000189316	6.3149E-05	0	5	0	
0.0913333	0.008731	0.0035534	0.000177682	8.32592E-05	0	5	0	
0.0915	-0.00800194	-0.00397873	0.000166745	8.72854E-05	0	5	0	
0.0916667	0.00639333	0.00510298	0.000155804	9.74471E-05	0	5	0	
0.0918333	-0.00700105	-0.0022165	0.000155814	8.58066E-05	0	5	0	
0.092	0.0104602	0.00219056	0.000159636	9.11806E-05	0	5	0	
0.0921667	-0.0109584	-0.00514034	0.000178772	7.37872E-05	0	5	0	
0.0923333	0.00922531	0.00705427	0.000188647	8.61661E-05	0	5	0	
0.0925	-0.00916608	-0.0051129	0.000186462	9.87611E-05	0	5	0	
0.0926667	0.00956423	0.00177313	0.00018488	9.88731E-05	0	5	0	
0.0928333	-0.0103302	-0.000497045	0.000183281	6.7646E-05	0	5	0	
0.093	0.00930845	0.00294197	0.000186166	5.11158E-05	0	5	0	
0.0931667	-0.00791774	-0.00456349	0.000178412	6.58792E-05	0	5	0	
0.0933333	0.00855338	0.00278138	0.000168248	8.6076E-05	0	5	0	
0.0935	-0.00922314	-0.000850542	0.000163518	7.53152E-05	0	5	0	
0.0936667	0.00690411	-0.00133735	0.000165357	5.4141E-05	0	5	0	
0.0938333	-0.00778208	-0.00294462	0.000157464	3.95988E-05	0	5	0	
0.094	0.0113521	0.00398808	0.000171315	5.63619E-05	0	5	0	
0.0941667	-0.0134329	-0.00193298	0.000191844	6.45726E-05	0	5	0	
0.0943333	0.00873341	0.000167763	0.000215744	5.42768E-05	0	5	0	
0.0945	-0.00692496	-0.00152903	0.00020092	3.48147E-05	0	5	0	
0.0946667	0.00716209	0.00262065	0.000168893	3.34988E-05	0	5	0	
0.0948333	-0.00778702	0.000216977	0.000142884	5.8859E-05	0	5	0	
0.095	0.0061178	-0.00692379	0.000139298	8.69826E-05	0	5	0	
0.0951667	-0.00819159	0.00119372	0.000145539	0.000153182	0	5	0	
0.0953333	0.0131661	0.00872001	0.000190608	0.000230372	0	5	0	
0.0955	-0.0191915	-0.0116644	0.000246012	0.00027622	0	5	0	
0.0956667	0.0170627	0.00939732	0.000302272	0.000243658	0	5	0	
0.0958333	-0.0107311	-0.000481865	0.000315813	0.000198729	0	5	0	
0.096	0.00320689	-0.00685327	0.00027758	0.000175553	0	5	0	
0.0961667	-0.000622093	0.00838237	0.000199338	0.0001742	0	5	0	
0.0963333	0.00230655	-0.00932719	0.000122966	0.0001663	0	5	0	
0.0965	-0.00831927	0.00239617	0.000122204	0.000180706	0	5	0	
0.0966667	0.0124967	0.0060651	0.000171272	0.00020333	0	5	0	
0.0968333	-0.0132371	-0.00817359	0.000233415	0.000192411	0	5	0	
0.097	0.0121792	0.0054224	0.000240491	0.000175771	0	5	0	
0.0971667	-0.0102502	-0.00247084	0.000233235	0.000133588	0	5	0	
0.0973333	0.00646336	0.00298825	0.00020973	0.000112518	0	5	0	
0.0975	-0.00713396	-0.00407809	0.000182116	8.26037E-05	0	5	0	
0.0976667	0.0112333	0.00385435	0.000174911	7.81404E-05	0	5	0	
0.0978333	-0.0130776	-0.00493618	0.000187078	9.04067E-05	0	5	0	
0.098	0.00913325	0.00349838	0.000207867	9.30337E-05	0	5	0	
0.0981667	-0.00619081	-0.00184387	0.000198873	8.14508E-05	0	5	0	
0.0983333	0.00749012	0.00259134	0.000171558	6.01692E-05	0	5	0	
0.0985	-0.0114363	-0.00326148	0.000169422	5.21633E-05	0	5	0	
0.0986667	0.0127755	0.00498708	0.000190131	6.4464E-05	0	5	0	
0.0988333	-0.0109089	-0.00361026	0.000216103	8.48829E-05	0	5	0	
0.099	0.00712527	-0.000248609	0.000208553	7.58688E-05	0	5	0	
0.0991667	-0.00834622	0.00245426	0.000185657	5.16446E-05	0	5	0	
0.0993333	0.0096822	0.00231983	0.000166239	3.02026E-05	0	5	0	
0.0995	-0.008496	-0.00575291	0.000167284	4.6998E-05	0	5	0	
0.0996667	0.00853685	0.00689447	0.000172249	7.87184E-05	0	5	0	
0.0998333	-0.0102669	-0.00627733	0.000178672	0.000109345	0	5	0	
0.1	0.00915131	0.0015088	0.000183421	0.000108714	0	5	0	
0.100167	-0.00883889	-0.000988715	0.000182151	8.45535E-05	0	5	0	
0.100333	0.00766294	-0.00196566	0.000172359	5.30212E-05	0	5	0	
0.1005	-0.00814141	0.000213506	0.000167435	3.65002E-05	0	5	0	
0.100667	0.0100666	0.00587753	0.000170053	4.42249E-05	0	5	0	
0.100833	-0.0111746	-0.00584232	0.000187049	7.11669E-05	0	5	0	
0.101	0.00974997	-0.000981185	0.000196556	9.34774E-05	0	5	0	
0.101167	-0.00976161	-7.9603E-05	0.000193381	7.80515E-05	0	5	0	
0.101333	0.00872988	-0.000177312	0.000184749	4.59108E-05	0	5	0	
0.1015	-0.0116079	-0.00507469	0.000186434	4.66116E-05	0	5	0	
0.101667	0.014418	0.00678604	0.000205341	9.81735E-05	0	5	0	
0.101833	-0.012268	-0.00297645	0.000236408	0.000138879	0	5	0	
0.102	0.00863691	-0.000564174	0.000247709	0.000130705	0	5	0	
0.102167	-0.00533228	0.00450304	0.000231088	8.32865E-05	0	5	0	
0.102333	-0.00108465	-0.00404351	0.000213364	9.5232E-05	0	5	0	
0.1025	0.00752662	-0.00660533	0.000203375	0.000175733	0	5	0	
0.102667	-0.0100617	0.0149959	0.000208054	0.000235334	0	5	0	
0.102833	-0.000836795	-0.0100891	0.000324413	0.000262153	0	5	0	
0.103	0.0151362	0.00563233	0.000450878	0.000218877	0	5	0	
0.103167	-0.0182026	-0.00170351	0.000501137	0.000185651	0	5	0	
0.103333	0.0156799	-0.00453582	0.000419531	0.000152968	0	5	0	
0.1035	-0.013829	0.0081213	0.000342992	0.000145645	0	5	0	
0.103667	-0.000386948	-0.00162864	0.000346541	0.000136141	0	5	0	
0.103833	0.0139953	-0.00385341	0.000351853	0.000116234	0	5	0	
0.104	-0.00932774	0.000503659	0.000312044	7.45509E-05	0	5	0	
0.104167	-0.00702988	0.00202137	0.000255142	5.68857E-05	0	5	0	
0.104333	0.0139319	0.00248752	0.000207629	6.02864E-05	0	5	0	
0.1045	-0.0114379	-0.00511094	0.000205869	8.1959E-05	0	5	0	
0.104667	0.00953423	0.0022964	0.000216289	9.71039E-05	0	5	0	
0.104833	-0.00806726	-0.00360829	0.000209287	0.0001005	0	5	0	
0.105	0.00447976	0.00295863	0.000173744	0.000103799	0	5	0	
0.105167	-0.00498463	-0.00354716	0.000145	0.000127039	0	5	0	
0.105333	0.00951819	0.00160032	0.000151057	0.00011696	0	5	0	
0.1055	-0.0104017	-0.00075527	0.000173206	0.000101333	0	5	0	
0.105667	0.00944204	0.00290747	0.000190677	8.26436E-05	0	5	0	
0.105833	-0.00866076	-0.00488544	0.000187863	6.94752E-05	0	5	0	
0.106	0.0109714	0.00288164	0.000190849	7.72713E-05	0	5	0	
0.106167	-0.0110256	-0.00395961	0.000205613	6.60542E-05	0	5	0	
0.106333	0.00925642	0.00262752	0.00020807	7.79278E-05	0	5	0	
0.1065	-0.0100221	-0.00152743	0.000201671	7.262E-05	0	5	0	
0.106667	0.0111226	0.00235897	0.000191356	7.62058E-05	0	5	0	
0.106833	-0.00944731	-0.000614185	0.000193038	6.83809E-05	0	5	0	
0.107	0.00633415	0.000541719	0.000185958	5.56048E-05	0	5	0	
0.107167	-0.00619688	-0.00264873	0.000162491	4.18597E-05	0	5	0	
0.107333	0.00883107	0.00217896	0.000156788	4.13841E-05	0	5	0	
0.1075	-0.010635	-0.00277179	0.000167863	5.3415E-05	0	5	0	
0.107667	0.00994183	0.000330042	0.000191814	6.0131E-05	0	5	0	
0.107833	-0.0116398	0.000478247	0.000203995	4.8925E-05	0	5	0	
0.108	0.0128595	0.0012398	0.000212682	3.44853E-05	0	5	0	
0.108167	-0.00813041	-0.00520802	0.00021274	5.18598E-05	0	5	0	
0.108333	0.00406663	0.00732248	0.000185093	9.36659E-05	0	5	0	
0.1085	-0.00597704	-0.00709101	0.000149306	0.000132447	0	5	0	
0.108667	0.0108243	0.00398847	0.000150429	0.000140975	0	5	0	
0.108833	-0.0106862	-0.00335758	0.000170233	0.000124407	0	5	0	
0.109	0.00716699	0.00240916	0.000186159	0.000107882	0	5	0	
0.109167	-0.00558295	-0.00645914	0.000167952	8.80846E-05	0	5	0	
0.109333	0.0107501	0.00546859	0.000161737	9.80902E-05	0	5	0	
0.1095	-0.011848	-0.00172703	0.000177384	9.37429E-05	0	5	0	
0.109667	0.00746781	-0.00029809	0.00019007	8.82312E-05	0	5	0	
0.109833	-0.00454522	-0.00122945	0.000169708	6.03623E-05	0	5	0	
0.11	0.00952927	0.00198737	0.000154855	4.307E-05	0	5	0	
0.110167	-0.0128192	0.00102718	0.000164528	5.36545E-05	0	5	0	
0.110333	0.010576	-0.00731967	0.000203201	6.20962E-05	0	5	0	
0.1105	-0.00418441	0.00300144	0.00019454	8.32703E-05	0	5	0	
0.110667	0.0051545	0.00445075	0.000156164	0.000129766	0	5	0	
0.110833	-0.00743402	-0.00585361	0.000131064	0.000169173	0	5	0	
0.111	0.010094	0.00485997	0.000143876	0.000175318	0	5	0	
0.111167	-0.00963032	0.00300618	0.000181872	0.000141688	0	5	0	
0.111333	0.0114971	-0.00104379	0.000212894	0.000155245	0	5	0	
0.1115	-0.0125926	-0.00681902	0.000245432	0.00023293	0	5	0	
0.111667	0.0180753	0.00998929	0.000276626	0.000300526	0	5	0	
0.111833	-0.0182553	-0.0109559	0.000307237	0.000284583	0	5	0	
0.112	0.0114601	0.00590007	0.000316057	0.000235622	0	5	0	
0.112167	-0.00289554	0.00824387	0.000270033	0.00020984	0	5	0	
0.112333	0.0016051	-0.0178068	0.000173036	0.000230734	0	5	0	
0.1125	-0.00264297	0.0226869	0.000105129	0.000294779	0	5	0	
0.112667	0.00474061	-0.0198086	9.75822E-05	0.000353081	0	5	0	
0.112833	-0.00852002	0.00531203	0.000155716	0.000390304	0	5	0	
0.113	0.0108845	0.0148831	0.000206668	0.000424314	0	5	0	
0.113167	-0.0104874	-0.0136067	0.000237599	0.000439631	0	5	0	
0.113333	0.0138511	0.0195317	0.000246939	0.000443677	0	5	0	
0.1135	-0.0146634	-0.0183424	0.000258182	0.000398198	0	5	0	
0.113667	0.00993942	0.0149848	0.000252447	0.000338363	0	5	0	
0.113833	-0.00676231	-0.00272372	0.000226855	0.000302323	0	5	0	
0.114	0.00978622	-0.00369769	0.00018731	0.000241951	0	5	0	
0.114167	-0.0097302	0.01436	0.000181721	0.000205721	0	5	0	
0.114333	0.00635608	-0.00531676	0.000175727	0.000180871	0	5	0	
0.1145	-0.00460828	0.00232875	0.000163752	0.000250554	0	5	0	
0.114667	0.00945956	0.00424133	0.000174622	0.000315838	0	5	0	
0.114833	-0.0165097	-0.00403912	0.000214932	0.000315293	0	5	0	
0.115	0.0117378	0.0053219	0.000254874	0.000210589	0	5	0	
0.115167	-0.00154119	-0.00034186	0.000227103	0.000106668	0	5	0	
0.115333	0.000572902	0.00044673	0.000146109	5.85367E-05	0	5	0	
0.1155	-0.00611495	-0.00300385	0.000105389	6.26411E-05	0	5	0	
0.115667	0.0093507	0.00242505	0.000123432	6.50296E-05	0	5	0	
0.115833	-0.0108965	-0.00304331	0.000181114	7.92652E-05	0	5	0	
0.116	0.00911048	-0.000532981	0.000197476	8.00908E-05	0	5	0	
0.116167	-0.00838718	0.00678064	0.000183003	7.58365E-05	0	5	0	
0.116333	0.00808619	-0.00219676	0.000169143	9.21732E-05	0	5	0	
0.1165	-0.00767552	0.00394975	0.000162776	0.000165112	0	5	0	
0.116667	0.00801238	0.00257515	0.000163063	0.0002564	0	5	0	
0.116833	-0.00664333	-0.00821525	0.000157437	0.000300732	0	5	0	
0.117	0.00723576	0.00584159	0.000148788	0.000258386	0	5	0	
0.117167	-0.00751015	-0.00193574	0.000143067	0.000168554	0	5	0	
0.117333	0.00663683	-0.00973958	0.000139589	9.89356E-05	0	5	0	
0.1175	-0.00484712	0.00542083	0.00012741	0.000116787	0	5	0	
0.117667	0.00586889	0.00635037	0.00011874	0.000143343	0	5	0	
0.117833	-0.0120849	-0.00454883	0.000141254	0.000254803	0	5	0	
0.118	0.0276025	-0.0142752	0.00023348	0.000370973	0	5	0	
0.118167	-0.0324932	0.0155567	0.00037771	0.00043991	0	5	0	
0.118333	0.0246248	-0.00516052	0.000531592	0.00039619	0	5	0	
0.1185	-0.0141142	-0.00990898	0.000581433	0.000273203	0	5	0	
0.118667	0.0163497	0.00952985	0.000514769	0.000248037	0	5	0	
0.118833	-0.016284	-0.0205958	0.000394999	0.000285416	0	5	0	
0.119	0.00827587	0.0308285	0.00030688	0.000401806	0	5	0	
0.119167	-0.00651393	-0.0225128	0.00026158	0.000461426	0	5	0	
0.119333	0.0224502	0.000942192	0.000347586	0.000479377	0	5	0	
0.1195	-0.0288775	0.00511434	0.00048101	0.000375127	0	5	0	
0.119667	0.0209102	0.00312697	0.000567789	0.000240556	0	5	0	
0.119833	-0.0113025	-0.00620291	0.000478089	0.00013207	0	5	0	
0.12	0.013553	0.00198246	0.000341737	7.60473E-05	0	5	0	
0.120167	-0.016093	-0.00016835	0.000276498	6.90719E-05	0	5	0	
0.120333	0.0107215	0.00357287	0.000260892	4.65886E-05	0	5	0	
0.1205	-0.00712422	-0.0101846	0.000235733	7.16679E-05	0	5	0	
0.120667	0.0107314	0.0105652	0.000200608	0.00013203	0	5	0	
0.120833	-0.0125696	-0.00467679	0.000192486	0.000163053	0	5	0	
0.121	0.0107665	-0.00268172	0.000205335	0.000137024	0	5	0	
0.121167	-0.00668372	0.00532141	0.000203787	9.98565E-05	0	5	0	
0.121333	0.00498498	-9.7526E-06	0.000168902	9.95521E-05	0	5	0	
0.1215	-0.00726208	-0.00485483	0.000143843	9.27322E-05	0	5	0	
0.121667	0.00982602	0.00664012	0.000150006	0.000106547	0	5	0	
0.121833	-0.0113516	-0.00538212	0.000176379	0.000116195	0	5	0	
0.122	0.00891861	0.00277143	0.000190362	0.000132176	0	5	0	
0.122167	-0.00535535	0.00342047	0.000177229	0.000113558	0	5	0	
0.122333	0.00681299	5.13428E-05	0.000151693	8.2148E-05	0	5	0	
0.1225	-0.0110176	-0.00136783	0.000155629	7.60635E-05	0	5	0	
0.122667	0.0108463	0.0062848	0.000173465	0.000101067	0	5	0	
0.122833	-0.00725821	-0.00490363	0.000189405	0.000127695	0	5	0	
0.123	0.00526965	0.00480983	0.000165498	0.000134721	0	5	0	
0.123167	-0.00769449	-0.000245116	0.000152786	0.000109816	0	5	0	
0.123333	0.0109939	-0.000591696	0.00015937	6.80301E-05	0	5	0	
0.1235	-0.0114542	-0.00250691	0.000193163	4.58241E-05	0	5	0	
0.123667	0.0107889	0.00699793	0.000208708	5.19138E-05	0	5	0	
0.123833	-0.0106186	-0.00691818	0.000213245	9.36994E-05	0	5	0	
0.124	0.0106738	0.00110026	0.000206373	0.000109125	0	5	0	
0.124167	-0.00801447	0.00235943	0.000196105	8.88316E-05	0	5	0	
0.124333	0.00473783	0.0018352	0.000167802	4.99902E-05	0	5	0	
0.1245	-0.00387751	-0.00606507	0.000150226	5.42592E-05	0	5	0	
0.124667	0.0110811	0.00219	0.000161417	7.17727E-05	0	5	0	
0.124833	-0.0159674	0.00379282	0.000210762	7.99322E-05	0	5	0	
0.125	0.0141078	-0.00269714	0.000255226	7.06615E-05	0	5	0	
0.125167	-0.00595315	-0.00406794	0.000252597	6.02379E-05	0	5	0	
0.125333	0.00224006	0.00553507	0.000194078	7.73627E-05	0	5	0	
0.1255	-0.00360873	-0.00429131	0.000130511	0.000109955	0	5	0	
0.125667	0.00736475	0.00448146	0.000102851	0.00012066	0	5	0	
0.125833	-0.00852016	-0.00341854	0.000133635	0.000110393	0	5	0	
0.126	0.0117372	0.00350135	0.000177587	8.47346E-05	0	5	0	
0.126167	-0.0146589	0.000375411	0.000228316	6.53066E-05	0	5	0	
0.126333	0.0137497	-0.00163409	0.000253688	5.06799E-05	0	5	0	
0.1265	-0.00788487	-0.00475322	0.000246454	3.9086E-05	0	5	0	
0.126667	0.00412855	0.00458801	0.000199273	5.46978E-05	0	5	0	
0.126833	-0.00778727	-0.000675414	0.000164382	7.36869E-05	0	5	0	
0.127	0.0138593	-0.00375886	0.000178437	7.79913E-05	0	5	0	
0.127167	-0.0128389	0.00362873	0.000214914	9.00983E-05	0	5	0	
0.127333	0.00582808	0.00342345	0.000225936	8.65944E-05	0	5	0	
0.1275	-0.000880467	-0.00256717	0.000169115	9.29524E-05	0	5	0	
0.127667	0.00620957	-0.00217414	0.000150308	9.52028E-05	0	5	0	
0.127833	-0.0137488	-0.00344057	0.000192918	0.000178624	0	5	0	
0.128	0.0178964	0.0106193	0.000284065	0.000244433	0	5	0	
0.128167	-0.0180928	-0.0122782	0.000328811	0.000270511	0	5	0	
0.128333	0.0119938	0.00714063	0.000321409	0.00025736	0	5	0	
0.1285	-0.00294611	-0.000348814	0.000278594	0.000236963	0	5	0	
0.128667	-0.00129826	-0.00301242	0.00019232	0.000210053	0	5	0	
0.128833	-0.00104756	0.0106694	0.00014033	0.00015325	0	5	0	
0.129	0.00812915	-0.0116075	0.000162055	0.000151816	0	5	0	
0.129167	-0.0162258	-0.000179384	0.000246605	0.000237549	0	5	0	
0.129333	0.0155787	0.0138726	0.000303135	0.000329927	0	5	0	
0.1295	-0.0114188	-0.0111724	0.000292779	0.000332257	0	5	0	
0.129667	0.0081931	0.00173853	0.000248663	0.000261546	0	5	0	
0.129833	-0.00941124	0.00370625	0.00020234	0.000146897	0	5	0	
0.13	0.00811109	-0.00211152	0.000178331	0.000101009	0	5	0	
0.130167	-0.00902418	0.00269174	0.000176947	6.87871E-05	0	5	0	
0.130333	0.00925246	0.00245454	0.000181976	6.65562E-05	0	5	0	
0.1305	-0.0103949	-0.000812058	0.00018307	6.19403E-05	0	5	0	
0.130667	0.00918176	8.41735E-05	0.000183133	4.2673E-05	0	5	0	
0.130833	-0.00703777	0.00226209	0.000175995	3.87154E-05	0	5	0	
0.131	0.00656123	-0.00254406	0.000165235	4.3999E-05	0	5	0	
0.131167	-0.00968741	0.0011219	0.000168487	6.38892E-05	0	5	0	
0.131333	0.0111966	0.00480508	0.000182959	8.32182E-05	0	5	0	
0.1315	-0.00795719	-0.00610374	0.00018763	9.47936E-05	0	5	0	
0.131667	0.00592809	0.00041092	0.000171787	9.72579E-05	0	5	0	
0.131833	-0.00792344	0.0034718	0.00015637	7.7571E-05	0	5	0	
0.132	0.00980727	-0.00213275	0.00016062	6.9133E-05	0	5	0	
0.132167	-0.00893939	-0.00116547	0.000177791	5.29035E-05	0	5	0	
0.132333	0.00786405	0.00704637	0.00017976	7.87254E-05	0	5	0	
0.1325	-0.00609376	-0.00212879	0.000168701	8.80979E-05	0	5	0	
0.132667	0.00880998	-0.000253814	0.000163366	9.99725E-05	0	5	0	
0.132833	-0.0136609	0.00191332	0.000187793	8.22676E-05	0	5	0	
0.133	0.0218419	-0.00332377	0.000245971	8.50552E-05	0	5	0	
0.133167	-0.028691	0.00259323	0.000359411	0.000100231	0	5	0	
0.133333	0.0228522	0.000404275	0.000455194	0.000118698	0	5	0	
0.1335	-0.0147202	0.00779628	0.000477054	0.000106812	0	5	0	
0.133667	0.0166742	-0.00387364	0.000406951	0.000104617	0	5	0	
0.133833	-0.0121095	-0.00610311	0.000319368	0.000101823	0	5	0	
0.134	0.0118373	0.00831556	0.000270961	0.000115854	0	5	0	
0.134167	-0.0174109	-0.00678411	0.000297285	0.000135972	0	5	0	
0.134333	0.0143729	0.00231741	0.000363032	0.000164312	0	5	0	
0.1345	-0.00514466	-0.00321703	0.000353673	0.000176514	0	5	0	
0.134667	0.000913749	0.00340513	0.000256745	0.000158934	0	5	0	
0.134833	0.00309737	-0.00642713	0.000117272	0.000131871	0	5	0	
0.135	0.00617404	0.00174961	0.000145869	0.000103523	0	5	0	
0.135167	-0.0195463	-0.00187888	0.000253494	8.37458E-05	0	5	0	
0.135333	0.0206879	0.00407138	0.000368548	7.46169E-05	0	5	0	
0.1355	-0.01574	-0.00694857	0.000380507	8.13679E-05	0	5	0	
0.135667	0.014748	0.00125471	0.000342216	0.000107286	0	5	0	
0.135833	-0.0143449	3.05725E-05	0.000303134	0.000107274	0	5	0	
0.136	0.0081508	-0.00273276	0.000263853	8.9614E-05	0	5	0	
0.136167	-0.00240025	0.00229016	0.000205511	7.64403E-05	0	5	0	
0.136333	0.00551513	-0.000442732	0.000162891	7.41014E-05	0	5	0	
0.1365	-0.0138913	-0.000679282	0.000180784	7.02332E-05	0	5	0	
0.136667	0.0135208	0.00422936	0.000220949	6.12129E-05	0	5	0	
0.136833	-0.0058588	-0.00410133	0.000233667	5.73111E-05	0	5	0	
0.137	0.00600214	0.00243706	0.000186349	6.87545E-05	0	5	0	
0.137167	-0.00817765	-0.00521921	0.000153533	7.58516E-05	0	5	0	
0.137333	0.00916368	-3.09802E-05	0.000151394	8.24186E-05	0	5	0	
0.1375	-0.00676233	0.00258315	0.000163626	6.28244E-05	0	5	0	
0.137667	0.00585527	0.00285284	0.000153201	5.5307E-05	0	5	0	
0.137833	-0.00533118	-0.0048226	0.000141465	4.62693E-05	0	5	0	
0.138	0.0104618	0.00234183	0.000145499	7.94423E-05	0	5	0	
0.138167	-0.0105507	-0.00358076	0.000179448	7.99901E-05	0	5	0	
0.138333	0.00917226	-0.0014842	0.000192465	0.000106911	0	5	0	
0.1385	-0.00576433	-0.000546274	0.000183675	8.8583E-05	0	5	0	
0.138667	0.00738535	0.00164905	0.000152422	7.45901E-05	0	5	0	
0.138833	-0.0090318	-0.00284146	0.000154846	4.29319E-05	0	5	0	
0.139	0.0101583	0.00170996	0.000164064	5.05245E-05	0	5	0	
0.139167	-0.00673899	-0.00322896	0.00017475	5.13899E-05	0	5	0	
0.139333	0.00630804	-0.000404894	0.000158734	5.70312E-05	0	5	0	
0.1395	-0.0100808	-0.00164127	0.000161098	4.13204E-05	0	5	0	
0.139667	0.0105014	0.00108294	0.000171966	4.27588E-05	0	5	0	
0.139833	-0.00669172	-0.00277293	0.00018495	4.89382E-05	0	5	0	
0.14	0.00806031	0.00539634	0.000171481	7.53726E-05	0	5	0	
0.140167	-0.00971664	-0.00346009	0.000169995	9.67663E-05	0	5	0	
0.140333	0.00860655	-0.000531389	0.00017215	9.66061E-05	0	5	0	
0.1405	-0.00667337	-0.00219261	0.000170727	7.41904E-05	0	5	0	
0.140667	0.00781676	0.000499122	0.000162242	6.46893E-05	0	5	0	
0.140833	-0.00861361	-0.00142731	0.000163637	6.61575E-05	0	5	0	
0.141	0.00872611	0.00149668	0.000168075	6.5412E-05	0	5	0	
0.141167	-0.0078217	-0.000809433	0.000171297	5.44331E-05	0	5	0	
0.141333	0.00813398	0.00232486	0.000167281	4.48043E-05	0	5	0	
0.1415	-0.00934284	-0.00398329	0.000172506	3.94075E-05	0	5	0	
0.141667	0.00910541	0.00302069	0.000182388	5.57606E-05	0	5	0	
0.141833	-0.0080484	-0.00362474	0.000183664	7.74788E-05	0	5	0	
0.142	0.00988942	0.00290387	0.000185306	9.81859E-05	0	5	0	
0.142167	-0.00939836	-0.0029199	0.000185338	9.08595E-05	0	5	0	
0.142333	0.00760154	0.00316127	0.0001819	8.00023E-05	0	5	0	
0.1425	-0.00811437	-0.00128043	0.000172583	6.30953E-05	0	5	0	
0.142667	0.006447	0.00308433	0.000158143	6.53536E-05	0	5	0	
0.142833	-0.00521381	-0.000499864	0.000149188	7.83581E-05	0	5	0	
0.143	0.00703973	0.00219874	0.00015528	9.59483E-05	0	5	0	
0.143167	-0.00892417	-0.00323944	0.000172277	0.000106809	0	5	0	
0.143333	0.0112141	0.00264062	0.000192254	0.000107721	0	5	0	
0.1435	-0.00919395	-0.00185206	0.000200724	9.06623E-05	0	5	0	
0.143667	0.00516085	0.00103162	0.000180256	6.36518E-05	0	5	0	
0.143833	-0.00643434	-0.00100371	0.000159294	4.7106E-05	0	5	0	
0.144	0.0105719	0.00376508	0.000158234	4.87271E-05	0	5	0	
0.144167	-0.00894535	0.00270316	0.000168923	7.71359E-05	0	5	0	
0.144333	0.00327499	-0.0112276	0.00016624	0.000119944	0	5	0	
0.1445	0.003334	0.00947426	0.000128646	0.000167121	0	5	0	
0.144667	-0.00266408	-0.00365322	0.000129168	0.000210096	0	5	0	
0.144833	-0.00916211	-0.000845331	0.00023072	0.000252935	0	5	0	
0.145	0.0205028	0.0040475	0.00035771	0.000269232	0	5	0	
0.145167	-0.0208173	-0.00808523	0.000426586	0.000242063	0	5	0	
0.145333	0.0136255	0.0147474	0.00038692	0.000196527	0	5	0	
0.1455	-0.00357122	-0.0094606	0.000318076	0.000210736	0	5	0	
0.145667	-0.00201544	-0.00550778	0.00023471	0.000291523	0	5	0	
0.145833	0.0015474	0.0169053	0.000149325	0.00033424	0	5	0	
0.146	0.00808016	-0.00914148	0.000118868	0.000304416	0	5	0	
0.146167	-0.00630961	-0.00127473	0.000128098	0.000219977	0	5	0	
0.146333	-0.00609754	0.00774075	0.000146288	0.000141168	0	5	0	
0.1465	0.0148045	-0.00439273	0.000160851	0.000117877	0	5	0	
0.146667	-0.0107134	0.0092977	0.000188538	0.000124891	0	5	0	
0.146833	0.000796366	-0.00786568	0.000265963	0.000162928	0	5	0	
0.147	0.0138151	0.00658842	0.000347572	0.000172229	0	5	0	
0.147167	-0.0197483	-0.00152137	0.000416064	0.000151449	0	5	0	
0.147333	0.0218282	0.0043245	0.000414637	0.000107019	0	5	0	
0.1475	-0.0173972	-0.00406863	0.000411722	8.2468E-05	0	5	0	
0.147667	0.00436323	0.0100445	0.000424181	0.000103668	0	5	0	
0.147833	0.00521779	-0.00292702	0.000414818	0.00012493	0	5	0	
0.148	0.000947616	-0.00155056	0.0002862	0.000105864	0	5	0	
0.148167	-0.0060632	0.00119151	0.000165075	5.94965E-05	0	5	0	
0.148333	0.00233347	-0.000804816	8.55144E-05	2.3262E-05	0	5	0	
0.1485	0.000143401	-0.00310584	9.26632E-05	2.5408E-05	0	5	0	
0.148667	0.00854463	0.00712598	0.000146085	6.48506E-05	0	5	0	
0.148833	-0.014088	-0.00136707	0.000217759	0.000115966	0	5	0	
0.149	0.0108238	-0.00322589	0.000270218	0.000120318	0	5	0	
0.149167	-0.00835281	0.00487604	0.000233623	0.000117935	0	5	0	
0.149333	0.0115007	-0.00295095	0.000199516	7.5021E-05	0	5	0	
0.1495	-0.00934482	-0.00452665	0.000198192	8.45163E-05	0	5	0	
0.149667	0.00764064	-0.000328126	0.00019088	6.73391E-05	0	5	0	
0.149833	-0.00931247	0.00346507	0.000195594	6.67716E-05	0	5	0	
0.15	0.00908879	-0.00113503	0.000190488	6.60362E-05	0	5	0	
0.150167	-0.00756135	-0.00530133	0.000195421	5.99573E-05	0	5	0	
0.150333	0.00925581	0.00518745	0.000194121	0.000105142	0	5	0	
0.1505	-0.0102271	-0.00230576	0.000207673	0.000109446	0	5	0	
0.150667	0.0101583	0.00142759	0.000218176	0.00013717	0	5	0	
0.150833	-0.008232	-0.00782164	0.000219475	0.000158969	0	5	0	
0.151	0.0105539	0.00559261	0.000218606	0.00019885	0	5	0	
0.151167	-0.0139285	-0.0041786	0.000245014	0.000180822	0	5	0	
0.151333	0.0137635	0.000913032	0.000263501	0.000141015	0	5	0	
0.1515	-0.00610201	6.88594E-05	0.000246553	0.000130876	0	5	0	
0.151667	0.00214884	-0.00246791	0.000181582	0.000120182	0	5	0	
0.151833	-0.00647404	0.00706977	0.000162757	0.000117079	0	5	0	
0.152	0.0108457	-0.00630691	0.00017862	9.50984E-05	0	5	0	
0.152167	-0.00569369	-0.000184214	0.000206586	0.000119433	0	5	0	
0.152333	0.00252994	-0.00131504	0.000177735	0.000117229	0	5	0	
0.1525	-0.00814562	0.00361329	0.000169454	0.000108852	0	5	0	
0.152667	0.0120062	-3.46994E-05	0.000191237	9.7396E-05	0	5	0	
0.152833	-0.00751787	-0.0100047	0.000212103	9.44718E-05	0	5	0	
0.153	0.00332771	0.0128129	0.000176462	0.000155	0	5	0	
0.153167	-0.00819884	-0.00736748	0.000163177	0.000179527	0	5	0	
0.153333	0.0141835	0.00177738	0.000195969	0.000180744	0	5	0	
0.1535	-0.0119576	7.37776E-05	0.000235564	0.000111186	0	5	0	
0.153667	0.00528933	-0.00286779	0.000226796	8.44001E-05	0	5	0	
0.153833	-0.00292072	-0.00123477	0.000166219	7.74309E-05	0	5	0	
0.154	0.00779451	0.000769263	0.000150875	9.28159E-05	0	5	0	
0.154167	-0.0110364	-0.000479069	0.000164922	9.0441E-05	0	5	0	
0.154333	0.00877376	0.0029468	0.000197312	9.57007E-05	0	5	0	
0.1545	-0.00766039	-0.0044344	0.0001927	9.94675E-05	0	5	0	
0.154667	0.0100713	-0.000718566	0.00018869	9.69415E-05	0	5	0	
0.154833	-0.0108278	0.00256462	0.000196715	8.60478E-05	0	5	0	
0.155	0.00903434	0.00157861	0.000203098	5.91549E-05	0	5	0	
0.155167	-0.00619222	-0.00369225	0.00018506	5.3785E-05	0	5	0	
0.155333	0.00626449	-0.000378654	0.000163402	7.12566E-05	0	5	0	
0.1555	-0.00861337	-0.0042672	0.000166465	0.000182243	0	5	0	
0.155667	0.00905345	-0.00702875	0.000186606	0.000328243	0	5	0	
0.155833	-0.00655104	-0.00734789	0.000197887	0.000359959	0	5	0	
0.156	0.00727291	0.00820582	0.000180903	0.000289139	0	5	0	
0.156167	-0.00844936	-0.00506205	0.000174597	0.000166159	0	5	0	
0.156333	0.00838884	-0.00260212	0.000172845	0.000118763	0	5	0	
0.1565	-0.00535772	0.00967881	0.000170166	0.000103296	0	5	0	
0.156667	0.00743249	-0.0230372	0.000156406	0.000172169	0	5	0	
0.156833	-0.0105046	0.00102563	0.0001717	0.000227459	0	5	0	
0.157	0.0115897	0.00232989	0.000193379	0.000243454	0	5	0	
0.157167	-0.00748849	-0.00478224	0.000206751	0.000169298	0	5	0	
0.157333	0.00573984	0.000664325	0.000177029	0.00012073	0	5	0	
0.1575	-0.00782703	0.000917078	0.000166301	8.27229E-05	0	5	0	
0.157667	0.0101488	0.000901875	0.000170226	6.09961E-05	0	5	0	
0.157833	-0.00815357	-0.00307662	0.000191779	5.11815E-05	0	5	0	
0.158	0.00706374	0.0031425	0.000190267	6.42909E-05	0	5	0	
0.158167	-0.00835672	-0.00118424	0.000183518	6.31161E-05	0	5	0	
0.158333	0.00794007	-0.000427991	0.000174961	5.02938E-05	0	5	0	
0.1585	-0.00600117	-0.00181245	0.00016315	3.1171E-05	0	5	0	
0.158667	0.00555058	0.00490017	0.000150495	4.19195E-05	0	5	0	
0.158833	-0.00885572	-0.00400431	0.000152342	7.01956E-05	0	5	0	
0.159	0.0110894	0.00105434	0.000179652	8.05977E-05	0	5	0	
0.159167	-0.00911662	-0.000871041	0.000200695	6.69448E-05	0	5	0	
0.159333	0.00802272	0.00168138	0.000193388	3.7671E-05	0	5	0	
0.1595	-0.00728351	-0.000443768	0.0001739	3.06011E-05	0	5	0	
0.159667	0.00700355	0.000434728	0.000159326	5.24862E-05	0	5	0	
0.159833	-0.00722558	-0.00162122	0.000157682	9.50853E-05	0	5	0	
0.16	0.00640666	0.00153566	0.000163246	0.000110042	0	5	0	
0.160167	-0.00773096	-0.000920245	0.000172573	8.26596E-05	0	5	0	
0.160333	0.011173	0.00114802	0.000187304	4.97981E-05	0	5	0	
0.1605	-0.00805434	0.00535603	0.00019209	8.38768E-05	0	5	0	
0.160667	7.15933E-05	-0.0156821	0.000158408	0.000161299	0	5	0	
0.160833	0.00478041	0.0194514	0.000106091	0.000251743	0	5	0	
0.161	0.000995608	-0.00971453	0.00014252	0.000301492	0	5	0	
0.161167	-0.0145567	0.000300157	0.000272232	0.000355129	0	5	0	
0.161333	0.021189	0.012966	0.000397519	0.00036677	0	5	0	
0.1615	-0.015673	-0.0189282	0.000406618	0.000361294	0	5	0	
0.161667	0.00803711	0.0162988	0.000333082	0.000334636	0	5	0	
0.161833	-0.00236747	-0.00404787	0.000239128	0.000357316	0	5	0	
0.162	-0.00150622	-0.0081018	0.000146474	0.000402594	0	5	0	
0.162167	0.0042602	0.0181401	8.43047E-05	0.000385176	0	5	0	
0.162333	-0.000762248	-0.0151853	0.000110072	0.000347608	0	5	0	
0.1625	-0.0098441	0.00681795	0.000216983	0.000273812	0	5	0	
0.162667	0.0172298	-0.00262734	0.000317359	0.000248579	0	5	0	
0.162833	-0.0136641	-0.00393949	0.000345653	0.000203299	0	5	0	
0.163	0.00664675	0.00778807	0.000287454	0.000174209	0	5	0	
0.163167	-0.00233403	-0.00360098	0.000193103	0.000136308	0	5	0	
0.163333	0.00496461	0.001918	0.000142496	9.88558E-05	0	5	0	
0.1635	-0.0103128	-0.00469457	0.000153403	7.07289E-05	0	5	0	
0.163667	0.00904683	0.000964597	0.000192881	6.93397E-05	0	5	0	
0.163833	-0.00602697	-0.000449912	0.000193678	8.25431E-05	0	5	0	
0.164	0.0083163	0.0038497	0.0001761	8.71129E-05	0	5	0	
0.164167	-0.0119486	-0.00290732	0.000192468	8.3675E-05	0	5	0	
0.164333	0.0100156	-0.000526164	0.000214371	6.52828E-05	0	5	0	
0.1645	-0.00518794	0.000384575	0.000207028	5.90812E-05	0	5	0	
0.164667	0.00527243	0.00120947	0.000174723	5.21632E-05	0	5	0	
0.164833	-0.0113547	-0.00186769	0.000184865	5.0782E-05	0	5	0	
0.165	0.0124745	0.00160299	0.000220263	4.21176E-05	0	5	0	
0.165167	-0.00642327	-0.00118791	0.000225075	3.37795E-05	0	5	0	
0.165333	0.00306512	0.00126679	0.000172516	3.03937E-05	0	5	0	
0.1655	-0.00468607	-0.00254932	0.000130346	3.97302E-05	0	5	0	
0.165667	0.0082828	0.000446967	0.00014145	4.3901E-05	0	5	0	
0.165833	-0.00979537	0.000570283	0.000185266	3.8669E-05	0	5	0	
0.166	0.0081924	-0.000634893	0.000207804	2.63732E-05	0	5	0	
0.166167	-0.00813352	0.00075235	0.000201312	2.23172E-05	0	5	0	
0.166333	0.0094883	0.00198683	0.000189734	3.30145E-05	0	5	0	
0.1665	-0.00670983	-0.00324256	0.000181085	4.11228E-05	0	5	0	
0.166667	0.00546051	0.00309314	0.000167223	4.98211E-05	0	5	0	
0.166833	-0.00821061	-0.000487	0.00016473	4.97705E-05	0	5	0	
0.167	0.00820818	-0.00304966	0.000163237	4.66163E-05	0	5	0	
0.167167	-0.00324757	0.00543643	0.000151355	5.53116E-05	0	5	0	
0.167333	0.000259707	-0.00141467	0.000112118	6.03875E-05	0	5	0	
0.1675	-0.00179725	0.000107545	0.000110518	6.01741E-05	0	5	0	
0.167667	0.00799785	0.00295751	0.000155671	7.32722E-05	0	5	0	
0.167833	-0.0115035	-0.00905279	0.000220111	0.000112422	0	5	0	
0.168	0.0105292	0.00550683	0.000238493	0.000143901	0	5	0	
0.168167	-0.00848403	0.00344397	0.000222506	0.000147276	0	5	0	
0.168333	0.00859719	-0.00310358	0.0001976	0.000120014	0	5	0	
0.1685	-0.00680266	-0.00642943	0.000174497	0.000124741	0	5	0	
0.168667	0.00503283	-0.00516574	0.000151529	0.000184101	0	5	0	
0.168833	-0.00315702	-0.00231435	0.000120122	0.000229561	0	5	0	
0.169	0.00501437	0.00743165	0.000118605	0.000251858	0	5	0	
0.169167	-0.00219599	-0.0114526	0.000125126	0.000191687	0	5	0	
0.169333	-0.0053809	0.0152873	0.00013696	0.000294115	0	5	0	
0.1695	0.00405724	0.0421289	0.000148784	0.000351965	0	5	0	
0.169667	0.00452805	-0.0602887	0.000190426	0.000623941	0	5	0	
0.169833	-0.00801426	0.0302314	0.000230445	0.000780053	0	5	0	
0.17	0.00765543	0.000872493	0.00023589	0.000896711	0	5	0	
0.170167	-0.00589297	-0.0156179	0.000198047	0.000736994	0	5	0	
0.170333	0.00342227	0.0255631	0.000141059	0.000529172	0	5	0	
0.1705	-0.00354821	0.0173511	0.000111606	0.000389786	0	5	0	
0.170667	0.0031298	-0.0152921	8.51934E-05	0.000449471	0	5	0	
0.170833	-0.00430465	0.0215462	9.08329E-05	0.000518962	0	5	0	
0.171	0.00560112	-0.0164091	8.97922E-05	0.000535124	0	5	0	
0.171167	-0.0053633	0.0066875	0.000105752	0.000412297	0	5	0	
0.171333	0.00743906	0.0142346	0.000128967	0.000291379	0	5	0	
0.1715	-0.00884638	-0.0187362	0.000157998	0.00028891	0	5	0	
0.171667	0.00822235	7.95953E-06	0.00017758	0.000282914	0	5	0	
0.171833	-0.00538932	0.0125415	0.000171029	0.000253611	0	5	0	
0.172	0.0037677	-0.012003	0.000147272	0.000229455	0	5	0	
0.172167	-0.00576123	0.00131545	0.000140241	0.000210744	0	5	0	
0.172333	0.00851994	0.00464843	0.000163169	0.000217549	0	5	0	
0.1725	-0.00687294	-0.00580452	0.000188785	0.000193303	0	5	0	
0.172667	0.00641772	0.00164914	0.000198279	0.000185439	0	5	0	
0.172833	-0.00852386	-0.000654468	0.000200297	0.000159866	0	5	0	
0.173	0.00930338	-0.00186707	0.000199155	0.000106163	0	5	0	
0.173167	-0.00566005	-0.00126127	0.00018128	5.65298E-05	0	5	0	
0.173333	0.00438473	-3.86474E-05	0.000156372	3.88258E-05	0	5	0	
0.1735	-0.00737534	-0.00234949	0.000156671	3.47768E-05	0	5	0	
0.173667	0.00862203	0.00259624	0.000176676	4.13521E-05	0	5	0	
0.173833	-0.00707207	-0.00129272	0.000187751	4.57392E-05	0	5	0	
0.174	0.00675701	0.00161578	0.000179027	5.29314E-05	0	5	0	
0.174167	-0.00711905	-0.00304517	0.00017873	4.7035E-05	0	5	0	
0.174333	0.00702387	0.00161523	0.000183804	4.80178E-05	0	5	0	
0.1745	-0.00574506	-0.00275083	0.000177243	4.49234E-05	0	5	0	
0.174667	0.00511541	0.00354418	0.000157721	5.22746E-05	0	5	0	
0.174833	-0.0056746	-0.00410623	0.000153909	6.13811E-05	0	5	0	
0.175	0.00637691	0.00379307	0.000165165	7.40035E-05	0	5	0	
0.175167	-0.00466851	-0.00318619	0.000167566	7.68724E-05	0	5	0	
0.175333	0.00380133	0.00269172	0.000154189	6.7913E-05	0	5	0	
0.1755	-0.00689936	-0.00265604	0.000145588	6.17233E-05	0	5	0	
0.175667	0.00870526	0.00145772	0.000163343	6.19199E-05	0	5	0	
0.175833	-0.00721723	0.000978911	0.00017917	6.96099E-05	0	5	0	
0.176	0.00653257	0.0015166	0.000176025	6.70903E-05	0	5	0	
0.176167	-0.00702726	-0.00405623	0.000161719	6.11991E-05	0	5	0	
0.176333	0.00795689	0.00359848	0.000160634	6.38228E-05	0	5	0	
0.1765	-0.00552598	0.00613564	0.000152654	7.04062E-05	0	5	0	
0.176667	-0.000680049	-0.0135256	0.000128955	0.000119397	0	5	0	
0.176833	-0.0013747	0.00954018	0.000140694	0.000197935	0	5	0	
0.177	0.0111265	0.00304602	0.000224933	0.000290512	0	5	0	
0.177167	-0.0173552	-0.0104045	0.000323413	0.000329754	0	5	0	
0.177333	0.0153333	0.0111831	0.000353279	0.0003179	0	5	0	
0.1775	-0.00781137	-0.00861216	0.000300126	0.000246114	0	5	0	
0.177667	0.000501046	-0.000992518	0.000206015	0.000190324	0	5	0	
0.177833	0.00145799	0.0111865	0.000116508	0.000167481	0	5	0	
0.178	0.00078648	-0.0164311	9.94207E-05	0.000206492	0	5	0	
0.178167	-0.00481851	0.0139603	0.000140965	0.000249519	0	5	0	
0.178333	0.00755177	-0.00846062	0.000206425	0.000271503	0	5	0	
0.1785	-0.010627	0.00300266	0.00023996	0.000237467	0	5	0	
0.178667	0.0118865	-6.39197E-05	0.000245566	0.00017054	0	5	0	
0.178833	-0.00684309	5.75262E-05	0.000221229	8.95361E-05	0	5	0	
0.179	0.000774239	0.00130786	0.00016372	6.23525E-05	0	5	0	
0.179167	-0.00401559	-0.00469221	0.000132205	7.33189E-05	0	5	0	
0.179333	0.00984708	0.0076681	0.000162111	0.000103187	0	5	0	
0.1795	-0.010263	-0.00554889	0.000209324	0.000139446	0	5	0	
0.179667	0.00667067	5.65146E-05	0.00021934	0.000138058	0	5	0	
0.179833	-0.00538947	0.00121675	0.000191077	0.000121366	0	5	0	
0.18	0.00859682	0.00351597	0.000187708	8.42475E-05	0	5	0	
0.180167	-0.0112279	-0.00499003	0.000202078	8.19756E-05	0	5	0	
0.180333	0.00804492	0.00197884	0.000211269	8.62251E-05	0	5	0	
0.1805	-0.00389947	0.000281133	0.000176443	8.27439E-05	0	5	0	
0.180667	0.00436657	-0.00439153	0.000153105	7.1447E-05	0	5	0	
0.180833	-0.00774806	0.00160098	0.000152507	6.78586E-05	0	5	0	
0.181	0.00702855	0.00114549	0.000169598	5.52533E-05	0	5	0	
0.181167	-0.00576617	-0.00382275	0.000169766	5.37813E-05	0	5	0	
0.181333	0.00673493	0.00416472	0.000166553	5.2913E-05	0	5	0	
0.1815	-0.00677332	-0.00309621	0.00017113	8.11237E-05	0	5	0	
0.181667	0.00643927	0.000933909	0.000183684	9.73476E-05	0	5	0	
0.181833	-0.00855355	-0.00100657	0.00019725	9.79899E-05	0	5	0	
0.182	0.0100469	-0.00373088	0.000214041	9.08268E-05	0	5	0	
0.182167	-0.00913207	0.00351992	0.000218359	9.14014E-05	0	5	0	
0.182333	0.00560319	-0.0015384	0.000193396	0.000102452	0	5	0	
0.1825	-0.00410558	0.00122991	0.000153231	9.57873E-05	0	5	0	
0.182667	0.00433715	-0.00106033	0.000133241	7.41588E-05	0	5	0	
0.182833	-0.00361126	-5.0868E-05	0.000134652	6.26779E-05	0	5	0	
0.183	0.00361065	-0.000481855	0.000149983	4.92397E-05	0	5	0	
0.183167	-0.00705446	-0.00275781	0.000174324	6.36492E-05	0	5	0	
0.183333	0.00871443	0.00166641	0.00021272	7.00424E-05	0	5	0	
0.1835	-0.0112062	-0.000793732	0.000251469	7.2724E-05	0	5	0	
0.183667	0.011855	0.00589246	0.000266616	6.61171E-05	0	5	0	
0.183833	-0.00643275	-0.00972565	0.000235646	7.71936E-05	0	5	0	
0.184	0.000188181	0.00290248	0.000169782	0.000117625	0	5	0	
0.184167	-0.00314704	0.00434157	0.000139785	0.000108077	0	5	0	
0.184333	0.0103576	-0.00707525	0.000181151	0.000116982	0	5	0	
0.1845	-0.00839197	0.00200061	0.000221144	0.000118846	0	5	0	
0.184667	-0.000995794	0.000311532	0.000189474	0.000140127	0	5	0	
0.184833	-0.000912886	-0.00236648	0.000144872	0.000108976	0	5	0	
0.185	0.0120283	0.00465001	0.000180926	8.61135E-05	0	5	0	
0.185167	-0.0118043	-0.00596085	0.000237348	8.84457E-05	0	5	0	
0.185333	0.00311881	0.00535592	0.000230218	0.00011614	0	5	0	
0.1855	-0.00726861	-0.00132416	0.000190751	0.000111008	0	5	0	
0.185667	0.0218943	-0.00307493	0.000252857	9.6996E-05	0	5	0	
0.185833	-0.026699	0.00080825	0.000397377	7.71437E-05	0	5	0	
0.186	0.0229896	0.00311539	0.000498088	7.12507E-05	0	5	0	
0.186167	-0.0215267	0.00450324	0.000501482	7.89026E-05	0	5	0	
0.186333	0.0232405	-0.0103796	0.000453101	9.86338E-05	0	5	0	
0.1865	-0.0187615	0.00295173	0.000420626	0.00014922	0	5	0	
0.186667	0.00156972	0.0151327	0.000381983	0.000246756	0	5	0	
0.186833	0.017218	-0.0389104	0.000284327	0.000336086	0	5	0	
0.187	-0.013031	0.0236722	0.000303377	0.0004871	0	5	0	
0.187167	-0.00531069	-0.0056902	0.000431301	0.000492658	0	5	0	
0.187333	0.0184537	-0.00131675	0.000589617	0.000452585	0	5	0	
0.1875	-0.0202666	0.0057642	0.00059557	0.000272415	0	5	0	
0.187667	0.0202369	-0.00694201	0.000497476	0.000188938	0	5	0	
0.187833	-0.0185845	-0.0114555	0.00041892	0.000201366	0	5	0	
0.188	0.011458	0.0126525	0.000356746	0.000348531	0	5	0	
0.188167	-0.00536723	-0.0137756	0.000269841	0.000416652	0	5	0	
0.188333	0.00622559	0.00575378	0.000195684	0.000369582	0	5	0	
0.1885	-0.00808379	0.00185319	0.000162408	0.00022579	0	5	0	
0.188667	0.00542879	-0.00178638	0.0001632	0.000128735	0	5	0	
0.188833	-0.00346815	-0.00315646	0.000155653	9.96989E-05	0	5	0	
0.189	0.00400196	0.0060728	0.000150588	0.000115544	0	5	0	
0.189167	-0.00619095	-0.00452551	0.000165037	0.000136834	0	5	0	
0.189333	0.0071382	0.00111944	0.000188902	0.000114855	0	5	0	
0.1895	-0.00653624	-0.001261	0.000195992	6.8176E-05	0	5	0	
0.189667	0.00610231	0.00326975	0.000183254	4.84369E-05	0	5	0	
0.189833	-0.00481583	-0.00213568	0.000164497	6.51139E-05	0	5	0	
0.19	0.00291762	0.00128869	0.000151919	6.79842E-05	0	5	0	
0.190167	-0.00545369	0.000110941	0.000168141	5.21677E-05	0	5	0	
0.190333	0.00781133	-0.000274277	0.000194398	2.6586E-05	0	5	0	
0.1905	-0.00665861	-0.000497476	0.000199683	2.22912E-05	0	5	0	
0.190667	0.00482531	0.00215028	0.000177551	2.90166E-05	0	5	0	
0.190833	-0.00612628	-0.00165092	0.000164658	4.47984E-05	0	5	0	
0.191	0.00623016	0.00194229	0.000174681	5.1707E-05	0	5	0	
0.191167	-0.00488208	-0.00232864	0.000180008	6.9086E-05	0	5	0	
0.191333	0.00532273	0.00207175	0.000171549	7.15624E-05	0	5	0	
0.1915	-0.00853028	-0.00126636	0.000172198	6.54637E-05	0	5	0	
0.191667	0.00818211	0.00133946	0.000188119	4.71265E-05	0	5	0	
0.191833	-0.00552386	-0.00304925	0.000186642	5.70372E-05	0	5	0	
0.192	0.00370021	0.00206091	0.000164857	7.60838E-05	0	5	0	
0.192167	-0.00629255	0.00104302	0.00015717	8.10276E-05	0	5	0	
0.192333	0.00809724	-0.00175102	0.000168215	6.01416E-05	0	5	0	
0.1925	-0.00448531	0.00388095	0.000170219	4.6766E-05	0	5	0	
0.192667	0.000110737	-0.00438267	0.000144941	6.22404E-05	0	5	0	
0.192833	-0.00308931	0.00233343	0.000163788	0.000131492	0	5	0	
0.193	0.0115498	0.0042389	0.000246472	0.000211615	0	5	0	
0.193167	-0.0181948	-0.0104573	0.000342196	0.000253399	0	5	0	
0.193333	0.0159233	0.0122877	0.000367095	0.000234388	0	5	0	
0.1935	-0.00851174	-0.00519944	0.000312441	0.000215762	0	5	0	
0.193667	0.0010636	-0.00155747	0.000216743	0.00021728	0	5	0	
0.193833	0.00341049	0.0091137	0.000119209	0.000192096	0	5	0	
0.194	-0.00269955	-0.00967524	9.10548E-05	0.000174943	0	5	0	
0.194167	-0.00387743	0.00450818	0.000158265	0.000189857	0	5	0	
0.194333	0.0112309	0.00546088	0.000269165	0.000243555	0	5	0	
0.1945	-0.0118791	-0.0111533	0.000313381	0.000241809	0	5	0	
0.194667	0.00624891	0.00717329	0.000274265	0.000215624	0	5	0	
0.194833	-0.00465532	0.000716297	0.000199538	0.000163498	0	5	0	
0.195	0.0060103	-0.00469373	0.000162778	0.000141265	0	5	0	
0.195167	-0.00581724	0.00193225	0.000158576	0.000105808	0	5	0	
0.195333	0.00705278	0.00296621	0.000183043	7.96176E-05	0	5	0	
0.1955	-0.00911558	-0.00206915	0.000205821	6.23635E-05	0	5	0	
0.195667	0.00771006	-0.0034926	0.000204184	8.14171E-05	0	5	0	
0.195833	-0.00320387	0.00559422	0.000172698	0.000180584	0	5	0	
0.196	0.00354665	0.00382263	0.000135484	0.000236696	0	5	0	
0.196167	-0.00743757	-0.00650588	0.000147905	0.000230842	0	5	0	
0.196333	0.00765666	0.00542934	0.000175701	0.000158784	0	5	0	
0.1965	-0.00428797	-0.00325733	0.000185225	0.000108883	0	5	0	
0.196667	0.00563675	-0.00380397	0.000165979	8.25539E-05	0	5	0	
0.196833	-0.00713758	0.0128131	0.000164687	0.000114312	0	5	0	
0.197	0.00673784	-0.0065076	0.000170321	0.000127203	0	5	0	
0.197167	-0.00472185	0.00368572	0.000176147	0.000155614	0	5	0	
0.197333	0.00536831	0.00359812	0.000169993	0.000112239	0	5	0	
0.1975	-0.00539976	-0.00301141	0.000165972	9.32103E-05	0	5	0	
0.197667	0.0054403	-0.00219652	0.00016518	5.84896E-05	0	5	0	
0.197833	-0.00703344	0.00676126	0.000179276	6.46142E-05	0	5	0	
0.198	0.0085829	-0.00373718	0.000201314	8.99167E-05	0	5	0	
0.198167	-0.0082093	-0.0055456	0.000207936	0.000122282	0	5	0	
0.198333	0.00938802	0.00641854	0.000196993	0.000128892	0	5	0	
0.1985	-0.0126461	0.00426447	0.000184811	0.000105829	0	5	0	
0.198667	0.00648941	-0.0043907	0.000193307	9.24952E-05	0	5	0	
0.198833	0.0143235	-0.0022164	0.000213471	0.000106707	0	5	0	
0.199	-0.0211105	0.00758994	0.000260114	0.000109488	0	5	0	
0.199167	0.00848153	-0.00506303	0.000325338	0.000177673	0	5	0	
0.199333	0.00481641	-0.00215617	0.000392946	0.000187474	0	5	0	
0.1995	-0.00816705	-0.00294598	0.000363137	0.000193124	0	5	0	
0.199667	0.00922944	0.0103472	0.000290673	0.000156234	0	5	0	
0.199833	-0.0101398	-0.00344692	0.000199831	0.00013172	0	5	0	
0.2	0.0121481	5.75305E-05	0.000200657	0.000161287	0	5	0	
0.200167	-0.00143167	-0.00233885	0.00026119	0.000129878	0	5	0	
0.200333	-0.0107888	0.00580853	0.00032399	0.000143832	0	5	0	
0.2005	0.0071852	-0.00253487	0.00029112	0.000127442	0	5	0	
0.200667	0.0115427	-0.00553842	0.000293311	0.000128873	0	5	0	
0.200833	-0.017152	0.00204878	0.000278607	0.000124772	0	5	0	
0.201	0.00433213	0.00579709	0.000299368	0.000137016	0	5	0	
0.201167	2.40759E-05	-0.00761173	0.000193572	0.000148245	0	5	0	
0.201333	0.00906789	0.00284349	0.000167381	0.000164785	0	5	0	
0.2015	-0.0112087	-0.0009921	0.000168956	0.000155931	0	5	0	
0.201667	-7.7813E-07	0.00243117	0.000195995	0.000138128	0	5	0	
0.201833	0.00559089	-0.00332154	0.000130426	0.000124077	0	5	0	
0.202	0.00124675	0.00120963	0.000144426	0.000113557	0	5	0	
0.202167	-0.0100623	-0.00103174	0.000195022	0.000101346	0	5	0	
0.202333	0.00985171	-0.00162235	0.000257533	7.47391E-05	0	5	0	
0.2025	-0.00487514	-1.06131E-05	0.000220328	8.10166E-05	0	5	0	
0.202667	-0.00370089	0.00760538	0.000139881	0.000187547	0	5	0	
0.202833	0.00158828	-0.00549643	8.09902E-05	0.00024446	0	5	0	
0.203	0.0129194	-0.00403238	0.000111693	0.000260193	0	5	0	
0.203167	-0.0269507	0.0126479	0.000241234	0.00021483	0	5	0	
0.203333	0.0170691	-0.00674238	0.000350983	0.000217615	0	5	0	
0.2035	0.00987859	-0.00555807	0.000471006	0.000296175	0	5	0	
0.203667	-0.0223275	0.00874188	0.000459344	0.000273959	0	5	0	
0.203833	0.000620495	0.000440119	0.000455328	0.000251342	0	5	0	
0.204	0.0222231	-0.00563098	0.000472868	0.000178988	0	5	0	
0.204167	-0.0204872	0.0095668	0.000522912	0.000166281	0	5	0	
0.204333	0.0162074	-0.0119063	0.000551629	0.000174249	0	5	0	
0.2045	-0.0273645	0.010231	0.000480546	0.00018208	0	5	0	
0.204667	0.0227516	8.09291E-05	0.000457726	0.000212804	0	5	0	
0.204833	0.00812956	-0.0147836	0.000495888	0.000226884	0	5	0	
0.205	-0.0217492	0.0152371	0.000438106	0.000233908	0	5	0	
0.205167	0.00116547	-0.00433337	0.000474174	0.000249803	0	5	0	
0.205333	0.0183047	-0.00358588	0.000489336	0.000242996	0	5	0	
0.2055	-0.0109362	0.00460365	0.000495613	0.000185206	0	5	0	
0.205667	-0.00164868	0.00228018	0.000334096	0.000145369	0	5	0	
0.205833	0.000980727	-0.00753115	0.000165668	0.00010949	0	5	0	
0.206	0.00386066	0.00792922	0.000153677	0.000128302	0	5	0	
0.206167	-0.00591047	-0.00343357	0.000179422	0.000128587	0	5	0	
0.206333	0.00628382	0.000838649	0.000194218	0.000105857	0	5	0	
0.2065	-0.00534989	0.00168405	0.000165957	0.000110012	0	5	0	
0.206667	0.00484357	0.00142018	0.000153215	0.000110959	0	5	0	
0.206833	-0.00638294	-0.00324504	0.000164154	0.000105966	0	5	0	
0.207	0.0114182	0.0033433	0.000184422	8.58789E-05	0	5	0	
0.207167	-0.00946482	-0.00282176	0.000202504	6.67497E-05	0	5	0	
0.207333	-0.00152411	0.0069166	0.000180225	0.000113584	0	5	0	
0.2075	0.0209273	-0.010873	0.000165104	0.000162318	0	5	0	
0.207667	-0.02521	0.00562124	0.000292786	0.000190801	0	5	0	
0.207833	-0.00722871	0.00628747	0.000610499	0.000261764	0	5	0	
0.208	0.0423133	-0.0104972	0.000955067	0.000264228	0	5	0	
0.208167	-0.0479071	0.00132081	0.00107624	0.000250452	0	5	0	
0.208333	0.0309642	0.00149698	0.000941579	0.000154192	0	5	0	
0.2085	-0.00657379	0.00408655	0.000740177	9.08403E-05	0	5	0	
0.208667	-0.0212292	0.00473097	0.000644579	0.000112417	0	5	0	
0.208833	0.0387083	-0.0180892	0.000628468	0.000185605	0	5	0	
0.209	-0.0344952	0.0162981	0.000668162	0.000278393	0	5	0	
0.209167	-0.00328924	-0.00381661	0.000844285	0.000295728	0	5	0	
0.209333	0.0367928	0.00237064	0.000997907	0.000208628	0	5	0	
0.2095	-0.0312008	-0.0117392	0.0009625	0.000144814	0	5	0	
0.209667	0.00562702	0.00916345	0.000707844	0.000156104	0	5	0	
0.209833	0.00826963	0.00992312	0.00042986	0.000260828	0	5	0	
0.21	-0.00956424	-0.0170556	0.000278409	0.000318787	0	5	0	
0.210167	0.00575513	0.0109128	0.000232214	0.000317956	0	5	0	
0.210333	0.00831547	-0.00176296	0.000318066	0.000302315	0	5	0	
0.2105	-0.0209666	-0.00911872	0.000446641	0.000281072	0	5	0	
0.210667	0.0201335	0.0134099	0.000478928	0.000261145	0	5	0	
0.210833	-0.00755259	-0.0208384	0.00039902	0.000272736	0	5	0	
0.211	-0.00146976	0.00893522	0.000259708	0.000303152	0	5	0	
0.211167	0.000612714	0.0041264	0.000146341	0.0003086	0	5	0	
0.211333	0.00281551	-0.00588601	0.000124031	0.00021536	0	5	0	
0.2115	-0.00881146	-0.00478949	0.000184209	0.000146925	0	5	0	
0.211667	0.013794	0.00796799	0.00026538	0.000108757	0	5	0	
0.211833	-0.0107044	-0.00170917	0.000273131	0.000132504	0	5	0	
0.212	0.00368262	-0.036786	0.000229259	0.000231981	0	5	0	
0.212167	0.000597811	0.0184252	0.000162184	0.000335005	0	5	0	
0.212333	0.000464189	-0.0100721	0.000169269	0.000375901	0	5	0	
0.2125	-0.00569839	-0.00411647	0.000202722	0.000333295	0	5	0	
0.212667	0.00687995	0.0113985	0.000252302	0.00026003	0	5	0	
0.212833	-0.00784528	-0.00641788	0.00024274	0.000231512	0	5	0	
0.213	0.00571968	-0.0110071	0.000214668	0.000230845	0	5	0	
0.213167	0.0010513	-0.0118154	0.000177534	0.000342881	0	5	0	
0.213333	0.00168652	-0.0017329	0.000165874	0.000359064	0	5	0	
0.2135	-0.00805673	0.00350308	0.000183737	0.000282248	0	5	0	
0.213667	0.00860642	0.00182525	0.000211333	0.000110883	0	5	0	
0.213833	-0.00530003	-0.007196	0.000202644	7.2548E-05	0	5	0	
0.214	0.00434163	0.00364755	0.000168581	8.86091E-05	0	5	0	
0.214167	-0.00351369	0.00208962	0.000147262	9.38884E-05	0	5	0	
0.214333	0.00295214	-0.0013953	0.000153743	7.63266E-05	0	5	0	
0.2145	-0.00503064	-0.00431016	0.000184285	9.95093E-05	0	5	0	
0.214667	0.0112222	0.00492126	0.000218462	0.000181396	0	5	0	
0.214833	-0.00870856	0.000160736	0.00024786	0.000209466	0	5	0	
0.215	0.00471286	-0.0064471	0.000247372	0.000177473	0	5	0	
0.215167	-0.0188609	0.0189779	0.000285036	0.000167142	0	5	0	
0.215333	0.0356502	-0.0186314	0.000377648	0.000226121	0	5	0	
0.2155	-0.0310561	0.00547272	0.000522428	0.000342644	0	5	0	
0.215667	-0.00717758	-0.000384266	0.000792085	0.000409777	0	5	0	
0.215833	0.049465	0.00408529	0.000964038	0.000375012	0	5	0	
0.216	-0.0491903	0.0010444	0.00102078	0.000358506	0	5	0	
0.216167	0.0174749	-0.0042836	0.000943187	0.000256982	0	5	0	
0.216333	0.00882352	0.0123252	0.000949603	0.000243707	0	5	0	
0.2165	-0.030733	-0.00658446	0.00100773	0.00022279	0	5	0	
0.216667	0.0531554	-0.00755996	0.00104919	0.000248938	0	5	0	
0.216833	-0.0567299	0.0134856	0.00100881	0.000251905	0	5	0	
0.217	0.0316299	-0.011049	0.00100999	0.000234389	0	5	0	
0.217167	0.012138	0.0216391	0.00102759	0.000382676	0	5	0	
0.217333	-0.0256587	-0.0108697	0.000882475	0.000618373	0	5	0	
0.2175	0.00448715	-0.0207397	0.000683303	0.000799625	0	5	0	
0.217667	0.0162845	0.0309318	0.00045318	0.000853279	0	5	0	
0.217833	-0.00636344	-0.0306628	0.000341234	0.000706699	0	5	0	
0.218	-0.00705882	-0.0079433	0.000253907	0.000761542	0	5	0	
0.218167	-0.00550574	0.0380901	0.000191994	0.000861898	0	5	0	
0.218333	0.0177342	-0.0675823	0.000222108	0.00111751	0	5	0	
0.2185	-0.00300449	0.0348586	0.000270916	0.00115446	0	5	0	
0.218667	-0.0183562	-0.0228667	0.000288193	0.000953536	0	5	0	
0.218833	0.00557006	0.0124312	0.000356184	0.000671589	0	5	0	
0.219	0.0205621	-0.00462299	0.000524147	0.000434205	0	5	0	
0.219167	-0.0246011	-0.0238221	0.000577346	0.00039176	0	5	0	
0.219333	0.0136267	0.00152152	0.000525046	0.00037672	0	5	0	
0.2195	-0.0201717	-0.00452396	0.000367508	0.000354803	0	5	0	
0.219667	0.0212975	0.0198565	0.00034866	0.000382086	0	5	0	
0.219833	-0.00571504	-0.0204164	0.000353008	0.000385156	0	5	0	
0.22	-0.00103693	0.00520813	0.00027334	0.000408257	0	5	0	
0.220167	-0.0138023	0.00842953	0.00022755	0.000409098	0	5	0	
0.220333	0.0142775	-0.014616	0.000207465	0.000373028	0	5	0	
0.2205	-0.00059814	0.00670576	0.00023648	0.000322585	0	5	0	
0.220667	0.00876206	0.00210134	0.000226369	0.000264884	0	5	0	
0.220833	-0.0193593	-0.00124933	0.000267025	0.000233272	0	5	0	
0.221	0.0139464	-0.00766352	0.00033266	0.000194753	0	5	0	
0.221167	-0.0132554	0.0150422	0.000378827	0.000152609	0	5	0	
0.221333	0.0154818	-0.00449687	0.000397383	0.000190104	0	5	0	
0.2215	-0.0135983	-0.0105313	0.000421978	0.000261706	0	5	0	
0.221667	0.0223688	0.017651	0.000426086	0.000305905	0	5	0	
0.221833	-0.0273386	-0.00755811	0.000471164	0.000309715	0	5	0	
0.222	0.0129351	0.00382775	0.00045231	0.000237915	0	5	0	
0.222167	0.00490297	-0.0067886	0.000416222	0.000160281	0	5	0	
0.222333	-0.0184781	0.00349372	0.000289808	9.82358E-05	0	5	0	
0.2225	0.00716733	0.015333	0.000321097	0.000143717	0	5	0	
0.222667	-0.00324383	-0.0110156	0.000403213	0.000197814	0	5	0	
0.222833	-0.000978934	0.00218165	0.000508869	0.000258532	0	5	0	
0.223	0.0193934	0.0145873	0.000592227	0.000308154	0	5	0	
0.223167	-0.0341564	-0.0215222	0.000634734	0.000342366	0	5	0	
0.223333	0.0270849	0.00927854	0.000655752	0.00035279	0	5	0	
0.2235	-0.000496967	0.00966031	0.000661002	0.0002639	0	5	0	
0.223667	-0.0121129	0.00306751	0.000577029	0.000211554	0	5	0	
0.223833	0.00108574	-0.00361063	0.000489004	0.000185425	0	5	0	
0.224	-0.00180915	-0.00289062	0.000434898	0.000205378	0	5	0	
0.224167	0.00441913	0.00179437	0.000435956	0.000195606	0	5	0	
0.224333	0.00832849	0.001941	0.000408813	0.00025833	0	5	0	
0.2245	-0.00523161	0.00277081	0.000307815	0.000275686	0	5	0	
0.224667	0.00702201	-0.00570853	0.000285328	0.000256669	0	5	0	
0.224833	-0.00283575	0.00579015	0.000365272	0.000169434	0	5	0	
0.225	0.00365732	0.00274489	0.00044006	0.000114912	0	5	0	
0.225167	-0.0113856	-0.00656066	0.000414157	0.000105198	0	5	0	
0.225333	0.0105668	0.0023382	0.000323474	0.000105745	0	5	0	
0.2255	-0.000663814	0.00016688	0.000230403	9.63453E-05	0	5	0	
0.225667	0.00174676	-0.006404	0.000212061	0.000104903	0	5	0	
0.225833	0.0181194	0.00781916	0.000198607	0.000130902	0	5	0	
0.226	-0.0204626	-0.00564605	0.000255375	0.000200431	0	5	0	
0.226167	0.00410921	0.00630161	0.000403993	0.000192664	0	5	0	
0.226333	0.0124273	-0.0110552	0.000618804	0.000215374	0	5	0	
0.2265	-0.0122455	0.00612341	0.000654121	0.000267065	0	5	0	
0.226667	0.00799325	0.0018619	0.000513684	0.000348569	0	5	0	
0.226833	-0.000543434	-0.00987761	0.000331039	0.000300629	0	5	0	
0.227	0.00787193	0.00727707	0.000234795	0.000220151	0	5	0	
0.227167	-0.00306439	-0.00139155	0.00020376	0.000165963	0	5	0	
0.227333	-0.016215	-0.00604056	0.000196129	0.000141812	0	5	0	
0.2275	0.0246336	0.00712377	0.000256232	0.000136311	0	5	0	
0.227667	-0.0117058	-0.00159041	0.00037999	0.000112136	0	5	0	
0.227833	-0.0100464	-0.000780208	0.00048825	9.42802E-05	0	5	0	
0.228	0.0223636	-0.000486389	0.000514145	9.46237E-05	0	5	0	
0.228167	-0.019087	0.00450881	0.000464846	0.000117228	0	5	0	
0.228333	0.00634275	-0.0079355	0.00036973	0.000146268	0	5	0	
0.2285	0.00348712	0.00542902	0.000255863	0.000176329	0	5	0	
0.228667	-0.00559384	0.000438414	0.000168193	0.000196249	0	5	0	
0.228833	0.00179677	-0.00715276	0.000139186	0.000218071	0	5	0	
0.229	0.005506	0.0112772	0.000224038	0.00019571	0	5	0	
0.229167	-0.0130899	-0.00937228	0.000334124	0.000185998	0	5	0	
0.229333	0.0134441	-0.0025364	0.000341164	0.000155304	0	5	0	
0.2295	0.0038479	0.00805967	0.000269099	0.000136063	0	5	0	
0.229667	-0.0114118	0.00167471	0.000177975	0.000134941	0	5	0	
0.229833	0.00182128	-0.0160155	0.000217525	0.000202189	0	5	0	
0.23	0.00759713	0.011189	0.000293425	0.000247819	0	5	0	
0.230167	-0.00907732	-0.00119006	0.000355076	0.000223008	0	5	0	
0.230333	0.0100708	-0.00461038	0.00031106	0.000146156	0	5	0	
0.2305	-0.00304828	0.00204067	0.000231747	8.13985E-05	0	5	0	
0.230667	-0.000780459	0.000548106	0.000134185	5.58636E-05	0	5	0	
0.230833	0.00302345	0.00793708	8.79763E-05	5.78194E-05	0	5	0	
0.231	-0.00423178	-0.0137152	7.16143E-05	0.000122985	0	5	0	
0.231167	0.00398175	0.0105921	0.000132007	0.000188882	0	5	0	
0.231333	2.20305E-05	-0.00315662	0.000208443	0.000226045	0	5	0	
0.2315	-0.0062009	0.0035427	0.00027826	0.000184508	0	5	0	
0.231667	0.00903073	0.00702611	0.000297837	0.000261277	0	5	0	
0.231833	-0.00440403	0.00410587	0.00025611	0.000389846	0	5	0	
0.232	-0.00469766	-0.000624682	0.000172639	0.000415621	0	5	0	
0.232167	0.0103849	0.000917764	0.00014959	0.000281919	0	5	0	
0.232333	-0.00726962	0.0202564	0.000211422	0.000193958	0	5	0	
0.2325	-0.00282313	-0.0480083	0.000320678	0.000400077	0	5	0	
0.232667	0.00903419	0.00506096	0.000359228	0.000560586	0	5	0	
0.232833	-0.0056935	0.0277836	0.000306455	0.000548583	0	5	0	
0.233	-0.0017966	-0.0274537	0.000188239	0.000456892	0	5	0	
0.233167	0.00802584	0.013058	0.000117909	0.000399124	0	5	0	
0.233333	-0.00601734	-0.00993846	0.000107137	0.000387063	0	5	0	
0.2335	0.00147156	0.00583624	0.000154064	0.00032528	0	5	0	
0.233667	0.00270401	-0.0281981	0.00019149	0.000513418	0	5	0	
0.233833	-0.00643882	-0.00710359	0.000222456	0.000629937	0	5	0	
0.234	0.00998768	0.002872	0.000217176	0.000535469	0	5	0	
0.234167	-0.00732212	0.00125714	0.000209982	0.000273932	0	5	0	
0.234333	-0.00392024	-0.00214273	0.000232575	0.000117223	0	5	0	
0.2345	0.0132874	-0.00422219	0.000250215	0.00018	0	5	0	
0.234667	-0.0106716	0.00447338	0.000260714	0.000195366	0	5	0	
0.234833	0.000208881	-0.0072298	0.000249759	0.000194468	0	5	0	
0.235	0.00810259	0.00201832	0.000276972	0.000129221	0	5	0	
0.235167	-0.0159201	0.00810658	0.000304598	0.000100791	0	5	0	
0.235333	0.0191282	-0.0129036	0.000351816	0.000135964	0	5	0	
0.2355	-0.0201222	0.00579118	0.000371137	0.000175656	0	5	0	
0.235667	0.0115095	-0.00350996	0.000359625	0.000195935	0	5	0	
0.235833	-0.00298768	0.00275004	0.000280699	0.000153786	0	5	0	
0.236	0.0010423	-0.000283322	0.000184231	0.0001039	0	5	0	
0.236167	-0.00595433	-0.000636244	0.000155033	7.72159E-05	0	5	0	
0.236333	0.004253	0.000491401	0.000167909	7.40094E-05	0	5	0	
0.2365	-0.00801234	-0.00719284	0.000204106	9.70964E-05	0	5	0	
0.236667	0.0057199	0.00702982	0.000197463	9.35513E-05	0	5	0	
0.236833	-1.36128E-05	-0.00598318	0.000148282	0.000124212	0	5	0	
0.237	-0.00360286	-0.00457107	0.000139572	0.000118676	0	5	0	
0.237167	-0.00832628	0.00298123	0.00022588	0.000126189	0	5	0	
0.237333	0.0128874	0.00710768	0.00033491	9.98618E-05	0	5	0	
0.2375	0.0017169	-0.0202848	0.000315489	0.000153744	0	5	0	
0.237667	-0.0185198	0.0332346	0.000266073	0.000293641	0	5	0	
0.237833	0.00225472	-0.0143468	0.000257574	0.000427152	0	5	0	
0.238	0.0158317	-0.0109602	0.000388222	0.00039534	0	5	0	
0.238167	-0.00559702	0.0107963	0.000344166	0.000288415	0	5	0	
0.238333	-0.0202606	0.00177652	0.000297891	0.000174642	0	5	0	
0.2385	0.0242038	-0.00391389	0.000289735	0.000188559	0	5	0	
0.238667	-0.00255071	0.0116394	0.000459627	0.000272809	0	5	0	
0.238833	-0.0220959	-0.0138169	0.00057146	0.000391056	0	5	0	
0.239	0.0208453	0.00500886	0.000555555	0.000421422	0	5	0	
0.239167	-0.00838108	0.0101557	0.000413746	0.00034812	0	5	0	
0.239333	0.0016776	-0.00831756	0.000248032	0.000304005	0	5	0	
0.2395	0.000404393	0.00679817	0.000118748	0.00022785	0	5	0	
0.239667	-0.0043919	-0.00742089	6.11931E-05	0.000214909	0	5	0	
0.239833	0.00827833	-0.0053739	7.01388E-05	0.00015219	0	5	0	
0.24	0.000640351	-0.00716342	0.000185028	0.000174209	0	5	0	
0.240167	-0.0192918	0.00539752	0.000330042	0.00015333	0	5	0	
0.240333	0.0114191	0.00567053	0.000370744	0.000141853	0	5	0	
0.2405	0.0194378	-0.00422114	0.000398912	0.000143664	0	5	0	
0.240667	-0.0277009	0.00131022	0.000371777	0.000127135	0	5	0	
0.240833	0.00206444	-0.007117	0.000593632	0.000159834	0	5	0	
0.241	0.0150732	-0.00413551	0.000677211	0.000161629	0	5	0	
0.241167	-0.0101589	0.003958	0.00063358	0.000180011	0	5	0	
0.241333	0.00956384	-0.00988958	0.000423674	0.00015509	0	5	0	
0.2415	-0.0186229	0.0152785	0.000310661	0.000172774	0	5	0	
0.241667	0.0105246	0.000307229	0.000290005	0.000180571	0	5	0	
0.241833	0.00305063	-0.0119997	0.000312185	0.000184775	0	5	0	
0.242	-0.0109677	0.00750179	0.000304202	0.000171872	0	5	0	
0.242167	0.0147151	0.00196995	0.000296611	0.000198221	0	5	0	
0.242333	-0.00918616	-0.00581678	0.000284659	0.000191712	0	5	0	
0.2425	-0.00646783	0.00916837	0.000354722	0.000185941	0	5	0	
0.242667	0.0165357	0.00115782	0.000453786	0.00014971	0	5	0	
0.242833	-0.012229	-0.00553625	0.000448618	0.000137762	0	5	0	
0.243	0.00306305	-0.00743207	0.000312786	0.000124917	0	5	0	
0.243167	-0.00422184	0.0162426	0.000186225	0.000191248	0	5	0	
0.243333	0.00634345	-0.00628634	0.000143129	0.000245798	0	5	0	
0.2435	0.000877634	0.00843257	0.000119184	0.000239151	0	5	0	
0.243667	-0.00389086	-0.00540102	0.000115523	0.000176635	0	5	0	
0.243833	-0.00479581	-0.000253739	0.000178079	0.000170651	0	5	0	
0.244	0.0129881	0.00914649	0.000254789	0.000223179	0	5	0	
0.244167	-0.00313098	-0.0130354	0.000266627	0.000249178	0	5	0	
0.244333	-0.00379802	0.0100101	0.000180524	0.000297929	0	5	0	
0.2445	-0.00488279	0.000126511	0.000205322	0.000281041	0	5	0	
0.244667	0.0133289	-0.000798027	0.000292279	0.000223084	0	5	0	
0.244833	-0.0117176	0.0058217	0.000364977	0.000143365	0	5	0	
0.245	0.00543676	-0.00469061	0.000300711	0.000131594	0	5	0	
0.245167	0.000319594	0.00393122	0.000182337	0.000135443	0	5	0	
0.245333	-0.00673199	-0.00191604	0.000102605	0.000106192	0	5	0	
0.2455	0.00210165	0.00454137	0.000121258	8.25439E-05	0	5	0	
0.245667	0.00422745	-0.00237401	0.000215318	0.000113258	0	5	0	
0.245833	-0.000773715	0.00411621	0.000250531	0.000133554	0	5	0	
0.246	-0.00418	-0.00133043	0.000222224	0.000124163	0	5	0	
0.246167	-0.00747924	-0.00314139	0.000239103	8.13235E-05	0	5	0	
0.246333	0.0174026	0.00451884	0.000319629	5.66486E-05	0	5	0	
0.2465	-0.0107441	-0.000291718	0.000348943	6.37597E-05	0	5	0	
0.246667	-0.00627069	-0.00225327	0.000265963	5.83891E-05	0	5	0	
0.246833	0.00808556	0.00419317	0.000187213	6.33038E-05	0	5	0	
0.247	0.00108868	0.000853035	0.000226436	6.44252E-05	0	5	0	
0.247167	-0.00416392	-0.00533619	0.000287989	7.89404E-05	0	5	0	
0.247333	0.00216224	0.00205046	0.000298889	8.05486E-05	0	5	0	
0.2475	-0.002532	-0.000766395	0.000244125	8.09733E-05	0	5	0	
0.247667	0.0013059	-0.000944792	0.000194193	8.59346E-05	0	5	0	
0.247833	0.00219515	0.00259788	0.000153172	6.97541E-05	0	5	0	
0.248	-0.00051258	-0.00131089	0.000127633	5.53545E-05	0	5	0	
0.248167	-0.00118407	-0.00261075	0.000135093	6.75138E-05	0	5	0	
0.248333	-0.00142663	0.00225985	0.00015762	0.000116737	0	5	0	
0.2485	0.00284236	-0.00263465	0.000196741	0.00015337	0	5	0	
0.248667	0.00654379	0.00128001	0.000254021	0.000154858	0	5	0	
0.248833	-0.00679768	-0.00592158	0.000271083	0.000118847	0	5	0	
0.249	-0.00150541	0.00199104	0.000209692	9.9029E-05	0	5	0	
0.249167	0.00424462	0.00153927	0.000142734	8.0001E-05	0	5	0	
0.249333	0.00284309	-0.00488847	0.000191563	9.1224E-05	0	5	0	
0.2495	0.000111909	0.00310792	0.000220357	0.000108626	0	5	0	
0.249667	-0.00815861	-0.00471182	0.000199226	0.000127881	0	5	0	
0.249833	0.00998259	-0.00204846	0.00014581	0.000133383	0	5	0	
0.25	0.00109591	0.00424358	0.00021553	0.000131532	0	5	0	
0.250167	-0.00832036	-0.00446693	0.000296914	0.00012358	0	5	0	
0.250333	0.00615944	0.000850802	0.000304293	0.000104477	0	5	0	
0.2505	-0.00328114	0.00066259	0.000231741	8.65841E-05	0	5	0	
0.250667	0.00688629	-0.00389384	0.000172567	0.000104639	0	5	0	
0.250833	-0.0100625	0.00277249	0.000155946	0.000111648	0	5	0	
0.251	0.00240187	-0.00219183	0.000150729	0.000104819	0	5	0	
0.251167	0.00792364	-0.00440452	0.000120513	8.4381E-05	0	5	0	
0.251333	-0.00736028	0.00641622	0.000149146	8.36464E-05	0	5	0	
0.2515	-0.00176264	0.0011356	0.000242655	8.71876E-05	0	5	0	
0.251667	0.00940867	-0.00482947	0.00032246	8.33217E-05	0	5	0	
0.251833	-0.00676542	-0.000435762	0.000318864	6.71586E-05	0	5	0	
0.252	0.00561843	0.0018009	0.000252805	5.67067E-05	0	5	0	
0.252167	-0.00579783	-0.00230875	0.000198953	5.47472E-05	0	5	0	
0.252333	-0.000607931	0.000358269	0.000143425	5.25915E-05	0	5	0	
0.2525	0.00446488	0.000462764	9.32588E-05	4.2662E-05	0	5	0	
0.252667	-0.00288788	-0.0010369	9.00287E-05	2.82007E-05	0	5	0	
0.252833	-0.00131424	0.00270794	0.000158702	3.09097E-05	0	5	0	
0.253	0.00796834	-0.00639635	0.00024609	6.17119E-05	0	5	0	
0.253167	-0.00656253	0.0033947	0.000283343	8.5232E-05	0	5	0	
0.253333	-0.000758948	-0.00198252	0.000236038	8.95144E-05	0	5	0	
0.2535	0.00216707	-0.00339951	0.000156941	6.46015E-05	0	5	0	
0.253667	0.00745914	-0.00105469	0.000145507	5.11602E-05	0	5	0	
0.253833	-0.0247301	0.00734466	0.000203697	5.80046E-05	0	5	0	
0.254	0.0159286	-0.00946111	0.000325203	0.000101151	0	5	0	
0.254167	0.0151195	-0.00286135	0.000541252	0.000167263	0	5	0	
0.254333	-0.0363755	0.0126629	0.000652851	0.000241134	0	5	0	
0.2545	0.0257029	-0.0123554	0.000699937	0.000274555	0	5	0	
0.254667	-0.0029848	0.00178684	0.000602114	0.00022726	0	5	0	
0.254833	-0.00950582	0.00141085	0.000554072	0.000142445	0	5	0	
0.255	0.0231684	-0.00403267	0.000552693	6.45129E-05	0	5	0	
0.255167	-0.0396784	0.00655823	0.000599272	6.7771E-05	0	5	0	
0.255333	0.0245566	-0.0016676	0.000611507	0.000121073	0	5	0	
0.2555	0.000544496	-0.000640482	0.000615448	0.000203393	0	5	0	
0.255667	-0.0175563	0.000358661	0.000512392	0.00019435	0	5	0	
0.255833	0.0164619	0.00299556	0.000434761	0.000140043	0	5	0	
0.256	-0.00449795	-0.0048774	0.000380638	7.73132E-05	0	5	0	
0.256167	-0.00307996	0.00502263	0.000362681	9.77813E-05	0	5	0	
0.256333	0.00388814	-0.0057627	0.000330572	0.000133104	0	5	0	
0.2565	-0.00676552	0.000834643	0.000235513	0.000182926	0	5	0	
0.256667	0.000789927	0.00794989	0.000160698	0.000212439	0	5	0	
0.256833	0.00758278	0.000926244	0.000125362	0.000193898	0	5	0	
0.257	-0.000636534	-0.0491706	0.000113655	0.000249633	0	5	0	
0.257167	0.0177181	0.0929429	0.000147231	0.000756928	0	5	0	
0.257333	-0.00820607	-0.0222411	0.000212575	0.00106112	0	5	0	
0.2575	-0.00393795	-0.0195314	0.000384058	0.00118927	0	5	0	
0.257667	0.0308683	0.00544612	0.000582124	0.000709123	0	5	0	
0.257833	-0.0342458	-0.0330609	0.000766276	0.000477546	0	5	0	
0.258	0.0282824	0.0298599	0.000746749	0.00048376	0	5	0	
0.258167	0.000742219	-0.00905148	0.000574782	0.000608429	0	5	0	
0.258333	-0.000559177	0.00309011	0.000346067	0.00115056	0	5	0	
0.2585	0.00964086	0.0561122	0.000225911	0.00144004	0	5	0	
0.258667	-0.000116767	-0.0560454	0.000297839	0.00151612	0	5	0	
0.258833	0.00756366	-0.0256851	0.000410863	0.00109612	0	5	0	
0.259	-0.0170296	0.0294585	0.00053109	0.000964941	0	5	0	
0.259167	0.00741911	-0.0276238	0.000652909	0.00101664	0	5	0	
0.259333	0.013869	0.0251212	0.000866618	0.00105526	0	5	0	
0.2595	-0.02194	-0.0246956	0.000986458	0.000716746	0	5	0	
0.259667	0.0226378	0.00708546	0.000944843	0.000606924	0	5	0	
0.259833	-0.031622	0.00207297	0.000756759	0.000518599	0	5	0	
0.26	0.0115058	-0.00680092	0.000591129	0.000553238	0	5	0	
0.260167	0.0364694	-0.0121898	0.000599388	0.000651443	0	5	0	
0.260333	-0.0559874	0.0379809	0.000670982	0.00074265	0	5	0	
0.2605	0.0275895	-0.0316007	0.000904353	0.000811998	0	5	0	
0.260667	0.00671605	-0.0143805	0.00107822	0.000769247	0	5	0	
0.260833	-0.0224329	0.0231417	0.00108608	0.000693654	0	5	0	
0.261	0.0206217	-0.00591219	0.000864739	0.000590165	0	5	0	
0.261167	-0.0118599	-0.00544369	0.000513759	0.000442216	0	5	0	
0.261333	0.000595361	0.00706784	0.000320586	0.000354341	0	5	0	
0.2615	0.0153868	-0.00823737	0.000241814	0.000327799	0	5	0	
0.261667	-0.0138595	0.00224225	0.000269975	0.000212593	0	5	0	
0.261833	-0.00389084	-0.00377803	0.000425045	0.000139797	0	5	0	
0.262	0.0182225	-0.000760781	0.000530146	0.000109365	0	5	0	
0.262167	-0.00887004	0.00638675	0.000501676	9.62158E-05	0	5	0	
0.262333	-0.00428981	0.00092553	0.000292103	0.000111574	0	5	0	
0.2625	0.000860165	-0.00357728	0.000198664	0.000113383	0	5	0	
0.262667	0.00665222	-0.000293167	0.000239092	9.49997E-05	0	5	0	
0.262833	-0.00579899	0.00443411	0.000300662	7.3802E-05	0	5	0	
0.263	0.00399143	-0.000340967	0.000267667	5.63041E-05	0	5	0	
0.263167	0.000102278	-0.000893869	0.00017203	7.89533E-05	0	5	0	
0.263333	-0.0092645	0.00750629	0.000119592	7.28293E-05	0	5	0	
0.2635	0.0112727	-0.0238256	0.000167241	0.000170246	0	5	0	
0.263667	0.00222454	0.0198627	0.000296472	0.000274451	0	5	0	
0.263833	-0.0120862	-0.012887	0.000397741	0.000361249	0	5	0	
0.264	0.00819891	0.0045202	0.000376394	0.000296291	0	5	0	
0.264167	-0.00281749	-0.00522069	0.000259307	0.000192364	0	5	0	
0.264333	-0.00293496	0.0111138	0.000144663	0.000124219	0	5	0	
0.2645	0.00421575	-0.0263628	9.4026E-05	0.000217336	0	5	0	
0.264667	-8.4729E-05	0.0243461	9.20153E-05	0.000417224	0	5	0	
0.264833	-0.00166938	-0.00855036	0.00011291	0.000567335	0	5	0	
0.265	-0.00357943	0.0113352	0.000115881	0.000557573	0	5	0	
0.265167	0.00268176	-0.0223775	0.000135761	0.000547659	0	5	0	
0.265333	-0.000881705	0.010235	0.000160277	0.000704537	0	5	0	
0.2655	0.00617691	-0.011675	0.000151239	0.000852083	0	5	0	
0.265667	-0.012851	0.0104616	0.000157842	0.00081412	0	5	0	
0.265833	-0.000322643	0.00665556	0.000228302	0.000584787	0	5	0	
0.266	0.0128341	-0.00372152	0.000316317	0.000360951	0	5	0	
0.266167	-0.0029711	0.0194203	0.000311129	0.000289555	0	5	0	
0.266333	-0.0261888	-0.037616	0.00023766	0.000370819	0	5	0	
0.2665	0.0267612	0.0145957	0.000362578	0.000551081	0	5	0	
0.266667	-0.00204734	-0.015452	0.000679797	0.000530291	0	5	0	
0.266833	-0.0193602	0.00536428	0.000955652	0.000411057	0	5	0	
0.267	0.0268025	0.000700693	0.00090782	0.000242853	0	5	0	
0.267167	-0.0191522	0.00036356	0.000663977	0.000184214	0	5	0	
0.267333	-0.0071925	0.00185286	0.00042239	0.000152846	0	5	0	
0.2675	0.0316033	-0.0172679	0.000403027	0.000177237	0	5	0	
0.267667	-0.0462614	0.00680941	0.000504311	0.000272564	0	5	0	
0.267833	0.0352392	-0.00423624	0.000679557	0.000253075	0	5	0	
0.268	-0.00395323	-0.000999801	0.000784721	0.00021678	0	5	0	
0.268167	-0.0162928	0.000540887	0.000770595	9.33516E-05	0	5	0	
0.268333	0.0124075	-0.000437758	0.000598057	9.25562E-05	0	5	0	
0.2685	0.000764382	0.00271964	0.000362449	4.63562E-05	0	5	0	
0.268667	-0.00582332	-0.00737785	0.000174716	6.85813E-05	0	5	0	
0.268833	-0.00053955	0.0111313	0.000178646	0.000118538	0	5	0	
0.269	0.00359408	0.00527318	0.000226817	0.000146583	0	5	0	
0.269167	0.00366132	-0.013422	0.000216578	0.00019364	0	5	0	
0.269333	-0.008397	-0.000919461	0.000169185	0.000180874	0	5	0	
0.2695	-0.000185796	0.00866964	0.000215474	0.000221785	0	5	0	
0.269667	0.00920558	0.00555026	0.000328322	0.000252576	0	5	0	
0.269833	-0.00560189	-0.00628512	0.000355065	0.000250007	0	5	0	
0.27	0.00233385	0.0145987	0.000287666	0.000261488	0	5	0	
0.270167	-0.0094487	-0.0109772	0.000224707	0.000253618	0	5	0	
0.270333	0.0059899	-0.00298256	0.000196746	0.000253579	0	5	0	
0.2705	0.00404674	0.0118354	0.000152374	0.000238213	0	5	0	
0.270667	-0.00753911	-0.0115072	0.000126759	0.000192835	0	5	0	
0.270833	0.00331446	0.0117533	0.00017147	0.000216907	0	5	0	
0.271	0.000906956	-0.000586816	0.00025054	0.000202693	0	5	0	
0.271167	-0.00296318	-0.00671581	0.000266429	0.000188863	0	5	0	
0.271333	-0.00217837	0.000575592	0.000197941	0.000137599	0	5	0	
0.2715	0.0078614	0.00765126	0.000141017	0.0001077	0	5	0	
0.271667	-0.00494714	-0.0018904	0.000178944	0.000163183	0	5	0	
0.271833	-0.0104979	-0.0185694	0.000312202	0.00026853	0	5	0	
0.272	0.0171676	0.0256833	0.000388567	0.00038626	0	5	0	
0.272167	-0.0061584	-0.0217855	0.000355525	0.000431957	0	5	0	
0.272333	-0.00551799	0.010518	0.000236176	0.000516852	0	5	0	
0.2725	0.00558504	0.0032186	0.000157364	0.000626445	0	5	0	
0.272667	-0.00284144	-0.0244557	0.000149368	0.000608484	0	5	0	
0.272833	0.00260499	0.0188528	0.000168487	0.000524226	0	5	0	
0.273	-0.00167915	-0.00395259	0.000218025	0.000450823	0	5	0	
0.273167	-0.00375483	-0.0130571	0.000270305	0.000502608	0	5	0	
0.273333	0.00697141	0.0200857	0.000298641	0.000474354	0	5	0	
0.2735	-0.00516352	-0.0171026	0.000267851	0.000432676	0	5	0	
0.273667	-0.000187709	0.00156023	0.00018949	0.000301279	0	5	0	
0.273833	0.00446232	0.00162822	0.000140268	0.000237945	0	5	0	
0.274	-0.00238586	-0.000755596	0.000175526	0.000113064	0	5	0	
0.274167	-0.00196538	-0.00936848	0.000297176	0.000170054	0	5	0	
0.274333	0.00888482	0.0262819	0.000422273	0.00031281	0	5	0	
0.2745	-0.00918734	-0.0353012	0.00046007	0.000450093	0	5	0	
0.274667	0.00119198	0.000616672	0.000384067	0.000666475	0	5	0	
0.274833	0.00978386	0.0637802	0.00028129	0.00108897	0	5	0	
0.275	-0.00888065	-0.0759659	0.000217476	0.00146876	0	5	0	
0.275167	0.0132182	0.0335455	0.000243651	0.00145784	0	5	0	
0.275333	-0.00938638	0.00580961	0.000278889	0.00120487	0	5	0	
0.2755	0.00520009	-0.0151609	0.000292611	0.000871835	0	5	0	
0.275667	-0.00139221	0.0331216	0.000255636	0.000808801	0	5	0	
0.275833	0.00238174	-0.0778031	0.000199807	0.000735501	0	5	0	
0.276	-0.00252878	0.061302	0.000138957	0.00108473	0	5	0	
0.276167	0.00335466	0.0377014	0.000112852	0.00137643	0	5	0	
0.276333	-0.00074462	-0.00597439	0.000114275	0.00144074	0	5	0	
0.2765	-0.00195072	0.00405817	0.000122104	0.00099888	0	5	0	
0.276667	-0.00146309	-0.0018313	0.00012336	0.000598855	0	5	0	
0.276833	-0.00235877	0.0226962	0.000174405	0.000391783	0	5	0	
0.277	-0.00105191	-0.0249108	0.00022839	0.000457759	0	5	0	
0.277167	0.00334733	0.0157919	0.000221127	0.000480298	0	5	0	
0.277333	-0.00110923	0.0274972	0.000173905	0.000568012	0	5	0	
0.2775	-0.0095829	0.00973027	0.000165658	0.000583182	0	5	0	
0.277667	0.00310721	0.000807731	0.000167502	0.000500152	0	5	0	
0.277833	0.00370432	-0.0116988	0.000142155	0.000347705	0	5	0	
0.278	-0.00729336	0.0160663	9.8944E-05	0.000358035	0	5	0	
0.278167	0.00241886	-0.0189946	0.000113501	0.00046987	0	5	0	
0.278333	0.00182121	0.0200632	0.00015812	0.000531052	0	5	0	
0.2785	1.96233E-05	-0.0185306	0.000169792	0.000461989	0	5	0	
0.278667	-0.00664864	0.00524521	0.000143507	0.000357977	0	5	0	
0.278833	0.00541491	-0.00923178	0.000149914	0.000294389	0	5	0	
0.279	0.00871837	0.0107254	0.000252588	0.000270385	0	5	0	
0.279167	-0.0118636	-0.000571478	0.000313145	0.000323292	0	5	0	
0.279333	-0.00189361	-0.00225366	0.000278182	0.000336424	0	5	0	
0.2795	0.00980721	0.012834	0.000169508	0.000347673	0	5	0	
0.279667	-0.00355915	-0.00056282	0.000172374	0.00033049	0	5	0	
0.279833	0.000694683	-0.0151483	0.000205691	0.000337633	0	5	0	
0.28	-0.00205164	0.00331221	0.000210579	0.000296435	0	5	0	
0.280167	-0.00234759	0.0273031	0.000188629	0.000311118	0	5	0	
0.280333	0.00570051	-0.0386563	0.000190116	0.000475885	0	5	0	
0.2805	0.000868657	0.0125567	0.000169562	0.000576371	0	5	0	
0.280667	-0.00793911	-0.00246053	0.000125321	0.000533279	0	5	0	
0.280833	0.00533363	-0.00417647	0.000128121	0.000417347	0	5	0	
0.281	0.0026097	-0.00498879	0.000207815	0.000428334	0	5	0	
0.281167	-0.00115901	-0.0092069	0.000246085	0.000459279	0	5	0	
0.281333	-0.00388342	0.00592293	0.00022451	0.00037639	0	5	0	
0.2815	0.00043617	-0.00520055	0.000215108	0.000347619	0	5	0	
0.281667	0.00520515	-0.0169633	0.000240499	0.000290594	0	5	0	
0.281833	-0.0017037	0.0127766	0.000228104	0.000425962	0	5	0	
0.282	-0.0043952	-0.00724552	0.000165815	0.000449884	0	5	0	
0.282167	0.0051931	-0.00431074	0.000141408	0.000425608	0	5	0	
0.282333	-0.00424938	0.00819648	0.00015777	0.000294484	0	5	0	
0.2825	0.0139175	0.0140959	0.000198429	0.000279996	0	5	0	
0.282667	-0.0237693	-0.0145319	0.00025809	0.000467363	0	5	0	
0.282833	0.0164906	0.0166607	0.000417402	0.000494419	0	5	0	
0.283	0.00323539	0.0168076	0.000659878	0.000410711	0	5	0	
0.283167	-0.0209928	-0.0572598	0.000817374	0.000354217	0	5	0	
0.283333	0.0274051	0.012811	0.000774872	0.000571914	0	5	0	
0.2835	-0.0146778	0.0755284	0.000580658	0.000755567	0	5	0	
0.283667	-0.00495525	-0.067589	0.000436533	0.00108616	0	5	0	
0.283833	0.0239032	0.0494658	0.000408127	0.00116535	0	5	0	
0.284	-0.0338799	0.00897679	0.000463134	0.00131061	0	5	0	
0.284167	0.0278625	-0.0118146	0.000536528	0.00107503	0	5	0	
0.284333	-0.00999707	-0.00604162	0.000638218	0.000945807	0	5	0	
0.2845	-0.00820355	-0.00092361	0.00072183	0.00063984	0	5	0	
0.284667	0.0179712	0.00236059	0.000691591	0.000561166	0	5	0	
0.284833	-0.0116618	0.0416903	0.00053496	0.000564041	0	5	0	
0.285	-0.00249756	-0.0301322	0.000321276	0.000848672	0	5	0	
0.285167	0.0117138	0.00621387	0.000175938	0.000825453	0	5	0	
0.285333	-0.0049338	0.0226251	0.000193723	0.000734143	0	5	0	
0.2855	-0.00603662	-0.0152176	0.000277013	0.000462064	0	5	0	
0.285667	0.00287096	-0.00972499	0.000301965	0.000435422	0	5	0	
0.285833	0.00316251	0.0184178	0.00023793	0.000356903	0	5	0	
0.286	0.00494646	-0.0077576	0.000228344	0.000339981	0	5	0	
0.286167	-0.00978517	0.00214392	0.000265977	0.000245796	0	5	0	
0.286333	0.00186157	-0.00908099	0.000248489	0.000226386	0	5	0	
0.2865	0.00577658	0.00322826	0.000146216	0.00036637	0	5	0	
0.286667	-0.00153706	0.0199196	0.000134084	0.000598794	0	5	0	
0.286833	0.00131076	-0.0106772	0.000167494	0.00075534	0	5	0	
0.287	-0.00753316	-0.00951983	0.000192541	0.000726863	0	5	0	
0.287167	0.00940192	0.0159776	0.00018948	0.000645257	0	5	0	
0.287333	0.00177757	-0.0460641	0.000254975	0.000667806	0	5	0	
0.2875	-0.00333877	0.032668	0.000312286	0.000743706	0	5	0	
0.287667	-0.00199739	-0.0350126	0.000274475	0.00076243	0	5	0	
0.287833	0.0028893	0.00806505	0.000191536	0.000639954	0	5	0	
0.288	0.000745095	-0.00179432	0.00014562	0.000435344	0	5	0	
0.288167	0.00261905	-0.00659422	0.000141498	0.000430262	0	5	0	
0.288333	-0.00259649	-0.00769593	0.000141727	0.00051892	0	5	0	
0.2885	-0.0012859	0.00887321	0.000175107	0.000611335	0	5	0	
0.288667	0.00439215	0.0539463	0.000226515	0.000695649	0	5	0	
0.288833	-0.00994086	-0.0241363	0.000218168	0.000736327	0	5	0	
0.289	-0.00601299	0.038557	0.000170303	0.000855592	0	5	0	
0.289167	0.0143372	-0.0202934	0.000144113	0.00091217	0	5	0	
0.289333	-0.00731809	-0.00946781	0.000182434	0.000862486	0	5	0	
0.2895	0.00267118	0.0135523	0.000244741	0.000828464	0	5	0	
0.289667	-0.00921267	0.0260993	0.000261089	0.00064635	0	5	0	
0.289833	0.00525404	0.0304951	0.000240678	0.000573873	0	5	0	
0.29	-0.0120694	0.0565505	0.000218703	0.00058692	0	5	0	
0.290167	0.00319535	-0.0741437	0.000203403	0.00111151	0	5	0	
0.290333	0.00131335	0.0328578	0.000166367	0.00136003	0	5	0	
0.2905	-0.00404714	0.00689648	9.92324E-05	0.00129936	0	5	0	
0.290667	0.00253586	-0.0103231	7.03777E-05	0.000846692	0	5	0	
0.290833	0.00215339	-0.00798098	6.6382E-05	0.00051218	0	5	0	
0.291	0.000732371	-0.0107139	0.000108823	0.000356613	0	5	0	
0.291167	-0.0135714	0.0602303	0.000137534	0.000349194	0	5	0	
0.291333	0.00797792	-0.0328527	0.000196069	0.000575704	0	5	0	
0.2915	-0.00532132	-0.00522313	0.000188576	0.000726911	0	5	0	
0.291667	0.00774791	0.0324468	0.000229764	0.000650138	0	5	0	
0.291833	-0.00293126	-0.0233353	0.000260294	0.000544522	0	5	0	
0.292	-0.00764552	0.0112954	0.000256956	0.000523532	0	5	0	
0.292167	0.00873737	0.00273254	0.000199758	0.000403416	0	5	0	
0.292333	-0.000854037	0.00948479	0.000191668	0.000346948	0	5	0	
0.2925	-0.00744801	-0.0126899	0.000241633	0.00027342	0	5	0	
0.292667	-0.00208723	-0.0091009	0.000213153	0.000285642	0	5	0	
0.292833	0.0192862	0.0113751	0.000177567	0.000320829	0	5	0	
0.293	-0.0193637	-0.0110382	0.000218595	0.000261046	0	5	0	
0.293167	0.00173795	0.00725537	0.00037695	0.000340049	0	5	0	
0.293333	0.00511709	0.00481073	0.000465055	0.000286607	0	5	0	
0.2935	-0.00196979	-0.00280181	0.000390233	0.000271001	0	5	0	
0.293667	-0.000963773	-0.0180831	0.000255174	0.000286208	0	5	0	
0.293833	-0.00151293	-0.0062305	0.000160301	0.000310817	0	5	0	
0.294	-0.00126679	0.0202289	0.00012047	0.000376004	0	5	0	
0.294167	0.00916593	-0.0308065	0.000119207	0.000460227	0	5	0	
0.294333	-0.00476456	0.014109	0.000142652	0.000582199	0	5	0	
0.2945	1.67933E-05	0.00379982	0.000196615	0.000527385	0	5	0	
0.294667	-0.00188604	0.00659293	0.000199467	0.000356282	0	5	0	
0.294833	0.00261039	-0.00674363	0.000176241	0.000148318	0	5	0	
0.295	-0.00478978	0.0026241	0.000177084	0.000122319	0	5	0	
0.295167	0.00845654	-0.0250923	0.000210016	0.000170593	0	5	0	
0.295333	-0.0048846	0.0346554	0.000227638	0.000386199	0	5	0	
0.2955	0.00254198	-0.0106542	0.000229081	0.000538468	0	5	0	
0.295667	-0.000167712	0.00725474	0.000221305	0.000567742	0	5	0	
0.295833	0.000991656	-0.0131001	0.000208255	0.000582965	0	5	0	
0.296	-0.00785079	-0.014853	0.000184465	0.000656746	0	5	0	
0.296167	0.0105672	0.0305994	0.000183405	0.000693015	0	5	0	
0.296333	-0.00147204	-0.0118241	0.000251087	0.000579114	0	5	0	
0.2965	-0.0123455	-0.0162286	0.000345661	0.000633132	0	5	0	
0.296667	0.0087682	0.0390182	0.000345503	0.00066934	0	5	0	
0.296833	0.00561179	-0.0526344	0.000257608	0.000804495	0	5	0	
0.297	-0.0104027	0.0274705	0.000165802	0.000761149	0	5	0	
0.297167	0.00756646	-0.012702	0.000169888	0.000683198	0	5	0	
0.297333	-0.00780275	0.0054659	0.000202496	0.000526932	0	5	0	
0.2975	0.0054999	0.00889992	0.000238044	0.000352006	0	5	0	
0.297667	0.00177665	-0.00895388	0.000288825	0.000370136	0	5	0	
0.297833	-0.00799564	-0.00877098	0.000322097	0.000509247	0	5	0	
0.298	0.00352139	0.0082853	0.000274724	0.000608259	0	5	0	
0.298167	0.0062681	0.0082539	0.000181095	0.00055269	0	5	0	
0.298333	-0.0109039	-0.00407092	0.00012544	0.000367751	0	5	0	
0.2985	0.00539154	-0.00114463	0.000175061	0.000307876	0	5	0	
0.298667	0.000376275	-0.00738125	0.000244732	0.000290607	0	5	0	
0.298833	0.000489062	0.0124166	0.000258721	0.000298474	0	5	0	
0.299	-0.00228438	-0.0169556	0.000222133	0.000285446	0	5	0	
0.299167	-0.000983282	0.016164	0.000172733	0.000320794	0	5	0	
0.299333	-0.00543623	-0.00862641	0.00013926	0.000319005	0	5	0	
0.2995	0.00835637	-0.000253579	0.000139467	0.000255699	0	5	0	
0.299667	-0.00271288	0.00469364	0.000206623	0.000181555	0	5	0	
0.299833	-0.00751105	-0.00232456	0.000267362	0.00014373	0	5	0	
0.3	-0.00528634	-0.000756373	0.00027541	0.000143826	0	5	0	
0.300167	0.02279	-0.00707901	0.000253484	0.000241684	0	5	0	
0.300333	-0.0130862	0.00652626	0.000308688	0.000276568	0	5	0	
0.3005	-0.0120087	-0.00141662	0.000467858	0.000258379	0	5	0	
0.300667	0.0104358	0.00715543	0.000467745	0.000155258	0	5	0	
0.300833	0.00129987	0.00015503	0.000383745	8.88739E-05	0	5	0	
0.301	-0.0048301	-0.0089078	0.000179612	0.000162025	0	5	0	
0.301167	0.00567669	0.0118405	0.000124352	0.000192673	0	5	0	
0.301333	-0.0120615	-0.00814404	0.000106571	0.000320453	0	5	0	
0.3015	0.0128751	-0.00450672	0.000182326	0.000389606	0	5	0	
0.301667	-0.000850253	0.0126384	0.000319731	0.000411884	0	5	0	
0.301833	-0.0116515	-0.0040678	0.000416951	0.00030206	0	5	0	
0.302	0.0047455	0.0100719	0.000374573	0.000182551	0	5	0	
0.302167	0.00746367	-0.00746138	0.0002346	0.000176471	0	5	0	
0.302333	-0.0123791	-0.00939815	0.000151695	0.000178929	0	5	0	
0.3025	0.0081345	0.00961033	0.000194885	0.000162247	0	5	0	
0.302667	-0.00268646	-0.00827176	0.00026576	0.000159811	0	5	0	
0.302833	-0.00220833	-0.00194033	0.000308251	0.000193546	0	5	0	
0.303	0.0024773	-0.00309688	0.000280826	0.000215603	0	5	0	
0.303167	0.000958657	0.000621517	0.000185611	0.000167669	0	5	0	
0.303333	-0.0104391	0.00197051	0.000118172	0.000110556	0	5	0	
0.3035	0.0125253	-0.00261242	0.00012929	0.000106965	0	5	0	
0.303667	-0.00501063	0.00357378	0.000237583	0.000152257	0	5	0	
0.303833	-0.00264065	-0.0164007	0.00033449	0.000170572	0	5	0	
0.304	0.000122856	0.00304171	0.000312194	0.000171966	0	5	0	
0.304167	0.00366389	-0.00255385	0.000210675	0.00012913	0	5	0	
0.304333	-0.0038819	0.00511684	0.000139398	0.000158607	0	5	0	
0.3045	0.00136561	-2.94006E-05	0.000160672	0.000172479	0	5	0	
0.304667	-0.00241756	0.00226847	0.00019425	0.000188097	0	5	0	
0.304833	0.00461697	-0.000939273	0.000185718	0.000146344	0	5	0	
0.305	-0.00318037	-0.00287292	0.000181159	8.55867E-05	0	5	0	
0.305167	-0.00304333	0.00577332	0.000213031	0.000100819	0	5	0	
0.305333	0.0013145	-0.0159802	0.000221274	0.00012674	0	5	0	
0.3055	0.00733705	0.0175108	0.000180195	0.000239257	0	5	0	
0.305667	-0.011069	-0.0081508	0.00015346	0.000274941	0	5	0	
0.305833	0.00720884	0.00453912	0.00018539	0.000302399	0	5	0	
0.306	-0.0031415	0.00317305	0.000271256	0.000234753	0	5	0	
0.306167	-3.8149E-05	-0.000367775	0.000336396	0.00016545	0	5	0	
0.306333	0.0105979	-0.0130727	0.00038701	0.000152195	0	5	0	
0.3065	-0.0238027	0.00831803	0.000423713	0.000169051	0	5	0	
0.306667	0.0211489	-0.000670458	0.00045789	0.000203209	0	5	0	
0.306833	-0.0108272	0.00343836	0.000449547	0.000222844	0	5	0	
0.307	0.0102841	-0.013199	0.000432101	0.000231767	0	5	0	
0.307167	-0.00961078	0.014957	0.000402231	0.000262457	0	5	0	
0.307333	0.000526336	-0.0114752	0.000303869	0.00026449	0	5	0	
0.3075	0.0141542	-0.0034353	0.000207666	0.000228676	0	5	0	
0.307667	-0.0174687	0.0126006	0.00026758	0.000220509	0	5	0	
0.307833	0.00422932	-0.0110863	0.000509072	0.000215096	0	5	0	
0.308	0.00234166	0.00363088	0.000673868	0.000219293	0	5	0	
0.308167	0.00298945	0.00299336	0.000587364	0.000182102	0	5	0	
0.308333	-0.000218143	-0.0113791	0.000418494	0.000172889	0	5	0	
0.3085	-0.00623371	0.00460035	0.000310581	0.000190213	0	5	0	
0.308667	-0.00188026	0.00999843	0.000222031	0.000210496	0	5	0	
0.308833	0.012114	-0.00942321	0.000151664	0.00022005	0	5	0	
0.309	-0.00578192	0.000212332	0.000196483	0.000178944	0	5	0	
0.309167	-0.0107633	0.00477399	0.000380665	0.000141803	0	5	0	
0.309333	0.0124103	-0.00187224	0.000467621	8.32074E-05	0	5	0	
0.3095	-0.00247657	0.00234893	0.000365402	7.45734E-05	0	5	0	
0.309667	-0.00624706	-0.00261063	0.000189325	6.14363E-05	0	5	0	
0.309833	0.00974132	-0.00233806	0.000117905	7.93572E-05	0	5	0	
0.31	-0.00776218	0.00653831	0.000162205	9.5507E-05	0	5	0	
0.310167	0.00267985	-0.00238539	0.000219316	0.000112618	0	5	0	
0.310333	-0.00155002	-0.00674617	0.000234664	9.04579E-05	0	5	0	
0.3105	0.00279517	0.00750394	0.000214169	0.000101037	0	5	0	
0.310667	-0.00473891	-5.12269E-05	0.000183657	9.93509E-05	0	5	0	
0.310833	0.0103865	-0.000871552	0.000171659	9.64962E-05	0	5	0	
0.311	-0.0106631	0.00337056	0.000193234	8.7446E-05	0	5	0	
0.311167	-0.002031	-0.00181045	0.000289981	8.65268E-05	0	5	0	
0.311333	0.00981181	0.00226936	0.000365393	8.79218E-05	0	5	0	
0.3115	-0.0045874	-0.00364878	0.000330035	6.62926E-05	0	5	0	
0.311667	-0.00461927	0.0037143	0.000205033	7.07449E-05	0	5	0	
0.311833	0.00632572	0.00308454	0.000111705	7.72313E-05	0	5	0	
0.312	-0.00797663	-0.00484436	0.000115656	8.78277E-05	0	5	0	
0.312167	0.00883843	0.000169701	0.000168152	7.4961E-05	0	5	0	
0.312333	-0.00640877	0.00980153	0.000225818	9.49436E-05	0	5	0	
0.3125	-0.00051914	-0.00906604	0.00027602	0.00013552	0	5	0	
0.312667	0.00405042	0.000229012	0.000280001	0.00015557	0	5	0	
0.312833	0.00135951	0.0057617	0.00021553	0.000125189	0	5	0	
0.313	-0.0104976	0.00347671	0.000153074	8.19451E-05	0	5	0	
0.313167	0.011164	-0.00750082	0.000154193	9.43205E-05	0	5	0	
0.313333	-0.00220741	0.00802024	0.000221205	0.000133138	0	5	0	
0.3135	-0.00241208	-0.00224771	0.000261874	0.000149578	0	5	0	
0.313667	-0.00364099	-0.00523822	0.000227567	0.000118947	0	5	0	
0.313833	0.00753136	0.0100341	0.000196147	0.000113053	0	5	0	
0.314	-0.00273017	-0.00286492	0.000183382	0.000116541	0	5	0	
0.314167	0.00198309	0.000437704	0.000180053	0.000137824	0	5	0	
0.314333	-0.00479705	-0.000174297	0.000144441	0.000129186	0	5	0	
0.3145	0.00515724	0.000727451	0.000141058	0.000130242	0	5	0	
0.314667	-0.0017571	0.00480297	0.000187217	0.000112295	0	5	0	
0.314833	-0.000680904	-0.00205963	0.000212447	0.000117574	0	5	0	
0.315	-0.00181671	-0.00218042	0.00015492	0.000151766	0	5	0	
0.315167	0.00960682	0.00540442	0.000101859	0.000145481	0	5	0	
0.315333	-0.01251	-0.00335354	0.000119016	0.000196604	0	5	0	
0.3155	0.0134217	0.00200066	0.000216689	0.000263178	0	5	0	
0.315667	-0.0195353	0.00591049	0.000321671	0.000348977	0	5	0	
0.315833	0.0246272	-0.0101664	0.000433545	0.000304521	0	5	0	
0.316	-0.0167187	0.00899043	0.00051283	0.000225849	0	5	0	
0.316167	0.00809237	0.00399875	0.000530465	0.000162104	0	5	0	
0.316333	-0.00575556	-0.0132884	0.000467128	0.000166683	0	5	0	
0.3165	0.00306123	0.0182079	0.000380443	0.000219117	0	5	0	
0.316667	-0.0026913	-0.0146944	0.000289368	0.000292507	0	5	0	
0.316833	0.0102743	0.00858893	0.000233954	0.000297027	0	5	0	
0.317	-0.0175892	0.000480807	0.000271229	0.000245382	0	5	0	
0.317167	0.0189704	-0.000230538	0.000308406	0.000160348	0	5	0	
0.317333	-0.0111298	0.00302529	0.000350344	0.000116125	0	5	0	
0.3175	0.00727698	-0.00842886	0.00030823	8.81569E-05	0	5	0	
0.317667	-0.00917973	0.0045412	0.000292483	0.000121221	0	5	0	
0.317833	0.00454829	0.00337646	0.000283586	0.000122719	0	5	0	
0.318	0.00116797	-0.00207438	0.00026913	0.000141277	0	5	0	
0.318167	0.00529458	8.92964E-05	0.000200156	0.000149435	0	5	0	
0.318333	-0.0156232	-0.00348662	0.000164191	0.000175268	0	5	0	
0.3185	0.0150108	0.00356747	0.000191475	0.00018497	0	5	0	
0.318667	-0.00588228	-0.00285945	0.00031318	0.00019469	0	5	0	
0.318833	-0.000827115	0.00511106	0.000367506	0.000184536	0	5	0	
0.319	0.000559382	-0.0165738	0.000331476	0.000175978	0	5	0	
0.319167	-0.000829583	0.0189551	0.000243014	0.000216602	0	5	0	
0.319333	0.00339145	-0.0278493	0.000174654	0.000328677	0	5	0	
