0	-0.00168705	-0.000303139	1.68705E-07	3.03139E-08	0	5	0	
0.000166667	0.00246563	0.00322951	1.3224E-05	1.16916E-05	0	5	0	
0.000333333	0.000608069	-0.00179843	3.2358E-05	4.59539E-05	0	5	0	
0.0005	-0.00132897	0.00436737	4.52079E-05	9.50315E-05	0	5	0	
0.000666667	0.000335299	0.00129953	5.20892E-05	0.000162151	0	5	0	
0.000833333	-0.00185995	-0.000518887	6.0062E-05	0.000176785	0	5	0	
0.001	0.00239723	0.00232721	6.45537E-05	0.000149255	0	5	0	
0.00116667	0.000779528	0.000314152	5.67225E-05	0.000107265	0	5	0	
0.00133333	-0.00615994	-0.00385268	6.38515E-05	9.27841E-05	0	5	0	
0.0015	0.0081364	0.00444134	9.01507E-05	0.00011796	0	5	0	
0.00166667	-0.000664891	0.0046531	0.000108113	0.000134455	0	5	0	
0.00183333	-0.00562914	-0.00326859	0.000100134	0.000131267	0	5	0	
0.002	0.004553	0.00198212	8.82568E-05	0.000115137	0	5	0	
0.00216667	-0.00133911	0.0072262	7.41205E-05	8.6188E-05	0	5	0	
0.00233333	0.00238668	-0.00958984	7.01526E-05	0.000128226	0	5	0	
0.0025	-0.00141993	0.00586423	7.46388E-05	0.000169089	0	5	0	
0.00266667	-0.00663899	-0.00261935	0.000125634	0.000201634	0	5	0	
0.00283333	0.0201754	-0.000786424	0.000181714	0.000231148	0	5	0	
0.003	-0.0548195	0.010969	0.000402604	0.00038022	0	5	0	
0.00316667	0.00237775	-0.033035	0.000495899	0.000649935	0	5	0	
0.00333333	0.012978	0.0213554	0.000511345	0.000803478	0	5	0	
0.0035	-0.00380281	0.00764969	0.000342924	0.000693127	0	5	0	
0.00366667	-0.00412379	-0.0251951	0.000208553	0.000543157	0	5	0	
0.00383333	0.00270126	0.0171323	0.000179595	0.000464469	0	5	0	
0.004	-0.0192366	0.0193433	0.000230759	0.000424951	0	5	0	
0.00416667	-0.0139325	-0.0513128	0.000442354	0.000524336	0	5	0	
0.00433333	-0.00305693	0.0200968	0.000450266	0.000636503	0	5	0	
0.0045	0.00861112	0.0238689	0.000387931	0.000676455	0	5	0	
0.00466667	-0.00362058	-0.0389033	0.000210565	0.000680592	0	5	0	
0.00483333	0.000607767	0.0058871	0.000151883	0.000630836	0	5	0	
0.005	0.000249622	0.014932	7.6078E-05	0.000646701	0	5	0	
0.00516667	-0.00506136	-0.0167839	4.00882E-05	0.000493505	0	5	0	
0.00533333	0.00409775	0.00935357	5.40082E-05	0.00033485	0	5	0	
0.0055	0.0208422	-0.000671759	0.000147625	0.000291684	0	5	0	
0.00566667	-0.0340299	-0.000705749	0.000432284	0.000283301	0	5	0	
0.00583333	0.020512	-0.0095911	0.000548606	0.000302474	0	5	0	
0.006	-0.00380779	-0.00939439	0.000575418	0.000395099	0	5	0	
0.00616667	-0.0144828	0.0154833	0.000457059	0.00048982	0	5	0	
0.00633333	0.0216425	-0.00925158	0.000439525	0.000528395	0	5	0	
0.0065	-0.0151538	-0.0436166	0.000529404	0.000625847	0	5	0	
0.00666667	-0.0117506	0.0608518	0.000854783	0.000774058	0	5	0	
0.00683333	0.0300204	-0.0462818	0.00117694	0.00112543	0	5	0	
0.007	-0.0460973	0.0056352	0.00116852	0.00122825	0	5	0	
0.00716667	0.0295217	0.0185434	0.00103678	0.00113671	0	5	0	
0.00733333	0.00360989	-0.0135296	0.000990099	0.000839011	0	5	0	
0.0075	-0.0434789	-0.0358466	0.00099638	0.000571524	0	5	0	
0.00766667	0.0488662	0.0284911	0.000904884	0.000619209	0	5	0	
0.00783333	-0.0152255	0.0157932	0.00083801	0.000722388	0	5	0	
0.008	-0.0233678	-0.054683	0.000929664	0.0010157	0	5	0	
0.00816667	0.0384729	0.0439995	0.00086549	0.00108533	0	5	0	
0.00833333	-0.0248489	-0.0181548	0.000719798	0.00102839	0	5	0	
0.0085	-0.000865213	0.00781059	0.000531639	0.000713784	0	5	0	
0.00866667	0.0146933	-0.013815	0.000378544	0.000434289	0	5	0	
0.00883333	-0.00570662	0.0230108	0.000256102	0.000306419	0	5	0	
0.009	-0.0056823	-0.0213311	0.000194365	0.000374984	0	5	0	
0.00916667	0.0087668	0.00718927	0.000171886	0.000360985	0	5	0	
0.00933333	-0.00245333	-0.00922876	0.000139097	0.000331368	0	5	0	
0.0095	-0.00695988	0.00436473	0.000140218	0.000229223	0	5	0	
0.00966667	0.00176268	0.00758401	0.000117126	0.000176001	0	5	0	
0.00983333	0.0101932	-0.00742714	0.000133494	0.000211108	0	5	0	
0.01	-0.00920164	-0.000159558	0.000159945	0.000344409	0	5	0	
0.0101667	-0.00341938	-0.00850976	0.000159401	0.000456298	0	5	0	
0.0103333	0.00825231	0.0200612	0.000153934	0.000451934	0	5	0	
0.0105	-0.00787155	-0.025705	0.000144749	0.000457204	0	5	0	
0.0106667	-0.000332698	0.00411465	0.000164455	0.000437396	0	5	0	
0.0108333	0.00291052	0.00999514	0.000143285	0.00038736	0	5	0	
0.011	0.00140679	-0.00523179	0.000113789	0.000279984	0	5	0	
0.0111667	-0.00742822	-0.00110784	0.000112218	0.000174095	0	5	0	
0.0113333	0.00110092	-0.00949093	0.000119541	0.000222908	0	5	0	
0.0115	0.00313471	0.0231997	9.79868E-05	0.000351336	0	5	0	
0.0116667	-0.00544153	-0.024118	8.57913E-05	0.000533146	0	5	0	
0.0118333	0.0030295	0.0107835	9.71484E-05	0.000616786	0	5	0	
0.012	-0.00430184	-0.00225964	9.41894E-05	0.000614301	0	5	0	
0.0121667	-0.000603484	0.0143826	0.000103684	0.000576208	0	5	0	
0.0123333	0.00810133	-0.0264105	0.000115806	0.000504867	0	5	0	
0.0125	-0.00942108	0.0323205	0.000157851	0.00051247	0	5	0	
0.0126667	0.00277957	-0.0127603	0.00014974	0.000550975	0	5	0	
0.0128333	-0.000712222	-0.0124587	0.000119517	0.000570487	0	5	0	
0.013	-0.0035826	0.0134995	9.62884E-05	0.000514568	0	5	0	
0.0131667	0.00548832	0.0183442	0.00011285	0.000478261	0	5	0	
0.0133333	-0.0027067	-0.0401425	0.000100791	0.000641897	0	5	0	
0.0135	0.0018059	0.0219725	0.000140057	0.000782265	0	5	0	
0.0136667	0.000629945	0.00288787	0.000139784	0.000804674	0	5	0	
0.0138333	-0.00160767	-0.0159491	0.000132898	0.000663568	0	5	0	
0.014	0.00540432	0.0110701	8.00842E-05	0.000467303	0	5	0	
0.0141667	-0.0113503	-0.00201508	8.31497E-05	0.000329817	0	5	0	
0.0143333	0.00257782	-0.0117322	0.000129241	0.000294212	0	5	0	
0.0145	0.0111606	-0.00312513	0.000153474	0.000429607	0	5	0	
0.0146667	-0.00822263	0.0122702	0.000169001	0.000587102	0	5	0	
0.0148333	0.00339543	-0.0176368	0.000144715	0.000618824	0	5	0	
0.015	-0.000365555	0.010426	0.000123114	0.000477957	0	5	0	
0.0151667	-0.00264695	-0.000753354	8.81527E-05	0.000301446	0	5	0	
0.0153333	-0.00177459	-0.0150375	9.8514E-05	0.000195394	0	5	0	
0.0155	0.003077	0.00916588	9.90467E-05	0.000207801	0	5	0	
0.0156667	-0.000884276	0.00299306	8.505E-05	0.000234997	0	5	0	
0.0158333	-0.00181899	-0.00986371	5.83906E-05	0.000291696	0	5	0	
0.016	0.00536553	0.00798434	5.90714E-05	0.000312953	0	5	0	
0.0161667	-0.00614589	0.00504109	7.66408E-05	0.000317522	0	5	0	
0.0163333	0.00226734	-0.0150169	9.2112E-05	0.000274738	0	5	0	
0.0165	0.00162374	0.0105349	9.30031E-05	0.00023109	0	5	0	
0.0166667	-0.00619733	-0.0103693	0.000102491	0.000224998	0	5	0	
0.0168333	0.00611828	-0.00301793	0.000137506	0.000234844	0	5	0	
0.017	0.00050806	0.0101807	0.000131585	0.000221473	0	5	0	
0.0171667	-0.00222195	0.00146442	0.000122703	0.000210821	0	5	0	
0.0173333	-0.00225803	-0.012651	9.4199E-05	0.000201221	0	5	0	
0.0175	0.00954989	0.0147627	0.000119922	0.000234883	0	5	0	
0.0176667	-0.0103831	-0.00335848	0.000159376	0.000308312	0	5	0	
0.0178333	0.000309431	-0.0172369	0.000168516	0.000409085	0	5	0	
0.018	0.00853761	0.00779306	0.000167206	0.000438063	0	5	0	
0.0181667	-0.00781288	0.0141316	0.000173683	0.000355127	0	5	0	
0.0183333	0.00427167	-0.0259601	0.000172016	0.000324126	0	5	0	
0.0185	0.000383717	0.0180952	0.000174066	0.000352434	0	5	0	
0.0186667	-0.001309	0.00360574	0.000162989	0.00041013	0	5	0	
0.0188333	-0.00157991	-0.0173244	0.000176368	0.000378304	0	5	0	
0.019	-0.00113221	0.00736397	0.000143955	0.000309707	0	5	0	
0.0191667	0.00331852	0.00828139	0.000119903	0.000254334	0	5	0	
0.0193333	-0.00104821	-0.0179059	0.000141372	0.000257138	0	5	0	
0.0195	-0.00146312	0.00978502	0.000163539	0.000308778	0	5	0	
0.0196667	0.00195573	-0.000655078	0.000156205	0.000415736	0	5	0	
0.0198333	-0.00161481	-0.00893376	0.00015039	0.000464623	0	5	0	
0.02	0.00211624	0.00638857	0.00014293	0.000412534	0	5	0	
0.0201667	0.000571073	0.00340728	0.00013929	0.00030821	0	5	0	
0.0203333	-0.00887665	-0.0127121	0.000125089	0.000249977	0	5	0	
0.0205	0.00782128	-0.00159601	0.000161855	0.000236911	0	5	0	
0.0206667	0.00407212	0.017519	0.000150992	0.00032864	0	5	0	
0.0208333	-0.00922617	-0.0226313	0.000149716	0.000407444	0	5	0	
0.021	0.00391321	0.00362709	0.000132618	0.000419212	0	5	0	
0.0211667	0.00454401	0.0173601	0.000118673	0.000338931	0	5	0	
0.0213333	-0.00821619	-0.0240855	0.000113837	0.00032017	0	5	0	
0.0215	0.000434736	-0.00479115	0.000104121	0.000319649	0	5	0	
0.0216667	0.00659025	0.021513	0.000124973	0.000368503	0	5	0	
0.0218333	-0.00190975	-0.00852414	0.00011173	0.000312582	0	5	0	
0.022	0.000468522	-0.00954624	7.69572E-05	0.00026647	0	5	0	
0.0221667	-0.000623878	0.0106074	5.37869E-05	0.000259691	0	5	0	
0.0223333	-0.00195664	-0.00993165	5.01469E-05	0.000251117	0	5	0	
0.0225	0.00404352	-0.00244115	9.79855E-05	0.00029084	0	5	0	
0.0226667	0.00386582	0.0118646	0.000133782	0.000265137	0	5	0	
0.0228333	-0.00630183	-0.0130041	0.000149456	0.000251097	0	5	0	
0.023	0.00345614	0.000901615	0.000137452	0.000199991	0	5	0	
0.0231667	0.00140605	0.0126478	0.000111343	0.000205528	0	5	0	
0.0233333	-0.00108755	-0.0150267	8.85069E-05	0.000226497	0	5	0	
0.0235	0.00295841	-0.00688093	0.000121877	0.000287853	0	5	0	
0.0236667	0.00324456	0.0198062	0.000148421	0.000348624	0	5	0	
0.0238333	-0.00716173	-0.00942064	0.000195391	0.000354664	0	5	0	
0.024	0.00312114	-0.00958597	0.000198884	0.000306078	0	5	0	
0.0241667	0.00435251	0.0210964	0.000170812	0.000298067	0	5	0	
0.0243333	-0.00291082	-0.0191067	0.000133083	0.000381238	0	5	0	
0.0245	-0.00268857	0.0022786	7.5501E-05	0.000470684	0	5	0	
0.0246667	0.00282961	0.0178906	0.00011332	0.000438697	0	5	0	
0.0248333	0.00282138	-0.0204141	0.000130202	0.000386251	0	5	0	
0.025	-0.00154362	0.0125574	0.000137762	0.000349142	0	5	0	
0.0251667	-0.0017638	-0.00522465	0.000141433	0.000320107	0	5	0	
0.0253333	0.00105569	-0.00220588	0.000128471	0.000294999	0	5	0	
0.0255	-0.00641686	-4.63602E-05	0.000120969	0.000295101	0	5	0	
0.0256667	0.00714703	0.00620959	0.000135304	0.000325152	0	5	0	
0.0258333	0.000311318	-0.00336562	0.000203478	0.000280529	0	5	0	
0.026	-0.00798732	0.000398488	0.000247636	0.000187427	0	5	0	
0.0261667	0.00768932	0.00343327	0.000219083	0.000100555	0	5	0	
0.0263333	-0.00586741	-0.01858	0.000195264	0.000105148	0	5	0	
0.0265	-0.000628646	0.0203018	0.000185478	0.000231226	0	5	0	
0.0266667	0.00839365	1.42273E-05	0.000166625	0.000281132	0	5	0	
0.0268333	-0.0138583	-0.0153978	0.000158746	0.000267074	0	5	0	
0.027	0.00693932	0.017906	0.000175008	0.000229186	0	5	0	
0.0271667	-0.00108111	-0.0199782	0.000195082	0.000297811	0	5	0	
0.0273333	-0.00223972	0.015303	0.000127076	0.000358375	0	5	0	
0.0275	-0.00115613	-0.00598651	7.73342E-05	0.000372081	0	5	0	
0.0276667	0.00431542	-0.00580103	5.78463E-05	0.00039252	0	5	0	
0.0278333	-0.0034951	0.0153163	0.000104904	0.00037786	0	5	0	
0.028	0.000138164	-0.0118209	0.000123627	0.000360846	0	5	0	
0.0281667	-0.0015511	-0.00362161	0.000106605	0.000261756	0	5	0	
0.0283333	0.00539451	0.00381813	8.24818E-05	0.000201896	0	5	0	
0.0285	-0.0063308	0.00141854	0.000100404	0.000123467	0	5	0	
0.0286667	-0.00224971	-0.0101562	0.000137283	0.000127803	0	5	0	
0.0288333	0.00611744	0.00861571	0.000159449	0.00015092	0	5	0	
0.029	-0.00438339	0.000381953	0.000143592	0.000241412	0	5	0	
0.0291667	0.00235292	-0.0124989	0.000120689	0.000336288	0	5	0	
0.0293333	0.000318071	0.0151832	8.3778E-05	0.000421059	0	5	0	
0.0295	0.000336942	-0.0095181	9.90559E-05	0.000414007	0	5	0	
0.0296667	-0.00483816	-0.00318565	0.000135143	0.000283135	0	5	0	
0.0298333	0.00547464	0.0100093	0.000170848	0.000202846	0	5	0	
0.03	-0.0027637	-0.00239289	0.000150784	0.000226539	0	5	0	
0.0301667	-0.00137888	-0.00750893	0.000110051	0.000312744	0	5	0	
0.0303333	0.00350729	0.0122566	7.81487E-05	0.000331881	0	5	0	
0.0305	-0.000149593	-0.00628774	5.66689E-05	0.000273133	0	5	0	
0.0306667	-0.0047007	-0.00093654	4.77804E-05	0.000190782	0	5	0	
0.0308333	0.00514508	0.00422362	6.18248E-05	0.000154088	0	5	0	
0.031	-0.000928413	0.00338839	6.89336E-05	0.000150256	0	5	0	
0.0311667	-0.00107148	-0.00533684	7.3786E-05	0.000183124	0	5	0	
0.0313333	0.00304553	0.0119716	7.56095E-05	0.000206967	0	5	0	
0.0315	-0.00490444	-0.00709395	0.000113832	0.000203709	0	5	0	
0.0316667	0.00571138	0.00525892	0.000142231	0.000200018	0	5	0	
0.0318333	-0.0058961	-0.00342862	0.000144078	0.000251123	0	5	0	
0.032	0.0022499	-0.00474253	0.000144863	0.000368721	0	5	0	
0.0321667	-0.00154404	0.0018199	0.000145276	0.000476051	0	5	0	
0.0323333	0.000546741	0.000296411	0.000129688	0.000394299	0	5	0	
0.0325	0.00340129	0.00199254	0.000119703	0.000282371	0	5	0	
0.0326667	-0.00366569	0.00217337	0.000142247	0.000143217	0	5	0	
0.0328333	-0.00373015	-0.00294214	0.000176348	0.000172903	0	5	0	
0.033	0.0121819	0.0042537	0.000175034	0.000207616	0	5	0	
0.0331667	-0.014134	-0.0182573	0.000192186	0.000299255	0	5	0	
0.0333333	0.00479659	-0.000504151	0.000210145	0.000300511	0	5	0	
0.0335	0.00716875	0.0155508	0.000195448	0.000253914	0	5	0	
0.0336667	-0.00868893	-0.00915744	0.000172021	0.000242083	0	5	0	
0.0338333	-0.000639193	-0.0111515	0.0001489	0.000246159	0	5	0	
0.034	0.00951714	0.0104789	0.000175753	0.000398696	0	5	0	
0.0341667	-0.00292176	0.00921685	0.000155233	0.000462323	0	5	0	
0.0343333	-0.00160962	-0.0171127	0.000127227	0.000455824	0	5	0	
0.0345	-0.000170918	0.00471765	8.17911E-05	0.000343864	0	5	0	
0.0346667	0.00401762	0.0027559	6.48026E-05	0.000224945	0	5	0	
0.0348333	-0.0045112	-0.00793001	0.000104148	0.000235231	0	5	0	
0.035	0.00553244	0.0150886	0.00014575	0.000216842	0	5	0	
0.0351667	-0.00364902	-0.0228454	0.000161882	0.000301967	0	5	0	
0.0353333	0.0015683	0.0134004	0.000187709	0.000693122	0	5	0	
0.0355	0.00654151	-0.00167054	0.000221594	0.00135568	0	5	0	
0.0356667	-0.0225775	-0.0120287	0.00028515	0.00181001	0	5	0	
0.0358333	0.00371764	-0.00691507	0.000393582	0.00160569	0	5	0	
0.036	0.0196771	0.0133011	0.000413353	0.000997634	0	5	0	
0.0361667	-0.0162183	-0.0140363	0.000438314	0.000542655	0	5	0	
0.0363333	0.0116653	0.0378031	0.000329598	0.000502395	0	5	0	
0.0365	-0.00432917	-0.0846232	0.000265509	0.000753284	0	5	0	
0.0366667	-0.0166847	0.079699	0.000260452	0.00107981	0	5	0	
0.0368333	0.0161869	-0.0594398	0.000384245	0.00132893	0	5	0	
0.037	0.0100468	0.0105243	0.000400314	0.00121531	0	5	0	
0.0371667	0.00104684	0.035448	0.0005013	0.000917955	0	5	0	
0.0373333	0.00629446	-0.0347202	0.000408564	0.000734674	0	5	0	
0.0375	-0.0206007	-0.0021245	0.000459083	0.000579709	0	5	0	
0.0376667	0.0104572	0.0166101	0.000384097	0.000509149	0	5	0	
0.0378333	0.00888673	-0.000519376	0.000337195	0.00026988	0	5	0	
0.038	-0.0167469	-0.028178	0.000296868	0.000250468	0	5	0	
0.0381667	0.0335805	0.0395379	0.000322484	0.000392464	0	5	0	
0.0383333	-0.00728737	-0.0006344	0.00043604	0.000495279	0	5	0	
0.0385	-0.0195597	-0.0261284	0.00045331	0.000507983	0	5	0	
0.0386667	0.0126902	0.0170147	0.000420498	0.000447577	0	5	0	
0.0388333	-0.00419569	-0.00733881	0.000263709	0.000521195	0	5	0	
0.039	0.00639001	-0.0109702	0.00025465	0.000725925	0	5	0	
0.0391667	0.00114811	0.0454577	0.000239466	0.000943334	0	5	0	
0.0393333	-0.0192119	-0.0640741	0.000339218	0.00109459	0	5	0	
0.0395	0.013473	0.0396918	0.000393996	0.00109707	0	5	0	
0.0396667	0.0420619	0.053384	0.000796486	0.00119904	0	5	0	
0.0398333	-0.0801729	-0.089782	0.00138134	0.00166975	0	5	0	
0.04	0.0486301	0.0370561	0.00171252	0.00203813	0	5	0	
0.0401667	-0.00598096	0.00764905	0.0013129	0.00166305	0	5	0	
0.0403333	-0.00693951	-0.0143506	0.000745895	0.00108746	0	5	0	
0.0405	0.0152192	0.00590794	0.0004176	0.000702126	0	5	0	
0.0406667	-0.0422204	-0.000425747	0.000448351	0.000759108	0	5	0	
0.0408333	0.0599319	0.0335775	0.000664024	0.000629074	0	5	0	
0.041	-0.0361346	-0.0498245	0.00106156	0.000762772	0	5	0	
0.0411667	-0.00826299	0.0165033	0.00123569	0.000879948	0	5	0	
0.0413333	0.0202139	0.0145302	0.000954586	0.000850693	0	5	0	
0.0415	-0.00294518	-0.0165268	0.000530907	0.000570445	0	5	0	
0.0416667	-0.00621144	0.00667268	0.000220371	0.00038788	0	5	0	
0.0418333	-0.00425584	0.00498356	0.000257394	0.000383047	0	5	0	
0.042	0.00902326	-0.00497637	0.000221763	0.000371813	0	5	0	
0.0421667	-0.0043199	0.00236257	0.00023442	0.000408044	0	5	0	
0.0423333	-0.00247103	-0.000690005	0.000155176	0.000405478	0	5	0	
0.0425	0.00232196	0.00307693	0.000100261	0.00030976	0	5	0	
0.0426667	0.00543413	4.69158E-05	8.2401E-05	0.000247623	0	5	0	
0.0428333	-0.010156	-0.0139246	9.39168E-05	0.000249487	0	5	0	
0.043	0.0121703	0.0311965	0.000144283	0.000408031	0	5	0	
0.0431667	-0.0129761	-0.0208765	0.000223385	0.00052741	0	5	0	
0.0433333	0.00245865	-0.00731639	0.000227898	0.000472477	0	5	0	
0.0435	0.0015381	0.0151751	0.000166654	0.000363972	0	5	0	
0.0436667	0.00110483	0.00224967	8.24114E-05	0.000221783	0	5	0	
0.0438333	0.00631371	-0.0104411	0.000105993	0.000231279	0	5	0	
0.044	0.00244784	0.0056027	0.000170114	0.000226764	0	5	0	
0.0441667	-0.00203677	0.0057346	0.000217442	0.000250584	0	5	0	
0.0443333	-0.00685771	-0.0113492	0.000206061	0.000280446	0	5	0	
0.0445	0.00680126	0.00621855	0.000204916	0.000297138	0	5	0	
0.0446667	9.30581E-05	0.0157676	0.000158044	0.000336467	0	5	0	
0.0448333	0.00629507	-0.0281251	0.00011603	0.00041515	0	5	0	
0.045	-0.00565833	0.0191721	7.06535E-05	0.000494203	0	5	0	
0.0451667	0.00438843	-0.00253306	0.000113684	0.000495037	0	5	0	
0.0453333	-0.000896301	-0.00982889	0.000130476	0.000428461	0	5	0	
0.0455	0.00448415	0.0128761	0.000135037	0.00032239	0	5	0	
0.0456667	-0.00354945	0.00281091	0.000117381	0.000287483	0	5	0	
0.0458333	0.0110428	-0.0196478	0.000123004	0.000335305	0	5	0	
0.046	-0.0148718	0.027366	0.000177133	0.00042545	0	5	0	
0.0461667	0.00797676	-0.0221065	0.000242324	0.000476635	0	5	0	
0.0463333	0.00210261	0.00718097	0.000284327	0.00049746	0	5	0	
0.0465	-0.00222354	0.0104277	0.000266784	0.00048048	0	5	0	
0.0466667	0.00378093	-0.00671456	0.000170003	0.000446274	0	5	0	
0.0468333	-0.00424264	0.00018437	0.000119387	0.000291284	0	5	0	
0.047	0.000388087	-0.00222098	7.16049E-05	0.000212452	0	5	0	
0.0471667	0.00380804	0.00190351	8.39028E-05	0.000232025	0	5	0	
0.0473333	-0.00311058	0.00932882	8.8835E-05	0.00028153	0	5	0	
0.0475	0.00196768	-0.0103992	0.000104366	0.000271721	0	5	0	
0.0476667	0.000394883	0.00798451	9.63321E-05	0.00020768	0	5	0	
0.0478333	-0.000866518	-0.00835896	7.26128E-05	0.000186935	0	5	0	
0.048	-0.00111758	0.00212188	7.56438E-05	0.000170649	0	5	0	
0.0481667	-0.00301358	0.00964755	0.000128611	0.000144442	0	5	0	
0.0483333	-0.00132579	-0.0174454	0.00020176	0.000185154	0	5	0	
0.0485	-0.00261769	0.00979663	0.000193563	0.000238483	0	5	0	
0.0486667	0.00395058	-0.000998274	0.000179734	0.000273306	0	5	0	
0.0488333	0.00727176	-0.00136179	0.000130669	0.000286913	0	5	0	
0.049	0.0165324	0.00135607	0.00021927	0.000319445	0	5	0	
0.0491667	-0.0283016	0.00978237	0.00030915	0.000333004	0	5	0	
0.0493333	-0.0191083	-0.0157012	0.000634557	0.000344262	0	5	0	
0.0495	0.00454749	0.0266798	0.00120418	0.000376642	0	5	0	
0.0496667	0.0398323	-0.0248593	0.0016167	0.000577022	0	5	0	
0.0498333	-0.0234314	-0.0204291	0.00152855	0.000776988	0	5	0	
0.05	-0.00319451	0.0308862	0.000977137	0.000949501	0	5	0	
0.0501667	0.0109504	-0.00787542	0.000481525	0.000874328	0	5	0	
0.0503333	0.0276032	-0.00968544	0.000271429	0.00066541	0	5	0	
0.0505	-0.0960888	0.0238405	0.000528781	0.000463254	0	5	0	
0.0506667	0.0819124	-0.00586342	0.00116897	0.000530252	0	5	0	
0.0508333	-0.0186395	-0.0347356	0.00147189	0.000726546	0	5	0	
0.051	0.00454498	0.0416926	0.00124153	0.000888798	0	5	0	
0.0511667	-0.017152	-0.0359681	0.000701853	0.000903914	0	5	0	
0.0513333	0.0279281	0.0188028	0.000474366	0.000821317	0	5	0	
0.0515	-0.0140434	0.00796959	0.000451896	0.000612093	0	5	0	
0.0516667	-0.0144585	-0.00734536	0.000370345	0.000412524	0	5	0	
0.0518333	0.0125223	-0.00668888	0.000354775	0.000356507	0	5	0	
0.052	-0.00261402	0.0197258	0.000292625	0.000535398	0	5	0	
0.0521667	0.00999361	-0.00988931	0.000279121	0.000630311	0	5	0	
0.0523333	-0.0151882	-0.0202642	0.000222481	0.00053435	0	5	0	
0.0525	0.025089	0.0433565	0.000289037	0.000539626	0	5	0	
0.0526667	-0.00945316	-0.0192753	0.00034958	0.000604212	0	5	0	
0.0528333	-0.00400806	-0.00972782	0.000315337	0.000659717	0	5	0	
0.053	0.000495612	0.0263324	0.000199117	0.000549849	0	5	0	
0.0531667	0.000920645	-0.0198034	8.44001E-05	0.000495371	0	5	0	
0.0533333	0.00840923	0.00367365	0.000116283	0.000478263	0	5	0	
0.0535	-0.000313833	-0.00213144	0.000161056	0.000337099	0	5	0	
0.0536667	0.00652238	0.0119505	0.00017092	0.000220856	0	5	0	
0.0538333	-0.00406067	-0.0026902	0.000133843	0.000219761	0	5	0	
0.054	0.00202092	-0.00693377	7.11113E-05	0.000378665	0	5	0	
0.0541667	-0.00453231	0.00654292	9.2526E-05	0.000522774	0	5	0	
0.0543333	0.00447657	0.0202388	0.000129809	0.000636168	0	5	0	
0.0545	-0.00355046	-0.0195727	0.000161181	0.000653714	0	5	0	
0.0546667	0.00247037	-0.00376488	0.00015014	0.000514165	0	5	0	
0.0548333	0.00597837	0.00878709	0.000110503	0.000369732	0	5	0	
0.055	-0.0164481	0.00264985	0.000135991	0.000210419	0	5	0	
0.0551667	0.0134821	-0.0340963	0.000198216	0.000291894	0	5	0	
0.0553333	0.00244782	0.0569888	0.000305474	0.000598561	0	5	0	
0.0555	-0.0166445	-0.0384287	0.000327543	0.000910355	0	5	0	
0.0556667	0.011747	0.0302163	0.000325357	0.000961172	0	5	0	
0.0558333	-0.00595387	-0.0355957	0.00031415	0.000784003	0	5	0	
0.056	-0.000411723	0.0288496	0.000373486	0.000785148	0	5	0	
0.0561667	0.00741101	0.0089267	0.000484591	0.000940536	0	5	0	
0.0563333	-0.00879539	-0.0973678	0.000511984	0.0011631	0	5	0	
0.0565	-0.00996486	0.14084	0.000393484	0.00152953	0	5	0	
0.0566667	0.038543	-0.139602	0.000366132	0.00239675	0	5	0	
0.0568333	-0.0315898	0.167982	0.000539384	0.00417342	0	5	0	
0.057	-0.00174061	-0.170214	0.000870193	0.00547398	0	5	0	
0.0571667	0.035223	0.131268	0.000920036	0.00538761	0	5	0	
0.0573333	-0.0480974	-0.153128	0.000886725	0.00427967	0	5	0	
0.0575	0.0362046	0.0931665	0.000821843	0.00316622	0	5	0	
0.0576667	0.0133359	-0.124028	0.000775644	0.00246863	0	5	0	
0.0578333	-0.0416786	0.205097	0.0007235	0.00273414	0	5	0	
0.058	0.0349103	-0.200133	0.000718518	0.0041248	0	5	0	
0.0581667	-0.0164433	0.140654	0.000887329	0.00588489	0	5	0	
0.0583333	0.0464572	-0.251515	0.00100341	0.00633245	0	5	0	
0.0585	-0.0987157	0.319166	0.00122113	0.00623881	0	5	0	
0.0586667	0.0975798	-0.389691	0.00155078	0.006541	0	5	0	
0.0588333	-0.0940505	0.263126	0.00180976	0.00697839	0	5	0	
0.059	0.128334	-0.0912919	0.00224059	0.00578428	0	5	0	
0.0591667	-0.119011	0.063599	0.00261995	0.00435968	0	5	0	
0.0593333	0.081549	-0.0636598	0.00258316	0.00317327	0	5	0	
0.0595	-0.0779435	0.19331	0.00222646	0.00531851	0	5	0	
0.0596667	-0.0271674	-0.420719	0.00172112	0.00765232	0	5	0	
0.0598333	0.0270361	0.457014	0.00149953	0.0089144	0	5	0	
0.06	0.0473306	-0.354364	0.00126694	0.00904893	0	5	0	
0.0601667	-0.0225576	0.270991	0.00158439	0.00814248	0	5	0	
0.0603333	-0.0152948	0.0903297	0.00189788	0.00706616	0	5	0	
0.0605	-0.0558198	-0.435389	0.002055	0.00556442	0	5	0	
0.0606667	0.153854	0.300349	0.00183193	0.00572656	0	5	0	
0.0608333	-0.149551	0.186773	0.00213325	0.00908058	0	5	0	
0.061	0.0422145	-0.487971	0.00275144	0.0119801	0	5	0	
0.0611667	0.0334731	0.397127	0.00298729	0.0129416	0	5	0	
0.0613333	0.000996319	-0.196592	0.00230452	0.0102647	0	5	0	
0.0615	-0.0619165	0.035222	0.00149835	0.00640623	0	5	0	
0.0616667	0.0946683	0.00499345	0.00137795	0.00436679	0	5	0	
0.0618333	-0.0256383	-0.0263039	0.00174069	0.00400209	0	5	0	
0.062	0.0185975	0.056082	0.00171454	0.00412752	0	5	0	
0.0621667	-0.0212249	-0.135605	0.00113584	0.00332008	0	5	0	
0.0623333	0.0340412	0.0581131	0.000627891	0.00250771	0	5	0	
0.0625	-0.0381746	-0.00495157	0.000622841	0.00198458	0	5	0	
0.0626667	0.014013	-0.135991	0.000636255	0.00182988	0	5	0	
0.0628333	-0.0302328	0.120937	0.000623613	0.00201114	0	5	0	
0.063	0.0505151	0.0880859	0.00061901	0.00219507	0	5	0	
0.0631667	-0.0229183	-0.232115	0.000774675	0.00287829	0	5	0	
0.0633333	0.022511	0.232708	0.000864308	0.0028863	0	5	0	
0.0635	-0.0330638	-0.563743	0.000889688	0.00669324	0	5	0	
0.0636667	0.0171966	0.659638	0.000902905	0.0126377	0	5	0	
0.0638333	-0.0174732	-0.307952	0.000745728	0.0161337	0	5	0	
0.064	-0.00528161	-0.019473	0.000550546	0.0131765	0	5	0	
0.0641667	0.0217017	0.197536	0.000289922	0.00763074	0	5	0	
0.0643333	-0.0191531	0.0173896	0.000366537	0.00429497	0	5	0	
0.0645	0.0322211	-0.601192	0.000426641	0.00481843	0	5	0	
0.0646667	-0.051474	0.785072	0.000650992	0.00930149	0	5	0	
0.0648333	0.0355953	-0.257108	0.000776435	0.0135799	0	5	0	
0.065	-0.0402901	-0.0324878	0.000843542	0.0143506	0	5	0	
0.0651667	0.0497217	0.0708622	0.000812198	0.00939338	0	5	0	
0.0653333	-0.0595472	0.151532	0.000863585	0.00473765	0	5	0	
0.0655	0.0634819	-0.143671	0.00103224	0.00317704	0	5	0	
0.0656667	-0.044764	0.0487078	0.00127566	0.00251499	0	5	0	
0.0658333	0.0168504	0.00194299	0.00132951	0.00258808	0	5	0	
0.066	0.0043237	-0.0217595	0.00100086	0.0021247	0	5	0	
0.0661667	-0.0173879	0.112724	0.000634922	0.00232582	0	5	0	
0.0663333	-0.00385128	-0.0415615	0.000467243	0.00266245	0	5	0	
0.0665	0.0416492	0.110293	0.00063093	0.00281713	0	5	0	
0.0666667	-0.0517974	-0.101584	0.000857942	0.00283265	0	5	0	
0.0668333	0.0310598	-0.0415898	0.000980314	0.00231563	0	5	0	
0.067	0.00490093	0.126963	0.00083473	0.0022201	0	5	0	
0.0671667	-0.0283107	-0.0478572	0.000568088	0.00210882	0	5	0	
0.0673333	0.0194804	-0.0367574	0.000409457	0.00171571	0	5	0	
0.0675	-0.000339613	0.0715845	0.000353799	0.00131515	0	5	0	
0.0676667	-0.0113936	-0.0339918	0.000253089	0.000946123	0	5	0	
0.0678333	0.0160602	0.00656308	0.000173133	0.000961055	0	5	0	
0.068	-0.0115464	0.0217251	0.000238827	0.000840807	0	5	0	
0.0681667	-0.00196282	-0.0258576	0.000282529	0.000628524	0	5	0	
0.0683333	0.00384053	0.00276433	0.000249902	0.000660053	0	5	0	
0.0685	-0.000313131	-0.000399243	0.000215729	0.000580699	0	5	0	
0.0686667	-0.0114601	-0.0319872	0.00025114	0.000754538	0	5	0	
0.0688333	0.0266068	0.0797983	0.000311456	0.00112249	0	5	0	
0.069	-0.0173109	-0.0338611	0.000378925	0.00151179	0	5	0	
0.0691667	-0.0220902	-0.0482709	0.000398346	0.00176991	0	5	0	
0.0693333	0.0416902	0.0498663	0.00051481	0.00162399	0	5	0	
0.0695	-0.0242779	-0.00550096	0.000573234	0.00129522	0	5	0	
0.0696667	-0.00481501	-0.0657802	0.000599221	0.0010448	0	5	0	
0.0698333	0.023085	0.0867344	0.000435063	0.00126483	0	5	0	
0.07	0.00866649	0.0213528	0.000390921	0.00143189	0	5	0	
0.0701667	-0.0239061	-0.0834061	0.000451308	0.00164013	0	5	0	
0.0703333	0.00714918	0.0254111	0.000536904	0.00149446	0	5	0	
0.0705	0.00719413	0.0237611	0.000420461	0.00126703	0	5	0	
0.0706667	-0.00765726	-0.0357535	0.000298223	0.00112764	0	5	0	
0.0708333	0.0210906	0.0329684	0.000335388	0.00097343	0	5	0	
0.071	-0.0255822	-0.0215676	0.000486287	0.000976084	0	5	0	
0.0711667	0.0229745	0.0103327	0.000568257	0.000735195	0	5	0	
0.0713333	-0.000192321	-0.00796778	0.00061816	0.000473402	0	5	0	
0.0715	-0.0106113	0.00795559	0.000489406	0.000348313	0	5	0	
0.0716667	0.00131849	-0.00485942	0.000419418	0.000276155	0	5	0	
0.0718333	0.00964712	0.00580615	0.000281927	0.000193038	0	5	0	
0.072	-0.00773979	-0.00718351	0.000259876	0.000242495	0	5	0	
0.0721667	-0.00370649	-0.0141564	0.000240325	0.000297852	0	5	0	
0.0723333	0.0112773	0.0274397	0.000234472	0.00039707	0	5	0	
0.0725	-0.0102556	-0.00350654	0.000265353	0.000455115	0	5	0	
0.0726667	0.00810076	-0.00277158	0.000231159	0.000424767	0	5	0	
0.0728333	-0.00141947	-0.0160793	0.000209336	0.000294222	0	5	0	
0.073	-0.00653317	0.0202115	0.000215754	0.000262357	0	5	0	
0.0731667	0.00700212	0.004614	0.000207187	0.00031148	0	5	0	
0.0733333	0.00494036	0.0163928	0.000177804	0.000412609	0	5	0	
0.0735	-0.00691253	-0.0353073	0.000154521	0.000501303	0	5	0	
0.0736667	0.00435496	0.00998374	0.000152252	0.000567707	0	5	0	
0.0738333	-0.00566317	0.012988	0.000138495	0.000523576	0	5	0	
0.074	0.00931177	-0.00134167	0.000124663	0.00034858	0	5	0	
0.0741667	-0.00505234	-0.0106624	0.000134915	0.000189847	0	5	0	
0.0743333	0.00392795	0.0296879	0.000157942	0.000250269	0	5	0	
0.0745	0.00458921	-0.00989408	0.000133715	0.000410652	0	5	0	
0.0746667	-0.00840439	-0.0262752	0.00013643	0.00057341	0	5	0	
0.0748333	0.00703134	0.0243652	0.000151774	0.000680059	0	5	0	
0.075	-0.000307943	0.016404	0.000156842	0.000646304	0	5	0	
0.0751667	-7.41268E-05	-0.0273728	0.000104566	0.000657438	0	5	0	
0.0753333	-0.00175134	0.00474512	3.83956E-05	0.000529145	0	5	0	
0.0755	0.00451099	0.0291635	6.15213E-05	0.000463406	0	5	0	
0.0756667	-0.0020303	-0.0197167	0.000107901	0.000468784	0	5	0	
0.0758333	-0.000981224	-0.0132871	0.000132027	0.000525158	0	5	0	
0.076	0.00780134	0.0336438	0.000170621	0.000668932	0	5	0	
0.0761667	-0.0104872	-0.0239315	0.000216737	0.00067635	0	5	0	
0.0763333	0.00276839	-0.00361519	0.000241397	0.000607853	0	5	0	
0.0765	0.00817883	0.0124338	0.000184069	0.000470896	0	5	0	
0.0766667	-0.013164	0.00102691	0.000159554	0.00036751	0	5	0	
0.0768333	0.00229964	-0.0144188	0.000164554	0.000320998	0	5	0	
0.077	0.00601753	0.00310415	0.000210399	0.000231908	0	5	0	
0.0771667	-0.00727865	0.000838928	0.000206194	0.000172778	0	5	0	
0.0773333	0.00516538	-0.00110925	0.000187496	0.000140052	0	5	0	
0.0775	-0.00126739	0.00881418	0.00013327	0.00014098	0	5	0	
0.0776667	-0.00611081	-0.0264549	8.6234E-05	0.000212918	0	5	0	
0.0778333	0.00777653	0.0199597	0.000111304	0.000352571	0	5	0	
0.078	-0.012498	-0.00997724	0.000164618	0.000521511	0	5	0	
0.0781667	0.00598276	-0.00873623	0.000233769	0.000637267	0	5	0	
0.0783333	-0.000797336	0.0152872	0.000203819	0.000624142	0	5	0	
0.0785	0.00580517	-0.00766386	0.000154598	0.000502959	0	5	0	
0.0786667	-0.00579561	0.0106271	0.000123361	0.000295017	0	5	0	
0.0788333	-0.00309408	-0.0276044	0.000132028	0.00025226	0	5	0	
0.079	0.00414858	0.0106694	0.00013939	0.0003131	0	5	0	
0.0791667	-0.00594691	0.0025272	0.000107375	0.000343967	0	5	0	
0.0793333	0.00237097	-0.0467473	0.000115747	0.000342326	0	5	0	
0.0795	0.00707323	0.0391757	0.000113893	0.000581532	0	5	0	
0.0796667	-0.00600602	0.0294583	0.000137886	0.000717467	0	5	0	
0.0798333	0.00720664	-0.0634726	0.000157189	0.000979554	0	5	0	
0.08	-0.0130415	0.0401612	0.000185011	0.00102425	0	5	0	
0.0801667	0.0118119	-0.00531335	0.000223471	0.000965424	0	5	0	
0.0803333	-0.00928423	-0.034282	0.000228976	0.000804722	0	5	0	
0.0805	0.00927465	0.0252208	0.000233596	0.000860285	0	5	0	
0.0806667	0.00250421	0.0389098	0.000169317	0.00104817	0	5	0	
0.0808333	-0.0181581	-0.0672445	0.000157309	0.00131475	0	5	0	
0.081	0.0152337	0.0198726	0.000207267	0.00141977	0	5	0	
0.0811667	0.00757352	0.0458848	0.000269994	0.00160722	0	5	0	
0.0813333	-0.0210541	-0.0840596	0.000340015	0.00172064	0	5	0	
0.0815	0.0205244	0.076945	0.000378858	0.00164448	0	5	0	
0.0816667	-0.0146007	-0.0497573	0.000395196	0.00158687	0	5	0	
0.0818333	0.00135484	0.0110008	0.000330076	0.00111408	0	5	0	
0.082	0.00450821	-0.015412	0.000239292	0.000798338	0	5	0	
0.0821667	-0.00405786	0.0334827	0.000159399	0.000541295	0	5	0	
0.0823333	0.00848647	-0.0429172	0.000128223	0.000751613	0	5	0	
0.0825	-0.00674609	0.024878	0.000157468	0.00102457	0	5	0	
0.0826667	-0.0141364	-0.0135101	0.000304788	0.00140202	0	5	0	
0.0828333	0.0207854	0.000929335	0.000353418	0.00147985	0	5	0	
0.083	0.00442095	0.0473395	0.000665536	0.00138268	0	5	0	
0.0831667	-0.0297616	-0.0611739	0.00116072	0.00188953	0	5	0	
0.0833333	0.0350483	0.0326805	0.00151364	0.00250528	0	5	0	
0.0835	-0.0179677	0.00380937	0.00125321	0.0026821	0	5	0	
0.0836667	-0.00766323	-0.0233298	0.000695506	0.00186143	0	5	0	
0.0838333	0.0401308	0.0642432	0.000396113	0.00114788	0	5	0	
0.084	-0.0618123	-0.0946245	0.000577169	0.00115641	0	5	0	
0.0841667	0.0474359	0.151714	0.000904932	0.00163276	0	5	0	
0.0843333	-0.0111454	-0.126252	0.001	0.00226043	0	5	0	
0.0845	0.00401759	0.0683018	0.000731831	0.00231853	0	5	0	
0.0846667	-0.00690326	-0.0200457	0.000357409	0.00191199	0	5	0	
0.0848333	0.00699505	0.0225507	0.000218677	0.00145135	0	5	0	
0.085	-0.0180969	-0.0382986	0.000329142	0.00154787	0	5	0	
0.0851667	0.0200715	-0.0118671	0.000375968	0.0017116	0	5	0	
0.0853333	0.00204616	0.0547082	0.000444244	0.00157295	0	5	0	
0.0855	-0.0141901	-0.0388151	0.000443199	0.00120287	0	5	0	
0.0856667	0.00985646	0.0333371	0.000392412	0.000915881	0	5	0	
0.0858333	-0.00210213	-0.0583241	0.000288392	0.000837722	0	5	0	
0.086	-0.00203566	0.0244434	0.000156074	0.000839252	0	5	0	
0.0861667	-0.00568941	0.00618216	0.000230497	0.000926418	0	5	0	
0.0863333	0.0296125	-0.019578	0.000298852	0.00105333	0	5	0	
0.0865	-0.0226746	-0.039934	0.00043092	0.00148495	0	5	0	
0.0866667	-0.00628123	0.0301113	0.000472587	0.00145762	0	5	0	
0.0868333	0.0194882	-0.0102641	0.000476552	0.0013664	0	5	0	
0.087	-0.00919195	0.00794341	0.000402445	0.000850394	0	5	0	
0.0871667	0.00244765	0.0138494	0.000253922	0.000899505	0	5	0	
0.0873333	-0.00290556	-0.103764	0.000132797	0.00114726	0	5	0	
0.0875	0.0101589	0.11018	8.05256E-05	0.00171754	0	5	0	
0.0876667	-0.0109835	-0.0288935	0.000118805	0.00179429	0	5	0	
0.0878333	0.0038384	-0.048341	0.000168303	0.00141144	0	5	0	
0.088	0.00183007	0.0527964	0.000177677	0.000932894	0	5	0	
0.0881667	-0.00502162	-0.0249145	0.000172408	0.000867034	0	5	0	
0.0883333	0.00293509	0.00592788	0.000143539	0.000834935	0	5	0	
0.0885	0.000536944	0.000286805	0.000116345	0.000578707	0	5	0	
0.0886667	-0.000571247	0.00988389	6.54892E-05	0.000386334	0	5	0	
0.0888333	0.00144371	-0.0143569	6.19654E-05	0.000284963	0	5	0	
0.089	-0.00175999	0.0212056	9.35662E-05	0.000353124	0	5	0	
0.0891667	-0.00434151	-0.026315	0.000123882	0.000419068	0	5	0	
0.0893333	0.00450644	0.0235449	0.000130384	0.000565918	0	5	0	
0.0895	-0.000483685	-0.00657935	0.000110377	0.00051282	0	5	0	
0.0896667	-0.00280002	-0.00679536	9.29296E-05	0.000329207	0	5	0	
0.0898333	0.00372107	-0.00204264	8.36908E-05	0.000197049	0	5	0	
0.09	-0.00317606	0.0104825	8.36713E-05	0.000151813	0	5	0	
0.0901667	-7.2319E-05	-0.0185982	7.96828E-05	0.000255698	0	5	0	
0.0903333	0.00677573	0.0176707	8.20761E-05	0.000340586	0	5	0	
0.0905	-0.00992319	-0.0117615	0.0001098	0.000429795	0	5	0	
0.0906667	0.00315201	0.00495366	0.000131695	0.000475913	0	5	0	
0.0908333	0.00200619	-0.0179604	0.000141288	0.000419934	0	5	0	
0.091	-0.00415277	0.0131094	9.98434E-05	0.000347451	0	5	0	
0.0911667	0.00503703	-0.00836609	9.19829E-05	0.000238649	0	5	0	
0.0913333	-0.000434833	0.0079242	9.32958E-05	0.000225717	0	5	0	
0.0915	-0.0143948	0.00874659	0.000213785	0.000256638	0	5	0	
0.0916667	0.0273035	-0.0391145	0.000333403	0.000336177	0	5	0	
0.0918333	-0.0164105	0.00654838	0.000460095	0.000426851	0	5	0	
0.092	-0.0166447	0.013931	0.000638539	0.000383272	0	5	0	
0.0921667	0.0268209	0.00893376	0.000743736	0.000455409	0	5	0	
0.0923333	-0.0164267	-0.0506913	0.000710033	0.000679302	0	5	0	
0.0925	0.000664115	0.063733	0.000477689	0.000902319	0	5	0	
0.0926667	-0.0123411	-0.0702539	0.000370604	0.00128682	0	5	0	
0.0928333	-0.00253313	0.0255837	0.00035601	0.00135331	0	5	0	
0.093	0.0285356	0.0284089	0.000416974	0.00117463	0	5	0	
0.0931667	-0.0289441	-0.0531091	0.000540346	0.000861746	0	5	0	
0.0933333	0.0111709	0.0488729	0.000622239	0.00078066	0	5	0	
0.0935	0.00368665	0.00444741	0.000532974	0.00103144	0	5	0	
0.0936667	-0.0180665	-0.0711615	0.000347985	0.00121364	0	5	0	
0.0938333	-0.00522455	0.052414	0.000252319	0.00141417	0	5	0	
0.094	0.0222867	0.0106606	0.000353662	0.00132428	0	5	0	
0.0941667	-0.0151791	-0.0251288	0.000399272	0.00100878	0	5	0	
0.0943333	0.0081333	0.0252494	0.000364644	0.000606174	0	5	0	
0.0945	0.00143176	0.00384887	0.000248056	0.000429733	0	5	0	
0.0946667	-0.00727947	-0.0218348	0.000147484	0.000387354	0	5	0	
0.0948333	0.00575485	0.0113584	0.000117674	0.000318582	0	5	0	
0.095	-0.00770341	0.00656876	0.000128815	0.000267117	0	5	0	
0.0951667	0.00743211	-0.0241799	0.000189932	0.000299752	0	5	0	
0.0953333	-0.00439225	0.0289634	0.000215694	0.000433288	0	5	0	
0.0955	0.000249886	-0.00674235	0.000198372	0.000544046	0	5	0	
0.0956667	-0.00237877	-0.00266046	0.000180563	0.000494384	0	5	0	
0.0958333	0.000463771	0.0018597	0.000169057	0.000313349	0	5	0	
0.096	0.00644051	-0.00106424	0.000153815	0.000282956	0	5	0	
0.0961667	-0.00997924	-0.0107109	0.000148222	0.000326656	0	5	0	
0.0963333	-0.00119644	0.035867	0.000227611	0.000446057	0	5	0	
0.0965	0.0169492	-0.0282697	0.000310644	0.000527502	0	5	0	
0.0966667	-0.013701	-0.00378684	0.000370115	0.000566553	0	5	0	
0.0968333	-0.0112703	0.0113693	0.000463923	0.000528605	0	5	0	
0.097	0.0248208	0.0252772	0.000486165	0.000449788	0	5	0	
0.0971667	-0.0134023	-0.0387293	0.000479987	0.000521617	0	5	0	
0.0973333	0.00460378	0.0266122	0.000343677	0.000631883	0	5	0	
0.0975	-0.00241089	-0.00851994	0.00025378	0.000698907	0	5	0	
0.0976667	-0.00565253	0.00346375	0.00015731	0.000613363	0	5	0	
0.0978333	0.0156186	-0.00718323	0.00014101	0.000395065	0	5	0	
0.098	-0.0134621	0.0105444	0.000191424	0.000406111	0	5	0	
0.0981667	0.00392827	0.001359	0.000278107	0.000414157	0	5	0	
0.0983333	-0.00443057	-0.024194	0.000274332	0.000499037	0	5	0	
0.0985	0.0200415	0.0462233	0.00029383	0.000670062	0	5	0	
0.0986667	-0.00734499	-0.0142188	0.000258526	0.00075561	0	5	0	
0.0988333	-0.0118096	-0.0116256	0.000311095	0.000778852	0	5	0	
0.099	0.0196544	0.0254861	0.00032097	0.000561849	0	5	0	
0.0991667	-0.0123784	-0.02823	0.000337708	0.000504898	0	5	0	
0.0993333	-0.00244714	0.00194602	0.000336835	0.000448268	0	5	0	
0.0995	0.0137381	0.0271147	0.000363154	0.00049986	0	5	0	
0.0996667	0.00281133	0.00247095	0.000354333	0.000557196	0	5	0	
0.0998333	-0.00714307	-0.0197757	0.000300367	0.000625663	0	5	0	
0.1	0.00701782	0.0134524	0.000243377	0.000550592	0	5	0	
0.100167	0.00251591	0.00907273	0.000183925	0.000353671	0	5	0	
0.100333	-0.00867788	-0.00784181	0.000161862	0.000301093	0	5	0	
0.1005	0.00594107	-0.0113894	0.000139575	0.000271955	0	5	0	
0.100667	0.00228863	0.0213381	0.000141128	0.000371884	0	5	0	
0.100833	-0.00289027	-0.0143794	0.000131023	0.000411167	0	5	0	
0.101	0.00283865	0.00574439	0.000126908	0.000364628	0	5	0	
0.101167	-0.00177063	-0.000863211	0.000125902	0.000212667	0	5	0	
0.101333	0.00489586	0.0164154	0.000109375	0.000152565	0	5	0	
0.1015	-0.00588334	-0.0204746	0.00011646	0.000218666	0	5	0	
0.101667	-0.00242377	0.00849242	0.00020989	0.000319973	0	5	0	
0.101833	0.0221775	0.0195589	0.000281576	0.000366187	0	5	0	
0.102	-0.0243065	-0.0517363	0.000360444	0.000577757	0	5	0	
0.102167	0.00141804	0.0254483	0.000390979	0.000780622	0	5	0	
0.102333	0.00427466	-0.00279502	0.000528967	0.000964654	0	5	0	
0.1025	0.0244757	0.0248378	0.000677707	0.000777798	0	5	0	
0.102667	-0.0451948	-0.106867	0.000725721	0.000930886	0	5	0	
0.102833	0.0488271	0.129174	0.000809417	0.00164267	0	5	0	
0.103	-0.0141601	-0.0898546	0.000746651	0.00246255	0	5	0	
0.103167	-0.059938	-0.0103933	0.000849988	0.00253785	0	5	0	
0.103333	0.0957929	-0.00118987	0.00112368	0.00164818	0	5	0	
0.1035	-0.0437975	0.0398189	0.00130272	0.000828885	0	5	0	
0.103667	-0.0206955	-0.0269256	0.00137397	0.000640195	0	5	0	
0.103833	0.0382959	-0.0504935	0.00120104	0.00109241	0	5	0	
0.104	-0.0191823	0.0682865	0.00104054	0.00169435	0	5	0	
0.104167	0.0103396	-0.053274	0.000754411	0.00190041	0	5	0	
0.104333	-0.0268011	-0.0072895	0.000617435	0.00155196	0	5	0	
0.1045	0.0298667	0.0260252	0.000681	0.000992436	0	5	0	
0.104667	-0.00715873	0.00818191	0.00074949	0.000675364	0	5	0	
0.104833	-0.00414046	-0.0223857	0.000556183	0.000726732	0	5	0	
0.105	-0.00153189	-0.0151898	0.0002844	0.000676603	0	5	0	
0.105167	-0.000650308	0.0190036	0.000228027	0.000551084	0	5	0	
0.105333	0.00680369	0.0082751	0.000209386	0.000357173	0	5	0	
0.1055	-0.000293762	-0.0420582	0.000273237	0.000482171	0	5	0	
0.105667	-0.00980537	0.0305706	0.000351767	0.000709928	0	5	0	
0.105833	0.00697224	-0.0293138	0.000377704	0.000899872	0	5	0	
0.106	0.00239096	0.0209963	0.00035597	0.000808331	0	5	0	
0.106167	-0.00808394	-0.00588139	0.000342771	0.000570468	0	5	0	
0.106333	0.0175714	0.014673	0.00035356	0.000337064	0	5	0	
0.1065	-0.0164708	-0.0370718	0.000389851	0.000345556	0	5	0	
0.106667	-0.000525884	0.0293663	0.000383005	0.000479835	0	5	0	
0.106833	0.0105987	-0.0121962	0.000393302	0.000570113	0	5	0	
0.107	-0.0161667	-0.00972155	0.000345122	0.000443246	0	5	0	
0.107167	0.00977702	0.0170518	0.000299285	0.000357419	0	5	0	
0.107333	0.00333144	0.00443882	0.00026936	0.00033417	0	5	0	
0.1075	-0.00670312	-0.00448739	0.000244274	0.000307581	0	5	0	
0.107667	0.00697087	-0.00354571	0.000172243	0.000207288	0	5	0	
0.107833	-0.00718169	-0.00876027	0.000148092	0.00016063	0	5	0	
0.108	0.00178653	0.0237404	0.000186867	0.00027515	0	5	0	
0.108167	6.22723E-05	-0.00568324	0.000170397	0.000328983	0	5	0	
0.108333	0.00107988	-0.0141774	0.000182372	0.000301134	0	5	0	
0.1085	0.00484373	0.0154929	0.0001578	0.000273376	0	5	0	
0.108667	-0.00171121	0.00584212	0.000168499	0.000229642	0	5	0	
0.108833	-0.00207299	-0.0165007	0.000110691	0.000340331	0	5	0	
0.109	0.00458674	0.00280466	7.43526E-05	0.000346367	0	5	0	
0.109167	0.00151397	0.00834418	5.84093E-05	0.000320675	0	5	0	
0.109333	-0.00766733	-0.00752008	8.32778E-05	0.000248541	0	5	0	
0.1095	0.00776854	0.000570966	0.000120719	0.000242872	0	5	0	
0.109667	-0.00613456	0.00740113	0.000148973	0.000334203	0	5	0	
0.109833	0.00420325	-0.00175897	0.000140942	0.000317702	0	5	0	
0.11	0.00074159	0.0084356	0.000117931	0.000237078	0	5	0	
0.110167	-0.0048117	-0.0179139	0.000108064	0.000181111	0	5	0	
0.110333	0.0090152	0.0224388	0.00015828	0.000267705	0	5	0	
0.1105	-0.0181419	-0.0176852	0.000211602	0.000351325	0	5	0	
0.110667	0.0021402	0.00791195	0.000294938	0.000355126	0	5	0	
0.110833	0.0526207	0.0365023	0.000531775	0.000331409	0	5	0	
0.111	-0.0868558	-0.0861225	0.000912722	0.000692083	0	5	0	
0.111167	0.0425285	0.0573164	0.00121079	0.00120469	0	5	0	
0.111333	0.00805696	0.00305495	0.00104906	0.00129767	0	5	0	
0.1115	-0.0189583	-0.0377658	0.000671141	0.000976884	0	5	0	
0.111667	0.0201699	0.0282797	0.000369508	0.000595211	0	5	0	
0.111833	-0.0186145	0.0024021	0.000345552	0.000763104	0	5	0	
0.112	0.0109097	0.017425	0.000635243	0.00107756	0	5	0	
0.112167	-0.00680826	-0.0851805	0.00108358	0.00157714	0	5	0	
0.112333	9.80183E-05	0.070689	0.0012417	0.00189695	0	5	0	
0.1125	0.00252927	-0.0173882	0.000932672	0.00176914	0	5	0	
0.112667	0.0042592	-0.00581069	0.000546015	0.00124263	0	5	0	
0.112833	-0.00623526	-0.00294634	0.000370124	0.000607666	0	5	0	
0.113	0.0148759	0.0297835	0.000334422	0.000476249	0	5	0	
0.113167	-0.0169905	-0.0305476	0.000285051	0.000552125	0	5	0	
0.113333	0.0121783	0.01806	0.000280928	0.000778089	0	5	0	
0.1135	-0.000273638	-0.00292424	0.000287101	0.000783374	0	5	0	
0.113667	-0.0121924	0.0130237	0.000221571	0.00057182	0	5	0	
0.113833	0.0176125	-0.0229528	0.000202473	0.000591529	0	5	0	
0.114	0.00652828	-0.00962681	0.000224748	0.00105967	0	5	0	
0.114167	-0.0191644	0.0472196	0.000349498	0.00171867	0	5	0	
0.114333	0.0226343	-0.0188662	0.000384851	0.00173196	0	5	0	
0.1145	-0.0190993	-0.0387894	0.000451618	0.00120802	0	5	0	
0.114667	0.00162628	0.0515882	0.000378278	0.000741803	0	5	0	
0.114833	0.00949808	-0.0395321	0.000385343	0.000785278	0	5	0	
0.115	-0.0119502	0.0316678	0.000332135	0.000949054	0	5	0	
0.115167	0.00964841	-0.0417795	0.000312045	0.00102967	0	5	0	
0.115333	0.00538906	0.0349566	0.000333073	0.00102914	0	5	0	
0.1155	-0.0238384	-0.00917487	0.000371271	0.00093983	0	5	0	
0.115667	0.0124919	0.00236062	0.000400752	0.000792232	0	5	0	
0.115833	-0.00899456	-0.0312906	0.000322561	0.000663555	0	5	0	
0.116	0.00421978	0.0277292	0.000284451	0.00059881	0	5	0	
0.116167	-0.00255453	-0.00207891	0.00020894	0.000640606	0	5	0	
0.116333	6.00855E-05	-0.00775298	0.000151185	0.00065202	0	5	0	
0.1165	-0.0019552	0.00197753	7.85401E-05	0.000613655	0	5	0	
0.116667	-0.000611781	0.0050112	6.07659E-05	0.000475126	0	5	0	
0.116833	-0.00866308	-0.0239593	6.5466E-05	0.000381449	0	5	0	
0.117	0.00455404	0.0259434	0.000108472	0.00044999	0	5	0	
0.117167	0.00491086	-0.0171328	9.43436E-05	0.000523165	0	5	0	
0.117333	-0.00737374	0.0048285	0.000143349	0.000465113	0	5	0	
0.1175	0.00101199	0.000932165	0.000108601	0.000336963	0	5	0	
0.117667	-0.0013839	0.00536124	0.000109816	0.00024588	0	5	0	
0.117833	-0.00102222	-0.0183863	7.9289E-05	0.000225961	0	5	0	
0.118	0.00152647	0.00983597	8.22609E-05	0.000254618	0	5	0	
0.118167	-0.00227787	0.0083961	9.94374E-05	0.000232561	0	5	0	
0.118333	0.00608487	-0.0244721	9.86652E-05	0.000275136	0	5	0	
0.1185	-0.00863182	0.0120228	0.000143192	0.000370527	0	5	0	
0.118667	0.010008	0.0317645	0.000152258	0.000452169	0	5	0	
0.118833	-0.0100127	-0.0418784	0.00020503	0.000622293	0	5	0	
0.119	0.000572293	0.0130821	0.000217534	0.000675763	0	5	0	
0.119167	0.0145785	0.00268111	0.00021243	0.000603662	0	5	0	
0.119333	-0.0207541	-0.0113012	0.000241614	0.000382729	0	5	0	
0.1195	0.0168611	0.0216333	0.000272103	0.000301073	0	5	0	
0.119667	-0.00194548	0.00420939	0.000329232	0.00039941	0	5	0	
0.119833	-0.0211702	-0.0325308	0.000355593	0.000483383	0	5	0	
0.12	0.0303479	0.0384291	0.000402218	0.000566912	0	5	0	
0.120167	-0.000315291	-0.0206635	0.000437139	0.000605421	0	5	0	
0.120333	-0.0255652	0.0391857	0.000457613	0.000680043	0	5	0	
0.1205	-0.000497978	-0.0418848	0.000360084	0.000762476	0	5	0	
0.120667	0.0110901	0.0457466	0.000471141	0.000893098	0	5	0	
0.120833	-0.0246072	-0.034953	0.00050363	0.000956741	0	5	0	
0.121	0.0159945	0.0125551	0.000581088	0.000796185	0	5	0	
0.121167	0.00645791	-0.00886873	0.000393691	0.000616426	0	5	0	
0.121333	-0.0132024	0.0743023	0.000311597	0.000554182	0	5	0	
0.1215	0.00470738	-0.0718276	0.000271773	0.000893664	0	5	0	
0.121667	-0.00455349	0.0450805	0.000269956	0.00121253	0	5	0	
0.121833	0.0016708	0.00552083	0.000311596	0.00118831	0	5	0	
0.122	-0.00541975	-0.0295689	0.0003962	0.000919951	0	5	0	
0.122167	-0.00182309	0.013928	0.00043099	0.000656769	0	5	0	
0.122333	0.0105493	0.0530478	0.000336627	0.000611091	0	5	0	
0.1225	0.00142054	-0.072516	0.000268889	0.000852343	0	5	0	
0.122667	0.00140628	0.0594288	0.000247719	0.00116853	0	5	0	
0.122833	0.00370436	0.00379775	0.000355826	0.00120258	0	5	0	
0.123	0.00128982	-0.0217078	0.000357692	0.000869556	0	5	0	
0.123167	-0.00273452	0.00394801	0.000351822	0.000482376	0	5	0	
0.123333	-0.000263148	0.0230268	0.000270997	0.000383026	0	5	0	
0.1235	0.00298155	0.00175492	0.000179194	0.00033474	0	5	0	
0.123667	-0.0116378	-0.0362911	0.000170247	0.000366114	0	5	0	
0.123833	0.0314694	0.0515693	0.0001879	0.000570436	0	5	0	
0.124	-0.0441882	-0.0566897	0.000474976	0.000772061	0	5	0	
0.124167	0.025538	0.0645673	0.000855579	0.00114986	0	5	0	
0.124333	0.00844522	-0.026649	0.000980983	0.00121127	0	5	0	
0.1245	-0.020415	-0.00921878	0.000767579	0.00107253	0	5	0	
0.124667	0.0137736	0.0274812	0.000491971	0.000796388	0	5	0	
0.124833	0.0083334	-0.00734076	0.000387336	0.000648603	0	5	0	
0.125	-0.0455822	-0.0363204	0.000518326	0.000726086	0	5	0	
0.125167	0.053191	0.0521942	0.000739062	0.00092234	0	5	0	
0.125333	-0.0197247	-0.0030084	0.000847151	0.00111404	0	5	0	
0.1255	-0.0117021	-0.0394596	0.00067872	0.00113593	0	5	0	
0.125667	0.0159643	0.0384444	0.000398606	0.0010078	0	5	0	
0.125833	-9.48895E-05	-0.0071547	0.000212343	0.000752059	0	5	0	
0.126	-0.0100258	-0.0110658	0.000199376	0.000526381	0	5	0	
0.126167	-0.00107883	0.027458	0.000282319	0.00034367	0	5	0	
0.126333	0.0278384	-0.0258214	0.000529053	0.000446899	0	5	0	
0.1265	-0.0360131	-0.00157516	0.000664128	0.000551909	0	5	0	
0.126667	0.0310478	0.0346779	0.00075187	0.000584204	0	5	0	
0.126833	-0.00263404	-0.0273731	0.000656668	0.000557345	0	5	0	
0.127	-0.0184355	0.0106236	0.000565432	0.000517249	0	5	0	
0.127167	0.0261127	-0.0101941	0.000415315	0.000388031	0	5	0	
0.127333	-0.0251236	0.0276557	0.000430859	0.000344548	0	5	0	
0.1275	0.00711599	-0.0249187	0.000556037	0.000502827	0	5	0	
0.127667	0.0241073	0.0205206	0.000595243	0.00065773	0	5	0	
0.127833	-0.0170256	-0.0163336	0.000519774	0.000606485	0	5	0	
0.128	0.00342752	0.0182961	0.000361798	0.000427421	0	5	0	
0.128167	-0.00102253	-0.0117409	0.000225323	0.000337302	0	5	0	
0.128333	0.00294131	0.00140323	0.000142643	0.000247403	0	5	0	
0.1285	-0.0104643	-0.00117564	0.000141242	0.000175399	0	5	0	
0.128667	0.0134015	0.0107544	0.000196058	0.000144875	0	5	0	
0.128833	-0.00503615	-0.0121995	0.000208163	0.000213097	0	5	0	
0.129	-0.00353758	0.00424755	0.00020524	0.000238326	0	5	0	
0.129167	0.00625489	-0.00380615	0.00016055	0.000201779	0	5	0	
0.129333	-0.00851717	0.0113565	0.000136934	0.000123725	0	5	0	
0.1295	0.00533648	-0.0182496	0.000126974	0.000186788	0	5	0	
0.129667	-0.00212642	0.0156801	0.000126906	0.000282181	0	5	0	
0.129833	-0.00361796	-0.00985286	0.000174968	0.00034628	0	5	0	
0.13	0.0199523	0.0129183	0.000277336	0.000293989	0	5	0	
0.130167	-0.0185007	-0.0131663	0.00035109	0.00031203	0	5	0	
0.130333	-0.0312806	-0.085979	0.000793432	0.000835196	0	5	0	
0.1305	0.0330215	0.038975	0.00154596	0.00220392	0	5	0	
0.130667	-0.00212406	0.0644808	0.00204391	0.00323445	0	5	0	
0.130833	-0.0121369	-0.0687286	0.00164205	0.0033133	0	5	0	
0.131	0.00782312	0.0153858	0.00096036	0.0022964	0	5	0	
0.131167	-0.0089724	6.93853E-05	0.000527292	0.00138302	0	5	0	
0.131333	0.0369652	0.0284997	0.000472597	0.000779092	0	5	0	
0.1315	-0.105122	-0.18411	0.000830102	0.00114549	0	5	0	
0.131667	0.0881137	0.204529	0.00138149	0.00249643	0	5	0	
0.131833	-0.0135709	-0.0621625	0.00163853	0.0033849	0	5	0	
0.132	-0.0184156	-0.026721	0.00119796	0.00292293	0	5	0	
0.132167	0.0075617	0.0277257	0.000615604	0.00156348	0	5	0	
0.132333	0.00566644	0.00418435	0.000309386	0.000730886	0	5	0	
0.1325	-0.00182686	-0.0144243	0.000286251	0.000603746	0	5	0	
0.132667	-0.00824676	0.00682933	0.000279341	0.000565794	0	5	0	
0.132833	0.00615733	-0.00805578	0.000327359	0.000604466	0	5	0	
0.133	0.0054166	0.0211243	0.000251928	0.00055075	0	5	0	
0.133167	-0.0133151	-0.0185021	0.000201131	0.000466249	0	5	0	
0.133333	0.00985813	0.00837972	0.000176476	0.000365066	0	5	0	
0.1335	0.00373209	0.00642433	0.000228372	0.000257324	0	5	0	
0.133667	-0.00786169	0.00301279	0.000215447	0.000155467	0	5	0	
0.133833	0.00231057	-0.0118213	0.000171859	0.000154613	0	5	0	
0.134	-0.00106979	0.0113398	0.000136908	0.000226206	0	5	0	
0.134167	0.00163201	-0.0104877	0.000111253	0.000271254	0	5	0	
0.134333	0.000959089	0.00823196	0.000136211	0.000241481	0	5	0	
0.1345	-0.00406972	0.00514479	0.000129665	0.000231762	0	5	0	
0.134667	0.000131826	-0.0113455	9.52743E-05	0.000186166	0	5	0	
0.134833	0.012852	0.00650899	0.000136294	0.000202238	0	5	0	
0.135	-0.0134342	0.00314055	0.000183438	0.000151546	0	5	0	
0.135167	-0.0247909	-0.0450216	0.000334386	0.000276929	0	5	0	
0.135333	0.0563136	0.144769	0.000594764	0.000898872	0	5	0	
0.1355	-0.0249463	-0.102765	0.000859554	0.00194151	0	5	0	
0.135667	-0.0119123	-0.00784198	0.000949563	0.00231615	0	5	0	
0.135833	-0.00926388	0.0481236	0.000939912	0.00192119	0	5	0	
0.136	0.0272568	-0.015711	0.00075003	0.00109534	0	5	0	
0.136167	-0.00792108	-0.0112719	0.000630551	0.000638304	0	5	0	
0.136333	-0.0149657	0.00248742	0.000377329	0.000572129	0	5	0	
0.1365	0.0290782	0.0791305	0.000531512	0.00103631	0	5	0	
0.136667	-0.0426977	-0.0710054	0.000733468	0.00175316	0	5	0	
0.136833	0.0491893	0.00990806	0.000967893	0.00187609	0	5	0	
0.137	-0.02982	0.053938	0.000884224	0.00159166	0	5	0	
0.137167	-0.0158503	-0.0666967	0.000772292	0.00137877	0	5	0	
0.137333	0.0336449	0.00949388	0.000621076	0.0013096	0	5	0	
0.1375	-0.00854365	0.0172411	0.000601559	0.00101687	0	5	0	
0.137667	-0.0293971	0.00335156	0.000742984	0.0007034	0	5	0	
0.137833	0.0495421	-0.0281775	0.000865526	0.000751803	0	5	0	
0.138	-0.0341161	0.0514845	0.000907592	0.000945254	0	5	0	
0.138167	-0.00259945	-0.0473027	0.000795053	0.00104741	0	5	0	
0.138333	0.0288434	0.00844188	0.000783889	0.000967724	0	5	0	
0.1385	-0.0459784	0.00848681	0.000766973	0.000674377	0	5	0	
0.138667	0.0444564	-0.0120454	0.000797695	0.000457931	0	5	0	
0.138833	-0.0172209	0.0154896	0.000838237	0.000289627	0	5	0	
0.139	-0.0136237	-0.00704212	0.000962321	0.00034769	0	5	0	
0.139167	0.0245897	-0.0171651	0.000904825	0.000327844	0	5	0	
0.139333	-0.0167002	0.0289103	0.000699519	0.000410302	0	5	0	
0.1395	0.00706513	-0.0120857	0.000465463	0.000455722	0	5	0	
0.139667	-0.00708157	-0.00313819	0.000334285	0.000343362	0	5	0	
0.139833	0.00268869	0.0106254	0.000292859	0.000223034	0	5	0	
0.14	0.00662661	0.00498216	0.000181228	0.000109612	0	5	0	
0.140167	0.00219853	-0.0163702	0.000137138	0.000168096	0	5	0	
0.140333	-0.00579586	0.00622648	0.00010085	0.000195217	0	5	0	
0.1405	0.00185568	0.0110144	0.000119396	0.000225813	0	5	0	
0.140667	-0.000307026	-0.00872276	8.33418E-05	0.000212435	0	5	0	
0.140833	0.00371836	-0.00539914	0.000113516	0.000159321	0	5	0	
0.141	-0.00210267	0.0142375	0.00012897	0.000171324	0	5	0	
0.141167	0.0013233	-0.0135605	0.000146691	0.000205406	0	5	0	
0.141333	-0.00247256	0.0112944	0.000129266	0.000271118	0	5	0	
0.1415	0.00566975	0.00617652	9.52888E-05	0.000260904	0	5	0	
0.141667	0.00237293	-0.0378498	0.000162503	0.00035364	0	5	0	
0.141833	-0.00273753	0.024027	0.00019118	0.000670525	0	5	0	
0.142	-0.00275444	-0.00281695	0.000207204	0.00089278	0	5	0	
0.142167	0.00571756	-0.00873491	0.000174955	0.000768744	0	5	0	
0.142333	-0.00128968	0.0278621	0.00013429	0.00046616	0	5	0	
0.1425	0.000925777	-0.0269133	0.000108946	0.000365888	0	5	0	
0.142667	-0.0081302	-0.0234845	6.67135E-05	0.000531796	0	5	0	
0.142833	0.0110641	0.0493237	0.000115821	0.000799177	0	5	0	
0.143	0.00304608	-0.0214693	0.000144157	0.000882975	0	5	0	
0.143167	-0.012167	-0.0103793	0.000173912	0.000720987	0	5	0	
0.143333	0.00457895	0.0140403	0.000184369	0.00044282	0	5	0	
0.1435	0.0141796	-0.00404364	0.00028108	0.00024975	0	5	0	
0.143667	-0.0212943	-0.00630492	0.000347298	0.000219691	0	5	0	
0.143833	0.00784535	0.0127211	0.000356545	0.000228804	0	5	0	
0.144	0.00869725	-0.00271007	0.000316983	0.000201596	0	5	0	
0.144167	-0.0115281	-0.0116326	0.000267269	0.000240182	0	5	0	
0.144333	0.000964977	0.0145321	0.000236828	0.000224752	0	5	0	
0.1445	0.00460282	-0.000596566	0.000156667	0.000239597	0	5	0	
0.144667	0.0096225	-0.00331277	0.000195807	0.000266816	0	5	0	
0.144833	-0.0148969	-0.00941304	0.000253778	0.000254034	0	5	0	
0.145	0.0163849	0.0261998	0.000321518	0.000322964	0	5	0	
0.145167	-0.0134884	-0.0201253	0.000324649	0.00041696	0	5	0	
0.145333	0.00810332	0.00798188	0.00026912	0.000454665	0	5	0	
0.1455	0.00982065	-0.00960617	0.000241131	0.00041137	0	5	0	
0.145667	-0.0221597	0.0199511	0.000240545	0.000274746	0	5	0	
0.145833	0.0250258	-0.00725408	0.000313207	0.000311392	0	5	0	
0.146	-0.00399368	0.00854218	0.000412512	0.000341918	0	5	0	
0.146167	-0.0100594	-0.0129332	0.000465446	0.000366404	0	5	0	
0.146333	0.0132485	0.0100214	0.000428122	0.000314431	0	5	0	
0.1465	-0.00438456	-0.00438421	0.000328344	0.000255228	0	5	0	
0.146667	-0.00282467	0.00380494	0.000208216	0.000181031	0	5	0	
0.146833	0.00513746	0.000952452	0.000121898	9.76445E-05	0	5	0	
0.147	0.000578302	0.00886873	8.76205E-05	8.63744E-05	0	5	0	
0.147167	-0.00526903	-0.0195638	7.12798E-05	0.000181044	0	5	0	
0.147333	0.00335354	0.0172412	9.08769E-05	0.00032514	0	5	0	
0.1475	0.00571383	-0.00198404	9.96444E-05	0.000409325	0	5	0	
0.147667	-0.00730923	-0.00755629	0.000131722	0.000389468	0	5	0	
0.147833	0.00517775	0.00819485	0.000143995	0.000314277	0	5	0	
0.148	-0.00168469	0.00512965	0.000191866	0.000284763	0	5	0	
0.148167	0.000917469	-0.0185915	0.000205617	0.000304263	0	5	0	
0.148333	-0.00221355	0.0194766	0.000181549	0.000351587	0	5	0	
0.1485	0.0073619	0.00515048	0.00013374	0.000300983	0	5	0	
0.148667	-0.00809297	-0.0239505	0.00011536	0.000312912	0	5	0	
0.148833	-0.00239839	0.0121769	0.000122512	0.000380301	0	5	0	
0.149	0.0117899	0.020398	0.000173303	0.000478297	0	5	0	
0.149167	-0.00273578	-0.0253955	0.000212198	0.000548099	0	5	0	
0.149333	-0.00416916	0.00986747	0.000192128	0.000498415	0	5	0	
0.1495	-8.99049E-05	-0.00329364	0.000210652	0.000460002	0	5	0	
0.149667	0.00317348	0.00627395	0.000183791	0.000298826	0	5	0	
0.149833	-0.00385292	-0.0151707	0.000183983	0.000315391	0	5	0	
0.15	0.0101932	0.0236355	0.000140793	0.000463799	0	5	0	
0.150167	-0.00749129	-0.0157511	0.000135903	0.000611581	0	5	0	
0.150333	-0.00388196	0.00752187	0.000141507	0.000585844	0	5	0	
0.1505	0.0103862	-0.00886701	0.000137558	0.000393639	0	5	0	
0.150667	-0.00492444	0.00314677	0.000135775	0.000261059	0	5	0	
0.150833	0.000447086	0.000422609	0.000136669	0.000169421	0	5	0	
0.151	0.00133593	0.00752237	9.24857E-05	0.000136593	0	5	0	
0.151167	-0.00354989	-0.00686765	5.43366E-05	0.000166682	0	5	0	
0.151333	0.00055671	-0.00794167	4.96253E-05	0.000147514	0	5	0	
0.1515	0.00895701	0.0177501	7.69832E-05	0.000222659	0	5	0	
0.151667	-0.0136725	-0.00820949	0.000124525	0.00026941	0	5	0	
0.151833	0.00539131	-0.00303549	0.000174682	0.000287652	0	5	0	
0.152	0.00707206	0.0114538	0.000226462	0.000237141	0	5	0	
0.152167	-0.0127685	-0.0148208	0.000239868	0.000244432	0	5	0	
0.152333	0.0129038	0.0133261	0.000244718	0.000337489	0	5	0	
0.1525	-0.00686692	-0.00655863	0.000223141	0.000366372	0	5	0	
0.152667	0.00153837	0.00936357	0.000176538	0.000300659	0	5	0	
0.152833	0.00203655	-0.00552538	0.000124308	0.000210254	0	5	0	
0.153	-0.00828464	0.00529138	9.61776E-05	0.000149216	0	5	0	
0.153167	0.00957646	-0.00777321	0.000114605	0.000132956	0	5	0	
0.153333	0.000422278	0.00561566	0.000129418	0.000162139	0	5	0	
0.1535	-0.00479433	-0.0040774	0.000138542	0.00019798	0	5	0	
0.153667	0.00087932	-9.82653E-05	0.000104711	0.000182066	0	5	0	
0.153833	0.00469385	0.00114926	9.46858E-05	0.000166777	0	5	0	
0.154	0.00115757	0.0116263	7.09763E-05	0.000125338	0	5	0	
0.154167	-0.00549446	-0.0180438	9.1153E-05	0.000199903	0	5	0	
0.154333	0.000986623	0.0123617	0.000110644	0.000241992	0	5	0	
0.1545	0.00252843	-0.00924472	0.000113725	0.000289876	0	5	0	
0.154667	-0.00419318	-0.00551598	9.10712E-05	0.000215907	0	5	0	
0.154833	0.00622145	0.00161414	8.49123E-05	0.00015186	0	5	0	
0.155	-0.000616605	0.019217	8.59225E-05	0.000134735	0	5	0	
0.155167	-0.005597	-0.0187548	8.64522E-05	0.000230101	0	5	0	
0.155333	0.00802501	0.00217733	8.97755E-05	0.000270231	0	5	0	
0.1555	-0.00525681	0.000706266	0.00010487	0.000237145	0	5	0	
0.155667	0.000862332	0.00430004	0.000138463	0.000121086	0	5	0	
0.155833	0.00428714	-0.00820991	0.000161503	9.56589E-05	0	5	0	
0.156	-0.00553131	0.00543768	0.000158456	0.000133849	0	5	0	
0.156167	0.00240806	8.71757E-05	0.000134767	0.000153282	0	5	0	
0.156333	0.000851298	-0.00746262	7.43916E-05	0.000125006	0	5	0	
0.1565	0.00342406	0.0144609	4.56931E-05	0.000129891	0	5	0	
0.156667	-0.00709777	-0.0113841	5.96258E-05	0.000209574	0	5	0	
0.156833	0.00323041	-0.0117807	0.000100473	0.000257961	0	5	0	
0.157	-6.18027E-05	0.00215064	0.000161997	0.000242082	0	5	0	
0.157167	0.000815754	0.0140437	0.000234518	0.000171265	0	5	0	
0.157333	0.00779271	-0.00944945	0.000300604	0.000175645	0	5	0	
0.1575	-0.0131223	0.00744685	0.000386504	0.000368916	0	5	0	
0.157667	-0.00338442	-0.0269494	0.000480545	0.000710413	0	5	0	
0.157833	0.0198638	0.0352549	0.000529029	0.00100003	0	5	0	
0.158	-0.00926691	-0.0211969	0.000448699	0.000997067	0	5	0	
0.158167	-0.0143883	0.00263864	0.000396597	0.000805951	0	5	0	
0.158333	0.0273628	-0.0173944	0.000394336	0.000659308	0	5	0	
0.1585	-0.0283218	0.0555263	0.000495505	0.000609721	0	5	0	
0.158667	0.0170426	-0.0746927	0.000482944	0.000835182	0	5	0	
0.158833	0.00622361	0.0567777	0.000430593	0.00111107	0	5	0	
0.159	-0.0160121	0.00486283	0.000397996	0.00121654	0	5	0	
0.159167	0.00248638	-0.0304193	0.000313186	0.00101276	0	5	0	
0.159333	0.00398053	0.0104636	0.000272871	0.00071264	0	5	0	
0.1595	0.0066767	0.0053347	0.000157406	0.000463951	0	5	0	
0.159667	-0.0123207	-0.0128324	0.000165991	0.000371324	0	5	0	
0.159833	-0.000781519	0.000443096	0.000147283	0.000253457	0	5	0	
0.16	0.0141329	0.0216313	0.000172344	0.000294689	0	5	0	
0.160167	-0.00696596	-0.00477145	0.000177298	0.000309069	0	5	0	
0.160333	-0.00262319	-0.0269548	0.000174909	0.0003461	0	5	0	
0.1605	-0.000253383	0.0239612	0.000189839	0.000459925	0	5	0	
0.160667	-0.00050087	0.000722593	0.0001423	0.000409307	0	5	0	
0.160833	0.0133152	-0.0088866	0.000212992	0.000406717	0	5	0	
0.161	-0.00816535	0.00955238	0.000216838	0.000359289	0	5	0	
0.161167	-0.00346207	-0.00560323	0.000288196	0.000363229	0	5	0	
0.161333	0.00849415	-0.0107114	0.000278152	0.000312224	0	5	0	
0.1615	-0.000742417	0.0143994	0.000230602	0.000266066	0	5	0	
0.161667	-0.00350666	-0.00280954	0.000192748	0.000292627	0	5	0	
0.161833	0.00041076	-0.0170438	0.000135919	0.00033279	0	5	0	
0.162	0.00923935	0.0348341	0.000155746	0.000432621	0	5	0	
0.162167	-0.00652841	-0.0233434	0.000174314	0.000553939	0	5	0	
0.162333	0.00232501	0.00973006	0.000182863	0.000621468	0	5	0	
0.1625	0.00323988	-0.0123679	0.000154006	0.000494521	0	5	0	
0.162667	-0.0104979	0.0112653	0.000163282	0.000361992	0	5	0	
0.162833	0.0074345	-0.00552498	0.000182743	0.000307068	0	5	0	
0.163	-0.000214863	0.0225271	0.000178203	0.000344123	0	5	0	
0.163167	0.00309163	-0.0223377	0.000100252	0.000398811	0	5	0	
0.163333	-0.00615506	0.000660456	6.51516E-05	0.000350508	0	5	0	
0.1635	-0.00487816	0.0114618	0.000145981	0.000263589	0	5	0	
0.163667	0.0111511	0.00602751	0.000179541	0.000222694	0	5	0	
0.163833	-0.00351828	-0.0281558	0.000229842	0.000326232	0	5	0	
0.164	-0.000813503	0.0109913	0.00018673	0.000496009	0	5	0	
0.164167	-0.00525011	-0.00410981	0.000171309	0.000492991	0	5	0	
0.164333	0.00524433	0.0274595	0.000113348	0.000402524	0	5	0	
0.1645	8.38835E-05	-0.0426089	9.64898E-05	0.000460995	0	5	0	
0.164667	0.00478388	0.0106145	8.80176E-05	0.000631548	0	5	0	
0.164833	-0.00832104	0.0119384	9.20797E-05	0.000709135	0	5	0	
0.165	-0.000368095	-0.0248124	0.000107034	0.000616809	0	5	0	
0.165167	0.0055353	0.00276992	0.000127864	0.000496484	0	5	0	
0.165333	-0.00289616	0.0438707	0.000115506	0.000465441	0	5	0	
0.1655	0.00201182	-0.0540889	0.000142908	0.000622141	0	5	0	
0.165667	0.00462595	0.029773	0.000230491	0.00075859	0	5	0	
0.165833	-0.0141309	-0.0189664	0.000322798	0.000779125	0	5	0	
0.166	0.0108005	0.00986563	0.000319449	0.000587199	0	5	0	
0.166167	0.00033432	-0.0100578	0.000276586	0.000372825	0	5	0	
0.166333	-0.0102287	0.0162516	0.000222136	0.00031938	0	5	0	
0.1665	0.0121933	-0.0154595	0.000214522	0.000303246	0	5	0	
0.166667	-0.0064287	0.0190109	0.00019568	0.000314445	0	5	0	
0.166833	-0.0100965	-0.0132459	0.000223465	0.000353184	0	5	0	
0.167	0.0216094	-0.00586249	0.000284691	0.00032706	0	5	0	
0.167167	-0.0145578	0.0147926	0.000322288	0.000345169	0	5	0	
0.167333	0.000261453	-0.0180936	0.000328683	0.000358495	0	5	0	
0.1675	0.0023496	-0.00475971	0.000261612	0.00042593	0	5	0	
0.167667	0.000368389	0.0271689	0.000171172	0.000487825	0	5	0	
0.167833	-0.00441675	-0.0194492	0.000128163	0.000533971	0	5	0	
0.168	0.00912897	0.00277808	0.000157819	0.000475027	0	5	0	
0.168167	-0.0140101	-0.0118723	0.000211929	0.000320813	0	5	0	
0.168333	0.00923691	0.0273451	0.000237013	0.000266081	0	5	0	
0.1685	-0.00415054	-0.0448661	0.000218755	0.000452304	0	5	0	
0.168667	-0.00199382	0.0266881	0.000188667	0.000696595	0	5	0	
0.168833	0.00490093	0.00836332	0.000191605	0.0006942	0	5	0	
0.169	-0.00129866	-0.0113689	0.000193517	0.00053583	0	5	0	
0.169167	-0.00891026	-0.0173166	0.000179483	0.00032698	0	5	0	
0.169333	0.00789582	0.0310631	0.000154571	0.000379458	0	5	0	
0.1695	-0.00800871	-0.0220496	0.0001387	0.000444064	0	5	0	
0.169667	0.00248458	0.00781795	0.000177007	0.000498311	0	5	0	
0.169833	0.001934	0.00128126	0.000158062	0.000367824	0	5	0	
0.17	0.000163932	0.00787079	0.000116821	0.000192206	0	5	0	
0.170167	-0.00563701	-0.0222282	8.37477E-05	0.000212225	0	5	0	
0.170333	0.00373752	0.0149389	7.62569E-05	0.000296478	0	5	0	
0.1705	-0.0016205	-0.00793179	8.43392E-05	0.000387294	0	5	0	
0.170667	-0.00471605	0.00544907	7.09164E-05	0.00032402	0	5	0	
0.170833	0.00728954	0.00390359	8.6225E-05	0.000215702	0	5	0	
0.171	-0.00282417	0.00486654	0.000100431	0.000155906	0	5	0	
0.171167	-5.23862E-05	-0.0133707	0.00010568	0.000201714	0	5	0	
0.171333	0.00476471	0.0152553	9.14701E-05	0.000302774	0	5	0	
0.1715	-0.00659623	-0.0291001	0.000105971	0.000417606	0	5	0	
0.171667	0.00268242	0.0294282	0.000136152	0.000552066	0	5	0	
0.171833	0.00039413	-0.0122561	0.00012282	0.000561172	0	5	0	
0.172	-0.000655124	0.0169569	9.81928E-05	0.000490197	0	5	0	
0.172167	-0.00138232	-0.0286463	8.49514E-05	0.000403364	0	5	0	
0.172333	0.00506135	0.0340881	9.23008E-05	0.000481755	0	5	0	
0.1725	-0.00216486	-0.00304348	0.000113259	0.000531683	0	5	0	
0.172667	-0.0043855	-0.0237793	0.000114249	0.000503329	0	5	0	
0.172833	0.00663616	0.021925	0.000128295	0.000515981	0	5	0	
0.173	-0.00881436	-0.01146	0.000140534	0.000537637	0	5	0	
0.173167	0.00521369	-0.00559354	0.000170122	0.000444377	0	5	0	
0.173333	8.38476E-05	0.0243546	0.00018161	0.00032263	0	5	0	
0.1735	-0.000413204	-0.0238908	0.000143001	0.000374845	0	5	0	
0.173667	-0.00294329	0.00687304	0.000101587	0.000472374	0	5	0	
0.173833	0.00241284	0.00889777	7.34111E-05	0.000407439	0	5	0	
0.174	-0.00194887	-0.00979472	7.86568E-05	0.000283042	0	5	0	
0.174167	-0.00293336	-0.00877883	9.98903E-05	0.000251828	0	5	0	
0.174333	0.0102101	0.0158026	0.000142623	0.000337621	0	5	0	
0.1745	-0.00641509	-0.0139447	0.000183437	0.000391063	0	5	0	
0.174667	-0.002069	0.00763893	0.000164723	0.000422899	0	5	0	
0.174833	0.000295285	0.00651252	0.000114713	0.000333047	0	5	0	
0.175	0.00434228	-0.0123905	7.96393E-05	0.000285625	0	5	0	
0.175167	-0.00855704	-0.0106445	9.02165E-05	0.000214605	0	5	0	
0.175333	0.00255112	0.0156657	0.000131395	0.000296327	0	5	0	
0.1755	0.00713167	0.00200018	0.000142385	0.000282358	0	5	0	
0.175667	-0.00936978	-0.00783653	0.000156373	0.000329122	0	5	0	
0.175833	0.00724894	-0.00648	0.000156891	0.000335928	0	5	0	
0.176	-0.00798112	0.0302253	0.000171936	0.000365175	0	5	0	
0.176167	0.00465744	-0.0343997	0.00018468	0.000490071	0	5	0	
0.176333	-0.0082782	0.00410875	0.000167251	0.000514654	0	5	0	
0.1765	-0.00333228	-0.0048338	0.000161311	0.000419686	0	5	0	
0.176667	-0.000679448	0.0154356	0.00010409	0.000239728	0	5	0	
0.176833	0.0036087	-0.0146533	0.000119725	0.000193674	0	5	0	
0.177	0.00423006	0.0178863	0.000102033	0.00030506	0	5	0	
0.177167	-0.00635446	-0.0101754	0.000132227	0.000394585	0	5	0	
0.177333	-0.00318896	0.00776066	0.000103552	0.000404063	0	5	0	
0.1775	0.00344923	-0.0206394	9.83457E-05	0.000339817	0	5	0	
0.177667	-0.000732733	0.0163541	8.23314E-05	0.000320987	0	5	0	
0.177833	-0.00467011	-0.00264176	6.7896E-05	0.000298631	0	5	0	
0.178	0.00477361	0.000979645	8.45328E-05	0.000300878	0	5	0	
0.178167	0.00298164	-0.00634214	8.42324E-05	0.000232488	0	5	0	
0.178333	-0.00727301	0.0120003	0.000141091	0.000184205	0	5	0	
0.1785	0.0138158	-0.010469	0.000173044	0.000201105	0	5	0	
0.178667	-0.00542206	0.0122706	0.000199153	0.000213815	0	5	0	
0.178833	-0.000814062	-0.0237486	0.00014997	0.000283457	0	5	0	
0.179	-0.000138417	0.0240623	8.3146E-05	0.000362337	0	5	0	
0.179167	0.00191835	-0.00610921	7.42791E-05	0.000385492	0	5	0	
0.179333	0.00504144	-0.00153605	8.87919E-05	0.000336154	0	5	0	
0.1795	-0.00177793	-0.0157852	9.6545E-05	0.000318602	0	5	0	
0.179667	-0.00325424	0.0227615	0.000114333	0.000322485	0	5	0	
0.179833	0.00616926	-0.00561349	0.000155469	0.000492789	0	5	0	
0.18	-0.00897181	-0.0259041	0.000213796	0.000654488	0	5	0	
0.180167	0.0103912	0.0395068	0.000241441	0.000790391	0	5	0	
0.180333	-3.95808E-05	0.00910731	0.000225248	0.00071777	0	5	0	
0.1805	-0.00700739	-0.0266846	0.0002123	0.00057279	0	5	0	
0.180667	0.031269	0.0207651	0.000268662	0.000548133	0	5	0	
0.180833	-0.0278787	-0.0241246	0.000517805	0.000697911	0	5	0	
0.181	0.018644	0.0220044	0.000531794	0.000822963	0	5	0	
0.181167	-0.0059754	-0.0332854	0.000588765	0.000940001	0	5	0	
0.181333	-0.00521425	0.0367368	0.00038047	0.000925784	0	5	0	
0.1815	-0.00526892	-0.0161755	0.000461826	0.00091512	0	5	0	
0.181667	0.0255701	0.0301308	0.000529077	0.000716986	0	5	0	
0.181833	-0.0084594	-0.0529948	0.000675841	0.000710383	0	5	0	
0.182	0.00256771	0.0460249	0.000608345	0.000735584	0	5	0	
0.182167	-0.00892266	-0.0353566	0.000405493	0.000919368	0	5	0	
0.182333	-0.00221043	0.0137241	0.000218507	0.000799841	0	5	0	
0.1825	0.0156929	0.00029594	0.000184078	0.000617661	0	5	0	
0.182667	-0.0160663	0.00870415	0.0002246	0.000371927	0	5	0	
0.182833	0.00245733	-0.00770694	0.000230333	0.000259302	0	5	0	
0.183	0.00823129	0.00213244	0.000240399	0.000187162	0	5	0	
0.183167	-0.00656226	-0.000371895	0.000187356	0.000155684	0	5	0	
0.183333	0.00150222	0.0111727	0.000163645	0.000222222	0	5	0	
0.1835	0.00708015	-0.0271876	0.000141737	0.000329748	0	5	0	
0.183667	-0.00367881	0.018107	0.000126441	0.000421145	0	5	0	
0.183833	-0.0042871	0.00437429	0.000163986	0.000421973	0	5	0	
0.184	0.00534133	-0.0114194	0.000177076	0.0003595	0	5	0	
0.184167	-0.00154173	0.000588851	0.000170253	0.000259333	0	5	0	
0.184333	-0.00355141	0.00796715	0.000154193	0.000151559	0	5	0	
0.1845	0.00382487	-0.0182518	0.000137897	0.000159392	0	5	0	
0.184667	0.00018342	0.00387382	0.000118598	0.000245852	0	5	0	
0.184833	0.00255342	-0.00352719	6.99243E-05	0.000320045	0	5	0	
0.185	-0.00397392	0.0142196	5.47064E-05	0.000262052	0	5	0	
0.185167	-2.84291E-05	-0.00695174	5.46801E-05	0.000222947	0	5	0	
0.185333	0.00557635	0.0109152	7.85202E-05	0.0001822	0	5	0	
0.1855	-0.00998389	-0.0275712	9.67914E-05	0.000282248	0	5	0	
0.185667	0.00801226	0.0233845	0.000149637	0.000341015	0	5	0	
0.185833	-0.00248074	-0.013195	0.000164986	0.000431722	0	5	0	
0.186	0.000986202	0.0108079	0.000150496	0.00038472	0	5	0	
0.186167	0.00437666	0.00153036	0.000102866	0.000351123	0	5	0	
0.186333	-0.00673691	0.000541945	9.01872E-05	0.000258348	0	5	0	
0.1865	0.000655061	-0.0129235	8.36322E-05	0.0002219	0	5	0	
0.186667	0.00403664	0.0249045	0.000105367	0.000253366	0	5	0	
0.186833	-0.00396465	-0.0260236	0.000120084	0.00040795	0	5	0	
0.187	0.00225539	0.00923596	0.000138305	0.000479369	0	5	0	
0.187167	0.000699646	0.000496804	0.000112008	0.000377902	0	5	0	
0.187333	-0.00142764	0.00476494	9.8559E-05	0.000209189	0	5	0	
0.1875	0.00251988	-0.0206078	0.00011602	0.000198109	0	5	0	
0.187667	-0.00505093	0.0221066	0.000136988	0.000326697	0	5	0	
0.187833	0.00483806	-0.00341995	0.000126143	0.000396778	0	5	0	
0.188	-0.00302015	-0.00925466	0.000116753	0.000338052	0	5	0	
0.188167	-0.00306167	-0.00505251	0.000114087	0.000222449	0	5	0	
0.188333	0.00430223	0.00980261	0.000103931	0.000188045	0	5	0	
0.1885	-0.00595149	-0.016382	0.000111637	0.000216497	0	5	0	
0.188667	0.00590844	0.0192327	0.000150237	0.000274248	0	5	0	
0.188833	-0.000543682	-0.012286	0.000158283	0.000316847	0	5	0	
0.189	-0.00615136	-0.000773179	0.000127234	0.000294224	0	5	0	
0.189167	0.00254067	0.00431048	9.30752E-05	0.000214611	0	5	0	
0.189333	0.000775281	-0.00039304	7.53975E-05	0.000122341	0	5	0	
0.1895	-0.00599522	-0.00895462	8.17656E-05	8.95297E-05	0	5	0	
0.189667	0.00280892	0.0186651	0.000116416	0.000149391	0	5	0	
0.189833	0.00469471	-0.0182703	0.000143531	0.000257357	0	5	0	
0.19	-0.00361374	0.00327082	0.000137853	0.000314203	0	5	0	
0.190167	-0.000877365	-0.00355763	0.000109958	0.000294041	0	5	0	
0.190333	-0.000158449	0.0121921	7.49607E-05	0.000233261	0	5	0	
0.1905	-0.00166891	-0.0129121	5.72586E-05	0.000227361	0	5	0	
0.190667	0.0165214	0.0116839	9.12391E-05	0.000246402	0	5	0	
0.190833	-0.0102182	-0.00248704	0.000251698	0.000249599	0	5	0	
0.191	0.00557201	-0.000674183	0.000308257	0.000200541	0	5	0	
0.191167	-0.000233575	-0.00145057	0.000255664	0.000135804	0	5	0	
0.191333	-0.00113366	0.000704878	9.35985E-05	7.78771E-05	0	5	0	
0.1915	0.000220625	-0.00669195	5.1642E-05	6.86394E-05	0	5	0	
0.191667	-0.00259545	0.0102571	5.1636E-05	0.000108192	0	5	0	
0.191833	0.0169727	-0.000190122	0.0001204	0.000128591	0	5	0	
0.192	-0.0120111	0.00178674	0.000220917	0.000146846	0	5	0	
0.192167	0.00277719	-0.0159378	0.000251503	0.000176311	0	5	0	
0.192333	-0.00278304	0.022447	0.000199746	0.000285099	0	5	0	
0.1925	0.0074787	-0.0252315	0.000104175	0.000415073	0	5	0	
0.192667	-0.006054	0.0165015	0.000101077	0.000480904	0	5	0	
0.192833	0.00254618	-0.00285271	0.000141358	0.000382642	0	5	0	
0.193	-4.73339E-05	-0.00700896	0.000154936	0.000277109	0	5	0	
0.193167	-0.00429475	0.000592177	0.00011922	0.000193951	0	5	0	
0.193333	0.00865401	0.0117923	0.000122404	0.000203689	0	5	0	
0.1935	-0.00246356	-0.00664363	0.000122826	0.000291701	0	5	0	
0.193667	-0.00473008	-0.00512797	0.000127199	0.00034965	0	5	0	
0.193833	0.00868021	0.00402258	0.000113357	0.000334887	0	5	0	
0.194	-0.00707799	0.00137071	0.000128518	0.000201921	0	5	0	
0.194167	0.00202806	-0.00443548	0.000147276	0.000153188	0	5	0	
0.194333	-0.00173249	0.000342131	0.000111522	0.000174998	0	5	0	
0.1945	0.00543924	0.0120645	6.64744E-05	0.000213421	0	5	0	
0.194667	-0.00542623	-0.000233607	7.70237E-05	0.000204374	0	5	0	
0.194833	-0.000503439	-0.0229856	8.29342E-05	0.000245919	0	5	0	
0.195	0.00202053	0.0177398	8.51557E-05	0.000347294	0	5	0	
0.195167	-0.0066858	-0.000198519	8.02143E-05	0.000350756	0	5	0	
0.195333	0.00761375	0.00836529	0.00011757	0.000308395	0	5	0	
0.1955	-0.005396	-0.0155006	0.000173829	0.000269461	0	5	0	
0.195667	-0.00932185	0.0108856	0.000267557	0.000342671	0	5	0	
0.195833	0.0159195	-0.00185121	0.000251472	0.000347124	0	5	0	
0.196	-0.00781171	0.00899777	0.000328537	0.000257544	0	5	0	
0.196167	-0.00760055	-0.0171346	0.000295528	0.000182509	0	5	0	
0.196333	0.0069391	0.0308909	0.000312032	0.000289814	0	5	0	
0.1965	-0.0098557	-0.0180508	0.00021662	0.000478071	0	5	0	
0.196667	0.00608872	0.00537005	0.000161984	0.000545529	0	5	0	
0.196833	0.0093857	-0.00381118	0.000168215	0.000395696	0	5	0	
0.197	-0.0150278	0.0203115	0.000234891	0.000295961	0	5	0	
0.197167	-0.00253329	-0.0278357	0.000237951	0.000356142	0	5	0	
0.197333	0.0108939	0.0255033	0.000278495	0.00054621	0	5	0	
0.1975	-0.00633489	-0.00344694	0.000267239	0.000606463	0	5	0	
0.197667	-0.00570197	-0.00770723	0.000250993	0.000498752	0	5	0	
0.197833	0.0115757	0.00279693	0.000224807	0.000379162	0	5	0	
0.198	-0.00369425	0.010997	0.000170655	0.000317907	0	5	0	
0.198167	-0.00420749	-0.0231489	0.000169065	0.000358242	0	5	0	
0.198333	0.00571858	0.0185682	0.0001586	0.000453733	0	5	0	
0.1985	0.00103742	0.00479073	0.000158456	0.000475553	0	5	0	
0.198667	-0.00907327	-0.0116327	0.000176977	0.000438934	0	5	0	
0.198833	0.00646322	-0.00176775	0.000176489	0.000307417	0	5	0	
0.199	0.000210368	0.0206698	0.000143283	0.000254824	0	5	0	
0.199167	-0.0059786	-0.0188796	0.0001345	0.000305012	0	5	0	
0.199333	0.00461248	0.000154914	0.000129539	0.000321083	0	5	0	
0.1995	4.10576E-05	0.00836104	0.000131193	0.000284593	0	5	0	
0.199667	0.000902175	-0.00201914	0.000102857	0.000192821	0	5	0	
0.199833	-0.00439439	-0.00253167	7.61668E-05	0.000132475	0	5	0	
0.2	-0.00121779	0.00641262	9.83096E-05	0.000113125	0	5	0	
0.200167	0.00559125	-0.00476289	0.000137712	0.000112512	0	5	0	
0.200333	-0.00781843	-0.000389945	0.000144149	0.000109504	0	5	0	
0.2005	0.00176991	-0.003709	0.000130793	0.000118855	0	5	0	
0.200667	0.0009045	0.0128591	8.79454E-05	0.000149037	0	5	0	
0.200833	0.000766453	-0.00732723	5.50404E-05	0.000217067	0	5	0	
0.201	0.00112438	0.00774092	3.58986E-05	0.000225235	0	5	0	
0.201167	-0.00604997	-0.0121885	6.82355E-05	0.000210599	0	5	0	
0.201333	0.00193604	0.00998399	9.2244E-05	0.00021335	0	5	0	
0.2015	0.00204093	-0.00657385	0.00010793	0.00022685	0	5	0	
0.201667	-0.00324973	0.00347828	9.18011E-05	0.000184518	0	5	0	
0.201833	0.000904659	-0.00166197	8.61564E-05	0.000114059	0	5	0	
0.202	0.00272615	0.00904439	7.99633E-05	8.44031E-05	0	5	0	
0.202167	-0.00409674	-0.00720837	8.22628E-05	0.000119478	0	5	0	
0.202333	0.00321549	0.00174813	7.17943E-05	0.000143859	0	5	0	
0.2025	-0.00198837	-0.00428197	6.16721E-05	0.000145663	0	5	0	
0.202667	0.00272581	0.0100057	5.83956E-05	0.000130544	0	5	0	
0.202833	-0.00449986	-0.00734774	7.78452E-05	0.000137346	0	5	0	
0.203	0.00379631	0.00887784	0.000109265	0.000169194	0	5	0	
0.203167	-0.000601461	-0.00735047	0.000120953	0.000215691	0	5	0	
0.203333	0.00218771	0.00491732	0.000107541	0.000209186	0	5	0	
0.2035	-0.00260808	-0.00291309	8.34585E-05	0.000164505	0	5	0	
0.203667	0.00206857	0.00247802	7.37151E-05	0.000134441	0	5	0	
0.203833	-0.00326537	-0.00575438	6.6812E-05	0.000192489	0	5	0	
0.204	0.00355187	0.00486801	7.14058E-05	0.000256402	0	5	0	
0.204167	-0.00168958	-0.0067963	5.6689E-05	0.00025112	0	5	0	
0.204333	0.0026765	0.0135379	6.96102E-05	0.00022055	0	5	0	
0.2045	-0.00518591	-0.0147144	7.88834E-05	0.000233726	0	5	0	
0.204667	0.00487119	0.00601406	0.000115966	0.000257457	0	5	0	
0.204833	-0.00368315	-0.00791327	0.000110945	0.000277586	0	5	0	
0.205	0.00181101	0.00552356	0.000101011	0.000249639	0	5	0	
0.205167	-0.00369021	0.00401517	9.99688E-05	0.000200522	0	5	0	
0.205333	0.0129847	0.00420281	0.0001529	0.000197568	0	5	0	
0.2055	-0.0135655	-0.0381483	0.000219177	0.000305079	0	5	0	
0.205667	0.000379459	0.0326641	0.00031319	0.000570348	0	5	0	
0.205833	0.00702626	0.0171305	0.00033186	0.000651095	0	5	0	
0.206	-0.0418614	-0.0787838	0.000434917	0.000824006	0	5	0	
0.206167	0.0886036	0.144193	0.000903396	0.00134448	0	5	0	
0.206333	-0.0791632	-0.0735254	0.00151327	0.00198353	0	5	0	
0.2065	0.0226934	0.0145941	0.00169582	0.00185035	0	5	0	
0.206667	0.016896	-0.0210389	0.00117436	0.00135087	0	5	0	
0.206833	-0.0113562	0.0258124	0.000577651	0.000995856	0	5	0	
0.207	0.000906224	-0.0156662	0.000282473	0.00105523	0	5	0	
0.207167	-0.0306396	0.0138452	0.000415684	0.00113332	0	5	0	
0.207333	0.0578643	0.0359202	0.000871156	0.0014989	0	5	0	
0.2075	-0.0382997	-0.025091	0.00141564	0.00188278	0	5	0	
0.207667	0.0128135	0.00107819	0.00155846	0.00170067	0	5	0	
0.207833	0.00147623	0.0130924	0.00105183	0.000920806	0	5	0	
0.208	-0.00736185	-0.0225744	0.000481799	0.000394582	0	5	0	
0.208167	0.0074902	0.0160836	0.000197277	0.000328053	0	5	0	
0.208333	-0.00430435	0.0031755	0.000250432	0.000402887	0	5	0	
0.2085	-0.00686556	-0.0292012	0.000286656	0.000424033	0	5	0	
0.208667	0.00982671	0.0295764	0.000298415	0.000494193	0	5	0	
0.208833	0.00355895	-0.00674834	0.000232999	0.000571899	0	5	0	
0.209	-0.0118207	-0.00148084	0.00020472	0.000586641	0	5	0	
0.209167	0.00625802	-0.00774161	0.00017514	0.000520374	0	5	0	
0.209333	0.00301828	0.0118732	0.00018354	0.000422823	0	5	0	
0.2095	-0.00457863	-0.0150103	0.000157994	0.000344503	0	5	0	
0.209667	-0.00365973	0.0126812	0.000112041	0.000323093	0	5	0	
0.209833	0.00961291	-0.00494395	0.000109268	0.000353493	0	5	0	
0.21	-0.00671435	-0.00448011	0.000141432	0.000335009	0	5	0	
0.210167	0.00606141	0.0033859	0.000176561	0.000261945	0	5	0	
0.210333	-0.00258643	0.00607178	0.000154399	0.000179694	0	5	0	
0.2105	-0.00603658	-0.0207956	0.000117684	0.000181771	0	5	0	
0.210667	0.00497867	0.0140659	0.000105394	0.000289781	0	5	0	
0.210833	0.00743673	0.00127832	0.000100109	0.000397674	0	5	0	
0.211	-0.00808533	-0.0110384	0.000124646	0.000433312	0	5	0	
0.211167	-2.32084E-05	0.00906347	0.000121768	0.000357527	0	5	0	
0.211333	0.00265705	0.0126035	0.000140276	0.00026358	0	5	0	
0.2115	-0.00147773	-0.0245535	0.000118528	0.000295517	0	5	0	
0.211667	-8.0567E-05	0.00724165	0.000100726	0.000386428	0	5	0	
0.211833	0.00556617	0.0124238	9.81327E-05	0.000473432	0	5	0	
0.212	-0.0062716	-0.0131957	0.000109295	0.00045358	0	5	0	
0.212167	0.0044977	0.000417559	0.000141632	0.000334645	0	5	0	
0.212333	-0.000610297	0.0149163	0.000140764	0.000254281	0	5	0	
0.2125	-0.000623472	-0.0153154	0.000108992	0.000273732	0	5	0	
0.212667	-0.00117301	0.00297654	0.000107489	0.00033168	0	5	0	
0.212833	0.00284307	0.013908	0.000144498	0.000350955	0	5	0	
0.213	0.00419189	-0.0200956	0.000185346	0.000334022	0	5	0	
0.213167	-0.0118407	0.00690549	0.000183403	0.000351951	0	5	0	
0.213333	0.0130102	0.00973791	0.000230632	0.000346028	0	5	0	
0.2135	-0.00228685	-0.0111693	0.000275093	0.000327855	0	5	0	
0.213667	-0.00911259	0.00674717	0.000265211	0.000319688	0	5	0	
0.213833	0.0150301	0.00928388	0.000232202	0.000333735	0	5	0	
0.214	-0.00570592	-0.0160288	0.000232218	0.000319853	0	5	0	
0.214167	-0.00820431	0.00157866	0.000275176	0.000293039	0	5	0	
0.214333	0.0156057	0.0165903	0.00027353	0.000307689	0	5	0	
0.2145	-0.0120576	-0.00447212	0.000254433	0.000310765	0	5	0	
0.214667	0.00281297	0.0046302	0.000218945	0.000295761	0	5	0	
0.214833	0.00946521	-0.00563514	0.000161972	0.000265588	0	5	0	
0.215	-0.0101467	0.00999638	0.000149927	0.000212303	0	5	0	
0.215167	0.00431814	-0.0112988	0.000142596	0.000238377	0	5	0	
0.215333	0.000586263	0.0114944	0.000160154	0.000282777	0	5	0	
0.2155	-0.00488743	-0.00573136	0.000129752	0.000306313	0	5	0	
0.215667	0.00466313	0.00349409	0.000135591	0.000249965	0	5	0	
0.215833	0.000946746	0.00429869	0.000120968	0.000221158	0	5	0	
0.216	-0.000856465	-0.00330386	0.000115273	0.000240349	0	5	0	
0.216167	0.00353	0.000209723	9.53176E-05	0.000262393	0	5	0	
0.216333	-0.00595468	0.00497533	9.96444E-05	0.000205116	0	5	0	
0.2165	0.00443227	-0.00589364	0.000107283	0.000172435	0	5	0	
0.216667	-0.00101638	4.888E-06	0.000113409	0.000121168	0	5	0	
0.216833	0.00111331	-0.00305406	0.000110542	0.000107595	0	5	0	
0.217	-0.00136104	0.0108858	9.2818E-05	0.000104063	0	5	0	
0.217167	0.00229553	-0.00970776	9.82745E-05	0.000143502	0	5	0	
0.217333	0.00216839	0.0154921	7.21201E-05	0.000200492	0	5	0	
0.2175	-0.00379561	-0.0166503	7.36958E-05	0.000259965	0	5	0	
0.217667	0.00106374	0.00237185	5.24934E-05	0.000241674	0	5	0	
0.217833	0.00163488	0.0102606	5.35919E-05	0.000221368	0	5	0	
0.218	0.00497468	-0.00315727	4.89422E-05	0.000149385	0	5	0	
0.218167	-0.00472493	-0.00410549	7.64406E-05	0.000230037	0	5	0	
0.218333	0.000249736	0.00826798	9.95009E-05	0.000296565	0	5	0	
0.2185	0.00337886	-0.0044516	0.000132782	0.00033427	0	5	0	
0.218667	-0.000302985	0.00422035	0.000147304	0.000213456	0	5	0	
0.218833	-0.00316516	-0.00966443	0.000152404	0.000215284	0	5	0	
0.219	0.0113661	0.00882634	0.000155748	0.00030345	0	5	0	
0.219167	-0.0126375	0.00200345	0.000189272	0.000343563	0	5	0	
0.219333	0.0051293	-0.0010535	0.00020306	0.000325329	0	5	0	
0.2195	0.00812449	-0.0108671	0.000202127	0.000296035	0	5	0	
0.219667	-0.00866262	0.00969885	0.00017132	0.000351498	0	5	0	
0.219833	0.00674734	-0.0144871	0.00016058	0.000308519	0	5	0	
0.22	-0.00426707	0.00970217	0.00014437	0.000255125	0	5	0	
0.220167	-0.00407333	-0.0111276	0.00010403	0.000197048	0	5	0	
0.220333	-0.0105006	0.00579254	0.000157415	0.000239498	0	5	0	
0.2205	0.0417121	0.0421861	0.000250363	0.000269003	0	5	0	
0.220667	-0.0190573	-0.0657738	0.000620975	0.000724305	0	5	0	
0.220833	-0.0744453	-0.022336	0.0011561	0.000965851	0	5	0	
0.221	0.207953	0.279428	0.00195007	0.0020887	0	5	0	
0.221167	-0.170635	-0.293791	0.00292573	0.00396302	0	5	0	
0.221333	0.0583797	0.111958	0.00312578	0.00509999	0	5	0	
0.2215	0.0252595	0.0732919	0.00246418	0.00443191	0	5	0	
0.221667	-0.0769356	-0.102389	0.00147632	0.00286787	0	5	0	
0.221833	0.0595281	-0.000382099	0.00106977	0.00201749	0	5	0	
0.222	0.0630558	0.199395	0.00145119	0.00216005	0	5	0	
0.222167	-0.0848043	-0.174435	0.00233362	0.0035825	0	5	0	
0.222333	0.0517312	0.0241669	0.00290034	0.00476288	0	5	0	
0.2225	0.00190031	0.0670583	0.00247474	0.0048854	0	5	0	
0.222667	-0.0277409	-0.0321008	0.00145807	0.00315492	0	5	0	
0.222833	0.0124433	-0.027985	0.000639767	0.00169416	0	5	0	
0.223	0.0163556	0.0512771	0.000532734	0.0012121	0	5	0	
0.223167	-0.0202637	-0.0173374	0.000454054	0.000948204	0	5	0	
0.223333	0.00976425	-0.021172	0.000365593	0.000675674	0	5	0	
0.2235	-0.000728014	0.0267296	0.000283778	0.000498949	0	5	0	
0.223667	0.00518722	0.00253634	0.000156568	0.000452935	0	5	0	
0.223833	-0.00482967	-0.0196739	0.0001383	0.000566926	0	5	0	
0.224	0.00623042	0.00227122	0.000142664	0.000565612	0	5	0	
0.224167	-0.0018243	0.0121767	0.00013068	0.00047541	0	5	0	
0.224333	-0.00310922	-0.00855606	9.4992E-05	0.000388686	0	5	0	
0.2245	0.00651614	0.000192393	8.84832E-05	0.000279098	0	5	0	
0.224667	-0.00342916	0.0110849	9.63519E-05	0.000206235	0	5	0	
0.224833	-0.000949004	-0.00751324	0.000115074	0.000270098	0	5	0	
0.225	0.00146548	-0.0108669	0.000104667	0.000347836	0	5	0	
0.225167	0.0014209	0.00714748	0.000100313	0.000394159	0	5	0	
0.225333	-0.00188135	0.00939181	9.72471E-05	0.000274349	0	5	0	
0.2255	0.00440685	-0.0202261	0.000117691	0.000269935	0	5	0	
0.225667	-0.00340981	0.0009729	0.000111102	0.000278705	0	5	0	
0.225833	-0.00897638	0.0522223	0.00011465	0.000402203	0	5	0	
0.226	0.0206863	-0.122293	0.000187782	0.000907188	0	5	0	
0.226167	-0.0162866	0.133456	0.000276082	0.00181752	0	5	0	
0.226333	0.00488667	-0.0533121	0.000289108	0.00232357	0	5	0	
0.2265	-0.00348797	-0.0160695	0.000230998	0.00190467	0	5	0	
0.226667	0.00748949	0.0341538	0.000178185	0.00114723	0	5	0	
0.226833	-0.00823422	-0.00685998	0.000174596	0.000635265	0	5	0	
0.227	0.00912584	-0.0413616	0.00020476	0.000702609	0	5	0	
0.227167	-0.0036481	0.061105	0.000214752	0.0011541	0	5	0	
0.227333	-0.0104312	-0.00678535	0.000182644	0.00164743	0	5	0	
0.2275	0.0169116	-0.0466447	0.000183892	0.00168341	0	5	0	
0.227667	-0.0158355	0.0426606	0.000307035	0.00147993	0	5	0	
0.227833	-0.00329131	-0.0570874	0.000535725	0.00132825	0	5	0	
0.228	0.0216161	-0.0163631	0.000586777	0.00141831	0	5	0	
0.228167	-0.017105	0.0543861	0.00052294	0.0012478	0	5	0	
0.228333	-0.00913774	-0.0664947	0.000474037	0.00120126	0	5	0	
0.2285	0.0404465	0.0203524	0.000636943	0.00111851	0	5	0	
0.228667	-0.0614537	-0.000966798	0.00083972	0.000961897	0	5	0	
0.228833	0.0387748	-0.0134261	0.000942468	0.000622198	0	5	0	
0.229	0.00552608	-0.0368756	0.000955706	0.000562363	0	5	0	
0.229167	-0.0331008	0.0431632	0.00090228	0.000746286	0	5	0	
0.229333	0.0362043	-0.08007	0.000763806	0.0011018	0	5	0	
0.2295	-0.0186914	0.0541666	0.000779759	0.00120587	0	5	0	
0.229667	-0.0102406	0.092141	0.00107775	0.00193709	0	5	0	
0.229833	0.0194242	-0.278466	0.00151659	0.00364236	0	5	0	
0.23	-0.0349356	0.191307	0.00146506	0.00545287	0	5	0	
0.230167	0.0203808	-0.0317776	0.00109714	0.00504542	0	5	0	
0.230333	0.0199284	-0.0516423	0.000658491	0.00356914	0	5	0	
0.2305	-0.0181797	0.0553101	0.000520289	0.00222979	0	5	0	
0.230667	0.0388845	-0.0851978	0.000480596	0.00201475	0	5	0	
0.230833	-0.0543763	0.116516	0.000608298	0.00212623	0	5	0	
0.231	0.0227274	-0.182886	0.000763084	0.00317377	0	5	0	
0.231167	-0.00450754	0.0609391	0.000649244	0.00417294	0	5	0	
0.231333	0.0117815	0.0439427	0.000432616	0.00379305	0	5	0	
0.2315	0.00582889	-0.070551	0.000220298	0.00237346	0	5	0	
0.231667	0.00856384	0.044465	0.000226327	0.00136038	0	5	0	
0.231833	-0.00396363	-0.0425497	0.00021659	0.00147143	0	5	0	
0.232	-0.0134472	0.0396546	0.000170615	0.00164965	0	5	0	
0.232167	0.0151716	-0.022619	0.000219426	0.00152691	0	5	0	
0.232333	-0.00450209	-0.00248248	0.000229845	0.00109331	0	5	0	
0.2325	-0.00696151	0.0078843	0.000234179	0.000644991	0	5	0	
0.232667	0.0125782	-0.00900161	0.000188871	0.000420411	0	5	0	
0.232833	-0.00724328	0.0189722	0.000168315	0.000431889	0	5	0	
0.233	-0.00829477	-0.0233181	0.000172591	0.000447368	0	5	0	
0.233167	0.0109514	0.00858937	0.000183143	0.000490609	0	5	0	
0.233333	-1.86607E-05	0.00218086	0.000153648	0.000463927	0	5	0	
0.2335	-0.00639302	-0.0159268	0.000171106	0.000354902	0	5	0	
0.233667	-0.00184184	0.0132686	0.000135105	0.000334767	0	5	0	
0.233833	-0.000676271	-0.00726635	0.000111663	0.00033465	0	5	0	
0.234	-0.00123351	0.00184922	0.000104506	0.000317958	0	5	0	
0.234167	0.00348294	-0.00226921	0.000142028	0.000281988	0	5	0	
0.234333	-0.000745493	0.00396203	0.000163735	0.000202496	0	5	0	
0.2345	-0.00155345	-0.00496877	0.000128182	0.000178129	0	5	0	
0.234667	0.00217505	0.00696142	7.2233E-05	0.000119875	0	5	0	
0.234833	-0.00116274	-0.0137843	8.66246E-05	0.000183178	0	5	0	
0.235	-0.0114163	0.00274388	0.000103137	0.000190186	0	5	0	
0.235167	0.00713898	-0.00385683	0.000168224	0.000216732	0	5	0	
0.235333	0.00982089	0.0157714	0.000201302	0.000202285	0	5	0	
0.2355	-0.0118861	-0.0201961	0.000246125	0.000266201	0	5	0	
0.235667	0.0064592	0.0154194	0.000216549	0.000359162	0	5	0	
0.235833	-0.00120449	-0.0142833	0.000159645	0.00039353	0	5	0	
0.236	-0.0052876	0.00667467	0.00011959	0.000305718	0	5	0	
0.236167	0.00568223	-0.0074209	0.000100227	0.000202646	0	5	0	
0.236333	0.00137413	0.0105809	0.000123571	0.000166458	0	5	0	
0.2365	-0.00730569	-0.00351867	0.000162353	0.00020281	0	5	0	
0.236667	0.00736081	-0.00823763	0.000187146	0.000278657	0	5	0	
0.236833	-0.00269626	0.001514	0.000174386	0.000356444	0	5	0	
0.237	-0.000490998	0.00883976	0.000163857	0.000369832	0	5	0	
0.237167	-0.0028202	-0.00837865	0.000161828	0.000290998	0	5	0	
0.237333	0.00343893	0.000151133	0.000157113	0.000194559	0	5	0	
0.2375	-0.00245648	0.00742325	0.000148248	0.000206562	0	5	0	
0.237667	-0.000370613	-0.0063536	0.000156143	0.000346844	0	5	0	
0.237833	-0.000748013	0.00791366	0.000161271	0.000396046	0	5	0	
0.238	0.00520737	-0.00907298	0.000108554	0.00033736	0	5	0	
0.238167	-0.00989247	-0.00603713	0.000103545	0.000207167	0	5	0	
0.238333	0.00566367	0.0204822	0.000129708	0.000219698	0	5	0	
0.2385	-0.000685691	-0.00753295	0.000150385	0.000253992	0	5	0	
0.238667	-0.000538987	-0.00827104	0.000112591	0.000245106	0	5	0	
0.238833	0.00030768	0.00957151	8.12373E-05	0.000202521	0	5	0	
0.239	-0.000360664	0.00150852	0.00010163	0.000151347	0	5	0	
0.239167	-0.00291127	-0.010124	0.000102937	0.000215339	0	5	0	
0.239333	0.00327142	0.0116557	0.000132794	0.000274216	0	5	0	
0.2395	-0.00166765	-0.00262014	0.000149098	0.000359584	0	5	0	
0.239667	0.00291368	0.00121964	0.000177729	0.000365444	0	5	0	
0.239833	-0.00178063	-0.00400332	0.000151542	0.000282756	0	5	0	
0.24	0.00232088	0.00418612	9.54274E-05	0.000198416	0	5	0	
0.240167	-0.00234714	0.00459714	6.4225E-05	0.000137112	0	5	0	
0.240333	0.00091637	-0.00521684	5.03626E-05	0.000109017	0	5	0	
0.2405	0.00397982	0.0026585	5.7019E-05	0.000155721	0	5	0	
0.240667	-0.0042484	-0.00262572	5.97199E-05	0.000241295	0	5	0	
0.240833	0.000848703	0.000878881	8.5709E-05	0.00030891	0	5	0	
0.241	0.00762723	0.0056843	9.53145E-05	0.000251629	0	5	0	
0.241167	-0.00979873	-0.0149092	0.000131721	0.000188177	0	5	0	
0.241333	0.00445942	0.0122845	0.000138964	0.000229369	0	5	0	
0.2415	0.00587331	0.000499845	0.000140983	0.000269247	0	5	0	
0.241667	-0.00661333	-0.00579094	0.000124788	0.000242908	0	5	0	
0.241833	0.00531174	0.00291574	0.000111605	0.000169669	0	5	0	
0.242	-0.00471576	0.00809084	0.000113865	0.000130949	0	5	0	
0.242167	0.00269887	-0.00435781	0.000126593	0.000160421	0	5	0	
0.242333	0.000677534	-0.000474608	0.000151417	0.000170979	0	5	0	
0.2425	-0.00437036	0.00587159	0.000152563	0.000191842	0	5	0	
0.242667	0.00614269	0.00162653	0.000135335	0.000140337	0	5	0	
0.242833	-0.00216526	0.00340668	0.000116224	8.72925E-05	0	5	0	
0.243	-0.00450119	-0.0103624	0.00012396	7.54199E-05	0	5	0	
0.243167	0.00420076	0.0161782	0.000138963	0.000187737	0	5	0	
0.243333	-0.0036448	0.000394856	0.0001473	0.000311011	0	5	0	
0.2435	0.0069273	-0.00631426	0.000146782	0.000329093	0	5	0	
0.243667	-0.00369394	0.00296516	0.000122581	0.000222506	0	5	0	
0.243833	-0.00411265	-0.00224249	0.000114375	0.000103802	0	5	0	
0.244	0.00860462	0.003849	0.00012569	5.72348E-05	0	5	0	
0.244167	-0.0116774	-0.000966607	0.000152676	0.000105155	0	5	0	
0.244333	0.0127459	0.00386828	0.000190811	0.000171676	0	5	0	
0.2445	-0.0044946	-0.00597547	0.000213324	0.000211982	0	5	0	
0.244667	-0.00692239	0.00371504	0.000218476	0.000215575	0	5	0	
0.244833	0.00556767	-0.00249196	0.000189202	0.000161352	0	5	0	
0.245	-0.00190374	0.00705792	0.000134938	0.0001404	0	5	0	
0.245167	0.00280415	-0.00544914	0.000107293	0.000119185	0	5	0	
0.245333	0.000969201	-0.000579307	9.52358E-05	0.000124982	0	5	0	
0.2455	-0.00625306	-0.00468038	0.000124732	0.000115958	0	5	0	
0.245667	0.00390839	0.000662857	0.000116325	7.09378E-05	0	5	0	
0.245833	0.000726355	0.00416348	0.000140968	5.46802E-05	0	5	0	
0.246	-0.00138948	0.00109198	0.000115963	0.00017804	0	5	0	
0.246167	0.0089606	0.0252958	0.000175381	0.000557994	0	5	0	
0.246333	-0.014314	-0.0268222	0.000235459	0.000906035	0	5	0	
0.2465	0.00270741	-0.0113008	0.000290198	0.000867432	0	5	0	
0.246667	0.01534	0.032638	0.000290049	0.000653376	0	5	0	
0.246833	-0.018418	-0.0248953	0.000258963	0.000501235	0	5	0	
0.247	0.00130618	-0.00895339	0.00030246	0.00048371	0	5	0	
0.247167	0.0098798	0.0461723	0.000273294	0.00049059	0	5	0	
0.247333	-0.000648085	-0.0247821	0.000260068	0.000539726	0	5	0	
0.2475	-0.0120238	-0.0127018	0.000192471	0.000577483	0	5	0	
0.247667	0.00206726	0.0193268	0.000187932	0.000511573	0	5	0	
0.247833	0.00134094	-0.00564026	0.000131764	0.000339535	0	5	0	
0.248	0.00351445	-0.00046433	9.51378E-05	0.000222065	0	5	0	
0.248167	0.000707225	0.00802884	7.18555E-05	0.000135617	0	5	0	
0.248333	-0.0193827	-0.0193791	0.000108973	0.000181704	0	5	0	
0.2485	0.0172224	0.0216594	0.000237833	0.000358403	0	5	0	
0.248667	0.00241233	-0.00512785	0.000334003	0.000454801	0	5	0	
0.248833	-0.0128682	-0.0135399	0.000314148	0.000407174	0	5	0	
0.249	0.0108418	0.0297656	0.000261411	0.000373134	0	5	0	
0.249167	-0.00277934	-0.0188105	0.000191005	0.000438091	0	5	0	
0.249333	0.00164555	0.00031954	0.000153934	0.000397172	0	5	0	
0.2495	-0.00663547	0.000739483	0.000100052	0.000279397	0	5	0	
0.249667	0.0115726	0.0013656	0.000120129	0.000100774	0	5	0	
0.249833	-0.00677687	0.00233511	0.000193129	8.79224E-05	0	5	0	
0.25	-0.000975929	-0.000233371	0.000234977	0.000111841	0	5	0	
0.250167	0.0117463	0.0025692	0.000209813	0.000192925	0	5	0	
0.250333	-0.00787436	0.000765569	0.000200237	0.000240506	0	5	0	
0.2505	-0.00102282	-0.0166559	0.000192563	0.000225284	0	5	0	
0.250667	0.0102972	0.0166596	0.000243139	0.000239453	0	5	0	
0.250833	-0.0160383	-0.0064381	0.000271399	0.000248697	0	5	0	
0.251	0.0157158	0.0010697	0.00029841	0.000233718	0	5	0	
0.251167	-0.0116449	-0.000486392	0.000282605	0.000204168	0	5	0	
0.251333	0.00448661	0.00620467	0.000263236	0.000213747	0	5	0	
0.2515	0.00857297	-0.0040979	0.000249072	0.000270884	0	5	0	
0.251667	-0.011509	0.00455386	0.000243898	0.000267496	0	5	0	
0.251833	0.00559121	-0.0091075	0.000216088	0.000273323	0	5	0	
0.252	-0.000214416	0.010124	0.000202503	0.000305728	0	5	0	
0.252167	-0.00303412	-0.00447005	0.000188736	0.000348126	0	5	0	
0.252333	0.0056559	0.00886043	0.000189853	0.000347064	0	5	0	
0.2525	-0.00961303	0.0041579	0.000168881	0.000296834	0	5	0	
0.252667	0.00519587	-0.0160353	0.000143558	0.000280687	0	5	0	
0.252833	0.00508375	0.0165171	0.00015204	0.000257811	0	5	0	
0.253	-0.00897642	-0.00423387	0.000147009	0.000276705	0	5	0	
0.253167	0.00111363	0.00199674	0.000156423	0.000192105	0	5	0	
0.253333	0.00673411	-0.00370057	0.000169819	0.000128361	0	5	0	
0.2535	-0.00980454	0.00428414	0.000181437	0.000132947	0	5	0	
0.253667	0.000147726	0.00705847	0.000163333	0.000175264	0	5	0	
0.253833	0.00190854	-0.0145456	0.000109374	0.000238665	0	5	0	
0.254	-0.00316336	0.0082116	6.86821E-05	0.000244549	0	5	0	
0.254167	0.00204175	-0.00161546	7.56355E-05	0.000279553	0	5	0	
0.254333	-0.00278442	-0.00162672	8.85495E-05	0.000277593	0	5	0	
0.2545	0.000757646	0.00523146	8.94158E-05	0.000217821	0	5	0	
0.254667	0.00447718	0.000586078	6.93313E-05	0.000144351	0	5	0	
0.254833	-0.00304803	-0.000935115	6.93599E-05	0.000124972	0	5	0	
0.255	-0.00242516	-0.000864555	6.7497E-05	0.000173064	0	5	0	
0.255167	0.0016519	0.00213178	6.68196E-05	0.00019933	0	5	0	
0.255333	0.00240845	0.00457801	4.4412E-05	0.000169493	0	5	0	
0.2555	-0.00796987	-0.00581793	6.18729E-05	0.000111559	0	5	0	
0.255667	0.0104088	0.00812756	0.000113286	0.000119125	0	5	0	
0.255833	-0.00169957	0.00441515	0.000161279	0.000142406	0	5	0	
0.256	-0.00194116	-0.00895306	0.000155337	0.000187369	0	5	0	
0.256167	0.00353924	0.00510955	0.000113403	0.000202754	0	5	0	
0.256333	-0.00330909	0.00130769	8.31122E-05	0.000169288	0	5	0	
0.2565	-0.000646441	-0.00807563	6.836E-05	0.000130503	0	5	0	
0.256667	0.0047611	0.0145756	7.49821E-05	0.000141785	0	5	0	
0.256833	-0.00410959	-0.0133127	8.78797E-05	0.000205306	0	5	0	
0.257	0.00319635	0.00459144	0.000116646	0.000222337	0	5	0	
0.257167	-0.00447924	-0.00572586	0.000116536	0.000191577	0	5	0	
0.257333	0.00925535	0.0148523	0.000127126	0.000196762	0	5	0	
0.2575	-0.00504084	-0.0288459	0.000179321	0.000289741	0	5	0	
0.257667	-0.00238023	0.0109943	0.000237189	0.00042232	0	5	0	
0.257833	0.0102027	0.00616812	0.000226142	0.000430894	0	5	0	
0.258	-0.00783541	-0.0169395	0.000209082	0.000425541	0	5	0	
0.258167	-0.00118119	0.00937005	0.000198258	0.00035501	0	5	0	
0.258333	0.0105728	-0.00191108	0.000198494	0.000321731	0	5	0	
0.2585	-0.00980357	-0.00195662	0.000174479	0.000217551	0	5	0	
0.258667	0.00518547	-0.00283729	0.000159025	0.000128055	0	5	0	
0.258833	0.00131806	-0.00421351	0.000162156	9.72075E-05	0	5	0	
0.259	0.000305139	0.0105858	0.00016407	0.000116164	0	5	0	
0.259167	-0.00457424	-0.0147684	0.00013637	0.000197433	0	5	0	
0.259333	0.00238097	0.0039397	0.000139717	0.000246291	0	5	0	
0.2595	0.0053043	0.0147983	0.000126321	0.000283797	0	5	0	
0.259667	-0.00714898	-0.00143354	0.000124963	0.000260198	0	5	0	
0.259833	0.00883969	-0.0159906	0.000159765	0.0002509	0	5	0	
0.26	0.000597906	0.0188796	0.000202953	0.000301016	0	5	0	
0.260167	0.00352286	-0.0118541	0.000214808	0.000361787	0	5	0	
0.260333	-0.011629	-0.00680008	0.000196092	0.000427386	0	5	0	
0.2605	0.00896833	0.0154778	0.000205745	0.000417553	0	5	0	
0.260667	-0.000570448	0.0067009	0.000194268	0.000332424	0	5	0	
0.260833	-0.00106817	-0.0150061	0.000135702	0.000268514	0	5	0	
0.261	0.00855587	0.0107808	0.000100069	0.000219362	0	5	0	
0.261167	-0.000485858	-0.00834127	0.000118079	0.000266489	0	5	0	
0.261333	0.0271439	0.0313081	0.000236755	0.000448827	0	5	0	
0.2615	-0.0478488	-0.0440963	0.000390737	0.000579475	0	5	0	
0.261667	0.0872818	0.0532742	0.00100504	0.00132404	0	5	0	
0.261833	-0.0810001	-0.163843	0.00184837	0.00280652	0	5	0	
0.262	0.0475762	0.138664	0.00225581	0.00399143	0	5	0	
0.262167	0.000176393	-0.036884	0.0017803	0.00384104	0	5	0	
0.262333	-0.0348955	-0.080353	0.000939735	0.0024655	0	5	0	
0.2625	0.0477417	0.12269	0.000661283	0.0017169	0	5	0	
0.262667	0.056145	-0.0574397	0.00107745	0.00185031	0	5	0	
0.262833	-0.120263	-0.15684	0.00185126	0.00223687	0	5	0	
0.263	0.0812829	0.099835	0.00230805	0.00265732	0	5	0	
0.263167	-0.00601964	0.0376296	0.00200674	0.00246856	0	5	0	
0.263333	-0.01921	-0.0633532	0.00121013	0.00230791	0	5	0	
0.2635	0.018271	-0.0171588	0.000610744	0.00155216	0	5	0	
0.263667	-0.0116746	0.00711081	0.000522684	0.00151463	0	5	0	
0.263833	0.001638	-0.0373378	0.000564684	0.00179444	0	5	0	
0.264	0.0125706	0.0598271	0.000422385	0.00220574	0	5	0	
0.264167	-0.0167578	-0.0247907	0.000416295	0.00201201	0	5	0	
0.264333	0.0199281	-0.020481	0.000482301	0.00122758	0	5	0	
0.2645	-0.00592049	0.0353957	0.000517475	0.000682782	0	5	0	
0.264667	-0.00771528	-0.0371923	0.000349542	0.000557045	0	5	0	
0.264833	0.0107613	0.0186931	0.000219099	0.000693947	0	5	0	
0.265	-0.0117947	-0.00369886	0.000207461	0.00059728	0	5	0	
0.265167	0.0191793	-0.0021962	0.000251381	0.000350618	0	5	0	
0.265333	-0.0203847	-0.00773433	0.000308622	0.000195816	0	5	0	
0.2655	0.0158704	0.0243197	0.000395519	0.00026374	0	5	0	
0.265667	0.00117363	-0.014404	0.000401707	0.000377611	0	5	0	
0.265833	-0.0185571	-0.00596158	0.000322315	0.000374553	0	5	0	
0.266	0.0209423	0.00687294	0.000289324	0.000285619	0	5	0	
0.266167	-0.00196456	-0.00201897	0.000296418	0.000251771	0	5	0	
0.266333	-0.0140425	-0.00865316	0.000279842	0.000347844	0	5	0	
0.2665	0.00903326	0.00975447	0.000235778	0.000398521	0	5	0	
0.266667	-0.000517156	-0.00787993	0.000211942	0.000353047	0	5	0	
0.266833	-0.000129413	0.00185288	0.000241053	0.000237284	0	5	0	
0.267	0.00720044	-0.00341834	0.000229861	0.00018459	0	5	0	
0.267167	-0.0103998	0.0119847	0.000196777	0.000210132	0	5	0	
0.267333	-0.00127715	-0.00322898	0.000221967	0.000218584	0	5	0	
0.2675	0.01148	-0.0165308	0.000231321	0.000225778	0	5	0	
0.267667	-0.00807043	0.0194697	0.00024999	0.00025457	0	5	0	
0.267833	-0.00361951	-0.0108235	0.000212395	0.000291792	0	5	0	
0.268	0.00305516	-0.000539996	0.000195947	0.000276993	0	5	0	
0.268167	-0.00632943	0.00436422	0.000161066	0.000232963	0	5	0	
0.268333	0.00428487	9.33778E-05	0.000147333	0.000193099	0	5	0	
0.2685	-0.00184955	-0.0086136	0.000127748	0.000213323	0	5	0	
0.268667	0.0036443	0.0170505	0.000118278	0.000296567	0	5	0	
0.268833	-0.00654006	-0.017739	0.000125367	0.000410927	0	5	0	
0.269	-0.000551646	0.0143981	0.000144344	0.000465953	0	5	0	
0.269167	0.00182841	-0.00300842	0.000164085	0.000393542	0	5	0	
0.269333	-0.00613245	-0.00853113	0.000144821	0.000289068	0	5	0	
0.2695	0.00720702	0.0037599	0.000120784	0.000215403	0	5	0	
0.269667	-0.00160009	0.00636589	0.00011055	0.000157726	0	5	0	
0.269833	0.000649116	-0.0102807	0.000119977	0.000208828	0	5	0	
0.27	-0.00250539	7.74471E-05	0.00014865	0.000255135	0	5	0	
0.270167	0.00266498	0.0131526	0.000200565	0.000314785	0	5	0	
0.270333	0.0026917	-0.0109019	0.000181226	0.000304478	0	5	0	
0.2705	-0.00293114	-0.00903711	0.000169548	0.000267198	0	5	0	
0.270667	0.000981931	0.0197372	0.000180632	0.000290263	0	5	0	
0.270833	0.00180353	-0.0104937	0.000209258	0.000302659	0	5	0	
0.271	-0.00024498	-0.00401608	0.000153514	0.000279016	0	5	0	
0.271167	-0.00155866	0.00935604	8.03534E-05	0.000214646	0	5	0	
0.271333	0.00238321	-0.0089517	4.85472E-05	0.000189286	0	5	0	
0.2715	0.00517152	0.00279243	5.68008E-05	0.000258319	0	5	0	
0.271667	-0.00138881	0.00763943	6.85243E-05	0.000304182	0	5	0	
0.271833	-0.00391109	-0.00591865	9.097E-05	0.000297857	0	5	0	
0.272	0.0067715	0.00368879	0.000128776	0.000237375	0	5	0	
0.272167	0.000194862	0.00714607	0.000141624	0.000185736	0	5	0	
0.272333	-0.00315908	-0.0140233	0.00012309	0.000196439	0	5	0	
0.2725	0.00664029	0.00537282	0.000108169	0.000215549	0	5	0	
0.272667	-0.00110656	0.00897416	9.95169E-05	0.000203456	0	5	0	
0.272833	0.000463456	-0.0126812	0.00011199	0.000191792	0	5	0	
0.273	-0.00202028	-0.00131869	0.000158061	0.000214383	0	5	0	
0.273167	0.000487292	0.0134355	0.000199795	0.000258588	0	5	0	
0.273333	0.007774	-0.0166427	0.00023787	0.000291324	0	5	0	
0.2735	-0.0273616	0.0219691	0.000259921	0.0002951	0	5	0	
0.273667	0.00417949	-0.030049	0.000395754	0.000382168	0	5	0	
0.273833	0.00735963	0.0157677	0.000364501	0.000427565	0	5	0	
0.274	-0.0122981	-0.00121941	0.000344657	0.000377033	0	5	0	
0.274167	0.0105977	-0.00835101	0.000207087	0.000256293	0	5	0	
0.274333	-0.00954923	0.00875414	0.000223243	0.000158226	0	5	0	
0.2745	0.00550029	-0.000943209	0.000192433	0.000148964	0	5	0	
0.274667	-0.0236342	-0.0030747	0.0002629	0.000162057	0	5	0	
0.274833	0.00745663	-0.0141763	0.000367106	0.000177694	0	5	0	
0.275	-0.00372983	0.0339252	0.0003332	0.000313433	0	5	0	
0.275167	0.0221882	-0.0170892	0.00028861	0.000434758	0	5	0	
0.275333	-0.00376042	-0.00755949	0.000223521	0.000479613	0	5	0	
0.2755	-0.0114121	0.0111388	0.000333424	0.000372737	0	5	0	
0.275667	0.0184948	0.00134367	0.000353695	0.000294158	0	5	0	
0.275833	-0.0125968	0.00199003	0.000346178	0.000297173	0	5	0	
0.276	0.00381496	-0.00543661	0.000278349	0.000346753	0	5	0	
0.276167	0.00781716	-0.00466043	0.000234958	0.000405825	0	5	0	
0.276333	-0.00395968	0.00947892	0.000321476	0.000409029	0	5	0	
0.2765	0.0148406	0.0036419	0.000475349	0.000320203	0	5	0	
0.276667	-0.027365	-0.0211661	0.000611505	0.000226924	0	5	0	
0.276833	0.0399141	-0.0263786	0.000720264	0.000316855	0	5	0	
0.277	-0.0461931	0.0551946	0.000815025	0.000742833	0	5	0	
0.277167	0.0327522	-0.0443529	0.000816848	0.0011883	0	5	0	
0.277333	0.00394423	0.0107351	0.000791715	0.00122174	0	5	0	
0.2775	-0.0388435	-0.000243741	0.00068537	0.00079587	0	5	0	
0.277667	0.0390962	-0.00341845	0.000716485	0.000329307	0	5	0	
0.277833	-0.0310805	-0.00284275	0.000725349	0.000226297	0	5	0	
0.278	0.0167099	-0.0260836	0.00084629	0.000480614	0	5	0	
0.278167	0.00547555	0.0516669	0.000929552	0.000866857	0	5	0	
0.278333	-0.0197877	-0.0407627	0.000866738	0.00112259	0	5	0	
0.2785	0.00961748	0.0210498	0.000615578	0.00107251	0	5	0	
0.278667	0.00612744	-0.0264347	0.000405087	0.000792119	0	5	0	
0.278833	-0.00219222	0.032886	0.000261548	0.000647875	0	5	0	
0.279	-0.00931523	-0.0041255	0.000244699	0.000571379	0	5	0	
0.279167	0.0104385	-0.0152216	0.000218435	0.00048828	0	5	0	
0.279333	-0.00415836	0.0233211	0.000202596	0.000380364	0	5	0	
0.2795	-0.00278863	-0.0129365	0.000185819	0.000346113	0	5	0	
0.279667	-0.00230775	-0.0032739	0.000140426	0.000346604	0	5	0	
0.279833	0.00915942	0.0107074	0.000155243	0.000262692	0	5	0	
0.28	-0.000805644	-0.00863331	0.00015691	0.00020265	0	5	0	
0.280167	-0.00777523	0.00886649	0.00012957	0.000214805	0	5	0	
0.280333	0.00631562	0.006135	0.000133974	0.000182713	0	5	0	
0.2805	-0.00132791	-0.00757284	0.000144002	0.000184964	0	5	0	
0.280667	-0.00497055	-0.00914223	0.000149961	0.000184743	0	5	0	
0.280833	0.0106833	0.0179321	0.000149643	0.000263992	0	5	0	
0.281	-0.00856467	-0.00925135	0.000174304	0.000318496	0	5	0	
0.281167	-0.00528532	-0.000571935	0.000219565	0.000291935	0	5	0	
0.281333	0.0138115	0.0191225	0.000229058	0.00029139	0	5	0	
0.2815	-0.00602279	-0.0136773	0.00021841	0.000321099	0	5	0	
0.281667	-0.00803117	-0.00221954	0.000184779	0.000361217	0	5	0	
0.281833	0.0117578	0.0036349	0.000207033	0.000290218	0	5	0	
0.282	-0.00473249	-0.000581681	0.000212027	0.000184075	0	5	0	
0.282167	-0.00164381	-0.00174659	0.000189756	0.000112219	0	5	0	
0.282333	0.000856791	0.000657973	0.000108287	9.39881E-05	0	5	0	
0.2825	-0.00012832	0.00208029	4.79389E-05	9.35871E-05	0	5	0	
0.282667	-0.00253009	0.00299715	4.22928E-05	8.44423E-05	0	5	0	
0.282833	0.0101882	0.00137835	7.74545E-05	8.24479E-05	0	5	0	
0.283	-0.010441	-0.00433802	0.000138161	6.47956E-05	0	5	0	
0.283167	0.000191865	-0.00567776	0.000160635	8.93738E-05	0	5	0	
0.283333	0.00778478	0.00412711	0.000135037	0.000141416	0	5	0	
0.2835	-0.00860788	-0.00381077	0.000113042	0.00017638	0	5	0	
0.283667	0.00294834	0.0039854	0.000119997	0.00021059	0	5	0	
0.283833	0.00506181	-0.00262881	0.000122776	0.000232662	0	5	0	
0.284	-0.0033679	0.00674498	0.000114444	0.000215989	0	5	0	
0.284167	-0.00695351	-0.0094823	0.000109316	0.000209002	0	5	0	
0.284333	0.00646416	-0.00544256	0.000144219	0.000170447	0	5	0	
0.2845	0.00214512	0.0129231	0.000161311	0.000216412	0	5	0	
0.284667	-0.00239308	-0.0188768	0.000171082	0.000264878	0	5	0	
0.284833	0.000626324	0.0112208	0.0001228	0.000344539	0	5	0	
0.285	0.00444384	0.00734157	7.87783E-05	0.000341755	0	5	0	
0.285167	-0.00411977	-0.0103065	7.39938E-05	0.000331656	0	5	0	
0.285333	-0.00453102	-0.00386375	9.1693E-05	0.000340746	0	5	0	
0.2855	0.00830709	0.00513295	0.000128609	0.000358172	0	5	0	
0.285667	-0.00360529	-0.00368921	0.000135604	0.000288475	0	5	0	
0.285833	0.00186147	-0.00209936	0.000111762	0.000173824	0	5	0	
0.286	-2.30947E-05	0.00447669	6.9721E-05	0.000122474	0	5	0	
0.286167	0.00253516	0.00599204	3.4488E-05	0.0001725	0	5	0	
0.286333	-0.00324769	-0.0102605	4.69152E-05	0.000248345	0	5	0	
0.2865	0.00216269	0.00572924	5.26624E-05	0.000278196	0	5	0	
0.286667	-0.00252408	-0.00522484	6.18774E-05	0.000241831	0	5	0	
0.286833	0.00110155	0.00349451	5.23183E-05	0.000169986	0	5	0	
0.287	-0.000158865	-0.00137214	4.61348E-05	0.000100387	0	5	0	
0.287167	0.000853438	-0.00275383	2.95392E-05	0.000101022	0	5	0	
0.287333	-0.00347547	0.000725338	4.20601E-05	0.000129534	0	5	0	
0.2875	0.0056541	0.00413908	8.07871E-05	0.00016466	0	5	0	
0.287667	-0.00300624	-0.00471969	0.000118736	0.000169965	0	5	0	
0.287833	-0.00526078	0.00453324	0.000123838	0.000172254	0	5	0	
0.288	0.00170243	-0.00321292	0.000115349	0.000159517	0	5	0	
0.288167	0.00485916	0.0120421	0.00010392	0.000172796	0	5	0	
0.288333	-0.00539811	-0.0132043	0.000120429	0.000234238	0	5	0	
0.2885	0.00281017	0.00034351	0.000144911	0.000314337	0	5	0	
0.288667	-0.00496193	0.0152812	0.000195847	0.000356431	0	5	0	
0.288833	0.00263894	-0.0121651	0.000202922	0.000352338	0	5	0	
0.289	-0.00357639	0.00560601	0.000151034	0.000303813	0	5	0	
0.289167	0.00832102	0.0052242	0.000113403	0.000233127	0	5	0	
0.289333	-0.0233629	-0.00268715	0.000173689	0.000149315	0	5	0	
0.2895	0.00588091	0.00127985	0.000251885	0.00017397	0	5	0	
0.289667	0.00339798	-0.0177547	0.000273218	0.00023681	0	5	0	
0.289833	-0.00849431	0.0375274	0.000186451	0.000390947	0	5	0	
0.29	0.00325885	-0.0207218	0.000179136	0.000510526	0	5	0	
0.290167	0.00744324	0.0101282	0.0002409	0.000608711	0	5	0	
0.290333	-0.0172384	-0.0929906	0.000378294	0.000794844	0	5	0	
0.2905	-0.00286509	0.115153	0.00047026	0.00144686	0	5	0	
0.290667	-0.0204814	-0.0627629	0.000447147	0.00191795	0	5	0	
0.290833	0.0146257	0.0290064	0.000402195	0.00201275	0	5	0	
0.291	-0.00524355	-0.0367465	0.000318659	0.00157135	0	5	0	
0.291167	0.00509699	0.0330463	0.000412269	0.00121367	0	5	0	
0.291333	0.024591	0.0382981	0.000381658	0.00105501	0	5	0	
0.2915	-0.0365043	-0.0496045	0.00054245	0.00173409	0	5	0	
0.291667	0.000132134	0.0111357	0.000713019	0.00287449	0	5	0	
0.291833	0.0194573	0.0449931	0.000978991	0.00345131	0	5	0	
0.292	-0.0351446	-0.101189	0.000925142	0.00279005	0	5	0	
0.292167	0.0335027	0.149912	0.000866441	0.00225329	0	5	0	
0.292333	-0.0204959	-0.0357695	0.00090061	0.00215273	0	5	0	
0.2925	0.112926	0.116519	0.00148957	0.00224467	0	5	0	
0.292667	-0.131536	-0.15531	0.0023019	0.00293929	0	5	0	
0.292833	0.0244037	0.0630479	0.0025329	0.00387456	0	5	0	
0.293	0.00222277	0.00199704	0.00184173	0.00464162	0	5	0	
0.293167	-0.0300685	-0.00260364	0.000852033	0.00412048	0	5	0	
0.293333	0.0384083	0.041559	0.000429169	0.0033599	0	5	0	
0.2935	-0.064982	-0.0737898	0.000734858	0.00295716	0	5	0	
0.293667	0.0982097	0.175441	0.00153406	0.00335196	0	5	0	
0.293833	-0.0866396	-0.244001	0.00247435	0.00460394	0	5	0	
0.294	-0.0145548	0.156973	0.00255339	0.00530917	0	5	0	
0.294167	0.00497541	-0.07239	0.00166146	0.00456436	0	5	0	
0.294333	0.00315701	0.0443136	0.000644265	0.00271163	0	5	0	
0.2945	-0.0169071	-0.0478134	0.000250573	0.00139066	0	5	0	
0.294667	-0.0173427	0.0410104	0.000430314	0.000981506	0	5	0	
0.294833	0.0348737	-0.00953575	0.000543148	0.000866306	0	5	0	
0.295	-0.0202256	0.00145471	0.000608844	0.000747647	0	5	0	
0.295167	-0.00201583	-0.00509691	0.00054646	0.000588456	0	5	0	
0.295333	0.0139431	0.0146679	0.000381292	0.000523594	0	5	0	
0.2955	-0.0052198	-0.0110839	0.000300657	0.000517288	0	5	0	
0.295667	-0.00648916	0.0060733	0.000203901	0.000432315	0	5	0	
0.295833	0.0029401	0.0041219	0.000170763	0.000323512	0	5	0	
0.296	0.00636836	-0.000737256	0.000114414	0.000224011	0	5	0	
0.296167	-0.00544223	0.000982493	0.000100801	0.000142471	0	5	0	
0.296333	0.00545489	0.000805682	0.00011658	7.58523E-05	0	5	0	
0.2965	4.87281E-05	0.00630627	0.000149467	4.66202E-05	0	5	0	
0.296667	-0.00124077	-0.0158825	0.000135593	0.000130215	0	5	0	
0.296833	-0.00125129	0.0107805	0.000117591	0.000218414	0	5	0	
0.297	-0.0059694	-0.00589614	9.22872E-05	0.000264674	0	5	0	
0.297167	0.0013556	0.0131056	8.93183E-05	0.000279507	0	5	0	
0.297333	0.00731433	-0.00647838	8.72509E-05	0.000267055	0	5	0	
0.2975	-0.0052579	0.00388377	0.000115372	0.000250032	0	5	0	
0.297667	0.00186128	-0.00243978	9.55674E-05	0.000174432	0	5	0	
0.297833	0.000873905	-0.00300734	7.81803E-05	0.000107762	0	5	0	
0.298	0.00200999	0.000293917	4.1888E-05	7.71988E-05	0	5	0	
0.298167	-0.00283005	0.00453054	6.24009E-05	7.12929E-05	0	5	0	
0.298333	0.00530826	-0.00265674	0.000114788	7.94541E-05	0	5	0	
0.2985	-0.0194306	-0.0036613	0.000225122	8.48929E-05	0	5	0	
0.298667	0.0285251	0.0167348	0.000332477	0.000193896	0	5	0	
0.298833	0.0395703	0.00159943	0.000752612	0.000441018	0	5	0	
0.299	-0.235584	-0.0878509	0.0016935	0.000602502	0	5	0	
0.299167	0.303103	0.397435	0.00382551	0.0021351	0	5	0	
0.299333	-0.184193	-0.234517	0.00488388	0.00426727	0	5	0	
0.2995	0.00525572	-0.00914214	0.00439441	0.00516691	0	5	0	
0.299667	0.072395	0.103167	0.00257754	0.00416083	0	5	0	
0.299833	-0.0726212	-0.06976	0.00145678	0.00252987	0	5	0	
0.3	0.0273994	-0.0218823	0.00138213	0.00180406	0	5	0	
0.300167	-0.0548831	0.181779	0.00234199	0.00199735	0	5	0	
0.300333	0.032528	0.0803569	0.0037036	0.00329688	0	5	0	
0.3005	0.00449848	-0.159738	0.00423242	0.00471556	0	5	0	
0.300667	-0.0127708	0.0626235	0.00290579	0.00481331	0	5	0	
0.300833	-0.00818319	0.0416014	0.00145489	0.00321284	0	5	0	
0.301	0.00747361	-0.0550299	0.00048621	0.00191448	0	5	0	
0.301167	0.0153662	0.0151834	0.000695334	0.00121925	0	5	0	
0.301333	-0.0343161	-0.00353044	0.000640566	0.000789387	0	5	0	
0.3015	0.0285056	0.00628036	0.00072543	0.000367037	0	5	0	
0.301667	0.00348946	-0.00277303	0.000633686	0.000158527	0	5	0	
0.301833	-0.0170076	-0.00183808	0.000441218	0.000183948	0	5	0	
0.302	0.0120797	-0.00401336	0.000382992	0.000181301	0	5	0	
0.302167	6.51002E-05	0.0138793	0.000239798	0.000218466	0	5	0	
0.302333	-0.0067335	-0.0217502	0.000190592	0.000350034	0	5	0	
0.3025	0.0091227	0.0105202	0.000136568	0.000437977	0	5	0	
0.302667	0.00103798	-0.0113518	0.000163558	0.000487873	0	5	0	
0.302833	-0.00761025	0.00747658	0.000213644	0.000401834	0	5	0	
0.303	-0.0100669	-0.0124626	0.00028935	0.000373559	0	5	0	
0.303167	0.0334042	0.018863	0.000340378	0.000368798	0	5	0	
0.303333	-0.0270058	-0.0201401	0.000511699	0.000410107	0	5	0	
0.3035	-0.0183084	0.00531678	0.00134076	0.000447621	0	5	0	
0.303667	-0.0486645	-0.00583443	0.00252427	0.000465697	0	5	0	
0.303833	-0.0280889	0.0143596	0.00292678	0.000415794	0	5	0	
0.304	0.022162	-0.0131892	0.00221026	0.000411263	0	5	0	
0.304167	0.00342819	0.00970827	0.00107631	0.000388777	0	5	0	
0.304333	-0.0239369	-0.00449276	0.000697552	0.000321764	0	5	0	
0.3045	0.102701	0.0135955	0.000810602	0.000229356	0	5	0	
0.304667	-0.214736	-0.026081	0.00180494	0.000247215	0	5	0	
0.304833	0.0710547	0.0159426	0.00251722	0.000354269	0	5	0	
0.305	0.000489822	-0.00236614	0.00241451	0.000362301	0	5	0	
0.305167	-0.0201149	0.00137697	0.00139219	0.000242191	0	5	0	
0.305333	0.0191963	-0.00489821	0.000559227	0.000160845	0	5	0	
0.3055	0.00791569	0.0151043	0.000380969	0.000255277	0	5	0	
0.305667	-0.00545293	-0.00318444	0.000273593	0.000350526	0	5	0	
0.305833	0.00156753	-0.00834909	0.000212134	0.000318315	0	5	0	
0.306	0.000821087	-0.0020593	0.000237156	0.000186204	0	5	0	
0.306167	0.00194084	0.00796616	0.00022784	0.000117758	0	5	0	
0.306333	-0.00467454	-0.00467468	0.00017286	0.000126178	0	5	0	
0.3065	0.00245271	-0.00111338	0.000148893	0.000115131	0	5	0	
0.306667	0.00706402	-0.000173117	0.00016788	9.16869E-05	0	5	0	
0.306833	-0.00948146	0.00115912	0.000169017	0.000110932	0	5	0	
0.307	0.00196204	-0.00379975	0.000162228	0.000200672	0	5	0	
0.307167	0.00624935	-0.00219975	0.000143482	0.00026811	0	5	0	
0.307333	-0.00413545	-0.00200125	0.000127633	0.000264759	0	5	0	
0.3075	0.00215674	0.012094	0.000116897	0.000215761	0	5	0	
0.307667	-0.000809616	-0.0234387	9.68068E-05	0.000261689	0	5	0	
0.307833	-0.00407957	0.00855105	9.57421E-05	0.000306217	0	5	0	
0.308	0.00395088	0.00290811	0.000106093	0.000297851	0	5	0	
0.308167	0.00225929	-0.00268244	0.000134738	0.000221471	0	5	0	
0.308333	-0.00905122	-0.0107303	0.00013936	0.000198519	0	5	0	
0.3085	0.0109638	0.0150809	0.000161679	0.00026835	0	5	0	
0.308667	-0.00890093	-9.11211E-05	0.000182424	0.000296286	0	5	0	
0.308833	-0.00140144	-0.0172406	0.000177724	0.00033561	0	5	0	
0.309	0.0104956	0.014344	0.0001617	0.000351733	0	5	0	
0.309167	-0.00583558	0.00913781	0.000161339	0.000341627	0	5	0	
0.309333	-0.00499591	-0.0197921	0.000160601	0.00035152	0	5	0	
0.3095	0.0069457	0.0137747	0.000164296	0.000362226	0	5	0	
0.309667	-0.000908983	0.00610189	0.000151743	0.000349356	0	5	0	
0.309833	0.00143724	-0.00296796	0.000173048	0.000273479	0	5	0	
0.31	-0.00409949	-0.00245528	0.000127174	0.000226839	0	5	0	
0.310167	0.00976761	0.0105217	0.000127866	0.000278643	0	5	0	
0.310333	-0.00600698	-0.00269714	0.000137258	0.00027917	0	5	0	
0.3105	-0.000241802	0.00192722	0.000150799	0.000218869	0	5	0	
0.310667	0.00386961	0.0131523	0.000117901	0.000162511	0	5	0	
0.310833	0.00190878	-0.00431726	9.38453E-05	0.000228717	0	5	0	
0.311	-0.00606791	-0.000718254	0.000115904	0.000302396	0	5	0	
0.311167	0.00669152	-0.00147714	0.000142756	0.000326803	0	5	0	
0.311333	-0.00260307	0.00236864	0.000140506	0.00024407	0	5	0	
0.3115	-0.00419946	0.00712644	0.000106631	0.000161309	0	5	0	
0.311667	0.0040757	-0.00716232	7.95049E-05	0.000129762	0	5	0	
0.311833	0.00414915	0.0129717	6.19662E-05	0.000186429	0	5	0	
0.312	-0.00979979	-0.0141536	0.000106611	0.000260784	0	5	0	
0.312167	0.00972181	0.0211475	0.000149351	0.0003263	0	5	0	
0.312333	-0.00585447	-0.0131578	0.000181096	0.000360174	0	5	0	
0.3125	-0.0058383	-0.0041051	0.000176311	0.000290611	0	5	0	
0.312667	0.00745993	0.000365747	0.000178334	0.000196905	0	5	0	
0.312833	-0.00550623	0.0144322	0.00017455	0.000110085	0	5	0	
0.313	0.00477138	-0.0052682	0.000147467	0.000136792	0	5	0	
0.313167	-0.000548831	0.00291354	0.000107837	0.000174267	0	5	0	
0.313333	-0.00296838	-0.00127902	8.69299E-05	0.00017197	0	5	0	
0.3135	0.000614076	-0.000320271	8.09309E-05	0.000125866	0	5	0	
0.313667	-0.00667696	-0.0107352	0.000145335	0.000102041	0	5	0	
0.313833	-0.00347047	0.0138117	0.000225609	0.000153335	0	5	0	
0.314	0.00965512	-0.0034421	0.000282066	0.000193801	0	5	0	
0.314167	-0.00744592	0.00233685	0.000243779	0.000235701	0	5	0	
0.314333	0.00340117	-0.00645615	0.000180511	0.000220868	0	5	0	
0.3145	0.000230284	0.000476151	0.000134731	0.000222831	0	5	0	
0.314667	-0.0089159	-0.00661022	0.000102394	0.000218896	0	5	0	
0.314833	0.0116723	0.0153659	0.000122478	0.000226597	0	5	0	
0.315	-0.0105468	-0.032794	0.0001803	0.000336212	0	5	0	
0.315167	0.00551243	0.0306483	0.000239537	0.000466941	0	5	0	
0.315333	0.00327983	-0.0149523	0.000211041	0.000513064	0	5	0	
0.3155	-0.00510678	0.00335265	0.000155003	0.000399683	0	5	0	
0.315667	4.22774E-05	-0.0013289	9.96469E-05	0.000208023	0	5	0	
0.315833	0.00382017	-0.00350045	8.12477E-05	9.52757E-05	0	5	0	
0.316	-0.00229186	0.00466547	7.07659E-05	0.000106341	0	5	0	
0.316167	0.00233564	0.00829982	7.84225E-05	0.000175623	0	5	0	
0.316333	-0.00482994	-0.00460755	0.00013562	0.000251779	0	5	0	
0.3165	-0.00488559	-0.00663635	0.00012638	0.000234453	0	5	0	
0.316667	0.00437002	0.0111594	0.000140654	0.000247379	0	5	0	
0.316833	-0.00361757	0.00760895	0.000172681	0.000324252	0	5	0	
0.317	0.00724262	-0.00987574	0.000278974	0.000481529	0	5	0	
0.317167	-0.000249393	0.00981507	0.000248162	0.000503854	0	5	0	
0.317333	-0.0168212	-9.39863E-05	0.000258649	0.000453518	0	5	0	
0.3175	0.00959054	-0.0054517	0.000243885	0.000370961	0	5	0	
0.317667	-0.00976586	0.00229521	0.000274469	0.000305022	0	5	0	
0.317833	0.016944	0.014964	0.000253705	0.000283949	0	5	0	
0.318	-0.0134907	-0.00727261	0.000249086	0.000246175	0	5	0	
0.318167	-0.00393045	-0.0013635	0.000370954	0.000214772	0	5	0	
0.318333	0.0220498	0.019215	0.000482582	0.000240213	0	5	0	
0.3185	-0.0234893	-0.0151934	0.000517219	0.000377461	0	5	0	
0.318667	0.00921701	-0.0207382	0.000482909	0.000533685	0	5	0	
0.318833	0.00410643	0.0491822	0.00045828	0.000736469	0	5	0	
0.319	-0.00966544	-0.0221629	0.000430129	0.000812588	0	5	0	
0.319167	0.0167237	0.000330333	0.000361434	0.000851594	0	5	0	
0.319333	-0.0141728	0.0057813	0.000317003	0.000620023	0	5	0	
0.3195	0.0066428	0.0111134	0.000377389	0.000378171	0	5	0	
0.319667	0.0108363	-0.0239381	0.000538652	0.000285719	0	5	0	
0.319833	-0.0313896	0.0325856	0.000641101	0.000420927	0	5	0	
0.32	0.0353128	-0.0216696	0.000690774	0.000651336	0	5	0	
0.320167	-0.0141795	0.0184512	0.000617472	0.000701567	0	5	0	
0.320333	-0.000829464	-0.00555521	0.000499654	0.000542046	0	5	0	
0.3205	0.0107935	0.00131737	0.000319709	0.000347157	0	5	0	
0.320667	-0.010914	-0.00492538	0.00024068	0.000262202	0	5	0	
0.320833	0.00415876	0.0100654	0.000209104	0.000289099	0	5	0	
0.321	0.00567985	-0.0040203	0.000286566	0.00029426	0	5	0	
0.321167	-0.0102679	-0.00600507	0.000331345	0.000285592	0	5	0	
0.321333	0.00720662	0.00509705	0.000337474	0.000257051	0	5	0	
0.3215	0.000639292	0.00617516	0.000261611	0.000214486	0	5	0	
0.321667	-0.00841859	-0.00574392	0.000176801	0.000205705	0	5	0	
0.321833	0.00881504	-0.005783	0.000136235	0.000161612	0	5	0	
0.322	-0.00222536	0.00416316	0.000197408	0.000192596	0	5	0	
0.322167	-0.00896134	-0.0020609	0.000339995	0.000238724	0	5	0	
0.322333	0.00632304	-0.0169374	0.000389159	0.000358107	0	5	0	
0.3225	-0.000797169	0.0196375	0.000328292	0.000424247	0	5	0	
