0	-0.00218752	0.00252466	2.18752E-07	2.52466E-07	0	5	0	
0.000166667	-0.00655166	-0.00123664	7.2965E-05	3.3661E-05	0	5	0	
0.000333333	0.0125394	-0.000992324	0.00019134	9.40283E-05	0	5	0	
0.0005	-0.0146606	0.00281368	0.000293984	0.00013252	0	5	0	
0.000666667	0.00880321	0.000391153	0.000293913	0.000122965	0	5	0	
0.000833333	-0.00623121	-0.000373365	0.000255454	0.00011332	0	5	0	
0.001	0.00991457	-0.00240083	0.000249888	0.000144005	0	5	0	
0.00116667	-0.00849342	0.00021014	0.000273064	0.000145763	0	5	0	
0.00133333	-0.00426541	0.00551852	0.000274135	0.000114885	0	5	0	
0.0015	0.000168715	-0.00474537	0.000298176	7.56272E-05	0	5	0	
0.00166667	0.00298081	0.00624788	0.000359775	9.5346E-05	0	5	0	
0.00183333	0.00149555	-0.00741001	0.000423214	0.000125483	0	5	0	
0.002	-0.00526312	0.00764798	0.000479019	0.000145434	0	5	0	
0.00216667	-0.00418551	-0.00461068	0.000576041	0.000145218	0	5	0	
0.00233333	0.0131108	0.00567554	0.000663612	0.000121519	0	5	0	
0.0025	-0.012024	-0.00548198	0.00061132	0.000139217	0	5	0	
0.00266667	0.00107188	-0.00313061	0.000410264	0.000188626	0	5	0	
0.00283333	0.000669926	0.00688087	0.000235091	0.000184924	0	5	0	
0.003	-0.00649422	0.00510318	0.000196583	0.000192456	0	5	0	
0.00316667	0.0132384	-0.00748474	0.000231332	0.000139604	0	5	0	
0.00333333	-0.00914854	-0.00253219	0.0003076	0.000162845	0	5	0	
0.0035	-0.00939094	0.00269363	0.000432383	0.000112118	0	5	0	
0.00366667	0.02371	0.00898952	0.000503937	0.000145193	0	5	0	
0.00383333	-0.01829	-0.00743284	0.000529093	0.000154728	0	5	0	
0.004	0.000941093	-0.00944149	0.000386054	0.000257742	0	5	0	
0.00416667	-0.00937043	0.0106774	0.000345759	0.000251849	0	5	0	
0.00433333	0.00614819	-6.82246E-05	0.000303909	0.000250389	0	5	0	
0.0045	0.000475019	-0.00146268	0.000277564	0.000150268	0	5	0	
0.00466667	-0.00662802	-0.00744243	0.000252019	0.000188874	0	5	0	
0.00483333	-0.00617313	0.00356786	0.000353141	0.000168557	0	5	0	
0.005	0.0147317	0.00592589	0.000586569	0.00020863	0	5	0	
0.00516667	-0.031859	-0.009029	0.000766939	0.000141391	0	5	0	
0.00533333	0.0325401	-0.00123394	0.000790242	0.00018025	0	5	0	
0.0055	-0.0250526	0.00114711	0.000679218	0.000130654	0	5	0	
0.00566667	-0.0397555	0.00305456	0.000753772	0.000138293	0	5	0	
0.00583333	0.109019	-0.0078427	0.00094006	9.87576E-05	0	5	0	
0.006	-0.0868441	0.00460308	0.00159397	0.000145716	0	5	0	
0.00616667	0.148442	0.00102489	0.00304505	0.000219935	0	5	0	
0.00633333	-0.0911792	-0.00859724	0.00410792	0.000284046	0	5	0	
0.0065	-0.0267788	0.00547877	0.00356073	0.000265523	0	5	0	
0.00666667	0.0418439	-0.0044736	0.00208213	0.000176507	0	5	0	
0.00683333	-0.0106563	0.0057444	0.000731752	0.000118166	0	5	0	
0.007	-0.0603124	-0.000669454	0.000942119	0.000100007	0	5	0	
0.00716667	0.217751	-0.0161128	0.00148208	0.000155641	0	5	0	
0.00733333	-0.114277	0.0156828	0.00278017	0.000205434	0	5	0	
0.0075	-0.0404699	0.0018219	0.00277078	0.000311726	0	5	0	
0.00766667	0.0109722	-0.0177976	0.00219204	0.000312961	0	5	0	
0.00783333	0.0250202	0.00230562	0.000930426	0.000349436	0	5	0	
0.008	-0.0145614	0.0183307	0.000652636	0.000398709	0	5	0	
0.00816667	-0.00601268	-0.0165943	0.000673618	0.00040739	0	5	0	
0.00833333	0.0267492	-0.0066454	0.000814884	0.000456321	0	5	0	
0.0085	-0.0220635	0.00765992	0.00086655	0.000332388	0	5	0	
0.00866667	-0.00806876	0.00188776	0.000650793	0.000289958	0	5	0	
0.00883333	0.00176785	0.00345311	0.000464193	0.000152349	0	5	0	
0.009	-0.00114793	-0.0181193	0.000387094	0.000173631	0	5	0	
0.00916667	0.0111192	0.00692031	0.000393586	0.000200843	0	5	0	
0.00933333	0.00144207	0.00694872	0.000464451	0.000232167	0	5	0	
0.0095	-0.0469414	0.00164732	0.000824514	0.000216141	0	5	0	
0.00966667	0.088344	-0.0153417	0.00122688	0.00021815	0	5	0	
0.00983333	-0.047435	0.00423386	0.0014542	0.00021278	0	5	0	
0.01	0.00970462	0.0113257	0.00119515	0.000222861	0	5	0	
0.0101667	-0.0255642	-0.0114322	0.000916221	0.000217493	0	5	0	
0.0103333	0.0218984	0.00200492	0.000742632	0.000270023	0	5	0	
0.0105	0.0182879	0.00061898	0.000571007	0.00024711	0	5	0	
0.0106667	-0.00943486	0.000128312	0.000814815	0.000176394	0	5	0	
0.0108333	-0.0278901	0.00310736	0.00153497	8.58681E-05	0	5	0	
0.011	0.057356	-0.000686879	0.0020712	6.02017E-05	0	5	0	
0.0111667	-0.00388677	-0.0114963	0.00182826	0.000152188	0	5	0	
0.0113333	-0.0381895	0.00863558	0.00103572	0.000191219	0	5	0	
0.0115	0.0297982	0.0152499	0.000667154	0.000301409	0	5	0	
0.0116667	-0.029421	-0.0289177	0.000740399	0.000359851	0	5	0	
0.0118333	0.0284403	0.0172974	0.000842567	0.00044883	0	5	0	
0.012	-0.0130589	0.00711552	0.000775289	0.000462489	0	5	0	
0.0121667	0.00130805	-0.0106305	0.00055804	0.000353692	0	5	0	
0.0123333	0.00666431	-0.00305203	0.000368913	0.000318243	0	5	0	
0.0125	-0.0172052	0.0142805	0.000272967	0.000311592	0	5	0	
0.0126667	0.00712459	-0.00480398	0.000273118	0.000363707	0	5	0	
0.0128333	0.000981546	0.000732783	0.000200705	0.000279489	0	5	0	
0.013	-0.00258793	0.00202096	0.000206152	0.000167743	0	5	0	
0.0131667	-0.00879615	0.00356816	0.000261801	8.33844E-05	0	5	0	
0.0133333	0.00857931	0.00285629	0.000339432	7.82691E-05	0	5	0	
0.0135	-0.00948357	-0.0132646	0.000356417	9.92477E-05	0	5	0	
0.0136667	0.0110111	0.0157721	0.00040544	0.00018409	0	5	0	
0.0138333	-0.0164975	0.00508177	0.000493091	0.000303148	0	5	0	
0.014	0.0087222	-0.0152526	0.000481881	0.000319701	0	5	0	
0.0141667	-0.000801416	0.00351911	0.000332719	0.000320546	0	5	0	
0.0143333	-0.000971545	0.0120811	0.000183248	0.000240916	0	5	0	
0.0145	-0.00118148	-0.00398762	0.000193054	0.000259675	0	5	0	
0.0146667	0.000145728	-0.00666504	0.000310938	0.000251966	0	5	0	
0.0148333	-0.00788992	0.0038983	0.000423075	0.000213942	0	5	0	
0.015	0.0109032	0.00302826	0.000445197	0.000156454	0	5	0	
0.0151667	-0.0145363	-0.00240362	0.000407506	9.10569E-05	0	5	0	
0.0153333	0.00824691	0.00473345	0.000341673	0.000113374	0	5	0	
0.0155	-0.00544436	-0.00807767	0.00027185	0.000126764	0	5	0	
0.0156667	0.00210405	0.0111835	0.000262582	0.00016016	0	5	0	
0.0158333	-0.00752815	-0.00759127	0.000292771	0.000176054	0	5	0	
0.016	0.00866995	0.00218461	0.000334744	0.000195457	0	5	0	
0.0161667	-0.00894458	0.00296358	0.000333511	0.000171819	0	5	0	
0.0163333	0.00105819	-0.0026942	0.000272334	0.000131154	0	5	0	
0.0165	0.000918678	0.00258157	0.000207385	8.92291E-05	0	5	0	
0.0166667	-0.00221194	0.00623	0.000203203	0.000100889	0	5	0	
0.0168333	-0.00256769	-0.0104449	0.000260881	0.000128446	0	5	0	
0.017	0.00457816	0.00367436	0.000344109	0.000155637	0	5	0	
0.0171667	-0.0161818	0.00156431	0.000411979	0.000133886	0	5	0	
0.0173333	0.0188324	-0.000181447	0.000431426	8.93602E-05	0	5	0	
0.0175	-0.0226898	-0.00275172	0.000424808	4.98339E-05	0	5	0	
0.0176667	0.0171867	0.000995091	0.000432884	5.34791E-05	0	5	0	
0.0178333	-0.00660265	-0.001334	0.000400439	6.56429E-05	0	5	0	
0.018	-0.000368044	0.000483207	0.000326718	6.78851E-05	0	5	0	
0.0181667	-0.0065175	-0.000236427	0.000264829	5.14073E-05	0	5	0	
0.0183333	0.00936291	-0.0032792	0.000322562	6.53939E-05	0	5	0	
0.0185	-0.0251839	0.000191837	0.000456869	8.71768E-05	0	5	0	
0.0186667	0.0321726	-0.00350215	0.000606875	7.58109E-05	0	5	0	
0.0188333	-0.0257936	0.001325	0.000688925	7.76355E-05	0	5	0	
0.019	0.0115289	0.00374007	0.000632739	9.88579E-05	0	5	0	
0.0191667	-0.00738974	-0.00595075	0.000456599	0.000113256	0	5	0	
0.0193333	0.000152225	-0.0017239	0.000325134	0.000121243	0	5	0	
0.0195	-0.00558153	0.0040383	0.000341663	8.63615E-05	0	5	0	
0.0196667	0.00614415	-0.00724141	0.00040874	0.000108181	0	5	0	
0.0198333	-0.0105829	0.00806289	0.000433402	0.000123849	0	5	0	
0.02	0.00647944	-0.00743118	0.000420493	0.000153475	0	5	0	
0.0201667	-0.011011	0.000225675	0.000404798	0.000139607	0	5	0	
0.0203333	0.00710912	-0.00119597	0.000404905	8.4332E-05	0	5	0	
0.0205	-0.00937679	0.00351784	0.000377075	7.94693E-05	0	5	0	
0.0206667	0.00347261	-0.00370437	0.000341979	8.68684E-05	0	5	0	
0.0208333	-0.000701975	-0.00226876	0.000331219	9.13646E-05	0	5	0	
0.021	-0.0137035	0.00234935	0.000406767	6.99174E-05	0	5	0	
0.0211667	-0.00317937	0.00738887	0.000405668	9.55419E-05	0	5	0	
0.0213333	-0.00228401	-0.00866918	0.000308998	0.000132717	0	5	0	
0.0215	0.0029053	-0.00784412	0.000139854	0.000176874	0	5	0	
0.0216667	0.000437931	0.0166477	0.000143918	0.000201151	0	5	0	
0.0218333	-0.00754451	-0.00504195	0.00026186	0.000227497	0	5	0	
0.022	0.000765746	-0.00134184	0.0003176	0.000192507	0	5	0	
0.0221667	-0.0160001	-0.00564096	0.000285474	0.000126329	0	5	0	
0.0223333	0.0154468	0.00608431	0.000259729	0.000127829	0	5	0	
0.0225	-0.0177128	0.0113942	0.000323081	0.000208973	0	5	0	
0.0226667	0.0102239	-0.0103868	0.000356897	0.00026884	0	5	0	
0.0228333	-0.00600808	-0.00389074	0.000327574	0.000373507	0	5	0	
0.023	0.00688404	0.00449568	0.00031114	0.000298037	0	5	0	
0.0231667	-0.0179698	0.010391	0.000365493	0.000293462	0	5	0	
0.0233333	0.0156622	-0.00538005	0.000435601	0.000179332	0	5	0	
0.0235	-0.0105109	-0.0131504	0.000417326	0.000287941	0	5	0	
0.0236667	0.000683779	0.011961	0.000315165	0.000275252	0	5	0	
0.0238333	-0.00393053	0.00776962	0.000239616	0.000363892	0	5	0	
0.024	0.00832346	-0.0130914	0.000271479	0.000334324	0	5	0	
0.0241667	-0.011398	0.00457838	0.000355187	0.000313931	0	5	0	
0.0243333	0.00433754	-0.000883527	0.000378028	0.000201434	0	5	0	
0.0245	-0.00812451	0.00426269	0.000325628	0.000121657	0	5	0	
0.0246667	0.00491416	-0.00954046	0.00029813	0.000127845	0	5	0	
0.0248333	-0.0135578	0.00432918	0.000324032	0.000136705	0	5	0	
0.025	0.0119147	0.00146595	0.000395769	0.000118721	0	5	0	
0.0251667	-0.0127866	0.00580648	0.000404279	0.000147893	0	5	0	
0.0253333	0.00739154	-0.0185373	0.000372878	0.000210905	0	5	0	
0.0255	-0.0135128	0.00345601	0.000342164	0.000263691	0	5	0	
0.0256667	0.00821964	0.0206882	0.000362123	0.000289046	0	5	0	
0.0258333	-0.0101541	-0.0184703	0.000367562	0.00030226	0	5	0	
0.026	0.00088045	-0.0096651	0.000345295	0.000474698	0	5	0	
0.0261667	-0.00717122	0.0185347	0.000313629	0.00051937	0	5	0	
0.0263333	0.00722693	0.00277084	0.000351384	0.000454473	0	5	0	
0.0265	-0.0126157	-0.0147847	0.00039824	0.000260936	0	5	0	
0.0266667	0.00884756	0.00202512	0.000422205	0.000181049	0	5	0	
0.0268333	-0.00902143	0.00154834	0.00038008	0.000134559	0	5	0	
0.027	0.00274148	0.00738724	0.000315265	0.000140519	0	5	0	
0.0271667	-0.00766522	-0.00524266	0.0002714	0.00011889	0	5	0	
0.0273333	0.00606504	-0.00440446	0.000290223	0.000194166	0	5	0	
0.0275	-0.00519594	0.0091863	0.000318649	0.000169103	0	5	0	
0.0276667	0.00251959	-0.00416958	0.000343255	0.00020004	0	5	0	
0.0278333	-0.00861545	0.00155341	0.000373969	0.000159646	0	5	0	
0.028	0.0129639	-0.00026935	0.00042919	0.000145999	0	5	0	
0.0281667	-0.0178332	0.000917863	0.000453557	7.70759E-05	0	5	0	
0.0283333	0.00960675	0.00929771	0.00040332	7.63929E-05	0	5	0	
0.0285	-0.00499813	-0.0169127	0.000310934	0.000139872	0	5	0	
0.0286667	0.00384696	0.0120592	0.000254425	0.000268562	0	5	0	
0.0288333	-0.0067558	0.00655485	0.00027365	0.000423226	0	5	0	
0.029	0.00526459	-0.0117522	0.000342617	0.000473444	0	5	0	
0.0291667	-0.00889496	0.00988743	0.000398257	0.000398438	0	5	0	
0.0293333	0.0106503	-0.00729809	0.000423033	0.000249757	0	5	0	
0.0295	-0.0136962	0.00826773	0.00042652	0.000193062	0	5	0	
0.0296667	0.0124445	0.00390023	0.000407011	0.000231395	0	5	0	
0.0298333	-0.00879609	-0.00445105	0.000363778	0.000224051	0	5	0	
0.03	0.00301857	-0.00320107	0.000318259	0.000192761	0	5	0	
0.0301667	-0.00681094	0.00430726	0.000332866	0.00014153	0	5	0	
0.0303333	0.0105279	0.000443617	0.000389644	0.000121775	0	5	0	
0.0305	-0.0100533	0.00233226	0.000432091	0.000131293	0	5	0	
0.0306667	0.00635972	-0.00147683	0.000417094	0.000150011	0	5	0	
0.0308333	-0.0113005	-0.00162136	0.000395116	0.000151898	0	5	0	
0.031	0.0128654	0.00569017	0.000401296	0.000157546	0	5	0	
0.0311667	-0.0117452	-0.0010181	0.000394154	0.000202246	0	5	0	
0.0313333	0.00227725	-0.000399504	0.000333003	0.00024456	0	5	0	
0.0315	-0.00240128	-0.00534363	0.000275579	0.000208901	0	5	0	
0.0316667	0.0045696	0.00397145	0.000292604	0.000147681	0	5	0	
0.0318333	-0.0109437	0.00896365	0.00034453	0.000147432	0	5	0	
0.032	0.00953485	-0.00417708	0.000390628	0.000173638	0	5	0	
0.0321667	-0.0150723	-0.00924122	0.000410212	0.000238456	0	5	0	
0.0323333	0.0130438	0.00760528	0.000420618	0.000210106	0	5	0	
0.0325	-0.00948707	0.00843606	0.000382824	0.000250427	0	5	0	
0.0326667	0.00474584	-0.0119056	0.000308281	0.000205642	0	5	0	
0.0328333	-0.010459	0.00628851	0.0002859	0.000215458	0	5	0	
0.033	0.00932523	-0.00623927	0.00033487	0.000172795	0	5	0	
0.0331667	-0.0124324	0.00650634	0.000383754	0.000143193	0	5	0	
0.0333333	0.00882181	-0.0014203	0.000377603	0.000117324	0	5	0	
0.0335	-0.00764146	-0.00404109	0.000333557	9.14033E-05	0	5	0	
0.0336667	0.00642043	0.000563556	0.000318023	0.000107599	0	5	0	
0.0338333	-0.0101597	0.00285532	0.000354518	0.000138505	0	5	0	
0.034	0.0120117	3.63811E-05	0.000414791	0.000128547	0	5	0	
0.0341667	-0.0192065	-0.00970173	0.000440682	0.000119534	0	5	0	
0.0343333	0.00685156	0.0182671	0.000409463	0.000144202	0	5	0	
0.0345	-0.000587848	-0.0114135	0.000339333	0.000247674	0	5	0	
0.0346667	0.00281318	-0.00526697	0.000322598	0.000349889	0	5	0	
0.0348333	-0.00510977	0.0139739	0.000300367	0.000368874	0	5	0	
0.035	0.00188461	-0.0062215	0.000281973	0.000326986	0	5	0	
0.0351667	-0.00872034	0.00765708	0.000294426	0.000216742	0	5	0	
0.0353333	0.0113276	-0.00391194	0.000375303	0.000146275	0	5	0	
0.0355	-0.0105375	-0.00362808	0.000414844	0.000155215	0	5	0	
0.0356667	0.00509641	0.0146668	0.000357018	0.000205516	0	5	0	
0.0358333	-0.0116347	-0.0130139	0.000277489	0.000255338	0	5	0	
0.036	0.0161503	0.00724989	0.000288144	0.000286506	0	5	0	
0.0361667	-0.0141753	3.56566E-05	0.000339079	0.000280302	0	5	0	
0.0363333	0.0060212	0.000275152	0.000340645	0.000243917	0	5	0	
0.0365	-0.00821275	-0.00107683	0.00030658	0.000151416	0	5	0	
0.0366667	0.00626039	0.00360569	0.000295301	8.43759E-05	0	5	0	
0.0368333	-0.00954624	-0.00363933	0.000320537	6.11508E-05	0	5	0	
0.037	0.00732614	0.00284764	0.000373654	7.43173E-05	0	5	0	
0.0371667	-0.0124004	-0.00331431	0.000415191	9.59212E-05	0	5	0	
0.0373333	0.00866464	0.00310093	0.000439283	0.000110518	0	5	0	
0.0375	-0.0140157	-0.0019908	0.000420857	9.31263E-05	0	5	0	
0.0376667	0.00874995	0.00528284	0.000406511	9.43874E-05	0	5	0	
0.0378333	-0.0115695	-0.00829863	0.000389562	0.000127849	0	5	0	
0.038	0.00710568	0.0103085	0.000379702	0.000164479	0	5	0	
0.0381667	-0.00871707	-0.00491969	0.000345802	0.000193009	0	5	0	
0.0383333	0.00502483	-0.00233098	0.000333941	0.000182259	0	5	0	
0.0385	-0.0112244	0.00379612	0.000334218	0.00014653	0	5	0	
0.0386667	0.008067	0.00150958	0.000354864	0.000109843	0	5	0	
0.0388333	-0.00883501	0.000240165	0.000356945	9.59931E-05	0	5	0	
0.039	0.00864774	0.00602793	0.000367718	0.000145183	0	5	0	
0.0391667	-0.0135063	-0.014169	0.000370877	0.000184713	0	5	0	
0.0393333	0.00799227	0.0125364	0.000378804	0.000217515	0	5	0	
0.0395	-0.0123838	-0.0104658	0.000369454	0.000237299	0	5	0	
0.0396667	0.0100685	0.00870452	0.000377979	0.000247353	0	5	0	
0.0398333	-0.0113792	-0.00154564	0.00037526	0.000242445	0	5	0	
0.04	0.00641064	-0.00617453	0.000382529	0.00021733	0	5	0	
0.0401667	-0.0130308	0.00645323	0.000380976	0.000171446	0	5	0	
0.0403333	0.00998097	-0.00313525	0.000413376	0.00017701	0	5	0	
0.0405	-0.013028	-0.00555393	0.000414493	0.000214449	0	5	0	
0.0406667	0.00659458	0.0110352	0.000401679	0.00029518	0	5	0	
0.0408333	-0.0126117	-0.016275	0.00036427	0.000321679	0	5	0	
0.041	0.00714895	0.0076997	0.000372923	0.000299232	0	5	0	
0.0411667	-0.0140091	0.0040518	0.000366317	0.000247728	0	5	0	
0.0413333	0.0064898	-0.010885	0.000381543	0.000181558	0	5	0	
0.0415	-0.0113435	0.00603806	0.000367519	0.000170409	0	5	0	
0.0416667	0.00835422	-0.0019932	0.000385917	0.00018193	0	5	0	
0.0418333	-0.013983	-0.00520794	0.000371954	0.000196432	0	5	0	
0.042	0.00710519	0.00374462	0.000375602	0.000167326	0	5	0	
0.0421667	-0.0126189	1.59833E-05	0.000365853	0.000128394	0	5	0	
0.0423333	0.00785542	-0.00731285	0.000402119	0.000169965	0	5	0	
0.0425	-0.014694	0.0183153	0.000419583	0.000276212	0	5	0	
0.0426667	0.00949376	-0.0241656	0.000436981	0.000382799	0	5	0	
0.0428333	-0.0135554	0.0108861	0.000400383	0.000395157	0	5	0	
0.043	0.00829352	0.00329988	0.000377475	0.000313468	0	5	0	
0.0431667	-0.0107885	-0.00138493	0.000340519	0.000229027	0	5	0	
0.0433333	0.00464219	-0.00946212	0.000317613	0.000273406	0	5	0	
0.0435	-0.00791895	0.00941336	0.00029035	0.00029276	0	5	0	
0.0436667	0.00524333	0.00760407	0.000320371	0.000293399	0	5	0	
0.0438333	-0.0150533	-0.0169839	0.000371557	0.000211777	0	5	0	
0.044	0.0113475	0.00765668	0.000416289	0.000244952	0	5	0	
0.0441667	-0.0108933	0.00189902	0.000389803	0.00025132	0	5	0	
0.0443333	0.00794312	0.00983231	0.000362487	0.00020797	0	5	0	
0.0445	-0.0145104	-0.0148776	0.000366144	0.000180133	0	5	0	
0.0446667	0.00985593	-0.00365902	0.000399373	0.000271663	0	5	0	
0.0448333	-0.00712328	0.016164	0.000389489	0.000329842	0	5	0	
0.045	0.00769009	0.00282742	0.000365365	0.000371901	0	5	0	
0.0451667	-0.013681	-0.0170724	0.000354619	0.000308351	0	5	0	
0.0453333	0.00999399	0.00129442	0.00037198	0.00034582	0	5	0	
0.0455	-0.0112481	0.0145827	0.000366106	0.000338906	0	5	0	
0.0456667	0.00632761	-0.00441833	0.000352167	0.000318146	0	5	0	
0.0458333	-0.00543167	-0.00591632	0.000333486	0.000289412	0	5	0	
0.046	0.00725841	0.00192815	0.000335299	0.000187568	0	5	0	
0.0461667	-0.0105393	0.0035599	0.000344292	0.000132889	0	5	0	
0.0463333	0.00803176	0.00250068	0.000362504	0.000150085	0	5	0	
0.0465	-0.011005	-0.00813769	0.000380184	0.000236118	0	5	0	
0.0466667	0.00878318	0.00852792	0.00040214	0.000264783	0	5	0	
0.0468333	-0.0122312	-0.00703053	0.000408737	0.000201454	0	5	0	
0.047	0.00756463	0.00657222	0.00039317	0.000169336	0	5	0	
0.0471667	-0.0100405	0.00445187	0.000346211	0.000222222	0	5	0	
0.0473333	0.00907325	-0.0159906	0.000326686	0.000275936	0	5	0	
0.0475	-0.011613	0.0149076	0.000334831	0.00029256	0	5	0	
0.0476667	0.0100811	-0.00243738	0.000368473	0.000258945	0	5	0	
0.0478333	-0.0125523	-0.000131201	0.000383774	0.000171845	0	5	0	
0.048	0.00731577	-0.00340423	0.000379558	0.000123093	0	5	0	
0.0481667	-0.0114863	0.00347268	0.000344303	8.38842E-05	0	5	0	
0.0483333	0.00753835	0.00186056	0.000334243	8.76241E-05	0	5	0	
0.0485	-0.0108452	0.00206315	0.000339063	6.78682E-05	0	5	0	
0.0486667	0.00916271	-0.00321032	0.000372642	7.25035E-05	0	5	0	
0.0488333	-0.00896432	-0.00250862	0.000371465	7.60962E-05	0	5	0	
0.049	0.00511787	0.0114703	0.000378438	0.000103369	0	5	0	
0.0491667	-0.0167189	-0.00899465	0.000405131	0.00014348	0	5	0	
0.0493333	0.0176691	0.000849889	0.000460981	0.000256429	0	5	0	
0.0495	-0.0174226	0.0128689	0.000456922	0.000352809	0	5	0	
0.0496667	0.00659245	-0.0159299	0.000399021	0.000359799	0	5	0	
0.0498333	-0.00750098	0.00485092	0.000326726	0.000350939	0	5	0	
0.05	0.00725307	0.00640041	0.000331054	0.00032977	0	5	0	
0.0501667	-0.011555	0.0031933	0.000342181	0.000281294	0	5	0	
0.0503333	0.00742887	-0.00740716	0.000364218	0.000219027	0	5	0	
0.0505	-0.0134183	-0.00437412	0.000385965	0.000138053	0	5	0	
0.0506667	0.0136537	0.00758945	0.000446922	0.000142108	0	5	0	
0.0508333	-0.0138982	0.0150361	0.000454179	0.000221591	0	5	0	
0.051	0.00968812	-0.0254889	0.000403202	0.000314798	0	5	0	
0.0511667	-0.0112364	0.00349566	0.00032718	0.000392898	0	5	0	
0.0513333	0.00866351	0.0148794	0.000316172	0.000314401	0	5	0	
0.0515	-0.0108825	-0.0026146	0.000346395	0.000283086	0	5	0	
0.0516667	0.00867354	-0.00932065	0.000388633	0.000279165	0	5	0	
0.0518333	-0.0105252	0.00550308	0.000399208	0.0002523	0	5	0	
0.052	0.0119457	0.00181332	0.000404171	0.000179834	0	5	0	
0.0521667	-0.0133126	0.00501633	0.000405411	0.000131973	0	5	0	
0.0523333	0.00940632	-0.011724	0.000411438	0.000170089	0	5	0	
0.0525	-0.0115069	0.00706625	0.000390805	0.000199617	0	5	0	
0.0526667	0.00728759	0.00533414	0.000360276	0.000172291	0	5	0	
0.0528333	-0.0101701	-0.00071109	0.000323983	0.000155025	0	5	0	
0.053	0.00937772	-0.00882557	0.00033114	0.000189936	0	5	0	
0.0531667	-0.0110048	0.00559896	0.000341801	0.000193761	0	5	0	
0.0533333	0.00664993	0.0117946	0.000364458	0.000209186	0	5	0	
0.0535	-0.0113479	-0.0124094	0.000375216	0.000184601	0	5	0	
0.0536667	0.0125823	0.00166771	0.000413656	0.000292017	0	5	0	
0.0538333	-0.0197448	0.00324625	0.000439303	0.000307546	0	5	0	
0.054	0.0118275	0.00464199	0.000444546	0.00025729	0	5	0	
0.0541667	-0.0116577	-0.00420128	0.000392346	0.000152611	0	5	0	
0.0543333	0.00740498	-0.00273876	0.000356472	0.000112556	0	5	0	
0.0545	-0.00873098	-0.00247847	0.000325427	0.000134804	0	5	0	
0.0546667	0.00663085	0.0136788	0.00033539	0.000163279	0	5	0	
0.0548333	-0.0152485	-0.00843935	0.000351609	0.00018629	0	5	0	
0.055	0.0118606	-0.00405427	0.000397607	0.000233613	0	5	0	
0.0551667	-0.0144281	0.00707252	0.00039828	0.000198457	0	5	0	
0.0553333	0.00948945	0.000354881	0.000384643	0.000167989	0	5	0	
0.0555	-0.0106635	0.00130023	0.000352504	9.05856E-05	0	5	0	
0.0556667	0.0101845	-0.00270774	0.000377066	6.89087E-05	0	5	0	
0.0558333	-0.0172453	-0.000658371	0.000393502	4.82607E-05	0	5	0	
0.056	0.0128282	0.00501215	0.000415856	5.51946E-05	0	5	0	
0.0561667	-0.0156277	-0.00103786	0.000395239	8.44126E-05	0	5	0	
0.0563333	0.0126449	0.000896124	0.000400845	0.000132668	0	5	0	
0.0565	-0.0106841	0.000834492	0.000376888	0.00015151	0	5	0	
0.0566667	0.00640382	0.00141263	0.000371016	0.000124161	0	5	0	
0.0568333	-0.0133753	0.000509959	0.000346155	6.54194E-05	0	5	0	
0.057	0.012802	0.000656379	0.000362915	4.88284E-05	0	5	0	
0.0571667	-0.0152544	-0.00115047	0.000380634	5.0122E-05	0	5	0	
0.0573333	0.0103606	0.00767303	0.000408683	7.20845E-05	0	5	0	
0.0575	-0.0121006	-0.00711649	0.000394162	9.76266E-05	0	5	0	
0.0576667	0.0110656	0.00168803	0.00037749	0.000144109	0	5	0	
0.0578333	-0.0145694	0.00693996	0.000350529	0.000199826	0	5	0	
0.058	0.00987882	-0.00484345	0.000349163	0.000197993	0	5	0	
0.0581667	-0.0129375	-0.000167602	0.00034688	0.000151818	0	5	0	
0.0583333	0.0083423	0.00152616	0.0003687	8.36206E-05	0	5	0	
0.0585	-0.0153279	0.00430648	0.000379557	6.85592E-05	0	5	0	
0.0586667	0.0134225	0.00117559	0.000402074	7.37053E-05	0	5	0	
0.0588333	-0.0143552	-0.00961917	0.000396256	9.9098E-05	0	5	0	
0.059	0.0119258	0.0080562	0.000390948	0.000118644	0	5	0	
0.0591667	-0.0170268	-0.000504813	0.000380912	0.000166761	0	5	0	
0.0593333	0.00972983	-0.00136508	0.000374382	0.000169597	0	5	0	
0.0595	-0.013355	0.00220208	0.000346754	0.000130888	0	5	0	
0.0596667	0.00859061	-0.00136402	0.000346525	7.79754E-05	0	5	0	
0.0598333	-0.0137311	0.00705889	0.000354209	7.24428E-05	0	5	0	
0.06	0.0135366	-0.0095574	0.00039574	0.000115494	0	5	0	
0.0601667	-0.0161472	0.00322468	0.000420409	0.000143242	0	5	0	
0.0603333	0.0115127	0.00568729	0.000433336	0.000145073	0	5	0	
0.0605	-0.0139686	-0.00493527	0.000403299	0.000115699	0	5	0	
0.0606667	0.00530961	0.00603984	0.000354294	0.000134778	0	5	0	
0.0608333	-0.0127526	0.00232464	0.000326395	0.000217009	0	5	0	
0.061	0.0135923	-0.0186215	0.000365992	0.000372523	0	5	0	
0.0611667	-0.0116082	0.0234622	0.00038877	0.000436065	0	5	0	
0.0613333	0.00745945	-0.000712589	0.000372329	0.000458914	0	5	0	
0.0615	-0.0142518	-0.0236557	0.000335234	0.000414348	0	5	0	
0.0616667	0.0136205	0.0116717	0.000329717	0.000417433	0	5	0	
0.0618333	-0.0148895	0.0100313	0.000349697	0.000452039	0	5	0	
0.062	0.00530427	-0.0089882	0.000350696	0.00037698	0	5	0	
0.0621667	-0.0115949	-0.00423954	0.000351054	0.00027906	0	5	0	
0.0623333	0.0141365	-0.0014064	0.000380613	0.000163307	0	5	0	
0.0625	-0.0148841	0.00756328	0.000412576	0.000153642	0	5	0	
0.0626667	0.0116978	0.00681104	0.000422408	0.000243684	0	5	0	
0.0628333	-0.0122891	-0.0236273	0.000396122	0.00027628	0	5	0	
0.063	0.0080425	0.00299104	0.000389652	0.000394605	0	5	0	
0.0631667	-0.0162659	0.0237754	0.000385529	0.000507442	0	5	0	
0.0633333	0.00779807	-0.0147783	0.000386644	0.000502872	0	5	0	
0.0635	-0.00682064	-0.00770046	0.00033028	0.000471606	0	5	0	
0.0636667	0.00595102	0.00587225	0.000320638	0.000278218	0	5	0	
0.0638333	-0.0149077	0.0133366	0.000334197	0.00033112	0	5	0	
0.064	0.0132603	-0.0126435	0.000389122	0.000265048	0	5	0	
0.0641667	-0.0130629	-0.0051648	0.000375173	0.000307651	0	5	0	
0.0643333	0.0060283	0.0102921	0.000351421	0.000207044	0	5	0	
0.0645	-0.013412	-0.00284979	0.000327028	0.00022052	0	5	0	
0.0646667	0.0108247	-0.00173732	0.000354018	0.000212941	0	5	0	
0.0648333	-0.0159369	0.0018203	0.0003619	0.000212893	0	5	0	
0.065	0.0132928	-0.0022371	0.000394134	0.000173176	0	5	0	
0.0651667	-0.0169086	0.000800735	0.000412777	0.000115075	0	5	0	
0.0653333	0.0114529	0.00239156	0.000426997	7.52309E-05	0	5	0	
0.0655	-0.0112354	-6.01013E-05	0.000382219	6.16874E-05	0	5	0	
0.0656667	0.00983494	-0.00208208	0.000353642	0.000100675	0	5	0	
0.0658333	-0.013962	-4.43745E-06	0.000358756	0.00012722	0	5	0	
0.066	0.0106335	0.000722387	0.000402265	0.000133437	0	5	0	
0.0661667	-0.0126693	0.00723715	0.000410019	0.000114249	0	5	0	
0.0663333	0.00982082	-0.00304205	0.000394137	0.000115826	0	5	0	
0.0665	-0.0124422	-0.00566515	0.000359989	0.000136705	0	5	0	
0.0666667	0.00910338	0.00467308	0.000345444	0.000147412	0	5	0	
0.0668333	-0.00983526	0.00648009	0.000326642	0.000206163	0	5	0	
0.067	0.00785806	-0.00295278	0.000339849	0.000163878	0	5	0	
0.0671667	-0.0125046	-0.00141439	0.000358853	0.000158471	0	5	0	
0.0673333	0.0132619	-0.00665366	0.000386988	0.000154871	0	5	0	
0.0675	-0.0160641	0.0273333	0.000386273	0.000299705	0	5	0	
0.0676667	0.0120054	-0.0190711	0.000379102	0.000385422	0	5	0	
0.0678333	-0.0141897	-0.00725572	0.00036161	0.0004553	0	5	0	
0.068	0.00933386	0.0124394	0.000365012	0.000347462	0	5	0	
0.0681667	-0.0103268	0.00819318	0.000337929	0.000368673	0	5	0	
0.0683333	0.00797489	-0.00761247	0.000332187	0.000277908	0	5	0	
0.0685	-0.0153125	-0.0048276	0.000343275	0.000249206	0	5	0	
0.0686667	0.0165495	-0.00148963	0.000403608	0.000216596	0	5	0	
0.0688333	-0.0147837	0.0196297	0.000418529	0.000309161	0	5	0	
0.069	0.00556196	-0.00632919	0.000384068	0.000354159	0	5	0	
0.0691667	-0.0105313	-0.0214403	0.000323946	0.00042265	0	5	0	
0.0693333	0.0107549	0.0231164	0.000338773	0.000386226	0	5	0	
0.0695	-0.0171301	-0.000352703	0.000374726	0.000506116	0	5	0	
0.0696667	0.0138564	-0.013433	0.000419919	0.000466037	0	5	0	
0.0698333	-0.01633	0.00527782	0.00041366	0.000404707	0	5	0	
0.07	0.0135464	-0.00218734	0.000413939	0.000230142	0	5	0	
0.0701667	-0.0161999	0.00633493	0.000387535	0.000108346	0	5	0	
0.0703333	0.00836981	-0.00280454	0.000368838	9.69126E-05	0	5	0	
0.0705	-0.0113283	-0.00678839	0.000331916	0.000161943	0	5	0	
0.0706667	0.00803623	0.00609059	0.000342452	0.000170572	0	5	0	
0.0708333	-0.0129343	-0.00128571	0.000347412	0.000183352	0	5	0	
0.071	0.00928774	-0.00485869	0.000372358	0.000159464	0	5	0	
0.0711667	-0.0142129	0.00448553	0.000378202	0.000149789	0	5	0	
0.0713333	0.0141207	-0.000905016	0.000403203	0.000125028	0	5	0	
0.0715	-0.0179076	-0.00647082	0.000409914	0.000144134	0	5	0	
0.0716667	0.0103561	0.00818377	0.000400268	0.000166859	0	5	0	
0.0718333	-0.0136603	-0.00353404	0.000357332	0.000190576	0	5	0	
0.072	0.0104753	-0.00342441	0.000339579	0.000190485	0	5	0	
0.0721667	-0.0128008	0.00108637	0.0003335	0.000172975	0	5	0	
0.0723333	0.0104888	-0.00237086	0.000363774	0.000126365	0	5	0	
0.0725	-0.0156438	0.0105299	0.000376904	0.000109652	0	5	0	
0.0726667	0.012195	-0.0101148	0.000391738	0.000154776	0	5	0	
0.0728333	-0.012043	-0.000287919	0.000363744	0.000163107	0	5	0	
0.073	0.00685376	0.00552422	0.000346435	0.000130016	0	5	0	
0.0731667	-0.0117643	-0.00295135	0.0003281	9.20172E-05	0	5	0	
0.0733333	0.010871	-0.00364994	0.000358197	0.00010028	0	5	0	
0.0735	-0.0171539	0.00235365	0.00037435	9.43037E-05	0	5	0	
0.0736667	0.0127379	0.00317227	0.000396055	7.68287E-05	0	5	0	
0.0738333	-0.0134822	-0.00160494	0.000376901	6.4528E-05	0	5	0	
0.074	0.0111191	0.00347083	0.000374493	5.66967E-05	0	5	0	
0.0741667	-0.0141254	-0.00460977	0.000351254	6.15443E-05	0	5	0	
0.0743333	0.00818566	0.000575092	0.000357827	6.86121E-05	0	5	0	
0.0745	-0.0131521	0.00641753	0.000354213	0.000119747	0	5	0	
0.0746667	0.0112953	-0.0111424	0.000380844	0.000165431	0	5	0	
0.0748333	-0.0165676	0.00797175	0.000384477	0.000189494	0	5	0	
0.075	0.012279	3.22526E-05	0.000401495	0.00017964	0	5	0	
0.0751667	-0.0160576	-0.00335901	0.000387085	0.00015723	0	5	0	
0.0753333	0.00920084	0.00305096	0.000384969	0.000131577	0	5	0	
0.0755	-0.0132417	-0.00343223	0.000340397	9.08057E-05	0	5	0	
0.0756667	0.010069	0.00314458	0.00032425	0.000102849	0	5	0	
0.0758333	-0.0140199	0.00356842	0.000312977	0.000173221	0	5	0	
0.076	0.00728213	-0.0116597	0.000346325	0.000253677	0	5	0	
0.0761667	-0.0153959	0.014924	0.000361685	0.000281187	0	5	0	
0.0763333	0.0126886	-0.0114151	0.000406414	0.000259408	0	5	0	
0.0765	-0.0191913	-0.00108696	0.000418322	0.000265139	0	5	0	
0.0766667	0.0136839	0.0154446	0.000429605	0.000302605	0	5	0	
0.0768333	-0.0147891	-0.0200482	0.000390664	0.000353757	0	5	0	
0.077	0.0112318	0.0152469	0.000383473	0.000358062	0	5	0	
0.0771667	-0.0181185	0.00209433	0.00037717	0.000355743	0	5	0	
0.0773333	0.00942788	-0.016535	0.000385047	0.000350176	0	5	0	
0.0775	-0.00916281	0.0174895	0.000336513	0.000347435	0	5	0	
0.0776667	0.00727935	-0.00459898	0.000338971	0.00034262	0	5	0	
0.0778333	-0.0190777	0.00306987	0.000384227	0.000302468	0	5	0	
0.078	0.0184368	-0.00603284	0.000471138	0.000242462	0	5	0	
0.0781667	-0.0185329	0.00356383	0.000481826	0.0001639	0	5	0	
0.0783333	0.0167094	-0.00111313	0.000469735	9.81779E-05	0	5	0	
0.0785	-0.0195596	0.00921504	0.000448107	0.00010178	0	5	0	
0.0786667	0.00916405	-0.00809204	0.000430296	0.000117686	0	5	0	
0.0788333	-0.00799837	0.000116717	0.000356841	0.000146475	0	5	0	
0.079	0.0090844	0.00191003	0.000349648	0.000122381	0	5	0	
0.0791667	-0.0168698	0.00787777	0.000396591	0.000141455	0	5	0	
0.0793333	0.016872	-0.00907678	0.000479215	0.000151725	0	5	0	
0.0795	-0.0147251	0.00670761	0.00048164	0.000182733	0	5	0	
0.0796667	0.0102371	-0.00901803	0.000428465	0.000159621	0	5	0	
0.0798333	-0.0113234	0.00440638	0.000360698	0.000162947	0	5	0	
0.08	0.00741857	0.00918425	0.000346586	0.000220382	0	5	0	
0.0801667	-0.0152608	-0.00693103	0.000365066	0.000205303	0	5	0	
0.0803333	0.0159556	-0.00612183	0.000409813	0.000258018	0	5	0	
0.0805	-0.0178358	0.010181	0.000423048	0.000208975	0	5	0	
0.0806667	0.0137634	-0.00155682	0.000424143	0.000235112	0	5	0	
0.0808333	-0.0114905	0.00318607	0.000382911	0.000145703	0	5	0	
0.081	0.00485504	-0.0117349	0.000327158	0.000171416	0	5	0	
0.0811667	-0.00604841	0.00215902	0.00027521	0.000150311	0	5	0	
0.0813333	0.00697241	0.0213392	0.000300817	0.000214669	0	5	0	
0.0815	-0.018107	-0.0189482	0.000369835	0.000260519	0	5	0	
0.0816667	0.0172248	-0.00946348	0.000447971	0.000453678	0	5	0	
0.0818333	-0.0149376	0.0245914	0.000445454	0.000529248	0	5	0	
0.082	0.0131939	-0.00500987	0.000404855	0.000483995	0	5	0	
0.0821667	-0.0132553	-0.00964214	0.000346539	0.000352176	0	5	0	
0.0823333	0.00881764	0.00870644	0.000318368	0.00027152	0	5	0	
0.0825	-0.00926507	-0.00809616	0.000297057	0.00027848	0	5	0	
0.0826667	0.0114237	0.0172233	0.000300168	0.000254406	0	5	0	
0.0828333	-0.0134609	-0.00980832	0.000315493	0.000273183	0	5	0	
0.083	0.0113597	-0.00520549	0.000331625	0.000339004	0	5	0	
0.0831667	-0.00887701	0.0158536	0.000331482	0.000327921	0	5	0	
0.0833333	0.00625199	-0.00653707	0.000328174	0.000318351	0	5	0	
0.0835	-0.0116265	0.000244255	0.000320651	0.000232851	0	5	0	
0.0836667	0.0152531	0.00536803	0.000333099	0.000181189	0	5	0	
0.0838333	-0.0179033	-0.00704395	0.000357881	0.000130636	0	5	0	
0.084	0.0166029	0.00980277	0.000395813	0.000110849	0	5	0	
0.0841667	-0.0130118	0.00114862	0.000403625	0.000156266	0	5	0	
0.0843333	0.00860385	-0.00798859	0.000375947	0.000184715	0	5	0	
0.0845	-0.0146418	0.00563058	0.000335947	0.00016979	0	5	0	
0.0846667	0.0123819	0.0044862	0.000334992	0.00015743	0	5	0	
0.0848333	-0.0144319	-0.00378194	0.000345615	0.000111554	0	5	0	
0.085	0.013844	0.00419891	0.000386345	0.000109012	0	5	0	
0.0851667	-0.0162812	-0.00086246	0.000406977	7.82733E-05	0	5	0	
0.0853333	0.0109525	0.000365232	0.000423709	6.5252E-05	0	5	0	
0.0855	-0.0143783	0.00110194	0.000385873	5.09983E-05	0	5	0	
0.0856667	0.00955676	0.00661656	0.000352228	8.5998E-05	0	5	0	
0.0858333	-0.013894	-0.0124668	0.0003315	0.000126147	0	5	0	
0.086	0.0110068	0.00254685	0.000359798	0.000197541	0	5	0	
0.0861667	-0.0137405	0.00557313	0.000362145	0.000164936	0	5	0	
0.0863333	0.0123422	0.0120243	0.000382802	0.000267479	0	5	0	
0.0865	-0.0190205	-0.0162519	0.000388601	0.000280004	0	5	0	
0.0866667	0.0153818	-0.00478947	0.00041623	0.000346491	0	5	0	
0.0868333	-0.0171224	0.00600189	0.00040321	0.000230789	0	5	0	
0.087	0.0109125	0.0167824	0.000387566	0.000308753	0	5	0	
0.0871667	-0.0160445	-0.0165656	0.000362399	0.000316384	0	5	0	
0.0873333	0.013951	-0.00925958	0.000385108	0.000431508	0	5	0	
0.0875	-0.0146512	0.0126076	0.000388509	0.000303206	0	5	0	
0.0876667	0.00937377	0.00653305	0.000396204	0.000361653	0	5	0	
0.0878333	-0.0136505	-0.00515976	0.000374711	0.000244191	0	5	0	
0.088	0.0129404	-0.00941207	0.000388077	0.000302185	0	5	0	
0.0881667	-0.0167729	0.00805986	0.000389291	0.000199917	0	5	0	
0.0883333	0.0111221	0.00546225	0.000396468	0.000259495	0	5	0	
0.0885	-0.0150983	-0.00737563	0.000365482	0.000209078	0	5	0	
0.0886667	0.0109043	-9.76076E-05	0.000355566	0.00018477	0	5	0	
0.0888333	-0.0138721	0.00678981	0.000326327	0.000117811	0	5	0	
0.089	0.0137111	-0.0050921	0.000338363	9.32788E-05	0	5	0	
0.0891667	-0.0156776	0.00789029	0.000344937	0.000111104	0	5	0	
0.0893333	0.0111638	-0.00668134	0.000371804	0.000120665	0	5	0	
0.0895	-0.0171577	0.00774956	0.000359615	0.000141108	0	5	0	
0.0896667	0.0125566	-0.00869503	0.000370797	0.000149937	0	5	0	
0.0898333	-0.0160543	0.0102645	0.000355794	0.000176943	0	5	0	
0.09	0.0132662	0.00190307	0.000378341	0.000150725	0	5	0	
0.0901667	-0.012383	-0.00415669	0.000356156	0.000126393	0	5	0	
0.0903333	0.0113254	-0.000632801	0.000354737	0.00016263	0	5	0	
0.0905	-0.0158207	0.010493	0.000337238	0.000225625	0	5	0	
0.0906667	0.0107801	-0.00608857	0.000351754	0.000250283	0	5	0	
0.0908333	-0.0145724	0.00433304	0.000343145	0.000183938	0	5	0	
0.091	0.0119707	-0.00317377	0.000354487	0.000119885	0	5	0	
0.0911667	-0.0153579	0.0077887	0.000338207	9.73883E-05	0	5	0	
0.0913333	0.0146976	-0.00568989	0.000362496	0.000104857	0	5	0	
0.0915	-0.0148505	0.0126983	0.000355984	0.000129067	0	5	0	
0.0916667	0.0119473	-0.0170735	0.000374055	0.000203085	0	5	0	
0.0918333	-0.0182897	0.0142515	0.000368302	0.000255744	0	5	0	
0.092	0.014487	-0.00420132	0.000388441	0.000267325	0	5	0	
0.0921667	-0.0155567	-0.00202324	0.000375873	0.000174626	0	5	0	
0.0923333	0.00903578	0.00143243	0.000372456	0.000115779	0	5	0	
0.0925	-0.0119607	-0.000766863	0.000338537	7.87828E-05	0	5	0	
0.0926667	0.0114257	0.00112396	0.000347641	8.98196E-05	0	5	0	
0.0928333	-0.0173883	0.00448794	0.000352509	9.30225E-05	0	5	0	
0.093	0.0129338	-0.0126572	0.000387658	0.000114447	0	5	0	
0.0931667	-0.0172561	0.0111015	0.000381665	0.000163969	0	5	0	
0.0933333	0.0135609	-0.00759254	0.000386525	0.000200775	0	5	0	
0.0935	-0.0161486	0.00407139	0.000357883	0.000206774	0	5	0	
0.0936667	0.0128765	-0.00159495	0.000348105	0.000171217	0	5	0	
0.0938333	-0.0156639	0.0038421	0.000338671	0.0001272	0	5	0	
0.094	0.0118625	-0.0113949	0.000360816	0.000183776	0	5	0	
0.0941667	-0.0171588	0.0198411	0.000368924	0.000319134	0	5	0	
0.0943333	0.0124687	-0.0202042	0.000381166	0.000435174	0	5	0	
0.0945	-0.0143786	0.0167303	0.000360331	0.000424561	0	5	0	
0.0946667	0.0142083	-0.00821284	0.00037032	0.000341859	0	5	0	
0.0948333	-0.0168188	0.00222779	0.000367304	0.000253403	0	5	0	
0.095	0.0118138	0.00537341	0.000383221	0.000169488	0	5	0	
0.0951667	-0.01535	-0.00383706	0.000374861	0.000145261	0	5	0	
0.0953333	0.0141222	-0.000907104	0.000381088	0.000186641	0	5	0	
0.0955	-0.0179541	0.00913674	0.000372842	0.000252647	0	5	0	
0.0956667	0.0128749	-0.00295732	0.000387347	0.000239558	0	5	0	
0.0958333	-0.0166224	-0.00318355	0.000372617	0.000152552	0	5	0	
0.096	0.0135401	0.00383448	0.000391129	0.000158566	0	5	0	
0.0961667	-0.0140546	0.0101168	0.000366315	0.000244254	0	5	0	
0.0963333	0.0117699	-0.00789425	0.000368189	0.000311438	0	5	0	
0.0965	-0.018582	0.00148223	0.00036029	0.000247742	0	5	0	
0.0966667	0.0126957	0.00252513	0.000399368	0.000138639	0	5	0	
0.0968333	-0.0167866	0.00317261	0.000405384	0.000112855	0	5	0	
0.097	0.0169661	0.000397473	0.000431312	0.000120328	0	5	0	
0.0971667	-0.0161183	0.00311868	0.000407037	0.00010277	0	5	0	
0.0973333	0.00989797	0.00121288	0.000388697	5.92024E-05	0	5	0	
0.0975	-0.0153291	-0.00446558	0.000336159	5.64034E-05	0	5	0	
0.0976667	0.0156134	0.0115595	0.000358004	9.72634E-05	0	5	0	
0.0978333	-0.01828	-0.00433911	0.00037769	0.0001776	0	5	0	
0.098	0.00903482	-0.00316216	0.000393367	0.000258957	0	5	0	
0.0981667	-0.00925358	0.012001	0.000356575	0.000303984	0	5	0	
0.0983333	0.0158349	-0.0175953	0.000380353	0.000341843	0	5	0	
0.0985	-0.0239025	0.0209233	0.000421269	0.000342039	0	5	0	
0.0986667	0.0185455	0.00325911	0.000469942	0.000379623	0	5	0	
0.0988333	-0.0164054	-0.026817	0.000448001	0.000404749	0	5	0	
0.099	0.0115998	0.020789	0.000426672	0.000436151	0	5	0	
0.0991667	-0.015902	-0.000186794	0.00040607	0.00047005	0	5	0	
0.0993333	0.0160287	-0.00539252	0.000417705	0.000419186	0	5	0	
0.0995	-0.0182032	0.00453659	0.000414165	0.000343031	0	5	0	
0.0996667	0.0151163	-0.00914561	0.000419658	0.000241314	0	5	0	
0.0998333	-0.0173604	0.00701867	0.000416103	0.000185292	0	5	0	
0.1	0.0113195	0.00403745	0.000399334	0.000204313	0	5	0	
0.100167	-0.00987861	-0.00385099	0.000341015	0.000153841	0	5	0	
0.100333	0.0107495	-0.00116192	0.000309201	0.000175649	0	5	0	
0.1005	-0.0161556	0.00163837	0.000344153	0.00012348	0	5	0	
0.100667	0.0154686	0.00347055	0.00042766	0.000126016	0	5	0	
0.100833	-0.0163223	0.00189058	0.000449117	0.000103906	0	5	0	
0.101	0.0108695	-0.00640875	0.00040487	0.000131052	0	5	0	
0.101167	-0.0158066	0.00392495	0.000339619	0.000143824	0	5	0	
0.101333	0.0174872	0.00334785	0.000358522	0.000126444	0	5	0	
0.1015	-0.0189793	-0.000766654	0.000391539	8.64189E-05	0	5	0	
0.101667	0.0114911	0.00261359	0.000405886	6.81686E-05	0	5	0	
0.101833	-0.0112173	-0.00831107	0.000345795	7.21704E-05	0	5	0	
0.102	0.00858458	0.00913496	0.000301696	0.000111536	0	5	0	
0.102167	-0.0143214	-0.00160947	0.00028711	0.000197373	0	5	0	
0.102333	0.0109786	-0.00662293	0.000335185	0.000185745	0	5	0	
0.1025	-0.0203934	0.00309687	0.000370885	0.000203837	0	5	0	
0.102667	0.0118274	-0.0064751	0.00042263	0.000214368	0	5	0	
0.102833	-0.0161413	0.00474057	0.000402561	0.000304665	0	5	0	
0.103	0.0183649	0.00664191	0.000400628	0.00035168	0	5	0	
0.103167	-0.0192595	-0.0125908	0.000383945	0.000347719	0	5	0	
0.103333	0.0106776	-0.000661788	0.000380428	0.00027419	0	5	0	
0.1035	-0.0146291	0.00772506	0.000345477	0.000179759	0	5	0	
0.103667	0.00937955	-0.0150678	0.00032977	0.000143266	0	5	0	
0.103833	-0.0136015	0.0130545	0.000311322	0.000205087	0	5	0	
0.104	0.0121533	-0.00336667	0.000327135	0.00022253	0	5	0	
0.104167	-0.0162061	0.00105005	0.00034034	0.000204476	0	5	0	
0.104333	0.0164341	-0.00535946	0.000396708	0.000133869	0	5	0	
0.1045	-0.0169306	0.0105636	0.000402143	0.000147224	0	5	0	
0.104667	0.0107206	-0.0101172	0.000383471	0.000215959	0	5	0	
0.104833	-0.0145823	0.00571283	0.000342799	0.000286449	0	5	0	
0.105	0.0135694	-0.00835119	0.000364706	0.000287084	0	5	0	
0.105167	-0.0181094	0.0111755	0.000376015	0.000252867	0	5	0	
0.105333	0.0112245	-0.00453335	0.000396939	0.000248071	0	5	0	
0.1055	-0.015109	0.00913555	0.000364321	0.000259678	0	5	0	
0.105667	0.0173567	-0.0181664	0.000406525	0.000263212	0	5	0	
0.105833	-0.0218427	0.0236361	0.000425214	0.000295306	0	5	0	
0.106	0.00933423	-0.00745283	0.000424986	0.000365774	0	5	0	
0.106167	-0.0057055	-0.0106839	0.000300197	0.000393613	0	5	0	
0.106333	0.0056427	0.00311963	0.000243021	0.000343537	0	5	0	
0.1065	-0.0138985	0.0139395	0.000255563	0.000359154	0	5	0	
0.106667	0.0112592	-0.00683791	0.000347946	0.000329017	0	5	0	
0.106833	-0.0167251	-0.00140208	0.000379189	0.000280678	0	5	0	
0.107	0.0210639	-0.00672508	0.000419811	0.000228478	0	5	0	
0.107167	-0.0269431	0.0190991	0.000436248	0.000254524	0	5	0	
0.107333	0.0148419	-0.0084083	0.000453776	0.000308701	0	5	0	
0.1075	-0.00801591	-0.00901022	0.000359558	0.00030409	0	5	0	
0.107667	0.00699769	0.0105457	0.000302052	0.000256125	0	5	0	
0.107833	-0.0199822	-0.00161706	0.000309716	0.000210155	0	5	0	
0.108	0.0163594	0.00796383	0.000409386	0.000180697	0	5	0	
0.108167	-0.0165865	-0.0100056	0.000422496	0.000168219	0	5	0	
0.108333	0.0115298	0.00106783	0.000409459	0.000249357	0	5	0	
0.1085	-0.0170713	0.0105636	0.00035895	0.000284173	0	5	0	
0.108667	0.0130348	-0.000313295	0.000382578	0.000276418	0	5	0	
0.108833	-0.0145991	-0.00488413	0.000353741	0.000228415	0	5	0	
0.109	0.0120202	-0.00192931	0.000355371	0.000134854	0	5	0	
0.109167	-0.0190551	0.00705594	0.000329297	0.000119403	0	5	0	
0.109333	0.0160318	0.00623208	0.000368577	0.000104251	0	5	0	
0.1095	-0.0161115	-0.00717679	0.000361311	0.000138936	0	5	0	
0.109667	0.0125365	-0.00110026	0.000384299	0.000146465	0	5	0	
0.109833	-0.0159209	0.00841727	0.00035475	0.000116425	0	5	0	
0.11	0.0155041	-0.00633415	0.000369082	0.0001131	0	5	0	
0.110167	-0.0173948	0.00592796	0.000357318	0.000124833	0	5	0	
0.110333	0.0120691	-0.0109003	0.000371193	0.000149708	0	5	0	
0.1105	-0.0151095	0.00749364	0.000342835	0.000171382	0	5	0	
0.110667	0.0099706	0.00188718	0.000330239	0.000218684	0	5	0	
0.110833	-0.0121136	0.00079842	0.000295383	0.000177615	0	5	0	
0.111	0.013942	-0.0132315	0.000319209	0.00019464	0	5	0	
0.111167	-0.0219234	0.0179148	0.000355332	0.000195336	0	5	0	
0.111333	0.017609	-0.0146522	0.000407556	0.00029354	0	5	0	
0.1115	-0.0165878	0.00430909	0.000398327	0.000301693	0	5	0	
0.111667	0.0100794	0.00469512	0.000379037	0.000282081	0	5	0	
0.111833	-0.0172654	-0.0104923	0.000363394	0.000211309	0	5	0	
0.112	0.0174934	0.00210974	0.000384218	0.000227298	0	5	0	
0.112167	-0.0174896	0.0136024	0.000389806	0.000309658	0	5	0	
0.112333	0.0111708	-0.0190373	0.000385949	0.000367549	0	5	0	
0.1125	-0.0167129	0.0090768	0.00038034	0.000376921	0	5	0	
0.112667	0.0140833	-0.00237355	0.000382385	0.000320474	0	5	0	
0.112833	-0.0148167	0.00231748	0.000356669	0.000272131	0	5	0	
0.113	0.0149851	0.00653173	0.000363622	0.000197802	0	5	0	
0.113167	-0.0195055	-0.0093034	0.000387709	0.000139248	0	5	0	
0.113333	0.0167207	-0.00286731	0.000439951	0.000191833	0	5	0	
0.1135	-0.0180783	0.0192944	0.000426726	0.000257298	0	5	0	
0.113667	0.0121449	-0.00999068	0.000395139	0.000304158	0	5	0	
0.113833	-0.0125401	-0.00529045	0.000354451	0.00028155	0	5	0	
0.114	0.0154251	0.0109414	0.000386212	0.000212421	0	5	0	
0.114167	-0.0170154	0.00151764	0.000412247	0.000200385	0	5	0	
0.114333	0.0137897	-0.00582888	0.00041841	0.000160734	0	5	0	
0.1145	-0.0154413	2.03532E-05	0.00037373	0.000153869	0	5	0	
0.114667	0.0162387	0.00393613	0.000364171	8.6209E-05	0	5	0	
0.114833	-0.0168985	0.00925978	0.000377316	0.000106944	0	5	0	
0.115	0.0117738	-0.0117295	0.000385511	0.000147558	0	5	0	
0.115167	-0.0130923	-0.013195	0.000362895	0.000315528	0	5	0	
0.115333	0.0176866	0.0250017	0.000359659	0.000367931	0	5	0	
0.1155	-0.0192837	-0.00456253	0.000376872	0.000468585	0	5	0	
0.115667	0.00940962	-0.0132924	0.000382735	0.000447609	0	5	0	
0.115833	-0.00781774	0.000591585	0.00035378	0.000378569	0	5	0	
0.116	0.010009	0.00579962	0.000360466	0.000224882	0	5	0	
0.116167	-0.02221	0.0178034	0.000413758	0.000252797	0	5	0	
0.116333	0.0237879	-0.0240588	0.000497289	0.000330081	0	5	0	
0.1165	-0.0185023	-0.00453041	0.000497514	0.000553811	0	5	0	
0.116667	0.010814	0.0187347	0.00042644	0.000530153	0	5	0	
0.116833	-0.012528	0.00388046	0.000334015	0.000530788	0	5	0	
0.117	0.0112194	-0.0152817	0.000295173	0.00037838	0	5	0	
0.117167	-0.011847	0.000197987	0.000294194	0.000323459	0	5	0	
0.117333	0.0102149	0.00963329	0.000343277	0.00025889	0	5	0	
0.1175	-0.0200974	0.0119567	0.000392062	0.000299437	0	5	0	
0.117667	0.0190339	-0.0262013	0.000437282	0.000345403	0	5	0	
0.117833	-0.0133259	0.00931773	0.000402253	0.000399421	0	5	0	
0.118	0.00966489	0.0116576	0.000352989	0.000346471	0	5	0	
0.118167	-0.0143313	-0.000387351	0.000330456	0.000305435	0	5	0	
0.118333	0.0150433	-0.0157269	0.000367332	0.000365506	0	5	0	
0.1185	-0.0174845	0.00876712	0.0003851	0.000348129	0	5	0	
0.118667	0.0119749	0.00936225	0.000383644	0.000329841	0	5	0	
0.118833	-0.0163842	-0.00467364	0.000336161	0.000206869	0	5	0	
0.119	0.0146065	-0.00545823	0.000347287	0.000251414	0	5	0	
0.119167	-0.0171369	0.00294493	0.000340274	0.000177344	0	5	0	
0.119333	0.0173581	0.0127685	0.000384639	0.000204939	0	5	0	
0.1195	-0.0214415	-0.00981754	0.000391962	0.000162869	0	5	0	
0.119667	0.0152321	-0.0031689	0.000405627	0.000267876	0	5	0	
0.119833	-0.0159473	0.00409968	0.000360612	0.000244415	0	5	0	
0.12	0.00474512	0.00907916	0.000333685	0.000211484	0	5	0	
0.120167	-0.012411	-0.0101738	0.000314048	0.000149581	0	5	0	
0.120333	0.0166872	-0.00647224	0.000373484	0.000238892	0	5	0	
0.1205	-0.0233345	0.0177755	0.000408031	0.000316702	0	5	0	
0.120667	0.0175054	-0.0112874	0.000440383	0.000347872	0	5	0	
0.120833	-0.0167866	-0.0105889	0.000416036	0.000382136	0	5	0	
0.121	0.0126268	0.0249742	0.000411593	0.000410866	0	5	0	
0.121167	-0.0172967	-0.0196778	0.000364029	0.000452169	0	5	0	
0.121333	0.0103352	0.00163395	0.000344771	0.000446502	0	5	0	
0.1215	-0.0154165	0.00261346	0.000316653	0.000391486	0	5	0	
0.121667	0.0199146	0.00206886	0.000389242	0.00027911	0	5	0	
0.121833	-0.0215422	0.00754212	0.000443168	0.000204302	0	5	0	
0.122	0.0106842	-0.0206313	0.000452696	0.000206385	0	5	0	
0.122167	-0.0114705	0.00385084	0.000367216	0.000328557	0	5	0	
0.122333	0.011599	0.0199683	0.000338425	0.000417353	0	5	0	
0.1225	-0.0181959	-0.0101586	0.000337939	0.000413108	0	5	0	
0.122667	0.0116777	-0.0110381	0.00037239	0.000401333	0	5	0	
0.122833	-0.0107568	0.00845814	0.00034332	0.000274949	0	5	0	
0.123	0.0105246	-0.000137224	0.000370722	0.00023243	0	5	0	
0.123167	-0.0208188	0.00563628	0.000392572	0.000170718	0	5	0	
0.123333	0.0127186	-0.00687094	0.000425219	0.000193981	0	5	0	
0.1235	-0.00859251	-0.00136001	0.000343478	0.000166851	0	5	0	
0.123667	0.00568898	0.00270957	0.000310202	0.000110543	0	5	0	
0.123833	-0.0144875	0.00184463	0.000315117	5.69712E-05	0	5	0	
0.124	0.0115074	-0.000505848	0.000374758	5.13812E-05	0	5	0	
0.124167	-0.0140246	-0.00421753	0.000350251	4.87819E-05	0	5	0	
0.124333	0.012038	0.00169978	0.000324879	5.59643E-05	0	5	0	
0.1245	-0.0175137	0.0044029	0.000308994	6.12455E-05	0	5	0	
0.124667	0.0110252	0.00323419	0.00034332	0.000100018	0	5	0	
0.124833	-0.0111463	-0.00643769	0.000288089	0.000122515	0	5	0	
0.125	0.00922523	0.00210248	0.000264752	0.000133919	0	5	0	
0.125167	-0.0201036	0.00471694	0.000258198	0.00014105	0	5	0	
0.125333	0.0182643	-0.00453011	0.000350047	0.000114486	0	5	0	
0.1255	-0.0180551	-0.00175343	0.000381523	0.000124657	0	5	0	
0.125667	0.00962312	0.00520313	0.000385173	9.44355E-05	0	5	0	
0.125833	-0.0149412	0.00414581	0.000322757	9.13413E-05	0	5	0	
0.126	0.0144483	-0.00997529	0.00034168	0.000101544	0	5	0	
0.126167	-0.0204003	0.00697328	0.000352311	0.000131946	0	5	0	
0.126333	0.0149157	-0.00659194	0.000400748	0.000149189	0	5	0	
0.1265	-0.0197426	0.0101823	0.000391475	0.000162653	0	5	0	
0.126667	0.013566	-0.0132096	0.00041158	0.000181553	0	5	0	
0.126833	-0.0155581	0.00817863	0.000377579	0.000217169	0	5	0	
0.127	0.0124548	0.00228029	0.000364125	0.000230936	0	5	0	
0.127167	-0.0169365	-0.00803675	0.000324793	0.000191746	0	5	0	
0.127333	0.0123906	0.00122915	0.000340982	0.000187807	0	5	0	
0.1275	-0.0135166	0.0126201	0.000333287	0.000269902	0	5	0	
0.127667	0.0111128	-0.0188922	0.000356694	0.000381121	0	5	0	
0.127833	-0.0213476	0.0129733	0.000374759	0.000406889	0	5	0	
0.128	0.0229504	-0.00482476	0.000429482	0.000303508	0	5	0	
0.128167	-0.0195003	0.00144672	0.000432298	0.00018848	0	5	0	
0.128333	0.0136982	0.00370643	0.000409367	0.000101403	0	5	0	
0.1285	-0.015718	-0.00522678	0.000355868	8.62276E-05	0	5	0	
0.128667	0.014981	0.00129761	0.000345905	0.000129434	0	5	0	
0.128833	-0.0152499	0.00686897	0.000344349	0.000206009	0	5	0	
0.129	0.0138894	-0.0131341	0.000372626	0.000225964	0	5	0	
0.129167	-0.0203139	0.00888604	0.000391384	0.000228059	0	5	0	
0.129333	0.0199524	0.00256895	0.000425947	0.000210787	0	5	0	
0.1295	-0.018726	-0.00814714	0.000423011	0.000180642	0	5	0	
0.129667	0.0131027	0.00323105	0.000411611	0.000150563	0	5	0	
0.129833	-0.0165124	0.00526431	0.000385388	0.000131809	0	5	0	
0.13	0.0181513	-0.00973382	0.000392228	0.000164313	0	5	0	
0.130167	-0.0223553	0.00731874	0.000398688	0.00018534	0	5	0	
0.130333	0.0164124	-0.000595981	0.000422826	0.000177815	0	5	0	
0.1305	-0.0176518	-0.00112243	0.000406594	0.000135552	0	5	0	
0.130667	0.0106903	-0.00074265	0.000395839	7.44679E-05	0	5	0	
0.130833	-0.015259	0.00445814	0.000346651	6.23844E-05	0	5	0	
0.131	0.016165	-0.0038628	0.000354129	0.000109445	0	5	0	
0.131167	-0.0201888	0.00366794	0.000367022	0.000160248	0	5	0	
0.131333	0.0158983	-0.00265553	0.00041685	0.000159757	0	5	0	
0.1315	-0.0166002	0.00585795	0.000406752	0.000120606	0	5	0	
0.131667	0.0130483	-0.00333908	0.000387348	0.000100448	0	5	0	
0.131833	-0.0173193	0.000413518	0.000341703	0.000107455	0	5	0	
0.132	0.0158382	0.00439977	0.000354222	9.46378E-05	0	5	0	
0.132167	-0.0173126	-0.00113376	0.000364822	8.60781E-05	0	5	0	
0.132333	0.0148826	-0.00325434	0.000396086	8.10085E-05	0	5	0	
0.1325	-0.0158392	0.00679112	0.000390303	9.35764E-05	0	5	0	
0.132667	0.0182583	-0.00626397	0.00039469	0.000115141	0	5	0	
0.132833	-0.022402	0.00822022	0.00039578	0.000126889	0	5	0	
0.133	0.014856	-0.00667039	0.000395392	0.000152097	0	5	0	
0.133167	-0.0106071	0.000251997	0.000351088	0.0001319	0	5	0	
0.133333	0.00933134	0.00503206	0.000315887	9.62768E-05	0	5	0	
0.1335	-0.0138421	0.00915468	0.000302279	0.000114723	0	5	0	
0.133667	0.0132273	-0.0233009	0.00033799	0.000196564	0	5	0	
0.133833	-0.0177826	0.0161103	0.000358077	0.000307986	0	5	0	
0.134	0.0172139	0.00179233	0.000382391	0.000352189	0	5	0	
0.134167	-0.0207034	0.00353226	0.000378827	0.000251711	0	5	0	
0.134333	0.0197696	-0.0198447	0.000402445	0.000226205	0	5	0	
0.1345	-0.0186361	0.0212907	0.000391175	0.000238458	0	5	0	
0.134667	0.0156286	-0.0103852	0.000402454	0.000356754	0	5	0	
0.134833	-0.0197189	0.0116877	0.000384647	0.000337104	0	5	0	
0.135	0.0177791	-0.015816	0.000396375	0.000306568	0	5	0	
0.135167	-0.015956	0.0057067	0.000371543	0.00024747	0	5	0	
0.135333	0.0132311	0.00894626	0.000366784	0.000233805	0	5	0	
0.1355	-0.0139333	-0.0064573	0.000357143	0.000235869	0	5	0	
0.135667	0.014851	-0.012108	0.000379748	0.000396336	0	5	0	
0.135833	-0.0156413	0.023169	0.00036518	0.000534055	0	5	0	
0.136	0.00870906	-0.014013	0.000338597	0.000550671	0	5	0	
0.136167	-0.012847	0.00565208	0.000299345	0.000376908	0	5	0	
0.136333	0.0183392	-0.0166072	0.000327947	0.000261227	0	5	0	
0.1365	-0.0223784	0.0218378	0.000374975	0.000259661	0	5	0	
0.136667	0.0202416	0.00617865	0.000415694	0.000375286	0	5	0	
0.136833	-0.0176039	-0.0224913	0.000407101	0.000412607	0	5	0	
0.137	0.0121592	0.0003575	0.000389549	0.00047625	0	5	0	
0.137167	-0.0174277	0.031352	0.000365941	0.000538598	0	5	0	
0.137333	0.0120524	-0.0248464	0.00036262	0.000579794	0	5	0	
0.1375	-0.0148569	0.0067323	0.000355891	0.000531122	0	5	0	
0.137667	0.0219771	-0.00315963	0.000407056	0.000340006	0	5	0	
0.137833	-0.0243067	0.0105455	0.000441518	0.00025448	0	5	0	
0.138	0.00912667	-0.00225623	0.000438055	0.000176973	0	5	0	
0.138167	-0.00653768	-0.00497908	0.000335611	0.000163397	0	5	0	
0.138333	0.00977854	-0.000698834	0.000299168	0.000216815	0	5	0	
0.1385	-0.0212029	0.0140128	0.000309208	0.000323117	0	5	0	
0.138667	0.0161122	-0.00894264	0.00038862	0.000386004	0	5	0	
0.138833	-0.016712	-0.00322929	0.000371491	0.000279429	0	5	0	
0.139	0.0134209	0.0126365	0.000367142	0.000168538	0	5	0	
0.139167	-0.0158699	-0.00482	0.00032271	0.000170855	0	5	0	
0.139333	0.0110868	-0.00917311	0.000324297	0.000287269	0	5	0	
0.1395	-0.0167842	0.0109377	0.000299487	0.000298222	0	5	0	
0.139667	0.0169809	0.00416633	0.00036104	0.000284734	0	5	0	
0.139833	-0.0222494	0.000172361	0.000392951	0.000158191	0	5	0	
0.14	0.0178087	-0.0161807	0.000430508	0.000214016	0	5	0	
0.140167	-0.0175851	0.0114965	0.000383924	0.000203056	0	5	0	
0.140333	0.0140101	0.0126192	0.000376321	0.000308207	0	5	0	
0.1405	-0.020395	-0.0104084	0.000362781	0.00026691	0	5	0	
0.140667	0.0171272	-0.00409155	0.000398413	0.000317557	0	5	0	
0.140833	-0.0159814	0.00117268	0.000378016	0.000232108	0	5	0	
0.141	0.016537	0.00921008	0.000369804	0.000194952	0	5	0	
0.141167	-0.0201903	0.00205407	0.000351028	0.000194459	0	5	0	
0.141333	0.0145332	-0.0173985	0.000371248	0.000269667	0	5	0	
0.1415	-0.01695	0.00843033	0.000354772	0.000317219	0	5	0	
0.141667	0.0154685	0.00547604	0.000370857	0.000292754	0	5	0	
0.141833	-0.0222859	0.00264209	0.000373482	0.000197212	0	5	0	
0.142	0.0201498	-0.0152088	0.000425901	0.000203124	0	5	0	
0.142167	-0.0203221	0.0121026	0.000412686	0.000185382	0	5	0	
0.142333	0.0150771	-0.000132077	0.000423275	0.000221259	0	5	0	
0.1425	-0.0166992	-0.00488079	0.000382409	0.000148136	0	5	0	
0.142667	0.0136198	0.000628224	0.000392198	0.000101755	0	5	0	
0.142833	-0.0195363	0.00173542	0.000361738	6.34729E-05	0	5	0	
0.143	0.017145	0.00711907	0.000402305	8.60813E-05	0	5	0	
0.143167	-0.022367	-0.00307558	0.000398004	0.000142671	0	5	0	
0.143333	0.0161844	-0.00882378	0.000440848	0.000247901	0	5	0	
0.1435	-0.0174094	0.0146683	0.00039006	0.000279687	0	5	0	
0.143667	0.0126568	-0.00641236	0.000377696	0.000277719	0	5	0	
0.143833	-0.0172954	-0.00127949	0.000321061	0.000242255	0	5	0	
0.144	0.0177089	0.00556917	0.000359234	0.000189276	0	5	0	
0.144167	-0.0198776	0.000180779	0.000371935	0.000139501	0	5	0	
0.144333	0.0135097	-0.00403176	0.000406668	9.60003E-05	0	5	0	
0.1445	-0.0187711	0.00882352	0.000380005	0.000130973	0	5	0	
0.144667	0.0183418	-0.0113451	0.000396771	0.000145775	0	5	0	
0.144833	-0.0209467	-9.93265E-05	0.000385614	0.000211614	0	5	0	
0.145	0.0123969	0.0151337	0.000390461	0.000272267	0	5	0	
0.145167	-0.00951961	-0.00881108	0.000331224	0.000286746	0	5	0	
0.145333	0.0104337	-0.00996863	0.000327379	0.000316356	0	5	0	
0.1455	-0.0196255	0.0162274	0.00033702	0.000294028	0	5	0	
0.145667	0.0204963	-0.00592132	0.000410929	0.000294403	0	5	0	
0.145833	-0.0233589	-0.00298427	0.000443302	0.000191023	0	5	0	
0.146	0.020648	0.00423571	0.00047031	0.000158315	0	5	0	
0.146167	-0.016869	0.00102341	0.000419379	0.000198681	0	5	0	
0.146333	0.00869929	-0.0070938	0.000350515	0.000323377	0	5	0	
0.1465	-0.0100247	0.0155286	0.000249162	0.000421009	0	5	0	
0.146667	0.0135378	-0.0118408	0.000253324	0.000403043	0	5	0	
0.146833	-0.0181838	-0.0017502	0.000299066	0.00033108	0	5	0	
0.147	0.0156103	0.018857	0.000373141	0.000310721	0	5	0	
0.147167	-0.01852	-0.0197258	0.000387164	0.000335349	0	5	0	
0.147333	0.0253198	0.012543	0.000422763	0.00035877	0	5	0	
0.1475	-0.0281793	-0.00570038	0.000466809	0.00031543	0	5	0	
0.147667	0.0223829	0.00234683	0.000504793	0.000264606	0	5	0	
0.147833	-0.0204603	0.00424455	0.000475256	0.000206846	0	5	0	
0.148	0.016325	-0.00186854	0.000429694	0.000141425	0	5	0	
0.148167	-0.0151853	-0.00216132	0.000367959	9.2056E-05	0	5	0	
0.148333	0.0149244	-0.0104491	0.000350823	0.000171636	0	5	0	
0.1485	-0.0181969	0.0272518	0.000362537	0.000298672	0	5	0	
0.148667	0.0217057	-0.0149951	0.000417454	0.000413492	0	5	0	
0.148833	-0.0250857	-0.00835757	0.000458904	0.000420827	0	5	0	
0.149	0.0177085	0.0142139	0.000468086	0.000327038	0	5	0	
0.149167	-0.0171552	-0.00714646	0.000419706	0.000294507	0	5	0	
0.149333	0.0162809	0.000671325	0.000386131	0.000263395	0	5	0	
0.1495	-0.0194611	0.00804945	0.000361607	0.000313281	0	5	0	
0.149667	0.0172539	-0.0105181	0.000386393	0.000278781	0	5	0	
0.149833	-0.0202876	-0.00431002	0.000395427	0.000252313	0	5	0	
0.15	0.0179765	0.01732	0.000424305	0.000246098	0	5	0	
0.150167	-0.0205854	-0.0109455	0.000411864	0.000263249	0	5	0	
0.150333	0.0179414	-0.00482626	0.000414673	0.00032996	0	5	0	
0.1505	-0.0218582	0.02045	0.000389972	0.000371643	0	5	0	
0.150667	0.016247	-0.0253855	0.00039831	0.000428947	0	5	0	
0.150833	-0.0142275	0.0130747	0.000369433	0.00041982	0	5	0	
0.151	0.0159645	0.00501189	0.000376291	0.000471125	0	5	0	
0.151167	-0.0181473	-0.0137802	0.000360073	0.000435924	0	5	0	
0.151333	0.0169023	0.00879364	0.000380597	0.000381668	0	5	0	
0.1515	-0.0207722	-0.00201389	0.000366288	0.000282329	0	5	0	
0.151667	0.0166085	0.00149083	0.000380402	0.000259864	0	5	0	
0.151833	-0.0108599	0.0110534	0.000335968	0.000261001	0	5	0	
0.152	0.0079477	-0.016101	0.000301989	0.000248516	0	5	0	
0.152167	-0.0134153	-0.00100909	0.000280752	0.000325618	0	5	0	
0.152333	0.021801	0.016391	0.000338177	0.000348725	0	5	0	
0.1525	-0.0246257	-0.000663953	0.000395823	0.000312484	0	5	0	
0.152667	0.0173777	-0.004984	0.000429398	0.000181159	0	5	0	
0.152833	-0.0197266	0.00421028	0.000405083	0.000123454	0	5	0	
0.153	0.0195022	-0.0110671	0.000397225	0.000139552	0	5	0	
0.153167	-0.017135	0.0233187	0.000356542	0.000224072	0	5	0	
0.153333	0.0159202	-0.00986428	0.000358569	0.000286125	0	5	0	
0.1535	-0.0226914	-0.00641153	0.000356808	0.000386539	0	5	0	
0.153667	0.0206146	0.0105731	0.00041985	0.000333193	0	5	0	
0.153833	-0.0223705	-0.00105248	0.000438294	0.000286986	0	5	0	
0.154	0.0141496	-0.00141775	0.000442584	0.000185112	0	5	0	
0.154167	-0.0195744	0.00346936	0.000400892	0.000154366	0	5	0	
0.154333	0.0197384	-0.00737836	0.000429014	0.000123222	0	5	0	
0.1545	-0.0223897	0.00878388	0.000429641	0.000113083	0	5	0	
0.154667	0.018474	0.00264286	0.000460896	0.000169434	0	5	0	
0.154833	-0.0204854	-0.0159836	0.000423953	0.000217678	0	5	0	
0.155	0.0164536	0.0135573	0.000426864	0.000266143	0	5	0	
0.155167	-0.0205671	0.00640502	0.000380549	0.000326834	0	5	0	
0.155333	0.0170385	-0.00807538	0.000394743	0.000329749	0	5	0	
0.1555	-0.0187415	-0.000483122	0.000368388	0.000249596	0	5	0	
0.155667	0.0175015	-0.00218304	0.000399906	0.00012821	0	5	0	
0.155833	-0.0149773	0.0141891	0.000367263	0.000113668	0	5	0	
0.156	0.0139746	-0.00643742	0.000365503	0.000155309	0	5	0	
0.156167	-0.0188285	-0.00774093	0.00034492	0.000233823	0	5	0	
0.156333	0.0228037	0.019575	0.000400669	0.00023782	0	5	0	
0.1565	-0.0214987	-0.0110168	0.000428913	0.000287809	0	5	0	
0.156667	0.0182644	0.00912007	0.000450651	0.000286544	0	5	0	
0.156833	-0.0185947	-0.00551148	0.000397931	0.000352414	0	5	0	
0.157	0.021777	-0.00553975	0.000408124	0.000465198	0	5	0	
0.157167	-0.0196406	0.0187803	0.000387909	0.000504032	0	5	0	
0.157333	0.0114828	0.00709382	0.000392146	0.000493694	0	5	0	
0.1575	-0.0159731	-0.0352128	0.000351488	0.00050133	0	5	0	
0.157667	0.0229785	0.0343261	0.000400531	0.000554795	0	5	0	
0.157833	-0.02332	-0.00298944	0.000435947	0.000649218	0	5	0	
0.158	0.019018	-0.00414197	0.000478324	0.000524397	0	5	0	
0.158167	-0.0198042	-0.0047666	0.00042123	0.00041586	0	5	0	
0.158333	0.0164954	0.0133013	0.000401845	0.000281535	0	5	0	
0.1585	-0.0191492	-0.0047601	0.000358558	0.000231526	0	5	0	
0.158667	0.0159225	0.00459444	0.000387735	0.000175647	0	5	0	
0.158833	-0.0184725	-0.00700893	0.000377084	0.000141832	0	5	0	
0.159	0.017958	0.00886919	0.000403845	0.000145032	0	5	0	
0.159167	-0.0213423	0.00106311	0.000374489	0.00015237	0	5	0	
0.159333	0.0172511	-0.00706375	0.000390875	0.000175066	0	5	0	
0.1595	-0.0184912	0.0058387	0.000361333	0.000156124	0	5	0	
0.159667	0.0114965	0.00517105	0.00037543	0.000166771	0	5	0	
0.159833	-0.0179292	-0.000493956	0.000341327	0.000107563	0	5	0	
0.16	0.02045	-0.0138365	0.000388557	0.000157799	0	5	0	
0.160167	-0.0265385	0.0139404	0.000406202	0.000194645	0	5	0	
0.160333	0.0214766	0.0114427	0.000467176	0.000327378	0	5	0	
0.1605	-0.0208033	-0.0225717	0.000433757	0.000368426	0	5	0	
0.160667	0.0172462	0.00575631	0.000428657	0.000404972	0	5	0	
0.160833	-0.0216326	0.0185088	0.000387717	0.000417797	0	5	0	
0.161	0.0210417	-0.0142851	0.000415559	0.000377659	0	5	0	
0.161167	-0.0177182	0.00118	0.000391867	0.000359584	0	5	0	
0.161333	0.01201	0.00150775	0.000369339	0.000206256	0	5	0	
0.1615	-0.0151322	0.00923731	0.000322358	0.00018581	0	5	0	
0.161667	0.0201523	-0.00739285	0.000352156	0.000134635	0	5	0	
0.161833	-0.0221603	0.00227598	0.000387302	0.00016262	0	5	0	
0.162	0.0215747	-0.0027391	0.000433758	0.000123365	0	5	0	
0.162167	-0.0226649	0.00218987	0.000427448	0.000111788	0	5	0	
0.162333	0.0179837	0.00708999	0.000437435	0.000103853	0	5	0	
0.1625	-0.0144275	-0.00550339	0.000396519	0.000127454	0	5	0	
0.162667	0.0139892	-0.0068204	0.000357593	0.000185077	0	5	0	
0.162833	-0.0207647	0.0172034	0.000331513	0.000242261	0	5	0	
0.163	0.0237717	-0.0123212	0.000389735	0.000279889	0	5	0	
0.163167	-0.0234392	-0.000559476	0.000441993	0.000273999	0	5	0	
0.163333	0.0162366	0.00502241	0.000468046	0.000245834	0	5	0	
0.1635	-0.0152249	-0.00168398	0.000408537	0.000174305	0	5	0	
0.163667	0.015182	-0.00206588	0.000366939	0.000108923	0	5	0	
0.163833	-0.0196956	0.00430152	0.000343138	9.41937E-05	0	5	0	
0.164	0.0166924	-0.010197	0.000371205	0.000132194	0	5	0	
0.164167	-0.0172423	0.0081368	0.00038623	0.000155715	0	5	0	
0.164333	0.0140942	-0.00630334	0.000392933	0.000166508	0	5	0	
0.1645	-0.0162808	0.00145345	0.000370907	0.000137324	0	5	0	
0.164667	0.0153953	-0.00087935	0.000355836	9.98376E-05	0	5	0	
0.164833	-0.0175408	0.00362943	0.000331766	7.02497E-05	0	5	0	
0.165	0.013575	-0.00908653	0.000336416	9.77125E-05	0	5	0	
0.165167	-0.0196454	0.00791107	0.00034469	0.000146391	0	5	0	
0.165333	0.0156719	-0.0049732	0.000363552	0.000165505	0	5	0	
0.1655	-0.0145419	0.000226931	0.000336757	0.000141815	0	5	0	
0.165667	0.0144602	-0.00372084	0.000322688	0.00010282	0	5	0	
0.165833	-0.0233396	0.00568211	0.000307316	0.000114816	0	5	0	
0.166	0.0166001	0.0010959	0.00036157	0.000148997	0	5	0	
0.166167	-0.0162492	0.00330275	0.000354551	0.000233004	0	5	0	
0.166333	0.0129085	-0.0141656	0.00035288	0.000284291	0	5	0	
0.1665	-0.0173487	0.012217	0.000306645	0.00030319	0	5	0	
0.166667	0.0175429	-0.000634431	0.000325844	0.000254769	0	5	0	
0.166833	-0.0213003	-0.00278718	0.000338606	0.000160855	0	5	0	
0.167	0.018187	0.00211859	0.000394942	0.000129086	0	5	0	
0.167167	-0.0198087	-0.00539476	0.00039404	0.000105616	0	5	0	
0.167333	0.0164654	0.00878549	0.000398037	0.000129195	0	5	0	
0.1675	-0.020587	0.00188168	0.000361798	0.000145468	0	5	0	
0.167667	0.0202572	-0.00691156	0.000388437	0.00016621	0	5	0	
0.167833	-0.0231966	0.00324597	0.000404043	0.000153082	0	5	0	
0.168	0.0205564	-0.00534487	0.000439828	0.00011537	0	5	0	
0.168167	-0.0178173	0.0048532	0.000415463	0.000128296	0	5	0	
0.168333	0.016989	0.0101364	0.000393805	0.000201206	0	5	0	
0.1685	-0.0192156	-0.00958547	0.000359446	0.000227384	0	5	0	
0.168667	0.0153543	-0.00563432	0.000361779	0.000272494	0	5	0	
0.168833	-0.0163023	0.010097	0.000348332	0.00020805	0	5	0	
0.169	0.0168112	0.000469735	0.00036309	0.00023838	0	5	0	
0.169167	-0.0200355	0.00378883	0.000361233	0.000155357	0	5	0	
0.169333	0.0147054	-0.020085	0.000383078	0.000233204	0	5	0	
0.1695	-0.0176347	0.0115454	0.000360398	0.000257282	0	5	0	
0.169667	0.02055	0.0138808	0.000378759	0.000460109	0	5	0	
0.169833	-0.0230234	-0.0129737	0.000400504	0.000432979	0	5	0	
0.17	0.0184941	-0.0110498	0.000431718	0.000447837	0	5	0	
0.170167	-0.0176818	0.00809742	0.000409174	0.000269102	0	5	0	
0.170333	0.0129106	0.00417158	0.000378329	0.000276987	0	5	0	
0.1705	-0.019276	0.00272629	0.000335519	0.000180394	0	5	0	
0.170667	0.0188825	-0.01735	0.000349179	0.000223963	0	5	0	
0.170833	-0.0174648	0.00483348	0.000345267	0.000195396	0	5	0	
0.171	0.0107374	0.00704799	0.00034575	0.000232777	0	5	0	
0.171167	-0.0161746	0.00167303	0.000314765	0.00021393	0	5	0	
0.171333	0.0203636	-0.0162433	0.000341579	0.00023931	0	5	0	
0.1715	-0.025466	0.00584536	0.000379676	0.000243238	0	5	0	
0.171667	0.0212202	0.00920764	0.00044379	0.000253443	0	5	0	
0.171833	-0.0242616	-0.0087735	0.000448397	0.000218476	0	5	0	
0.172	0.019274	0.0017475	0.000463121	0.000181089	0	5	0	
0.172167	-0.0173252	-0.000821899	0.00040383	0.000104707	0	5	0	
0.172333	0.0129999	0.00038374	0.000358099	6.34237E-05	0	5	0	
0.1725	-0.0186534	0.00702133	0.000320737	7.52911E-05	0	5	0	
0.172667	0.020108	-0.0071649	0.000378391	0.00010478	0	5	0	
0.172833	-0.0225281	0.000190051	0.000412225	0.000146436	0	5	0	
0.173	0.0151983	0.00171866	0.000427934	0.000102904	0	5	0	
0.173167	-0.017676	0.0085694	0.000363384	0.000141074	0	5	0	
0.173333	0.0176017	-0.0102044	0.000361117	0.00015747	0	5	0	
0.1735	-0.0207172	0.00381037	0.000358807	0.000198727	0	5	0	
0.173667	0.0161184	0.00311569	0.000394414	0.000159259	0	5	0	
0.173833	-0.0160156	-0.00551782	0.000368442	0.00011221	0	5	0	
0.174	0.0150294	0.00575759	0.000362868	0.000107573	0	5	0	
0.174167	-0.0207114	0.000759802	0.00034564	0.000124941	0	5	0	
0.174333	0.019279	-0.0154089	0.000381649	0.000174362	0	5	0	
0.1745	-0.019734	0.0164372	0.000369164	0.000227107	0	5	0	
0.174667	0.0166684	0.00316014	0.000386508	0.000346077	0	5	0	
0.174833	-0.017778	-0.0154892	0.000357785	0.000394223	0	5	0	
0.175	0.0165637	0.00247222	0.000363568	0.000365244	0	5	0	
0.175167	-0.0181548	0.00842142	0.000340017	0.00025438	0	5	0	
0.175333	0.01777	-0.00154614	0.000359329	0.000183601	0	5	0	
0.1755	-0.0193814	0.00129737	0.000359933	0.000130787	0	5	0	
0.175667	0.0185463	-0.0177466	0.00039351	0.000148127	0	5	0	
0.175833	-0.0194284	0.0161925	0.000381205	0.000198648	0	5	0	
0.176	0.0183653	0.00464625	0.000394493	0.0002815	0	5	0	
0.176167	-0.02011	-0.00188752	0.000378685	0.000239731	0	5	0	
0.176333	0.0247217	-0.0209143	0.000425541	0.000283614	0	5	0	
0.1765	-0.0278377	0.0220795	0.000449644	0.000309209	0	5	0	
0.176667	0.0174033	0.00247963	0.000477318	0.000415503	0	5	0	
0.176833	-0.0118045	-0.0106394	0.000399987	0.000310354	0	5	0	
0.177	0.0173677	-0.00519426	0.000365791	0.000322809	0	5	0	
0.177167	-0.0251528	0.0128382	0.000353915	0.00027584	0	5	0	
0.177333	0.0193384	-0.00133365	0.000414728	0.000273452	0	5	0	
0.1775	-0.0144718	-0.00343904	0.000397957	0.000158461	0	5	0	
0.177667	0.0137533	-0.00720391	0.000377839	0.000130083	0	5	0	
0.177833	-0.0241635	0.0089027	0.000351192	0.000135629	0	5	0	
0.178	0.0202818	0.0063028	0.000392778	0.000211439	0	5	0	
0.178167	-0.017165	-0.011039	0.000381211	0.000184161	0	5	0	
0.178333	0.0194971	0.00257521	0.000394556	0.000242581	0	5	0	
0.1785	-0.0248462	0.00118879	0.000396122	0.000205283	0	5	0	
0.178667	0.0210176	0.00124482	0.000433403	0.00017065	0	5	0	
0.178833	-0.0185735	0.00287824	0.000414878	8.82239E-05	0	5	0	
0.179	0.0139181	-0.0107373	0.000391262	8.95051E-05	0	5	0	
0.179167	-0.0192164	0.0132457	0.000361379	0.000146767	0	5	0	
0.179333	0.0222582	-0.00881893	0.000383859	0.000223594	0	5	0	
0.1795	-0.0199163	0.00207213	0.000389788	0.000220844	0	5	0	
0.179667	0.0167395	-0.000308213	0.00039022	0.000168663	0	5	0	
0.179833	-0.0186184	-0.00122421	0.000364407	8.02711E-05	0	5	0	
0.18	0.0154285	-0.00523194	0.000353804	7.53198E-05	0	5	0	
0.180167	-0.0157444	0.0168687	0.000329918	0.000151766	0	5	0	
0.180333	0.0174242	-0.0139242	0.000324388	0.000250228	0	5	0	
0.1805	-0.0190584	-0.00842917	0.000324855	0.000267543	0	5	0	
0.180667	0.0174248	0.0141737	0.000357694	0.00023782	0	5	0	
0.180833	-0.0174719	0.0012991	0.000369736	0.000242319	0	5	0	
0.181	0.017104	-0.00995765	0.000373019	0.000222919	0	5	0	
0.181167	-0.021548	-0.00183622	0.000363329	0.000224071	0	5	0	
0.181333	0.0203139	0.00645756	0.000383781	0.000133466	0	5	0	
0.1815	-0.0209908	0.00908164	0.000396547	0.000190118	0	5	0	
0.181667	0.0176626	-0.0140938	0.000408744	0.000204243	0	5	0	
0.181833	-0.017103	-0.00167022	0.000378216	0.000301537	0	5	0	
0.182	0.0176776	0.00807249	0.000360004	0.000233816	0	5	0	
0.182167	-0.0185907	0.006749	0.000347335	0.000269572	0	5	0	
0.182333	0.0164187	-0.0117864	0.000363857	0.000220287	0	5	0	
0.1825	-0.0171264	-0.00252073	0.000353437	0.000288456	0	5	0	
0.182667	0.0134917	0.0120064	0.000342338	0.00024676	0	5	0	
0.182833	-0.0183169	0.00392252	0.000315094	0.000283981	0	5	0	
0.183	0.0177795	-0.0176718	0.000337024	0.000292966	0	5	0	
0.183167	-0.0192337	0.0083996	0.000352455	0.000309748	0	5	0	
0.183333	0.0181244	0.00782716	0.000379577	0.000306961	0	5	0	
0.1835	-0.017881	0.00241421	0.000357789	0.000232449	0	5	0	
0.183667	0.0154606	-0.0162439	0.000353263	0.000227983	0	5	0	
0.183833	-0.021893	0.00886065	0.000342485	0.000209945	0	5	0	
0.184	0.0200228	0.00342511	0.000394467	0.000244209	0	5	0	
0.184167	-0.0215335	0.00204487	0.000406446	0.000213586	0	5	0	
0.184333	0.0154041	-0.0122116	0.00040922	0.000228235	0	5	0	
0.1845	-0.0143804	0.00718166	0.000334971	0.000215723	0	5	0	
0.184667	0.0165244	0.00322429	0.000323159	0.000184259	0	5	0	
0.184833	-0.0197663	0.00218871	0.00032266	0.000149661	0	5	0	
0.185	0.0175524	-0.0150866	0.000373804	0.000205693	0	5	0	
0.185167	-0.0197178	0.0156714	0.000367019	0.000290498	0	5	0	
0.185333	0.0199344	-0.00296123	0.000389562	0.000277955	0	5	0	
0.1855	-0.0228843	-0.00623662	0.000387196	0.000197606	0	5	0	
0.185667	0.0213968	0.0021357	0.000437533	0.000137385	0	5	0	
0.185833	-0.0230084	0.00645854	0.000427697	0.000116594	0	5	0	
0.186	0.0213751	0.00215612	0.000444789	0.00014199	0	5	0	
0.186167	-0.0193336	-0.0117608	0.000401859	0.000156665	0	5	0	
0.186333	0.0141252	0.00796299	0.000391421	0.000215691	0	5	0	
0.1865	-0.017627	0.00951843	0.000349379	0.000296189	0	5	0	
0.186667	0.0196094	-0.0161661	0.000369977	0.000326653	0	5	0	
0.186833	-0.0178904	0.0175718	0.00035917	0.000341874	0	5	0	
0.187	0.0189296	-0.0126493	0.000391743	0.000309329	0	5	0	
0.187167	-0.02659	0.00882406	0.00039875	0.000299898	0	5	0	
0.187333	0.0222637	-0.000995236	0.00045243	0.000233908	0	5	0	
0.1875	-0.0157015	0.000713435	0.00042076	0.000164248	0	5	0	
0.187667	0.0131649	-0.00279451	0.000388173	0.000102815	0	5	0	
0.187833	-0.0189443	0.0114644	0.000339148	0.000116581	0	5	0	
0.188	0.0242498	-0.00974377	0.000386233	0.00015396	0	5	0	
0.188167	-0.0201834	0.00102979	0.000410793	0.000168789	0	5	0	
0.188333	0.0164277	0.00978322	0.000417877	0.000147035	0	5	0	
0.1885	-0.0211136	0.00308956	0.00038009	0.000146882	0	5	0	
0.188667	0.0190669	-0.0232541	0.000374604	0.000260228	0	5	0	
0.188833	-0.0172306	0.0287037	0.000360131	0.000384073	0	5	0	
0.189	0.0119573	-0.0102289	0.000353347	0.000441156	0	5	0	
0.189167	-0.0124715	-0.00186224	0.000300201	0.00039256	0	5	0	
0.189333	0.0148067	0.00549504	0.000297183	0.000258419	0	5	0	
0.1895	-0.0181764	0.000441422	0.000298886	0.000161057	0	5	0	
0.189667	0.0213371	-0.0101167	0.00036556	0.000155704	0	5	0	
0.189833	-0.0261427	0.022714	0.000413422	0.00026532	0	5	0	
0.19	0.0237759	-0.0167728	0.000459197	0.000352473	0	5	0	
0.190167	-0.0164376	-0.00399345	0.000435207	0.000349136	0	5	0	
0.190333	0.0152218	0.0144069	0.000398382	0.000266539	0	5	0	
0.1905	-0.0195813	-0.00367141	0.000352333	0.000236032	0	5	0	
0.190667	0.0208288	-0.0119744	0.000370788	0.000272327	0	5	0	
0.190833	-0.0193068	0.0178255	0.000369025	0.000316743	0	5	0	
0.191	0.0203814	-0.0106706	0.00039245	0.000318221	0	5	0	
0.191167	-0.0168731	-0.00142845	0.000365546	0.000281007	0	5	0	
0.191333	0.0142632	0.00410695	0.000364346	0.000254995	0	5	0	
0.1915	-0.0153888	-0.00808608	0.000318448	0.000222028	0	5	0	
0.191667	0.0151649	0.00881895	0.000320747	0.000180329	0	5	0	
0.191833	-0.0234439	-0.00341567	0.000326349	0.000183432	0	5	0	
0.192	0.0236762	-0.0137915	0.00040177	0.00024181	0	5	0	
0.192167	-0.0244167	0.0207434	0.000431987	0.000303123	0	5	0	
0.192333	0.0201729	-0.013047	0.000469826	0.000337697	0	5	0	
0.1925	-0.0173154	0.00556232	0.000405563	0.000310169	0	5	0	
0.192667	0.0118703	-0.00204918	0.000369348	0.000259815	0	5	0	
0.192833	-0.0200292	0.00172135	0.000336029	0.000176579	0	5	0	
0.193	0.0227067	-0.0133636	0.000398933	0.000176825	0	5	0	
0.193167	-0.0248442	0.0247606	0.000437155	0.000249652	0	5	0	
0.193333	0.0188168	-0.0191801	0.000458803	0.000359267	0	5	0	
0.1935	-0.0183481	0.00943471	0.000393443	0.000397375	0	5	0	
0.193667	0.0153493	-0.00221605	0.000371757	0.000334378	0	5	0	
0.193833	-0.0115082	0.00208768	0.000302773	0.000217233	0	5	0	
0.194	0.0123295	0.00345495	0.000285122	0.000112289	0	5	0	
0.194167	-0.0197619	0.00170297	0.000276731	0.000132217	0	5	0	
0.194333	0.0249821	-0.0166002	0.000349734	0.000284853	0	5	0	
0.1945	-0.0234436	0.0243756	0.000410306	0.000406544	0	5	0	
0.194667	0.0199448	-0.00873938	0.000441636	0.000422841	0	5	0	
0.194833	-0.0175774	-0.00743527	0.000402922	0.000296017	0	5	0	
0.195	0.0140933	0.0071932	0.000373605	0.000232777	0	5	0	
0.195167	-0.0148364	0.00816045	0.000319995	0.000287477	0	5	0	
0.195333	0.0223226	-0.0158475	0.000346218	0.000370787	0	5	0	
0.1955	-0.0237208	0.00870171	0.000379082	0.000346881	0	5	0	
0.195667	0.0190737	0.00533398	0.000420862	0.000300625	0	5	0	
0.195833	-0.0178536	-0.00760439	0.000398164	0.00023422	0	5	0	
0.196	0.0209761	-0.000462042	0.000390604	0.000225567	0	5	0	
0.196167	-0.0231481	0.00666567	0.000396539	0.000166008	0	5	0	
0.196333	0.0203437	-0.00334393	0.000431318	0.000142024	0	5	0	
0.1965	-0.0178166	-0.00393124	0.00041256	0.000145505	0	5	0	
0.196667	0.0203656	0.0121773	0.000390891	0.000191073	0	5	0	
0.196833	-0.0208408	-0.0229345	0.000367299	0.000272796	0	5	0	
0.197	0.0156817	0.0200111	0.000372029	0.000345697	0	5	0	
0.197167	-0.0150524	-0.00333179	0.000356845	0.000355711	0	5	0	
0.197333	0.0183533	-0.00263298	0.000368896	0.00026743	0	5	0	
0.1975	-0.0197402	0.000604534	0.000375547	0.000194935	0	5	0	
0.197667	0.0219159	-0.00131245	0.00039778	0.00014821	0	5	0	
0.197833	-0.0220946	0.00288847	0.00040108	0.000196158	0	5	0	
0.198	0.0209768	-0.000552661	0.000411074	0.000259804	0	5	0	
0.198167	-0.0190068	0.00324149	0.000407323	0.000288397	0	5	0	
0.198333	0.0167362	-0.0104147	0.0003925	0.00027416	0	5	0	
0.1985	-0.0148805	0.0109289	0.00034579	0.000224732	0	5	0	
0.198667	0.0179452	0.00516925	0.000333024	0.000226106	0	5	0	
0.198833	-0.0173555	-0.00867601	0.000319086	0.000218935	0	5	0	
0.199	0.0190855	-0.00208696	0.00034831	0.000215164	0	5	0	
0.199167	-0.0195183	0.00856033	0.000357254	0.000187962	0	5	0	
0.199333	0.020705	-0.00380269	0.000391187	0.000177597	0	5	0	
0.1995	-0.0237292	0.00504279	0.000404121	0.000133546	0	5	0	
0.199667	0.0210282	-0.00184762	0.000439157	8.75103E-05	0	5	0	
0.199833	-0.0164006	-0.00473843	0.000402012	0.000117945	0	5	0	
0.2	0.0169157	0.011699	0.000386309	0.000145141	0	5	0	
0.200167	-0.0186341	-0.0001803	0.000327685	0.000208088	0	5	0	
0.200333	0.0161296	-0.0111687	0.000348804	0.000244524	0	5	0	
0.2005	-0.0154707	0.0111778	0.000328442	0.000255674	0	5	0	
0.200667	0.0154307	-0.00377632	0.000348116	0.000238008	0	5	0	
0.200833	-0.0178194	0.00634143	0.000326732	0.000171388	0	5	0	
0.201	0.0190543	-0.00539197	0.000352758	0.000148002	0	5	0	
0.201167	-0.0185629	0.000684814	0.000339035	0.000130401	0	5	0	
0.201333	0.0175607	0.0104219	0.00036041	0.000115796	0	5	0	
0.2015	-0.0183593	-0.00122855	0.000341661	0.000158207	0	5	0	
0.201667	0.0174959	-0.0154715	0.000353283	0.000240867	0	5	0	
0.201833	-0.0172803	0.0201384	0.000336516	0.000323214	0	5	0	
0.202	0.0168728	-0.00712813	0.00034571	0.000329017	0	5	0	
0.202167	-0.0191733	-0.00372762	0.000338592	0.000284106	0	5	0	
0.202333	0.0195382	0.010511	0.000357405	0.000234246	0	5	0	
0.2025	-0.0204949	-0.00711525	0.000359001	0.000197796	0	5	0	
0.202667	0.0176444	0.00106475	0.000385523	0.00016855	0	5	0	
0.202833	-0.0180552	0.00449152	0.000364272	0.000180327	0	5	0	
0.203	0.0162204	-0.0082	0.000368043	0.000187478	0	5	0	
0.203167	-0.0165131	0.0122826	0.000324409	0.000186473	0	5	0	
0.203333	0.0137	-0.00985284	0.000327335	0.000204962	0	5	0	
0.2035	-0.0180403	0.000300975	0.000299969	0.000254321	0	5	0	
0.203667	0.0203883	0.00603832	0.000351313	0.000246368	0	5	0	
0.203833	-0.0230332	-0.00100333	0.000369928	0.000192043	0	5	0	
0.204	0.0228464	-0.0059717	0.000432938	0.000105572	0	5	0	
0.204167	-0.0208747	0.00567202	0.000409331	0.000108849	0	5	0	
0.204333	0.0159754	-0.00356	0.000414933	0.000106105	0	5	0	
0.2045	-0.0175371	0.00533448	0.000348627	0.000119137	0	5	0	
0.204667	0.0164882	0.002443	0.000351737	8.39813E-05	0	5	0	
0.204833	-0.0152615	-0.00285945	0.000313925	7.17828E-05	0	5	0	
0.205	0.0142001	-0.00689881	0.00034135	9.3243E-05	0	5	0	
0.205167	-0.0234203	0.018666	0.000332765	0.000168456	0	5	0	
0.205333	0.0215245	-0.0139014	0.000404554	0.000239055	0	5	0	
0.2055	-0.0195962	0.00678464	0.000396114	0.000276754	0	5	0	
0.205667	0.0179236	0.00502408	0.000424192	0.000244909	0	5	0	
0.205833	-0.0210915	0.000275562	0.000371436	0.000163981	0	5	0	
0.206	0.0190018	-0.00702505	0.000398981	0.000150656	0	5	0	
0.206167	-0.0184391	0.0139954	0.000361827	0.000177091	0	5	0	
0.206333	0.016147	-0.00508441	0.000377596	0.000220535	0	5	0	
0.2065	-0.0197833	0.00250127	0.000342517	0.000170138	0	5	0	
0.206667	0.0171236	-0.00365054	0.000375333	0.000123401	0	5	0	
0.206833	-0.0160639	0.00632793	0.000338094	9.67174E-05	0	5	0	
0.207	0.0183773	0.00796616	0.000366658	0.000143491	0	5	0	
0.207167	-0.020999	-0.00764326	0.00035497	0.000143755	0	5	0	
0.207333	0.02181	-0.00662529	0.000403687	0.000227661	0	5	0	
0.2075	-0.0206693	0.0147254	0.000395678	0.000223914	0	5	0	
0.207667	0.0140947	-0.00549536	0.000395434	0.000275298	0	5	0	
0.207833	-0.0147746	6.30312E-05	0.000329639	0.000213773	0	5	0	
0.208	0.0141536	-0.00752424	0.000316151	0.000198531	0	5	0	
0.208167	-0.0155929	0.0147175	0.000289581	0.00019277	0	5	0	
0.208333	0.0186952	-0.00807865	0.000341975	0.000207766	0	5	0	
0.2085	-0.0262649	-0.00209943	0.000368811	0.000200985	0	5	0	
0.208667	0.0238639	0.00551321	0.000445578	0.000140946	0	5	0	
0.208833	-0.0216493	-0.0051035	0.000437646	0.000152093	0	5	0	
0.209	0.0144895	-0.00290272	0.000430771	0.000246303	0	5	0	
0.209167	-0.0136141	0.0118167	0.00033514	0.000368884	0	5	0	
0.209333	0.0134276	-0.0111377	0.000311762	0.00038966	0	5	0	
0.2095	-0.0181078	0.0040943	0.000284477	0.000283365	0	5	0	
0.209667	0.019405	-0.00268888	0.000339901	0.000162781	0	5	0	
0.209833	-0.0220354	0.00480758	0.000356446	9.43632E-05	0	5	0	
0.21	0.019885	2.71686E-06	0.000401162	6.73705E-05	0	5	0	
0.210167	-0.0238538	-0.00797073	0.000394164	7.41543E-05	0	5	0	
0.210333	0.0207214	0.00572494	0.000429145	8.76818E-05	0	5	0	
0.2105	-0.0190739	0.00290199	0.000402859	0.000119442	0	5	0	
0.210667	0.0159159	-0.00362782	0.000394491	0.000113824	0	5	0	
0.210833	-0.0191015	-0.00575987	0.000351153	9.182E-05	0	5	0	
0.211	0.0211254	0.0117046	0.000382732	0.000119234	0	5	0	
0.211167	-0.0223917	-0.00322935	0.000394964	0.000178092	0	5	0	
0.211333	0.0177863	-0.00237614	0.000415486	0.00020867	0	5	0	
0.2115	-0.0171525	0.000712134	0.000368221	0.000157053	0	5	0	
0.211667	0.0159614	0.00126294	0.000354484	8.54483E-05	0	5	0	
0.211833	-0.0197264	0.000972893	0.000330844	7.12362E-05	0	5	0	
0.212	0.0184061	-0.00337167	0.000357611	9.22302E-05	0	5	0	
0.212167	-0.0179929	0.00641169	0.000348605	0.000108235	0	5	0	
0.212333	0.020619	-0.00629791	0.000376474	0.000126592	0	5	0	
0.2125	-0.0232506	0.0168384	0.000391623	0.000162634	0	5	0	
0.212667	0.020566	-0.0284221	0.000427136	0.000272669	0	5	0	
0.212833	-0.0193207	0.0119136	0.000407589	0.000389892	0	5	0	
0.213	0.0167421	0.0131421	0.000379265	0.000501387	0	5	0	
0.213167	-0.0175471	-0.00882559	0.000343635	0.000418699	0	5	0	
0.213333	0.0154074	-0.00224495	0.000347892	0.000364744	0	5	0	
0.2135	-0.0148534	9.22027E-05	0.000329141	0.000234475	0	5	0	
0.213667	0.0138734	-0.00414504	0.000333242	0.000267868	0	5	0	
0.213833	-0.017551	0.0220281	0.000307545	0.000340061	0	5	0	
0.214	0.0199141	-0.0272909	0.000334212	0.000450007	0	5	0	
0.214167	-0.0225468	0.00720866	0.000352792	0.000474835	0	5	0	
0.214333	0.0199521	0.00686199	0.000398259	0.00035082	0	5	0	
0.2145	-0.0150555	0.00101962	0.000373874	0.000275657	0	5	0	
0.214667	0.0137707	-0.0147155	0.000348343	0.000312239	0	5	0	
0.214833	-0.0179593	0.015879	0.000301219	0.000357129	0	5	0	
0.215	0.0175378	-0.00808195	0.000319055	0.000338349	0	5	0	
0.215167	-0.018345	0.00123279	0.000321414	0.000219653	0	5	0	
0.215333	0.0182639	-0.00189919	0.00035509	0.000154363	0	5	0	
0.2155	-0.0193625	0.00391776	0.000358402	0.000138797	0	5	0	
0.215667	0.0214587	-0.00515835	0.00039398	0.000142173	0	5	0	
0.215833	-0.0227263	0.00496721	0.000400435	0.000127246	0	5	0	
0.216	0.0187904	-0.00583913	0.000417428	0.000113693	0	5	0	
0.216167	-0.0178263	0.0023413	0.000379868	0.000113094	0	5	0	
0.216333	0.018502	-0.000384994	0.000379106	0.000117399	0	5	0	
0.2165	-0.0172858	0.00351892	0.000346634	0.000124601	0	5	0	
0.216667	0.0167413	-0.0063261	0.000359495	0.000130891	0	5	0	
0.216833	-0.0213487	0.00304528	0.000348025	0.000119822	0	5	0	
0.217	0.0223026	-0.000241076	0.000388703	8.66951E-05	0	5	0	
0.217167	-0.0201459	0.00342975	0.000396112	6.72833E-05	0	5	0	
0.217333	0.0165014	-0.00732067	0.000400389	8.14576E-05	0	5	0	
0.2175	-0.016896	0.00139839	0.000357535	9.79512E-05	0	5	0	
0.217667	0.0181168	0.00178613	0.000353412	0.000102708	0	5	0	
0.217833	-0.0190109	0.00510236	0.0003447	0.000111084	0	5	0	
0.218	0.018245	-0.0090311	0.000357557	0.00015081	0	5	0	
0.218167	-0.0172048	0.00606658	0.000353359	0.000164881	0	5	0	
0.218333	0.015239	-0.000293021	0.000359258	0.000139126	0	5	0	
0.2185	-0.0200478	0.00597731	0.000352032	0.00011234	0	5	0	
0.218667	0.018609	-0.0113654	0.000367918	0.000133801	0	5	0	
0.218833	-0.0178884	0.00303193	0.00035492	0.000155246	0	5	0	
0.219	0.0203216	0.00936665	0.000367334	0.000142203	0	5	0	
0.219167	-0.0196096	-0.000651239	0.000364536	0.000119663	0	5	0	
0.219333	0.0181043	-0.00603815	0.000386002	0.000132456	0	5	0	
0.2195	-0.0178396	0.00243927	0.000359987	0.000120387	0	5	0	
0.219667	0.0153099	0.00467245	0.00034774	0.000100552	0	5	0	
0.219833	-0.0192398	-0.00104147	0.000316762	8.08673E-05	0	5	0	
0.22	0.0198665	-0.00319891	0.000355007	0.000114993	0	5	0	
0.220167	-0.0197688	0.00818181	0.000353765	0.000120846	0	5	0	
0.220333	0.0190502	-0.00393501	0.000391663	0.000136404	0	5	0	
0.2205	-0.0208729	-0.000302232	0.00037371	0.000133277	0	5	0	
0.220667	0.0230956	0.00205634	0.000405538	0.000131806	0	5	0	
0.220833	-0.026626	0.00350943	0.000416531	0.000100409	0	5	0	
0.221	0.0165738	-0.00947488	0.000446371	8.74603E-05	0	5	0	
0.221167	-0.0197117	0.00498066	0.000401407	0.00012396	0	5	0	
0.221333	0.0210667	0.00345519	0.000406737	0.000172997	0	5	0	
0.2215	-0.0227053	-0.00173391	0.000386444	0.000141089	0	5	0	
0.221667	0.0182741	-0.00199681	0.000423478	0.000135305	0	5	0	
0.221833	-0.0205693	0.00576518	0.000380076	0.000109804	0	5	0	
0.222	0.0173785	-0.00954126	0.000387738	0.000163066	0	5	0	
0.222167	-0.0202088	0.0143159	0.000355904	0.000191532	0	5	0	
0.222333	0.0168008	-0.0117418	0.000386361	0.000220157	0	5	0	
0.2225	-0.0191849	0.00180386	0.000358678	0.000242061	0	5	0	
0.222667	0.0174151	0.00467948	0.000379742	0.000205439	0	5	0	
0.222833	-0.0178473	-0.00418569	0.000335535	0.00015056	0	5	0	
0.223	0.0172654	0.00552755	0.000366035	0.000122685	0	5	0	
0.223167	-0.0217844	0.00421514	0.000351302	0.000152489	0	5	0	
0.223333	0.0201517	-0.0125473	0.000404739	0.000190013	0	5	0	
0.2235	-0.0189529	0.00413556	0.000377131	0.000222154	0	5	0	
0.223667	0.0211088	0.0123885	0.000395101	0.00026923	0	5	0	
0.223833	-0.0204858	-0.010609	0.000372071	0.000278895	0	5	0	
0.224	0.0175978	-0.00830482	0.000391668	0.000292444	0	5	0	
0.224167	-0.0200983	0.00917948	0.000363101	0.000222695	0	5	0	
0.224333	0.0164391	0.00646111	0.000373413	0.00025765	0	5	0	
0.2245	-0.0171825	-0.00394922	0.00034828	0.000203392	0	5	0	
0.224667	0.0184811	-0.0187099	0.000377947	0.000303614	0	5	0	
0.224833	-0.02489	0.019957	0.000385681	0.000316284	0	5	0	
0.225	0.0224301	-0.00425991	0.000433323	0.00040086	0	5	0	
0.225167	-0.0213979	-0.005487	0.000428549	0.000334133	0	5	0	
0.225333	0.0205039	0.00855394	0.000431702	0.000269123	0	5	0	
0.2255	-0.0224932	-0.0155111	0.000402417	0.000215463	0	5	0	
0.225667	0.0147188	0.0115661	0.000404713	0.000212222	0	5	0	
0.225833	-0.0179785	0.00733495	0.000359648	0.000303727	0	5	0	
0.226	0.0229551	-0.0206392	0.000379863	0.000340395	0	5	0	
0.226167	-0.0251765	0.0176855	0.000389782	0.000377746	0	5	0	
0.226333	0.020279	-0.000248407	0.000442536	0.000420395	0	5	0	
0.2265	-0.0173075	-0.016582	0.000405847	0.000493842	0	5	0	
0.226667	0.0154756	0.0213895	0.000385304	0.000497175	0	5	0	
0.226833	-0.0169341	-0.00860569	0.000335485	0.000424388	0	5	0	
0.227	0.0210847	-0.0123069	0.000362023	0.000404036	0	5	0	
0.227167	-0.0218862	0.0191204	0.00037181	0.000395385	0	5	0	
0.227333	0.0196193	-0.00998699	0.000404711	0.000379268	0	5	0	
0.2275	-0.0153549	-0.000845242	0.000371778	0.000270191	0	5	0	
0.227667	0.0144728	0.00145984	0.000348016	0.000179582	0	5	0	
0.227833	-0.0166282	-0.0025488	0.000313082	0.00012329	0	5	0	
0.228	0.0200465	0.00338639	0.000341306	0.000101073	0	5	0	
0.228167	-0.0218657	-0.00231115	0.000360145	0.000103594	0	5	0	
0.228333	0.0212079	-0.00153367	0.000396026	9.90947E-05	0	5	0	
0.2285	-0.0189174	-0.00681262	0.000391689	8.89371E-05	0	5	0	
0.228667	0.0173626	0.0105394	0.000390085	0.000103616	0	5	0	
0.228833	-0.0175625	0.00428177	0.000363838	0.000218635	0	5	0	
0.229	0.0206736	-0.0235771	0.000372529	0.00034597	0	5	0	
0.229167	-0.0214557	0.016591	0.000375535	0.000403899	0	5	0	
0.229333	0.0167731	0.00183385	0.000378711	0.000419617	0	5	0	
0.2295	-0.0185949	-0.0144712	0.000359043	0.000383469	0	5	0	
0.229667	0.0182708	0.0142866	0.000355631	0.000357787	0	5	0	
0.229833	-0.0159314	-0.0111436	0.000340913	0.000288499	0	5	0	
0.23	0.0160387	0.009899	0.000342308	0.000231199	0	5	0	
0.230167	-0.0192586	-0.00193589	0.000328095	0.000227804	0	5	0	
0.230333	0.0216357	-0.00294239	0.00036507	0.000265153	0	5	0	
0.2305	-0.0240861	0.00829528	0.000398503	0.000357605	0	5	0	
0.230667	0.0184306	-0.0127104	0.000429027	0.000411128	0	5	0	
0.230833	-0.0176627	0.0134166	0.000393519	0.000362724	0	5	0	
0.231	0.0207885	-0.00604865	0.00038008	0.000313482	0	5	0	
0.231167	-0.0177333	-0.00862459	0.000344897	0.000349703	0	5	0	
0.231333	0.0121267	0.0220548	0.000355197	0.000361513	0	5	0	
0.2315	-0.0156049	-0.0138063	0.000308219	0.000377914	0	5	0	
0.231667	0.023481	0.00954725	0.000340698	0.000323285	0	5	0	
0.231833	-0.0247865	0.00132559	0.000374642	0.000311904	0	5	0	
0.232	0.0225475	-0.00470784	0.000446157	0.000251329	0	5	0	
0.232167	-0.018123	0.00715689	0.00042004	0.000177861	0	5	0	
0.232333	0.0186658	-0.00488425	0.000400268	0.000167834	0	5	0	
0.2325	-0.0200706	0.0119982	0.000356777	0.000259799	0	5	0	
0.232667	0.0205919	-0.022741	0.000378784	0.000388149	0	5	0	
0.232833	-0.0180796	0.0231119	0.000378933	0.000455232	0	5	0	
0.233	0.0197669	0.00216804	0.000388357	0.00048399	0	5	0	
0.233167	-0.0206389	-0.00305532	0.000373877	0.000485506	0	5	0	
0.233333	0.0198226	0.00470108	0.000389427	0.00043681	0	5	0	
0.2335	-0.016502	-0.00714218	0.000386477	0.00034117	0	5	0	
0.233667	0.0187766	-0.0060753	0.000386501	0.000258408	0	5	0	
0.233833	-0.0202394	0.0188141	0.000375636	0.000290302	0	5	0	
0.234	0.0219649	-0.00407115	0.00039281	0.000384389	0	5	0	
0.234167	-0.0230607	-0.0175227	0.000409103	0.000537499	0	5	0	
0.234333	0.0194758	0.0210975	0.000424641	0.000521321	0	5	0	
0.2345	-0.0153794	0.00385987	0.000380739	0.000508089	0	5	0	
0.234667	0.0106226	-0.0194673	0.000326183	0.000372159	0	5	0	
0.234833	-0.021658	0.0198113	0.00029503	0.000390784	0	5	0	
0.235	0.0212239	-0.0230845	0.000360035	0.000381741	0	5	0	
0.235167	-0.021503	0.0296466	0.000390155	0.00041299	0	5	0	
0.235333	0.0227797	-0.00180772	0.000436576	0.00059144	0	5	0	
0.2355	-0.0250742	-0.0377964	0.000417657	0.000864483	0	5	0	
0.235667	0.0235827	0.0355041	0.000469425	0.000992315	0	5	0	
0.235833	-0.0250846	-0.00104229	0.000458005	0.000798567	0	5	0	
0.236	0.0096976	0.00215595	0.000437643	0.000381672	0	5	0	
0.236167	-0.0139473	-0.0198292	0.000326212	0.000234941	0	5	0	
0.236333	0.0216891	0.0122425	0.000317897	0.000208965	0	5	0	
0.2365	-0.0214449	0.00842839	0.000341065	0.000316711	0	5	0	
0.236667	0.0207753	-0.00721373	0.000443462	0.000263634	0	5	0	
0.236833	-0.0243135	0.00296319	0.000421115	0.00021812	0	5	0	
0.237	0.0192332	0.00263025	0.000432114	0.00011078	0	5	0	
0.237167	-0.0153597	-0.0135502	0.000375838	0.000114348	0	5	0	
0.237333	0.0135512	0.0203525	0.000359482	0.000182404	0	5	0	
0.2375	-0.01578	-0.0123996	0.000297776	0.000290079	0	5	0	
0.237667	0.0136907	0.0127036	0.000306192	0.000359711	0	5	0	
0.237833	-0.0180183	-0.0262655	0.000278026	0.00039366	0	5	0	
0.238	0.0176845	0.00869504	0.000334197	0.000585257	0	5	0	
0.238167	-0.0219992	0.047893	0.000347213	0.000963691	0	5	0	
0.238333	0.0202785	-0.0694707	0.000413519	0.00116627	0	5	0	
0.2385	-0.0157146	0.00739428	0.000369163	0.00129091	0	5	0	
0.238667	0.0100418	0.0495688	0.000347279	0.00121407	0	5	0	
0.238833	-0.0160781	-0.0355246	0.000266099	0.00110404	0	5	0	
0.239	0.0165764	-0.00648727	0.00029482	0.00100878	0	5	0	
0.239167	-0.0193775	0.0083777	0.00029298	0.000711186	0	5	0	
0.239333	0.0165127	0.00434863	0.000362943	0.000529084	0	5	0	
0.2395	-0.0179815	0.0112603	0.000311847	0.000412284	0	5	0	
0.239667	0.0208338	-0.0376191	0.000357393	0.000561991	0	5	0	
0.239833	-0.0223066	0.026993	0.000345292	0.000718951	0	5	0	
0.24	0.0182602	0.00152265	0.000426125	0.00058143	0	5	0	
0.240167	-0.0216376	0.0102066	0.000389429	0.0004638	0	5	0	
0.240333	0.0203312	-0.0447175	0.000424602	0.000595421	0	5	0	
0.2405	-0.0229231	0.0367377	0.000384986	0.000744002	0	5	0	
0.240667	0.0204265	0.0110569	0.000425261	0.000838134	0	5	0	
0.240833	-0.0179922	-0.0328768	0.000385147	0.000630434	0	5	0	
0.241	0.0144695	-0.0016355	0.000393232	0.000674494	0	5	0	
0.241167	-0.0213593	0.0270655	0.000333475	0.000666218	0	5	0	
0.241333	0.0200144	-0.012012	0.000375568	0.000657314	0	5	0	
0.2415	-0.0240729	-0.00105532	0.000371776	0.000436495	0	5	0	
0.241667	0.0186204	-0.0239109	0.000419046	0.00035007	0	5	0	
0.241833	-0.0177571	0.0312384	0.000380815	0.000390874	0	5	0	
0.242	0.00982573	-0.0100546	0.000357263	0.000495898	0	5	0	
0.242167	-0.0205869	-0.000390691	0.000299942	0.000378618	0	5	0	
0.242333	0.0185294	-0.0191993	0.000328591	0.000278681	0	5	0	
0.2425	-0.0198484	0.0213713	0.000330895	0.000328563	0	5	0	
0.242667	0.0190084	0.000817716	0.000398343	0.000565939	0	5	0	
0.242833	-0.0224174	-0.0111861	0.000361828	0.000636922	0	5	0	
0.243	0.0235268	-0.0133808	0.00041528	0.000517831	0	5	0	
0.243167	-0.0219472	0.0377363	0.000413074	0.000391579	0	5	0	
0.243333	0.0181019	-0.0438987	0.000434811	0.00052314	0	5	0	
0.2435	-0.0214442	0.0631811	0.000397968	0.000786262	0	5	0	
0.243667	0.0201528	-0.0662206	0.000402052	0.00102694	0	5	0	
0.243833	-0.0195652	0.0453964	0.000372925	0.00111536	0	5	0	
0.244	0.0234215	-0.0170256	0.000411035	0.00108296	0	5	0	
0.244167	-0.0175239	0.00644826	0.000391983	0.000796093	0	5	0	
0.244333	0.0186011	-0.0115047	0.000400059	0.000532642	0	5	0	
0.2445	-0.0228425	0.00814551	0.000376853	0.000304455	0	5	0	
0.244667	0.0201166	0.0240992	0.000393758	0.000391524	0	5	0	
0.244833	-0.0234047	-0.0257161	0.00040489	0.000429687	0	5	0	
0.245	0.0208925	0.00047579	0.000426285	0.000715259	0	5	0	
0.245167	-0.0193934	0.0477563	0.000397638	0.00108137	0	5	0	
0.245333	0.0164301	-0.0800295	0.000406424	0.00151973	0	5	0	
0.2455	-0.0175754	0.088664	0.000351502	0.00164413	0	5	0	
0.245667	0.019965	-0.0554658	0.000365795	0.00155806	0	5	0	
0.245833	-0.0238982	0.00113339	0.000367409	0.0014193	0	5	0	
0.246	0.0180148	0.0467025	0.000413779	0.00123461	0	5	0	
0.246167	-0.0204934	-0.0618222	0.000388893	0.00106845	0	5	0	
0.246333	0.0172875	0.04316	0.00040715	0.00110148	0	5	0	
0.2465	-0.0267018	0.00996818	0.000373942	0.00135845	0	5	0	
0.246667	0.026819	-0.0398975	0.000453519	0.00146085	0	5	0	
0.246833	-0.0207749	0.0237776	0.000440537	0.00115246	0	5	0	
0.247	0.0125537	0.0150886	0.000437946	0.00082848	0	5	0	
0.247167	-0.0165874	-0.0473597	0.000344635	0.000658871	0	5	0	
0.247333	0.0147449	0.0627462	0.000318452	0.000841207	0	5	0	
0.2475	-0.0165993	-0.0532087	0.000298582	0.000968825	0	5	0	
0.247667	0.00747281	0.0383078	0.000312631	0.00101003	0	5	0	
0.247833	-0.0145445	-0.0164171	0.000281212	0.00088448	0	5	0	
0.248	0.0279522	-0.0297419	0.000339691	0.000707121	0	5	0	
0.248167	-0.0288683	0.0534303	0.000393014	0.000642317	0	5	0	
0.248333	0.023622	-0.0386844	0.000497706	0.000928593	0	5	0	
0.2485	-0.0269594	0.00424937	0.000501979	0.00159142	0	5	0	
0.248667	0.0273875	0.0126996	0.000520532	0.00220073	0	5	0	
0.248833	-0.0154609	-0.0194678	0.000463064	0.00227697	0	5	0	
0.249	0.0122586	0.0289598	0.000429043	0.00176183	0	5	0	
0.249167	-0.0178889	-0.025729	0.000356063	0.00106834	0	5	0	
0.249333	0.0213927	-0.0217203	0.00037922	0.000766642	0	5	0	
0.2495	-0.0128275	0.0576579	0.000341089	0.00067255	0	5	0	
0.249667	0.00943794	-0.0384339	0.00032787	0.000882138	0	5	0	
0.249833	-0.0126824	0.00292479	0.000245048	0.000754559	0	5	0	
0.25	0.0117167	-0.0144739	0.000267152	0.000621543	0	5	0	
0.250167	-0.0236356	0.0186335	0.000260252	0.00034256	0	5	0	
0.250333	0.0260873	0.0278873	0.000354067	0.00057586	0	5	0	
0.2505	-0.0220678	-0.0466382	0.000390847	0.000777033	0	5	0	
0.250667	0.0121768	0.00631015	0.00046332	0.000890434	0	5	0	
0.250833	-0.0108777	0.026632	0.000381482	0.000629792	0	5	0	
0.251	0.0094514	-0.00907907	0.000319634	0.000529652	0	5	0	
0.251167	-0.0219793	-0.0134546	0.00024932	0.000522134	0	5	0	
0.251333	0.0224654	-0.00384873	0.000332333	0.000448295	0	5	0	
0.2515	-0.0247852	0.00368345	0.000383452	0.000287426	0	5	0	
0.251667	0.0243118	0.0137688	0.00047683	0.000294958	0	5	0	
0.251833	-0.0175914	0.0108326	0.000407768	0.000294824	0	5	0	
0.252	0.0123366	-0.0594704	0.000408891	0.000457962	0	5	0	
0.252167	-0.0184913	0.0330028	0.000336087	0.000630097	0	5	0	
0.252333	0.0217609	0.0184249	0.000373384	0.00101952	0	5	0	
0.2525	-0.0293625	-0.0171834	0.000411392	0.000873586	0	5	0	
0.252667	0.0311762	-0.0330376	0.000502535	0.0009032	0	5	0	
0.252833	-0.0230789	0.0681638	0.000521477	0.000853548	0	5	0	
0.253	0.0176158	-0.0670021	0.000508744	0.00120463	0	5	0	
0.253167	-0.0167782	0.0439382	0.000433245	0.00117035	0	5	0	
0.253333	0.0155721	-0.0316983	0.000388083	0.00111249	0	5	0	
0.2535	-0.0195426	0.0445383	0.000365786	0.00105462	0	5	0	
0.253667	0.016253	-0.0430411	0.000357286	0.00110297	0	5	0	
0.253833	-0.0163267	0.0402977	0.000341749	0.00109201	0	5	0	
0.254	0.0144656	-0.0490698	0.000330448	0.000990663	0	5	0	
0.254167	-0.0193048	0.0445326	0.000322737	0.000880784	0	5	0	
0.254333	0.0121895	0.00295079	0.000312811	0.000804732	0	5	0	
0.2545	-0.0125586	-0.0325255	0.000280112	0.000704962	0	5	0	
0.254667	0.0207812	0.0308501	0.000302247	0.000703794	0	5	0	
0.254833	-0.0268693	0.0162993	0.000351298	0.0010404	0	5	0	
0.255	0.0169969	-0.0545355	0.000413066	0.00135473	0	5	0	
0.255167	-0.0203994	0.0469554	0.000407407	0.00138856	0	5	0	
0.255333	0.0161335	-0.0206101	0.00039683	0.00102262	0	5	0	
0.2555	-0.0181377	0.00230115	0.000359908	0.00064198	0	5	0	
0.255667	0.0175936	0.0138913	0.000371284	0.000356637	0	5	0	
0.255833	-0.0204467	-0.0193162	0.0003476	0.000324354	0	5	0	
0.256	0.0173306	0.00361497	0.00035761	0.000421561	0	5	0	
0.256167	-0.0198819	0.0067263	0.000344174	0.000526351	0	5	0	
0.256333	0.0212266	-0.0113811	0.000393353	0.000428474	0	5	0	
0.2565	-0.0198052	0.0168893	0.000374684	0.000309831	0	5	0	
0.256667	0.0171887	-0.0129227	0.000390076	0.000264659	0	5	0	
0.256833	-0.0179007	-0.0111122	0.00034008	0.000464369	0	5	0	
0.257	0.0185191	0.0235649	0.00036783	0.000588911	0	5	0	
0.257167	-0.0169199	-0.00061445	0.000345451	0.000647805	0	5	0	
0.257333	0.022264	-0.0262114	0.000381803	0.000609765	0	5	0	
0.2575	-0.0254522	0.0196633	0.000378843	0.00052015	0	5	0	
0.257667	0.026283	0.00578185	0.000458658	0.00049146	0	5	0	
0.257833	-0.0216029	0.00516952	0.000469991	0.00035831	0	5	0	
0.258	0.0194107	-0.0254013	0.000473276	0.0004571	0	5	0	
0.258167	-0.0145019	0.0184976	0.000383506	0.000478598	0	5	0	
0.258333	0.018441	-0.000873367	0.000355715	0.000425752	0	5	0	
0.2585	-0.0210909	0.00176136	0.000338297	0.000217745	0	5	0	
0.258667	0.0179296	0.00408991	0.000362053	0.000102015	0	5	0	
0.258833	-0.0151565	-0.0180134	0.000341196	0.000136905	0	5	0	
0.259	0.0179637	0.0173171	0.000344519	0.000239014	0	5	0	
0.259167	-0.0235714	0.0065381	0.000339382	0.000447011	0	5	0	
0.259333	0.0247049	-0.03287	0.000401817	0.000624799	0	5	0	
0.2595	-0.0198865	0.0362293	0.000415737	0.000719242	0	5	0	
0.259667	0.0186715	-0.0202227	0.000426562	0.000669837	0	5	0	
0.259833	-0.029364	0.00179937	0.000420464	0.00055102	0	5	0	
0.26	0.0286007	0.00186869	0.000477148	0.000400756	0	5	0	
0.260167	-0.0179694	-0.000903996	0.000483932	0.000222181	0	5	0	
0.260333	0.0107083	0.00189225	0.000449163	0.000132666	0	5	0	
0.2605	-0.0193452	-0.0222259	0.000358477	0.000171851	0	5	0	
0.260667	0.0231177	0.0360604	0.000372169	0.000342547	0	5	0	
0.260833	-0.0188702	-0.0317274	0.000384321	0.000497528	0	5	0	
0.261	0.0120493	0.00339723	0.000394957	0.000689981	0	5	0	
0.261167	-0.0212698	0.0312995	0.00034724	0.000783454	0	5	0	
0.261333	0.0246416	-0.0293192	0.0003849	0.000746519	0	5	0	
0.2615	-0.0242803	-0.00495761	0.000413072	0.000749787	0	5	0	
0.261667	0.017581	0.0172518	0.000439288	0.000664328	0	5	0	
0.261833	-0.013282	0.00211189	0.000383407	0.00055502	0	5	0	
0.262	0.0166859	-0.00642854	0.000358783	0.000340706	0	5	0	
0.262167	-0.0212175	-2.13525E-06	0.000336818	0.000269343	0	5	0	
0.262333	0.0216409	-0.00633758	0.000369515	0.0002688	0	5	0	
0.2625	-0.0204582	0.0119792	0.000393933	0.000313774	0	5	0	
0.262667	0.0198591	0.0136036	0.000463346	0.000427224	0	5	0	
0.262833	-0.0229754	-0.0281494	0.000459505	0.000524387	0	5	0	
0.263	0.0266676	0.0112979	0.000477129	0.000569564	0	5	0	
0.263167	-0.0217723	0.0135849	0.000440794	0.000579475	0	5	0	
0.263333	0.020664	-0.0171691	0.000445319	0.000536513	0	5	0	
0.2635	-0.0293205	0.00787484	0.000443679	0.000441189	0	5	0	
0.263667	0.0364221	-0.00656426	0.000549919	0.000247379	0	5	0	
0.263833	-0.0230196	0.00949591	0.000562226	0.00016716	0	5	0	
0.264	0.0146853	-0.00517497	0.000533126	0.000137698	0	5	0	
0.264167	-0.0229945	0.00519577	0.000400003	0.000163109	0	5	0	
0.264333	0.0236158	-0.00258483	0.000418538	0.000213804	0	5	0	
0.2645	-0.0255885	-0.00490827	0.000436765	0.000262833	0	5	0	
0.264667	0.0196818	0.0104097	0.000459648	0.000283627	0	5	0	
0.264833	-0.0121643	-0.0164084	0.000387664	0.000291683	0	5	0	
0.265	0.0124098	0.024904	0.000325524	0.000323347	0	5	0	
0.265167	-0.0195806	-0.0120012	0.000281596	0.000468004	0	5	0	
0.265333	0.0198435	-0.0093311	0.000326154	0.000684156	0	5	0	
0.2655	-0.0217451	0.0168238	0.000353586	0.000745606	0	5	0	
0.265667	0.0189427	0.00158457	0.000396444	0.000561805	0	5	0	
0.265833	-0.0194261	-0.000265054	0.000373722	0.000283874	0	5	0	
0.266	0.0251967	-0.0119439	0.000396815	0.000183442	0	5	0	
0.266167	-0.0236718	0.00147863	0.00041173	0.000210468	0	5	0	
0.266333	0.0203271	0.0306327	0.000443024	0.000422463	0	5	0	
0.2665	-0.0232788	-0.0281828	0.000429842	0.000529967	0	5	0	
0.266667	0.0205342	0.000596493	0.000433292	0.000617994	0	5	0	
0.266833	-0.0196492	0.0180414	0.000403884	0.000462167	0	5	0	
0.267	0.0190613	-0.00219044	0.000398417	0.000411144	0	5	0	
0.267167	-0.0133235	-0.0138461	0.000344898	0.00034433	0	5	0	
0.267333	0.0171115	0.00298398	0.000335964	0.000369414	0	5	0	
0.2675	-0.0261352	0.019416	0.000346656	0.000386227	0	5	0	
0.267667	0.027157	-0.0145013	0.000428807	0.000385956	0	5	0	
0.267833	-0.0263832	0.0150189	0.000477065	0.000366571	0	5	0	
0.268	0.0215555	-0.0277963	0.000498405	0.000359244	0	5	0	
0.268167	-0.0192059	0.0364119	0.000441801	0.000464544	0	5	0	
0.268333	0.0188875	-0.0192086	0.000413208	0.000535934	0	5	0	
0.2685	-0.0153172	0.00833962	0.000362888	0.000500413	0	5	0	
0.268667	0.0185729	-0.00800727	0.000357288	0.000354959	0	5	0	
0.268833	-0.0172668	0.0156228	0.000348039	0.000284685	0	5	0	
0.269	0.0185302	-0.0166254	0.000392063	0.000322612	0	5	0	
0.269167	-0.0249931	0.0284592	0.000409505	0.000471232	0	5	0	
0.269333	0.0243178	-0.0269259	0.000442157	0.0005812	0	5	0	
0.2695	-0.0186996	0.0163994	0.000424265	0.00056552	0	5	0	
0.269667	0.0236061	-0.00818094	0.000433918	0.000440212	0	5	0	
0.269833	-0.0203324	0.00676757	0.000409172	0.000293978	0	5	0	
0.27	0.0157092	0.00390311	0.000411096	0.000208447	0	5	0	
0.270167	-0.0151949	-0.00627529	0.000353476	0.000261047	0	5	0	
0.270333	0.0167114	-0.00557963	0.000338489	0.00047346	0	5	0	
0.2705	-0.0207543	0.0206841	0.000324787	0.000654503	0	5	0	
0.270667	0.020642	-0.0180262	0.000375811	0.000640992	0	5	0	
0.270833	-0.01944	0.00847945	0.000375453	0.000441605	0	5	0	
0.271	0.0201343	0.000279073	0.000394032	0.000253958	0	5	0	
0.271167	-0.015583	-0.00867487	0.000355145	0.000228176	0	5	0	
0.271333	0.00999691	0.0148466	0.000337218	0.000247066	0	5	0	
0.2715	-0.0184147	-0.000784357	0.000298274	0.000246171	0	5	0	
0.271667	0.0284428	-0.011939	0.000369729	0.000209206	0	5	0	
0.271833	-0.0310799	0.00432501	0.000451603	0.000169508	0	5	0	
0.272	0.0224699	0.00868746	0.000533763	0.000258877	0	5	0	
0.272167	-0.0182419	-0.00831388	0.000478142	0.000320624	0	5	0	
0.272333	0.0216198	0.00716206	0.000442857	0.000320364	0	5	0	
0.2725	-0.0212609	-0.00409679	0.000385146	0.000234489	0	5	0	
0.272667	0.0176737	-0.00645292	0.000405943	0.000233281	0	5	0	
0.272833	-0.0198421	0.0180397	0.000371474	0.000298468	0	5	0	
0.273	0.0251494	-0.0176327	0.00040626	0.000349355	0	5	0	
0.273167	-0.0255566	0.00764853	0.000412793	0.000353362	0	5	0	
0.273333	0.0218067	-0.000403	0.000464882	0.000315192	0	5	0	
0.2735	-0.0149571	0.00158331	0.000418035	0.000226983	0	5	0	
0.273667	0.0194801	-0.0036436	0.000398199	0.000115134	0	5	0	
0.273833	-0.0259246	0.000574847	0.000383375	5.1972E-05	0	5	0	
0.274	0.0273116	-9.96814E-05	0.000455297	6.73865E-05	0	5	0	
0.274167	-0.0231662	0.00383859	0.000474754	0.000100646	0	5	0	
0.274333	0.0167316	-0.00510549	0.000464571	0.000120372	0	5	0	
0.2745	-0.0167468	0.00103698	0.000388759	0.000116914	0	5	0	
0.274667	0.0224035	-0.000243914	0.000382433	8.15176E-05	0	5	0	
0.274833	-0.0263663	0.00311588	0.000388665	7.30015E-05	0	5	0	
0.275	0.0222589	-0.00616236	0.000443399	7.4081E-05	0	5	0	
0.275167	-0.0210375	0.00559234	0.000432007	0.000103012	0	5	0	
0.275333	0.0167742	-0.000386184	0.000426468	0.000111332	0	5	0	
0.2755	-0.0182529	0.00172164	0.000369202	0.000107854	0	5	0	
0.275667	0.0168069	-0.0106023	0.000367352	9.91277E-05	0	5	0	
0.275833	-0.0190143	0.0142679	0.000331148	0.000145872	0	5	0	
0.276	0.0221325	-0.00707658	0.000378701	0.000188549	0	5	0	
0.276167	-0.0259319	0.00370129	0.000385159	0.000195078	0	5	0	
0.276333	0.0230112	-0.00264293	0.000455439	0.000172947	0	5	0	
0.2765	-0.0194626	0.0116881	0.000426385	0.000212357	0	5	0	
0.276667	0.0151714	-0.0177625	0.000417702	0.000299391	0	5	0	
0.276833	-0.0160139	0.0130715	0.000335147	0.000334521	0	5	0	
0.277	0.021614	0.00153776	0.000346842	0.00029038	0	5	0	
0.277167	-0.024288	-0.00919146	0.000354201	0.000216129	0	5	0	
0.277333	0.0216889	0.00657663	0.000423003	0.000167663	0	5	0	
0.2775	-0.0168393	-5.39455E-05	0.000407093	0.000183697	0	5	0	
0.277667	0.013375	-0.0042162	0.000390065	0.000215001	0	5	0	
0.277833	-0.0161744	0.013607	0.000317772	0.000272964	0	5	0	
0.278	0.0174331	-0.0237801	0.000317851	0.000306255	0	5	0	
0.278167	-0.0200009	0.0135296	0.000321283	0.000359915	0	5	0	
0.278333	0.021148	0.00371395	0.000370836	0.000416706	0	5	0	
0.2785	-0.0236862	-0.00927587	0.000381009	0.00036691	0	5	0	
0.278667	0.0198085	0.00218725	0.000415371	0.000285366	0	5	0	
0.278833	-0.0164315	0.00317478	0.000385563	0.000169984	0	5	0	
0.279	0.0132206	-0.00400374	0.000366979	0.000132228	0	5	0	
0.279167	-0.0200708	0.00497101	0.000310307	0.000102763	0	5	0	
0.279333	0.0190874	-0.00168235	0.000333947	9.42496E-05	0	5	0	
0.2795	-0.0186592	-0.00349889	0.000334622	0.000107539	0	5	0	
0.279667	0.0180936	-0.00491914	0.000374748	0.000138087	0	5	0	
0.279833	-0.0194077	0.0212551	0.000360261	0.000206747	0	5	0	
0.28	0.0227589	-0.0229252	0.000399153	0.000308698	0	5	0	
0.280167	-0.0215929	0.00297057	0.000393143	0.000410459	0	5	0	
0.280333	0.0174643	0.00862472	0.000407154	0.000422461	0	5	0	
0.2805	-0.0201295	0.000357386	0.000373838	0.000319442	0	5	0	
0.280667	0.0194659	-0.016747	0.00037998	0.000262272	0	5	0	
0.280833	-0.0148693	0.0155592	0.00035024	0.000240461	0	5	0	
0.281	0.0165057	-0.0113966	0.00034545	0.000297856	0	5	0	
0.281167	-0.0162421	0.00873337	0.00031078	0.000249398	0	5	0	
0.281333	0.0200292	-0.0110654	0.000328551	0.000209817	0	5	0	
0.2815	-0.0206308	0.0045373	0.00033897	0.000210513	0	5	0	
0.281667	0.0175801	0.00432463	0.000373065	0.000224984	0	5	0	
0.281833	-0.019429	-0.00307404	0.000368285	0.00020518	0	5	0	
0.282	0.0197634	-0.0133578	0.000383214	0.000196849	0	5	0	
0.282167	-0.0206097	0.0188276	0.000368156	0.000220808	0	5	0	
0.282333	0.0223742	-0.00774231	0.000399934	0.000284942	0	5	0	
0.2825	-0.0207635	-0.00210578	0.000401173	0.000300413	0	5	0	
0.282667	0.0235866	0.00353032	0.000430574	0.000220682	0	5	0	
0.282833	-0.0213813	0.00724817	0.000418903	0.000217031	0	5	0	
0.283	0.0171338	-0.0161665	0.00040821	0.000201217	0	5	0	
0.283167	-0.0208047	0.0118617	0.000378571	0.000285518	0	5	0	
0.283333	0.0188467	-0.0142551	0.000378604	0.000308176	0	5	0	
0.2835	-0.0176983	0.0238513	0.00036527	0.000365388	0	5	0	
0.283667	0.0179378	-0.0140138	0.000362455	0.000380624	0	5	0	
0.283833	-0.0138048	-0.00501985	0.000325176	0.000397185	0	5	0	
0.284	0.0165839	0.0171569	0.00031951	0.000309731	0	5	0	
0.284167	-0.0243892	-0.00692432	0.000342265	0.000341282	0	5	0	
0.284333	0.028489	-0.00761305	0.000413086	0.000363667	0	5	0	
0.2845	-0.0273059	0.00867856	0.000472327	0.000393607	0	5	0	
0.284667	0.0207838	-0.00377998	0.000493689	0.00029253	0	5	0	
0.284833	-0.0183905	0.00592257	0.000447761	0.000168124	0	5	0	
0.285	0.0202438	-0.00363858	0.000416055	0.000118205	0	5	0	
0.285167	-0.0164408	-0.00590526	0.000364102	0.000157908	0	5	0	
0.285333	0.0175945	0.0163615	0.000355126	0.000202048	0	5	0	
0.2855	-0.0216751	-0.00800772	0.000351334	0.000285618	0	5	0	
0.285667	0.0223338	-0.0142344	0.000393947	0.000367753	0	5	0	
0.285833	-0.0213805	0.0126701	0.000417452	0.000349726	0	5	0	
0.286	0.0205318	-0.000999726	0.000420154	0.000339691	0	5	0	
0.286167	-0.0187396	0.00274238	0.000393105	0.000193808	0	5	0	
0.286333	0.0195976	-0.0151744	0.000380331	0.000205495	0	5	0	
0.2865	-0.0119288	0.0114909	0.000351217	0.00017395	0	5	0	
0.286667	0.0119366	-0.00433868	0.000304227	0.00021795	0	5	0	
0.286833	-0.0135217	0.0154817	0.000255699	0.000242855	0	5	0	
0.287	0.0188347	-0.0339134	0.000268793	0.00036502	0	5	0	
0.287167	-0.0217545	0.0240813	0.000316958	0.000465072	0	5	0	
0.287333	0.0210691	0.010871	0.000383939	0.000573892	0	5	0	
0.2875	-0.0156476	-0.0308081	0.000380626	0.000534118	0	5	0	
0.287667	0.0180241	0.019043	0.000368945	0.000529827	0	5	0	
0.287833	-0.0176615	-0.000868173	0.00032927	0.000497781	0	5	0	
0.288	0.0181601	0.0036728	0.000352495	0.00045148	0	5	0	
0.288167	-0.0187487	-0.00189796	0.000346674	0.000385961	0	5	0	
0.288333	0.0221131	-0.0180565	0.000396868	0.000358787	0	5	0	
0.2885	-0.0193632	0.0377833	0.000368762	0.000406513	0	5	0	
0.288667	0.0152759	-0.0159922	0.000390575	0.000553571	0	5	0	
0.288833	-0.0144011	-0.0119102	0.00032007	0.000639066	0	5	0	
0.289	0.0187461	0.00905454	0.00033863	0.000530462	0	5	0	
0.289167	-0.019665	0.012376	0.0003233	0.00038491	0	5	0	
0.289333	0.0205609	-0.00191517	0.000386369	0.000235486	0	5	0	
0.2895	-0.0189947	-0.0158184	0.000365649	0.000306729	0	5	0	
0.289667	0.0220191	0.00817875	0.000396689	0.000317857	0	5	0	
0.289833	-0.0183467	0.015823	0.000367632	0.000402572	0	5	0	
0.29	0.0170251	-0.0107339	0.000386717	0.000353753	0	5	0	
0.290167	-0.0162997	0.0010389	0.000338035	0.000359416	0	5	0	
0.290333	0.0212078	-0.00547953	0.000355807	0.000224297	0	5	0	
0.2905	-0.022627	0.0191501	0.000358701	0.00023581	0	5	0	
0.290667	0.0223668	-0.0153389	0.000417212	0.000232192	0	5	0	
0.290833	-0.0206873	-0.0020272	0.000410387	0.00030711	0	5	0	
0.291	0.0188988	0.00334449	0.000414535	0.000233794	0	5	0	
0.291167	-0.0156139	0.0144825	0.000366427	0.00024598	0	5	0	
0.291333	0.0162195	-0.0188577	0.000353261	0.000248762	0	5	0	
0.2915	-0.0202643	0.003796	0.000332785	0.000310406	0	5	0	
0.291667	0.0234381	0.00318296	0.000378514	0.000201988	0	5	0	
0.291833	-0.0240866	0.00254627	0.000398753	0.000169616	0	5	0	
0.292	0.018661	-0.00747057	0.000430901	0.0001269	0	5	0	
0.292167	-0.0174121	-0.00351266	0.000387118	0.000173413	0	5	0	
0.292333	0.0202265	0.00721642	0.000383684	0.000118919	0	5	0	
0.2925	-0.0205316	0.00149634	0.000357351	0.000184423	0	5	0	
0.292667	0.0184876	-0.00974986	0.000379596	0.00019823	0	5	0	
0.292833	-0.0166954	0.0046778	0.000352913	0.000227583	0	5	0	
0.293	0.0162538	0.00523009	0.000357444	0.000214259	0	5	0	
0.293167	-0.0201381	-0.00586463	0.000326237	0.000164484	0	5	0	
0.293333	0.0191126	0.00058417	0.000357924	0.000166299	0	5	0	
0.2935	-0.0175563	0.00559714	0.000344164	9.73774E-05	0	5	0	
0.293667	0.0246458	-0.00476267	0.000387893	0.000118466	0	5	0	
0.293833	-0.0274355	0.00499383	0.00040771	0.000119763	0	5	0	
0.294	0.0240197	0.00590802	0.000472793	0.000186265	0	5	0	
0.294167	-0.0153289	-0.0111773	0.000453248	0.000211206	0	5	0	
0.294333	0.0101147	0.00247803	0.000396753	0.000216987	0	5	0	
0.2945	-0.0151134	0.0181884	0.00029384	0.000265643	0	5	0	
0.294667	0.0167287	-0.0175067	0.000284625	0.000309544	0	5	0	
0.294833	-0.0166182	0.00836018	0.000279618	0.000336367	0	5	0	
0.295	0.0222331	0.000126857	0.000345446	0.000281603	0	5	0	
0.295167	-0.0227267	0.00376489	0.000362098	0.000209116	0	5	0	
0.295333	0.021768	0.000506813	0.000415159	0.000134135	0	5	0	
0.2955	-0.0166072	-0.00509145	0.000407918	7.61875E-05	0	5	0	
0.295667	0.0143333	0.00810712	0.000396783	8.48428E-05	0	5	0	
0.295833	-0.0166162	0.00539107	0.000341271	0.000140935	0	5	0	
0.296	0.0208114	-0.0156667	0.000336084	0.000225877	0	5	0	
0.296167	-0.0170291	0.0201095	0.000325564	0.0002774	0	5	0	
0.296333	0.0181186	-0.00619332	0.000356581	0.000333818	0	5	0	
0.2965	-0.0193998	-0.00890091	0.000347136	0.000404229	0	5	0	
0.296667	0.0214805	0.0190683	0.000379063	0.000429591	0	5	0	
0.296833	-0.0170436	-0.0124395	0.000359982	0.000391738	0	5	0	
0.297	0.0149931	0.0110506	0.00035943	0.000321615	0	5	0	
0.297167	-0.0160413	0.0055727	0.000322276	0.000370844	0	5	0	
0.297333	0.0170202	-0.0284389	0.000328322	0.000498267	0	5	0	
0.2975	-0.0165763	0.0345895	0.000315001	0.00059243	0	5	0	
0.297667	0.0130956	-0.0154873	0.00031738	0.000605008	0	5	0	
0.297833	-0.0150392	-0.000166887	0.000284659	0.000594327	0	5	0	
0.298	0.0217644	0.00688743	0.000317207	0.000500502	0	5	0	
0.298167	-0.0303941	-0.0131577	0.000364861	0.000379637	0	5	0	
0.298333	0.0242497	0.0149951	0.000461112	0.000252706	0	5	0	
0.2985	-0.0156487	0.0175382	0.000469611	0.000359246	0	5	0	
0.298667	0.0141631	-0.0480714	0.000418257	0.000452759	0	5	0	
0.298833	-0.0159788	-0.032957	0.000338919	0.0013358	0	5	0	
0.299	0.0156907	0.0700745	0.000300763	0.00317379	0	5	0	
0.299167	-0.0169914	-0.131753	0.000297862	0.00481657	0	5	0	
0.299333	0.020231	0.0578829	0.000322333	0.00464173	0	5	0	
0.2995	-0.0211134	0.0421235	0.000349714	0.00280128	0	5	0	
0.299667	0.0217794	-0.0940757	0.000389845	0.00144072	0	5	0	
0.299833	-0.0155291	0.125288	0.000393168	0.00130335	0	5	0	
0.3	0.0135226	-0.260823	0.000357657	0.00242845	0	5	0	
0.300167	-0.016155	0.224877	0.0003168	0.00365065	0	5	0	
0.300333	0.0219516	-0.118769	0.00031576	0.00429653	0	5	0	
0.3005	-0.0223564	0.00362716	0.000355353	0.00356817	0	5	0	
0.300667	0.0199346	-0.00744585	0.000405084	0.00209995	0	5	0	
0.300833	-0.015615	0.0531256	0.000389551	0.0013385	0	5	0	
0.301	0.0199509	-0.0432958	0.00036689	0.00100452	0	5	0	
0.301167	-0.0231419	-0.0149215	0.000354005	0.00115767	0	5	0	
0.301333	0.0209282	0.0287774	0.000389549	0.000826211	0	5	0	
0.3015	-0.0153702	-0.00729383	0.000400652	0.000677031	0	5	0	
0.301667	0.0169563	-0.00283705	0.000383139	0.000349995	0	5	0	
0.301833	-0.0195825	0.00276104	0.000344334	0.000167007	0	5	0	
0.302	0.0266449	-0.0212026	0.000373857	0.000188827	0	5	0	
0.302167	-0.0233002	0.0464626	0.000419975	0.00041116	0	5	0	
0.302333	0.0191586	-0.0475745	0.000452128	0.000659964	0	5	0	
0.3025	-0.0203625	0.0353192	0.000424214	0.000824697	0	5	0	
0.302667	0.0224176	-0.0104479	0.000403321	0.000899746	0	5	0	
0.302833	-0.0235975	-0.0243458	0.00039777	0.000970858	0	5	0	
0.303	0.026914	0.0463186	0.000447009	0.000879962	0	5	0	
0.303167	-0.0220192	-0.0185574	0.000444669	0.0008389	0	5	0	
0.303333	0.0140538	-0.0260462	0.000437575	0.00101261	0	5	0	
0.3035	-0.0140973	0.0597855	0.000351405	0.00124124	0	5	0	
0.303667	0.0167261	-0.0485291	0.000326544	0.00127172	0	5	0	
0.303833	-0.0200507	0.0028662	0.000318026	0.00104277	0	5	0	
0.304	0.0226421	0.030233	0.000384016	0.000856598	0	5	0	
0.304167	-0.0248896	-0.0253941	0.000395147	0.000706729	0	5	0	
0.304333	0.0235954	0.0031202	0.000453072	0.000602573	0	5	0	
0.3045	-0.0182597	0.0152707	0.000424009	0.000478269	0	5	0	
0.304667	0.0166704	-0.018531	0.000415929	0.000423154	0	5	0	
0.304833	-0.0161249	0.0140574	0.000348198	0.000355984	0	5	0	
0.305	0.0227017	-0.00363863	0.000357983	0.000394103	0	5	0	
0.305167	-0.0204141	-0.010311	0.000357399	0.000503346	0	5	0	
0.305333	0.0186004	0.0166328	0.000395144	0.00056555	0	5	0	
0.3055	-0.0145907	-0.00912248	0.000355966	0.000493134	0	5	0	
0.305667	0.0183239	-0.000156284	0.000344675	0.000313164	0	5	0	
0.305833	-0.0178551	0.00652995	0.00032236	0.000169009	0	5	0	
0.306	0.0215351	-0.00626415	0.000352557	0.000119334	0	5	0	
0.306167	-0.0191336	0.00641918	0.000362321	0.000119311	0	5	0	
0.306333	0.0194433	-0.00953678	0.000383933	0.000145245	0	5	0	
0.3065	-0.0167602	0.0115636	0.000356882	0.000155881	0	5	0	
0.306667	0.0215803	-0.00849903	0.000366186	0.000196317	0	5	0	
0.306833	-0.0204587	0.00139733	0.000361143	0.000207631	0	5	0	
0.307	0.0194513	-0.000400664	0.000398169	0.000196736	0	5	0	
0.307167	-0.0166325	0.00212462	0.000375117	0.000163282	0	5	0	
0.307333	0.0167673	0.00192951	0.000364206	0.000169296	0	5	0	
0.3075	-0.0127492	-0.0104377	0.000305251	0.000187878	0	5	0	
0.307667	0.0195587	0.0049708	0.000320621	0.000211037	0	5	0	
0.307833	-0.0196328	0.0164529	0.000316643	0.000278624	0	5	0	
0.308	0.0223914	-0.0213781	0.000380474	0.000316625	0	5	0	
0.308167	-0.0201885	0.00569582	0.000387616	0.000392413	0	5	0	
0.308333	0.0201232	0.0034808	0.000412183	0.000331081	0	5	0	
0.3085	-0.0239755	0.00925444	0.000395604	0.000304986	0	5	0	
0.308667	0.0276303	-0.0136518	0.000450119	0.000243855	0	5	0	
0.308833	-0.0153184	0.00211296	0.00043847	0.000250081	0	5	0	
0.309	0.0146715	0.0079231	0.000429494	0.000224677	0	5	0	
0.309167	-0.0179289	0.00697788	0.000338743	0.000240609	0	5	0	
0.309333	0.016582	-0.0165975	0.000327815	0.000236872	0	5	0	
0.3095	-0.0146547	0.00145587	0.000306645	0.00027251	0	5	0	
0.309667	0.0179222	0.0108557	0.000334809	0.000247006	0	5	0	
0.309833	-0.0220962	0.0045319	0.000324617	0.000263902	0	5	0	
0.31	0.0263429	-0.0167363	0.000398468	0.000276406	0	5	0	
0.310167	-0.024213	-0.000109315	0.000427758	0.000303104	0	5	0	
0.310333	0.0202175	0.0147811	0.000480862	0.000310986	0	5	0	
0.3105	-0.0181271	-0.000236716	0.000428104	0.000298901	0	5	0	
0.310667	0.0192168	-0.0208167	0.000415279	0.000338467	0	5	0	
0.310833	-0.0210125	0.0152939	0.000364592	0.00033823	0	5	0	
0.311	0.0202217	0.00182811	0.000400154	0.000382109	0	5	0	
0.311167	-0.0201038	-0.00452045	0.000377255	0.000294363	0	5	0	
0.311333	0.0218973	-0.00194013	0.00040998	0.0002037	0	5	0	
0.3115	-0.0215049	0.00140412	0.000381055	8.70024E-05	0	5	0	
0.311667	0.0178399	0.00241671	0.000404775	5.05541E-05	0	5	0	
0.311833	-0.0179942	0.00589308	0.000363985	8.30074E-05	0	5	0	
0.312	0.0195026	-0.015033	0.00037294	0.000139607	0	5	0	
0.312167	-0.0194316	0.0108499	0.000349187	0.000208657	0	5	0	
0.312333	0.0182455	0.00296561	0.000368067	0.000262509	0	5	0	
0.3125	-0.0187236	-0.00486921	0.000350355	0.000219295	0	5	0	
0.312667	0.0204678	-0.00687989	0.000363171	0.000219556	0	5	0	
0.312833	-0.0205343	0.0148523	0.000363861	0.000173702	0	5	0	
0.313	0.0200988	-0.0066856	0.000391303	0.000235189	0	5	0	
0.313167	-0.0189173	0.0016805	0.000383972	0.000203286	0	5	0	
0.313333	0.0182989	-0.0101143	0.000385653	0.000204185	0	5	0	
0.3135	-0.0190806	0.0112037	0.000362341	0.000183053	0	5	0	
0.313667	0.0210868	-0.000641258	0.000381712	0.000198551	0	5	0	
0.313833	-0.0187836	-0.00353155	0.000374489	0.000181309	0	5	0	
0.314	0.0197897	-0.00480751	0.000390499	0.000163427	0	5	0	
0.314167	-0.0218213	0.00548218	0.000372121	0.000150308	0	5	0	
0.314333	0.0206392	0.00380862	0.000397415	0.000127883	0	5	0	
0.3145	-0.0176579	-0.00187936	0.000378605	0.000139699	0	5	0	
0.314667	0.0196293	-0.0135816	0.000388672	0.00019035	0	5	0	
0.314833	-0.0195125	0.0134193	0.000351516	0.000248074	0	5	0	
0.315	0.0202023	-0.00305156	0.000380261	0.000265506	0	5	0	
0.315167	-0.0191172	0.00135605	0.000363361	0.000207286	0	5	0	
0.315333	0.0142808	0.000407666	0.000374143	0.000140972	0	5	0	
0.3155	-0.0186248	-0.00525265	0.000336265	8.24607E-05	0	5	0	
0.315667	0.0231539	0.000333598	0.000347868	0.000107007	0	5	0	
0.315833	-0.0212268	0.0075192	0.000373144	0.000182235	0	5	0	
0.316	0.0142586	-0.00940217	0.000395847	0.000204798	0	5	0	
0.316167	-0.0159732	0.00152278	0.000355024	0.000236872	0	5	0	
0.316333	0.0160726	0.0078413	0.000330985	0.000236842	0	5	0	
0.3165	-0.0188681	-0.0132325	0.000319804	0.000266157	0	5	0	
0.316667	0.0181315	0.0122538	0.000367131	0.000248408	0	5	0	
0.316833	-0.0212426	0.000883853	0.000377292	0.000207495	0	5	0	
0.317	0.0211922	-0.0146491	0.000398076	0.000181696	0	5	0	
0.317167	-0.0196179	0.0170765	0.000384978	0.000202674	0	5	0	
0.317333	0.0166821	-0.014168	0.000393756	0.00025663	0	5	0	
0.3175	-0.0145464	0.0102057	0.000339489	0.000320517	0	5	0	
0.317667	0.0162252	0.00145849	0.000335903	0.000333743	0	5	0	
0.317833	-0.0141523	-0.00385349	0.000283655	0.000275677	0	5	0	
0.318	0.0149266	-0.00566061	0.000304963	0.000236752	0	5	0	
0.318167	-0.0143458	0.0112198	0.000276549	0.000196602	0	5	0	
0.318333	0.0183154	-0.00492177	0.000310136	0.000194528	0	5	0	
0.3185	-0.0197112	0.00327879	0.000308925	0.000159034	0	5	0	
0.318667	0.0239269	-0.00629673	0.000372526	0.000115511	0	5	0	
0.318833	-0.023562	0.00137142	0.000393865	0.000145615	0	5	0	
0.319	0.0256574	0.0100324	0.000459665	0.00019691	0	5	0	
0.319167	-0.0225288	-0.010418	0.000464573	0.000218792	0	5	0	
0.319333	0.0193569	-0.00297595	0.000471303	0.000263402	0	5	0	
0.3195	-0.0136747	0.0183013	0.000393845	0.00028281	0	5	0	
0.319667	0.0163083	-0.014397	0.000345609	0.000332144	0	5	0	
0.319833	-0.0153591	0.000623223	0.000292111	0.000292472	0	5	0	
0.32	0.0206762	0.0111454	0.000327166	0.000231861	0	5	0	
0.320167	-0.0197031	-0.00681699	0.000342025	0.000215802	0	5	0	
0.320333	0.0198947	-0.00378463	0.000379304	0.000241383	0	5	0	
0.3205	-0.017891	0.00121711	0.00035555	0.000209087	0	5	0	
0.320667	0.0228797	0.0139201	0.000378018	0.000181801	0	5	0	
0.320833	-0.0199705	-0.00511236	0.000371777	0.000144916	0	5	0	
0.321	0.0182879	-0.00593812	0.000406526	0.000148287	0	5	0	
0.321167	-0.0146433	-0.00468004	0.000356178	0.000208997	0	5	0	
0.321333	0.0184596	0.0173955	0.000355602	0.000265473	0	5	0	
0.3215	-0.0185542	0.000516835	0.000320584	0.000323861	0	5	0	
0.321667	0.0183845	-0.022971	0.000364332	0.000317027	0	5	0	
0.321833	-0.0198397	0.0141407	0.000346214	0.000326552	0	5	0	
0.322	0.0219657	0.00897298	0.00039473	0.000399474	0	5	0	
0.322167	-0.0203752	-0.00617088	0.00037832	0.000325643	0	5	0	
0.322333	0.0200119	-0.011	0.000414412	0.000314668	0	5	0	
0.3225	-0.0153194	0.00947385	0.000372349	0.000221362	0	5	0	
0.322667	0.0130103	-0.000124141	0.000367773	0.000231346	0	5	0	
0.322833	-0.01636	0.0045537	0.000307951	0.000178012	0	5	0	
0.323	0.0195918	-0.0178579	0.000329144	0.000245685	0	5	0	
0.323167	-0.0229903	0.0146562	0.000337923	0.000281505	0	5	0	
0.323333	0.0255737	0.00283727	0.000411743	0.000376348	0	5	0	
0.3235	-0.0160164	-0.0117723	0.0004097	0.000367854	0	5	0	
0.323667	0.0172429	0.00989904	0.000425326	0.000330073	0	5	0	
