0	0.00361346	0.00247133	3.61346E-07	2.47133E-07	0	0	0	
0.000166667	-0.00383269	-0.00408811	6.16372E-05	2.41641E-05	0	0	0	
0.000333333	-0.00241102	0.00336223	0.000151871	8.50081E-05	0	0	0	
0.0005	0.00776624	0.00163593	0.000212773	0.000147577	0	0	0	
0.000666667	-0.00588849	-0.00189466	0.000194113	0.000148577	0	0	0	
0.000833333	-0.00140114	-0.00437319	0.000123101	0.000104242	0	0	0	
0.001	0.00813585	0.00750319	9.15574E-05	0.000101735	0	0	0	
0.00116667	-0.00968728	-0.000635375	0.000107651	0.000128226	0	0	0	
0.00133333	-0.00517315	-0.00313034	0.000176759	0.000167473	0	0	0	
0.0015	0.0185878	0.0210251	0.000229364	0.000229421	0	0	0	
0.00166667	-0.00930939	-0.0340601	0.000272439	0.000347334	0	0	0	
0.00183333	-0.0116785	0.0270872	0.000326909	0.000527289	0	0	0	
0.002	0.0187117	0.0298146	0.000339901	0.000842804	0	0	0	
0.00216667	-0.0151079	-0.0610349	0.000343022	0.0010244	0	0	0	
0.00233333	0.0120069	0.0364146	0.000299947	0.00113579	0	0	0	
0.0025	0.00404737	0.0238891	0.000369467	0.00122483	0	0	0	
0.00266667	-0.0229745	-0.040168	0.000493216	0.00120852	0	0	0	
0.00283333	0.0197914	0.0289088	0.000510605	0.00106294	0	0	0	
0.003	0.0083212	-0.00374677	0.000522165	0.000715205	0	0	0	
0.00316667	-0.0175521	-0.0113956	0.00041372	0.000564898	0	0	0	
0.00333333	0.00782585	0.0261406	0.000370541	0.000531678	0	0	0	
0.0035	0.000525222	-0.0220011	0.000275807	0.000480544	0	0	0	
0.00366667	-0.00610656	0.000144961	0.000265089	0.000517588	0	0	0	
0.00383333	0.00732711	0.021112	0.00023717	0.000586236	0	0	0	
0.004	0.0438961	-0.0261385	0.000385984	0.000575232	0	0	0	
0.00416667	-0.038088	-0.0182387	0.000780218	0.00052995	0	0	0	
0.00433333	0.0240058	0.0826463	0.000815887	0.000753468	0	0	0	
0.0045	0.014536	-0.0605931	0.000816457	0.00103782	0	0	0	
0.00466667	-0.0655418	0.0087802	0.000624717	0.00128593	0	0	0	
0.00483333	0.00177634	0.0429048	0.000891428	0.00108318	0	0	0	
0.005	0.0544165	-0.0479003	0.000956	0.00113603	0	0	0	
0.00516667	-0.0271293	-0.0608197	0.00107485	0.00154092	0	0	0	
0.00533333	0.00395634	0.15521	0.000805663	0.00249275	0	0	0	
0.0055	-0.0129501	-0.124051	0.000657431	0.00297571	0	0	0	
0.00566667	0.0088005	0.0496347	0.000466417	0.00267886	0	0	0	
0.00583333	0.0482652	-0.0435074	0.00064815	0.00197092	0	0	0	
0.006	-0.00567415	0.0140071	0.000875862	0.00123373	0	0	0	
0.00616667	0.0234155	0.0064447	0.000723136	0.00135155	0	0	0	
0.00633333	-0.0247929	-0.150888	0.000747311	0.00171084	0	0	0	
0.0065	0.0179886	0.155145	0.000587731	0.00237514	0	0	0	
0.00666667	-0.0442619	-0.015385	0.000671602	0.00292872	0	0	0	
0.00683333	0.0899535	-0.130246	0.000950599	0.00315547	0	0	0	
0.007	0.0413319	0.0774911	0.00110719	0.00298697	0	0	0	
0.00716667	-0.0600493	-0.0401802	0.00137369	0.00215002	0	0	0	
0.00733333	0.0395656	0.0351634	0.00116025	0.00134255	0	0	0	
0.0075	0.0136041	-0.0709913	0.00111384	0.00103565	0	0	0	
0.00766667	-0.0182682	0.0414907	0.000801166	0.00100145	0	0	0	
0.00783333	-0.00560454	0.0152791	0.000560894	0.00117487	0	0	0	
0.008	0.0163568	-0.0249273	0.000341051	0.000879062	0	0	0	
0.00816667	-0.00472829	-0.0253537	0.000344983	0.000882616	0	0	0	
0.00833333	-0.0254793	0.0237144	0.000463541	0.000549827	0	0	0	
0.0085	0.0249509	0.042917	0.000499899	0.00089273	0	0	0	
0.00866667	0.00607786	-0.0711107	0.0005751	0.000879315	0	0	0	
0.00883333	-0.0197792	-0.00061926	0.000450943	0.00136559	0	0	0	
0.009	0.00192795	0.0651615	0.000387199	0.00152241	0	0	0	
0.00916667	0.00161207	-0.0326859	0.000221384	0.00147997	0	0	0	
0.00933333	0.00687304	-0.0459705	0.000136319	0.0014411	0	0	0	
0.0095	0.000326923	0.0550167	0.000136783	0.0011455	0	0	0	
0.00966667	-0.0161872	-0.0123133	0.000186206	0.00122505	0	0	0	
0.00983333	0.0117635	-0.00798153	0.000255247	0.000879148	0	0	0	
0.01	0.0019591	-0.00661396	0.000281146	0.00063435	0	0	0	
0.0101667	-0.007864	0.00636595	0.000226514	0.000325187	0	0	0	
0.0103333	0.00762412	-0.00124783	0.000196727	0.000163658	0	0	0	
0.0105	-0.00917967	0.00314519	0.000150307	0.000137408	0	0	0	
0.0106667	0.0119452	-0.00907195	0.00017953	0.000121386	0	0	0	
0.0108333	-0.00264691	-0.000941981	0.000202619	0.000148919	0	0	0	
0.011	-0.00233531	0.0175824	0.000251043	0.000195092	0	0	0	
0.0111667	0.00168513	-0.00951507	0.000198498	0.000292689	0	0	0	
0.0113333	0.00414343	-0.0230289	0.000197658	0.000361127	0	0	0	
0.0115	-0.000942011	0.0190648	0.000139054	0.000405936	0	0	0	
0.0116667	-0.00364759	-0.0013296	0.000164845	0.000402549	0	0	0	
0.0118333	-0.00522359	-0.00856563	0.000116451	0.000294061	0	0	0	
0.012	0.00907932	0.00598814	0.000134346	0.000304493	0	0	0	
0.0121667	0.0109726	0.00643642	0.000222604	0.000352039	0	0	0	
0.0123333	-0.020222	-0.0197186	0.000297205	0.00044547	0	0	0	
0.0125	0.0069407	0.0123498	0.000318758	0.000441767	0	0	0	
0.0126667	0.00194897	-0.0121518	0.000249168	0.000337744	0	0	0	
0.0128333	-0.000752861	0.00723442	0.000168444	0.000257207	0	0	0	
0.013	-0.00607898	-0.00161003	0.000122022	0.000182479	0	0	0	
0.0131667	0.00491568	-0.0060076	0.000101993	0.000174994	0	0	0	
0.0133333	0.000988132	0.011706	9.7717E-05	0.000155197	0	0	0	
0.0135	-0.00412205	-0.0158644	8.35023E-05	0.00020433	0	0	0	
0.0136667	0.00594043	0.0102183	8.93751E-05	0.000244987	0	0	0	
0.0138333	-0.000154043	-0.00179659	0.000143879	0.00037224	0	0	0	
0.014	-0.00676913	-0.00936192	0.000248868	0.000514838	0	0	0	
0.0141667	0.00897726	0.0183787	0.000329685	0.00061849	0	0	0	
0.0143333	-0.00434158	-0.0113117	0.000317899	0.000568259	0	0	0	
0.0145	0.00166748	-0.00334429	0.00020887	0.000380056	0	0	0	
0.0146667	0.00164837	0.0176818	0.000104601	0.000234701	0	0	0	
0.0148333	-0.00841749	-0.0197049	7.53301E-05	0.000235338	0	0	0	
0.015	0.0150531	0.019408	0.000140643	0.000350809	0	0	0	
0.0151667	-0.00572359	-0.000799738	0.000270465	0.000468202	0	0	0	
0.0153333	-0.00659581	-0.00956078	0.000395418	0.000530087	0	0	0	
0.0155	0.01714	0.0207915	0.000395253	0.000454125	0	0	0	
0.0156667	-0.00934278	-0.0164257	0.00032394	0.000402585	0	0	0	
0.0158333	-9.95211E-05	0.00555421	0.00027229	0.000418033	0	0	0	
0.016	0.0120853	0.0145131	0.00030711	0.000550075	0	0	0	
0.0161667	-0.0216841	-0.0282075	0.000349827	0.000589912	0	0	0	
0.0163333	0.0219696	0.0311317	0.000371014	0.000573577	0	0	0	
0.0165	-0.00573025	-0.00755316	0.000391469	0.000568117	0	0	0	
0.0166667	-0.011929	-0.0205066	0.00047289	0.000681588	0	0	0	
0.0168333	0.0238732	0.0494121	0.000471289	0.000763851	0	0	0	
0.017	-0.00942328	-0.0491979	0.000427996	0.000848044	0	0	0	
0.0171667	-0.00234849	0.0082051	0.000300759	0.000858235	0	0	0	
0.0173333	0.000645725	0.0322329	0.000183003	0.000932828	0	0	0	
0.0175	-0.000896542	-0.0426685	0.00010329	0.000853476	0	0	0	
0.0176667	0.0122796	0.0175631	0.000118737	0.00079283	0	0	0	
0.0178333	-0.0123284	0.00615458	0.00016999	0.000661255	0	0	0	
0.018	0.00345788	-0.0144036	0.00024813	0.000546262	0	0	0	
0.0181667	0.00248721	0.0145506	0.000203273	0.000382943	0	0	0	
0.0183333	0.00146799	-0.00931663	0.000155968	0.00029826	0	0	0	
0.0185	0.00270516	-0.0145406	7.09743E-05	0.000365831	0	0	0	
0.0186667	-0.00304493	0.0210878	5.9247E-05	0.000473045	0	0	0	
0.0188333	-0.00569092	-0.0195971	9.18834E-05	0.000477723	0	0	0	
0.019	0.0104759	0.00758507	0.000131285	0.00038283	0	0	0	
0.0191667	-0.00584651	0.00246582	0.000146597	0.000275125	0	0	0	
0.0193333	0.0014295	-0.00241775	0.000152325	0.000182724	0	0	0	
0.0195	0.00748197	-0.000537033	0.000179649	0.000110428	0	0	0	
0.0196667	-0.013365	-0.0141171	0.000218351	7.69287E-05	0	0	0	
0.0198333	-0.00732684	0.0124707	0.000242018	0.000142727	0	0	0	
0.02	0.00928685	0.0152595	0.000238619	0.000284798	0	0	0	
0.0201667	-0.00181214	-0.0292722	0.000234145	0.000393663	0	0	0	
0.0203333	-0.00830697	0.00196557	0.000242088	0.000477324	0	0	0	
0.0205	0.0159714	0.0246917	0.000270079	0.000568283	0	0	0	
0.0206667	-0.0180276	-0.0264273	0.000291596	0.000590207	0	0	0	
0.0208333	-0.00717089	0.0217993	0.000281041	0.000552144	0	0	0	
0.021	0.0168233	-0.0186249	0.000315303	0.000446801	0	0	0	
0.0211667	-0.0160031	-0.00216243	0.000317484	0.000552897	0	0	0	
0.0213333	0.00497581	0.030182	0.000301946	0.000717465	0	0	0	
0.0215	-0.00226471	-0.036587	0.00024457	0.000761121	0	0	0	
0.0216667	0.00128065	0.0085606	0.000231312	0.000740361	0	0	0	
0.0218333	0.00214493	0.0146239	0.000272854	0.000700689	0	0	0	
0.022	-0.00138328	-0.0154855	0.000282684	0.000675479	0	0	0	
0.0221667	-0.000943924	0.00462102	0.000265516	0.000503071	0	0	0	
0.0223333	-0.00699045	-0.00757325	0.000246282	0.000335602	0	0	0	
0.0225	0.0134606	0.0296548	0.000253487	0.000418464	0	0	0	
0.0226667	-0.012298	-0.0441949	0.000265884	0.000607514	0	0	0	
0.0228333	0.00622848	0.0234484	0.000238815	0.000715874	0	0	0	
0.023	-0.00450165	0.0106294	0.000180441	0.000749634	0	0	0	
0.0231667	0.00191127	-0.00482749	0.000149437	0.000556176	0	0	0	
0.0233333	0.00597334	-0.00731024	0.000197602	0.000398934	0	0	0	
0.0235	-0.0143534	-0.013306	0.000213419	0.000278415	0	0	0	
0.0236667	0.00834805	0.0473366	0.000254216	0.000389584	0	0	0	
0.0238333	-0.00494007	-0.0199548	0.000247714	0.000628034	0	0	0	
0.024	0.00090849	-0.0307601	0.000265547	0.00093072	0	0	0	
0.0241667	0.0037115	0.0432177	0.000261519	0.000994707	0	0	0	
0.0243333	-0.00901373	-0.00172928	0.000233199	0.000896491	0	0	0	
0.0245	0.00458873	-0.0133733	0.000190653	0.000602449	0	0	0	
0.0246667	-0.00221001	0.00373816	0.00012994	0.000424462	0	0	0	
0.0248333	0.00100972	0.00857517	9.38177E-05	0.000288078	0	0	0	
0.025	0.00334075	0.000950599	0.000118795	0.000255001	0	0	0	
0.0251667	-0.00648101	-0.0128739	0.000135808	0.00030698	0	0	0	
0.0253333	0.00332456	0.00324482	0.000132109	0.000302667	0	0	0	
0.0255	0.000906945	0.0121437	0.000101043	0.00023815	0	0	0	
0.0256667	-0.00336094	-0.00160702	8.07669E-05	0.000178945	0	0	0	
0.0258333	0.00476818	-0.00631041	8.95002E-05	0.000225217	0	0	0	
0.026	-0.00601933	-0.00422892	0.000106358	0.000187501	0	0	0	
0.0261667	0.00689672	0.0149436	0.000117188	0.000244891	0	0	0	
0.0263333	-0.00348354	-0.025286	0.000110275	0.000274667	0	0	0	
0.0265	0.00602024	0.0121391	0.000106849	0.000368715	0	0	0	
0.0266667	-0.0017474	0.00705276	9.00516E-05	0.000417416	0	0	0	
0.0268333	-0.00371638	-0.0181581	7.64095E-05	0.000387888	0	0	0	
0.027	0.00206335	0.00642702	6.40427E-05	0.000361244	0	0	0	
0.0271667	0.000513327	0.00536415	5.66835E-05	0.000339101	0	0	0	
0.0273333	0.000474251	-0.011964	4.83526E-05	0.000333095	0	0	0	
0.0275	-0.000862192	0.00545643	2.7246E-05	0.00028992	0	0	0	
0.0276667	0.00368453	-0.00349381	4.54985E-05	0.00018338	0	0	0	
0.0278333	0.000704045	-0.00274091	7.28728E-05	0.000113155	0	0	0	
0.028	-0.00424643	0.00528271	7.79231E-05	9.51595E-05	0	0	0	
0.0281667	0.000813746	-0.00934722	6.89961E-05	9.30639E-05	0	0	0	
0.0283333	0.00335014	0.00997876	4.56897E-05	0.000146134	0	0	0	
0.0285	-0.00315001	-0.00265037	7.90046E-05	0.000177363	0	0	0	
0.0286667	0.000340008	0.00135617	0.000123028	0.000209084	0	0	0	
0.0288333	0.00309492	-0.000588834	0.000174037	0.000201994	0	0	0	
0.029	-0.00273795	-0.000482852	0.000161937	0.000176316	0	0	0	
0.0291667	-0.00263626	0.000228977	0.000105435	0.000119704	0	0	0	
0.0293333	0.00576676	0.0019795	7.07189E-05	7.51818E-05	0	0	0	
0.0295	-0.00561629	0.00373279	7.8369E-05	6.72363E-05	0	0	0	
0.0296667	0.00714878	-0.000940287	0.000109529	8.28282E-05	0	0	0	
0.0298333	-0.00665977	-0.00264606	0.000132929	6.91839E-05	0	0	0	
0.03	0.00562467	0.0110919	0.000142072	8.39528E-05	0	0	0	
0.0301667	-0.00292008	-0.0129736	0.000142164	0.000126666	0	0	0	
0.0303333	-2.29226E-05	0.00726988	0.000118762	0.000210267	0	0	0	
0.0305	-0.00111791	0.00413502	8.05841E-05	0.000263605	0	0	0	
0.0306667	0.00311815	-0.00767004	4.78824E-05	0.000240677	0	0	0	
0.0308333	-0.00152932	0.0035582	4.20105E-05	0.000189729	0	0	0	
0.031	0.00236265	0.00392047	4.7971E-05	0.000148631	0	0	0	
0.0311667	-0.0056651	-0.00803671	6.17263E-05	0.000146585	0	0	0	
0.0313333	0.00483633	0.0201114	8.25953E-05	0.000180156	0	0	0	
0.0315	0.00281765	-0.0214084	0.000186586	0.000300338	0	0	0	
0.0316667	-0.0100561	-0.00282587	0.000272604	0.000544806	0	0	0	
0.0318333	0.00497177	0.0347364	0.000289065	0.000773301	0	0	0	
0.032	-0.0061817	-0.0343629	0.00023126	0.000812672	0	0	0	
0.0321667	0.0131566	0.00632123	0.000202712	0.000682149	0	0	0	
0.0323333	-0.00505539	0.0193145	0.000198316	0.000536261	0	0	0	
0.0325	-0.0106037	-0.0185474	0.000212778	0.00044453	0	0	0	
0.0326667	0.00972939	0.00771387	0.00019365	0.00036622	0	0	0	
0.0328333	-0.00668379	-0.00481686	0.000196545	0.000252956	0	0	0	
0.033	0.0109067	0.0107657	0.00017402	0.000176318	0	0	0	
0.0331667	-0.0130289	-0.0117279	0.000204474	0.000165289	0	0	0	
0.0333333	0.00274126	0.008116	0.000277131	0.000212996	0	0	0	
0.0335	0.00458281	-0.00412767	0.000335173	0.000263072	0	0	0	
0.0336667	-0.00893169	0.00228876	0.00032764	0.000301595	0	0	0	
0.0338333	0.0124019	0.0101791	0.00026752	0.000351521	0	0	0	
0.034	-0.00681845	-0.0267217	0.000212928	0.000391235	0	0	0	
0.0341667	0.000800815	0.0230652	0.000179976	0.000430424	0	0	0	
0.0343333	0.00362727	0.0164121	0.000146157	0.000595879	0	0	0	
0.0345	-0.0138882	-0.0650316	0.00013507	0.00074754	0	0	0	
0.0346667	0.0205252	0.0657299	0.000197644	0.00107035	0	0	0	
0.0348333	-0.0145723	0.00760128	0.000302799	0.00140848	0	0	0	
0.035	0.000640709	-0.0467936	0.000371375	0.00146763	0	0	0	
0.0351667	-0.000620319	0.0105004	0.000312046	0.00122505	0	0	0	
0.0353333	0.00356955	0.0243942	0.000212698	0.000840656	0	0	0	
0.0355	-0.00111294	-0.018056	0.000120572	0.00062865	0	0	0	
0.0356667	0.00544574	0.0227555	0.000134684	0.000536411	0	0	0	
0.0358333	-0.00908124	-0.0360528	0.000189322	0.000531595	0	0	0	
0.036	0.00449447	0.0266423	0.000210891	0.000566651	0	0	0	
0.0361667	-0.00428078	0.0100454	0.000206918	0.000652783	0	0	0	
0.0363333	-0.000414964	-0.023089	0.000153908	0.000544742	0	0	0	
0.0365	-0.000496922	0.00597942	0.000125166	0.000498687	0	0	0	
0.0366667	0.00270561	0.0161391	6.82915E-05	0.000409725	0	0	0	
0.0368333	-0.00511435	-0.0204082	5.02952E-05	0.000373069	0	0	0	
0.037	0.0135522	0.0180428	0.000112775	0.000385394	0	0	0	
0.0371667	-0.00955889	-0.0201848	0.000207386	0.000418183	0	0	0	
0.0373333	0.0019732	0.00473158	0.000263472	0.00050734	0	0	0	
0.0375	0.000396263	0.0157807	0.000225438	0.000561539	0	0	0	
0.0376667	-0.00587232	-0.0111679	0.000158241	0.000490861	0	0	0	
0.0378333	0.0100243	0.0107464	0.00011143	0.000352526	0	0	0	
0.038	-0.00256444	-0.0232898	0.000179783	0.00025236	0	0	0	
0.0381667	-0.0123886	0.0135167	0.000307677	0.000371633	0	0	0	
0.0383333	0.0179667	0.0328363	0.000359724	0.000748374	0	0	0	
0.0385	-0.00355182	-0.0574947	0.000337207	0.00097273	0	0	0	
0.0386667	-0.00252746	0.0243399	0.000282569	0.00108137	0	0	0	
0.0388333	0.00832446	0.0247559	0.000311272	0.00109632	0	0	0	
0.039	-0.015148	-0.0340432	0.000346062	0.00102777	0	0	0	
0.0391667	0.0106654	0.0143938	0.000319884	0.000845584	0	0	0	
0.0393333	9.88416E-05	-0.00169048	0.000246684	0.000443321	0	0	0	
0.0395	-0.00617671	0.00891913	0.000155215	0.000256091	0	0	0	
0.0396667	0.0105573	0.00193805	0.000134716	0.000141414	0	0	0	
0.0398333	-0.00548232	-0.0215687	0.000183545	0.000178105	0	0	0	
0.04	0.00213353	0.0151429	0.000239449	0.000244536	0	0	0	
0.0401667	0.00132475	0.0113505	0.00022215	0.000410878	0	0	0	
0.0403333	-0.00249273	-0.0178299	0.00014359	0.000411521	0	0	0	
0.0405	0.0027903	-0.000433233	8.2437E-05	0.000433774	0	0	0	
0.0406667	0.00126059	0.0174014	9.18925E-05	0.000387155	0	0	0	
0.0408333	-0.00700735	-0.016396	0.000143688	0.000406396	0	0	0	
0.041	0.0106998	0.00489911	0.000168899	0.000335559	0	0	0	
0.0411667	-0.00589534	-0.00448762	0.000175132	0.000353695	0	0	0	
0.0413333	0.00300203	0.00100921	0.000160446	0.000416115	0	0	0	
0.0415	-0.00800448	-0.0195403	0.000171494	0.000461353	0	0	0	
0.0416667	0.00661594	0.0558377	0.000214764	0.000560471	0	0	0	
0.0418333	0.0119588	-0.00690555	0.000296985	0.00082019	0	0	0	
0.042	-0.0129231	-0.0460294	0.000346871	0.00125318	0	0	0	
0.0421667	0.00279227	0.0332462	0.000291616	0.0012141	0	0	0	
0.0423333	0.000277164	0.0374304	0.000183065	0.00120376	0	0	0	
0.0425	-0.00507549	-0.0566622	0.000107729	0.000978615	0	0	0	
0.0426667	0.0108483	0.0284155	0.000131559	0.00102667	0	0	0	
0.0428333	-0.00513455	-0.00665011	0.000157967	0.000775981	0	0	0	
0.043	0.00487551	0.039886	0.000193534	0.000593573	0	0	0	
0.0431667	-0.0046655	-0.0255793	0.000182774	0.000524326	0	0	0	
0.0433333	0.00496828	-0.00799566	0.000179311	0.00064481	0	0	0	
0.0435	-0.00385827	0.0194785	0.000136214	0.000576826	0	0	0	
0.0436667	0.00181686	0.0147713	0.000117358	0.000537556	0	0	0	
0.0438333	-0.00553669	-0.0312632	0.00011961	0.000369977	0	0	0	
0.044	0.00448512	0.0105213	0.000151898	0.000507772	0	0	0	
0.0441667	0.00332412	0.0168291	0.000185806	0.000561572	0	0	0	
0.0443333	-0.00686934	-0.0158944	0.000189484	0.000516062	0	0	0	
0.0445	0.0035571	-0.00702482	0.000168954	0.000428366	0	0	0	
0.0446667	0.00339433	0.0160782	0.000130856	0.000273406	0	0	0	
0.0448333	-0.00702408	0.00148141	0.000105307	0.000302152	0	0	0	
0.045	0.00100626	-0.0110329	9.84732E-05	0.000247454	0	0	0	
0.0451667	0.00371264	0.00797887	9.15938E-05	0.00025647	0	0	0	
0.0453333	-0.000936996	0.00288175	7.63797E-05	0.000232767	0	0	0	
0.0455	-0.0036131	-0.00547839	7.91183E-05	0.000193038	0	0	0	
0.0456667	0.0042004	0.000895965	7.71665E-05	0.000153237	0	0	0	
0.0458333	-0.000454556	-0.00199947	8.65919E-05	0.000102713	0	0	0	
0.046	0.0024544	0.0101811	6.69556E-05	0.000112905	0	0	0	
0.0461667	-0.00315726	-0.0119579	7.49188E-05	0.000142463	0	0	0	
0.0463333	-0.00988841	-0.0023853	0.000165228	0.000247124	0	0	0	
0.0465	0.0211187	0.0289305	0.00025538	0.000448249	0	0	0	
0.0466667	-0.00867282	-0.0532588	0.000338279	0.000636972	0	0	0	
0.0468333	-0.0101269	0.0348592	0.000352674	0.000807097	0	0	0	
0.047	0.00340297	0.0215192	0.000308435	0.000982398	0	0	0	
0.0471667	0.00713248	-0.0490155	0.000298987	0.000983514	0	0	0	
0.0473333	0.000818731	0.0161519	0.000190682	0.000958378	0	0	0	
0.0475	-0.00395836	0.0278814	0.000158337	0.000927628	0	0	0	
0.0476667	-0.0133248	-0.032799	0.00020357	0.000892116	0	0	0	
0.0478333	0.0154609	0.00914214	0.000297408	0.000731893	0	0	0	
0.048	0.00550917	-0.00119702	0.000359984	0.000371425	0	0	0	
0.0481667	-0.0196582	-0.0065643	0.000279369	0.00019776	0	0	0	
0.0483333	0.0070653	0.022371	0.000279586	0.000210227	0	0	0	
0.0485	0.00332692	-0.0237957	0.000298302	0.000306571	0	0	0	
0.0486667	-0.00329322	-0.00355895	0.000275262	0.000527788	0	0	0	
0.0488333	-0.00206269	0.0255825	0.000179317	0.000654003	0	0	0	
0.049	0.00449728	-0.0228735	8.84827E-05	0.000654712	0	0	0	
0.0491667	-0.0024311	-0.00460999	6.49799E-05	0.000574146	0	0	0	
0.0493333	-0.00104435	0.017864	6.58261E-05	0.000448283	0	0	0	
0.0495	-0.00302893	-0.0126384	8.17E-05	0.000414948	0	0	0	
0.0496667	0.0065272	-0.00691493	8.65058E-05	0.000356836	0	0	0	
0.0498333	-0.0055519	0.00773961	0.000125898	0.000275502	0	0	0	
0.05	-0.000415537	0.00990882	0.000140132	0.000279076	0	0	0	
0.0501667	-0.00178274	-0.0219945	0.000132113	0.000238879	0	0	0	
0.0503333	0.00229284	0.00784912	0.000120462	0.000330061	0	0	0	
0.0505	0.00287606	0.00761292	0.000138365	0.000388346	0	0	0	
0.0506667	-0.00510827	-0.0114677	0.000161095	0.000356087	0	0	0	
0.0508333	-0.00047547	-0.00224229	0.000131667	0.000307017	0	0	0	
0.051	0.00369881	0.00713676	0.000116903	0.000234661	0	0	0	
0.0511667	-0.00786962	-0.00434092	0.000105216	0.000210217	0	0	0	
0.0513333	0.00440545	-0.00119553	0.000133081	0.000136902	0	0	0	
0.0515	-5.60486E-06	0.000334952	0.000109132	8.21956E-05	0	0	0	
0.0516667	0.000933764	-4.50041E-05	8.33095E-05	0.000121443	0	0	0	
0.0518333	0.00390575	-0.00194688	6.12367E-05	0.00013555	0	0	0	
0.052	-0.00233641	0.00107066	6.55795E-05	0.000155129	0	0	0	
0.0521667	-0.00881855	-0.0193123	0.00012717	0.000225803	0	0	0	
0.0523333	0.0182966	0.0228204	0.000208526	0.000365481	0	0	0	
0.0525	-0.0164008	-0.0341707	0.000281544	0.000554436	0	0	0	
0.0526667	0.00544177	0.0317809	0.000298738	0.000595067	0	0	0	
0.0528333	0.000665775	0.0162175	0.000288822	0.000766797	0	0	0	
0.053	0.0105438	-0.0337504	0.000281746	0.000849871	0	0	0	
0.0531667	0.00186703	0.00694863	0.00023568	0.000906708	0	0	0	
0.0533333	-0.00716311	0.0284903	0.000171643	0.00105723	0	0	0	
0.0535	-0.00306336	-0.040024	0.000162753	0.000990946	0	0	0	
0.0536667	0.010552	0.0126137	0.000204451	0.000914659	0	0	0	
0.0538333	-0.00719969	-0.00833279	0.000231289	0.00048713	0	0	0	
0.054	0.00747741	0.0256837	0.000212521	0.000345829	0	0	0	
0.0541667	-0.00377034	0.00624257	0.000235336	0.000289537	0	0	0	
0.0543333	0.00737122	-0.0179505	0.000233505	0.000350365	0	0	0	
0.0545	-0.0090454	-0.021138	0.000215976	0.000405397	0	0	0	
0.0546667	0.0144913	0.035673	0.00019216	0.000601947	0	0	0	
0.0548333	-0.013898	-0.0236829	0.000228256	0.00063631	0	0	0	
0.055	0.00296595	-0.00614546	0.00025659	0.000599152	0	0	0	
0.0551667	0.00451249	0.0100031	0.000272333	0.000387745	0	0	0	
0.0553333	-0.0058988	-0.00605169	0.000224984	0.000275021	0	0	0	
0.0555	0.00158918	-0.0130323	0.000161969	0.000239346	0	0	0	
0.0556667	0.00100414	0.0201593	9.19799E-05	0.000297826	0	0	0	
0.0558333	-0.00440651	-0.0125972	9.95296E-05	0.000345466	0	0	0	
0.056	0.00684489	-0.00865352	0.000128203	0.00029569	0	0	0	
0.0561667	-0.00495464	0.00272761	0.000132977	0.000194844	0	0	0	
0.0563333	0.00337651	0.00845086	0.000111094	0.000182621	0	0	0	
0.0565	-0.00382521	-0.0110839	9.255E-05	0.00020449	0	0	0	
0.0566667	0.00200843	0.000146697	9.19617E-05	0.000248493	0	0	0	
0.0568333	0.000233616	0.00861098	0.000100773	0.00021311	0	0	0	
0.057	-0.00264824	-0.00816396	0.000103682	0.000204747	0	0	0	
0.0571667	0.00335845	-0.000530442	9.68049E-05	0.000143783	0	0	0	
0.0573333	7.29326E-05	0.00238636	8.60979E-05	0.000126657	0	0	0	
0.0575	-0.000230255	0.000311895	7.78386E-05	0.000113454	0	0	0	
0.0576667	-0.00114336	-0.00165159	6.70264E-05	0.000109117	0	0	0	
0.0578333	-0.000306261	-0.00137952	4.81639E-05	8.81007E-05	0	0	0	
0.058	0.00240686	0.00126487	3.44073E-05	5.44128E-05	0	0	0	
0.0581667	-0.00100805	-0.00140974	3.3952E-05	3.88395E-05	0	0	0	
0.0583333	-0.000404119	-0.000231317	5.62122E-05	3.54859E-05	0	0	0	
0.0585	7.1331E-05	-0.000991147	6.9159E-05	4.22547E-05	0	0	0	
0.0586667	0.000357857	0.000948921	7.38115E-05	6.02029E-05	0	0	0	
0.0588333	0.000330283	0.00298506	7.7444E-05	7.93144E-05	0	0	0	
0.059	-0.00319734	-0.00324147	9.24233E-05	8.14218E-05	0	0	0	
0.0591667	0.00339016	0.00127261	0.000101695	7.58288E-05	0	0	0	
0.0593333	-0.0001251	0.00293453	9.84968E-05	6.46321E-05	0	0	0	
0.0595	-0.00124384	-0.00788381	9.3571E-05	0.000117935	0	0	0	
0.0596667	0.00112511	0.00210548	9.97282E-05	0.000168783	0	0	0	
0.0598333	-0.000198568	0.00362369	9.20795E-05	0.000194351	0	0	0	
0.06	-0.00153092	-0.00223382	6.95457E-05	0.000153432	0	0	0	
0.0601667	-0.0011675	-0.00116331	4.89316E-05	9.77125E-05	0	0	0	
0.0603333	0.00112723	0.00668066	4.54779E-05	9.29046E-05	0	0	0	
0.0605	-0.00245152	-0.00455428	5.49346E-05	0.000120472	0	0	0	
0.0606667	0.00251711	0.00114026	5.74757E-05	0.000160629	0	0	0	
0.0608333	0.00258765	0.00104467	5.6987E-05	0.000133917	0	0	0	
0.061	-0.00709986	-0.00899923	7.09979E-05	0.000128633	0	0	0	
0.0611667	0.00439965	0.00959519	9.17962E-05	0.000124538	0	0	0	
0.0613333	-0.00239851	-0.0018832	0.000115044	0.000205435	0	0	0	
0.0615	-0.000790144	-0.00364506	0.00012155	0.000277436	0	0	0	
0.0616667	0.00340293	0.00782181	0.000112103	0.00024823	0	0	0	
0.0618333	-0.00577486	-0.00798167	9.65416E-05	0.000245879	0	0	0	
0.062	-0.00165315	-0.000800058	0.000127523	0.000209253	0	0	0	
0.0621667	0.0100687	0.0177187	0.000163467	0.000287496	0	0	0	
0.0623333	-0.00712969	-0.0326	0.000193936	0.000350231	0	0	0	
0.0625	-0.000578739	0.0197381	0.000154428	0.000457046	0	0	0	
0.0626667	-0.00532081	0.01781	0.000119897	0.000728514	0	0	0	
0.0628333	0.00362931	-0.0428715	0.000100308	0.00086184	0	0	0	
0.063	0.00999337	0.0233215	0.000177412	0.000853606	0	0	0	
0.0631667	-0.00754366	0.012219	0.000194772	0.000773867	0	0	0	
0.0633333	-0.0141914	-0.0267273	0.000319465	0.000704243	0	0	0	
0.0635	0.0174317	0.0321817	0.000298982	0.000669968	0	0	0	
0.0636667	-0.00738365	-0.0281768	0.000371001	0.00060347	0	0	0	
0.0638333	0.00323985	0.00191594	0.000305552	0.000650257	0	0	0	
0.064	0.00677245	0.0263162	0.000312845	0.000735602	0	0	0	
0.0641667	-0.0246047	-0.0223142	0.000302246	0.000659664	0	0	0	
0.0643333	0.01776	-0.00258754	0.000359142	0.000509747	0	0	0	
0.0645	0.0133763	0.0235992	0.000524124	0.000384658	0	0	0	
0.0646667	-0.0276197	-0.0183103	0.000588476	0.000358676	0	0	0	
0.0648333	0.0187208	0.00782937	0.000573564	0.000331368	0	0	0	
0.065	-0.00776601	-0.0037368	0.000424826	0.000265218	0	0	0	
0.0651667	-0.0023213	0.012016	0.000372445	0.000205095	0	0	0	
0.0653333	0.0179741	-0.00295646	0.000373627	0.000179025	0	0	0	
0.0655	-0.0237472	-0.00263407	0.00038561	0.000151357	0	0	0	
0.0656667	0.00940918	0.00198035	0.000409452	0.000100268	0	0	0	
0.0658333	0.0129163	0.000462125	0.000460449	5.61094E-05	0	0	0	
0.066	-0.0210351	-0.00621358	0.000460752	0.000111854	0	0	0	
0.0661667	0.013376	0.0313897	0.000421417	0.000241076	0	0	0	
0.0663333	-0.00106901	-0.0367526	0.000318054	0.000432175	0	0	0	
0.0665	-0.00136856	0.00783884	0.000217688	0.000593909	0	0	0	
0.0666667	8.25273E-06	0.0226572	0.000118992	0.000692283	0	0	0	
0.0668333	-0.00365222	-0.0240793	4.15388E-05	0.000608007	0	0	0	
0.067	0.00620697	0.00633266	5.03765E-05	0.000582508	0	0	0	
0.0671667	0.00108378	0.0182221	0.00011234	0.000581055	0	0	0	
0.0673333	-0.00508871	-0.0222522	0.000178873	0.000622708	0	0	0	
0.0675	0.00289353	0.00484089	0.000181512	0.000495471	0	0	0	
0.0676667	-0.00352359	-0.00391767	0.000148325	0.000278156	0	0	0	
0.0678333	0.0105937	0.0358233	0.00014396	0.000250796	0	0	0	
0.068	-0.00263859	-0.0381517	0.00013772	0.000384827	0	0	0	
0.0681667	-0.00655875	0.00145218	0.000160404	0.000637254	0	0	0	
0.0683333	0.00179684	0.00909166	0.000121147	0.000717321	0	0	0	
0.0685	-0.00885687	-0.0106519	0.000148865	0.00063959	0	0	0	
0.0686667	0.0257507	0.0371787	0.000274878	0.000749351	0	0	0	
0.0688333	-0.0322226	-0.0751028	0.000401633	0.00094693	0	0	0	
0.069	0.0119254	0.0451017	0.000592933	0.00124843	0	0	0	
0.0691667	0.0112124	0.040017	0.000608702	0.00159152	0	0	0	
0.0693333	-0.00931859	-0.0774612	0.000519411	0.00159343	0	0	0	
0.0695	0.00523309	0.035759	0.000300684	0.00151846	0	0	0	
0.0696667	-0.0147123	-0.00476126	0.000196836	0.0011982	0	0	0	
0.0698333	0.00530466	0.000932741	0.000259804	0.00100862	0	0	0	
0.07	0.0111069	-0.00923698	0.000366371	0.00075624	0	0	0	
0.0701667	-0.0126201	-0.00164141	0.00036895	0.00050742	0	0	0	
0.0703333	0.00995855	0.0177622	0.000303016	0.000444689	0	0	0	
0.0705	-0.00241929	-0.0110574	0.000221372	0.00041282	0	0	0	
0.0706667	0.000185578	-0.00787168	0.00016416	0.000383936	0	0	0	
0.0708333	-0.00278204	0.00564557	0.000114003	0.000245694	0	0	0	
0.071	0.00453504	0.00661991	8.56769E-05	0.000270089	0	0	0	
0.0711667	0.00235681	-0.00614282	8.75559E-05	0.000169368	0	0	0	
0.0713333	-0.00562243	-0.0121268	0.000114866	0.000249227	0	0	0	
0.0715	0.00593193	0.015898	0.000128383	0.000236928	0	0	0	
0.0716667	-7.26859E-05	-0.00199114	0.000106992	0.00026832	0	0	0	
0.0718333	0.00127239	-0.00862399	9.5992E-05	0.000198379	0	0	0	
0.072	-0.0127749	-0.00419963	0.000121295	0.000147765	0	0	0	
0.0721667	0.0170598	0.0202934	0.000178104	0.000180374	0	0	0	
0.0723333	-0.00573388	-0.0211995	0.00025955	0.000262499	0	0	0	
0.0725	-0.00746656	0.0041696	0.000316815	0.000358861	0	0	0	
0.0726667	0.00505286	0.0105995	0.000280312	0.000413929	0	0	0	
0.0728333	0.00317226	-0.0178163	0.000228951	0.000392329	0	0	0	
0.073	-0.00262864	0.0104888	0.000195813	0.000365944	0	0	0	
0.0731667	0.00466993	0.0112871	0.000253607	0.000457791	0	0	0	
0.0733333	-0.0129705	-0.0299619	0.00030999	0.000558397	0	0	0	
0.0735	0.0190774	0.0199392	0.000326204	0.000599117	0	0	0	
0.0736667	-0.0146396	-0.0105507	0.000332475	0.000454931	0	0	0	
0.0738333	0.000885918	0.00573107	0.000275649	0.000319681	0	0	0	
0.074	0.00879753	-0.00360668	0.000201115	0.00019498	0	0	0	
0.0741667	-0.00149026	-0.000591878	0.000156275	0.000105923	0	0	0	
0.0743333	-0.00573986	-0.0022261	0.000155506	6.42068E-05	0	0	0	
0.0745	0.00603313	0.00811975	0.000172323	0.000105078	0	0	0	
0.0746667	-0.0058032	-0.0158326	0.000145062	0.000178799	0	0	0	
0.0748333	0.00567738	0.0107184	0.000120488	0.000232507	0	0	0	
0.075	0.00307627	0.00705961	0.000154942	0.000273574	0	0	0	
0.0751667	-0.0278712	-0.0277288	0.000261564	0.000317639	0	0	0	
0.0753333	0.0498046	0.0377758	0.000454694	0.000433407	0	0	0	
0.0755	-0.0278759	-0.0307614	0.000753188	0.000607058	0	0	0	
0.0756667	-0.0317216	-0.00274218	0.0012052	0.000843675	0	0	0	
0.0758333	0.067684	0.0405739	0.00143019	0.00104745	0	0	0	
0.076	-0.0499671	-0.0565247	0.00138709	0.00108607	0	0	0	
0.0761667	0.00920778	0.0391474	0.00107681	0.00103313	0	0	0	
0.0763333	0.0124093	0.0104951	0.000852383	0.00105244	0	0	0	
0.0765	-0.033485	-0.0486964	0.000733455	0.0010997	0	0	0	
0.0766667	0.0471096	0.0509669	0.000683925	0.00108108	0	0	0	
0.0768333	-0.0273863	-0.0217798	0.000735503	0.000962843	0	0	0	
0.077	-0.00581824	-0.0166174	0.000837073	0.000985573	0	0	0	
0.0771667	0.0130166	0.0435434	0.000759327	0.000974861	0	0	0	
0.0773333	-0.00679438	-0.0293166	0.000537618	0.00087711	0	0	0	
0.0775	0.00046962	-0.00470541	0.000250988	0.000731847	0	0	0	
0.0776667	0.0033416	0.0294194	0.000122322	0.000599611	0	0	0	
0.0778333	0.000334963	-0.0115212	0.000136755	0.000562373	0	0	0	
0.078	-0.013938	-0.0169341	0.000219701	0.000565513	0	0	0	
0.0781667	0.010874	0.0241952	0.000265599	0.000587132	0	0	0	
0.0783333	0.00506242	-0.00677296	0.000246272	0.000511775	0	0	0	
0.0785	-0.0059118	-0.00200194	0.00020932	0.000289106	0	0	0	
0.0786667	-0.00537189	0.00926212	0.000296558	0.000185584	0	0	0	
0.0788333	0.00781097	-0.0121166	0.000320059	0.000200049	0	0	0	
0.079	-0.000987248	-0.000997752	0.000259795	0.000320545	0	0	0	
0.0791667	-0.00458721	0.0148525	0.000118326	0.000420064	0	0	0	
0.0793333	0.0085312	-0.0109371	8.1085E-05	0.000375265	0	0	0	
0.0795	-0.00696488	-0.00530042	0.000115366	0.000375273	0	0	0	
0.0796667	0.00056772	0.0151964	0.000148945	0.00035283	0	0	0	
0.0798333	0.00496312	-0.0109363	0.000120888	0.000399224	0	0	0	
0.08	-0.00319127	-0.000475717	0.000112914	0.000300266	0	0	0	
0.0801667	0.00131378	0.00602373	8.10681E-05	0.000201372	0	0	0	
0.0803333	-0.00214261	-0.00435764	7.87456E-05	0.000151146	0	0	0	
0.0805	0.00255048	0.0014723	5.49534E-05	0.000139771	0	0	0	
0.0806667	0.000287649	-0.00480422	4.53168E-05	0.000123974	0	0	0	
0.0808333	0.0010206	0.0114953	4.2074E-05	0.000129576	0	0	0	
0.081	-0.00333195	-0.0173467	5.5131E-05	0.000183566	0	0	0	
0.0811667	0.00283165	0.0136508	9.7665E-05	0.000258509	0	0	0	
0.0813333	-0.00286997	-0.0101596	0.000134603	0.000281555	0	0	0	
0.0815	0.00317412	0.0105216	0.000135325	0.000251027	0	0	0	
0.0816667	-0.00275342	-0.00720423	0.000112374	0.000206198	0	0	0	
0.0818333	0.00211456	-0.000650281	8.63896E-05	0.000173338	0	0	0	
0.082	-0.0027322	0.000969989	6.55517E-05	0.000149779	0	0	0	
0.0821667	-0.00367339	-0.00573234	7.54439E-05	0.000133568	0	0	0	
0.0823333	0.012825	0.0214626	0.000111629	0.00017377	0	0	0	
0.0825	-0.0113161	-0.0262815	0.000179204	0.000278682	0	0	0	
0.0826667	0.0012641	0.00145397	0.000255471	0.000495465	0	0	0	
0.0828333	0.00435549	0.0271756	0.000282132	0.000666868	0	0	0	
0.083	-0.00360004	-0.0214433	0.000251153	0.000659041	0	0	0	
0.0831667	0.0074386	0.0042231	0.000188919	0.000505123	0	0	0	
0.0833333	-0.00527351	-0.00458999	0.000141454	0.000290259	0	0	0	
0.0835	-0.00422732	0.00591106	0.000187603	0.000240191	0	0	0	
0.0836667	0.00900433	0.0142275	0.000193908	0.000320208	0	0	0	
0.0838333	-0.00315662	-0.0229386	0.000197015	0.00040206	0	0	0	
0.084	-0.0004458	0.00843079	0.000139107	0.000468704	0	0	0	
0.0841667	0.00330736	0.0153122	0.000123229	0.000496651	0	0	0	
0.0843333	-0.00513258	-0.0150637	0.000143175	0.00048512	0	0	0	
0.0845	0.00483227	0.00457619	0.000135816	0.00039214	0	0	0	
0.0846667	0.000735925	-0.000110961	0.000104585	0.000197492	0	0	0	
0.0848333	0.000300544	0.00679235	7.57846E-05	0.000142567	0	0	0	
0.085	-0.00228811	-0.000709347	0.00010295	0.000112439	0	0	0	
0.0851667	0.000936151	-0.00637211	0.000141316	0.000106107	0	0	0	
0.0853333	0.00215336	0.0054066	0.000152455	0.000122357	0	0	0	
0.0855	-0.000557624	0.0069266	0.000127987	0.000181056	0	0	0	
0.0856667	-0.000883265	-0.00580442	0.000106362	0.000197069	0	0	0	
0.0858333	0.00254425	0.00135407	8.73767E-05	0.000162032	0	0	0	
0.086	0.00124153	0.00241191	6.32688E-05	8.86028E-05	0	0	0	
0.0861667	-0.00303867	0.000672181	4.71518E-05	7.96197E-05	0	0	0	
0.0863333	0.000584141	0.00359881	4.48698E-05	5.53943E-05	0	0	0	
0.0865	-7.88917E-05	-0.00643582	4.13884E-05	8.35427E-05	0	0	0	
0.0866667	0.00686493	0.00921782	7.18114E-05	0.000127119	0	0	0	
0.0868333	-0.0112608	-0.00639318	0.000107476	0.000158227	0	0	0	
0.087	0.00863389	0.0105494	0.000171918	0.00016849	0	0	0	
0.0871667	0.00108633	-0.00994892	0.000206273	0.00016743	0	0	0	
0.0873333	-0.00367152	0.00101017	0.000179344	0.000179	0	0	0	
0.0875	0.000430197	0.00834645	0.00013691	0.000141206	0	0	0	
0.0876667	0.00147547	-0.00369922	7.98846E-05	0.000151984	0	0	0	
0.0878333	-0.00103237	-0.0019096	6.02111E-05	0.00019155	0	0	0	
0.088	0.00453199	0.00662964	5.1713E-05	0.00022477	0	0	0	
0.0881667	-0.00592653	-0.00286304	6.86646E-05	0.000178725	0	0	0	
0.0883333	0.00244419	-0.0017919	8.50727E-05	0.00010592	0	0	0	
0.0885	0.00488382	0.00621634	0.000106035	8.18363E-05	0	0	0	
0.0886667	-0.00510976	-0.00598867	0.000102701	8.93098E-05	0	0	0	
0.0888333	0.00102764	0.00615269	0.000106644	0.000117031	0	0	0	
0.089	0.0049051	0.00296981	0.000112444	0.000152309	0	0	0	
0.0891667	-0.0049674	-0.00449872	0.00010592	0.000163521	0	0	0	
0.0893333	-0.000344294	0.00614967	0.000116365	0.000143985	0	0	0	
0.0895	0.0010228	-0.000286098	9.32717E-05	0.000125695	0	0	0	
0.0896667	0.0050898	0.000615783	8.21818E-05	0.000102589	0	0	0	
0.0898333	-0.00443114	5.17894E-05	8.06677E-05	8.90333E-05	0	0	0	
0.09	0.00267178	0.00748404	8.59092E-05	6.31852E-05	0	0	0	
0.0901667	0.00142075	-0.00376443	0.0001264	9.76143E-05	0	0	0	
0.0903333	-0.00334602	-0.00151661	0.000148458	0.000170217	0	0	0	
0.0905	0.00253117	0.0119409	0.000155133	0.00023674	0	0	0	
0.0906667	-0.00404378	-0.00712824	0.000121854	0.000236895	0	0	0	
0.0908333	0.00565024	-0.000713188	8.96853E-05	0.00019088	0	0	0	
0.091	0.00292338	0.00986555	8.63619E-05	0.000176429	0	0	0	
0.0911667	-0.00870853	-0.0156518	8.94658E-05	0.000207114	0	0	0	
0.0913333	0.00100426	0.0152143	0.000157113	0.000265274	0	0	0	
0.0915	0.0149523	0.00813502	0.000260606	0.000474028	0	0	0	
0.0916667	-0.0114552	-0.0345692	0.000306074	0.000676102	0	0	0	
0.0918333	-0.00769551	0.0274466	0.00032077	0.000729989	0	0	0	
0.092	0.0107087	0.011818	0.000233304	0.000750126	0	0	0	
0.0921667	-0.00330626	-0.0367386	0.000217696	0.000666768	0	0	0	
0.0923333	0.0144328	0.0297748	0.000164149	0.000714053	0	0	0	
0.0925	-0.0172955	-0.014571	0.000222097	0.00067995	0	0	0	
0.0926667	-0.00443907	0.0015481	0.00037577	0.000674433	0	0	0	
0.0928333	0.018302	0.00435862	0.000473905	0.000622626	0	0	0	
0.093	-0.00318102	-0.0124861	0.000435485	0.000471744	0	0	0	
0.0931667	-0.00998307	0.00754911	0.000314014	0.00032073	0	0	0	
0.0933333	0.00488535	0.0125561	0.000196704	0.000360636	0	0	0	
0.0935	-0.000727416	-0.0305899	0.000155661	0.000416599	0	0	0	
0.0936667	0.00419082	0.0182186	8.11633E-05	0.000519745	0	0	0	
0.0938333	-0.00484638	0.00499326	7.26272E-05	0.000522008	0	0	0	
0.094	0.00428759	-0.0163917	7.69565E-05	0.000434244	0	0	0	
0.0941667	-0.00113302	0.0025461	8.53439E-05	0.000375383	0	0	0	
0.0943333	-0.00114992	0.0118629	7.64798E-05	0.000318375	0	0	0	
0.0945	-0.00340928	-0.0267695	5.66161E-05	0.000341362	0	0	0	
0.0946667	0.00658176	0.00933232	5.92717E-05	0.000406177	0	0	0	
0.0948333	-0.00139723	0.00800564	0.000101821	0.000426528	0	0	0	
0.095	-0.00500478	-0.00452337	0.000145678	0.000345348	0	0	0	
0.0951667	0.00331189	-0.00563794	0.000143416	0.000244678	0	0	0	
0.0953333	0.00229157	-0.00476933	0.000116658	0.00012914	0	0	0	
0.0955	-0.00139413	0.00724669	6.8713E-05	0.000129041	0	0	0	
0.0956667	-0.00109562	0.00246115	6.45708E-05	0.000233491	0	0	0	
0.0958333	0.000286766	-0.0202257	3.43229E-05	0.000347868	0	0	0	
0.096	0.000500721	0.0125757	4.87243E-05	0.000414751	0	0	0	
0.0961667	-0.00136048	0.00371138	3.21712E-05	0.000360419	0	0	0	
0.0963333	0.000510978	-0.00189292	5.68796E-05	0.000223471	0	0	0	
0.0965	-0.000585633	-0.00952577	6.0378E-05	0.000196548	0	0	0	
0.0966667	0.00357227	0.0100732	8.04705E-05	0.000146591	0	0	0	
0.0968333	-0.000126272	-0.000110797	9.47002E-05	0.000228643	0	0	0	
0.097	-0.00959576	-0.0171133	0.000135227	0.000295945	0	0	0	
0.0971667	0.00927106	0.0265267	0.000162398	0.000356128	0	0	0	
0.0973333	0.000971194	-0.0168781	0.000212848	0.000474465	0	0	0	
0.0975	-0.0107786	-0.0136788	0.000227552	0.000677691	0	0	0	
0.0976667	0.0060054	0.0316671	0.000224826	0.000777578	0	0	0	
0.0978333	-0.000249216	-0.0186048	0.000173203	0.000702005	0	0	0	
0.098	0.00398778	-0.00274496	0.000115492	0.000507144	0	0	0	
0.0981667	-0.00251951	0.00435585	9.4016E-05	0.000333492	0	0	0	
0.0983333	-0.0113214	-0.00820876	0.000160209	0.000303406	0	0	0	
0.0985	0.0116073	0.0328357	0.000220498	0.000402209	0	0	0	
0.0986667	0.000741034	-0.0335287	0.000239339	0.000545947	0	0	0	
0.0988333	-0.00490417	-0.000253371	0.00015004	0.000684172	0	0	0	
0.099	-0.00267432	0.0266321	9.87092E-05	0.000676375	0	0	0	
0.0991667	0.00374413	-0.00854393	7.91695E-05	0.000603435	0	0	0	
0.0993333	0.0036369	-0.0147044	7.58779E-05	0.000585213	0	0	0	
0.0995	-0.00554845	0.0102627	8.45738E-05	0.000400735	0	0	0	
0.0996667	0.00372311	0.0125118	0.00010141	0.000439057	0	0	0	
0.0998333	-0.00282303	-0.0129633	0.000113876	0.000270032	0	0	0	
0.1	-0.000372393	-0.000860295	0.000105357	0.00035007	0	0	0	
0.100167	0.00285607	0.00427911	9.77725E-05	0.000261083	0	0	0	
0.100333	0.000819439	0.00727716	9.68489E-05	0.000224123	0	0	0	
0.1005	-0.00257968	-0.00828496	8.70197E-05	0.00016152	0	0	0	
0.100667	0.00462538	0.000939101	8.37326E-05	0.000192115	0	0	0	
0.100833	-0.00387764	-0.000265755	8.86899E-05	0.000242588	0	0	0	
0.101	0.00298447	-0.000786875	0.000103725	0.000209175	0	0	0	
0.101167	-0.00343626	-0.00394725	9.94426E-05	0.000141644	0	0	0	
0.101333	0.00494963	0.0125512	0.000101716	0.000110094	0	0	0	
0.1015	-0.00362444	-0.0100825	0.000107558	0.000161641	0	0	0	
0.101667	0.00153925	0.00299647	0.000122835	0.00021819	0	0	0	
0.101833	0.000314964	-0.00137367	0.000107911	0.000185093	0	0	0	
0.102	-0.000242915	0.00560144	6.48581E-05	0.000129516	0	0	0	
0.102167	0.00130619	-0.000306936	3.0467E-05	0.00010279	0	0	0	
0.102333	-0.000341984	-0.00624191	2.57103E-05	0.00016842	0	0	0	
0.1025	-0.00143446	0.00343388	3.46327E-05	0.000157591	0	0	0	
0.102667	0.00289085	0.00518422	4.11968E-05	0.000180261	0	0	0	
0.102833	-0.00279235	-0.00909931	4.3214E-05	0.000159248	0	0	0	
0.103	0.00152618	0.00741015	5.69401E-05	0.000194422	0	0	0	
0.103167	-0.00144974	-0.000725453	7.64941E-05	0.000178033	0	0	0	
0.103333	0.00147883	-0.000720152	9.49228E-05	0.000147701	0	0	0	
0.1035	-0.000260388	0.00107973	9.41845E-05	0.000110335	0	0	0	
0.103667	0.000600572	0.000104306	7.51562E-05	6.28605E-05	0	0	0	
0.103833	0.00159156	-0.00111992	5.92074E-05	5.8507E-05	0	0	0	
0.104	-0.00108111	-0.00392508	6.12507E-05	9.13087E-05	0	0	0	
0.104167	0.00148803	0.00341125	6.48836E-05	0.000103702	0	0	0	
0.104333	-0.0015109	-0.0028003	5.93839E-05	0.00010607	0	0	0	
0.1045	-6.33971E-05	0.00193656	4.03615E-05	8.02428E-05	0	0	0	
0.104667	0.00131295	-0.00292912	2.85709E-05	7.59214E-05	0	0	0	
0.104833	0.000133901	0.00155858	2.89436E-05	6.14149E-05	0	0	0	
0.105	0.000651275	0.00158752	4.41486E-05	7.83556E-05	0	0	0	
0.105167	0.00185193	-0.00466395	5.96469E-05	7.44763E-05	0	0	0	
0.105333	-0.000271636	-0.00213493	6.16724E-05	8.99751E-05	0	0	0	
0.1055	-0.00234376	0.00123406	5.1513E-05	6.80104E-05	0	0	0	
0.105667	0.00180934	-0.00195651	4.28403E-05	7.41943E-05	0	0	0	
0.105833	9.18145E-05	-0.00180692	3.89873E-05	5.17829E-05	0	0	0	
0.106	0.00210773	0.000214063	4.57096E-05	7.342E-05	0	0	0	
0.106167	0.000733622	0.000638831	7.896E-05	8.97219E-05	0	0	0	
0.106333	-0.00961677	-0.00705928	0.000136962	0.000121932	0	0	0	
0.1065	0.00920318	0.0192876	0.000175203	0.000164749	0	0	0	
0.106667	0.00486273	-0.0237714	0.000248361	0.000260683	0	0	0	
0.106833	-0.0118655	0.00107658	0.000250696	0.00044561	0	0	0	
0.107	0.00309534	0.0390979	0.000250355	0.000706767	0	0	0	
0.107167	-0.000933183	-0.0463051	0.000148883	0.000829273	0	0	0	
0.107333	0.0090404	0.0145278	0.000111585	0.000891548	0	0	0	
0.1075	-0.00193586	0.0225157	0.000138444	0.000900228	0	0	0	
0.107667	-0.0132883	-0.0264369	0.000245325	0.000839548	0	0	0	
0.107833	0.00901623	0.0286246	0.000269201	0.000709027	0	0	0	
0.108	0.00363473	-0.0230591	0.000278101	0.000537372	0	0	0	
0.108167	-0.00138139	0.00733141	0.0001638	0.000536537	0	0	0	
0.108333	-0.00309371	0.0225186	0.000147426	0.000637308	0	0	0	
0.1085	0.00149943	-0.0329324	6.94485E-05	0.000641587	0	0	0	
0.108667	0.00147662	0.00473264	7.88661E-05	0.00060859	0	0	0	
0.108833	-0.00174734	0.0274655	5.3201E-05	0.000554732	0	0	0	
0.109	0.000630963	-0.0184819	5.37129E-05	0.000509472	0	0	0	
0.109167	0.00179739	-0.0135372	7.59624E-05	0.00049359	0	0	0	
0.109333	-0.00129278	0.00941311	7.39505E-05	0.000361068	0	0	0	
0.1095	-0.00407318	0.00929417	8.36166E-05	0.000337971	0	0	0	
0.109667	0.0015238	-0.0129573	6.56652E-05	0.000259771	0	0	0	
0.109833	0.00356428	-0.00442399	0.000104662	0.000254122	0	0	0	
0.11	0.00295679	0.00637501	9.59696E-05	0.000170489	0	0	0	
0.110167	-0.0107718	-0.00391529	0.000109138	0.000155223	0	0	0	
0.110333	0.00449091	0.000957215	0.000114268	0.000109303	0	0	0	
0.1105	-0.000818203	-0.0114744	0.000148649	0.000116728	0	0	0	
0.110667	8.61038E-05	0.0104324	0.000128888	0.000133665	0	0	0	
0.110833	0.00238107	0.0100119	0.00010199	0.00027895	0	0	0	
0.111	-0.00246231	-0.0235844	7.61569E-05	0.000385814	0	0	0	
0.111167	-0.00130583	0.00772192	8.07615E-05	0.000398826	0	0	0	
0.111333	0.00340661	0.0056707	7.67264E-05	0.000349693	0	0	0	
0.1115	-0.00437274	-0.0085841	7.62688E-05	0.000248913	0	0	0	
0.111667	0.00360424	0.00538611	7.57861E-05	0.000211086	0	0	0	
0.111833	-0.00320754	-0.0123727	7.92722E-05	0.000138231	0	0	0	
0.112	-0.00287758	0.00492724	0.000122424	0.000189275	0	0	0	
0.112167	0.0122918	0.0205851	0.000159142	0.000325713	0	0	0	
0.112333	-0.00715024	-0.039361	0.000193798	0.000455922	0	0	0	
0.1125	-0.0090708	-0.00215917	0.000245836	0.000704879	0	0	0	
0.112667	0.0118432	0.0394691	0.000255737	0.000875162	0	0	0	
0.112833	-0.00890231	-0.0345728	0.000274622	0.000902959	0	0	0	
0.113	0.00588356	-0.00108668	0.000250939	0.000856635	0	0	0	
0.113167	-0.0017086	0.00598224	0.000283923	0.000655515	0	0	0	
0.113333	-0.0118228	-0.00820932	0.000345207	0.00057325	0	0	0	
0.1135	0.0172249	0.0312526	0.00036835	0.000544713	0	0	0	
0.113667	-0.00911018	-0.0532873	0.000348127	0.00065352	0	0	0	
0.113833	-0.0085257	0.014532	0.00030711	0.000821297	0	0	0	
0.114	0.0154238	0.0375875	0.000281546	0.000986973	0	0	0	
0.114167	-0.0150548	-0.0459108	0.000290411	0.000994737	0	0	0	
0.114333	0.00591837	0.0116336	0.000255982	0.000927309	0	0	0	
0.1145	-0.000161078	0.0114576	0.000234459	0.000670708	0	0	0	
0.114667	-0.00231109	-0.00410433	0.000172927	0.000446303	0	0	0	
0.114833	-0.00143025	-0.00710997	0.000116798	0.000263751	0	0	0	
0.115	-0.000746975	-0.00253194	7.56754E-05	0.000154464	0	0	0	
0.115167	0.00146584	0.00821969	6.90205E-05	0.00017087	0	0	0	
0.115333	0.00154187	-0.00437157	6.20704E-05	0.000176599	0	0	0	
0.1155	-0.00263464	-0.00127004	4.45647E-05	0.000144849	0	0	0	
0.115667	-0.00101107	-0.000776198	4.94032E-05	9.91565E-05	0	0	0	
0.115833	0.00107065	0.00449472	6.47939E-05	0.000103314	0	0	0	
0.116	0.000587344	-0.00687446	6.82794E-05	9.59599E-05	0	0	0	
0.116167	-0.0066212	-0.00219277	7.13094E-05	0.000160325	0	0	0	
0.116333	0.00582297	0.0136252	7.98563E-05	0.000200297	0	0	0	
0.1165	0.000155733	-0.00963368	0.000101111	0.000242623	0	0	0	
0.116667	-0.000394527	-0.00610975	9.74487E-05	0.000280452	0	0	0	
0.116833	-0.00295544	0.00972192	8.2852E-05	0.000253228	0	0	0	
0.117	0.000296737	0.00133222	6.28945E-05	0.000243633	0	0	0	
0.117167	-0.000228508	-0.00557769	4.56907E-05	0.000179126	0	0	0	
0.117333	-0.000279235	0.00508075	3.35917E-05	0.000163194	0	0	0	
0.1175	-0.00133699	0.00424414	2.33413E-05	0.000155776	0	0	0	
0.117667	0.00289692	-0.00249086	3.17093E-05	0.000118158	0	0	0	
0.117833	-0.00307836	-0.00311418	5.61569E-05	0.000110149	0	0	0	
0.118	0.00086804	0.00649051	6.7726E-05	8.71642E-05	0	0	0	
0.118167	-0.00132622	0.00305035	6.46414E-05	0.000104958	0	0	0	
0.118333	-0.00054067	-0.00387389	5.1381E-05	0.000109111	0	0	0	
0.1185	-5.82956E-05	0.00426654	4.60578E-05	0.000105313	0	0	0	
0.118667	0.0025117	0.0047121	4.31008E-05	0.000115328	0	0	0	
0.118833	-0.00241553	-0.004219	4.69793E-05	0.000104719	0	0	0	
0.119	0.00137804	0.000648819	4.31551E-05	0.000109049	0	0	0	
0.119167	-0.0025138	0.0046234	4.73206E-05	8.81724E-05	0	0	0	
0.119333	0.000734573	0.00101168	4.47418E-05	7.03247E-05	0	0	0	
0.1195	0.000965198	-0.00167472	7.45582E-05	4.56745E-05	0	0	0	
0.119667	0.00177437	-0.00120929	8.06298E-05	4.56554E-05	0	0	0	
0.119833	-0.0024423	0.00270407	7.86669E-05	4.70578E-05	0	0	0	
0.12	0.00381304	0.00634866	6.58135E-05	8.68599E-05	0	0	0	
0.120167	-0.00290214	-0.01111	7.26255E-05	0.000122358	0	0	0	
0.120333	-0.00543716	0.00888105	0.000126943	0.000190911	0	0	0	
0.1205	0.0109498	0.00709998	0.000188856	0.000332209	0	0	0	
0.120667	-0.00739172	-0.0283661	0.000222303	0.000512837	0	0	0	
0.120833	-0.00232692	0.0369165	0.000194412	0.000637349	0	0	0	
0.121	0.000434012	-0.0201912	0.00014018	0.000655621	0	0	0	
0.121167	0.0100984	-0.0105916	0.000138697	0.000658255	0	0	0	
0.121333	-0.00161026	0.0253566	0.000138666	0.000586947	0	0	0	
0.1215	-0.00964369	-0.0165583	0.000148698	0.00052945	0	0	0	
0.121667	-0.00026812	-0.00207302	0.000162304	0.000458321	0	0	0	
0.121833	0.0034768	0.00726008	0.000189261	0.000420294	0	0	0	
0.122	0.00319235	-0.00363168	0.000163017	0.000322193	0	0	0	
0.122167	-0.00349138	0.00372777	0.000116652	0.000220425	0	0	0	
0.122333	-0.00129016	-0.00659438	0.000128072	0.00017749	0	0	0	
0.1225	0.00946181	-0.00323624	0.000195737	0.000144895	0	0	0	
0.122667	-0.0100817	0.000233057	0.000233315	0.000129958	0	0	0	
0.122833	0.00522293	0.016023	0.000207495	0.000245459	0	0	0	
0.123	0.00281987	-0.0215765	0.00016536	0.000349344	0	0	0	
0.123167	-0.00523033	0.00280979	0.000129515	0.000405439	0	0	0	
0.123333	-0.00119159	0.018271	0.000144481	0.000309352	0	0	0	
0.1235	0.0062989	-0.00231484	0.00017141	0.000338782	0	0	0	
0.123667	0.000968505	-0.0152871	0.000227919	0.0004944	0	0	0	
0.123833	0.0069291	0.0118047	0.000265575	0.000579775	0	0	0	
0.124	-0.00696583	0.000185363	0.000257243	0.00046143	0	0	0	
0.124167	-0.00278167	-0.0081291	0.000191349	0.000229469	0	0	0	
0.124333	0.00365159	0.00943786	0.000106045	0.000175135	0	0	0	
0.1245	-0.00323268	-0.00742608	0.00011877	0.000241567	0	0	0	
0.124667	0.00982998	0.015361	0.000198511	0.000341801	0	0	0	
0.124833	-0.00625887	-0.0105165	0.000259142	0.000390801	0	0	0	
0.125	0.00314847	0.0017805	0.000240729	0.000363822	0	0	0	
0.125167	-0.00601737	-0.00682865	0.000172167	0.00025891	0	0	0	
0.125333	0.00572963	0.0104222	0.000127823	0.000156699	0	0	0	
0.1255	-0.00185743	-0.00388608	0.000136886	0.000154947	0	0	0	
0.125667	-0.00125417	-0.00586891	0.000162447	0.00022217	0	0	0	
0.125833	-0.00263593	0.00266214	0.000138614	0.000202079	0	0	0	
0.126	0.00716916	0.0229362	0.000108058	0.000208638	0	0	0	
0.126167	-0.00229588	-0.0310916	0.000128818	0.00027646	0	0	0	
0.126333	-0.00460702	-0.00199567	0.000204933	0.00057848	0	0	0	
0.1265	0.00242689	0.0356386	0.000214216	0.000821995	0	0	0	
0.126667	-0.00113655	-0.0211903	0.000175156	0.000810128	0	0	0	
0.126833	0.00528947	-0.00622356	0.000142626	0.000617865	0	0	0	
0.127	0.00118497	0.0078755	0.000125799	0.00035091	0	0	0	
0.127167	-0.0188622	-0.00912907	0.000193095	0.000304748	0	0	0	
0.127333	0.0240795	0.0382338	0.00026289	0.000427375	0	0	0	
0.1275	-0.0103454	-0.0497097	0.000360992	0.000636905	0	0	0	
0.127667	-0.000928447	0.0168612	0.000358115	0.000839761	0	0	0	
0.127833	0.0017463	0.0257537	0.000291545	0.000935415	0	0	0	
0.128	-0.00450776	-0.0251104	0.000202995	0.000808186	0	0	0	
0.128167	0.00215211	-0.00409953	0.000109238	0.000702208	0	0	0	
0.128333	0.000961133	0.0116604	8.06072E-05	0.000434055	0	0	0	
0.1285	0.000702037	0.00625336	7.46802E-05	0.000378852	0	0	0	
0.128667	0.00241147	-0.00903701	7.60237E-05	0.000228215	0	0	0	
0.128833	-0.00282727	-0.00209027	5.27581E-05	0.00021266	0	0	0	
0.129	0.000708573	0.00344174	3.56137E-05	0.000142662	0	0	0	
0.129167	-0.00484195	0.0063489	4.65719E-05	0.000140738	0	0	0	
0.129333	0.00325752	0.00281184	6.27063E-05	0.000115788	0	0	0	
0.1295	-0.000273805	-0.0157808	8.79386E-05	0.000186686	0	0	0	
0.129667	0.000844812	0.0120087	9.02562E-05	0.000218513	0	0	0	
0.129833	0.000762509	0.00343325	7.32777E-05	0.000302285	0	0	0	
0.13	-0.00285391	-0.00976014	6.04699E-05	0.000328372	0	0	0	
0.130167	0.00316578	0.00603337	7.33185E-05	0.000290807	0	0	0	
0.130333	-0.00143442	0.00143106	8.15449E-05	0.000179042	0	0	0	
0.1305	-0.00391993	-0.00250432	7.185E-05	8.87737E-05	0	0	0	
0.130667	0.00363669	0.00338248	6.32684E-05	5.94141E-05	0	0	0	
0.130833	0.000619906	-0.00422942	9.1606E-05	6.40338E-05	0	0	0	
0.131	-0.00389908	0.00561996	0.000112142	8.47056E-05	0	0	0	
0.131167	-0.00105362	0.00196412	0.000102202	0.000143956	0	0	0	
0.131333	0.00191908	-0.00329706	7.16084E-05	0.000172267	0	0	0	
0.1315	-0.00272901	0.00165311	7.43471E-05	0.000150432	0	0	0	
0.131667	8.58466E-05	0.00286985	8.7152E-05	8.45351E-05	0	0	0	
0.131833	0.00203143	0.0030356	8.91998E-05	7.10282E-05	0	0	0	
0.132	-0.00149974	-0.00542246	6.65807E-05	0.000113167	0	0	0	
0.132167	0.0014814	0.00329017	6.5435E-05	0.000129743	0	0	0	
0.132333	-0.00355196	0.0039227	8.12394E-05	0.000105589	0	0	0	
0.1325	-3.05459E-05	-0.000465224	8.85153E-05	8.01947E-05	0	0	0	
0.132667	0.00148567	-0.000494044	6.4516E-05	0.0001073	0	0	0	
0.132833	-0.00247786	0.00373476	6.03141E-05	0.000113306	0	0	0	
0.133	0.000786073	0.00155732	6.58925E-05	9.31522E-05	0	0	0	
0.133167	0.000701135	-0.00513453	9.28781E-05	4.87473E-05	0	0	0	
0.133333	0.00118095	0.000765477	8.49443E-05	5.87259E-05	0	0	0	
0.1335	-0.00296342	0.00445456	7.63541E-05	9.04762E-05	0	0	0	
0.133667	0.00186577	-0.00166614	7.55019E-05	9.19092E-05	0	0	0	
0.133833	0.000444444	0.000206485	8.34641E-05	9.77742E-05	0	0	0	
0.134	-0.00165106	0.00219614	8.16293E-05	5.7671E-05	0	0	0	
0.134167	0.0045043	0.00523925	7.62626E-05	0.000104508	0	0	0	
0.134333	-0.00713089	-0.0157932	8.03184E-05	0.000128589	0	0	0	
0.1345	-0.000870541	0.016263	0.000144916	0.000237425	0	0	0	
0.134667	0.0158678	0.00736802	0.000236725	0.000399853	0	0	0	
0.134833	-0.0115449	-0.0245326	0.000277444	0.000537512	0	0	0	
0.135	-0.00314494	0.0116708	0.000305931	0.000538885	0	0	0	
0.135167	0.00439584	0.0232562	0.00021509	0.000551834	0	0	0	
0.135333	0.00285824	-0.0276081	0.000172589	0.00049247	0	0	0	
0.1355	0.00701814	0.00295947	0.000129152	0.000543497	0	0	0	
0.135667	-0.012306	0.00596069	0.000179162	0.000365527	0	0	0	
0.135833	-0.000660614	0.00667148	0.000221099	0.000280798	0	0	0	
0.136	0.0127103	-0.00253988	0.00020834	0.000146569	0	0	0	
0.136167	-0.00145481	-0.0108173	0.000208836	0.000137618	0	0	0	
0.136333	-0.00817665	-0.00152806	0.000199655	0.000188341	0	0	0	
0.1365	-0.00500879	0.0252338	0.000175735	0.000337823	0	0	0	
0.136667	0.00825439	-0.0219421	0.000150736	0.000405075	0	0	0	
0.136833	-0.00536936	-0.00487856	0.000134103	0.00052406	0	0	0	
0.137	0.00288644	0.0182225	0.00015076	0.000488797	0	0	0	
0.137167	0.00179159	-0.00747912	0.000135396	0.000454603	0	0	0	
0.137333	-0.00540921	-0.00556587	0.000106027	0.000296428	0	0	0	
0.1375	-0.003568	0.0015202	9.60687E-05	0.000182027	0	0	0	
0.137667	0.0031792	0.00401808	9.53013E-05	0.00015103	0	0	0	
0.137833	-0.00284809	0.00629365	0.00011674	0.000191774	0	0	0	
0.138	0.00128436	-0.0102422	0.000113865	0.000286177	0	0	0	
0.138167	-0.00301016	0.0162853	0.0001028	0.0003367	0	0	0	
0.138333	-0.00114473	-0.0107513	0.000106968	0.000306909	0	0	0	
0.1385	0.00495553	-0.00751464	0.000118104	0.000308829	0	0	0	
0.138667	-0.000872521	0.0234555	0.000112458	0.000310885	0	0	0	
0.138833	-0.00320148	-0.0136564	8.0461E-05	0.000352889	0	0	0	
0.139	0.00403555	0.00615346	6.22674E-05	0.000375056	0	0	0	
0.139167	-0.00486179	0.00382557	8.46315E-05	0.000366648	0	0	0	
0.139333	0.00470167	-0.0020222	0.00010801	0.000270262	0	0	0	
0.1395	-0.00131378	0.000208159	0.000104801	0.000148692	0	0	0	
0.139667	0.00275636	0.00790654	8.93952E-05	0.000104468	0	0	0	
0.139833	-0.00157509	-0.0092046	7.86003E-05	0.000145283	0	0	0	
0.14	0.0021536	0.00416118	7.01453E-05	0.000153018	0	0	0	
0.140167	-0.00464326	-0.00208724	6.75602E-05	0.00012323	0	0	0	
0.140333	0.00869288	0.0160764	7.95292E-05	0.000103651	0	0	0	
0.1405	-0.00493204	-0.0149135	0.000132368	0.000218667	0	0	0	
0.140667	-0.00186663	-0.0142581	0.000187719	0.000478407	0	0	0	
0.140833	0.00519381	0.0324206	0.000177855	0.000603447	0	0	0	
0.141	-0.0055642	-0.0159112	0.000139547	0.000651611	0	0	0	
0.141167	0.0107831	-0.00563544	0.000115665	0.000536669	0	0	0	
0.141333	-0.00265961	0.00263865	0.00015279	0.000394386	0	0	0	
0.1415	-0.0134899	-0.00329632	0.000231025	0.000254487	0	0	0	
0.141667	0.0120162	0.0351844	0.000254338	0.000317637	0	0	0	
0.141833	-0.00376138	-0.0397464	0.000250477	0.000504589	0	0	0	
0.142	0.00375422	-0.00178728	0.00017803	0.000742752	0	0	0	
0.142167	0.00127651	0.0301817	0.00013305	0.000775006	0	0	0	
0.142333	-0.00447196	-0.00720858	0.000160327	0.000671178	0	0	0	
0.1425	0.00725312	-0.0158425	0.000175523	0.000514488	0	0	0	
0.142667	-0.00347534	0.000328907	0.000176767	0.000377249	0	0	0	
0.142833	0.000217587	0.0250494	0.000103165	0.000468561	0	0	0	
0.143	-0.0032419	-0.0117388	8.44868E-05	0.00042888	0	0	0	
0.143167	0.00329147	-0.00446224	6.60625E-05	0.000423369	0	0	0	
0.143333	-0.000583844	-0.000640142	6.78893E-05	0.000231813	0	0	0	
0.1435	0.00591127	0.0135935	5.98442E-05	0.000215693	0	0	0	
0.143667	-0.00423499	-0.00869992	7.07467E-05	0.000172548	0	0	0	
0.143833	-0.000890321	-0.00265512	6.84078E-05	0.00021535	0	0	0	
0.144	0.0012779	0.00786262	6.05897E-05	0.000150333	0	0	0	
0.144167	-0.000357174	-0.00361909	6.83119E-05	0.000132333	0	0	0	
0.144333	-0.000998051	-0.00489672	8.64793E-05	0.000147736	0	0	0	
0.1445	0.000371892	0.00420006	0.000101336	0.00019365	0	0	0	
0.144667	0.000530512	0.00133928	9.96736E-05	0.000166426	0	0	0	
0.144833	-0.00194764	-0.00301888	0.000101502	0.000122841	0	0	0	
0.145	0.000240791	-0.00120968	0.000101584	0.000119429	0	0	0	
0.145167	0.000674108	0.00484761	0.000109734	0.000169031	0	0	0	
0.145333	-0.00222272	-0.0064962	0.000120087	0.000177129	0	0	0	
0.1455	0.00223566	-0.00267645	0.00011751	0.000154261	0	0	0	
0.145667	-0.000810093	0.00748503	8.67574E-05	0.000118312	0	0	0	
0.145833	-0.0039855	-0.00553022	5.88165E-05	0.000126646	0	0	0	
0.146	0.00369026	-0.00335216	5.11275E-05	0.000129242	0	0	0	
0.146167	-0.00194679	0.00134857	7.34629E-05	0.000122902	0	0	0	
0.146333	-0.00354298	-0.000282901	0.000110556	0.000105659	0	0	0	
0.1465	0.00340605	-0.000359019	0.000143888	0.00010858	0	0	0	
0.146667	-0.00153193	-0.00734776	0.000143091	0.000113181	0	0	0	
0.146833	-0.00116931	0.00527798	0.000107671	0.000119392	0	0	0	
0.147	-0.00168521	-0.00431582	6.72664E-05	0.000123913	0	0	0	
0.147167	0.00194738	-0.00451493	5.50118E-05	0.000104119	0	0	0	
0.147333	-0.000171077	0.00732838	6.61443E-05	0.000115983	0	0	0	
0.1475	-0.00436649	-0.00715773	8.92757E-05	0.000120295	0	0	0	
0.147667	0.00465665	-0.00110301	0.000116308	0.000127529	0	0	0	
0.147833	-0.00128634	0.00058705	0.000135909	0.000123088	0	0	0	
0.148	-0.00277529	-0.00167893	0.000158167	0.000130043	0	0	0	
0.148167	0.00419525	0.00333621	0.000171042	0.000179602	0	0	0	
0.148333	-0.000916429	-0.00676794	0.000159937	0.000193565	0	0	0	
0.1485	-0.00306607	0.000623857	0.00011452	0.000152206	0	0	0	
0.148667	0.00436056	0.00585375	7.43486E-05	0.000110773	0	0	0	
0.148833	-0.00149177	-0.015526	6.80261E-05	0.000124176	0	0	0	
0.149	-0.00221947	0.00632426	8.7157E-05	0.000173534	0	0	0	
0.149167	0.00272718	0.00542463	9.06277E-05	0.00018484	0	0	0	
0.149333	-0.00839604	-0.0107352	9.79028E-05	0.000170896	0	0	0	
0.1495	0.0121067	0.00547529	0.000122945	0.000157192	0	0	0	
0.149667	0.00629587	0.00914469	0.000265613	0.000214829	0	0	0	
0.149833	-0.0403372	-0.0337186	0.000501312	0.000351561	0	0	0	
0.15	0.0489797	0.053799	0.000706962	0.00059928	0	0	0	
0.150167	-0.0159671	-0.0616173	0.000843236	0.00082459	0	0	0	
0.150333	-0.0166035	0.0294158	0.00088551	0.00110998	0	0	0	
0.1505	0.0136976	0.0318295	0.00073661	0.00144368	0	0	0	
0.150667	-0.00837521	-0.0646829	0.000495726	0.00149168	0	0	0	
0.150833	0.0183978	0.0342229	0.000264366	0.00140653	0	0	0	
0.151	-0.00927191	0.0317844	0.00032479	0.00138325	0	0	0	
0.151167	-0.0213497	-0.0556443	0.000559749	0.00144968	0	0	0	
0.151333	0.0295397	0.0427789	0.000659836	0.00135982	0	0	0	
0.1515	-0.005581	-0.0248484	0.000609095	0.000943882	0	0	0	
0.151667	-0.00963896	0.00877313	0.00039197	0.000627516	0	0	0	
0.151833	0.00110121	0.0161285	0.00027195	0.000459152	0	0	0	
0.152	0.00901941	-0.0189566	0.000217608	0.000356202	0	0	0	
0.152167	-0.00856604	-0.00310143	0.000183531	0.000401208	0	0	0	
0.152333	0.00236031	0.0308378	0.000189399	0.000453901	0	0	0	
0.1525	0.00452659	-0.0228063	0.000172158	0.000522512	0	0	0	
0.152667	-5.19282E-05	0.00695796	0.000133723	0.000504309	0	0	0	
0.152833	-0.00461693	0.0189169	9.5867E-05	0.00050416	0	0	0	
0.153	0.00127821	-0.0211532	7.3314E-05	0.000474179	0	0	0	
0.153167	0.00421022	0.00246441	0.000125205	0.000414946	0	0	0	
0.153333	4.03569E-05	0.0170181	0.000114441	0.000318787	0	0	0	
0.1535	-0.00165654	0.000335201	9.1768E-05	0.000242603	0	0	0	
0.153667	0.000993912	-0.0168914	4.87196E-05	0.000236286	0	0	0	
0.153833	0.000630924	0.0116942	4.36481E-05	0.000248293	0	0	0	
0.154	0.000170552	0.015408	4.36368E-05	0.000352269	0	0	0	
0.154167	-0.000555779	-0.020355	5.01393E-05	0.000372575	0	0	0	
0.154333	0.00121506	0.0149845	7.24294E-05	0.00041886	0	0	0	
0.1545	0.00147785	0.0050146	9.04104E-05	0.00042224	0	0	0	
0.154667	0.000591719	-0.012584	7.86493E-05	0.000419765	0	0	0	
0.154833	-0.00136937	0.0079792	4.75905E-05	0.000325668	0	0	0	
0.155	0.000831451	0.00410202	3.93792E-05	0.000216549	0	0	0	
0.155167	-0.00237348	-0.00377685	5.63199E-05	0.000132531	0	0	0	
0.155333	0.00365892	0.00270895	7.51353E-05	0.00011292	0	0	0	
0.1555	-0.00628589	-0.00898053	8.56037E-05	0.000137462	0	0	0	
0.155667	0.00876486	0.0329992	0.000121321	0.000226732	0	0	0	
0.155833	0.00128695	-0.0229628	0.00021956	0.000451152	0	0	0	
0.156	-0.0113066	-0.0271536	0.00030776	0.000827373	0	0	0	
0.156167	0.0064539	0.0509831	0.000289316	0.00101	0	0	0	
0.156333	0.0106268	-0.0104981	0.000271396	0.00102463	0	0	0	
0.1565	-0.0170443	-0.0380548	0.000286846	0.000939809	0	0	0	
0.156667	0.0179141	0.0317011	0.000365917	0.000889762	0	0	0	
0.156833	-0.0195423	-0.0213824	0.000374401	0.000780686	0	0	0	
0.157	0.011833	0.0329146	0.000345951	0.000579579	0	0	0	
0.157167	0.00325414	-0.0295346	0.000341652	0.000535795	0	0	0	
0.157333	-0.00671028	-0.0124518	0.000271988	0.000698924	0	0	0	
0.1575	0.0046582	0.0356212	0.000237895	0.000698738	0	0	0	
0.157667	-0.00381653	-0.020857	0.000198206	0.000782426	0	0	0	
0.157833	0.000635795	-0.0145034	0.000197055	0.000745487	0	0	0	
0.158	0.00224004	0.0170663	0.000133518	0.000655478	0	0	0	
0.158167	-0.00142972	0.00795475	8.66451E-05	0.000548185	0	0	0	
0.158333	-0.0024238	-0.0130982	6.78442E-05	0.000315322	0	0	0	
0.1585	-0.00149392	-0.00359171	9.12109E-05	0.000353621	0	0	0	
0.158667	0.00772525	0.00706266	0.000100472	0.000255682	0	0	0	
0.158833	-0.00564388	-0.00427846	0.000109555	0.00023006	0	0	0	
0.159	0.000414663	0.0073412	0.000138763	0.000163433	0	0	0	
0.159167	0.00273415	-0.00502229	0.000135876	0.000126095	0	0	0	
0.159333	-0.00227326	-0.00906927	0.000117984	0.000153658	0	0	0	
0.1595	-0.00310747	0.0196513	8.72654E-05	0.000192388	0	0	0	
0.159667	0.0047083	-0.00832766	6.71837E-05	0.000266109	0	0	0	
0.159833	-0.00214176	-0.0172645	8.01575E-05	0.000385483	0	0	0	
0.16	0.00384169	0.0258598	7.78519E-05	0.00042747	0	0	0	
0.160167	-0.00448534	-0.00416207	9.10487E-05	0.00044597	0	0	0	
0.160333	-0.000806449	-0.013415	0.000120333	0.00043203	0	0	0	
0.1605	0.00209568	0.0122362	0.000157283	0.000418397	0	0	0	
0.160667	0.000755923	-0.00613466	0.000160221	0.000375689	0	0	0	
0.160833	-0.00194798	-0.00130532	0.000134712	0.000276261	0	0	0	
0.161	0.000530088	0.00231469	0.000108773	0.000203579	0	0	0	
0.161167	0.000489363	-0.00013498	8.84095E-05	0.000169425	0	0	0	
0.161333	0.00165046	-0.00189703	6.10152E-05	0.000197014	0	0	0	
0.1615	-0.00578177	0.00168096	5.6045E-05	0.000226692	0	0	0	
0.161667	0.00442299	0.00621764	7.07473E-05	0.000188732	0	0	0	
0.161833	-0.00430018	-0.0193886	0.000100736	0.000196506	0	0	0	
0.162	0.00378583	0.0188622	9.33476E-05	0.000234818	0	0	0	
0.162167	-0.00294115	-0.0105729	8.48926E-05	0.000327317	0	0	0	
0.162333	0.00469077	0.00535852	7.22994E-05	0.000320372	0	0	0	
0.1625	-0.00624485	-0.00909633	8.35132E-05	0.000263036	0	0	0	
0.162667	0.0047625	0.00366083	9.23391E-05	0.000201707	0	0	0	
0.162833	-0.00193035	0.00323668	0.000102481	0.000139548	0	0	0	
0.163	-0.00411866	0.000765393	9.68148E-05	0.000139693	0	0	0	
0.163167	0.00184094	-0.0096802	8.52132E-05	0.000131665	0	0	0	
0.163333	-0.00128375	0.00244228	6.49267E-05	0.000158287	0	0	0	
0.1635	0.00110181	0.0141302	3.90439E-05	0.000187144	0	0	0	
0.163667	-0.000971371	-0.0144311	3.4089E-05	0.000225129	0	0	0	
0.163833	-0.00105708	0.000946605	3.94098E-05	0.00025711	0	0	0	
0.164	0.000819326	0.0040756	4.59469E-05	0.000205509	0	0	0	
0.164167	0.000487631	-0.00193486	6.25042E-05	0.000166581	0	0	0	
0.164333	-0.00126597	-0.000293013	6.21947E-05	0.000121796	0	0	0	
0.1645	-0.000939431	-0.000186813	6.65394E-05	0.000140268	0	0	0	
0.164667	-0.00305285	-0.00550921	5.54758E-05	0.000195193	0	0	0	
0.164833	-0.000495334	0.0136268	5.08543E-05	0.000203583	0	0	0	
0.165	0.00744826	0.00257258	6.46278E-05	0.000303927	0	0	0	
0.165167	-0.00420614	-0.033441	9.62195E-05	0.000438013	0	0	0	
0.165333	-0.0018063	0.0420589	0.000150645	0.000593415	0	0	0	
0.1655	-0.00797579	-0.0144764	0.000145496	0.000757464	0	0	0	
0.165667	0.0136467	-0.0161348	0.000155136	0.000866138	0	0	0	
0.165833	-2.75666E-05	0.0232131	0.000241696	0.0008345	0	0	0	
0.166	-0.0116231	-0.0138789	0.000347178	0.000626932	0	0	0	
0.166167	1.71306E-05	0.000429074	0.00030971	0.00040336	0	0	0	
0.166333	0.00879352	0.0146426	0.000185885	0.000346543	0	0	0	
0.1665	-0.00290619	-0.0267954	0.000119368	0.000390973	0	0	0	
0.166667	0.000950259	0.0259575	0.000127921	0.00041064	0	0	0	
0.166833	-0.00825672	-0.0100933	0.000137402	0.000456987	0	0	0	
0.167	0.0101842	-0.0134285	0.000135932	0.000443999	0	0	0	
0.167167	-0.00263537	0.0079373	0.000153253	0.000379044	0	0	0	
0.167333	0.00893856	0.0250927	0.000163699	0.000448459	0	0	0	
0.1675	-0.0403383	-0.0427057	0.000253945	0.000502572	0	0	0	
0.167667	0.0182594	-0.00598112	0.00051691	0.000827468	0	0	0	
0.167833	0.163165	0.142192	0.0016734	0.00144171	0	0	0	
0.168	-0.221135	0.023699	0.00395372	0.00221695	0	0	0	
0.168167	0.0838015	0.0503887	0.00504223	0.00223561	0	0	0	
0.168333	-0.0232897	0.012824	0.00412323	0.0017764	0	0	0	
0.1685	-0.0150955	-0.0460408	0.0020111	0.0010585	0	0	0	
0.168667	0.0747811	0.0578642	0.000927056	0.00097704	0	0	0	
0.168833	-0.119055	-0.0758135	0.00113061	0.000958707	0	0	0	
0.169	0.22496	0.175293	0.00224441	0.00170604	0	0	0	
0.169167	-0.19346	-0.0141533	0.00433321	0.00215192	0	0	0	
0.169333	0.00869818	-0.0192805	0.00472322	0.00234763	0	0	0	
0.1695	0.0320301	0.0394653	0.0035714	0.00162609	0	0	0	
0.169667	0.00353917	-0.0283358	0.00129468	0.00106449	0	0	0	
0.169833	-0.00418981	0.00786917	0.000546287	0.000761056	0	0	0	
0.17	-0.0108751	-0.0117772	0.000311638	0.000640739	0	0	0	
0.170167	0.00868488	0.0159336	0.000271745	0.000626787	0	0	0	
0.170333	0.000568344	0.013001	0.000185032	0.000647436	0	0	0	
0.1705	-0.00198603	-0.0150545	0.000197413	0.000585133	0	0	0	
0.170667	0.00552619	-0.0220509	0.000132423	0.000587849	0	0	0	
0.170833	-0.000214561	0.0231383	0.000106226	0.000440292	0	0	0	
0.171	0.0323952	0.0695834	0.000152501	0.000870948	0	0	0	
0.171167	0.0827621	-0.053066	0.000694014	0.0015449	0	0	0	
0.171333	-0.131408	0.0252434	0.00126339	0.0016246	0	0	0	
0.1715	0.04774	0.0123835	0.00210608	0.00133926	0	0	0	
0.171667	-0.0236526	-0.0181086	0.00173644	0.00073707	0	0	0	
0.171833	0.02261	0.0398857	0.00126822	0.000860614	0	0	0	
0.172	-0.0232279	-0.0612525	0.000477638	0.000952032	0	0	0	
0.172167	0.132754	0.127062	0.000759975	0.00118531	0	0	0	
0.172333	-0.0606134	-0.0444027	0.00135893	0.00156327	0	0	0	
0.1725	-0.0339408	-0.013136	0.0019066	0.00143001	0	0	0	
0.172667	-0.0106256	0.00770566	0.00187139	0.0010513	0	0	0	
0.172833	0.0127503	0.0162587	0.00131064	0.000497554	0	0	0	
0.173	-0.00550415	0.00449189	0.000679824	0.000343843	0	0	0	
0.173167	-0.00599	-0.0249237	0.000270938	0.000301187	0	0	0	
0.173333	0.00686021	0.00983217	0.000161771	0.000294544	0	0	0	
0.1735	-0.0116878	0.0322668	0.000266147	0.000339279	0	0	0	
0.173667	0.00572619	-0.0252785	0.000505537	0.000704693	0	0	0	
0.173833	-0.00194194	0.0122852	0.000476913	0.000657863	0	0	0	
0.174	-0.00965734	-0.0123058	0.000344507	0.000665109	0	0	0	
0.174167	0.0128021	0.0162413	0.000120423	0.000316715	0	0	0	
0.174333	-0.00681512	-0.016118	0.000171572	0.000304741	0	0	0	
0.1745	-0.00886892	0.0260868	0.0002377	0.000327701	0	0	0	
0.174667	-0.00586877	0.0147449	0.000478571	0.00058944	0	0	0	
0.174833	-0.007809	-0.00479515	0.000566563	0.000627366	0	0	0	
0.175	-0.00114369	0.0044244	0.000486436	0.000548692	0	0	0	
0.175167	-0.000308584	0.000111614	0.000237315	0.000213218	0	0	0	
0.175333	0.00241312	0.000369667	0.000123548	0.000130975	0	0	0	
0.1755	0.00375912	0.0047013	0.000153636	0.000170576	0	0	0	
0.175667	-0.00376109	-0.0104766	0.000172104	0.000252497	0	0	0	
0.175833	0.00483039	0.0150143	0.000168191	0.000317462	0	0	0	
0.176	-0.00616299	-0.0159317	0.000144196	0.00032829	0	0	0	
0.176167	0.00439925	0.0105899	0.000103577	0.000293813	0	0	0	
0.176333	6.59663E-05	-0.00582602	8.27618E-05	0.000231792	0	0	0	
0.1765	-0.000965144	-0.00132279	5.66753E-05	0.000180755	0	0	0	
0.176667	0.00283724	0.00357356	5.06019E-05	0.000135252	0	0	0	
0.176833	-0.00422986	-0.00588988	4.47894E-05	0.000102545	0	0	0	
0.177	0.0044875	0.00255365	5.85894E-05	9.22272E-05	0	0	0	
0.177167	-0.00222862	-0.0050426	8.27876E-05	7.51998E-05	0	0	0	
0.177333	0.00337414	0.00608539	0.00010883	8.25375E-05	0	0	0	
0.1775	-0.00077235	-0.00758998	0.000114032	0.000116035	0	0	0	
0.177667	0.00164809	0.000116696	0.000110584	0.000164697	0	0	0	
0.177833	0.00181104	0.00085659	0.000101647	0.000192499	0	0	0	
0.178	-0.00290452	-0.0040131	9.14253E-05	0.00015884	0	0	0	
0.178167	-0.00331034	0.00252356	7.49561E-05	0.000102389	0	0	0	
0.178333	0.00385047	0.00450128	6.73533E-05	7.18254E-05	0	0	0	
0.1785	-0.00363657	-0.0101898	7.82309E-05	8.9828E-05	0	0	0	
0.178667	0.00367057	0.00896529	8.88222E-05	0.000135608	0	0	0	
0.178833	0.0010905	-0.00364001	0.000111978	0.000187709	0	0	0	
0.179	-0.00791768	-0.0108874	0.000142097	0.000239625	0	0	0	
0.179167	0.00566336	0.0189556	0.000157171	0.000284245	0	0	0	
0.179333	0.00843643	-0.0191561	0.000248448	0.00033295	0	0	0	
0.1795	-0.0166625	-0.00415056	0.000271715	0.000484832	0	0	0	
0.179667	0.00553755	0.0335365	0.00033442	0.000641465	0	0	0	
0.179833	0.00301502	-0.0404746	0.000295267	0.000721257	0	0	0	
0.18	0.00295607	0.00605716	0.000234513	0.000761319	0	0	0	
0.180167	0.000963579	0.0238758	0.000168493	0.000808664	0	0	0	
0.180333	-0.0118999	-0.026526	0.000119815	0.000744579	0	0	0	
0.1805	0.00161042	0.00333195	0.000152172	0.000600337	0	0	0	
0.180667	0.0133101	0.0120259	0.000198651	0.000421281	0	0	0	
0.180833	-0.0100053	-0.0126929	0.00022082	0.000354679	0	0	0	
0.181	-0.00090231	0.00693776	0.000241134	0.000256741	0	0	0	
0.181167	0.00497849	-0.00155097	0.00017998	0.000187744	0	0	0	
0.181333	-0.00295202	-0.00951721	0.000139931	0.000184876	0	0	0	
0.1815	-0.00519146	0.0118158	0.000104984	0.000192592	0	0	0	
0.181667	0.00714822	0.00787162	0.000117884	0.000303014	0	0	0	
0.181833	-0.00463684	-0.0253567	0.000130441	0.000393712	0	0	0	
0.182	-0.00199382	0.0266783	0.000135475	0.000475488	0	0	0	
0.182167	0.00164033	-0.000246865	0.000118999	0.000571246	0	0	0	
0.182333	0.000751016	-0.0307791	8.09376E-05	0.000757309	0	0	0	
0.1825	-0.000108454	0.0439341	4.9475E-05	0.000824452	0	0	0	
0.182667	-0.000743309	0.00088408	3.42706E-05	0.000838307	0	0	0	
0.182833	-0.00180542	-0.0336125	3.37352E-05	0.000751936	0	0	0	
0.183	0.000223949	0.0198602	2.64344E-05	0.000692395	0	0	0	
0.183167	0.00139982	0.0051676	4.37393E-05	0.000627066	0	0	0	
0.183333	-0.000922685	0.00175225	5.58459E-05	0.000430075	0	0	0	
0.1835	-0.000237155	-0.00345063	5.5009E-05	0.000307132	0	0	0	
0.183667	0.00210906	-0.00296866	4.32785E-05	0.000200936	0	0	0	
0.183833	-0.00201081	0.0114559	4.51512E-05	0.000196563	0	0	0	
0.184	0.00290938	0.00222424	6.42852E-05	0.000253144	0	0	0	
0.184167	-0.00178309	-0.0148107	7.56636E-05	0.000230712	0	0	0	
0.184333	0.00158141	0.00953093	8.08981E-05	0.000259367	0	0	0	
0.1845	0.000671179	0.00941374	8.93985E-05	0.000339869	0	0	0	
0.184667	-0.00337454	-0.0170527	0.000100221	0.000366249	0	0	0	
0.184833	0.00218065	0.0066382	9.32253E-05	0.000361171	0	0	0	
0.185	0.010525	0.0227387	0.000151403	0.000425627	0	0	0	
0.185167	-0.0202557	-0.0422401	0.000214366	0.000580311	0	0	0	
0.185333	0.0144133	0.0396717	0.000307141	0.000736062	0	0	0	
0.1855	-0.00690614	-0.005705	0.000312242	0.000782286	0	0	0	
0.185667	0.0091905	-0.00343257	0.000283778	0.000685168	0	0	0	
0.185833	-0.000899857	-0.0100731	0.000255544	0.000486488	0	0	0	
0.186	-0.0119243	-0.00333121	0.000267798	0.000311891	0	0	0	
0.186167	0.00898829	0.0306968	0.000262949	0.000271726	0	0	0	
0.186333	0.00445519	-0.0186031	0.000297898	0.000426869	0	0	0	
0.1865	-0.00894598	-0.0224088	0.000263352	0.000703056	0	0	0	
0.186667	0.00351401	0.0390886	0.000234623	0.000802642	0	0	0	
0.186833	-0.00526638	-0.0101802	0.000147202	0.000771886	0	0	0	
0.187	0.00888257	-0.0126698	0.000111351	0.000498427	0	0	0	
0.187167	-0.0038672	-0.00601749	0.000117048	0.000400395	0	0	0	
0.187333	0.00149896	0.0234032	0.0001233	0.000351812	0	0	0	
0.1875	-0.00256013	-0.00765105	0.000107936	0.00037991	0	0	0	
0.187667	0.00292849	-0.012561	9.31168E-05	0.000390135	0	0	0	
0.187833	-0.00368752	0.00801037	8.08419E-05	0.000337431	0	0	0	
0.188	0.00233159	0.0116164	8.17697E-05	0.000284277	0	0	0	
0.188167	-0.000789427	-0.00204883	7.79996E-05	0.000205089	0	0	0	
0.188333	0.00284371	-0.00634901	7.40444E-05	0.000222173	0	0	0	
0.1885	0.000674526	0.00443317	6.16697E-05	0.00018159	0	0	0	
0.188667	-0.00190737	0.00436559	5.43082E-05	0.000171703	0	0	0	
0.188833	0.00161752	0.000316284	5.08378E-05	0.000109803	0	0	0	
0.189	0.000314247	-0.00040046	5.07312E-05	0.000162463	0	0	0	
0.189167	0.000787268	0.00884542	5.12524E-05	0.000163337	0	0	0	
0.189333	-0.00154996	-0.00383247	4.17202E-05	0.000181061	0	0	0	
0.1895	0.00105785	-0.00238615	4.20716E-05	0.000136848	0	0	0	
0.189667	0.00314752	0.00813467	3.5651E-05	0.000124676	0	0	0	
0.189833	-0.00277646	-0.00302504	5.70346E-05	0.000116061	0	0	0	
0.19	0.00076886	0.00393208	7.91321E-05	0.000112109	0	0	0	
0.190167	0.000579179	7.45654E-05	7.71417E-05	8.95803E-05	0	0	0	
0.190333	0.00131129	0.00685032	5.40094E-05	8.22018E-05	0	0	0	
0.1905	-0.00256609	-0.00510769	4.29534E-05	9.12342E-05	0	0	0	
0.190667	0.00087905	0.000980006	0.000107481	0.000159057	0	0	0	
0.190833	0.00336648	0.00763294	0.000184193	0.000238682	0	0	0	
0.191	-0.00496997	-0.00648031	0.000212189	0.000263185	0	0	0	
0.191167	0.00581337	0.00988481	0.000171125	0.000246359	0	0	0	
0.191333	-0.00204921	0.00175588	0.000121348	0.000173219	0	0	0	
0.1915	-0.00343858	-0.00385732	0.000117436	0.000155376	0	0	0	
0.191667	0.0112188	0.011823	0.000137069	0.000155181	0	0	0	
0.191833	-0.0105595	-0.0132133	0.000162495	0.000186808	0	0	0	
0.192	0.0040418	0.00881013	0.000185823	0.000237905	0	0	0	
0.192167	0.00393644	0.00596635	0.000198282	0.000263988	0	0	0	
0.192333	-0.00561121	-0.00498346	0.000178427	0.000265651	0	0	0	
0.1925	0.00474779	0.00670236	0.000137936	0.000197421	0	0	0	
0.192667	-0.000731118	-0.000952405	9.35149E-05	0.000121279	0	0	0	
0.192833	-0.00162262	-0.00296267	6.14346E-05	6.65782E-05	0	0	0	
0.193	0.0035719	0.00431318	5.29956E-05	5.51254E-05	0	0	0	
0.193167	-0.000994339	-0.00425191	7.03073E-05	7.73881E-05	0	0	0	
0.193333	-0.00307195	0.000221181	9.95167E-05	0.000114687	0	0	0	
0.1935	0.00218697	0.00761061	9.38121E-05	0.00014578	0	0	0	
0.193667	0.00134769	-0.00627696	6.59984E-05	0.000154365	0	0	0	
0.193833	-0.0024459	0.00158637	4.76892E-05	0.000151739	0	0	0	
0.194	0.00608363	0.00933242	5.2224E-05	0.000164701	0	0	0	
0.194167	-0.0105017	-0.0159701	9.33175E-05	0.000190976	0	0	0	
0.194333	0.0020825	0.0120508	0.000169112	0.000243095	0	0	0	
0.1945	0.0157277	0.000812014	0.000295359	0.00041039	0	0	0	
0.194667	-0.0123517	-0.0290969	0.00032489	0.000639972	0	0	0	
0.194833	-0.00561892	0.0418732	0.000320295	0.000769083	0	0	0	
0.195	0.00477917	-0.0112373	0.000196756	0.000725488	0	0	0	
0.195167	0.00537558	-0.0236198	0.000199513	0.000655081	0	0	0	
0.195333	0.00280621	0.0276693	0.000144891	0.00058623	0	0	0	
0.1955	-0.0149342	-0.0117166	0.000176032	0.000576143	0	0	0	
0.195667	0.00239681	0.00116749	0.000213293	0.000477552	0	0	0	
0.195833	0.0122014	-0.000712028	0.000301377	0.00036217	0	0	0	
0.196	0.000350034	-0.00225347	0.000291729	0.000225948	0	0	0	
0.196167	-0.0148737	0.00182075	0.000240055	0.00010576	0	0	0	
0.196333	0.00752042	0.0146981	0.000199816	0.000163819	0	0	0	
0.1965	0.00231919	-0.0206632	0.000246888	0.000216284	0	0	0	
0.196667	-0.00298442	0.00478467	0.000211691	0.000365906	0	0	0	
0.196833	-0.00225221	0.0247432	0.000137244	0.000462177	0	0	0	
0.197	0.00414934	-0.0186983	6.21138E-05	0.000476385	0	0	0	
0.197167	-0.000546594	-0.00172415	5.92842E-05	0.000468601	0	0	0	
0.197333	-0.00252022	0.0201639	8.21095E-05	0.00037767	0	0	0	
0.1975	0.00092089	-0.00690404	7.67611E-05	0.000382598	0	0	0	
0.197667	0.00475967	-0.025247	6.47568E-05	0.00052333	0	0	0	
0.197833	-0.00291748	0.0407628	7.3246E-05	0.000632595	0	0	0	
0.198	-0.00160131	-0.00196648	0.000101885	0.000748228	0	0	0	
0.198167	-0.0021473	-0.0340881	9.26461E-05	0.000746129	0	0	0	
0.198333	0.00508708	0.0282624	6.89131E-05	0.000704852	0	0	0	
0.1985	-0.000316489	0.00267317	7.17176E-05	0.000708088	0	0	0	
0.198667	-3.9645E-05	-0.00472453	9.66505E-05	0.000542545	0	0	0	
0.198833	-0.00453444	-0.00286749	9.64023E-05	0.000415507	0	0	0	
0.199	0.00644877	-0.00593567	8.90188E-05	0.000249252	0	0	0	
0.199167	-0.00216674	0.0107783	9.43885E-05	0.000174944	0	0	0	
0.199333	-0.00173503	0.00472491	0.000125038	0.000207742	0	0	0	
0.1995	0.0018822	-0.0115103	0.000112588	0.000198855	0	0	0	
0.199667	0.00150024	0.00573839	8.51261E-05	0.000256249	0	0	0	
0.199833	-0.00096346	0.0115056	5.61194E-05	0.000338374	0	0	0	
0.2	-0.00488878	-0.0169079	7.6756E-05	0.000371614	0	0	0	
0.200167	0.0125009	0.0222088	0.000120129	0.000382519	0	0	0	
0.200333	-0.0075044	-0.0201871	0.000168765	0.00035507	0	0	0	
0.2005	-0.00316777	0.00652302	0.000202592	0.000431268	0	0	0	
0.200667	0.00612836	0.0188255	0.000188304	0.000493854	0	0	0	
0.200833	-0.00318643	-0.0152711	0.000148001	0.00045711	0	0	0	
0.201	0.00892194	0.00209257	0.00010935	0.000370046	0	0	0	
0.201167	-0.00575295	-0.00231707	0.00012604	0.000208018	0	0	0	
0.201333	-0.00805055	0.00570894	0.000244232	0.000221442	0	0	0	
0.2015	0.0163122	0.0249678	0.000321866	0.000449253	0	0	0	
0.201667	-0.0082165	-0.0480387	0.000328961	0.000702285	0	0	0	
0.201833	0.000704679	0.020167	0.000232979	0.000827702	0	0	0	
0.202	-5.16208E-05	0.0256556	0.000122216	0.000826239	0	0	0	
0.202167	-0.00149493	-0.0197586	7.82479E-05	0.00067136	0	0	0	
0.202333	0.00628962	-0.0135747	5.79298E-05	0.000660308	0	0	0	
0.2025	-0.00256206	0.0229806	9.03152E-05	0.000474738	0	0	0	
0.202667	-0.010147	-0.00499291	0.000179107	0.000488165	0	0	0	
0.202833	0.0201602	-0.0188442	0.000229013	0.000446446	0	0	0	
0.203	-0.0594061	0.0371054	0.000619072	0.000479881	0	0	0	
0.203167	0.0947182	-0.0619532	0.00156563	0.00126919	0	0	0	
0.203333	-0.00452786	0.0532672	0.00172971	0.00149311	0	0	0	
0.2035	-0.0153573	-0.0163434	0.00143519	0.00155333	0	0	0	
0.203667	0.0124492	0.00346619	0.000435858	0.00067474	0	0	0	
0.203833	0.0011326	-0.00450338	0.000324018	0.000291786	0	0	0	
0.204	0.0243921	0.0163365	0.000442019	0.000172648	0	0	0	
0.204167	-0.00251609	-0.0295154	0.000476529	0.000314572	0	0	0	
0.204333	-0.00353248	0.0076089	0.000411775	0.000533086	0	0	0	
0.2045	0.00885756	0.0151604	0.000235444	0.000712994	0	0	0	
0.204667	-0.00773511	-0.0152378	0.000207011	0.000667085	0	0	0	
0.204833	0.00701679	0.00290663	0.00018723	0.000475416	0	0	0	
0.205	-0.00226984	-0.00388516	0.000141683	0.000282685	0	0	0	
0.205167	0.000697234	0.017272	8.87445E-05	0.00037999	0	0	0	
0.205333	0.00161845	-0.0390552	5.24846E-05	0.000543929	0	0	0	
0.2055	-0.00313913	0.0251687	3.85565E-05	0.000644332	0	0	0	
0.205667	0.00464074	-0.00322604	6.22258E-05	0.00059712	0	0	0	
0.205833	-0.00452477	-0.013988	7.30048E-05	0.000510957	0	0	0	
0.206	0.00528081	0.0101967	9.59804E-05	0.000389724	0	0	0	
0.206167	-0.00412969	-0.00578059	0.000117313	0.000334575	0	0	0	
0.206333	-0.00120164	0.00704915	0.00015932	0.000293801	0	0	0	
0.2065	0.00276087	-0.000703574	0.000161874	0.000257329	0	0	0	
0.206667	-0.00280736	0.00199622	0.00012738	0.000138373	0	0	0	
0.206833	0.00233138	0.00304264	8.06753E-05	0.000101403	0	0	0	
0.207	0.000327345	-0.00480758	4.49763E-05	0.000101654	0	0	0	
0.207167	-0.0014763	0.000596171	2.94783E-05	0.000111995	0	0	0	
0.207333	0.00353238	0.00585409	3.65427E-05	0.00011588	0	0	0	
0.2075	-0.00479218	-0.00686167	4.99529E-05	0.000138085	0	0	0	
0.207667	0.00295466	0.00746001	7.41529E-05	0.000154982	0	0	0	
0.207833	-0.00053251	-0.00134443	8.34212E-05	0.0001547	0	0	0	
0.208	0.00157417	-0.0010276	8.3795E-05	0.000129891	0	0	0	
0.208167	-0.00171043	-0.00118332	6.91564E-05	8.9861E-05	0	0	0	
0.208333	0.000747396	0.00590448	4.82957E-05	5.15903E-05	0	0	0	
0.2085	0.000985315	-0.00322963	3.71099E-05	7.31467E-05	0	0	0	
0.208667	0.000836451	-0.00485559	2.92371E-05	0.000134979	0	0	0	
0.208833	-0.00153562	0.00966125	2.7475E-05	0.000176274	0	0	0	
0.209	0.000645017	-0.00418941	3.79597E-05	0.000165855	0	0	0	
0.209167	0.000631692	-0.00033232	5.11288E-05	0.000122461	0	0	0	
0.209333	0.000504121	-0.00119835	4.8655E-05	7.02447E-05	0	0	0	
0.2095	0.00309848	0.00348525	4.96186E-05	6.0237E-05	0	0	0	
0.209667	-0.00629988	-0.00476168	6.39364E-05	7.03854E-05	0	0	0	
0.209833	0.00109168	0.00250914	0.000104068	8.0144E-05	0	0	0	
0.21	0.00917336	-0.000227784	0.000162623	0.000102564	0	0	0	
0.210167	-0.00805376	-0.0063862	0.000179745	0.000134446	0	0	0	
0.210333	0.000748061	0.011694	0.000176393	0.000178514	0	0	0	
0.2105	-0.0056941	-0.00912453	0.000121049	0.000185778	0	0	0	
0.210667	0.0121347	-0.00095413	0.000123266	0.000296463	0	0	0	
0.210833	0.00495918	0.0282571	0.000213953	0.000486096	0	0	0	
0.211	-0.0175676	-0.0433114	0.000311961	0.000675775	0	0	0	
0.211167	0.00628892	0.0166789	0.000328774	0.000669994	0	0	0	
0.211333	0.00481877	-0.00338218	0.000254411	0.000496295	0	0	0	
0.2115	-0.00109492	0.030215	0.000154521	0.000369361	0	0	0	
0.211667	0.00104226	-0.0180731	9.84975E-05	0.000412057	0	0	0	
0.211833	-0.00320007	-0.00647464	8.01726E-05	0.000415347	0	0	0	
0.212	0.0101716	0.00912962	0.000107642	0.000406347	0	0	0	
0.212167	-0.00873064	-0.00919702	0.000171749	0.000424266	0	0	0	
0.212333	0.00446096	0.00781413	0.000203573	0.000455304	0	0	0	
0.2125	-0.000239274	-0.0171658	0.000191221	0.000428837	0	0	0	
0.212667	0.00334689	0.0327757	0.000133454	0.000554246	0	0	0	
0.212833	-0.00762208	-0.00804758	0.000101054	0.000826182	0	0	0	
0.213	0.00794844	0.0022548	0.000124103	0.000836415	0	0	0	
0.213167	-0.000390261	-0.0274552	0.000150765	0.00061591	0	0	0	
0.213333	0.000290764	0.0177978	0.000144107	0.000388198	0	0	0	
0.2135	-0.00605504	-0.00793177	0.000143765	0.000367653	0	0	0	
0.213667	0.00913462	0.0319967	0.000143874	0.000355888	0	0	0	
0.213833	-0.0105224	-0.0367582	0.000191691	0.000514528	0	0	0	
0.214	0.0117457	0.0372956	0.000204385	0.000729939	0	0	0	
0.214167	-0.010075	-0.0272468	0.000257563	0.000785156	0	0	0	
0.214333	0.00809376	0.00796516	0.000241601	0.000609475	0	0	0	
0.2145	-0.000837235	0.00129561	0.000199854	0.000386153	0	0	0	
0.214667	0.000137606	0.0029626	0.000122206	0.000219423	0	0	0	
0.214833	-0.0024596	0.00642219	7.62606E-05	0.000110929	0	0	0	
0.215	0.000234646	-0.0177499	6.43442E-05	0.000105909	0	0	0	
0.215167	0.00147107	-0.000878989	9.56078E-05	0.000279253	0	0	0	
0.215333	0.00508049	0.0319626	0.000142983	0.000457192	0	0	0	
0.2155	-0.00492536	-0.012109	0.000175317	0.000547636	0	0	0	
0.215667	0.00835458	0.00817581	0.00016788	0.000460653	0	0	0	
0.215833	-0.0125191	-0.0606344	0.00017564	0.000530703	0	0	0	
0.216	0.0136098	0.0667949	0.000208675	0.000827768	0	0	0	
0.216167	-0.011766	-0.0305395	0.000245182	0.00102463	0	0	0	
0.216333	0.0067311	-0.00945447	0.000228494	0.00101291	0	0	0	
0.2165	-0.00253183	0.0170191	0.000186152	0.000641941	0	0	0	
0.216667	-0.00342717	-0.00489289	0.00014942	0.000432412	0	0	0	
0.216833	0.00233515	0.00781198	0.000100896	0.000204667	0	0	0	
0.217	-0.00209601	-0.0234953	8.13865E-05	0.000271401	0	0	0	
0.217167	0.00434687	-0.003979	6.68119E-05	0.000447852	0	0	0	
0.217333	0.000543091	0.0302733	0.000114447	0.00063817	0	0	0	
0.2175	-0.0103925	-0.0243961	0.000136952	0.000644166	0	0	0	
0.217667	0.0046372	-0.000473612	0.000154858	0.00052623	0	0	0	
0.217833	0.00115655	0.00140447	0.000134703	0.000327046	0	0	0	
0.218	-0.00413886	0.0209575	0.000110482	0.000237593	0	0	0	
0.218167	-0.000298355	-0.0208034	7.05909E-05	0.000232098	0	0	0	
0.218333	0.00174502	0.00382882	4.42431E-05	0.000363182	0	0	0	
0.2185	0.00107219	0.00916085	3.25384E-05	0.000350085	0	0	0	
0.218667	0.000134936	-0.00358917	3.96856E-05	0.000249567	0	0	0	
0.218833	-0.0016285	-0.00128309	3.84311E-05	0.000109551	0	0	0	
0.219	-0.000274648	0.00255382	5.10872E-05	7.19244E-05	0	0	0	
0.219167	-0.000660511	0.00391177	7.60708E-05	6.23912E-05	0	0	0	
0.219333	-0.000629531	-0.004965	9.11695E-05	0.000123482	0	0	0	
0.2195	-0.00123528	-0.00612646	8.12131E-05	0.000261901	0	0	0	
0.219667	0.00127408	0.0335474	5.33381E-05	0.000350186	0	0	0	
0.219833	0.00179144	-0.0184798	4.80812E-05	0.000434853	0	0	0	
0.22	0.000941695	0.00325569	4.63181E-05	0.000368662	0	0	0	
0.220167	-0.000494456	-0.0209348	3.69998E-05	0.000317008	0	0	0	
0.220333	0.000421402	0.0335181	3.17485E-05	0.000334807	0	0	0	
0.2205	0.000655065	-0.0216758	4.67094E-05	0.000443303	0	0	0	
0.220667	-0.00402499	-0.00134219	7.14981E-05	0.000594608	0	0	0	
0.220833	0.00117335	0.0152879	8.23606E-05	0.000617033	0	0	0	
0.221	-0.000719654	-0.0140757	7.5045E-05	0.000520983	0	0	0	
0.221167	0.00170492	0.00105615	5.89889E-05	0.000381203	0	0	0	
0.221333	0.000323499	0.00594442	4.15132E-05	0.000278723	0	0	0	
0.2215	-0.00603222	-0.00456131	3.98437E-05	0.000277256	0	0	0	
0.221667	0.00555063	0.00486121	6.49984E-05	0.000264459	0	0	0	
0.221833	-0.00419459	-0.0160517	0.000110121	0.000216884	0	0	0	
0.222	0.00311117	0.00971359	0.000133316	0.000210011	0	0	0	
0.222167	-0.0037408	-0.00155161	0.000110483	0.000190273	0	0	0	
0.222333	0.00166533	0.00731751	8.18071E-05	0.000156268	0	0	0	
0.2225	-2.57591E-05	-0.00971438	5.30881E-05	0.000155762	0	0	0	
0.222667	-0.000426839	0.00704004	6.51379E-05	0.000165784	0	0	0	
0.222833	-0.00821152	-0.00453977	0.000105681	0.000181704	0	0	0	
0.223	0.0107794	0.000769345	0.000154787	0.000112563	0	0	0	
0.223167	-0.00539815	-0.00170902	0.000173637	7.48776E-05	0	0	0	
0.223333	3.31817E-06	0.00163663	0.000139515	4.43981E-05	0	0	0	
0.2235	0.000303482	0.00818019	8.45615E-05	5.23473E-05	0	0	0	
0.223667	-0.00254369	-0.0127292	4.64E-05	0.000108977	0	0	0	
0.223833	0.00278744	0.010006	4.25078E-05	0.000174432	0	0	0	
0.224	-0.00261256	-0.00416744	5.57453E-05	0.000195806	0	0	0	
0.224167	-0.00429665	-0.00193107	6.396E-05	0.000145586	0	0	0	
0.224333	-0.000725435	0.00831812	8.66491E-05	0.000101116	0	0	0	
0.2245	0.0123266	-0.000225714	0.000144474	0.000166929	0	0	0	
0.224667	-0.00452577	-0.0179345	0.000178878	0.000355376	0	0	0	
0.224833	-0.0111498	0.0053627	0.000204952	0.000399354	0	0	0	
0.225	0.0059709	0.0152644	0.000189818	0.000524798	0	0	0	
0.225167	0.00535629	-0.0219054	0.000233451	0.000499771	0	0	0	
0.225333	0.000924127	0.00352404	0.000177554	0.000500156	0	0	0	
0.2255	-0.00848224	-0.00898281	0.000151214	0.000322198	0	0	0	
0.225667	-0.000969103	0.0373455	0.000131795	0.000376412	0	0	0	
0.225833	0.00358442	-0.0425712	0.000143603	0.000572621	0	0	0	
0.226	0.0101898	-0.00700889	0.000201268	0.000663911	0	0	0	
0.226167	-0.0180139	-0.0055287	0.000203626	0.000563246	0	0	0	
0.226333	0.00338545	0.0197232	0.000282661	0.000406827	0	0	0	
0.2265	0.00462873	0.00319649	0.000292295	0.00038853	0	0	0	
0.226667	-0.00107042	-0.0394279	0.000236329	0.000394756	0	0	0	
0.226833	-0.00281095	0.0551389	0.000146384	0.000650656	0	0	0	
0.227	0.00278528	-0.0414871	7.36324E-05	0.000971551	0	0	0	
0.227167	0.00112774	0.00293683	8.37428E-05	0.00103109	0	0	0	
0.227333	-0.00299178	0.00443214	7.09653E-05	0.000800195	0	0	0	
0.2275	-0.00481326	-0.0166334	7.44436E-05	0.000446811	0	0	0	
0.227667	0.00486969	0.00819792	6.07721E-05	0.000327471	0	0	0	
0.227833	-0.000385051	0.0239899	0.000101659	0.000546632	0	0	0	
0.228	5.71299E-05	-0.0461626	0.000110158	0.000923842	0	0	0	
0.228167	0.0014659	0.025874	0.000120856	0.00115512	0	0	0	
0.228333	-0.00297099	-0.0161437	9.64241E-05	0.000905331	0	0	0	
0.2285	0.00201973	0.00290183	7.98581E-05	0.000563803	0	0	0	
0.228667	0.0042542	0.00596876	9.87393E-05	0.000341782	0	0	0	
0.228833	-0.00952127	-0.0148358	0.000129694	0.000288826	0	0	0	
0.229	0.00837005	0.022686	0.000150375	0.000291391	0	0	0	
0.229167	-0.00194129	-0.014914	0.000164146	0.000370055	0	0	0	
0.229333	-0.0063349	-0.018014	0.000194059	0.000461367	0	0	0	
0.2295	0.013843	0.0253694	0.000215276	0.000494206	0	0	0	
0.229667	-0.0109757	-0.00947932	0.0002284	0.00041514	0	0	0	
0.229833	0.0110536	-0.00201396	0.000221856	0.000306065	0	0	0	
0.23	-0.0045221	-0.000804536	0.00022365	0.000229926	0	0	0	
0.230167	0.000453531	0.00781446	0.000217354	0.000410565	0	0	0	
0.230333	-0.00244188	-0.0312936	0.000213528	0.000723868	0	0	0	
0.2305	0.00258313	0.0405138	0.000206138	0.000902923	0	0	0	
0.230667	-0.00430444	-0.0197296	0.000190987	0.000803811	0	0	0	
0.230833	0.00465984	-0.00495573	0.000141426	0.000588494	0	0	0	
0.231	0.0111228	0.00942439	0.000112437	0.000351348	0	0	0	
0.231167	-0.0130767	-0.0267289	0.000138988	0.000317385	0	0	0	
0.231333	0.0055348	0.0424068	0.000212009	0.000404462	0	0	0	
0.2315	0.000961067	-0.0397776	0.000199794	0.00060821	0	0	0	
0.231667	0.0050392	0.011523	0.000184289	0.000694792	0	0	0	
0.231833	-0.00407595	0.0078578	0.00011671	0.000645015	0	0	0	
0.232	-0.00310468	-0.00340382	0.000136103	0.000428206	0	0	0	
0.232167	0.00261441	-0.00414047	8.70956E-05	0.000216631	0	0	0	
0.232333	0.00576723	-0.0133359	8.39656E-05	0.000190308	0	0	0	
0.2325	0.00282377	0.0316234	7.4718E-05	0.00031873	0	0	0	
0.232667	-0.0075672	-0.0268667	0.000120174	0.000512257	0	0	0	
0.232833	0.00631974	0.00848684	0.000143521	0.000659279	0	0	0	
0.233	-0.00249972	0.00487156	0.000139237	0.000651293	0	0	0	
0.233167	-0.00415419	-0.0019166	9.33859E-05	0.000464161	0	0	0	
0.233333	0.00383288	0.00674134	6.98723E-05	0.000224322	0	0	0	
0.2335	0.00164249	-0.0137359	6.76926E-05	0.000151518	0	0	0	
0.233667	0.00270882	0.00173315	6.69801E-05	0.000199806	0	0	0	
0.233833	-0.00492197	0.00942045	6.14795E-05	0.000277045	0	0	0	
0.234	0.00405503	-0.00526397	7.86256E-05	0.000277161	0	0	0	
0.234167	-0.000741789	0.00250818	0.000111072	0.000244172	0	0	0	
0.234333	0.000263165	-0.0189125	9.76451E-05	0.000216871	0	0	0	
0.2345	-0.00260849	0.0226277	6.30869E-05	0.00031389	0	0	0	
0.234667	0.00196505	-0.0164488	6.24744E-05	0.000416419	0	0	0	
0.234833	0.0017456	0.00558146	9.99368E-05	0.000380834	0	0	0	
0.235	-0.000150416	0.000153932	9.92931E-05	0.000309274	0	0	0	
0.235167	-0.00166577	-0.00639709	5.82522E-05	0.000228396	0	0	0	
0.235333	-0.0011218	0.00336354	2.9055E-05	0.000194485	0	0	0	
0.2355	-0.000321299	-0.00243613	4.26157E-05	0.000180205	0	0	0	
0.235667	0.00641854	0.0117432	6.80132E-05	0.000220381	0	0	0	
0.235833	-0.00662685	-0.00268501	0.000111143	0.000252228	0	0	0	
0.236	0.000602079	-0.00269236	0.000146641	0.000239071	0	0	0	
0.236167	0.00277067	0.00445963	0.000146606	0.00019221	0	0	0	
0.236333	0.00168512	-0.00262189	0.000100514	0.000151286	0	0	0	
0.2365	-0.00375347	0.00284063	6.67939E-05	9.88548E-05	0	0	0	
0.236667	0.00176648	0.000635894	6.30216E-05	7.83337E-05	0	0	0	
0.236833	-0.00333175	0.00655918	6.98223E-05	7.25136E-05	0	0	0	
0.237	0.00397287	0.000774632	6.80894E-05	7.5097E-05	0	0	0	
0.237167	-0.00466677	-0.00225852	7.42338E-05	8.43659E-05	0	0	0	
0.237333	0.00457424	0.00287361	8.5866E-05	9.03127E-05	0	0	0	
0.2375	-0.000328823	-0.000649217	8.69754E-05	8.31683E-05	0	0	0	
0.237667	0.00349474	0.000108705	6.97807E-05	5.47091E-05	0	0	0	
0.237833	-0.00510007	-0.00874659	5.95436E-05	6.3654E-05	0	0	0	
0.238	0.00568637	0.00915218	7.23066E-05	9.67137E-05	0	0	0	
0.238167	-0.00668131	-0.00916531	0.000100355	0.000155309	0	0	0	
0.238333	0.00477159	0.00210796	0.000122025	0.000174079	0	0	0	
0.2385	-0.00649972	-0.00259308	0.000134701	0.000153522	0	0	0	
0.238667	0.00436035	0.00273803	0.00015502	0.00011412	0	0	0	
0.238833	0.00222461	-0.00248407	0.000165521	0.000139876	0	0	0	
0.239	0.00254431	-0.00692205	0.000162594	0.000192245	0	0	0	
0.239167	0.00173334	0.00981409	0.000138272	0.000197683	0	0	0	
0.239333	-0.00707794	-0.00581781	0.000122372	0.000176801	0	0	0	
0.2395	-0.00295075	0.00307729	0.000146897	0.000143238	0	0	0	
0.239667	0.0189623	0.00669581	0.00020497	0.000207996	0	0	0	
0.239833	-0.0117221	-0.0307697	0.000267351	0.000327691	0	0	0	
0.24	-0.00753462	0.018733	0.000353734	0.000464519	0	0	0	
0.240167	0.00705421	0.000176299	0.000294555	0.000530695	0	0	0	
0.240333	0.0051905	-0.0167949	0.000275674	0.00054359	0	0	0	
0.2405	-0.000554882	0.0117591	0.000140143	0.00044073	0	0	0	
0.240667	-0.00641928	-0.00968556	0.000122771	0.000336786	0	0	0	
0.240833	-0.0076541	0.0367138	0.00013118	0.000272647	0	0	0	
0.241	0.0180266	-0.0433678	0.000190734	0.000465669	0	0	0	
0.241167	-0.00212224	0.0200032	0.000302045	0.00066995	0	0	0	
0.241333	-0.0140801	-0.00988664	0.000348925	0.000624173	0	0	0	
0.2415	0.0114422	0.00740599	0.000346439	0.00045113	0	0	0	
0.241667	-0.000305995	0.00600716	0.000279061	0.000289549	0	0	0	
0.241833	-0.00269073	-0.00788668	0.000178046	0.000248052	0	0	0	
0.242	0.0059539	0.0171946	0.000129496	0.000396101	0	0	0	
0.242167	-0.00633871	-0.0199441	0.000111779	0.000627984	0	0	0	
0.242333	0.00301945	0.00790348	0.000111325	0.000837265	0	0	0	
0.2425	0.00238426	0.0167025	0.000113043	0.000746797	0	0	0	
0.242667	0.00199211	-0.0164716	8.11035E-05	0.000527352	0	0	0	
0.242833	-0.00119216	0.000298658	5.77515E-05	0.000350009	0	0	0	
0.243	0.00650748	0.0153586	5.0614E-05	0.000237204	0	0	0	
0.243167	-0.00426269	-0.00904509	7.81687E-05	0.000262076	0	0	0	
0.243333	0.0032738	-0.0105968	9.88584E-05	0.000310567	0	0	0	
0.2435	0.0010306	0.0155982	0.000102437	0.000393183	0	0	0	
0.243667	-0.00305868	0.00508247	0.000107896	0.000408618	0	0	0	
0.243833	0.00475015	-0.00971021	9.73095E-05	0.000347252	0	0	0	
0.244	0.00876847	0.00586712	0.000136322	0.000280645	0	0	0	
0.244167	-0.0158512	-0.0132185	0.000166701	0.000208462	0	0	0	
0.244333	0.0085557	0.0131434	0.000241882	0.000278644	0	0	0	
0.2445	0.00579315	-0.00281806	0.00031101	0.000373841	0	0	0	
0.244667	-0.00703503	-0.00362595	0.00034317	0.000486805	0	0	0	
0.244833	0.0076388	0.0116067	0.000307378	0.000489163	0	0	0	
0.245	-0.00438191	-0.0068031	0.000213618	0.000381387	0	0	0	
0.245167	-0.00711393	-0.017297	0.000159892	0.000301897	0	0	0	
0.245333	0.0170496	0.0365344	0.000178378	0.000361126	0	0	0	
0.2455	-0.0141445	-0.0396222	0.000248295	0.000537416	0	0	0	
0.245667	0.00170949	0.0121879	0.000310119	0.00075375	0	0	0	
0.245833	0.00512792	0.012307	0.000319214	0.000911539	0	0	0	
0.246	-0.00439124	-0.0204208	0.000263363	0.000831748	0	0	0	
0.246167	0.00166707	0.00842073	0.000152383	0.000583328	0	0	0	
0.246333	0.00898441	0.000581995	0.000145484	0.000394637	0	0	0	
0.2465	-0.0206204	-0.0194017	0.000224115	0.000467421	0	0	0	
0.246667	0.0183106	0.0440613	0.000313862	0.000614953	0	0	0	
0.246833	-0.00647102	-0.0495122	0.000352297	0.000742954	0	0	0	
0.247	0.00326276	0.0131291	0.000312815	0.000768857	0	0	0	
0.247167	0.000864643	0.00815142	0.000271833	0.000685339	0	0	0	
0.247333	-0.00655783	0.00391641	0.000198984	0.000443854	0	0	0	
0.2475	0.00618231	-0.021095	0.000133055	0.00028443	0	0	0	
0.247667	0.00229214	0.00406872	0.000108578	0.000283179	0	0	0	
0.247833	-0.00296356	0.0256338	8.82961E-05	0.000462094	0	0	0	
0.248	0.00352853	-0.0252426	7.29602E-05	0.000554736	0	0	0	
0.248167	-0.00376947	0.00203413	7.33321E-05	0.000511444	0	0	0	
0.248333	0.00590017	0.00618807	6.52703E-05	0.000348764	0	0	0	
0.2485	-0.00448279	-0.00065067	9.67788E-05	0.000230158	0	0	0	
0.248667	0.00390473	-0.00305911	0.000108029	0.000196234	0	0	0	
0.248833	-0.00088187	0.00185009	0.000117363	0.000185543	0	0	0	
0.249	0.000546762	-0.00348128	9.131E-05	0.000188546	0	0	0	
0.249167	0.00285119	0.00677342	6.02948E-05	0.000173606	0	0	0	
0.249333	-0.000118977	-0.00224322	3.82439E-05	0.000151449	0	0	0	
0.2495	-0.00357448	-0.0133265	3.09063E-05	0.000117984	0	0	0	
0.249667	0.0059929	0.0214212	5.28508E-05	0.000205079	0	0	0	
0.249833	-0.0050122	-0.0119602	8.23908E-05	0.000294816	0	0	0	
0.25	0.00185355	-0.000873662	0.000105915	0.000356434	0	0	0	
0.250167	0.00225837	0.0023233	0.000112286	0.000317641	0	0	0	
0.250333	-0.00081734	-0.0025273	0.000104929	0.000275132	0	0	0	
0.2505	-0.000149395	-0.00109191	9.45725E-05	0.000224666	0	0	0	
0.250667	-0.00215816	-0.00321188	8.57989E-05	0.00017048	0	0	0	
0.250833	0.000226759	0.00883344	8.777E-05	0.000169259	0	0	0	
0.251	-0.000499634	-0.0116208	7.07106E-05	0.000213468	0	0	0	
0.251167	-0.0023178	0.0021898	5.76903E-05	0.000188399	0	0	0	
0.251333	0.00159939	0.00246993	5.54249E-05	0.000160087	0	0	0	
0.2515	-0.0038548	-0.00575607	7.13569E-05	0.0001055	0	0	0	
0.251667	0.00701611	0.00625372	8.85487E-05	0.000109022	0	0	0	
0.251833	-0.00531075	-0.00296037	0.000102551	0.000114219	0	0	0	
0.252	0.000108475	0.00239072	0.000103078	0.000124527	0	0	0	
0.252167	0.00240648	0.00328363	8.23649E-05	0.000130227	0	0	0	
0.252333	-0.00518516	-0.00457029	6.91184E-05	0.00012288	0	0	0	
0.2525	0.00378313	-0.000952614	6.85676E-05	9.85691E-05	0	0	0	
0.252667	0.0103531	0.0117129	0.00012934	0.00010553	0	0	0	
0.252833	-0.0240404	-0.00367141	0.000192287	0.000174093	0	0	0	
0.253	0.0696265	-0.0412826	0.000608297	0.000414594	0	0	0	
0.253167	-0.0964796	0.0748456	0.00161445	0.0013772	0	0	0	
0.253333	0.0045581	-0.0680559	0.00179137	0.00174164	0	0	0	
0.2535	0.0112333	0.024968	0.00147589	0.00178979	0	0	0	
0.253667	-0.00383339	-0.0165811	0.000440354	0.000900239	0	0	0	
0.253833	-0.00890066	0.0203749	0.000290779	0.000540402	0	0	0	
0.254	-0.0224965	-0.0338753	0.000390682	0.000440212	0	0	0	
0.254167	0.00550573	0.0179716	0.000440751	0.000519361	0	0	0	
0.254333	0.00418596	-0.00452992	0.000377145	0.000674429	0	0	0	
0.2545	-0.0138459	-0.0185346	0.000223051	0.000688615	0	0	0	
0.254667	0.0082054	0.014212	0.0002093	0.000587369	0	0	0	
0.254833	-0.0136136	-0.00794619	0.000227422	0.000397013	0	0	0	
0.255	0.00868277	0.0135632	0.000245353	0.000244724	0	0	0	
0.255167	0.00408543	-0.0222742	0.000273039	0.000275488	0	0	0	
0.255333	-0.00448525	0.00614613	0.000245688	0.000394927	0	0	0	
0.2555	-0.00333639	0.0255184	0.000185184	0.000583458	0	0	0	
0.255667	-0.000795	-0.0316877	0.00011305	0.000640779	0	0	0	
0.255833	0.0133657	0.0117801	0.000155263	0.000609947	0	0	0	
0.256	-0.00780608	0.0101542	0.000193572	0.000512519	0	0	0	
0.256167	-0.00579871	-0.0149638	0.000246062	0.000425673	0	0	0	
0.256333	0.00761061	0.0172426	0.000189323	0.000345504	0	0	0	
0.2565	-0.00245032	-0.012914	0.000167549	0.000305187	0	0	0	
0.256667	0.00924688	-2.40569E-05	0.000124174	0.000379833	0	0	0	
0.256833	-0.0113707	0.0120486	0.000164877	0.00044568	0	0	0	
0.257	0.00718963	-0.00602665	0.000221116	0.000386268	0	0	0	
0.257167	-8.02601E-05	-0.0133259	0.000261883	0.000301707	0	0	0	
0.257333	-0.00483643	0.0228392	0.000255148	0.000249784	0	0	0	
0.2575	0.000385102	0.0015021	0.000174602	0.00037982	0	0	0	
0.257667	0.00990378	-0.0211421	0.000123908	0.000461421	0	0	0	
0.257833	-0.00703716	0.0119131	0.000110942	0.000450033	0	0	0	
0.258	-0.00345253	0.00846734	0.000171574	0.000399464	0	0	0	
0.258167	0.00437148	-0.00998172	0.000157983	0.000286051	0	0	0	
0.258333	0.00458579	0.0069752	0.000134332	0.000284161	0	0	0	
0.2585	-0.00613421	-0.00197503	0.0001001	0.000239821	0	0	0	
0.258667	0.00246541	0.00124297	0.000132227	0.000275458	0	0	0	
0.258833	-0.00751346	0.00500711	0.000145489	0.000268355	0	0	0	
0.259	0.00896799	-0.00195135	0.000159858	0.000196566	0	0	0	
0.259167	-0.00406689	-0.0103097	0.000174116	0.000193663	0	0	0	
0.259333	-6.64904E-05	0.0317497	0.000164694	0.000255328	0	0	0	
0.2595	-0.00426802	-0.0304299	0.000125064	0.000422873	0	0	0	
0.259667	0.00877916	0.0060336	0.000112951	0.000558122	0	0	0	
0.259833	-0.0119235	0.0101897	0.000140388	0.00054973	0	0	0	
0.26	0.007873	0.00128736	0.000185825	0.000444214	0	0	0	
0.260167	-0.00275014	-0.0132806	0.000176834	0.000300731	0	0	0	
0.260333	0.00101605	0.000201217	0.000143177	0.000213853	0	0	0	
0.2605	-0.000551404	-0.00355648	0.000119769	0.000144128	0	0	0	
0.260667	0.00170508	0.0307355	0.000124435	0.000188474	0	0	0	
0.260833	0.000428372	-0.0308064	0.000162055	0.000354238	0	0	0	
0.261	-0.00441161	-0.0229548	0.000188545	0.000762726	0	0	0	
0.261167	0.0129951	0.0499331	0.000198874	0.000919612	0	0	0	
0.261333	-0.0209959	-0.0148955	0.000235863	0.000970861	0	0	0	
0.2615	0.00715999	-0.0159702	0.000322841	0.000730326	0	0	0	
0.261667	0.0648914	-0.031466	0.000622716	0.000629806	0	0	0	
0.261833	-0.507736	0.26938	0.00204628	0.00118658	0	0	0	
0.262	0.0689138	0.00430156	0.00367078	0.00167493	0	0	0	
0.262167	-0.0155267	-0.0378661	0.00361087	0.0016297	0	0	0	
0.262333	-0.019342	-0.0390414	0.00248253	0.00140433	0	0	0	
0.2625	0.101655	0.116361	0.00103518	0.00155449	0	0	0	
0.262667	-0.0819858	-0.16065	0.00118807	0.00222939	0	0	0	
0.262833	-0.0454954	0.192279	0.00166271	0.00268452	0	0	0	
0.263	-0.227963	0.0455001	0.00360418	0.00295233	0	0	0	
0.263167	0.00011968	0.00715725	0.00428679	0.002481	0	0	0	
0.263333	0.0623968	0.0313002	0.00386157	0.00185159	0	0	0	
0.2635	-0.0125337	-0.0769388	0.00196987	0.00104604	0	0	0	
0.263667	0.0288737	0.0593737	0.00119569	0.00122249	0	0	0	
0.263833	0.0168047	0.000588347	0.00120697	0.00165558	0	0	0	
0.264	-0.0341288	-0.0472672	0.00122377	0.00239638	0	0	0	
0.264167	0.0343684	0.0850424	0.00109239	0.00271081	0	0	0	
0.264333	-0.0344136	-0.0715363	0.000921335	0.00239991	0	0	0	
0.2645	0.0311976	0.0536629	0.000709403	0.00176883	0	0	0	
0.264667	-0.00694085	-0.0403052	0.000635795	0.00122145	0	0	0	
0.264833	-0.000749934	0.0281683	0.000504982	0.000914732	0	0	0	
0.265	0.00651082	-0.0124879	0.000453028	0.000779953	0	0	0	
0.265167	-0.00678149	-0.000703831	0.000389721	0.000771964	0	0	0	
0.265333	0.00383907	0.00877671	0.00032752	0.000734238	0	0	0	
0.2655	-0.0118681	-0.00941552	0.000326257	0.000613602	0	0	0	
0.265667	0.0279163	0.0188926	0.00038225	0.00049998	0	0	0	
0.265833	-0.0265413	-0.0394625	0.000457792	0.000522168	0	0	0	
0.266	0.017358	0.0326593	0.00047631	0.000606189	0	0	0	
0.266167	0.00164855	-0.0131637	0.000472706	0.000655157	0	0	0	
0.266333	-0.00943895	-0.0158876	0.000437073	0.000735704	0	0	0	
0.2665	0.0122886	0.0267796	0.000381315	0.000744671	0	0	0	
0.266667	-0.0112749	-0.021085	0.000296689	0.000665928	0	0	0	
0.266833	0.00582073	0.00425497	0.00022645	0.000509394	0	0	0	
0.267	-0.00025415	0.00541218	0.000197772	0.000427974	0	0	0	
0.267167	-0.00430152	-0.00961551	0.000204656	0.000352497	0	0	0	
0.267333	0.0115496	0.00452426	0.000204368	0.000252333	0	0	0	
0.2675	-0.00815745	-0.0040315	0.00019986	0.000144478	0	0	0	
0.267667	0.00691726	-0.00146278	0.00018399	0.000102108	0	0	0	
0.267833	-0.00277441	0.00298874	0.000158074	6.96761E-05	0	0	0	
0.268	0.000975021	-0.00299837	0.00012316	7.38072E-05	0	0	0	
0.268167	-0.00010965	-5.90818E-05	7.38174E-05	0.000116781	0	0	0	
0.268333	0.000859065	0.00291735	8.12122E-05	0.000157337	0	0	0	
0.2685	-0.00679797	-0.0043316	0.000108227	0.000171153	0	0	0	
0.268667	0.0083618	0.00906023	0.000137843	0.00017383	0	0	0	
0.268833	-0.00354946	-0.0100688	0.000127221	0.000170372	0	0	0	
0.269	0.000685603	0.000497566	0.000107534	0.000183518	0	0	0	
0.269167	0.00772442	0.0134672	0.00013611	0.000224013	0	0	0	
0.269333	-0.0112975	-0.0203494	0.000154924	0.000300682	0	0	0	
0.2695	-0.00116661	0.0224447	0.000177603	0.000353188	0	0	0	
0.269667	0.0119847	0.00144386	0.0001615	0.000401136	0	0	0	
0.269833	-0.00537087	-0.0316309	0.000178167	0.000505054	0	0	0	
0.27	0.000791095	0.0424956	0.00017885	0.000597079	0	0	0	
0.270167	-0.0117863	-0.0164447	0.00017151	0.00070182	0	0	0	
0.270333	0.0153167	-0.0111746	0.000188215	0.000769068	0	0	0	
0.2705	0.000458392	0.0175635	0.000272205	0.000702945	0	0	0	
0.270667	-0.00550254	-0.00400938	0.000316796	0.000502961	0	0	0	
0.270833	-0.00347241	-0.00490891	0.000271648	0.000290204	0	0	0	
0.271	0.00808681	0.00552595	0.000158274	0.000206306	0	0	0	
0.271167	0.00215222	-0.00835824	0.000106303	0.000207541	0	0	0	
0.271333	0.00176771	0.010769	9.23859E-05	0.000190874	0	0	0	
0.2715	-0.0102265	-0.0074037	0.000124257	0.000181429	0	0	0	
0.271667	0.0101488	0.00182459	0.000155456	0.000169528	0	0	0	
0.271833	-0.00475562	-0.00314478	0.000200312	0.000116291	0	0	0	
0.272	-0.00189176	0.00911946	0.000192253	0.000103653	0	0	0	
0.272167	0.00529924	-0.00648355	0.000137414	0.000121313	0	0	0	
0.272333	-3.15093E-05	-0.00596816	8.89495E-05	0.00021559	0	0	0	
0.2725	0.00272962	0.0142168	5.13598E-05	0.000313085	0	0	0	
0.272667	-0.00423903	-0.0149782	7.24719E-05	0.000432547	0	0	0	
0.272833	0.00215297	0.0257266	7.68268E-05	0.000460381	0	0	0	
0.273	0.00209422	-0.00735088	0.000101771	0.000446142	0	0	0	
0.273167	-0.00401892	-0.0198015	8.60216E-05	0.000478754	0	0	0	
0.273333	-0.000468565	0.0191801	9.86204E-05	0.000439828	0	0	0	
0.2735	0.00295201	0.000907947	0.00012005	0.00051798	0	0	0	
0.273667	-0.00366202	0.00284667	0.000180408	0.000437139	0	0	0	
0.273833	0.00400912	-0.00832003	0.000209746	0.000378142	0	0	0	
0.274	-0.0039206	0.00479785	0.00018386	0.000308368	0	0	0	
0.274167	0.000757269	0.017134	0.000122735	0.000366467	0	0	0	
0.274333	0.00264277	-0.0172141	7.01997E-05	0.000421667	0	0	0	
0.2745	-0.00241967	-0.00871972	7.07211E-05	0.000414204	0	0	0	
0.274667	0.00353388	0.0194777	0.000103292	0.000305594	0	0	0	
0.274833	-0.00109937	-0.00331894	0.000130674	0.00038525	0	0	0	
0.275	-0.00102465	-0.0182455	0.000129028	0.000430685	0	0	0	
0.275167	-0.0018055	0.0160349	0.000100218	0.000443127	0	0	0	
0.275333	0.00990271	0.00965046	0.000126943	0.000536326	0	0	0	
0.2755	-0.0107809	-0.0403263	0.000165153	0.000637399	0	0	0	
0.275667	0.00703318	0.0306263	0.000209791	0.000745506	0	0	0	
0.275833	-0.00280307	0.00130069	0.000201854	0.000747664	0	0	0	
0.276	0.00313993	-0.00959762	0.000183772	0.000600429	0	0	0	
0.276167	0.0036929	-0.00272344	0.000191017	0.000420331	0	0	0	
0.276333	-0.0125954	-0.0158153	0.000184954	0.000264137	0	0	0	
0.2765	0.00978627	0.0420664	0.000207491	0.000328571	0	0	0	
0.276667	0.00119665	-0.022709	0.000239391	0.000552044	0	0	0	
0.276833	-0.00750801	-0.0256074	0.000235207	0.000803923	0	0	0	
0.277	0.00897297	0.0397273	0.000213812	0.000811301	0	0	0	
0.277167	-0.00631074	-0.00713487	0.000199035	0.000802623	0	0	0	
0.277333	-0.00493805	-0.0214398	0.000261682	0.000677937	0	0	0	
0.2775	0.00907016	0.0170967	0.000287298	0.000595747	0	0	0	
0.277667	-0.00721764	0.00168694	0.000254186	0.000424915	0	0	0	
0.277833	0.000529847	0.000447976	0.000159801	0.000210955	0	0	0	
0.278	0.00727067	-0.00137722	9.84343E-05	0.000136324	0	0	0	
0.278167	-0.011018	-0.013018	0.000101865	0.000129526	0	0	0	
0.278333	0.011233	0.018559	0.0001567	0.000200319	0	0	0	
0.2785	-0.00482745	-0.00306595	0.000200685	0.000291478	0	0	0	
0.278667	0.000145886	-0.00727247	0.000181375	0.000366424	0	0	0	
0.278833	-0.00106377	0.00520616	0.000118892	0.000301684	0	0	0	
0.279	0.00393011	0.00447607	7.44064E-05	0.000211388	0	0	0	
0.279167	-0.00653999	-0.00835041	8.86514E-05	0.000111419	0	0	0	
0.279333	0.00335277	0.00579195	0.000121215	0.000125373	0	0	0	
0.2795	0.00414201	-0.000949249	0.000133508	0.00013502	0	0	0	
0.279667	-0.00060014	-0.00611999	8.99495E-05	0.00015404	0	0	0	
0.279833	-0.00365077	0.00629848	7.18165E-05	0.000134711	0	0	0	
0.28	0.00492672	0.00124521	7.23802E-05	0.00015387	0	0	0	
0.280167	-0.00579383	-0.00737256	9.85257E-05	0.000154064	0	0	0	
0.280333	0.00322873	0.00606122	9.52965E-05	0.000169012	0	0	0	
0.2805	-0.00344279	-0.00260064	8.80261E-05	0.000132896	0	0	0	
0.280667	0.00359155	0.00129736	7.70638E-05	9.75409E-05	0	0	0	
0.280833	-0.00138147	-0.00124861	7.13204E-05	6.02195E-05	0	0	0	
0.281	0.000129692	-0.00159658	5.39849E-05	3.90184E-05	0	0	0	
0.281167	0.00179358	0.00237355	4.94158E-05	3.80897E-05	0	0	0	
0.281333	-0.00413307	0.00310543	4.19835E-05	5.84986E-05	0	0	0	
0.2815	-0.00759954	-0.0136815	0.000111177	0.000116732	0	0	0	
0.281667	0.0355941	0.0103413	0.000222678	0.000182698	0	0	0	
0.281833	-0.207483	0.127303	0.000929934	0.000563442	0	0	0	
0.282	0.0467269	-0.011549	0.00173106	0.00134263	0	0	0	
0.282167	-0.012534	0.0175541	0.00175251	0.00166682	0	0	0	
0.282333	-0.00368154	0.000968851	0.00116418	0.00138983	0	0	0	
0.2825	0.0186467	3.91083E-05	0.000344754	0.000610897	0	0	0	
0.282667	-0.0297657	-0.0314052	0.000277947	0.000408562	0	0	0	
0.282833	0.0212544	0.0536127	0.00042933	0.00059491	0	0	0	
0.283	-0.00777098	-0.0508417	0.000443582	0.00080291	0	0	0	
0.283167	-0.00331618	0.0151185	0.000453558	0.00101791	0	0	0	
0.283333	0.0115975	0.0140024	0.000276715	0.00106865	0	0	0	
0.2835	-0.00983277	-0.0168812	0.000293564	0.000916604	0	0	0	
0.283667	0.0124756	0.00210137	0.00027024	0.000569643	0	0	0	
0.283833	-0.00441405	0.00831354	0.000221854	0.000269848	0	0	0	
0.284	-0.000214326	-0.00592745	0.000196472	0.000178626	0	0	0	
0.284167	0.00545628	-0.0027522	0.000179649	0.000171719	0	0	0	
0.284333	-0.00717607	0.00210776	0.00015999	0.000125677	0	0	0	
0.2845	0.0027752	0.00672955	0.000181018	0.000106562	0	0	0	
0.284667	0.00922486	0.00314909	0.000242229	0.000156983	0	0	0	
0.284833	-0.00729869	-0.042786	0.000235037	0.000333652	0	0	0	
0.285	-0.00754089	0.0556799	0.000239176	0.000633231	0	0	0	
0.285167	0.00628664	-0.0111428	0.000163752	0.000825197	0	0	0	
0.285333	0.00872962	-0.026369	0.000265813	0.000881366	0	0	0	
0.2855	-0.00227467	0.0270252	0.000232247	0.000718255	0	0	0	
0.285667	-0.00860628	-0.0132094	0.000223403	0.000558889	0	0	0	
0.285833	0.00125069	-0.000416703	0.000150562	0.000457089	0	0	0	
0.286	0.013714	0.00825558	0.00014467	0.000616491	0	0	0	
0.286167	-0.00370391	-0.0266107	0.000210523	0.000844154	0	0	0	
0.286333	-0.0137619	0.02031	0.000269629	0.00089126	0	0	0	
0.2865	0.00993876	-0.0111899	0.000278827	0.00066336	0	0	0	
0.286667	-0.000983783	0.000578835	0.000257935	0.000384297	0	0	0	
0.286833	-0.00454609	0.00987274	0.00017394	0.000243272	0	0	0	
0.287	0.0042912	-0.0278867	0.000159406	0.000247843	0	0	0	
0.287167	0.000743992	0.0294692	0.000113239	0.000401754	0	0	0	
0.287333	0.00246666	-0.0220662	9.32515E-05	0.000549408	0	0	0	
0.2875	-0.00698411	0.0108881	7.21046E-05	0.000551394	0	0	0	
0.287667	0.00583194	-0.00517871	6.75634E-05	0.000360714	0	0	0	
0.287833	-0.00189265	-0.0101955	0.000107589	0.000252383	0	0	0	
0.288	0.00275411	0.00743348	0.000107383	0.000206115	0	0	0	
0.288167	-0.00260054	0.0105607	0.000110675	0.000366711	0	0	0	
0.288333	0.00105697	-0.0193262	0.000117814	0.000522974	0	0	0	
0.2885	0.00159112	0.000483933	0.000152949	0.000555807	0	0	0	
0.288667	-0.00447799	0.00422851	0.000138144	0.000396982	0	0	0	
0.288833	0.00253571	-0.00417459	0.00010551	0.000170462	0	0	0	
0.289	-0.000481176	-0.00233736	7.06385E-05	0.000114342	0	0	0	
0.289167	0.000404727	0.00520704	6.45043E-05	8.14113E-05	0	0	0	
0.289333	0.0010258	0.000446604	4.08743E-05	6.57649E-05	0	0	0	
0.2895	-0.00363802	-0.00503939	3.82934E-05	0.000106423	0	0	0	
0.289667	0.00423321	0.00224929	5.82784E-05	0.000150136	0	0	0	
0.289833	-0.00209855	-0.0042205	6.86847E-05	0.000157693	0	0	0	
0.29	0.000974295	-0.000402169	6.73938E-05	0.00011928	0	0	0	
0.290167	-0.00369354	0.00016025	5.03541E-05	4.83657E-05	0	0	0	
0.290333	0.012611	0.0174713	7.90521E-05	6.03846E-05	0	0	0	
0.2905	-0.0117125	-0.0231409	0.000148683	0.00017753	0	0	0	
0.290667	0.000196153	0.00626553	0.00023187	0.000409361	0	0	0	
0.290833	0.00655798	0.021629	0.000243126	0.000678863	0	0	0	
0.291	-0.00378746	-0.0213751	0.000185426	0.000704983	0	0	0	
0.291167	0.00497891	0.00857563	0.000113492	0.000556469	0	0	0	
0.291333	-0.00163174	-0.00226643	9.82971E-05	0.000318613	0	0	0	
0.2915	-0.00760096	-0.00246029	0.000188558	0.000272321	0	0	0	
0.291667	0.0145891	0.0283693	0.000273968	0.000451819	0	0	0	
0.291833	-0.00911462	-0.0419842	0.000298686	0.00066132	0	0	0	
0.292	0.00490791	0.0281837	0.000229512	0.000748578	0	0	0	
0.292167	-0.00387344	0.000556097	0.00015795	0.000659324	0	0	0	
0.292333	0.0009875	-0.00509047	0.000128775	0.000443771	0	0	0	
0.2925	0.00406699	-0.00629066	9.49653E-05	0.000257134	0	0	0	
0.292667	1.70442E-05	0.00526594	7.73229E-05	0.000183627	0	0	0	
0.292833	-0.0021264	0.0181254	5.05132E-05	0.000319061	0	0	0	
0.293	0.000980531	-0.0312201	4.85133E-05	0.000423192	0	0	0	
0.293167	-0.00157685	0.014875	3.68252E-05	0.00052021	0	0	0	
0.293333	0.00315612	0.00282357	4.189E-05	0.000465182	0	0	0	
0.2935	-0.00236563	-0.00210904	4.71482E-05	0.000376227	0	0	0	
0.293667	-0.00188301	0.00118054	6.94635E-05	0.000215872	0	0	0	
0.293833	0.000407764	-0.0150841	7.47904E-05	0.000141378	0	0	0	
0.294	0.00192825	0.00304021	6.46522E-05	0.00015853	0	0	0	
0.294167	-0.00601114	0.00918354	6.04071E-05	0.000220107	0	0	0	
0.294333	0.00131103	-0.011968	6.26086E-05	0.000235945	0	0	0	
0.2945	-0.00125094	0.00497897	6.67177E-05	0.000227569	0	0	0	
0.294667	-0.00070177	-0.00648548	5.18259E-05	0.000175815	0	0	0	
0.294833	-0.00135542	0.00432389	4.45705E-05	0.000182754	0	0	0	
0.295	-0.000747574	-0.0133082	4.11871E-05	0.000223135	0	0	0	
0.295167	-0.00262101	0.0112227	3.87029E-05	0.000248003	0	0	0	
0.295333	-9.87064E-06	-0.00686902	5.77847E-05	0.000230218	0	0	0	
0.2955	-0.00405622	-0.000427072	6.89464E-05	0.000187152	0	0	0	
0.295667	0.00187214	-0.000171922	7.57636E-05	0.000119977	0	0	0	
0.295833	-0.00235518	-0.000264215	5.91642E-05	8.16006E-05	0	0	0	
0.296	0.000905345	0.00532148	4.32311E-05	7.03355E-05	0	0	0	
0.296167	-0.00321456	0.000619856	4.8175E-05	7.79287E-05	0	0	0	
0.296333	0.0011103	-0.00455511	4.24581E-05	7.57384E-05	0	0	0	
0.2965	-0.00191467	0.00228391	4.68126E-05	7.10003E-05	0	0	0	
0.296667	0.000679481	0.000148851	3.48321E-05	6.97524E-05	0	0	0	
0.296833	-0.000776166	0.00415811	3.56014E-05	8.80832E-05	0	0	0	
0.297	1.05221E-05	-0.0064884	2.84753E-05	0.000140975	0	0	0	
0.297167	-0.00107854	0.0110916	2.74267E-05	0.0002009	0	0	0	
0.297333	0.00125742	-0.0040661	1.95686E-05	0.000197315	0	0	0	
0.2975	-0.00287505	0.000268301	2.95699E-05	0.000156247	0	0	0	
0.297667	0.00580967	0.00597262	4.72204E-05	0.000116146	0	0	0	
0.297833	-0.00442568	-0.00426599	7.47697E-05	9.81085E-05	0	0	0	
0.298	0.0022115	0.00486559	9.24334E-05	0.000114381	0	0	0	
0.298167	-0.00131558	-0.00438032	9.44442E-05	0.000129308	0	0	0	
0.298333	0.00332734	0.00599401	8.4552E-05	0.000160171	0	0	0	
0.2985	-0.00400754	0.000984552	7.57446E-05	0.000125287	0	0	0	
0.298667	0.00349787	0.00126967	7.9005E-05	0.00010045	0	0	0	
0.298833	-0.00243601	0.00137986	7.35041E-05	6.86426E-05	0	0	0	
0.299	0.00509634	-0.00617221	7.76574E-05	7.7518E-05	0	0	0	
0.299167	-0.00587929	0.00695224	7.74343E-05	0.000102801	0	0	0	
0.299333	0.00317203	-0.00104301	9.62563E-05	9.88261E-05	0	0	0	
0.2995	-0.0018647	-0.000997796	7.99226E-05	9.76942E-05	0	0	0	
0.299667	0.00319602	0.00139733	7.44178E-05	7.06531E-05	0	0	0	
0.299833	-0.0020448	-0.00301766	5.09811E-05	6.8497E-05	0	0	0	
0.3	0.002095	0.00219585	6.15459E-05	6.23543E-05	0	0	0	
0.300167	-0.0120424	-0.00652298	8.91046E-05	5.76452E-05	0	0	0	
0.300333	0.011622	0.0126235	0.000148632	0.00011365	0	0	0	
0.3005	0.00238062	-0.0239439	0.000256949	0.00020437	0	0	0	
0.300667	-0.00974855	0.0213748	0.000290799	0.000372432	0	0	0	
0.300833	-0.00243793	0.00367442	0.000247707	0.000465749	0	0	0	
0.301	0.00329706	-0.0153231	0.000136401	0.000441978	0	0	0	
0.301167	0.00554251	-0.00163991	0.000117043	0.000350526	0	0	0	
0.301333	-0.0020997	0.00501885	0.000109809	0.000278595	0	0	0	
0.3015	-0.014041	-0.00397221	0.000155739	0.000270952	0	0	0	
0.301667	0.00871561	-0.00554054	0.000166227	0.00021013	0	0	0	
0.301833	0.00109482	0.00537629	0.000232703	0.000346935	0	0	0	
0.302	0.000132912	0.0109073	0.000176876	0.000443228	0	0	0	
0.302167	-0.00854082	0.00348993	0.000163974	0.000446533	0	0	0	
0.302333	0.0115925	-0.00835824	0.000139483	0.000258244	0	0	0	
0.3025	-0.0121595	-0.0473355	0.000202512	0.000195769	0	0	0	
0.302667	0.00338844	0.0323224	0.000216474	0.000423605	0	0	0	
0.302833	0.00202328	0.0309177	0.000223394	0.000759179	0	0	0	
0.303	-0.00339993	-0.0420786	0.00016768	0.000977059	0	0	0	
0.303167	0.00233345	0.0191628	0.000102835	0.00088453	0	0	0	
0.303333	-0.00583501	0.00336924	5.81842E-05	0.00062848	0	0	0	
0.3035	-0.000255369	-0.0189207	6.29974E-05	0.000379768	0	0	0	
0.303667	0.00954714	0.00617732	9.8341E-05	0.000346065	0	0	0	
0.303833	-0.00893133	-0.00506	0.000135232	0.000253007	0	0	0	
0.304	0.000136136	0.0117607	0.000208107	0.000291969	0	0	0	
0.304167	0.00302637	-0.000684391	0.000221222	0.000257111	0	0	0	
0.304333	-0.00226725	-0.000433982	0.000190302	0.000288846	0	0	0	
0.3045	-0.000100321	-0.0132702	0.000125855	0.000257184	0	0	0	
0.304667	0.00203546	0.00546835	8.14771E-05	0.000270183	0	0	0	
0.304833	-0.00414882	0.00628145	6.52469E-05	0.00033755	0	0	0	
0.305	0.00173007	-0.0134492	5.07083E-05	0.000355848	0	0	0	
0.305167	-0.00105141	0.00669627	5.11466E-05	0.000304103	0	0	0	
0.305333	0.00629487	0.00473946	5.64336E-05	0.000218394	0	0	0	
0.3055	-0.0106266	-0.0198057	0.000100966	0.000173109	0	0	0	
0.305667	0.0123469	0.0275125	0.000168962	0.00027372	0	0	0	
0.305833	-0.0124366	-0.0336689	0.000230646	0.000424416	0	0	0	
0.306	0.0125758	0.0353012	0.000265723	0.000570158	0	0	0	
0.306167	-0.00538702	-0.0248179	0.000306476	0.000699775	0	0	0	
0.306333	-0.00356247	-0.00937783	0.000353191	0.0007765	0	0	0	
0.3065	0.00422904	0.0158794	0.000296905	0.000649997	0	0	0	
0.306667	0.00124637	0.000380994	0.000207715	0.000597815	0	0	0	
0.306833	-0.00042775	-0.0139612	0.000126466	0.000642002	0	0	0	
0.307	0.00450102	0.0137134	0.000162788	0.000708484	0	0	0	
0.307167	-0.0123171	-0.00792198	0.000234448	0.000560876	0	0	0	
0.307333	0.0158828	0.011793	0.000277294	0.000348237	0	0	0	
0.3075	-0.0142478	-0.0133548	0.000288756	0.000262537	0	0	0	
0.307667	-0.00427939	-0.0176707	0.000253353	0.000318745	0	0	0	
0.307833	0.00141163	0.0346353	0.00023263	0.000448862	0	0	0	
0.308	-0.00875427	-0.0266692	0.000207109	0.000552467	0	0	0	
0.308167	0.00556319	-0.00562204	0.000170878	0.000603524	0	0	0	
0.308333	0.0055192	0.0128458	0.000156223	0.000520085	0	0	0	
0.3085	-0.00550607	-0.00544907	0.00013614	0.000393059	0	0	0	
0.308667	-0.00541471	-0.00421055	0.000155944	0.00023633	0	0	0	
0.308833	-0.0104341	-0.00655872	0.000148879	0.000116964	0	0	0	
0.309	0.00290313	0.0127989	0.000139231	0.000146912	0	0	0	
0.309167	0.00179126	-0.0027495	0.000120588	0.000199227	0	0	0	
0.309333	0.00226643	-0.0136876	0.000104886	0.000290368	0	0	0	
0.3095	0.00150011	0.0118632	9.68394E-05	0.000295654	0	0	0	
0.309667	0.00131248	0.000119222	8.16387E-05	0.000279863	0	0	0	
0.309833	-0.000354478	-0.0140715	5.68595E-05	0.000219552	0	0	0	
0.31	-0.00253274	0.0140059	4.28008E-05	0.000235963	0	0	0	
0.310167	-0.000948856	-0.0070137	2.70686E-05	0.000265397	0	0	0	
0.310333	0.00471736	-0.00302188	2.75517E-05	0.000241411	0	0	0	
0.3105	-0.00175761	-0.0012719	4.33093E-05	0.0001987	0	0	0	
0.310667	0.000464684	0.000928087	6.3167E-05	0.000124275	0	0	0	
0.310833	0.000585322	-5.27936E-06	8.39952E-05	0.000141911	0	0	0	
0.311	0.00105743	-0.00599519	8.18865E-05	0.000217826	0	0	0	
0.311167	-0.000855872	0.0093826	7.49804E-05	0.000300951	0	0	0	
0.311333	-0.00126174	-0.00549783	6.93089E-05	0.000281107	0	0	0	
0.3115	0.00317228	-0.0065047	5.78876E-05	0.000194018	0	0	0	
0.311667	-0.00045425	0.00300731	5.08407E-05	0.000104418	0	0	0	
0.311833	-0.000988429	-0.00160915	3.59774E-05	8.79435E-05	0	0	0	
0.312	0.00208019	0.00868919	3.78075E-05	7.02381E-05	0	0	0	
0.312167	-0.00210292	-0.0149266	3.32879E-05	0.000143488	0	0	0	
0.312333	0.00197764	0.00941113	4.15624E-05	0.000208064	0	0	0	
0.3125	-0.00155891	-0.000531303	4.56955E-05	0.000223463	0	0	0	
0.312667	-0.00245851	-0.00341109	5.6424E-05	0.000163187	0	0	0	
0.312833	0.00187192	0.00434923	4.83765E-05	0.000106431	0	0	0	
0.313	0.0027796	0.000278829	4.64097E-05	9.62643E-05	0	0	0	
0.313167	-0.00408343	-0.00629979	4.04185E-05	0.000116128	0	0	0	
0.313333	0.00295216	0.00652281	6.35322E-05	0.000154846	0	0	0	
0.3135	-0.00419364	0.00217601	7.16773E-05	0.000171992	0	0	0	
0.313667	6.13625E-05	-0.00105372	7.69359E-05	0.000140412	0	0	0	
0.313833	0.00077808	-0.00390354	5.32895E-05	8.8932E-05	0	0	0	
0.314	0.000538091	0.00134061	4.51413E-05	6.9406E-05	0	0	0	
0.314167	1.16197E-05	0.00305775	4.15967E-05	6.906E-05	0	0	0	
0.314333	0.000571034	-0.00330499	4.1413E-05	7.64746E-05	0	0	0	
0.3145	-0.00728804	-0.00366096	6.15835E-05	8.00182E-05	0	0	0	
0.314667	0.0107789	0.0130882	9.35541E-05	0.00011376	0	0	0	
0.314833	-0.00353506	-0.0123228	0.000183467	0.000181049	0	0	0	
0.315	-0.00252945	0.00478478	0.000224827	0.000213004	0	0	0	
0.315167	-0.00502692	0.00416254	0.000198094	0.000217337	0	0	0	
0.315333	0.00704903	-0.00276572	0.000135857	0.000144341	0	0	0	
0.3155	0.000773176	-0.00458538	0.00015426	0.00019096	0	0	0	
0.315667	-0.00660983	0.0113527	0.000160082	0.00027811	0	0	0	
0.315833	-0.00902819	-0.016025	0.000209858	0.000333315	0	0	0	
0.316	0.0105774	0.0122392	0.00017936	0.000360825	0	0	0	
0.316167	-0.00105597	-0.0017485	0.000191514	0.000282585	0	0	0	
0.316333	0.00256924	0.00822509	0.000121288	0.000242853	0	0	0	
0.3165	-0.00751806	-0.00585681	8.7785E-05	0.000186484	0	0	0	
0.316667	0.00506331	-0.0147906	9.01488E-05	0.000180598	0	0	0	
0.316833	-0.00484434	-0.00750055	0.000124525	0.000233352	0	0	0	
0.317	0.00315557	0.0276318	0.000125264	0.000421425	0	0	0	
0.317167	-0.004892	-0.0247682	0.000127008	0.000531497	0	0	0	
0.317333	0.00843738	0.0101117	0.000121152	0.00055782	0	0	0	
0.3175	-0.00173734	-0.0133833	0.000181813	0.000389751	0	0	0	
0.317667	-0.00281205	0.00723298	0.000278817	0.000289108	0	0	0	
0.317833	0.0145831	0.00762224	0.000321357	0.000381205	0	0	0	
0.318	-0.00557756	-0.0395985	0.000275915	0.000443942	0	0	0	
0.318167	0.0022853	0.0269367	0.000181371	0.000594053	0	0	0	
0.318333	0.00103939	-0.00213653	0.000110791	0.000543013	0	0	0	
0.3185	-0.00398583	-0.00615834	0.0001137	0.000471781	0	0	0	
0.318667	0.00458465	-0.0023348	0.000133236	0.000306088	0	0	0	
0.318833	0.000629534	-0.00422074	0.000148971	0.000239642	0	0	0	
0.319	0.00508962	7.3265E-05	0.000117259	0.00022584	0	0	0	
0.319167	-0.00618122	-0.00689482	9.76491E-05	0.000177858	0	0	0	
0.319333	0.0077882	0.00337193	0.000120536	0.00012328	0	0	0	
0.3195	-0.00124173	0.00172687	0.000132077	7.78029E-05	0	0	0	
0.319667	-0.0107027	-0.010184	0.000143959	0.000136601	0	0	0	
0.319833	0.00362125	0.0157689	0.000156349	0.000257984	0	0	0	
0.32	-0.00470128	-0.0203594	0.000167106	0.000414763	0	0	0	
0.320167	0.0090843	0.0321706	0.000152358	0.000497332	0	0	0	
0.320333	-0.0111976	-0.0219861	0.000154671	0.000524641	0	0	0	
