0	-0.00246122	0.00729997	2.46122E-07	7.29997E-07	0	0	0	
0.000166667	0.0087995	-0.00580504	3.9482E-05	7.78326E-05	0	0	0	
0.000333333	-0.00917399	-0.00298507	9.59032E-05	0.000198534	0	0	0	
0.0005	0.00390413	0.00737888	0.000144965	0.00026853	0	0	0	
0.000666667	0.000360212	0.000125757	0.000138498	0.000211232	0	0	0	
0.000833333	-0.000662875	-0.0113185	8.78946E-05	0.000177664	0	0	0	
0.001	-0.00407653	0.0196786	8.25078E-05	0.000198055	0	0	0	
0.00116667	0.00473964	-0.00163119	8.01881E-05	0.000308736	0	0	0	
0.00133333	0.00918174	-0.0141276	0.000127267	0.000303423	0	0	0	
0.0015	-0.012244	-0.00677313	0.000153883	0.000381807	0	0	0	
0.00166667	-0.00918853	0.0172167	0.000278861	0.000372443	0	0	0	
0.00183333	0.0173735	0.00919708	0.000300762	0.000407038	0	0	0	
0.002	0.00443356	-0.00405225	0.000399903	0.000264918	0	0	0	
0.00216667	-0.0140779	-0.0211085	0.000332338	0.000286043	0	0	0	
0.00233333	-0.00985544	0.00744904	0.000381077	0.000312334	0	0	0	
0.0025	0.021224	0.0218643	0.000298232	0.000533527	0	0	0	
0.00266667	-4.65027E-05	-0.0102454	0.000380703	0.000493169	0	0	0	
0.00283333	-0.00568109	-0.00716442	0.000306615	0.000413836	0	0	0	
0.003	-0.015532	0.011477	0.000357615	0.000228558	0	0	0	
0.00316667	0.0176623	-0.0148135	0.000280491	0.000204533	0	0	0	
0.00333333	0.000139594	0.0101421	0.000367517	0.000235756	0	0	0	
0.0035	-0.00408771	-0.000515806	0.000286757	0.000264576	0	0	0	
0.00366667	-0.00764699	0.00998919	0.000265237	0.000226384	0	0	0	
0.00383333	0.010654	-0.0125463	0.000185532	0.000214829	0	0	0	
0.004	-0.00261007	0.00572401	0.000188775	0.000241421	0	0	0	
0.00416667	-0.00164946	-0.0113389	0.000143226	0.000273289	0	0	0	
0.00433333	-0.00321598	0.011361	0.000120788	0.000266244	0	0	0	
0.0045	0.00582633	-0.00527202	0.000100702	0.000197244	0	0	0	
0.00466667	-0.00581421	0.0145204	0.000110922	0.000189941	0	0	0	
0.00483333	0.0109292	-0.0219188	0.000126127	0.000232875	0	0	0	
0.005	-0.012047	0.0108282	0.000170153	0.000325262	0	0	0	
0.00516667	0.00236637	-0.0148818	0.000192987	0.000371647	0	0	0	
0.00533333	-0.00164273	0.0230379	0.000156325	0.000415775	0	0	0	
0.0055	0.0104676	-0.00904564	0.000121034	0.000372097	0	0	0	
0.00566667	-0.0106436	-0.000141825	0.000126748	0.000338857	0	0	0	
0.00583333	0.00322104	-0.0166145	0.000182959	0.000241091	0	0	0	
0.006	-0.00236408	0.018344	0.000160625	0.000252312	0	0	0	
0.00616667	0.00779728	-0.00642421	0.00013952	0.000263166	0	0	0	
0.00633333	-0.0072022	0.00617264	0.000112649	0.000264498	0	0	0	
0.0065	0.00130403	-0.000240767	0.000149488	0.000228067	0	0	0	
0.00666667	0.00829236	-0.0136729	0.00020982	0.000328714	0	0	0	
0.00683333	-0.012804	0.00537805	0.000262501	0.000292906	0	0	0	
0.007	-0.000947662	0.0208888	0.000246758	0.000412286	0	0	0	
0.00716667	0.0191263	-0.0112552	0.000225762	0.000337891	0	0	0	
0.00733333	-0.0159075	-0.012503	0.000248788	0.000415409	0	0	0	
0.0075	0.00378613	0.0031672	0.000307207	0.000302921	0	0	0	
0.00766667	-0.0121468	0.0181432	0.000288329	0.000259378	0	0	0	
0.00783333	0.0216438	-0.0083759	0.000292069	0.000260401	0	0	0	
0.008	-0.00926531	-0.00237635	0.000308376	0.000207231	0	0	0	
0.00816667	-0.000629106	-0.0050508	0.000301071	0.00022369	0	0	0	
0.00833333	-0.00459695	0.0215453	0.00021153	0.000169994	0	0	0	
0.0085	0.0101962	-0.0196405	0.000137415	0.000323057	0	0	0	
0.00866667	-0.0109901	0.00727948	0.000152568	0.000449742	0	0	0	
0.00883333	0.00446306	0.00656161	0.000203944	0.00052898	0	0	0	
0.009	0.00250827	-0.00874527	0.000183339	0.000391232	0	0	0	
0.00916667	0.00378003	-0.00753264	0.00015128	0.000265421	0	0	0	
0.00933333	-0.0133985	0.0160196	0.000120455	0.000199346	0	0	0	
0.0095	0.0106424	-0.0115461	0.000174126	0.000258766	0	0	0	
0.00966667	-0.000946677	0.00780524	0.000212771	0.000238943	0	0	0	
0.00983333	-0.00170897	-0.00818056	0.000190496	0.000222707	0	0	0	
0.01	-0.00381065	0.00483904	0.000135186	0.000165519	0	0	0	
0.0101667	0.0111318	-0.00476228	0.000101776	0.00015736	0	0	0	
0.0103333	-0.00824871	0.00872906	0.000147027	0.000151202	0	0	0	
0.0105	-1.49768E-05	-0.0142463	0.000161469	0.00018614	0	0	0	
0.0106667	-0.00046683	0.00617171	0.000139857	0.000204183	0	0	0	
0.0108333	0.00879979	-0.00385071	9.82966E-05	0.000211571	0	0	0	
0.011	-0.00749524	0.0124834	0.000111665	0.00019585	0	0	0	
0.0111667	0.00144425	-0.0166767	0.000140661	0.000212953	0	0	0	
0.0113333	-0.00235949	0.00393962	0.000123846	0.000271463	0	0	0	
0.0115	0.00802267	0.00551897	0.000110182	0.000310769	0	0	0	
0.0116667	-0.00559268	0.00588736	9.66461E-05	0.000274253	0	0	0	
0.0118333	0.000493544	-0.015898	0.000135399	0.000267045	0	0	0	
0.012	0.00132053	0.0055437	0.000113825	0.000229055	0	0	0	
0.0121667	0.00360297	0.00166787	0.000104887	0.000255201	0	0	0	
0.0123333	-0.0103145	0.0085972	8.7216E-05	0.000180767	0	0	0	
0.0125	0.009457	-0.0196853	0.000148198	0.000202273	0	0	0	
0.0126667	-0.00453405	0.0155699	0.000172568	0.000249369	0	0	0	
0.0128333	0.00615337	-0.00516842	0.000174095	0.000297775	0	0	0	
0.013	-0.00624149	0.00363418	0.000129777	0.000235869	0	0	0	
0.0131667	0.000355875	-0.0113596	0.000119236	0.000146768	0	0	0	
0.0133333	-0.00261098	0.0103434	0.000101358	0.000150409	0	0	0	
0.0135	0.00988821	-0.00693124	0.000110676	0.000199904	0	0	0	
0.0136667	-0.00767376	0.0036578	0.000126775	0.000212211	0	0	0	
0.0138333	0.00456051	-0.00610849	0.000140383	0.000171311	0	0	0	
0.014	-0.00909598	0.00562732	0.000140537	0.000131644	0	0	0	
0.0141667	0.008265	-0.0114308	0.000139456	0.000148421	0	0	0	
0.0143333	-0.00412385	0.00788898	0.000149945	0.000198307	0	0	0	
0.0145	0.00546676	-0.00251261	0.000146932	0.000221292	0	0	0	
0.0146667	-0.00619623	0.00280168	0.000132621	0.000177709	0	0	0	
0.0148333	0.00788241	-0.0142088	0.000133655	0.000135738	0	0	0	
0.015	-0.0135846	0.00963816	0.000172059	0.000170434	0	0	0	
0.0151667	0.00921285	-0.00709319	0.000199626	0.000199823	0	0	0	
0.0153333	0.00148359	0.0159053	0.000186098	0.000227809	0	0	0	
0.0155	0.00332272	-0.0104739	0.000162594	0.000224311	0	0	0	
0.0156667	-0.00996502	-0.00383644	0.000125316	0.000218812	0	0	0	
0.0158333	-0.00390759	-0.0127071	0.000191838	0.000258833	0	0	0	
0.016	0.00939001	0.031808	0.000173015	0.000315988	0	0	0	
0.0161667	0.00853389	-0.00907623	0.000257705	0.000438048	0	0	0	
0.0163333	-0.0152937	-0.00968327	0.000237231	0.00046786	0	0	0	
0.0165	0.000758674	-0.00497095	0.000277723	0.000444997	0	0	0	
0.0166667	0.00253261	0.0202371	0.000176176	0.000414522	0	0	0	
0.0168333	0.0118008	-0.0130988	0.000160938	0.000365051	0	0	0	
0.017	-0.015108	0.000442745	0.000163038	0.000333654	0	0	0	
0.0171667	-0.0011954	0.0123975	0.000297776	0.000235336	0	0	0	
0.0173333	0.0111828	-0.0130166	0.00031631	0.000225344	0	0	0	
0.0175	0.0079627	-0.00825621	0.000381077	0.000269009	0	0	0	
0.0176667	-0.0327137	0.0131405	0.000416337	0.000286644	0	0	0	
0.0178333	0.0256122	-0.00418936	0.000516146	0.000312313	0	0	0	
0.018	0.00240818	0.0153321	0.00055947	0.000255144	0	0	0	
0.0181667	0.000638055	-0.0224971	0.000386771	0.000299487	0	0	0	
0.0183333	-0.0210889	-0.0090968	0.000352184	0.000423554	0	0	0	
0.0185	0.0146522	0.013076	0.000267707	0.000506844	0	0	0	
0.0186667	0.0021967	0.0208651	0.000330746	0.000533451	0	0	0	
0.0188333	0.00528144	-0.0324799	0.000260287	0.000468813	0	0	0	
0.019	-0.0207767	0.0134177	0.000299248	0.000450731	0	0	0	
0.0191667	0.0119314	-0.00946157	0.000315928	0.000388758	0	0	0	
0.0193333	0.010091	0.00499654	0.000365192	0.000299911	0	0	0	
0.0195	-0.00872859	0.00922683	0.000296371	0.000313853	0	0	0	
0.0196667	-0.0144223	-0.00833284	0.000367657	0.000284791	0	0	0	
0.0198333	0.0210981	-0.00642059	0.000349142	0.000337063	0	0	0	
0.02	-0.00695476	0.0159544	0.000377742	0.000290838	0	0	0	
0.0201667	-0.00242849	-0.0162221	0.000256493	0.000343303	0	0	0	
0.0203333	0.00148605	0.0128573	0.000180199	0.000303246	0	0	0	
0.0205	0.00187562	-0.0118055	0.000137108	0.00028353	0	0	0	
0.0206667	-0.00277214	0.01322	0.000134258	0.000266227	0	0	0	
0.0208333	0.000863902	0.000358407	0.000121519	0.000275741	0	0	0	
0.021	0.00217586	-0.0036012	0.000107838	0.000247367	0	0	0	
0.0211667	0.00209517	-0.0073246	8.16343E-05	0.000235959	0	0	0	
0.0213333	-0.0058858	0.00862198	9.19368E-05	0.000208771	0	0	0	
0.0215	0.00414731	-0.00623263	8.40755E-05	0.000204084	0	0	0	
0.0216667	-0.00425235	0.00680566	9.6969E-05	0.000167454	0	0	0	
0.0218333	0.010145	0.00310012	0.000105452	0.000159473	0	0	0	
0.022	-0.0127224	0.000330553	0.00014619	0.000121014	0	0	0	
0.0221667	0.010772	-0.02137	0.000203839	0.000220275	0	0	0	
0.0223333	-0.00609888	0.019723	0.0002261	0.000271895	0	0	0	
0.0225	-0.00488876	0.0230193	0.000198257	0.000429661	0	0	0	
0.0226667	0.0166253	-0.0409472	0.000174638	0.00050548	0	0	0	
0.0228333	-0.0115746	0.00873312	0.000218204	0.000631496	0	0	0	
0.023	-0.00890101	0.0205863	0.000278454	0.000591979	0	0	0	
0.0231667	0.0175035	-0.0129862	0.000291496	0.000518349	0	0	0	
0.0233333	-0.00877402	0.00145485	0.000304792	0.000369273	0	0	0	
0.0235	-0.000139495	-0.00045878	0.00026221	0.000298517	0	0	0	
0.0236667	-0.00294584	0.00735136	0.000219491	0.000220911	0	0	0	
0.0238333	0.00973527	0.00559511	0.00012965	0.000253116	0	0	0	
0.024	-0.00754298	-0.0116153	0.000163693	0.000337352	0	0	0	
0.0241667	0.00250633	-0.0104135	0.000193222	0.000349832	0	0	0	
0.0243333	-0.0124203	0.0270848	0.000231809	0.000361351	0	0	0	
0.0245	0.015363	-0.00596094	0.000226316	0.000323363	0	0	0	
0.0246667	-0.000468168	-0.0129028	0.000223086	0.000370186	0	0	0	
0.0248333	-0.00699061	0.00917739	0.000213451	0.000308333	0	0	0	
0.025	-0.00445019	0.00439045	0.000183598	0.000232415	0	0	0	
0.0251667	0.0165778	-0.0106842	0.000230114	0.000185071	0	0	0	
0.0253333	-0.0126447	0.0144648	0.000257151	0.000198235	0	0	0	
0.0255	-0.000797131	-0.012121	0.000251818	0.00025065	0	0	0	
0.0256667	0.00110019	0.00552779	0.000168458	0.000240884	0	0	0	
0.0258333	0.0110213	-0.00648443	0.00015136	0.000188255	0	0	0	
0.026	-0.0101273	0.0121304	0.000161417	0.000166392	0	0	0	
0.0261667	0.00105332	-0.0096878	0.000170004	0.000175722	0	0	0	
0.0263333	-0.00256355	0.00315012	0.000126282	0.000181367	0	0	0	
0.0265	0.00734122	6.45254E-05	0.00011315	0.000158945	0	0	0	
0.0266667	-0.00774307	0.00240848	0.000125855	0.000100448	0	0	0	
0.0268333	0.00717847	-0.00912838	0.000159695	0.000110365	0	0	0	
0.027	-0.00368543	0.00545828	0.000147619	0.00013008	0	0	0	
0.0271667	0.00261478	-0.000383752	0.000145387	0.000144529	0	0	0	
0.0273333	-0.00403328	0.00320921	0.000110955	0.000111059	0	0	0	
0.0275	0.00256995	-0.0130917	9.39489E-05	0.000125719	0	0	0	
0.0276667	-0.00478088	0.0131433	9.22626E-05	0.000207718	0	0	0	
0.0278333	0.0115165	-0.00667537	0.000147599	0.000264291	0	0	0	
0.028	-0.0100946	-0.00178808	0.000181793	0.000209173	0	0	0	
0.0281667	0.00137379	-0.000616101	0.000187588	0.000132474	0	0	0	
0.0283333	-0.000566236	0.00610787	0.000129093	7.36365E-05	0	0	0	
0.0285	0.00605822	-0.0103781	9.55008E-05	0.000112718	0	0	0	
0.0286667	-0.00546375	0.0037761	9.39719E-05	0.000136041	0	0	0	
0.0288333	0.00702446	-0.00336263	0.000135925	0.000176132	0	0	0	
0.029	-0.00881636	0.0136218	0.000147308	0.000233032	0	0	0	
0.0291667	0.00116176	-0.0177594	0.000154511	0.00027932	0	0	0	
0.0293333	0.000209422	0.016867	0.000111064	0.000327398	0	0	0	
0.0295	0.0122338	-0.0228768	0.000132923	0.000347807	0	0	0	
0.0296667	-0.0127145	0.0178194	0.000181566	0.000377818	0	0	0	
0.0298333	0.00393487	-0.00374734	0.000212681	0.000347643	0	0	0	
0.03	0.0028086	4.29458E-05	0.000165885	0.000234925	0	0	0	
0.0301667	0.000997859	-0.00881591	8.55448E-05	0.000143236	0	0	0	
0.0303333	-0.00554896	0.00905229	5.62182E-05	0.000136284	0	0	0	
0.0305	0.00529107	-0.00433812	8.04331E-05	0.000180821	0	0	0	
0.0306667	-0.00125705	0.00770495	9.41274E-05	0.000283601	0	0	0	
0.0308333	0.00523218	-0.0097372	0.000128809	0.000306786	0	0	0	
0.031	-0.00465171	0.00985598	0.000127225	0.000302871	0	0	0	
0.0311667	0.00234756	-0.0263029	0.000121895	0.000298784	0	0	0	
0.0313333	-0.00361063	0.0223563	0.000102763	0.0003467	0	0	0	
0.0315	0.00820894	0.00146245	0.000104516	0.000372908	0	0	0	
0.0316667	-0.00759846	-0.00248246	0.000129684	0.000250089	0	0	0	
0.0318333	0.00552607	-0.0147086	0.000138342	0.000214526	0	0	0	
0.032	-0.00555896	0.00890299	0.000130567	0.000194586	0	0	0	
0.0321667	0.00370689	0.00331006	0.00010763	0.000232672	0	0	0	
0.0323333	0.00409007	0.00840511	0.000109227	0.000226242	0	0	0	
0.0325	-0.000860641	-0.0220234	9.17492E-05	0.000242918	0	0	0	
0.0326667	-0.0111628	0.006354	0.000147458	0.000306594	0	0	0	
0.0328333	0.0103379	0.00582601	0.0001759	0.000230893	0	0	0	
0.033	0.000349305	6.79374E-05	0.000211513	0.000216917	0	0	0	
0.0331667	-0.00125256	-0.00615539	0.000129266	0.000169001	0	0	0	
0.0333333	-0.0118609	0.0154476	0.000151798	0.000234805	0	0	0	
0.0335	0.020956	-0.015697	0.000188072	0.000248119	0	0	0	
0.0336667	-0.00414087	-0.00195601	0.000339921	0.000269453	0	0	0	
0.0338333	-0.0168615	0.00827123	0.000393089	0.000213092	0	0	0	
0.034	0.00335834	0.00775567	0.000366017	0.000174905	0	0	0	
0.0341667	0.0188814	-0.00184622	0.000331077	0.000158224	0	0	0	
0.0343333	-0.0143877	-0.009778	0.000284881	0.000184796	0	0	0	
0.0345	-0.00230054	-0.00872731	0.000304349	0.000243303	0	0	0	
0.0346667	-0.00185273	0.023424	0.000202075	0.000264983	0	0	0	
0.0348333	0.0186793	-0.008573	0.000202584	0.000354214	0	0	0	
0.035	-0.01633	0.00615803	0.000226312	0.000326873	0	0	0	
0.0351667	-0.00562698	-0.0101798	0.000345947	0.000289929	0	0	0	
0.0353333	0.00523063	0.00593362	0.000272792	0.000205119	0	0	0	
0.0355	0.0165133	-0.00679498	0.000315659	0.000174139	0	0	0	
0.0356667	-0.015957	0.0143084	0.000274386	0.000184869	0	0	0	
0.0358333	-0.00275563	-0.0112567	0.000331432	0.000226424	0	0	0	
0.036	0.00341176	0.00621013	0.000212131	0.000243952	0	0	0	
0.0361667	0.00801756	-0.00770555	0.000212114	0.000264573	0	0	0	
0.0363333	-0.0090865	0.0145098	0.000174473	0.000235991	0	0	0	
0.0365	0.00433014	-0.0160322	0.000195101	0.000245717	0	0	0	
0.0366667	-0.00265102	0.0162738	0.000120729	0.000280575	0	0	0	
0.0368333	0.00323944	-0.0105883	9.68976E-05	0.00030748	0	0	0	
0.037	-0.00119692	0.00499633	7.87761E-05	0.000285462	0	0	0	
0.0371667	-0.000318794	0.00323939	6.50184E-05	0.000186325	0	0	0	
0.0373333	0.00375088	-0.00506929	6.80292E-05	0.000119531	0	0	0	
0.0375	-0.00209659	-0.00237275	5.42069E-05	8.4967E-05	0	0	0	
0.0376667	-0.00871915	0.00995092	0.000105884	0.00012871	0	0	0	
0.0378333	0.0133202	-0.0065895	0.000169207	0.000143879	0	0	0	
0.038	-0.0105563	0.00876844	0.000244282	0.00017316	0	0	0	
0.0381667	0.0096105	-0.00941996	0.00023641	0.000155682	0	0	0	
0.0383333	-0.000992865	-0.000817278	0.000207905	0.000218316	0	0	0	
0.0385	-0.00840917	0.00411536	0.000153564	0.000244721	0	0	0	
0.0386667	-0.00517938	0.0124432	0.000219954	0.000305467	0	0	0	
0.0388333	0.025201	-0.021774	0.000365823	0.000367126	0	0	0	
0.039	-0.0237929	0.0111156	0.000503712	0.000375301	0	0	0	
0.0391667	0.00644578	0.00816036	0.000475028	0.00040829	0	0	0	
0.0393333	0.00667513	-0.00830652	0.00032809	0.000345182	0	0	0	
0.0395	-0.00469516	-0.00940851	0.000206428	0.000325965	0	0	0	
0.0396667	-0.00492528	0.00838478	0.000194628	0.000283242	0	0	0	
0.0398333	1.43948E-05	0.00650684	0.000168996	0.000204584	0	0	0	
0.04	0.0088672	0.00107146	0.000165043	0.000232792	0	0	0	
0.0401667	0.00318512	-0.0204574	0.000201911	0.000248398	0	0	0	
0.0403333	-0.0160826	0.0179498	0.000278941	0.000344095	0	0	0	
0.0405	0.00547206	-0.00219241	0.000300244	0.000394915	0	0	0	
0.0406667	0.0110319	0.00319609	0.000257485	0.000330308	0	0	0	
0.0408333	0.00319337	-0.0174948	0.000268259	0.000368931	0	0	0	
0.041	-0.0250531	0.0134986	0.000365333	0.000330278	0	0	0	
0.0411667	0.0170414	-0.00333382	0.000418073	0.000338453	0	0	0	
0.0413333	0.000453989	0.00370048	0.000378027	0.000188011	0	0	0	
0.0415	0.000874619	-0.00721971	0.000235735	0.000112892	0	0	0	
0.0416667	-0.00621346	0.00922797	0.000180148	9.84191E-05	0	0	0	
0.0418333	0.00689929	-0.0112585	0.000134627	0.000150541	0	0	0	
0.042	-0.00285833	0.0158706	0.000142845	0.000203453	0	0	0	
0.0421667	-0.00130977	-0.0161092	9.34442E-05	0.00025567	0	0	0	
0.0423333	-0.00115133	0.00843017	9.81208E-05	0.000279317	0	0	0	
0.0425	0.00693092	0.00204577	0.000115589	0.000264462	0	0	0	
0.0426667	-0.00374894	0.000180176	0.00012897	0.000200878	0	0	0	
0.0428333	0.000764097	-0.0112054	9.63819E-05	0.000241084	0	0	0	
0.043	-0.00676888	0.0203279	7.47292E-05	0.000304361	0	0	0	
0.0431667	0.00738697	-0.0203634	8.61071E-05	0.000410923	0	0	0	
0.0433333	-0.00188699	0.0211256	0.000108199	0.000406355	0	0	0	
0.0435	0.0061351	-0.0161627	0.000125203	0.000398791	0	0	0	
0.0436667	-0.00874695	0.00129812	0.000132055	0.00031963	0	0	0	
0.0438333	0.00318523	0.00285049	0.000142232	0.000201814	0	0	0	
0.044	-0.00228165	0.00414563	0.000123463	0.000129227	0	0	0	
0.0441667	0.00680742	-0.00395242	0.000125247	0.000130185	0	0	0	
0.0443333	-0.00596288	0.00447419	0.000152587	0.000210416	0	0	0	
0.0445	0.00519733	-0.0122945	0.000163614	0.000266196	0	0	0	
0.0446667	-0.00349413	0.0109877	0.000138576	0.000266121	0	0	0	
0.0448333	-0.000546649	-0.00533966	8.28073E-05	0.000228171	0	0	0	
0.045	0.00115741	0.00596127	5.06343E-05	0.000158251	0	0	0	
0.0451667	0.00499652	-0.00530219	5.50932E-05	0.00012783	0	0	0	
0.0453333	-0.00622795	-0.000425402	8.3147E-05	0.000123664	0	0	0	
0.0455	0.00304057	0.00230435	0.00010534	9.56509E-05	0	0	0	
0.0456667	-0.00446174	0.00550115	0.000104642	0.000141096	0	0	0	
0.0458333	0.0120868	-0.00371675	0.000111459	0.000138959	0	0	0	
0.046	-0.0114852	-5.9651E-05	0.000165666	0.000151654	0	0	0	
0.0461667	0.00311495	-0.00280924	0.000222661	0.00010566	0	0	0	
0.0463333	-0.00204527	0.0143938	0.000206066	0.000115707	0	0	0	
0.0465	0.0102594	-0.0119827	0.000224509	0.000181471	0	0	0	
0.0466667	-0.0108551	0.00437505	0.000218496	0.000214648	0	0	0	
0.0468333	0.00432958	0.0004884	0.000231107	0.000177081	0	0	0	
0.047	-0.00223003	0.00226263	0.000154634	0.000131698	0	0	0	
0.0471667	0.00410257	-0.00662884	0.000105216	0.000138598	0	0	0	
0.0473333	-0.00489409	0.0184408	9.37471E-05	0.000210634	0	0	0	
0.0475	0.00528726	-0.0196597	9.95719E-05	0.000276634	0	0	0	
0.0476667	-0.00522993	-0.000351259	9.77785E-05	0.000326236	0	0	0	
0.0478333	0.00717308	0.00543422	0.000106735	0.000257764	0	0	0	
0.048	-0.00872277	0.0103076	0.000129852	0.000210525	0	0	0	
0.0481667	0.00732024	-0.00154368	0.000144914	0.000159108	0	0	0	
0.0483333	0.00096085	-0.0219579	0.000130654	0.00024067	0	0	0	
0.0485	-0.000584744	0.00827745	0.000135948	0.000325829	0	0	0	
0.0486667	-0.0114578	0.0232692	0.000204455	0.000488186	0	0	0	
0.0488333	0.0193004	-0.0186038	0.000272827	0.000494192	0	0	0	
0.049	-0.00974284	-0.00887273	0.000308096	0.000525389	0	0	0	
0.0491667	-0.00368924	0.0109219	0.000255559	0.000366574	0	0	0	
0.0493333	0.00352078	0.0105807	0.000204475	0.000430444	0	0	0	
0.0495	0.0104015	-0.00208877	0.000204404	0.000285894	0	0	0	
0.0496667	-0.0100929	-0.0151219	0.000202231	0.000390144	0	0	0	
0.0498333	-0.00545016	0.000359798	0.000254158	0.000254735	0	0	0	
0.05	0.00281832	0.0210112	0.000209675	0.000360396	0	0	0	
0.0501667	0.0145052	-0.00493504	0.000336819	0.00024917	0	0	0	
0.0503333	-0.0163453	-0.0105741	0.000330639	0.000290978	0	0	0	
0.0505	-0.00218765	0.00476647	0.000393543	0.000216517	0	0	0	
0.0506667	0.00618299	0.00942961	0.000220887	0.000216236	0	0	0	
0.0508333	0.0127688	-0.00989127	0.000279391	0.000200326	0	0	0	
0.051	-0.016564	0.0103374	0.000250482	0.000213327	0	0	0	
0.0511667	-0.00611137	-0.0019809	0.000365966	0.000183557	0	0	0	
0.0513333	0.0083334	-0.00173852	0.000262766	0.000140073	0	0	0	
0.0515	0.0124972	-0.00298368	0.000279734	6.72254E-05	0	0	0	
0.0516667	-0.0136896	0.00335193	0.00023161	9.89292E-05	0	0	0	
0.0518333	-0.000841698	0.00724002	0.000250436	0.000110572	0	0	0	
0.052	0.000997401	0.00266936	0.000166987	0.00021941	0	0	0	
0.0521667	0.00635994	-0.00638237	0.000171795	0.000282975	0	0	0	
0.0523333	-0.00686793	-0.000147613	0.000167987	0.000295857	0	0	0	
0.0525	0.00577806	-0.00456448	0.000191512	0.000258713	0	0	0	
0.0526667	-0.0059759	0.0187964	0.000140934	0.000209774	0	0	0	
0.0528333	0.00743979	-0.00751739	0.000118207	0.000252027	0	0	0	
0.053	-0.00718519	-0.00128826	0.000128583	0.000206539	0	0	0	
0.0531667	0.00431897	-0.00429737	0.000131193	0.00021468	0	0	0	
0.0533333	-0.00130857	0.00450634	0.000114516	0.000161391	0	0	0	
0.0535	0.000103912	0.00306395	8.33624E-05	0.000182632	0	0	0	
0.0536667	-0.00230667	0.000640424	6.89994E-05	0.000131442	0	0	0	
0.0538333	0.00534054	-0.00486543	7.24452E-05	0.000127649	0	0	0	
0.054	-0.00423315	0.00273077	8.98051E-05	0.000106489	0	0	0	
0.0541667	0.00225474	-0.00346516	9.53579E-05	0.000104016	0	0	0	
0.0543333	-0.00324516	0.00102193	8.28278E-05	8.98166E-05	0	0	0	
0.0545	-0.000932634	0.00745772	6.2013E-05	0.000111519	0	0	0	
0.0546667	0.00495462	-0.00388768	6.59811E-05	0.000149086	0	0	0	
0.0548333	0.00140731	-0.0178294	0.000187088	0.000306228	0	0	0	
0.055	-0.0115784	0.0191095	0.000297731	0.000351848	0	0	0	
0.0551667	0.00756004	-0.00112083	0.000312546	0.000455226	0	0	0	
0.0553333	0.00173005	0.000390109	0.000279089	0.00038457	0	0	0	
0.0555	-0.00475427	-0.00947387	0.000176453	0.000329037	0	0	0	
0.0556667	0.0028167	-4.48394E-06	0.00019747	0.000180731	0	0	0	
0.0558333	-0.00173078	0.00968236	0.000157247	0.000114393	0	0	0	
0.056	0.00340209	-0.00158455	0.000158688	0.000124117	0	0	0	
0.0561667	-0.0012467	-0.0134979	0.000111347	0.000147222	0	0	0	
0.0563333	-0.00982081	0.0210699	9.03792E-05	0.000222464	0	0	0	
0.0565	0.0130383	-0.0148267	0.000143366	0.000283023	0	0	0	
0.0566667	-0.00245997	-0.00215139	0.000176304	0.000298621	0	0	0	
0.0568333	-0.0051967	0.00774272	0.000154583	0.000222029	0	0	0	
0.057	-0.000165394	0.00886718	0.00013245	0.000156898	0	0	0	
0.0571667	0.00403539	-0.0121229	0.000131634	0.000165491	0	0	0	
0.0573333	-0.00490993	-0.00240628	0.000143342	0.000227852	0	0	0	
0.0575	0.00319297	0.00114989	0.000117137	0.000190765	0	0	0	
0.0576667	-0.00135019	0.0122661	7.82572E-05	0.000196323	0	0	0	
0.0578333	0.00387655	-0.0119057	8.49845E-05	0.000175775	0	0	0	
0.058	-0.00966285	0.0100918	0.000111481	0.000233008	0	0	0	
0.0581667	0.0052498	-0.00816389	0.000137723	0.00021192	0	0	0	
0.0583333	-0.0006244	0.00589447	0.000135156	0.00016726	0	0	0	
0.0585	0.00402055	-0.0118337	0.000102628	0.00016414	0	0	0	
0.0586667	-0.0107743	0.0125839	0.000126357	0.000187035	0	0	0	
0.0588333	0.0104287	-0.00936486	0.000170955	0.000225509	0	0	0	
0.059	-0.0030947	0.00879468	0.00019626	0.000222621	0	0	0	
0.0591667	-0.00144375	-0.00787037	0.000139606	0.00018927	0	0	0	
0.0593333	-0.00310225	-2.1832E-05	7.61907E-05	0.000197032	0	0	0	
0.0595	0.0059735	-0.00990736	5.95265E-05	0.000175282	0	0	0	
0.0596667	-0.00465605	0.0191034	0.000102471	0.000238696	0	0	0	
0.0598333	0.00676351	-0.016424	0.000163272	0.000280459	0	0	0	
0.06	-0.00906697	0.0100862	0.000206958	0.000344909	0	0	0	
0.0601667	0.00522601	-0.0140048	0.000198863	0.000337541	0	0	0	
0.0603333	-0.00402893	0.0150109	0.000147562	0.000303705	0	0	0	
0.0605	0.00618457	-0.0139959	0.000107583	0.000285766	0	0	0	
0.0606667	-0.00389651	0.0115123	0.000103198	0.000270897	0	0	0	
0.0608333	0.00419382	-0.00735399	0.000123014	0.000272639	0	0	0	
0.061	-0.00658988	0.00346378	0.000164827	0.000282859	0	0	0	
0.0611667	0.00438746	-0.00432815	0.000179346	0.00027932	0	0	0	
0.0613333	-0.00095216	0.0137588	0.000158399	0.000272456	0	0	0	
0.0615	0.000987135	-0.0245106	0.000109693	0.000289149	0	0	0	
0.0616667	-0.00154941	0.0224496	7.9971E-05	0.00036277	0	0	0	
0.0618333	0.00254032	-0.00883682	0.000108232	0.000386527	0	0	0	
0.062	-0.00434076	0.00934796	0.000126846	0.00035124	0	0	0	
0.0621667	0.00725685	-0.0138745	0.000162091	0.000275797	0	0	0	
0.0623333	-0.0110799	0.00054079	0.00018482	0.000213599	0	0	0	
0.0625	0.0092523	0.00768095	0.00019312	0.00015464	0	0	0	
0.0626667	0.00279763	0.0121632	0.000213235	0.000242178	0	0	0	
0.0628333	-0.00588442	-0.0266661	0.000166279	0.000418336	0	0	0	
0.063	-0.00849922	0.013774	0.00020626	0.000510684	0	0	0	
0.0631667	0.0142648	0.00583921	0.000217506	0.000431759	0	0	0	
0.0633333	-0.00315265	0.00401454	0.000242323	0.000285055	0	0	0	
0.0635	0.00203085	-0.0234889	0.000168857	0.000317882	0	0	0	
0.0636667	-0.0137809	0.00525167	0.000182136	0.000319867	0	0	0	
0.0638333	0.0105103	0.0185571	0.000204826	0.000318414	0	0	0	
0.064	0.00582028	0.00455478	0.000252894	0.000360601	0	0	0	
0.0641667	-0.00448741	-0.0314571	0.000184555	0.000410918	0	0	0	
0.0643333	-0.00979102	0.0108837	0.000231992	0.000501652	0	0	0	
0.0645	0.00800824	0.0124004	0.000227238	0.00044002	0	0	0	
0.0646667	0.00737367	-0.0140937	0.000233497	0.000377779	0	0	0	
0.0648333	-0.0085822	0.0108896	0.000168345	0.00028589	0	0	0	
0.065	-0.00853259	-0.00219107	0.000203484	0.000256423	0	0	0	
0.0651667	0.0114626	-0.00694308	0.000216446	0.000222815	0	0	0	
0.0653333	0.00988213	-0.00227399	0.000301055	0.000172984	0	0	0	
0.0655	-0.0156927	-0.0131332	0.000278878	0.000171211	0	0	0	
0.0656667	-0.00913796	0.0255134	0.000392466	0.000227203	0	0	0	
0.0658333	0.0233888	0.00163056	0.000391294	0.000411954	0	0	0	
0.066	-0.00582545	-0.00696579	0.000415631	0.000346989	0	0	0	
0.0661667	-0.00467761	-0.022401	0.000302205	0.00039983	0	0	0	
0.0663333	-0.0111577	0.00841564	0.000277539	0.000282943	0	0	0	
0.0665	0.0164382	0.0111679	0.000268566	0.000327209	0	0	0	
0.0666667	0.00548486	0.0101191	0.000317208	0.000346691	0	0	0	
0.0668333	-0.0147777	-0.0138829	0.000258558	0.000355227	0	0	0	
0.067	-0.00300406	-0.0090369	0.000310529	0.000374623	0	0	0	
0.0671667	0.016538	0.000439378	0.000349228	0.00027457	0	0	0	
0.0673333	-0.00639134	0.0117433	0.00036101	0.000331105	0	0	0	
0.0675	-0.00606209	0.00124653	0.000260708	0.000283083	0	0	0	
0.0676667	0.00360302	-0.00441473	0.000153749	0.000222275	0	0	0	
0.0678333	0.00839644	-0.00168821	0.000178101	8.30949E-05	0	0	0	
0.068	-0.0124484	0.00291144	0.000194649	6.65512E-05	0	0	0	
0.0681667	0.00206577	-0.00648857	0.000220106	9.14615E-05	0	0	0	
0.0683333	0.00659996	0.00380653	0.000142844	0.000121953	0	0	0	
0.0685	0.00244262	0.00568599	0.000157506	0.00013956	0	0	0	
0.0686667	-0.0102304	-0.00164925	0.000166588	0.000115643	0	0	0	
0.0688333	0.0047864	-0.0109827	0.000214243	0.000150384	0	0	0	
0.069	-0.00537606	0.0126596	0.000196935	0.000172181	0	0	0	
0.0691667	0.0103959	-0.00651702	0.000209009	0.000220679	0	0	0	
0.0693333	-0.00603607	0.00638006	0.000198287	0.000188903	0	0	0	
0.0695	-0.00197562	-0.00941493	0.000155607	0.000172708	0	0	0	
0.0696667	0.000569318	0.0073359	9.99806E-05	0.000177649	0	0	0	
0.0698333	0.00444862	-0.000479816	0.000112184	0.000173974	0	0	0	
0.07	-0.00349232	0.00156751	0.000158462	0.000166451	0	0	0	
0.0701667	0.00517196	-0.00952494	0.000181453	0.000172862	0	0	0	
0.0703333	-0.0137356	0.0174689	0.000165857	0.000199798	0	0	0	
0.0705	0.014196	-0.0125416	0.000203775	0.000306016	0	0	0	
0.0706667	-0.00362366	-0.00488349	0.000304466	0.000407838	0	0	0	
0.0708333	-0.00658512	0.0118334	0.00036805	0.000381004	0	0	0	
0.071	0.00209385	0.0096558	0.000326806	0.000376498	0	0	0	
0.0711667	0.0145018	-0.0151021	0.000327583	0.000270296	0	0	0	
0.0713333	-0.0175375	0.00260739	0.000318938	0.000324625	0	0	0	
0.0715	0.00724272	-0.0104356	0.000332723	0.000232631	0	0	0	
0.0716667	-0.0111421	0.0251667	0.000240212	0.000294757	0	0	0	
0.0718333	0.0196121	-0.0113379	0.00024249	0.000299015	0	0	0	
0.072	-0.0126391	-0.0037704	0.000274156	0.00028925	0	0	0	
0.0721667	-9.7167E-05	-0.00231223	0.000262833	0.00019056	0	0	0	
0.0723333	-0.000179265	0.0165579	0.000218896	0.000171958	0	0	0	
0.0725	0.00831515	-0.02657	0.000210712	0.000256324	0	0	0	
0.0726667	-0.0109747	0.025062	0.000226729	0.000377342	0	0	0	
0.0728333	0.00674239	-0.00100735	0.000221157	0.000397158	0	0	0	
0.073	-0.00284629	-0.00880728	0.00017223	0.000287533	0	0	0	
0.0731667	-0.00213548	-0.0104783	0.000173975	0.000287793	0	0	0	
0.0733333	0.00284367	0.0192809	0.000169475	0.000285878	0	0	0	
0.0735	0.00565948	-0.00256175	0.000154136	0.000343928	0	0	0	
0.0736667	-0.00953574	-0.0128004	0.000143735	0.000226928	0	0	0	
0.0738333	0.00739387	0.0112561	0.000139568	0.000210292	0	0	0	
0.074	-0.00836138	-0.00557614	0.000159053	0.000187957	0	0	0	
0.0741667	0.0025893	0.00670697	0.00014679	0.000210887	0	0	0	
0.0743333	0.00367471	-0.00215865	0.000118871	0.000174064	0	0	0	
0.0745	0.00351955	-0.0090197	0.000106719	0.000162633	0	0	0	
0.0746667	-0.0132025	0.0162574	0.000156391	0.000187045	0	0	0	
0.0748333	0.012399	-0.0151078	0.000248243	0.00024263	0	0	0	
0.075	-0.00899521	0.00360495	0.000290808	0.000365699	0	0	0	
0.0751667	0.00645792	-0.000100139	0.00026063	0.0003723	0	0	0	
0.0753333	0.000525158	0.00952459	0.000173613	0.00030974	0	0	0	
0.0755	-0.00839618	-0.0132225	0.000122181	0.000222535	0	0	0	
0.0756667	0.00285734	0.0125549	0.000116041	0.000210153	0	0	0	
0.0758333	0.00675873	-0.0137396	0.000225616	0.000246069	0	0	0	
0.076	-0.012265	0.0121634	0.000344417	0.000245936	0	0	0	
0.0761667	0.0103787	0.000561128	0.000361805	0.000220321	0	0	0	
0.0763333	0.000514603	-0.00263144	0.000276624	0.000147884	0	0	0	
0.0765	-0.00491608	-0.010618	0.000149375	0.000162491	0	0	0	
0.0766667	-0.00295016	0.0155415	9.11226E-05	0.000193086	0	0	0	
0.0768333	-0.00144842	-0.00540705	6.04159E-05	0.000255046	0	0	0	
0.077	0.00911103	0.0089661	6.86065E-05	0.000242537	0	0	0	
0.0771667	-0.000722503	-0.0118521	0.000163335	0.000229674	0	0	0	
0.0773333	-0.0133439	0.00210427	0.000263173	0.000214475	0	0	0	
0.0775	0.0154164	0.00445674	0.00032761	0.000153404	0	0	0	
0.0776667	-0.00467944	0.008225	0.000284469	0.000214157	0	0	0	
0.0778333	-0.000307332	-0.0121645	0.000174605	0.000283067	0	0	0	
0.078	0.00602137	0.00939517	9.60175E-05	0.000319361	0	0	0	
0.0781667	-0.00909159	0.00199302	7.80211E-05	0.000239647	0	0	0	
0.0783333	0.00196545	-0.00192095	0.000140147	0.000122452	0	0	0	
0.0785	0.00538743	-0.00507996	0.000212832	0.000150737	0	0	0	
0.0786667	-0.00179497	0.00806032	0.00020062	0.000194619	0	0	0	
0.0788333	-0.00224004	0.00348989	0.000152004	0.00021509	0	0	0	
0.079	0.00289676	-0.0107341	7.32568E-05	0.00017479	0	0	0	
0.0791667	0.000379383	0.0034262	5.29798E-05	0.000205892	0	0	0	
0.0793333	-0.000852937	0.0219207	5.14931E-05	0.000368234	0	0	0	
0.0795	0.00303283	-0.0181411	5.91373E-05	0.00044192	0	0	0	
0.0796667	-0.0103423	-0.00889937	0.000102381	0.000430575	0	0	0	
0.0798333	0.00716346	0.0113256	0.000137471	0.000304366	0	0	0	
0.08	0.000503545	0.00439794	0.00015974	0.000263845	0	0	0	
0.0801667	0.00312042	0.00374498	0.000112584	0.000259114	0	0	0	
0.0803333	-0.0116803	-0.0176102	0.000102738	0.000360541	0	0	0	
0.0805	0.00522276	-0.000266871	0.000133761	0.00037915	0	0	0	
0.0806667	1.55692E-05	0.0214571	0.000158525	0.000458893	0	0	0	
0.0808333	0.0140588	-0.0194523	0.000238311	0.000401201	0	0	0	
0.081	-0.0160856	-0.00242526	0.000258582	0.000466798	0	0	0	
0.0811667	-0.00536289	0.0119181	0.00031959	0.000368662	0	0	0	
0.0813333	0.00875228	0.00254268	0.000236679	0.000393043	0	0	0	
0.0815	0.015941	-0.0283594	0.000385375	0.000477788	0	0	0	
0.0816667	-0.0267037	0.0202742	0.000454157	0.000526196	0	0	0	
0.0818333	0.00251754	-0.000249333	0.000537959	0.000538243	0	0	0	
0.082	0.0161133	0.00336224	0.000369839	0.000315929	0	0	0	
0.0821667	0.00201584	-0.0135563	0.000355644	0.00023497	0	0	0	
0.0823333	-0.0183883	-0.0109206	0.000374119	0.000239656	0	0	0	
0.0825	0.000752941	0.0211929	0.000354904	0.000290789	0	0	0	
0.0826667	0.0175286	0.00761865	0.000267316	0.000467311	0	0	0	
0.0828333	-0.00105888	-0.0247786	0.000248458	0.000479015	0	0	0	
0.083	-0.0240535	0.00867501	0.000386443	0.000499465	0	0	0	
0.0831667	0.014454	-0.00270185	0.000423845	0.000307442	0	0	0	
0.0833333	0.0121521	0.00193933	0.000444554	0.000174259	0	0	0	
0.0835	-0.00860776	-0.00278636	0.00035478	0.000112812	0	0	0	
0.0836667	-0.0187748	0.00818536	0.000508679	0.000148853	0	0	0	
0.0838333	0.0166799	-0.0143092	0.000462255	0.000195106	0	0	0	
0.084	0.0105823	0.00703031	0.000481696	0.000222174	0	0	0	
0.0841667	-0.0108448	-0.00485516	0.000304313	0.000174806	0	0	0	
0.0843333	-0.0110808	0.00228868	0.000377822	0.00012284	0	0	0	
0.0845	0.00961118	-0.000697696	0.000338249	7.21447E-05	0	0	0	
0.0846667	0.00350001	0.00853197	0.00028642	9.66837E-05	0	0	0	
0.0848333	-0.00385887	-0.0195885	0.000145751	0.000168786	0	0	0	
0.085	0.000827454	0.0120976	0.000109408	0.000254698	0	0	0	
0.0851667	-0.00149386	-0.0107057	0.000107809	0.000270726	0	0	0	
0.0853333	-0.00129195	0.00941344	9.80553E-05	0.00024767	0	0	0	
0.0855	0.00584731	-0.000647505	7.23201E-05	0.000194968	0	0	0	
0.0856667	-0.00358494	-0.00167812	9.004E-05	0.000148581	0	0	0	
0.0858333	-0.00188863	-0.012683	8.29543E-05	0.000217864	0	0	0	
0.086	-0.000123684	0.0156148	0.000116065	0.000320551	0	0	0	
0.0861667	0.00763967	-0.0102763	0.000140973	0.000388204	0	0	0	
0.0863333	-0.00829788	0.00220175	0.000169437	0.000314518	0	0	0	
0.0865	-0.00186688	0.0119585	0.000165157	0.000211223	0	0	0	
0.0866667	0.0141376	-0.0248101	0.000138501	0.000236237	0	0	0	
0.0868333	-0.00864263	0.00181308	0.000226112	0.000317961	0	0	0	
0.087	-0.0112068	0.0232316	0.000353223	0.000454235	0	0	0	
0.0871667	0.0149695	-0.0199532	0.00038508	0.000460787	0	0	0	
0.0873333	-0.00119893	-0.000955474	0.000351205	0.000427276	0	0	0	
0.0875	-0.000779066	0.00318548	0.000209929	0.000254953	0	0	0	
0.0876667	-0.00620298	-0.00692791	0.00017231	0.00017795	0	0	0	
0.0878333	-0.000305519	0.0116763	0.000123629	0.000149948	0	0	0	
0.088	0.0122785	-0.00109377	0.000185471	0.000218272	0	0	0	
0.0881667	-0.00314849	-0.0172676	0.000203002	0.000300426	0	0	0	
0.0883333	-0.0172703	0.00560935	0.00032038	0.000291745	0	0	0	
0.0885	0.020406	0.00289737	0.000351825	0.000232631	0	0	0	
0.0886667	0.000421294	-0.00286277	0.000366032	0.000133058	0	0	0	
0.0888333	-0.0120446	0.00373219	0.000240192	7.78154E-05	0	0	0	
0.089	-0.00186228	0.00385754	0.000245962	7.87793E-05	0	0	0	
0.0891667	0.011951	-0.0112306	0.000274472	0.000109036	0	0	0	
0.0893333	0.000345007	0.00371682	0.00026542	0.000135761	0	0	0	
0.0895	-0.00741955	0.00485828	0.000155691	0.000166674	0	0	0	
0.0896667	-0.00131722	7.12969E-05	0.000130106	0.000119007	0	0	0	
0.0898333	0.0062814	-0.00513347	0.00017213	0.000106746	0	0	0	
0.09	-0.00434663	0.00724258	0.000193285	0.000100299	0	0	0	
0.0901667	0.00296189	-0.0112829	0.000155234	0.000142685	0	0	0	
0.0903333	-0.00256489	0.0102037	0.000126578	0.000180266	0	0	0	
0.0905	0.00292696	-0.00486026	0.000148352	0.000182411	0	0	0	
0.0906667	-0.00306565	0.00235351	0.000155891	0.00014297	0	0	0	
0.0908333	-0.00503553	-0.00246119	0.000123002	9.04677E-05	0	0	0	
0.091	0.0103349	0.0114335	0.000113007	0.000129171	0	0	0	
0.0911667	-0.00574691	-0.0216594	0.000160915	0.000227454	0	0	0	
0.0913333	-0.00099964	-0.000617025	0.000255764	0.000274256	0	0	0	
0.0915	0.00807884	0.0282604	0.00031701	0.000292725	0	0	0	
0.0916667	-0.0199729	-0.00889168	0.000346714	0.000367391	0	0	0	
0.0918333	0.0210901	-0.0388484	0.000363227	0.000611291	0	0	0	
0.092	-0.00295292	0.0523415	0.00034854	0.000784843	0	0	0	
0.0921667	-0.0163065	-0.0375054	0.000354408	0.00089942	0	0	0	
0.0923333	0.022758	0.0266117	0.000336663	0.00084927	0	0	0	
0.0925	-0.017588	-0.00127814	0.000431531	0.000737944	0	0	0	
0.0926667	-0.0146807	-0.0828854	0.000613374	0.00102558	0	0	0	
0.0928333	0.0387682	0.133358	0.000750873	0.00135072	0	0	0	
0.093	-0.0248828	-0.0929046	0.00074681	0.00230468	0	0	0	
0.0931667	-0.018204	-0.0165932	0.000723055	0.00326236	0	0	0	
0.0933333	0.0286329	0.0997062	0.000645255	0.00419458	0	0	0	
0.0935	-0.00532704	-0.15046	0.000628819	0.00409382	0	0	0	
0.0936667	-0.00892027	0.108933	0.000463899	0.00326398	0	0	0	
0.0938333	-0.00482799	-0.00644562	0.000393701	0.00292971	0	0	0	
0.094	0.00836395	-0.100601	0.000247317	0.00339857	0	0	0	
0.0941667	-0.0012958	0.111698	0.000224167	0.00374186	0	0	0	
0.0943333	0.0230852	-0.0408575	0.000202487	0.00294132	0	0	0	
0.0945	-0.0289196	-0.0871085	0.000454143	0.00254315	0	0	0	
0.0946667	-0.0818157	0.190037	0.0010228	0.00250379	0	0	0	
0.0948333	0.18834	-0.209576	0.00175622	0.00334925	0	0	0	
0.095	-0.0795237	0.175975	0.00254165	0.00352827	0	0	0	
0.0951667	-0.0714563	-0.129218	0.0027604	0.00360493	0	0	0	
0.0953333	0.0687296	0.0535224	0.00236649	0.00321946	0	0	0	
0.0955	-0.0176874	-0.0156302	0.00167558	0.00274102	0	0	0	
0.0956667	0.025667	0.0666181	0.000925696	0.00279586	0	0	0	
0.0958333	0.0133773	-0.114159	0.00100707	0.00310058	0	0	0	
0.096	-0.0891969	0.0800528	0.00173793	0.00314938	0	0	0	
0.0961667	0.0814303	-0.0171636	0.00222537	0.00255805	0	0	0	
0.0963333	0.0238143	-0.00341977	0.00235618	0.00194183	0	0	0	
0.0965	-0.0558387	-0.041394	0.00169671	0.00179905	0	0	0	
0.0966667	-0.0147825	0.105907	0.00133069	0.00223646	0	0	0	
0.0968333	0.0345368	-0.112833	0.000850537	0.00284803	0	0	0	
0.097	0.0205123	0.0527813	0.000728257	0.00280515	0	0	0	
0.0971667	-0.0296343	-0.0105958	0.000673414	0.00208791	0	0	0	
0.0973333	-0.0187107	0.0506598	0.000669021	0.00115174	0	0	0	
0.0975	0.023984	-0.0544449	0.000485822	0.000907277	0	0	0	
0.0976667	-0.00471764	-0.0398407	0.000414541	0.000989274	0	0	0	
0.0978333	0.014319	0.0835591	0.000398237	0.00147517	0	0	0	
0.098	-0.0502978	-0.0511333	0.000578792	0.00170657	0	0	0	
0.0981667	0.040753	-0.0103542	0.000777234	0.00168311	0	0	0	
0.0983333	-0.0153593	0.0252771	0.000815049	0.00148526	0	0	0	
0.0985	0.0216278	-0.0226009	0.000638433	0.00140704	0	0	0	
0.0986667	-0.0314662	0.00305048	0.000494169	0.00158747	0	0	0	
0.0988333	0.019265	-0.0330348	0.000507184	0.00154259	0	0	0	
0.099	0.0231497	0.0647816	0.000554709	0.00131983	0	0	0	
0.0991667	-0.0595353	-0.0170522	0.000663645	0.00116035	0	0	0	
0.0993333	0.0370163	-0.0393559	0.000876949	0.00101627	0	0	0	
0.0995	-0.0094129	0.00615337	0.000828201	0.000850563	0	0	0	
0.0996667	0.00982185	-0.0263782	0.000600078	0.000620876	0	0	0	
0.0998333	0.00470069	0.0112387	0.000445526	0.000478993	0	0	0	
0.1	-0.037663	-0.0077142	0.000603305	0.000485063	0	0	0	
0.100167	0.029663	-0.0114553	0.000772655	0.000630772	0	0	0	
0.100333	-0.0156659	0.00382158	0.000675681	0.00070466	0	0	0	
0.1005	0.0171441	-0.0476041	0.000496432	0.000698485	0	0	0	
0.100667	-0.0228345	0.0174848	0.000382531	0.000681361	0	0	0	
0.100833	-0.00677585	-0.0491529	0.000389033	0.000674932	0	0	0	
0.101	0.0215616	0.00223352	0.000353372	0.000661818	0	0	0	
0.101167	0.00178659	-0.00293286	0.000467598	0.000628824	0	0	0	
0.101333	0.00754205	-0.0176214	0.000447211	0.00047992	0	0	0	
0.1015	-0.0335456	-0.0108597	0.000481837	0.000495704	0	0	0	
0.101667	0.0102143	0.00889089	0.000501201	0.000478559	0	0	0	
0.101833	0.0414028	-0.00177207	0.000785701	0.000434771	0	0	0	
0.102	-0.0389907	-0.024913	0.000913503	0.000371678	0	0	0	
0.102167	0.0163498	0.0117253	0.000859499	0.000280432	0	0	0	
0.102333	-0.000763156	-0.00167014	0.000527513	0.00047891	0	0	0	
0.1025	0.00673417	0.00549864	0.000334607	0.000588999	0	0	0	
0.102667	-0.00565185	0.0186882	0.000221464	0.000712917	0	0	0	
0.102833	0.000964491	-0.0597256	0.000237669	0.00074938	0	0	0	
0.103	-0.0104127	0.0567642	0.000390706	0.000892695	0	0	0	
0.103167	0.0152409	-0.0290088	0.000514239	0.000940309	0	0	0	
0.103333	-0.0151848	0.028571	0.000590912	0.000827341	0	0	0	
0.1035	0.0304217	-0.07361	0.000554704	0.000762951	0	0	0	
0.103667	-0.0267985	0.0708797	0.000537947	0.000980753	0	0	0	
0.103833	0.00255646	-0.0484342	0.000457739	0.00127674	0	0	0	
0.104	0.00391277	0.028263	0.000314388	0.0014179	0	0	0	
0.104167	0.00819521	-0.0117472	0.000275479	0.0012574	0	0	0	
0.104333	-0.0174783	-0.0174385	0.000293213	0.000967415	0	0	0	
0.1045	0.0135298	-0.00480525	0.000364139	0.000861669	0	0	0	
0.104667	-0.0030715	0.0290972	0.00027261	0.00118962	0	0	0	
0.104833	-0.00113277	-0.0253342	0.00023077	0.00164229	0	0	0	
0.105	0.00735868	-0.00675488	0.000189553	0.00161976	0	0	0	
0.105167	-0.0171567	0.0139005	0.000229847	0.00111927	0	0	0	
0.105333	0.0117177	-0.0069382	0.000340134	0.000601162	0	0	0	
0.1055	-0.00221745	0.00318288	0.000529785	0.000335302	0	0	0	
0.105667	-0.00926961	-0.00250632	0.000660317	0.000174556	0	0	0	
0.105833	0.0331539	-0.0115426	0.000689808	0.000112951	0	0	0	
0.106	-0.0303287	0.00351743	0.000623434	0.000181472	0	0	0	
0.106167	-0.00833631	0.0144621	0.000679316	0.000275779	0	0	0	
0.106333	0.0129404	-0.00636742	0.000523892	0.000303817	0	0	0	
0.1065	0.0467362	-0.0116449	0.000647455	0.00037734	0	0	0	
0.106667	-0.0658779	0.0178628	0.000702765	0.00042004	0	0	0	
0.106833	0.0252743	-0.0143604	0.00119178	0.00044351	0	0	0	
0.107	-0.034339	0.00337051	0.0011083	0.000343761	0	0	0	
0.107167	0.0644407	0.0129137	0.00105968	0.000311071	0	0	0	
0.107333	0.0237272	-0.0233753	0.00107053	0.000383757	0	0	0	
0.1075	-0.0974999	0.0304992	0.00125496	0.000544082	0	0	0	
0.107667	0.0165792	-0.0021195	0.00163272	0.000743911	0	0	0	
0.107833	0.0627889	-0.0312956	0.00192532	0.000953822	0	0	0	
0.108	-0.0467424	0.0209175	0.0021078	0.000869501	0	0	0	
0.108167	0.0456738	0.0279942	0.00190929	0.000754597	0	0	0	
0.108333	-0.0609382	-0.0373974	0.00140956	0.000605388	0	0	0	
0.1085	0.00583958	0.0247855	0.00118321	0.000633908	0	0	0	
0.108667	0.0451185	-0.0149347	0.00125006	0.000588933	0	0	0	
0.108833	-0.00525693	-0.0102835	0.00110995	0.000672355	0	0	0	
0.109	-0.00434207	-0.00542803	0.0009078	0.000608014	0	0	0	
0.109167	-0.00478944	0.0881344	0.000460037	0.000976014	0	0	0	
0.109333	0.0178654	-0.101044	0.000408805	0.00150558	0	0	0	
0.1095	-0.0289448	0.0291114	0.000425435	0.00173539	0	0	0	
0.109667	0.0138191	-0.0292652	0.000507942	0.00144803	0	0	0	
0.109833	-0.00180886	0.043572	0.000622023	0.000891446	0	0	0	
0.11	-0.0302959	0.0107008	0.00104509	0.000979876	0	0	0	
0.110167	0.0874881	-0.0753571	0.0012822	0.000884419	0	0	0	
0.110333	-0.01947	0.0558676	0.00140004	0.00125237	0	0	0	
0.1105	-0.0581392	-0.0261401	0.00124934	0.00126907	0	0	0	
0.110667	0.064999	0.00648204	0.0012564	0.00125699	0	0	0	
0.110833	-0.0562983	0.0150727	0.00124218	0.000775032	0	0	0	
0.111	0.00665125	-0.0147554	0.00112197	0.000419545	0	0	0	
0.111167	0.0198307	-0.000549115	0.000920317	0.000402951	0	0	0	
0.111333	0.0173505	-0.0216237	0.000661617	0.000340858	0	0	0	
0.1115	-0.0139211	0.00965056	0.000694175	0.000517242	0	0	0	
0.111667	-0.0553875	0.0432993	0.000928989	0.000847285	0	0	0	
0.111833	0.0194902	-0.0276617	0.0011197	0.000944582	0	0	0	
0.112	0.0482714	-0.0134382	0.00129251	0.000812928	0	0	0	
0.112167	-0.0321672	0.00110561	0.0010688	0.000526927	0	0	0	
0.112333	-0.0175075	0.00749564	0.000999757	0.000486388	0	0	0	
0.1125	-0.0174365	0.0191778	0.00055926	0.000418779	0	0	0	
0.112667	0.0308969	-0.0091164	0.000529066	0.000519701	0	0	0	
0.112833	-0.029644	-0.0155172	0.000496176	0.000707039	0	0	0	
0.113	-0.0234537	0.0135903	0.000756239	0.000803503	0	0	0	
0.113167	0.0597321	-0.00721723	0.000858119	0.00063656	0	0	0	
0.113333	-0.0180261	0.00427028	0.000988705	0.000397313	0	0	0	
0.1135	-0.0293475	-0.0112833	0.00088501	0.000379931	0	0	0	
0.113667	-0.0191581	0.0335236	0.000865059	0.000505007	0	0	0	
0.113833	0.0519645	-0.0318897	0.000758813	0.000593501	0	0	0	
0.114	-0.00476964	0.00835416	0.000846662	0.000553362	0	0	0	
0.114167	-0.0305794	-0.0113764	0.000876821	0.000399403	0	0	0	
0.114333	0.0275779	0.0149048	0.000812946	0.000331356	0	0	0	
0.1145	-0.00691475	0.00249448	0.000670014	0.000252217	0	0	0	
0.114667	-0.0277768	-0.0082564	0.000656777	0.000307582	0	0	0	
0.114833	0.0254569	-0.0157524	0.000674096	0.000502143	0	0	0	
0.115	0.0100012	0.0219505	0.000575882	0.000665459	0	0	0	
0.115167	0.00261297	-0.00969324	0.000419901	0.000658262	0	0	0	
0.115333	-0.0276255	0.0160179	0.000448072	0.000495919	0	0	0	
0.1155	0.0116761	-0.0192425	0.000465455	0.000422481	0	0	0	
0.115667	0.00398948	-0.0075758	0.000455474	0.000415687	0	0	0	
0.115833	0.00399403	0.0136587	0.000270819	0.00030778	0	0	0	
0.116	-0.00486093	0.0024257	0.0001844	0.000315253	0	0	0	
0.116167	0.00233325	-0.000332105	8.22421E-05	0.000289515	0	0	0	
0.116333	-0.00398107	-0.00904293	9.58916E-05	0.000294836	0	0	0	
0.1165	0.00198603	0.00420819	7.94877E-05	0.000233553	0	0	0	
0.116667	-0.00216959	-0.010483	8.57768E-05	0.000209919	0	0	0	
0.116833	0.00706194	0.0190388	0.00013326	0.000239081	0	0	0	
0.117	0.00388171	-0.00767501	0.000168209	0.000276294	0	0	0	
0.117167	-0.00713142	-0.0112927	0.000200585	0.000326905	0	0	0	
0.117333	-0.000312615	0.00581876	0.00026814	0.000281476	0	0	0	
0.1175	0.0100265	-0.00384553	0.000370924	0.000222001	0	0	0	
0.117667	-0.0132804	0.00683281	0.000399204	0.000141322	0	0	0	
0.117833	0.00781278	-0.0133919	0.000309117	0.00015886	0	0	0	
0.118	0.000801334	0.0147169	0.000200996	0.000198908	0	0	0	
0.118167	-0.00715087	-0.00855658	0.000126993	0.000256315	0	0	0	
0.118333	0.00751903	-0.00931506	0.000169022	0.000290801	0	0	0	
0.1185	-0.000497615	0.00547788	0.000264644	0.000383285	0	0	0	
0.118667	-0.00169059	0.00703381	0.00033451	0.000472822	0	0	0	
0.118833	-0.00992936	-0.0126368	0.000266062	0.000468436	0	0	0	
0.119	0.0152073	0.0114353	0.000206149	0.000394234	0	0	0	
0.119167	-0.00220408	-0.0053943	0.0002438	0.000331529	0	0	0	
0.119333	-0.00612537	-0.00954222	0.000302131	0.000319972	0	0	0	
0.1195	-0.00366016	0.0104417	0.000244178	0.000302942	0	0	0	
0.119667	0.00666849	0.00433801	0.000149174	0.000266537	0	0	0	
0.119833	0.00651297	-0.0163872	0.000120978	0.000290814	0	0	0	
0.12	-0.00893093	0.010223	0.000142377	0.000334017	0	0	0	
0.120167	-0.00479798	0.000264729	0.000278776	0.000382771	0	0	0	
0.120333	0.0157311	-0.00436267	0.000343481	0.000419684	0	0	0	
0.1205	-0.00570561	0.00274669	0.00039257	0.000374541	0	0	0	
0.120667	-0.00933628	-0.00518855	0.00036719	0.000303315	0	0	0	
0.120833	0.0055965	-0.00311814	0.000267862	0.000250188	0	0	0	
0.121	0.0129621	0.00971914	0.000298728	0.000223836	0	0	0	
0.121167	-0.0174073	0.00296885	0.000245821	0.000209886	0	0	0	
0.121333	0.00135119	-0.0102906	0.000353555	0.000156081	0	0	0	
0.1215	0.0075867	-0.000602133	0.000385597	0.000194569	0	0	0	
0.121667	-0.00519564	0.00972179	0.000333504	0.000317048	0	0	0	
0.121833	-0.000785846	-0.012405	0.000267601	0.000495652	0	0	0	
0.122	0.00405932	0.0117343	0.000155023	0.000565931	0	0	0	
0.122167	0.00141601	0.00978039	0.000133343	0.000454362	0	0	0	
0.122333	-0.00637739	-0.0234694	9.31961E-05	0.000365758	0	0	0	
0.1225	-0.00614307	0.00878551	9.02874E-05	0.00042905	0	0	0	
0.122667	0.0204986	0.00779445	0.000175875	0.000659743	0	0	0	
0.122833	-0.0133591	-0.0283412	0.000238688	0.000792111	0	0	0	
0.123	0.000102404	0.0784	0.000344795	0.000947696	0	0	0	
0.123167	-0.00206509	-0.096492	0.000274022	0.00122622	0	0	0	
0.123333	0.0157359	0.0277437	0.000278494	0.00134554	0	0	0	
0.1235	-0.015429	0.0178955	0.00022884	0.00110292	0	0	0	
0.123667	-0.000275752	-0.0250442	0.000301104	0.00071239	0	0	0	
0.123833	-0.0101724	0.0168264	0.000253423	0.000438855	0	0	0	
0.124	0.0304141	0.0219551	0.000283961	0.000665877	0	0	0	
0.124167	-0.0133117	-0.0361721	0.000337697	0.00116974	0	0	0	
0.124333	-0.015838	-0.00176449	0.00039617	0.00166178	0	0	0	
0.1245	0.0150134	0.0033569	0.000357903	0.00159731	0	0	0	
0.124667	-0.00233885	0.0211177	0.000296704	0.00105476	0	0	0	
0.124833	-0.00659936	-0.0235815	0.000206268	0.000608406	0	0	0	
0.125	-0.00427606	0.011624	0.000201413	0.000412094	0	0	0	
0.125167	0.0089828	0.00374592	0.000132704	0.000346166	0	0	0	
0.125333	0.00537576	0.000400997	0.000208423	0.000330107	0	0	0	
0.1255	-0.00148297	-0.00484128	0.000224001	0.000341857	0	0	0	
0.125667	-0.0220127	0.000366938	0.000472328	0.000299062	0	0	0	
0.125833	0.0115554	0.00701424	0.000487445	0.000198195	0	0	0	
0.126	0.0221424	0.00126177	0.000540817	0.000108535	0	0	0	
0.126167	-0.0218809	0.0119408	0.00039477	0.00012538	0	0	0	
0.126333	-0.000927412	-0.0227983	0.000468165	0.000189067	0	0	0	
0.1265	-0.00914419	-0.00287425	0.000355164	0.000364721	0	0	0	
0.126667	0.0257008	0.0277605	0.000355342	0.000536208	0	0	0	
0.126833	-0.000487332	-0.00609802	0.000422681	0.000534977	0	0	0	
0.127	-0.0342994	-0.00375122	0.00066447	0.000371957	0	0	0	
0.127167	0.0401799	-0.00636895	0.000730892	0.000179364	0	0	0	
0.127333	-0.00242625	-0.00906254	0.000838776	0.000246444	0	0	0	
0.1275	-0.0566365	0.0284777	0.0010053	0.000303152	0	0	0	
0.127667	0.0686173	0.0110923	0.00116103	0.000645084	0	0	0	
0.127833	-0.0138342	-0.0548831	0.00136427	0.000926472	0	0	0	
0.128	-0.019325	0.0353814	0.0013683	0.00106179	0	0	0	
0.128167	0.0177958	0.00334727	0.00117117	0.000900279	0	0	0	
0.128333	-0.0229115	-0.00163977	0.000756654	0.000466329	0	0	0	
0.1285	0.0226703	-0.0108406	0.000430095	0.000289472	0	0	0	
0.128667	0.00596134	-0.00762801	0.000489861	0.00017281	0	0	0	
0.128833	-0.0290528	0.0469974	0.000553023	0.000317451	0	0	0	
0.129	0.0280483	-0.0470793	0.000598914	0.000582188	0	0	0	
0.129167	-0.0145712	0.0321271	0.000546888	0.000795828	0	0	0	
0.129333	-0.0104851	-0.0210317	0.000627616	0.000823388	0	0	0	
0.1295	0.0247873	-0.003457	0.000646332	0.000536542	0	0	0	
0.129667	0.000981119	0.0230698	0.000607991	0.000352043	0	0	0	
0.129833	-0.0238881	-0.00581971	0.000398785	0.000253844	0	0	0	
0.13	0.00333325	0.005921	0.000434965	0.000267703	0	0	0	
0.130167	0.0201146	-0.0313616	0.00053623	0.000315405	0	0	0	
0.130333	-0.00524518	0.0309659	0.000512443	0.000585412	0	0	0	
0.1305	-0.0154504	0.000789462	0.00039034	0.000824055	0	0	0	
0.130667	0.00899417	-0.00401171	0.000263261	0.000740151	0	0	0	
0.130833	0.0259301	-0.00555386	0.000424056	0.000411027	0	0	0	
0.131	-0.0114752	0.00295043	0.000448783	0.000180094	0	0	0	
0.131167	-0.0693269	-0.00204779	0.000746218	0.000201207	0	0	0	
0.131333	0.095191	-0.0103601	0.00105142	0.000322825	0	0	0	
0.1315	-0.0117559	0.04076	0.00170034	0.000500495	0	0	0	
0.131667	-0.0358148	-0.0322321	0.00151885	0.000681158	0	0	0	
0.131833	-0.00903432	0.00334127	0.00146008	0.000609829	0	0	0	
0.132	0.0154056	0.00987759	0.000851331	0.000501097	0	0	0	
0.132167	-0.00522794	-0.0194337	0.00072202	0.000497073	0	0	0	
0.132333	0.0471901	0.05349	0.000541544	0.000837594	0	0	0	
0.1325	-0.0584147	-0.0701874	0.000768304	0.00104418	0	0	0	
0.132667	-0.00869492	0.0600349	0.000841091	0.00130471	0	0	0	
0.132833	0.0375719	-0.020986	0.000731308	0.00137883	0	0	0	
0.133	-0.00918013	0.0158736	0.000500958	0.00126383	0	0	0	
0.133167	-0.0118257	-0.0122102	0.000450555	0.000818866	0	0	0	
0.133333	0.00925871	0.00372234	0.000344704	0.000395397	0	0	0	
0.1335	-0.00259979	0.00615839	0.000225204	0.000198232	0	0	0	
0.133667	-0.00271752	-0.00572181	0.000145781	0.000176216	0	0	0	
0.133833	-0.00204667	-0.00412747	0.00015832	0.000334119	0	0	0	
0.134	0.0118749	0.0220714	0.000187879	0.000559453	0	0	0	
0.134167	-0.00863382	-0.0129895	0.00022204	0.000637331	0	0	0	
0.134333	0.0151807	0.00361045	0.000222606	0.000445032	0	0	0	
0.1345	-0.016937	0.00055518	0.0003112	0.000218894	0	0	0	
0.134667	-0.00796434	-0.0390351	0.000543116	0.000239501	0	0	0	
0.134833	0.020314	0.0284442	0.000647286	0.000769487	0	0	0	
0.135	0.00822628	0.0248884	0.000554604	0.00147886	0	0	0	
0.135167	-0.0298569	-0.0217005	0.000370063	0.00152852	0	0	0	
0.135333	0.00828194	-0.000546261	0.000377116	0.00109569	0	0	0	
0.1355	0.0230916	-0.0309005	0.000462182	0.000471029	0	0	0	
0.135667	-0.0107975	0.000347666	0.000494392	0.000382991	0	0	0	
0.135833	-0.020388	0.0869564	0.000541281	0.000711095	0	0	0	
0.136	0.0226284	-0.0798391	0.00049304	0.00112157	0	0	0	
0.136167	-0.0028698	0.0102377	0.000532314	0.00133521	0	0	0	
0.136333	0.00335151	-0.00454808	0.000358469	0.00095301	0	0	0	
0.1365	-0.00902545	0.016328	0.0002718	0.000492529	0	0	0	
0.136667	0.0071041	0.00407587	0.00022225	0.000274209	0	0	0	
0.136833	-0.000365165	0.00423808	0.00030427	0.000216222	0	0	0	
0.137	0.00578391	-0.0126019	0.000331187	0.000197306	0	0	0	
0.137167	-0.0117028	-0.00820248	0.000252678	0.000282249	0	0	0	
0.137333	0.010985	0.00873458	0.000229955	0.000345332	0	0	0	
0.1375	-0.000266849	0.00405568	0.000323201	0.000323933	0	0	0	
0.137667	-0.00159649	0.00558317	0.000311448	0.000203774	0	0	0	
0.137833	-0.0128519	-0.00863217	0.000286336	0.000225033	0	0	0	
0.138	0.0247263	0.00167574	0.00027477	0.000271047	0	0	0	
0.138167	-0.0149439	0.00135012	0.000373223	0.000252273	0	0	0	
0.138333	-0.000211583	-0.00394394	0.000442708	0.000174535	0	0	0	
0.1385	-0.00797872	0.00649788	0.000355319	0.000166325	0	0	0	
0.138667	0.028259	0.00436875	0.000349891	0.000320507	0	0	0	
0.138833	-0.0242195	-0.0100517	0.000321901	0.000518453	0	0	0	
0.139	0.00074124	0.00440375	0.000457733	0.000499008	0	0	0	
0.139167	0.0111076	0.0062368	0.000456114	0.000342146	0	0	0	
0.139333	-0.00908571	0.00159896	0.000382369	0.000184048	0	0	0	
0.1395	0.00673338	-0.0209079	0.000251233	0.000274619	0	0	0	
0.139667	-0.00377133	-0.00526005	0.000173657	0.000335123	0	0	0	
0.139833	-0.00259762	0.0398781	0.000215482	0.000509406	0	0	0	
0.14	0.0092349	-0.0127353	0.000254243	0.000550632	0	0	0	
0.140167	-0.0146302	-0.0276459	0.000270086	0.000718532	0	0	0	
0.140333	0.0145084	0.0106347	0.00025525	0.000609398	0	0	0	
0.1405	0.000346252	0.0177072	0.000319209	0.000513524	0	0	0	
0.140667	-0.00764337	-0.0109498	0.00037518	0.000337763	0	0	0	
0.140833	-0.00396547	-0.0082932	0.0003389	0.000361932	0	0	0	
0.141	0.000817935	0.0118738	0.000288533	0.000356031	0	0	0	
0.141167	0.00645553	0.00205058	0.000288568	0.000268237	0	0	0	
0.141333	-0.00498743	-0.017399	0.00030623	0.000166878	0	0	0	
0.1415	0.00847684	0.00868851	0.000344681	0.000212153	0	0	0	
0.141667	-0.0300496	0.00584944	0.00042391	0.000216702	0	0	0	
0.141833	0.0299199	0.0174985	0.000522816	0.00034236	0	0	0	
0.142	-0.00103102	-0.0441259	0.000570468	0.000450491	0	0	0	
0.142167	-0.0235119	0.0254413	0.000539915	0.000650807	0	0	0	
0.142333	0.0272106	0.0303293	0.000529507	0.000869922	0	0	0	
0.1425	-0.0247654	-0.0364169	0.000514302	0.000792487	0	0	0	
0.142667	0.00146211	-0.0209419	0.000584237	0.00101986	0	0	0	
0.142833	0.0231045	0.0461259	0.000732456	0.000867936	0	0	0	
0.143	-0.0292254	0.00600352	0.000808572	0.000903389	0	0	0	
0.143167	0.024862	-0.00815827	0.000709853	0.000562501	0	0	0	
0.143333	-0.000292462	-0.0288947	0.000626015	0.000596179	0	0	0	
0.1435	-0.0399625	-0.00785109	0.000751126	0.000661926	0	0	0	
0.143667	0.0436839	0.0333361	0.000835617	0.000744912	0	0	0	
0.143833	0.0173206	0.0631013	0.00100468	0.000881512	0	0	0	
0.144	-0.0112675	-0.0134038	0.000689201	0.00107735	0	0	0	
0.144167	-0.288554	-0.47225	0.00150959	0.00329509	0	0	0	
0.144333	0.131542	0.307461	0.00372533	0.00771557	0	0	0	
0.1445	-0.126466	-0.230425	0.00456096	0.0089223	0	0	0	
0.144667	0.0222344	0.0505138	0.00407294	0.00739302	0	0	0	
0.144833	-0.00742586	0.0169376	0.001753	0.00293057	0	0	0	
0.145	-0.0127064	-0.050444	0.00110893	0.00137425	0	0	0	
0.145167	0.0464187	0.0832528	0.000670389	0.0010649	0	0	0	
0.145333	-0.311384	-0.458103	0.00195616	0.00366818	0	0	0	
0.1455	0.0290674	0.0940466	0.00339631	0.00662851	0	0	0	
0.145667	0.0795152	0.0768938	0.00427083	0.00752745	0	0	0	
0.145833	-0.0733245	-0.033423	0.00314074	0.00493737	0	0	0	
0.146	0.0192261	-0.0467494	0.00179019	0.00219026	0	0	0	
0.146167	-0.012313	0.0369061	0.00089768	0.00106798	0	0	0	
0.146333	0.0366342	0.0295619	0.00058565	0.00147387	0	0	0	
0.1465	-0.0221561	-0.0763089	0.000466243	0.00191615	0	0	0	
0.146667	-0.00785573	0.0644194	0.000530682	0.00203803	0	0	0	
0.146833	0.0043743	-0.022798	0.000430082	0.00152251	0	0	0	
0.147	0.0141848	0.0020485	0.000335528	0.000848983	0	0	0	
0.147167	-0.018412	-0.00850566	0.000254294	0.000513094	0	0	0	
0.147333	0.0101443	-0.0142263	0.000330013	0.000294494	0	0	0	
0.1475	0.0384788	-0.0969165	0.000677863	0.000861385	0	0	0	
0.147667	0.0508888	0.224753	0.00137591	0.00194519	0	0	0	
0.147833	-0.00804185	-0.0927506	0.00192507	0.00349651	0	0	0	
0.148	-0.0260585	-0.0110862	0.00180138	0.00341476	0	0	0	
0.148167	0.0126859	0.0381884	0.00112087	0.00251039	0	0	0	
0.148333	0.0105186	-0.0182981	0.000521727	0.00109624	0	0	0	
0.1485	-0.0104919	-0.138216	0.000413509	0.000922152	0	0	0	
0.148667	0.107437	0.132433	0.000893471	0.00150277	0	0	0	
0.148833	-0.0911804	0.00967827	0.00159765	0.00285992	0	0	0	
0.149	0.0120766	-0.0669702	0.00165461	0.00329187	0	0	0	
0.149167	0.0153828	0.0622974	0.00133504	0.0030249	0	0	0	
0.149333	-0.00035495	-0.0420494	0.000640144	0.00186889	0	0	0	
0.1495	0.00842064	0.0234553	0.000376605	0.00122524	0	0	0	
0.149667	-0.0119796	0.0245425	0.00021182	0.000816128	0	0	0	
0.149833	-0.0443881	-0.060989	0.000292792	0.000632633	0	0	0	
0.15	0.0510391	-0.0101887	0.000707131	0.000915367	0	0	0	
0.150167	-0.00766641	0.072718	0.000904644	0.00139087	0	0	0	
0.150333	-0.00970865	-0.0625576	0.000884674	0.00182589	0	0	0	
0.1505	-0.00137051	0.0289492	0.000537737	0.00168139	0	0	0	
0.150667	0.00561899	-0.015983	0.000288379	0.00111721	0	0	0	
0.150833	-0.0136658	0.0295529	0.000309115	0.000621253	0	0	0	
0.151	0.00615124	-0.0592969	0.000502103	0.000543558	0	0	0	
0.151167	-0.0131523	0.0353108	0.000516896	0.000809703	0	0	0	
0.151333	-0.00418057	-0.0281197	0.000434917	0.000901863	0	0	0	
0.1515	0.0143612	0.0328455	0.000206465	0.000853226	0	0	0	
0.151667	-0.00639179	-0.0117503	0.000203451	0.00060031	0	0	0	
0.151833	-0.0142608	-0.006954	0.000276822	0.00039942	0	0	0	
0.152	0.0394329	-0.00900603	0.000406673	0.000371611	0	0	0	
0.152167	-0.0251261	0.0145144	0.000549439	0.000313349	0	0	0	
0.152333	-0.011537	0.00407683	0.000615061	0.000322914	0	0	0	
0.1525	0.0171522	-0.00562411	0.00051372	0.000231587	0	0	0	
0.152667	-0.00532668	-0.000665096	0.000383901	0.000233721	0	0	0	
0.152833	0.00129496	-0.0123559	0.000204823	0.000245922	0	0	0	
0.153	0.00402445	0.0106146	0.000150799	0.00025642	0	0	0	
0.153167	-0.00174095	0.00240136	0.000123155	0.000196278	0	0	0	
0.153333	-0.0147203	0.00826579	0.000133366	0.000236485	0	0	0	
0.1535	0.0143229	-0.0111853	0.000206902	0.000246157	0	0	0	
0.153667	0.000395439	0.00305061	0.000217677	0.000249251	0	0	0	
0.153833	0.00468947	0.00125497	0.00023085	0.000166177	0	0	0	
0.154	0.00209038	-0.0104378	0.00015429	9.82718E-05	0	0	0	
0.154167	-0.0233417	0.0180603	0.000196443	0.000168747	0	0	0	
0.154333	0.00482992	0.0103554	0.000224204	0.000442817	0	0	0	
0.1545	0.029784	-0.0381813	0.000425287	0.000792414	0	0	0	
0.154667	-0.024163	0.0283905	0.000490575	0.000908481	0	0	0	
0.154833	-0.00191041	0.00020079	0.000568561	0.000689307	0	0	0	
0.155	0.00346023	0.00174983	0.000398977	0.000387247	0	0	0	
0.155167	0.0039123	-0.0121288	0.000268811	0.000280547	0	0	0	
0.155333	0.00713675	-0.00855378	0.000209616	0.000250303	0	0	0	
0.1555	-0.0146879	0.0328489	0.000213902	0.000308438	0	0	0	
0.155667	-0.00993219	-0.00284036	0.000448814	0.000545312	0	0	0	
0.155833	0.0306881	-0.0288319	0.000655832	0.000836188	0	0	0	
0.156	-0.0615075	0.0179776	0.000897489	0.000827747	0	0	0	
0.156167	0.0840124	-0.00933699	0.00106709	0.000583764	0	0	0	
0.156333	-0.0241472	-0.00234215	0.0012479	0.000390499	0	0	0	
0.1565	-0.0559295	0.0368924	0.0014535	0.000447705	0	0	0	
0.156667	0.0402552	-0.0372195	0.00131303	0.000908684	0	0	0	
0.156833	-0.00213522	-0.0253707	0.00115816	0.00156533	0	0	0	
0.157	-0.00479437	0.0221907	0.000949125	0.00145273	0	0	0	
0.157167	0.0274646	0.0674035	0.00107952	0.00143093	0	0	0	
0.157333	-0.0452947	-0.0845294	0.00134085	0.00115375	0	0	0	
0.1575	0.0231277	0.053442	0.00137281	0.00154176	0	0	0	
0.157667	0.00779071	-0.058149	0.00104443	0.00132181	0	0	0	
0.157833	-0.0158091	0.0360035	0.000500559	0.00121399	0	0	0	
0.158	0.00172683	0.0283172	0.000389557	0.00102059	0	0	0	
0.158167	0.0108006	-0.0479614	0.000512601	0.000939206	0	0	0	
0.158333	0.00278746	0.0527933	0.000501148	0.000905941	0	0	0	
0.1585	-0.0317689	-0.0264687	0.000404839	0.00109801	0	0	0	
0.158667	0.0226512	-0.0139128	0.000334026	0.00106958	0	0	0	
0.158833	0.00712452	0.0116442	0.000494973	0.000998198	0	0	0	
0.159	-0.00914784	0.0222449	0.000459312	0.000995861	0	0	0	
0.159167	0.000127828	-0.0218797	0.00034622	0.00087665	0	0	0	
0.159333	-0.0162531	-0.00439299	0.000277469	0.000884454	0	0	0	
0.1595	0.00732745	0.0387585	0.000275272	0.000949539	0	0	0	
0.159667	0.0254396	-0.0647831	0.000293988	0.00136942	0	0	0	
0.159833	-0.0208236	0.0503209	0.000352814	0.00134782	0	0	0	
0.16	-0.0162715	-0.011515	0.000495431	0.00124651	0	0	0	
0.160167	0.0196338	-0.000270787	0.000533169	0.00100393	0	0	0	
0.160333	0.00164441	0.0161393	0.000482933	0.000850823	0	0	0	
0.1605	-0.0166892	-0.0518811	0.000296694	0.000659744	0	0	0	
0.160667	-0.00175073	0.066055	0.00038112	0.000734058	0	0	0	
0.160833	0.0247497	-0.0429808	0.000360389	0.000949061	0	0	0	
0.161	-0.00928681	-0.00118945	0.000409414	0.000901751	0	0	0	
0.161167	0.00142031	0.0253523	0.000310892	0.000650415	0	0	0	
0.161333	-0.0239531	0.003733	0.000281475	0.000487745	0	0	0	
0.1615	0.0283962	-0.0289275	0.000400333	0.000531315	0	0	0	
0.161667	-0.00818879	0.00551464	0.000481799	0.000572627	0	0	0	
0.161833	0.00179351	0.026054	0.000523358	0.000741704	0	0	0	
0.162	-0.0141164	-0.0476909	0.000531628	0.000963406	0	0	0	
0.162167	0.0179261	0.0547602	0.00056227	0.00127079	0	0	0	
0.162333	-0.0058967	-0.0390373	0.00058021	0.00113764	0	0	0	
0.1625	-0.001435	-0.00580987	0.000506444	0.00112493	0	0	0	
0.162667	0.0184894	0.0257353	0.000484473	0.000918164	0	0	0	
0.162833	-0.0208125	-0.0330889	0.000509777	0.000835571	0	0	0	
0.163	0.0119283	0.0661801	0.000484271	0.000747561	0	0	0	
0.163167	-0.0212348	-0.078222	0.000459711	0.000968018	0	0	0	
0.163333	0.0324091	0.0306306	0.00045594	0.00119632	0	0	0	
0.1635	-0.0263138	0.0158644	0.000491007	0.00100924	0	0	0	
0.163667	0.00157666	-0.00944467	0.000604575	0.000694641	0	0	0	
0.163833	0.0234864	-0.0308693	0.000627129	0.000626442	0	0	0	
0.164	-0.0146797	0.0280745	0.00057129	0.000631592	0	0	0	
0.164167	-0.000931361	0.0271064	0.000439097	0.000822823	0	0	0	
0.164333	0.00527784	-0.03977	0.000319147	0.000682526	0	0	0	
0.1645	-0.0068287	0.00187437	0.00023966	0.0008801	0	0	0	
0.164667	0.00887304	0.0115275	0.000204214	0.00077285	0	0	0	
0.164833	-0.00861633	0.00193948	0.000206906	0.000657003	0	0	0	
0.165	0.015855	0.00199741	0.000251522	0.000367186	0	0	0	
0.165167	-0.0169454	-0.0125924	0.000263141	0.000209727	0	0	0	
0.165333	0.00501665	0.0153701	0.000315805	0.000246172	0	0	0	
0.1655	0.000412531	-0.00665755	0.000297373	0.000238876	0	0	0	
0.165667	0.013402	0.0019377	0.000235265	0.000200318	0	0	0	
0.165833	-0.00653448	-0.00628629	0.000169593	0.000136277	0	0	0	
0.166	-0.00858394	0.0145262	0.000215864	0.000130547	0	0	0	
0.166167	0.00687956	-0.00842128	0.000228472	0.000182587	0	0	0	
0.166333	0.00895553	0.00387488	0.00026961	0.000262076	0	0	0	
0.1665	-0.00685178	-0.00114538	0.00022138	0.000228848	0	0	0	
0.166667	-0.00424487	0.00631084	0.000212217	0.000247005	0	0	0	
0.166833	0.007096	-0.0117132	0.000146888	0.000294882	0	0	0	
0.167	-0.00751094	0.0120621	0.000142601	0.00040608	0	0	0	
0.167167	0.0060471	-0.00863069	0.000135476	0.000404397	0	0	0	
0.167333	0.00354849	0.00669715	0.000116439	0.000332994	0	0	0	
0.1675	-0.00367961	0.000159311	0.000107639	0.000261313	0	0	0	
0.167667	0.000740837	-0.00280912	9.32102E-05	0.000201417	0	0	0	
0.167833	-0.0135456	-0.00262808	0.00015573	0.000147533	0	0	0	
0.168	0.0153663	-0.00168181	0.000212243	0.00010349	0	0	0	
0.168167	0.00733534	0.00369157	0.000406425	6.04418E-05	0	0	0	
0.168333	-0.0150031	-0.00159256	0.000486177	0.000104872	0	0	0	
0.1685	0.0096994	-0.00110333	0.000483747	0.000142707	0	0	0	
0.168667	-0.0164921	-0.00322514	0.000348886	0.00014885	0	0	0	
0.168833	0.0152732	-0.000694891	0.00028465	8.94243E-05	0	0	0	
0.169	0.0130775	-0.00405162	0.000419082	5.11693E-05	0	0	0	
0.169167	-0.0264172	0.0185551	0.000508767	8.81753E-05	0	0	0	
0.169333	0.0134812	-0.0198327	0.000527522	0.000248175	0	0	0	
0.1695	-0.00123188	0.00109268	0.000371238	0.000462829	0	0	0	
0.169667	0.0054518	0.026011	0.000229683	0.000568468	0	0	0	
0.169833	0.00890888	-0.020167	0.000264696	0.000581199	0	0	0	
0.17	-0.0398757	-0.0615355	0.000453933	0.000887641	0	0	0	
0.170167	0.0440819	0.118579	0.00069527	0.00136214	0	0	0	
0.170333	-0.0187612	-0.0706506	0.000737176	0.00180944	0	0	0	
0.1705	0.00708579	0.00352092	0.000552273	0.00168769	0	0	0	
0.170667	3.99041E-06	0.0160132	0.000344506	0.0012351	0	0	0	
0.170833	-0.0139109	-0.0312906	0.00024609	0.000870352	0	0	0	
0.171	0.0186763	0.041991	0.00033549	0.000663065	0	0	0	
0.171167	-0.0158027	-0.00885625	0.000475599	0.000922037	0	0	0	
0.171333	0.0112374	-0.0277577	0.000603349	0.00115675	0	0	0	
0.1715	0.00263397	0.018387	0.000677139	0.00108554	0	0	0	
0.171667	-0.00220403	-0.0142273	0.000583336	0.000726943	0	0	0	
0.171833	-0.0281142	0.0228138	0.000497035	0.000373748	0	0	0	
0.172	0.0364298	-0.00323827	0.000454814	0.000422466	0	0	0	
0.172167	0.00353202	-0.00132482	0.000583603	0.000363508	0	0	0	
0.172333	-0.0265799	-0.0271915	0.000633728	0.000357016	0	0	0	
0.1725	-0.00536689	0.0295728	0.000543039	0.000345628	0	0	0	
0.172667	0.0244155	0.000473932	0.00039972	0.000580707	0	0	0	
0.172833	-0.00304782	-0.0138907	0.000346686	0.000587678	0	0	0	
0.173	-0.00922267	0.00271935	0.000316109	0.000452569	0	0	0	
0.173167	-0.00659382	0.00772545	0.000290071	0.000215144	0	0	0	
0.173333	0.0127538	-0.00475044	0.000210058	0.000206909	0	0	0	
0.1735	0.00495783	-0.00662267	0.0002718	0.000336324	0	0	0	
0.173667	-0.0148506	0.000800438	0.000290249	0.000351784	0	0	0	
0.173833	-0.00617793	0.0130515	0.000353278	0.000238952	0	0	0	
0.174	0.0285348	-0.010387	0.000338143	0.000217672	0	0	0	
0.174167	-0.0107308	-0.00387094	0.00043097	0.000394779	0	0	0	
0.174333	-0.0224497	0.00908276	0.000593464	0.000477957	0	0	0	
0.1745	0.0200146	-0.00445429	0.000603062	0.000357594	0	0	0	
0.174667	0.00116875	-0.00640409	0.000508652	0.000226436	0	0	0	
0.174833	-0.00395628	0.0151085	0.000242416	0.000174758	0	0	0	
0.175	0.00705979	-0.0134011	0.000144598	0.000252026	0	0	0	
0.175167	-0.0217943	-0.000487405	0.00015055	0.000322622	0	0	0	
0.175333	0.0198036	0.00967776	0.000265214	0.000358402	0	0	0	
0.1755	-0.00186504	0.00554496	0.000435257	0.000303083	0	0	0	
0.175667	-0.00817513	-0.0325829	0.000488914	0.000261462	0	0	0	
0.175833	0.00935188	0.0490416	0.000409524	0.000459206	0	0	0	
0.176	-0.0109947	-0.0516837	0.00027325	0.000761588	0	0	0	
0.176167	0.00315804	0.0295839	0.000201579	0.000942807	0	0	0	
0.176333	0.00506542	0.00237963	0.000202729	0.000861653	0	0	0	
0.1765	-0.00520427	-0.014998	0.000184263	0.000669614	0	0	0	
0.176667	-0.000921012	0.004276	0.000157744	0.000452374	0	0	0	
0.176833	0.00651613	0.00969142	0.000129751	0.000290192	0	0	0	
0.177	-0.0113328	-0.0136623	0.000147027	0.0002779	0	0	0	
0.177167	0.00669532	0.00966363	0.000142569	0.000507502	0	0	0	
0.177333	0.0109515	-0.0176772	0.000217382	0.000729784	0	0	0	
0.1775	-0.0215376	0.0213806	0.000244863	0.000678763	0	0	0	
0.177667	0.00611487	-0.01535	0.000323473	0.00056975	0	0	0	
0.177833	0.0107621	0.0123572	0.000388118	0.000512169	0	0	0	
0.178	-0.0107736	-0.0072	0.000398289	0.00058078	0	0	0	
0.178167	0.0104729	-0.0088577	0.000350001	0.000439518	0	0	0	
0.178333	-0.0399849	-0.012872	0.000258919	0.000495399	0	0	0	
0.1785	0.119271	-0.0257837	0.00110537	0.00100609	0	0	0	
0.178667	-0.0234693	-0.0745034	0.00134026	0.00118846	0	0	0	
0.178833	-0.0105505	0.0369449	0.00164407	0.00133611	0	0	0	
0.179	0.0168833	0.00918786	0.000840009	0.000943661	0	0	0	
0.179167	0.00138309	-0.0210273	0.000599544	0.000824383	0	0	0	
0.179333	0.0118786	0.00761605	0.000365365	0.000552237	0	0	0	
0.1795	-0.0174633	-0.00695613	0.000354036	0.000360103	0	0	0	
0.179667	0.00997061	-0.0130232	0.000343843	0.000416053	0	0	0	
0.179833	0.00117577	0.032955	0.000351356	0.000522137	0	0	0	
0.18	-0.00696637	-0.0186835	0.000324518	0.000572183	0	0	0	
0.180167	0.0032026	-0.000598932	0.000282686	0.000470206	0	0	0	
0.180333	0.00752345	0.00273016	0.000219091	0.000238308	0	0	0	
0.1805	-0.00697325	0.00958725	0.000202803	0.000246169	0	0	0	
0.180667	0.00532952	-0.00888859	0.000209698	0.000379674	0	0	0	
0.180833	-0.00222435	0.0152934	0.000209651	0.000453371	0	0	0	
0.181	0.000559278	-0.00690244	0.000217995	0.000371009	0	0	0	
0.181167	0.000709589	-0.00405297	0.000229083	0.000213041	0	0	0	
0.181333	0.00132338	0.0151527	0.000151544	0.000176754	0	0	0	
0.1815	0.00172869	-0.030701	5.69621E-05	0.000276099	0	0	0	
0.181667	0.00208692	0.0215761	2.67688E-05	0.000398514	0	0	0	
0.181833	-0.012397	0.00326006	6.88351E-05	0.000449155	0	0	0	
0.182	0.0158024	-0.0154893	0.000162894	0.000409987	0	0	0	
0.182167	-0.00660876	0.0071905	0.000216648	0.000302592	0	0	0	
0.182333	0.00319307	0.00261409	0.000200635	0.000281249	0	0	0	
0.1825	-0.00588667	-0.00300698	0.00012451	0.000249911	0	0	0	
0.182667	0.00557114	-0.0131592	0.000101018	0.000269857	0	0	0	
0.182833	-0.00278463	0.0204147	0.000108957	0.000315767	0	0	0	
0.183	0.000629413	-0.0110453	9.42785E-05	0.000303449	0	0	0	
0.183167	-0.000662188	0.00494024	5.95196E-05	0.000355893	0	0	0	
0.183333	-0.000478665	0.0105731	3.69162E-05	0.000370653	0	0	0	
0.1835	0.00113491	-0.0170424	3.67899E-05	0.000362091	0	0	0	
0.183667	0.000835235	0.0142054	4.88098E-05	0.000391074	0	0	0	
0.183833	-0.0059008	0.00859173	4.7958E-05	0.000508304	0	0	0	
0.184	0.00324562	-0.0199852	7.67943E-05	0.000612941	0	0	0	
0.184167	0.00354344	0.0156604	0.000131209	0.000547297	0	0	0	
0.184333	-0.00242052	-0.00435305	0.000157274	0.000377043	0	0	0	
0.1845	-0.0029423	0.00114273	0.000127013	0.000249815	0	0	0	
0.184667	0.00268685	0.010173	8.10432E-05	0.000242701	0	0	0	
0.184833	-0.00148728	-0.0151142	0.000122856	0.00028839	0	0	0	
0.185	-0.00163965	0.0193075	0.000185583	0.000332359	0	0	0	
0.185167	-0.000564579	-0.00659835	0.000189052	0.00033177	0	0	0	
0.185333	0.00192836	-0.000155439	0.000147005	0.000203762	0	0	0	
0.1855	0.00579107	-0.000971348	0.000134706	0.00011382	0	0	0	
0.185667	-0.000110845	-0.0073776	0.000135682	7.00936E-05	0	0	0	
0.185833	-0.0259659	0.0299422	0.000227597	0.000176295	0	0	0	
0.186	0.0344129	-0.0134185	0.000341167	0.000318289	0	0	0	
0.186167	-0.00903001	-0.0182729	0.000558222	0.000525861	0	0	0	
0.186333	-0.0139906	0.0352704	0.000681382	0.000621991	0	0	0	
0.1865	0.00974062	-0.0175165	0.000593423	0.000616546	0	0	0	
0.186667	0.00348031	0.00344291	0.000402744	0.000452548	0	0	0	
0.186833	-0.00902915	0.017333	0.000191138	0.000370983	0	0	0	
0.187	0.00209598	-0.0175498	0.000164068	0.000415708	0	0	0	
0.187167	-0.00616906	0.0200783	0.000180686	0.000396033	0	0	0	
0.187333	0.0155403	-0.00449355	0.000205256	0.000479346	0	0	0	
0.1875	-0.00915644	-0.00320566	0.000223764	0.000542998	0	0	0	
0.187667	-0.00231886	0.0173161	0.000204416	0.000631449	0	0	0	
0.187833	-0.00101201	-0.00726333	0.000167291	0.000516004	0	0	0	
0.188	0.00483961	-0.0141247	0.000179903	0.00061939	0	0	0	
0.188167	0.00147697	0.0412714	0.000155095	0.000744036	0	0	0	
0.188333	-0.0169059	-0.0193608	0.000269792	0.000829282	0	0	0	
0.1885	0.0244086	-0.00120803	0.000315204	0.000734192	0	0	0	
0.188667	-0.00757766	0.00410755	0.000379072	0.000562067	0	0	0	
0.188833	-0.001271	-0.0166756	0.000271928	0.000480476	0	0	0	
0.189	-0.0181887	0.0605218	0.000205487	0.000425076	0	0	0	
0.189167	0.0173328	-0.0302182	0.000308511	0.000604757	0	0	0	
0.189333	-0.00873233	-0.0340289	0.000393386	0.000823682	0	0	0	
0.1895	0.00367338	0.0442601	0.000375674	0.000842203	0	0	0	
0.189667	0.00172285	-0.0101892	0.000226322	0.000890172	0	0	0	
0.189833	-0.00067431	-0.0161329	0.000127862	0.000809744	0	0	0	
0.19	0.00262582	0.0151908	8.79431E-05	0.000672472	0	0	0	
0.190167	-0.0183694	-0.00609849	0.000145151	0.000430455	0	0	0	
0.190333	0.0133639	-0.0168023	0.000275014	0.000319247	0	0	0	
0.1905	-0.000817776	0.0236266	0.000375022	0.000372736	0	0	0	
0.190667	-0.00551402	-0.0166322	0.000331042	0.000401629	0	0	0	
0.190833	0.0019314	0.00196788	0.000211169	0.000398529	0	0	0	
0.191	-0.00983587	0.0123516	0.000175347	0.00038402	0	0	0	
0.191167	0.0306924	-0.03051	0.000238988	0.000388573	0	0	0	
0.191333	-0.0173523	0.0153619	0.000366022	0.000416345	0	0	0	
0.1915	-0.020463	0.0190392	0.000517985	0.000416085	0	0	0	
0.191667	0.0252747	-0.022752	0.000510752	0.000417135	0	0	0	
0.191833	-0.0086374	0.00515486	0.000651723	0.000472	0	0	0	
0.192	-0.0124369	0.0117391	0.000654014	0.000511766	0	0	0	
0.192167	0.00636611	-0.00982449	0.000595597	0.000452753	0	0	0	
0.192333	0.000824252	0.00898811	0.000315273	0.000299839	0	0	0	
0.1925	0.000138111	0.00310188	0.000131961	0.000175986	0	0	0	
0.192667	0.00118332	-0.0117153	8.30551E-05	0.000192097	0	0	0	
0.192833	-0.015432	0.00459453	0.00010687	0.000202548	0	0	0	
0.193	0.0101233	0.0049875	0.000142639	0.000210964	0	0	0	
0.193167	-0.00140688	0.00284843	0.000174268	0.000141787	0	0	0	
0.193333	0.00355172	-0.0229447	0.000139624	0.000138963	0	0	0	
0.1935	-0.014467	0.0249673	0.000109838	0.000256043	0	0	0	
0.193667	0.0160183	0.0100166	0.000179087	0.000368188	0	0	0	
0.193833	-0.00384398	-0.0111432	0.000303578	0.000385543	0	0	0	
0.194	-0.00570059	-0.00137232	0.000369742	0.000407854	0	0	0	
0.194167	0.00714185	0.0113818	0.000320697	0.000385622	0	0	0	
0.194333	0.00053354	-0.013719	0.000222854	0.000367348	0	0	0	
0.1945	-0.00966041	0.0171482	0.000227615	0.000310385	0	0	0	
0.194667	0.01609	0.0121652	0.000260681	0.000411237	0	0	0	
0.194833	-0.00606561	-0.0237805	0.000285606	0.000521099	0	0	0	
0.195	-0.00756128	0.0107136	0.000218039	0.000486411	0	0	0	
0.195167	0.00201008	0.00518932	0.000154485	0.00037226	0	0	0	
0.195333	0.0050767	-0.0146112	0.000119483	0.000255899	0	0	0	
0.1955	-0.00262403	0.0223563	8.50351E-05	0.000267771	0	0	0	
0.195667	0.000430474	-0.00591888	0.000109748	0.000339948	0	0	0	
0.195833	-0.000777777	-0.00667451	0.000126748	0.000459506	0	0	0	
0.196	-0.00109941	-0.00278991	0.000114809	0.000369327	0	0	0	
0.196167	-0.00288987	0.0120768	7.84441E-05	0.000344405	0	0	0	
0.196333	0.00513366	-0.0150782	5.40939E-05	0.000276061	0	0	0	
0.1965	-0.00328266	0.0135778	7.49474E-05	0.000331815	0	0	0	
0.196667	-0.00361976	-0.00883083	0.000111701	0.000353041	0	0	0	
0.196833	0.00470851	0.00172275	0.000150941	0.000457425	0	0	0	
0.197	0.00051018	0.00663101	0.000140279	0.000452904	0	0	0	
0.197167	-0.00567673	0.00498379	0.000103192	0.000361112	0	0	0	
0.197333	0.00382054	-0.0102048	7.55097E-05	0.000207755	0	0	0	
0.1975	-0.00365717	0.000522523	8.4427E-05	0.000195562	0	0	0	
0.197667	0.000216745	0.0211187	0.000104791	0.000227383	0	0	0	
0.197833	0.00582215	-0.0203943	0.000172081	0.000316771	0	0	0	
0.198	-0.0076214	-0.000683348	0.000224205	0.00039657	0	0	0	
0.198167	-0.00284319	0.0123956	0.00024209	0.000339034	0	0	0	
0.198333	0.0110231	-0.000632175	0.000241387	0.000344679	0	0	0	
0.1985	-0.00713553	-0.0101598	0.000211549	0.000332868	0	0	0	
0.198667	0.00295381	0.000825403	0.000186939	0.000318155	0	0	0	
0.198833	-0.0117986	0.00473451	0.000127474	0.000202838	0	0	0	
0.199	0.0155368	0.00910782	0.000167572	0.000239592	0	0	0	
0.199167	-0.00055406	-0.0164051	0.000226493	0.000380259	0	0	0	
0.199333	-0.0129087	0.00859789	0.00024136	0.000410819	0	0	0	
0.1995	0.00673859	0.00202917	0.000220731	0.000280321	0	0	0	
0.199667	-0.000541432	0.00434176	0.000164681	0.000149659	0	0	0	
0.199833	0.00736463	-0.00809669	0.000124752	0.000109052	0	0	0	
0.2	-0.00947723	-0.0103285	0.000122875	0.000254932	0	0	0	
0.200167	-0.00483994	0.0351945	0.000166518	0.000345947	0	0	0	
0.200333	0.00870527	-0.0087926	0.000182542	0.000555383	0	0	0	
0.2005	-0.00215363	-0.0128253	0.00025859	0.000702391	0	0	0	
0.200667	-0.00436903	0.0124185	0.000290681	0.00072124	0	0	0	
0.200833	0.00243208	-0.0121242	0.00030759	0.000558617	0	0	0	
0.201	-0.00642295	0.0223715	0.00028343	0.000327005	0	0	0	
0.201167	0.00795843	-0.00661374	0.000318198	0.000325785	0	0	0	
0.201333	-0.0020877	-0.020669	0.000309805	0.000428555	0	0	0	
0.2015	-0.0116163	0.0240544	0.000227102	0.000457061	0	0	0	
0.201667	0.00734666	-0.00608051	0.000143126	0.000481008	0	0	0	
0.201833	-0.000935391	-0.00404876	0.000144994	0.000401681	0	0	0	
0.202	0.0060505	0.0140186	0.00012719	0.000346331	0	0	0	
0.202167	-0.0198306	-0.0273354	0.000165908	0.000327145	0	0	0	
0.202333	0.0186249	0.0149559	0.000243176	0.000375035	0	0	0	
0.2025	-0.00807962	0.00454033	0.000396798	0.000347003	0	0	0	
0.202667	-0.00364644	-0.00689803	0.000444464	0.000269884	0	0	0	
0.202833	0.00463979	-0.000447489	0.000367255	0.000223118	0	0	0	
0.203	-0.000691633	0.00482753	0.000212544	0.000245462	0	0	0	
0.203167	-0.00406689	-0.0112106	8.45971E-05	0.000258249	0	0	0	
0.203333	0.00936954	0.0123782	8.80137E-05	0.000300446	0	0	0	
0.2035	-0.0055504	-0.00420138	0.000161865	0.000381517	0	0	0	
0.203667	-0.00564695	0.00123671	0.000215842	0.000381582	0	0	0	
0.203833	0.00652805	-0.000720474	0.000222042	0.000261195	0	0	0	
0.204	0.00020167	-0.00255493	0.00018085	0.000154845	0	0	0	
0.204167	0.0013119	0.00647756	0.000114493	0.000118151	0	0	0	
0.204333	0.00640832	-0.00716732	8.45307E-05	0.000129486	0	0	0	
0.2045	-0.0170791	0.0186093	0.000101789	0.000205711	0	0	0	
0.204667	0.00515841	-0.0139929	0.000232192	0.000282941	0	0	0	
0.204833	0.0140654	0.00276371	0.000436678	0.000300123	0	0	0	
0.205	-0.0139254	0.00384183	0.000494651	0.000212025	0	0	0	
0.205167	0.00325147	-0.00675636	0.000405059	0.000112945	0	0	0	
0.205333	0.00549178	0.00304963	0.000205335	9.18998E-05	0	0	0	
0.2055	-0.00497737	-0.00712018	0.000139299	0.000177701	0	0	0	
0.205667	0.010597	-0.000322054	0.000213057	0.000361328	0	0	0	
0.205833	-0.018681	0.0060484	0.000310143	0.000539926	0	0	0	
0.206	0.0153393	-0.0103423	0.000358423	0.000500162	0	0	0	
0.206167	-0.000781868	0.00298202	0.000324851	0.000337857	0	0	0	
0.206333	-0.00349222	-0.00264616	0.000251082	0.000156874	0	0	0	
0.2065	0.00287735	-0.00145836	0.00016799	0.000112655	0	0	0	
0.206667	-0.00584274	0.0103588	0.000116606	0.000105036	0	0	0	
0.206833	0.0148483	-0.017801	0.000139425	0.000171079	0	0	0	
0.207	-0.00946066	0.00844578	0.000199281	0.000232435	0	0	0	
0.207167	0.00124999	0.00102448	0.000191364	0.000230552	0	0	0	
0.207333	0.00103277	0.000159631	0.000119927	0.000147197	0	0	0	
0.2075	-0.00291468	-0.00383	5.09863E-05	6.92651E-05	0	0	0	
0.207667	0.00810584	0.00976152	6.64245E-05	9.2538E-05	0	0	0	
0.207833	-0.00890562	-0.00980577	0.000123895	0.000164781	0	0	0	
0.208	0.00697136	0.00957319	0.000153893	0.00023	0	0	0	
0.208167	-0.0014879	-0.00472069	0.000140783	0.000218539	0	0	0	
0.208333	-0.000507264	0.000353853	0.000104625	0.000171836	0	0	0	
0.2085	0.000973084	-0.00021261	8.53068E-05	0.000112474	0	0	0	
0.208667	-0.000437459	0.00125224	6.061E-05	8.6645E-05	0	0	0	
0.208833	-0.00510926	0.00101038	6.99459E-05	9.79199E-05	0	0	0	
0.209	0.0106737	0.00434686	9.04335E-05	0.000260279	0	0	0	
0.209167	-0.00776397	-0.0145663	0.000146754	0.000396512	0	0	0	
0.209333	0.00161757	0.00597417	0.000169225	0.000417939	0	0	0	
0.2095	-0.00122273	0.00193774	0.000141966	0.000266711	0	0	0	
0.209667	0.00518513	-0.00806666	9.8919E-05	0.000143335	0	0	0	
0.209833	-0.00540126	0.0118167	7.90813E-05	0.000116866	0	0	0	
0.21	0.0030032	-0.0135854	9.27023E-05	0.000199724	0	0	0	
0.210167	0.000922412	0.00273917	9.32732E-05	0.000277405	0	0	0	
0.210333	-0.000215677	0.00189906	7.16346E-05	0.000307102	0	0	0	
0.2105	-0.00342575	-0.000719613	6.49536E-05	0.000198873	0	0	0	
0.210667	0.0026826	-0.00456281	6.26601E-05	0.000113913	0	0	0	
0.210833	0.00270768	0.00566189	9.18636E-05	7.75454E-05	0	0	0	
0.211	-0.00051522	-0.00270513	8.78242E-05	0.000105609	0	0	0	
0.211167	-0.00957411	0.00659745	0.000100326	0.000122558	0	0	0	
0.211333	0.0132049	-0.00796733	0.000133442	0.000148662	0	0	0	
0.2115	-0.00479013	0.00280015	0.000171018	0.000145063	0	0	0	
0.211667	-0.00121394	-0.0022964	0.000190523	0.00012909	0	0	0	
0.211833	0.00488792	-0.00566269	0.000148503	0.000133276	0	0	0	
0.212	0.000896933	0.00244917	9.84562E-05	0.000189631	0	0	0	
0.212167	-0.00950323	0.00480208	9.17222E-05	0.000209737	0	0	0	
0.212333	0.0136942	-0.00759005	0.0001245	0.00019564	0	0	0	
0.2125	-0.00817113	0.00612759	0.000217218	0.00018372	0	0	0	
0.212667	0.000858745	-0.00206015	0.000236728	0.000182664	0	0	0	
0.212833	0.000270426	0.00300313	0.000195558	0.000154114	0	0	0	
0.213	-0.000249227	-0.00887015	0.000125467	0.000124129	0	0	0	
0.213167	-0.00257958	0.0151861	8.43691E-05	0.000166943	0	0	0	
0.213333	0.0121448	-0.0178028	0.000146214	0.000287715	0	0	0	
0.2135	-0.0187572	0.0166047	0.000218792	0.000396591	0	0	0	
0.213667	0.00839935	-0.00778853	0.000270929	0.000374404	0	0	0	
0.213833	0.000727672	-0.0023781	0.000235196	0.000314649	0	0	0	
0.214	-0.00579102	0.0331355	0.000174755	0.000329989	0	0	0	
0.214167	0.00406954	-0.0253974	0.000135595	0.000466557	0	0	0	
0.214333	-0.00237741	-0.00918428	0.000106089	0.000532748	0	0	0	
0.2145	-0.00270095	0.0305797	8.12306E-05	0.000559462	0	0	0	
0.214667	0.00233496	-0.018011	6.76285E-05	0.00048182	0	0	0	
0.214833	0.0028812	-0.00220804	8.41698E-05	0.000460783	0	0	0	
0.215	-0.00184811	0.000809226	7.34159E-05	0.000292458	0	0	0	
0.215167	-0.0123531	0.0241707	0.00013199	0.000215329	0	0	0	
0.215333	0.0250534	-0.0227337	0.000214989	0.000238549	0	0	0	
0.2155	-0.0161862	-0.0054364	0.00033974	0.000390331	0	0	0	
0.215667	-0.000244262	0.0269073	0.000419417	0.000458263	0	0	0	
0.215833	0.00378469	-0.0132429	0.000360208	0.000418613	0	0	0	
0.216	0.00462165	0.00172909	0.000264263	0.000313464	0	0	0	
0.216167	-0.0130569	0.0223056	0.00015244	0.000303006	0	0	0	
0.216333	0.00361483	-0.0274824	0.00014855	0.000416602	0	0	0	
0.2165	-0.000755497	0.024239	0.000142102	0.00051019	0	0	0	
0.216667	0.0116793	-0.00284078	0.000195666	0.000590831	0	0	0	
0.216833	-0.0121433	-0.00944505	0.00023993	0.000531545	0	0	0	
0.217	0.00345602	0.00993788	0.000249202	0.000423663	0	0	0	
0.217167	-0.00508046	0.000278727	0.00017793	0.000308712	0	0	0	
0.217333	0.0151712	-0.00684012	0.000153736	0.000337342	0	0	0	
0.2175	-0.0138852	0.0280574	0.000200696	0.000444026	0	0	0	
0.217667	-0.00258363	-0.0213281	0.000284934	0.000509336	0	0	0	
0.217833	0.0112004	0.00128979	0.000254004	0.000481163	0	0	0	
0.218	-0.00217068	0.0099001	0.000215496	0.00042405	0	0	0	
0.218167	-0.00502313	-0.00196771	0.000152534	0.000316402	0	0	0	
0.218333	0.0109945	-0.0253293	0.000153216	0.000284918	0	0	0	
0.2185	-0.00910078	0.0340383	0.000180589	0.00038282	0	0	0	
0.218667	0.0018537	-0.0147178	0.000168983	0.000492752	0	0	0	
0.218833	0.00296725	-0.00561428	0.000131228	0.000483237	0	0	0	
0.219	-0.000185457	0.00548693	6.89948E-05	0.000324096	0	0	0	
0.219167	-0.00285192	0.00378242	4.01654E-05	0.000258052	0	0	0	
0.219333	0.00355822	-0.00763227	4.92099E-05	0.000188352	0	0	0	
0.2195	-0.00116591	0.00571262	5.16407E-05	0.000209605	0	0	0	
0.219667	-0.00105401	-0.00554477	5.5084E-05	0.000145617	0	0	0	
0.219833	-0.00380077	0.0115573	4.55497E-05	0.000162156	0	0	0	
0.22	0.014034	-0.0215598	9.00815E-05	0.000202416	0	0	0	
0.220167	-0.00819304	0.0113713	0.000150252	0.00030559	0	0	0	
0.220333	-0.00839157	0.0117833	0.000226809	0.000350929	0	0	0	
0.2205	0.0270183	-0.0298997	0.000263283	0.000362613	0	0	0	
0.220667	-0.0177417	0.0149378	0.000358317	0.000418351	0	0	0	
0.220833	-0.0109673	0.0176534	0.000402571	0.00035768	0	0	0	
0.221	0.0133636	-0.00917032	0.000385067	0.000397539	0	0	0	
0.221167	0.00246605	-0.00982835	0.000397255	0.00042376	0	0	0	
0.221333	-0.00978896	0.0119299	0.000381477	0.000438998	0	0	0	
0.2215	0.00184374	-0.0100074	0.000344107	0.000345748	0	0	0	
0.221667	0.00169992	0.00165867	0.000216758	0.000217472	0	0	0	
0.221833	-0.00495314	0.012803	0.00019008	0.000387513	0	0	0	
0.222	0.00895038	-0.0492669	0.000201854	0.000573575	0	0	0	
0.222167	-0.0252536	0.0737348	0.000243921	0.000885971	0	0	0	
0.222333	0.0158125	-0.0254078	0.000315488	0.00115199	0	0	0	
0.2225	0.00476198	-0.0239514	0.000392352	0.00127498	0	0	0	
0.222667	-0.0127766	0.0505497	0.000337417	0.0011183	0	0	0	
0.222833	-0.00367264	-0.0604624	0.000286482	0.00101033	0	0	0	
0.223	0.0147078	0.0115586	0.000260154	0.000885311	0	0	0	
0.223167	-0.0132795	0.0318783	0.000301158	0.000756829	0	0	0	
0.223333	0.00646556	-0.0269766	0.000281835	0.000596887	0	0	0	
0.2235	-0.00530494	0.00880545	0.000219694	0.000447226	0	0	0	
0.223667	0.00168394	0.00438472	0.000156107	0.000386213	0	0	0	
0.223833	0.00209126	-0.00360352	7.66336E-05	0.000189396	0	0	0	
0.224	-0.00298588	-0.017885	5.38566E-05	0.000228354	0	0	0	
0.224167	0.00381203	0.0346654	6.0695E-05	0.000368934	0	0	0	
0.224333	-0.00695435	-0.0188517	9.43588E-05	0.000499691	0	0	0	
0.2245	0.00484297	0.00101819	0.000117214	0.000537109	0	0	0	
0.224667	-0.000245438	0.00687799	0.000106392	0.000450607	0	0	0	
0.224833	-0.00319819	-0.0122403	7.66639E-05	0.000331976	0	0	0	
0.225	0.00532117	0.0144945	6.39217E-05	0.000244814	0	0	0	
0.225167	-0.00596764	0.00094199	0.000101706	0.000236736	0	0	0	
0.225333	0.00614545	-0.00985783	0.000125515	0.00026597	0	0	0	
0.2255	-0.00835645	0.0132186	0.000150538	0.000253771	0	0	0	
0.225667	0.00677929	-0.00455266	0.000143325	0.000232035	0	0	0	
0.225833	-0.00456514	0.000674024	0.000137487	0.000186972	0	0	0	
0.226	0.00322476	-0.00165098	0.000107774	0.000139041	0	0	0	
0.226167	-0.00187279	-0.00171091	8.91353E-05	0.000102533	0	0	0	
0.226333	-0.000683194	0.00513985	6.53671E-05	7.78149E-05	0	0	0	
0.2265	-0.00184135	-0.00130657	5.73593E-05	9.89102E-05	0	0	0	
0.226667	0.00223033	-0.00469496	4.65092E-05	0.000136235	0	0	0	
0.226833	-0.00446499	0.00875575	5.79767E-05	0.000166029	0	0	0	
0.227	0.00843081	-0.00786279	7.21603E-05	0.000163828	0	0	0	
0.227167	-0.00671311	-0.00713922	0.000134952	0.000214309	0	0	0	
0.227333	-0.00331199	0.0122928	0.000201127	0.000344815	0	0	0	
0.2275	0.000626375	-0.0115534	0.000182196	0.000393645	0	0	0	
0.227667	0.00747028	-0.00222513	0.000165041	0.000343655	0	0	0	
0.227833	-0.00419392	0.0111034	0.000120658	0.000270436	0	0	0	
0.228	-0.000291846	-0.0194361	0.000122286	0.000258137	0	0	0	
0.228167	-0.0124996	0.00572918	0.000151143	0.000383897	0	0	0	
0.228333	0.0496171	0.047304	0.000184637	0.000810764	0	0	0	
0.2285	-0.113875	0.0156409	0.00114372	0.00145395	0	0	0	
0.228667	0.0110743	0.0341969	0.00131855	0.00140024	0	0	0	
0.228833	0.0119565	-0.00681034	0.00153508	0.00102102	0	0	0	
0.229	-0.00998667	-0.016318	0.00069286	0.000382919	0	0	0	
0.229167	-0.00773619	0.0365242	0.000458847	0.000394881	0	0	0	
0.229333	0.00268211	-0.00629757	0.000258949	0.000394648	0	0	0	
0.2295	0.00624891	-0.0149703	0.000259322	0.000626586	0	0	0	
0.229667	-0.0119725	0.0155754	0.00028119	0.000649798	0	0	0	
0.229833	0.00381092	0.0130941	0.000257091	0.000614335	0	0	0	
0.23	0.00960027	-0.0188596	0.000188271	0.000395876	0	0	0	
0.230167	-0.0141144	0.00289169	0.000211085	0.000362504	0	0	0	
0.230333	0.00549806	-0.00302887	0.00026349	0.000347684	0	0	0	
0.2305	0.0035815	0.0131171	0.000284054	0.000312108	0	0	0	
0.230667	0.00120957	-0.00352756	0.000232094	0.000244037	0	0	0	
0.230833	-0.00532772	-0.010711	0.000150451	0.000200157	0	0	0	
0.231	-0.00117569	0.00887596	0.000118356	0.000250708	0	0	0	
0.231167	0.00106393	0.0190032	0.000101486	0.000364452	0	0	0	
0.231333	0.0117011	-0.0253779	0.000116536	0.000430879	0	0	0	
0.2315	-0.0158305	0.00896906	0.000145965	0.000474153	0	0	0	
0.231667	0.00479249	0.00540462	0.000250579	0.000351316	0	0	0	
0.231833	0.00403021	-2.21786E-06	0.000246779	0.00028174	0	0	0	
0.232	0.0075587	0.00176252	0.000237935	0.000132007	0	0	0	
0.232167	-0.0157804	-0.00340478	0.000186086	0.000143612	0	0	0	
0.232333	0.00365863	-0.00139182	0.000267283	0.000109988	0	0	0	
0.2325	0.0018217	0.0121337	0.00025564	0.000141079	0	0	0	
0.232667	0.0119769	-0.00517656	0.000274534	0.000129707	0	0	0	
0.232833	-0.0137019	-0.00262228	0.000223127	0.000142418	0	0	0	
0.233	0.00323607	-0.000427952	0.000228583	0.000105514	0	0	0	
0.233167	-0.00347605	0.00575743	0.000185989	8.20923E-05	0	0	0	
0.233333	0.00680176	-0.00536162	0.000139339	0.000114583	0	0	0	
0.2335	-0.00564647	0.0101873	0.000118298	0.000169342	0	0	0	
0.233667	0.00674571	-0.00996748	0.000125703	0.000205205	0	0	0	
0.233833	-0.00624284	0.00346084	0.000136138	0.000193654	0	0	0	
0.234	0.00169173	-0.000114797	0.000114943	0.000160855	0	0	0	
0.234167	-0.00437328	0.00737325	8.64435E-05	0.000136552	0	0	0	
0.234333	0.00791869	-0.00411983	7.92823E-05	0.000111502	0	0	0	
0.2345	-0.00212284	0.00268253	9.54959E-05	0.000111613	0	0	0	
0.234667	-0.000693208	-0.00411029	0.000106412	0.000100504	0	0	0	
0.234833	-0.00527203	0.0077156	8.50833E-05	0.000135143	0	0	0	
0.235	0.00731758	-0.000215068	8.29644E-05	0.000178074	0	0	0	
0.235167	-0.00575851	0.00243837	9.89456E-05	0.000198535	0	0	0	
0.235333	0.00644862	-0.00597558	0.000131857	0.000146027	0	0	0	
0.2355	-0.00311013	-0.000399449	0.000157434	0.000179475	0	0	0	
0.235667	-0.00598792	0.0284261	0.000198401	0.000272892	0	0	0	
0.235833	0.00929546	-0.0322916	0.000217857	0.00046064	0	0	0	
0.236	-0.00139575	0.00418869	0.000188695	0.00050622	0	0	0	
0.236167	-0.0128125	0.0230676	0.000194877	0.00043456	0	0	0	
0.236333	0.0145753	-0.00395225	0.000205705	0.000354509	0	0	0	
0.2365	0.000433207	0.000207059	0.000268429	0.000266955	0	0	0	
0.236667	-0.00672039	-0.025708	0.000234965	0.000416819	0	0	0	
0.236833	-0.00288194	0.0281635	0.000190358	0.000434941	0	0	0	
0.237	0.000416505	-0.0110485	0.000190837	0.00052288	0	0	0	
0.237167	0.00975187	0.023136	0.000272341	0.000440141	0	0	0	
0.237333	-0.000351688	-0.0114173	0.000265516	0.000426568	0	0	0	
0.2375	-0.0159414	-0.0274426	0.000264986	0.000442485	0	0	0	
0.237667	0.00497413	0.0353578	0.00019174	0.000504129	0	0	0	
0.237833	0.00602651	-0.0211124	0.000186532	0.000558468	0	0	0	
0.238	0.0655008	-0.0375141	0.000370639	0.000607847	0	0	0	
0.238167	-0.0766122	0.0474269	0.00228634	0.002203	0	0	0	
0.238333	0.0326717	-0.0492845	0.00358365	0.00355459	0	0	0	
0.2385	-0.0389948	0.0677649	0.00368202	0.00392959	0	0	0	
0.238667	0.00821749	-0.0464012	0.00186286	0.00273062	0	0	0	
0.238833	0.0407656	0.0468894	0.000670146	0.00201657	0	0	0	
0.239	-0.0680546	-0.103578	0.00065216	0.00228929	0	0	0	
0.239167	-0.00419189	0.190385	0.00107932	0.00297239	0	0	0	
0.239333	-0.192806	0.0396881	0.00340299	0.00382755	0	0	0	
0.2395	0.0766499	0.0037406	0.0037507	0.00313065	0	0	0	
0.239667	-0.0344059	0.0592152	0.0035235	0.00204612	0	0	0	
0.239833	0.0173633	-0.107532	0.00129742	0.000799295	0	0	0	
0.24	0.00591846	0.0670844	0.000681028	0.00119361	0	0	0	
0.240167	-0.0217238	0.00539622	0.000512057	0.00179363	0	0	0	
0.240333	0.0210315	-0.0626842	0.000483746	0.00234863	0	0	0	
0.2405	-0.0225661	0.0614045	0.000516378	0.00257184	0	0	0	
0.240667	0.0327819	-0.0485844	0.000506142	0.00228189	0	0	0	
0.240833	-0.0167203	0.0475372	0.000535918	0.00162946	0	0	0	
0.241	-0.0124093	-0.0217005	0.000662329	0.0010798	0	0	0	
0.241167	0.0198231	0.0121594	0.000646678	0.000765519	0	0	0	
0.241333	-0.0100471	-0.0320528	0.00049755	0.000803212	0	0	0	
0.2415	0.00688139	0.0479515	0.000306794	0.000936234	0	0	0	
0.241667	-0.00741666	-0.0338218	0.000198314	0.000955727	0	0	0	
0.241833	0.000194624	0.0105397	0.000144702	0.000836041	0	0	0	
0.242	0.00755305	-0.00122759	0.000108709	0.000660533	0	0	0	
0.242167	-0.0110761	0.00606461	0.000114321	0.000485583	0	0	0	
0.242333	0.0069816	-0.00992965	0.000147244	0.000324368	0	0	0	
0.2425	-0.000328461	0.00812242	0.000148093	0.000211769	0	0	0	
0.242667	0.00646501	-0.00939801	0.000120736	0.00023839	0	0	0	
0.242833	-0.0244222	0.012045	0.000200859	0.000241896	0	0	0	
0.243	0.0296268	-0.0201975	0.00034322	0.000278789	0	0	0	
0.243167	-0.0122007	0.0254195	0.000449111	0.00035772	0	0	0	
0.243333	-0.00254463	-0.0196807	0.000431558	0.000396984	0	0	0	
0.2435	0.00114897	-0.00183804	0.000301293	0.000474161	0	0	0	
0.243667	0.00294075	0.00917845	0.000172968	0.000436399	0	0	0	
0.243833	-0.00257808	0.00817431	7.63369E-05	0.000357778	0	0	0	
0.244	0.00525007	-0.0144449	6.1107E-05	0.000250662	0	0	0	
0.244167	-0.00460111	-0.0067421	7.92783E-05	0.000300981	0	0	0	
0.244333	-0.00147507	0.00558435	9.36903E-05	0.000273749	0	0	0	
0.2445	0.00418438	0.0205267	8.60981E-05	0.000371182	0	0	0	
0.244667	-0.00288299	-0.027181	8.73924E-05	0.00034147	0	0	0	
0.244833	-0.00161282	0.0123668	7.3484E-05	0.000481753	0	0	0	
0.245	0.00450234	-0.0120986	9.0427E-05	0.000399214	0	0	0	
0.245167	-0.00673667	0.0228406	0.000117617	0.00038762	0	0	0	
0.245333	0.00556208	-0.0152459	0.000134126	0.000342742	0	0	0	
0.2455	-0.00103704	-0.011933	0.000133588	0.000385516	0	0	0	
0.245667	-0.000892349	0.0185156	8.86486E-05	0.000363948	0	0	0	
0.245833	-0.0105572	0.00975866	9.42205E-05	0.000414696	0	0	0	
0.246	0.0165939	-0.0229935	0.000140233	0.000368993	0	0	0	
0.246167	-0.00311568	-0.00202831	0.000252297	0.000446145	0	0	0	
0.246333	-0.00686004	0.0144107	0.000314094	0.000418888	0	0	0	
0.2465	-0.00738982	0.00782059	0.000296547	0.00042238	0	0	0	
0.246667	0.0218682	-0.0266272	0.000272234	0.000347183	0	0	0	
0.246833	-0.0120056	0.0123434	0.000303588	0.000401274	0	0	0	
0.247	-0.00666741	0.00037137	0.000427759	0.000443936	0	0	0	
0.247167	0.00542874	0.0163352	0.000361149	0.000400631	0	0	0	
0.247333	0.00864464	-0.0104883	0.000313737	0.0002982	0	0	0	
0.2475	-0.00742263	-0.0160282	0.000189011	0.00028695	0	0	0	
0.247667	-0.0014018	0.00327125	0.000172403	0.000354277	0	0	0	
0.247833	-0.00739189	0.0279696	0.000145883	0.000523421	0	0	0	
0.248	0.0246211	-0.0205763	0.000213622	0.000519108	0	0	0	
0.248167	-0.0190035	0.00253295	0.000322096	0.000555418	0	0	0	
0.248333	-0.00533582	0.000579668	0.000421909	0.000371486	0	0	0	
0.2485	0.0132541	0.00350804	0.000368642	0.00027035	0	0	0	
0.248667	0.00457135	-0.00468426	0.000342472	0.000149779	0	0	0	
0.248833	-0.0132731	0.00747095	0.000239412	0.000122887	0	0	0	
0.249	0.000196723	-0.00615656	0.000236145	0.000137363	0	0	0	
0.249167	0.00560412	0.00831606	0.000162644	0.000154288	0	0	0	
0.249333	0.00304143	-0.00528704	0.000160384	0.000178698	0	0	0	
0.2495	-0.00911831	0.0034154	0.000126807	0.000205049	0	0	0	
0.249667	0.00927769	-0.0119234	0.000159754	0.000198431	0	0	0	
0.249833	-0.00450486	0.0226915	0.000146367	0.000238901	0	0	0	
0.25	-0.000857402	-0.0114013	0.000143275	0.000273968	0	0	0	
0.250167	0.000133118	-0.0043701	0.000101041	0.000336841	0	0	0	
0.250333	0.00501764	-0.000566226	8.17709E-05	0.0002628	0	0	0	
0.2505	-0.00715438	0.0189333	8.95772E-05	0.000236863	0	0	0	
0.250667	0.00822272	-0.0144435	0.000116491	0.000239117	0	0	0	
0.250833	-0.00676236	0.0120166	0.000143716	0.000286444	0	0	0	
0.251	0.00113179	-0.0116902	0.000131506	0.000295293	0	0	0	
0.251167	-0.00226947	0.00961416	0.000116402	0.000248683	0	0	0	
0.251333	0.00406905	-0.00495418	9.27228E-05	0.000221301	0	0	0	
0.2515	0.00323578	0.00869682	7.98079E-05	0.000204873	0	0	0	
0.251667	-0.0102763	0.00646013	9.13184E-05	0.000189534	0	0	0	
0.251833	0.0126036	-0.0121345	0.000140081	0.000246002	0	0	0	
0.252	-0.00724965	0.00193235	0.000272051	0.000319837	0	0	0	
0.252167	-0.011149	0.00895021	0.00037547	0.000346357	0	0	0	
0.252333	0.0151064	-0.0122463	0.0003677	0.000282515	0	0	0	
0.2525	-0.00180955	0.0217053	0.000337346	0.000256465	0	0	0	
0.252667	-0.00549986	-0.00582883	0.00028272	0.000263356	0	0	0	
0.252833	0.00136647	-0.0156727	0.000234219	0.000286737	0	0	0	
0.253	-0.0051792	0.0108938	0.000142913	0.000258403	0	0	0	
0.253167	0.00792896	0.00275315	0.000123252	0.000239079	0	0	0	
0.253333	0.000927117	-0.00580591	0.000128165	0.000182325	0	0	0	
0.2535	-0.0175389	0.0102812	0.000165144	0.000147843	0	0	0	
0.253667	0.013481	-0.00254885	0.000193846	0.00014832	0	0	0	
0.253833	0.00385646	-0.0138234	0.000256451	0.000201141	0	0	0	
0.254	-0.0109346	0.0118937	0.000250198	0.000253845	0	0	0	
0.254167	-0.00166753	0.000768155	0.000200349	0.000233254	0	0	0	
0.254333	0.0132942	-0.00213987	0.000173073	0.000260539	0	0	0	
0.2545	-0.0118168	0.00586142	0.000192903	0.000218305	0	0	0	
0.254667	0.00156367	-0.0150127	0.000195133	0.000240046	0	0	0	
0.254833	-0.00200252	0.00561812	0.000151252	0.000215678	0	0	0	
0.255	0.0108228	0.0065315	0.000119872	0.000212935	0	0	0	
0.255167	-0.0124321	0.00905981	0.000137959	0.000197695	0	0	0	
0.255333	0.00659246	-0.019331	0.000181588	0.000216929	0	0	0	
0.2555	-0.00455246	0.000143581	0.000171905	0.000246251	0	0	0	
0.255667	0.00623789	0.00768738	0.000141061	0.000251507	0	0	0	
0.255833	-0.00605445	0.000270341	0.000118763	0.000192436	0	0	0	
0.256	0.00561211	-0.000837909	0.000113432	0.000122165	0	0	0	
0.256167	-0.00970112	0.00511289	0.00012183	8.12198E-05	0	0	0	
0.256333	0.00938128	-0.0164664	0.000148618	0.000117485	0	0	0	
0.2565	-0.00851338	0.0130819	0.000174277	0.000202939	0	0	0	
0.256667	0.00775076	0.000321122	0.00017995	0.000320756	0	0	0	
0.256833	-0.00473426	-0.0022328	0.000150084	0.000298137	0	0	0	
0.257	0.00366941	-0.0115446	0.000114936	0.00023416	0	0	0	
0.257167	-0.00800604	0.0146846	0.000102173	0.000184294	0	0	0	
0.257333	0.0104618	-0.00445385	0.000128193	0.000258613	0	0	0	
0.2575	-0.0102507	-8.60876E-05	0.000177106	0.000274527	0	0	0	
0.257667	0.00765275	-0.00129513	0.000188644	0.000217115	0	0	0	
0.257833	-0.00140456	-0.000242356	0.000172762	0.000156249	0	0	0	
0.258	0.000470273	-0.00038103	0.00013328	0.000139384	0	0	0	
0.258167	-0.0116121	0.00155619	0.000132841	0.000149735	0	0	0	
0.258333	0.0195154	0.00393	0.000185502	0.0001475	0	0	0	
0.2585	-0.00908565	-0.00118194	0.000250707	0.000128422	0	0	0	
0.258667	-0.00433757	-0.00415692	0.000270998	0.00013291	0	0	0	
0.258833	0.000132191	-0.00695939	0.000184073	0.000203219	0	0	0	
0.259	0.0112036	0.00963819	0.000123787	0.000227418	0	0	0	
0.259167	-0.0114302	0.00859618	0.000129276	0.000274688	0	0	0	
0.259333	0.00628908	-0.00205123	0.00018204	0.00017889	0	0	0	
0.2595	-0.0111313	-0.017952	0.000216271	0.000254316	0	0	0	
0.259667	0.011869	0.00289975	0.000211336	0.000225881	0	0	0	
0.259833	-0.00267751	0.0133082	0.000220935	0.000228384	0	0	0	
0.26	-0.00231395	-0.00743716	0.000214326	0.000234344	0	0	0	
0.260167	-0.00673873	0.00329783	0.000192018	0.000309628	0	0	0	
0.260333	0.00948825	0.00188286	0.000210274	0.000414351	0	0	0	
0.2605	-0.00179786	-0.0175187	0.000178724	0.000486158	0	0	0	
0.260667	-0.0011625	0.0123488	0.000131634	0.000459836	0	0	0	
0.260833	-0.00492451	0.0143618	6.89804E-05	0.000398466	0	0	0	
0.261	0.00800342	-0.015955	7.31382E-05	0.000300064	0	0	0	
0.261167	-0.00665699	0.00109968	0.00012199	0.000345991	0	0	0	
0.261333	0.00428256	-0.00785322	0.000135136	0.000314418	0	0	0	
0.2615	-0.00408776	0.015946	0.000121705	0.000289078	0	0	0	
0.261667	0.00758532	-0.00143238	0.000119565	0.000201715	0	0	0	
0.261833	-0.000906719	-0.0028664	0.000151384	0.000170422	0	0	0	
0.262	-0.00371708	-0.0139677	0.000146839	0.00021406	0	0	0	
0.262167	-0.011988	0.0225411	0.000207166	0.000245615	0	0	0	
0.262333	0.0196597	-0.00871608	0.000241202	0.000363051	0	0	0	
0.2625	0.00554324	0.00538736	0.000334091	0.000304139	0	0	0	
0.262667	-0.00450612	-0.0344101	0.000257965	0.000297958	0	0	0	
0.262833	-0.0340708	0.164871	0.000745506	0.000680617	0	0	0	
0.263	0.0173191	-0.0443631	0.00135021	0.00118436	0	0	0	
0.263167	-0.0406742	0.0171763	0.00149704	0.00149565	0	0	0	
0.263333	0.0168468	-0.000569218	0.00112975	0.00122906	0	0	0	
0.2635	0.00023372	-0.0166095	0.00051378	0.000730496	0	0	0	
0.263667	-0.00592366	0.054234	0.000455219	0.000610864	0	0	0	
0.263833	-0.00459723	-0.000657914	0.000401949	0.000455673	0	0	0	
0.264	-8.79581E-05	-0.0481468	0.000396413	0.000680462	0	0	0	
0.264167	-0.00238698	0.0633572	0.000291943	0.000702619	0	0	0	
0.264333	0.00338994	-0.0266493	0.000139162	0.000941814	0	0	0	
0.2645	0.000717666	-0.000231645	6.94045E-05	0.000835152	0	0	0	
0.264667	-0.00239112	0.00180183	6.7194E-05	0.000574453	0	0	0	
0.264833	-0.0154462	0.00660125	0.000137538	0.000295908	0	0	0	
0.265	0.0279499	0.00248849	0.000254899	0.000134458	0	0	0	
0.265167	-0.013248	0.00393743	0.000386544	0.00012312	0	0	0	
0.265333	-0.0109637	-0.00436023	0.000490568	0.000107242	0	0	0	
0.2655	0.00909582	-0.000197205	0.000424751	9.40364E-05	0	0	0	
0.265667	0.000998302	0.00058422	0.000311766	5.66282E-05	0	0	0	
0.265833	0.00522013	0.0074401	0.000146708	5.91876E-05	0	0	0	
0.266	-0.00799262	-0.00246812	0.000124382	9.49347E-05	0	0	0	
0.266167	-0.00167726	-0.00619989	0.00012745	0.000156613	0	0	0	
0.266333	0.013121	0.00936389	0.000158567	0.000205387	0	0	0	
0.2665	-0.00800006	-0.00572351	0.000166462	0.000199772	0	0	0	
0.266667	-0.000246267	-0.0042678	0.000167577	0.00017767	0	0	0	
0.266833	0.00137843	0.00989437	0.000108363	0.000124996	0	0	0	
0.267	0.00499522	-0.00403958	0.000107809	0.000163518	0	0	0	
0.267167	-0.0110079	-0.00363548	0.000117658	0.000255398	0	0	0	
0.267333	0.00199768	0.0108986	0.000165731	0.000304056	0	0	0	
0.2675	0.00949939	-0.00925153	0.00013829	0.000289892	0	0	0	
0.267667	-0.00276649	-0.00113543	0.00012866	0.00019543	0	0	0	
0.267833	0.00197434	0.00705064	8.72812E-05	0.000137484	0	0	0	
0.268	-0.00569519	-0.00545099	8.08472E-05	0.000114846	0	0	0	
0.268167	0.00061052	-0.00433569	0.000194276	0.000105756	0	0	0	
0.268333	0.0166326	0.0142712	0.000432948	0.000211142	0	0	0	
0.2685	-0.0224302	0.00995519	0.000573696	0.000305924	0	0	0	
0.268667	0.0142982	-0.0211855	0.000538881	0.000374	0	0	0	
0.268833	0.00153441	0.0129695	0.000395643	0.000348882	0	0	0	
0.269	-0.00894618	-0.00439418	0.000262416	0.000287464	0	0	0	
0.269167	0.018184	-0.0118414	0.000247981	0.000273151	0	0	0	
0.269333	-0.0175523	0.0225599	0.00026634	0.000312001	0	0	0	
0.2695	0.012006	-0.0125114	0.000339024	0.000349755	0	0	0	
0.269667	-0.00340078	-0.00446084	0.000297651	0.000339908	0	0	0	
0.269833	-0.00319113	0.00844217	0.000195002	0.000263051	0	0	0	
0.27	0.0010006	-0.00208902	0.000116104	0.000182052	0	0	0	
0.270167	0.01109	-0.00749555	0.000128795	0.000133379	0	0	0	
0.270333	-0.00450364	0.0023052	0.000153446	0.000109928	0	0	0	
0.2705	-0.0107675	0.0194341	0.000213228	0.000212802	0	0	0	
0.270667	0.0181034	-0.0211369	0.000228047	0.000317309	0	0	0	
0.270833	-0.0108467	0.0135838	0.000291288	0.000393612	0	0	0	
0.271	-0.00110796	0.00090742	0.00028296	0.000369288	0	0	0	
0.271167	0.00318959	-0.00456679	0.000206893	0.000273399	0	0	0	
0.271333	0.00208766	0.00708482	0.000126627	0.000192436	0	0	0	
0.2715	-0.00750487	0.00872185	9.3459E-05	0.000134538	0	0	0	
0.271667	0.00803296	-0.00046002	0.000126978	0.000127765	0	0	0	
0.271833	-0.00566991	-0.00431604	0.000152178	0.000112041	0	0	0	
0.272	-3.86442E-05	0.00354153	0.000140027	8.06041E-05	0	0	0	
0.272167	-0.000766846	9.76536E-05	9.7032E-05	8.85249E-05	0	0	0	
0.272333	0.000349214	-0.00685296	6.16645E-05	0.000106656	0	0	0	
0.2725	-0.00142643	0.0177224	6.45051E-05	0.000142689	0	0	0	
0.272667	0.000153101	-0.00730146	7.9266E-05	0.000206768	0	0	0	
0.272833	-0.00540253	-0.00484548	0.000115658	0.000223962	0	0	0	
0.273	0.00489314	0.00564243	0.000136764	0.00020449	0	0	0	
0.273167	-0.00553846	-0.000214417	0.000147133	0.000133496	0	0	0	
0.273333	0.00448668	-0.00147053	0.000125873	8.07919E-05	0	0	0	
0.2735	-0.00283695	0.00358947	0.000123409	5.48648E-05	0	0	0	
0.273667	-0.00204716	-0.0132832	0.000123195	9.29248E-05	0	0	0	
0.273833	-0.0050652	0.00819973	0.000113351	0.000149708	0	0	0	
0.274	0.00997631	-0.00549849	0.000106848	0.000179115	0	0	0	
0.274167	-0.00484087	-0.00144867	0.000122306	0.000155771	0	0	0	
0.274333	0.000215628	0.0027558	0.00012794	9.84719E-05	0	0	0	
0.2745	-0.0031497	0.00879624	8.86816E-05	0.00011467	0	0	0	
0.274667	0.00590967	-0.00636762	8.88243E-05	0.000134309	0	0	0	
0.274833	-0.00777799	-0.00483502	9.87245E-05	0.00019781	0	0	0	
0.275	0.00498159	0.0103029	0.000127749	0.000207934	0	0	0	
0.275167	-0.00153875	-0.00870529	0.000110631	0.000219532	0	0	0	
0.275333	0.0034013	0.000497875	8.51611E-05	0.000213605	0	0	0	
0.2755	-0.00439494	0.00520796	6.73257E-05	0.000205295	0	0	0	
0.275667	-0.000805846	-0.0177237	8.20446E-05	0.000243309	0	0	0	
0.275833	0.00363864	0.0325514	8.91342E-05	0.000338987	0	0	0	
0.276	0.00305018	-0.0103505	0.000108336	0.000444086	0	0	0	
0.276167	-0.00787921	-0.0218634	0.000122263	0.000482583	0	0	0	
0.276333	0.00383272	0.0149338	0.000130974	0.000426616	0	0	0	
0.2765	-0.00152039	-0.00107339	0.000108038	0.000347638	0	0	0	
0.276667	0.0033659	-0.00889328	6.51291E-05	0.000265274	0	0	0	
0.276833	-0.00548358	0.00220773	6.74519E-05	0.000227694	0	0	0	
0.277	0.00115843	0.00691246	0.000101488	0.000195146	0	0	0	
0.277167	0.00164328	-0.00757728	0.000130629	0.000155313	0	0	0	
0.277333	0.000520184	0.0022188	0.00011265	0.000114382	0	0	0	
0.2775	-0.00181898	0.0031839	7.14902E-05	9.08552E-05	0	0	0	
0.277667	0.00146835	-0.0102377	4.17364E-05	0.000106448	0	0	0	
0.277833	-0.00456641	0.0140091	5.10576E-05	0.000157817	0	0	0	
0.278	0.0102141	0.0070356	9.0909E-05	0.000266075	0	0	0	
0.278167	-0.0134565	-0.0109265	0.000151171	0.000344912	0	0	0	
0.278333	0.015308	0.000350996	0.000211878	0.000291713	0	0	0	
0.2785	-0.00807191	0.00548862	0.00023527	0.000231376	0	0	0	
0.278667	-0.00332313	-0.0038676	0.000216242	0.000144709	0	0	0	
0.278833	0.01048	-2.86731E-05	0.000165249	0.000123631	0	0	0	
0.279	0.00172948	0.00826814	0.000177016	6.0899E-05	0	0	0	
0.279167	-0.0157263	-0.000267903	0.000222401	0.000107957	0	0	0	
0.279333	0.0111267	-0.00823726	0.00026591	0.000183578	0	0	0	
0.2795	-0.000158454	0.00511608	0.000256705	0.000230964	0	0	0	
0.279667	0.00193447	-0.00064121	0.000167185	0.000197089	0	0	0	
0.279833	-0.00203344	-0.00921999	0.000105479	0.000181721	0	0	0	
0.28	-0.00491268	0.0107489	0.000154024	0.000176092	0	0	0	
0.280167	0.00729274	0.0233004	0.00023002	0.000256183	0	0	0	
0.280333	0.00161842	-0.0316367	0.000276001	0.000348537	0	0	0	
0.2805	-0.00536377	0.0142478	0.000211587	0.000529915	0	0	0	
0.280667	0.000974321	0.00370296	0.000151616	0.000618209	0	0	0	
0.280833	0.00247371	-0.0108838	0.000123199	0.00054527	0	0	0	
0.281	0.00562631	0.0240816	8.44827E-05	0.000394784	0	0	0	
0.281167	-0.0168837	-0.0139576	0.000164868	0.000380305	0	0	0	
0.281333	0.0177681	-0.0162288	0.000224099	0.00053834	0	0	0	
0.2815	-0.00384041	0.0242653	0.000332956	0.000579368	0	0	0	
0.281667	-0.00464027	0.000298239	0.000376857	0.000695637	0	0	0	
0.281833	0.0022121	-0.0197046	0.000333658	0.000670399	0	0	0	
0.282	-0.0016181	0.0194883	0.000221547	0.00064359	0	0	0	
0.282167	0.00609989	-0.011281	0.000119553	0.000512972	0	0	0	
0.282333	-0.000359289	-0.00800634	9.23149E-05	0.00052461	0	0	0	
0.2825	-0.0124678	0.0179204	0.000162757	0.000496676	0	0	0	
0.282667	0.0143104	-0.00147944	0.000192063	0.000479863	0	0	0	
0.282833	-0.00535098	-0.00690908	0.000242852	0.00037531	0	0	0	
0.283	-0.00108426	0.00543274	0.000202883	0.000325623	0	0	0	
0.283167	0.00289901	0.00322058	0.000139521	0.000253012	0	0	0	
0.283333	-0.00138599	-0.0171056	9.17929E-05	0.000287617	0	0	0	
0.2835	-0.00215491	0.0176874	8.68684E-05	0.000329686	0	0	0	
0.283667	0.00312258	0.00780079	0.000105062	0.000434529	0	0	0	
0.283833	-0.00181887	-0.0174244	9.79669E-05	0.000433718	0	0	0	
0.284	-0.000561085	0.00890702	5.66615E-05	0.000439444	0	0	0	
0.284167	0.00134282	-0.00278602	3.33737E-05	0.000290811	0	0	0	
0.284333	0.00463509	0.00165903	7.52663E-05	0.000200688	0	0	0	
0.2845	-0.0168893	0.00929373	0.000168404	0.000244209	0	0	0	
0.284667	0.0205879	-0.0246009	0.000270176	0.000300828	0	0	0	
0.284833	-0.0141766	0.0288203	0.000332644	0.000399073	0	0	0	
0.285	0.00194498	-0.0111029	0.000328466	0.000457808	0	0	0	
0.285167	0.00598197	-0.00360865	0.00026286	0.000439733	0	0	0	
0.285333	-0.00807708	0.0131177	0.00018408	0.000313287	0	0	0	
0.2855	0.000620963	-0.0198807	0.000183449	0.000255515	0	0	0	
0.285667	0.0102594	0.00510769	0.000237473	0.000337848	0	0	0	
0.285833	-0.00870013	0.0255259	0.00026236	0.000548924	0	0	0	
0.286	-0.000537771	-0.0285472	0.000193366	0.000658569	0	0	0	
0.286167	0.00171833	0.0162198	0.000105829	0.00060159	0	0	0	
0.286333	-0.000484932	0.00234737	5.54073E-05	0.000468165	0	0	0	
0.2865	-0.00174946	-0.0224924	4.50198E-05	0.000419239	0	0	0	
0.286667	0.00623941	0.0109144	6.78252E-05	0.000381682	0	0	0	
0.286833	-0.00712304	0.0197278	9.12296E-05	0.000444855	0	0	0	
0.287	0.00642026	-0.033799	0.000126357	0.000414969	0	0	0	
0.287167	-0.00285962	0.0171258	0.000151375	0.000546454	0	0	0	
0.287333	5.11074E-05	0.00598146	0.00013138	0.000510838	0	0	0	
0.2875	-0.00156514	-0.00834135	9.01527E-05	0.000397648	0	0	0	
0.287667	0.00442944	-0.0035321	5.03966E-05	0.000303904	0	0	0	
0.287833	-0.00290098	0.0144053	5.48835E-05	0.000364541	0	0	0	
0.288	0.00330398	-0.0212809	8.52254E-05	0.000489709	0	0	0	
0.288167	-0.000691679	0.0114899	8.1074E-05	0.000472858	0	0	0	
0.288333	0.000330002	0.00397214	6.48135E-05	0.000325878	0	0	0	
0.2885	0.000402059	-0.00343242	2.95037E-05	0.000192289	0	0	0	
0.288667	0.00169373	-0.0141421	1.93006E-05	0.000239297	0	0	0	
0.288833	-0.00756101	0.0202835	4.80286E-05	0.000360629	0	0	0	
0.289	0.00808776	-0.00323988	9.86321E-05	0.000401193	0	0	0	
0.289167	-0.00270766	-0.0155834	0.000133122	0.000316703	0	0	0	
0.289333	-0.000460131	0.0101666	0.000137268	0.000222343	0	0	0	
0.2895	-0.000388004	0.00032734	9.83969E-05	0.000230404	0	0	0	
0.289667	0.00102468	-0.00564901	6.57537E-05	0.000246294	0	0	0	
0.289833	-7.32816E-05	0.0121356	3.17595E-05	0.000287875	0	0	0	
0.29	0.00387605	-0.0175494	3.21577E-05	0.000331685	0	0	0	
0.290167	-0.00736676	6.13098E-06	6.1273E-05	0.000306925	0	0	0	
0.290333	0.00389144	0.0121212	9.65576E-05	0.00027435	0	0	0	
0.2905	-2.2032E-05	-0.00859853	0.00011337	0.000214202	0	0	0	
0.290667	-0.000153911	-0.00188614	8.51023E-05	0.000222755	0	0	0	
0.290833	-0.00323719	0.0162888	5.3309E-05	0.000209399	0	0	0	
0.291	0.00886083	-0.019022	6.26055E-05	0.000264642	0	0	0	
0.291167	-0.0110967	0.00171753	0.000118518	0.000264297	0	0	0	
0.291333	0.007318	0.00778648	0.000161676	0.000199047	0	0	0	
0.2915	-0.00261306	-0.00166352	0.000158464	0.000148206	0	0	0	
0.291667	0.00166068	-0.00500696	0.000108782	0.000131285	0	0	0	
0.291833	-0.00670716	0.0119495	8.12366E-05	0.000165425	0	0	0	
0.292	0.0123125	-0.0255269	0.000106281	0.000230675	0	0	0	
0.292167	-0.00589568	0.0248089	0.000156013	0.000330244	0	0	0	
0.292333	-0.00156165	-0.00362858	0.000159388	0.000390239	0	0	0	
0.2925	0.00329884	-0.0122435	0.000117244	0.000388141	0	0	0	
0.292667	-0.00180473	0.00226504	8.53723E-05	0.000276563	0	0	0	
0.292833	-0.003408	0.00776995	0.000101366	0.000201687	0	0	0	
0.293	0.0173939	0.00653066	0.000179439	0.000141307	0	0	0	
0.293167	-0.0203214	-0.0124687	0.000283221	0.000141094	0	0	0	
0.293333	0.0151139	-0.011504	0.000339081	0.000343967	0	0	0	
0.2935	-0.005346	0.0380068	0.000325622	0.000532763	0	0	0	
0.293667	-0.000433074	-0.0263307	0.000229577	0.000691338	0	0	0	
0.293833	0.00187466	0.00354947	0.000139884	0.000568917	0	0	0	
0.294	-0.0047225	-0.00503013	7.20175E-05	0.000346159	0	0	0	
0.294167	-0.000285704	0.0131789	0.000108681	0.000223194	0	0	0	
0.294333	0.0143175	0.00406279	0.000199953	0.000240254	0	0	0	
0.2945	-0.00816962	-0.0220795	0.000253629	0.000336788	0	0	0	
0.294667	-0.0221	0.0309256	0.000352363	0.000434164	0	0	0	
0.294833	0.0195258	-0.0090347	0.000372531	0.000448758	0	0	0	
0.295	0.00173075	-0.00298126	0.000427224	0.000405789	0	0	0	
0.295167	-0.0200902	-0.000402612	0.000349858	0.000245536	0	0	0	
0.295333	0.0142443	0.00394347	0.000336215	0.000126242	0	0	0	
0.2955	-0.00884594	0.0156707	0.000279302	0.000158833	0	0	0	
0.295667	0.0100143	-0.0254624	0.000239761	0.000264782	0	0	0	
0.295833	-0.0127993	0.0165444	0.000285992	0.000467956	0	0	0	
0.296	-0.00188212	-0.00152121	0.000348868	0.000504343	0	0	0	
0.296167	0.00235377	0.00224797	0.000334298	0.000468941	0	0	0	
0.296333	0.0106878	0.00394135	0.000217611	0.000454517	0	0	0	
0.2965	-0.00925618	-0.023144	0.000150899	0.000529694	0	0	0	
0.296667	0.0107615	-0.00174381	0.00016369	0.000503453	0	0	0	
0.296833	-0.0141985	0.0286495	0.000227413	0.0004574	0	0	0	
0.297	0.00468609	-0.0191842	0.000222224	0.000364514	0	0	0	
0.297167	-0.00387511	0.00524074	0.000190115	0.00039985	0	0	0	
0.297333	0.00711099	-0.00327702	0.000116994	0.000300132	0	0	0	
0.2975	-0.00202692	0.0151863	9.36987E-05	0.00023838	0	0	0	
0.297667	0.0103605	-0.0332709	0.000125997	0.000311506	0	0	0	
0.297833	-0.0174847	0.0205487	0.000185151	0.000419068	0	0	0	
0.298	0.0111505	-0.00686111	0.000240494	0.000526315	0	0	0	
0.298167	-0.0027543	-0.00452248	0.000241621	0.00047531	0	0	0	
0.298333	0.00224602	0.00659578	0.000179924	0.000333664	0	0	0	
0.2985	-0.00666645	-0.00396804	0.000149449	0.000194439	0	0	0	
0.298667	0.00271831	-0.0104303	0.000155075	0.000180792	0	0	0	
0.298833	-0.0019289	0.0262112	0.000152051	0.000275617	0	0	0	
0.299	0.00289675	-0.0221862	0.000128234	0.000378633	0	0	0	
0.299167	-0.00306453	0.00470587	9.41637E-05	0.000387046	0	0	0	
0.299333	0.00262934	0.00367731	8.23756E-05	0.000313676	0	0	0	
0.2995	-0.00266614	-0.00492513	6.11142E-05	0.000196868	0	0	0	
0.299667	0.00694721	-0.0160894	6.21899E-05	0.000140136	0	0	0	
0.299833	-0.0129861	0.0260537	0.000117175	0.000232108	0	0	0	
0.3	0.00907511	-0.0146008	0.000173162	0.000318947	0	0	0	
0.300167	-0.0013884	0.00284556	0.000182901	0.000404018	0	0	0	
0.300333	-6.52317E-05	0.00327505	0.000122932	0.000316381	0	0	0	
0.3005	-0.00579785	0.00847646	8.70216E-05	0.000255916	0	0	0	
0.300667	0.0100645	-0.0224418	9.22806E-05	0.000204308	0	0	0	
0.300833	-0.00207882	0.0051441	0.000166259	0.000268783	0	0	0	
0.301	-0.0108396	0.00439179	0.000234704	0.000296021	0	0	0	
0.301167	0.0140004	0.00288291	0.000254264	0.000312889	0	0	0	
0.301333	-0.00068923	-0.00718166	0.000260738	0.000325795	0	0	0	
0.3015	-0.00506364	0.00805842	0.000213951	0.000318309	0	0	0	
0.301667	0.00425254	-0.0232152	0.000177508	0.000307045	0	0	0	
0.301833	-0.00836915	0.028092	0.00012253	0.000330571	0	0	0	
0.302	0.0108961	-0.0080839	0.000134361	0.0003682	0	0	0	
0.302167	-0.0041144	-0.00582525	0.000172547	0.000337114	0	0	0	
0.302333	-0.00184603	0.00507903	0.000170633	0.000364596	0	0	0	
0.3025	-0.00140185	0.0144382	0.000121001	0.00042838	0	0	0	
0.302667	0.00657735	-0.0206945	8.18224E-05	0.000465781	0	0	0	
0.302833	-0.00724357	0.0196204	0.000110197	0.000493162	0	0	0	
0.303	0.000804353	0.00549746	0.000170787	0.000595897	0	0	0	
0.303167	-0.00349761	-0.0156089	0.000169978	0.000595569	0	0	0	
0.303333	0.00914185	-0.00235383	0.000176155	0.000499614	0	0	0	
0.3035	-0.00781864	0.0104995	0.000151746	0.000328555	0	0	0	
0.303667	0.00441826	-0.00731962	0.000162989	0.0002787	0	0	0	
0.303833	-0.0046676	0.00661879	0.00012785	0.000209574	0	0	0	
0.304	0.00160028	-0.00498838	9.83487E-05	0.000151331	0	0	0	
0.304167	0.00082367	0.00953076	7.33538E-05	0.000156428	0	0	0	
0.304333	0.00384845	-0.0233798	9.21488E-05	0.000225867	0	0	0	
0.3045	-0.00570973	0.0147471	0.000138627	0.000317294	0	0	0	
0.304667	0.00415073	-0.00595554	0.00015794	0.000320973	0	0	0	
0.304833	-0.000648473	0.00169679	0.000121106	0.00022145	0	0	0	
0.305	0.00333327	0.00303556	8.96198E-05	0.000148427	0	0	0	
0.305167	-0.00868664	-0.00219676	0.000133156	0.000167141	0	0	0	
0.305333	0.00886389	-0.00791272	0.000171184	0.000193725	0	0	0	
0.3055	0.000179628	0.0164961	0.000165139	0.000257978	0	0	0	
0.305667	-0.00125822	-0.00870703	9.67403E-05	0.000266115	0	0	0	
0.305833	-0.00169139	2.35162E-05	6.89091E-05	0.000258591	0	0	0	
0.306	0.000108691	-0.00504597	4.46476E-05	0.000152791	0	0	0	
0.306167	0.000828945	0.015409	5.01532E-05	0.000146132	0	0	0	
0.306333	0.000584569	-0.0108245	3.59182E-05	0.000177967	0	0	0	
0.3065	-0.000768822	0.00268272	5.11924E-05	0.000190842	0	0	0	
0.306667	0.00197573	0.00132237	4.81169E-05	0.000141193	0	0	0	
0.306833	3.00213E-05	0.00170016	4.49758E-05	0.000100616	0	0	0	
0.307	0.000660947	-0.00786298	3.20689E-05	0.000103574	0	0	0	
0.307167	-0.00774722	0.0144904	7.39346E-05	0.000149774	0	0	0	
0.307333	0.0114685	-0.0209839	0.000146554	0.000221583	0	0	0	
0.3075	-0.00694276	0.00565211	0.000188864	0.00026577	0	0	0	
0.307667	-0.000109416	0.00310173	0.000173886	0.000227968	0	0	0	
0.307833	0.00198133	-0.000457148	0.000112685	0.000154465	0	0	0	
0.308	-0.000175487	-0.0102457	7.24896E-05	0.000133022	0	0	0	
0.308167	-0.00227928	0.020479	6.35228E-05	0.000182326	0	0	0	
0.308333	0.00379043	-0.0308239	7.61184E-05	0.000349154	0	0	0	
0.3085	-0.00410224	0.0119788	9.44609E-05	0.00045911	0	0	0	
0.308667	0.00327572	-0.00117607	9.73616E-05	0.000432035	0	0	0	
0.308833	-0.00309828	0.00431086	8.14833E-05	0.000302609	0	0	0	
0.309	0.00251208	-0.00393468	6.33587E-05	0.000166562	0	0	0	
0.309167	-0.00215195	0.00988735	5.31677E-05	0.000168313	0	0	0	
0.309333	0.00121623	-0.028561	6.62017E-05	0.000230721	0	0	0	
0.3095	-0.00289655	0.013635	7.10663E-05	0.000364569	0	0	0	
0.309667	0.00494959	0.00721588	9.94901E-05	0.000365582	0	0	0	
0.309833	-0.00740642	-0.00204478	0.000123008	0.000313717	0	0	0	
0.31	0.00405819	-0.00860758	0.000135753	0.000243561	0	0	0	
0.310167	-0.00420553	0.00735008	0.000112277	0.000235728	0	0	0	
0.310333	0.00372097	0.00203055	8.6786E-05	0.000177923	0	0	0	
0.3105	0.00331223	-0.011955	9.82682E-05	0.000133139	0	0	0	
0.310667	-0.0086235	0.00888657	0.000109912	0.000157267	0	0	0	
0.310833	-0.0020304	0.00934474	0.000157058	0.000225304	0	0	0	
0.311	0.0104004	-0.0153603	0.000197495	0.000282137	0	0	0	
0.311167	-0.00358072	0.0044758	0.000196559	0.000264071	0	0	0	
0.311333	-0.00258081	-0.00354924	0.000137288	0.000202891	0	0	0	
0.3115	-0.0118246	0.023998	0.000159577	0.000174532	0	0	0	
0.311667	0.0282084	-0.0302797	0.000266235	0.000308783	0	0	0	
0.311833	-0.0207535	0.00212047	0.000408823	0.000460987	0	0	0	
0.312	-0.0034037	0.0149012	0.000487757	0.000460718	0	0	0	
0.312167	0.00904717	-0.00439146	0.000431521	0.000384593	0	0	0	
0.312333	0.00246538	-0.00673218	0.000328936	0.000271576	0	0	0	
0.3125	-0.011124	-0.00529923	0.000198973	0.000248933	0	0	0	
0.312667	-0.00947356	0.0250503	0.000166707	0.000232912	0	0	0	
0.312833	0.0195194	-0.12469	0.000612545	0.00077942	0	0	0	
0.313	0.0273731	-0.00502746	0.0010826	0.00105887	0	0	0	
0.313167	0.0111843	0.0198573	0.00120953	0.0011506	0	0	0	
0.313333	-0.0202736	-0.0113329	0.000833763	0.000645133	0	0	0	
0.3135	0.00253134	0.0128433	0.000417494	0.00037967	0	0	0	
0.313667	0.0112853	-0.0240909	0.000402078	0.000389749	0	0	0	
0.313833	0.0028326	-0.00806217	0.000381734	0.00040964	0	0	0	
0.314	-0.00453725	0.0110428	0.000304622	0.000401997	0	0	0	
0.314167	0.00123495	-0.00646009	0.000169085	0.00026388	0	0	0	
0.314333	0.00456026	0.00267373	0.000131425	0.000200212	0	0	0	
0.3145	-0.0100063	-0.000548064	0.000152677	0.000190169	0	0	0	
0.314667	0.0128339	-0.00705102	0.000197708	0.000150387	0	0	0	
0.314833	-0.0104856	0.015991	0.000207352	0.000177801	0	0	0	
0.315	0.00463657	-0.00471252	0.000202219	0.000193123	0	0	0	
0.315167	-0.000276555	-0.00132414	0.000147555	0.000184597	0	0	0	
0.315333	0.00319405	-0.0032968	0.000105823	0.000150536	0	0	0	
0.3155	-0.00721735	0.00667308	0.000104305	0.000150027	0	0	0	
0.315667	0.00559045	-0.00674718	0.000134012	0.00016834	0	0	0	
0.315833	-0.00216663	0.00641872	0.00014418	0.000158566	0	0	0	
0.316	0.00407708	-0.00422318	0.000149353	0.000119005	0	0	0	
0.316167	-0.00520765	0.00124857	0.000144152	0.000105499	0	0	0	
0.316333	0.0016876	-0.00124783	0.000118165	8.31536E-05	0	0	0	
0.3165	-5.85617E-05	0.0016687	0.000101851	9.52979E-05	0	0	0	
0.316667	9.1881E-05	0.00501957	6.52465E-05	0.000134426	0	0	0	
0.316833	-0.0022037	-0.0116039	0.000105653	0.000170132	0	0	0	
0.317	0.00794809	0.000937814	0.00021226	0.000347395	0	0	0	
0.317167	-0.0159119	0.0143123	0.000362583	0.000488091	0	0	0	
0.317333	0.0123001	-0.0121117	0.000372421	0.000490308	0	0	0	
0.3175	-0.00101427	0.0072415	0.000349427	0.000380111	0	0	0	
0.317667	-0.000407472	-0.0102824	0.000213231	0.00023485	0	0	0	
0.317833	-0.00549794	0.00282019	0.000229483	0.000215245	0	0	0	
0.318	-0.00155915	0.0135954	0.000144352	0.000185364	0	0	0	
0.318167	0.00983345	-0.00740567	0.000170999	0.000201756	0	0	0	
0.318333	-0.000845498	-0.0100911	0.000123056	0.000199928	0	0	0	
0.3185	-0.0149975	0.015989	0.000175011	0.000203986	0	0	0	
0.318667	0.0115045	-0.0110689	0.000211354	0.000229966	0	0	0	
0.318833	0.00451828	0.00666508	0.00023311	0.000273973	0	0	0	
0.319	-0.00994808	0.000325491	0.000190632	0.000247612	0	0	0	
0.319167	-0.00275911	-0.000159242	0.000222414	0.000231927	0	0	0	
0.319333	0.0119212	-0.0091552	0.000270496	0.00021807	0	0	0	
0.3195	-0.0104633	0.0116896	0.000292258	0.000217971	0	0	0	
0.319667	0.00596608	-0.00914593	0.000230511	0.000208279	0	0	0	
0.319833	-0.00322502	0.008676	0.000157256	0.000203367	0	0	0	
0.32	0.0045881	-0.00792343	0.000131491	0.000188084	0	0	0	
0.320167	-0.00711127	0.00709679	0.000107817	0.000164743	0	0	0	
0.320333	0.00278593	-0.00639676	0.000111407	0.00013157	0	0	0	
0.3205	0.000118288	0.0067645	8.26315E-05	0.000129768	0	0	0	
0.320667	0.00354594	-0.0104992	9.45149E-05	0.000173909	0	0	0	
0.320833	-0.00595515	0.0129402	0.000118476	0.000268073	0	0	0	
0.321	0.00774161	-0.00705257	0.000151586	0.000302462	0	0	0	
0.321167	-0.00734484	0.00344916	0.000154002	0.000255416	0	0	0	
0.321333	0.00334818	-0.00896702	0.000129194	0.00016946	0	0	0	
0.3215	-0.00118512	0.00859885	0.000103266	0.000152276	0	0	0	
0.321667	0.00672244	0.0012461	0.000107275	0.000144492	0	0	0	
