0	-0.0237256	0.362028	2.37256E-06	3.62028E-05	0	0	0	
0.000166667	0.0397536	-0.544626	0.000344762	0.0056623	0	0	0	
0.000333333	-0.0441711	0.581267	0.000897607	0.0173985	0	0	0	
0.0005	0.0193444	-0.403704	0.00132541	0.0314373	0	0	0	
0.000666667	0.00178858	0.315504	0.00133821	0.0398111	0	0	0	
0.000833333	-0.00321449	-0.246771	0.00110963	0.041248	0	0	0	
0.001	-0.0230729	0.418497	0.000858328	0.0392399	0	0	0	
0.00116667	0.0495628	-1.05969	0.000762043	0.037375	0	0	0	
0.00133333	-0.0577313	1.84484	0.000956871	0.0392892	0	0	0	
0.0015	0.0135947	-2.10007	0.00126898	0.0445486	0	0	0	
0.00166667	0.0133276	2.07472	0.00114086	0.0504863	0	0	0	
0.00183333	0.00824213	-1.99721	0.000697673	0.0534328	0	0	0	
0.002	-0.050428	2.03265	0.000458444	0.0537308	0	0	0	
0.00216667	0.0457106	-2.14485	0.000719685	0.0536533	0	0	0	
0.00233333	-0.0826833	2.23618	0.000913884	0.0546645	0	0	0	
0.0025	0.086102	-2.19816	0.0012636	0.05707	0	0	0	
0.00266667	-0.00485905	2.0935	0.00130482	0.058934	0	0	0	
0.00283333	-0.0252564	-2.07332	0.00134863	0.0597086	0	0	0	
0.003	-0.0111887	2.04056	0.000874373	0.0591748	0	0	0	
0.00316667	-0.00760836	-2.04821	0.000568878	0.0589055	0	0	0	
0.00333333	0.0208326	2.03877	0.000428059	0.05869	0	0	0	
0.0035	-0.00457938	-2.04175	0.000372439	0.0587362	0	0	0	
0.00366667	0.00991465	2.04198	0.000306782	0.0586997	0	0	0	
0.00383333	-0.0135502	-2.02855	0.000233047	0.0587453	0	0	0	
0.004	0.00967083	2.01699	0.000235804	0.058771	0	0	0	
0.00416667	-0.0140438	-2.02051	0.000256117	0.0587688	0	0	0	
0.00433333	0.0211621	2.01262	0.000273144	0.0587508	0	0	0	
0.0045	-0.0243203	-1.97478	0.000344185	0.0588528	0	0	0	
0.00466667	0.023541	1.96127	0.000418227	0.0587864	0	0	0	
0.00483333	-0.0321119	-1.98131	0.000487768	0.0585567	0	0	0	
0.005	0.0342709	1.98211	0.000553648	0.0583521	0	0	0	
0.00516667	-0.0140549	-1.95735	0.00061661	0.0584097	0	0	0	
0.00533333	0.00127657	1.96048	0.000618547	0.0584857	0	0	0	
0.0055	-0.00785308	-1.97935	0.000465543	0.0585288	0	0	0	
0.00566667	0.0152115	1.97051	0.00032433	0.0585607	0	0	0	
0.00583333	-0.0200455	-1.95511	0.000261266	0.0587666	0	0	0	
0.006	0.0230586	1.9441	0.000349127	0.0588256	0	0	0	
0.00616667	-0.029702	-1.93559	0.000426675	0.0587692	0	0	0	
0.00633333	0.0305424	1.92269	0.000520189	0.0586496	0	0	0	
0.0065	-0.00820225	-1.89531	0.000564396	0.0585719	0	0	0	
0.00666667	0.0029616	1.90217	0.000539904	0.0583881	0	0	0	
0.00683333	-0.00684469	-1.91247	0.000383217	0.0582226	0	0	0	
0.007	0.000548468	1.89128	0.000254359	0.0581193	0	0	0	
0.00716667	0.00472052	-1.85475	0.000220823	0.0580311	0	0	0	
0.00733333	0.0281023	1.87973	0.000339614	0.0579372	0	0	0	
0.0075	-0.0188353	-1.83552	0.000478794	0.0578305	0	0	0	
0.00766667	0.0061237	1.83304	0.000522527	0.0578653	0	0	0	
0.00783333	0.00989733	-1.815	0.000569963	0.0578504	0	0	0	
0.008	0.0046239	1.81795	0.000486548	0.0579642	0	0	0	
0.00816667	0.0108616	-1.76979	0.000537765	0.0580819	0	0	0	
0.00833333	-0.0807802	1.69186	0.000797601	0.0579614	0	0	0	
0.0085	0.0900784	-1.68552	0.00133425	0.0576172	0	0	0	
0.00866667	0.000421228	1.74859	0.00134974	0.0573102	0	0	0	
0.00883333	-0.0615482	-1.78962	0.00109533	0.0573975	0	0	0	
0.009	0.0579467	1.83531	0.000866816	0.0579495	0	0	0	
0.00916667	-0.0175785	-1.81897	0.00117386	0.0585875	0	0	0	
0.00933333	-0.00306511	1.78096	0.00135274	0.0590227	0	0	0	
0.0095	-0.0319693	-1.81133	0.00141377	0.0594413	0	0	0	
0.00966667	0.0145787	1.77369	0.00136701	0.0597099	0	0	0	
0.00983333	0.0116025	-1.75636	0.00109343	0.0597208	0	0	0	
0.01	0.0219828	1.76835	0.000795182	0.0592273	0	0	0	
0.0101667	-0.059633	-1.77254	0.000631393	0.0587642	0	0	0	
0.0103333	0.0505936	1.76227	0.000826213	0.0585938	0	0	0	
0.0105	-0.022659	-1.74337	0.000921047	0.0586193	0	0	0	
0.0106667	0.0047502	1.72351	0.000847346	0.0585079	0	0	0	
0.0108333	-0.00125745	-1.73946	0.000656342	0.0584142	0	0	0	
0.011	0.00322255	1.74188	0.000424202	0.0583389	0	0	0	
0.0111667	-0.0100149	-1.74053	0.000249154	0.0585212	0	0	0	
0.0113333	0.00845079	1.72539	0.000181779	0.0586475	0	0	0	
0.0115	-0.00649272	-1.72114	0.000200652	0.058732	0	0	0	
0.0116667	0.0220705	1.71228	0.000283751	0.0586129	0	0	0	
0.0118333	-0.038697	-1.71215	0.000400768	0.0585818	0	0	0	
0.012	0.030988	1.70611	0.000573119	0.0585516	0	0	0	
0.0121667	-0.0144606	-1.70036	0.000641931	0.0586454	0	0	0	
0.0123333	0.0131675	1.68767	0.000568369	0.0586413	0	0	0	
0.0125	-0.0129833	-1.68183	0.000415094	0.0587234	0	0	0	
0.0126667	0.00922319	1.65806	0.000309534	0.0586956	0	0	0	
0.0128333	-0.0110277	-1.65609	0.000280182	0.0586766	0	0	0	
0.013	0.026413	1.6518	0.000324421	0.0585371	0	0	0	
0.0131667	-0.0352355	-1.63353	0.00041117	0.0585619	0	0	0	
0.0133333	0.0228127	1.60872	0.000564698	0.0585651	0	0	0	
0.0135	-0.00169139	-1.62181	0.000667207	0.0585454	0	0	0	
0.0136667	0.00397341	1.62821	0.000574567	0.0583676	0	0	0	
0.0138333	-0.0203793	-1.62771	0.000419325	0.0583606	0	0	0	
0.014	0.0248493	1.61605	0.000341717	0.0584434	0	0	0	
0.0141667	-0.019035	-1.61153	0.000386088	0.0586064	0	0	0	
0.0143333	0.0387824	1.60399	0.000508801	0.0587236	0	0	0	
0.0145	-0.0575396	-1.59017	0.000688185	0.0589311	0	0	0	
0.0146667	0.0426117	1.56149	0.000852042	0.058958	0	0	0	
0.0148333	-0.0123309	-1.56513	0.000941165	0.0587695	0	0	0	
0.015	0.00626888	1.57095	0.000773478	0.0584796	0	0	0	
0.0151667	0.0026714	-1.56108	0.000594428	0.0584099	0	0	0	
0.0153333	-0.0485541	1.5617	0.000581952	0.0583685	0	0	0	
0.0155	0.0731623	-1.55909	0.000917783	0.0581893	0	0	0	
0.0156667	-0.00480526	1.56493	0.000986758	0.058276	0	0	0	
0.0158333	-0.0202166	-1.50381	0.000893615	0.0584877	0	0	0	
0.016	0.0227416	1.51873	0.000559676	0.0587686	0	0	0	
0.0161667	-0.0365099	-1.53153	0.000598993	0.0588141	0	0	0	
0.0163333	0.06401	1.47478	0.000701821	0.0589241	0	0	0	
0.0165	-0.0324257	-1.43659	0.00104601	0.058933	0	0	0	
0.0166667	-0.0216382	1.49947	0.00152017	0.0585831	0	0	0	
0.0168333	0.0591951	-1.53033	0.00146235	0.0579609	0	0	0	
0.017	-0.016955	1.54955	0.00124924	0.0578063	0	0	0	
0.0171667	0.00818494	-1.53452	0.000625723	0.058093	0	0	0	
0.0173333	-0.0374595	1.5325	0.000669201	0.0585787	0	0	0	
0.0175	0.0366081	-1.53614	0.000585775	0.059018	0	0	0	
0.0176667	0.015099	1.48575	0.000683585	0.0594014	0	0	0	
0.0178333	-0.0391166	-1.44051	0.000666862	0.0596097	0	0	0	
0.018	-0.00989221	1.42041	0.00109162	0.0592396	0	0	0	
0.0181667	0.0349776	-1.41943	0.00138956	0.0585967	0	0	0	
0.0183333	0.0136703	1.43681	0.00121245	0.0581639	0	0	0	
0.0185	-0.0547319	-1.45117	0.000818738	0.0582508	0	0	0	
0.0186667	0.0201918	1.44295	0.000679947	0.0584437	0	0	0	
0.0188333	-0.00190638	-1.45684	0.00076341	0.0585414	0	0	0	
0.019	0.0562818	1.45019	0.000897894	0.058512	0	0	0	
0.0191667	-0.0907327	-1.41103	0.00103426	0.0586946	0	0	0	
0.0193333	0.0352021	1.38213	0.00140606	0.0588628	0	0	0	
0.0195	0.0364863	-1.3763	0.00176452	0.0588672	0	0	0	
0.0196667	-0.0432232	1.35047	0.00152262	0.0586396	0	0	0	
0.0198333	-0.0179527	-1.33592	0.00137436	0.0584928	0	0	0	
0.02	0.0291811	1.3373	0.000835735	0.0582826	0	0	0	
0.0201667	-0.0123422	-1.35968	0.000731964	0.0581702	0	0	0	
0.0203333	0.0293418	1.3543	0.000571236	0.0582085	0	0	0	
0.0205	-0.0576263	-1.3325	0.00063957	0.0585117	0	0	0	
0.0206667	0.0214636	1.30418	0.000898319	0.058754	0	0	0	
0.0208333	0.0274093	-1.29157	0.00120941	0.058882	0	0	0	
0.021	-0.0705531	1.26225	0.0011968	0.0587904	0	0	0	
0.0211667	0.0218963	-1.25633	0.00127631	0.0585988	0	0	0	
0.0213333	-0.00459121	1.25052	0.00113621	0.0581183	0	0	0	
0.0215	-0.00124078	-1.30122	0.00109752	0.057768	0	0	0	
0.0216667	0.0268496	1.30827	0.000848636	0.0575541	0	0	0	
0.0218333	-0.0552089	-1.33572	0.00080375	0.0577848	0	0	0	
0.022	0.0457105	1.32214	0.0010771	0.0581924	0	0	0	
0.0221667	-0.0774408	-1.25304	0.00124085	0.0587815	0	0	0	
0.0223333	0.0351015	1.14861	0.00124856	0.059066	0	0	0	
0.0225	0.0272272	-1.10972	0.00153364	0.0588743	0	0	0	
0.0226667	-0.0622454	1.12709	0.00189288	0.0580863	0	0	0	
0.0228333	0.0626432	-1.22851	0.00179732	0.0572947	0	0	0	
0.023	-0.0321766	1.29333	0.00154122	0.0568579	0	0	0	
0.0231667	0.00443481	-1.26982	0.00148776	0.0569321	0	0	0	
0.0233333	-0.00440061	1.25772	0.0018476	0.0574978	0	0	0	
0.0235	-0.0607965	-1.21405	0.00170875	0.0583835	0	0	0	
0.0236667	0.075703	1.17505	0.0014951	0.0594273	0	0	0	
0.0238333	-0.0353066	-1.14894	0.00118629	0.0599068	0	0	0	
0.024	-0.0433781	1.09145	0.0010699	0.0591082	0	0	0	
0.0241667	0.0702791	-1.11333	0.000967873	0.0574809	0	0	0	
0.0243333	-0.0592343	1.17112	0.00109762	0.05627	0	0	0	
0.0245	0.0256512	-1.19694	0.00118889	0.0563408	0	0	0	
0.0246667	-0.0166401	1.19103	0.00111072	0.0572759	0	0	0	
0.0248333	-0.021603	-1.20585	0.000901779	0.0582606	0	0	0	
0.025	0.00772685	1.15657	0.000837951	0.0588686	0	0	0	
0.0251667	-0.0498362	-1.14422	0.000784319	0.0593475	0	0	0	
0.0253333	0.0781252	1.10371	0.000997963	0.0595233	0	0	0	
0.0255	-0.0501341	-1.09843	0.00112571	0.0595609	0	0	0	
0.0256667	-0.00227872	1.08792	0.00156717	0.0592717	0	0	0	
0.0258333	0.0458877	-1.12063	0.00156892	0.0589617	0	0	0	
0.026	-0.0363807	1.10504	0.00130231	0.0587661	0	0	0	
0.0261667	0.00253187	-1.10818	0.000781778	0.0589423	0	0	0	
0.0263333	-0.0428263	1.05679	0.000713185	0.0590397	0	0	0	
0.0265	0.00958083	-1.05162	0.00129471	0.0589517	0	0	0	
0.0266667	0.0523857	1.0291	0.00185637	0.0584626	0	0	0	
0.0268333	-0.0355838	-1.03774	0.00170007	0.0579556	0	0	0	
0.027	-0.00531528	1.05961	0.00132056	0.0575777	0	0	0	
0.0271667	0.0233369	-1.09415	0.000685172	0.0576463	0	0	0	
0.0273333	-0.0214235	1.06909	0.00063025	0.058038	0	0	0	
0.0275	0.0284105	-1.05671	0.000600216	0.0586542	0	0	0	
0.0276667	0.00405242	1.05037	0.000764219	0.0592993	0	0	0	
0.0278333	-0.0519203	-0.994647	0.000846096	0.0599252	0	0	0	
0.028	0.0412499	0.964149	0.000983798	0.0602747	0	0	0	
0.0281667	-0.0120581	-1.00041	0.00135541	0.0602463	0	0	0	
0.0283333	0.0165863	0.971057	0.00140531	0.060083	0	0	0	
0.0285	-0.0164937	-0.914583	0.00111156	0.0599964	0	0	0	
0.0286667	0.0186877	0.911816	0.000915351	0.0596573	0	0	0	
0.0288333	-0.0115181	-0.935265	0.000983191	0.0589392	0	0	0	
0.029	0.0251041	0.981558	0.000966183	0.0582118	0	0	0	
0.0291667	-0.0519906	-1.01188	0.000830894	0.0580404	0	0	0	
0.0293333	0.0544851	0.989743	0.000800861	0.0582945	0	0	0	
0.0295	-0.0388648	-0.976778	0.00090565	0.058673	0	0	0	
0.0296667	0.0508215	0.948318	0.000968422	0.0589736	0	0	0	
0.0298333	-0.0519681	-0.938993	0.00101414	0.0593447	0	0	0	
0.03	0.0317988	0.918231	0.00105707	0.0595551	0	0	0	
0.0301667	-0.0347491	-0.922197	0.000969601	0.0595974	0	0	0	
0.0303333	0.0498189	0.912384	0.000913238	0.059434	0	0	0	
0.0305	-0.0295	-0.913561	0.000896544	0.0593338	0	0	0	
0.0306667	0.024221	0.868985	0.000907747	0.0592647	0	0	0	
0.0308333	0.00227024	-0.853788	0.00102866	0.0593407	0	0	0	
0.031	-0.0365015	0.808593	0.00127376	0.0592904	0	0	0	
0.0311667	0.0199307	-0.833684	0.00137225	0.0591685	0	0	0	
0.0313333	-0.00161464	0.821713	0.000992287	0.0587872	0	0	0	
0.0315	-0.000519297	-0.82567	0.000712343	0.0583775	0	0	0	
0.0316667	0.0323948	0.833703	0.000456737	0.0579889	0	0	0	
0.0318333	-0.0508957	-0.862058	0.000658517	0.0580005	0	0	0	
0.032	0.0595584	0.83656	0.000752562	0.0583716	0	0	0	
0.0321667	-0.0639057	-0.859832	0.00107631	0.0589582	0	0	0	
0.0323333	0.0290434	0.826829	0.00118104	0.0592837	0	0	0	
0.0325	-0.00526682	-0.7901	0.00111844	0.0593956	0	0	0	
0.0326667	0.015188	0.794019	0.000897328	0.0591921	0	0	0	
0.0328333	-0.0140325	-0.830413	0.000649743	0.0588503	0	0	0	
0.033	0.0381505	0.830758	0.000512078	0.0586771	0	0	0	
0.0331667	-0.0497625	-0.8075	0.000796198	0.0589999	0	0	0	
0.0333333	0.0336098	0.793027	0.00142033	0.0595957	0	0	0	
0.0335	0.00695371	-0.77333	0.00177141	0.0599488	0	0	0	
0.0336667	-0.0153918	0.73721	0.0013853	0.0597331	0	0	0	
0.0338333	0.00970844	-0.7429	0.000779149	0.059154	0	0	0	
0.034	0.0189118	0.747139	0.000641888	0.0584428	0	0	0	
0.0341667	-0.082478	-0.764713	0.000916302	0.0580164	0	0	0	
0.0343333	0.113234	0.78577	0.00141591	0.058025	0	0	0	
0.0345	-0.0490708	-0.767274	0.00157641	0.0583539	0	0	0	
0.0346667	0.0155262	0.706453	0.00134949	0.0586399	0	0	0	
0.0348333	-0.014746	-0.687724	0.000842832	0.0587543	0	0	0	
0.035	-0.0148143	0.668917	0.000471113	0.0585926	0	0	0	
0.0351667	0.0129214	-0.666695	0.000437469	0.0583855	0	0	0	
0.0353333	0.0222864	0.668699	0.000370386	0.0583352	0	0	0	
0.0355	-0.0134446	-0.673885	0.000397306	0.058595	0	0	0	
0.0356667	-0.0253135	0.64439	0.000584245	0.0588756	0	0	0	
0.0358333	0.0235725	-0.634907	0.00064207	0.0589893	0	0	0	
0.036	0.0117281	0.608249	0.0006735	0.0589408	0	0	0	
0.0361667	-0.0117276	-0.593049	0.000411907	0.0589344	0	0	0	
0.0363333	-0.0221854	0.574127	0.000431292	0.0589168	0	0	0	
0.0365	0.0397222	-0.549256	0.000439381	0.0587985	0	0	0	
0.0366667	-0.0150036	0.543456	0.000563018	0.0585973	0	0	0	
0.0368333	0.00550967	-0.54882	0.000468871	0.0585071	0	0	0	
0.037	0.00388197	0.542469	0.000306264	0.0586459	0	0	0	
0.0371667	-0.0294546	-0.572036	0.000228884	0.0589656	0	0	0	
0.0373333	0.0431906	0.565316	0.000410385	0.0593257	0	0	0	
0.0375	-0.0136904	-0.514438	0.000628536	0.0597201	0	0	0	
0.0376667	-0.00544932	0.485072	0.000928338	0.0600009	0	0	0	
0.0378333	0.00504272	-0.49776	0.000933118	0.0600498	0	0	0	
0.038	0.0216801	0.50558	0.00080499	0.059949	0	0	0	
0.0381667	-0.0168582	-0.503918	0.000585904	0.0598265	0	0	0	
0.0383333	-0.00608341	0.472596	0.00054654	0.0596117	0	0	0	
0.0385	0.0122294	-0.484829	0.000470695	0.0593333	0	0	0	
0.0386667	0.00832724	0.477482	0.000376031	0.0591521	0	0	0	
0.0388333	-0.0146799	-0.490597	0.000257355	0.0592932	0	0	0	
0.039	0.0136803	0.46794	0.000272373	0.0595024	0	0	0	
0.0391667	-0.0159199	-0.4557	0.000269577	0.0596264	0	0	0	
0.0393333	0.0308295	0.431985	0.000393362	0.0596864	0	0	0	
0.0395	-0.0217625	-0.442777	0.000654011	0.0598887	0	0	0	
0.0396667	0.00892121	0.412698	0.000865404	0.060104	0	0	0	
0.0398333	-0.00369968	-0.413588	0.000820677	0.0601389	0	0	0	
0.04	0.00639119	0.399902	0.000613642	0.0598518	0	0	0	
0.0401667	-0.0124166	-0.413157	0.000466509	0.0595616	0	0	0	
0.0403333	0.0299547	0.403908	0.000473192	0.0595058	0	0	0	
0.0405	-0.0398199	-0.410358	0.000591196	0.0596671	0	0	0	
0.0406667	0.0310169	0.392221	0.000724757	0.0597555	0	0	0	
0.0408333	-0.0165107	-0.385542	0.00079007	0.0597722	0	0	0	
0.041	0.0229486	0.347684	0.000687134	0.0598114	0	0	0	
0.0411667	-0.0338364	-0.332253	0.000604571	0.0599029	0	0	0	
0.0413333	0.0253949	0.321136	0.000600576	0.0598404	0	0	0	
0.0415	-0.0154507	-0.355354	0.000705406	0.059609	0	0	0	
0.0416667	0.0167824	0.357242	0.0007124	0.0593808	0	0	0	
0.0418333	0.00237998	-0.32415	0.000550294	0.0593888	0	0	0	
0.042	0.00854355	0.309426	0.000356709	0.0595412	0	0	0	
0.0421667	-0.0134521	-0.320014	0.000221948	0.0596767	0	0	0	
0.0423333	0.0235716	0.299679	0.000293152	0.0598652	0	0	0	
0.0425	-0.0198536	-0.275094	0.000455171	0.0601095	0	0	0	
0.0426667	0.0146609	0.258351	0.000550487	0.0600734	0	0	0	
0.0428333	0.0146428	-0.26559	0.000597242	0.0596334	0	0	0	
0.043	-0.014173	0.27015	0.0006166	0.0592182	0	0	0	
0.0431667	0.00858309	-0.263658	0.000536584	0.0592664	0	0	0	
0.0433333	0.0327424	0.245268	0.00042972	0.0596303	0	0	0	
0.0435	-0.0427706	-0.251253	0.000444943	0.0599205	0	0	0	
0.0436667	0.0197338	0.228387	0.00064034	0.0600356	0	0	0	
0.0438333	-0.00791441	-0.212458	0.000828004	0.0600976	0	0	0	
0.044	0.0147489	0.175318	0.000728776	0.0600438	0	0	0	
0.0441667	-0.0217911	-0.197826	0.000625712	0.0597501	0	0	0	
0.0443333	0.0114448	0.202396	0.000581023	0.0592825	0	0	0	
0.0445	-0.0091397	-0.226432	0.000635189	0.0590873	0	0	0	
0.0446667	0.0234829	0.201651	0.000650683	0.0593675	0	0	0	
0.0448333	-0.0194365	-0.192353	0.00062906	0.0598993	0	0	0	
0.045	0.0117207	0.163054	0.000594487	0.0602323	0	0	0	
0.0451667	-0.0189675	-0.162557	0.000549514	0.060296	0	0	0	
0.0453333	0.0236965	0.118946	0.000516801	0.0602398	0	0	0	
0.0455	-0.0236922	-0.112325	0.000519451	0.0601595	0	0	0	
0.0456667	0.0289219	0.11421	0.000575348	0.0599429	0	0	0	
0.0458333	-0.0231143	-0.140257	0.000573456	0.0596666	0	0	0	
0.046	0.0199252	0.116115	0.000529906	0.0595483	0	0	0	
0.0461667	-0.0232812	-0.10799	0.000474983	0.0596471	0	0	0	
0.0463333	0.0204878	0.0905115	0.000456873	0.0597196	0	0	0	
0.0465	-0.0139359	-0.094597	0.000460565	0.0596885	0	0	0	
0.0466667	0.0120269	0.08	0.000483844	0.0597155	0	0	0	
0.0468333	-0.00301831	-0.0701669	0.000418725	0.0598993	0	0	0	
0.047	0.0113271	0.0426565	0.000329212	0.0601177	0	0	0	
0.0471667	-0.0229741	-0.0361049	0.00025942	0.0602268	0	0	0	
0.0473333	0.0167567	0.0176911	0.000322471	0.0601997	0	0	0	
0.0475	-0.0135894	-0.0278339	0.000436821	0.0601366	0	0	0	
0.0476667	0.0197611	0.00743269	0.000459245	0.0601509	0	0	0	
0.0478333	-0.0178331	0.0079438	0.000413192	0.0602757	0	0	0	
0.048	0.0216974	-0.0219453	0.000403853	0.0604065	0	0	0	
0.0481667	-0.0134136	0.0139777	0.000455441	0.060428	0	0	0	
0.0483333	0.00641407	-0.0350507	0.000470019	0.0603346	0	0	0	
0.0485	-0.0100717	0.0272509	0.000403274	0.060211	0	0	0	
0.0486667	0.0126304	-0.0433265	0.000329442	0.0601372	0	0	0	
0.0488333	-0.00519806	0.0218766	0.000357343	0.0601437	0	0	0	
0.049	0.00920578	-0.032097	0.000372025	0.0602978	0	0	0	
0.0491667	-0.0282686	0.0612814	0.000377947	0.0606321	0	0	0	
0.0493333	0.0332615	-0.114607	0.00042448	0.0609057	0	0	0	
0.0495	-0.0233965	0.103232	0.00056577	0.0608304	0	0	0	
0.0496667	0.0423674	-0.104157	0.00068602	0.0605343	0	0	0	
0.0498333	-0.0690024	0.101277	0.000824005	0.0603574	0	0	0	
0.05	0.0630105	-0.135745	0.00104127	0.0603483	0	0	0	
0.0501667	-0.0203847	0.13065	0.00125711	0.0603355	0	0	0	
0.0503333	0.0232159	-0.126251	0.00130459	0.0602771	0	0	0	
0.0505	-0.0272807	0.110975	0.00119252	0.0602594	0	0	0	
0.0506667	-0.0135281	-0.141005	0.00112643	0.060306	0	0	0	
0.0508333	0.0196198	0.153788	0.000915397	0.0603991	0	0	0	
0.051	0.0386046	-0.175588	0.000895113	0.0605244	0	0	0	
0.0511667	-0.0658556	0.168181	0.000922596	0.0607445	0	0	0	
0.0513333	0.0669302	-0.198605	0.00112635	0.0610637	0	0	0	
0.0515	-0.049743	0.220072	0.00123602	0.0612038	0	0	0	
0.0516667	0.0347975	-0.237305	0.00111141	0.0609067	0	0	0	
0.0518333	-0.0412766	0.204491	0.00101881	0.0604597	0	0	0	
0.052	0.0295758	-0.210503	0.000894973	0.0603217	0	0	0	
0.0521667	-0.0102382	0.206672	0.000751533	0.0605208	0	0	0	
0.0523333	0.021733	-0.229678	0.00059973	0.0606939	0	0	0	
0.0525	-0.0310593	0.228513	0.000488731	0.060744	0	0	0	
0.0526667	0.0141374	-0.248251	0.000533624	0.0607642	0	0	0	
0.0528333	-0.0105992	0.24089	0.000610617	0.0607871	0	0	0	
0.053	0.00430615	-0.264097	0.000572249	0.0607271	0	0	0	
0.0531667	-0.00385391	0.263534	0.000468648	0.0606365	0	0	0	
0.0533333	0.0109479	-0.285088	0.00035063	0.0605981	0	0	0	
0.0535	-0.00780931	0.27431	0.000274301	0.0606506	0	0	0	
0.0536667	0.00944681	-0.290049	0.000268012	0.0606889	0	0	0	
0.0538333	-0.0233071	0.300072	0.000314405	0.0606452	0	0	0	
0.054	0.0198468	-0.321626	0.000361884	0.0605399	0	0	0	
0.0541667	-0.0241691	0.313751	0.000446389	0.0604802	0	0	0	
0.0543333	0.026604	-0.34101	0.000538868	0.0605039	0	0	0	
0.0545	-0.0106311	0.336854	0.000690002	0.0605855	0	0	0	
0.0546667	-0.0124266	-0.359416	0.000853594	0.0605832	0	0	0	
0.0548333	0.0168955	0.351444	0.000791535	0.0605082	0	0	0	
0.055	0.00383969	-0.376719	0.00058867	0.0604603	0	0	0	
0.0551667	-0.023831	0.370733	0.000336155	0.060515	0	0	0	
0.0553333	0.0136704	-0.38797	0.000331125	0.0605379	0	0	0	
0.0555	-0.00795394	0.376111	0.000393578	0.0606001	0	0	0	
0.0556667	0.0193876	-0.420594	0.000414028	0.0607124	0	0	0	
0.0558333	-0.0255302	0.414114	0.000413163	0.0607966	0	0	0	
0.056	0.0120925	-0.42643	0.000541115	0.060701	0	0	0	
0.0561667	-0.00179965	0.422314	0.00067382	0.0606131	0	0	0	
0.0563333	0.0115356	-0.441001	0.000627942	0.0605531	0	0	0	
0.0565	-0.0183952	0.422584	0.000518372	0.060526	0	0	0	
0.0566667	0.00538227	-0.453275	0.000533602	0.0605296	0	0	0	
0.0568333	-0.00746047	0.463502	0.000616559	0.0606522	0	0	0	
0.057	0.0156858	-0.474385	0.000560669	0.0607151	0	0	0	
0.0571667	-0.0232068	0.469146	0.000477113	0.0606733	0	0	0	
0.0573333	0.0050569	-0.496659	0.000453624	0.0605728	0	0	0	
0.0575	-0.000588921	0.48478	0.000457845	0.0604911	0	0	0	
0.0576667	0.0137144	-0.492814	0.000356832	0.0603877	0	0	0	
0.0578333	-0.0183463	0.502366	0.000276559	0.0603952	0	0	0	
0.058	0.0135394	-0.527152	0.000266753	0.060505	0	0	0	
0.0581667	-0.0209388	0.51789	0.000317818	0.060603	0	0	0	
0.0583333	0.0222855	-0.537082	0.000373881	0.0605555	0	0	0	
0.0585	-0.0187543	0.529272	0.000439355	0.0605104	0	0	0	
0.0586667	-0.00201973	-0.56296	0.000603576	0.0605675	0	0	0	
0.0588333	0.00501828	0.581337	0.000660765	0.0608452	0	0	0	
0.059	0.0295695	-0.578591	0.000665748	0.0611048	0	0	0	
0.0591667	-0.0213219	0.577195	0.00060526	0.0610839	0	0	0	
0.0593333	-0.00125324	-0.594549	0.000691871	0.0607235	0	0	0	
0.0595	0.00285412	0.582695	0.000752538	0.060335	0	0	0	
0.0596667	0.00354851	-0.602399	0.000658603	0.0601757	0	0	0	
0.0598333	-0.0104733	0.584413	0.000492914	0.0602529	0	0	0	
0.06	0.0156779	-0.57771	0.000423579	0.0603233	0	0	0	
0.0601667	-0.00347475	0.613266	0.00036581	0.0603616	0	0	0	
0.0603333	0.0146429	-0.653102	0.000297766	0.0603947	0	0	0	
0.0605	-0.0223583	0.650761	0.000257182	0.0604399	0	0	0	
0.0606667	0.0110579	-0.663398	0.000359148	0.060408	0	0	0	
0.0608333	-0.000434554	0.649244	0.000518733	0.0603645	0	0	0	
0.061	-0.00273157	-0.684513	0.000544905	0.0604345	0	0	0	
0.0611667	0.000431902	0.696035	0.000502909	0.0606182	0	0	0	
0.0613333	-0.0117688	-0.700607	0.000476818	0.0606021	0	0	0	
0.0615	0.00695712	0.680634	0.000458907	0.0604349	0	0	0	
0.0616667	0.00890221	-0.706994	0.000374216	0.0602825	0	0	0	
0.0618333	-0.0231372	0.699701	0.000316886	0.0603448	0	0	0	
0.062	0.0020441	-0.731074	0.000485629	0.0605172	0	0	0	
0.0621667	0.00942346	0.753458	0.000689542	0.0607878	0	0	0	
0.0623333	-0.00120017	-0.78482	0.000678255	0.0608711	0	0	0	
0.0625	0.001311	0.760777	0.000504258	0.0606368	0	0	0	
0.0626667	-0.0160565	-0.752033	0.00032958	0.0601864	0	0	0	
0.0628333	-0.00930013	0.756373	0.000275763	0.060012	0	0	0	
0.063	0.019151	-0.782736	0.000256991	0.0601454	0	0	0	
0.0631667	-0.00144435	0.760111	0.000454529	0.0603867	0	0	0	
0.0633333	-0.0114149	-0.793618	0.000647438	0.0605881	0	0	0	
0.0635	0.00759985	0.814431	0.000691768	0.060852	0	0	0	
0.0636667	-0.00955403	-0.822269	0.00055475	0.0608998	0	0	0	
0.0638333	0.00905119	0.815791	0.000445616	0.0607085	0	0	0	
0.064	0.00543857	-0.838985	0.00040841	0.0605377	0	0	0	
0.0641667	-0.0147291	0.837053	0.000423478	0.0606694	0	0	0	
0.0643333	0.00857048	-0.862338	0.000461073	0.0607815	0	0	0	
0.0645	-0.00985529	0.850453	0.000516608	0.0606746	0	0	0	
0.0646667	0.021266	-0.858238	0.000513099	0.0603927	0	0	0	
0.0648333	-0.0260858	0.859103	0.000515903	0.0602406	0	0	0	
0.065	0.0179355	-0.87768	0.000593776	0.0601917	0	0	0	
0.0651667	-0.00187268	0.871766	0.000662022	0.0603049	0	0	0	
0.0653333	0.00571013	-0.891998	0.000559553	0.0604388	0	0	0	
0.0655	-0.0190006	0.894635	0.000396315	0.0605907	0	0	0	
0.0656667	0.0197486	-0.928485	0.000320231	0.0606435	0	0	0	
0.0658333	-0.0126323	0.929144	0.000402625	0.0606553	0	0	0	
0.066	0.00920322	-0.941533	0.000496362	0.0605405	0	0	0	
0.0661667	0.00312389	0.926713	0.000550077	0.0604913	0	0	0	
0.0663333	-0.0176617	-0.952648	0.000581889	0.0604509	0	0	0	
0.0665	0.0196391	0.95145	0.00058161	0.0604635	0	0	0	
0.0666667	-0.00234797	-0.970686	0.000449796	0.0603955	0	0	0	
0.0668333	-0.0225743	0.9716	0.000322402	0.0604117	0	0	0	
0.067	0.0291758	-0.98876	0.000322474	0.0603946	0	0	0	
0.0671667	-0.0121328	0.972469	0.000549176	0.0604009	0	0	0	
0.0673333	0.00165773	-1.00983	0.000738617	0.0603517	0	0	0	
0.0675	-0.00747	1.00749	0.000736808	0.060379	0	0	0	
0.0676667	0.00896089	-1.01459	0.000611003	0.0603558	0	0	0	
0.0678333	-0.000194659	1.03105	0.00050271	0.0604652	0	0	0	
0.068	0.00451643	-1.05655	0.00047632	0.0605738	0	0	0	
0.0681667	-0.0118288	1.02828	0.000455142	0.060587	0	0	0	
0.0683333	0.0141447	-1.05143	0.000431714	0.0604217	0	0	0	
0.0685	-0.0148926	1.06421	0.000463093	0.0604084	0	0	0	
0.0686667	0.00227823	-1.08202	0.000524622	0.0604684	0	0	0	
0.0688333	0.00505413	1.07545	0.000583213	0.060557	0	0	0	
0.069	0.00132761	-1.08516	0.000536007	0.0605207	0	0	0	
0.0691667	-0.0124005	1.0797	0.000434214	0.0605366	0	0	0	
0.0693333	0.0110057	-1.1103	0.000324435	0.0604968	0	0	0	
0.0695	-0.00804529	1.11631	0.000300252	0.0604936	0	0	0	
0.0696667	0.00608798	-1.13231	0.000294204	0.0605051	0	0	0	
0.0698333	-0.0177093	1.12589	0.000314915	0.0606045	0	0	0	
0.07	0.0141232	-1.13792	0.000373399	0.060571	0	0	0	
0.0701667	0.00148313	1.12863	0.000499664	0.0605115	0	0	0	
0.0703333	-0.00905829	-1.15945	0.000560818	0.0604259	0	0	0	
0.0705	0.00209315	1.16711	0.000494732	0.0605179	0	0	0	
0.0706667	6.72865E-05	-1.18239	0.00039344	0.0605931	0	0	0	
0.0708333	0.00709469	1.18014	0.000392455	0.0606311	0	0	0	
0.071	-0.00466717	-1.19442	0.000427613	0.060523	0	0	0	
0.0711667	-0.0025248	1.19329	0.000389199	0.0604759	0	0	0	
0.0713333	0.00817486	-1.21198	0.000310802	0.0604431	0	0	0	
0.0715	-0.0087634	1.20435	0.000311139	0.0604803	0	0	0	
0.0716667	-0.00038005	-1.22328	0.000401765	0.0604922	0	0	0	
0.0718333	0.00646323	1.23822	0.000456178	0.0605981	0	0	0	
0.072	-0.00038134	-1.25817	0.000406191	0.060643	0	0	0	
0.0721667	-0.00689694	1.23866	0.000323157	0.0606728	0	0	0	
0.0723333	0.00745143	-1.26301	0.000306771	0.0606174	0	0	0	
0.0725	-0.00434478	1.27481	0.000377056	0.0606759	0	0	0	
0.0726667	-0.00140902	-1.30748	0.000506487	0.0607185	0	0	0	
0.0728333	0.0123236	1.3023	0.000639069	0.0607866	0	0	0	
0.073	-0.0145687	-1.30344	0.000711609	0.0606766	0	0	0	
0.0731667	0.00475083	1.2723	0.000646661	0.0605738	0	0	0	
0.0733333	-0.00310996	-1.30602	0.000474966	0.0604365	0	0	0	
0.0735	0.00133344	1.31962	0.00032899	0.0605665	0	0	0	
0.0736667	0.0115957	-1.3407	0.000295055	0.0607568	0	0	0	
0.0738333	-0.0118322	1.33759	0.000379993	0.0609907	0	0	0	
0.074	0.00246174	-1.35673	0.000464387	0.0609572	0	0	0	
0.0741667	-0.00959793	1.3472	0.000434907	0.0608452	0	0	0	
0.0743333	0.0204068	-1.36704	0.000361829	0.060618	0	0	0	
0.0745	-0.0095577	1.37288	0.000392883	0.0605841	0	0	0	
0.0746667	-0.00688628	-1.38574	0.000599567	0.0606182	0	0	0	
0.0748333	0.0123446	1.38118	0.000675876	0.0607148	0	0	0	
0.075	-0.0060947	-1.40147	0.000582464	0.0606474	0	0	0	
0.0751667	0.00443501	1.40139	0.00039932	0.0606378	0	0	0	
0.0753333	-0.00428283	-1.42065	0.000285584	0.0606115	0	0	0	
0.0755	-0.00878957	1.42137	0.000196858	0.06069	0	0	0	
0.0756667	0.0255096	-1.43576	0.000221933	0.0607245	0	0	0	
0.0758333	-0.0133276	1.44346	0.00041101	0.0607932	0	0	0	
0.076	-0.00848684	-1.46631	0.000682705	0.0607009	0	0	0	
0.0761667	0.00931932	1.4545	0.000716549	0.060647	0	0	0	
0.0763333	0.00256031	-1.48313	0.00055053	0.0606203	0	0	0	
0.0765	0.00109929	1.4844	0.000401632	0.0607522	0	0	0	
0.0766667	-0.00872342	-1.49129	0.000409211	0.0607352	0	0	0	
0.0768333	0.00252572	1.50177	0.000415514	0.060753	0	0	0	
0.077	0.00488198	-1.52241	0.000320716	0.060723	0	0	0	
0.0771667	-0.00276358	1.49977	0.000262769	0.0607804	0	0	0	
0.0773333	0.00329182	-1.52083	0.000321067	0.0607463	0	0	0	
0.0775	-0.00746045	1.53286	0.000388968	0.0608695	0	0	0	
0.0776667	0.00781136	-1.55449	0.000407227	0.0609594	0	0	0	
0.0778333	-0.00144511	1.5525	0.000461037	0.0610433	0	0	0	
0.078	-0.015078	-1.57851	0.000544649	0.0609084	0	0	0	
0.0781667	0.0105211	1.57899	0.00059225	0.0609365	0	0	0	
0.0783333	0.00734726	-1.59766	0.000571426	0.0609954	0	0	0	
0.0785	-0.00231959	1.58179	0.000603716	0.0611173	0	0	0	
0.0786667	-0.0122571	-1.58686	0.000650267	0.0610003	0	0	0	
0.0788333	0.00769955	1.58494	0.000609459	0.0608764	0	0	0	
0.079	0.00872484	-1.59617	0.000435058	0.0606497	0	0	0	
0.0791667	-0.0324239	1.56885	0.000365579	0.0606195	0	0	0	
0.0793333	0.0299834	-1.60389	0.000477626	0.0606073	0	0	0	
0.0795	-0.00545891	1.61404	0.000614753	0.0608104	0	0	0	
0.0796667	-0.00641871	-1.63866	0.000675471	0.0608449	0	0	0	
0.0798333	0.00922065	1.66337	0.000551224	0.0609088	0	0	0	
0.08	-0.00733989	-1.67985	0.000428823	0.060791	0	0	0	
0.0801667	0.00148667	1.65098	0.000235667	0.0606652	0	0	0	
0.0803333	-0.00445961	-1.67338	0.000144237	0.060417	0	0	0	
0.0805	-0.0112961	1.67595	0.000118409	0.0604086	0	0	0	
0.0806667	0.0218647	-1.68995	0.000270643	0.0604399	0	0	0	
0.0808333	0.00259658	1.70358	0.00047861	0.0606694	0	0	0	
0.081	-0.0177499	-1.71973	0.000638222	0.060793	0	0	0	
0.0811667	-0.00208558	1.70587	0.000542485	0.0609019	0	0	0	
0.0813333	0.0168121	-1.71654	0.000360486	0.0607433	0	0	0	
0.0815	-0.0115541	1.72107	0.000323797	0.0606083	0	0	0	
0.0816667	-0.0034412	-1.74121	0.000433942	0.0605493	0	0	0	
0.0818333	0.00793478	1.75249	0.00049278	0.0607191	0	0	0	
0.082	0.000910366	-1.76364	0.000423547	0.0608228	0	0	0	
0.0821667	-0.00531717	1.76075	0.000328398	0.0609272	0	0	0	
0.0823333	0.00778515	-1.7838	0.000298602	0.0608973	0	0	0	
0.0825	-0.00716413	1.78557	0.000313712	0.0608982	0	0	0	
0.0826667	0.00637045	-1.79781	0.000372355	0.0607991	0	0	0	
0.0828333	-0.00464007	1.80273	0.000432158	0.0607939	0	0	0	
0.083	0.0024216	-1.81874	0.000464267	0.060756	0	0	0	
0.0831667	0.00174473	1.81027	0.000446245	0.0608344	0	0	0	
0.0833333	0.00456989	-1.82845	0.000370632	0.0607759	0	0	0	
0.0835	-0.0155122	1.82587	0.00029588	0.0607359	0	0	0	
0.0836667	0.0249671	-1.83802	0.000335161	0.0606159	0	0	0	
0.0838333	-0.0113583	1.84113	0.000476	0.0606824	0	0	0	
0.084	-0.00250744	-1.85843	0.000640926	0.0607397	0	0	0	
0.0841667	0.00734113	1.85724	0.000663388	0.0609282	0	0	0	
0.0843333	-0.0054592	-1.88508	0.000584695	0.0609611	0	0	0	
0.0845	0.00881624	1.89781	0.000422105	0.0610163	0	0	0	
0.0846667	0.000981704	-1.9102	0.000266863	0.0609206	0	0	0	
0.0848333	-0.0100868	1.89736	0.000144884	0.0609412	0	0	0	
0.085	0.0199342	-1.90501	0.000175901	0.0608668	0	0	0	
0.0851667	-0.0101903	1.90538	0.000330979	0.0608931	0	0	0	
0.0853333	-0.0053919	-1.92563	0.0005485	0.0607871	0	0	0	
0.0855	0.00183903	1.93816	0.000534859	0.0608133	0	0	0	
0.0856667	0.0261389	-1.96217	0.000413849	0.0608623	0	0	0	
0.0858333	-0.0300921	1.9546	0.000391476	0.0610778	0	0	0	
0.086	0.00650504	-1.95277	0.00059826	0.0610582	0	0	0	
0.0861667	0.00533754	1.95325	0.000747444	0.0609821	0	0	0	
0.0863333	0.0029288	-1.97073	0.000602502	0.0608004	0	0	0	
0.0865	-0.00281283	1.97312	0.00035993	0.0608347	0	0	0	
0.0866667	-0.00325624	-1.9847	0.00023541	0.0608577	0	0	0	
0.0868333	0.00439964	1.98781	0.000180833	0.0609818	0	0	0	
0.087	0.00515544	-2.00114	0.000209442	0.0609615	0	0	0	
0.0871667	-0.0141477	2.00927	0.000149609	0.0609692	0	0	0	
0.0873333	0.00516095	-2.03111	0.000239792	0.0608746	0	0	0	
0.0875	0.00567501	2.03045	0.000279011	0.0608626	0	0	0	
0.0876667	-0.00267403	-2.02695	0.000324319	0.0606836	0	0	0	
0.0878333	-0.00439648	2.02959	0.00027306	0.060582	0	0	0	
0.088	0.0073695	-2.04743	0.000263653	0.0605163	0	0	0	
0.0881667	0.00304231	2.05115	0.000433136	0.0606712	0	0	0	
0.0883333	-0.0247947	-2.06973	0.000686435	0.0607421	0	0	0	
0.0885	0.0247427	2.08153	0.000771288	0.0608837	0	0	0	
0.0886667	0.00112349	-2.09279	0.000591638	0.0609103	0	0	0	
0.0888333	-0.0184284	2.09618	0.000333563	0.0609826	0	0	0	
0.089	0.010965	-2.1031	0.000328889	0.0609105	0	0	0	
0.0891667	0.0118111	2.12287	0.000550961	0.06091	0	0	0	
0.0893333	-0.00323758	-2.17651	0.000830477	0.0609161	0	0	0	
0.0895	-0.0160625	2.18798	0.00104708	0.0611724	0	0	0	
0.0896667	0.00649383	-2.1835	0.00128774	0.0613376	0	0	0	
0.0898333	0.0414129	2.17311	0.00145603	0.0613093	0	0	0	
0.09	-0.0453124	-2.1476	0.00140517	0.060843	0	0	0	
0.0901667	0.00602275	2.12345	0.00101138	0.0603789	0	0	0	
0.0903333	0.0526171	-2.13923	0.000652137	0.0602032	0	0	0	
0.0905	-0.0787734	2.14152	0.000712653	0.0605949	0	0	0	
0.0906667	0.0542926	-2.18685	0.00104362	0.061134	0	0	0	
0.0908333	-0.0114145	2.23272	0.00129606	0.0616893	0	0	0	
0.091	0.00694893	-2.25209	0.00118825	0.0618396	0	0	0	
0.0911667	-0.00677868	2.23573	0.000994464	0.0617501	0	0	0	
0.0913333	-0.0186951	-2.22548	0.000886813	0.0612579	0	0	0	
0.0915	0.0253634	2.21046	0.000730268	0.0608071	0	0	0	
0.0916667	0.0103227	-2.22184	0.000535926	0.0604771	0	0	0	
0.0918333	-0.0294796	2.22577	0.000386471	0.0605675	0	0	0	
0.092	-0.00344162	-2.24115	0.000549386	0.0606635	0	0	0	
0.0921667	0.0329578	2.24906	0.000774556	0.0608666	0	0	0	
0.0923333	-0.016947	-2.25668	0.000806311	0.0608287	0	0	0	
0.0925	-0.0141991	2.25939	0.00056488	0.0608313	0	0	0	
0.0926667	0.020939	-2.26216	0.000414898	0.0607209	0	0	0	
0.0928333	0.0043908	2.27318	0.000574163	0.0607556	0	0	0	
0.093	-0.0168476	-2.28916	0.000751457	0.0607655	0	0	0	
0.0931667	0.00728758	2.2954	0.000738627	0.0609007	0	0	0	
0.0933333	-0.0026946	-2.30209	0.00057747	0.0608764	0	0	0	
0.0935	0.0136396	2.29985	0.00052102	0.0608815	0	0	0	
0.0936667	-0.0073267	-2.30623	0.000491243	0.0607884	0	0	0	
0.0938333	-0.00645523	2.32859	0.000367447	0.0608424	0	0	0	
0.094	0.00728398	-2.32452	0.000280543	0.0608083	0	0	0	
0.0941667	0.00378296	2.32321	0.000358822	0.0608327	0	0	0	
0.0943333	-0.00829574	-2.342	0.000460385	0.0608063	0	0	0	
0.0945	0.000167372	2.34838	0.000398943	0.0608874	0	0	0	
0.0946667	0.00198679	-2.36306	0.000257725	0.0608643	0	0	0	
0.0948333	0.00343664	2.38556	0.000263382	0.060955	0	0	0	
0.095	-0.0083189	-2.38083	0.000373415	0.0609023	0	0	0	
0.0951667	0.00239666	2.3687	0.00041431	0.060844	0	0	0	
0.0953333	0.00490618	-2.38478	0.000334163	0.0606825	0	0	0	
0.0955	-0.0067907	2.39921	0.000312494	0.0607418	0	0	0	
0.0956667	-0.00575669	-2.40345	0.000431287	0.0608142	0	0	0	
0.0958333	0.0108395	2.42043	0.000548456	0.0609771	0	0	0	
0.096	-0.00534088	-2.43803	0.000504856	0.0610058	0	0	0	
0.0961667	0.000574866	2.42979	0.000403896	0.0611056	0	0	0	
0.0963333	-0.00737157	-2.4279	0.000409389	0.0609736	0	0	0	
0.0965	0.00814385	2.43215	0.000429728	0.0609005	0	0	0	
0.0966667	-0.000746253	-2.43717	0.000365054	0.0607675	0	0	0	
0.0968333	0.00302822	2.45451	0.000268498	0.0608459	0	0	0	
0.097	-0.00727873	-2.46913	0.000272515	0.0608838	0	0	0	
0.0971667	-0.00286579	2.4666	0.000303237	0.0609755	0	0	0	
0.0973333	0.00805003	-2.47137	0.000333163	0.0608418	0	0	0	
0.0975	0.00128475	2.47563	0.000412318	0.0607498	0	0	0	
0.0976667	-0.00678626	-2.47989	0.000507139	0.0606166	0	0	0	
0.0978333	-0.000682648	2.49501	0.000502658	0.0607157	0	0	0	
0.098	0.000992587	-2.50458	0.000439188	0.0607406	0	0	0	
0.0981667	0.00738163	2.51153	0.000477307	0.0608462	0	0	0	
0.0983333	-0.0127495	-2.52379	0.000575323	0.0608428	0	0	0	
0.0985	0.00405104	2.53408	0.000571809	0.0609159	0	0	0	
0.0986667	0.00338578	-2.5328	0.000444765	0.0608705	0	0	0	
0.0988333	0.00311758	2.53693	0.000401745	0.0608798	0	0	0	
0.099	-0.0147308	-2.53893	0.000463156	0.0607473	0	0	0	
0.0991667	0.00490904	2.54548	0.00048596	0.0607297	0	0	0	
0.0993333	0.00825081	-2.55804	0.000370917	0.0606854	0	0	0	
0.0995	-0.00306732	2.57043	0.000339458	0.060833	0	0	0	
0.0996667	-0.0106919	-2.56913	0.000456835	0.0608583	0	0	0	
0.0998333	0.0162563	2.57611	0.000555597	0.0608837	0	0	0	
0.1	-0.00183998	-2.58319	0.00050123	0.0607327	0	0	0	
0.100167	-0.001803	2.58355	0.000400848	0.0607162	0	0	0	
0.100333	-0.0100308	-2.59214	0.000460218	0.0606418	0	0	0	
0.1005	0.0235932	2.60249	0.000588689	0.0607305	0	0	0	
0.100667	-0.0201944	-2.59948	0.000660194	0.0606893	0	0	0	
0.100833	0.0120247	2.61912	0.000563477	0.060759	0	0	0	
0.101	-0.00022066	-2.63974	0.000429014	0.0607395	0	0	0	
0.101167	0.00621554	2.6333	0.000397811	0.0608223	0	0	0	
0.101333	-0.0106993	-2.62941	0.000431764	0.0607308	0	0	0	
0.1015	0.000335887	2.64595	0.000398797	0.0607805	0	0	0	
0.101667	0.010704	-2.64956	0.000327974	0.0607526	0	0	0	
0.101833	0.00291175	2.65228	0.000408385	0.0607998	0	0	0	
0.102	-0.0194274	-2.66338	0.000569539	0.0606655	0	0	0	
0.102167	0.0144065	2.67972	0.000609431	0.0607359	0	0	0	
0.102333	-0.00369991	-2.68214	0.000467128	0.0607709	0	0	0	
0.1025	0.012181	2.67649	0.000376645	0.0608354	0	0	0	
0.102667	-0.0117347	-2.67888	0.000388172	0.0606681	0	0	0	
0.102833	0.00231955	2.70197	0.000384102	0.0606911	0	0	0	
0.103	-0.00153921	-2.70756	0.000340382	0.0606987	0	0	0	
0.103167	0.00955591	2.71204	0.000381926	0.0608508	0	0	0	
0.103333	-0.0132414	-2.71488	0.000524528	0.0608194	0	0	0	
0.1035	0.0189272	2.72627	0.000613382	0.0608328	0	0	0	
0.103667	-0.013985	-2.72167	0.000569026	0.0607277	0	0	0	
0.103833	0.00763652	2.73309	0.000439137	0.0607392	0	0	0	
0.104	-0.00231038	-2.73421	0.000340394	0.0606747	0	0	0	
0.104167	0.000973412	2.73861	0.000299138	0.0607011	0	0	0	
0.104333	-8.25543E-07	-2.75134	0.000337047	0.0606419	0	0	0	
0.1045	0.00381497	2.77289	0.000413823	0.0607206	0	0	0	
0.104667	-0.00559543	-2.76594	0.00048443	0.0607335	0	0	0	
0.104833	0.00429681	2.77828	0.000513517	0.0608187	0	0	0	
0.105	-0.000440081	-2.78206	0.000504307	0.0607891	0	0	0	
0.105167	0.00372885	2.78793	0.00049705	0.0607951	0	0	0	
0.105333	-0.0110963	-2.79608	0.000532544	0.0606995	0	0	0	
0.1055	0.022155	2.78784	0.00056999	0.0606455	0	0	0	
0.105667	-0.031478	-2.78312	0.000542247	0.060374	0	0	0	
0.105833	0.0110965	2.78623	0.000493896	0.0602961	0	0	0	
0.106	0.0152849	-2.79333	0.00043482	0.0602704	0	0	0	
0.106167	-0.0206864	2.81535	0.000393299	0.0605884	0	0	0	
0.106333	0.00571983	-2.83711	0.000461214	0.0608009	0	0	0	
0.1065	0.0162143	2.86258	0.000629728	0.0610701	0	0	0	
0.106667	-0.0326621	-2.88197	0.000833676	0.061124	0	0	0	
0.106833	0.0322456	2.87062	0.000930049	0.061217	0	0	0	
0.107	-0.0282017	-2.84756	0.000867681	0.0610141	0	0	0	
0.107167	0.0153289	2.84289	0.000716745	0.060856	0	0	0	
0.107333	-0.00709356	-2.85707	0.00051549	0.0605986	0	0	0	
0.1075	0.00439499	2.86689	0.000480681	0.0606463	0	0	0	
0.107667	-0.0171585	-2.85617	0.000576679	0.0606206	0	0	0	
0.107833	0.0156824	2.87123	0.000623045	0.0606942	0	0	0	
0.108	0.0011706	-2.88761	0.000488952	0.0606859	0	0	0	
0.108167	-0.00447203	2.89569	0.000341767	0.0608747	0	0	0	
0.108333	-0.00553457	-2.90987	0.000360413	0.0609676	0	0	0	
0.1085	0.00524742	2.91651	0.000433945	0.0610617	0	0	0	
0.108667	-0.0104539	-2.90142	0.000428077	0.0608677	0	0	0	
0.108833	0.0122889	2.92034	0.000371353	0.0607781	0	0	0	
0.109	-0.0197892	-2.94169	0.000366081	0.060743	0	0	0	
0.109167	0.0137462	2.93659	0.000397339	0.060958	0	0	0	
0.109333	-0.00902997	-2.91335	0.000357506	0.060922	0	0	0	
0.1095	0.00980785	2.93341	0.000310598	0.0608284	0	0	0	
0.109667	-0.0113788	-2.94652	0.000320897	0.0606933	0	0	0	
0.109833	0.0190615	2.96268	0.000416311	0.0608659	0	0	0	
0.11	-0.0249938	-2.96162	0.000506248	0.0610358	0	0	0	
0.110167	0.00939212	2.96368	0.00052464	0.0612242	0	0	0	
0.110333	-0.0101525	-2.96401	0.000480644	0.0611484	0	0	0	
0.1105	0.0221699	2.98113	0.000476488	0.0610655	0	0	0	
0.110667	-0.0192727	-2.97949	0.000474394	0.060893	0	0	0	
0.110833	0.00915626	2.9809	0.000418994	0.0609182	0	0	0	
0.111	-0.00261397	-2.97312	0.000312262	0.0608452	0	0	0	
0.111167	0.00769914	2.98235	0.000321099	0.0609057	0	0	0	
0.111333	-0.0169025	-3.04243	0.000449533	0.0610216	0	0	0	
0.1115	0.0237832	3.06814	0.000560546	0.0612694	0	0	0	
0.111667	-0.0197392	-2.76665	0.000536478	0.0602206	0	0	0	
0.111833	0.00350133	2.16091	0.000394452	0.0573034	0	0	0	
0.112	0.00516564	-1.73014	0.000238027	0.0514731	0	0	0	
0.112167	-0.00122943	2.65608	0.00021619	0.0495672	0	0	0	
0.112333	-0.00813327	-3.15027	0.000328098	0.0528223	0	0	0	
0.1125	0.0166576	3.22694	0.000445617	0.0595812	0	0	0	
0.112667	-0.0167018	-3.19948	0.000472946	0.0633801	0	0	0	
0.112833	0.0133331	3.01572	0.000461031	0.062766	0	0	0	
0.113	-0.0220028	-2.51268	0.000492701	0.0573213	0	0	0	
0.113167	0.0222897	2.77327	0.000533649	0.0545151	0	0	0	
0.113333	-0.0142514	-2.72242	0.000481713	0.0526925	0	0	0	
0.1135	0.0128429	2.98069	0.000419251	0.0562891	0	0	0	
0.113667	-0.018205	-3.10552	0.000424651	0.0584091	0	0	0	
0.113833	0.021064	3.04965	0.000516499	0.0604043	0	0	0	
0.114	-0.0203095	-2.92011	0.00055978	0.0605273	0	0	0	
0.114167	0.0208724	2.90752	0.000511461	0.0595461	0	0	0	
0.114333	-0.0230598	-3.03217	0.000463589	0.0591743	0	0	0	
0.1145	0.0222654	3.19929	0.000465235	0.0601329	0	0	0	
0.114667	-0.0150118	-3.16086	0.000453293	0.0616099	0	0	0	
0.114833	0.0126975	3.05706	0.000399159	0.061842	0	0	0	
0.115	-0.00776331	-3.03022	0.000335062	0.0611394	0	0	0	
0.115167	0.00116453	3.07844	0.000325881	0.060347	0	0	0	
0.115333	-0.00915163	-3.11202	0.000497334	0.060511	0	0	0	
0.1155	0.0270808	3.10542	0.00073934	0.0608913	0	0	0	
0.115667	-0.0213967	-3.05186	0.000826603	0.0610889	0	0	0	
0.115833	0.00182399	3.12043	0.000657284	0.0610622	0	0	0	
0.116	0.00545499	-3.19017	0.000505109	0.0614224	0	0	0	
0.116167	0.0235059	3.16033	0.00056772	0.0616663	0	0	0	
0.116333	-0.018774	-3.10173	0.000623423	0.0616529	0	0	0	
0.1165	-0.0150763	3.15193	0.000554548	0.0613896	0	0	0	
0.116667	0.0410694	-3.3282	0.000426806	0.0618331	0	0	0	
0.116833	0.0160096	3.27477	0.000824904	0.062378	0	0	0	
0.117	-0.345626	-2.47004	0.00212977	0.0586796	0	0	0	
0.117167	0.192466	1.7273	0.00510934	0.0524029	0	0	0	
0.117333	-0.112373	-2.21128	0.00583441	0.0448423	0	0	0	
0.1175	0.0366677	2.759	0.00479991	0.0452759	0	0	0	
0.117667	0.0149164	-3.14522	0.00202515	0.0503578	0	0	0	
0.117833	-0.0510307	3.38981	0.00101448	0.0583533	0	0	0	
0.118	0.0643784	-3.72879	0.000962831	0.063461	0	0	0	
0.118167	-0.28972	4.18774	0.00254486	0.0690202	0	0	0	
0.118333	0.127632	-4.00593	0.00459825	0.0728143	0	0	0	
0.1185	0.0530289	3.16565	0.00543274	0.073265	0	0	0	
0.118667	-0.0745535	-2.9383	0.00398016	0.0672004	0	0	0	
0.118833	0.0391328	3.13013	0.00200732	0.0617537	0	0	0	
0.119	-0.0185936	-3.23331	0.00104005	0.0593945	0	0	0	
0.119167	0.035513	3.13634	0.000793609	0.060153	0	0	0	
0.119333	-0.0385943	-3.00555	0.000775657	0.0599246	0	0	0	
0.1195	0.0222636	3.04734	0.00080252	0.0589528	0	0	0	
0.119667	-0.0041314	-3.14977	0.000662669	0.0586719	0	0	0	
0.119833	0.000391751	3.20481	0.00038208	0.059531	0	0	0	
0.12	0.00213131	-3.18776	0.000282509	0.0604409	0	0	0	
0.120167	-0.0107991	3.44474	0.000430128	0.0617366	0	0	0	
0.120333	0.0411456	-2.17412	0.00101586	0.0624386	0	0	0	
0.1205	-0.0101313	1.31292	0.00148191	0.0572724	0	0	0	
0.120667	-0.0250483	-2.60303	0.00170575	0.0488624	0	0	0	
0.120833	0.0250458	3.17007	0.00124126	0.046908	0	0	0	
0.121	-0.039675	-3.28363	0.00089771	0.052327	0	0	0	
0.121167	0.0150632	3.14863	0.000594066	0.0600168	0	0	0	
0.121333	-0.015368	-1.94162	0.000802332	0.0585223	0	0	0	
0.1215	0.143568	2.00848	0.00119217	0.0509051	0	0	0	
0.121667	-0.0921006	-3.22723	0.00168714	0.0481315	0	0	0	
0.121833	0.024583	3.03936	0.00162435	0.0510061	0	0	0	
0.122	-0.00501864	-3.05563	0.00108397	0.0574056	0	0	0	
0.122167	0.00752286	3.18392	0.000539333	0.0595646	0	0	0	
0.122333	-0.0151535	-3.18757	0.000353014	0.0592519	0	0	0	
0.1225	0.0131907	3.11049	0.000353386	0.0598283	0	0	0	
0.122667	0.0319058	-3.00976	0.000319536	0.0596371	0	0	0	
0.122833	-0.00470557	3.15447	0.000368633	0.0587299	0	0	0	
0.123	-0.0114966	-3.24577	0.000402062	0.0589334	0	0	0	
0.123167	0.0407059	3.27757	0.000609529	0.0597596	0	0	0	
0.123333	-0.0431791	-3.2367	0.0006924	0.0609498	0	0	0	
0.1235	0.0224133	3.21661	0.000760302	0.0610631	0	0	0	
0.123667	0.00610853	-3.18453	0.000551122	0.0607241	0	0	0	
0.123833	0.0194772	3.2583	0.000448595	0.0600958	0	0	0	
0.124	-0.0100011	-3.2621	0.000350094	0.0602779	0	0	0	
0.124167	0.0102141	3.28242	0.000386574	0.0606321	0	0	0	
0.124333	-0.0138688	-3.25627	0.000406415	0.0612861	0	0	0	
0.1245	0.0299385	3.25185	0.00053369	0.0611774	0	0	0	
0.124667	-0.0276056	-3.23457	0.000625258	0.0609347	0	0	0	
0.124833	0.00848675	3.24123	0.000541848	0.0607487	0	0	0	
0.125	-0.00176854	-3.22887	0.000335705	0.0605667	0	0	0	
0.125167	0.0124188	3.24533	0.000233439	0.0605407	0	0	0	
0.125333	-0.0191907	-3.23882	0.000302913	0.0605075	0	0	0	
0.1255	0.0229816	3.25231	0.000466776	0.0606011	0	0	0	
0.125667	-0.0265578	-3.25394	0.000551293	0.0606496	0	0	0	
0.125833	0.0245596	3.28023	0.000548619	0.0608255	0	0	0	
0.126	-0.0164661	-3.26109	0.000490803	0.060935	0	0	0	
0.126167	0.0120487	3.26352	0.000393622	0.0610028	0	0	0	
0.126333	-0.0110572	-3.2499	0.000344159	0.0608583	0	0	0	
0.1265	0.018725	3.26461	0.000365105	0.0607638	0	0	0	
0.126667	-0.0158851	-3.24672	0.000422501	0.0606503	0	0	0	
0.126833	0.0156525	3.25831	0.000429968	0.0606475	0	0	0	
0.127	-0.0205602	-3.25318	0.000424808	0.0606374	0	0	0	
0.127167	0.0174822	3.26409	0.000406039	0.0606764	0	0	0	
0.127333	-0.00842342	-3.24448	0.00035394	0.0606313	0	0	0	
0.1275	0.0106093	3.26022	0.000282719	0.0605744	0	0	0	
0.127667	-0.0170549	-3.25929	0.000281974	0.0605464	0	0	0	
0.127833	0.0166306	3.28522	0.000326683	0.0606784	0	0	0	
0.128	-0.0132427	-3.28013	0.000366895	0.060847	0	0	0	
0.128167	0.015775	3.27446	0.00037601	0.0609411	0	0	0	
0.128333	-0.0193652	-3.26028	0.000389991	0.0608608	0	0	0	
0.1285	0.0184463	3.27652	0.000404213	0.0607717	0	0	0	
0.128667	-0.0211472	-3.26942	0.000411264	0.0607249	0	0	0	
0.128833	0.0240705	3.2714	0.000442587	0.0607893	0	0	0	
0.129	-0.0190143	-3.25847	0.000458181	0.0607584	0	0	0	
0.129167	0.0115723	3.2734	0.000418763	0.0607566	0	0	0	
0.129333	-0.0139406	-3.26108	0.000362396	0.0606889	0	0	0	
0.1295	0.0225619	3.27366	0.000365947	0.0607205	0	0	0	
0.129667	-0.0219936	-3.25676	0.000392806	0.0606391	0	0	0	
0.129833	0.0221344	3.27523	0.000412238	0.0606678	0	0	0	
0.13	-0.017931	-3.26045	0.000403185	0.060639	0	0	0	
0.130167	0.017238	3.27706	0.000385473	0.0607025	0	0	0	
0.130333	-0.015494	-3.26689	0.00035419	0.0606902	0	0	0	
0.1305	0.0128296	3.28223	0.000316747	0.0607523	0	0	0	
0.130667	-0.0186818	-3.26868	0.000354091	0.0607769	0	0	0	
0.130833	0.0365548	3.2872	0.000476324	0.0608485	0	0	0	
0.131	-0.0344915	-3.26259	0.00060532	0.0608281	0	0	0	
0.131167	0.0210838	3.26335	0.000619291	0.0607888	0	0	0	
0.131333	-0.0223787	-3.25777	0.000550607	0.0606723	0	0	0	
0.1315	0.0296318	3.26881	0.000496077	0.0606256	0	0	0	
0.131667	-0.0232075	-3.25437	0.000484266	0.0605926	0	0	0	
0.131833	0.0106105	3.26767	0.000439172	0.0605959	0	0	0	
0.132	-0.0153902	-3.27336	0.000374288	0.0606203	0	0	0	
0.132167	0.0214264	3.28375	0.000382475	0.0607936	0	0	0	
0.132333	-0.0141997	-3.27043	0.000423335	0.0609133	0	0	0	
0.1325	0.0157926	3.28305	0.000475396	0.0609957	0	0	0	
0.132667	-0.0310496	-3.25978	0.000542011	0.0608928	0	0	0	
0.132833	0.0332721	3.25791	0.000612153	0.060819	0	0	0	
0.133	-0.0257759	-3.25694	0.000617311	0.0606968	0	0	0	
0.133167	0.0166258	3.26954	0.000521906	0.0607303	0	0	0	
0.133333	-0.0106692	-3.23968	0.000394084	0.0606997	0	0	0	
0.1335	0.00428644	3.25654	0.000299809	0.0606691	0	0	0	
0.133667	-0.010629	-3.261	0.000263438	0.060583	0	0	0	
0.133833	0.0261135	3.27465	0.000343021	0.0606969	0	0	0	
0.134	-0.0346444	-3.26524	0.000474504	0.060826	0	0	0	
0.134167	0.0235847	3.2838	0.000547046	0.0609909	0	0	0	
0.134333	-0.0054439	-3.25672	0.000465017	0.0610122	0	0	0	
0.1345	0.00538713	3.25483	0.000303898	0.0609673	0	0	0	
0.134667	-0.0196501	-3.25307	0.000251958	0.0608587	0	0	0	
0.134833	0.0184715	3.25976	0.00031687	0.0608277	0	0	0	
0.135	-0.00844973	-3.23247	0.000394397	0.0607932	0	0	0	
0.135167	0.0139926	3.25395	0.000395338	0.0607341	0	0	0	
0.135333	-0.0260459	-3.25279	0.000385683	0.0606944	0	0	0	
0.1355	0.0247916	3.25414	0.000409854	0.0607752	0	0	0	
0.135667	-0.0144078	-3.2411	0.000416379	0.0608681	0	0	0	
0.135833	0.00893662	3.24887	0.000348923	0.0608853	0	0	0	
0.136	-0.00932699	-3.22456	0.000272288	0.0607859	0	0	0	
0.136167	0.0133948	3.22862	0.000212017	0.0606581	0	0	0	
0.136333	-0.0150626	-3.2305	0.000227235	0.0605653	0	0	0	
0.1365	0.0167658	3.25184	0.000291893	0.0606704	0	0	0	
0.136667	-0.0267226	-3.22791	0.000376219	0.060788	0	0	0	
0.136833	0.0296906	3.2244	0.000452086	0.0608269	0	0	0	
0.137	-0.0233404	-3.20867	0.000477278	0.0606725	0	0	0	
0.137167	0.0148467	3.2206	0.000447358	0.0605769	0	0	0	
0.137333	-0.0111973	-3.20762	0.000355111	0.0605188	0	0	0	
0.1375	0.0104273	3.22977	0.00028044	0.0606111	0	0	0	
0.137667	-0.0246288	-3.21811	0.000312606	0.0606818	0	0	0	
0.137833	0.0356736	3.22634	0.000444445	0.0607865	0	0	0	
0.138	-0.0269861	-3.20637	0.000553478	0.0608009	0	0	0	
0.138167	0.0128245	3.21754	0.000527705	0.0608058	0	0	0	
0.138333	-0.0185982	-3.1971	0.000423517	0.0607488	0	0	0	
0.1385	0.020264	3.20606	0.000369612	0.06071	0	0	0	
0.138667	-0.0187481	-3.19157	0.000378684	0.0606477	0	0	0	
0.138833	0.0191395	3.20746	0.00040932	0.0606689	0	0	0	
0.139	-0.0232367	-3.19059	0.000429784	0.0606927	0	0	0	
0.139167	0.0265789	3.19338	0.000445235	0.0607007	0	0	0	
0.139333	-0.0196231	-3.17865	0.000451895	0.0606647	0	0	0	
0.1395	0.00831103	3.19586	0.000371635	0.0606426	0	0	0	
0.139667	-0.0144898	-3.185	0.000315509	0.0606787	0	0	0	
0.139833	0.023561	3.20146	0.000318916	0.0607816	0	0	0	
0.14	-0.0201094	-3.1898	0.000373549	0.0608727	0	0	0	
0.140167	0.0134663	3.19557	0.000382505	0.0609514	0	0	0	
0.140333	-0.0170319	-3.16986	0.000377905	0.0609773	0	0	0	
0.1405	0.0265537	3.17528	0.000412003	0.0609322	0	0	0	
0.140667	-0.0254365	-3.15939	0.000479451	0.0608474	0	0	0	
0.140833	0.0167347	3.16717	0.000469636	0.0607372	0	0	0	
0.141	-0.0148511	-3.1542	0.000396161	0.0606991	0	0	0	
0.141167	0.0139651	3.16904	0.0003363	0.0607242	0	0	0	
0.141333	-0.0151207	-3.16119	0.000312107	0.0607962	0	0	0	
0.1415	0.0161721	3.17517	0.000313111	0.0609031	0	0	0	
0.141667	-0.0144661	-3.15147	0.00031572	0.060962	0	0	0	
0.141833	0.0213799	3.14833	0.000342911	0.0609337	0	0	0	
0.142	-0.0245991	-3.14234	0.000393653	0.0608794	0	0	0	
0.142167	0.0153646	3.1568	0.000404755	0.0608851	0	0	0	
0.142333	-0.00806407	-3.13464	0.00034135	0.0609202	0	0	0	
0.1425	0.015671	3.13875	0.000302816	0.0609319	0	0	0	
0.142667	-0.0207473	-3.12187	0.000329596	0.0608448	0	0	0	
0.142833	0.0175868	3.14394	0.000397758	0.0608102	0	0	0	
0.143	-0.0155681	-3.12653	0.000465016	0.0608699	0	0	0	
0.143167	0.0242993	3.11533	0.000533342	0.0608293	0	0	0	
0.143333	-0.0263687	-3.09944	0.000589718	0.0607949	0	0	0	
0.1435	0.0159654	3.11318	0.00056298	0.0606811	0	0	0	
0.143667	-0.0167754	-3.09083	0.000472809	0.0607015	0	0	0	
0.143833	0.0217983	3.09153	0.000420242	0.0606559	0	0	0	
0.144	-0.0113338	-3.07684	0.000376897	0.0606137	0	0	0	
0.144167	-0.00119047	3.0894	0.000289197	0.0605299	0	0	0	
0.144333	-0.00690377	-3.08492	0.000219942	0.0606447	0	0	0	
0.1445	0.0177559	3.09585	0.000244985	0.0607378	0	0	0	
0.144667	-0.0183657	-3.08045	0.000313435	0.0608951	0	0	0	
0.144833	0.011618	3.08754	0.000343986	0.0609085	0	0	0	
0.145	-0.0207515	-3.07945	0.000345471	0.0609703	0	0	0	
0.145167	0.0325368	3.07711	0.000415541	0.0610271	0	0	0	
0.145333	-0.0290733	-3.04119	0.000505035	0.0609635	0	0	0	
0.1455	0.0201163	3.0462	0.000515337	0.0607799	0	0	0	
0.145667	-0.0209863	-3.04047	0.000465861	0.0606164	0	0	0	
0.145833	0.0216611	3.04791	0.000415469	0.060587	0	0	0	
0.146	-0.0202267	-3.03819	0.000396015	0.0606583	0	0	0	
0.146167	0.0210506	3.04937	0.000392161	0.0607653	0	0	0	
0.146333	-0.0218327	-3.0244	0.000392363	0.0608178	0	0	0	
0.1465	0.0218076	3.02648	0.000412529	0.0608079	0	0	0	
0.146667	-0.0222208	-3.02645	0.000420768	0.0607744	0	0	0	
0.146833	0.0231545	3.02994	0.000422453	0.0608147	0	0	0	
0.147	-0.0173568	-3.01677	0.000400755	0.0608921	0	0	0	
0.147167	0.0138006	3.02561	0.000362991	0.0609368	0	0	0	
0.147333	-0.0141672	-3.00259	0.000315253	0.0609203	0	0	0	
0.1475	0.0172666	2.99267	0.000308411	0.0608522	0	0	0	
0.147667	-0.0257275	-2.97864	0.000350357	0.0607432	0	0	0	
0.147833	0.0313085	2.99352	0.000426732	0.0607026	0	0	0	
0.148	-0.0177445	-2.98378	0.000493688	0.0607532	0	0	0	
0.148167	0.0064358	2.9554	0.000466434	0.0607969	0	0	0	
0.148333	-0.016672	-2.91237	0.000370567	0.0605937	0	0	0	
0.1485	0.0219345	2.90462	0.000289349	0.0599539	0	0	0	
0.148667	-0.0143218	-3.01031	0.00031342	0.0597973	0	0	0	
0.148833	0.0138674	3.01829	0.000341877	0.0602618	0	0	0	
0.149	-0.0268473	-2.98334	0.000393584	0.061067	0	0	0	
0.149167	0.0333842	2.9593	0.000450845	0.0614209	0	0	0	
0.149333	-0.0230259	-2.90887	0.000523887	0.0612025	0	0	0	
0.1495	0.0126166	2.8624	0.000493941	0.0607798	0	0	0	
0.149667	-0.0192829	-2.88428	0.000420954	0.060517	0	0	0	
0.149833	0.0271317	2.85811	0.000395163	0.0601996	0	0	0	
0.15	-0.0198504	-2.9038	0.000414809	0.0600143	0	0	0	
0.150167	0.00757613	2.986	0.000388317	0.0601491	0	0	0	
0.150333	-0.0149434	-2.92603	0.000320524	0.0608211	0	0	0	
0.1505	0.02687	2.63586	0.000357081	0.061225	0	0	0	
0.150667	-0.0261498	-2.43574	0.000422441	0.059346	0	0	0	
0.150833	-0.0188699	2.30418	0.000450166	0.0568404	0	0	0	
0.151	-0.139197	-2.33656	0.00085421	0.0498039	0	0	0	
0.151167	0.017078	3.6	0.00125871	0.0537929	0	0	0	
0.151333	-0.022642	-3.04038	0.00132368	0.0579893	0	0	0	
0.1515	0.017564	2.44607	0.000920868	0.0641156	0	0	0	
0.151667	-0.0144815	-2.1888	0.00048389	0.0579485	0	0	0	
0.151833	0.0230028	1.64803	0.000437842	0.0495264	0	0	0	
0.152	-0.0473588	0.0512077	0.00054746	0.0374133	0	0	0	
0.152167	0.0400257	1.45277	0.000696619	0.0321151	0	0	0	
0.152333	-0.0180755	-2.11561	0.000841404	0.0313434	0	0	0	
0.1525	0.00245938	2.1243	0.000746072	0.0393808	0	0	0	
0.152667	0.00275935	-2.07359	0.000535997	0.0429626	0	0	0	
0.152833	-0.00060331	1.78675	0.000277572	0.0447576	0	0	0	
0.153	-0.00159424	-0.340008	0.000152384	0.0427037	0	0	0	
0.153167	0.0189108	0.921757	0.00018473	0.043027	0	0	0	
0.153333	-0.0244474	-1.68321	0.000304099	0.0420789	0	0	0	
0.1535	0.0195429	2.18022	0.000374498	0.0445671	0	0	0	
0.153667	-0.00973186	-1.9864	0.000360255	0.0441225	0	0	0	
0.153833	0.00783004	1.71329	0.000287706	0.0441035	0	0	0	
0.154	-0.0145673	-1.43384	0.000228718	0.0409402	0	0	0	
0.154167	0.0275867	1.91633	0.000295048	0.0392895	0	0	0	
0.154333	-0.0281311	-2.39743	0.000415085	0.042157	0	0	0	
0.1545	0.0208138	2.52118	0.000487388	0.0472489	0	0	0	
0.154667	-0.0141156	-2.02657	0.000447034	0.0514775	0	0	0	
0.154833	0.00530499	1.69317	0.000329795	0.0489487	0	0	0	
0.155	0.00250047	-1.60372	0.000198689	0.0442124	0	0	0	
0.155167	0.00499145	1.86436	0.000158583	0.0404927	0	0	0	
0.155333	-0.0233607	-1.03483	0.000245571	0.038608	0	0	0	
0.1555	0.0268257	2.08022	0.000397412	0.0364248	0	0	0	
0.155667	-0.0196805	-2.39728	0.000469681	0.0399368	0	0	0	
0.155833	0.0103301	1.91291	0.000413506	0.0432257	0	0	0	
0.156	-0.00284565	-1.65135	0.00030531	0.0464833	0	0	0	
0.156167	-0.00603113	1.60477	0.000233478	0.0424731	0	0	0	
0.156333	0.000380545	-1.65412	0.000180291	0.0396976	0	0	0	
0.1565	0.0177336	2.1781	0.000307284	0.040855	0	0	0	
0.156667	-0.0282324	-2.24288	0.000462079	0.0443388	0	0	0	
0.156833	0.0211666	1.94883	0.000588775	0.0478818	0	0	0	
0.157	-0.0201741	-1.66459	0.000527737	0.0469043	0	0	0	
0.157167	0.020252	1.55976	0.00042163	0.0436448	0	0	0	
0.157333	-0.0217968	-1.65075	0.00040615	0.0403522	0	0	0	
0.1575	0.0109286	1.03692	0.000387292	0.0358848	0	0	0	
0.157667	-0.0116048	-1.86086	0.00035691	0.0337245	0	0	0	
0.157833	0.017899	2.2802	0.000293036	0.037496	0	0	0	
0.158	-0.0117493	-1.83792	0.000281894	0.0434041	0	0	0	
0.158167	0.00884731	1.56435	0.000264316	0.0464622	0	0	0	
0.158333	-0.0194938	-1.4541	0.000262159	0.0420748	0	0	0	
0.1585	0.0179951	1.76312	0.000291637	0.0391203	0	0	0	
0.158667	-0.0132598	-2.38227	0.000318232	0.0428475	0	0	0	
0.158833	0.0128158	2.33973	0.000306882	0.0486383	0	0	0	
0.159	-0.00744831	-1.89166	0.000270862	0.0533271	0	0	0	
0.159167	0.00538905	1.57358	0.000228879	0.0501058	0	0	0	
0.159333	-0.00925893	-1.48488	0.000229672	0.0446874	0	0	0	
0.1595	0.0177438	1.84534	0.000264228	0.0408958	0	0	0	
0.159667	-0.0270186	-1.29526	0.000352478	0.0404773	0	0	0	
0.159833	0.0200326	1.81881	0.000414956	0.0372099	0	0	0	
0.16	-0.0184616	-2.31157	0.000434132	0.0398714	0	0	0	
0.160167	0.0144885	1.8509	0.000396676	0.0420702	0	0	0	
0.160333	-0.00607407	-1.53547	0.000329687	0.046744	0	0	0	
0.1605	-0.00374055	1.43821	0.000253783	0.0436823	0	0	0	
0.160667	-0.00195955	-1.09811	0.000171691	0.0392013	0	0	0	
0.160833	0.00988413	1.66863	0.00017271	0.0382994	0	0	0	
0.161	-0.0229544	-1.90889	0.000219486	0.041381	0	0	0	
0.161167	0.013289	1.81958	0.000325416	0.0458454	0	0	0	
0.161333	-0.00567386	-1.57773	0.000312782	0.0463233	0	0	0	
0.1615	0.0108861	1.50584	0.000242482	0.0434144	0	0	0	
0.161667	-0.0203663	-1.71128	0.000209387	0.0410209	0	0	0	
0.161833	0.0127198	1.41356	0.000260416	0.0395665	0	0	0	
0.162	-0.00631829	-1.73715	0.000310336	0.0397796	0	0	0	
0.162167	0.00551255	2.09239	0.000265176	0.0434714	0	0	0	
0.162333	-0.0120306	-1.65226	0.000224279	0.0468232	0	0	0	
0.1625	0.0103421	1.45768	0.000191213	0.0472656	0	0	0	
0.162667	-0.00726039	-1.37333	0.000199739	0.0426565	0	0	0	
0.162833	0.0143957	1.39459	0.000201616	0.039049	0	0	0	
0.163	-0.0204859	-1.83553	0.000245544	0.0407015	0	0	0	
0.163167	0.0106362	1.99505	0.000310835	0.043674	0	0	0	
0.163333	0.00128439	-1.80395	0.000275472	0.0482292	0	0	0	
0.1635	0.00907478	1.49462	0.000237681	0.0471413	0	0	0	
0.163667	-0.0187674	-1.42735	0.000206253	0.0446383	0	0	0	
0.163833	0.0238164	1.80578	0.00030546	0.0418838	0	0	0	
0.164	-0.0146619	-1.59966	0.000382908	0.0425085	0	0	0	
0.164167	0.015758	1.44612	0.000411462	0.0398689	0	0	0	
0.164333	-0.0172878	-1.93806	0.000371782	0.0420625	0	0	0	
0.1645	0.00599385	1.61756	0.000316623	0.0429225	0	0	0	
0.164667	2.33548E-05	-1.3754	0.000220512	0.0463583	0	0	0	
0.164833	0.0228105	1.3645	0.000231598	0.0432865	0	0	0	
0.165	-0.0415531	-1.0385	0.000376667	0.0387275	0	0	0	
0.165167	0.036813	1.42849	0.000590932	0.037052	0	0	0	
0.165333	-0.0175026	-1.76885	0.000712487	0.0401163	0	0	0	
0.1655	0.00383429	1.74016	0.000593349	0.0456582	0	0	0	
0.165667	-0.00328967	-1.43903	0.000386605	0.0476987	0	0	0	
0.165833	0.00719437	1.3789	0.000188972	0.0452111	0	0	0	
0.166	-0.00359939	-1.57352	0.000172916	0.0420419	0	0	0	
0.166167	0.0133744	1.48873	0.000279039	0.0413142	0	0	0	
0.166333	-0.0216231	-1.5444	0.000361595	0.0413594	0	0	0	
0.1665	0.0162566	1.93078	0.000400822	0.0449979	0	0	0	
0.166667	-0.00776026	-1.53789	0.000340311	0.0477701	0	0	0	
0.166833	0.00415059	1.31652	0.000279856	0.0485917	0	0	0	
0.167	0.0071068	-1.2268	0.000172213	0.0445093	0	0	0	
0.167167	0.00523314	1.07247	0.000137602	0.0398731	0	0	0	
0.167333	-0.0148363	-1.45074	0.000156652	0.0388887	0	0	0	
0.1675	0.0160262	1.69938	0.000226883	0.0387447	0	0	0	
0.167667	-0.0100419	-1.7539	0.000278508	0.0431749	0	0	0	
0.167833	0.0113218	1.43365	0.000278727	0.0447932	0	0	0	
0.168	-0.012924	-1.28998	0.000247995	0.0457098	0	0	0	
0.168167	0.0220983	1.53592	0.00026634	0.0435513	0	0	0	
0.168333	-0.0157804	-1.7448	0.000346296	0.0437874	0	0	0	
0.1685	0.00574509	0.914743	0.000412449	0.0388875	0	0	0	
0.168667	-5.74814E-05	-1.63543	0.000374961	0.0397829	0	0	0	
0.168833	0.000185132	1.49901	0.000225333	0.0404634	0	0	0	
0.169	-0.00643555	-1.24775	0.00011309	0.0458174	0	0	0	
0.169167	0.0130927	1.22681	9.60414E-05	0.0443519	0	0	0	
0.169333	-0.0254367	-0.827836	0.000222151	0.0396168	0	0	0	
0.1695	0.0250712	0.743968	0.000350644	0.0358086	0	0	0	
0.169667	-0.0185329	-1.44663	0.000446807	0.0375399	0	0	0	
0.169833	0.00993923	1.6142	0.000411644	0.0432036	0	0	0	
0.17	-0.0053514	-1.29367	0.000308709	0.0473858	0	0	0	
0.170167	0.00443381	1.19672	0.000213064	0.0461877	0	0	0	
0.170333	-0.00297133	-1.23903	0.000163671	0.0428205	0	0	0	
0.1705	0.0202255	1.50132	0.000248633	0.0422171	0	0	0	
0.170667	-0.040233	-1.3367	0.000387632	0.0421368	0	0	0	
0.170833	0.0232584	1.68928	0.000562588	0.0456744	0	0	0	
0.171	0.002178	-1.36852	0.000623674	0.0482827	0	0	0	
0.171167	0.00328095	1.15165	0.000482753	0.0492434	0	0	0	
0.171333	-0.00371723	-1.0055	0.000285283	0.0457179	0	0	0	
0.1715	0.00102337	0.804969	0.000175424	0.0403076	0	0	0	
0.171667	-0.00328909	-1.15113	0.000203935	0.0368109	0	0	0	
0.171833	0.0126281	1.35848	0.000248542	0.032287	0	0	0	
0.172	-0.0137749	-1.71268	0.00025121	0.0361542	0	0	0	
0.172167	0.00641014	1.34188	0.000238617	0.0404579	0	0	0	
0.172333	-0.00439564	-1.10788	0.000223552	0.0461026	0	0	0	
0.1725	0.0170917	1.15013	0.000197869	0.0449498	0	0	0	
0.172667	-0.030811	-1.73005	0.000264934	0.0444921	0	0	0	
0.172833	0.032596	0.273908	0.000453173	0.0388126	0	0	0	
0.173	-0.0135923	-1.2352	0.000606913	0.0383596	0	0	0	
0.173167	0.00891176	1.33163	0.000608277	0.0386915	0	0	0	
0.173333	-0.00974809	-1.10038	0.000443994	0.0442845	0	0	0	
0.1735	0.00490543	1.0254	0.000304795	0.0442973	0	0	0	
0.173667	0.00375053	-0.723228	0.000230363	0.0402173	0	0	0	
0.173833	0.0101986	0.0629058	0.000243885	0.0348597	0	0	0	
0.174	-0.0389926	-1.09626	0.000402262	0.0346058	0	0	0	
0.174167	0.0448414	1.48329	0.000634234	0.0395968	0	0	0	
0.174333	-0.0181953	-1.16427	0.000722584	0.045399	0	0	0	
0.1745	0.010583	1.01003	0.000583095	0.0462428	0	0	0	
0.174667	-0.0274869	-0.879819	0.000425461	0.0432185	0	0	0	
0.174833	0.0351592	1.42131	0.00042946	0.0426188	0	0	0	
0.175	-0.0129567	-1.21234	0.000561829	0.0430394	0	0	0	
0.175167	-0.00272198	1.41335	0.000535547	0.046613	0	0	0	
0.175333	-0.00237291	-1.1414	0.000463282	0.0493351	0	0	0	
0.1755	0.0162278	0.958861	0.000325622	0.0495418	0	0	0	
0.175667	-0.00874807	-0.939765	0.000282694	0.0460559	0	0	0	
0.175833	0.00481409	0.769171	0.000222785	0.0416455	0	0	0	
0.176	-0.0146057	-0.43365	0.000200632	0.0391115	0	0	0	
0.176167	0.0250015	1.2198	0.000287879	0.0411944	0	0	0	
0.176333	-0.0228249	-1.36776	0.000391699	0.045497	0	0	0	
0.1765	0.0117297	1.09478	0.000421611	0.0487457	0	0	0	
0.176667	-0.00401019	-0.849361	0.000314813	0.0478329	0	0	0	
0.176833	0.0163782	0.601865	0.000227469	0.0446131	0	0	0	
0.177	-0.0331163	-1.52556	0.00028432	0.0435241	0	0	0	
0.177167	0.0348396	1.09671	0.000454711	0.0403516	0	0	0	
0.177333	-0.0190693	-1.2749	0.000600462	0.040115	0	0	0	
0.1775	0.000861356	1.19945	0.000548313	0.0423287	0	0	0	
0.177667	-0.00615712	-0.899611	0.000353133	0.0462295	0	0	0	
0.177833	0.0211856	0.842652	0.000218534	0.0468469	0	0	0	
0.178	-0.0282412	-0.892794	0.000298824	0.043548	0	0	0	
0.178167	0.0112423	-0.383316	0.000472488	0.0397735	0	0	0	
0.178333	0.0014612	-0.550978	0.000494518	0.0398779	0	0	0	
0.1785	0.00608163	1.13975	0.000348314	0.0428199	0	0	0	
0.178667	-0.0138736	-0.955686	0.000219472	0.0462577	0	0	0	
0.178833	0.0119254	0.806217	0.000198054	0.0463889	0	0	0	
0.179	-0.0134914	-0.5837	0.000239974	0.0438041	0	0	0	
0.179167	0.0236323	1.00033	0.000288624	0.0431347	0	0	0	
0.179333	-0.0239283	-1.04358	0.000360838	0.044114	0	0	0	
0.1795	0.0161031	1.16983	0.000417457	0.0472859	0	0	0	
0.179667	-0.00603972	-0.986127	0.000388335	0.0503019	0	0	0	
0.179833	0.00864993	0.746541	0.000286362	0.0502064	0	0	0	
0.18	-0.0194163	-0.693146	0.000226282	0.0471699	0	0	0	
0.180167	0.024218	0.645248	0.000299401	0.0422333	0	0	0	
0.180333	-0.00917628	-0.049112	0.000439531	0.0364633	0	0	0	
0.1805	0.000871155	0.843637	0.000476058	0.0347867	0	0	0	
0.180667	-0.00774185	-1.20085	0.000364535	0.0388902	0	0	0	
0.180833	0.00978284	0.856747	0.000234638	0.0455448	0	0	0	
0.181	-0.00620423	-0.626056	0.000181323	0.0480635	0	0	0	
0.181167	0.00693654	0.586872	0.000181698	0.0445123	0	0	0	
0.181333	-0.0176235	-1.44059	0.00021913	0.0420251	0	0	0	
0.1815	0.0212578	1.27979	0.000312344	0.039913	0	0	0	
0.181667	-0.0142506	-1.10883	0.000405016	0.041468	0	0	0	
0.181833	0.00651183	0.979881	0.000391963	0.0451992	0	0	0	
0.182	-0.0119958	-0.629816	0.000295947	0.0483176	0	0	0	
0.182167	0.0166853	0.533639	0.000233436	0.0477789	0	0	0	
0.182333	-0.0171581	-0.617247	0.000296113	0.0421418	0	0	0	
0.1825	0.0110346	-0.703512	0.000406404	0.0338143	0	0	0	
0.182667	-0.00906343	-0.137203	0.000430187	0.0309082	0	0	0	
0.182833	0.00599981	1.01171	0.000350546	0.034159	0	0	0	
0.183	-0.00429947	-0.788283	0.000208847	0.0420903	0	0	0	
0.183167	0.013566	0.579045	0.000171597	0.0456521	0	0	0	
0.183333	-0.0346322	-0.35095	0.000256324	0.0440211	0	0	0	
0.1835	0.0256062	0.640911	0.000418286	0.0422188	0	0	0	
0.183667	-0.00326362	-0.99431	0.000527562	0.0432351	0	0	0	
0.183833	0.00607816	0.927097	0.000435572	0.0472627	0	0	0	
0.184	-0.019837	-0.73701	0.000367986	0.0516203	0	0	0	
0.184167	0.0158629	0.49528	0.000298387	0.0512256	0	0	0	
0.184333	-0.0074902	-0.432412	0.000316586	0.0472868	0	0	0	
0.1845	0.0256809	0.579923	0.000300397	0.041754	0	0	0	
0.184667	-0.0394201	-0.11753	0.000391832	0.0358437	0	0	0	
0.184833	0.0144682	0.509785	0.000617602	0.0325839	0	0	0	
0.185	0.0152217	-0.989588	0.000742277	0.0357656	0	0	0	
0.185167	-0.00472629	0.69171	0.000583483	0.0423049	0	0	0	
0.185333	-0.0120073	-0.401998	0.000388853	0.0468712	0	0	0	
0.1855	0.0122418	0.180556	0.000224064	0.044806	0	0	0	
0.185667	-0.0132232	-0.311225	0.000273936	0.0414378	0	0	0	
0.185833	0.0210757	0.829888	0.000294449	0.0399089	0	0	0	
0.186	-0.0300915	-0.612887	0.000386539	0.0409825	0	0	0	
0.186167	0.0198025	0.685902	0.000458773	0.0447292	0	0	0	
0.186333	-0.00569164	-0.404298	0.000451163	0.0463841	0	0	0	
0.1865	0.0101004	0.343487	0.0003571	0.0455287	0	0	0	
0.186667	-0.0291862	-0.464371	0.000338485	0.0419259	0	0	0	
0.186833	0.0178739	-0.115523	0.000432233	0.0366956	0	0	0	
0.187	-0.00313516	0.167792	0.000544997	0.0339286	0	0	0	
0.187167	0.00301265	0.709931	0.000476838	0.0362216	0	0	0	
0.187333	-0.00659941	-0.511379	0.000302465	0.0417939	0	0	0	
0.1875	0.00809313	0.326877	0.000192971	0.045236	0	0	0	
0.187667	-0.0150886	-0.164918	0.000209624	0.0435452	0	0	0	
0.187833	0.026171	0.11719	0.000318648	0.0417949	0	0	0	
0.188	-0.0298998	-0.75535	0.000453759	0.0432663	0	0	0	
0.188167	0.0228841	0.598985	0.000604029	0.0474096	0	0	0	
0.188333	-0.00643857	-0.479169	0.000649814	0.0515267	0	0	0	
0.1885	-0.000114679	0.263617	0.000537512	0.0507876	0	0	0	
0.188667	-0.00371738	-0.239104	0.000319981	0.046655	0	0	0	
0.188833	0.00898049	0.518963	0.000172955	0.0414355	0	0	0	
0.189	-0.00921322	-0.587642	0.000154298	0.0370742	0	0	0	
0.189167	0.0215378	0.255858	0.000245475	0.0332524	0	0	0	
0.189333	-0.0285352	-0.791714	0.000365028	0.0360429	0	0	0	
0.1895	0.0171591	0.466667	0.000433014	0.0419804	0	0	0	
0.189667	-0.00766727	0.0237593	0.00042068	0.0483988	0	0	0	
0.189833	0.0084711	-0.196577	0.000345274	0.0457311	0	0	0	
0.19	-0.00170367	0.452454	0.000277754	0.034318	0	0	0	
0.190167	0.00439615	0.211068	0.000219257	0.0252402	0	0	0	
0.190333	-0.0189854	-0.565476	0.00020957	0.0239198	0	0	0	
0.1905	0.0228846	0.653615	0.000290923	0.0347928	0	0	0	
0.190667	-0.00866353	-0.246061	0.000347587	0.0438261	0	0	0	
0.190833	0.00141288	-0.032703	0.000349647	0.0477486	0	0	0	
0.191	3.04416E-05	0.367194	0.000241431	0.0456713	0	0	0	
0.191167	0.00348464	-0.867456	0.000231801	0.0421633	0	0	0	
0.191333	0.0022666	0.774224	0.000317768	0.0397409	0	0	0	
0.1915	-0.00498025	0.422255	0.000398914	0.0393135	0	0	0	
0.191667	0.00293269	-0.349173	0.000321998	0.0417683	0	0	0	
0.191833	0.00343647	0.0764284	0.000168967	0.0438377	0	0	0	
0.192	-0.00347999	0.0842294	7.19089E-05	0.0435247	0	0	0	
0.192167	0.0161774	-0.329776	0.000140472	0.0412233	0	0	0	
0.192333	-0.0200194	-0.496952	0.000258293	0.0412044	0	0	0	
0.1925	0.0112984	0.364486	0.000383928	0.0452954	0	0	0	
0.192667	-0.00497649	-0.241842	0.000465564	0.0506998	0	0	0	
0.192833	0.000591456	-0.00670966	0.000421644	0.0513424	0	0	0	
0.193	-0.000512524	0.0118597	0.000330317	0.0471203	0	0	0	
0.193167	-0.00386168	0.33579	0.000264047	0.0413787	0	0	0	
0.193333	0.0038263	-0.963547	0.000257933	0.0376852	0	0	0	
0.1935	0.00693536	0.0971363	0.000255599	0.0346784	0	0	0	
0.193667	-0.0181358	-0.422997	0.000293557	0.0378472	0	0	0	
0.193833	0.00363374	0.185881	0.000339533	0.042724	0	0	0	
0.194	-0.0011331	0.0139201	0.000343032	0.0472206	0	0	0	
0.194167	0.010786	-0.0055306	0.000249788	0.0449945	0	0	0	
0.194333	-0.0137242	-0.171497	0.000236431	0.0416057	0	0	0	
0.1945	0.000485564	0.176389	0.000363719	0.04162	0	0	0	
0.194667	0.0103074	0.0125659	0.000461511	0.0448613	0	0	0	
0.194833	-0.00350418	0.143973	0.000383357	0.0482408	0	0	0	
0.195	-0.00649861	0.0713216	0.000210475	0.0484654	0	0	0	
0.195167	0.00277095	-0.0701574	0.000125356	0.0452909	0	0	0	
0.195333	0.0100708	-0.370213	0.000162723	0.0407109	0	0	0	
0.1955	-0.0056518	0.422293	0.00019936	0.0355345	0	0	0	
0.195667	-0.0104957	0.455601	0.000177786	0.0323014	0	0	0	
0.195833	0.0193973	0.175863	0.000206601	0.035312	0	0	0	
0.196	-0.0136853	-0.0304553	0.000272966	0.0417686	0	0	0	
0.196167	0.0128455	-0.138538	0.000340038	0.046371	0	0	0	
0.196333	-0.0133159	0.14869	0.000351712	0.0443397	0	0	0	
0.1965	0.0119069	-0.573154	0.000437356	0.0412439	0	0	0	
0.196667	-0.00296967	-0.0632485	0.000597246	0.0429287	0	0	0	
0.196833	-0.00426015	-0.043438	0.000704268	0.048313	0	0	0	
0.197	0.00570153	0.0579988	0.000625331	0.0529888	0	0	0	
0.197167	-0.00151622	-0.211895	0.000380584	0.0518925	0	0	0	
0.197333	-0.012431	0.203576	0.000233717	0.0466779	0	0	0	
0.1975	0.0288563	0.0412273	0.000230441	0.0412106	0	0	0	
0.197667	-0.0301873	-1.06729	0.000394407	0.0382831	0	0	0	
0.197833	0.0262726	-0.0723614	0.000534353	0.0357312	0	0	0	
0.198	-0.0196827	-0.116848	0.000613006	0.0383814	0	0	0	
0.198167	0.00876691	-0.0415843	0.00059549	0.0429702	0	0	0	
0.198333	0.000758064	0.25569	0.000490667	0.0472699	0	0	0	
0.1985	-0.00106936	-0.285544	0.000344412	0.0457084	0	0	0	
0.198667	-0.00311522	0.324338	0.000230076	0.0416487	0	0	0	
0.198833	0.00719036	-1.10922	0.00023408	0.0399006	0	0	0	
0.199	-0.00378855	0.518417	0.000323184	0.042045	0	0	0	
0.199167	0.00405964	-0.0676805	0.000374837	0.0447153	0	0	0	
0.199333	-0.00547249	0.225534	0.000303756	0.0459918	0	0	0	
0.1995	0.00977607	-0.261704	0.000217263	0.0437742	0	0	0	
0.199667	-0.00990893	0.113213	0.000206294	0.0413044	0	0	0	
0.199833	0.0138662	-0.113326	0.000313799	0.0390317	0	0	0	
0.2	-0.0118691	0.621059	0.000424841	0.0387029	0	0	0	
0.200167	0.00405485	-0.297031	0.000485454	0.0422273	0	0	0	
0.200333	0.00210434	0.245206	0.00042697	0.0457623	0	0	0	
0.2005	-0.00136712	-0.0724078	0.00027419	0.0456633	0	0	0	
0.200667	-0.010423	0.118385	0.000189283	0.0436962	0	0	0	
0.200833	0.0594033	-0.891804	0.000270543	0.0495266	0	0	0	
0.201	0.0912043	1.93226	0.000907829	0.0609428	0	0	0	
0.201167	0.0214686	-1.89814	0.0013844	0.0695487	0	0	0	
0.201333	0.00570957	0.889495	0.00164501	0.0651217	0	0	0	
0.2015	-0.0168213	-0.603961	0.00125888	0.055531	0	0	0	
0.201667	0.00539582	0.756585	0.000889987	0.0497824	0	0	0	
0.201833	0.0039541	-1.02016	0.000638894	0.0516711	0	0	0	
0.202	0.00553058	0.668609	0.000492315	0.055713	0	0	0	
0.202167	-0.00370607	-0.380438	0.000354269	0.0558909	0	0	0	
0.202333	-0.0167112	0.27798	0.000247442	0.0552268	0	0	0	
0.2025	0.0363556	-0.398659	0.000287717	0.0565482	0	0	0	
0.202667	-0.0338804	0.52548	0.000480748	0.0596546	0	0	0	
0.202833	0.023035	-0.558583	0.00064922	0.0613248	0	0	0	
0.203	-0.0184082	0.507551	0.000675765	0.0606379	0	0	0	
0.203167	0.0231833	-0.476237	0.000605381	0.0596374	0	0	0	
0.203333	-0.0166054	0.548869	0.000531169	0.0600361	0	0	0	
0.2035	0.00298838	-0.647204	0.000548377	0.0612788	0	0	0	
0.203667	0.000943052	0.657296	0.000531458	0.0619153	0	0	0	
0.203833	0.00870443	-0.64587	0.000412489	0.0615169	0	0	0	
0.204	-0.0174399	0.634904	0.00029873	0.0608878	0	0	0	
0.204167	0.0175528	-0.651981	0.000361362	0.0607273	0	0	0	
0.204333	0.000417878	0.675127	0.000529083	0.0609968	0	0	0	
0.2045	-0.00137051	-0.711007	0.000563345	0.0612485	0	0	0	
0.204667	-0.00758941	0.708432	0.000388817	0.0613015	0	0	0	
0.204833	0.0148518	-0.713468	0.000251732	0.0611512	0	0	0	
0.205	-0.0175789	0.721931	0.000214417	0.0610512	0	0	0	
0.205167	0.0216462	-0.749448	0.000340007	0.061089	0	0	0	
0.205333	-0.00802376	0.767677	0.000420626	0.0611298	0	0	0	
0.2055	-0.00494791	-0.780609	0.000511274	0.0610122	0	0	0	
0.205667	0.0094494	0.77029	0.000491181	0.0608791	0	0	0	
0.205833	-0.00242046	-0.788792	0.0003775	0.0608269	0	0	0	
0.206	-0.00520673	0.806608	0.000212418	0.0608802	0	0	0	
0.206167	0.0142694	-0.829065	0.000150279	0.06094	0	0	0	
0.206333	-0.017227	0.842366	0.000239132	0.0609957	0	0	0	
0.2065	0.0149769	-0.866562	0.000420499	0.0609913	0	0	0	
0.206667	-0.00465501	0.867885	0.000585288	0.0609715	0	0	0	
0.206833	-0.00265998	-0.889609	0.000645619	0.0609428	0	0	0	
0.207	-0.00478989	0.897264	0.000523343	0.0609834	0	0	0	
0.207167	0.0189911	-0.920573	0.000368435	0.0610019	0	0	0	
0.207333	-0.0165949	0.917309	0.000321607	0.0609236	0	0	0	
0.2075	0.00677418	-0.921813	0.000459964	0.0604921	0	0	0	
0.207667	0.00138577	0.90948	0.000492578	0.0601063	0	0	0	
0.207833	0.0124419	-0.870081	0.000391275	0.0602099	0	0	0	
0.208	-0.0168033	0.939152	0.000273229	0.0608249	0	0	0	
0.208167	0.0115147	-1.00168	0.000273901	0.0614053	0	0	0	
0.208333	-0.0127613	1.01555	0.00030964	0.0615305	0	0	0	
0.2085	0.0284468	-1.05463	0.000341704	0.0613869	0	0	0	
0.208667	-0.0193824	1.08387	0.000432266	0.0611835	0	0	0	
0.208833	-0.00469351	-1.00238	0.000628614	0.0607522	0	0	0	
0.209	0.014057	1.01775	0.000699564	0.0601249	0	0	0	
0.209167	-0.0015086	-1.04653	0.000536172	0.0599052	0	0	0	
0.209333	-0.00912621	1.0641	0.000283463	0.0602267	0	0	0	
0.2095	-0.00113288	-1.09167	0.000199685	0.0608134	0	0	0	
0.209667	0.000236281	1.11601	0.000229693	0.0610616	0	0	0	
0.209833	0.0132155	-1.09988	0.000255552	0.0608711	0	0	0	
0.21	0.0377696	0.997462	0.000459464	0.0604423	0	0	0	
0.210167	0.0369385	-1.3117	0.0017719	0.0593987	0	0	0	
0.210333	0.0104188	1.28828	0.00286052	0.0600087	0	0	0	
0.2105	-0.0315034	-1.30032	0.00295226	0.0609685	0	0	0	
0.210667	0.0216033	1.23394	0.00189355	0.0621279	0	0	0	
0.210833	-0.0303521	-1.18253	0.00110869	0.0614981	0	0	0	
0.211	0.0240601	1.13479	0.00104703	0.0605325	0	0	0	
0.211167	0.0261529	-1.12671	0.00127941	0.059418	0	0	0	
0.211333	-0.106773	1.17737	0.00260034	0.0602781	0	0	0	
0.2115	0.0608123	-1.25918	0.00269295	0.0622194	0	0	0	
0.211667	-0.0929329	1.35133	0.00259094	0.0646282	0	0	0	
0.211833	0.0964512	-1.3886	0.00154893	0.0646014	0	0	0	
0.212	-0.0527502	1.33221	0.00190196	0.0627275	0	0	0	
0.212167	-0.016577	-1.21881	0.00229816	0.0602279	0	0	0	
0.212333	0.0598026	1.15254	0.00224695	0.0584626	0	0	0	
0.2125	-0.0556328	-1.20474	0.00180835	0.0583283	0	0	0	
0.212667	0.0127794	1.28276	0.00118474	0.0596715	0	0	0	
0.212833	0.0362027	-1.36034	0.000937455	0.0613359	0	0	0	
0.213	-0.0615958	1.41068	0.000882865	0.0622536	0	0	0	
0.213167	0.0377639	-1.41925	0.00098542	0.0620751	0	0	0	
0.213333	0.00917876	1.37122	0.0010908	0.0612999	0	0	0	
0.2135	-0.0317559	-1.37375	0.00105091	0.0605438	0	0	0	
0.213667	0.0055296	1.38467	0.000834469	0.0604337	0	0	0	
0.213833	0.0278115	-1.42115	0.000552987	0.0608079	0	0	0	
0.214	-0.0329669	1.4553	0.000470908	0.0612645	0	0	0	
0.214167	0.0171651	-1.47683	0.00057686	0.0612902	0	0	0	
0.214333	0.00330193	1.46345	0.000694842	0.06104	0	0	0	
0.2145	-0.0203905	-1.48053	0.000768385	0.0607359	0	0	0	
0.214667	0.00835636	1.47904	0.000671638	0.0607133	0	0	0	
0.214833	0.0175409	-1.50097	0.000451839	0.060863	0	0	0	
0.215	-0.0308728	1.51638	0.000347024	0.0610835	0	0	0	
0.215167	0.0118743	-1.53402	0.000482161	0.0611262	0	0	0	
0.215333	0.0102192	1.53574	0.000685799	0.0611143	0	0	0	
0.2155	-0.0097738	-1.55733	0.000671252	0.0609749	0	0	0	
0.215667	0.00331688	1.54405	0.000471799	0.0608425	0	0	0	
0.215833	-0.00165559	-1.56525	0.000275428	0.0607859	0	0	0	
0.216	-0.00515019	1.60483	0.000206235	0.0610322	0	0	0	
0.216167	0.010698	-1.61391	0.000200108	0.0612865	0	0	0	
0.216333	-0.014571	1.6069	0.000236306	0.0613617	0	0	0	
0.2165	0.0094264	-1.64404	0.00035993	0.0612169	0	0	0	
0.216667	0.00261953	1.65909	0.000539269	0.0611014	0	0	0	
0.216833	-0.00767001	-1.65569	0.000683503	0.0609792	0	0	0	
0.217	0.0104954	1.65858	0.000688932	0.0609231	0	0	0	
0.217167	-0.0061012	-1.66717	0.000562235	0.0609095	0	0	0	
0.217333	-0.00318738	1.67527	0.000405265	0.0609537	0	0	0	
0.2175	0.00538305	-1.69698	0.000337063	0.0609132	0	0	0	
0.217667	-0.0103054	1.70773	0.00035833	0.0608808	0	0	0	
0.217833	0.0111492	-1.72435	0.000435478	0.0609097	0	0	0	
0.218	0.00415497	1.73764	0.000588588	0.0610028	0	0	0	
0.218167	-0.0228663	-1.75681	0.000730226	0.0610097	0	0	0	
0.218333	0.0110811	1.75166	0.000670825	0.061007	0	0	0	
0.2185	0.0222771	-1.77842	0.000507686	0.0609782	0	0	0	
0.218667	-0.0279097	1.79273	0.000386074	0.061039	0	0	0	
0.218833	0.00741862	-1.81191	0.000525573	0.0610491	0	0	0	
0.219	2.53265E-06	1.81755	0.000635059	0.0610609	0	0	0	
0.219167	0.00989973	-1.83938	0.000596827	0.0609779	0	0	0	
0.219333	-0.0079659	1.83557	0.000511922	0.0609612	0	0	0	
0.2195	-0.0122521	-1.85455	0.000585316	0.060869	0	0	0	
0.219667	0.0247983	1.86006	0.000701135	0.0608491	0	0	0	
0.219833	-0.012418	-1.86814	0.000664813	0.0608233	0	0	0	
0.22	-0.00122642	1.8765	0.000403842	0.0609222	0	0	0	
0.220167	0.00634826	-1.8934	0.000221338	0.0609884	0	0	0	
0.220333	-0.00783648	1.89765	0.000168308	0.061044	0	0	0	
0.2205	0.00455377	-1.9312	0.000246971	0.0610199	0	0	0	
0.220667	0.0047742	1.93937	0.000404202	0.0610454	0	0	0	
0.220833	-0.0169858	-1.94174	0.000544157	0.061023	0	0	0	
0.221	0.0155133	1.95195	0.000578632	0.0610407	0	0	0	
0.221167	-0.000465912	-1.97058	0.000448374	0.0609973	0	0	0	
0.221333	-0.00142327	1.97882	0.000293333	0.0609665	0	0	0	
0.2215	-0.00449313	-2.00559	0.000262294	0.0608846	0	0	0	
0.221667	-0.00202584	2.00861	0.000312685	0.0608799	0	0	0	
0.221833	0.00416782	-2.0119	0.000393699	0.0608579	0	0	0	
0.222	0.00443527	2.01787	0.000483898	0.0608739	0	0	0	
0.222167	-0.00518509	-2.03679	0.0005437	0.0608347	0	0	0	
0.222333	-0.00438615	2.05387	0.000485526	0.0609457	0	0	0	
0.2225	0.0129916	-2.08076	0.000401092	0.0610564	0	0	0	
0.222667	-0.00330289	2.09057	0.000433301	0.0611637	0	0	0	
0.222833	-0.0065303	-2.09985	0.000545947	0.0611255	0	0	0	
0.223	-0.00224404	2.10999	0.000551671	0.0610788	0	0	0	
0.223167	0.00594435	-2.11573	0.000511734	0.0609174	0	0	0	
0.223333	0.00790698	2.11101	0.000550633	0.060822	0	0	0	
0.2235	-0.00878551	-2.1319	0.000588542	0.0607951	0	0	0	
0.223667	6.03684E-05	2.15609	0.000490392	0.0609665	0	0	0	
0.223833	-0.000224263	-2.16104	0.000340045	0.061076	0	0	0	
0.224	-0.00125974	2.16541	0.000292904	0.0611088	0	0	0	
0.224167	0.012305	-2.18548	0.000323848	0.0610408	0	0	0	
0.224333	-0.0187018	2.19624	0.000385782	0.0610481	0	0	0	
0.2245	0.00771289	-2.20472	0.000464816	0.0610035	0	0	0	
0.224667	0.00252176	2.21119	0.000551463	0.0609805	0	0	0	
0.224833	0.000842296	-2.227	0.000536235	0.0609229	0	0	0	
0.225	-0.00276606	2.24092	0.000501028	0.0609438	0	0	0	
0.225167	-0.00914084	-2.25186	0.000563303	0.060877	0	0	0	
0.225333	0.0230864	2.25845	0.000661043	0.0608317	0	0	0	
0.2255	-0.0198388	-2.27148	0.000643726	0.0607724	0	0	0	
0.225667	-0.001027	2.27956	0.000451467	0.0608338	0	0	0	
0.225833	0.0174684	-2.29262	0.000275364	0.060903	0	0	0	
0.226	-0.00798615	2.31085	0.000316863	0.0610083	0	0	0	
0.226167	-0.00856347	-2.32202	0.00049996	0.0610151	0	0	0	
0.226333	0.0127995	2.32073	0.000598649	0.0609853	0	0	0	
0.2265	-0.00504144	-2.33702	0.000503635	0.0609595	0	0	0	
0.226667	0.00187456	2.34811	0.000353807	0.0613071	0	0	0	
0.226833	0.000585142	-2.3847	0.000345932	0.0615427	0	0	0	
0.227	-0.00123307	2.46193	0.000412955	0.0616507	0	0	0	
0.227167	-0.00155051	-2.41919	0.000499766	0.0614134	0	0	0	
0.227333	0.0104481	2.39543	0.000595421	0.0611151	0	0	0	
0.2275	-0.0216553	-2.38839	0.000707421	0.0608192	0	0	0	
0.227667	0.0211916	2.35575	0.000759715	0.0605205	0	0	0	
0.227833	-0.00629185	-2.36424	0.000650665	0.0602249	0	0	0	
0.228	-0.00510056	2.47106	0.000421758	0.0604841	0	0	0	
0.228167	0.00863347	-2.471	0.000272363	0.0610998	0	0	0	
0.228333	-0.0077253	2.47646	0.00028331	0.0616745	0	0	0	
0.2285	0.00673381	-2.48236	0.000406258	0.0616435	0	0	0	
0.228667	-0.00565107	2.47928	0.00052181	0.0612706	0	0	0	
0.228833	0.000866125	-2.47164	0.000628528	0.0610649	0	0	0	
0.229	0.00907416	2.56383	0.00068736	0.0613609	0	0	0	
0.229167	-0.00918176	-2.71528	0.00066303	0.0619026	0	0	0	
0.229333	0.0112255	2.39026	0.00060426	0.0607591	0	0	0	
0.2295	-0.0216051	-1.08033	0.000536404	0.0544723	0	0	0	
0.229667	0.131924	1.80624	0.000817216	0.0458809	0	0	0	
0.229833	0.0458218	-1.35261	0.00130328	0.0506526	0	0	0	
0.23	-0.0386194	2.43495	0.00134283	0.0601592	0	0	0	
0.230167	0.0138426	-2.44178	0.00115816	0.0687646	0	0	0	
0.230333	-0.00151039	1.94432	0.000694657	0.0618443	0	0	0	
0.2305	-0.00361378	-1.724	0.000573421	0.0534681	0	0	0	
0.230667	0.00328143	1.52357	0.000525031	0.0490927	0	0	0	
0.230833	-0.0275015	-0.991375	0.000632396	0.0472464	0	0	0	
0.231	0.0376529	2.0682	0.00086276	0.0449341	0	0	0	
0.231167	-0.0302101	-2.14137	0.000861858	0.0453634	0	0	0	
0.231333	0.0138271	1.95214	0.000664457	0.0452654	0	0	0	
0.2315	-0.00768127	-1.9216	0.000425067	0.0463599	0	0	0	
0.231667	0.00846539	1.62628	0.000248568	0.0431183	0	0	0	
0.231833	-0.0098467	-1.4851	0.000220392	0.0379259	0	0	0	
0.232	0.0138736	2.37372	0.000300357	0.0388811	0	0	0	
0.232167	-0.0110636	-2.27553	0.000427707	0.0426737	0	0	0	
0.232333	0.00710755	1.9067	0.0004516	0.0482865	0	0	0	
0.2325	-0.00492286	-1.93929	0.000366958	0.0473178	0	0	0	
0.232667	0.00360228	1.89866	0.000245388	0.0437408	0	0	0	
0.232833	-0.00659734	-1.80108	0.00023513	0.0423319	0	0	0	
0.233	0.0129249	1.7683	0.000349205	0.0421307	0	0	0	
0.233167	-0.0139587	-2.36318	0.000483673	0.0435344	0	0	0	
0.233333	0.0114163	2.22135	0.000506111	0.0471664	0	0	0	
0.2335	-0.00835921	-2.10854	0.000405212	0.048616	0	0	0	
0.233667	0.00575631	1.98467	0.000267229	0.0476692	0	0	0	
0.233833	-0.00349235	-1.64953	0.000179656	0.0429949	0	0	0	
0.234	0.000488507	1.51445	0.00018109	0.0385345	0	0	0	
0.234167	-0.0053412	-1.60492	0.000296706	0.0342759	0	0	0	
0.234333	0.013327	2.10426	0.000474766	0.0363906	0	0	0	
0.2345	-0.0119148	-2.06879	0.000565052	0.0413	0	0	0	
0.234667	0.00600743	2.06087	0.000473791	0.0460357	0	0	0	
0.234833	-0.00409504	-2.06269	0.000301945	0.045288	0	0	0	
0.235	0.00490965	2.03221	0.000238305	0.0448011	0	0	0	
0.235167	-0.00712825	-1.32019	0.000308584	0.0408809	0	0	0	
0.235333	0.00663793	2.43917	0.000415471	0.0412842	0	0	0	
0.2355	-0.00351695	-2.24926	0.000439302	0.0426545	0	0	0	
0.235667	0.0023405	2.09077	0.000366669	0.0468111	0	0	0	
0.235833	-0.00211874	-1.99024	0.000275596	0.0460774	0	0	0	
0.236	0.00728207	1.64856	0.000263518	0.0424374	0	0	0	
0.236167	-0.0127718	-1.35305	0.000326786	0.0365098	0	0	0	
0.236333	0.0117216	2.33758	0.000381849	0.0359778	0	0	0	
0.2365	-0.00685148	-2.54141	0.000368927	0.0404317	0	0	0	
0.236667	0.00105918	2.17829	0.000313224	0.0476856	0	0	0	
0.236833	0.000638779	-2.11978	0.000246368	0.0488068	0	0	0	
0.237	0.00287123	2.02817	0.000218605	0.0451308	0	0	0	
0.237167	-0.0135065	-2.00115	0.000280598	0.0425431	0	0	0	
0.237333	0.0184257	1.97967	0.000413488	0.0427643	0	0	0	
0.2375	-0.0124326	-2.54601	0.000497992	0.0442456	0	0	0	
0.237667	0.0067356	2.51009	0.000456873	0.0485084	0	0	0	
0.237833	-0.00435166	-2.31222	0.000315523	0.0496726	0	0	0	
0.238	-0.000102341	2.1958	0.00017548	0.0490791	0	0	0	
0.238167	-0.00509377	-1.91579	0.000164378	0.0445605	0	0	0	
0.238333	0.0202761	1.20223	0.000310626	0.0383934	0	0	0	
0.2385	-0.0289603	-1.72761	0.000475971	0.0296087	0	0	0	
0.238667	0.0154169	2.19219	0.000513419	0.0305648	0	0	0	
0.238833	-0.00207074	-2.20864	0.00039362	0.0366018	0	0	0	
0.239	-0.00224047	2.25577	0.000230642	0.0457237	0	0	0	
0.239167	-0.00423657	-2.21777	0.000191241	0.0458291	0	0	0	
0.239333	0.0163112	2.25733	0.000297576	0.0451538	0	0	0	
0.2395	-0.0286246	-1.71763	0.000522557	0.0405972	0	0	0	
0.239667	0.0284391	2.53298	0.000650009	0.0416095	0	0	0	
0.239833	-0.0138479	-2.4557	0.000600335	0.0433691	0	0	0	
0.24	0.00147291	2.24844	0.000384113	0.0481339	0	0	0	
0.240167	-0.0011003	-2.15279	0.000191104	0.0467892	0	0	0	
0.240333	-0.00223134	1.86877	0.000106752	0.0431783	0	0	0	
0.2405	0.00252964	-1.13672	0.000185935	0.0358413	0	0	0	
0.240667	0.0115199	2.3308	0.000376749	0.0335927	0	0	0	
0.240833	-0.019225	-2.64703	0.000574665	0.0374908	0	0	0	
0.241	0.0134889	2.30103	0.000606991	0.0458936	0	0	0	
0.241167	-0.00390172	-2.24048	0.000443093	0.0484909	0	0	0	
0.241333	0.00467495	2.11002	0.000257896	0.0451656	0	0	0	
0.2415	-0.0220887	-2.12355	0.000274267	0.0422245	0	0	0	
0.241667	0.0263724	2.18351	0.000409152	0.0432087	0	0	0	
0.241833	-0.0104403	-2.69313	0.000462536	0.0447476	0	0	0	
0.242	-0.00690263	2.73668	0.000337164	0.0493791	0	0	0	
0.242167	0.00240577	-2.38538	0.000188182	0.0498194	0	0	0	
0.242333	0.000293843	2.16729	0.000127934	0.0487709	0	0	0	
0.2425	0.0081925	-2.08601	0.00014209	0.0442736	0	0	0	
0.242667	-0.0120937	1.90078	0.000269804	0.0403149	0	0	0	
0.242833	-0.00979373	-2.60294	0.00053282	0.0382633	0	0	0	
0.243	0.0273487	2.73726	0.000785064	0.0423194	0	0	0	
0.243167	-0.0188404	-2.43421	0.000781598	0.046988	0	0	0	
0.243333	0.00377371	2.31756	0.000531633	0.0495907	0	0	0	
0.2435	-0.00757414	-2.13406	0.000287142	0.0457393	0	0	0	
0.243667	0.0267884	2.27702	0.000254901	0.042212	0	0	0	
0.243833	-0.0209616	-1.4378	0.000353301	0.0425348	0	0	0	
0.244	0.00365849	2.03678	0.000368472	0.0404289	0	0	0	
0.244167	0.00779027	-2.6762	0.000295829	0.043305	0	0	0	
0.244333	-0.00049773	2.44494	0.000211821	0.0441273	0	0	0	
0.2445	-0.00206614	-2.28873	0.000197716	0.0470967	0	0	0	
0.244667	0.00574281	2.16905	0.000252138	0.0449469	0	0	0	
0.244833	-0.0052771	-1.22975	0.000413632	0.0397637	0	0	0	
0.245	0.020065	2.12393	0.000628929	0.0347077	0	0	0	
0.245167	-0.0216669	-2.67327	0.000722266	0.0376406	0	0	0	
0.245333	0.0156627	2.33358	0.000583831	0.04289	0	0	0	
0.2455	-0.00461554	-2.29675	0.000373054	0.0476691	0	0	0	
0.245667	0.00285812	2.1819	0.000212988	0.0446719	0	0	0	
0.245833	-0.0108455	-2.19629	0.000239557	0.0417992	0	0	0	
0.246	0.0207371	2.39805	0.000327076	0.0435265	0	0	0	
0.246167	-0.0180307	-2.72742	0.000419057	0.0450725	0	0	0	
0.246333	0.0091133	2.83659	0.00039139	0.0496381	0	0	0	
0.2465	-0.00797787	-2.44207	0.000311545	0.0496027	0	0	0	
0.246667	0.00577114	2.22357	0.000231512	0.0485855	0	0	0	
0.246833	-0.00280581	-2.1239	0.000186088	0.0441709	0	0	0	
0.247	0.0112546	1.80107	0.00025048	0.039936	0	0	0	
0.247167	-0.02241	-2.13751	0.000408499	0.0336363	0	0	0	
0.247333	0.0177121	2.69409	0.000541736	0.0364585	0	0	0	
0.2475	-0.0123088	-2.53294	0.000496083	0.0413359	0	0	0	
0.247667	0.00939134	2.40215	0.000357137	0.0483131	0	0	0	
0.247833	-0.00925434	-2.14245	0.000240238	0.0459265	0	0	0	
0.248	0.013257	1.93301	0.000223271	0.0414821	0	0	0	
0.248167	-0.0103618	-1.42754	0.000235319	0.0385878	0	0	0	
0.248333	0.013991	2.02165	0.000297098	0.0359073	0	0	0	
0.2485	-0.0233433	-2.7315	0.000363888	0.0391187	0	0	0	
0.248667	0.0141004	2.47854	0.000392677	0.0430018	0	0	0	
0.248833	-0.00337911	-2.32688	0.000307562	0.046462	0	0	0	
0.249	0.00170465	2.20696	0.000182124	0.044858	0	0	0	
0.249167	-0.0056611	-1.20844	0.000127059	0.0395987	0	0	0	
0.249333	0.00919663	1.81706	0.000186574	0.0345314	0	0	0	
0.2495	-0.0128582	-2.64515	0.000299402	0.036885	0	0	0	
0.249667	0.00641292	2.40585	0.000372578	0.04237	0	0	0	
0.249833	-0.0153554	-2.33388	0.000382665	0.0471702	0	0	0	
0.25	0.02449	2.16262	0.000377118	0.0447154	0	0	0	
0.250167	-0.029775	-2.08617	0.000422049	0.0411219	0	0	0	
0.250333	0.0114992	2.56381	0.000459258	0.0425644	0	0	0	
0.2505	-0.00429786	-2.75807	0.000403105	0.0446014	0	0	0	
0.250667	0.0067769	2.89721	0.000352792	0.0496678	0	0	0	
0.250833	-0.0161864	-2.45997	0.000341994	0.0501053	0	0	0	
0.251	0.0156379	2.19997	0.000383386	0.048603	0	0	0	
0.251167	-0.00843796	-2.08851	0.000327572	0.0440589	0	0	0	
0.251333	0.00391773	1.82208	0.00027296	0.0399379	0	0	0	
0.2515	-0.0129916	-1.72053	0.000329049	0.0328577	0	0	0	
0.251667	0.0182428	2.62693	0.000455334	0.0345784	0	0	0	
0.251833	-0.0119546	-2.56203	0.000526875	0.0389892	0	0	0	
0.252	0.0133396	2.32085	0.000471395	0.0465444	0	0	0	
0.252167	-0.0178559	-2.15013	0.000369259	0.045291	0	0	0	
0.252333	0.0290432	2.30464	0.000353507	0.0420775	0	0	0	
0.2525	-0.0136315	-1.97096	0.000417067	0.0412003	0	0	0	
0.252667	-0.00310811	2.18079	0.000395955	0.0409212	0	0	0	
0.252833	0.00586601	-2.76258	0.000334286	0.0431599	0	0	0	
0.253	0.00537921	2.39237	0.000319751	0.0451056	0	0	0	
0.253167	-0.0141767	-2.21359	0.000350672	0.0458149	0	0	0	
0.253333	0.0199925	2.04713	0.000375182	0.0435558	0	0	0	
0.2535	-0.0194259	-1.03178	0.000394975	0.0381802	0	0	0	
0.253667	0.0286293	1.35091	0.000508207	0.0300566	0	0	0	
0.253833	-0.030322	-2.62603	0.00061155	0.0312294	0	0	0	
0.254	0.0164452	2.4743	0.000577873	0.0373536	0	0	0	
0.254167	-0.0101985	-2.28762	0.000433852	0.0457746	0	0	0	
0.254333	0.0120229	2.09122	0.000290433	0.0448932	0	0	0	
0.2545	-0.0116907	-2.02634	0.000210142	0.0407852	0	0	0	
0.254667	0.00688765	2.75386	0.000210481	0.0419472	0	0	0	
0.254833	-0.00298444	-2.82586	0.000210564	0.0452611	0	0	0	
0.255	0.00861448	2.90498	0.000292116	0.0507208	0	0	0	
0.255167	-0.0114953	-2.39394	0.000337626	0.0514953	0	0	0	
0.255333	0.0115728	2.13375	0.000350324	0.0487434	0	0	0	
0.2555	-0.0151403	-2.0471	0.000291087	0.0438825	0	0	0	
0.255667	0.0232577	1.88287	0.000301074	0.0401664	0	0	0	
0.255833	-0.0165114	-1.2914	0.000361758	0.0338778	0	0	0	
0.256	0.0128631	2.58308	0.000379036	0.0344178	0	0	0	
0.256167	-0.011767	-2.60089	0.000353968	0.0385377	0	0	0	
0.256333	0.0105315	2.30349	0.000300261	0.0456452	0	0	0	
0.2565	-0.00870426	-2.12263	0.00026563	0.0458401	0	0	0	
0.256667	0.0108057	2.25968	0.000254189	0.0423997	0	0	0	
0.256833	-0.0114667	-2.40768	0.000300782	0.042863	0	0	0	
0.257	0.0145829	2.44449	0.000365108	0.0447784	0	0	0	
0.257167	-0.0135168	-2.76748	0.000418091	0.047841	0	0	0	
0.257333	0.00969509	2.34257	0.000410296	0.0484963	0	0	0	
0.2575	-0.0077812	-2.0986	0.000335891	0.0467258	0	0	0	
0.257667	-0.00181503	1.96531	0.00021009	0.0434073	0	0	0	
0.257833	-0.000943224	-1.35095	0.000138585	0.0394341	0	0	0	
0.258	0.0119629	1.10714	0.000206927	0.0314172	0	0	0	
0.258167	-0.0160526	-2.58552	0.000324081	0.0313738	0	0	0	
0.258333	0.00797148	2.54686	0.000372867	0.0363499	0	0	0	
0.2585	-0.00668666	-2.24457	0.000292636	0.0452495	0	0	0	
0.258667	0.000884317	2.06307	0.000172004	0.0460451	0	0	0	
0.258833	0.00344543	-1.95458	9.60186E-05	0.0416987	0	0	0	
0.259	-1.09792E-05	2.68333	0.000183966	0.0418353	0	0	0	
0.259167	-0.0124978	-2.78109	0.000354532	0.0455121	0	0	0	
0.259333	0.0142268	2.88055	0.000493386	0.0508367	0	0	0	
0.2595	-0.0108531	-2.35499	0.000461207	0.0525906	0	0	0	
0.259667	0.010222	2.07972	0.000331359	0.0494929	0	0	0	
0.259833	-0.00164573	-1.96518	0.000200008	0.0446653	0	0	0	
0.26	0.000162912	1.88859	0.000131241	0.0409247	0	0	0	
0.260167	-0.00664521	-1.00307	0.000101592	0.0358518	0	0	0	
0.260333	0.0135101	2.4185	0.000166526	0.0346842	0	0	0	
0.2605	-0.0121128	-2.62662	0.000236186	0.03833	0	0	0	
0.260667	0.00932093	2.32994	0.000266807	0.0445585	0	0	0	
0.260833	-0.00619995	-1.96054	0.000212298	0.0467718	0	0	0	
0.261	0.013364	1.50471	0.000162771	0.0421983	0	0	0	
0.261167	-0.0187807	-1.00048	0.000212082	0.0341055	0	0	0	
0.261333	0.00684371	1.97496	0.000263284	0.0324268	0	0	0	
0.2615	-0.000900966	-2.57065	0.000260566	0.0348287	0	0	0	
0.261667	0.00671609	2.34384	0.00022814	0.0433753	0	0	0	
0.261833	-0.0134148	-2.16414	0.000229591	0.0453354	0	0	0	
0.262	0.0215159	1.96498	0.000291983	0.0448443	0	0	0	
0.262167	-0.0432802	-1.08324	0.000417841	0.0406562	0	0	0	
0.262333	0.0464529	1.1878	0.000571405	0.0372658	0	0	0	
0.2625	-0.0387051	-2.13534	0.000922359	0.0363721	0	0	0	
0.262667	0.019889	2.33474	0.00132663	0.0405578	0	0	0	
0.262833	0.0033354	-2.15712	0.0014325	0.0438445	0	0	0	
0.263	0.00812179	1.97061	0.00102144	0.0447289	0	0	0	
0.263167	-0.0303298	-1.77243	0.000518643	0.0415907	0	0	0	
0.263333	0.0426718	2.3645	0.000379581	0.040882	0	0	0	
0.2635	-0.0732549	-2.61296	0.000707443	0.0443181	0	0	0	
0.263667	0.0875786	2.75751	0.00116191	0.0494544	0	0	0	
0.263833	-0.0545344	-2.29601	0.00140892	0.0530062	0	0	0	
0.264	0.0316463	1.99147	0.00128468	0.050479	0	0	0	
0.264167	-0.0359962	-1.8581	0.000921138	0.0460151	0	0	0	
0.264333	0.0602551	1.93908	0.000787864	0.0421862	0	0	0	
0.2645	-0.0514692	-0.942008	0.000892134	0.0385013	0	0	0	
0.264667	0.0254341	2.22696	0.000932613	0.0358165	0	0	0	
0.264833	-0.00448095	-2.54877	0.000679602	0.0387745	0	0	0	
0.265	-0.000508037	2.18077	0.000348311	0.0431518	0	0	0	
0.265167	-0.00539554	-1.9401	0.000160199	0.0465483	0	0	0	
0.265333	0.0183324	1.86607	0.000193667	0.043364	0	0	0	
0.2655	-0.0184815	-1.8741	0.000305078	0.0412819	0	0	0	
0.265667	0.017575	2.29277	0.00035545	0.0424503	0	0	0	
0.265833	-0.00831787	-2.45802	0.000335126	0.0452165	0	0	0	
0.266	0.0051727	2.13263	0.000251379	0.0480687	0	0	0	
0.266167	-0.0102049	-1.8862	0.000201583	0.0467203	0	0	0	
0.266333	0.0105874	1.7924	0.000166283	0.0439576	0	0	0	
0.2665	-0.00498554	-1.69499	0.000176316	0.0410607	0	0	0	
0.266667	0.00891075	1.05892	0.0002011	0.0360847	0	0	0	
0.266833	-0.0322978	-2.10522	0.000346959	0.0340775	0	0	0	
0.267	0.0419034	2.39111	0.000536869	0.0375428	0	0	0	
0.267167	-0.0194084	-2.00588	0.00063062	0.0435904	0	0	0	
0.267333	0.00720378	1.79859	0.000522954	0.0462822	0	0	0	
0.2675	-0.00817483	-1.69479	0.000316401	0.042191	0	0	0	
0.267667	0.01015	2.14152	0.000245636	0.040495	0	0	0	
0.267833	0.000187951	-2.56144	0.000246247	0.0446952	0	0	0	
0.268	0.001715	2.53034	0.000238517	0.0500501	0	0	0	
0.268167	-0.00347746	-2.0505	0.00029053	0.0535263	0	0	0	
0.268333	0.0125956	1.77286	0.000289354	0.0496848	0	0	0	
0.2685	-0.0100098	-1.68017	0.000321232	0.0445519	0	0	0	
0.268667	0.0211443	1.95619	0.000264215	0.0412351	0	0	0	
0.268833	-0.030198	-1.14199	0.000338553	0.0401693	0	0	0	
0.269	0.0276978	2.02772	0.000448176	0.0370667	0	0	0	
0.269167	-0.0160242	-2.43447	0.000490574	0.0397693	0	0	0	
0.269333	0.0051792	1.98277	0.000400031	0.0423355	0	0	0	
0.2695	-0.000399828	-1.70025	0.00024748	0.0464975	0	0	0	
0.269667	0.00177225	1.63027	0.000123695	0.0431913	0	0	0	
0.269833	-0.0156291	-1.56081	0.000122947	0.0398467	0	0	0	
0.27	0.0298845	2.13643	0.000261898	0.0402421	0	0	0	
0.270167	-0.0308456	-2.2382	0.000438607	0.0433919	0	0	0	
0.270333	0.0140202	1.97452	0.000498898	0.0474137	0	0	0	
0.2705	-0.00670462	-1.69846	0.000406832	0.0469339	0	0	0	
0.270667	0.00837169	1.61232	0.000267613	0.0440488	0	0	0	
0.270833	-0.0193439	-1.73622	0.000221413	0.0410119	0	0	0	
0.271	0.0203524	1.17098	0.000275304	0.0376474	0	0	0	
0.271167	-0.0187106	-1.84068	0.000359028	0.0352622	0	0	0	
0.271333	0.0108218	2.27845	0.000356732	0.0386872	0	0	0	
0.2715	-0.00530408	-1.83698	0.000278333	0.0436104	0	0	0	
0.271667	0.00875217	1.60778	0.000208335	0.046814	0	0	0	
0.271833	-0.0219351	-1.53922	0.00023106	0.0428025	0	0	0	
0.272	0.0287008	1.75277	0.000347164	0.0400349	0	0	0	
0.272167	-0.0250965	-2.36522	0.000465439	0.043729	0	0	0	
0.272333	0.0198273	2.304	0.000487751	0.0493128	0	0	0	
0.2725	-0.0102992	-1.88723	0.000420111	0.0537998	0	0	0	
0.272667	0.00568852	1.58197	0.000289152	0.0504574	0	0	0	
0.272833	-0.0109689	-1.51922	0.000210261	0.0451287	0	0	0	
0.273	0.0206978	1.90937	0.000201878	0.0415067	0	0	0	
0.273167	-0.0134916	-1.56876	0.000264777	0.0417766	0	0	0	
0.273333	0.0151322	1.82623	0.000302466	0.0392842	0	0	0	
0.2735	-0.0193671	-2.21641	0.000321437	0.0417996	0	0	0	
0.273667	0.00999494	1.78751	0.000301098	0.0432264	0	0	0	
0.273833	-0.00613925	-1.5188	0.000257119	0.0469196	0	0	0	
0.274	0.0244029	1.44384	0.000250179	0.0439848	0	0	0	
0.274167	-0.0341254	-1.11332	0.000367439	0.039579	0	0	0	
0.274333	0.0289622	1.6266	0.000503174	0.0384258	0	0	0	
0.2745	-0.0189622	-1.86885	0.000559682	0.0412215	0	0	0	
0.274667	0.00896361	1.79456	0.000460168	0.045963	0	0	0	
0.274833	-0.00842626	-1.54599	0.000325326	0.0469651	0	0	0	
0.275	0.00424901	1.48635	0.000204484	0.044435	0	0	0	
0.275167	-0.0012384	-1.70715	0.000124098	0.0418337	0	0	0	
0.275333	0.0159761	1.3981	0.000153378	0.0403465	0	0	0	
0.2755	-0.0282814	-1.65715	0.000271299	0.0402726	0	0	0	
0.275667	0.0227978	2.03661	0.000403079	0.0438216	0	0	0	
0.275833	-0.0102456	-1.61605	0.000428328	0.0471648	0	0	0	
0.276	0.0052117	1.4145	0.000326771	0.0479292	0	0	0	
0.276167	-0.0132385	-1.33354	0.00021987	0.0436296	0	0	0	
0.276333	0.0250441	1.27068	0.000238857	0.0398771	0	0	0	
0.2765	-0.0203285	-1.75964	0.000345262	0.0410352	0	0	0	
0.276667	0.0127694	1.89153	0.000403629	0.0434042	0	0	0	
0.276833	-0.00683967	-1.75681	0.000349849	0.047791	0	0	0	
0.277	0.00246421	1.45391	0.000219589	0.0471428	0	0	0	
0.277167	-0.00340968	-1.38038	0.000124347	0.0452865	0	0	0	
0.277333	0.018796	1.71742	0.000115079	0.0427954	0	0	0	
0.2775	-0.0305844	-1.58324	0.000243604	0.0431471	0	0	0	
0.277667	0.0287426	1.29302	0.000413855	0.0404194	0	0	0	
0.277833	-0.0177136	-1.79769	0.000554321	0.042186	0	0	0	
0.278	0.002408	1.53312	0.000536602	0.0430772	0	0	0	
0.278167	-0.00314241	-1.30266	0.000393815	0.0463924	0	0	0	
0.278333	0.0163672	1.29001	0.000253246	0.0436647	0	0	0	
0.2785	-0.0258995	-0.995645	0.000238363	0.039311	0	0	0	
0.278667	0.0298266	1.33106	0.000383834	0.0377196	0	0	0	
0.278833	-0.0191514	-1.62072	0.000500668	0.0407051	0	0	0	
0.279	0.00637655	1.5464	0.000481174	0.0461349	0	0	0	
0.279167	-0.000965346	-1.18462	0.000346932	0.0476208	0	0	0	
0.279333	-0.000405673	1.45453	0.000178719	0.0437723	0	0	0	
0.2795	-0.00918713	-2.53899	0.000201644	0.0414757	0	0	0	
0.279667	-0.0840145	2.08017	0.000532345	0.046072	0	0	0	
0.279833	-0.066417	-2.34596	0.00130939	0.0600243	0	0	0	
0.28	0.0389513	1.47887	0.00144283	0.0723652	0	0	0	
0.280167	-0.020621	-0.945019	0.00129188	0.0736988	0	0	0	
0.280333	0.010597	1.22288	0.000639647	0.0634362	0	0	0	
0.2805	-0.00934618	-1.57253	0.000511725	0.0530928	0	0	0	
0.280667	0.0367669	1.82674	0.000402925	0.0529161	0	0	0	
0.280833	-0.0276764	-1.64687	0.000496952	0.0573099	0	0	0	
0.281	-0.00407969	1.62743	0.00065891	0.0600386	0	0	0	
0.281167	0.0122894	-1.81194	0.000668308	0.0591652	0	0	0	
0.281333	0.0133335	1.91353	0.000606426	0.0582607	0	0	0	
0.2815	-0.0324359	-1.85465	0.00051249	0.0590019	0	0	0	
0.281667	0.0203533	1.75499	0.000541634	0.0604215	0	0	0	
0.281833	-0.0053553	-1.70474	0.000468696	0.0610803	0	0	0	
0.282	0.0116387	1.73945	0.000343534	0.0607176	0	0	0	
0.282167	-0.0209818	-1.79716	0.000289091	0.0603293	0	0	0	
0.282333	0.0165372	1.75935	0.000321181	0.0604671	0	0	0	
0.2825	-0.0159706	-1.69596	0.000351644	0.0610111	0	0	0	
0.282667	0.0297663	1.66186	0.000389907	0.0612731	0	0	0	
0.282833	-0.0341662	-1.65488	0.000460799	0.0611038	0	0	0	
0.283	0.0194506	1.67502	0.000562414	0.06079	0	0	0	
0.283167	-0.00545624	-1.67316	0.000589334	0.0607321	0	0	0	
0.283333	0.00503747	1.63745	0.000446577	0.0609525	0	0	0	
0.2835	-0.0196375	-1.59841	0.000337198	0.0611622	0	0	0	
0.283667	0.0253272	1.59	0.000302357	0.0611071	0	0	0	
0.283833	-0.0210987	-1.58317	0.000398325	0.0608994	0	0	0	
0.284	0.0235651	1.57152	0.000437144	0.060792	0	0	0	
0.284167	-0.0264328	-1.54578	0.000450411	0.0608191	0	0	0	
0.284333	0.0203123	1.53237	0.000458657	0.0608659	0	0	0	
0.2845	-0.0173865	-1.50769	0.000462005	0.060895	0	0	0	
0.284667	0.0141118	1.48299	0.000441887	0.0608622	0	0	0	
0.284833	-0.00999446	-1.46206	0.000426348	0.0607223	0	0	0	
0.285	0.00676113	1.46634	0.000471932	0.0605703	0	0	0	
0.285167	-0.000150536	-1.45611	0.000517015	0.0605356	0	0	0	
0.285333	-0.0037184	1.46039	0.00050001	0.06066	0	0	0	
0.2855	0.00322831	-1.45102	0.000339671	0.0608471	0	0	0	
0.285667	0.0118471	1.41808	0.000231654	0.0610074	0	0	0	
0.285833	-0.0271359	-1.39244	0.000226331	0.0611294	0	0	0	
0.286	0.0303167	1.37934	0.000395201	0.0611934	0	0	0	
0.286167	-0.026392	-1.3603	0.000537225	0.0612082	0	0	0	
0.286333	0.0292679	1.34852	0.000615124	0.0611029	0	0	0	
0.2865	-0.0204179	-1.33738	0.000618907	0.060889	0	0	0	
0.286667	0.00683917	1.32187	0.000619836	0.0607338	0	0	0	
0.286833	-0.00176275	-1.30143	0.000563087	0.0607529	0	0	0	
0.287	0.0108916	1.28815	0.000440686	0.0607946	0	0	0	
0.287167	-0.0146627	-1.28301	0.000349218	0.0607647	0	0	0	
0.287333	0.00841002	1.26314	0.000334461	0.0607208	0	0	0	
0.2875	-0.00612742	-1.24364	0.000320653	0.0607575	0	0	0	
0.287667	0.0187441	1.23854	0.000285573	0.0608022	0	0	0	
0.287833	-0.0264356	-1.22613	0.000312924	0.0608706	0	0	0	
0.288	0.0295014	1.20226	0.000440449	0.0609978	0	0	0	
0.288167	-0.0269838	-1.17731	0.000552058	0.0611139	0	0	0	
0.288333	0.0202682	1.15518	0.000586137	0.0611071	0	0	0	
0.2885	-0.0142431	-1.13245	0.000538772	0.0610122	0	0	0	
0.288667	0.0154936	1.11576	0.000473382	0.0608582	0	0	0	
0.288833	-0.0121648	-1.11773	0.000397699	0.0607063	0	0	0	
0.289	0.0110238	1.11614	0.000350629	0.0605963	0	0	0	
0.289167	-0.00979664	-1.11414	0.000301775	0.0606643	0	0	0	
0.289333	0.011617	1.08358	0.000269634	0.0608487	0	0	0	
0.2895	-0.0201411	-1.0624	0.00026725	0.0611016	0	0	0	
0.289667	0.021681	1.03496	0.000322564	0.0611973	0	0	0	
0.289833	-0.013681	-1.02591	0.000383526	0.0611634	0	0	0	
0.29	0.0120327	0.999101	0.000410061	0.0609962	0	0	0	
0.290167	-0.016401	-0.992607	0.000372736	0.060901	0	0	0	
0.290333	0.0211937	0.972941	0.000352382	0.0608405	0	0	0	
0.2905	-0.0231005	-0.96475	0.000390974	0.0608793	0	0	0	
0.290667	0.0184956	0.934406	0.000466376	0.0608734	0	0	0	
0.290833	-0.0142812	-0.92243	0.000495517	0.0608441	0	0	0	
0.291	0.0110108	0.90137	0.000470634	0.0607313	0	0	0	
0.291167	-0.00553073	-0.902008	0.000431586	0.060705	0	0	0	
0.291333	0.00473361	0.894001	0.000386092	0.0607609	0	0	0	
0.2915	-0.0130449	-0.87602	0.00032304	0.0608977	0	0	0	
0.291667	0.022118	0.844473	0.000307383	0.0609993	0	0	0	
0.291833	-0.0168165	-0.833048	0.000349104	0.0610594	0	0	0	
0.292	0.0118268	0.809622	0.000394555	0.0610342	0	0	0	
0.292167	-0.0229357	-0.79462	0.000382748	0.0610013	0	0	0	
0.292333	0.0264265	0.781201	0.000397918	0.0609505	0	0	0	
0.2925	-0.0140769	-0.765985	0.00046692	0.0608756	0	0	0	
0.292667	0.0076277	0.74813	0.0004823	0.0607638	0	0	0	
0.292833	-0.0167101	-0.741357	0.00041296	0.0607184	0	0	0	
0.293	0.0176652	0.71775	0.000344762	0.0607505	0	0	0	
0.293167	-0.00557637	-0.708079	0.000355259	0.0608131	0	0	0	
0.293333	-0.00295101	0.692454	0.000382555	0.0608342	0	0	0	
0.2935	-0.0101499	-0.670212	0.00031016	0.0609087	0	0	0	
0.293667	0.0201021	0.636782	0.0002693	0.0609744	0	0	0	
0.293833	-0.0149266	-0.638072	0.000292384	0.0609469	0	0	0	
0.294	0.00681709	0.623668	0.000392323	0.060818	0	0	0	
0.294167	-0.0135812	-0.602523	0.000380853	0.060761	0	0	0	
0.294333	0.0215925	0.580769	0.00037736	0.0607241	0	0	0	
0.2945	-0.00656866	-0.589485	0.000437843	0.0607042	0	0	0	
0.294667	-0.00337106	0.567172	0.000486277	0.0607666	0	0	0	
0.294833	-0.0138144	-0.536353	0.000392812	0.0609795	0	0	0	
0.295	0.0332097	0.512672	0.000336595	0.0611195	0	0	0	
0.295167	-0.0197102	-0.499501	0.000419493	0.0610492	0	0	0	
0.295333	0.0159397	0.475226	0.000567224	0.060849	0	0	0	
0.2955	-0.0165928	-0.473958	0.000574197	0.0607291	0	0	0	
0.295667	0.0111692	0.458183	0.000540129	0.0607032	0	0	0	
0.295833	-0.00649127	-0.44445	0.000509443	0.0607571	0	0	0	
0.296	0.0165887	0.428495	0.000459987	0.0608054	0	0	0	
0.296167	-0.0158217	-0.409187	0.000394286	0.0608369	0	0	0	
0.296333	0.0121343	0.375275	0.000363032	0.0608575	0	0	0	
0.2965	-0.0129041	-0.368588	0.000384389	0.060852	0	0	0	
0.296667	0.0173608	0.363488	0.000389459	0.0607557	0	0	0	
0.296833	-0.0208255	-0.360989	0.000389278	0.0606954	0	0	0	
0.297	0.0321869	0.339386	0.000437191	0.0608214	0	0	0	
0.297167	-0.0309431	-0.307175	0.000531086	0.0611028	0	0	0	
0.297333	0.0240835	0.27588	0.000613096	0.0612916	0	0	0	
0.2975	-0.0266841	-0.264889	0.000623205	0.061259	0	0	0	
0.297667	0.0317886	0.242654	0.00062126	0.0610702	0	0	0	
0.297833	-0.0201104	-0.237069	0.000611505	0.0608738	0	0	0	
0.298	0.00631671	0.226421	0.000609337	0.0607264	0	0	0	
0.298167	-0.00122977	-0.220586	0.000462438	0.0606723	0	0	0	
0.298333	0.00946655	0.195744	0.000299018	0.060704	0	0	0	
0.2985	-0.011704	-0.191269	0.000169825	0.0607848	0	0	0	
0.298667	0.0153314	0.163971	0.000199224	0.0608578	0	0	0	
0.298833	-0.0163446	-0.143411	0.000259986	0.0609377	0	0	0	
0.299	0.00517299	0.124913	0.000340119	0.0609897	0	0	0	
0.299167	0.00200865	-0.123993	0.00038658	0.0610336	0	0	0	
0.299333	0.0194853	0.0849888	0.000359415	0.0611242	0	0	0	
0.2995	-0.0448738	-0.0568498	0.000425656	0.0612223	0	0	0	
0.299667	0.0228857	0.0542015	0.000599528	0.0610842	0	0	0	
0.299833	0.0323471	-0.0647254	0.000864493	0.0606937	0	0	0	
0.3	-0.0476428	0.0585926	0.000915291	0.0603735	0	0	0	
0.300167	0.0318802	-0.0362897	0.000879705	0.0602936	0	0	0	
0.300333	-0.0234599	-0.00356718	0.000828404	0.060344	0	0	0	
0.3005	0.00462301	0.0363114	0.000818697	0.0604375	0	0	0	
0.300667	0.0115859	-0.0668769	0.00070961	0.0605502	0	0	0	
0.300833	0.00742363	0.0739148	0.000775391	0.0605783	0	0	0	
0.301	-0.0323054	-0.0908038	0.00106073	0.0604458	0	0	0	
0.301167	0.0264467	0.106886	0.00132334	0.0602139	0	0	0	
0.301333	0.012467	-0.126717	0.00121178	0.0600756	0	0	0	
0.3015	-0.0411031	0.135279	0.00098293	0.0602386	0	0	0	
0.301667	0.0415601	-0.163968	0.000949795	0.0606619	0	0	0	
0.301833	-0.0218638	0.159492	0.00110478	0.0609905	0	0	0	
0.302	0.00096083	-0.177985	0.00114625	0.0610132	0	0	0	
0.302167	0.00428467	0.203924	0.000987115	0.0609193	0	0	0	
0.302333	0.00760276	-0.226111	0.000750694	0.0608669	0	0	0	
0.3025	-0.0159521	0.230532	0.000576553	0.0608162	0	0	0	
0.302667	0.0167889	-0.253878	0.000542591	0.0607382	0	0	0	
0.302833	-0.0113492	0.263271	0.000617523	0.0606657	0	0	0	
0.303	0.000533305	-0.271876	0.000667151	0.0605957	0	0	0	
0.303167	0.000928981	0.284724	0.000595297	0.06057	0	0	0	
0.303333	0.0134251	-0.300619	0.000442072	0.0606565	0	0	0	
0.3035	-0.020848	0.319856	0.000353629	0.0608106	0	0	0	
0.303667	0.011622	-0.355944	0.000374083	0.0609341	0	0	0	
0.303833	-0.00434584	0.365354	0.000458579	0.0609797	0	0	0	
0.304	0.000478539	-0.37877	0.000458658	0.0609452	0	0	0	
0.304167	-0.00264983	0.390138	0.000395869	0.0608951	0	0	0	
0.304333	0.0130263	-0.412163	0.000326588	0.0608772	0	0	0	
0.3045	-0.0177016	0.4187	0.000326144	0.0608781	0	0	0	
0.304667	0.0113498	-0.442567	0.000413729	0.060851	0	0	0	
0.304833	0.00188538	0.453268	0.000515109	0.0608344	0	0	0	
0.305	0.0015038	-0.469099	0.000485002	0.060812	0	0	0	
0.305167	-0.016162	0.477493	0.000374444	0.0607836	0	0	0	
0.305333	0.0191513	-0.50532	0.000306555	0.0607701	0	0	0	
0.3055	-0.00802987	0.520371	0.000367248	0.0608095	0	0	0	
0.305667	0.00645893	-0.550863	0.000430265	0.060838	0	0	0	
0.305833	-0.0104251	0.564473	0.000383802	0.060884	0	0	0	
0.306	0.0150278	-0.590514	0.000348151	0.0609475	0	0	0	
0.306167	-0.00815946	0.603288	0.000373552	0.061002	0	0	0	
0.306333	0.00154391	-0.618187	0.000454313	0.0609391	0	0	0	
0.3065	-0.00252599	0.622014	0.00045911	0.0608069	0	0	0	
0.306667	0.00423992	-0.641707	0.000415698	0.0606805	0	0	0	
0.306833	-0.00257747	0.646664	0.000375346	0.0606874	0	0	0	
0.307	0.00660365	-0.668223	0.000378564	0.0608106	0	0	0	
0.307167	-0.00782079	0.678795	0.000396336	0.06096	0	0	0	
0.307333	0.00894594	-0.704369	0.000401764	0.0610309	0	0	0	
0.3075	-0.0162837	0.723188	0.000397381	0.0611168	0	0	0	
0.307667	0.014036	-0.752606	0.000430247	0.061122	0	0	0	
0.307833	-0.00274706	0.740316	0.000503153	0.0609852	0	0	0	
0.308	0.00557288	-0.760233	0.000506316	0.060773	0	0	0	
0.308167	-0.022037	0.785138	0.000447456	0.0607388	0	0	0	
0.308333	0.0238077	-0.808828	0.000398086	0.0608064	0	0	0	
0.3085	-0.0124796	0.797287	0.000498953	0.0608904	0	0	0	
0.308667	0.00783252	-0.822854	0.000592801	0.0608736	0	0	0	
0.308833	-0.00949564	0.840938	0.000564323	0.0608602	0	0	0	
0.309	0.00832639	-0.862208	0.000432345	0.0608193	0	0	0	
0.309167	-0.0124018	0.883643	0.000336562	0.0608289	0	0	0	
0.309333	0.0148206	-0.909891	0.000329821	0.0608333	0	0	0	
0.3095	-0.0143228	0.908734	0.000399864	0.0608362	0	0	0	
0.309667	0.0130935	-0.936977	0.000496691	0.0608097	0	0	0	
0.309833	-0.00785944	0.943767	0.000580575	0.0607884	0	0	0	
0.31	-0.00514306	-0.94835	0.000603288	0.0606882	0	0	0	
0.310167	0.00844543	0.973401	0.000533816	0.0606426	0	0	0	
0.310333	0.00431094	-1.00428	0.000363734	0.0606816	0	0	0	
0.3105	-0.0149297	0.999545	0.000232483	0.0607413	0	0	0	
0.310667	0.0177277	-1.01867	0.000211725	0.0607583	0	0	0	
0.310833	-0.0159512	1.02957	0.00035577	0.0608421	0	0	0	
0.311	0.0119734	-1.06183	0.000456439	0.0609174	0	0	0	
0.311167	-0.00755786	1.07604	0.000489798	0.0609674	0	0	0	
0.311333	0.00257976	-1.10498	0.000455982	0.0609216	0	0	0	
0.3115	0.00240711	1.10964	0.000431398	0.0609275	0	0	0	
0.311667	-0.00315124	-1.13672	0.000406271	0.0608619	0	0	0	
0.311833	-0.00497072	1.13071	0.000367308	0.060782	0	0	0	
0.312	0.00515939	-1.15324	0.000346742	0.0606614	0	0	0	
0.312167	0.00807547	1.16507	0.000399132	0.0607134	0	0	0	
0.312333	-0.0167257	-1.19498	0.000472852	0.060793	0	0	0	
0.3125	0.0076758	1.19535	0.000453911	0.0609101	0	0	0	
0.312667	0.0102257	-1.21603	0.000313713	0.0608725	0	0	0	
0.312833	-0.0114005	1.2159	0.000250992	0.0608375	0	0	0	
0.313	-0.00896797	-1.24196	0.000350477	0.0608092	0	0	0	
0.313167	0.0103182	1.26789	0.000451832	0.0609616	0	0	0	
0.313333	0.00891454	-1.29756	0.000407445	0.0611105	0	0	0	
0.3135	-0.00911712	1.29429	0.000358613	0.0611526	0	0	0	
0.313667	-0.00120138	-1.30677	0.00046663	0.0609641	0	0	0	
0.313833	0.00301198	1.32508	0.000551457	0.060786	0	0	0	
0.314	0.00754772	-1.33578	0.000485407	0.0606729	0	0	0	
0.314167	-0.00636823	1.33768	0.000412462	0.0606751	0	0	0	
0.314333	-0.00691404	-1.3732	0.000490321	0.0607692	0	0	0	
0.3145	0.00749097	1.39495	0.00054941	0.06092	0	0	0	
0.314667	0.00889001	-1.40765	0.000441688	0.0609102	0	0	0	
0.314833	-0.0173161	1.41701	0.000313796	0.0608052	0	0	0	
0.315	0.0143085	-1.4397	0.000335098	0.0607427	0	0	0	
0.315167	-0.000676336	1.44503	0.000463396	0.0607684	0	0	0	
0.315333	-0.00364812	-1.46766	0.000521564	0.0607557	0	0	0	
0.3155	0.00593784	1.4863	0.000469876	0.0607644	0	0	0	
0.315667	-0.00474849	-1.51007	0.000373623	0.0607753	0	0	0	
0.315833	3.23604E-05	1.50684	0.000286715	0.0607861	0	0	0	
0.316	0.00265509	-1.5285	0.000232157	0.060737	0	0	0	
0.316167	-0.00252468	1.53846	0.000225124	0.0607656	0	0	0	
0.316333	0.00250841	-1.56183	0.000272805	0.0607709	0	0	0	
0.3165	0.00317494	1.57778	0.000326502	0.0608342	0	0	0	
0.316667	-0.00170529	-1.60539	0.000372272	0.0608693	0	0	0	
0.316833	0.00435425	1.60484	0.000448611	0.060935	0	0	0	
0.317	-0.00772122	-1.6191	0.000534657	0.0608985	0	0	0	
0.317167	0.00344761	1.64005	0.000541007	0.0608924	0	0	0	
0.317333	0.00024324	-1.66553	0.00048594	0.0608653	0	0	0	
0.3175	0.00994489	1.66688	0.000497445	0.0608691	0	0	0	
0.317667	-0.0137697	-1.68243	0.000560001	0.0607818	0	0	0	
0.317833	0.00212976	1.68564	0.000523473	0.0607482	0	0	0	
0.318	0.0107386	-1.70452	0.000390143	0.060703	0	0	0	
0.318167	-0.00477958	1.73115	0.00033114	0.0607338	0	0	0	
0.318333	-0.00679679	-1.75358	0.000420154	0.0607076	0	0	0	
0.3185	0.0105669	1.76052	0.000511751	0.0607176	0	0	0	
0.318667	-0.00233049	-1.7834	0.000508191	0.060729	0	0	0	
0.318833	8.79673E-05	1.79182	0.000445507	0.0608166	0	0	0	
0.319	-0.000125505	-1.8039	0.000413588	0.0608139	0	0	0	
0.319167	-0.00328061	1.82313	0.000392344	0.0608257	0	0	0	
0.319333	0.00504817	-1.85815	0.000406657	0.0608897	0	0	0	
0.3195	-0.00191639	1.86695	0.000497667	0.0610767	0	0	0	
0.319667	-0.00149627	-1.87158	0.000611767	0.0610874	0	0	0	
0.319833	-0.000674728	1.86939	0.000601045	0.0609749	0	0	0	
0.32	0.00864818	-1.88912	0.000463359	0.0608031	0	0	0	
0.320167	-0.0111226	1.90891	0.000372862	0.0608101	0	0	0	
0.320333	-0.00012995	-1.92801	0.00043667	0.0608287	0	0	0	
0.3205	0.00808107	1.9251	0.000531947	0.0608423	0	0	0	
0.320667	-0.00762407	-1.94339	0.000477298	0.0607293	0	0	0	
0.320833	-0.00406649	1.96361	0.000322836	0.0606919	0	0	0	
0.321	0.00421113	-1.98218	0.000239145	0.0606749	0	0	0	
0.321167	0.00479996	2.00232	0.000325738	0.0607607	0	0	0	
0.321333	-0.00630305	-2.0202	0.00045748	0.0608407	0	0	0	
0.3215	0.000729443	2.02527	0.00053195	0.0609296	0	0	0	
0.321667	-0.0094683	-2.04438	0.000569536	0.0608695	0	0	0	
0.321833	0.0136322	2.05364	0.000591883	0.0607512	0	0	0	
0.322	-0.00180451	-2.06236	0.000511518	0.0606485	0	0	0	
0.322167	-0.00975478	2.07732	0.000358919	0.0607353	0	0	0	
0.322333	0.00794085	-2.09626	0.00034285	0.0608524	0	0	0	
0.3225	0.0030422	2.10581	0.000510059	0.0609567	0	0	0	
0.322667	-0.0102621	-2.1265	0.000638359	0.0609092	0	0	0	
0.322833	0.00578717	2.13038	0.000559186	0.0608402	0	0	0	
0.323	0.00125378	-2.14479	0.000358374	0.0607433	0	0	0	
0.323167	-0.00661205	2.15687	0.000250328	0.0607509	0	0	0	
0.323333	0.00725872	-2.17242	0.000315216	0.0606962	0	0	0	
0.3235	0.00555431	2.18265	0.000512573	0.060751	0	0	0	
0.323667	-0.0155477	-2.20771	0.000664405	0.0607886	0	0	0	
0.323833	0.0106998	2.22336	0.000643281	0.0608551	0	0	0	
0.324	-0.00488032	-2.22692	0.000483952	0.0607601	0	0	0	
0.324167	0.00575947	2.23908	0.000356162	0.0606965	0	0	0	
0.324333	-0.00161436	-2.25443	0.000299998	0.0606447	0	0	0	
0.3245	-0.00267165	2.26078	0.000266527	0.0606815	0	0	0	
0.324667	0.00264327	-2.27737	0.000251757	0.0606585	0	0	0	
0.324833	0.000161656	2.2994	0.000305445	0.0607281	0	0	0	
0.325	-0.00371392	-2.31704	0.000417977	0.0607756	0	0	0	
0.325167	0.0093073	2.33446	0.000493247	0.0608485	0	0	0	
0.325333	-0.00801917	-2.33303	0.000488512	0.0607879	0	0	0	
0.3255	3.99039E-05	2.33584	0.000417021	0.0606959	0	0	0	
0.325667	0.00165586	-2.36434	0.000366783	0.0606176	0	0	0	
0.325833	0.00502868	2.38715	0.000427738	0.0606984	0	0	0	
0.326	-0.0191482	-2.39045	0.000552796	0.0607457	0	0	0	
0.326167	0.0247263	2.39894	0.000592199	0.060781	0	0	0	
0.326333	-0.00763472	-2.40513	0.000504359	0.0606916	0	0	0	
0.3265	-0.00673007	2.41347	0.000317783	0.060642	0	0	0	
0.326667	-0.00125517	-2.43677	0.00029702	0.0605806	0	0	0	
0.326833	0.0033892	2.4591	0.000358158	0.060699	0	0	0	
0.327	-0.00118934	-2.47074	0.000475839	0.0608439	0	0	0	
0.327167	0.00758674	2.48215	0.000533453	0.0609732	0	0	0	
0.327333	-0.0117334	-2.48469	0.000607513	0.0608684	0	0	0	
0.3275	0.0126425	2.49591	0.000665097	0.0607673	0	0	0	
0.327667	-0.00828515	-2.50811	0.000593673	0.0606462	0	0	0	
0.327833	-0.00462156	2.51721	0.000397161	0.0606448	0	0	0	
0.328	0.0132839	-2.53172	0.000273108	0.0606745	0	0	0	
0.328167	-0.00759499	2.56014	0.000301285	0.0608178	0	0	0	
0.328333	0.0131381	-2.5725	0.000449999	0.060931	0	0	0	
0.3285	-0.021754	2.58082	0.000544354	0.0610753	0	0	0	
0.328667	0.0195034	-2.61203	0.000544221	0.0611474	0	0	0	
0.328833	-0.0199989	2.62288	0.000542165	0.0612723	0	0	0	
0.329	0.000999433	-2.61478	0.000581089	0.0612075	0	0	0	
0.329167	0.0154174	2.60987	0.0005769	0.0610751	0	0	0	
0.329333	-0.00142514	-2.5858	0.000455357	0.060727	0	0	0	
0.3295	-0.00793178	2.5772	0.000477047	0.0603849	0	0	0	
0.329667	0.00635035	-2.60092	0.000557915	0.0601337	0	0	0	
0.329833	-0.00837913	2.61352	0.00063193	0.0601817	0	0	0	
0.33	0.000294524	-2.64001	0.00058575	0.0603819	0	0	0	
0.330167	-0.0117736	2.67497	0.00055189	0.060679	0	0	0	
0.330333	0.0124234	-2.7069	0.000453491	0.060834	0	0	0	
0.3305	0.0167283	2.73463	0.000486573	0.0610006	0	0	0	
0.330667	-0.0385258	-2.75083	0.000597678	0.061033	0	0	0	
0.330833	0.0385675	2.74282	0.000799724	0.0609954	0	0	0	
0.331	-0.0267512	-2.72289	0.000765753	0.060747	0	0	0	
0.331167	0.0176983	2.71508	0.000621153	0.0604274	0	0	0	
0.331333	-0.0137184	-2.73024	0.000481771	0.060166	0	0	0	
0.3315	0.00788867	2.74319	0.000384446	0.0602091	0	0	0	
0.331667	-0.00642699	-2.76657	0.00030179	0.0603773	0	0	0	
0.331833	0.00556735	2.78775	0.000269761	0.0606527	0	0	0	
0.332	-0.00545254	-2.78959	0.000247664	0.0607569	0	0	0	
0.332167	0.00815931	2.80172	0.000240577	0.0607949	0	0	0	
0.332333	-0.00339078	-2.82153	0.000220368	0.0607182	0	0	0	
0.3325	-0.00218354	2.8297	0.000210475	0.0607449	0	0	0	
0.332667	0.0014038	-2.83637	0.00026081	0.0607411	0	0	0	
0.332833	0.0080089	2.84905	0.000355865	0.0607763	0	0	0	
0.333	-0.0143822	-2.85259	0.000458197	0.0607152	0	0	0	
0.333167	0.0121778	2.86554	0.000502207	0.0606993	0	0	0	
0.333333	-0.0147912	-2.87305	0.00048036	0.0606319	0	0	0	
0.3335	0.0187379	2.88324	0.000459508	0.0606232	0	0	0	
0.333667	-0.0191175	-2.89199	0.00045057	0.0605962	0	0	0	
0.333833	0.0166285	2.90125	0.000440186	0.0606134	0	0	0	
0.334	-0.00958713	-2.89892	0.00039705	0.0605548	0	0	0	
0.334167	0.0112815	2.91448	0.00037381	0.0605588	0	0	0	
0.334333	-0.0205366	-2.93111	0.00040272	0.0605625	0	0	0	
0.3345	0.0198275	2.94064	0.000480065	0.0606756	0	0	0	
0.334667	-0.0210069	-2.95147	0.000508843	0.0607158	0	0	0	
0.334833	0.0157778	2.96497	0.000474603	0.060789	0	0	0	
0.335	-0.00381722	-2.95921	0.000369404	0.0607555	0	0	0	
0.335167	0.00672523	2.95589	0.000304063	0.0607128	0	0	0	
0.335333	-0.0129848	-2.96839	0.000297956	0.0605773	0	0	0	
0.3355	0.00864263	2.99249	0.000319245	0.0606065	0	0	0	
0.335667	-0.00519045	-3.00297	0.000318236	0.0606455	0	0	0	
0.335833	0.0156286	3.00525	0.000341814	0.0607421	0	0	0	
0.336	-0.0204567	-3.00304	0.000390239	0.0606545	0	0	0	
0.336167	0.0123934	3.00845	0.000402783	0.0605969	0	0	0	
0.336333	-0.0128546	-3.0116	0.00037891	0.06047	0	0	0	
0.3365	0.0303923	3.02648	0.000428495	0.0604746	0	0	0	
0.336667	-0.0283265	-3.0447	0.00051199	0.0605076	0	0	0	
0.336833	0.0105403	3.05897	0.000515997	0.060688	0	0	0	
0.337	-0.00343841	-3.05737	0.000375676	0.0607597	0	0	0	
0.337167	0.0136007	3.06457	0.000359814	0.0608016	0	0	0	
0.337333	-0.0237508	-3.06486	0.000407205	0.0606724	0	0	0	
0.3375	0.0190368	3.06654	0.000479094	0.0606103	0	0	0	
0.337667	-0.00996982	-3.07259	0.000405977	0.0605313	0	0	0	
0.337833	0.0128516	3.08966	0.000319363	0.0605845	0	0	0	
0.338	-0.0133823	-3.08743	0.000279192	0.0605824	0	0	0	
0.338167	0.00872582	3.10333	0.000283678	0.0606364	0	0	0	
0.338333	-0.0142755	-3.11374	0.000330447	0.0606466	0	0	0	
0.3385	0.0214662	3.11545	0.000412428	0.0607246	0	0	0	
0.338667	-0.0202009	-3.10693	0.000465498	0.0606606	0	0	0	
0.338833	0.0159328	3.13138	0.000456372	0.0606371	0	0	0	
0.339	-0.0149986	-3.13997	0.000408021	0.0606385	0	0	0	
0.339167	0.0147797	3.1491	0.000397531	0.0608028	0	0	0	
0.339333	-0.0137643	-3.14332	0.000401767	0.0608208	0	0	0	
0.3395	0.0153284	3.15514	0.000406747	0.0607778	0	0	0	
0.339667	-0.0242864	-3.14597	0.000410001	0.0606372	0	0	0	
0.339833	0.0182552	3.15635	0.000441553	0.0606258	0	0	0	
0.34	-0.0037074	-3.15942	0.000386415	0.0606023	0	0	0	
0.340167	0.000590552	3.16978	0.000306005	0.0606718	0	0	0	
0.340333	-0.0125494	-3.17237	0.000300518	0.0606545	0	0	0	
0.3405	0.0248966	3.19813	0.000407826	0.0607631	0	0	0	
0.340667	-0.022935	-3.19074	0.000507039	0.0607967	0	0	0	
0.340833	0.00829584	3.18858	0.000458618	0.0608589	0	0	0	
0.341	-0.00142637	-3.19449	0.000348291	0.060766	0	0	0	
0.341167	0.0112699	3.20938	0.00032468	0.0607635	0	0	0	
0.341333	-0.0247424	-3.19571	0.000388415	0.0607293	0	0	0	
0.3415	0.0180879	3.20119	0.000465475	0.0607336	0	0	0	
0.341667	-0.00665126	-3.20417	0.000408779	0.0606365	0	0	0	
0.341833	0.00815297	3.22554	0.000358666	0.060674	0	0	0	
0.342	-0.0125254	-3.21727	0.000387047	0.0607239	0	0	0	
0.342167	0.0152338	3.22482	0.000444539	0.0608089	0	0	0	
0.342333	-0.0115897	-3.2253	0.000436154	0.0608007	0	0	0	
0.3425	0.012012	3.22489	0.000348649	0.0607538	0	0	0	
0.342667	-0.0128637	-3.21582	0.000295173	0.0606525	0	0	0	
0.342833	0.00758166	3.239	0.000258351	0.0606037	0	0	0	
0.343	-0.00103151	-3.23031	0.000217776	0.0606141	0	0	0	
0.343167	0.00492499	3.23972	0.000251519	0.0606596	0	0	0	
0.343333	-0.0165351	-3.2479	0.00035139	0.060671	0	0	0	
0.3435	0.0267951	3.2408	0.000460908	0.0606386	0	0	0	
0.343667	-0.0233593	-3.24077	0.000500967	0.0606321	0	0	0	
0.343833	0.0180021	3.25314	0.00046696	0.060651	0	0	0	
0.344	-0.00821557	-3.23856	0.000419687	0.0606181	0	0	0	
0.344167	0.0109816	3.24774	0.000360901	0.0605732	0	0	0	
0.344333	-0.0163301	-3.25815	0.000335224	0.060558	0	0	0	
0.3445	0.0124017	3.26831	0.000338991	0.0606697	0	0	0	
0.344667	-0.0094692	-3.25939	0.000335891	0.0607702	0	0	0	
0.344833	0.0107096	3.26356	0.000325174	0.060787	0	0	0	
0.345	-0.00669788	-3.26228	0.000332461	0.060709	0	0	0	
0.345167	0.0165353	3.27704	0.000387995	0.0607213	0	0	0	
0.345333	-0.0258802	-3.26838	0.000481667	0.0607613	0	0	0	
0.3455	0.0209184	3.27334	0.000514668	0.0608033	0	0	0	
0.345667	-0.0145941	-3.26577	0.000454901	0.0607544	0	0	0	
0.345833	0.0082832	3.27223	0.000344959	0.0607165	0	0	0	
0.346	-0.00907169	-3.26027	0.000304457	0.0606634	0	0	0	
0.346167	0.017851	3.27041	0.00034481	0.060644	0	0	0	
0.346333	-0.0166305	-3.2624	0.000368729	0.0606075	0	0	0	
0.3465	0.00464758	3.27885	0.000307691	0.0606418	0	0	0	
0.346667	-0.00862127	-3.28524	0.000243498	0.0607296	0	0	0	
0.346833	0.01308	3.28651	0.000307819	0.0608573	0	0	0	
0.347	-0.0133189	-3.27767	0.000428978	0.060896	0	0	0	
0.347167	0.0187474	3.28312	0.000509929	0.0608964	0	0	0	
0.347333	-0.0215503	-3.26648	0.000509578	0.0608143	0	0	0	
