0	-0.000349129	-9.94231E-05	3.49129E-08	9.94231E-09	0	0	0	
0.000166667	-0.000456357	-0.00227917	3.99374E-06	1.40302E-05	0	0	0	
0.000333333	0.00218555	0.00175123	2.20866E-05	2.60584E-05	0	0	0	
0.0005	0.00386076	0.00250145	5.22139E-05	5.6009E-05	0	0	0	
0.000666667	-0.00717643	-0.00320757	0.0001046	6.012E-05	0	0	0	
0.000833333	0.00809336	-0.000221529	0.000121245	7.65126E-05	0	0	0	
0.001	-0.00546342	0.00055743	0.000157134	6.69764E-05	0	0	0	
0.00116667	2.94814E-05	0.000674825	0.000147786	5.30875E-05	0	0	0	
0.00133333	0.000298895	0.000509733	0.000122619	2.96055E-05	0	0	0	
0.0015	0.00477197	-0.00205851	7.61808E-05	1.58577E-05	0	0	0	
0.00166667	0.000633868	0.00165753	5.04655E-05	2.76558E-05	0	0	0	
0.00183333	0.00206471	0.00183758	5.35855E-05	3.84902E-05	0	0	0	
0.002	-0.0110992	-0.00392011	8.5148E-05	5.07689E-05	0	0	0	
0.00216667	0.0107248	-9.68759E-05	0.000137985	4.92199E-05	0	0	0	
0.00233333	-0.00508623	0.00371364	0.000167579	4.82572E-05	0	0	0	
0.0025	0.00291231	-0.00105081	0.000143419	4.5345E-05	0	0	0	
0.00266667	-0.00579542	-0.000917341	0.000112277	3.96516E-05	0	0	0	
0.00283333	0.0100599	0.000150459	0.000119478	3.45153E-05	0	0	0	
0.003	-0.0088341	5.78633E-05	0.000156535	2.49703E-05	0	0	0	
0.00316667	0.0045185	-6.43453E-05	0.000152587	1.76582E-05	0	0	0	
0.00333333	-0.00492173	-0.000318062	0.000136067	1.36662E-05	0	0	0	
0.0035	0.00430618	0.000106704	0.0001077	1.37327E-05	0	0	0	
0.00366667	-0.00320933	0.00100748	9.45914E-05	1.56897E-05	0	0	0	
0.00383333	0.00514446	-0.00123267	9.07002E-05	1.85151E-05	0	0	0	
0.004	-0.00467555	0.000602127	9.17734E-05	1.69229E-05	0	0	0	
0.00416667	0.00442083	-0.000739642	9.79636E-05	1.97029E-05	0	0	0	
0.00433333	-0.00796469	0.000886801	0.000111088	1.75505E-05	0	0	0	
0.0045	0.00390137	-0.000876414	0.000110766	1.83147E-05	0	0	0	
0.00466667	-0.00459801	-0.000286874	9.44443E-05	1.7082E-05	0	0	0	
0.00483333	0.00799141	0.000772438	0.000102296	2.12941E-05	0	0	0	
0.005	-0.00512098	0.00120343	0.000102509	3.05361E-05	0	0	0	
0.00516667	0.00381043	-0.00179774	0.00011679	3.58304E-05	0	0	0	
0.00533333	-0.0052086	8.99496E-06	9.63343E-05	3.30719E-05	0	0	0	
0.0055	0.00578654	0.00162733	0.000107913	2.601E-05	0	0	0	
0.00566667	-0.0102612	-0.000400687	0.000125267	2.90534E-05	0	0	0	
0.00583333	0.00903307	-0.00201722	0.000161543	2.75827E-05	0	0	0	
0.006	-0.0041374	0.00128047	0.00014677	4.2068E-05	0	0	0	
0.00616667	0.00457809	0.00084345	0.000133039	4.83781E-05	0	0	0	
0.00633333	-0.00409272	-0.000652406	0.000103657	4.78353E-05	0	0	0	
0.0065	0.00382573	0.000488395	0.000102033	3.14197E-05	0	0	0	
0.00666667	-0.0051381	-0.00112479	0.000102286	1.82937E-05	0	0	0	
0.00683333	0.00485866	-0.000666081	0.000106918	1.95664E-05	0	0	0	
0.007	-0.00770675	0.00178764	0.000124493	2.31288E-05	0	0	0	
0.00716667	0.00788873	-0.00214407	0.000138509	3.12536E-05	0	0	0	
0.00733333	-0.00380565	0.00126187	0.00012891	3.54905E-05	0	0	0	
0.0075	0.00407067	0.000372104	0.000106198	3.22176E-05	0	0	0	
0.00766667	-0.00746775	-0.000256756	0.000100406	2.13227E-05	0	0	0	
0.00783333	0.0075949	-0.00109318	0.000113918	1.80772E-05	0	0	0	
0.008	-0.00535048	0.00107893	0.000130707	1.81247E-05	0	0	0	
0.00816667	0.00411181	-0.000934754	0.000111765	2.24003E-05	0	0	0	
0.00833333	-0.00609572	0.000171369	9.64374E-05	2.00277E-05	0	0	0	
0.0085	0.00610201	0.000995257	9.26017E-05	1.70995E-05	0	0	0	
0.00866667	-0.00746476	-0.000222292	0.00011217	1.65179E-05	0	0	0	
0.00883333	0.0076577	-0.000723525	0.000133712	1.54685E-05	0	0	0	
0.009	-0.00718273	0.000282636	0.000139466	1.92918E-05	0	0	0	
0.00916667	0.00661134	-9.11742E-06	0.000141566	1.65239E-05	0	0	0	
0.00933333	-0.00797283	-0.000671524	0.000129712	1.54429E-05	0	0	0	
0.0095	0.00690615	0.00109277	0.000136653	1.68496E-05	0	0	0	
0.00966667	-0.00600778	2.85798E-05	0.000129001	1.65371E-05	0	0	0	
0.00983333	0.0049102	-0.00155455	0.000124488	1.91978E-05	0	0	0	
0.01	-0.00443573	0.00106927	0.000106304	2.05457E-05	0	0	0	
0.0101667	0.00527517	-0.000249344	9.80226E-05	2.27354E-05	0	0	0	
0.0103333	-0.00709587	-0.00030702	0.000105781	2.09645E-05	0	0	0	
0.0105	0.00510658	0.000307142	0.000121617	1.63061E-05	0	0	0	
0.0106667	-0.0039271	0.00028586	0.000119808	1.52554E-05	0	0	0	
0.0108333	0.00601425	-0.00164971	0.000105911	1.9984E-05	0	0	0	
0.011	-0.00624198	0.00131063	0.000101781	2.40378E-05	0	0	0	
0.0111667	0.00556215	-0.00115283	0.000106499	2.58522E-05	0	0	0	
0.0113333	-0.00471798	0.000337041	0.000116853	2.25399E-05	0	0	0	
0.0115	0.00250101	-0.000214073	9.10711E-05	1.81526E-05	0	0	0	
0.0116667	-0.0041158	0.000470834	8.08096E-05	1.70507E-05	0	0	0	
0.0118333	0.00593491	-0.000402168	7.18403E-05	1.73329E-05	0	0	0	
0.012	-0.00787121	0.000238953	0.000100705	1.52618E-05	0	0	0	
0.0121667	0.00432839	-0.00180281	0.000124606	1.77516E-05	0	0	0	
0.0123333	-0.00385634	0.000759777	0.000130518	2.35647E-05	0	0	0	
0.0125	0.00597677	-0.000230776	0.000112425	2.96248E-05	0	0	0	
0.0126667	-0.00531689	0.0017411	9.74373E-05	3.08764E-05	0	0	0	
0.0128333	0.00470324	-0.0011481	9.3124E-05	2.87121E-05	0	0	0	
0.013	-0.00444582	0.000262393	0.000100783	2.46418E-05	0	0	0	
0.0131667	0.00441334	-0.000273636	0.000116691	1.59442E-05	0	0	0	
0.0133333	-0.00499756	-0.000850341	0.000122282	1.09248E-05	0	0	0	
0.0135	0.00374047	0.00217971	0.000116799	1.36909E-05	0	0	0	
0.0136667	-0.00693789	-0.00148989	0.000101371	2.72038E-05	0	0	0	
0.0138333	0.0135281	0.000388231	0.000133917	3.64364E-05	0	0	0	
0.014	-0.0084067	0.00132353	0.000168088	4.81509E-05	0	0	0	
0.0141667	0.00225043	-0.00166324	0.000174462	5.1424E-05	0	0	0	
0.0143333	-0.000399547	0.0012132	0.000113714	4.63614E-05	0	0	0	
0.0145	0.00366303	8.03943E-05	7.96081E-05	4.17179E-05	0	0	0	
0.0146667	-0.00652998	-0.00127963	8.5475E-05	3.35951E-05	0	0	0	
0.0148333	0.00865771	0.00200164	0.000127105	3.53529E-05	0	0	0	
0.015	-0.00650484	-0.00219098	0.000151808	3.24029E-05	0	0	0	
0.0151667	0.00964245	0.00244894	0.00015866	4.28446E-05	0	0	0	
0.0153333	-0.00680222	-0.000463649	0.000155222	4.75494E-05	0	0	0	
0.0155	0.00633592	-0.00111173	0.000141606	5.27823E-05	0	0	0	
0.0156667	-0.00473171	-0.00120188	0.000131467	4.34157E-05	0	0	0	
0.0158333	0.00633209	0.00273454	0.000135325	4.85203E-05	0	0	0	
0.016	-0.0100783	-3.24592E-05	0.000155506	4.31868E-05	0	0	0	
0.0161667	0.00852473	-0.00158769	0.00016961	3.65912E-05	0	0	0	
0.0163333	-0.00222817	-0.00102569	0.000156981	3.35569E-05	0	0	0	
0.0165	0.0039032	0.0005843	0.000111793	2.76373E-05	0	0	0	
0.0166667	-0.00583665	0.00186304	9.94015E-05	3.14286E-05	0	0	0	
0.0168333	0.00580238	-0.000502367	0.000104925	2.75782E-05	0	0	0	
0.017	-0.00739445	-8.07765E-05	0.000127788	2.71799E-05	0	0	0	
0.0171667	0.00564877	-0.00228746	0.00013278	2.82616E-05	0	0	0	
0.0173333	-0.00360548	0.000169707	0.000124859	2.18868E-05	0	0	0	
0.0175	0.0055539	0.00114173	0.000113677	1.97221E-05	0	0	0	
0.0176667	-0.00539498	-0.000472667	0.000103476	2.50682E-05	0	0	0	
0.0178333	0.00686374	0.00122475	0.000106389	2.77163E-05	0	0	0	
0.018	-0.00806094	-0.00107417	0.000126456	3.29796E-05	0	0	0	
0.0181667	0.0071964	-0.00115986	0.000146491	3.19001E-05	0	0	0	
0.0183333	-0.00418551	0.000994196	0.000140788	3.10513E-05	0	0	0	
0.0185	0.00460915	-0.000187071	0.000126848	2.53774E-05	0	0	0	
0.0186667	-0.00516625	-8.49078E-05	0.000105363	1.70894E-05	0	0	0	
0.0188333	0.00680882	0.000190911	0.000114133	1.11878E-05	0	0	0	
0.019	-0.00387407	0.000444097	0.000111392	1.45015E-05	0	0	0	
0.0191667	0.00498685	-0.000673666	0.000107134	1.68375E-05	0	0	0	
0.0193333	-0.00767835	0.000723183	0.000115586	2.00703E-05	0	0	0	
0.0195	0.00530452	-0.00138	0.000143956	2.81681E-05	0	0	0	
0.0196667	-0.00789767	0.000502935	0.000152642	3.07153E-05	0	0	0	
0.0198333	0.00586881	0.00093071	0.000154479	3.25504E-05	0	0	0	
0.02	-0.00401548	0.000516533	0.000121514	2.26937E-05	0	0	0	
0.0201667	0.0046499	-0.00113605	0.000105085	2.00545E-05	0	0	0	
0.0203333	-0.00339221	0.000279606	7.88042E-05	1.69443E-05	0	0	0	
0.0205	-0.000395465	0.000516884	8.05197E-05	2.0197E-05	0	0	0	
0.0206667	-0.00643074	-0.000911642	0.000103513	1.8978E-05	0	0	0	
0.0208333	0.006437	0.000653442	0.000137212	2.00316E-05	0	0	0	
0.021	-0.00609563	0.00212717	0.000141054	2.26511E-05	0	0	0	
0.0211667	0.00216968	-0.0014825	0.000122779	2.89734E-05	0	0	0	
0.0213333	-0.00525779	-0.00119343	8.7247E-05	3.0354E-05	0	0	0	
0.0215	0.00625043	-0.000397913	0.000102267	3.50516E-05	0	0	0	
0.0216667	-0.00730659	0.00151527	0.00011108	3.25241E-05	0	0	0	
0.0218333	0.0060318	0.000410915	0.000129913	3.63623E-05	0	0	0	
0.022	-0.00362371	0.000452302	0.000114661	2.57759E-05	0	0	0	
0.0221667	0.00188709	-0.00109214	9.89227E-05	2.18765E-05	0	0	0	
0.0223333	-0.00577626	-0.00108953	7.81806E-05	1.90321E-05	0	0	0	
0.0225	0.00346785	9.75305E-05	8.24082E-05	2.0286E-05	0	0	0	
0.0226667	-0.00517045	0.000670477	9.0652E-05	1.97111E-05	0	0	0	
0.0228333	0.00449425	-0.000175024	0.000110832	2.13372E-05	0	0	0	
0.023	-0.00442258	0.000775742	0.00010756	1.99967E-05	0	0	0	
0.0231667	0.00558699	-0.00188011	0.000111007	2.39482E-05	0	0	0	
0.0233333	-0.00795795	0.000313642	0.000115138	2.20599E-05	0	0	0	
0.0235	0.00556873	-0.000801899	0.000139307	2.49431E-05	0	0	0	
0.0236667	-0.00703849	0.00113886	0.000152942	2.05227E-05	0	0	0	
0.0238333	0.00582802	-0.000513041	0.000153628	2.29984E-05	0	0	0	
0.024	-0.00799619	0.000744186	0.000131458	2.16555E-05	0	0	0	
0.0241667	0.00472622	-0.000903719	0.000130693	2.34348E-05	0	0	0	
0.0243333	-0.00558702	-0.00019749	0.000115305	1.65173E-05	0	0	0	
0.0245	0.00498396	-0.000980137	0.000121397	1.93991E-05	0	0	0	
0.0246667	-0.00340465	0.0016796	0.000110451	2.42255E-05	0	0	0	
0.0248333	0.00165881	-0.000136896	0.000113626	2.89664E-05	0	0	0	
0.025	-0.00481736	-0.00010787	0.000103777	2.38043E-05	0	0	0	
0.0251667	0.00578392	-0.000168951	0.000111736	1.80248E-05	0	0	0	
0.0253333	-0.0077209	-0.000152553	0.000121544	1.09618E-05	0	0	0	
0.0255	0.00626981	-6.16251E-05	0.00014354	1.18632E-05	0	0	0	
0.0256667	-0.00513869	0.000163669	0.000144207	1.0302E-05	0	0	0	
0.0258333	0.0039629	-0.000392572	0.000129053	1.32712E-05	0	0	0	
0.026	-0.00606882	0.00131528	0.000106642	1.66691E-05	0	0	0	
0.0261667	0.00566131	-0.00179559	9.96254E-05	2.20123E-05	0	0	0	
0.0263333	-0.00567184	0.000920584	0.000108713	2.62129E-05	0	0	0	
0.0265	0.00523233	-0.00122365	0.000111171	2.67967E-05	0	0	0	
0.0266667	-0.00499305	0.00166947	0.000112543	3.32707E-05	0	0	0	
0.0268333	0.00529646	-0.00111151	0.000105336	3.50562E-05	0	0	0	
0.027	-0.00420296	0.000261081	0.000105641	3.00855E-05	0	0	0	
0.0271667	0.00344264	-0.000628579	9.70643E-05	1.76957E-05	0	0	0	
0.0273333	-0.00629371	0.000253867	0.000101701	1.42176E-05	0	0	0	
0.0275	0.00814252	0.000325282	0.000115996	1.86417E-05	0	0	0	
0.0276667	-0.0031335	-0.00119289	0.000140234	2.50151E-05	0	0	0	
0.0278333	0.00295809	0.000317537	0.000133183	2.78217E-05	0	0	0	
0.028	-0.00490975	0.00167719	0.000115399	2.89407E-05	0	0	0	
0.0281667	0.00394554	-0.00276231	9.04167E-05	3.46567E-05	0	0	0	
0.0283333	-0.00239816	0.000242795	7.9886E-05	3.99408E-05	0	0	0	
0.0285	0.00688186	0.002701	8.86721E-05	4.72299E-05	0	0	0	
0.0286667	-0.00917981	-0.00188079	0.000131857	4.7703E-05	0	0	0	
0.0288333	0.0110786	-0.000792434	0.000167482	6.30321E-05	0	0	0	
0.029	-0.00537238	0.00014187	0.000187537	5.84892E-05	0	0	0	
0.0291667	0.00152509	0.000874193	0.000141589	4.74516E-05	0	0	0	
0.0293333	-0.0026538	0.00222515	0.000106782	3.23445E-05	0	0	0	
0.0295	0.0043772	-0.00217198	7.79889E-05	3.49187E-05	0	0	0	
0.0296667	-0.00344996	-0.00119233	0.000102989	5.3604E-05	0	0	0	
0.0298333	0.00705584	0.00129139	0.00014307	4.64994E-05	0	0	0	
0.03	-0.0090963	4.63782E-06	0.000174945	3.63889E-05	0	0	0	
0.0301667	0.00657545	0.000366954	0.000185204	1.43357E-05	0	0	0	
0.0303333	-0.00307943	0.0013436	0.000160365	1.30737E-05	0	0	0	
0.0305	0.00175253	-0.000829878	0.000120477	1.66357E-05	0	0	0	
0.0306667	-0.00402409	-0.00170269	9.70679E-05	2.65118E-05	0	0	0	
0.0308333	0.00665674	-0.000618548	0.000105842	3.74079E-05	0	0	0	
0.031	-0.00788419	0.00207806	0.000131745	4.61854E-05	0	0	0	
0.0311667	0.00188691	0.0014802	0.000133548	4.84426E-05	0	0	0	
0.0313333	-0.00250436	-0.00167741	0.00010959	4.14427E-05	0	0	0	
0.0315	0.00138557	-0.00198319	8.42838E-05	4.26459E-05	0	0	0	
0.0316667	-0.00425617	0.000165344	6.53289E-05	4.14522E-05	0	0	0	
0.0318333	0.00790319	0.000560012	8.57974E-05	3.7295E-05	0	0	0	
0.032	-0.00410927	0.00190696	0.000111044	3.61149E-05	0	0	0	
0.0321667	0.00446215	-0.000472865	0.000112525	3.50338E-05	0	0	0	
0.0323333	-0.00396591	-0.00204144	0.000106884	4.64282E-05	0	0	0	
0.0325	0.00221369	-0.000638211	7.9379E-05	4.14971E-05	0	0	0	
0.0326667	-0.00558732	0.00013382	8.78375E-05	3.10044E-05	0	0	0	
0.0328333	0.00780113	0.00120533	0.000100781	2.01765E-05	0	0	0	
0.033	-0.00351985	0.000818339	0.000127779	2.7825E-05	0	0	0	
0.0331667	0.00781602	-0.00132425	0.000126263	3.54611E-05	0	0	0	
0.0333333	-0.00755367	-0.001465	0.000143475	4.06622E-05	0	0	0	
0.0335	0.00565603	-0.000253962	0.000130557	3.05109E-05	0	0	0	
0.0336667	-0.00605586	0.00146426	0.000143843	2.86996E-05	0	0	0	
0.0338333	0.0019744	0.000546134	0.000104125	3.39787E-05	0	0	0	
0.034	-0.00384434	-0.00130426	0.00010032	2.98014E-05	0	0	0	
0.0341667	0.00997504	-0.000907687	0.000105543	3.52034E-05	0	0	0	
0.0343333	-0.00905674	-0.000788425	0.000147958	2.44871E-05	0	0	0	
0.0345	0.00384955	0.00152064	0.000160192	2.83976E-05	0	0	0	
0.0346667	-0.0103715	0.000364156	0.000155373	3.01111E-05	0	0	0	
0.0348333	0.00833411	-0.00113868	0.000154621	3.12167E-05	0	0	0	
0.035	-0.00514484	-0.000537417	0.00014898	2.58756E-05	0	0	0	
0.0351667	0.00252574	-0.000925948	0.000136224	1.7903E-05	0	0	0	
0.0353333	-0.00242442	0.000806955	0.000112175	1.49938E-05	0	0	0	
0.0355	0.00148749	0.00095729	0.000116563	3.07677E-05	0	0	0	
0.0356667	-0.00635034	-0.000638034	0.000117076	2.64572E-05	0	0	0	
0.0358333	0.00043987	-0.00132193	0.000116014	3.4413E-05	0	0	0	
0.036	-0.00453524	-0.000389939	9.80305E-05	2.14907E-05	0	0	0	
0.0361667	0.00383178	0.000597517	0.000107295	2.31862E-05	0	0	0	
0.0363333	-0.00767863	0.0022857	9.26134E-05	3.16774E-05	0	0	0	
0.0365	0.00603786	-0.00164165	0.000116598	3.7586E-05	0	0	0	
0.0366667	-0.00480634	-0.00136158	0.000112627	4.21627E-05	0	0	0	
0.0368333	2.72122E-05	0.000360296	0.000120165	3.32238E-05	0	0	0	
0.037	-0.00607031	0.00109113	8.51059E-05	2.763E-05	0	0	0	
0.0371667	0.00500229	0.000705135	9.6998E-05	2.89726E-05	0	0	0	
0.0373333	-0.00465566	-0.000351385	9.33314E-05	2.31127E-05	0	0	0	
0.0375	0.00634252	-0.000938913	0.000128525	2.62623E-05	0	0	0	
0.0376667	-0.00139846	-1.33996E-05	0.000128356	2.75492E-05	0	0	0	
0.0378333	0.00197949	0.000308931	0.000112812	2.74062E-05	0	0	0	
0.038	-0.00799697	0.00110172	9.01109E-05	2.26268E-05	0	0	0	
0.0381667	0.0066443	8.72235E-05	0.000109454	1.46839E-05	0	0	0	
0.0383333	-0.0059581	-0.000580094	0.000133224	1.07327E-05	0	0	0	
0.0385	0.00612391	-0.000473186	0.000146008	1.22231E-05	0	0	0	
0.0386667	-0.00360345	0.000977288	0.000113679	1.45372E-05	0	0	0	
0.0388333	0.00491564	-0.000682319	9.89214E-05	1.89745E-05	0	0	0	
0.039	-0.00649244	0.000553211	0.000101304	1.59816E-05	0	0	0	
0.0391667	0.00326913	6.71407E-05	0.000117612	1.68222E-05	0	0	0	
0.0393333	-0.00323941	5.28365E-05	0.00011692	1.52333E-05	0	0	0	
0.0395	0.00236143	-0.000441155	9.78306E-05	1.43206E-05	0	0	0	
0.0396667	-0.00272039	0.000236783	7.71918E-05	1.22873E-05	0	0	0	
0.0398333	0.00315422	-0.000404059	8.42697E-05	9.61382E-06	0	0	0	
0.04	-0.00678909	0.000935275	9.08678E-05	1.42142E-05	0	0	0	
0.0401667	0.00735204	-0.000625818	0.000111396	1.47324E-05	0	0	0	
0.0403333	-0.00560429	0.000300249	0.000128337	1.44033E-05	0	0	0	
0.0405	0.00441068	-0.000760566	0.000133748	1.08638E-05	0	0	0	
0.0406667	-0.0052668	0.000747095	0.00011196	1.4173E-05	0	0	0	
0.0408333	0.00398473	3.00904E-05	9.42266E-05	1.56822E-05	0	0	0	
0.041	-0.00565522	0.000392491	8.56488E-05	2.05286E-05	0	0	0	
0.0411667	0.00960091	-0.000265847	0.000110748	1.92615E-05	0	0	0	
0.0413333	-0.0072	0.000412081	0.00015408	1.74149E-05	0	0	0	
0.0415	0.00378583	-0.000397227	0.000183081	1.25161E-05	0	0	0	
0.0416667	-0.00473115	0.000495691	0.00016771	9.12449E-06	0	0	0	
0.0418333	0.00390094	-0.000211763	0.000124	9.51731E-06	0	0	0	
0.042	-0.00489295	0.000209691	9.03286E-05	6.95563E-06	0	0	0	
0.0421667	0.00836688	0.000604233	0.000101898	8.55995E-06	0	0	0	
0.0423333	-0.0040315	-0.000486171	0.000142363	9.58503E-06	0	0	0	
0.0425	0.00236126	-0.000453281	0.000172485	1.66094E-05	0	0	0	
0.0426667	-0.00163724	0.000709822	0.000151417	1.48011E-05	0	0	0	
0.0428333	0.00433878	-0.00033501	9.06006E-05	1.57112E-05	0	0	0	
0.043	-0.00640329	0.00056916	8.34928E-05	1.90894E-05	0	0	0	
0.0431667	0.00188875	-0.00306724	7.94547E-05	3.55972E-05	0	0	0	
0.0433333	0.000669188	0.0029596	8.22897E-05	4.70471E-05	0	0	0	
0.0435	-0.0046709	0.000802846	7.98612E-05	6.23241E-05	0	0	0	
0.0436667	-0.0072916	-0.00431105	0.000142477	6.72591E-05	0	0	0	
0.0438333	0.0165719	0.00154657	0.000219086	6.82314E-05	0	0	0	
0.044	-0.0113372	-0.000856102	0.00026808	5.18229E-05	0	0	0	
0.0441667	0.00629745	0.00263885	0.000228992	3.75078E-05	0	0	0	
0.0443333	-0.00698264	0.000228005	0.000190946	4.43004E-05	0	0	0	
0.0445	-0.000882386	-0.00443063	0.000126352	5.65266E-05	0	0	0	
0.0446667	-0.00243766	0.00160477	8.99491E-05	7.19331E-05	0	0	0	
0.0448333	0.0030659	-0.000600413	8.03279E-05	6.82401E-05	0	0	0	
0.045	-0.00673435	0.00148113	0.000120267	5.33869E-05	0	0	0	
0.0451667	0.00875636	0.000760759	0.000175115	3.84077E-05	0	0	0	
0.0453333	-0.00370725	-0.000933267	0.000187078	2.28071E-05	0	0	0	
0.0455	-0.000541308	-0.00181801	0.000141008	2.95179E-05	0	0	0	
0.0456667	-0.00443205	0.000804971	9.20696E-05	2.82664E-05	0	0	0	
0.0458333	0.0049343	0.000197967	9.1131E-05	2.99188E-05	0	0	0	
0.046	-0.00403664	0.00110991	0.00012086	2.7631E-05	0	0	0	
0.0461667	0.00446236	-0.000402166	0.000145133	2.3512E-05	0	0	0	
0.0463333	-0.00282072	-0.00108173	0.000124748	2.47397E-05	0	0	0	
0.0465	0.00458307	-0.00103907	9.60514E-05	3.02543E-05	0	0	0	
0.0466667	-0.00578713	0.0014804	9.27775E-05	3.41834E-05	0	0	0	
0.0468333	0.00321681	0.000253587	0.000103871	3.39901E-05	0	0	0	
0.047	0.000471946	0.00117365	9.48062E-05	2.66932E-05	0	0	0	
0.0471667	0.00404518	-0.00219213	7.58603E-05	2.74808E-05	0	0	0	
0.0473333	-0.00172661	-0.000293514	6.11965E-05	2.96887E-05	0	0	0	
0.0475	0.00751112	0.000715315	7.08053E-05	3.00027E-05	0	0	0	
0.0476667	-0.00633598	0.000675214	0.000108983	3.22419E-05	0	0	0	
0.0478333	0.00345701	0.000458362	0.000121805	2.49535E-05	0	0	0	
0.048	-0.00463076	0.000730273	0.000116288	2.12956E-05	0	0	0	
0.0481667	0.00718044	-0.00146686	0.000102336	1.73289E-05	0	0	0	
0.0483333	-0.00395401	0.000215326	9.98366E-05	2.24569E-05	0	0	0	
0.0485	0.00888259	0.000410141	0.000115909	2.35746E-05	0	0	0	
0.0486667	-0.00749379	0.000907442	0.000139857	2.99052E-05	0	0	0	
0.0488333	0.00208553	8.47732E-05	0.000137812	2.77419E-05	0	0	0	
0.049	-0.00153102	-0.000634811	0.000109707	3.0125E-05	0	0	0	
0.0491667	0.00243857	-0.000229529	6.23295E-05	1.80673E-05	0	0	0	
0.0493333	-0.00340544	0.000656351	6.9321E-05	1.70862E-05	0	0	0	
0.0495	0.00560845	0.000958065	0.000113214	1.27128E-05	0	0	0	
0.0496667	-0.00884051	-0.00277673	0.000150946	2.41007E-05	0	0	0	
0.0498333	0.00686708	0.00126253	0.000159153	3.0226E-05	0	0	0	
0.05	-0.00827114	-0.00070962	0.000152611	3.16329E-05	0	0	0	
0.0501667	0.0054281	-0.00104598	0.000137995	2.10436E-05	0	0	0	
0.0503333	-0.00318901	0.00180098	0.000112006	2.14366E-05	0	0	0	
0.0505	0.000638972	-0.00131825	8.88834E-05	2.43435E-05	0	0	0	
0.0506667	-0.00582498	7.3198E-06	8.14291E-05	2.79845E-05	0	0	0	
0.0508333	0.00674864	-0.00133788	0.000107781	2.28728E-05	0	0	0	
0.051	-0.00566515	-0.000505031	0.000133249	2.22918E-05	0	0	0	
0.0511667	0.00680299	-6.26742E-05	0.000141632	4.16193E-05	0	0	0	
0.0513333	-0.00489625	0.00315959	0.000154755	6.46789E-05	0	0	0	
0.0515	0.00281528	-0.00113308	0.000158928	6.95398E-05	0	0	0	
0.0516667	-0.00546344	-0.00213795	0.000150101	5.10054E-05	0	0	0	
0.0518333	0.00739784	0.0030923	0.000138377	4.36235E-05	0	0	0	
0.052	-0.00501634	-0.000988492	0.000140761	4.41184E-05	0	0	0	
0.0521667	0.00431105	-0.00254469	0.000141304	4.61532E-05	0	0	0	
0.0523333	0.00110976	0.00507435	0.000124097	5.62808E-05	0	0	0	
0.0525	0.00283714	-0.00200705	9.77784E-05	6.76635E-05	0	0	0	
0.0526667	-0.00484538	-8.68721E-05	9.73712E-05	6.62724E-05	0	0	0	
0.0528333	0.00222238	0.000938925	9.73911E-05	4.27151E-05	0	0	0	
0.053	-0.00147138	0.00128297	8.51477E-05	2.10238E-05	0	0	0	
0.0531667	0.000102122	-0.00182239	5.90423E-05	2.5476E-05	0	0	0	
0.0533333	-0.00289858	8.67834E-05	4.10648E-05	2.42084E-05	0	0	0	
0.0535	0.00435357	-0.000806069	7.15932E-05	2.36167E-05	0	0	0	
0.0536667	-0.00500006	0.000671021	0.000115792	1.85931E-05	0	0	0	
0.0538333	0.00333269	0.000677696	0.000141264	1.78278E-05	0	0	0	
0.054	-0.00449374	-0.000516473	0.000118474	2.06473E-05	0	0	0	
0.0541667	0.00369356	-0.000446856	9.27865E-05	1.56785E-05	0	0	0	
0.0543333	-0.00489608	0.000387656	7.0269E-05	1.26456E-05	0	0	0	
0.0545	0.00143012	-0.00158501	8.46166E-05	1.33612E-05	0	0	0	
0.0546667	-0.00136219	0.00154308	8.03543E-05	2.20227E-05	0	0	0	
0.0548333	0.00225797	-0.000960805	8.57645E-05	2.96143E-05	0	0	0	
0.055	-0.00656408	0.000118973	7.86672E-05	2.63009E-05	0	0	0	
0.0551667	0.00657933	-0.000404306	9.97101E-05	1.74577E-05	0	0	0	
0.0553333	-0.00375338	0.000166086	0.000108012	1.13598E-05	0	0	0	
0.0555	0.00268672	-0.000201916	0.000107963	9.02735E-06	0	0	0	
0.0556667	-0.00505962	0.000737831	8.84557E-05	1.01871E-05	0	0	0	
0.0558333	0.00533614	-0.000227715	8.93591E-05	9.82401E-06	0	0	0	
0.056	-0.0064132	-0.000182767	0.000102445	9.16436E-06	0	0	0	
0.0561667	0.00262873	-0.00109858	0.000126724	1.11138E-05	0	0	0	
0.0563333	-0.00206655	0.000584277	0.00012619	1.29239E-05	0	0	0	
0.0565	0.00527314	0.00116076	0.000114812	2.07283E-05	0	0	0	
0.0566667	-0.00612317	-0.000424263	0.000110479	2.30334E-05	0	0	0	
0.0568333	0.00545328	-0.00063898	0.000121137	1.99781E-05	0	0	0	
0.057	-0.00270738	0.000499966	0.00011801	1.58957E-05	0	0	0	
0.0571667	0.00315807	-0.000997382	9.30752E-05	1.85656E-05	0	0	0	
0.0573333	-0.00265638	0.0032918	6.59474E-05	3.64698E-05	0	0	0	
0.0575	0.00288459	-0.00408481	6.25903E-05	5.4197E-05	0	0	0	
0.0576667	0.00199659	0.00210477	6.46581E-05	6.34035E-05	0	0	0	
0.0578333	0.00253623	0.00154655	8.65168E-05	7.34339E-05	0	0	0	
0.058	-0.00921184	-0.00395352	0.00012769	6.97385E-05	0	0	0	
0.0581667	0.0126025	0.0017366	0.000175553	7.41887E-05	0	0	0	
0.0583333	-0.0060369	0.00136951	0.000194577	7.05567E-05	0	0	0	
0.0585	0.000682649	-0.0016029	0.000144931	6.91009E-05	0	0	0	
0.0586667	-0.00276616	0.000833413	9.44295E-05	6.4351E-05	0	0	0	
0.0588333	0.00582113	-0.00104074	6.11E-05	5.10649E-05	0	0	0	
0.059	-0.00520637	4.82459E-05	8.73735E-05	4.02621E-05	0	0	0	
0.0591667	0.000924418	0.00155245	0.000107924	4.35752E-05	0	0	0	
0.0593333	-0.00297784	-0.0031364	0.000136071	4.53348E-05	0	0	0	
0.0595	0.00674263	0.000359238	0.000130026	6.02134E-05	0	0	0	
0.0596667	-0.00341919	0.00239659	0.000128047	5.88522E-05	0	0	0	
0.0598333	-0.00132309	-0.000945469	8.91822E-05	5.90703E-05	0	0	0	
0.06	-0.00228572	-0.00105156	9.19881E-05	5.64856E-05	0	0	0	
0.0601667	0.00393774	0.000269486	9.62535E-05	3.70241E-05	0	0	0	
0.0603333	-0.00610849	6.60053E-05	0.000106246	2.85284E-05	0	0	0	
0.0605	0.00402889	-0.000138935	0.000107851	1.0679E-05	0	0	0	
0.0606667	-0.00269579	-0.000287904	9.29008E-05	9.67159E-06	0	0	0	
0.0608333	0.00514309	0.000398717	9.73573E-05	1.14964E-05	0	0	0	
0.061	-0.00514738	-0.000191802	0.000101979	2.29166E-05	0	0	0	
0.0611667	0.00501932	-2.56548E-06	9.95126E-05	2.77774E-05	0	0	0	
0.0613333	-0.00428355	0.00010187	0.000106537	2.07686E-05	0	0	0	
0.0615	0.00160053	0.000130124	9.68377E-05	9.97459E-06	0	0	0	
0.0616667	-0.0056445	-0.000229506	0.000100378	5.53963E-06	0	0	0	
0.0618333	0.00443671	-0.000304075	0.00010817	5.81332E-06	0	0	0	
0.062	-0.00161165	6.3915E-05	0.000116218	1.38882E-05	0	0	0	
0.0621667	0.00257636	-0.000227254	0.000119407	1.78221E-05	0	0	0	
0.0623333	-0.00410325	0.000631077	9.99341E-05	2.44267E-05	0	0	0	
0.0625	0.00226656	-0.000761761	8.11447E-05	2.03928E-05	0	0	0	
0.0626667	-0.00366202	6.00891E-05	6.81043E-05	1.80554E-05	0	0	0	
0.0628333	0.0022103	0.000480275	8.03059E-05	1.19788E-05	0	0	0	
0.063	-0.00476298	0.000575169	9.63259E-05	1.39062E-05	0	0	0	
0.0631667	0.00717423	-0.00236471	0.000117481	2.37669E-05	0	0	0	
0.0633333	-0.00675983	0.000688374	0.000119894	3.03047E-05	0	0	0	
0.0635	0.00586833	0.00089474	0.000122297	3.38482E-05	0	0	0	
0.0636667	-0.00514145	-0.000108835	0.000119444	2.4889E-05	0	0	0	
0.0638333	0.00444852	-0.000318903	0.000122357	1.82828E-05	0	0	0	
0.064	-0.00302497	-0.000744097	0.00011405	9.75083E-06	0	0	0	
0.0641667	0.00449155	0.000316889	0.000112629	1.29333E-05	0	0	0	
0.0643333	-0.00597979	-0.000283641	0.000130311	1.44916E-05	0	0	0	
0.0645	0.00914217	-1.65987E-05	0.000152586	1.76719E-05	0	0	0	
0.0646667	-0.00585413	0.000347799	0.000168738	1.54951E-05	0	0	0	
0.0648333	0.00490298	0.000281671	0.00014338	1.67767E-05	0	0	0	
0.065	-0.0042705	-0.000315098	0.00014162	1.30358E-05	0	0	0	
0.0651667	0.00626296	-0.000802842	0.000138112	1.02791E-05	0	0	0	
0.0653333	-0.00431849	0.0013747	0.000144711	1.7043E-05	0	0	0	
0.0655	0.00436065	-0.000965133	0.000122061	2.59962E-05	0	0	0	
0.0656667	-0.00621734	-0.00104811	0.000111897	2.81138E-05	0	0	0	
0.0658333	0.00746957	0.00298124	0.000121876	3.06068E-05	0	0	0	
0.066	-0.00138961	-1.32241E-05	0.000138654	2.81258E-05	0	0	0	
0.0661667	0.00442806	-0.00146405	0.000128975	3.77826E-05	0	0	0	
0.0663333	-0.00282784	0.000630344	0.000114606	3.11619E-05	0	0	0	
0.0665	0.00545229	0.00104337	0.000108042	2.82302E-05	0	0	0	
0.0666667	-0.0045338	-0.00106869	0.000125087	2.43372E-05	0	0	0	
0.0668333	0.00521743	0.000164972	0.000125806	2.4535E-05	0	0	0	
0.067	-0.00311754	0.0012957	0.000116993	2.86148E-05	0	0	0	
0.0671667	0.00538414	0.000519865	0.000100279	2.62514E-05	0	0	0	
0.0673333	-0.00161881	-0.00119868	9.54709E-05	2.68972E-05	0	0	0	
0.0675	0.0045717	0.000560545	9.00367E-05	2.50488E-05	0	0	0	
0.0676667	-0.00401148	1.56754E-05	0.000105828	2.11854E-05	0	0	0	
0.0678333	0.00269597	0.000185521	0.000111506	1.44433E-05	0	0	0	
0.068	-0.00317267	-2.89898E-05	0.000112331	1.14698E-05	0	0	0	
0.0681667	0.0043496	0.000637022	9.84628E-05	1.12172E-05	0	0	0	
0.0683333	-0.0040272	-0.000366792	9.76174E-05	1.88031E-05	0	0	0	
0.0685	0.00686402	-0.000354687	0.000109304	2.18188E-05	0	0	0	
0.0686667	-0.00728405	0.000124326	0.000134646	2.12909E-05	0	0	0	
0.0688333	0.0033889	3.192E-05	0.000140332	1.35831E-05	0	0	0	
0.069	-0.0043589	0.000585849	0.000124512	9.5655E-06	0	0	0	
0.0691667	0.00304442	-0.000422128	8.70015E-05	1.08155E-05	0	0	0	
0.0693333	-0.00388306	0.000199932	6.56534E-05	9.83175E-06	0	0	0	
0.0695	0.00296498	0.0001226	7.13328E-05	1.2791E-05	0	0	0	
0.0696667	-0.00433098	-0.000761588	9.41635E-05	1.7686E-05	0	0	0	
0.0698333	0.00345072	-0.000360245	0.000122834	1.93399E-05	0	0	0	
0.07	-0.0044971	0.00158985	0.000130369	2.20166E-05	0	0	0	
0.0701667	0.0028803	-0.00108191	0.000113441	2.29903E-05	0	0	0	
0.0703333	-0.00560298	0.000107725	9.29654E-05	2.61912E-05	0	0	0	
0.0705	0.00519134	-0.00105585	0.000102116	2.14912E-05	0	0	0	
0.0706667	-0.00591432	0.000692172	0.000110908	1.70859E-05	0	0	0	
0.0708333	0.00628435	0.000321695	0.000125869	1.4607E-05	0	0	0	
0.071	-0.00516706	-0.000411609	0.000130799	1.50848E-05	0	0	0	
0.0711667	0.00883643	0.00117682	0.000145701	1.83293E-05	0	0	0	
0.0713333	-0.010253	-0.000236697	0.000172717	2.51975E-05	0	0	0	
0.0715	0.00433473	-0.00257813	0.000175543	2.81372E-05	0	0	0	
0.0716667	-0.0073074	0.000956931	0.000173553	3.1562E-05	0	0	0	
0.0718333	0.00322865	-0.000345713	0.000155186	3.49649E-05	0	0	0	
0.072	-0.0046863	-0.000666772	0.00013612	3.72037E-05	0	0	0	
0.0721667	0.00437645	0.00305216	0.000124949	3.69786E-05	0	0	0	
0.0723333	-0.00455163	-0.00285259	0.000111571	4.377E-05	0	0	0	
0.0725	0.000819493	-0.000920898	0.000124563	4.4419E-05	0	0	0	
0.0726667	-0.00507075	-0.000573068	0.000145033	4.0592E-05	0	0	0	
0.0728333	0.00239442	-0.0022845	0.000150848	3.3953E-05	0	0	0	
0.073	-0.00634831	0.00255009	0.000140388	3.49266E-05	0	0	0	
0.0731667	0.00416553	0.00054223	0.000110214	4.39097E-05	0	0	0	
0.0733333	-0.00655633	-0.00159803	0.000112902	4.10837E-05	0	0	0	
0.0735	0.00548819	-0.000952262	0.000134483	4.07428E-05	0	0	0	
0.0736667	-0.00392207	-0.000144389	0.00014422	3.61921E-05	0	0	0	
0.0738333	0.00147906	-0.00128822	0.000133667	2.8766E-05	0	0	0	
0.074	-0.00578138	0.00142588	0.000123609	2.60872E-05	0	0	0	
0.0741667	0.00971052	0.000172816	0.00014302	2.08087E-05	0	0	0	
0.0743333	-0.00642924	7.07734E-05	0.000169205	2.0318E-05	0	0	0	
0.0745	0.00427514	-0.000891125	0.000151337	1.87206E-05	0	0	0	
0.0746667	-0.00635373	-0.000931535	0.000143837	1.8206E-05	0	0	0	
0.0748333	0.00361983	0.00172688	0.000132429	2.34024E-05	0	0	0	
0.075	-0.0034943	0.000287183	0.000124216	2.80742E-05	0	0	0	
0.0751667	0.0014721	-8.19218E-05	0.000101454	2.80876E-05	0	0	0	
0.0753333	-0.00386297	-0.00116572	7.58041E-05	2.8664E-05	0	0	0	
0.0755	0.00679959	8.04148E-05	9.21876E-05	2.61452E-05	0	0	0	
0.0756667	-0.00478808	-0.000107671	0.000124714	2.27647E-05	0	0	0	
0.0758333	0.00186522	0.000609451	0.000144264	1.70458E-05	0	0	0	
0.076	-0.00359867	0.000120145	0.000140654	1.0845E-05	0	0	0	
0.0761667	0.00311554	-0.000677898	0.000112011	1.1001E-05	0	0	0	
0.0763333	-0.00293323	0.00117629	8.59389E-05	1.67673E-05	0	0	0	
0.0765	0.00448154	-0.00110527	8.75922E-05	2.11974E-05	0	0	0	
0.0766667	-0.00571856	-0.000197629	0.000114619	2.27107E-05	0	0	0	
0.0768333	0.00390456	-0.000566267	0.0001331	2.29572E-05	0	0	0	
0.077	-0.00466444	0.000534373	0.000124163	2.07086E-05	0	0	0	
0.0771667	0.00204896	0.000699623	0.000106975	2.55666E-05	0	0	0	
0.0773333	-0.00256256	-0.000423013	9.84875E-05	2.11351E-05	0	0	0	
0.0775	0.00517359	-0.000402774	9.72163E-05	2.56938E-05	0	0	0	
0.0776667	-0.00178589	0.000254682	8.82988E-05	2.89504E-05	0	0	0	
0.0778333	0.00293778	-0.00123488	7.65387E-05	3.67861E-05	0	0	0	
0.078	-0.00539768	0.000791937	8.86698E-05	3.17101E-05	0	0	0	
0.0781667	0.00472724	-0.000181094	9.73327E-05	2.19772E-05	0	0	0	
0.0783333	-0.00522652	0.00220716	0.000114393	1.78329E-05	0	0	0	
0.0785	0.00156292	-0.00111282	0.000113149	2.36647E-05	0	0	0	
0.0786667	-0.00179921	-0.00182087	0.000116561	3.14036E-05	0	0	0	
0.0788333	0.00473008	0.000591361	0.000115645	3.71379E-05	0	0	0	
0.079	-0.00494296	0.00223346	0.00011097	4.7494E-05	0	0	0	
0.0791667	0.00559966	-0.000820237	0.000104441	4.7808E-05	0	0	0	
0.0793333	-0.00426068	8.07997E-05	0.000126738	3.87984E-05	0	0	0	
0.0795	0.00167995	0.000515116	0.000147144	2.36259E-05	0	0	0	
0.0796667	-0.0030873	-0.00061821	0.000143969	1.59804E-05	0	0	0	
0.0798333	0.00440143	-0.000841892	0.000116818	2.13003E-05	0	0	0	
0.08	-0.00514373	0.00213878	9.37639E-05	2.71032E-05	0	0	0	
0.0801667	0.00507677	0.00059591	0.000106815	2.87397E-05	0	0	0	
0.0803333	-0.000275787	-0.000511391	0.000117257	2.30592E-05	0	0	0	
0.0805	0.000368735	-0.000802672	0.000111375	1.73726E-05	0	0	0	
0.0806667	-0.00280191	0.000201489	9.74514E-05	2.0283E-05	0	0	0	
0.0808333	0.0051462	0.000638616	0.000111642	1.72987E-05	0	0	0	
0.081	-0.00310621	0.000655734	0.000143254	2.04695E-05	0	0	0	
0.0811667	0.00138967	-2.86338E-05	0.000150552	1.42394E-05	0	0	0	
0.0813333	-0.00140497	0.000427677	0.000121568	1.45889E-05	0	0	0	
0.0815	0.00622231	-0.00077744	9.35647E-05	8.34977E-06	0	0	0	
0.0816667	-0.00600078	9.64502E-05	0.000109653	1.21702E-05	0	0	0	
0.0818333	0.00237674	-0.00045531	0.000138472	1.21001E-05	0	0	0	
0.082	0.000855712	0.00155449	0.000150861	1.48541E-05	0	0	0	
0.0821667	0.00266081	-0.000202928	0.000127026	1.47069E-05	0	0	0	
0.0823333	-0.00159812	-1.57835E-05	0.000103445	1.61428E-05	0	0	0	
0.0825	0.00375691	-0.000694589	9.93599E-05	1.60845E-05	0	0	0	
0.0826667	-0.000118559	0.000702456	0.000118142	1.78853E-05	0	0	0	
0.0828333	0.00228404	-0.000828653	0.000121747	2.21219E-05	0	0	0	
0.083	-0.00196241	0.00174086	0.000105072	2.74404E-05	0	0	0	
0.0831667	0.00344862	7.08099E-05	8.00812E-05	3.0177E-05	0	0	0	
0.0833333	-0.000871567	-0.000950895	8.00373E-05	2.93134E-05	0	0	0	
0.0835	0.00338807	-0.000141381	9.73606E-05	2.3002E-05	0	0	0	
0.0836667	-0.0038572	0.000435768	0.000115226	1.89956E-05	0	0	0	
0.0838333	0.00400366	-0.000480411	0.000123004	1.73429E-05	0	0	0	
0.084	-0.00288831	0.00122126	0.000124174	2.16885E-05	0	0	0	
0.0841667	0.00604212	-0.000262883	0.000114062	2.14749E-05	0	0	0	
0.0843333	-0.00677324	-0.00135338	0.000119789	2.20703E-05	0	0	0	
0.0845	0.00480531	0.0011205	0.000137236	2.11428E-05	0	0	0	
0.0846667	-0.00421255	-0.000834275	0.000161175	2.06767E-05	0	0	0	
0.0848333	0.00272242	-0.000781	0.000158481	2.0823E-05	0	0	0	
0.085	-0.00250134	0.003064	0.000111647	2.60821E-05	0	0	0	
0.0851667	0.00283738	-0.00231172	7.76482E-05	3.71356E-05	0	0	0	
0.0853333	-0.00338301	-0.000995855	9.26566E-05	4.81178E-05	0	0	0	
0.0855	0.00231948	-6.07445E-05	0.000173316	3.738E-05	0	0	0	
0.0856667	-0.002162	0.000788206	0.000219771	2.85707E-05	0	0	0	
0.0858333	0.00329619	0.0022617	0.000215245	4.11975E-05	0	0	0	
0.086	-0.00856946	-0.00121944	0.000183537	4.88406E-05	0	0	0	
0.0861667	0.00274797	-0.00284544	0.000170428	7.70904E-05	0	0	0	
0.0863333	-0.00512671	0.00227823	0.000133532	6.2347E-05	0	0	0	
0.0865	0.00105089	-0.000334421	0.000117855	6.27336E-05	0	0	0	
0.0866667	-0.00248095	0.00087349	9.71915E-05	3.36816E-05	0	0	0	
0.0868333	0.00230148	0.000426013	0.00011881	2.79422E-05	0	0	0	
0.087	-0.00201933	0.000334798	0.000114793	2.28019E-05	0	0	0	
0.0871667	0.000520429	-0.00135478	0.000105735	2.72715E-05	0	0	0	
0.0873333	-0.0079929	-0.00116801	9.2158E-05	2.75968E-05	0	0	0	
0.0875	0.00238553	0.000874025	0.000125707	2.82635E-05	0	0	0	
0.0876667	-0.00259812	0.00343549	0.000166333	3.12688E-05	0	0	0	
0.0878333	0.00377338	-0.00105224	0.000180575	4.0483E-05	0	0	0	
0.088	-0.00317444	-0.00192785	0.000134027	4.75564E-05	0	0	0	
0.0881667	0.00305282	-0.000616473	9.26594E-05	5.76245E-05	0	0	0	
0.0883333	-0.00481962	0.000839366	8.76252E-05	4.73544E-05	0	0	0	
0.0885	0.0010611	0.000452959	0.000112391	5.17383E-05	0	0	0	
0.0886667	1.27228E-06	0.00253321	0.000129531	3.51832E-05	0	0	0	
0.0888333	0.00415136	-0.00271516	0.000119924	4.58737E-05	0	0	0	
0.089	-0.00576123	-0.00135852	0.000121581	3.97517E-05	0	0	0	
0.0891667	0.0038578	0.000692412	0.000127267	4.37227E-05	0	0	0	
0.0893333	-0.0077288	0.000969967	0.000138539	3.60224E-05	0	0	0	
0.0895	0.00503857	0.000520182	0.000140159	3.50861E-05	0	0	0	
0.0896667	-0.00178167	0.00071657	0.000124816	2.85169E-05	0	0	0	
0.0898333	0.0024469	-0.00180772	0.000104006	3.05006E-05	0	0	0	
0.09	-0.00386738	-0.00204507	8.8735E-05	2.95698E-05	0	0	0	
0.0901667	0.00440773	0.00224928	0.0001169	3.86747E-05	0	0	0	
0.0903333	-0.00903565	0.00186795	0.00015808	5.21735E-05	0	0	0	
0.0905	0.00576731	-0.002019	0.000178861	5.23405E-05	0	0	0	
0.0906667	5.90083E-05	0.000169296	0.000155436	5.31929E-05	0	0	0	
0.0908333	0.00257685	-0.00108662	0.00012404	3.13652E-05	0	0	0	
0.091	-0.00562971	0.00119161	9.24372E-05	2.78189E-05	0	0	0	
0.0911667	0.00139975	0.000531845	8.45726E-05	2.37797E-05	0	0	0	
0.0913333	-0.00166739	-0.000405619	9.46946E-05	2.41822E-05	0	0	0	
0.0915	0.00247196	-0.000114083	0.000122843	1.86771E-05	0	0	0	
0.0916667	-0.000983575	-0.000641767	0.000132747	1.17853E-05	0	0	0	
0.0918333	0.00220358	-0.000981497	0.000112333	1.9323E-05	0	0	0	
0.092	-0.0033806	0.00172101	8.92212E-05	2.53755E-05	0	0	0	
0.0921667	0.00530419	0.000949943	0.000102342	3.56677E-05	0	0	0	
0.0923333	-0.00499308	-0.000942941	0.000148307	2.7545E-05	0	0	0	
0.0925	0.00392155	-0.00222341	0.00015954	3.60211E-05	0	0	0	
0.0926667	-0.00272583	0.00143615	0.000131166	3.28856E-05	0	0	0	
0.0928333	0.00291969	0.00108926	8.53072E-05	4.86692E-05	0	0	0	
0.093	-0.00272676	-0.000179268	7.06074E-05	4.11567E-05	0	0	0	
0.0931667	0.00411445	-0.00202961	7.17808E-05	4.30303E-05	0	0	0	
0.0933333	-0.00270303	0.000591181	9.04388E-05	3.64247E-05	0	0	0	
0.0935	0.00176686	-0.00026964	8.9011E-05	3.88361E-05	0	0	0	
0.0936667	-0.00192574	0.00109128	9.3691E-05	3.46417E-05	0	0	0	
0.0938333	0.00313735	5.39438E-05	9.01923E-05	2.76469E-05	0	0	0	
0.094	-0.00170868	-0.00103569	0.000107823	2.38566E-05	0	0	0	
0.0941667	0.00363249	-0.000576103	0.000126267	1.85044E-05	0	0	0	
0.0943333	-0.00365626	0.000876859	0.000153114	1.65569E-05	0	0	0	
0.0945	0.00240113	-0.000559258	0.000154317	1.68003E-05	0	0	0	
0.0946667	-0.00457974	0.000386324	0.000137124	2.05345E-05	0	0	0	
0.0948333	0.00505853	-0.000205686	0.000107316	1.65863E-05	0	0	0	
0.095	-0.00373846	-1.18123E-05	0.00010696	1.49519E-05	0	0	0	
0.0951667	0.00161563	-0.000952701	0.000114589	1.17844E-05	0	0	0	
0.0953333	-0.000478992	0.00104301	0.000118894	1.84349E-05	0	0	0	
0.0955	-0.000132417	0.000106049	0.000101081	1.85455E-05	0	0	0	
0.0956667	-0.00390754	-0.000172749	8.91418E-05	1.91078E-05	0	0	0	
0.0958333	0.00445687	0.000190488	0.000103507	1.3827E-05	0	0	0	
0.096	-0.00159933	-0.000244546	0.00012777	1.10413E-05	0	0	0	
0.0961667	0.000588276	-0.000409341	0.000140335	8.99061E-06	0	0	0	
0.0963333	-0.000304855	0.000963094	0.000117372	1.20116E-05	0	0	0	
0.0965	0.0018018	-0.000276454	8.65498E-05	1.41516E-05	0	0	0	
0.0966667	-0.00293388	0.000804126	7.03575E-05	1.82117E-05	0	0	0	
0.0968333	0.00699713	-0.00071579	8.79352E-05	1.99126E-05	0	0	0	
0.097	-0.00381714	-0.000160789	0.000109843	1.6654E-05	0	0	0	
0.0971667	0.00582977	7.59472E-05	0.000121413	9.90057E-06	0	0	0	
0.0973333	-0.00231706	0.000161233	0.000127376	3.54001E-06	0	0	0	
0.0975	0.00205424	0.0011942	0.000126606	4.86807E-06	0	0	0	
0.0976667	-0.00216478	-0.000280187	0.000125564	1.37452E-05	0	0	0	
0.0978333	0.00642225	-0.0010786	0.000108827	2.60025E-05	0	0	0	
0.098	-0.00185938	0.00067191	0.000104953	2.78006E-05	0	0	0	
0.0981667	0.00118307	3.24447E-06	0.000110452	2.44872E-05	0	0	0	
0.0983333	0.000614229	0.00133246	0.000117932	1.77075E-05	0	0	0	
0.0985	-0.00339982	-0.000579552	0.000110097	2.5394E-05	0	0	0	
0.0986667	-0.00088499	-0.00201585	0.00010498	3.79427E-05	0	0	0	
0.0988333	0.0106145	0.00276886	0.000137969	4.48507E-05	0	0	0	
0.099	-0.00920576	0.00137087	0.00018569	6.53291E-05	0	0	0	
0.0991667	0.00148734	-0.00389909	0.000185028	7.97339E-05	0	0	0	
0.0993333	0.00308291	0.00311691	0.0001562	8.73157E-05	0	0	0	
0.0995	-0.000139955	-0.00130252	9.83575E-05	6.78791E-05	0	0	0	
0.0996667	-0.00242075	0.00104211	0.000117242	4.27113E-05	0	0	0	
0.0998333	0.00338208	0.00121411	0.00010131	3.48902E-05	0	0	0	
0.1	0.00120812	-0.00178367	0.000101959	3.29481E-05	0	0	0	
0.100167	0.00325188	0.001075	8.02714E-05	4.05385E-05	0	0	0	
0.100333	-0.00773148	6.48796E-05	9.0092E-05	4.53294E-05	0	0	0	
0.1005	0.00450601	-0.000814666	0.000119662	4.97268E-05	0	0	0	
0.100667	0.00115391	0.00117663	0.000113031	4.29736E-05	0	0	0	
0.100833	0.00423349	0.00175725	0.00012055	3.50648E-05	0	0	0	
0.101	-0.0087474	-0.00163057	0.000134245	2.9971E-05	0	0	0	
0.101167	0.00663182	-0.000791311	0.000161184	3.52473E-05	0	0	0	
0.101333	-0.00469456	0.000796331	0.000150587	3.0549E-05	0	0	0	
0.1015	0.00105167	5.23401E-05	0.000111509	2.19359E-05	0	0	0	
0.101667	-0.000735221	0.000547908	9.67945E-05	1.68827E-05	0	0	0	
0.101833	0.00296488	-0.000154904	0.000110045	1.50828E-05	0	0	0	
0.102	-0.00433619	-0.000957815	0.000131062	1.945E-05	0	0	0	
0.102167	0.00545744	0.000348499	0.000138075	1.5451E-05	0	0	0	
0.102333	-0.00596753	0.00121111	0.000133641	1.82932E-05	0	0	0	
0.1025	0.00375184	-0.000479519	0.000132807	1.89143E-05	0	0	0	
0.102667	-0.00435436	-0.00180591	0.000129582	1.85057E-05	0	0	0	
0.102833	0.00332068	0.00145774	0.000119385	2.59684E-05	0	0	0	
0.103	-0.00267336	0.000191617	0.000105884	3.25649E-05	0	0	0	
0.103167	0.00301678	1.18984E-05	9.85991E-05	4.65263E-05	0	0	0	
0.103333	-0.00431712	0.00117111	0.000108108	4.53062E-05	0	0	0	
0.1035	0.00333971	-0.000949632	0.00013095	3.75522E-05	0	0	0	
0.103667	-0.00382176	1.11925E-05	0.000155201	2.28572E-05	0	0	0	
0.103833	0.00428675	-0.000670593	0.000159552	1.61745E-05	0	0	0	
0.104	-0.00339963	-0.000677378	0.000141393	1.57084E-05	0	0	0	
0.104167	0.0014792	0.00412104	0.000117463	2.81342E-05	0	0	0	
0.104333	-0.00313221	-0.00252484	0.000109162	4.36339E-05	0	0	0	
0.1045	0.00347404	-0.000415043	0.000117826	5.7541E-05	0	0	0	
0.104667	-0.0031586	0.000929478	0.000122715	5.13529E-05	0	0	0	
0.104833	0.00437817	0.00146581	0.000114098	3.49393E-05	0	0	0	
0.105	-0.00585769	-0.00390389	9.82133E-05	4.48194E-05	0	0	0	
0.105167	0.00671318	0.0021553	0.0001123	7.05727E-05	0	0	0	
0.105333	-0.00201754	0.00130532	0.000120358	7.37778E-05	0	0	0	
0.1055	0.00321697	0.000511553	0.000112102	4.94504E-05	0	0	0	
0.105667	-0.00264885	-0.000773252	0.000100245	1.95111E-05	0	0	0	
0.105833	0.00310627	0.00110505	0.000112791	1.78849E-05	0	0	0	
0.106	-0.00589279	-0.00299001	0.000135766	2.53265E-05	0	0	0	
0.106167	0.00460902	0.0024805	0.000148	4.2396E-05	0	0	0	
0.106333	-8.77444E-05	-0.000457812	0.000134546	5.05154E-05	0	0	0	
0.1065	0.00124832	0.00119021	0.000121065	4.76727E-05	0	0	0	
0.106667	-0.00438905	0.000478861	9.59267E-05	3.82769E-05	0	0	0	
0.106833	0.0033431	-0.000722571	9.45875E-05	2.83402E-05	0	0	0	
0.107	-0.00428649	-0.000182381	0.000105462	2.62479E-05	0	0	0	
0.107167	0.00545681	-0.000175331	0.000123617	1.95335E-05	0	0	0	
0.107333	-0.00671716	-1.16348E-05	0.000130732	2.88994E-05	0	0	0	
0.1075	0.00408319	0.000109855	0.000133545	3.20349E-05	0	0	0	
0.107667	-0.00428147	-3.01683E-05	0.000126159	3.27499E-05	0	0	0	
0.107833	0.00389511	0.000435302	0.00012033	2.23159E-05	0	0	0	
0.108	-0.00205992	-0.000117472	0.000110912	1.37674E-05	0	0	0	
0.108167	0.00137623	0.000164257	0.000104789	9.77842E-06	0	0	0	
0.108333	-0.00345157	-0.0016637	0.000103082	1.53457E-05	0	0	0	
0.1085	0.00161744	0.00135872	0.000107303	2.25268E-05	0	0	0	
0.108667	-0.0010835	-0.000942724	0.000106587	2.76167E-05	0	0	0	
0.108833	0.00306618	0.000181009	9.79869E-05	2.31264E-05	0	0	0	
0.109	-0.00357623	0.00140242	9.62221E-05	1.99395E-05	0	0	0	
0.109167	0.00212893	-0.00154348	9.95866E-05	2.20417E-05	0	0	0	
0.109333	-0.00385096	0.000399793	0.000103909	2.37493E-05	0	0	0	
0.1095	0.00440063	-0.000390315	0.000111039	1.93482E-05	0	0	0	
0.109667	-0.00453135	0.000176276	0.000120802	1.13815E-05	0	0	0	
0.109833	0.00393987	-0.000240119	0.000129095	9.66989E-06	0	0	0	
0.11	-0.00190818	0.000508201	0.00011877	1.56524E-05	0	0	0	
0.110167	0.00279976	0.000511341	0.000103118	1.88828E-05	0	0	0	
0.110333	-0.00266178	-0.000858063	9.66065E-05	2.08357E-05	0	0	0	
0.1105	0.00315652	0.000226058	9.30399E-05	2.14511E-05	0	0	0	
0.110667	-0.00209214	-1.80088E-05	0.000105036	2.07322E-05	0	0	0	
0.110833	0.00213161	0.00041132	0.000114335	1.67227E-05	0	0	0	
0.111	-0.00238469	0.000792725	0.00011424	1.21154E-05	0	0	0	
0.111167	0.00286458	-0.0022574	8.84541E-05	1.68859E-05	0	0	0	
0.111333	-0.00126245	0.000662629	6.93986E-05	2.58356E-05	0	0	0	
0.1115	0.00212363	0.00147486	6.8645E-05	2.74237E-05	0	0	0	
0.111667	-0.00490135	-0.00139709	0.000109551	2.8107E-05	0	0	0	
0.111833	0.00215534	0.00174261	0.000148289	2.46398E-05	0	0	0	
0.112	-0.00766626	-0.00337041	0.000165882	3.61854E-05	0	0	0	
0.112167	0.010075	0.00173935	0.000182839	5.1412E-05	0	0	0	
0.112333	-0.00673411	0.00145993	0.000170514	7.97043E-05	0	0	0	
0.1125	-0.000619281	-0.00306471	0.000147047	7.94092E-05	0	0	0	
0.112667	0.00487584	0.00232909	9.39512E-05	7.72597E-05	0	0	0	
0.112833	-0.00136415	-0.000470366	0.000122047	6.46864E-05	0	0	0	
0.113	-0.00740511	-0.00133401	0.000198617	6.84401E-05	0	0	0	
0.113167	0.00631611	0.00194843	0.000276517	6.86357E-05	0	0	0	
0.113333	-0.000801179	-0.00178142	0.000259052	5.97697E-05	0	0	0	
0.1135	0.00369488	0.000258721	0.000189657	4.68365E-05	0	0	0	
0.113667	-0.00427057	0.00120583	0.000117808	4.40805E-05	0	0	0	
0.113833	0.00153231	-0.00314883	8.19226E-05	4.79217E-05	0	0	0	
0.114	0.00225829	0.00131284	7.36864E-05	5.55988E-05	0	0	0	
0.114167	-0.00201455	0.00163277	0.00012253	4.35677E-05	0	0	0	
0.114333	-0.00170823	5.64366E-05	0.00016638	4.01409E-05	0	0	0	
0.1145	0.00384146	-0.00201442	0.000163896	3.55741E-05	0	0	0	
0.114667	-0.00555331	0.000184212	0.00012686	3.30045E-05	0	0	0	
0.114833	0.0033901	-0.000529608	0.000112313	2.1418E-05	0	0	0	
0.115	-0.00286804	0.000800238	0.000146031	1.70308E-05	0	0	0	
0.115167	0.00273068	0.000489652	0.000152469	1.2793E-05	0	0	0	
0.115333	-0.00200709	-0.000787031	0.000130312	1.47229E-05	0	0	0	
0.1155	0.00225923	0.00100418	0.000105065	1.24189E-05	0	0	0	
0.115667	-0.00398691	-0.00133672	0.000105073	1.95202E-05	0	0	0	
0.115833	0.00527148	0.000576218	0.000131083	2.1057E-05	0	0	0	
0.116	-0.00505785	0.000740728	0.000156311	1.99329E-05	0	0	0	
0.116167	0.00558056	-0.00106374	0.000160407	1.75123E-05	0	0	0	
0.116333	-0.00208609	-0.000116887	0.000148645	1.4476E-05	0	0	0	
0.1165	0.00159718	0.00120086	0.000118486	1.91504E-05	0	0	0	
0.116667	-0.00345414	-0.000144057	0.000100104	1.96487E-05	0	0	0	
0.116833	0.00146592	-0.00148946	0.000110857	2.69956E-05	0	0	0	
0.117	-0.00237204	0.00071062	0.000154636	3.04534E-05	0	0	0	
0.117167	0.00321649	-9.17888E-05	0.000183096	3.07267E-05	0	0	0	
0.117333	-0.00304559	0.00128926	0.000158005	3.08364E-05	0	0	0	
0.1175	0.000568021	-0.000915256	0.000101541	2.78734E-05	0	0	0	
0.117667	-0.00100957	-0.002025	5.86999E-05	3.39028E-05	0	0	0	
0.117833	-0.00129632	0.0012497	7.57157E-05	3.46954E-05	0	0	0	
0.118	-0.00212655	0.000864102	0.000119426	5.32679E-05	0	0	0	
0.118167	0.00178477	-1.47403E-05	0.000140608	5.27692E-05	0	0	0	
0.118333	-0.00316537	-0.000841333	0.000115807	4.68297E-05	0	0	0	
0.1185	0.00362931	0.000521348	9.70015E-05	2.49098E-05	0	0	0	
0.118667	-0.00346076	-0.00112676	9.38721E-05	1.79941E-05	0	0	0	
0.118833	0.00134142	0.00027685	9.0576E-05	2.09978E-05	0	0	0	
0.119	0.00164685	0.000408957	7.48342E-05	2.61969E-05	0	0	0	
0.119167	0.00107221	0.000641655	9.01213E-05	2.1957E-05	0	0	0	
0.119333	-0.00645366	-0.000349742	0.000113684	2.4127E-05	0	0	0	
0.1195	0.00364095	-0.000315814	0.000129428	1.68084E-05	0	0	0	
0.119667	-0.00213764	-0.000226913	0.000106601	2.03598E-05	0	0	0	
0.119833	0.00327893	0.000537961	0.000103475	1.18782E-05	0	0	0	
0.12	-0.00451544	0.000250281	0.00011068	1.16815E-05	0	0	0	
0.120167	0.00213307	-0.000446443	0.000123911	1.93576E-05	0	0	0	
0.120333	-0.00126026	0.000745324	0.000114903	3.24666E-05	0	0	0	
0.1205	0.000491517	0.000620669	0.000106237	3.51873E-05	0	0	0	
0.120667	-0.00315462	-0.00169896	0.000107079	3.22449E-05	0	0	0	
0.120833	0.00283583	0.000709284	0.000123601	2.38592E-05	0	0	0	
0.121	-0.002622	0.00108379	0.000133557	2.26727E-05	0	0	0	
0.121167	0.0040626	-0.000159558	0.000136903	1.83577E-05	0	0	0	
0.121333	-0.00134429	0.00044692	0.000131087	1.55762E-05	0	0	0	
0.1215	9.9553E-05	-0.00105907	0.000116141	1.61049E-05	0	0	0	
0.121667	-0.000441681	0.00023607	0.000106329	1.46857E-05	0	0	0	
0.121833	0.00159826	0.0004127	0.00010429	1.35352E-05	0	0	0	
0.122	-0.00231269	0.000290274	0.000111232	1.51422E-05	0	0	0	
0.122167	0.00287817	0.000186705	0.00010802	1.35387E-05	0	0	0	
0.122333	-0.00163443	8.6337E-06	0.000104408	1.45433E-05	0	0	0	
0.1225	0.00180461	-0.000593765	9.97414E-05	1.81234E-05	0	0	0	
0.122667	-0.00354317	-0.000162547	0.000103775	2.07955E-05	0	0	0	
0.122833	0.00228441	-0.000271697	0.000103798	1.77234E-05	0	0	0	
0.123	-0.00390064	0.00080057	0.000107091	1.15737E-05	0	0	0	
0.123167	0.00315794	-2.64547E-05	0.000110626	9.16635E-06	0	0	0	
0.123333	-0.00508737	-0.00071144	0.00011477	1.01837E-05	0	0	0	
0.1235	0.00145544	0.000198353	0.000123977	1.00787E-05	0	0	0	
0.123667	-0.00108655	-0.000220306	0.000132546	8.96268E-06	0	0	0	
0.123833	0.00157662	-0.0011702	0.000142933	1.12723E-05	0	0	0	
0.124	-0.00396384	0.00123495	0.000150534	1.51589E-05	0	0	0	
0.124167	0.00485013	-0.000494062	0.000145447	1.88121E-05	0	0	0	
0.124333	-0.00530544	0.00145043	0.000134917	2.01628E-05	0	0	0	
0.1245	-0.000985516	-0.00141544	0.000105543	2.26375E-05	0	0	0	
0.124667	0.000657375	-0.000743017	9.09486E-05	2.20798E-05	0	0	0	
0.124833	0.000380467	0.000908258	8.95237E-05	2.10656E-05	0	0	0	
0.125	-0.00130537	-0.000749475	0.000113285	1.77229E-05	0	0	0	
0.125167	0.00443954	0.000814062	0.000136266	2.35748E-05	0	0	0	
0.125333	-0.00848542	0.00138615	0.000143582	4.12505E-05	0	0	0	
0.1255	0.00349315	-0.00244635	0.000142506	5.33068E-05	0	0	0	
0.125667	0.00259912	0.000187304	0.000127468	5.00436E-05	0	0	0	
0.125833	0.000355145	-0.000594464	0.000121353	3.62472E-05	0	0	0	
0.126	-0.00187151	0.000181737	0.000114328	2.69273E-05	0	0	0	
0.126167	0.00634181	0.00186489	0.000123269	2.70318E-05	0	0	0	
0.126333	-0.00610391	-0.00151985	0.000142228	3.06689E-05	0	0	0	
0.1265	0.00479269	9.86912E-05	0.000148067	3.92434E-05	0	0	0	
0.126667	-0.000679795	-0.000172106	0.000135297	4.37964E-05	0	0	0	
0.126833	0.00527771	-0.00198751	9.34106E-05	4.66476E-05	0	0	0	
0.127	-0.00216987	0.00188753	8.28675E-05	4.19032E-05	0	0	0	
0.127167	0.00245331	0.00089603	8.06496E-05	3.70377E-05	0	0	0	
0.127333	-0.00240373	0.000205328	0.000114812	3.43335E-05	0	0	0	
0.1275	0.00425464	-0.00185871	0.000137492	3.38229E-05	0	0	0	
0.127667	-0.00461438	-0.000849979	0.00016068	3.57212E-05	0	0	0	
0.127833	0.00374857	0.0012898	0.00015961	2.87961E-05	0	0	0	
0.128	-0.00317398	-0.00017319	0.000162526	2.65476E-05	0	0	0	
0.128167	0.00386527	0.00160302	0.000164789	2.71408E-05	0	0	0	
0.128333	-0.0039627	-0.00170336	0.000156438	3.24269E-05	0	0	0	
0.1285	-0.000313885	-0.000721329	0.000128964	3.53256E-05	0	0	0	
0.128667	-0.00075564	0.000193346	0.000115457	2.60323E-05	0	0	0	
0.128833	0.00236423	0.000874342	0.000129474	2.10467E-05	0	0	0	
0.129	-0.00318542	0.000419129	0.000140926	1.10935E-05	0	0	0	
0.129167	0.00345414	-0.000918926	0.000131404	1.7635E-05	0	0	0	
0.129333	-0.00103902	0.000888144	9.48187E-05	1.9738E-05	0	0	0	
0.1295	0.00269886	-0.00135755	7.17534E-05	3.01673E-05	0	0	0	
0.129667	-6.5158E-05	0.00113372	7.54931E-05	2.87482E-05	0	0	0	
0.129833	0.0015549	0.000612729	9.29957E-05	2.65E-05	0	0	0	
0.13	-0.00424972	-0.00017891	0.000114862	1.59614E-05	0	0	0	
0.130167	0.00653272	-0.000196562	0.000133324	1.56034E-05	0	0	0	
0.130333	-0.00249096	0.000802109	0.000139808	1.97752E-05	0	0	0	
0.1305	-0.000714935	-0.000178054	0.000122068	2.16593E-05	0	0	0	
0.130667	0.00133106	-0.0014754	0.000111292	2.30477E-05	0	0	0	
0.130833	0.00389643	0.000323716	0.00012669	2.07239E-05	0	0	0	
0.131	-0.00305346	0.00184096	0.000164284	3.05459E-05	0	0	0	
0.131167	0.00284864	0.000175291	0.000178783	2.97937E-05	0	0	0	
0.131333	-0.000477466	-0.00158206	0.000169758	2.80357E-05	0	0	0	
0.1315	0.00377231	6.55755E-05	0.00012983	2.33899E-05	0	0	0	
0.131667	-0.00121329	-7.82036E-05	9.7198E-05	2.21198E-05	0	0	0	
0.131833	-0.00106702	-1.32914E-06	5.78461E-05	1.91297E-05	0	0	0	
0.132	5.43628E-05	-0.000373528	6.84248E-05	1.34719E-05	0	0	0	
0.132167	-4.3748E-05	0.00100911	9.17953E-05	1.19346E-05	0	0	0	
0.132333	0.000637268	0.0010453	0.000109411	1.99464E-05	0	0	0	
0.1325	0.00241529	-0.00215379	9.42071E-05	2.7702E-05	0	0	0	
0.132667	0.000353893	-0.00135924	9.21025E-05	4.13667E-05	0	0	0	
0.132833	0.00261409	0.0016512	0.000118978	3.82614E-05	0	0	0	
0.133	-0.00456936	0.0013887	0.000153463	4.26138E-05	0	0	0	
0.133167	-0.000912428	-0.000865938	0.000155525	3.28618E-05	0	0	0	
0.133333	-0.00257369	-0.00059937	0.000127771	2.81555E-05	0	0	0	
0.1335	0.00493467	-0.000559584	0.000108848	2.89724E-05	0	0	0	
0.133667	-0.00271953	0.000357237	0.000100048	2.70148E-05	0	0	0	
0.133833	-0.000747683	0.000333479	0.00011761	2.72422E-05	0	0	0	
0.134	0.000208571	0.000913232	0.000128899	1.6818E-05	0	0	0	
0.134167	0.000843847	-0.000679682	0.00013091	1.55026E-05	0	0	0	
0.134333	-0.00342578	-0.000822278	0.000117717	1.67274E-05	0	0	0	
0.1345	0.00505136	0.000187565	0.000112899	1.61284E-05	0	0	0	
0.134667	-0.00262789	8.32232E-05	0.000120103	1.27432E-05	0	0	0	
0.134833	-0.000903977	0.000421591	0.000136737	9.19923E-06	0	0	0	
0.135	-0.00217218	0.000639233	0.00013627	1.53649E-05	0	0	0	
0.135167	0.00253217	-0.000373669	0.000134636	2.14133E-05	0	0	0	
0.135333	-0.00203801	-0.00022623	0.000122647	2.05398E-05	0	0	0	
0.1355	0.00547108	-0.00022873	0.000115798	1.20308E-05	0	0	0	
0.135667	-0.0021259	6.6332E-05	0.000116614	5.8688E-06	0	0	0	
0.135833	0.000229368	0.000755182	0.000122835	6.67546E-06	0	0	0	
0.136	0.000780394	-5.66365E-05	0.000130428	7.56386E-06	0	0	0	
0.136167	-0.00494533	-2.41071E-05	0.000131194	1.32584E-05	0	0	0	
0.136333	0.000961638	-0.000582093	0.000127394	2.24052E-05	0	0	0	
0.1365	0.00391713	0.000389891	0.000133504	2.00883E-05	0	0	0	
0.136667	-0.00186348	-0.000202743	0.000145444	1.5728E-05	0	0	0	
0.136833	0.000844105	0.000676412	0.000147697	7.14187E-06	0	0	0	
0.137	-0.00187795	0.00037408	0.000128689	1.55641E-05	0	0	0	
0.137167	0.000719574	-0.00106167	9.11672E-05	2.06135E-05	0	0	0	
0.137333	-0.00485051	-0.000645347	7.38278E-05	2.23398E-05	0	0	0	
0.1375	9.06916E-05	-0.000303727	7.96794E-05	1.52051E-05	0	0	0	
0.137667	-0.00144114	0.0012888	8.45947E-05	1.53803E-05	0	0	0	
0.137833	-9.42474E-05	0.000263022	9.19637E-05	2.40558E-05	0	0	0	
0.138	-0.00512201	-0.0010933	9.66949E-05	2.50138E-05	0	0	0	
0.138167	0.00258658	0.000313224	0.000128851	2.36188E-05	0	0	0	
0.138333	-0.00217062	-0.000126136	0.00014489	1.28679E-05	0	0	0	
0.1385	-0.00192935	-0.000724274	0.000146727	1.18666E-05	0	0	0	
0.138667	-0.00294956	0.00165669	0.000120522	1.75844E-05	0	0	0	
0.138833	0.00109732	-0.00300836	9.55299E-05	3.34126E-05	0	0	0	
0.139	0.00185957	0.00315327	6.04054E-05	4.90528E-05	0	0	0	
0.139167	-0.00333464	0.000364932	5.58864E-05	5.5001E-05	0	0	0	
0.139333	-0.000301177	-0.00374897	0.000111938	6.13931E-05	0	0	0	
0.1395	0.00338034	0.00232388	0.000181385	6.02339E-05	0	0	0	
0.139667	-0.00566307	-0.00105968	0.000195352	5.25883E-05	0	0	0	
0.139833	0.005551	0.00245067	0.000166825	3.87192E-05	0	0	0	
0.14	-0.00401256	-0.00017136	0.000132304	4.80324E-05	0	0	0	
0.140167	0.00361191	-0.00257958	0.000110815	6.78649E-05	0	0	0	
0.140333	-0.000983309	0.00121504	9.27992E-05	7.10728E-05	0	0	0	
0.1405	-0.00014241	-0.00049765	9.5389E-05	5.42969E-05	0	0	0	
0.140667	-0.00148008	0.00122255	0.000119572	3.06709E-05	0	0	0	
0.140833	0.000181794	0.00104849	0.000129324	2.74245E-05	0	0	0	
0.141	0.000998995	-0.000516256	0.000116543	2.25131E-05	0	0	0	
0.141167	0.00206045	-0.00159963	8.78683E-05	2.35402E-05	0	0	0	
0.141333	-0.00197611	-0.000630393	8.18339E-05	3.34413E-05	0	0	0	
0.1415	0.000941506	0.000925669	0.000102876	3.21807E-05	0	0	0	
0.141667	-0.00255154	0.00190047	0.000134186	4.40594E-05	0	0	0	
0.141833	0.00280869	3.0014E-06	0.000131337	3.33357E-05	0	0	0	
0.142	-0.00208678	-0.00197304	0.000103855	3.67166E-05	0	0	0	
0.142167	0.00246846	-0.00202362	8.38603E-05	4.52668E-05	0	0	0	
0.142333	-0.00219427	0.00216597	8.52876E-05	5.05869E-05	0	0	0	
0.1425	0.00112286	0.000323186	0.000100232	5.45983E-05	0	0	0	
0.142667	0.000556617	0.00130851	0.000117377	3.69094E-05	0	0	0	
0.142833	0.000746867	-0.00137967	0.000128848	2.93364E-05	0	0	0	
0.143	-0.00171682	-0.00231281	0.000134834	3.43297E-05	0	0	0	
0.143167	0.00273397	0.00101882	0.000133043	4.04965E-05	0	0	0	
0.143333	-0.00287301	0.00104765	0.000129178	4.73474E-05	0	0	0	
0.1435	0.00267148	0.00082905	0.00012635	4.04337E-05	0	0	0	
0.143667	0.0021796	4.07457E-06	0.000118843	3.58417E-05	0	0	0	
0.143833	-0.00236353	-0.00201491	0.000107863	3.82533E-05	0	0	0	
0.144	-0.00140534	-0.00100522	0.000109581	4.31992E-05	0	0	0	
0.144167	0.00448208	0.00204827	0.000144968	4.12236E-05	0	0	0	
0.144333	-0.00458177	0.00197237	0.000173911	4.60519E-05	0	0	0	
0.1445	-0.00013235	-0.00185201	0.000156665	4.34418E-05	0	0	0	
0.144667	0.0030434	-0.00110906	0.000109619	4.96143E-05	0	0	0	
0.144833	0.00231501	-0.000426216	8.46005E-05	3.65175E-05	0	0	0	
0.145	-0.00298112	0.00149925	9.87723E-05	2.88554E-05	0	0	0	
0.145167	-0.000150763	0.00166225	0.000111598	3.34725E-05	0	0	0	
0.145333	-0.00117417	-0.00119149	0.000126532	3.28077E-05	0	0	0	
0.1455	0.0053752	-0.000612305	0.000139964	4.63343E-05	0	0	0	
0.145667	-0.00423391	0.000184704	0.0001324	3.021E-05	0	0	0	
0.145833	0.00320622	0.00116313	0.000120699	3.0169E-05	0	0	0	
0.146	0.000135608	0.00100618	0.000106276	2.48959E-05	0	0	0	
0.146167	0.00525918	0.000253759	0.000138674	2.94733E-05	0	0	0	
0.146333	-0.00422819	-0.000744963	0.000169345	3.34061E-05	0	0	0	
0.1465	0.00271776	-0.00133618	0.000179808	3.18514E-05	0	0	0	
0.146667	0.00110923	0.00109857	0.000152946	3.21289E-05	0	0	0	
0.146833	0.00257863	0.00298099	0.000128924	4.22809E-05	0	0	0	
0.147	-0.0027493	-5.66198E-05	0.000133505	4.06407E-05	0	0	0	
0.147167	0.000855907	-0.00277161	0.000141902	4.1093E-05	0	0	0	
0.147333	0.00249232	0.000397782	0.000139716	3.77651E-05	0	0	0	
0.1475	-0.000478107	0.00024862	0.000129025	3.53024E-05	0	0	0	
0.147667	-0.00366247	0.00173693	0.000119606	4.67644E-05	0	0	0	
0.147833	0.0057616	0.00139101	0.000121235	3.73533E-05	0	0	0	
0.148	-0.00170541	-0.0013289	0.000120308	3.85479E-05	0	0	0	
0.148167	-0.00191979	-0.00305221	0.000119608	3.94296E-05	0	0	0	
0.148333	0.00049493	0.0020511	9.54927E-05	4.71275E-05	0	0	0	
0.1485	0.00183954	0.000973899	7.03036E-05	4.47703E-05	0	0	0	
0.148667	-0.000745578	0.000608884	7.56094E-05	3.75476E-05	0	0	0	
0.148833	0.001601	-9.89458E-05	0.00011298	2.22811E-05	0	0	0	
0.149	-3.45428E-05	-0.00136776	0.000155627	2.95364E-05	0	0	0	
0.149167	0.00215425	0.000152999	0.000164384	2.14073E-05	0	0	0	
0.149333	-0.00132379	0.000225803	0.000144323	2.97003E-05	0	0	0	
0.1495	0.00194306	0.001307	0.000119928	2.18806E-05	0	0	0	
0.149667	0.00173115	-0.000164304	0.000108278	2.67466E-05	0	0	0	
0.149833	0.0024656	-0.000488792	9.33654E-05	2.31986E-05	0	0	0	
0.15	-0.000838978	-0.0010197	9.04076E-05	2.37793E-05	0	0	0	
0.150167	0.000819214	7.02001E-05	9.08563E-05	1.53509E-05	0	0	0	
0.150333	0.00214137	0.000879671	0.000111797	1.13313E-05	0	0	0	
0.1505	-0.0011246	0.000342039	0.00011732	1.19588E-05	0	0	0	
0.150667	-0.0043756	-0.000560053	0.000106879	1.33237E-05	0	0	0	
0.150833	0.00544575	-0.000143914	0.000103285	1.91964E-05	0	0	0	
0.151	-0.00257095	1.99443E-05	0.000116192	1.62203E-05	0	0	0	
0.151167	0.000135852	-0.00116632	0.000134976	1.70892E-05	0	0	0	
0.151333	0.00121604	0.00139264	0.000134232	1.83281E-05	0	0	0	
0.1515	0.000459337	8.95982E-05	0.000109309	1.90105E-05	0	0	0	
0.151667	-0.00489556	-0.000533357	9.42226E-05	1.78309E-05	0	0	0	
0.151833	0.000739425	0.000175146	0.000113244	1.26309E-05	0	0	0	
0.152	-0.000729858	-0.00133185	0.000140796	1.80882E-05	0	0	0	
0.152167	-0.00171799	0.000658487	0.000155328	1.9183E-05	0	0	0	
0.152333	-0.000318381	0.000369927	0.000135228	2.41411E-05	0	0	0	
0.1525	0.00322572	-5.64169E-05	0.000120451	2.23613E-05	0	0	0	
0.152667	-0.00345335	0.000201757	0.00011766	2.29464E-05	0	0	0	
0.152833	-0.000954559	0.000118787	0.000118755	1.63185E-05	0	0	0	
0.153	-0.000926792	-0.000376384	0.000118777	1.02766E-05	0	0	0	
0.153167	-0.000129478	-0.000165164	0.000122881	6.00388E-06	0	0	0	
0.153333	-0.000965131	7.20994E-05	0.000123385	7.52737E-06	0	0	0	
0.1535	-0.000973215	-9.49999E-05	0.000118764	9.25506E-06	0	0	0	
0.153667	-0.00208698	0.000777324	0.000105127	2.14872E-05	0	0	0	
0.153833	0.00147856	-0.00248731	8.63196E-05	3.63838E-05	0	0	0	
0.154	0.00360672	0.00251112	6.24983E-05	4.65826E-05	0	0	0	
0.154167	-0.00747824	0.00154343	7.9426E-05	6.59194E-05	0	0	0	
0.154333	0.00129087	-0.00334242	0.000141553	7.39872E-05	0	0	0	
0.1545	0.00670093	0.00142431	0.000212154	7.51156E-05	0	0	0	
0.154667	-0.00439856	-0.00107806	0.000221242	5.13349E-05	0	0	0	
0.154833	0.00501083	0.00419872	0.000175089	4.13915E-05	0	0	0	
0.155	-0.00808865	-0.00551304	0.000156374	5.85824E-05	0	0	0	
0.155167	0.00696078	0.00177763	0.000189534	7.6721E-05	0	0	0	
0.155333	-0.00668164	-0.00597354	0.000208227	8.59778E-05	0	0	0	
0.1555	-0.000704983	0.00278756	0.000192955	8.61845E-05	0	0	0	
0.155667	0.00100061	-0.0020738	0.000148512	7.22264E-05	0	0	0	
0.155833	0.00268621	0.000754166	0.000136912	5.5349E-05	0	0	0	
0.156	-0.00138596	0.00178761	0.000131816	3.11169E-05	0	0	0	
0.156167	-0.00513936	-0.00380175	0.000145026	5.5291E-05	0	0	0	
0.156333	0.00446204	-0.00225187	0.000188337	8.77284E-05	0	0	0	
0.1565	-0.00183704	-0.000523636	0.000231971	0.000118478	0	0	0	
0.156667	-0.00568719	-0.000588604	0.000242909	0.000109935	0	0	0	
0.156833	0.00505726	0.00210469	0.000214774	8.13862E-05	0	0	0	
0.157	-0.00304837	-0.000929902	0.000178047	5.06563E-05	0	0	0	
0.157167	0.00302593	0.000651879	0.000154253	2.73102E-05	0	0	0	
0.157333	-0.0031102	-0.00113642	0.000149711	1.93624E-05	0	0	0	
0.1575	0.00289204	0.000951526	0.000145481	1.84312E-05	0	0	0	
0.157667	-0.00278648	0.00161485	0.000124054	2.13905E-05	0	0	0	
0.157833	-0.00119129	0.00064932	9.80984E-05	2.77884E-05	0	0	0	
0.158	0.00270248	-0.000414482	0.00010249	2.69376E-05	0	0	0	
0.158167	-0.000134978	-0.000753074	0.000130525	2.15887E-05	0	0	0	
0.158333	-0.00192738	-0.000178092	0.000157075	1.89265E-05	0	0	0	
0.1585	-0.000717424	0.000658063	0.000163	1.59892E-05	0	0	0	
0.158667	-0.00326976	0.000960039	0.000147721	1.9587E-05	0	0	0	
0.158833	0.00220608	-8.30872E-05	0.000127823	1.3921E-05	0	0	0	
0.159	-0.00112696	-0.000974439	9.74917E-05	1.83542E-05	0	0	0	
0.159167	0.00211987	-0.000467329	9.15665E-05	1.87034E-05	0	0	0	
0.159333	-0.00477729	0.00115546	0.000100361	3.23718E-05	0	0	0	
0.1595	0.00214253	-0.00134601	0.000109932	2.91104E-05	0	0	0	
0.159667	-0.00345844	0.000385165	0.000100645	3.9453E-05	0	0	0	
0.159833	-0.0015027	-0.00024353	7.85599E-05	3.04078E-05	0	0	0	
0.16	0.00363623	0.00134177	7.82713E-05	4.10459E-05	0	0	0	
0.160167	0.000173545	0.000408886	9.741E-05	3.38661E-05	0	0	0	
0.160333	-0.00180728	-0.00229964	0.000132531	3.63544E-05	0	0	0	
0.1605	0.00120946	0.000749968	0.000160386	3.19762E-05	0	0	0	
0.160667	-0.00412914	0.00147427	0.000175749	2.57727E-05	0	0	0	
0.160833	0.00247504	-0.0015873	0.000161489	2.79101E-05	0	0	0	
0.161	0.000710378	0.0013357	0.000106936	2.76464E-05	0	0	0	
0.161167	-0.00139707	0.000179838	5.45338E-05	2.79147E-05	0	0	0	
0.161333	0.00087717	-0.00102726	3.78941E-05	2.03622E-05	0	0	0	
0.1615	0.00150107	0.000577131	6.34798E-05	1.52539E-05	0	0	0	
0.161667	-0.00167007	0.000301057	7.76694E-05	1.93589E-05	0	0	0	
0.161833	9.36374E-06	-0.000590451	6.70576E-05	2.79762E-05	0	0	0	
0.162	0.00129216	0.000967962	5.34253E-05	2.99114E-05	0	0	0	
0.162167	0.000217599	-0.00130171	5.96668E-05	3.47479E-05	0	0	0	
0.162333	-0.00143677	0.00114864	7.64606E-05	3.08194E-05	0	0	0	
0.1625	0.00293275	-0.00122521	9.54304E-05	2.98464E-05	0	0	0	
0.162667	0.000213003	0.00158438	0.000112569	2.58968E-05	0	0	0	
0.162833	0.00130998	-0.000988834	0.000117118	2.66855E-05	0	0	0	
0.163	-0.000730091	0.000559544	0.000111857	2.81801E-05	0	0	0	
0.163167	0.00270636	-7.06149E-05	9.60099E-05	3.00714E-05	0	0	0	
0.163333	-0.000738735	-0.000301255	9.46433E-05	2.8904E-05	0	0	0	
0.1635	-0.00100097	-0.000301698	0.000100821	2.74887E-05	0	0	0	
0.163667	0.000387181	0.000585	0.000105481	2.21194E-05	0	0	0	
0.163833	0.000147337	-0.000470873	8.4264E-05	2.01981E-05	0	0	0	
0.164	0.00178685	0.000632752	5.84542E-05	2.3223E-05	0	0	0	
0.164167	-0.000166822	-0.000614038	4.99949E-05	2.63162E-05	0	0	0	
0.164333	-0.00107336	0.00013297	7.12442E-05	2.57373E-05	0	0	0	
0.1645	0.000486329	-0.000384424	0.000102181	2.1106E-05	0	0	0	
0.164667	-0.000338667	8.15711E-05	0.000124693	1.71301E-05	0	0	0	
0.164833	0.000284515	0.000245221	0.000131244	1.572E-05	0	0	0	
0.165	-0.00182597	-0.000630015	0.000118237	1.78069E-05	0	0	0	
0.165167	0.00294942	0.000683432	9.82374E-05	1.85712E-05	0	0	0	
0.165333	-0.000142043	-0.00112022	8.57122E-05	2.12314E-05	0	0	0	
0.1655	-0.000670174	0.000878846	8.89993E-05	2.3324E-05	0	0	0	
0.165667	0.0025296	-0.000709279	0.000108787	2.27161E-05	0	0	0	
0.165833	-0.0018162	-3.77295E-05	0.000121183	1.85247E-05	0	0	0	
0.166	-0.000607493	0.00103001	0.000121816	1.53259E-05	0	0	0	
0.166167	0.00159844	-0.000908355	0.000110248	1.83522E-05	0	0	0	
0.166333	-0.000795385	-0.000288199	0.000106818	1.68824E-05	0	0	0	
0.1665	-0.00130183	0.00010468	0.000102976	1.40446E-05	0	0	0	
0.166667	0.00259222	0.000731545	9.53552E-05	8.04136E-06	0	0	0	
0.166833	-0.00174807	0.000663156	8.63234E-05	1.31642E-05	0	0	0	
0.167	0.000387047	-0.000770587	8.6739E-05	1.48233E-05	0	0	0	
0.167167	0.00146844	0.000226095	8.33609E-05	2.32371E-05	0	0	0	
0.167333	0.00137107	2.35572E-06	8.17603E-05	2.11588E-05	0	0	0	
0.1675	-0.00418026	0.000289336	9.81176E-05	2.6377E-05	0	0	0	
0.167667	0.000504928	-5.63105E-06	0.000120766	2.12681E-05	0	0	0	
0.167833	0.00340532	0.000619569	0.000132502	2.42687E-05	0	0	0	
0.168	-0.00234864	-0.00126174	0.000137754	2.5377E-05	0	0	0	
0.168167	0.00679585	0.00173864	0.000152405	2.8442E-05	0	0	0	
0.168333	-0.00511735	0.00188024	0.000165971	4.57971E-05	0	0	0	
0.1685	-0.0019387	-0.00452163	0.000127793	6.6163E-05	0	0	0	
0.168667	0.00625184	0.00272033	9.151E-05	7.81085E-05	0	0	0	
0.168833	-0.00190356	0.000142775	8.55384E-05	6.95214E-05	0	0	0	
0.169	-0.00276646	-0.000567656	0.000146149	4.81048E-05	0	0	0	
0.169167	0.00743874	0.000501124	0.000163307	2.91319E-05	0	0	0	
0.169333	-0.00360578	-0.000938683	0.000167115	2.07191E-05	0	0	0	
0.1695	0.0018403	0.00160803	0.000131108	2.30945E-05	0	0	0	
0.169667	-0.00193806	-0.000381674	0.000132915	3.90515E-05	0	0	0	
0.169833	-0.00127111	-0.00176597	9.85773E-05	4.94597E-05	0	0	0	
0.17	0.00235954	0.000757277	8.23188E-05	4.95239E-05	0	0	0	
0.170167	0.0029333	0.00318333	0.000114944	5.73857E-05	0	0	0	
0.170333	-0.00412401	-0.00250888	0.000189647	5.59254E-05	0	0	0	
0.1705	0.00236385	-0.00109338	0.000217165	6.46426E-05	0	0	0	
0.170667	0.00211846	0.00188039	0.000170491	5.03295E-05	0	0	0	
0.170833	-0.00237331	-0.00114112	0.000117382	4.28644E-05	0	0	0	
0.171	-0.00203419	0.000794867	0.000108054	2.7691E-05	0	0	0	
0.171167	0.00286348	0.000184696	0.0001213	1.86694E-05	0	0	0	
0.171333	-0.00110532	0.000319027	0.000116763	1.10058E-05	0	0	0	
0.1715	0.000699736	-0.000541389	9.48621E-05	1.04586E-05	0	0	0	
0.171667	-5.47561E-05	0.000487097	7.54631E-05	1.38448E-05	0	0	0	
0.171833	0.000613184	-0.000844178	7.50958E-05	2.07151E-05	0	0	0	
0.172	-0.00213838	-0.000192915	9.6622E-05	2.00503E-05	0	0	0	
0.172167	-0.000117193	0.000779881	0.000118321	1.95126E-05	0	0	0	
0.172333	0.000714351	-0.000343355	0.000123406	1.88149E-05	0	0	0	
0.1725	-0.00125763	-0.000590441	0.000118563	2.16877E-05	0	0	0	
0.172667	0.000902625	0.000594392	0.000112743	2.08611E-05	0	0	0	
0.172833	-0.00147058	-0.000794427	0.000116215	1.70244E-05	0	0	0	
0.173	0.0015799	0.000844735	0.000128572	1.59646E-05	0	0	0	
0.173167	-0.000963608	-0.000781599	0.000141662	1.72704E-05	0	0	0	
0.173333	-0.00146156	0.00077884	0.000132952	2.17704E-05	0	0	0	
0.1735	-0.0011489	5.8478E-05	9.67509E-05	1.64674E-05	0	0	0	
0.173667	0.00322618	-0.00212736	6.44564E-05	2.24912E-05	0	0	0	
0.173833	-0.00388725	0.00072506	7.89472E-05	2.14682E-05	0	0	0	
0.174	-0.00035612	0.000746035	0.000120504	3.54933E-05	0	0	0	
0.174167	0.00385792	0.000615442	0.000143864	2.74466E-05	0	0	0	
0.174333	-0.00111877	-0.000733694	0.000131223	2.36422E-05	0	0	0	
0.1745	0.00304757	-0.000122132	0.00010925	1.45572E-05	0	0	0	
0.174667	-0.00191779	0.000307329	0.000107257	1.52526E-05	0	0	0	
0.174833	-6.78196E-06	8.84889E-05	8.66733E-05	1.48712E-05	0	0	0	
0.175	0.00171198	-0.0010182	7.10004E-05	1.27279E-05	0	0	0	
0.175167	-0.000403169	0.00111645	8.38797E-05	1.59311E-05	0	0	0	
0.175333	-0.000264018	0.000337753	0.000125305	2.07188E-05	0	0	0	
0.1755	0.00149417	-0.000786884	0.000135525	2.0817E-05	0	0	0	
0.175667	0.00187613	-0.000234886	0.000108713	1.91528E-05	0	0	0	
0.175833	0.000864889	0.000356658	8.4387E-05	1.19989E-05	0	0	0	
0.176	-0.000668315	-0.000153196	9.3314E-05	8.76083E-06	0	0	0	
0.176167	-0.00312816	0.000237385	0.000107706	6.72879E-06	0	0	0	
0.176333	-0.000153013	0.00108652	0.000107366	1.47217E-05	0	0	0	
0.1765	0.00165854	-0.0012413	0.000101756	2.20034E-05	0	0	0	
0.176667	0.00101576	-0.000719503	9.02746E-05	2.33642E-05	0	0	0	
0.176833	0.0027827	0.000859863	9.16948E-05	2.23029E-05	0	0	0	
0.177	-0.00267418	0.000216994	0.000109611	1.82452E-05	0	0	0	
0.177167	0.00168418	0.00120052	0.000123102	1.65001E-05	0	0	0	
0.177333	-0.0005206	-0.000374364	0.000122997	1.6001E-05	0	0	0	
0.1775	0.000794281	0.000931026	0.000107071	2.50597E-05	0	0	0	
0.177667	-0.0011674	-0.00159997	0.000102464	3.48258E-05	0	0	0	
0.177833	0.00267638	0.000620342	0.000112709	3.61007E-05	0	0	0	
0.178	0.00216286	0.000505256	0.000130195	2.78151E-05	0	0	0	
0.178167	0.00082089	0.000888108	0.000149326	2.3E-05	0	0	0	
0.178333	-0.00229351	-0.0005312	0.00017126	1.71936E-05	0	0	0	
0.1785	0.00305507	0.00177513	0.00016776	2.13318E-05	0	0	0	
0.178667	-0.000597748	-0.00167009	0.000146607	2.54484E-05	0	0	0	
0.178833	-0.00238867	0.000380358	0.000120646	2.61476E-05	0	0	0	
0.179	0.00068818	-0.000461611	0.000102989	2.37561E-05	0	0	0	
0.179167	-0.00208353	-0.00041733	8.76577E-05	1.48313E-05	0	0	0	
0.179333	0.00276261	0.00104067	8.18173E-05	1.49114E-05	0	0	0	
0.1795	-0.00310099	0.000206466	0.000111559	1.40623E-05	0	0	0	
0.179667	0.00184496	-0.000851242	0.000150574	2.30337E-05	0	0	0	
0.179833	-0.000333601	0.000521653	0.000158321	2.42272E-05	0	0	0	
0.18	-0.0035899	-0.00112476	0.000132302	2.37864E-05	0	0	0	
0.180167	-0.000828051	0.00125584	0.000115589	1.85073E-05	0	0	0	
0.180333	-0.00066991	-0.00123278	0.000116088	2.35069E-05	0	0	0	
0.1805	-0.000655461	-0.000549814	0.000126378	2.2533E-05	0	0	0	
0.180667	0.00181134	0.0011778	0.000120728	1.98406E-05	0	0	0	
0.180833	-0.000607914	-0.000301833	0.000101183	1.61215E-05	0	0	0	
0.181	0.000688833	-6.47369E-05	7.01937E-05	1.36267E-05	0	0	0	
0.181167	-0.00183581	0.0014166	4.61062E-05	1.49235E-05	0	0	0	
0.181333	0.00240899	-0.00106625	4.35542E-05	2.17424E-05	0	0	0	
0.1815	-0.00225207	0.00022126	6.74819E-05	2.688E-05	0	0	0	
0.181667	-0.000109532	0.000119251	0.000102998	3.05153E-05	0	0	0	
0.181833	0.00357932	-0.000660421	0.000130637	3.16574E-05	0	0	0	
0.182	-0.00408551	0.0021506	0.000134379	3.95366E-05	0	0	0	
0.182167	0.00179385	-0.00175511	0.000108943	4.31521E-05	0	0	0	
0.182333	0.00173976	-2.39455E-05	9.26038E-05	4.07554E-05	0	0	0	
0.1825	0.00170199	0.00158836	9.50066E-05	3.63319E-05	0	0	0	
0.182667	0.000168082	-0.00177187	0.000112059	3.27151E-05	0	0	0	
0.182833	-0.000724298	0.00288123	0.000119568	3.75794E-05	0	0	0	
0.183	-0.000851374	-0.00156898	0.000116528	4.05428E-05	0	0	0	
0.183167	-0.00225824	-0.000592045	0.000109194	4.97815E-05	0	0	0	
0.183333	0.000331572	0.000598572	9.26161E-05	4.12495E-05	0	0	0	
0.1835	0.00133046	-0.00172707	8.29232E-05	3.61853E-05	0	0	0	
0.183667	0.0024422	0.00269333	8.74419E-05	3.35535E-05	0	0	0	
0.183833	0.00093433	0.000976938	0.000101297	5.1208E-05	0	0	0	
0.184	-0.00240059	-0.00152639	0.000123868	4.75552E-05	0	0	0	
0.184167	0.000686123	-0.0016539	0.000138197	5.51811E-05	0	0	0	
0.184333	-0.00294226	0.00108407	0.0001323	3.57392E-05	0	0	0	
0.1845	-0.0022285	5.63396E-05	0.000114807	3.73959E-05	0	0	0	
0.184667	0.00233284	0.000302231	0.000106778	1.87659E-05	0	0	0	
0.184833	0.00150858	0.00131929	0.000117111	1.57335E-05	0	0	0	
0.185	-0.000539501	-0.00160533	0.000112601	1.7629E-05	0	0	0	
0.185167	-0.0024212	3.71628E-05	9.7655E-05	2.66137E-05	0	0	0	
0.185333	-0.00083198	-0.0014488	0.000101067	2.91185E-05	0	0	0	
0.1855	-0.000636488	0.00135428	0.000123891	2.95685E-05	0	0	0	
0.185667	-0.000701719	0.00140708	0.000131836	3.52598E-05	0	0	0	
0.185833	-0.000674485	-0.000634648	0.000119748	3.85509E-05	0	0	0	
0.186	-0.000413052	-0.00195171	0.000105364	5.23644E-05	0	0	0	
0.186167	0.00131388	0.000905332	0.000112211	4.07493E-05	0	0	0	
0.186333	-0.000247659	-0.000637583	0.000122246	3.6208E-05	0	0	0	
0.1865	-0.0014972	0.00214628	0.000121799	2.44111E-05	0	0	0	
0.186667	0.00445069	0.00013757	0.000119621	2.31407E-05	0	0	0	
0.186833	-0.00483554	-0.000979271	0.000121252	2.34721E-05	0	0	0	
0.187	0.00492981	-0.00112809	0.000122975	2.53947E-05	0	0	0	
0.187167	-0.00160612	-0.000189759	0.000137682	2.35209E-05	0	0	0	
0.187333	-0.00111299	0.00208958	0.000162972	2.99347E-05	0	0	0	
0.1875	0.00361854	-0.00105491	0.000171727	2.77107E-05	0	0	0	
0.187667	0.00141273	0.00068456	0.000139584	2.80498E-05	0	0	0	
0.187833	-0.00104132	0.000210901	8.58158E-05	1.87731E-05	0	0	0	
0.188	0.00157863	-0.000796894	5.22901E-05	1.15525E-05	0	0	0	
0.188167	-0.00287033	-0.000369869	5.9259E-05	1.54853E-05	0	0	0	
0.188333	0.00110972	-0.000117074	7.71482E-05	1.79552E-05	0	0	0	
0.1885	0.00168028	0.00123393	0.000109664	1.96039E-05	0	0	0	
0.188667	-0.000202293	-0.00151602	0.00013286	2.21528E-05	0	0	0	
0.188833	-0.000598822	0.000871331	0.000143292	2.84181E-05	0	0	0	
0.189	-0.000750316	-5.06771E-05	0.000122845	2.9205E-05	0	0	0	
0.189167	-0.0013214	0.000565766	9.80586E-05	2.08727E-05	0	0	0	
0.189333	0.000387928	-0.00174508	0.000100593	1.74501E-05	0	0	0	
0.1895	0.00119856	0.000131013	0.000124472	1.92973E-05	0	0	0	
0.189667	0.00199387	0.00108306	0.000134961	1.9624E-05	0	0	0	
0.189833	-0.00322219	0.000664881	0.000126426	2.81614E-05	0	0	0	
0.19	0.00246913	-0.000890392	0.000106889	2.31147E-05	0	0	0	
0.190167	-0.00513995	-0.00109971	0.000114923	3.6164E-05	0	0	0	
0.190333	0.00403482	-0.000214353	0.000118923	2.2421E-05	0	0	0	
0.1905	-0.00162204	0.00105727	0.000121606	2.26479E-05	0	0	0	
0.190667	-7.39619E-05	0.00162921	0.000106465	2.18869E-05	0	0	0	
0.190833	0.00041961	-0.000937834	9.64965E-05	2.83972E-05	0	0	0	
0.191	0.000326757	-0.00201598	9.27066E-05	3.09523E-05	0	0	0	
0.191167	-0.0016306	0.00109009	9.39099E-05	2.89531E-05	0	0	0	
0.191333	-0.000639247	-0.000353051	9.35111E-05	2.69672E-05	0	0	0	
0.1915	0.00139131	0.00119143	9.62976E-05	3.13106E-05	0	0	0	
0.191667	-0.000686413	-0.000338229	9.57964E-05	2.22349E-05	0	0	0	
0.191833	0.000165848	-3.52741E-05	9.28404E-05	2.23519E-05	0	0	0	
0.192	0.00287546	2.09462E-05	8.73481E-05	2.11914E-05	0	0	0	
0.192167	-0.000461126	-0.00150463	8.09119E-05	3.06354E-05	0	0	0	
0.192333	0.00186639	0.00132534	9.28705E-05	3.12801E-05	0	0	0	
0.1925	-0.00171984	0.00049081	0.000109796	3.39803E-05	0	0	0	
0.192667	0.00185385	-0.000245399	0.000126544	2.06786E-05	0	0	0	
0.192833	0.000233292	0.00024656	0.000132793	1.61794E-05	0	0	0	
0.193	-0.00089305	-0.00141477	0.000139812	8.39806E-06	0	0	0	
0.193167	0.00211627	0.001497	0.000142235	2.16847E-05	0	0	0	
0.193333	0.00223454	0.000190471	0.00013907	3.34818E-05	0	0	0	
0.1935	-0.00243374	-0.00108091	0.000130836	3.3526E-05	0	0	0	
0.193667	0.00303682	0.00134483	0.000131369	2.91898E-05	0	0	0	
0.193833	-0.00292733	-0.000651571	0.000128108	2.0362E-05	0	0	0	
0.194	0.000311267	-0.000862494	0.000113541	2.0678E-05	0	0	0	
0.194167	-0.00292927	0.000962071	0.000106562	1.88272E-05	0	0	0	
0.194333	0.00201775	0.000296208	0.00010821	2.0846E-05	0	0	0	
0.1945	-0.000656837	-0.000427612	0.000115907	1.9837E-05	0	0	0	
0.194667	0.00191653	0.00030521	0.000110327	1.56743E-05	0	0	0	
0.194833	-0.000342912	-0.000621301	9.54391E-05	1.3144E-05	0	0	0	
0.195	-0.00347652	9.1705E-05	9.34144E-05	1.34244E-05	0	0	0	
0.195167	-0.000334533	0.000279279	0.000107539	1.2432E-05	0	0	0	
0.195333	0.00128509	-0.000389313	0.000119849	8.06282E-06	0	0	0	
0.1955	-0.0016267	-1.6049E-05	0.000120902	7.83625E-06	0	0	0	
0.195667	0.00182953	0.000581733	0.000112165	1.22242E-05	0	0	0	
0.195833	0.00241098	-0.000199066	0.00010889	1.7421E-05	0	0	0	
0.196	-0.00152724	-0.000557979	0.000108644	1.62531E-05	0	0	0	
0.196167	-0.00281858	0.00062633	0.00010183	1.3123E-05	0	0	0	
0.196333	0.00424197	0.0011623	0.000105696	1.6098E-05	0	0	0	
0.1965	-0.00473522	-0.00210936	0.000106861	2.50801E-05	0	0	0	
0.196667	0.00838009	0.00103748	0.000121758	3.4674E-05	0	0	0	
0.196833	-0.00393466	0.00259632	0.000152738	5.08498E-05	0	0	0	
0.197	-0.00278282	-0.0029243	0.000227693	5.91171E-05	0	0	0	
0.197167	0.00499404	0.000135997	0.000264437	5.65596E-05	0	0	0	
0.197333	0.000330651	-0.000423363	0.000218014	3.20703E-05	0	0	0	
0.1975	0.000598095	0.00188825	0.000115347	1.97593E-05	0	0	0	
0.197667	0.0040034	0.00197938	4.79604E-05	3.88614E-05	0	0	0	
0.197833	-0.00415986	-0.00341148	5.43767E-05	5.86755E-05	0	0	0	
0.198	0.00584389	-0.000412915	8.41229E-05	7.28275E-05	0	0	0	
0.198167	-0.0033107	0.00135645	0.000130535	4.87546E-05	0	0	0	
0.198333	0.00197019	0.000473527	0.000163452	3.14873E-05	0	0	0	
0.1985	0.00224305	0.00102254	0.000161519	2.6136E-05	0	0	0	
0.198667	0.00324074	-0.000357894	0.000132961	2.23107E-05	0	0	0	
0.198833	-0.00270115	-0.00152752	0.000106729	2.9253E-05	0	0	0	
0.199	0.0036713	-0.000958735	0.000120863	2.27525E-05	0	0	0	
0.199167	-0.000670553	0.00140851	0.000140684	2.70778E-05	0	0	0	
0.199333	0.000246764	0.00129866	0.000147931	3.20477E-05	0	0	0	
0.1995	-0.00122032	0.000848448	0.00012545	3.44102E-05	0	0	0	
0.199667	0.00372926	-0.00205675	0.000100119	3.60923E-05	0	0	0	
0.199833	-0.00512691	-0.00114212	9.68501E-05	4.504E-05	0	0	0	
0.2	0.00204225	0.000138463	0.00010206	3.79266E-05	0	0	0	
0.200167	-0.00335056	0.00272239	0.000118849	4.0089E-05	0	0	0	
0.200333	0.00100117	0.000981415	0.000125051	3.81543E-05	0	0	0	
0.2005	-0.00289501	-0.00198058	0.000142988	4.46999E-05	0	0	0	
0.200667	0.000786596	-0.00191019	0.000140995	5.7039E-05	0	0	0	
0.200833	-0.00279021	0.000670853	0.000139557	4.05003E-05	0	0	0	
0.201	-0.00208139	0.00114809	0.000131044	4.15084E-05	0	0	0	
0.201167	-0.00236513	0.00144052	0.000129698	3.25413E-05	0	0	0	
0.201333	0.00143519	-0.00122321	0.000112764	3.44898E-05	0	0	0	
0.2015	-0.0030175	-0.000669365	0.000103342	3.12532E-05	0	0	0	
0.201667	0.00205801	-0.00186059	0.000107628	2.6521E-05	0	0	0	
0.201833	-0.00293451	0.00139976	0.000131195	2.90011E-05	0	0	0	
0.202	-0.000887925	0.00128332	0.000117957	4.39859E-05	0	0	0	
0.202167	-0.00282133	-6.62836E-05	8.41673E-05	4.20819E-05	0	0	0	
0.202333	0.00170299	-0.00141615	6.21177E-05	4.56843E-05	0	0	0	
0.2025	-0.000251262	-0.00171913	0.00010107	3.4513E-05	0	0	0	
0.202667	0.00298377	0.000918783	0.000141449	3.40364E-05	0	0	0	
0.202833	-0.00257646	0.00269871	0.000148931	4.23175E-05	0	0	0	
0.203	-0.00347035	-0.00138767	0.000120748	4.09312E-05	0	0	0	
0.203167	0.00188838	-0.00133566	0.000101976	5.12721E-05	0	0	0	
0.203333	0.000849436	-0.000328869	8.58123E-05	3.26326E-05	0	0	0	
0.2035	-0.00536026	0.000700217	9.79571E-05	2.39643E-05	0	0	0	
0.203667	0.00461799	0.00102436	0.000123945	1.19085E-05	0	0	0	
0.203833	-0.00120048	-5.39152E-05	0.0001541	1.96703E-05	0	0	0	
0.204	-0.00175242	6.32223E-05	0.00015291	2.1381E-05	0	0	0	
0.204167	0.000514667	-0.00114758	0.000126973	2.96734E-05	0	0	0	
0.204333	2.4257E-05	-0.000927289	0.000104644	2.69436E-05	0	0	0	
0.2045	-0.00317136	0.00246987	9.98648E-05	3.29911E-05	0	0	0	
0.204667	0.00347271	0.00146511	0.000104805	4.50826E-05	0	0	0	
0.204833	-0.00240866	-0.00131623	0.000110241	4.57047E-05	0	0	0	
0.205	0.00293797	-0.00196948	0.000114435	5.34754E-05	0	0	0	
0.205167	-0.000108919	-6.95757E-05	0.000107864	3.62401E-05	0	0	0	
0.205333	0.00523082	0.00209862	0.00011273	3.84121E-05	0	0	0	
0.2055	-0.00446847	0.00176746	0.000110913	3.46429E-05	0	0	0	
0.205667	0.00250529	-0.001752	0.000102088	3.55809E-05	0	0	0	
0.205833	-0.00299251	-0.000379389	0.000100536	3.71698E-05	0	0	0	
0.206	0.00443934	-0.000454556	0.000103448	3.26402E-05	0	0	0	
0.206167	-0.00306156	6.50918E-05	0.000116736	2.59277E-05	0	0	0	
0.206333	0.00419474	0.00180466	0.000120372	2.52748E-05	0	0	0	
0.2065	0.000638452	7.84029E-05	9.9369E-05	2.26723E-05	0	0	0	
0.206667	0.000737773	-0.00155915	8.54345E-05	2.86047E-05	0	0	0	
0.206833	-0.00326182	-0.000399858	7.9673E-05	2.4956E-05	0	0	0	
0.207	0.00407514	-6.73774E-06	9.45207E-05	2.00483E-05	0	0	0	
0.207167	-0.00464394	0.000982773	0.000116599	1.99832E-05	0	0	0	
0.207333	0.00213104	-0.000260362	0.000113683	2.00643E-05	0	0	0	
0.2075	-0.00119241	-0.000662737	0.00011643	2.84147E-05	0	0	0	
0.207667	0.00100222	-0.000264285	0.000101592	2.259E-05	0	0	0	
0.207833	-0.00169638	3.70144E-05	9.52805E-05	1.66631E-05	0	0	0	
0.208	0.00466916	0.000270248	9.51461E-05	6.78402E-06	0	0	0	
0.208167	0.000973383	0.000208668	8.42945E-05	8.63493E-06	0	0	0	
0.208333	0.00158125	-0.000595554	7.90311E-05	8.18013E-06	0	0	0	
0.2085	-0.00164793	0.000545229	6.13237E-05	1.15931E-05	0	0	0	
0.208667	0.00242927	-0.00120329	6.74096E-05	1.25814E-05	0	0	0	
0.208833	0.000549847	0.000996602	8.4775E-05	1.69282E-05	0	0	0	
0.209	0.00208844	0.000262084	0.000107276	1.84012E-05	0	0	0	
0.209167	-0.000335805	-0.00015148	0.000114226	1.50243E-05	0	0	0	
0.209333	0.00320602	0.000438138	0.000112264	1.04061E-05	0	0	0	
0.2095	-0.00130127	-0.000612868	0.000103578	1.24137E-05	0	0	0	
0.209667	-0.000156554	-0.000604097	9.61713E-05	1.46402E-05	0	0	0	
0.209833	-0.000819841	0.00107239	8.92862E-05	1.8396E-05	0	0	0	
0.21	0.00407355	0.000258184	0.000100218	1.49542E-05	0	0	0	
0.210167	-0.00439142	-0.00131321	0.000124915	1.93594E-05	0	0	0	
0.210333	0.00445912	0.000561554	0.000135467	1.99232E-05	0	0	0	
0.2105	-0.00245702	0.000598699	0.000122038	2.08563E-05	0	0	0	
0.210667	-0.000708436	-0.000751397	9.9947E-05	2.09911E-05	0	0	0	
0.210833	-0.00174521	0.000598396	9.53967E-05	2.06938E-05	0	0	0	
0.211	0.00262091	-0.000123614	9.87207E-05	2.30312E-05	0	0	0	
0.211167	-0.00324196	0.000395477	0.000100444	1.62823E-05	0	0	0	
0.211333	0.0034494	-0.000800702	9.72079E-05	1.47212E-05	0	0	0	
0.2115	-0.00148476	0.00167225	8.45681E-05	1.83372E-05	0	0	0	
0.211667	2.92381E-05	-0.00208176	9.30182E-05	2.87318E-05	0	0	0	
0.211833	0.0024378	8.23434E-05	0.000118321	3.60548E-05	0	0	0	
0.212	-0.00023794	0.00513057	0.000120405	5.39619E-05	0	0	0	
0.212167	-0.0085706	-0.00571425	0.000111593	7.59329E-05	0	0	0	
0.212333	0.0121549	0.00186376	0.000120623	9.04451E-05	0	0	0	
0.2125	-0.00500643	0.000767585	0.00016844	8.63235E-05	0	0	0	
0.212667	-0.0044891	-0.00285606	0.00024815	7.61736E-05	0	0	0	
0.212833	0.00948046	0.0059279	0.000257515	7.37217E-05	0	0	0	
0.213	-0.000383212	-0.00438138	0.000234494	0.000108885	0	0	0	
0.213167	0.00583566	0.00365611	0.000172369	0.000188885	0	0	0	
0.213333	0.00409852	0.00437535	0.000131986	0.000219799	0	0	0	
0.2135	-0.00552686	-0.00258371	0.000111135	0.000182066	0	0	0	
0.213667	0.00892452	0.00052884	0.000117963	9.66661E-05	0	0	0	
0.213833	-0.00358694	0.00330802	0.000181226	7.7312E-05	0	0	0	
0.214	-0.00368155	-0.00629968	0.000266934	8.32257E-05	0	0	0	
0.214167	0.0121873	0.00935596	0.000264898	0.000131996	0	0	0	
0.214333	0.00550306	-0.00129067	0.000224002	0.000125719	0	0	0	
0.2145	-0.00606433	0.00139908	0.00015711	0.000115348	0	0	0	
0.214667	0.00313685	0.000234397	0.000150365	5.60531E-05	0	0	0	
0.214833	-0.00268285	0.000967096	0.00015026	3.96882E-05	0	0	0	
0.215	-0.00334307	-0.00270466	0.000132302	3.49074E-05	0	0	0	
0.215167	-8.36958E-05	0.0020324	0.000113026	4.25355E-05	0	0	0	
0.215333	0.00248849	-2.7486E-06	8.08832E-05	3.8039E-05	0	0	0	
0.2155	-0.00345836	-0.000570529	9.53444E-05	3.1808E-05	0	0	0	
0.215667	-0.000215907	-0.000174331	0.00010965	1.78157E-05	0	0	0	
0.215833	-0.00272342	0.000197474	0.000130216	1.07959E-05	0	0	0	
0.216	-0.00162261	-0.00108823	0.000128732	1.00839E-05	0	0	0	
0.216167	0.000390353	0.000437592	0.000133029	1.08685E-05	0	0	0	
0.216333	-2.7707E-05	0.00101251	0.000118092	1.17458E-05	0	0	0	
0.2165	-0.00444229	-0.00175234	0.00011265	1.71465E-05	0	0	0	
0.216667	0.00312458	0.000631032	0.00012143	2.309E-05	0	0	0	
0.216833	-0.00836463	3.33076E-05	0.000168885	2.25059E-05	0	0	0	
0.217	0.0039356	-0.000426168	0.000183558	1.87923E-05	0	0	0	
0.217167	-0.00453227	0.00146301	0.000180804	1.98616E-05	0	0	0	
0.217333	0.00298492	-0.00163196	0.000176925	2.80145E-05	0	0	0	
0.2175	-0.000674964	-0.000984158	0.000197702	3.46963E-05	0	0	0	
0.217667	-0.00181284	0.00121006	0.000190105	4.1854E-05	0	0	0	
0.217833	-0.00470847	4.01313E-05	0.000141319	3.4076E-05	0	0	0	
0.218	0.00368833	0.000528613	9.14411E-05	2.23559E-05	0	0	0	
0.218167	-0.00417526	-0.00108798	8.01212E-05	1.15533E-05	0	0	0	
0.218333	0.00215066	-0.000309745	8.63963E-05	1.93501E-05	0	0	0	
0.2185	-0.00425855	0.000380236	9.93505E-05	1.83585E-05	0	0	0	
0.218667	0.00245468	-0.000127406	0.000117018	1.9482E-05	0	0	0	
0.218833	0.000415728	0.000440792	0.000154218	1.22318E-05	0	0	0	
0.219	-0.00107547	0.000495652	0.000160962	1.44154E-05	0	0	0	
0.219167	-0.000743019	-0.000904665	0.000117078	1.13436E-05	0	0	0	
0.219333	0.00457887	-0.000483445	7.27099E-05	1.74326E-05	0	0	0	
0.2195	-0.00311299	0.000597253	8.18928E-05	1.85963E-05	0	0	0	
0.219667	0.00176224	0.000913009	0.000127777	2.17122E-05	0	0	0	
0.219833	0.000459315	-0.00103726	0.000138474	2.20289E-05	0	0	0	
0.22	-0.00080987	0.000633854	0.000122948	2.3434E-05	0	0	0	
0.220167	-0.000511736	0.000607855	0.000114832	1.96189E-05	0	0	0	
0.220333	0.00178824	-0.00102597	0.00011546	1.65699E-05	0	0	0	
0.2205	-0.00121914	-0.000542266	0.000101857	1.29805E-05	0	0	0	
0.220667	0.00276549	0.0013151	8.68594E-05	1.87991E-05	0	0	0	
0.220833	-0.00185572	0.000152873	8.89283E-05	2.11457E-05	0	0	0	
0.221	0.00019545	-0.00133913	0.000107954	2.81348E-05	0	0	0	
0.221167	-0.00174033	0.00123575	0.000127763	2.84824E-05	0	0	0	
0.221333	0.00273726	-0.000646529	0.000134952	3.10045E-05	0	0	0	
0.2215	-0.00150831	0.000218744	0.000126886	2.69938E-05	0	0	0	
0.221667	0.000318584	-0.000362715	0.000110691	1.86813E-05	0	0	0	
0.221833	-0.000932336	0.000587923	0.000106352	1.00343E-05	0	0	0	
0.222	0.000270992	-0.0011122	0.000115397	1.08711E-05	0	0	0	
0.222167	-0.00112122	-0.000273428	0.000125281	1.39055E-05	0	0	0	
0.222333	0.00385226	0.000630016	0.00012934	1.59224E-05	0	0	0	
0.2225	-0.00120214	-0.000269067	0.000118565	1.47627E-05	0	0	0	
0.222667	0.000143763	0.000632311	0.000111575	1.45317E-05	0	0	0	
0.222833	-0.00242264	-0.000256317	0.000116786	1.5818E-05	0	0	0	
0.223	0.0028061	-0.000151366	0.000138686	1.80659E-05	0	0	0	
0.223167	-0.00162126	-0.00030315	0.000149862	1.69235E-05	0	0	0	
0.223333	0.00166765	-2.07072E-05	0.00013877	1.26534E-05	0	0	0	
0.2235	-0.00187986	0.000324161	0.000117481	6.553E-06	0	0	0	
0.223667	0.00103912	-0.000762959	0.000104111	6.31664E-06	0	0	0	
0.223833	-0.00240671	0.00207463	0.000109441	1.41038E-05	0	0	0	
0.224	0.00287966	-0.00108798	0.00012415	2.37122E-05	0	0	0	
0.224167	-0.00527046	5.971E-05	0.000144463	2.53897E-05	0	0	0	
0.224333	0.00313435	-0.000294746	0.000152156	1.77032E-05	0	0	0	
0.2245	-0.000834203	-8.16226E-05	0.000148311	1.61187E-05	0	0	0	
0.224667	0.00050859	-0.000174573	0.000124126	2.43641E-05	0	0	0	
0.224833	-0.000161406	0.00172817	0.000100163	3.17436E-05	0	0	0	
0.225	0.00135661	-0.00285185	9.80806E-05	3.50265E-05	0	0	0	
0.225167	-0.00105667	0.00265273	0.000104695	4.07674E-05	0	0	0	
0.225333	1.80864E-05	-0.0022043	9.56431E-05	4.82356E-05	0	0	0	
0.2255	0.000755273	0.000662943	7.49019E-05	5.09375E-05	0	0	0	
0.225667	0.00145084	0.000692288	7.16717E-05	5.61311E-05	0	0	0	
0.225833	-0.00252134	-0.00221933	8.30128E-05	5.61719E-05	0	0	0	
0.226	0.00497938	0.00200318	9.2545E-05	5.36473E-05	0	0	0	
0.226167	-0.00491921	0.00131591	0.000111336	5.99736E-05	0	0	0	
0.226333	0.000122193	-0.00454209	0.000168546	8.89867E-05	0	0	0	
0.2265	0.00335548	0.00356864	0.000228668	0.000101048	0	0	0	
0.226667	-0.0015712	-0.00123624	0.000213997	9.45529E-05	0	0	0	
0.226833	-0.00353544	0.000147097	0.000138245	6.91172E-05	0	0	0	
0.227	0.00376714	0.000610306	7.04599E-05	5.71967E-05	0	0	0	
0.227167	-0.00310895	-0.000702603	6.89178E-05	4.60326E-05	0	0	0	
0.227333	0.002635	-0.000439016	8.23749E-05	3.18879E-05	0	0	0	
0.2275	-0.00380747	0.000438938	8.27232E-05	3.43666E-05	0	0	0	
0.227667	0.00196907	-0.00195953	9.69225E-05	4.48626E-05	0	0	0	
0.227833	0.000969142	0.00168605	0.000124585	5.22819E-05	0	0	0	
0.228	0.00185318	0.00171676	0.000122132	7.19642E-05	0	0	0	
0.228167	-0.002592	-5.51022E-05	8.18969E-05	6.45468E-05	0	0	0	
0.228333	0.00164976	-0.00317787	6.4008E-05	6.49086E-05	0	0	0	
0.2285	0.00310248	0.000705355	9.89355E-05	4.78773E-05	0	0	0	
0.228667	0.00222866	0.000759222	0.000139316	4.05486E-05	0	0	0	
0.228833	-0.00413004	0.000692905	0.000141283	3.19054E-05	0	0	0	
0.229	0.00405547	-0.000953121	0.00011678	2.04251E-05	0	0	0	
0.229167	-0.00354289	0.00182075	0.000105091	2.34271E-05	0	0	0	
0.229333	0.00329532	-0.00118225	0.00011484	2.79722E-05	0	0	0	
0.2295	-0.00192174	-0.000440635	0.000121982	2.47143E-05	0	0	0	
0.229667	0.00570102	0.00140365	0.000124321	1.95936E-05	0	0	0	
0.229833	-0.00373212	-0.000579285	0.000121392	1.80805E-05	0	0	0	
0.23	0.00222407	-0.000581184	0.00010875	2.006E-05	0	0	0	
0.230167	-0.0033976	0.000237063	9.8103E-05	2.08345E-05	0	0	0	
0.230333	0.0022148	-0.000405326	8.24005E-05	1.55083E-05	0	0	0	
0.2305	-0.00230247	0.00118524	9.40961E-05	1.52305E-05	0	0	0	
0.230667	0.00327761	0.000212193	9.65152E-05	1.47539E-05	0	0	0	
0.230833	-0.00193378	-0.000690159	9.10794E-05	2.52901E-05	0	0	0	
0.231	0.00622455	-0.000415221	8.06655E-05	2.60263E-05	0	0	0	
0.231167	-0.00475947	0.00119126	9.45329E-05	2.77857E-05	0	0	0	
0.231333	0.00305523	-0.000613259	0.00013338	1.90978E-05	0	0	0	
0.2315	-0.00310246	-0.0019176	0.000169165	3.13415E-05	0	0	0	
0.231667	0.000860572	0.00170119	0.000148237	3.83566E-05	0	0	0	
0.231833	-0.00125753	0.00118601	9.76838E-05	3.99945E-05	0	0	0	
0.232	0.00341782	-0.00110481	6.07022E-05	3.18758E-05	0	0	0	
0.232167	-0.00089288	0.000576604	6.37586E-05	2.21935E-05	0	0	0	
0.232333	0.0032625	-0.00153999	7.80409E-05	2.30571E-05	0	0	0	
0.2325	-0.00745675	0.000903751	0.000100811	2.28527E-05	0	0	0	
0.232667	0.00215661	-0.00179046	0.000112161	3.14453E-05	0	0	0	
0.232833	-0.000140604	0.00140742	0.000127401	3.79405E-05	0	0	0	
0.233	-0.000338832	0.000903309	8.94137E-05	3.87065E-05	0	0	0	
0.233167	-0.00461765	-0.00068955	6.97626E-05	3.29466E-05	0	0	0	
0.233333	0.00608895	-0.000984524	8.50552E-05	3.25164E-05	0	0	0	
0.2335	-0.00411689	0.000958594	0.000133101	2.7434E-05	0	0	0	
0.233667	-0.000471591	-0.000310768	0.000135127	2.49455E-05	0	0	0	
0.233833	-0.00309813	-0.0010276	0.000105186	1.70451E-05	0	0	0	
0.234	0.0018075	0.000827982	8.15363E-05	1.79548E-05	0	0	0	
0.234167	-0.0031983	-9.44904E-05	0.000100834	1.67697E-05	0	0	0	
0.234333	0.00477904	0.000151808	0.00012125	1.63395E-05	0	0	0	
0.2345	-0.00170644	-0.00043676	0.000118233	2.22011E-05	0	0	0	
0.234667	-0.000306653	-0.00012171	0.000107254	1.84412E-05	0	0	0	
0.234833	-0.00219141	0.000629709	9.7512E-05	1.60655E-05	0	0	0	
0.235	0.00248436	-0.000605529	0.000106851	1.2188E-05	0	0	0	
0.235167	-0.0019019	3.99775E-05	0.000114001	1.80481E-05	0	0	0	
0.235333	0.00289989	-0.000145095	0.000120358	2.05081E-05	0	0	0	
0.2355	-0.0013127	0.000316832	0.000116117	1.69191E-05	0	0	0	
0.235667	0.00238971	-0.00120707	0.000110215	1.49609E-05	0	0	0	
0.235833	-0.00260571	0.000723994	9.19877E-05	1.79394E-05	0	0	0	
0.236	0.00454794	0.00104027	9.614E-05	1.76133E-05	0	0	0	
0.236167	-0.00510773	-0.000399232	0.000110381	1.9327E-05	0	0	0	
0.236333	0.00277082	-0.00044517	0.000122306	1.61388E-05	0	0	0	
0.2365	-0.00172282	-0.00020392	0.000109345	2.56855E-05	0	0	0	
0.236667	0.00420988	0.000245794	9.80241E-05	3.0444E-05	0	0	0	
0.236833	-0.00236767	0.000724617	9.42306E-05	3.30068E-05	0	0	0	
0.237	0.000981446	-0.000772793	0.000108788	2.55331E-05	0	0	0	
0.237167	-0.00164962	0.000606311	0.000113728	2.21164E-05	0	0	0	
0.237333	0.00136005	1.78371E-05	0.000106618	2.48599E-05	0	0	0	
0.2375	0.00411878	0.000745174	9.0559E-05	2.67951E-05	0	0	0	
0.237667	0.00304215	-0.000521908	9.20705E-05	2.23582E-05	0	0	0	
0.237833	-0.0022121	0.000278068	0.000101002	1.57083E-05	0	0	0	
0.238	0.00222551	-0.000910878	9.98677E-05	1.00023E-05	0	0	0	
0.238167	-0.00302695	0.000444841	9.89581E-05	1.52287E-05	0	0	0	
0.238333	0.00167144	0.000281609	0.000106674	1.58979E-05	0	0	0	
0.2385	0.00396877	0.00119956	0.000110341	2.19609E-05	0	0	0	
0.238667	0.00677173	0.000151382	0.00011037	2.08236E-05	0	0	0	
0.238833	-0.00504137	-0.00144322	0.000113199	2.72593E-05	0	0	0	
0.239	0.00586008	0.00137057	0.000117163	2.92935E-05	0	0	0	
0.239167	-0.00742889	-0.00199305	0.000141216	3.02226E-05	0	0	0	
0.239333	0.00691282	0.00104481	0.000152338	3.01535E-05	0	0	0	
0.2395	-0.00219567	0.00225022	0.000167984	2.96932E-05	0	0	0	
0.239667	-0.000420825	-0.00275633	0.000140716	3.76417E-05	0	0	0	
0.239833	0.000503271	-0.000599051	0.000113108	5.55649E-05	0	0	0	
0.24	0.002801	0.00139216	9.45114E-05	6.22924E-05	0	0	0	
0.240167	-0.00253972	-0.00103731	9.08984E-05	5.55687E-05	0	0	0	
0.240333	0.00364892	0.000690125	8.63842E-05	3.7511E-05	0	0	0	
0.2405	-0.00450904	0.000296667	9.49238E-05	2.66614E-05	0	0	0	
0.240667	0.00587362	-0.00092866	0.000101379	2.48931E-05	0	0	0	
0.240833	-0.0101819	-0.00147053	0.000132815	2.12444E-05	0	0	0	
0.241	0.00648933	-0.00204461	0.000152897	2.17371E-05	0	0	0	
0.241167	-0.00646193	0.00102009	0.000178843	2.48929E-05	0	0	0	
0.241333	0.00507018	0.00197978	0.000187968	3.65603E-05	0	0	0	
0.2415	-0.0027712	-0.00037879	0.000176226	3.69819E-05	0	0	0	
0.241667	-0.000118973	-0.000947226	0.000160548	2.871E-05	0	0	0	
0.241833	0.000820878	-0.00112059	0.000144261	3.05998E-05	0	0	0	
0.242	0.00168295	-0.00112882	0.00012244	3.2912E-05	0	0	0	
0.242167	-0.00640237	0.00129732	9.71161E-05	4.08238E-05	0	0	0	
0.242333	0.00513623	0.00117469	8.94839E-05	3.35895E-05	0	0	0	
0.2425	-0.00659362	0.000187173	0.000118376	2.90967E-05	0	0	0	
0.242667	0.00617107	-0.00256896	0.000163278	3.00431E-05	0	0	0	
0.242833	-0.00652561	-4.36458E-05	0.000191361	2.82485E-05	0	0	0	
0.243	0.00415031	0.000992056	0.000196971	2.84705E-05	0	0	0	
0.243167	-0.000741189	0.00191874	0.000176337	3.26597E-05	0	0	0	
0.243333	0.00112181	0.000427535	0.00014546	2.911E-05	0	0	0	
0.2435	-0.00241234	-0.00124328	0.000103964	3.19724E-05	0	0	0	
0.243667	0.00399689	-0.00109929	8.71394E-05	2.23811E-05	0	0	0	
0.243833	-0.00344771	-0.00026613	8.1095E-05	2.61436E-05	0	0	0	
0.244	0.00350138	0.000832919	0.00010462	2.93402E-05	0	0	0	
0.244167	-0.00538832	0.00130607	0.00012499	3.03764E-05	0	0	0	
0.244333	0.00287423	-0.00049037	0.000144602	2.41205E-05	0	0	0	
0.2445	0.00263009	-0.00036811	0.000147232	2.35887E-05	0	0	0	
0.244667	0.00352691	-0.000491884	0.000128699	1.83275E-05	0	0	0	
0.244833	-0.00808395	0.0011489	0.000118198	2.01468E-05	0	0	0	
0.245	0.00833759	-0.00207524	0.000133365	1.87213E-05	0	0	0	
0.245167	-0.00382947	0.00202839	0.000150639	3.07747E-05	0	0	0	
0.245333	0.0025921	5.90695E-05	0.000152239	3.5521E-05	0	0	0	
0.2455	-0.00353513	-0.000612661	0.000138039	2.76829E-05	0	0	0	
0.245667	0.00355759	-0.00130206	0.000131511	2.24163E-05	0	0	0	
0.245833	-0.00199108	0.000172436	0.000121314	1.78065E-05	0	0	0	
0.246	0.0021376	0.000145399	8.72852E-05	2.13251E-05	0	0	0	
0.246167	-0.00545741	0.000442724	7.25715E-05	1.8574E-05	0	0	0	
0.246333	0.00658788	-0.000203539	8.80381E-05	1.70071E-05	0	0	0	
0.2465	-0.00512287	-0.00016338	0.000136185	1.83021E-05	0	0	0	
0.246667	0.00131279	-0.000821746	0.000147242	1.52785E-05	0	0	0	
0.246833	-0.00415461	-0.000210462	0.00013538	1.40883E-05	0	0	0	
0.247	0.00417487	-0.00170599	0.000107551	1.94372E-05	0	0	0	
0.247167	-0.00576184	0.00234686	0.000121028	3.19606E-05	0	0	0	
0.247333	0.00160965	0.000644531	0.000122541	3.96294E-05	0	0	0	
0.2475	-0.00329001	-0.00159818	0.000117643	3.63644E-05	0	0	0	
0.247667	0.00665017	-0.000109637	0.000103735	2.5711E-05	0	0	0	
0.247833	-0.00412039	-0.00064345	0.000108204	2.14949E-05	0	0	0	
0.248	0.00212454	0.000357096	0.000122861	1.50958E-05	0	0	0	
0.248167	-0.00378601	0.00129314	0.000125825	1.90596E-05	0	0	0	
0.248333	0.00286781	0.000319324	0.000110478	1.87372E-05	0	0	0	
0.2485	-0.00632494	-0.000731872	0.000109993	2.15399E-05	0	0	0	
0.248667	0.00458388	-0.000959468	0.000117425	1.93907E-05	0	0	0	
0.248833	-0.000689713	0.000158977	0.000115684	1.85379E-05	0	0	0	
0.249	0.0054961	0.00082893	0.000110682	2.03801E-05	0	0	0	
0.249167	-0.0040284	0.000230722	0.000102422	1.68723E-05	0	0	0	
0.249333	0.00257843	0.000246649	0.000121813	1.15058E-05	0	0	0	
0.2495	-0.00295158	-0.000608837	0.000128769	9.2169E-06	0	0	0	
0.249667	-0.0011257	-0.000801829	9.71425E-05	9.06733E-06	0	0	0	
0.249833	-0.00159081	0.000529797	7.29553E-05	1.99292E-05	0	0	0	
0.25	0.00329964	-0.000120742	7.4146E-05	2.51694E-05	0	0	0	
0.250167	-0.00173031	0.000733728	0.000111724	2.57663E-05	0	0	0	
0.250333	0.00427569	-0.000256228	0.000137838	1.88783E-05	0	0	0	
0.2505	-0.00405061	-0.000169587	0.000135032	1.01579E-05	0	0	0	
0.250667	6.97742E-05	-0.00131589	0.000116379	1.28781E-05	0	0	0	
0.250833	-0.00516966	0.00106067	0.000127669	1.58688E-05	0	0	0	
0.251	0.00460703	0.000292246	0.000142591	1.80487E-05	0	0	0	
0.251167	-0.00400801	-9.94928E-05	0.000146132	1.43637E-05	0	0	0	
0.251333	0.00640177	0.00087644	0.000133743	1.46617E-05	0	0	0	
0.2515	-0.00361105	-0.00188415	0.000123811	2.09185E-05	0	0	0	
0.251667	0.0016855	0.000148799	0.000135417	2.94238E-05	0	0	0	
0.251833	-0.00532542	0.000580827	0.000146816	2.74724E-05	0	0	0	
0.252	-0.000249206	0.00021639	0.000138068	2.20001E-05	0	0	0	
0.252167	-0.000914187	0.000934423	0.000136241	1.39381E-05	0	0	0	
0.252333	0.0043464	-0.00156503	0.000127105	1.56005E-05	0	0	0	
0.2525	-0.00452804	0.000485529	0.000124506	2.15822E-05	0	0	0	
0.252667	0.00917762	-0.000351952	0.000132538	2.25964E-05	0	0	0	
0.252833	-0.00542066	0.00013198	0.000137951	1.81168E-05	0	0	0	
0.253	0.00432675	0.00137483	0.000146366	1.31345E-05	0	0	0	
0.253167	-0.00815	-0.00165661	0.000164166	1.89178E-05	0	0	0	
0.253333	0.00845847	-0.000662588	0.000180754	2.95652E-05	0	0	0	
0.2535	-0.00156422	0.00293912	0.00019619	4.28696E-05	0	0	0	
0.253667	-0.00247027	-0.00318737	0.000201942	5.28756E-05	0	0	0	
0.253833	0.00633363	0.000614474	0.000178041	5.37577E-05	0	0	0	
0.254	0.00738418	-0.00145101	0.00016571	4.39131E-05	0	0	0	
0.254167	-0.00505349	0.00202899	0.000145483	3.51369E-05	0	0	0	
0.254333	0.00337418	0.00178591	0.000127395	4.69941E-05	0	0	0	
0.2545	-0.0053961	-0.0023508	0.000122601	5.10075E-05	0	0	0	
0.254667	0.0100012	-0.00104373	0.000138572	6.22613E-05	0	0	0	
0.254833	-0.00705385	-0.00128119	0.000194977	4.38014E-05	0	0	0	
0.255	0.00776374	0.00211218	0.000229606	4.72961E-05	0	0	0	
0.255167	-0.000546984	0.000738667	0.000191976	4.12659E-05	0	0	0	
0.255333	0.0032929	0.000271529	0.000138988	3.91641E-05	0	0	0	
0.2555	-0.00637284	-0.000509311	0.000119998	2.85536E-05	0	0	0	
0.255667	0.00707502	-0.00249775	0.000148296	2.46476E-05	0	0	0	
0.255833	-0.00240275	0.000630342	0.000158575	2.95491E-05	0	0	0	
0.256	0.00386437	0.00167125	0.000134246	3.71029E-05	0	0	0	
0.256167	-0.00562251	0.00112724	0.000117683	3.99982E-05	0	0	0	
0.256333	0.00584691	-0.00145312	0.000112864	3.66002E-05	0	0	0	
0.2565	-0.00559585	-0.00144958	0.000124593	4.49088E-05	0	0	0	
0.256667	0.00618799	-0.000616403	0.000131448	3.8862E-05	0	0	0	
0.256833	-0.0026075	0.00143557	0.00013723	3.76874E-05	0	0	0	
0.257	0.0050157	0.00201338	0.000135463	3.61495E-05	0	0	0	
0.257167	-0.00424925	-0.00146259	0.000130051	3.92167E-05	0	0	0	
0.257333	0.00272392	-0.00153482	0.000110019	4.75087E-05	0	0	0	
0.2575	-0.00332626	-0.000666349	9.68341E-05	4.49695E-05	0	0	0	
0.257667	0.00408461	0.0004342	7.79808E-05	3.94602E-05	0	0	0	
0.257833	-0.00338388	0.000892222	8.75751E-05	3.12824E-05	0	0	0	
0.258	0.0054168	0.0012358	9.71068E-05	2.7451E-05	0	0	0	
0.258167	-0.00447173	-0.00179365	0.000117858	2.88898E-05	0	0	0	
0.258333	0.000903981	-0.00121396	0.000118023	3.01894E-05	0	0	0	
0.2585	-0.00113144	-0.000268316	0.000107076	3.35779E-05	0	0	0	
0.258667	0.000310767	0.00125226	6.59639E-05	3.74033E-05	0	0	0	
0.258833	-0.0066269	0.00157342	5.42972E-05	3.96517E-05	0	0	0	
0.259	0.00677377	-0.00196948	8.57966E-05	3.51227E-05	0	0	0	
0.259167	-0.00208721	-0.000336797	0.000132192	3.53645E-05	0	0	0	
0.259333	0.00290936	-0.00113196	0.00015554	3.31943E-05	0	0	0	
0.2595	-0.0063102	0.00224216	0.000142998	3.24913E-05	0	0	0	
0.259667	0.000775863	-0.000258654	0.000134087	2.77378E-05	0	0	0	
0.259833	-0.00156517	0.00102156	0.000128738	2.37649E-05	0	0	0	
0.26	0.00429516	-0.001282	0.000120589	1.93179E-05	0	0	0	
0.260167	-0.00548189	-0.000931059	0.000110449	2.34553E-05	0	0	0	
0.260333	0.00989834	0.000933455	0.000150844	2.50446E-05	0	0	0	
0.2605	-0.00504766	0.00149995	0.000164542	3.06797E-05	0	0	0	
0.260667	0.00186608	0.000206735	0.000159468	2.67092E-05	0	0	0	
0.260833	-0.00613357	-0.00185098	0.000107799	3.01575E-05	0	0	0	
0.261	0.00858099	-0.000781697	0.000115713	3.19933E-05	0	0	0	
0.261167	-0.00685508	0.00222542	0.000151024	3.24494E-05	0	0	0	
0.261333	0.00316636	1.87236E-05	0.000171192	4.29806E-05	0	0	0	
0.2615	0.00116722	-0.000483163	0.000118599	3.00888E-05	0	0	0	
0.261667	0.000409164	-0.00179414	7.87396E-05	3.53007E-05	0	0	0	
0.261833	-0.00538634	-0.000278015	7.71977E-05	2.0848E-05	0	0	0	
0.262	0.00648671	0.000275877	0.000117813	2.74674E-05	0	0	0	
0.262167	-0.00725169	0.00162862	0.000148472	1.96473E-05	0	0	0	
0.262333	0.00171899	-0.00138286	0.00012766	2.53361E-05	0	0	0	
0.2625	-0.00296582	-0.00072163	0.000114256	2.76165E-05	0	0	0	
0.262667	0.00289945	-0.000488654	0.000103166	2.70315E-05	0	0	0	
0.262833	-0.00510058	-0.000210304	0.000125968	1.88868E-05	0	0	0	
0.263	0.00358401	0.000569261	0.000133573	1.54899E-05	0	0	0	
0.263167	-0.00364757	0.000163911	0.000129166	1.2302E-05	0	0	0	
0.263333	0.000497773	-0.000541182	0.000109106	1.29968E-05	0	0	0	
0.2635	-0.00431058	0.000494671	0.000109723	9.51939E-06	0	0	0	
0.263667	0.00194803	-0.000403508	0.000111543	1.09184E-05	0	0	0	
0.263833	-0.00494276	0.000570237	0.000124904	1.25133E-05	0	0	0	
0.264	0.00612187	-0.000396763	0.000142833	1.45455E-05	0	0	0	
0.264167	-0.00429374	0.00113643	0.000142859	1.88488E-05	0	0	0	
0.264333	0.00379684	-0.000559772	0.00014823	2.00395E-05	0	0	0	
0.2645	-0.00346455	0.000135961	0.000117277	2.17496E-05	0	0	0	
0.264667	0.00425677	2.32747E-05	0.000114277	1.90105E-05	0	0	0	
0.264833	-0.00647408	0.000286557	0.000117922	1.75351E-05	0	0	0	
0.265	0.00279761	0.00012572	0.000129852	1.36912E-05	0	0	0	
0.265167	-0.00440442	0.000633239	0.000113551	1.15119E-05	0	0	0	
0.265333	0.00589311	-0.000237404	0.000113703	9.36704E-06	0	0	0	
0.2655	-0.00515652	0.000143065	0.000113427	8.359E-06	0	0	0	
0.265667	0.00738522	-0.000922299	0.000155914	8.8352E-06	0	0	0	
0.265833	-0.004938	0.00131225	0.00016659	1.31396E-05	0	0	0	
0.266	-0.00154771	-0.000159563	0.000138204	2.46407E-05	0	0	0	
0.266167	-0.00421293	2.84258E-05	0.000102045	2.84951E-05	0	0	0	
0.266333	0.000297627	-0.00096044	6.3916E-05	2.78529E-05	0	0	0	
0.2665	-0.00347645	0.00114754	7.56038E-05	2.04542E-05	0	0	0	
0.266667	0.00773828	0.000201682	9.56607E-05	2.13624E-05	0	0	0	
0.266833	-0.00626479	0.000903433	0.000125544	2.18567E-05	0	0	0	
0.267	0.00352897	-0.0021565	0.000141517	2.6001E-05	0	0	0	
0.267167	-0.00401098	0.000716872	0.000152255	2.80847E-05	0	0	0	
0.267333	0.00165385	8.93265E-05	0.00013948	2.46364E-05	0	0	0	
0.2675	-0.0046701	0.00172627	0.000138383	2.60532E-05	0	0	0	
0.267667	0.00476491	-0.00174047	0.00012391	2.56923E-05	0	0	0	
0.267833	-0.000903648	-0.000807949	0.000115969	4.27455E-05	0	0	0	
0.268	0.00582662	0.00405984	0.000113026	5.48979E-05	0	0	0	
0.268167	-0.0116866	-0.00361695	0.000135396	6.86887E-05	0	0	0	
0.268333	0.00915973	5.79314E-05	0.000167823	8.27764E-05	0	0	0	
0.2685	-0.00563386	0.000222879	0.000248015	7.41991E-05	0	0	0	
0.268667	0.00242025	0.000627431	0.000241495	5.3544E-05	0	0	0	
0.268833	-0.00330998	0.0024862	0.000202414	3.88296E-05	0	0	0	
0.269	0.0015855	-0.00305222	0.000100191	3.76463E-05	0	0	0	
0.269167	-0.00139322	-0.00156537	6.64689E-05	7.00712E-05	0	0	0	
0.269333	0.00387703	0.00287373	6.07756E-05	6.42736E-05	0	0	0	
0.2695	-0.00978369	-0.00117719	9.62276E-05	6.36928E-05	0	0	0	
0.269667	0.00584659	0.000999309	0.000129197	3.54052E-05	0	0	0	
0.269833	0.000460388	0.00139985	0.000146623	3.01724E-05	0	0	0	
0.27	0.00225641	-0.00272125	0.000126175	2.89147E-05	0	0	0	
0.270167	-0.0050838	-0.000851234	9.89566E-05	4.2823E-05	0	0	0	
0.270333	0.00436954	0.00125579	9.52209E-05	4.05572E-05	0	0	0	
0.2705	-0.00465465	0.00116652	0.000107755	4.80382E-05	0	0	0	
0.270667	0.00829984	0.000712427	0.00014515	3.30618E-05	0	0	0	
0.270833	-0.00501219	-0.000448922	0.000165436	3.07236E-05	0	0	0	
0.271	0.00563103	-0.00226174	0.000163744	2.47808E-05	0	0	0	
0.271167	-0.00280671	0.000293919	0.000127849	2.77388E-05	0	0	0	
0.271333	0.00253877	0.00177892	9.6267E-05	3.19253E-05	0	0	0	
0.2715	-0.00403871	0.000702905	9.98046E-05	2.92922E-05	0	0	0	
0.271667	0.00271977	-0.000448494	0.000104056	2.40346E-05	0	0	0	
0.271833	-0.000278826	-0.000554289	8.94608E-05	2.63733E-05	0	0	0	
0.272	0.00417574	-0.00153055	6.45589E-05	2.02277E-05	0	0	0	
0.272167	-0.00248704	0.000712108	5.28179E-05	2.40733E-05	0	0	0	
0.272333	0.00436687	0.000653206	9.08334E-05	2.41255E-05	0	0	0	
0.2725	-0.00363839	0.000768634	0.000122344	2.52096E-05	0	0	0	
0.272667	0.000734349	-0.000689572	0.000123019	2.46044E-05	0	0	0	
0.272833	-0.00428209	0.000351211	0.000106696	1.64647E-05	0	0	0	
0.273	0.00880895	-0.001964	0.00011508	2.24866E-05	0	0	0	
0.273167	-0.003869	0.00256104	0.000142277	3.05242E-05	0	0	0	
0.273333	0.000709307	-0.000228294	0.00015915	4.49744E-05	0	0	0	
0.2735	-0.000980228	-0.0016648	0.000128557	4.88932E-05	0	0	0	
0.273667	0.00203295	0.000713969	8.87027E-05	4.1996E-05	0	0	0	
0.273833	-0.0035788	-1.60871E-05	6.63728E-05	2.75864E-05	0	0	0	
0.274	0.00680507	0.00109342	7.63473E-05	1.35603E-05	0	0	0	
0.274167	-0.00880023	-0.00249065	0.000126038	1.98465E-05	0	0	0	
0.274333	0.00445698	-0.000249399	0.000139393	2.30409E-05	0	0	0	
0.2745	-0.00648289	0.00102046	0.000153637	2.58324E-05	0	0	0	
0.274667	0.00160332	-0.00177575	0.000152681	2.21008E-05	0	0	0	
0.274833	0.000180407	0.00116558	0.000172781	2.78412E-05	0	0	0	
0.275	0.00402469	-0.000646129	0.000162703	3.12912E-05	0	0	0	
0.275167	0.000473807	0.00232931	0.000121173	3.24173E-05	0	0	0	
0.275333	-0.00677958	-0.00279501	0.000107986	5.03766E-05	0	0	0	
0.2755	-0.00446357	-0.00207942	0.00012854	5.7511E-05	0	0	0	
0.275667	0.00574181	0.00113518	0.000158133	6.24048E-05	0	0	0	
0.275833	-0.00333	0.00273813	0.000158317	4.35267E-05	0	0	0	
0.276	0.00514526	-0.00123787	0.000144084	4.16751E-05	0	0	0	
0.276167	-0.0032989	0.000278976	0.00013291	3.61986E-05	0	0	0	
0.276333	0.00438413	0.00359954	0.000119072	3.67236E-05	0	0	0	
0.2765	-0.0100139	-0.00361201	0.000143771	5.70581E-05	0	0	0	
0.276667	0.00561236	0.000353697	0.000165862	6.26498E-05	0	0	0	
0.276833	-0.00119311	0.00156023	0.000168351	6.28046E-05	0	0	0	
0.277	0.00373555	-0.000535376	0.000142991	4.44835E-05	0	0	0	
0.277167	-0.00436376	0.00216647	0.00013606	3.83634E-05	0	0	0	
0.277333	0.00257624	-0.00175371	0.000143668	4.93641E-05	0	0	0	
0.2775	-0.00357023	0.00142871	0.000141466	5.02826E-05	0	0	0	
0.277667	0.0022186	-0.0011471	0.00012458	4.98218E-05	0	0	0	
0.277833	-0.00331395	0.000740062	0.000117758	3.13143E-05	0	0	0	
0.278	0.00645948	0.00016698	0.000117099	1.70275E-05	0	0	0	
0.278167	-0.00527783	-0.00127905	0.000128886	1.23855E-05	0	0	0	
0.278333	0.00758412	0.00130676	0.000149524	1.63563E-05	0	0	0	
0.2785	-0.0055994	-0.00154254	0.000161574	2.4062E-05	0	0	0	
0.278667	0.0050678	0.000662566	0.000160941	2.45545E-05	0	0	0	
0.278833	-0.00283081	0.000136884	0.000151254	2.25189E-05	0	0	0	
0.279	0.00341363	0.000416809	0.000126134	1.63436E-05	0	0	0	
0.279167	-0.00448398	-0.000993105	0.000113644	1.75776E-05	0	0	0	
0.279333	0.00859864	-0.000150239	0.000116045	1.74349E-05	0	0	0	
0.2795	-0.0061953	0.000599825	0.000140153	1.732E-05	0	0	0	
0.279667	0.00469386	-0.000370485	0.000144892	1.57293E-05	0	0	0	
0.279833	-0.0042998	-0.000471765	0.00013896	1.59338E-05	0	0	0	
0.28	0.00465402	0.000151767	0.000122003	1.86434E-05	0	0	0	
0.280167	-0.00412591	0.00069299	0.000120246	1.70092E-05	0	0	0	
0.280333	0.00473179	-0.000652991	0.000113608	1.56616E-05	0	0	0	
0.2805	-0.00436982	9.58146E-05	0.000110083	1.17888E-05	0	0	0	
0.280667	0.00297078	-0.000189554	9.94841E-05	9.29946E-06	0	0	0	
0.280833	-0.00395685	0.000712797	0.000103714	9.44461E-06	0	0	0	
0.281	0.0025223	8.01551E-05	0.000102776	2.33505E-05	0	0	0	
0.281167	-0.00297622	-0.000638772	9.18048E-05	3.7754E-05	0	0	0	
0.281333	0.00659335	0.000683172	9.42301E-05	4.05076E-05	0	0	0	
0.2815	-0.00547804	-0.000856752	0.000102699	3.47848E-05	0	0	0	
0.281667	0.00887837	0.0028298	0.000126818	2.82868E-05	0	0	0	
0.281833	-0.0127478	0.000376656	0.0001687	5.12253E-05	0	0	0	
0.282	0.00445646	-0.00480544	0.000206037	6.9136E-05	0	0	0	
0.282167	0.00354535	0.00428932	0.000245303	8.79941E-05	0	0	0	
0.282333	-0.00379396	-0.00137244	0.000198691	7.6842E-05	0	0	0	
0.2825	0.00217617	0.00144184	0.000138287	5.9583E-05	0	0	0	
0.282667	0.00319773	-0.000106634	7.27354E-05	4.15646E-05	0	0	0	
0.282833	-0.00300703	-0.000510984	6.7625E-05	3.29907E-05	0	0	0	
0.283	0.00397508	0.000314566	7.18952E-05	2.57733E-05	0	0	0	
0.283167	-0.00808913	0.00040343	0.000100708	2.46438E-05	0	0	0	
0.283333	0.00465726	-0.00206057	0.000137934	3.10301E-05	0	0	0	
0.2835	-0.000911023	0.00205617	0.00019191	3.87889E-05	0	0	0	
0.283667	0.00788719	0.00126116	0.000212558	4.47982E-05	0	0	0	
0.283833	-0.00898972	1.55876E-05	0.000202588	3.46388E-05	0	0	0	
0.284	0.00805068	-0.00168852	0.000194712	4.10756E-05	0	0	0	
0.284167	-0.00418468	0.00146171	0.000194176	4.01347E-05	0	0	0	
0.284333	0.00348744	-0.0010484	0.000186099	4.25052E-05	0	0	0	
0.2845	-0.00487559	0.000566744	0.000149198	2.98416E-05	0	0	0	
0.284667	0.00774449	-0.000362156	0.0001355	2.02366E-05	0	0	0	
0.284833	-0.00413616	0.00122541	0.000126385	2.06894E-05	0	0	0	
0.285	0.00339604	2.171E-05	0.000118813	2.13528E-05	0	0	0	
0.285167	-0.00498936	-0.00097375	9.91978E-05	2.33081E-05	0	0	0	
0.285333	0.00618505	0.00111325	0.000106742	1.96303E-05	0	0	0	
0.2855	-0.00638958	-0.00018083	0.000114495	2.08242E-05	0	0	0	
0.285667	0.00746282	-0.000447918	0.000135936	1.63546E-05	0	0	0	
0.285833	-0.00538663	-0.000489466	0.000135505	1.93485E-05	0	0	0	
0.286	0.0040053	-0.000461963	0.000135717	1.9396E-05	0	0	0	
0.286167	-0.00306573	0.00182335	0.000111894	2.77049E-05	0	0	0	
0.286333	0.00307284	-0.00165857	9.31313E-05	3.23831E-05	0	0	0	
0.2865	-0.00516295	-0.00077859	8.57937E-05	3.04677E-05	0	0	0	
0.286667	0.00850569	0.000628055	0.000109179	2.65296E-05	0	0	0	
0.286833	-0.00585035	0.00155431	0.000124126	1.80031E-05	0	0	0	
0.287	0.00638125	-0.00276592	0.00014703	2.59485E-05	0	0	0	
0.287167	-0.00366551	8.37402E-05	0.000157471	3.91898E-05	0	0	0	
0.287333	0.00031512	0.000644115	0.000147089	3.8478E-05	0	0	0	
0.2875	-0.00175986	-0.000688712	0.000112019	4.04055E-05	0	0	0	
0.287667	0.00329804	0.000643988	7.05489E-05	2.86103E-05	0	0	0	
0.287833	-0.0032345	-0.000404207	5.90781E-05	2.8786E-05	0	0	0	
0.288	0.00652465	-0.00113345	7.81575E-05	2.48667E-05	0	0	0	
0.288167	-0.00856259	0.00155368	0.000110346	2.57045E-05	0	0	0	
0.288333	0.00654172	-0.00130114	0.000139477	2.98175E-05	0	0	0	
0.2885	-0.00548915	0.000218806	0.000179166	2.41872E-05	0	0	0	
0.288667	0.00273765	0.00130956	0.000164805	1.99664E-05	0	0	0	
0.288833	-0.00369492	-0.000947728	0.000131657	1.80431E-05	0	0	0	
0.289	0.00234585	0.000727274	8.42268E-05	1.91558E-05	0	0	0	
0.289167	-0.00239958	-0.00107302	7.75203E-05	2.29048E-05	0	0	0	
0.289333	0.00584815	-0.000309562	0.000100268	1.87424E-05	0	0	0	
0.2895	-0.00449727	-0.000152144	0.000111483	1.43035E-05	0	0	0	
0.289667	0.0043781	0.00143583	0.000111786	1.38127E-05	0	0	0	
0.289833	-0.00426785	0.000158865	0.000112334	2.15436E-05	0	0	0	
0.29	0.00433624	-0.00199334	0.000118379	2.60685E-05	0	0	0	
0.290167	-0.00159814	0.00156628	0.000114208	3.42278E-05	0	0	0	
0.290333	0.00450711	-0.00100022	0.000107627	3.47643E-05	0	0	0	
0.2905	-0.00511712	0.000633966	0.000103945	3.28967E-05	0	0	0	
0.290667	0.00733834	-0.000312067	0.000128435	1.90451E-05	0	0	0	
0.290833	-0.0033063	0.00117837	0.000135899	1.37722E-05	0	0	0	
0.291	0.00274302	-0.000442326	0.000121707	1.79142E-05	0	0	0	
0.291167	-0.00283942	-0.00103139	0.000101992	2.38297E-05	0	0	0	
0.291333	0.00487223	0.00143953	0.000102597	2.82508E-05	0	0	0	
0.2915	-0.00342981	0.000317095	0.000110694	2.76208E-05	0	0	0	
0.291667	0.00249272	-0.00122518	9.92625E-05	2.90026E-05	0	0	0	
0.291833	-0.00337467	0.000819283	8.31154E-05	2.84032E-05	0	0	0	
0.292	0.00634556	0.000145753	0.000100249	2.57391E-05	0	0	0	
0.292167	-0.00636527	0.000679818	0.000133013	1.97168E-05	0	0	0	
0.292333	0.00707356	-0.00146111	0.000160007	1.84422E-05	0	0	0	
0.2925	-0.00380639	0.00118748	0.000147101	2.27753E-05	0	0	0	
0.292667	0.00416597	0.000419537	0.000121518	2.50855E-05	0	0	0	
0.292833	-0.008277	-0.0017176	0.000123291	2.56148E-05	0	0	0	
0.293	0.00723354	0.00160803	0.000144098	2.44746E-05	0	0	0	
0.293167	-0.00650127	-0.00145489	0.000172197	3.09099E-05	0	0	0	
0.293333	0.00557367	0.000572625	0.000157457	2.90891E-05	0	0	0	
0.2935	-0.00518194	0.000164651	0.000140515	2.58038E-05	0	0	0	
0.293667	0.00437972	-0.00131412	0.000111513	2.09741E-05	0	0	0	
0.293833	-0.00476311	0.00291646	0.000110286	2.70019E-05	0	0	0	
0.294	0.00381521	-0.00252911	9.94315E-05	4.43714E-05	0	0	0	
0.294167	-0.00500698	7.53322E-05	0.0001106	5.66706E-05	0	0	0	
0.294333	0.00277139	-0.000530469	9.22222E-05	5.3366E-05	0	0	0	
0.2945	-0.00416228	0.000667547	8.55711E-05	3.77624E-05	0	0	0	
0.294667	0.00524596	0.000736072	7.95117E-05	2.55007E-05	0	0	0	
0.294833	-0.00898642	0.00103766	0.00010196	4.46395E-05	0	0	0	
0.295	0.00603605	-0.00343681	0.000154564	5.98202E-05	0	0	0	
0.295167	-0.000182349	0.000741537	0.000178292	6.52174E-05	0	0	0	
0.295333	-0.000565982	0.000364428	0.000164213	5.30433E-05	0	0	0	
0.2955	-0.00289717	0.000799979	0.000109756	3.84473E-05	0	0	0	
0.295667	0.00405095	-0.000367624	7.79873E-05	3.39052E-05	0	0	0	
0.295833	-0.00823297	-0.000946761	9.18992E-05	2.013E-05	0	0	0	
0.296	0.00908486	0.000905413	0.000129789	1.78304E-05	0	0	0	
0.296167	-0.00897118	-0.000164487	0.00016891	1.8487E-05	0	0	0	
0.296333	0.00498326	-0.00263064	0.000169379	3.9338E-05	0	0	0	
0.2965	-0.00378851	0.00148774	0.000163511	4.24043E-05	0	0	0	
0.296667	0.00208541	0.00254097	0.0001222	5.39545E-05	0	0	0	
0.296833	-0.00523606	-0.00231196	0.000110085	4.87126E-05	0	0	0	
0.297	0.0065695	-0.000861367	8.75069E-05	5.53991E-05	0	0	0	
0.297167	-0.00658244	-0.000184898	0.000119785	4.34561E-05	0	0	0	
0.297333	0.00333782	0.000796743	0.000113836	3.28982E-05	0	0	0	
0.2975	-0.0068687	-0.00110411	0.000126641	2.7113E-05	0	0	0	
0.297667	0.0045585	0.000553332	0.00011492	2.79233E-05	0	0	0	
0.297833	-0.00281602	-0.000261708	0.00012302	2.67345E-05	0	0	0	
0.298	0.00327305	-3.12161E-05	0.000105899	2.78631E-05	0	0	0	
0.298167	-0.00453586	-0.000542343	9.38441E-05	3.02162E-05	0	0	0	
0.298333	0.00528062	-2.72929E-06	8.80309E-05	2.57282E-05	0	0	0	
0.2985	-0.00671221	0.00034362	0.000104763	1.57998E-05	0	0	0	
0.298667	0.00386763	-0.000387468	0.000114473	2.06351E-05	0	0	0	
0.298833	-0.00504839	-0.00112286	0.000109107	3.30093E-05	0	0	0	
0.299	0.00722227	0.000822399	0.000113605	3.73672E-05	0	0	0	
0.299167	-0.00356764	0.000136202	0.000117373	2.3467E-05	0	0	0	
0.299333	0.00204976	1.66957E-05	0.000122946	1.03282E-05	0	0	0	
0.2995	-0.00297858	0.0012564	9.57987E-05	1.01026E-05	0	0	0	
0.299667	0.00356249	-0.00228408	7.79434E-05	2.03941E-05	0	0	0	
0.299833	-0.00546491	0.00266108	8.74558E-05	3.45304E-05	0	0	0	
0.3	0.00576433	-0.000751562	0.000111415	4.46766E-05	0	0	0	
0.300167	-0.00388316	-0.00114794	0.000116352	4.90838E-05	0	0	0	
0.300333	0.0067685	-0.00011103	0.000114118	4.50149E-05	0	0	0	
0.3005	-0.00455808	0.00256407	0.000107237	5.96192E-05	0	0	0	
0.300667	0.00470656	-0.0013176	0.000116936	5.76133E-05	0	0	0	
0.300833	-0.00761248	0.000258214	0.000127407	4.98787E-05	0	0	0	
0.301	0.00869362	0.000275381	0.000140476	2.18127E-05	0	0	0	
0.301167	-0.0079756	-0.000295629	0.000165358	1.07848E-05	0	0	0	
0.301333	0.00185914	0.000572122	0.000172027	1.18148E-05	0	0	0	
0.3015	0.000137608	-0.00204589	0.000160758	1.65008E-05	0	0	0	
0.301667	0.00391455	0.00348179	0.000127032	3.14648E-05	0	0	0	
0.301833	-0.0108878	0.000549656	0.000144716	4.41706E-05	0	0	0	
0.302	0.00738636	-0.00181165	0.0001677	4.36214E-05	0	0	0	
0.302167	-0.00705181	-0.00101492	0.000188475	4.70236E-05	0	0	0	
0.302333	0.0020145	0.000638417	0.000140971	3.9308E-05	0	0	0	
0.3025	-0.00725909	0.000914784	0.000124932	3.89762E-05	0	0	0	
0.302667	0.00814684	-0.000309816	0.000132573	1.96665E-05	0	0	0	
0.302833	-0.00853037	0.00117739	0.000170864	1.4157E-05	0	0	0	
0.303	0.00402621	-0.00138419	0.000164016	1.79862E-05	0	0	0	
0.303167	-0.00395819	-2.09313E-05	0.000135642	2.65961E-05	0	0	0	
0.303333	0.00370472	-0.000912111	0.000112655	2.66236E-05	0	0	0	
0.3035	-0.00386577	0.00128735	0.00011404	2.47037E-05	0	0	0	
0.303667	0.00209243	0.000200076	0.0001176	2.39928E-05	0	0	0	
0.303833	-0.000305711	-0.000706928	8.56731E-05	2.42784E-05	0	0	0	
0.304	0.00769391	-0.000607046	7.50302E-05	1.8844E-05	0	0	0	
0.304167	-0.00769144	0.000702316	9.16193E-05	1.53387E-05	0	0	0	
0.304333	0.00829267	-3.41681E-05	0.000141369	1.41514E-05	0	0	0	
0.3045	-0.00481469	-3.85301E-05	0.000152873	1.48519E-05	0	0	0	
0.304667	0.00471819	-3.71501E-05	0.000132759	8.55373E-06	0	0	0	
0.304833	-0.00402763	0.000937236	0.000109792	8.09821E-06	0	0	0	
0.305	0.00385664	-0.00125427	0.000100954	1.21402E-05	0	0	0	
0.305167	-0.0018009	-0.00017621	8.83644E-05	1.91919E-05	0	0	0	
0.305333	0.0034815	0.000473999	7.64408E-05	1.86883E-05	0	0	0	
0.3055	-0.00341223	0.00020968	6.67959E-05	1.38821E-05	0	0	0	
0.305667	0.00375275	0.000461734	7.31323E-05	1.65372E-05	0	0	0	
0.305833	-0.0048857	0.000339053	8.91182E-05	1.57112E-05	0	0	0	
0.306	0.00236253	-0.0012283	9.34873E-05	1.9644E-05	0	0	0	
0.306167	-0.00394251	0.000306128	9.48404E-05	1.57214E-05	0	0	0	
0.306333	0.00570535	-0.000700423	0.000102651	1.81493E-05	0	0	0	
0.3065	-0.00583367	0.00194822	0.000112881	2.20089E-05	0	0	0	
0.306667	0.00409885	-0.00134485	0.000123877	2.56264E-05	0	0	0	
0.306833	-0.00535358	0.000206529	0.000111812	2.65609E-05	0	0	0	
0.307	0.00432114	-3.8318E-05	0.000105962	1.93706E-05	0	0	0	
0.307167	-0.00557623	-0.00058667	0.000101979	1.29657E-05	0	0	0	
0.307333	0.00593739	0.000196721	0.000117011	1.25995E-05	0	0	0	
0.3075	-0.00470121	0.000677914	0.000123975	2.26852E-05	0	0	0	
0.307667	0.00460696	-0.00134202	0.000137028	2.80782E-05	0	0	0	
0.307833	-0.00360277	0.00152151	0.000144484	3.18126E-05	0	0	0	
0.308	-0.00068733	-0.000959399	0.000129117	2.95799E-05	0	0	0	
0.308167	-0.00628403	-0.000804701	9.84604E-05	3.48863E-05	0	0	0	
0.308333	0.0104513	0.000298153	0.000108494	3.03715E-05	0	0	0	
0.3085	-0.00947166	-0.000569201	0.000142116	2.22446E-05	0	0	0	
0.308667	0.00933021	0.00168093	0.000190002	1.5669E-05	0	0	0	
0.308833	-0.00653196	0.000386648	0.000170845	2.72908E-05	0	0	0	
0.309	0.00264461	-0.00286558	0.000150749	3.96816E-05	0	0	0	
0.309167	-0.00323753	0.000212142	0.000109598	4.4499E-05	0	0	0	
0.309333	0.00529291	0.000495549	9.87645E-05	3.52767E-05	0	0	0	
0.3095	-0.00419977	0.000859628	9.14031E-05	2.2843E-05	0	0	0	
0.309667	0.000497564	-0.000161794	8.53457E-05	1.71658E-05	0	0	0	
0.309833	-0.00213819	0.000567966	6.52821E-05	1.37913E-05	0	0	0	
0.31	0.00445562	-0.000672609	7.1725E-05	1.5415E-05	0	0	0	
0.310167	-0.00161665	-0.00160277	7.14287E-05	2.23581E-05	0	0	0	
0.310333	0.00746351	0.00139067	8.8942E-05	2.75243E-05	0	0	0	
0.3105	-0.00579477	0.000429004	0.000110877	2.82962E-05	0	0	0	
0.310667	0.00647269	0.00100663	0.000119037	2.95284E-05	0	0	0	
0.310833	-0.0088472	-0.00107644	0.000157907	2.8084E-05	0	0	0	
0.311	0.0039004	-0.00220537	0.00015531	4.05723E-05	0	0	0	
0.311167	-0.00275732	0.00173095	0.000157143	3.68227E-05	0	0	0	
0.311333	0.00569901	0.000521228	0.000117662	4.6153E-05	0	0	0	
0.3115	-0.00179441	0.00223125	8.42566E-05	3.39005E-05	0	0	0	
0.311667	0.00474072	-0.00193356	8.66073E-05	3.66133E-05	0	0	0	
0.311833	-0.00630598	-0.00080605	9.5029E-05	3.49648E-05	0	0	0	
0.312	0.00503662	-7.0812E-05	0.000110785	3.94954E-05	0	0	0	
0.312167	-0.00504508	0.000548585	0.000114855	3.14247E-05	0	0	0	
0.312333	0.00496335	0.00129041	0.00010902	2.55932E-05	0	0	0	
0.3125	-0.0043709	0.000298169	0.000104803	2.17755E-05	0	0	0	
0.312667	0.00346984	-0.000826983	9.75969E-05	2.10578E-05	0	0	0	
0.312833	-0.00320059	-0.00129797	8.33317E-05	2.31208E-05	0	0	0	
0.313	0.00738646	0.00138149	8.63212E-05	2.59698E-05	0	0	0	
0.313167	-0.00950225	0.00091047	0.000108516	3.03657E-05	0	0	0	
0.313333	0.00851272	-0.00117655	0.000159579	2.63085E-05	0	0	0	
0.3135	-0.0025423	0.000986799	0.000183712	2.45504E-05	0	0	0	
0.313667	0.000502359	-0.0015872	0.000167088	2.48759E-05	0	0	0	
0.313833	-0.00331751	0.000967903	0.000127042	2.77748E-05	0	0	0	
0.314	0.00510804	5.99758E-05	0.000105613	2.59984E-05	0	0	0	
