0	0.00189294	-0.000264934	1.89294E-07	2.64934E-08	0	5	0	
0.000166667	0.0266144	0.0107096	0.000216096	7.03979E-05	0	5	0	
0.000333333	-0.0379128	-0.0148612	0.000453093	0.000169433	0	5	0	
0.0005	0.015604	0.010701	0.00062088	0.000242403	0	5	0	
0.000666667	0.000442566	-0.00287181	0.000478638	0.000218488	0	5	0	
0.000833333	0.0343925	0.00519513	0.000551361	0.000146608	0	5	0	
0.001	-0.056437	-0.0103766	0.000732604	0.000139844	0	5	0	
0.00116667	0.0205546	0.00255505	0.000895556	0.000155429	0	5	0	
0.00133333	0.0193525	0.00819471	0.000667612	0.000205968	0	5	0	
0.0015	0.010458	-0.00567795	0.000660826	0.000287765	0	5	0	
0.00166667	-0.0402915	-0.00942569	0.000813239	0.000337649	0	5	0	
0.00183333	0.0105828	0.0109618	0.000884903	0.000315602	0	5	0	
0.002	0.022616	-0.00679452	0.000655587	0.000242459	0	5	0	
0.00216667	0.0241999	0.00277781	0.000791567	0.000198791	0	5	0	
0.00233333	-0.0582388	-0.00549835	0.00110844	0.000217883	0	5	0	
0.0025	0.0224596	0.00173619	0.001241	0.000164034	0	5	0	
0.00266667	0.00080274	-0.0107106	0.000850058	0.000145443	0	5	0	
0.00283333	0.0282114	0.0158627	0.000778363	0.000174136	0	5	0	
0.003	-0.0392593	-0.0161449	0.000915608	0.000279158	0	5	0	
0.00316667	0.0266114	0.00761522	0.00103244	0.00034355	0	5	0	
0.00333333	-0.0193288	-5.13291E-05	0.000863306	0.000334444	0	5	0	
0.0035	0.0198762	0.00194927	0.000730702	0.000283757	0	5	0	
0.00366667	-0.0178576	-0.00773587	0.000738232	0.000235671	0	5	0	
0.00383333	0.0289742	0.0120654	0.000828717	0.000214177	0	5	0	
0.004	-0.0333148	-0.0170114	0.000909652	0.000269506	0	5	0	
0.00416667	0.0244641	0.00117657	0.000916931	0.000299984	0	5	0	
0.00433333	-0.0218079	-0.00425662	0.000868998	0.00026148	0	5	0	
0.0045	0.0308492	0.00335875	0.000841931	0.000155712	0	5	0	
0.00466667	-0.0230712	-0.00693306	0.000839688	0.000102341	0	5	0	
0.00483333	0.0155635	0.0106236	0.000807477	0.0001254	0	5	0	
0.005	-0.017707	-0.013261	0.000803804	0.000220562	0	5	0	
0.00516667	0.0260088	-0.00106766	0.000873981	0.000269285	0	5	0	
0.00533333	-0.0305537	-0.00962264	0.000962411	0.000285281	0	5	0	
0.0055	0.0323328	0.0097485	0.000966054	0.000276491	0	5	0	
0.00566667	-0.0222413	-0.0145762	0.000897082	0.000281745	0	5	0	
0.00583333	0.0153915	0.00661229	0.000804392	0.000283102	0	5	0	
0.006	-0.0169034	-0.000963029	0.000765044	0.000237197	0	5	0	
0.00616667	0.0243728	0.00203896	0.00081825	0.000230832	0	5	0	
0.00633333	-0.0305111	-0.0092124	0.000922284	0.000231805	0	5	0	
0.0065	0.0356842	0.00390445	0.000994963	0.0002432	0	5	0	
0.00666667	-0.033005	-0.00596564	0.000977964	0.000242384	0	5	0	
0.00683333	0.0175047	0.00715221	0.000849633	0.000270038	0	5	0	
0.007	-0.00641637	-0.00531855	0.000684534	0.000262766	0	5	0	
0.00716667	0.0151271	0.00355228	0.000675497	0.000204224	0	5	0	
0.00733333	-0.0237595	-0.00743198	0.000798502	0.000146858	0	5	0	
0.0075	0.0237803	0.00452689	0.000931938	0.000139958	0	5	0	
0.00766667	-0.0293903	-0.00834564	0.000957346	0.000164882	0	5	0	
0.00783333	0.0279714	0.00733772	0.00091533	0.000206438	0	5	0	
0.008	-0.0154183	-0.00408732	0.000823138	0.000222371	0	5	0	
0.00816667	0.0119658	0.00354691	0.000727312	0.000238024	0	5	0	
0.00833333	-0.0209304	-0.00692872	0.000735386	0.000232937	0	5	0	
0.0085	0.0252438	0.00866069	0.000830384	0.000251429	0	5	0	
0.00866667	-0.0271495	-0.00874459	0.000901048	0.000259934	0	5	0	
0.00883333	0.0272201	0.00651425	0.000879729	0.000247073	0	5	0	
0.009	-0.020656	-0.00177157	0.000816997	0.000190716	0	5	0	
0.00916667	0.0209697	0.00211498	0.000773491	0.000165047	0	5	0	
0.00933333	-0.0273613	-0.00841188	0.000782239	0.00018562	0	5	0	
0.0095	0.0239318	0.00680189	0.000790484	0.000235134	0	5	0	
0.00966667	-0.0122408	-0.00976588	0.000745796	0.000252641	0	5	0	
0.00983333	0.0168575	0.0106527	0.000733122	0.000262905	0	5	0	
0.01	-0.0297386	-0.00908222	0.000825379	0.000287278	0	5	0	
0.0101667	0.0287832	0.00667134	0.000923021	0.000278174	0	5	0	
0.0103333	-0.0214049	-0.00333969	0.000905909	0.000227025	0	5	0	
0.0105	0.0250485	0.00205123	0.000834954	0.000168213	0	5	0	
0.0106667	-0.0261759	-0.0107211	0.00082511	0.00018614	0	5	0	
0.0108333	0.0199889	0.00466402	0.000828228	0.000234842	0	5	0	
0.011	-0.0160302	-0.00103676	0.000800856	0.000239416	0	5	0	
0.0111667	0.0179428	0.0024116	0.000806026	0.000198494	0	5	0	
0.0113333	-0.029447	-0.00243099	0.000888795	0.000154729	0	5	0	
0.0115	0.0352705	0.0092845	0.000971875	0.000161247	0	5	0	
0.0116667	-0.0263213	-0.0101358	0.00093867	0.000210322	0	5	0	
0.0118333	0.0130621	0.00494487	0.000803059	0.000229072	0	5	0	
0.012	-0.0158584	-0.00188693	0.00071657	0.000220429	0	5	0	
0.0121667	0.0239642	0.00367985	0.000751521	0.000194092	0	5	0	
0.0123333	-0.0236691	-0.00335114	0.000820308	0.00019596	0	5	0	
0.0125	0.0181537	0.0127547	0.000839862	0.000218364	0	5	0	
0.0126667	-0.0234259	-0.00986095	0.000851507	0.000264936	0	5	0	
0.0128333	0.0315677	0.0130614	0.000910448	0.000265907	0	5	0	
0.013	-0.02688	-0.010891	0.000928105	0.00026984	0	5	0	
0.0131667	0.0173112	0.00752629	0.00085417	0.000204633	0	5	0	
0.0133333	-0.0177752	-0.00174121	0.00078524	0.000166404	0	5	0	
0.0135	0.0259519	0.00469225	0.000824573	0.000120979	0	5	0	
0.0136667	-0.0301477	-0.0100414	0.00089795	0.00016141	0	5	0	
0.0138333	0.0216726	0.0171247	0.000892592	0.000221689	0	5	0	
0.014	-0.0143695	-0.0104826	0.000802643	0.000291164	0	5	0	
0.0141667	0.0173057	0.00959796	0.000772612	0.000284444	0	5	0	
0.0143333	-0.0277453	-0.00610658	0.000835797	0.000283254	0	5	0	
0.0145	0.0284517	0.012208	0.000905563	0.000273008	0	5	0	
0.0146667	-0.018978	-0.0150234	0.000871261	0.000308182	0	5	0	
0.0148333	0.015371	0.0163554	0.000805922	0.000326638	0	5	0	
0.015	-0.025222	-0.00911661	0.000800427	0.00033817	0	5	0	
0.0151667	0.0217304	0.00770324	0.000814557	0.000300591	0	5	0	
0.0153333	-0.0159811	-0.00395895	0.000793908	0.000265722	0	5	0	
0.0155	0.0231908	0.0111504	0.000813447	0.000245649	0	5	0	
0.0156667	-0.0258341	-0.00697718	0.000863454	0.000257892	0	5	0	
0.0158333	0.017428	0.00554403	0.000872736	0.000228707	0	5	0	
0.016	-0.0286007	-0.00385592	0.000880884	0.000210717	0	5	0	
0.0161667	0.0479537	0.00676642	0.000948541	0.000234034	0	5	0	
0.0163333	-0.0267842	-0.0157746	0.000947715	0.000281893	0	5	0	
0.0165	-0.0109611	0.00681233	0.00071347	0.000292335	0	5	0	
0.0166667	-0.000785055	0.00554065	0.000651919	0.000206547	0	5	0	
0.0168333	0.0429082	0.0022364	0.00092408	0.000138977	0	5	0	
0.017	-0.0399312	-0.00264325	0.00117996	0.000137123	0	5	0	
0.0171667	0.00526477	0.00686574	0.00103714	0.000183077	0	5	0	
0.0173333	-0.0203848	-0.0109858	0.000864538	0.000245023	0	5	0	
0.0175	0.056621	0.0122453	0.000992133	0.000302471	0	5	0	
0.0176667	-0.027996	-0.0113106	0.00107571	0.000352656	0	5	0	
0.0178333	-0.018519	0.0170659	0.000818197	0.000350291	0	5	0	
0.018	-0.0115199	-0.00298557	0.000750146	0.000279969	0	5	0	
0.0181667	0.0532594	0.0040163	0.0010335	0.000189613	0	5	0	
0.0183333	-0.0349016	3.29133E-05	0.00125827	0.000169928	0	5	0	
0.0185	0.00163608	0.00634726	0.00100031	0.000194971	0	5	0	
0.0186667	-0.012844	-0.00299061	0.000763783	0.000250777	0	5	0	
0.0188333	0.0328943	-0.000610828	0.000848395	0.000233388	0	5	0	
0.019	-0.0324606	-0.00446085	0.00101025	0.000203373	0	5	0	
0.0191667	0.0216108	0.00343127	0.000975501	0.000210075	0	5	0	
0.0193333	-0.022715	-0.00486669	0.000841936	0.000234308	0	5	0	
0.0195	0.0216592	0.00404592	0.000773573	0.000222715	0	5	0	
0.0196667	-0.0167846	-0.00582148	0.000730133	0.000177407	0	5	0	
0.0198333	0.0168665	-0.00397502	0.000711057	0.000168516	0	5	0	
0.02	-0.0225372	-0.00758198	0.000748679	0.000209191	0	5	0	
0.0201667	0.0209479	0.00787529	0.000821888	0.000264243	0	5	0	
0.0203333	-0.0215486	-0.00619453	0.000852398	0.000267454	0	5	0	
0.0205	0.0238447	0.000931597	0.000844821	0.000205864	0	5	0	
0.0206667	-0.0251173	-0.0071459	0.000824611	0.000143932	0	5	0	
0.0208333	0.0250393	0.00860207	0.000838047	0.000159698	0	5	0	
0.021	-0.0262874	-0.0119933	0.000862874	0.000191264	0	5	0	
0.0211667	0.0201935	0.00642051	0.000853971	0.00021554	0	5	0	
0.0213333	-0.0155871	0.00452111	0.000805718	0.000169175	0	5	0	
0.0215	0.0224337	0.00458971	0.000815943	0.000196675	0	5	0	
0.0216667	-0.0333562	-0.0131191	0.000908816	0.00024503	0	5	0	
0.0218333	0.0349341	0.0123588	0.00102342	0.000332851	0	5	0	
0.022	-0.0310265	-0.0125917	0.00101691	0.000370251	0	5	0	
0.0221667	0.0197991	0.012133	0.000864765	0.000370301	0	5	0	
0.0223333	-0.00834944	-0.0068492	0.000682684	0.000305853	0	5	0	
0.0225	0.00992837	-0.00110652	0.000633211	0.000223936	0	5	0	
0.0226667	-0.0160263	0.00240019	0.00073322	0.000175402	0	5	0	
0.0228333	0.0212898	-0.00268185	0.000889068	0.000207396	0	5	0	
0.023	-0.0296343	-0.00100018	0.000985629	0.000251407	0	5	0	
0.0231667	0.0303058	0.00528663	0.00101021	0.000249263	0	5	0	
0.0233333	-0.031049	-0.0043457	0.000990645	0.000200885	0	5	0	
0.0235	0.0291082	0.00389616	0.000922643	0.000157887	0	5	0	
0.0236667	-0.0145547	-0.00930689	0.000791804	0.000137903	0	5	0	
0.0238333	0.00704792	0.0112199	0.000682603	0.000175195	0	5	0	
0.024	-0.0210996	-0.0120985	0.000741122	0.000218558	0	5	0	
0.0241667	0.0296717	0.0118111	0.000877907	0.000246997	0	5	0	
0.0243333	-0.015006	-0.0104173	0.000913517	0.000242263	0	5	0	
0.0245	0.0140382	0.00919253	0.000837663	0.000232266	0	5	0	
0.0246667	-0.0341384	-0.0126871	0.000886318	0.000276646	0	5	0	
0.0248333	0.0359216	0.00618312	0.000968269	0.000304044	0	5	0	
0.025	-0.0117185	-0.00306825	0.000903328	0.00028496	0	5	0	
0.0251667	0.00985763	0.000576045	0.000745685	0.000235897	0	5	0	
0.0253333	-0.0264038	-0.00934665	0.000807097	0.000237533	0	5	0	
0.0255	0.0321335	0.00574535	0.000938287	0.000302021	0	5	0	
0.0256667	-0.0227671	-0.00826191	0.000959174	0.000326498	0	5	0	
0.0258333	0.0209124	0.00732636	0.00084362	0.000309476	0	5	0	
0.026	-0.0251116	-0.0116154	0.000811947	0.000281358	0	5	0	
0.0261667	0.0191949	0.00628305	0.000811186	0.000264911	0	5	0	
0.0263333	-0.0130872	-0.00405132	0.000788528	0.000210065	0	5	0	
0.0265	0.0211201	-0.00125555	0.000807269	0.000146875	0	5	0	
0.0266667	-0.0273255	-0.00267091	0.000877378	0.000130311	0	5	0	
0.0268333	0.017015	0.00393377	0.000895389	0.000187521	0	5	0	
0.027	-0.0142016	-0.00424462	0.000842339	0.000256469	0	5	0	
0.0271667	0.0221511	0.0118051	0.000858973	0.000278627	0	5	0	
0.0273333	-0.0237014	-0.00874441	0.000909142	0.000273592	0	5	0	
0.0275	0.0200513	0.00718607	0.000916893	0.000235134	0	5	0	
0.0276667	-0.0261274	-0.00591081	0.000882855	0.00021583	0	5	0	
0.0278333	0.0283719	0.0040767	0.000856248	0.000188056	0	5	0	
0.028	-0.0167281	-0.00611061	0.000802826	0.000189217	0	5	0	
0.0281667	0.0146525	0.00886617	0.000743129	0.000218211	0	5	0	
0.0283333	-0.0224846	-0.00568878	0.000751428	0.000251503	0	5	0	
0.0285	0.018746	0.00418684	0.000788398	0.000242428	0	5	0	
0.0286667	-0.0158189	0.000165736	0.000804669	0.000203267	0	5	0	
0.0288333	0.0268877	0.000961874	0.000845186	0.000201927	0	5	0	
0.029	-0.0251908	-0.00772198	0.000883036	0.000265263	0	5	0	
0.0291667	0.0113668	0.00566355	0.000836239	0.00031911	0	5	0	
0.0293333	-0.0152646	-0.00431815	0.000789818	0.000298973	0	5	0	
0.0295	0.0296347	0.00360413	0.000845435	0.000236493	0	5	0	
0.0296667	-0.0225485	0.00174995	0.000904817	0.000177787	0	5	0	
0.0298333	0.0180613	-0.00135879	0.000863663	0.000156442	0	5	0	
0.03	-0.025452	-0.00463913	0.000812435	0.000172334	0	5	0	
0.0301667	0.014035	0.00653599	0.000769895	0.00019536	0	5	0	
0.0303333	0.0022037	-0.0018994	0.000713441	0.000191665	0	5	0	
0.0305	0.0181862	0.00558047	0.000831197	0.000176977	0	5	0	
0.0306667	-0.0531105	-0.010228	0.00110803	0.000216231	0	5	0	
0.0308333	0.0422926	0.0107018	0.0012463	0.000263126	0	5	0	
0.031	0.00165133	-0.00647099	0.000963926	0.000288651	0	5	0	
0.0311667	-0.00187342	0.00818333	0.000678781	0.000273712	0	5	0	
0.0313333	-0.0283657	-0.00720528	0.000773986	0.000259745	0	5	0	
0.0315	0.0142303	0.00665467	0.000873406	0.000213904	0	5	0	
0.0316667	0.00706357	0.00376317	0.000829268	0.000152747	0	5	0	
0.0318333	0.0300986	-0.00397873	0.000929395	0.000142714	0	5	0	
0.032	-0.0593851	-0.00401345	0.00119354	0.000203994	0	5	0	
0.0321667	0.0247978	0.00641661	0.00128195	0.000279899	0	5	0	
0.0323333	0.00601299	-0.00550174	0.000870317	0.00030701	0	5	0	
0.0325	0.0163293	0.0117328	0.000726873	0.000272801	0	5	0	
0.0326667	-0.0304115	-0.0103223	0.00082292	0.000253672	0	5	0	
0.0328333	0.019523	0.00925367	0.000971346	0.000219777	0	5	0	
0.033	-0.0179257	-0.010819	0.000878634	0.000225207	0	5	0	
0.0331667	0.0201454	0.0021787	0.000792085	0.00018805	0	5	0	
0.0333333	-0.0117573	0.00270461	0.000767316	0.000146835	0	5	0	
0.0335	0.0163314	0.00287355	0.000802268	0.00013469	0	5	0	
0.0336667	-0.0280979	-0.0106776	0.000882982	0.000181491	0	5	0	
0.0338333	0.0234455	0.0128891	0.000943844	0.000280768	0	5	0	
0.034	-0.016318	-0.0146539	0.000892653	0.000342434	0	5	0	
0.0341667	0.0188572	0.0115705	0.00079956	0.000343987	0	5	0	
0.0343333	-0.022901	-0.00892993	0.00076581	0.000290141	0	5	0	
0.0345	0.0183701	0.0051942	0.000782808	0.000228177	0	5	0	
0.0346667	-0.015299	0.000901914	0.000793639	0.000158622	0	5	0	
0.0348333	0.0179232	-0.00143182	0.000847789	0.000143046	0	5	0	
0.035	-0.0264199	0.0010038	0.000935353	0.000169869	0	5	0	
0.0351667	0.0327066	0.0019514	0.000993424	0.000247303	0	5	0	
0.0353333	-0.0245744	-0.00529669	0.000929215	0.000304729	0	5	0	
0.0355	0.00182345	0.00910975	0.000741917	0.000306401	0	5	0	
0.0356667	0.00298967	-0.00730233	0.000652331	0.000275645	0	5	0	
0.0358333	0.0174863	0.006553	0.000828826	0.000249228	0	5	0	
0.036	-0.0300877	-0.0043756	0.00108322	0.00024513	0	5	0	
0.0361667	0.0270062	0.000846205	0.00116102	0.000235219	0	5	0	
0.0363333	-0.0269807	-0.00441072	0.00101485	0.000221469	0	5	0	
0.0365	0.0257084	0.0124859	0.000846428	0.000229403	0	5	0	
0.0366667	-0.0133246	-0.0115359	0.000697955	0.000267822	0	5	0	
0.0368333	-0.000861522	0.00194046	0.000569557	0.000270704	0	5	0	
0.037	-0.00301298	0.00156151	0.000584912	0.000222566	0	5	0	
0.0371667	0.0203862	-0.000916773	0.000756239	0.000161256	0	5	0	
0.0373333	-0.0288034	-0.00639862	0.000924248	0.00014998	0	5	0	
0.0375	0.018612	0.00713996	0.000918143	0.000215072	0	5	0	
0.0376667	-0.00962762	-0.00596642	0.000825074	0.000284987	0	5	0	
0.0378333	0.0201637	0.00779277	0.000866458	0.000312271	0	5	0	
0.038	-0.0339747	-0.00704456	0.000980834	0.000275045	0	5	0	
0.0381667	0.0297866	0.00676285	0.00101875	0.000216002	0	5	0	
0.0383333	-0.022957	-0.00942736	0.000915943	0.00019374	0	5	0	
0.0385	0.0228268	0.00731637	0.000820313	0.000226162	0	5	0	
0.0386667	-0.0169967	-0.00492405	0.000767729	0.000263489	0	5	0	
0.0388333	0.0102423	0.00637866	0.000705482	0.000260517	0	5	0	
0.039	-0.0156727	-0.00344972	0.000687579	0.000200631	0	5	0	
0.0391667	0.0237323	0.00242273	0.000750227	0.000138069	0	5	0	
0.0393333	-0.0204971	-0.0010318	0.000820322	0.000126841	0	5	0	
0.0395	0.0140207	0.00595431	0.000811291	0.00018027	0	5	0	
0.0396667	-0.0155692	-0.0118656	0.000789316	0.000250979	0	5	0	
0.0398333	0.0173313	0.012805	0.000818331	0.00028824	0	5	0	
0.04	-0.0205086	-0.0153202	0.000886917	0.000270586	0	5	0	
0.0401667	0.0255482	0.0110351	0.000971517	0.000261415	0	5	0	
0.0403333	-0.0305109	-0.00522288	0.0010333	0.000228109	0	5	0	
0.0405	0.0251642	0.000449041	0.00100053	0.00019234	0	5	0	
0.0406667	-0.0147038	-0.00640955	0.000850184	0.000168352	0	5	0	
0.0408333	0.0104314	0.007646	0.000704847	0.000216607	0	5	0	
0.041	-0.014052	-0.0131723	0.000677731	0.000278732	0	5	0	
0.0411667	0.0134138	0.0125061	0.000727018	0.000325863	0	5	0	
0.0413333	-0.0115502	-0.0128568	0.000760741	0.000307207	0	5	0	
0.0415	0.0121548	0.0083378	0.000781292	0.000293583	0	5	0	
0.0416667	-0.0218357	-0.011384	0.000840493	0.000246632	0	5	0	
0.0418333	0.0286955	0.00755461	0.00090677	0.000251506	0	5	0	
0.042	-0.0220542	-0.00631396	0.000884772	0.000252491	0	5	0	
0.0421667	0.0138232	0.00896814	0.000779591	0.000300583	0	5	0	
0.0423333	-0.0153424	-0.0137576	0.00074005	0.000332057	0	5	0	
0.0425	0.0204463	0.0123324	0.000809333	0.000356748	0	5	0	
0.0426667	-0.0206235	-0.011025	0.000880722	0.00032427	0	5	0	
0.0428333	0.0149044	0.00921165	0.00086016	0.000281189	0	5	0	
0.043	-0.0151323	-0.01131	0.000813857	0.000255966	0	5	0	
0.0431667	0.0191232	0.00973538	0.000839733	0.000270365	0	5	0	
0.0433333	-0.0184703	-0.00500357	0.000877943	0.000277969	0	5	0	
0.0435	0.0148724	0.00688614	0.000856262	0.000284459	0	5	0	
0.0436667	-0.015041	-0.0105567	0.000802946	0.000309447	0	5	0	
0.0438333	0.0158399	0.012631	0.000772249	0.000326988	0	5	0	
0.044	-0.0129498	-0.0125684	0.000757242	0.000336916	0	5	0	
0.0441667	0.0141741	0.00805561	0.000768574	0.000315207	0	5	0	
0.0443333	-0.0216604	-0.00545086	0.000829224	0.000305235	0	5	0	
0.0445	0.0248539	0.00285772	0.000883073	0.000263423	0	5	0	
0.0446667	-0.0221902	5.70636E-05	0.000881683	0.00022123	0	5	0	
0.0448333	0.0249232	0.00838493	0.000856333	0.000208777	0	5	0	
0.045	-0.02097	-0.0105395	0.000806029	0.000251612	0	5	0	
0.0451667	0.000977311	0.00790126	0.000691411	0.000275663	0	5	0	
0.0453333	-0.00402539	-0.00688102	0.000708038	0.000268098	0	5	0	
0.0455	0.0417474	0.00532142	0.000970976	0.000235215	0	5	0	
0.0456667	-0.0414388	-0.00856402	0.00117058	0.000216275	0	5	0	
0.0458333	-0.00616785	0.00843095	0.000987165	0.000209677	0	5	0	
0.046	0.0133037	-0.0036551	0.000693507	0.000216475	0	5	0	
0.0461667	0.0314477	0.0109247	0.000873449	0.000256747	0	5	0	
0.0463333	-0.0371414	-0.012729	0.00112397	0.000297514	0	5	0	
0.0465	-0.00203057	0.00504924	0.00106954	0.000299976	0	5	0	
0.0466667	-0.00825044	-0.00345938	0.000869911	0.000286838	0	5	0	
0.0468333	0.0543577	0.00997535	0.00102318	0.000305072	0	5	0	
0.047	-0.0364515	-0.00700882	0.00116199	0.000333217	0	5	0	
0.0471667	-0.0125946	0.00791024	0.000934917	0.000305908	0	5	0	
0.0473333	0.00351452	-0.00508294	0.000693431	0.00024378	0	5	0	
0.0475	0.0324482	0.00668326	0.000889589	0.000200534	0	5	0	
0.0476667	-0.0271922	-0.00308854	0.00108341	0.000213363	0	5	0	
0.0478333	0.00864077	0.00306732	0.000983395	0.000225012	0	5	0	
0.048	-0.0132158	-0.00281853	0.000788854	0.000230773	0	5	0	
0.0481667	0.0235666	0.00849188	0.000841661	0.000204926	0	5	0	
0.0483333	-0.0229804	-0.0100896	0.00095953	0.000207676	0	5	0	
0.0485	0.0229623	0.0128403	0.00093928	0.000224308	0	5	0	
0.0486667	-0.018034	-0.00831086	0.000826261	0.000271459	0	5	0	
0.0488333	0.011561	0.00249122	0.000736218	0.000265007	0	5	0	
0.049	-0.0131531	-0.00173871	0.000752843	0.000255642	0	5	0	
0.0491667	0.0205412	0.00570615	0.000847141	0.000264301	0	5	0	
0.0493333	-0.0216152	-0.00803852	0.000944767	0.000329523	0	5	0	
0.0495	0.022203	0.0140492	0.000947471	0.000368379	0	5	0	
0.0496667	-0.0197768	-0.0114965	0.000890065	0.000407276	0	5	0	
0.0498333	0.0196214	0.0117759	0.000830329	0.000375063	0	5	0	
0.05	-0.0163311	-0.00408651	0.000786275	0.000338944	0	5	0	
0.0501667	0.00939565	0.000765332	0.000739938	0.000202664	0	5	0	
0.0503333	-0.00663613	0.00846598	0.000756393	0.000110784	0	5	0	
0.0505	0.022024	-0.00973747	0.000873901	0.000131488	0	5	0	
0.0506667	-0.0341836	-0.00371391	0.00101305	0.000240162	0	5	0	
0.0508333	0.0295341	0.0122167	0.00101125	0.000366434	0	5	0	
0.051	-0.0144816	-0.0125657	0.000833949	0.000384825	0	5	0	
0.0511667	0.00717626	0.0132404	0.000642357	0.000369494	0	5	0	
0.0513333	-0.00295829	-0.0108993	0.000573279	0.000337279	0	5	0	
0.0515	0.000271923	0.00525117	0.000619904	0.000275461	0	5	0	
0.0516667	-0.011045	-0.00581568	0.000801865	0.000211364	0	5	0	
0.0518333	0.030315	0.0017031	0.00101955	0.000173941	0	5	0	
0.052	-0.0356491	-0.0059144	0.00114096	0.000215628	0	5	0	
0.0521667	0.0293705	0.00295848	0.00106757	0.000284113	0	5	0	
0.0523333	-0.0211229	-0.00454621	0.000881281	0.000297381	0	5	0	
0.0525	0.0137523	0.000467696	0.000718267	0.000279494	0	5	0	
0.0526667	-0.0130532	-0.00380937	0.000653383	0.000263369	0	5	0	
0.0528333	0.0140234	0.0102072	0.000685999	0.000262839	0	5	0	
0.053	-0.0117409	-0.0138106	0.000756002	0.000261073	0	5	0	
0.0531667	0.0117652	0.00960075	0.000818145	0.000255548	0	5	0	
0.0533333	-0.0170712	-0.00741628	0.000868243	0.000232065	0	5	0	
0.0535	0.0174123	0.00321297	0.000897282	0.000211603	0	5	0	
0.0536667	-0.0161839	-0.00442753	0.000893416	0.000186679	0	5	0	
0.0538333	0.0206622	0.00670035	0.000892602	0.000203439	0	5	0	
0.054	-0.0232024	-0.012461	0.000890834	0.000233196	0	5	0	
0.0541667	0.00889634	0.00709811	0.000811395	0.000282728	0	5	0	
0.0543333	-0.00120677	-0.00550728	0.000681384	0.000288337	0	5	0	
0.0545	0.0117216	0.00709514	0.000692437	0.000272592	0	5	0	
0.0546667	-0.0231465	-0.00741415	0.000830259	0.000242814	0	5	0	
0.0548333	0.0197879	0.00716866	0.000936375	0.000232659	0	5	0	
0.055	-0.0172218	-0.00850872	0.000900226	0.000223577	0	5	0	
0.0551667	0.0204503	0.00170087	0.000845474	0.000217351	0	5	0	
0.0553333	-0.0247684	-0.00487775	0.000823226	0.000214368	0	5	0	
0.0555	0.0192067	0.00709417	0.000788236	0.000235938	0	5	0	
0.0556667	-0.0101504	-0.00396352	0.000699971	0.00024496	0	5	0	
0.0558333	0.00553447	0.00263481	0.000656804	0.000235409	0	5	0	
0.056	-0.0125457	-0.000721492	0.000740778	0.00021595	0	5	0	
0.0561667	0.0229235	0.0053316	0.000909615	0.000204894	0	5	0	
0.0563333	-0.0221114	-0.00936716	0.00103378	0.000211554	0	5	0	
0.0565	0.0246046	0.00909297	0.00105373	0.00023051	0	5	0	
0.0566667	-0.032443	-0.00660344	0.00103888	0.000255345	0	5	0	
0.0568333	0.0317453	0.0101791	0.000983161	0.000284093	0	5	0	
0.057	-0.00930199	-0.00562961	0.000824657	0.000286923	0	5	0	
0.0571667	-0.00684337	0.00151319	0.000615867	0.000238949	0	5	0	
0.0573333	0.00374571	0.00415822	0.000608382	0.000199131	0	5	0	
0.0575	0.0131723	0.0010533	0.000816144	0.000194316	0	5	0	
0.0576667	-0.0243314	-0.00553261	0.00107573	0.000242339	0	5	0	
0.0578333	0.0307819	0.00619119	0.00116609	0.00027996	0	5	0	
0.058	-0.0273513	-0.00334539	0.00110158	0.000296669	0	5	0	
0.0581667	0.02333	0.00451726	0.000963908	0.00030583	0	5	0	
0.0583333	-0.0166677	-0.00724797	0.000823116	0.000285298	0	5	0	
0.0585	0.00920238	0.00666455	0.000719165	0.000218828	0	5	0	
0.0586667	-0.00231984	-0.00835183	0.00070174	0.000178123	0	5	0	
0.0588333	0.0120625	0.00619133	0.000808212	0.000201311	0	5	0	
0.059	-0.0263546	-0.00500651	0.000985086	0.00026417	0	5	0	
0.0591667	0.0268597	0.00671864	0.00105519	0.000273119	0	5	0	
0.0593333	-0.00694193	-0.00554561	0.000924436	0.00023924	0	5	0	
0.0595	0.00657156	0.00215806	0.000786891	0.000178504	0	5	0	
0.0596667	-0.0219281	-0.00534914	0.000835777	0.000135235	0	5	0	
0.0598333	0.0200589	-0.00232191	0.000902427	0.000115456	0	5	0	
0.06	-0.00266421	-0.000317875	0.000844183	0.000175262	0	5	0	
0.0601667	0.00977521	0.0129741	0.000780029	0.000308866	0	5	0	
0.0603333	-0.0160381	-0.0183521	0.000814346	0.000427873	0	5	0	
0.0605	-0.00127088	0.0117474	0.000806898	0.000425733	0	5	0	
0.0606667	0.00162767	-0.00886222	0.00082673	0.000340681	0	5	0	
0.0608333	0.0409111	0.00731924	0.00108257	0.000260651	0	5	0	
0.061	-0.0569255	-0.00450772	0.00131721	0.000253657	0	5	0	
0.0611667	0.0103818	0.00431292	0.00119634	0.000222511	0	5	0	
0.0613333	0.0201392	-0.00647419	0.000692384	0.000204855	0	5	0	
0.0615	0.0120249	0.0080543	0.000668413	0.000204662	0	5	0	
0.0616667	-0.026019	-0.00948916	0.000820078	0.000242927	0	5	0	
0.0618333	-0.00613969	0.00395969	0.000886961	0.000229966	0	5	0	
0.062	-0.000434424	0.00059279	0.000817441	0.00018434	0	5	0	
0.0621667	0.0535924	0.0151175	0.0010713	0.000176905	0	5	0	
0.0623333	-0.0437811	-0.0132202	0.00128898	0.00029604	0	5	0	
0.0625	-0.013559	0.00636631	0.00107963	0.000407725	0	5	0	
0.0626667	0.00878888	-0.00565577	0.000755143	0.00043962	0	5	0	
0.0628333	0.038183	0.00239677	0.00097045	0.000344362	0	5	0	
0.063	-0.0336564	-0.00819378	0.00119092	0.000269434	0	5	0	
0.0631667	0.000652462	0.0148589	0.00106773	0.00030273	0	5	0	
0.0633333	-0.00439954	-0.00464971	0.000783237	0.000373793	0	5	0	
0.0635	0.0235133	-0.00765647	0.000840502	0.000339448	0	5	0	
0.0636667	-0.0231994	0.00486951	0.00100509	0.000254884	0	5	0	
0.0638333	0.0193824	-0.000493263	0.000995835	0.000177376	0	5	0	
0.064	-0.0201902	-0.00586744	0.000865692	0.000224646	0	5	0	
0.0641667	0.0188255	0.00213995	0.0007996	0.000235736	0	5	0	
0.0643333	-0.0149363	-0.00382917	0.000761887	0.00024656	0	5	0	
0.0645	0.00919499	0.0102006	0.000701153	0.000248064	0	5	0	
0.0646667	-0.00712477	-0.0165769	0.000687945	0.000261248	0	5	0	
0.0648333	0.0162755	0.00267615	0.000773462	0.000274647	0	5	0	
0.065	-0.0215474	0.00174478	0.000886974	0.000228348	0	5	0	
0.0651667	0.020501	0.00808948	0.0009425	0.00022312	0	5	0	
0.0653333	-0.0207957	-0.00924061	0.000929868	0.000223785	0	5	0	
0.0655	0.0217717	0.00838242	0.000894272	0.000228193	0	5	0	
0.0656667	-0.0138389	-0.00342069	0.000856624	0.00019953	0	5	0	
0.0658333	0.0164531	-0.00293994	0.000854834	0.000142495	0	5	0	
0.066	-0.0300242	-0.000310332	0.00094958	0.000163665	0	5	0	
0.0661667	0.0347438	0.00587172	0.00104523	0.000227428	0	5	0	
0.0663333	-0.0235752	-0.00459672	0.00101837	0.000315625	0	5	0	
0.0665	0.0161094	0.00448059	0.000878609	0.000369562	0	5	0	
0.0666667	-0.0158875	-0.00841056	0.000793671	0.000373641	0	5	0	
0.0668333	0.011755	0.00640095	0.000759332	0.00032656	0	5	0	
0.067	-0.00181778	-0.00471295	0.000760975	0.000249734	0	5	0	
0.0671667	0.00654587	-0.000113936	0.000812692	0.000219841	0	5	0	
0.0673333	-0.0158497	-0.00473711	0.000954111	0.000237119	0	5	0	
0.0675	0.0273508	0.000308195	0.00111575	0.000229496	0	5	0	
0.0676667	-0.0319434	0.000159468	0.00114684	0.000146435	0	5	0	
0.0678333	0.0186596	-0.00461769	0.000997259	9.13872E-05	0	5	0	
0.068	-0.00469187	0.00184003	0.000779212	0.000127069	0	5	0	
0.0681667	0.0115354	-0.00516989	0.000691981	0.0002272	0	5	0	
0.0683333	-0.0138298	-0.00338514	0.000739508	0.000283761	0	5	0	
0.0685	0.00974417	0.00082763	0.000822969	0.000283349	0	5	0	
0.0686667	-0.0176037	-0.00195492	0.000885242	0.00024737	0	5	0	
0.0688333	0.0230051	0.00433208	0.000937395	0.000231315	0	5	0	
0.069	-0.015949	-0.0059466	0.000917742	0.000239392	0	5	0	
0.0691667	0.0109873	0.00388323	0.000813318	0.000235401	0	5	0	
0.0693333	-0.0134476	-0.00438716	0.000741969	0.000208655	0	5	0	
0.0695	0.00877589	0.00248763	0.000736521	0.000170551	0	5	0	
0.0696667	-0.00463379	-0.00109187	0.000755728	0.000150638	0	5	0	
0.0698333	0.0152838	0.00123879	0.000824403	0.0001371	0	5	0	
0.07	-0.0271347	0.00130482	0.000909225	0.000151118	0	5	0	
0.0701667	0.0174876	0.003912	0.000898568	0.000191859	0	5	0	
0.0703333	-0.00335757	-0.00801707	0.000746694	0.000242081	0	5	0	
0.0705	0.00921567	0.00411513	0.000688054	0.000237777	0	5	0	
0.0706667	-0.0194674	-0.00239465	0.000776731	0.000174429	0	5	0	
0.0708333	0.0186818	0.00370807	0.000876923	0.000127904	0	5	0	
0.071	-0.0157658	-0.00453792	0.000860398	0.000168643	0	5	0	
0.0711667	0.0170163	0.0172262	0.000815529	0.000238393	0	5	0	
0.0713333	-0.0151963	-0.0133297	0.000808368	0.000314146	0	5	0	
0.0715	0.0126665	0.00649021	0.000801635	0.000280926	0	5	0	
0.0716667	-0.00986212	-0.0134601	0.000789837	0.000256758	0	5	0	
0.0718333	0.0113091	0.00880682	0.000810073	0.000247262	0	5	0	
0.072	-0.0194837	0.000211695	0.000862781	0.000252439	0	5	0	
0.0721667	0.0201297	0.00476216	0.000890452	0.000240709	0	5	0	
0.0723333	-0.0126716	-0.00445359	0.000849513	0.000246157	0	5	0	
0.0725	0.00743006	0.0127235	0.000781973	0.00031224	0	5	0	
0.0726667	-0.010459	-0.0147208	0.000764588	0.00037456	0	5	0	
0.0728333	0.0174124	0.00456995	0.000797578	0.000339937	0	5	0	
0.073	-0.017299	-0.00243602	0.000823028	0.000224512	0	5	0	
0.0731667	0.0114689	0.00117619	0.000823471	0.000155916	0	5	0	
0.0733333	-0.016439	-0.0025492	0.000858806	0.000155692	0	5	0	
0.0735	0.0197318	0.00420791	0.000905494	0.000223686	0	5	0	
0.0736667	-0.0132512	-0.00309245	0.000863378	0.000269785	0	5	0	
0.0738333	0.0064569	0.00898623	0.000754589	0.000289647	0	5	0	
0.074	-0.0106063	-0.0129282	0.000739177	0.000305747	0	5	0	
0.0741667	0.0168283	0.00893195	0.000838519	0.000310983	0	5	0	
0.0743333	-0.0148661	-0.00185469	0.000894587	0.000262946	0	5	0	
0.0745	0.00703823	-0.000614503	0.000843626	0.000187651	0	5	0	
0.0746667	-0.0151803	-0.00182329	0.000815194	0.000147527	0	5	0	
0.0748333	0.0207822	0.00966885	0.000854241	0.000150155	0	5	0	
0.075	-0.0121329	0.000165987	0.000850924	0.000164376	0	5	0	
0.0751667	0.0114557	-0.00334185	0.000824615	0.00015533	0	5	0	
0.0753333	-0.0308471	-0.00371684	0.000886555	0.000219725	0	5	0	
0.0755	0.0243467	0.0126702	0.000914818	0.0002968	0	5	0	
0.0756667	0.0110465	-0.00437811	0.00073235	0.000324683	0	5	0	
0.0758333	-0.0166578	0.000554321	0.000639795	0.000218687	0	5	0	
0.076	-0.024387	0.00622442	0.00095676	0.000143823	0	5	0	
0.0761667	0.0426292	-8.39675E-05	0.00131804	0.000136752	0	5	0	
0.0763333	-0.0126496	-0.00410883	0.00125023	0.000192745	0	5	0	
0.0765	-0.00184824	0.00701535	0.000855204	0.00022114	0	5	0	
0.0766667	-0.027796	-0.00507553	0.000815238	0.0002336	0	5	0	
0.0768333	0.0234112	0.0116826	0.000866039	0.00023928	0	5	0	
0.077	0.0211298	-0.00837076	0.000757836	0.000243262	0	5	0	
0.0771667	-0.0176881	0.00667812	0.000636068	0.000216768	0	5	0	
0.0773333	-0.0328564	-0.0088818	0.000968994	0.000201124	0	5	0	
0.0775	0.0410532	0.0104559	0.00128971	0.000215548	0	5	0	
0.0776667	-0.00883198	-0.0054658	0.00116487	0.000267666	0	5	0	
0.0778333	-0.000398712	0.00519145	0.000745906	0.000303286	0	5	0	
0.078	-0.0174675	0.00145976	0.000675734	0.000271551	0	5	0	
0.0781667	0.0152195	-0.00140328	0.000721957	0.000196301	0	5	0	
0.0783333	0.00227821	-0.00584371	0.000702293	0.000206491	0	5	0	
0.0785	0.00540396	0.0118246	0.000670045	0.000329381	0	5	0	
0.0786667	-0.0181887	-0.0112812	0.000802891	0.000434347	0	5	0	
0.0788333	0.0159555	-0.00163182	0.000938737	0.000364403	0	5	0	
0.079	-0.0178825	0.000295326	0.000936529	0.000229122	0	5	0	
0.0791667	0.0254011	0.00910816	0.000882578	0.00023943	0	5	0	
0.0793333	-0.0153859	-0.00914683	0.000815147	0.000361104	0	5	0	
0.0795	0.0023717	-0.00490352	0.000691356	0.000399775	0	5	0	
0.0796667	-0.00708367	0.00162383	0.000664722	0.000332155	0	5	0	
0.0798333	0.0167583	0.00413397	0.000755103	0.000273039	0	5	0	
0.08	-0.0101246	-0.00713012	0.000828141	0.000236565	0	5	0	
0.0801667	0.00806146	-0.00518851	0.000796587	0.000191176	0	5	0	
0.0803333	-0.0173244	0.00310127	0.000788621	0.000156726	0	5	0	
0.0805	0.0200607	0.00397396	0.000832108	0.00017591	0	5	0	
0.0806667	-0.0175733	-0.0189195	0.000852596	0.00021623	0	5	0	
0.0808333	0.0140055	0.0164163	0.000849042	0.00026899	0	5	0	
0.081	-0.0136058	-0.0145594	0.000857519	0.00035324	0	5	0	
0.0811667	0.0110148	0.00656173	0.000841698	0.000443074	0	5	0	
0.0813333	-0.00390746	-0.00845067	0.000765024	0.000447425	0	5	0	
0.0815	0.00133671	0.00852198	0.000742505	0.000387182	0	5	0	
0.0816667	-0.0114991	-0.020704	0.000874278	0.000352812	0	5	0	
0.0818333	0.0159488	0.019577	0.00103387	0.000434209	0	5	0	
0.082	-0.0151519	-0.00113547	0.00103341	0.000485206	0	5	0	
0.0821667	0.0136176	-0.0127906	0.000877536	0.000465338	0	5	0	
0.0823333	-0.0134795	0.0039067	0.000713308	0.000381106	0	5	0	
0.0825	0.00779318	0.0062511	0.000664962	0.000375833	0	5	0	
0.0826667	-0.00763695	-0.00872536	0.000700321	0.000378545	0	5	0	
0.0828333	0.00879125	0.00817121	0.000741318	0.000336728	0	5	0	
0.083	-0.00557214	-0.0015621	0.000776156	0.000258611	0	5	0	
0.0831667	0.0107398	0.00436659	0.000861063	0.000219851	0	5	0	
0.0833333	-0.0242059	-0.00358998	0.000965228	0.000236432	0	5	0	
0.0835	0.0149512	0.00615253	0.000979512	0.000238568	0	5	0	
0.0836667	-0.00203186	0.00394977	0.000862418	0.000227418	0	5	0	
0.0838333	0.0114545	0.00756985	0.000828834	0.000210499	0	5	0	
0.084	-0.0228035	-0.00784852	0.000910341	0.000253173	0	5	0	
0.0841667	0.0116443	0.00360647	0.00093812	0.000269768	0	5	0	
0.0843333	-0.00468877	0.0016229	0.000820013	0.000255862	0	5	0	
0.0845	0.0114885	0.00223355	0.00077212	0.000244753	0	5	0	
0.0846667	-0.0142482	-0.00122194	0.000817807	0.00028206	0	5	0	
0.0848333	0.0048677	0.00789668	0.000822371	0.000318852	0	5	0	
0.085	-0.00192137	-0.00235728	0.000748986	0.000313641	0	5	0	
0.0851667	0.00654415	0.00461874	0.000751303	0.000264888	0	5	0	
0.0853333	-0.0132518	-0.00351583	0.00084654	0.000222444	0	5	0	
0.0855	0.0197816	-0.000574607	0.00093093	0.000159939	0	5	0	
0.0856667	-0.0208049	-0.0022725	0.00092478	0.000115808	0	5	0	
0.0858333	0.0111608	-0.00150261	0.000818284	0.000115202	0	5	0	
0.086	-0.000668195	-0.00241318	0.000664335	0.000131519	0	5	0	
0.0861667	0.00517814	0.00322388	0.000628673	0.000151997	0	5	0	
0.0863333	-0.0158977	-0.00709829	0.000767598	0.000180277	0	5	0	
0.0865	0.0133485	0.00723941	0.00091422	0.00025121	0	5	0	
0.0866667	-0.00759697	-0.00881441	0.000936781	0.0003065	0	5	0	
0.0868333	0.0168186	0.000126194	0.000930708	0.000306981	0	5	0	
0.087	-0.0224743	-0.00313779	0.000896266	0.000251957	0	5	0	
0.0871667	0.000367983	0.00529498	0.000761015	0.00021481	0	5	0	
0.0873333	0.00646201	-0.00253199	0.000638366	0.000194384	0	5	0	
0.0875	0.00982458	-0.00309432	0.000750106	0.000202366	0	5	0	
0.0876667	-0.01413	0.00582892	0.000905262	0.000232704	0	5	0	
0.0878333	0.00615541	-0.000183529	0.000930804	0.000271864	0	5	0	
0.088	-0.0199717	-0.00672414	0.000874559	0.000314643	0	5	0	
0.0881667	0.0246652	0.0114158	0.000884103	0.000319074	0	5	0	
0.0883333	-0.0104612	-0.0130847	0.000842972	0.000293082	0	5	0	
0.0885	0.00596148	0.00549186	0.000751103	0.000245947	0	5	0	
0.0886667	-0.0195322	-0.000549153	0.000737556	0.000160975	0	5	0	
0.0888333	0.00567868	-7.32233E-05	0.000714748	0.000103502	0	5	0	
0.089	0.0104764	0.00357698	0.000631341	7.30784E-05	0	5	0	
0.0891667	0.00494484	-0.00406087	0.000736118	0.000104984	0	5	0	
0.0893333	-0.0331753	-0.00195564	0.00105546	0.000178931	0	5	0	
0.0895	0.0360109	0.00682342	0.00126779	0.0002783	0	5	0	
0.0896667	-0.0182598	-0.0130093	0.00109789	0.000328463	0	5	0	
0.0898333	0.0038087	0.00141386	0.000759943	0.000283557	0	5	0	
0.09	-0.00410572	0.0168168	0.000659103	0.0001922	0	5	0	
0.0901667	0.0153474	-0.0143451	0.000820197	0.000241989	0	5	0	
0.0903333	-0.0164559	-0.0122029	0.000999836	0.000393119	0	5	0	
0.0905	0.0015054	0.026845	0.000998854	0.000539	0	5	0	
0.0906667	-0.0121204	-0.0239638	0.000981601	0.000569113	0	5	0	
0.0908333	0.0366928	0.0200223	0.00107987	0.00049812	0	5	0	
0.091	-0.0276099	-0.00159954	0.00105904	0.000392865	0	5	0	
0.0911667	-0.0248022	-0.00782899	0.000798376	0.000273155	0	5	0	
0.0913333	0.0397007	0.00646419	0.000619306	0.000179839	0	5	0	
0.0915	0.00848091	-0.00824667	0.00100294	0.000233207	0	5	0	
0.0916667	-0.0410338	0.00016942	0.00141471	0.000374443	0	5	0	
0.0918333	0.0100454	0.0165111	0.00139111	0.000529618	0	5	0	
0.092	-0.00678369	-0.0162117	0.000981871	0.000532761	0	5	0	
0.0921667	0.0356785	0.00372647	0.000890641	0.000387293	0	5	0	
0.0923333	-0.0329889	0.0171488	0.000958366	0.000252585	0	5	0	
0.0925	-0.00270526	-0.018293	0.000832604	0.000254507	0	5	0	
0.0926667	0.0108995	-0.0015126	0.000536323	0.000308681	0	5	0	
0.0928333	0.0016973	0.0190952	0.000545521	0.000345112	0	5	0	
0.093	-0.0184914	-0.00965831	0.000772393	0.000293358	0	5	0	
0.0931667	0.0212448	0.0116115	0.000948358	0.000257797	0	5	0	
0.0933333	-0.0114238	-0.00560404	0.000870371	0.000248409	0	5	0	
0.0935	-0.00447135	0.00338978	0.000704111	0.000170553	0	5	0	
0.0936667	0.000622507	-0.00463217	0.000691916	0.000133562	0	5	0	
0.0938333	0.026677	0.00965768	0.000901063	0.000135558	0	5	0	
0.094	-0.0297932	-0.00888805	0.00109814	0.000260674	0	5	0	
0.0941667	0.00976341	0.0219891	0.00103523	0.000356102	0	5	0	
0.0943333	-0.00503004	-0.0141277	0.000852548	0.000419524	0	5	0	
0.0945	0.0225048	0.00701393	0.000845495	0.000347422	0	5	0	
0.0946667	-0.0274701	-0.00225752	0.000926182	0.000300555	0	5	0	
0.0948333	0.0198329	0.00374037	0.000889334	0.00025116	0	5	0	
0.095	-0.00655134	-0.00923262	0.00073378	0.000249777	0	5	0	
0.0951667	0.0116427	0.00558893	0.000681213	0.000235548	0	5	0	
0.0953333	-0.0149877	-0.00995876	0.000745958	0.000216284	0	5	0	
0.0955	0.0110973	0.00655634	0.000804396	0.000238669	0	5	0	
0.0956667	-0.0146676	-0.005294	0.000871722	0.000230353	0	5	0	
0.0958333	0.0242403	0.00447671	0.000967283	0.000233338	0	5	0	
0.096	-0.00913901	-0.0115602	0.000987768	0.000260367	0	5	0	
0.0961667	0.00398132	0.0156538	0.000900541	0.00031824	0	5	0	
0.0963333	-0.0224954	-0.0131227	0.000913093	0.000333143	0	5	0	
0.0965	0.0270615	0.00335496	0.00101657	0.000270929	0	5	0	
0.0966667	-0.0066291	-0.00155851	0.00101771	0.000183579	0	5	0	
0.0968333	0.00173003	0.000195109	0.000898076	0.000161744	0	5	0	
0.097	-0.0207288	-0.00259143	0.000906249	0.000185165	0	5	0	
0.0971667	0.0398854	0.00543213	0.000968198	0.000238264	0	5	0	
0.0973333	-0.0284818	-0.00320592	0.000954785	0.000313546	0	5	0	
0.0975	-0.00828173	0.0114023	0.000708264	0.000401966	0	5	0	
0.0976667	0.0244432	-0.0149271	0.000702526	0.000433956	0	5	0	
0.0978333	0.0464122	0.00563488	0.00125138	0.000335378	0	5	0	
0.098	-0.126875	0.00601029	0.00198543	0.00019759	0	5	0	
0.0981667	0.0693931	-0.00653311	0.0022507	0.000122547	0	5	0	
0.0983333	0.0567237	0.00974652	0.00206574	0.000170025	0	5	0	
0.0985	-0.0467089	-0.00342228	0.00165739	0.000244686	0	5	0	
0.0986667	-0.0288778	-0.00625285	0.00189074	0.000299822	0	5	0	
0.0988333	-0.00846945	0.00698435	0.00144147	0.000316891	0	5	0	
0.099	0.04265	-0.000547783	0.00130192	0.0003164	0	5	0	
0.0991667	0.0577643	0.00244341	0.00154458	0.000266003	0	5	0	
0.0993333	-0.107996	0.00102419	0.0021642	0.000191878	0	5	0	
0.0995	0.0144182	0.0028274	0.00219531	0.000151667	0	5	0	
0.0996667	0.0344469	-0.00162703	0.00135735	0.000171774	0	5	0	
0.0998333	0.0130278	0.00403258	0.000940899	0.000158893	0	5	0	
0.1	-0.0360603	0.00359954	0.000933199	0.00013135	0	5	0	
0.100167	0.00620232	0.000280375	0.000875257	8.58308E-05	0	5	0	
0.100333	0.0131249	0.00294039	0.000617818	6.66616E-05	0	5	0	
0.1005	-0.00138139	0.00407846	0.000587506	6.44937E-05	0	5	0	
0.100667	-0.0105547	-0.00220669	0.000803526	0.000126898	0	5	0	
0.100833	0.0188284	0.0129686	0.00104298	0.000169084	0	5	0	
0.101	-0.0417101	-0.00278455	0.00115158	0.000210864	0	5	0	
0.101167	0.05314	-0.000145078	0.00117381	0.000156783	0	5	0	
0.101333	-0.0124993	-0.00605348	0.000999667	0.000189129	0	5	0	
0.1015	-0.0373189	0.012057	0.000722788	0.000240902	0	5	0	
0.101667	0.0237762	-0.00744039	0.000691641	0.000327084	0	5	0	
0.101833	0.0245432	0.0151259	0.00111169	0.000314557	0	5	0	
0.102	-0.0317921	-0.00922808	0.00133451	0.000286033	0	5	0	
0.102167	0.0054112	0.00348986	0.0011762	0.000215105	0	5	0	
0.102333	-0.00637295	-0.00100234	0.000842074	0.000182887	0	5	0	
0.1025	0.0259263	-0.00409394	0.000861981	0.000131808	0	5	0	
0.102667	-0.0313899	0.00387305	0.000981142	0.000160874	0	5	0	
0.102833	0.0265254	-0.00577491	0.000979749	0.000281766	0	5	0	
0.103	-0.022339	-0.00500115	0.000826088	0.000418869	0	5	0	
0.103167	-0.00175204	0.0148696	0.0006379	0.000471762	0	5	0	
0.103333	0.021769	-0.00709446	0.000506289	0.000410079	0	5	0	
0.1035	-0.00277116	0.00710681	0.000661154	0.000257404	0	5	0	
0.103667	-0.0350935	-0.00114629	0.000983056	0.000147149	0	5	0	
0.103833	0.0109045	-0.00461578	0.00110056	9.92843E-05	0	5	0	
0.104	0.0104972	0.0133636	0.00101274	0.000152058	0	5	0	
0.104167	0.0397727	0.00155321	0.00126015	0.000213402	0	5	0	
0.104333	-0.063241	-0.0079172	0.0015064	0.000298768	0	5	0	
0.1045	-0.00192028	0.0189793	0.00137088	0.00030587	0	5	0	
0.104667	0.0195129	0.00482484	0.000839494	0.000336891	0	5	0	
0.104833	0.0368716	0.00614087	0.0009577	0.000280562	0	5	0	
0.105	-0.0226959	0.00319979	0.00110627	0.000245725	0	5	0	
0.105167	-0.0463723	0.0148634	0.00107938	0.000236676	0	5	0	
0.105333	0.03349	-0.00761306	0.000949952	0.000243719	0	5	0	
0.1055	0.0567133	0.0340127	0.00162423	0.000317239	0	5	0	
0.105667	-0.0902277	-0.0237079	0.00215797	0.000419436	0	5	0	
0.105833	0.0194676	0.020568	0.00198593	0.000460932	0	5	0	
0.106	0.0425426	-0.00840355	0.00116406	0.000407937	0	5	0	
0.106167	-0.0177359	0.0234205	0.000806119	0.000396426	0	5	0	
0.106333	-0.0143064	-0.00613628	0.00100916	0.000393043	0	5	0	
0.1065	-0.00661443	0.0204872	0.00115257	0.000434163	0	5	0	
0.106667	0.0167089	-0.0122223	0.00111383	0.000415589	0	5	0	
0.106833	0.00974291	0.0030882	0.00116132	0.000349798	0	5	0	
0.107	-0.0423305	-0.00641848	0.0012949	0.000250872	0	5	0	
0.107167	-0.0050506	0.0104499	0.00115139	0.000167457	0	5	0	
0.107333	0.0686057	-0.00460977	0.000742653	0.000216539	0	5	0	
0.1075	-0.0350796	0.00876258	0.00106832	0.000249864	0	5	0	
0.107667	-0.0884244	0.00038405	0.00214515	0.000229756	0	5	0	
0.107833	0.131177	-0.00655289	0.0027103	0.000203645	0	5	0	
0.108	-0.00505215	0.00268118	0.00266227	0.000271073	0	5	0	
0.108167	-0.131819	0.000874316	0.0021826	0.000352451	0	5	0	
0.108333	0.0680047	-0.0052388	0.00218575	0.000372919	0	5	0	
0.1085	0.0382736	-0.000333758	0.0025435	0.00029534	0	5	0	
0.108667	-0.0218631	-0.00523509	0.00211817	0.000182774	0	5	0	
0.108833	-0.0143357	0.00244252	0.00153456	0.000118021	0	5	0	
0.109	-0.0633423	-0.0019578	0.00122645	0.000111807	0	5	0	
0.109167	0.0793295	-0.00047659	0.00142406	0.000117393	0	5	0	
0.109333	0.0310439	-0.00427367	0.0019069	0.000169674	0	5	0	
0.1095	-0.118446	0.00447398	0.00154308	0.000222205	0	5	0	
0.109667	0.0455907	-0.0108335	0.0019939	0.000263476	0	5	0	
0.109833	0.0706463	0.0046242	0.00265885	0.000294652	0	5	0	
0.11	-0.11041	-0.00351638	0.00317123	0.000327167	0	5	0	
0.110167	0.0868884	0.00420728	0.00280126	0.00035771	0	5	0	
0.110333	-0.0262957	0.00141598	0.00196042	0.000365212	0	5	0	
0.1105	-0.0582641	0.00267665	0.00152448	0.000354825	0	5	0	
0.110667	0.08943	-0.00207056	0.00137599	0.000317187	0	5	0	
0.110833	-0.0519584	0.000956597	0.0014937	0.000250527	0	5	0	
0.111	0.0127985	-0.00376952	0.00175809	0.000205313	0	5	0	
0.111167	0.0304348	0.00609955	0.00216976	0.000210562	0	5	0	
0.111333	-0.0754266	0.000161853	0.00234724	0.000242361	0	5	0	
0.1115	0.0876562	0.00260345	0.00221922	0.000245156	0	5	0	
0.111667	-0.0592647	0.00280462	0.0017808	0.000221033	0	5	0	
0.111833	-0.0042012	-0.00154975	0.0014663	0.000207443	0	5	0	
0.112	0.0561397	-0.00845356	0.00111749	0.00026678	0	5	0	
0.112167	-0.0322277	0.00730289	0.0011825	0.00035358	0	5	0	
0.112333	-0.0337682	0.00294202	0.00141894	0.000379109	0	5	0	
0.1125	0.00855676	0.0017242	0.00141534	0.000318055	0	5	0	
0.112667	0.0402114	-0.00784779	0.00115682	0.000238267	0	5	0	
0.112833	0.0233652	0.00253427	0.00128486	0.000197909	0	5	0	
0.113	-0.117405	0.00180705	0.00208332	0.000208212	0	5	0	
0.113167	0.112955	-0.00329351	0.00260749	0.000264285	0	5	0	
0.113333	-0.0218412	0.00032138	0.0022892	0.000320498	0	5	0	
0.1135	-0.0415009	0.00636626	0.0015789	0.000322977	0	5	0	
0.113667	0.0560494	-0.00331274	0.001157	0.000274445	0	5	0	
0.113833	-0.0427552	-0.00531187	0.00112587	0.00023168	0	5	0	
0.114	0.0117994	0.0077261	0.00134792	0.000248232	0	5	0	
0.114167	0.0345034	0.00035566	0.0017275	0.000250001	0	5	0	
0.114333	-0.0637969	0.000364341	0.00179268	0.000246226	0	5	0	
0.1145	0.0521499	0.00390523	0.00155465	0.000237785	0	5	0	
0.114667	0.00688888	-0.00514698	0.00101477	0.000251098	0	5	0	
0.114833	-0.0349441	0.00578238	0.000739459	0.000234317	0	5	0	
0.115	-0.0170271	0.00798099	0.00106138	0.000191789	0	5	0	
0.115167	0.105343	-0.00769372	0.00169643	0.000157708	0	5	0	
0.115333	-0.123288	0.00465739	0.00208004	0.000224594	0	5	0	
0.1155	-0.0336434	0.0102946	0.00267783	0.000351617	0	5	0	
0.115667	0.220036	-0.0098422	0.00283044	0.000443502	0	5	0	
0.115833	-0.166444	0.00540406	0.00361933	0.000401625	0	5	0	
0.116	-0.0103004	0.00296953	0.00424314	0.000287271	0	5	0	
0.116167	0.0973997	0.0016887	0.00463224	0.000177991	0	5	0	
0.116333	-0.149133	-0.00402966	0.00428828	0.000131295	0	5	0	
0.1165	0.187832	0.00808699	0.00343641	0.000139523	0	5	0	
0.116667	-0.0531049	-0.00082919	0.00307849	0.000165532	0	5	0	
0.116833	-0.148974	0.00378593	0.00339625	0.000147285	0	5	0	
0.117	0.167484	-0.00560267	0.00323767	0.000148033	0	5	0	
0.117167	0.0047896	0.0110518	0.00368539	0.000220285	0	5	0	
0.117333	-0.113694	-0.00869561	0.00339674	0.000345544	0	5	0	
0.1175	0.0657008	0.00535746	0.00301658	0.000396081	0	5	0	
0.117667	0.0219759	-0.00696843	0.00212994	0.000408008	0	5	0	
0.117833	-0.0573428	0.0227083	0.00124196	0.000408822	0	5	0	
0.118	0.0755234	-0.021682	0.00117046	0.000477625	0	5	0	
0.118167	-0.0995817	0.00430479	0.00129947	0.00043951	0	5	0	
0.118333	-0.00493863	0.00425266	0.00239547	0.000399942	0	5	0	
0.1185	0.165464	-0.000177445	0.0035991	0.000347518	0	5	0	
0.118667	-0.151779	0.00087274	0.00383036	0.000323385	0	5	0	
0.118833	-0.0290626	0.00117208	0.0035872	0.000279507	0	5	0	
0.119	0.0859861	-0.00755021	0.0023732	0.000254631	0	5	0	
0.119167	0.00689812	0.00230838	0.00224073	0.000293242	0	5	0	
0.119333	-0.0478428	0.00290351	0.00176885	0.000314165	0	5	0	
0.1195	0.00449805	-0.000881885	0.00153669	0.000261057	0	5	0	
0.119667	0.00176138	-0.00339141	0.000861394	0.000164643	0	5	0	
0.119833	0.0126973	0.00506258	0.000521192	0.000121464	0	5	0	
0.12	-0.00115643	-0.00667807	0.000466323	0.000140224	0	5	0	
0.120167	-0.0479918	0.00267272	0.000538084	0.000193221	0	5	0	
0.120333	0.0456875	-0.00942494	0.000875093	0.000199923	0	5	0	
0.1205	0.0595683	0.0112381	0.00190771	0.00020985	0	5	0	
0.120667	-0.12976	-0.00789494	0.00270459	0.000223606	0	5	0	
0.120833	0.0719779	0.0086082	0.00268626	0.000244679	0	5	0	
0.121	0.0126588	-0.00831509	0.00204344	0.000247994	0	5	0	
0.121167	-0.0472838	0.00795489	0.00125133	0.000249383	0	5	0	
0.121333	0.0399171	-0.00875779	0.00105977	0.000282373	0	5	0	
0.1215	-0.0239629	0.00649365	0.00104963	0.00032174	0	5	0	
0.121667	-0.00399153	-0.00158313	0.00151059	0.000350679	0	5	0	
0.121833	0.0383769	0.00586728	0.00171926	0.000318707	0	5	0	
0.122	-0.0502019	-0.00215413	0.00165238	0.000255414	0	5	0	
0.122167	0.026625	0.00195275	0.00128135	0.000241525	0	5	0	
0.122333	0.0156436	-0.0027968	0.00077306	0.000334062	0	5	0	
0.1225	-0.0335961	0.00509433	0.000508581	0.000379683	0	5	0	
0.122667	0.0182773	-0.000190488	0.000643819	0.000302833	0	5	0	
0.122833	0.00388355	0.00603394	0.00100242	0.000155706	0	5	0	
0.123	-0.013937	-0.00696888	0.00126306	0.000128669	0	5	0	
0.123167	0.0416686	0.00277329	0.00138367	0.000165532	0	5	0	
0.123333	-0.0532181	0.00112412	0.00137022	0.000227616	0	5	0	
0.1235	0.0267869	0.00560146	0.00119522	0.000268015	0	5	0	
0.123667	-0.00542308	-0.00719377	0.000810256	0.000324247	0	5	0	
0.123833	0.00135321	0.0101622	0.000475621	0.00031798	0	5	0	
0.124	0.0395485	-0.00215717	0.000338982	0.000265268	0	5	0	
0.124167	-0.051031	-0.00398212	0.000545349	0.0002109	0	5	0	
0.124333	-0.0107976	0.00054646	0.00123097	0.000258406	0	5	0	
0.1245	0.0571403	0.00588894	0.00179897	0.00033554	0	5	0	
0.124667	-0.0266957	-0.00775513	0.00179526	0.000386192	0	5	0	
0.124833	0.011383	0.0127678	0.00123696	0.000345057	0	5	0	
0.125	-0.0278072	-0.00794537	0.000882767	0.000279837	0	5	0	
0.125167	0.0223208	-0.000994587	0.00078373	0.000195066	0	5	0	
0.125333	0.0105278	0.000586481	0.000683076	0.000171728	0	5	0	
0.1255	-0.00587031	0.00273543	0.000606875	0.000174422	0	5	0	
0.125667	-0.00940938	-0.00525639	0.000712573	0.000216902	0	5	0	
0.125833	-0.00136003	0.00541399	0.000803772	0.000235916	0	5	0	
0.126	0.0188858	-0.00311796	0.000791196	0.0002183	0	5	0	
0.126167	-0.00357851	-0.00336098	0.000832106	0.00017308	0	5	0	
0.126333	-0.0134882	-0.00508187	0.00100443	0.000138709	0	5	0	
0.1265	0.0121124	0.000664386	0.00106453	0.000118822	0	5	0	
0.126667	-0.0208427	0.00175701	0.00104942	0.000162026	0	5	0	
0.126833	0.0479416	0.00729693	0.00111759	0.000222421	0	5	0	
0.127	-0.0431398	-0.00496174	0.00111951	0.000271559	0	5	0	
0.127167	-0.00718944	0.00996677	0.000938097	0.000249683	0	5	0	
0.127333	0.0321039	-0.0146391	0.000599825	0.000247565	0	5	0	
0.1275	-0.00671561	0.00882782	0.000730416	0.000275204	0	5	0	
0.127667	-0.00830431	-0.00697872	0.000992053	0.00031567	0	5	0	
0.127833	-0.00791711	0.0101712	0.00114453	0.000302794	0	5	0	
0.128	0.00106236	-0.0080145	0.00112419	0.000260523	0	5	0	
0.128167	0.0334077	0.0132116	0.0012721	0.000246466	0	5	0	
0.128333	-0.0403055	-0.00627044	0.00141214	0.000264526	0	5	0	
0.1285	0.0133989	-0.00139816	0.00116043	0.0002527	0	5	0	
0.128667	0.0147123	0.000207196	0.000624624	0.000238303	0	5	0	
0.128833	-0.0204107	-0.00134159	0.000419705	0.000231996	0	5	0	
0.129	0.0118041	-0.00616938	0.000631839	0.000276668	0	5	0	
0.129167	-0.00172648	0.00550513	0.00098925	0.000346028	0	5	0	
0.129333	0.00459922	-0.00455163	0.00107487	0.00037629	0	5	0	
0.1295	-0.0193981	-4.28029E-05	0.000955053	0.000347354	0	5	0	
0.129667	0.00858606	0.00270783	0.00101627	0.000255151	0	5	0	
0.129833	0.040735	-0.00853469	0.00147884	0.000187674	0	5	0	
0.13	-0.0772564	0.00579324	0.0018587	0.000170312	0	5	0	
0.130167	0.0518517	-0.00458924	0.00174003	0.000202866	0	5	0	
0.130333	0.0125814	0.000963644	0.00141112	0.00022085	0	5	0	
0.1305	-0.0548959	0.00286115	0.00105771	0.000224253	0	5	0	
0.130667	0.0580363	-0.00348581	0.00104824	0.000205337	0	5	0	
0.130833	-0.0472786	0.00853049	0.00112022	0.000174637	0	5	0	
0.131	0.0163857	-0.00335399	0.0015093	0.000143584	0	5	0	
0.131167	0.0538656	0.00254322	0.00210611	0.000128961	0	5	0	
0.131333	-0.107911	-0.00861709	0.00245291	0.000169047	0	5	0	
0.1315	0.0641938	0.0149553	0.0022648	0.00023966	0	5	0	
0.131667	0.0342164	-0.00621344	0.00178235	0.00026938	0	5	0	
0.131833	-0.0608387	0.00726339	0.00121482	0.000241557	0	5	0	
0.132	-0.0043581	0.00932894	0.00140897	0.00025198	0	5	0	
0.132167	0.0266723	0.00266322	0.0014449	0.000299336	0	5	0	
0.132333	0.0221983	0.00633771	0.00133003	0.000340637	0	5	0	
0.1325	-0.0140815	-0.00344424	0.00100546	0.000326604	0	5	0	
0.132667	-0.0459989	0.000601089	0.00112139	0.000351062	0	5	0	
0.132833	0.0266615	0.0166301	0.00122333	0.000390448	0	5	0	
0.133	0.0331505	-0.000709015	0.0010085	0.000404961	0	5	0	
0.133167	-0.0111497	0.00249157	0.000771537	0.000300318	0	5	0	
0.133333	-0.0453959	0.0102087	0.00109139	0.000228962	0	5	0	
0.1335	0.0332386	0.00094805	0.00121395	0.000155318	0	5	0	
0.133667	0.0183762	0.00620291	0.000950835	0.000158234	0	5	0	
0.133833	-0.0252045	0.00314057	0.000599217	0.000190732	0	5	0	
0.134	0.00450304	-0.00344783	0.000804331	0.000301607	0	5	0	
0.134167	0.0167371	0.00945853	0.00119479	0.000419334	0	5	0	
0.134333	-0.0302206	-0.0113416	0.00139544	0.000465988	0	5	0	
0.1345	0.020869	0.0120518	0.00123873	0.000405515	0	5	0	
0.134667	-0.00228103	0.0025776	0.000940231	0.000296813	0	5	0	
0.134833	0.0103466	-0.00360552	0.000803735	0.000190419	0	5	0	
0.135	-0.0194952	0.00154086	0.000831793	0.000172817	0	5	0	
0.135167	0.00120371	-0.00638609	0.000797004	0.000245222	0	5	0	
0.135333	0.0155042	0.0014118	0.000635024	0.000359978	0	5	0	
0.1355	-0.00612685	0.00330373	0.000613509	0.000430491	0	5	0	
0.135667	-0.015004	-0.00443687	0.000825726	0.000359045	0	5	0	
0.135833	0.010179	-0.000381869	0.000963352	0.00023223	0	5	0	
0.136	-0.00182901	0.00559435	0.00088336	0.000150561	0	5	0	
0.136167	0.0116547	-0.00131613	0.000829124	0.000215888	0	5	0	
0.136333	-0.021035	0.00322963	0.000851965	0.000279001	0	5	0	
0.1365	0.00739515	0.0024378	0.000795825	0.000292728	0	5	0	
0.136667	0.00681373	-0.0147294	0.000640897	0.000317667	0	5	0	
0.136833	-0.00508908	0.0174673	0.00068523	0.000389686	0	5	0	
0.137	-0.0207244	-0.000920019	0.000958684	0.000368648	0	5	0	
0.137167	0.0371911	-0.00194154	0.00116693	0.000240481	0	5	0	
0.137333	-0.0173413	0.00491715	0.0010393	0.000160756	0	5	0	
0.1375	-0.0128809	0.00326057	0.000686412	0.000211369	0	5	0	
0.137667	0.00764917	-0.000187692	0.000579978	0.000302122	0	5	0	
0.137833	-0.00436905	-0.00141077	0.000684938	0.000323828	0	5	0	
0.138	0.0123055	0.0048448	0.000846495	0.00031984	0	5	0	
0.138167	0.0027892	0.00307368	0.00100514	0.000303207	0	5	0	
0.138333	-0.0349525	0.00312732	0.00121959	0.000273401	0	5	0	
0.1385	0.0285732	-0.00400943	0.00129302	0.000208162	0	5	0	
0.138667	-0.00230707	0.00972143	0.0010054	0.000190771	0	5	0	
0.138833	-0.00845639	0.00162184	0.000663518	0.000185901	0	5	0	
0.139	-0.00395678	-0.000887824	0.000653807	0.000244258	0	5	0	
0.139167	0.0135953	0.00673665	0.00083932	0.00024218	0	5	0	
0.139333	-0.0135128	-0.00213053	0.000872028	0.000221172	0	5	0	
0.1395	-0.00689485	0.00888576	0.000672204	0.000184574	0	5	0	
0.139667	0.0148855	-0.00339176	0.00058597	0.000202027	0	5	0	
0.139833	0.0086784	0.0100512	0.000809666	0.000220544	0	5	0	
0.14	-0.0271731	-0.00171484	0.00110818	0.00023783	0	5	0	
0.140167	0.0235485	0.00433562	0.00113253	0.000223574	0	5	0	
0.140333	-0.0161013	-0.00669117	0.000884771	0.000225968	0	5	0	
0.1405	0.00561006	-0.000359505	0.000662845	0.000199312	0	5	0	
0.140667	-0.00641692	0.0105076	0.000621074	0.000206312	0	5	0	
0.140833	-5.07663E-05	0.00492064	0.000689558	0.000275065	0	5	0	
0.141	0.00315915	-0.0192286	0.000801868	0.000380775	0	5	0	
0.141167	0.0128282	0.0318812	0.000980902	0.000465802	0	5	0	
0.141333	-0.0390099	-0.0285908	0.00118423	0.000520169	0	5	0	
0.1415	0.0414864	0.0136483	0.00124225	0.000499097	0	5	0	
0.141667	-0.0159877	0.00632674	0.00101994	0.000393312	0	5	0	
0.141833	-0.0354823	-0.0297063	0.000653802	0.000292534	0	5	0	
0.142	0.0419039	0.0181276	0.000644276	0.000420311	0	5	0	
0.142167	0.00486588	0.0293458	0.00109791	0.000799209	0	5	0	
0.142333	-0.0301313	-0.0424162	0.0016016	0.00110378	0	5	0	
0.1425	0.0226698	0.0252496	0.00168098	0.00108821	0	5	0	
0.142667	-0.033507	-0.00875399	0.00149794	0.000743667	0	5	0	
0.142833	0.0454977	-0.00561783	0.00130982	0.000377746	0	5	0	
0.143	-0.00814013	0.0178638	0.00101662	0.000229595	0	5	0	
0.143167	-0.0382786	-0.017017	0.00066618	0.000227909	0	5	0	
0.143333	0.0346672	0.0075287	0.00063061	0.000362528	0	5	0	
0.1435	-0.00692825	0.0129922	0.000959013	0.000498564	0	5	0	
0.143667	0.0105342	-0.01141	0.0011603	0.000583589	0	5	0	
0.143833	-0.00553355	0.0083441	0.00109632	0.000502949	0	5	0	
0.144	-0.0106477	6.40819E-05	0.00102141	0.000328209	0	5	0	
0.144167	0.00357462	0.00812571	0.000980454	0.000229328	0	5	0	
0.144333	0.00716791	0.00162594	0.000906732	0.000256248	0	5	0	
0.1445	0.0169016	-0.00486302	0.000907556	0.000254676	0	5	0	
0.144667	-0.0274745	0.0137431	0.000975471	0.000237837	0	5	0	
0.144833	0.0121697	-0.00464779	0.000900395	0.000198027	0	5	0	
0.145	0.000920658	-0.00898519	0.000622243	0.000305212	0	5	0	
0.145167	-0.0101341	0.0178079	0.000394138	0.000422248	0	5	0	
0.145333	0.0392918	-0.00437698	0.000383908	0.000450102	0	5	0	
0.1455	-0.0321814	-0.00059411	0.000641977	0.000289839	0	5	0	
0.145667	-0.0244708	-0.00878777	0.00123833	0.00014102	0	5	0	
0.145833	0.0523263	0.0127053	0.00162284	0.000139316	0	5	0	
0.146	-0.0274994	-0.0110763	0.00150426	0.000225562	0	5	0	
0.146167	0.00716006	-0.00267412	0.000947724	0.0002951	0	5	0	
0.146333	-0.0153012	0.00196533	0.000591779	0.000302486	0	5	0	
0.1465	-0.00422235	-0.00428662	0.000386759	0.000310493	0	5	0	
0.146667	0.0378874	0.00531873	0.000382382	0.000296483	0	5	0	
0.146833	-0.0141642	-0.00630579	0.00065197	0.000288598	0	5	0	
0.147	-0.0353678	-0.00695133	0.00122712	0.000336194	0	5	0	
0.147167	0.0306205	0.00356301	0.00146483	0.00043245	0	5	0	
0.147333	0.00178693	-0.00421102	0.00112548	0.000437644	0	5	0	
0.1475	-0.0158826	0.00351351	0.000647393	0.000308947	0	5	0	
0.147667	0.0031106	-0.000442129	0.000614567	0.000167944	0	5	0	
0.147833	0.00788673	-0.000108505	0.000871616	9.39254E-05	0	5	0	
0.148	-0.012698	0.0034873	0.00104364	0.000118951	0	5	0	
0.148167	0.0167863	-0.0123826	0.00100837	0.000227724	0	5	0	
0.148333	-0.0202227	-0.000720709	0.00087417	0.000336064	0	5	0	
0.1485	0.00800983	0.00958827	0.00069471	0.000387608	0	5	0	
0.148667	0.0108896	-0.0053921	0.000475332	0.000341774	0	5	0	
0.148833	-0.024253	0.00581358	0.000429735	0.000284236	0	5	0	
0.149	0.00943483	-1.57185E-05	0.000657516	0.00026018	0	5	0	
0.149167	0.0103848	-0.000370066	0.00106419	0.000220307	0	5	0	
0.149333	-0.00929159	-0.00432913	0.00123283	0.000200732	0	5	0	
0.1495	0.0106018	0.00604993	0.001093	0.000209179	0	5	0	
0.149667	-0.00598472	-0.00857246	0.00076343	0.000243879	0	5	0	
0.149833	-0.014784	0.0103633	0.000448236	0.000302875	0	5	0	
0.15	0.0507516	-0.00254007	0.000450786	0.000285349	0	5	0	
0.150167	-0.0213362	-0.00685235	0.000759972	0.000282902	0	5	0	
0.150333	-0.0239052	0.00500587	0.0012611	0.000390079	0	5	0	
0.1505	0.0427774	0.0205457	0.00135337	0.000597581	0	5	0	
0.150667	-0.0353569	-0.012233	0.00119556	0.00071446	0	5	0	
0.150833	0.035013	0.00561376	0.000934917	0.000576818	0	5	0	
0.151	0.00474182	0.00685274	0.000706079	0.000383812	0	5	0	
0.151167	-0.0262419	-0.011015	0.000485351	0.000238746	0	5	0	
0.151333	0.00736223	0.0116101	0.000518025	0.000271625	0	5	0	
0.1515	0.0197823	-0.00230962	0.0008374	0.000323293	0	5	0	
0.151667	-0.0050804	0.0037045	0.00101163	0.000455641	0	5	0	
0.151833	-0.0124146	0.0166168	0.000905884	0.000548302	0	5	0	
0.152	0.0189236	-0.0134731	0.000769788	0.000619189	0	5	0	
0.152167	-0.0168609	0.0101207	0.000866033	0.000535326	0	5	0	
0.152333	-0.00280334	-0.00169299	0.00112872	0.000412247	0	5	0	
0.1525	0.0249486	-0.00142659	0.00132159	0.000301161	0	5	0	
0.152667	-0.0322736	0.00256982	0.00134033	0.000260418	0	5	0	
0.152833	0.0286483	-0.00566294	0.00118696	0.000244211	0	5	0	
0.153	-0.0177798	0.0072891	0.000887031	0.000269313	0	5	0	
0.153167	-0.0248356	0.00476998	0.000594123	0.000316454	0	5	0	
0.153333	0.0537412	-0.00182851	0.000512195	0.000338876	0	5	0	
0.1535	-0.0269119	0.00495714	0.00080547	0.000307922	0	5	0	
0.153667	-0.0143132	-0.00849833	0.00128357	0.000288133	0	5	0	
0.153833	0.00557079	0.00672381	0.00135248	0.000288286	0	5	0	
0.154	0.0125524	0.000620759	0.00109405	0.000261568	0	5	0	
0.154167	0.00717831	0.00227679	0.000972311	0.000265628	0	5	0	
0.154333	-0.0453224	0.00444393	0.00115816	0.00030675	0	5	0	
0.1545	0.0285212	0.0123276	0.00121319	0.000298082	0	5	0	
0.154667	0.0100849	0.00442961	0.000841953	0.000238526	0	5	0	
0.154833	-0.0161776	-0.00138975	0.000529907	0.000183689	0	5	0	
0.155	0.00022014	-0.000738232	0.000568776	0.000280469	0	5	0	
0.155167	-0.0202787	0.00179691	0.000669725	0.000348472	0	5	0	
0.155333	0.0343726	0.00834337	0.000787987	0.000345724	0	5	0	
0.1555	0.0122478	0.0135451	0.00118188	0.000258239	0	5	0	
0.155667	-0.0628068	-0.00241685	0.00166862	0.000228475	0	5	0	
0.155833	0.020949	0.00148337	0.0016162	0.000173652	0	5	0	
0.156	0.035815	0.00718449	0.00107217	0.000144907	0	5	0	
0.156167	-0.0234259	-0.00195015	0.000713815	9.45905E-05	0	5	0	
0.156333	-0.00068364	-0.00182682	0.000887466	0.000128075	0	5	0	
0.1565	-0.00890741	0.00876435	0.00100712	0.000148927	0	5	0	
0.156667	0.00324527	-0.00649856	0.00106894	0.000181803	0	5	0	
0.156833	0.025321	0.00564579	0.00114543	0.000184195	0	5	0	
0.157	-0.0297163	-0.0116501	0.00120677	0.000207222	0	5	0	
0.157167	0.00884359	0.00930973	0.000999547	0.000245252	0	5	0	
0.157333	0.00635213	-0.0111195	0.000649455	0.000297742	0	5	0	
0.1575	0.00151493	0.0125468	0.000591572	0.00033857	0	5	0	
0.157667	-0.00477272	-0.00630054	0.0007486	0.00029416	0	5	0	
0.157833	0.00231148	-0.0123616	0.000893435	0.000223155	0	5	0	
0.158	-0.00497639	0.00557066	0.000938481	0.000168364	0	5	0	
0.158167	0.0207643	-0.00456825	0.000944196	0.000260186	0	5	0	
0.158333	-0.00846788	-0.00634211	0.000832004	0.000331132	0	5	0	
0.1585	-0.0206585	-5.18146E-05	0.000619068	0.00031799	0	5	0	
0.158667	0.0151506	-0.00455629	0.000641548	0.000237265	0	5	0	
0.158833	0.0159557	0.00435725	0.000956434	0.000235621	0	5	0	
0.159	-0.0043562	-0.0114286	0.00110426	0.000246567	0	5	0	
0.159167	-0.0168012	-0.00130935	0.000920188	0.000218112	0	5	0	
0.159333	-0.00389532	-0.0013115	0.000851321	0.000157876	0	5	0	
0.1595	0.0266293	0.0048685	0.00102658	0.000170253	0	5	0	
0.159667	0.00221627	-0.00410074	0.00101513	0.000193948	0	5	0	
0.159833	-0.0239227	-0.00528886	0.00076511	0.000211242	0	5	0	
0.16	0.00616568	-0.00268695	0.000696045	0.000229269	0	5	0	
0.160167	-0.00274296	0.00218003	0.00086364	0.000287038	0	5	0	
0.160333	0.00806863	-0.00316646	0.00100675	0.000352457	0	5	0	
0.1605	0.0242417	0.00928611	0.00110903	0.000381686	0	5	0	
0.160667	-0.028612	-0.00500474	0.00114497	0.000344722	0	5	0	
0.160833	-0.00450904	-0.00322766	0.00094185	0.000244537	0	5	0	
0.161	0.012719	0.00371026	0.000625094	0.000173603	0	5	0	
0.161167	0.00134405	-0.00329379	0.000548095	0.000183921	0	5	0	
0.161333	0.0160627	-0.000733966	0.000582827	0.000254357	0	5	0	
0.1615	-0.0380052	0.00199724	0.000665332	0.000286595	0	5	0	
0.161667	0.0176076	0.0029796	0.000893337	0.000253712	0	5	0	
0.161833	0.0216253	-0.00122377	0.00134442	0.000228164	0	5	0	
0.162	-0.023872	-0.00296605	0.00145816	0.00023636	0	5	0	
0.162167	0.000575653	0.00210167	0.0011198	0.000238728	0	5	0	
0.162333	0.00321736	-0.00126837	0.000749533	0.000206799	0	5	0	
0.1625	0.013384	0.00474261	0.000779462	0.000170422	0	5	0	
0.162667	-0.0165965	-0.00511617	0.000892652	0.000176973	0	5	0	
0.162833	-0.0112767	0.0042671	0.000777473	0.00018006	0	5	0	
0.163	0.0298669	0.0026261	0.000612958	0.000149533	0	5	0	
0.163167	-0.0119842	-0.00506691	0.000742904	0.00011232	0	5	0	
0.163333	-0.0145923	-0.00499654	0.00114311	0.000172361	0	5	0	
0.1635	0.0242894	0.00500929	0.00135281	0.00028947	0	5	0	
0.163667	-0.0198962	-0.00552436	0.0012432	0.000343502	0	5	0	
0.163833	0.0138993	0.00622959	0.000981198	0.00029976	0	5	0	
0.164	-0.00917963	-0.00598397	0.000740026	0.000234892	0	5	0	
0.164167	-0.0165739	0.0065745	0.0005181	0.000194527	0	5	0	
0.164333	0.0379487	3.12578E-05	0.000484061	0.000148721	0	5	0	
0.1645	-0.0153668	-0.00868563	0.000792889	0.000127399	0	5	0	
0.164667	-0.0242135	-0.000915963	0.0013258	0.00015336	0	5	0	
0.164833	0.0279106	0.00456911	0.00150404	0.000216479	0	5	0	
0.165	-0.00861782	-0.0025542	0.00119464	0.00022361	0	5	0	
0.165167	-0.0070535	0.00319737	0.000745569	0.000198699	0	5	0	
0.165333	0.00290283	-0.00163959	0.000632162	0.000193948	0	5	0	
0.1655	-0.000514054	0.0031582	0.000761243	0.000223961	0	5	0	
0.165667	0.00166487	-0.00266017	0.000881497	0.000249252	0	5	0	
0.165833	0.000475753	0.000895435	0.000912189	0.000241851	0	5	0	
0.166	-0.00956768	-0.000997067	0.000944035	0.000226199	0	5	0	
0.166167	0.00847087	0.00502332	0.000943828	0.000226144	0	5	0	
0.166333	0.00218574	-0.00524396	0.000837352	0.000241195	0	5	0	
0.1665	-0.0074107	0.00755262	0.000729907	0.000246895	0	5	0	
0.166667	0.00335659	-0.00157275	0.00072846	0.000235486	0	5	0	
0.166833	-0.00547048	-0.000680986	0.000783964	0.000202231	0	5	0	
0.167	0.00930493	0.00344663	0.000819273	0.000196824	0	5	0	
0.167167	-0.00205946	-0.000673002	0.000874057	0.00020887	0	5	0	
0.167333	-0.00866184	-0.00224725	0.000986378	0.000225039	0	5	0	
0.1675	0.0144262	0.00104022	0.00105406	0.000221524	0	5	0	
0.167667	-0.00992575	0.00113329	0.00098428	0.000226912	0	5	0	
0.167833	0.00166128	0.0030957	0.000810391	0.000239773	0	5	0	
0.168	0.00332859	-0.00191059	0.000668763	0.000246265	0	5	0	
0.168167	-0.00170915	0.00167978	0.000613598	0.000269381	0	5	0	
0.168333	0.0135142	-0.0109466	0.000643091	0.000332337	0	5	0	
0.1685	-0.0196662	0.0137668	0.000786441	0.000386389	0	5	0	
0.168667	0.00696205	-0.00787445	0.00108586	0.000331044	0	5	0	
0.168833	0.0157723	0.00239225	0.00138705	0.000228554	0	5	0	
0.169	-0.0228531	-0.00154003	0.00139079	0.000151092	0	5	0	
0.169167	0.00852739	-0.00514529	0.00109609	0.000200532	0	5	0	
0.169333	0.00314057	0.00787783	0.000748006	0.00028806	0	5	0	
0.1695	-0.0153254	-0.00479304	0.000616982	0.000391929	0	5	0	
0.169667	0.0228756	-0.000456587	0.00070394	0.000488759	0	5	0	
0.169833	-0.012087	0.0111675	0.000894394	0.000570356	0	5	0	
0.17	0.00791216	-0.0133221	0.000967408	0.000573604	0	5	0	
0.170167	-0.0302793	0.00321832	0.000941983	0.000429304	0	5	0	
0.170333	-0.0010883	0.00903983	0.0010271	0.000246771	0	5	0	
0.1705	0.0444207	-0.0072767	0.00125016	0.000204373	0	5	0	
0.170667	-0.0176949	-0.0136333	0.00112927	0.000303493	0	5	0	
0.170833	-0.0500496	0.00818805	0.000964316	0.000375585	0	5	0	
0.171	0.03578	0.000652606	0.000772538	0.000340631	0	5	0	
0.171167	0.0258212	0.0104263	0.00120274	0.000349345	0	5	0	
0.171333	-0.0173727	-0.0108613	0.00109329	0.000391445	0	5	0	
0.1715	-0.0345269	-0.00551049	0.000864789	0.00034149	0	5	0	
0.171667	-0.00678501	0.00781014	0.000770938	0.00024024	0	5	0	
0.171833	0.0635258	-0.00303453	0.00121113	0.000272958	0	5	0	
0.172	-0.0225593	-0.00160757	0.00137081	0.000447157	0	5	0	
0.172167	-0.0314434	-0.00155663	0.000975247	0.000497316	0	5	0	
0.172333	0.00675293	0.00462199	0.000776926	0.000396808	0	5	0	
0.1725	0.0259386	-0.0013345	0.00103458	0.000271153	0	5	0	
0.172667	-0.00854943	-0.0014734	0.00116913	0.000239337	0	5	0	
0.172833	-0.00939154	0.00741237	0.000918916	0.000251735	0	5	0	
0.173	-0.00218415	-0.008002	0.000722627	0.000273121	0	5	0	
0.173167	0.00287608	0.00832038	0.000759655	0.000265307	0	5	0	
0.173333	0.0104809	-0.00424902	0.000820511	0.000234037	0	5	0	
0.1735	-0.00281525	0.000476116	0.000854104	0.000183092	0	5	0	
0.173667	-0.00785399	0.000596272	0.000953234	0.000171137	0	5	0	
0.173833	0.00185545	-0.0107744	0.000976685	0.000210288	0	5	0	
0.174	0.00577219	-0.00317659	0.000861969	0.000239686	0	5	0	
0.174167	-0.00463497	0.0103396	0.000803791	0.000280832	0	5	0	
0.174333	-0.00078514	-0.00539325	0.000887321	0.000286076	0	5	0	
0.1745	0.000913114	-0.00120442	0.000920909	0.000263095	0	5	0	
0.174667	0.00777187	0.00479464	0.000835981	0.000224423	0	5	0	
0.174833	-0.00208779	-0.00791741	0.000791044	0.000218392	0	5	0	
0.175	-0.00711007	-0.012575	0.000849457	0.000246552	0	5	0	
0.175167	0.000595904	0.0131462	0.000870853	0.00030706	0	5	0	
0.175333	0.00684587	-0.0045193	0.000800827	0.000281286	0	5	0	
0.1755	-0.00171822	-0.00502064	0.000757303	0.000224445	0	5	0	
0.175667	-0.00339255	0.00559478	0.00082279	0.000179667	0	5	0	
0.175833	0.00634756	-0.000227203	0.000897407	0.000249635	0	5	0	
0.176	-0.0061367	-0.0057755	0.000901971	0.00034269	0	5	0	
0.176167	0.00195805	0.00388044	0.000861108	0.000361469	0	5	0	
0.176333	0.00363984	-0.00529846	0.000807267	0.000316821	0	5	0	
0.1765	-0.00656399	0.00436091	0.000772082	0.000269589	0	5	0	
0.176667	0.00327708	0.00299549	0.000813389	0.000201626	0	5	0	
0.176833	0.00373571	-0.0119532	0.000901001	0.000165849	0	5	0	
0.177	-0.00263071	0.0049226	0.000925581	0.000207964	0	5	0	
0.177167	-0.00214593	0.00380393	0.000880454	0.000323265	0	5	0	
0.177333	-0.000512293	-0.00061485	0.000835941	0.000365018	0	5	0	
0.1775	-0.00387384	-0.00021766	0.000797551	0.000305832	0	5	0	
0.177667	0.0121047	0.00418071	0.000747058	0.000241849	0	5	0	
0.177833	-0.00722956	-0.000616781	0.000738116	0.000230808	0	5	0	
0.178	0.000201913	-0.00343528	0.000821209	0.000246706	0	5	0	
0.178167	-0.00373617	-0.00169212	0.000881975	0.00022411	0	5	0	
0.178333	0.00497478	0.00275072	0.000869418	0.000181243	0	5	0	
0.1785	0.000714043	0.000212601	0.000863598	0.000158952	0	5	0	
0.178667	-0.00657411	0.00478044	0.00087885	0.000174589	0	5	0	
0.178833	0.00486757	-0.00165423	0.00082976	0.000190423	0	5	0	
0.179	0.0041571	0.00233872	0.000722639	0.000223007	0	5	0	
0.179167	-0.00900142	-0.00113481	0.000674888	0.000248792	0	5	0	
0.179333	0.007071	-0.00320826	0.000726409	0.000274132	0	5	0	
0.1795	-0.00509308	0.00334113	0.00081171	0.000265859	0	5	0	
0.179667	0.00588953	-0.0057563	0.000861671	0.00023399	0	5	0	
0.179833	-0.000870057	0.00186791	0.000885588	0.000225365	0	5	0	
0.18	-0.00336536	-0.00513134	0.000901075	0.00021123	0	5	0	
0.180167	-5.1636E-05	0.00256881	0.000865436	0.00020801	0	5	0	
0.180333	0.00842578	0.000892489	0.000781841	0.000197991	0	5	0	
0.1805	-0.00802174	0.00277011	0.000745929	0.000223265	0	5	0	
0.180667	-0.000582343	-0.0068339	0.00080589	0.000259968	0	5	0	
0.180833	-0.000189682	0.00185181	0.0008499	0.000302785	0	5	0	
0.181	0.00700517	-0.00525456	0.000815751	0.000306976	0	5	0	
0.181167	-0.00624491	0.000246375	0.000805717	0.000311424	0	5	0	
0.181333	0.00262853	0.00189109	0.000873841	0.00030927	0	5	0	
0.1815	-0.00155264	-0.00196854	0.000923649	0.000315718	0	5	0	
0.181667	-0.00115534	0.000225379	0.000906191	0.000299896	0	5	0	
0.181833	0.00284286	-0.00128211	0.000861726	0.00028059	0	5	0	
0.182	0.00325174	-0.00200622	0.000795662	0.000272054	0	5	0	
0.182167	-0.0103724	-0.00143198	0.000716836	0.000284217	0	5	0	
0.182333	0.0129491	-0.00190469	0.000694324	0.0002935	0	5	0	
0.1825	-0.00934637	-0.00191581	0.000776253	0.000283974	0	5	0	
0.182667	0.00146759	0.00202916	0.000897807	0.000247835	0	5	0	
0.182833	0.00456539	-0.00536752	0.000937978	0.000222985	0	5	0	
0.183	0.00285193	0.000412194	0.000863573	0.000240745	0	5	0	
0.183167	-0.00537815	0.000320414	0.000766914	0.000299306	0	5	0	
0.183333	0.00931443	-0.0108754	0.000716324	0.000317174	0	5	0	
0.1835	-0.0232517	0.00241137	0.000741338	0.00029727	0	5	0	
0.183667	0.0154206	0.000786463	0.000892877	0.000198389	0	5	0	
0.183833	0.0275779	-0.00217252	0.00120437	0.000176871	0	5	0	
0.184	-0.0355461	-0.000383685	0.00131886	0.000201092	0	5	0	
0.184167	-0.0103364	0.000471113	0.00101569	0.000227047	0	5	0	
0.184333	0.0351827	0.00174782	0.000617106	0.000190401	0	5	0	
0.1845	-0.00575885	0.00355009	0.000659421	0.000197652	0	5	0	
0.184667	-0.00177788	-0.00700817	0.000872225	0.000289265	0	5	0	
0.184833	-0.0324992	0.00440416	0.000871109	0.000368639	0	5	0	
0.185	0.0213002	0.00768989	0.000881281	0.000371368	0	5	0	
0.185167	0.0288564	0.00151211	0.00121433	0.000338771	0	5	0	
0.185333	-0.0140837	-0.00540011	0.00129575	0.000328571	0	5	0	
0.1855	-0.0328469	0.00304381	0.000970806	0.000292809	0	5	0	
0.185667	0.0170725	0.000663957	0.000695836	0.000241826	0	5	0	
0.185833	0.012385	-0.00512689	0.000927666	0.000226593	0	5	0	
0.186	0.00222774	0.00670811	0.00101768	0.000258296	0	5	0	
0.186167	-0.022239	0.000478223	0.000836208	0.00027221	0	5	0	
0.186333	0.00875754	-4.03074E-05	0.00069633	0.000220517	0	5	0	
0.1865	-0.00319493	-0.00406103	0.000815874	0.000132238	0	5	0	
0.186667	0.011868	0.0036955	0.000873689	8.66707E-05	0	5	0	
0.186833	-0.00443386	-0.00514082	0.000844487	0.000156949	0	5	0	
0.187	-0.00526321	-0.0108345	0.000837138	0.000265668	0	5	0	
0.187167	-0.00654763	0.00883205	0.000799018	0.000369447	0	5	0	
0.187333	0.0103077	-0.00641452	0.000716407	0.000337818	0	5	0	
0.1875	-0.00868148	0.0063349	0.000701537	0.000284274	0	5	0	
0.187667	0.0081891	-0.00531402	0.000776762	0.00024378	0	5	0	
0.187833	-0.00974425	0.00108436	0.000835038	0.000256647	0	5	0	
0.188	0.00645258	-0.00706164	0.000864046	0.000246132	0	5	0	
0.188167	-0.00481685	-0.00208203	0.000918331	0.000238612	0	5	0	
0.188333	-0.000257466	0.00165991	0.000964693	0.000244924	0	5	0	
0.1885	0.00220072	0.00222704	0.000956118	0.000326158	0	5	0	
0.188667	0.00171214	-0.00312396	0.000851014	0.0003844	0	5	0	
0.188833	-0.0200509	-0.00133527	0.000711073	0.000348437	0	5	0	
0.189	0.0286601	0.00461705	0.000675391	0.000250762	0	5	0	
0.189167	-0.0222898	-0.000809829	0.000828966	0.000218797	0	5	0	
0.189333	0.00811614	-0.00471605	0.00104574	0.000293594	0	5	0	
0.1895	-0.0011177	6.93456E-05	0.00115414	0.000340793	0	5	0	
0.189667	-0.00459582	0.00599514	0.00110426	0.00030951	0	5	0	
0.189833	-0.000654733	0.000182839	0.000948527	0.000254775	0	5	0	
0.19	0.00716359	-0.00303682	0.000776776	0.000238143	0	5	0	
0.190167	-0.0141004	0.00257343	0.000664946	0.000197476	0	5	0	
0.190333	0.0215579	0.00418825	0.000662628	0.000156602	0	5	0	
0.1905	-0.0167086	-0.00472385	0.000792002	0.000174221	0	5	0	
0.190667	-0.00286142	-0.000186373	0.000974301	0.000278015	0	5	0	
0.190833	0.00315318	0.00259985	0.0010157	0.000364718	0	5	0	
0.191	0.00970458	-0.00224331	0.000888298	0.000339754	0	5	0	
0.191167	-0.0134196	-0.00213414	0.000766221	0.000250703	0	5	0	
0.191333	0.0118944	0.00272389	0.000761215	0.000204026	0	5	0	
0.1915	-0.0161571	0.00118	0.000808064	0.000223492	0	5	0	
0.191667	0.0142419	0.00236681	0.000861901	0.000251947	0	5	0	
0.191833	0.00767987	-0.00564801	0.00101927	0.000250128	0	5	0	
0.192	-0.0238	0.00247446	0.0011208	0.000216104	0	5	0	
0.192167	-0.0105242	-0.00574939	0.000871535	0.000222719	0	5	0	
0.192333	0.0562009	0.000903543	0.000628533	0.000267988	0	5	0	
0.1925	-0.0380657	0.00576493	0.000733573	0.000353565	0	5	0	
0.192667	-0.0117104	-0.000772259	0.00133645	0.00037224	0	5	0	
0.192833	0.00476755	-0.0033047	0.00149215	0.000295447	0	5	0	
0.193	0.0148994	0.00640155	0.00131588	0.000185447	0	5	0	
0.193167	0.0371037	-0.00918124	0.00132234	0.00013038	0	5	0	
0.193333	-0.0785159	0.0116444	0.0015389	0.000181473	0	5	0	
0.1935	0.0159112	-0.00428089	0.00153884	0.000255129	0	5	0	
0.193667	0.050998	-0.00187057	0.00115068	0.000309629	0	5	0	
0.193833	-0.0380031	0.00593205	0.000896901	0.000281998	0	5	0	
0.194	0.0163646	-0.00519841	0.000968515	0.000223233	0	5	0	
0.194167	-0.0290163	0.00468127	0.000974086	0.000164406	0	5	0	
0.194333	0.0178538	0.00348502	0.00107316	0.000127477	0	5	0	
0.1945	0.00735696	0.000270206	0.00123729	0.000147288	0	5	0	
0.194667	-0.0181217	-0.00555904	0.00134687	0.000243042	0	5	0	
0.194833	0.0157506	0.00548219	0.00117973	0.000344428	0	5	0	
0.195	0.00990128	-0.000745503	0.00075507	0.000324599	0	5	0	
0.195167	-0.0428937	-0.00760325	0.000530424	0.00022173	0	5	0	
0.195333	0.0353219	-0.000339261	0.000735572	0.000186977	0	5	0	
0.1955	0.0159256	0.00342436	0.00131803	0.000259722	0	5	0	
0.195667	-0.0314217	0.00526579	0.00159166	0.000277178	0	5	0	
0.195833	-0.00259186	-0.0217788	0.00129216	0.000294604	0	5	0	
0.196	0.0119775	0.0142537	0.000832903	0.000397989	0	5	0	
0.196167	0.0230598	0.0143631	0.000805423	0.000640578	0	5	0	
0.196333	-0.00961001	-0.0291768	0.000846454	0.000713103	0	5	0	
0.1965	-0.0413303	0.014918	0.000766236	0.000638773	0	5	0	
0.196667	0.0407573	0.00605254	0.000658	0.00039681	0	5	0	
0.196833	0.00283795	-0.0100432	0.000994362	0.00025199	0	5	0	
0.197	0.0194189	0.0159007	0.00102336	0.000184943	0	5	0	
0.197167	-0.0585629	-0.0178318	0.000961222	0.000240548	0	5	0	
0.197333	0.0241797	-0.00197096	0.00105983	0.000274611	0	5	0	
0.1975	0.0376675	0.00600131	0.00170381	0.000342177	0	5	0	
0.197667	-0.00244458	-0.0103751	0.00167531	0.000404006	0	5	0	
0.197833	-0.0605379	0.0167209	0.00124152	0.000422815	0	5	0	
0.198	0.029034	-0.000296446	0.000897481	0.000340699	0	5	0	
0.198167	0.036753	-0.00586769	0.00132763	0.000252843	0	5	0	
0.198333	-0.0181796	-0.0129631	0.0014345	0.000317391	0	5	0	
0.1985	-0.0432148	0.00860248	0.00111532	0.000427713	0	5	0	
0.198667	0.015345	-0.0106463	0.000895815	0.000380439	0	5	0	
0.198833	0.0384503	0.0125348	0.000989724	0.000288138	0	5	0	
0.199	0.0242014	-0.00241708	0.00115348	0.000246857	0	5	0	
0.199167	-0.105395	0.00237538	0.00111868	0.000323945	0	5	0	
0.199333	0.074846	-0.00285177	0.00140948	0.000319592	0	5	0	
0.1995	-0.0165852	0.0111718	0.0020144	0.000246166	0	5	0	
0.199667	-0.00806006	-0.0105196	0.00226559	0.000227405	0	5	0	
0.199833	0.0250213	0.00930766	0.00210756	0.000283315	0	5	0	
0.2	-0.0656654	0.00390991	0.00174639	0.000356118	0	5	0	
0.200167	0.054195	0.00323617	0.00143102	0.000375271	0	5	0	
0.200333	0.0189037	-0.00572481	0.00132179	0.000318844	0	5	0	
0.2005	-0.0619606	-0.00803841	0.00105789	0.000240271	0	5	0	
0.200667	0.0420398	0.051591	0.00107036	0.000301373	0	5	0	
0.200833	-0.0331941	-0.0371194	0.00104861	0.000567096	0	5	0	
0.201	0.037042	0.0171821	0.00115276	0.000720902	0	5	0	
0.201167	-0.00765141	-1.69309E-05	0.00135732	0.000730908	0	5	0	
0.201333	-0.0273226	-0.00887161	0.0015121	0.000497221	0	5	0	
0.2015	3.29844E-05	0.0150644	0.00131852	0.000371047	0	5	0	
0.201667	0.0366763	-0.0116	0.000977226	0.000266866	0	5	0	
0.201833	0.00313852	0.0137987	0.00103053	0.000335465	0	5	0	
0.202	-0.0435251	0.00910336	0.00140829	0.000437196	0	5	0	
0.202167	0.0148016	-0.0211918	0.00136169	0.00046209	0	5	0	
0.202333	0.0347448	0.00023929	0.000881482	0.000423982	0	5	0	
0.2025	-0.0398761	0.00911552	0.000577123	0.000391398	0	5	0	
0.202667	0.0318192	-0.00864993	0.000775798	0.000344012	0	5	0	
0.202833	-0.0303551	-0.0100203	0.00106609	0.000263242	0	5	0	
0.203	0.00929652	0.00552059	0.00129279	0.000193217	0	5	0	
0.203167	0.0203937	-0.00397823	0.00143249	0.000246764	0	5	0	
0.203333	-0.0154854	0.00375361	0.0013239	0.000274779	0	5	0	
0.2035	-0.00509617	-0.00708962	0.000924542	0.000260509	0	5	0	
0.203667	0.0141533	-0.000556794	0.000526706	0.00025562	0	5	0	
0.203833	-0.0240066	0.00433451	0.000425805	0.000295497	0	5	0	
0.204	0.0400482	-0.00886233	0.000596379	0.000321225	0	5	0	
0.204167	-0.0382498	-0.0120551	0.000891233	0.000309485	0	5	0	
0.204333	0.0089218	0.00599788	0.00124938	0.000269173	0	5	0	
0.2045	0.00788435	-0.00854738	0.00143601	0.0002371	0	5	0	
0.204667	0.00954557	0.00243279	0.00124687	0.000224529	0	5	0	
0.204833	-0.0190664	-0.0009444	0.000951831	0.000271556	0	5	0	
0.205	-0.0052023	-0.00361209	0.000900354	0.000365661	0	5	0	
0.205167	0.0164732	-0.00541325	0.000945623	0.000414042	0	5	0	
0.205333	0.0316122	-0.00651669	0.00078773	0.000335691	0	5	0	
0.2055	-0.0656533	0.00167746	0.000676743	0.000219124	0	5	0	
0.205667	0.0487464	-0.0051504	0.000847491	0.00014233	0	5	0	
0.205833	-0.016784	-0.00516281	0.00123915	0.000199061	0	5	0	
0.206	0.0145007	0.00335683	0.00132181	0.000263631	0	5	0	
0.206167	-0.00870117	-0.00436099	0.00128331	0.00032391	0	5	0	
0.206333	-0.00904858	0.0012502	0.001249	0.000326452	0	5	0	
0.2065	0.0198969	-0.00881209	0.00120668	0.000305895	0	5	0	
0.206667	-0.00632287	0.0110623	0.00103184	0.00028297	0	5	0	
0.206833	-0.0109246	-0.0102196	0.000701471	0.000318668	0	5	0	
0.207	0.0318135	-0.00268692	0.000527338	0.000368632	0	5	0	
0.207167	-0.0403684	0.000733417	0.000503206	0.000411486	0	5	0	
0.207333	0.0369395	0.00493582	0.000818065	0.000375304	0	5	0	
0.2075	-0.0166072	-0.00716176	0.00116147	0.000311235	0	5	0	
0.207667	0.0367312	0.00878785	0.00138868	0.000239577	0	5	0	
0.207833	-0.032039	-0.014006	0.00145911	0.000214161	0	5	0	
0.208	-0.0165921	0.0139423	0.0015463	0.000216875	0	5	0	
0.208167	0.0245421	-0.018911	0.00138561	0.000314908	0	5	0	
0.208333	0.0462923	0.0146529	0.00100687	0.000426502	0	5	0	
0.2085	-0.0585773	0.000355498	0.000770496	0.000493862	0	5	0	
0.208667	0.0227414	-0.0123337	0.00101379	0.000468411	0	5	0	
0.208833	-0.0103917	0.0123213	0.00119755	0.000390359	0	5	0	
0.209	0.024563	-0.00205827	0.001033	0.000280398	0	5	0	
0.209167	-0.00728903	-0.0137755	0.000782565	0.000188729	0	5	0	
0.209333	-0.00107211	0.0127221	0.000684536	0.000161078	0	5	0	
0.2095	-0.0325514	-0.0053931	0.00061673	0.000222247	0	5	0	
0.209667	0.0456792	0.0054155	0.000659609	0.000239831	0	5	0	
0.209833	-0.0115697	-0.00435533	0.000972083	0.000229783	0	5	0	
0.21	-0.0107167	-0.000607323	0.00135788	0.000230408	0	5	0	
0.210167	-0.00611537	-0.00219644	0.00131093	0.000258954	0	5	0	
0.210333	0.0114345	0.00462143	0.0010298	0.000256217	0	5	0	
0.2105	0.0036471	-0.00640297	0.000856336	0.000240613	0	5	0	
0.210667	0.00850607	0.00136137	0.000760919	0.00025646	0	5	0	
0.210833	-0.0404342	0.00671677	0.000669929	0.000320386	0	5	0	
0.211	0.0433236	-0.00196247	0.000671953	0.000355442	0	5	0	
0.211167	-0.0182576	-0.00314055	0.000975073	0.000313736	0	5	0	
0.211333	0.0125175	0.00378287	0.00111967	0.00022723	0	5	0	
0.2115	-0.0334232	-0.00157498	0.00102756	0.000146521	0	5	0	
0.211667	0.0224474	0.00206905	0.000944768	0.000118024	0	5	0	
0.211833	0.00571113	-3.0044E-05	0.0011068	0.00012928	0	5	0	
0.212	-0.0102383	0.0047084	0.00113218	0.00018991	0	5	0	
0.212167	-0.0134062	0.00431194	0.000846718	0.000240992	0	5	0	
0.212333	0.0233824	-0.00567166	0.000540531	0.000261747	0	5	0	
0.2125	-0.0168926	0.000265238	0.000537401	0.000238483	0	5	0	
0.212667	0.0204714	-0.00201149	0.000694563	0.000236181	0	5	0	
0.212833	-0.0394601	0.00669599	0.000793264	0.000268807	0	5	0	
0.213	0.0400622	0.00111099	0.000903635	0.000276974	0	5	0	
0.213167	-0.0177128	0.00115643	0.00113228	0.000215901	0	5	0	
0.213333	-0.00612534	0.00462886	0.00131439	0.000184318	0	5	0	
0.2135	0.00781399	-0.00424161	0.00123189	0.000230683	0	5	0	
0.213667	0.00695885	0.00149498	0.000916467	0.000293027	0	5	0	
0.213833	-0.0212741	-0.00881073	0.000601196	0.000289882	0	5	0	
0.214	0.0328116	0.00807677	0.000537623	0.00026044	0	5	0	
0.214167	-0.0170014	0.00705134	0.000691784	0.000292824	0	5	0	
0.214333	0.00296161	-0.00787883	0.000810295	0.000289319	0	5	0	
0.2145	-0.0265561	-0.00581243	0.000720498	0.000266068	0	5	0	
0.214667	0.0420725	0.0144696	0.000647959	0.000208948	0	5	0	
0.214833	-0.0255631	-0.0184318	0.000768843	0.000271464	0	5	0	
0.215	0.0191418	0.012028	0.000983902	0.000339318	0	5	0	
0.215167	-0.0258617	-0.0128689	0.00104275	0.000388626	0	5	0	
0.215333	0.0110223	0.00813372	0.0010676	0.000389466	0	5	0	
0.2155	0.0190342	0.00486857	0.00119238	0.000424784	0	5	0	
0.215667	-0.0234209	-0.00775574	0.00115293	0.000449399	0	5	0	
0.215833	-0.0124775	-0.00361168	0.000815796	0.000374132	0	5	0	
0.216	0.0482529	0.00223033	0.000515737	0.000234836	0	5	0	
0.216167	-0.0524101	-0.00643109	0.000601329	0.000123849	0	5	0	
0.216333	0.0337068	0.0119498	0.000985103	0.000128197	0	5	0	
0.2165	-0.0164626	-0.00844136	0.00124558	0.000164747	0	5	0	
0.216667	0.00681008	0.0102576	0.00123522	0.000230827	0	5	0	
0.216833	-0.00708526	-0.00853816	0.00107326	0.000265642	0	5	0	
0.217	0.000725349	0.00742391	0.000887065	0.000320955	0	5	0	
0.217167	-0.0047103	-0.00186138	0.000676457	0.000356645	0	5	0	
0.217333	0.0302511	0.01093	0.000502817	0.000386132	0	5	0	
0.2175	-0.0524006	-0.00880602	0.000515167	0.000355374	0	5	0	
0.217667	0.0440118	0.00811416	0.000796167	0.00032323	0	5	0	
0.217833	-0.0191759	-0.00210597	0.0011856	0.000304391	0	5	0	
0.218	-0.0044271	-0.00131843	0.0013576	0.000311163	0	5	0	
0.218167	-0.00103523	0.00492187	0.00118664	0.000250691	0	5	0	
0.218333	0.0211396	0.0119912	0.000845666	0.000180082	0	5	0	
0.2185	-0.0231015	-0.0146157	0.000681525	0.000168383	0	5	0	
0.218667	0.00545727	0.00989361	0.000788495	0.000217586	0	5	0	
0.218833	-0.01016	-0.00462286	0.000819903	0.000300293	0	5	0	
0.219	0.033602	0.00708214	0.00070453	0.000327109	0	5	0	
0.219167	-0.0272822	-0.0009747	0.000650121	0.000348307	0	5	0	
0.219333	0.00788523	-0.00404326	0.000772628	0.000343206	0	5	0	
0.2195	-0.0270879	-6.47033E-05	0.000771173	0.000288625	0	5	0	
0.219667	0.0494876	0.00178787	0.000764808	0.000192957	0	5	0	
0.219833	-0.0208315	-0.00704196	0.000939389	0.000139995	0	5	0	
0.22	-0.00636556	0.000347144	0.00125449	0.000162874	0	5	0	
0.220167	-0.0058123	0.00255014	0.0011838	0.000205374	0	5	0	
0.220333	0.0190879	0.00218487	0.000891036	0.000187362	0	5	0	
0.2205	-0.0108824	-0.0077783	0.000672185	0.000191186	0	5	0	
0.220667	0.0202639	0.0047062	0.000682367	0.000252326	0	5	0	
0.220833	-0.0324374	-0.0114312	0.000726798	0.000342997	0	5	0	
0.221	0.0245238	0.00509693	0.000805377	0.000371257	0	5	0	
0.221167	-0.0124334	-0.00878988	0.000903121	0.000379863	0	5	0	
0.221333	0.0239333	0.00352821	0.000876543	0.000332361	0	5	0	
0.2215	-0.0340881	-0.00969243	0.000804567	0.000297968	0	5	0	
0.221667	0.0199872	0.0104488	0.000867874	0.000260456	0	5	0	
0.221833	0.0013552	-0.0143245	0.0010257	0.000271811	0	5	0	
0.222	0.00836682	0.00906867	0.000944095	0.000276172	0	5	0	
0.222167	-0.0311383	-0.0121089	0.000745793	0.000278635	0	5	0	
0.222333	0.0262563	0.00388434	0.000695334	0.000239316	0	5	0	
0.2225	-0.0141707	-0.00591943	0.000885054	0.000205767	0	5	0	
0.222667	0.0227541	0.000624171	0.000956646	0.000176826	0	5	0	
0.222833	-0.0324104	-0.00737011	0.000907661	0.000170896	0	5	0	
0.223	0.0171476	0.00893234	0.000895471	0.000200818	0	5	0	
0.223167	-0.00781745	-0.00715072	0.000992394	0.00019228	0	5	0	
0.223333	0.0168896	0.0035745	0.000952129	0.000212686	0	5	0	
0.2235	-0.0290266	-0.000524055	0.000834396	0.000204163	0	5	0	
0.223667	0.0278004	0.00182896	0.000763365	0.000219938	0	5	0	
0.223833	-0.0230317	-0.00367816	0.000839854	0.000178858	0	5	0	
0.224	0.0169653	0.00408251	0.000919444	0.000147339	0	5	0	
0.224167	-0.0185667	-0.0066658	0.000937392	0.000132186	0	5	0	
0.224333	0.0256071	0.00542533	0.000893403	0.000169956	0	5	0	
0.2245	-0.0252249	-0.00607671	0.000868635	0.000191715	0	5	0	
0.224667	0.0148475	0.00612737	0.000864929	0.000231268	0	5	0	
0.224833	-0.0205391	0.00022971	0.000822616	0.000227414	0	5	0	
0.225	0.0329505	0.00237206	0.000760033	0.000219617	0	5	0	
0.225167	-0.0253968	-0.00633796	0.000782504	0.000186612	0	5	0	
0.225333	0.0130149	0.005781	0.000867509	0.000199931	0	5	0	
0.2255	-0.0220148	-0.00272868	0.000839002	0.000226815	0	5	0	
0.225667	0.0320902	0.0029793	0.000764699	0.000241211	0	5	0	
0.225833	-0.0213183	-0.00571858	0.000811042	0.000202109	0	5	0	
0.226	0.00671658	0.00631928	0.000952062	0.000174643	0	5	0	
0.226167	-0.0156908	-0.00409379	0.000950783	0.000151851	0	5	0	
0.226333	0.0287359	0.00557949	0.000853247	0.000179881	0	5	0	
0.2265	-0.0261181	-0.00116835	0.000841643	0.00017335	0	5	0	
0.226667	0.0171002	0.00511636	0.000914443	0.000179389	0	5	0	
0.226833	-0.0269275	-0.000247232	0.000881509	0.000132907	0	5	0	
0.227	0.0405402	-0.000602358	0.000809586	0.000108052	0	5	0	
0.227167	-0.032061	-0.00599052	0.000865806	0.000101489	0	5	0	
0.227333	0.0157602	0.00828759	0.000982559	0.000150478	0	5	0	
0.2275	-0.0283421	-0.00517873	0.000932919	0.000202083	0	5	0	
0.227667	0.0390592	0.00507185	0.000813095	0.00024121	0	5	0	
0.227833	-0.0256861	0.000434479	0.000823724	0.00021848	0	5	0	
0.228	0.011219	0.00409215	0.000953463	0.00019652	0	5	0	
0.228167	-0.0156228	-0.00624413	0.00093954	0.000196799	0	5	0	
0.228333	0.0156077	-0.000990389	0.000800963	0.000215021	0	5	0	
0.2285	-0.0167281	-0.00407742	0.000685556	0.000192024	0	5	0	
0.228667	0.0241989	0.00731526	0.000658968	0.000154329	0	5	0	
0.228833	-0.0331092	-0.00106299	0.000692252	0.000165987	0	5	0	
0.229	0.0357918	0.00312828	0.000761709	0.000224733	0	5	0	
0.229167	-0.0364149	-0.00381941	0.000892562	0.000236092	0	5	0	
0.229333	0.0272393	0.00351757	0.00104015	0.000218934	0	5	0	
0.2295	-0.0123787	-0.00624664	0.00113173	0.000202968	0	5	0	
0.229667	0.00493587	0.00852362	0.00107604	0.000191597	0	5	0	
0.229833	-0.0113424	-0.00950121	0.000887614	0.000207943	0	5	0	
0.23	0.0209499	0.00681855	0.000676737	0.000259051	0	5	0	
0.230167	-0.0400902	0.00225758	0.00059664	0.000302195	0	5	0	
0.230333	0.0555545	0.00125442	0.000731642	0.000263067	0	5	0	
0.2305	-0.0325094	-0.00685009	0.000991872	0.000186094	0	5	0	
0.230667	0.00179901	0.00121022	0.00121952	0.000133612	0	5	0	
0.230833	-0.0107129	-0.00270143	0.00110377	0.000157676	0	5	0	
0.231	0.0359165	0.0132043	0.000873142	0.000211561	0	5	0	
0.231167	-0.0274963	-0.0108413	0.000756718	0.000319107	0	5	0	
0.231333	0.0131545	0.0010175	0.000869875	0.000423026	0	5	0	
0.2315	-0.0328987	0.00284364	0.000876254	0.000409175	0	5	0	
0.231667	0.0456368	0.00446783	0.000870352	0.000277171	0	5	0	
0.231833	-0.00923251	-0.0134847	0.0010069	0.000186615	0	5	0	
0.232	-0.00337807	0.0130443	0.00111445	0.000234742	0	5	0	
0.232167	-0.0357398	-0.0093689	0.00091627	0.000335431	0	5	0	
0.232333	0.0527096	0.0137541	0.000739477	0.000357778	0	5	0	
0.2325	-0.0242425	-0.00752591	0.000847887	0.000307178	0	5	0	
0.232667	0.0156455	0.00623476	0.00104866	0.000243544	0	5	0	
0.232833	-0.0321711	-0.0089474	0.00097048	0.000215254	0	5	0	
0.233	0.0266796	0.00623323	0.000831651	0.000224785	0	5	0	
0.233167	-0.0127895	-0.000912184	0.000796476	0.00028519	0	5	0	
0.233333	0.0336077	0.00227068	0.000770857	0.000286272	0	5	0	
0.2335	-0.052329	-0.00112645	0.000772747	0.000233312	0	5	0	
0.233667	0.034339	-0.00194754	0.000936187	0.000175331	0	5	0	
0.233833	-0.0100375	-0.00212197	0.00119272	0.000152816	0	5	0	
0.234	0.0108422	0.0113516	0.0011694	0.000166929	0	5	0	
0.234167	-0.0250194	-0.0103921	0.000934808	0.000208273	0	5	0	
0.234333	0.0253313	0.000355384	0.000772639	0.00030012	0	5	0	
0.2345	-0.0126504	0.00477266	0.000787141	0.000367967	0	5	0	
0.234667	0.0227836	-0.00386117	0.00075992	0.000313752	0	5	0	
0.234833	-0.0462789	-0.00869477	0.000705965	0.000205178	0	5	0	
0.235	0.0477479	0.0118592	0.000774848	0.000160115	0	5	0	
0.235167	-0.0228423	-0.00499168	0.00101589	0.000198722	0	5	0	
0.235333	0.00159724	0.00440431	0.00112871	0.000256802	0	5	0	
0.2355	-0.018267	-0.00392218	0.000928797	0.000251691	0	5	0	
0.235667	0.0410696	0.000204119	0.000737951	0.00024905	0	5	0	
0.235833	-0.0138252	0.000643371	0.000734884	0.000237347	0	5	0	
0.236	-0.00636813	-0.000340634	0.000912717	0.000171087	0	5	0	
0.236167	-0.0104205	-0.0117286	0.000780111	0.000124317	0	5	0	
0.236333	0.0177601	0.00859201	0.00053491	0.000109897	0	5	0	
0.2365	-0.0264604	0.000510318	0.000330545	0.000186339	0	5	0	
0.236667	0.0662889	-0.004291	0.00052739	0.00021149	0	5	0	
0.236833	-0.0768468	-0.0045116	0.000859588	0.000174166	0	5	0	
0.237	0.0478449	0.00923973	0.0013478	0.000140329	0	5	0	
0.237167	-0.0146828	0.000786737	0.0016383	0.000148913	0	5	0	
0.237333	-0.00972413	-0.00969237	0.00171997	0.000306801	0	5	0	
0.2375	0.0552513	0.00983644	0.00165763	0.000446196	0	5	0	
0.237667	-0.0555244	-0.00997572	0.00141364	0.000456128	0	5	0	
0.237833	-0.0191834	-0.00923717	0.00138193	0.000308124	0	5	0	
0.238	0.0904722	0.0200779	0.00133757	0.000242481	0	5	0	
0.238167	-0.0902288	-0.00852167	0.0015327	0.000244973	0	5	0	
0.238333	0.0372935	0.0220407	0.00167836	0.000312221	0	5	0	
0.2385	0.0024704	-0.0255825	0.00173296	0.000365341	0	5	0	
0.238667	-0.00176455	0.00719294	0.00148994	0.000413463	0	5	0	
0.238833	-0.0268746	-0.00290923	0.000983941	0.000406059	0	5	0	
0.239	0.0612958	0.00183065	0.000664926	0.000280863	0	5	0	
0.239167	-0.0665042	-0.000556601	0.000809678	0.000164461	0	5	0	
0.239333	0.0328809	0.00435808	0.00117846	0.000112112	0	5	0	
0.2395	-0.00577319	0.00242321	0.0014092	0.000143187	0	5	0	
0.239667	0.00462913	-0.0109783	0.00123787	0.000233664	0	5	0	
0.239833	-0.0088907	0.00554683	0.000879955	0.00025766	0	5	0	
0.24	-0.0074979	0.00163565	0.000529241	0.000194427	0	5	0	
0.240167	-0.00284317	-0.0165794	0.000420964	0.000174127	0	5	0	
0.240333	0.0875695	0.00634055	0.000803193	0.000190124	0	5	0	
0.2405	-0.129879	0.0015715	0.00131769	0.000250593	0	5	0	
0.240667	0.0585487	0.00357258	0.00200861	0.000233763	0	5	0	
0.240833	0.00135104	-0.010893	0.00222563	0.000215336	0	5	0	
0.241	0.0155574	0.00724678	0.00183952	0.000215844	0	5	0	
0.241167	-0.0214458	-0.00738538	0.00129424	0.000280679	0	5	0	
0.241333	-0.0239366	0.00329338	0.00112418	0.000312507	0	5	0	
0.2415	0.0308421	-0.00861845	0.00109039	0.000312881	0	5	0	
0.241667	0.0374369	0.00990571	0.00125808	0.000288894	0	5	0	
0.241833	-0.108369	-0.00266658	0.00125138	0.000274233	0	5	0	
0.242	0.0945305	0.00243873	0.00165595	0.000247301	0	5	0	
0.242167	-0.0326727	-0.00392231	0.00184618	0.00017751	0	5	0	
0.242333	0.0128557	0.00878452	0.0017244	0.000155465	0	5	0	
0.2425	-0.0339781	-0.00898782	0.00134176	0.000162813	0	5	0	
0.242667	0.0401274	0.011793	0.000974128	0.000235458	0	5	0	
0.242833	-0.0297252	0.000173465	0.000899599	0.000251583	0	5	0	
0.243	0.0235571	-8.28221E-05	0.000977614	0.000272146	0	5	0	
0.243167	-0.0159213	-0.00264869	0.000914677	0.000232665	0	5	0	
0.243333	0.0178439	0.00713643	0.000756638	0.000215511	0	5	0	
0.2435	-0.0241406	-0.00685136	0.000655081	0.000177672	0	5	0	
0.243667	0.0258402	0.0128901	0.000624311	0.000207443	0	5	0	
0.243833	-0.0387922	-0.00450235	0.000648932	0.000212723	0	5	0	
0.244	0.0621528	0.00459105	0.000737304	0.000260776	0	5	0	
0.244167	-0.0519635	-0.00279753	0.000967613	0.00023219	0	5	0	
0.244333	0.0160038	0.00374742	0.00128863	0.000210263	0	5	0	
0.2445	0.00411096	-0.00569762	0.00138873	0.000148142	0	5	0	
0.244667	0.0136425	0.0123299	0.00106964	0.000162879	0	5	0	
0.244833	-0.0408484	-0.00755998	0.000717686	0.000181885	0	5	0	
0.245	0.037604	0.00763355	0.000615633	0.000237736	0	5	0	
0.245167	-0.0262447	-0.0025003	0.000833479	0.000215244	0	5	0	
0.245333	0.02949	0.00929674	0.000918822	0.000232125	0	5	0	
0.2455	-0.0251188	-0.00787309	0.000929994	0.00022266	0	5	0	
0.245667	0.00103164	0.00705762	0.000980005	0.00024426	0	5	0	
0.245833	-0.00199596	-0.00477657	0.000888776	0.000216121	0	5	0	
0.246	0.041441	0.00482679	0.000725837	0.000204858	0	5	0	
0.246167	-0.0563093	0.00543501	0.000644586	0.000229728	0	5	0	
0.246333	0.0319724	-0.00281705	0.000885209	0.000271057	0	5	0	
0.2465	-0.0346573	-0.00396812	0.00106487	0.000229467	0	5	0	
0.246667	0.0463117	0.0141328	0.00107448	0.000162728	0	5	0	
0.246833	-0.0222882	-0.0130722	0.00105748	0.000187699	0	5	0	
0.247	-0.00576559	0.00609479	0.00109933	0.000299131	0	5	0	
0.247167	-0.0196402	-0.00137656	0.000883455	0.000349664	0	5	0	
0.247333	0.0531858	0.016504	0.000709096	0.000335666	0	5	0	
0.2475	-0.0395732	-0.0142537	0.000686903	0.000351633	0	5	0	
0.247667	0.0165137	0.00777498	0.000890701	0.000367194	0	5	0	
0.247833	-0.0357178	-0.0106114	0.000857109	0.0003417	0	5	0	
0.248	0.0487694	0.0155437	0.000816835	0.000254947	0	5	0	
0.248167	-0.0328521	-0.0082684	0.000919336	0.000254997	0	5	0	
0.248333	0.0163918	0.00897814	0.00106354	0.000302569	0	5	0	
0.2485	-0.0205575	-0.00634085	0.000960625	0.000325686	0	5	0	
0.248667	0.0289563	0.00474237	0.000770466	0.000278431	0	5	0	
0.248833	-0.0297518	-0.00261389	0.000694665	0.000187687	0	5	0	
0.249	0.027619	0.0128391	0.000752564	0.00015369	0	5	0	
0.249167	-0.0323686	-0.0118085	0.000766823	0.000178481	0	5	0	
0.249333	0.0387138	0.0111653	0.000758705	0.000248688	0	5	0	
0.2495	-0.0409698	-0.00821173	0.000800143	0.000274506	0	5	0	
0.249667	0.0373806	0.0129327	0.000921113	0.000277985	0	5	0	
0.249833	-0.0290302	-0.00696344	0.00101009	0.000272902	0	5	0	
0.25	0.0302741	0.00291825	0.000974916	0.00028257	0	5	0	
0.250167	-0.0403868	-0.00229834	0.000895274	0.000237545	0	5	0	
0.250333	0.0320579	0.0135565	0.000894049	0.000215288	0	5	0	
0.2505	-0.0170973	-0.0104953	0.000928904	0.000214138	0	5	0	
0.250667	0.0308778	0.0137272	0.000870065	0.000263366	0	5	0	
0.250833	-0.0431773	-0.0102885	0.000793333	0.000289254	0	5	0	
0.251	0.0277395	0.00321233	0.000808159	0.000270766	0	5	0	
0.251167	-0.0271637	-0.0114408	0.000856507	0.000252416	0	5	0	
0.251333	0.0446922	0.0193267	0.000832565	0.000270787	0	5	0	
0.2515	-0.0465509	-0.0116496	0.000827664	0.000306839	0	5	0	
0.251667	0.030611	0.0073442	0.000921566	0.000302956	0	5	0	
0.251833	-0.029901	-0.00898786	0.000958737	0.000236905	0	5	0	
0.252	0.0450104	0.0114897	0.000909245	0.000196851	0	5	0	
0.252167	-0.0462131	-0.0128214	0.000916218	0.000237231	0	5	0	
0.252333	0.0220522	0.00746427	0.00103729	0.000268273	0	5	0	
0.2525	-0.00621588	-0.00946358	0.00109519	0.000246868	0	5	0	
0.252667	0.0124706	0.00905699	0.000900348	0.000208969	0	5	0	
0.252833	-0.0308851	-0.00266428	0.000656718	0.000185905	0	5	0	
0.253	0.040658	0.00521714	0.000578784	0.000215737	0	5	0	
0.253167	-0.0397102	-0.00985509	0.000730199	0.000216395	0	5	0	
0.253333	0.0410916	0.00643247	0.000886162	0.000236388	0	5	0	
0.2535	-0.0369024	-0.00511725	0.000971569	0.000230686	0	5	0	
0.253667	0.0277706	0.00552818	0.00098489	0.000221181	0	5	0	
0.253833	-0.0290916	-0.0058973	0.000930574	0.000181321	0	5	0	
0.254	0.0403499	0.0120138	0.000862943	0.000200383	0	5	0	
0.254167	-0.0432257	-0.0132901	0.000862893	0.000240201	0	5	0	
0.254333	0.0389178	0.0112447	0.000937803	0.000294004	0	5	0	
0.2545	-0.0322515	-0.0101871	0.00100396	0.000281586	0	5	0	
0.254667	0.0224951	0.00775882	0.000995898	0.000249976	0	5	0	
0.254833	-0.0101335	-0.0102439	0.000917184	0.000234027	0	5	0	
0.255	0.0223376	0.00724783	0.000742042	0.000236282	0	5	0	
0.255167	-0.0461961	-0.0101242	0.000643679	0.000233166	0	5	0	
0.255333	0.04413	0.0100465	0.000688142	0.000220923	0	5	0	
0.2555	-0.0273448	-0.00767699	0.000854446	0.000214666	0	5	0	
0.255667	0.0333189	0.00455745	0.000876219	0.000201004	0	5	0	
0.255833	-0.0444115	-0.0163954	0.00085099	0.000224592	0	5	0	
0.256	0.0309065	0.00797659	0.000884763	0.000239924	0	5	0	
0.256167	-0.0129171	-0.0196097	0.000936797	0.000293135	0	5	0	
0.256333	0.0287355	0.0108883	0.00082519	0.000296823	0	5	0	
0.2565	-0.0492156	-0.0210245	0.000722556	0.000336714	0	5	0	
0.256667	0.0449281	0.00916239	0.000764508	0.000305087	0	5	0	
0.256833	-0.0316636	-0.0185485	0.000936956	0.000306055	0	5	0	
0.257	0.0296389	0.00433901	0.000955614	0.000261718	0	5	0	
0.257167	-0.0348874	-0.0114377	0.000885106	0.000270106	0	5	0	
0.257333	0.0358472	-0.00551499	0.000827398	0.000206199	0	5	0	
0.2575	-0.0324543	-0.0120046	0.000851877	0.000174803	0	5	0	
0.257667	0.0291371	0.00451156	0.000842968	0.000152933	0	5	0	
0.257833	-0.0327178	-0.00745978	0.000800155	0.000170534	0	5	0	
0.258	0.039195	0.00194794	0.000768175	0.000174755	0	5	0	
0.258167	-0.0377141	-0.0124865	0.000815563	0.000190156	0	5	0	
0.258333	0.0304309	0.0125319	0.000850457	0.000212587	0	5	0	
0.2585	-0.0361356	-0.0141712	0.000835769	0.000243574	0	5	0	
0.258667	0.0460471	0.0100854	0.000809489	0.000266284	0	5	0	
0.258833	-0.0436315	-0.00771591	0.000877259	0.000278633	0	5	0	
0.259	0.0310391	0.0120888	0.000962848	0.00028996	0	5	0	
0.259167	-0.0320764	-0.0114845	0.000941611	0.000285932	0	5	0	
0.259333	0.0441848	0.00989308	0.000857826	0.000267745	0	5	0	
0.2595	-0.0425692	-0.00417802	0.000839352	0.000229434	0	5	0	
0.259667	0.0281129	0.00494722	0.000916912	0.00020051	0	5	0	
0.259833	-0.0290976	-0.00827498	0.000908219	0.000207422	0	5	0	
0.26	0.0385728	0.00956945	0.000817765	0.00022835	0	5	0	
0.260167	-0.0337459	-0.0110108	0.00075013	0.000220141	0	5	0	
0.260333	0.0251328	0.0113283	0.000737893	0.000233439	0	5	0	
0.2605	-0.0396078	-0.011736	0.000731812	0.000219571	0	5	0	
0.260667	0.0511776	0.0149939	0.00076414	0.000287427	0	5	0	
0.260833	-0.0445589	-0.0078518	0.000878598	0.000306918	0	5	0	
0.261	0.0365535	0.00847531	0.000983527	0.000312226	0	5	0	
0.261167	-0.0364756	-0.013414	0.00100438	0.000237646	0	5	0	
0.261333	0.0133244	0.0133561	0.000984073	0.000224564	0	5	0	
0.2615	-0.00363976	-0.00522008	0.000859749	0.000223407	0	5	0	
0.261667	0.0370144	0.0143214	0.000705434	0.000261634	0	5	0	
0.261833	-0.0746665	-0.0127828	0.000709089	0.000263169	0	5	0	
0.262	0.0550443	0.011339	0.000956694	0.000262255	0	5	0	
0.262167	-0.0226066	1.58612E-05	0.00120556	0.000254708	0	5	0	
0.262333	0.0301243	0.00214996	0.00110001	0.000193648	0	5	0	
0.2625	-0.0452876	-0.00767609	0.000924765	0.000156298	0	5	0	
0.262667	0.0168208	0.0155186	0.000874502	0.000157411	0	5	0	
0.262833	-0.00802314	-0.000971312	0.000851483	0.000182353	0	5	0	
0.263	0.0511126	0.00616303	0.000778557	0.000183792	0	5	0	
0.263167	-0.0654599	-0.0133811	0.00076694	0.000178055	0	5	0	
0.263333	0.0311758	0.011525	0.00100511	0.000194249	0	5	0	
0.2635	-0.0192672	-0.0100276	0.00110797	0.000261832	0	5	0	
0.263667	0.0409895	0.00947672	0.000969	0.00024987	0	5	0	
0.263833	-0.0490716	-0.00932165	0.000823185	0.000238351	0	5	0	
0.264	0.0406002	0.0143127	0.000863738	0.000208338	0	5	0	
0.264167	-0.0390532	-0.0179893	0.00095198	0.000256032	0	5	0	
0.264333	0.0355926	0.0104738	0.000965414	0.000263884	0	5	0	
0.2645	-0.0183009	-0.00619724	0.000907851	0.000278497	0	5	0	
0.264667	0.02956	0.000844888	0.000798591	0.000206319	0	5	0	
0.264833	-0.050793	-0.00910184	0.000742841	0.000186686	0	5	0	
0.265	0.0479166	0.00506786	0.000791427	0.000140731	0	5	0	
0.265167	-0.0382598	-0.00948815	0.000922921	0.000153171	0	5	0	
0.265333	0.0450559	0.00360717	0.0009739	0.000140117	0	5	0	
0.2655	-0.039102	-0.0107101	0.000965877	0.00015985	0	5	0	
0.265667	0.0301375	0.00762189	0.00095694	0.000167187	0	5	0	
0.265833	-0.0276973	-0.0154199	0.000905293	0.000208869	0	5	0	
0.266	0.0308921	0.0100656	0.000801289	0.000232927	0	5	0	
0.266167	-0.0350592	-0.00835955	0.000705917	0.000259439	0	5	0	
0.266333	0.0473261	0.00226328	0.000715962	0.000214807	0	5	0	
0.2665	-0.0534681	-0.0152492	0.000831097	0.000190753	0	5	0	
0.266667	0.0415235	0.00688924	0.000967881	0.000177337	0	5	0	
0.266833	-0.0296171	-0.00243777	0.00102863	0.00021442	0	5	0	
0.267	0.0301956	0.00691939	0.000944623	0.000214704	0	5	0	
0.267167	-0.0268524	-0.00801257	0.00081146	0.000191537	0	5	0	
0.267333	0.0277825	0.005274	0.000705075	0.000187571	0	5	0	
0.2675	-0.0425148	-0.0108809	0.00067721	0.000213283	0	5	0	
0.267667	0.0509819	0.0128642	0.000747003	0.000234916	0	5	0	
0.267833	-0.0390888	-0.0175401	0.000863291	0.000257493	0	5	0	
0.268	0.032902	0.0126451	0.000919276	0.00028763	0	5	0	
0.268167	-0.0406083	-0.00570692	0.000886664	0.000310943	0	5	0	
0.268333	0.0435424	0.00795903	0.000855265	0.000289951	0	5	0	
0.2685	-0.0325237	-0.015339	0.000881472	0.000261821	0	5	0	
0.268667	0.0341075	0.0114345	0.000879514	0.000264424	0	5	0	
0.268833	-0.0463342	-0.00935677	0.000845009	0.000262912	0	5	0	
0.269	0.04281	0.00904097	0.000848781	0.000252077	0	5	0	
0.269167	-0.025514	-0.0121371	0.000907747	0.000224612	0	5	0	
0.269333	0.0205326	0.0134993	0.000848592	0.000253298	0	5	0	
0.2695	-0.0400061	-0.0135813	0.000744231	0.000274052	0	5	0	
0.269667	0.0552443	0.0117679	0.000718317	0.000311984	0	5	0	
0.269833	-0.0438012	-0.00962803	0.000838593	0.000270073	0	5	0	
0.27	0.032394	0.0139411	0.000915396	0.000252625	0	5	0	
0.270167	-0.0474447	-0.00713132	0.000883807	0.000215808	0	5	0	
0.270333	0.0569871	0.00453584	0.000891827	0.0002228	0	5	0	
0.2705	-0.0370616	-0.00917249	0.000992034	0.000204603	0	5	0	
0.270667	0.021945	0.00851343	0.00102679	0.000204634	0	5	0	
0.270833	-0.0302052	-0.00605053	0.000900178	0.000175026	0	5	0	
0.271	0.0329282	0.00947946	0.000752738	0.000181361	0	5	0	
0.271167	-0.0291059	-0.00808784	0.000700738	0.000183346	0	5	0	
0.271333	0.0239078	0.0110197	0.000707556	0.000225084	0	5	0	
0.2715	-0.0361469	-0.0146011	0.000632125	0.0002481	0	5	0	
0.271667	0.0487195	0.0090948	0.000656489	0.000246052	0	5	0	
0.271833	-0.0490491	-0.0106835	0.000766294	0.000238847	0	5	0	
0.272	0.0406527	0.0146259	0.000929095	0.000245829	0	5	0	
0.272167	-0.0388468	-0.00876901	0.000956144	0.000263236	0	5	0	
0.272333	0.0336692	0.00445304	0.000896969	0.000291965	0	5	0	
0.2725	-0.0301575	-0.00170712	0.000809591	0.000254192	0	5	0	
0.272667	0.0332605	0.00831178	0.000781393	0.000193612	0	5	0	
0.272833	-0.0394202	-0.0132502	0.000763827	0.00018355	0	5	0	
0.273	0.0398871	0.0119935	0.000796893	0.000200868	0	5	0	
0.273167	-0.0372756	-0.00575072	0.000815969	0.000215425	0	5	0	
0.273333	0.0431136	0.00920648	0.000840291	0.000195464	0	5	0	
0.2735	-0.0446654	-0.00700811	0.000874616	0.000184236	0	5	0	
0.273667	0.027494	0.00697642	0.000888615	0.000209532	0	5	0	
0.273833	-0.0222177	-0.00685499	0.000814692	0.000215833	0	5	0	
0.274	0.0424266	0.00225103	0.000713173	0.000184805	0	5	0	
0.274167	-0.0482743	-0.00629925	0.00071321	0.000167876	0	5	0	
0.274333	0.0363655	0.00790609	0.000839144	0.000156784	0	5	0	
0.2745	-0.0310743	-0.0121522	0.000906128	0.000201906	0	5	0	
0.274667	0.0310525	0.00605113	0.000825501	0.000234039	0	5	0	
0.274833	-0.0411931	-0.00570246	0.000732256	0.000233838	0	5	0	
0.275	0.0771039	0.00670536	0.000828878	0.000185355	0	5	0	
0.275167	-0.0815357	-0.0252689	0.0011343	0.000197331	0	5	0	
0.275333	0.0264971	0.016856	0.00151547	0.000274395	0	5	0	
0.2755	0.00556306	-0.016458	0.00154564	0.000413516	0	5	0	
0.275667	0.0334275	0.000705634	0.00114455	0.000466502	0	5	0	
0.275833	-0.0448964	-5.42454E-05	0.000790005	0.000394303	0	5	0	
0.276	0.0342749	0.0281901	0.000672958	0.000344666	0	5	0	
0.276167	-0.120604	-0.082141	0.0010997	0.000519317	0	5	0	
0.276333	0.161385	0.00899198	0.00163965	0.00108272	0	5	0	
0.2765	0.164532	0.457993	0.00435375	0.00327247	0	5	0	
0.276667	0.0502977	-0.117235	0.00866184	0.00731233	0	5	0	
0.276833	0.123189	0.111965	0.0103191	0.00845711	0	5	0	
0.277	-0.0512109	-0.0136952	0.00779358	0.00643716	0	5	0	
0.277167	0.0023022	-0.0419754	0.00346795	0.00276344	0	5	0	
0.277333	0.0617635	0.14313	0.00167338	0.00170466	0	5	0	
0.2775	-0.251648	-0.161449	0.00209228	0.00224076	0	5	0	
0.277667	0.728739	0.555075	0.00474593	0.00475404	0	5	0	
0.277833	-0.308117	-0.215629	0.00779847	0.00739038	0	5	0	
0.278	0.0802455	-0.00629816	0.00810716	0.00759404	0	5	0	
0.278167	-0.00743098	0.0578285	0.00563975	0.00460258	0	5	0	
0.278333	-0.00458788	0.00651146	0.0024009	0.00156186	0	5	0	
0.2785	0.0214399	0.0151028	0.00167354	0.000758843	0	5	0	
0.278667	-0.0337313	-0.0316981	0.00150435	0.000811638	0	5	0	
0.278833	0.0203202	0.041471	0.00150816	0.000845538	0	5	0	
0.279	0.00320085	-0.0101691	0.0011275	0.000814091	0	5	0	
0.279167	-0.0474295	-0.0163926	0.000805063	0.000623883	0	5	0	
0.279333	0.064071	0.020507	0.000661861	0.000385024	0	5	0	
0.2795	-0.0529033	-0.0156278	0.000951045	0.000323611	0	5	0	
0.279667	0.0819953	0.0563035	0.00124942	0.000415405	0	5	0	
0.279833	0.117088	-0.0305483	0.00174473	0.00116854	0	5	0	
0.28	-0.280213	-0.0645716	0.00229489	0.00213776	0	5	0	
0.280167	0.0325591	0.0295526	0.0026538	0.00272004	0	5	0	
0.280333	0.0183686	0.013094	0.00198183	0.0021548	0	5	0	
0.2805	-0.0451643	-0.00817347	0.00126821	0.00114055	0	5	0	
0.280667	0.0370202	0.00956238	0.000671446	0.000485685	0	5	0	
0.280833	0.071814	0.0775191	0.00107742	0.000580417	0	5	0	
0.281	0.0552661	-0.228695	0.00175765	0.00136022	0	5	0	
0.281167	-0.131837	0.0601683	0.00276187	0.0022681	0	5	0	
0.281333	0.0485144	-0.0165121	0.00297321	0.00218522	0	5	0	
0.2815	-0.0346596	-0.008925	0.00243834	0.00138059	0	5	0	
0.281667	0.0344413	0.0187956	0.00140802	0.000459112	0	5	0	
0.281833	-0.0455698	-0.0254818	0.000901097	0.000325055	0	5	0	
0.282	0.0516425	0.0252335	0.00085816	0.000396783	0	5	0	
0.282167	-0.0888015	-0.087646	0.000919629	0.000533034	0	5	0	
0.282333	0.0326649	0.015087	0.000998174	0.000764035	0	5	0	
0.2825	-0.039278	-0.0021143	0.00085257	0.000723452	0	5	0	
0.282667	0.0447568	-0.00258039	0.000772702	0.000563524	0	5	0	
0.282833	-0.0424921	0.0066793	0.000718901	0.000220456	0	5	0	
0.283	0.0393291	-0.00447241	0.000919499	0.0002014	0	5	0	
0.283167	-0.0243998	-0.0209285	0.00101599	0.000229474	0	5	0	
0.283333	-0.0148807	-0.0217531	0.000936279	0.000471893	0	5	0	
0.2835	-0.0322633	-0.0120178	0.000707382	0.000500789	0	5	0	
0.283667	0.0675908	0.0179903	0.000716385	0.000488704	0	5	0	
0.283833	-0.0696259	-0.0121053	0.000959985	0.000333174	0	5	0	
0.284	0.0690583	0.00667676	0.00128711	0.000389911	0	5	0	
0.284167	-0.0652366	-0.0133503	0.00138566	0.00048419	0	5	0	
0.284333	0.0497954	0.0107257	0.00134676	0.000449654	0	5	0	
0.2845	-0.0197958	-0.0132255	0.00122809	0.000388898	0	5	0	
0.284667	0.0173891	0.0125605	0.000952909	0.000305311	0	5	0	
0.284833	-0.0397995	-0.0137376	0.000734667	0.000266679	0	5	0	
0.285	0.046747	0.0180277	0.00065113	0.000279454	0	5	0	
0.285167	-0.0383854	-0.0132687	0.000769682	0.000275482	0	5	0	
0.285333	0.0387089	0.0123626	0.000813912	0.000299781	0	5	0	
0.2855	-0.0479617	-0.00673532	0.000814997	0.000230802	0	5	0	
0.285667	0.0470988	0.0101403	0.000833957	0.000207293	0	5	0	
0.285833	-0.0373617	-0.00548523	0.000908927	0.000144048	0	5	0	
0.286	0.0233713	0.0115141	0.000867564	0.000184375	0	5	0	
0.286167	-0.0370202	-0.00593401	0.000762077	0.000188925	0	5	0	
0.286333	0.0488077	0.0105753	0.000710646	0.000226956	0	5	0	
0.2865	-0.0506229	-0.00606635	0.000796673	0.000207469	0	5	0	
0.286667	0.0427027	0.0135186	0.000902166	0.000258341	0	5	0	
0.286833	-0.051538	-0.00925175	0.000945726	0.000263175	0	5	0	
0.287	0.0615931	0.0179734	0.000993987	0.000300117	0	5	0	
0.287167	-0.0491993	-0.00911925	0.00106833	0.000277037	0	5	0	
0.287333	0.0175012	0.00824328	0.00107789	0.000274387	0	5	0	
0.2875	-0.0103608	-0.0133755	0.000884288	0.00024794	0	5	0	
0.287667	0.0251149	0.0276652	0.000633743	0.000308422	0	5	0	
0.287833	-0.0520043	-0.0179708	0.000595817	0.000357727	0	5	0	
0.288	0.0692062	0.00400682	0.000821098	0.000445293	0	5	0	
0.288167	-0.0835625	0.00368153	0.00116221	0.000376375	0	5	0	
0.288333	0.0802185	0.0104941	0.00137723	0.000328563	0	5	0	
0.2885	-0.037002	-0.0165146	0.00150221	0.000284435	0	5	0	
0.288667	-0.00204455	0.0140876	0.00140703	0.000301866	0	5	0	
0.288833	-0.0246945	-0.00916599	0.00100846	0.000282433	0	5	0	
0.289	0.0571417	0.017985	0.00077996	0.000296294	0	5	0	
0.289167	-0.0470217	-0.00903452	0.000730948	0.000328115	0	5	0	
0.289333	0.038746	0.0018189	0.000900671	0.000382601	0	5	0	
0.2895	-0.064611	0.00157736	0.000953312	0.000291986	0	5	0	
0.289667	0.0632952	0.00426208	0.00101316	0.000181431	0	5	0	
0.289833	-0.0289531	-0.0167775	0.00108609	0.000123521	0	5	0	
0.29	0.0265631	0.0308859	0.000935714	0.000242797	0	5	0	
0.290167	-0.0605217	-0.0164079	0.000832131	0.000387424	0	5	0	
0.290333	0.0668056	0.0118034	0.000872781	0.000482542	0	5	0	
0.2905	-0.0375538	-0.00730913	0.00107341	0.000378432	0	5	0	
0.290667	0.0214161	0.0131843	0.0010396	0.000283937	0	5	0	
0.290833	-0.032808	-0.0180998	0.000843786	0.00023404	0	5	0	
0.291	0.0573858	0.0147094	0.000737575	0.000276129	0	5	0	
0.291167	-0.0625537	-0.0128994	0.000847147	0.000309992	0	5	0	
0.291333	0.0473376	0.013852	0.00103774	0.000304931	0	5	0	
0.2915	-0.0335491	-0.0120238	0.00105888	0.000280254	0	5	0	
0.291667	0.0387151	0.0127355	0.000942989	0.000253699	0	5	0	
0.291833	-0.0426922	-0.0144573	0.000825787	0.000269394	0	5	0	
0.292	0.0517521	0.00730514	0.00081305	0.000266646	0	5	0	
0.292167	-0.0595626	-0.0183068	0.000916781	0.000280864	0	5	0	
0.292333	0.0537097	0.0164741	0.00101687	0.000283	0	5	0	
0.2925	-0.035904	-0.0084423	0.00104271	0.000335889	0	5	0	
0.292667	0.0381317	-0.00374067	0.000939651	0.000336896	0	5	0	
0.292833	-0.0626845	-0.00786933	0.000902305	0.000249791	0	5	0	
0.293	0.0701488	0.0168729	0.000990533	0.000214525	0	5	0	
0.293167	-0.0443796	-0.0207234	0.00113354	0.000235415	0	5	0	
0.293333	0.0277159	0.0178667	0.00107566	0.000329066	0	5	0	
0.2935	-0.0356743	-0.0208238	0.000887626	0.000363357	0	5	0	
0.293667	0.033038	0.0172738	0.000717342	0.000384692	0	5	0	
0.293833	-0.0334312	-0.0097922	0.000659466	0.000364822	0	5	0	
0.294	0.0516001	0.00964391	0.000725095	0.000323924	0	5	0	
0.294167	-0.0630417	-0.0111719	0.00086177	0.000261562	0	5	0	
0.294333	0.0538658	0.0105626	0.00101793	0.000221814	0	5	0	
0.2945	-0.0417346	-0.00745873	0.00106931	0.000201213	0	5	0	
0.294667	0.0313604	0.0101599	0.000966343	0.000186898	0	5	0	
0.294833	-0.0349295	-0.0110422	0.0008236	0.000184341	0	5	0	
0.295	0.0489241	0.0136177	0.000753082	0.000204209	0	5	0	
0.295167	-0.0561933	-0.00860172	0.000830314	0.000221902	0	5	0	
0.295333	0.0533156	0.0053012	0.000951264	0.000235667	0	5	0	
0.2955	-0.0413536	-0.0089549	0.000998402	0.000213941	0	5	0	
0.295667	0.0317919	0.00957721	0.000927872	0.000203268	0	5	0	
0.295833	-0.0331437	-0.00822344	0.000803687	0.000188014	0	5	0	
0.296	0.0425605	0.00793562	0.000723052	0.000192373	0	5	0	
0.296167	-0.0492403	-0.0144933	0.000758036	0.000188737	0	5	0	
0.296333	0.0482146	0.0216154	0.000832796	0.000253823	0	5	0	
0.2965	-0.0424391	-0.0195847	0.000889991	0.000321925	0	5	0	
0.296667	0.0529369	0.0104052	0.000899921	0.000364073	0	5	0	
0.296833	-0.053623	-0.0160053	0.000929596	0.000327419	0	5	0	
0.297	0.0384937	0.0120594	0.000948617	0.000282666	0	5	0	
0.297167	-0.0325084	-0.0110126	0.000887356	0.000264203	0	5	0	
0.297333	0.0462263	0.0060383	0.000807886	0.000252339	0	5	0	
0.2975	-0.0512527	-0.007843	0.000810258	0.000204162	0	5	0	
0.297667	0.0420667	0.00725633	0.000863516	0.000178611	0	5	0	
0.297833	-0.0310301	-0.013981	0.000852315	0.000174559	0	5	0	
0.298	0.0432557	0.00129259	0.000779719	0.000172357	0	5	0	
0.298167	-0.0517755	-0.0121624	0.000774551	0.000185668	0	5	0	
0.298333	0.0442229	0.0152814	0.000846603	0.000211056	0	5	0	
0.2985	-0.0337307	-0.0218314	0.000873482	0.000283265	0	5	0	
0.298667	0.0407029	0.0183751	0.000812536	0.000357902	0	5	0	
0.298833	-0.0511448	-0.0235864	0.00080054	0.000425707	0	5	0	
0.299	0.0437425	0.0135136	0.000834684	0.00044085	0	5	0	
0.299167	-0.0297744	-0.0217256	0.000864779	0.000410376	0	5	0	
0.299333	0.0436155	0.0128149	0.000809092	0.000372634	0	5	0	
0.2995	-0.059786	-0.011497	0.00084321	0.00031857	0	5	0	
0.299667	0.0448861	0.0088142	0.000905602	0.000274248	0	5	0	
0.299833	-0.0358552	-0.0163721	0.000934505	0.000221392	0	5	0	
0.3	0.046133	0.0121309	0.000852131	0.000244009	0	5	0	
0.300167	-0.0433828	-0.00731064	0.000817487	0.000261286	0	5	0	
0.300333	0.0318732	-0.000462293	0.000799235	0.00025601	0	5	0	
0.3005	-0.0529675	-0.00766826	0.000827469	0.000186511	0	5	0	
0.300667	0.0679767	0.0221594	0.000907325	0.000192323	0	5	0	
0.300833	-0.0359997	-0.0175689	0.00103844	0.000247266	0	5	0	
0.301	0.00813004	0.0112484	0.000977709	0.000348682	0	5	0	
0.301167	-0.047327	-0.0168495	0.00086134	0.000347784	0	5	0	
0.301333	0.0803358	0.027929	0.000903112	0.000383369	0	5	0	
0.3015	-0.0478469	-0.0169389	0.00109781	0.00040397	0	5	0	
0.301667	0.0207337	0.00850721	0.00110038	0.000406611	0	5	0	
0.301833	-0.0607928	-0.00427152	0.000996698	0.000299292	0	5	0	
0.302	0.0744575	0.0151994	0.000992177	0.00020836	0	5	0	
0.302167	-0.0262776	-0.00502493	0.00113383	0.000180347	0	5	0	
0.302333	0.0178229	0.00581086	0.000996171	0.000159951	0	5	0	
0.3025	-0.0628237	-0.00582389	0.000912239	0.000197498	0	5	0	
0.302667	0.0646041	0.0167784	0.000898547	0.000206871	0	5	0	
0.302833	-0.0261702	-0.0162363	0.00106153	0.000282364	0	5	0	
0.303	0.030754	0.0167681	0.000932286	0.00029718	0	5	0	
0.303167	-0.0583652	-0.00390981	0.000855532	0.000297645	0	5	0	
0.303333	0.0548002	0.00616802	0.000863445	0.000254741	0	5	0	
0.3035	-0.0387638	-0.00787267	0.000956743	0.000220895	0	5	0	
0.303667	0.0462776	0.00938406	0.000929551	0.000185321	0	5	0	
0.303833	-0.0448415	-0.00949833	0.000852549	0.000194707	0	5	0	
0.304	0.0405452	0.0110129	0.000844864	0.000162724	0	5	0	
0.304167	-0.0416129	-0.0136818	0.000829773	0.00021249	0	5	0	
0.304333	0.0472715	0.0134592	0.000829083	0.000219298	0	5	0	
0.3045	-0.0492745	-0.00932251	0.000843359	0.000251788	0	5	0	
0.304667	0.0487476	0.00625494	0.000897408	0.000190982	0	5	0	
0.304833	-0.0385748	-0.00771514	0.000896109	0.00017156	0	5	0	
0.305	0.0392584	0.00899663	0.000863129	0.000143333	0	5	0	
0.305167	-0.0466805	-0.00884225	0.000810838	0.000204385	0	5	0	
0.305333	0.0502273	0.0147714	0.000838843	0.000220392	0	5	0	
0.3055	-0.0424352	-0.0114445	0.000870715	0.000255748	0	5	0	
0.305667	0.0417432	0.0105488	0.000876172	0.000224495	0	5	0	
0.305833	-0.0537669	-0.0164084	0.000879285	0.000243029	0	5	0	
0.306	0.060304	0.0222611	0.000939923	0.000277898	0	5	0	
0.306167	-0.0441132	-0.0102147	0.00100561	0.000335749	0	5	0	
0.306333	0.0333844	0.0084809	0.000969569	0.000325015	0	5	0	
0.3065	-0.0374136	-0.0076828	0.000838576	0.00028014	0	5	0	
0.306667	0.0375724	0.0120705	0.000738245	0.000208524	0	5	0	
0.306833	-0.0370992	-0.00832942	0.000707487	0.000199387	0	5	0	
0.307	0.0476591	0.00981071	0.00076595	0.000183751	0	5	0	
0.307167	-0.0591016	-0.0107079	0.00087716	0.000241156	0	5	0	
0.307333	0.0578965	0.0141526	0.000997263	0.000247911	0	5	0	
0.3075	-0.0417577	-0.00946728	0.00102134	0.00027232	0	5	0	
0.307667	0.0302998	0.00911353	0.000926279	0.000213789	0	5	0	
0.307833	-0.036451	-0.00895204	0.00078821	0.000199057	0	5	0	
0.308	0.0467979	0.0119472	0.00075269	0.000187359	0	5	0	
0.308167	-0.0468525	-0.0104819	0.000790766	0.000229397	0	5	0	
0.308333	0.0453969	0.0114374	0.000853366	0.000229529	0	5	0	
0.3085	-0.0455136	-0.0116487	0.000863832	0.000246191	0	5	0	
0.308667	0.0452038	0.00942586	0.000868005	0.000208826	0	5	0	
0.308833	-0.0414353	-0.0148576	0.000866463	0.000226297	0	5	0	
0.309	0.0423119	0.0156308	0.000848258	0.000233913	0	5	0	
0.309167	-0.0474712	-0.0141007	0.000842971	0.000272964	0	5	0	
0.309333	0.0500331	0.0120282	0.000871622	0.000276734	0	5	0	
0.3095	-0.0513307	-0.00758316	0.000925474	0.000241938	0	5	0	
0.309667	0.0539572	0.013992	0.000955274	0.000210592	0	5	0	
0.309833	-0.0440072	-0.0157183	0.000939996	0.000230455	0	5	0	
0.31	0.0377799	0.00898187	0.000889362	0.000244801	0	5	0	
0.310167	-0.042608	-0.0114723	0.000839995	0.000245198	0	5	0	
0.310333	0.0402771	0.0112726	0.000810357	0.000209434	0	5	0	
0.3105	-0.0345551	-0.00368826	0.00078926	0.000191409	0	5	0	
0.310667	0.0518284	0.00801256	0.000807149	0.000189389	0	5	0	
0.310833	-0.0622712	-0.0126363	0.000906165	0.000192279	0	5	0	
0.311	0.0529682	0.0111438	0.00103449	0.000197447	0	5	0	
0.311167	-0.0320796	-0.0123433	0.00104661	0.000235534	0	5	0	
0.311333	0.0155745	-0.00914874	0.00087181	0.00028068	0	5	0	
0.3115	0.0225123	0.0308185	0.000585768	0.000312	0	5	0	
0.311667	-0.166851	-0.0674151	0.00129477	0.00104439	0	5	0	
0.311833	0.00189118	-0.00660099	0.00167375	0.00149437	0	5	0	
0.312	0.0428291	0.0137043	0.00198129	0.00157643	0	5	0	
0.312167	-0.0436117	-0.029317	0.0012246	0.000894135	0	5	0	
0.312333	0.00936257	0.0219725	0.000829362	0.000502406	0	5	0	
0.3125	-0.0371063	0.031508	0.000564707	0.000473983	0	5	0	
0.312667	0.0657965	-0.00734977	0.000932393	0.000517287	0	5	0	
0.312833	-0.096688	-0.00783897	0.00143659	0.000394819	0	5	0	
0.313	0.0926587	0.0114478	0.00185989	0.000321344	0	5	0	
0.313167	-0.0404894	-0.0201365	0.00168714	0.000250133	0	5	0	
0.313333	0.00998238	-0.00104386	0.00120483	0.000290563	0	5	0	
0.3135	-0.00492865	-0.0110452	0.000718224	0.000255509	0	5	0	
0.313667	0.0297936	-0.000519437	0.000400341	0.000254603	0	5	0	
0.313833	-0.0485627	-0.0154764	0.000489168	0.000296082	0	5	0	
0.314	0.0323472	0.0151256	0.00059775	0.000377372	0	5	0	
0.314167	0.00182017	-0.0111697	0.000702361	0.000338153	0	5	0	
0.314333	-0.00648079	-0.00427734	0.000463038	0.000271904	0	5	0	
0.3145	-0.0255124	-0.00460879	0.000472318	0.000178079	0	5	0	
0.314667	0.0385832	0.00119868	0.000414164	0.000184897	0	5	0	
0.314833	-0.0148179	-0.0146994	0.00061759	0.000166289	0	5	0	
0.315	0.00540649	0.00336451	0.00050815	0.000205549	0	5	0	
0.315167	-0.0681505	-0.0158475	0.000701125	0.000192977	0	5	0	
0.315333	0.0736332	0.0200666	0.00104633	0.000242178	0	5	0	
0.3155	-0.0432119	-0.00817752	0.00130769	0.000289761	0	5	0	
0.315667	0.0320735	-0.00585504	0.00116538	0.000283886	0	5	0	
0.315833	-0.0459023	-0.0144759	0.000824551	0.000241397	0	5	0	
0.316	0.0254098	0.00408223	0.000826329	0.000219223	0	5	0	
0.316167	0.00714958	-0.0046884	0.000797019	0.000184347	0	5	0	
0.316333	-0.0228546	0.00879011	0.000662136	0.000175721	0	5	0	
0.3165	0.00902827	-0.00910849	0.000593383	0.000180856	0	5	0	
0.316667	0.0252571	0.0108913	0.000670241	0.000231155	0	5	0	
0.316833	-0.0638076	-0.0204091	0.000813781	0.000310662	0	5	0	
0.317	0.0656505	0.0213539	0.00100967	0.000339471	0	5	0	
0.317167	-0.0258845	-0.032135	0.00106292	0.00046458	0	5	0	
0.317333	0.00797104	0.012472	0.000990699	0.000486335	0	5	0	
0.3175	-0.0326158	-0.0108137	0.0010176	0.00044353	0	5	0	
0.317667	0.0459866	0.0146811	0.0010588	0.000319131	0	5	0	
0.317833	-0.0290919	-0.0160369	0.00107901	0.000296493	0	5	0	
0.318	0.0270966	0.00886327	0.000766556	0.000283569	0	5	0	
0.318167	-0.0378333	-0.0133995	0.00060882	0.000298893	0	5	0	
0.318333	0.0245848	0.00188841	0.000622132	0.000241632	0	5	0	
0.3185	-0.010057	-0.00513936	0.000558393	0.000199397	0	5	0	
0.318667	-0.00189973	-0.00388409	0.000371865	0.000151897	0	5	0	
0.318833	-0.00706113	-0.00385816	0.000223287	0.000165184	0	5	0	
0.319	0.0299969	0.00589518	0.000259008	0.000239223	0	5	0	
0.319167	-0.0477038	-0.0105457	0.000495763	0.00023561	0	5	0	
0.319333	0.044022	0.00857805	0.000716604	0.000221959	0	5	0	
0.3195	-0.0305905	-0.00325095	0.00077943	0.000199229	0	5	0	
0.319667	0.0133715	0.000215087	0.000677583	0.000199322	0	5	0	
0.319833	-0.00399773	-0.00602822	0.000437526	0.000159346	0	5	0	
0.32	0.0149448	0.0123442	0.000330371	0.000151743	0	5	0	
0.320167	-0.0482136	-0.00921595	0.000503227	0.000169294	0	5	0	
0.320333	0.0717232	0.00707412	0.000879423	0.000186298	0	5	0	
0.3205	-0.068437	-0.0265042	0.001198	0.000247695	0	5	0	
0.320667	0.0419661	0.021409	0.00122771	0.000339375	0	5	0	
0.320833	-0.0181407	-0.0134773	0.000988751	0.000395625	0	5	0	
0.321	0.0122204	0.00711805	0.000652696	0.000350751	0	5	0	
0.321167	-0.022042	0.00254464	0.000407096	0.000227101	0	5	0	
0.321333	0.0374747	0.0150405	0.000403379	0.000193078	0	5	0	
0.3215	-0.0394028	-0.0228336	0.000576871	0.000245762	0	5	0	
0.321667	0.0472964	0.0131036	0.000760262	0.000330363	0	5	0	
0.321833	-0.0276212	-0.00870842	0.000814974	0.000324163	0	5	0	
0.322	0.00546737	0.01596	0.000644438	0.000250554	0	5	0	
0.322167	-0.0153451	-0.00862232	0.000455952	0.000206814	0	5	0	
0.322333	0.0604786	0.0094054	0.000528922	0.000232185	0	5	0	
0.3225	-0.0688905	-0.00243947	0.000839047	0.00021101	0	5	0	
0.322667	0.0364056	0.00457402	0.00106228	0.00016024	0	5	0	
0.322833	-0.00268559	-0.00439269	0.000881025	0.000113696	0	5	0	
0.323	0.00410822	0.018505	0.000553768	0.000146063	0	5	0	
0.323167	-0.0101511	-0.0196846	0.000301456	0.00025615	0	5	0	
0.323333	0.0187729	0.0214434	0.000277546	0.00032999	0	5	0	
0.3235	-0.0464236	-0.00905706	0.000461736	0.000387505	0	5	0	
0.323667	0.0588215	0.00763389	0.000741409	0.000314361	0	5	0	
0.323833	-0.0435021	-0.00669157	0.000947883	0.000248351	0	5	0	
0.324	0.021388	0.00229563	0.000893671	0.000155479	0	5	0	
0.324167	-0.014317	-0.00549999	0.000637916	0.000124612	0	5	0	
0.324333	0.0173965	0.0203851	0.000419139	0.000169019	0	5	0	
