0	-0.0213361	0.000916153	2.13361E-06	9.16153E-08	0	5	0	
0.000166667	-0.0836159	0.0333984	0.00140968	0.000311796	0	5	0	
0.000333333	0.162528	-0.0504665	0.00307814	0.000761298	0	5	0	
0.0005	-0.227802	0.0922199	0.00490721	0.00136511	0	5	0	
0.000666667	0.175117	-0.0702142	0.00484691	0.00154552	0	5	0	
0.000833333	-0.206192	0.0799049	0.00485808	0.00168438	0	5	0	
0.001	0.121258	-0.0462355	0.00409381	0.0014582	0	5	0	
0.00116667	-0.0716144	0.0529439	0.00403434	0.0014468	0	5	0	
0.00133333	-0.0265017	-0.00470499	0.00368057	0.00129439	0	5	0	
0.0015	-0.0952243	0.0576642	0.00454423	0.00153172	0	5	0	
0.00166667	0.0383414	-0.024763	0.00538642	0.00181654	0	5	0	
0.00183333	-0.127231	0.071167	0.00602247	0.00207715	0	5	0	
0.002	0.0172349	-0.0220894	0.0060041	0.00213624	0	5	0	
0.00216667	-0.114812	0.0661658	0.00587378	0.00202029	0	5	0	
0.00233333	0.0424708	-0.0187585	0.00614504	0.00202876	0	5	0	
0.0025	-0.157697	0.0757129	0.00644337	0.00208995	0	5	0	
0.00266667	0.0636477	-0.0420294	0.00659884	0.00224798	0	5	0	
0.00283333	-0.156171	0.0886222	0.00646718	0.00227871	0	5	0	
0.003	0.0555462	-0.0315216	0.00634811	0.00223176	0	5	0	
0.00316667	-0.1568	0.0800886	0.00628666	0.0021299	0	5	0	
0.00333333	0.0593679	-0.0325157	0.00631227	0.00213865	0	5	0	
0.0035	-0.163525	0.0792227	0.00630717	0.00218457	0	5	0	
0.00366667	0.0572063	-0.0386404	0.00628966	0.0022929	0	5	0	
0.00383333	-0.158797	0.0944241	0.00624672	0.00234324	0	5	0	
0.004	0.0600297	-0.039151	0.00630016	0.00236185	0	5	0	
0.00416667	-0.169075	0.0829314	0.00634714	0.00223198	0	5	0	
0.00433333	0.0619701	-0.0239114	0.00638937	0.00212639	0	5	0	
0.0045	-0.172389	0.073492	0.00634775	0.00205481	0	5	0	
0.00466667	0.0635768	-0.0261904	0.00634642	0.00214221	0	5	0	
0.00483333	-0.170739	0.0797586	0.00630455	0.00218184	0	5	0	
0.005	0.0597905	-0.0340251	0.00628916	0.00229717	0	5	0	
0.00516667	-0.169327	0.0972349	0.0062259	0.00233046	0	5	0	
0.00533333	0.0577563	-0.0455272	0.00623717	0.00241596	0	5	0	
0.0055	-0.175772	0.0762938	0.00623629	0.00232326	0	5	0	
0.00566667	0.0648732	-0.0120522	0.00632069	0.00226701	0	5	0	
0.00583333	-0.188049	0.085017	0.00633491	0.00229996	0	5	0	
0.006	0.0693061	-0.0486301	0.00634391	0.00253183	0	5	0	
0.00616667	-0.17875	0.101583	0.00622243	0.00260982	0	5	0	
0.00633333	0.0597598	-0.0511358	0.00615894	0.00260024	0	5	0	
0.0065	-0.176372	0.101583	0.0061435	0.00247065	0	5	0	
0.00666667	0.0576381	-0.0289689	0.00625587	0.0023367	0	5	0	
0.00683333	-0.183456	0.0769958	0.00628639	0.00210723	0	5	0	
0.007	0.065516	-0.0191411	0.00636151	0.00200389	0	5	0	
0.00716667	-0.194266	0.0730907	0.00632961	0.00197241	0	5	0	
0.00733333	0.0694794	-0.0240376	0.00637842	0.00216964	0	5	0	
0.0075	-0.187637	0.0963896	0.00631157	0.00230414	0	5	0	
0.00766667	0.0655592	-0.034868	0.00632172	0.00246638	0	5	0	
0.00783333	-0.194922	0.079627	0.00625307	0.00235655	0	5	0	
0.008	0.0662632	-0.0381401	0.00625773	0.00240262	0	5	0	
0.00816667	-0.1925	0.110879	0.00618137	0.00242303	0	5	0	
0.00833333	0.0607232	-0.0371538	0.00621392	0.00245346	0	5	0	
0.0085	-0.190574	0.0806902	0.00616545	0.00221231	0	5	0	
0.00866667	0.0619852	-0.0383254	0.00625918	0.00214161	0	5	0	
0.00883333	-0.200615	0.0996513	0.00625134	0.00214258	0	5	0	
0.009	0.0709639	-0.0336166	0.00636121	0.00220975	0	5	0	
0.00916667	-0.201474	0.0919764	0.00627768	0.0021239	0	5	0	
0.00933333	0.0593805	-0.0357868	0.00627084	0.00215132	0	5	0	
0.0095	-0.199083	0.0935286	0.00616294	0.0021315	0	5	0	
0.00966667	0.0689507	-0.0381068	0.00628163	0.00219165	0	5	0	
0.00983333	-0.207539	0.0903888	0.00627046	0.00212724	0	5	0	
0.01	0.0640345	-0.0302783	0.00635139	0.00219764	0	5	0	
0.0101667	-0.209426	0.103188	0.00626221	0.00219792	0	5	0	
0.0103333	0.0724613	-0.0431351	0.00636544	0.00230647	0	5	0	
0.0105	-0.2115	0.090727	0.00628164	0.00222026	0	5	0	
0.0106667	0.0630474	-0.0299028	0.00630405	0.00220818	0	5	0	
0.0108333	-0.21074	0.0963845	0.00617615	0.00211879	0	5	0	
0.011	0.0643357	-0.0394111	0.00628455	0.00221197	0	5	0	
0.0111667	-0.207651	0.0975538	0.00623142	0.00213928	0	5	0	
0.0113333	0.0664011	-0.0183019	0.00638901	0.00207893	0	5	0	
0.0115	-0.232043	0.0741257	0.0063677	0.00191876	0	5	0	
0.0116667	0.079957	-0.0354458	0.00650728	0.00212294	0	5	0	
0.0118333	-0.21917	0.112802	0.0063327	0.00226562	0	5	0	
0.012	0.0622478	-0.039716	0.00632017	0.00241024	0	5	0	
0.0121667	-0.218991	0.102159	0.00616436	0.00222585	0	5	0	
0.0123333	0.0633947	-0.0429947	0.00627731	0.00219269	0	5	0	
0.0125	-0.222622	0.0914588	0.0062	0.00208095	0	5	0	
0.0126667	0.0745706	-0.0248787	0.00640913	0.00210781	0	5	0	
0.0128333	-0.237844	0.106578	0.00637422	0.00207377	0	5	0	
0.013	0.0738678	-0.0411632	0.00647497	0.0022263	0	5	0	
0.0131667	-0.224051	0.100115	0.00624439	0.00221405	0	5	0	
0.0133333	0.0702681	-0.0470603	0.00631388	0.00232396	0	5	0	
0.0135	-0.237371	0.103493	0.00624078	0.00223792	0	5	0	
0.0136667	0.074853	-0.0218805	0.00641055	0.00222878	0	5	0	
0.0138333	-0.234718	0.0982892	0.00627922	0.0020968	0	5	0	
0.014	0.0751822	-0.0499799	0.006389	0.00226959	0	5	0	
0.0141667	-0.236142	0.106383	0.00625327	0.00229047	0	5	0	
0.0143333	0.0729402	-0.0343133	0.00637276	0.00231801	0	5	0	
0.0145	-0.237483	0.100909	0.00623112	0.00210558	0	5	0	
0.0146667	0.0747491	-0.0355945	0.00638681	0.00216226	0	5	0	
0.0148333	-0.243751	0.107116	0.00628888	0.00214128	0	5	0	
0.015	0.0774939	-0.0422694	0.00645282	0.00227786	0	5	0	
0.0151667	-0.243481	0.101344	0.00629669	0.0021876	0	5	0	
0.0153333	0.0772896	-0.0406924	0.00642961	0.00227161	0	5	0	
0.0155	-0.249096	0.113498	0.00627881	0.00220279	0	5	0	
0.0156667	0.0765558	-0.0387725	0.00640441	0.0023088	0	5	0	
0.0158333	-0.243514	0.104703	0.00620875	0.00219787	0	5	0	
0.016	0.0725112	-0.0419806	0.00633184	0.00225205	0	5	0	
0.0161667	-0.247893	0.102629	0.00618217	0.00214302	0	5	0	
0.0163333	0.0745407	-0.032375	0.00635686	0.00221547	0	5	0	
0.0165	-0.247502	0.106402	0.00618876	0.00212645	0	5	0	
0.0166667	0.075304	-0.039262	0.00636372	0.00225916	0	5	0	
0.0168333	-0.255149	0.106152	0.00622456	0.00220057	0	5	0	
0.017	0.0797561	-0.0446729	0.00642718	0.00232256	0	5	0	
0.0171667	-0.255189	0.112714	0.00624898	0.00223476	0	5	0	
0.0173333	0.0784235	-0.0405912	0.00640691	0.0023143	0	5	0	
0.0175	-0.260435	0.106564	0.0062202	0.00215854	0	5	0	
0.0176667	0.0792432	-0.0350816	0.00638687	0.00218906	0	5	0	
0.0178333	-0.254574	0.10537	0.00617697	0.00206214	0	5	0	
0.018	0.075618	-0.0395817	0.00634419	0.00217117	0	5	0	
0.0181667	-0.261108	0.108393	0.00616966	0.00209479	0	5	0	
0.0183333	0.078811	-0.0389686	0.00637705	0.00221977	0	5	0	
0.0185	-0.260344	0.112752	0.00618018	0.00212384	0	5	0	
0.0186667	0.0796156	-0.0426555	0.00638832	0.00223023	0	5	0	
0.0188333	-0.267937	0.109979	0.00622538	0.0021255	0	5	0	
0.019	0.0845863	-0.0408764	0.00646728	0.00225851	0	5	0	
0.0191667	-0.271797	0.119597	0.006274	0.00220064	0	5	0	
0.0193333	0.0867738	-0.0472309	0.00646873	0.00234286	0	5	0	
0.0195	-0.270495	0.108151	0.00623679	0.0021983	0	5	0	
0.0196667	0.0761497	-0.0347582	0.00638373	0.00225152	0	5	0	
0.0198333	-0.261886	0.115901	0.00611366	0.00215125	0	5	0	
0.02	0.0765276	-0.0509395	0.00634453	0.00232626	0	5	0	
0.0201667	-0.274727	0.107003	0.00621054	0.00219796	0	5	0	
0.0203333	0.0919651	-0.0221841	0.00655696	0.00219903	0	5	0	
0.0205	-0.288332	0.110093	0.00638607	0.00205078	0	5	0	
0.0206667	0.0933159	-0.0591368	0.00656824	0.00231148	0	5	0	
0.0208333	-0.274026	0.120949	0.00620359	0.00232604	0	5	0	
0.021	0.0703093	-0.0373769	0.00625141	0.00240317	0	5	0	
0.0211667	-0.265099	0.123366	0.00592647	0.00221766	0	5	0	
0.0213333	0.0738215	-0.0612134	0.00619673	0.00235861	0	5	0	
0.0215	-0.27608	0.115898	0.00607271	0.00225695	0	5	0	
0.0216667	0.0879545	-0.0286376	0.00646564	0.00221206	0	5	0	
0.0218333	-0.289542	0.104604	0.00628638	0.00196898	0	5	0	
0.022	0.0930259	-0.0388871	0.00656322	0.00211892	0	5	0	
0.0221667	-0.292257	0.114572	0.00627469	0.00212232	0	5	0	
0.0223333	0.0901389	-0.0447361	0.00646986	0.00233103	0	5	0	
0.0225	-0.286128	0.116056	0.0061696	0.00218736	0	5	0	
0.0226667	0.0887018	-0.0460181	0.00640209	0.00234268	0	5	0	
0.0228333	-0.290312	0.130725	0.00614977	0.00226083	0	5	0	
0.023	0.0827302	-0.0545147	0.00639475	0.0024151	0	5	0	
0.0231667	-0.282593	0.107501	0.00610393	0.00221144	0	5	0	
0.0233333	0.0884012	-0.0382951	0.00640037	0.00223673	0	5	0	
0.0235	-0.294418	0.123241	0.00618239	0.00211232	0	5	0	
0.0236667	0.0877423	-0.0465816	0.00648442	0.00229641	0	5	0	
0.0238333	-0.292272	0.115817	0.00617681	0.00217395	0	5	0	
0.024	0.0898616	-0.0442571	0.00644715	0.00227615	0	5	0	
0.0241667	-0.293183	0.112132	0.00615705	0.00209481	0	5	0	
0.0243333	0.0877807	-0.0420003	0.00643143	0.002239	0	5	0	
0.0245	-0.296617	0.126907	0.00613432	0.00213396	0	5	0	
0.0246667	0.0930218	-0.0450538	0.00644872	0.00230154	0	5	0	
0.0248333	-0.299385	0.111424	0.00617224	0.00212841	0	5	0	
0.025	0.0902165	-0.0502905	0.00645927	0.00227135	0	5	0	
0.0251667	-0.298784	0.130506	0.00614091	0.00217162	0	5	0	
0.0253333	0.0905864	-0.0444906	0.00643488	0.0023213	0	5	0	
0.0255	-0.298107	0.120885	0.00612566	0.00212398	0	5	0	
0.0256667	0.0908034	-0.0484012	0.0064559	0.00225156	0	5	0	
0.0258333	-0.308686	0.109513	0.00619503	0.00208495	0	5	0	
0.026	0.102495	-0.0247848	0.00658036	0.00217367	0	5	0	
0.0261667	-0.313671	0.120122	0.00627076	0.00206784	0	5	0	
0.0263333	0.0931056	-0.0709137	0.00649702	0.00247088	0	5	0	
0.0265	-0.298658	0.144985	0.00606088	0.00252078	0	5	0	
0.0266667	0.0900484	-0.0516159	0.00635456	0.00261069	0	5	0	
0.0268333	-0.311324	0.120383	0.00609756	0.00223135	0	5	0	
0.027	0.0959039	-0.0378468	0.00650155	0.00217296	0	5	0	
0.0271667	-0.313998	0.101173	0.00618469	0.00190166	0	5	0	
0.0273333	0.102973	-0.031948	0.00654193	0.00206692	0	5	0	
0.0275	-0.316818	0.129559	0.00620534	0.00204509	0	5	0	
0.0276667	0.0933912	-0.0535719	0.00651993	0.00236516	0	5	0	
0.0278333	-0.310911	0.127192	0.00613048	0.00224634	0	5	0	
0.028	0.0978548	-0.0576057	0.00649441	0.00240728	0	5	0	
0.0281667	-0.320262	0.123664	0.00619012	0.0021975	0	5	0	
0.0283333	0.0986841	-0.0386573	0.00656832	0.00229651	0	5	0	
0.0285	-0.317658	0.135959	0.00617287	0.00213128	0	5	0	
0.0286667	0.0997121	-0.0607882	0.00651839	0.00236607	0	5	0	
0.0288333	-0.318691	0.114686	0.00615403	0.00221777	0	5	0	
0.029	0.0984967	-0.03849	0.00652393	0.00228268	0	5	0	
0.0291667	-0.320867	0.124838	0.00614313	0.00204029	0	5	0	
0.0293333	0.0990633	-0.049313	0.0065019	0.00225859	0	5	0	
0.0295	-0.322042	0.132827	0.00612195	0.00218095	0	5	0	
0.0296667	0.101066	-0.0590574	0.00651498	0.00242489	0	5	0	
0.0298333	-0.325502	0.123954	0.00615299	0.00224356	0	5	0	
0.03	0.10498	-0.0491558	0.00656236	0.00234717	0	5	0	
0.0301667	-0.328337	0.128534	0.0061844	0.00211409	0	5	0	
0.0303333	0.101877	-0.0468972	0.00657035	0.00227154	0	5	0	
0.0305	-0.326664	0.125703	0.00615924	0.00212026	0	5	0	
0.0306667	0.100551	-0.051959	0.00654407	0.00233649	0	5	0	
0.0308333	-0.329971	0.125648	0.00613923	0.00217674	0	5	0	
0.031	0.107562	-0.0508053	0.0065875	0.00238199	0	5	0	
0.0311667	-0.331932	0.133374	0.006186	0.0021829	0	5	0	
0.0313333	0.100483	-0.0531386	0.00657427	0.00236245	0	5	0	
0.0315	-0.327214	0.128784	0.00609007	0.00215861	0	5	0	
0.0316667	0.101609	-0.0508938	0.00649658	0.00231469	0	5	0	
0.0318333	-0.332476	0.124843	0.00608312	0.00209158	0	5	0	
0.032	0.106409	-0.0451372	0.00654614	0.0022505	0	5	0	
0.0321667	-0.332903	0.129041	0.0061157	0.00205227	0	5	0	
0.0323333	0.107372	-0.0516741	0.00656661	0.00228008	0	5	0	
0.0325	-0.342256	0.129065	0.00614692	0.00211676	0	5	0	
0.0326667	0.111622	-0.0572187	0.00660701	0.00235353	0	5	0	
0.0328333	-0.336207	0.133408	0.00613813	0.00216575	0	5	0	
0.033	0.106282	-0.0519709	0.00654261	0.0023514	0	5	0	
0.0331667	-0.341415	0.131141	0.00608422	0.00213365	0	5	0	
0.0333333	0.112367	-0.055896	0.00656188	0.00232928	0	5	0	
0.0335	-0.340162	0.132506	0.00611529	0.00214833	0	5	0	
0.0336667	0.106601	-0.0560204	0.0065634	0.00234308	0	5	0	
0.0338333	-0.34455	0.133452	0.00609793	0.00213894	0	5	0	
0.034	0.115148	-0.0563472	0.00659769	0.00235503	0	5	0	
0.0341667	-0.34573	0.135569	0.00613722	0.00217009	0	5	0	
0.0343333	0.111621	-0.0550962	0.00660387	0.00235733	0	5	0	
0.0345	-0.347487	0.124004	0.00610977	0.00210392	0	5	0	
0.0346667	0.113646	-0.0463032	0.00659469	0.002255	0	5	0	
0.0348333	-0.345442	0.137322	0.00611005	0.00206466	0	5	0	
0.035	0.112615	-0.0587239	0.00659963	0.00231559	0	5	0	
0.0351667	-0.351732	0.118893	0.00613109	0.00208278	0	5	0	
0.0353333	0.124502	-0.0368827	0.00669525	0.00220058	0	5	0	
0.0355	-0.364839	0.135333	0.00626592	0.00199498	0	5	0	
0.0356667	0.127751	-0.0684488	0.00676148	0.00235054	0	5	0	
0.0358333	-0.351758	0.134379	0.00618231	0.00224466	0	5	0	
0.036	0.106005	-0.0512115	0.00652718	0.00244103	0	5	0	
0.0361667	-0.341383	0.149861	0.00591784	0.00221203	0	5	0	
0.0363333	0.107809	-0.0790119	0.00640013	0.00249412	0	5	0	
0.0365	-0.3473	0.133405	0.0059432	0.00231448	0	5	0	
0.0366667	0.118704	-0.0412598	0.00657032	0.00234704	0	5	0	
0.0368333	-0.361981	0.124506	0.00613193	0.00196562	0	5	0	
0.037	0.124229	-0.0492369	0.00672585	0.00210521	0	5	0	
0.0371667	-0.361962	0.124836	0.00618617	0.00194489	0	5	0	
0.0373333	0.122379	-0.0551966	0.00669194	0.00224325	0	5	0	
0.0375	-0.35876	0.134814	0.00611717	0.00207507	0	5	0	
0.0376667	0.121945	-0.0587044	0.00663633	0.00239573	0	5	0	
0.0378333	-0.364362	0.150303	0.00608985	0.00225142	0	5	0	
0.038	0.122069	-0.0739956	0.0066313	0.0025378	0	5	0	
0.0381667	-0.356499	0.128481	0.00605431	0.00227362	0	5	0	
0.0383333	0.115915	-0.0494236	0.00657188	0.00238187	0	5	0	
0.0385	-0.359515	0.143104	0.00599882	0.00210787	0	5	0	
0.0386667	0.121545	-0.0620905	0.00658117	0.002359	0	5	0	
0.0388333	-0.360632	0.128819	0.00602144	0.00213475	0	5	0	
0.039	0.118788	-0.0573052	0.00660324	0.002333	0	5	0	
0.0391667	-0.363499	0.137095	0.00604466	0.0020786	0	5	0	
0.0393333	0.128616	-0.0577667	0.00667886	0.00234496	0	5	0	
0.0395	-0.366579	0.137649	0.00612251	0.00212035	0	5	0	
0.0396667	0.121974	-0.0575073	0.00669004	0.00233775	0	5	0	
0.0398333	-0.366295	0.129457	0.00606812	0.00205264	0	5	0	
0.04	0.128567	-0.0569354	0.006665	0.00225692	0	5	0	
0.0401667	-0.365225	0.134436	0.00607724	0.00201566	0	5	0	
0.0403333	0.122221	-0.0554316	0.00664966	0.00228403	0	5	0	
0.0405	-0.365492	0.137867	0.00601541	0.00207217	0	5	0	
0.0406667	0.127894	-0.0626958	0.00663464	0.00234531	0	5	0	
0.0408333	-0.372683	0.127913	0.00608026	0.00208902	0	5	0	
0.041	0.136561	-0.0496296	0.00675229	0.002318	0	5	0	
0.0411667	-0.378988	0.143733	0.00616149	0.00211101	0	5	0	
0.0413333	0.130967	-0.083419	0.00672385	0.00253514	0	5	0	
0.0415	-0.370708	0.150689	0.00604199	0.00239727	0	5	0	
0.0416667	0.132488	-0.0585122	0.00663818	0.00258817	0	5	0	
0.0418333	-0.372369	0.136703	0.00604904	0.0021787	0	5	0	
0.042	0.127405	-0.0599799	0.00668821	0.00231488	0	5	0	
0.0421667	-0.376952	0.118065	0.00606309	0.00198598	0	5	0	
0.0423333	0.14122	-0.0517887	0.00674394	0.00220501	0	5	0	
0.0425	-0.377615	0.147796	0.00614151	0.00201928	0	5	0	
0.0426667	0.128058	-0.0665482	0.00676608	0.00239723	0	5	0	
0.0428333	-0.375835	0.133056	0.00606773	0.00218417	0	5	0	
0.043	0.139759	-0.0659266	0.00673374	0.0024229	0	5	0	
0.0431667	-0.382004	0.136475	0.00611802	0.00212134	0	5	0	
0.0433333	0.137177	-0.0575597	0.0067803	0.00236237	0	5	0	
0.0435	-0.378512	0.149205	0.00607502	0.00212898	0	5	0	
0.0436667	0.135511	-0.0770567	0.00670031	0.00246526	0	5	0	
0.0438333	-0.379516	0.131267	0.00603177	0.00222477	0	5	0	
0.044	0.137918	-0.0537005	0.00672253	0.00236609	0	5	0	
0.0441667	-0.379852	0.132115	0.00606178	0.00197545	0	5	0	
0.0443333	0.139103	-0.0521727	0.00674014	0.00219911	0	5	0	
0.0445	-0.382091	0.135337	0.00605044	0.00197205	0	5	0	
0.0446667	0.139359	-0.0668931	0.00673949	0.00231966	0	5	0	
0.0448333	-0.3816	0.139534	0.00605291	0.00210316	0	5	0	
0.045	0.139983	-0.0737908	0.00673985	0.00245072	0	5	0	
0.0451667	-0.384093	0.15315	0.00604473	0.00222275	0	5	0	
0.0453333	0.143733	-0.0653897	0.00674114	0.00249045	0	5	0	
0.0455	-0.382786	0.135371	0.00603533	0.00214464	0	5	0	
0.0456667	0.140465	-0.0677313	0.00672544	0.00235613	0	5	0	
0.0458333	-0.384473	0.14041	0.00601907	0.00207757	0	5	0	
0.046	0.143079	-0.062049	0.00674301	0.00236755	0	5	0	
0.0461667	-0.387342	0.137132	0.0060528	0.0020656	0	5	0	
0.0463333	0.145253	-0.057448	0.00679272	0.00230549	0	5	0	
0.0465	-0.388089	0.131678	0.00607557	0.00198625	0	5	0	
0.0466667	0.147908	-0.0631988	0.00681163	0.00227367	0	5	0	
0.0468333	-0.389175	0.130415	0.00608261	0.00198588	0	5	0	
0.047	0.145258	-0.057609	0.00680089	0.00228407	0	5	0	
0.0471667	-0.386057	0.140457	0.00603463	0.00200289	0	5	0	
0.0473333	0.143567	-0.0660705	0.00674351	0.00234064	0	5	0	
0.0475	-0.389089	0.137951	0.00599377	0.00208644	0	5	0	
0.0476667	0.147726	-0.0725696	0.00675225	0.00241819	0	5	0	
0.0478333	-0.387882	0.144421	0.00600783	0.00213901	0	5	0	
0.048	0.145441	-0.0638529	0.00675739	0.00241658	0	5	0	
0.0481667	-0.390422	0.139964	0.00598939	0.00207673	0	5	0	
0.0483333	0.149111	-0.0670355	0.00675729	0.00233693	0	5	0	
0.0485	-0.390912	0.131543	0.00600167	0.00202459	0	5	0	
0.0486667	0.149259	-0.0622408	0.00678367	0.00229877	0	5	0	
0.0488333	-0.394846	0.141272	0.00602518	0.00200853	0	5	0	
0.049	0.154158	-0.0667322	0.00682054	0.00234688	0	5	0	
0.0491667	-0.394185	0.140982	0.00603758	0.00207478	0	5	0	
0.0493333	0.148419	-0.0680991	0.00678906	0.00238057	0	5	0	
0.0495	-0.390706	0.134609	0.00596144	0.00203998	0	5	0	
0.0496667	0.15036	-0.0678784	0.00674539	0.00234808	0	5	0	
0.0498333	-0.394309	0.149444	0.00596967	0.00207807	0	5	0	
0.05	0.155324	-0.068109	0.00680734	0.00241337	0	5	0	
0.0501667	-0.399466	0.125535	0.00603308	0.00205702	0	5	0	
0.0503333	0.162311	-0.0643604	0.00686234	0.00230927	0	5	0	
0.0505	-0.40282	0.159507	0.00605978	0.00207233	0	5	0	
0.0506667	0.151367	-0.0883865	0.00679394	0.00251955	0	5	0	
0.0508333	-0.380526	0.138087	0.00587237	0.00227085	0	5	0	
0.051	0.144174	-0.0624117	0.00659387	0.00247315	0	5	0	
0.0511667	-0.389905	0.151656	0.00578783	0.00210094	0	5	0	
0.0513333	0.157779	-0.0794753	0.00668643	0.0024151	0	5	0	
0.0515	-0.402662	0.131426	0.00595742	0.00213347	0	5	0	
0.0516667	0.167275	-0.0635421	0.00686692	0.00238175	0	5	0	
0.0518333	-0.403405	0.150618	0.00606998	0.00205277	0	5	0	
0.052	0.164095	-0.079161	0.00686731	0.00243124	0	5	0	
0.0521667	-0.398436	0.144094	0.00599652	0.00218042	0	5	0	
0.0523333	0.159999	-0.0767765	0.00678193	0.0025126	0	5	0	
0.0525	-0.399444	0.145655	0.00594788	0.00217472	0	5	0	
0.0526667	0.162077	-0.0776907	0.0067883	0.00250357	0	5	0	
0.0528333	-0.400075	0.15478	0.00595808	0.00218505	0	5	0	
0.053	0.160375	-0.0743482	0.00679709	0.0024798	0	5	0	
0.0531667	-0.39626	0.124488	0.00592364	0.00207615	0	5	0	
0.0533333	0.162673	-0.0668084	0.0067922	0.00233265	0	5	0	
0.0535	-0.403832	0.151166	0.00595132	0.00201851	0	5	0	
0.0536667	0.159834	-0.0735125	0.00681337	0.00239117	0	5	0	
0.0538333	-0.389119	0.138564	0.00586767	0.0020728	0	5	0	
0.054	0.150277	-0.0778637	0.00667847	0.00237829	0	5	0	
0.0541667	-0.391413	0.127352	0.00575578	0.00201182	0	5	0	
0.0543333	0.169947	-0.0539062	0.00674353	0.00225828	0	5	0	
0.0545	-0.411768	0.144466	0.00595206	0.00191064	0	5	0	
0.0546667	0.168627	-0.0834526	0.00691308	0.00233927	0	5	0	
0.0548333	-0.398042	0.140654	0.00595635	0.00211763	0	5	0	
0.055	0.166983	-0.0753821	0.00679649	0.00246084	0	5	0	
0.0551667	-0.396618	0.141325	0.00584218	0.00206302	0	5	0	
0.0553333	0.161141	-0.0695685	0.00671541	0.00233481	0	5	0	
0.0555	-0.398331	0.135347	0.00579118	0.00197518	0	5	0	
0.0556667	0.172696	-0.0648215	0.00677219	0.00225641	0	5	0	
0.0558333	-0.410569	0.13208	0.00593929	0.00190964	0	5	0	
0.056	0.176595	-0.0832564	0.00691374	0.00232464	0	5	0	
0.0561667	-0.396725	0.169531	0.00594734	0.00216029	0	5	0	
0.0563333	0.160608	-0.0938399	0.00677468	0.00266239	0	5	0	
0.0565	-0.395749	0.133018	0.00577705	0.00231181	0	5	0	
0.0566667	0.175289	-0.0664555	0.00673362	0.00247344	0	5	0	
0.0568333	-0.407314	0.140197	0.0058835	0.00199404	0	5	0	
0.057	0.169571	-0.0608844	0.00684827	0.00224341	0	5	0	
0.0571667	-0.395265	0.122798	0.00585963	0.00187195	0	5	0	
0.0573333	0.174067	-0.0760206	0.00677013	0.00226548	0	5	0	
0.0575	-0.404427	0.14355	0.00586699	0.00198026	0	5	0	
0.0576667	0.175038	-0.0690302	0.00684138	0.00240609	0	5	0	
0.0578333	-0.402719	0.142499	0.00590411	0.00204104	0	5	0	
0.058	0.175808	-0.107158	0.0068182	0.00252351	0	5	0	
0.0581667	-0.402858	0.200125	0.00586935	0.00247977	0	5	0	
0.0583333	0.177261	-0.135839	0.00680895	0.00318312	0	5	0	
0.0585	-0.399681	0.184632	0.00585233	0.00299955	0	5	0	
0.0586667	0.170713	-0.0823583	0.00674911	0.00313418	0	5	0	
0.0588333	-0.400672	0.122539	0.00577675	0.00242367	0	5	0	
0.059	0.180742	-0.0657868	0.00673625	0.0024071	0	5	0	
0.0591667	-0.404459	0.149269	0.00582183	0.00204146	0	5	0	
0.0593333	0.170727	-0.0935662	0.0067581	0.00259705	0	5	0	
0.0595	-0.394077	0.160657	0.00572556	0.00244189	0	5	0	
0.0596667	0.179891	-0.0873526	0.0067004	0.00285451	0	5	0	
0.0598333	-0.407458	0.149616	0.00577728	0.00236466	0	5	0	
0.06	0.180988	-0.0928881	0.00680649	0.00268988	0	5	0	
0.0601667	-0.401726	0.153714	0.00580582	0.00228347	0	5	0	
0.0603333	0.181972	-0.0954244	0.0067969	0.00265807	0	5	0	
0.0605	-0.408058	0.160768	0.00581865	0.00230595	0	5	0	
0.0606667	0.184359	-0.0850813	0.00684073	0.00263486	0	5	0	
0.0608333	-0.406576	0.124971	0.00583411	0.00217443	0	5	0	
0.061	0.182669	-0.0677195	0.00683399	0.00235454	0	5	0	
0.0611667	-0.402034	0.147985	0.00580294	0.00195641	0	5	0	
0.0613333	0.18101	-0.0945939	0.00679362	0.00241909	0	5	0	
0.0615	-0.4064	0.145344	0.00577966	0.0021798	0	5	0	
0.0616667	0.191955	-0.0808965	0.00682562	0.00255635	0	5	0	
0.0618333	-0.411449	0.149095	0.00585497	0.00212644	0	5	0	
0.062	0.176434	-0.0919242	0.00683351	0.00248152	0	5	0	
0.0621667	-0.397811	0.137944	0.00573006	0.00212531	0	5	0	
0.0623333	0.180886	-0.0707995	0.00668174	0.00240558	0	5	0	
0.0625	-0.403587	0.127654	0.00566937	0.00192235	0	5	0	
0.0626667	0.184279	-0.0718348	0.00673681	0.00218529	0	5	0	
0.0628333	-0.406265	0.13042	0.00574744	0.0018119	0	5	0	
0.063	0.194113	-0.0761821	0.00683942	0.00221855	0	5	0	
0.0631667	-0.417302	0.140287	0.00586921	0.00189663	0	5	0	
0.0633333	0.187727	-0.0914132	0.00689988	0.00237616	0	5	0	
0.0635	-0.397255	0.142216	0.0057834	0.0020675	0	5	0	
0.0636667	0.185547	-0.0859955	0.0067517	0.00247103	0	5	0	
0.0638333	-0.403474	0.144344	0.00568855	0.00208286	0	5	0	
0.064	0.185665	-0.0856373	0.00677485	0.00244605	0	5	0	
0.0641667	-0.415193	0.135358	0.00578004	0.00205119	0	5	0	
0.0643333	0.208192	-0.0891779	0.00693982	0.00243278	0	5	0	
0.0645	-0.415683	0.148358	0.00595268	0.00206679	0	5	0	
0.0646667	0.188637	-0.0824008	0.00694877	0.00246092	0	5	0	
0.0648333	-0.394809	0.126378	0.00574509	0.00201737	0	5	0	
0.065	0.18776	-0.0770666	0.00669995	0.00231179	0	5	0	
0.0651667	-0.406672	0.13212	0.0056464	0.00188917	0	5	0	
0.0653333	0.194884	-0.0861335	0.00676762	0.00231206	0	5	0	
0.0655	-0.410343	0.152941	0.00573548	0.00201786	0	5	0	
0.0656667	0.193936	-0.093769	0.00681262	0.00247255	0	5	0	
0.0658333	-0.392145	0.12617	0.00566369	0.00210503	0	5	0	
0.066	0.185623	-0.0729701	0.00665981	0.0023687	0	5	0	
0.0661667	-0.397494	0.135603	0.00551941	0.00190426	0	5	0	
0.0663333	0.194665	-0.0753699	0.00665548	0.00220188	0	5	0	
0.0665	-0.401506	0.111706	0.00561414	0.0018053	0	5	0	
0.0666667	0.204248	-0.0746743	0.00681347	0.00216145	0	5	0	
0.0668333	-0.414405	0.151399	0.00575304	0.00188269	0	5	0	
0.067	0.210247	-0.0940004	0.0069236	0.00243502	0	5	0	
0.0671667	-0.404579	0.137297	0.00579355	0.00214069	0	5	0	
0.0673333	0.207027	-0.104459	0.0068865	0.00256365	0	5	0	
0.0675	-0.404324	0.163271	0.00572797	0.0022273	0	5	0	
0.0676667	0.198132	-0.0967642	0.00677878	0.00267716	0	5	0	
0.0678333	-0.390056	0.134897	0.00558936	0.00225265	0	5	0	
0.068	0.199928	-0.0789709	0.00667968	0.00246797	0	5	0	
0.0681667	-0.404431	0.116597	0.00559881	0.0019295	0	5	0	
0.0683333	0.2105	-0.0545387	0.00679727	0.00207137	0	5	0	
0.0685	-0.40334	0.0979343	0.0057442	0.00156781	0	5	0	
0.0686667	0.219372	-0.0538033	0.00691328	0.00182198	0	5	0	
0.0688333	-0.409766	0.129109	0.00583367	0.00154111	0	5	0	
0.069	0.205207	-0.0941497	0.00690918	0.00210836	0	5	0	
0.0691667	-0.39144	0.136008	0.00570627	0.00192917	0	5	0	
0.0693333	0.205191	-0.0903843	0.00676271	0.00239614	0	5	0	
0.0695	-0.410568	0.149807	0.0056859	0.0020438	0	5	0	
0.0696667	0.220113	-0.100968	0.00691566	0.00250142	0	5	0	
0.0698333	-0.413842	0.144713	0.00587028	0.0022016	0	5	0	
0.07	0.213987	-0.0971562	0.00698894	0.00257838	0	5	0	
0.0701667	-0.396928	0.141774	0.0057813	0.00216305	0	5	0	
0.0703333	0.203697	-0.0899378	0.00680693	0.00250371	0	5	0	
0.0705	-0.400279	0.131053	0.00559651	0.0020611	0	5	0	
0.0706667	0.204477	-0.0926884	0.00675936	0.00242649	0	5	0	
0.0708333	-0.403834	0.151105	0.00561378	0.00209643	0	5	0	
0.071	0.223158	-0.122961	0.00685959	0.00267816	0	5	0	
0.0711667	-0.402219	0.160231	0.00570386	0.00241662	0	5	0	
0.0713333	0.203309	-0.0776455	0.00684688	0.0027466	0	5	0	
0.0715	-0.397455	0.0986906	0.00558353	0.00204963	0	5	0	
0.0716667	0.227733	-0.062629	0.00679976	0.00215089	0	5	0	
0.0718333	-0.409843	0.120939	0.00571314	0.00169031	0	5	0	
0.072	0.226764	-0.092222	0.00696863	0.00223652	0	5	0	
0.0721667	-0.405028	0.153385	0.00575976	0.00206007	0	5	0	
0.0723333	0.227243	-0.11972	0.00690686	0.00265833	0	5	0	
0.0725	-0.389869	0.161895	0.00568074	0.00239829	0	5	0	
0.0726667	0.202114	-0.111993	0.0067347	0.00284168	0	5	0	
0.0728333	-0.390391	0.144994	0.00546758	0.00240045	0	5	0	
0.073	0.226866	-0.0851958	0.00668092	0.00264628	0	5	0	
0.0731667	-0.399644	0.111861	0.00561031	0.00207308	0	5	0	
0.0733333	0.235247	-0.0712713	0.00692706	0.00223838	0	5	0	
0.0735	-0.420838	0.121104	0.00581549	0.00174183	0	5	0	
0.0736667	0.23858	-0.0979034	0.00707569	0.00221126	0	5	0	
0.0738333	-0.391667	0.153932	0.00584339	0.00200847	0	5	0	
0.074	0.210271	-0.119498	0.00687695	0.00264848	0	5	0	
0.0741667	-0.393069	0.157588	0.00552093	0.00236715	0	5	0	
0.0743333	0.222744	-0.119846	0.00669022	0.00283577	0	5	0	
0.0745	-0.394665	0.144459	0.00552637	0.00243306	0	5	0	
0.0746667	0.225021	-0.0865435	0.00679851	0.00269413	0	5	0	
0.0748333	-0.404581	0.121246	0.00561149	0.00212929	0	5	0	
0.075	0.233637	-0.0860046	0.00689881	0.00232456	0	5	0	
0.0751667	-0.40312	0.118192	0.0057069	0.00185874	0	5	0	
0.0753333	0.232801	-0.0868121	0.00696357	0.00223819	0	5	0	
0.0755	-0.40753	0.140623	0.00570933	0.0019008	0	5	0	
0.0756667	0.238618	-0.117267	0.00696805	0.00248284	0	5	0	
0.0758333	-0.3954	0.159636	0.00571435	0.00225311	0	5	0	
0.076	0.221856	-0.1125	0.00689566	0.00278176	0	5	0	
0.0761667	-0.392009	0.133486	0.00556187	0.00233152	0	5	0	
0.0763333	0.231853	-0.0895398	0.0067862	0.00258458	0	5	0	
0.0765	-0.395128	0.123444	0.00555747	0.00201839	0	5	0	
0.0766667	0.23797	-0.0796244	0.00688703	0.00227947	0	5	0	
0.0768333	-0.406266	0.11477	0.00566956	0.00179024	0	5	0	
0.077	0.244403	-0.0878987	0.00699821	0.00216932	0	5	0	
0.0771667	-0.39497	0.131741	0.00573276	0.0017862	0	5	0	
0.0773333	0.232928	-0.0970316	0.00694397	0.00230474	0	5	0	
0.0775	-0.398658	0.132124	0.00562854	0.00194541	0	5	0	
0.0776667	0.244694	-0.0980185	0.00689907	0.00242253	0	5	0	
0.0778333	-0.398081	0.131025	0.00568319	0.0019972	0	5	0	
0.078	0.238008	-0.0916983	0.00695103	0.00240074	0	5	0	
0.0781667	-0.394446	0.120626	0.00565002	0.00193108	0	5	0	
0.0783333	0.240973	-0.0940867	0.0068887	0.00234148	0	5	0	
0.0785	-0.395306	0.139703	0.00562488	0.00194809	0	5	0	
0.0786667	0.240365	-0.10944	0.00689857	0.00247998	0	5	0	
0.0788333	-0.39193	0.1341	0.00561764	0.00209767	0	5	0	
0.079	0.239747	-0.100098	0.00687529	0.00254059	0	5	0	
0.0791667	-0.395414	0.131645	0.00559815	0.00203877	0	5	0	
0.0793333	0.249053	-0.0938569	0.00691071	0.0024319	0	5	0	
0.0795	-0.397438	0.113228	0.00567296	0.00190852	0	5	0	
0.0796667	0.242849	-0.0915429	0.00695525	0.00229073	0	5	0	
0.0798333	-0.393465	0.142619	0.00564175	0.00189402	0	5	0	
0.08	0.247612	-0.123165	0.00690665	0.00251332	0	5	0	
0.0801667	-0.390227	0.14591	0.00562406	0.00224598	0	5	0	
0.0803333	0.242121	-0.0925316	0.00690409	0.0026727	0	5	0	
0.0805	-0.398607	0.107327	0.00560896	0.00207601	0	5	0	
0.0806667	0.259731	-0.0866622	0.00696306	0.00230754	0	5	0	
0.0808333	-0.396833	0.124134	0.00572982	0.00179515	0	5	0	
0.081	0.250271	-0.0954108	0.00703858	0.00225772	0	5	0	
0.0811667	-0.395876	0.137018	0.00569666	0.00191584	0	5	0	
0.0813333	0.249532	-0.121693	0.00695598	0.0025047	0	5	0	
0.0815	-0.384153	0.134298	0.0056214	0.00217277	0	5	0	
0.0816667	0.253925	-0.0852393	0.00690941	0.00256953	0	5	0	
0.0818333	-0.407351	0.12412	0.00564892	0.00196897	0	5	0	
0.082	0.267466	-0.121453	0.00704941	0.0023813	0	5	0	
0.0821667	-0.386848	0.152509	0.00579925	0.00210709	0	5	0	
0.0823333	0.227563	-0.113983	0.00695013	0.00271879	0	5	0	
0.0825	-0.3743	0.117436	0.0054436	0.00229322	0	5	0	
0.0826667	0.249593	-0.0730623	0.00667104	0.00248957	0	5	0	
0.0828333	-0.389229	0.111607	0.00543937	0.00180292	0	5	0	
0.083	0.258804	-0.110804	0.00690811	0.00217574	0	5	0	
0.0831667	-0.396682	0.140195	0.0056363	0.00190246	0	5	0	
0.0833333	0.272734	-0.118632	0.00703589	0.00258457	0	5	0	
0.0835	-0.395035	0.142703	0.0057726	0.00221457	0	5	0	
0.0836667	0.247963	-0.0896486	0.00705898	0.00260523	0	5	0	
0.0838333	-0.384736	0.0838802	0.00564829	0.00193081	0	5	0	
0.084	0.261304	-0.0768434	0.00689636	0.00212718	0	5	0	
0.0841667	-0.380972	0.132688	0.00555894	0.00168604	0	5	0	
0.0843333	0.264506	-0.116247	0.00690416	0.00234816	0	5	0	
0.0845	-0.37356	0.144331	0.0055431	0.00215894	0	5	0	
0.0846667	0.260345	-0.122264	0.00683421	0.00271112	0	5	0	
0.0848333	-0.390591	0.113552	0.0055603	0.00219973	0	5	0	
0.085	0.256667	-0.0762264	0.00691063	0.00241226	0	5	0	
0.0851667	-0.37547	0.102442	0.00558783	0.0017223	0	5	0	
0.0853333	0.260487	-0.0856411	0.00685229	0.00202876	0	5	0	
0.0855	-0.37278	0.112285	0.00545828	0.00161424	0	5	0	
0.0856667	0.268592	-0.0983872	0.0068127	0.00213269	0	5	0	
0.0858333	-0.375617	0.114079	0.00551243	0.00173813	0	5	0	
0.086	0.271182	-0.0893663	0.00688521	0.00222392	0	5	0	
0.0861667	-0.383138	0.115902	0.00559358	0.00175042	0	5	0	
0.0863333	0.275696	-0.115513	0.00695343	0.00228797	0	5	0	
0.0865	-0.380981	0.130494	0.00566327	0.00194068	0	5	0	
0.0866667	0.280438	-0.1068	0.00701501	0.0025041	0	5	0	
0.0868333	-0.378782	0.137917	0.00566977	0.00206042	0	5	0	
0.087	0.27636	-0.121054	0.00698763	0.00255446	0	5	0	
0.0871667	-0.375327	0.110352	0.00563737	0.00220553	0	5	0	
0.0873333	0.27221	-0.0817488	0.00694048	0.00254938	0	5	0	
0.0875	-0.364383	0.109249	0.00555985	0.00193904	0	5	0	
0.0876667	0.279818	-0.0991115	0.00687906	0.00220116	0	5	0	
0.0878333	-0.396572	0.118253	0.00561675	0.00181334	0	5	0	
0.088	0.285265	-0.117646	0.00708559	0.0023751	0	5	0	
0.0881667	-0.380006	0.141935	0.0057958	0.00207114	0	5	0	
0.0883333	0.277849	-0.132737	0.00709034	0.00268088	0	5	0	
0.0885	-0.372558	0.144004	0.00566565	0.00236717	0	5	0	
0.0886667	0.260187	-0.11631	0.00692033	0.00284926	0	5	0	
0.0888333	-0.367348	0.116999	0.00547741	0.00235006	0	5	0	
0.089	0.279315	-0.108887	0.00681726	0.0026406	0	5	0	
0.0891667	-0.386609	0.118725	0.00552995	0.00208756	0	5	0	
0.0893333	0.283744	-0.0936366	0.00702593	0.00240531	0	5	0	
0.0895	-0.375641	0.113056	0.00569655	0.00188962	0	5	0	
0.0896667	0.267952	-0.12159	0.00702793	0.00234611	0	5	0	
0.0898333	-0.37827	0.139377	0.00558241	0.00201783	0	5	0	
0.09	0.277187	-0.110224	0.00692182	0.00259397	0	5	0	
0.0901667	-0.373496	0.115617	0.00557672	0.00213476	0	5	0	
0.0903333	0.268048	-0.111373	0.00695695	0.00249221	0	5	0	
0.0905	-0.375523	0.128345	0.00552595	0.0020077	0	5	0	
0.0906667	0.279955	-0.11105	0.00692046	0.00247352	0	5	0	
0.0908333	-0.370139	0.114396	0.00554897	0.00205253	0	5	0	
0.091	0.283786	-0.0946337	0.00697727	0.00242703	0	5	0	
0.0911667	-0.381071	0.106005	0.00562145	0.00187461	0	5	0	
0.0913333	0.281045	-0.10154	0.00702103	0.00223975	0	5	0	
0.0915	-0.372856	0.110515	0.00565788	0.00177936	0	5	0	
0.0916667	0.285502	-0.10632	0.00700911	0.00226658	0	5	0	
0.0918333	-0.384973	0.130804	0.00566685	0.00188111	0	5	0	
0.092	0.283698	-0.139075	0.00708956	0.00251063	0	5	0	
0.0921667	-0.356867	0.1285	0.00563996	0.00223666	0	5	0	
0.0923333	0.279616	-0.098676	0.00693461	0.00271002	0	5	0	
0.0925	-0.366732	0.109299	0.00548112	0.0020964	0	5	0	
0.0926667	0.282523	-0.117635	0.00687381	0.00240913	0	5	0	
0.0928333	-0.389425	0.123094	0.00558155	0.00196088	0	5	0	
0.093	0.292433	-0.108306	0.007106	0.00247489	0	5	0	
0.0931667	-0.377256	0.120683	0.00575622	0.00200883	0	5	0	
0.0933333	0.292706	-0.131928	0.00717559	0.00250258	0	5	0	
0.0935	-0.363116	0.134517	0.00566458	0.00215159	0	5	0	
0.0936667	0.273644	-0.113906	0.00699012	0.00270063	0	5	0	
0.0938333	-0.361678	0.114932	0.00546283	0.00220343	0	5	0	
0.094	0.290287	-0.102833	0.00688135	0.00251358	0	5	0	
0.0941667	-0.366334	0.100414	0.00551985	0.00192933	0	5	0	
0.0943333	0.282926	-0.107392	0.00696264	0.002302	0	5	0	
0.0945	-0.354573	0.119053	0.00546759	0.00185768	0	5	0	
0.0946667	0.291662	-0.111786	0.00689471	0.0023746	0	5	0	
0.0948333	-0.364614	0.120606	0.00546389	0.00197254	0	5	0	
0.095	0.302417	-0.117742	0.00699337	0.00247189	0	5	0	
0.0951667	-0.371861	0.104711	0.00562867	0.00200637	0	5	0	
0.0953333	0.299974	-0.110445	0.00711091	0.00243093	0	5	0	
0.0955	-0.34865	0.136653	0.00566001	0.00197442	0	5	0	
0.0956667	0.27139	-0.120503	0.00692679	0.00251674	0	5	0	
0.0958333	-0.328627	0.0891788	0.00532034	0.00215607	0	5	0	
0.096	0.284622	-0.0927416	0.00662103	0.00246563	0	5	0	
0.0961667	-0.371904	0.120634	0.00527364	0.00185216	0	5	0	
0.0963333	0.316222	-0.133539	0.00694171	0.00232976	0	5	0	
0.0965	-0.364699	0.12878	0.00570095	0.00207206	0	5	0	
0.0966667	0.303665	-0.133444	0.0071994	0.00270848	0	5	0	
0.0968333	-0.356947	0.127156	0.00570645	0.00227122	0	5	0	
0.097	0.295979	-0.122769	0.00704197	0.00272679	0	5	0	
0.0971667	-0.343971	0.0983871	0.00556712	0.00220145	0	5	0	
0.0973333	0.293311	-0.0844189	0.00690383	0.00244605	0	5	0	
0.0975	-0.349753	0.0966196	0.00545929	0.00174548	0	5	0	
0.0976667	0.28145	-0.126818	0.00682266	0.00214123	0	5	0	
0.0978333	-0.318012	0.110206	0.00529134	0.00179056	0	5	0	
0.098	0.306832	-0.105703	0.00669631	0.00236679	0	5	0	
0.0981667	-0.399096	0.109845	0.00547087	0.00186693	0	5	0	
0.0983333	0.355274	-0.122025	0.00732724	0.0023381	0	5	0	
0.0985	-0.357369	0.120385	0.00619787	0.00194614	0	5	0	
0.0986667	0.293175	-0.137056	0.00748211	0.00255424	0	5	0	
0.0988333	-0.334333	0.136566	0.00575495	0.00219963	0	5	0	
0.099	0.282468	-0.119746	0.0068433	0.00275071	0	5	0	
0.0991667	-0.329332	0.0912745	0.00527725	0.00225917	0	5	0	
0.0993333	0.318983	-0.111064	0.00672767	0.00254152	0	5	0	
0.0995	-0.370374	0.10693	0.00545741	0.00194951	0	5	0	
0.0996667	0.318657	-0.0782035	0.00715012	0.00225824	0	5	0	
0.0998333	-0.338412	0.0525521	0.00573372	0.00163338	0	5	0	
0.1	0.306442	-0.1192	0.00713284	0.00189731	0	5	0	
0.100167	-0.38877	0.143577	0.00567381	0.00166207	0	5	0	
0.100333	0.389109	-0.136696	0.00750224	0.00250453	0	5	0	
0.1005	-0.40941	0.136106	0.00642965	0.00236044	0	5	0	
0.100667	0.327826	-0.178815	0.00807942	0.00294067	0	5	0	
0.100833	-0.317476	0.134671	0.00634187	0.00277291	0	5	0	
0.101	0.283177	-0.0778436	0.00727736	0.00322395	0	5	0	
0.101167	-0.28955	0.0668597	0.0053046	0.00253057	0	5	0	
0.101333	0.267537	-0.0907518	0.00638425	0.00235985	0	5	0	
0.1015	-0.360525	0.0772289	0.0050155	0.00163839	0	5	0	
0.101667	0.391621	-0.127997	0.00701652	0.00202579	0	5	0	
0.101833	-0.391411	0.165581	0.00615945	0.00195752	0	5	0	
0.102	0.341509	-0.159037	0.00786112	0.00285846	0	5	0	
0.102167	-0.343865	0.118297	0.00625576	0.00261972	0	5	0	
0.102333	0.314446	-0.118293	0.00736997	0.00294367	0	5	0	
0.1025	-0.326006	0.108197	0.00571238	0.00223246	0	5	0	
0.102667	0.303308	-0.121252	0.00692156	0.00255213	0	5	0	
0.102833	-0.340538	0.109966	0.00543025	0.00205056	0	5	0	
0.103	0.328632	-0.12744	0.00690156	0.00252759	0	5	0	
0.103167	-0.327751	0.112387	0.00556031	0.00209672	0	5	0	
0.103333	0.307935	-0.114244	0.00700065	0.00255678	0	5	0	
0.1035	-0.337709	0.090758	0.00547785	0.00208906	0	5	0	
0.103667	0.325638	-0.114925	0.00692241	0.00245378	0	5	0	
0.103833	-0.327458	0.115331	0.0055373	0.00197082	0	5	0	
0.104	0.311499	-0.130682	0.00698507	0.00246517	0	5	0	
0.104167	-0.339295	0.0967295	0.00546343	0.00213159	0	5	0	
0.104333	0.362192	-0.105756	0.00704592	0.00255477	0	5	0	
0.1045	-0.360486	0.0996371	0.00585953	0.00198821	0	5	0	
0.104667	0.329829	-0.123828	0.00744022	0.00234244	0	5	0	
0.104833	-0.29384	0.0989481	0.005922	0.0018942	0	5	0	
0.105	0.284099	-0.098227	0.00691584	0.00231405	0	5	0	
0.105167	-0.308282	0.0951193	0.00519689	0.00175669	0	5	0	
0.105333	0.335209	-0.14132	0.00654585	0.00224327	0	5	0	
0.1055	-0.328823	0.104546	0.0053477	0.00193616	0	5	0	
0.105667	0.334999	-0.0870106	0.00696575	0.00244156	0	5	0	
0.105833	-0.336615	0.0862292	0.00559353	0.00181811	0	5	0	
0.106	0.345335	-0.124778	0.00708607	0.00214031	0	5	0	
0.106167	-0.337516	0.0965275	0.00580723	0.00178867	0	5	0	
0.106333	0.331593	-0.0991449	0.00730297	0.00235752	0	5	0	
0.1065	-0.318768	0.088321	0.00575233	0.00186148	0	5	0	
0.106667	0.331602	-0.123616	0.0070511	0.00222713	0	5	0	
0.106833	-0.307848	0.105056	0.0055464	0.00182202	0	5	0	
0.107	0.302532	-0.11922	0.00694698	0.00239503	0	5	0	
0.107167	-0.301495	0.0898611	0.00536973	0.00199459	0	5	0	
0.107333	0.324647	-0.110945	0.00673125	0.00239251	0	5	0	
0.1075	-0.331748	0.0903019	0.00528183	0.00188926	0	5	0	
0.107667	0.344891	-0.107747	0.0069503	0.00227879	0	5	0	
0.107833	-0.311972	0.0858515	0.00558272	0.00180723	0	5	0	
0.108	0.312333	-0.118673	0.00707578	0.00223461	0	5	0	
0.108167	-0.310403	0.112529	0.00535803	0.0018367	0	5	0	
0.108333	0.345815	-0.147366	0.00683494	0.00245037	0	5	0	
0.1085	-0.314178	0.118973	0.00542895	0.00220717	0	5	0	
0.108667	0.33394	-0.126239	0.0070689	0.00277583	0	5	0	
0.108833	-0.310785	0.0837168	0.00555009	0.00231972	0	5	0	
0.109	0.319236	-0.0991416	0.00697343	0.00255217	0	5	0	
0.109167	-0.293954	0.0830971	0.00536925	0.00190075	0	5	0	
0.109333	0.337206	-0.112467	0.006854	0.00217668	0	5	0	
0.1095	-0.29487	0.0863088	0.00534608	0.00173775	0	5	0	
0.109667	0.315061	-0.112855	0.00680461	0.00220876	0	5	0	
0.109833	-0.309961	0.097854	0.00528565	0.00179032	0	5	0	
0.11	0.32949	-0.146309	0.00678341	0.00234655	0	5	0	
0.110167	-0.305902	0.126648	0.00544876	0.00210513	0	5	0	
0.110333	0.318229	-0.126176	0.00689144	0.00274838	0	5	0	
0.1105	-0.300126	0.0764277	0.00535438	0.00235888	0	5	0	
0.110667	0.34769	-0.107045	0.0068036	0.0025967	0	5	0	
0.110833	-0.334859	0.0929753	0.00552594	0.00207786	0	5	0	
0.111	0.343919	-0.108978	0.00716284	0.00245541	0	5	0	
0.111167	-0.319104	0.100616	0.00581246	0.00200472	0	5	0	
0.111333	0.325815	-0.167583	0.00711802	0.00251713	0	5	0	
0.1115	-0.290889	0.106604	0.00558487	0.00230241	0	5	0	
0.111667	0.328005	-0.100817	0.00687054	0.00291861	0	5	0	
0.111833	-0.296616	0.10535	0.00536906	0.00233264	0	5	0	
0.112	0.324707	-0.145604	0.00671353	0.00265669	0	5	0	
0.112167	-0.29387	0.0828649	0.00535001	0.00216339	0	5	0	
0.112333	0.330797	-0.129802	0.00678281	0.00261932	0	5	0	
0.1125	-0.312614	0.109548	0.00548999	0.00204704	0	5	0	
0.112667	0.33346	-0.101146	0.006937	0.0024718	0	5	0	
0.112833	-0.284365	0.0377789	0.00552555	0.00204948	0	5	0	
0.113	0.336378	-0.0821472	0.00686011	0.00220261	0	5	0	
0.113167	-0.318593	0.0740746	0.00544652	0.00151622	0	5	0	
0.113333	0.341147	-0.128529	0.0069827	0.0018428	0	5	0	
0.1135	-0.300766	0.105566	0.00565391	0.00167442	0	5	0	
0.113667	0.341311	-0.123779	0.00706503	0.00238497	0	5	0	
0.113833	-0.315145	0.0816555	0.00562174	0.00214022	0	5	0	
0.114	0.345412	-0.113324	0.00715641	0.00259223	0	5	0	
0.114167	-0.272516	0.0696407	0.00570353	0.00216348	0	5	0	
0.114333	0.322152	-0.0955505	0.00701276	0.0024161	0	5	0	
0.1145	-0.285745	0.0687461	0.00534171	0.00186801	0	5	0	
0.114667	0.34484	-0.108358	0.00676853	0.00214267	0	5	0	
0.114833	-0.301055	0.0659218	0.00543206	0.00173563	0	5	0	
0.115	0.344914	-0.102472	0.00704022	0.00215388	0	5	0	
0.115167	-0.286275	0.0758631	0.00555638	0.0016917	0	5	0	
0.115333	0.352066	-0.124414	0.00702576	0.00211714	0	5	0	
0.1155	-0.291403	0.096208	0.00554092	0.00177824	0	5	0	
0.115667	0.347647	-0.125061	0.0070671	0.00236846	0	5	0	
0.115833	-0.285353	0.0690128	0.00558594	0.00200638	0	5	0	
0.116	0.3461	-0.119554	0.00700269	0.00239064	0	5	0	
0.116167	-0.286378	0.129382	0.00552484	0.00195536	0	5	0	
0.116333	0.348471	-0.166513	0.00698146	0.00266687	0	5	0	
0.1165	-0.279825	0.0776757	0.00553028	0.00261654	0	5	0	
0.116667	0.341959	-0.0894913	0.0069511	0.0030742	0	5	0	
0.116833	-0.281524	0.0548554	0.00545868	0.00230949	0	5	0	
0.117	0.354804	-0.107931	0.00691351	0.00231445	0	5	0	
0.117167	-0.294973	0.0755849	0.00554146	0.00175811	0	5	0	
0.117333	0.358834	-0.128789	0.00709318	0.00222164	0	5	0	
0.1175	-0.273049	0.112963	0.00572496	0.00190517	0	5	0	
0.117667	0.330176	-0.165515	0.00707489	0.00260462	0	5	0	
0.117833	-0.259809	0.100299	0.00546689	0.00243009	0	5	0	
0.118	0.347702	-0.114437	0.00674668	0.00297304	0	5	0	
0.118167	-0.284932	0.0709341	0.00532527	0.00234155	0	5	0	
0.118333	0.362281	-0.141907	0.00688799	0.00252328	0	5	0	
0.1185	-0.288	0.100211	0.00558088	0.00208179	0	5	0	
0.118667	0.366096	-0.104761	0.00712055	0.00260974	0	5	0	
0.118833	-0.285038	0.0557764	0.00574156	0.00218718	0	5	0	
0.119	0.34826	-0.124564	0.00715319	0.00241297	0	5	0	
0.119167	-0.262547	0.0798833	0.00568957	0.00193741	0	5	0	
0.119333	0.343222	-0.0943352	0.00696558	0.0023652	0	5	0	
0.1195	-0.271944	0.0531814	0.00549907	0.0019578	0	5	0	
0.119667	0.345189	-0.116761	0.00686707	0.00221192	0	5	0	
0.119833	-0.255685	0.0777077	0.00547433	0.0017457	0	5	0	
0.12	0.347301	-0.120648	0.00682802	0.00222419	0	5	0	
0.120167	-0.284913	0.0884321	0.00542621	0.00190792	0	5	0	
0.120333	0.360728	-0.139715	0.00693673	0.00242428	0	5	0	
0.1205	-0.268086	0.0911802	0.00566423	0.00213081	0	5	0	
0.120667	0.358475	-0.123049	0.00709346	0.00266004	0	5	0	
0.120833	-0.281745	0.0662835	0.00564943	0.00227945	0	5	0	
0.121	0.368425	-0.11093	0.00708911	0.00255362	0	5	0	
0.121167	-0.264849	0.0727246	0.00575485	0.00200108	0	5	0	
0.121333	0.348479	-0.116792	0.00713896	0.00228157	0	5	0	
0.1215	-0.262555	0.0715544	0.00562335	0.00188888	0	5	0	
0.121667	0.359714	-0.12464	0.00694019	0.00232705	0	5	0	
0.121833	-0.263347	0.0801365	0.00554695	0.00197088	0	5	0	
0.122	0.354149	-0.117222	0.00697404	0.00239842	0	5	0	
0.122167	-0.258009	0.0694114	0.00554859	0.00197882	0	5	0	
0.122333	0.350631	-0.119789	0.00690103	0.00231951	0	5	0	
0.1225	-0.251124	0.0816349	0.0054492	0.00187854	0	5	0	
0.122667	0.361869	-0.133095	0.00683932	0.00232982	0	5	0	
0.122833	-0.285496	0.0845363	0.00548945	0.00200949	0	5	0	
0.123	0.387769	-0.126286	0.00709332	0.00248679	0	5	0	
0.123167	-0.26062	0.0805895	0.00591897	0.00207936	0	5	0	
0.123333	0.335998	-0.134625	0.00732116	0.00249114	0	5	0	
0.1235	-0.22135	0.0844422	0.00574224	0.00210235	0	5	0	
0.123667	0.331267	-0.124373	0.00677356	0.00253233	0	5	0	
0.123833	-0.24285	0.0687772	0.00520077	0.00210439	0	5	0	
0.124	0.365562	-0.117622	0.0065572	0.00242481	0	5	0	
0.124167	-0.27152	0.0605239	0.00534155	0.00194711	0	5	0	
0.124333	0.386307	-0.105572	0.00700874	0.00223469	0	5	0	
0.1245	-0.260752	0.0740799	0.00583963	0.00174445	0	5	0	
0.124667	0.350168	-0.156817	0.00727471	0.00218127	0	5	0	
0.124833	-0.238803	0.137378	0.00579135	0.00214187	0	5	0	
0.125	0.358896	-0.202353	0.00698594	0.00299572	0	5	0	
0.125167	-0.246629	0.112298	0.00556826	0.00297416	0	5	0	
0.125333	0.353594	-0.115255	0.0069219	0.00337874	0	5	0	
0.1255	-0.241521	0.0308726	0.00554677	0.00278544	0	5	0	
0.125667	0.361853	-0.0498536	0.00688957	0.00255718	0	5	0	
0.125833	-0.246801	-0.0190192	0.0055279	0.00160604	0	5	0	
0.126	0.37171	-0.0742241	0.00697286	0.00135552	0	5	0	
0.126167	-0.243932	0.0637976	0.00564765	0.0010256	0	5	0	
0.126333	0.356096	-0.144147	0.00700307	0.00161185	0	5	0	
0.1265	-0.241148	0.0945102	0.00555976	0.00173055	0	5	0	
0.126667	0.368101	-0.143882	0.00690593	0.00243693	0	5	0	
0.126833	-0.241903	0.0719275	0.00556762	0.00229367	0	5	0	
0.127	0.360624	-0.127438	0.00698403	0.00277238	0	5	0	
0.127167	-0.226918	0.0655778	0.00557375	0.0024349	0	5	0	
0.127333	0.354638	-0.0870179	0.00684437	0.00273802	0	5	0	
0.1275	-0.228425	0.028507	0.00542708	0.00224588	0	5	0	
0.127667	0.357306	-0.112257	0.0067825	0.00227268	0	5	0	
0.127833	-0.23704	0.0621598	0.00544788	0.00170766	0	5	0	
0.128	0.358274	-0.114723	0.00682119	0.00202493	0	5	0	
0.128167	-0.223389	0.0780631	0.00547077	0.00171944	0	5	0	
0.128333	0.36443	-0.143948	0.00681929	0.00222925	0	5	0	
0.1285	-0.244868	0.0842856	0.00546894	0.00198324	0	5	0	
0.128667	0.376795	-0.139467	0.00692494	0.00257537	0	5	0	
0.128833	-0.232379	0.064118	0.00575025	0.00234224	0	5	0	
0.129	0.355969	-0.0945372	0.00713936	0.00269723	0	5	0	
0.129167	-0.212619	0.0440764	0.00578805	0.00214436	0	5	0	
0.129333	0.33595	-0.108845	0.00691216	0.00225751	0	5	0	
0.1295	-0.208856	0.0577733	0.00539767	0.00181773	0	5	0	
0.129667	0.375846	-0.157393	0.00659463	0.00234614	0	5	0	
0.129833	-0.247676	0.0953089	0.00541946	0.00223246	0	5	0	
0.13	0.374395	-0.112847	0.00700558	0.00283281	0	5	0	
0.130167	-0.222765	0.0284928	0.00582583	0.00245629	0	5	0	
0.130333	0.362058	-0.0823354	0.00707585	0.00236392	0	5	0	
0.1305	-0.216468	0.0677682	0.00562418	0.00160811	0	5	0	
0.130667	0.366162	-0.16648	0.00683523	0.00192427	0	5	0	
0.130833	-0.240542	0.104609	0.00551914	0.001989	0	5	0	
0.131	0.397281	-0.13663	0.006975	0.0028262	0	5	0	
0.131167	-0.223	0.00859024	0.00589705	0.00295658	0	5	0	
0.131333	0.331872	-0.012629	0.00722036	0.00313834	0	5	0	
0.1315	-0.186567	-0.0256628	0.00572899	0.0023006	0	5	0	
0.131667	0.359137	-0.0852362	0.0066827	0.00167208	0	5	0	
0.131833	-0.225767	0.105699	0.00527364	0.00137867	0	5	0	
0.132	0.385851	-0.22397	0.00666728	0.00219816	0	5	0	
0.132167	-0.24339	0.140516	0.00560707	0.00288055	0	5	0	
0.132333	0.387967	-0.125105	0.00714051	0.00382597	0	5	0	
0.1325	-0.209806	0.00972088	0.00604244	0.00367909	0	5	0	
0.132667	0.325092	-0.0567321	0.00718861	0.00334157	0	5	0	
0.132833	-0.185806	0.01312	0.00557469	0.00217296	0	5	0	
0.133	0.368874	-0.107779	0.00648062	0.00178151	0	5	0	
0.133167	-0.227174	0.0777671	0.0052214	0.00142232	0	5	0	
0.133333	0.368687	-0.142144	0.00672459	0.00204122	0	5	0	
0.1335	-0.211595	0.061063	0.0056516	0.00208031	0	5	0	
0.133667	0.364211	-0.101776	0.00697093	0.00257474	0	5	0	
0.133833	-0.212729	0.0369762	0.00569393	0.00215546	0	5	0	
0.134	0.365288	-0.111761	0.00691417	0.00227668	0	5	0	
0.134167	-0.209419	0.0700198	0.00565468	0.0018037	0	5	0	
0.134333	0.36541	-0.135705	0.00690819	0.00220385	0	5	0	
0.1345	-0.211253	0.0618975	0.00567742	0.00201713	0	5	0	
0.134667	0.366564	-0.132878	0.00696292	0.00249385	0	5	0	
0.134833	-0.19451	0.0837715	0.00570105	0.00216394	0	5	0	
0.135	0.352508	-0.137581	0.00687466	0.00261775	0	5	0	
0.135167	-0.20511	0.052335	0.00548318	0.00241359	0	5	0	
0.135333	0.384656	-0.105836	0.00675266	0.00273301	0	5	0	
0.1355	-0.213584	0.041413	0.00564626	0.00219151	0	5	0	
0.135667	0.364488	-0.123178	0.00704601	0.00229671	0	5	0	
0.135833	-0.197164	0.0719425	0.00578415	0.00189694	0	5	0	
0.136	0.364094	-0.133573	0.0069627	0.00234138	0	5	0	
0.136167	-0.186821	0.060735	0.00565312	0.00213012	0	5	0	
0.136333	0.359021	-0.123343	0.00682498	0.00252678	0	5	0	
0.1365	-0.199404	0.049687	0.0054871	0.00215164	0	5	0	
0.136667	0.375857	-0.105207	0.00672211	0.00238355	0	5	0	
0.136833	-0.211828	0.0529643	0.00558581	0.00189493	0	5	0	
0.137	0.37935	-0.131633	0.00699831	0.00214448	0	5	0	
0.137167	-0.196163	0.0605997	0.00586843	0.00184909	0	5	0	
0.137333	0.363462	-0.120127	0.00708292	0.00231621	0	5	0	
0.1375	-0.193663	0.0553263	0.00576666	0.00204432	0	5	0	
0.137667	0.365754	-0.114305	0.00692329	0.00238053	0	5	0	
0.137833	-0.183655	0.0498577	0.00567398	0.00202708	0	5	0	
0.138	0.357619	-0.121051	0.0068406	0.0023213	0	5	0	
0.138167	-0.189256	0.0576867	0.00554176	0.00198299	0	5	0	
0.138333	0.371625	-0.116702	0.0067324	0.00235521	0	5	0	
0.1385	-0.198049	0.0491069	0.005558	0.00209173	0	5	0	
0.138667	0.371598	-0.117177	0.00687017	0.00241568	0	5	0	
0.138833	-0.188753	0.0459031	0.00570847	0.00206515	0	5	0	
0.139	0.36524	-0.105234	0.0069349	0.00231383	0	5	0	
0.139167	-0.181109	0.0491731	0.00567786	0.00189595	0	5	0	
0.139333	0.361245	-0.128399	0.00684461	0.00219133	0	5	0	
0.1395	-0.177416	0.0507537	0.00559575	0.0019802	0	5	0	
0.139667	0.365823	-0.11234	0.00678047	0.00240882	0	5	0	
0.139833	-0.184671	0.0639382	0.00557508	0.0020471	0	5	0	
0.14	0.3609	-0.130907	0.00679365	0.00237535	0	5	0	
0.140167	-0.170315	0.0256509	0.00558515	0.00225836	0	5	0	
0.140333	0.365966	-0.0598723	0.00675464	0.00252979	0	5	0	
0.1405	-0.184135	0.0254542	0.00555	0.00197424	0	5	0	
0.140667	0.369952	-0.11102	0.00681899	0.00200131	0	5	0	
0.140833	-0.177184	0.0292644	0.00565755	0.00182877	0	5	0	
0.141	0.374691	-0.0937351	0.00686295	0.00227362	0	5	0	
0.141167	-0.183338	0.0397462	0.00569536	0.00198431	0	5	0	
0.141333	0.359087	-0.112969	0.00694296	0.00223889	0	5	0	
0.1415	-0.163701	0.0533403	0.00577281	0.00211623	0	5	0	
0.141667	0.360279	-0.115089	0.00684373	0.00259535	0	5	0	
0.141833	-0.173366	0.0599454	0.00554463	0.00232137	0	5	0	
0.142	0.372065	-0.142185	0.0067108	0.00259678	0	5	0	
0.142167	-0.173616	0.0560168	0.00559243	0.00236209	0	5	0	
0.142333	0.365893	-0.108429	0.00683344	0.00277389	0	5	0	
0.1425	-0.171191	0.0355682	0.00566112	0.00238584	0	5	0	
0.142667	0.359859	-0.106961	0.00681786	0.00246914	0	5	0	
0.142833	-0.159641	0.037362	0.00560733	0.00202959	0	5	0	
0.143	0.36996	-0.108185	0.00671116	0.0022541	0	5	0	
0.143167	-0.183726	0.0348597	0.00552272	0.00194473	0	5	0	
0.143333	0.374632	-0.0996876	0.00679478	0.00217354	0	5	0	
0.1435	-0.164013	0.0312534	0.0057702	0.0017266	0	5	0	
0.143667	0.383161	-0.129943	0.00699082	0.00183292	0	5	0	
0.143833	-0.218244	0.0899798	0.00596299	0.00164698	0	5	0	
0.144	0.382696	-0.16304	0.00727727	0.00224696	0	5	0	
0.144167	-0.155872	0.0722907	0.00627203	0.00236369	0	5	0	
0.144333	0.358051	-0.100342	0.00729654	0.00282053	0	5	0	
0.1445	-0.149918	-0.0173095	0.00594758	0.00259535	0	5	0	
0.144667	0.357012	-0.0580677	0.0069219	0.00242408	0	5	0	
0.144833	-0.164338	0.0118521	0.00565532	0.00167637	0	5	0	
0.145	0.367807	-0.0817993	0.00663022	0.00156052	0	5	0	
0.145167	-0.184064	0.0241703	0.00543123	0.00132952	0	5	0	
0.145333	0.392523	-0.134229	0.00679408	0.00173474	0	5	0	
0.1455	-0.167047	0.053587	0.00590953	0.00171029	0	5	0	
0.145667	0.367717	-0.0880535	0.00720979	0.00230265	0	5	0	
0.145833	-0.149245	0.0280728	0.00596542	0.00203442	0	5	0	
0.146	0.363643	-0.137624	0.00694866	0.00217697	0	5	0	
0.146167	-0.164129	0.0591305	0.00571125	0.00190489	0	5	0	
0.146333	0.370723	-0.112544	0.00682298	0.00245747	0	5	0	
0.1465	-0.152823	0.0354843	0.00580697	0.00235085	0	5	0	
0.146667	0.359159	-0.103645	0.00694571	0.00258337	0	5	0	
0.146833	-0.155133	0.0231579	0.00581646	0.00219756	0	5	0	
0.147	0.362271	-0.102702	0.00688635	0.00233365	0	5	0	
0.147167	-0.13819	0.027415	0.0058186	0.00196218	0	5	0	
0.147333	0.350377	-0.102895	0.00682702	0.00212383	0	5	0	
0.1475	-0.155065	0.0439968	0.00561107	0.00178468	0	5	0	
0.147667	0.37185	-0.126046	0.00665188	0.0020903	0	5	0	
0.147833	-0.157459	0.0411015	0.00568773	0.00190922	0	5	0	
0.148	0.36789	-0.114025	0.00692476	0.00232036	0	5	0	
0.148167	-0.145761	0.0406104	0.00589592	0.00208569	0	5	0	
0.148333	0.3524	-0.109902	0.00691885	0.00240347	0	5	0	
0.1485	-0.138647	0.0309385	0.00576452	0.00216292	0	5	0	
0.148667	0.353881	-0.10774	0.00674145	0.00242534	0	5	0	
0.148833	-0.141427	0.0259484	0.00564169	0.00213288	0	5	0	
0.149	0.361986	-0.0990779	0.00668093	0.00231826	0	5	0	
0.149167	-0.148972	0.0326696	0.00564645	0.0019853	0	5	0	
0.149333	0.359311	-0.107437	0.00675501	0.00218583	0	5	0	
0.1495	-0.140999	0.0490911	0.00573493	0.00187817	0	5	0	
0.149667	0.361838	-0.166294	0.00680532	0.0022618	0	5	0	
0.149833	-0.140013	0.0941454	0.00577336	0.0022857	0	5	0	
0.15	0.352831	-0.136321	0.00682886	0.00296385	0	5	0	
0.150167	-0.137683	0.0376994	0.00579863	0.00288814	0	5	0	
0.150333	0.353277	-0.109688	0.00680745	0.00299878	0	5	0	
0.1505	-0.130521	0.0308206	0.00576909	0.0024208	0	5	0	
0.150667	0.355988	-0.114096	0.00676789	0.00238698	0	5	0	
0.150833	-0.141936	0.0449285	0.00573776	0.00193502	0	5	0	
0.151	0.360184	-0.124598	0.00680767	0.00213861	0	5	0	
0.151167	-0.132556	0.0544907	0.0059135	0.00198298	0	5	0	
0.151333	0.343266	-0.12329	0.00694333	0.0024569	0	5	0	
0.1515	-0.126654	0.0321008	0.00584408	0.00234315	0	5	0	
0.151667	0.355995	-0.110097	0.00670172	0.00256498	0	5	0	
0.151833	-0.142399	0.0493377	0.00567667	0.00219689	0	5	0	
0.152	0.373934	-0.131778	0.00679326	0.00247179	0	5	0	
0.152167	-0.143259	0.0492003	0.00594057	0.00238278	0	5	0	
0.152333	0.34263	-0.111624	0.00700111	0.00274181	0	5	0	
0.1525	-0.117691	0.0387433	0.00596118	0.00237204	0	5	0	
0.152667	0.351611	-0.129195	0.00679545	0.00243444	0	5	0	
0.152833	-0.133362	0.0647679	0.00572957	0.00215342	0	5	0	
0.153	0.351964	-0.11108	0.00669764	0.00261477	0	5	0	
0.153167	-0.124721	-0.0137294	0.00574287	0.00279716	0	5	0	
0.153333	0.358719	-0.0475694	0.00672301	0.00300566	0	5	0	
0.1535	-0.131962	0.00332172	0.00581305	0.00233956	0	5	0	
0.153667	0.332903	-0.116175	0.00685998	0.00199865	0	5	0	
0.153833	-0.0941911	0.0427926	0.00592694	0.00180864	0	5	0	
0.154	0.333879	-0.110853	0.00669202	0.00240898	0	5	0	
0.154167	-0.119515	0.0475391	0.00560746	0.00254169	0	5	0	
0.154333	0.339303	-0.102983	0.00651515	0.0030289	0	5	0	
0.1545	-0.10785	-0.0136519	0.00564471	0.00303532	0	5	0	
0.154667	0.351016	-0.0804426	0.00659713	0.00296506	0	5	0	
0.154833	-0.136347	0.055993	0.00569908	0.00223207	0	5	0	
0.155	0.358403	-0.147586	0.00682974	0.00215877	0	5	0	
0.155167	-0.110855	0.0605225	0.00612842	0.00224092	0	5	0	
0.155333	0.329308	-0.11064	0.00706744	0.00288736	0	5	0	
0.1555	-0.103435	0.00457964	0.00595594	0.00281646	0	5	0	
0.155667	0.344327	-0.0767911	0.00666744	0.00274239	0	5	0	
0.155833	-0.11505	0.0423378	0.00571683	0.00204236	0	5	0	
0.156	0.336683	-0.143252	0.00666768	0.00200745	0	5	0	
0.156167	-0.103478	0.0420203	0.00577301	0.00204386	0	5	0	
0.156333	0.341589	-0.0965556	0.00664149	0.00258501	0	5	0	
0.1565	-0.111938	0.0479511	0.00571614	0.00234864	0	5	0	
0.156667	0.33542	-0.115814	0.00663936	0.00260681	0	5	0	
0.156833	-0.100614	-0.0232502	0.00574746	0.00295612	0	5	0	
0.157	0.326845	0.0372102	0.00657407	0.00341842	0	5	0	
0.157167	-0.0884731	-0.0477653	0.00564705	0.0026557	0	5	0	
0.157333	0.313483	-0.090258	0.00646656	0.00170144	0	5	0	
0.1575	-0.0945629	0.0654079	0.00551672	0.00116329	0	5	0	
0.157667	0.341064	-0.174546	0.0062796	0.00172847	0	5	0	
0.157833	-0.126583	0.0985772	0.00543403	0.00246652	0	5	0	
0.158	0.351744	-0.0665187	0.00654713	0.00339144	0	5	0	
0.158167	-0.093656	-0.0186097	0.00601063	0.00386086	0	5	0	
0.158333	0.292418	-0.01871	0.0069772	0.00392542	0	5	0	
0.1585	-0.0750732	-0.0952835	0.00604666	0.00354357	0	5	0	
0.158667	0.320706	0.0092834	0.00656697	0.0029411	0	5	0	
0.158833	-0.109638	0.00918535	0.00561658	0.00186754	0	5	0	
0.159	0.329043	-0.12282	0.00645059	0.00143293	0	5	0	
0.159167	-0.0912938	0.0493086	0.00577705	0.00143093	0	5	0	
0.159333	0.323833	-0.137649	0.00668052	0.00233305	0	5	0	
0.1595	-0.0961545	0.0473809	0.00591967	0.00263462	0	5	0	
0.159667	0.319016	-0.0929909	0.00671516	0.00305781	0	5	0	
0.159833	-0.103736	0.0199496	0.00580086	0.00299101	0	5	0	
0.16	0.348065	-0.0682813	0.00652808	0.00314193	0	5	0	
0.160167	-0.11304	-0.040838	0.0058004	0.00286989	0	5	0	
0.160333	0.333956	-0.0695118	0.0068378	0.00252309	0	5	0	
0.1605	-0.085327	0.0323262	0.00613681	0.00183107	0	5	0	
0.160667	0.317295	-0.0929858	0.00686428	0.00177881	0	5	0	
0.160833	-0.0960502	0.00578422	0.00586008	0.00183432	0	5	0	
0.161	0.340101	-0.0879406	0.0065789	0.00215522	0	5	0	
0.161167	-0.0929516	0.018348	0.00586182	0.00184638	0	5	0	
0.161333	0.322939	-0.119234	0.00676878	0.00196874	0	5	0	
0.1615	-0.0950847	0.0502058	0.00593723	0.0019645	0	5	0	
0.161667	0.334802	-0.0799428	0.0066896	0.0025076	0	5	0	
0.161833	-0.0875951	-0.0162923	0.0059436	0.00254763	0	5	0	
0.162	0.312344	-0.0777237	0.00676207	0.00248929	0	5	0	
0.162167	-0.0804453	0.0130295	0.00586865	0.00190094	0	5	0	
0.162333	0.327321	-0.0917268	0.00648863	0.00181442	0	5	0	
0.1625	-0.0940852	0.0218433	0.00564445	0.00171759	0	5	0	
0.162667	0.33345	-0.0881065	0.00648972	0.00203746	0	5	0	
0.162833	-0.101941	0.0267553	0.00579948	0.00188461	0	5	0	
0.163	0.330679	-0.114436	0.00671063	0.00215325	0	5	0	
0.163167	-0.077143	0.0205028	0.00605772	0.0021745	0	5	0	
0.163333	0.310336	-0.0816406	0.00682487	0.00254767	0	5	0	
0.1635	-0.0802765	0.0184889	0.00596536	0.00240039	0	5	0	
0.163667	0.316978	-0.0797414	0.00660999	0.00248894	0	5	0	
0.163833	-0.0763536	-0.0015556	0.00583337	0.00226564	0	5	0	
0.164	0.318335	-0.0865017	0.00654429	0.00230165	0	5	0	
0.164167	-0.0878256	0.00911605	0.00576523	0.0019979	0	5	0	
0.164333	0.323017	-0.079624	0.00653227	0.00202236	0	5	0	
0.1645	-0.0890929	0.0321652	0.00586373	0.00179626	0	5	0	
0.164667	0.32601	-0.111562	0.00667962	0.00201124	0	5	0	
0.164833	-0.0800929	0.0209263	0.005988	0.00202228	0	5	0	
0.165	0.311931	-0.0990223	0.00674457	0.00237102	0	5	0	
0.165167	-0.0738683	0.0439551	0.005999	0.00221158	0	5	0	
0.165333	0.311006	-0.119268	0.00665575	0.0024876	0	5	0	
0.1655	-0.0760533	0.0206583	0.00588532	0.002645	0	5	0	
0.165667	0.315002	-0.0601943	0.00657918	0.00303265	0	5	0	
0.165833	-0.0780717	-0.0115622	0.00588297	0.00274715	0	5	0	
0.166	0.311686	-0.0757653	0.00661693	0.00244284	0	5	0	
0.166167	-0.0715102	0.00752544	0.00590687	0.00194837	0	5	0	
0.166333	0.314963	-0.089376	0.00658244	0.00192216	0	5	0	
0.1665	-0.0837951	0.0377572	0.00585183	0.00177108	0	5	0	
0.166667	0.319659	-0.121814	0.00661657	0.00202624	0	5	0	
0.166833	-0.0720454	0.0440291	0.00603428	0.00209982	0	5	0	
0.167	0.299087	-0.0957558	0.00677448	0.00256338	0	5	0	
0.167167	-0.0610413	0.0130239	0.00604244	0.00256151	0	5	0	
0.167333	0.300831	-0.0931818	0.00661695	0.00263957	0	5	0	
0.1675	-0.0623299	0.0253223	0.00589573	0.00237352	0	5	0	
0.167667	0.299112	-0.077207	0.00650913	0.00254592	0	5	0	
0.167833	-0.0735505	-0.00309886	0.00578332	0.00246928	0	5	0	
0.168	0.317378	-0.0869631	0.00645675	0.00246357	0	5	0	
0.168167	-0.0722604	0.0214248	0.00590936	0.00209491	0	5	0	
0.168333	0.300429	-0.081878	0.00671248	0.00215986	0	5	0	
0.1685	-0.0667959	0.0146564	0.00606096	0.00205382	0	5	0	
0.168667	0.310503	-0.101374	0.00664386	0.00221191	0	5	0	
0.168833	-0.0716031	0.0283846	0.00599105	0.00208149	0	5	0	
0.169	0.288921	-0.0860345	0.00672147	0.00235436	0	5	0	
0.169167	-0.0447125	0.0088601	0.0061045	0.00230168	0	5	0	
0.169333	0.298134	-0.0792262	0.00657787	0.00242994	0	5	0	
0.1695	-0.0743673	0.0108674	0.00578691	0.00222041	0	5	0	
0.169667	0.298377	-0.0850943	0.00644591	0.00230171	0	5	0	
0.169833	-0.0572532	0.0161239	0.00592406	0.00213764	0	5	0	
0.17	0.306653	-0.087782	0.006571	0.00227253	0	5	0	
0.170167	-0.0729196	0.0219986	0.00591497	0.00217011	0	5	0	
0.170333	0.291411	-0.0802499	0.00661972	0.00238873	0	5	0	
0.1705	-0.0489463	-0.00106494	0.00608261	0.00233272	0	5	0	
0.170667	0.287823	-0.0736961	0.00662583	0.00238959	0	5	0	
0.170833	-0.05777	0.0136924	0.00587096	0.00211583	0	5	0	
0.171	0.293569	-0.0764729	0.00642879	0.00217145	0	5	0	
0.171167	-0.0554436	0.00396569	0.00590951	0.00209802	0	5	0	
0.171333	0.28113	-0.077552	0.00657357	0.00222752	0	5	0	
0.1715	-0.0498082	0.0132762	0.00596937	0.00207859	0	5	0	
0.171667	0.284615	-0.077337	0.00650122	0.00224248	0	5	0	
0.171833	-0.0480657	0.00640972	0.00592586	0.00222277	0	5	0	
0.172	0.276986	-0.0724049	0.0065176	0.00237391	0	5	0	
0.172167	-0.0517878	0.0038043	0.00594977	0.00222214	0	5	0	
0.172333	0.282654	-0.073656	0.00649709	0.00228191	0	5	0	
0.1725	-0.0493742	0.00475125	0.00596077	0.00214108	0	5	0	
0.172667	0.278382	-0.0743543	0.00654591	0.00223342	0	5	0	
0.172833	-0.0498541	0.0145729	0.00601336	0.00210083	0	5	0	
0.173	0.272353	-0.0819786	0.00657714	0.00223901	0	5	0	
0.173167	-0.0370105	0.00678494	0.00606491	0.00223657	0	5	0	
0.173333	0.268126	-0.0574301	0.00654007	0.00244542	0	5	0	
0.1735	-0.0486375	-0.00612132	0.00589215	0.00230056	0	5	0	
0.173667	0.278156	-0.0772966	0.00636919	0.00223822	0	5	0	
0.173833	-0.0465329	0.0145949	0.00588946	0.00206832	0	5	0	
0.174	0.277563	-0.0717838	0.00647633	0.00225008	0	5	0	
0.174167	-0.0551721	0.011473	0.00596701	0.00224857	0	5	0	
0.174333	0.273724	-0.0700166	0.00656917	0.00243464	0	5	0	
0.1745	-0.0317268	-0.0159902	0.00617314	0.00245753	0	5	0	
0.174667	0.259319	-0.0487862	0.00667234	0.00250359	0	5	0	
0.174833	-0.0417725	0.0111847	0.00600794	0.00214899	0	5	0	
0.175	0.270451	-0.0806735	0.00638932	0.00202465	0	5	0	
0.175167	-0.0395161	0.012347	0.00592769	0.0019806	0	5	0	
0.175333	0.265321	-0.0832088	0.00649778	0.002255	0	5	0	
0.1755	-0.042879	0.0143866	0.00598808	0.00228503	0	5	0	
0.175667	0.270785	-0.0553111	0.00645846	0.00249648	0	5	0	
0.175833	-0.0447472	-0.0101534	0.00598778	0.00238661	0	5	0	
0.176	0.268012	-0.0709309	0.00653756	0.00230677	0	5	0	
0.176167	-0.043119	0.0018418	0.00608545	0.00210957	0	5	0	
0.176333	0.262978	-0.0498987	0.0065923	0.00220787	0	5	0	
0.1765	-0.0364723	-0.00181405	0.00609318	0.00208632	0	5	0	
0.176667	0.264241	-0.0729053	0.00651979	0.00201958	0	5	0	
0.176833	-0.0434938	0.0100193	0.00602402	0.00184344	0	5	0	
0.177	0.256021	-0.0790121	0.00653408	0.00203111	0	5	0	
0.177167	-0.0327187	0.0117802	0.00610713	0.00210564	0	5	0	
0.177333	0.257451	-0.0512837	0.00652904	0.00235886	0	5	0	
0.1775	-0.0322445	-0.00684165	0.00600052	0.00223019	0	5	0	
0.177667	0.250973	-0.0909093	0.00641245	0.00199912	0	5	0	
0.177833	-0.0389753	0.050926	0.00594753	0.00172377	0	5	0	
0.178	0.263615	-0.106861	0.00642809	0.00193114	0	5	0	
0.178167	-0.0369636	0.0188103	0.00608043	0.00225361	0	5	0	
0.178333	0.241628	-0.0678717	0.00663149	0.00249542	0	5	0	
0.1785	-0.0180447	-0.00339467	0.0062113	0.00235779	0	5	0	
0.178667	0.247777	-0.034167	0.00653061	0.00219502	0	5	0	
0.178833	-0.0403748	-0.020399	0.00599138	0.00181804	0	5	0	
0.179	0.256511	-0.0703034	0.00641216	0.00170003	0	5	0	
0.179167	-0.0374594	0.000120468	0.00608239	0.00168925	0	5	0	
0.179333	0.245157	-0.0458612	0.00661482	0.00201281	0	5	0	
0.1795	-0.0269679	-0.0132647	0.00626303	0.00204903	0	5	0	
0.179667	0.241237	-0.060117	0.00667601	0.00201782	0	5	0	
0.179833	-0.0234537	0.0170359	0.00620221	0.00180624	0	5	0	
0.18	0.237385	-0.0786888	0.00651747	0.00193527	0	5	0	
0.180167	-0.0204425	0.015013	0.00604757	0.0020907	0	5	0	
0.180333	0.243199	-0.058811	0.00638865	0.00243644	0	5	0	
0.1805	-0.046347	-0.00856649	0.0059449	0.00248812	0	5	0	
0.180667	0.253373	-0.0586593	0.00643253	0.00244229	0	5	0	
0.180833	-0.0312603	0.0213221	0.00623852	0.00220469	0	5	0	
0.181	0.230765	-0.0467012	0.00670523	0.00238151	0	5	0	
0.181167	-0.030908	-0.0696085	0.00618397	0.0027326	0	5	0	
0.181333	0.246785	0.00883132	0.00649646	0.00292745	0	5	0	
0.1815	-0.00831786	-0.0286676	0.00618304	0.00241317	0	5	0	
0.181667	0.23027	-0.0306849	0.00655704	0.00199494	0	5	0	
0.181833	-0.0416324	-0.0152011	0.00598816	0.00170493	0	5	0	
0.182	0.235781	-0.070635	0.00628643	0.00182694	0	5	0	
0.182167	-0.014613	0.00186342	0.00607725	0.00197179	0	5	0	
0.182333	0.228754	-0.0273139	0.00654514	0.00249923	0	5	0	
0.1825	-0.0272033	-0.0216863	0.0060874	0.00279549	0	5	0	
0.182667	0.23944	-0.0538099	0.00643248	0.00282828	0	5	0	
0.182833	-0.00700734	-0.0157203	0.00628139	0.00266281	0	5	0	
0.183	0.199668	-0.0277126	0.00680246	0.00270076	0	5	0	
0.183167	0.0041273	-0.0192641	0.00633287	0.00261328	0	5	0	
0.183333	0.221909	-0.0269363	0.00632176	0.0025272	0	5	0	
0.1835	-0.0293665	-0.0341643	0.00579272	0.00239445	0	5	0	
0.183667	0.225425	-0.0453322	0.00620148	0.00226721	0	5	0	
0.183833	-0.0252916	0.0191389	0.00605663	0.0019911	0	5	0	
0.184	0.23939	-0.0511332	0.00650721	0.00206965	0	5	0	
0.184167	-0.0304457	-0.0179334	0.00625602	0.00228368	0	5	0	
0.184333	0.194197	-0.0426182	0.00675922	0.00245844	0	5	0	
0.1845	0.0104547	-0.00820638	0.00658745	0.00225017	0	5	0	
0.184667	0.188184	-0.0559873	0.00670314	0.00206307	0	5	0	
0.184833	-0.0129208	0.0266677	0.00610665	0.00186398	0	5	0	
0.185	0.201019	-0.091561	0.00617549	0.00183845	0	5	0	
0.185167	-0.0167281	0.0464115	0.0058966	0.00194816	0	5	0	
0.185333	0.212449	-0.0821135	0.00623261	0.00230331	0	5	0	
0.1855	-0.0326149	0.00237118	0.00601769	0.00256913	0	5	0	
0.185667	0.209608	-0.0369698	0.00643892	0.00264217	0	5	0	
0.185833	-0.0156386	-0.011915	0.00631412	0.00238413	0	5	0	
0.186	0.184636	-0.0282574	0.00665836	0.00215753	0	5	0	
0.186167	-0.00479642	-0.0297649	0.00630054	0.00195679	0	5	0	
0.186333	0.201434	-0.0222523	0.0063612	0.00188327	0	5	0	
0.1865	-0.0191674	-0.0158499	0.00596728	0.001664	0	5	0	
0.186667	0.194038	-0.0393446	0.00627217	0.00152701	0	5	0	
0.186833	-0.00933461	0.0175388	0.00612768	0.00138456	0	5	0	
0.187	0.197628	-0.0801032	0.00644318	0.00150787	0	5	0	
0.187167	-0.00640165	0.0150245	0.00618311	0.00174011	0	5	0	
0.187333	0.185529	-0.0454645	0.00643123	0.00209692	0	5	0	
0.1875	-0.00517327	0.00714288	0.00612248	0.00218026	0	5	0	
0.187667	0.19259	-0.0513213	0.00630599	0.00222669	0	5	0	
0.187833	0.000497265	0.00225769	0.00608657	0.00218843	0	5	0	
0.188	0.181965	-0.0470363	0.00643192	0.00231996	0	5	0	
0.188167	0.014735	-0.0235511	0.00622522	0.00248658	0	5	0	
0.188333	0.177429	0.0121232	0.00636195	0.00269677	0	5	0	
0.1885	-0.00151183	-0.0402388	0.00596865	0.00249047	0	5	0	
0.188667	0.197505	-0.0366326	0.0061364	0.00209211	0	5	0	
0.188833	-0.00637193	0.00101366	0.00596762	0.00165443	0	5	0	
0.189	0.197077	-0.0485598	0.0064376	0.00166229	0	5	0	
0.189167	0.00727061	0.0167519	0.00638745	0.00176637	0	5	0	
0.189333	0.17308	-0.0413873	0.00668615	0.00207882	0	5	0	
0.1895	0.0139955	-0.0121565	0.00636007	0.00227573	0	5	0	
0.189667	0.184593	-0.0331531	0.00643657	0.00234695	0	5	0	
0.189833	-0.00201351	-0.00347924	0.006096	0.00218403	0	5	0	
0.19	0.181082	-0.0532882	0.00632528	0.00207621	0	5	0	
0.190167	0.00850915	0.0392589	0.00619024	0.00212888	0	5	0	
0.190333	0.165654	-0.0461449	0.00643265	0.00244507	0	5	0	
0.1905	0.00736312	-0.0239434	0.00616933	0.00280699	0	5	0	
0.190667	0.177765	-0.0173068	0.0063089	0.00284463	0	5	0	
0.190833	0.000229328	-0.00197048	0.00608513	0.00252658	0	5	0	
0.191	0.164351	-0.0261232	0.00630356	0.00228881	0	5	0	
0.191167	0.00460085	-0.0153226	0.006126	0.00221784	0	5	0	
0.191333	0.172233	-0.0240044	0.00629707	0.00214571	0	5	0	
0.1915	-0.0011155	0.0158544	0.00606199	0.0018789	0	5	0	
0.191667	0.168587	-0.0630517	0.00630436	0.00182499	0	5	0	
0.191833	0.00698167	0.0146908	0.00623113	0.00204601	0	5	0	
0.192	0.162719	-0.024922	0.00645306	0.00242533	0	5	0	
0.192167	-0.0058268	-0.0143599	0.00620534	0.00251841	0	5	0	
0.192333	0.158172	-0.0381503	0.00636635	0.00238603	0	5	0	
0.1925	0.0271847	0.00799577	0.00627978	0.00212779	0	5	0	
0.192667	0.149499	-0.0439251	0.0064423	0.00207633	0	5	0	
0.192833	-0.0184216	0.0105118	0.00606884	0.0021077	0	5	0	
0.193	0.170216	-0.0449442	0.00617073	0.00225871	0	5	0	
0.193167	0.0426423	-0.000938794	0.00643118	0.00245897	0	5	0	
0.193333	0.0695292	0.00126206	0.00705872	0.00286178	0	5	0	
0.1935	0.0589204	-0.0817348	0.00676611	0.00313	0	5	0	
0.193667	0.143946	0.0372824	0.00612604	0.00304395	0	5	0	
0.193833	-0.0276305	-0.00727837	0.00534648	0.00212682	0	5	0	
0.194	0.175913	-0.0628525	0.00553271	0.00145141	0	5	0	
0.194167	-0.0338297	0.0209463	0.00586003	0.00134014	0	5	0	
0.194333	0.176586	-0.0496476	0.00670787	0.00197131	0	5	0	
0.1945	0.018077	0.0244313	0.00715109	0.00239651	0	5	0	
0.194667	0.0904458	-0.0259765	0.00746637	0.00270353	0	5	0	
0.194833	0.0323147	-0.0502564	0.00691847	0.00298471	0	5	0	
0.195	0.142679	0.0239118	0.00638658	0.00305239	0	5	0	
0.195167	-0.00141774	-0.0185572	0.00596618	0.00254388	0	5	0	
0.195333	0.130844	-0.0263737	0.00631843	0.00208863	0	5	0	
0.1955	0.0503276	-0.0238425	0.00656018	0.00203328	0	5	0	
0.195667	0.100091	0.0129845	0.00663617	0.0023133	0	5	0	
0.195833	0.00129958	-0.020454	0.00594456	0.00218113	0	5	0	
0.196	0.173091	-0.0411245	0.00563473	0.0018651	0	5	0	
0.196167	-0.0333407	0.0218737	0.00563801	0.00175591	0	5	0	
0.196333	0.150921	-0.0205874	0.00632213	0.00215689	0	5	0	
0.1965	0.0130176	-0.0320629	0.00656688	0.00268036	0	5	0	
0.196667	0.122788	0.0192757	0.00673566	0.00305384	0	5	0	
0.196833	0.0197953	-0.0632001	0.00647983	0.00306421	0	5	0	
0.197	0.121072	0.0361326	0.00644641	0.00289481	0	5	0	
0.197167	0.0104346	-0.0288503	0.00619103	0.00231503	0	5	0	
0.197333	0.122041	-0.0354523	0.00615416	0.00185039	0	5	0	
0.1975	0.0122945	0.0425139	0.0060049	0.00162398	0	5	0	
0.197667	0.119848	-0.0652145	0.00618852	0.00207909	0	5	0	
0.197833	0.0174271	0.00178283	0.00618747	0.00271899	0	5	0	
0.198	0.117986	0.00286171	0.00631021	0.00317223	0	5	0	
0.198167	0.01632	-0.0372344	0.00618765	0.00318928	0	5	0	
0.198333	0.108241	0.0166889	0.00627985	0.00293621	0	5	0	
0.1985	0.0174989	-0.0287431	0.00616469	0.00248007	0	5	0	
0.198667	0.115925	-0.0111073	0.00620938	0.00215868	0	5	0	
0.198833	0.0167964	-0.0136118	0.00613845	0.00199602	0	5	0	
0.199	0.1012	0.00802737	0.00634746	0.00211063	0	5	0	
0.199167	0.0320897	-0.0159982	0.00635379	0.00198195	0	5	0	
0.199333	0.0916887	-0.0316463	0.00636582	0.00164255	0	5	0	
0.1995	0.0175264	0.0256917	0.0060758	0.00136832	0	5	0	
0.199667	0.117937	-0.0350429	0.00601278	0.00144156	0	5	0	
0.199833	0.0102252	0.014391	0.00600449	0.00171054	0	5	0	
0.2	0.0928004	-0.025656	0.00635615	0.00195721	0	5	0	
0.200167	0.0235385	-0.0203146	0.00645604	0.00221068	0	5	0	
0.200333	0.0984744	0.0272982	0.00644136	0.00236001	0	5	0	
0.2005	0.0122388	-0.0392735	0.00618053	0.00225267	0	5	0	
0.200667	0.0891778	0.0174162	0.00619423	0.00210551	0	5	0	
0.200833	0.0240434	-0.0293021	0.0061734	0.00193212	0	5	0	
0.201	0.095206	0.00718215	0.00629848	0.00197917	0	5	0	
0.201167	0.0208407	-0.0294041	0.0063239	0.00195857	0	5	0	
0.201333	0.0690016	0.020716	0.00642053	0.00206527	0	5	0	
0.2015	0.0282603	-0.0252558	0.00617555	0.00190189	0	5	0	
0.201667	0.0868829	0.00444473	0.00599426	0.0018217	0	5	0	
0.201833	0.0210091	-0.043749	0.00596403	0.00179009	0	5	0	
0.202	0.0742963	0.040312	0.0062639	0.00196307	0	5	0	
0.202167	0.043148	-0.0173294	0.00630507	0.00165341	0	5	0	
0.202333	0.0775507	-0.0353755	0.0062425	0.00136228	0	5	0	
0.2025	0.0207275	0.0203043	0.0059985	0.00134582	0	5	0	
0.202667	0.0747478	-0.0140758	0.00603797	0.00197279	0	5	0	
0.202833	0.0258761	-0.0230182	0.00608259	0.00262483	0	5	0	
0.203	0.0692902	0.0417141	0.00625817	0.00306464	0	5	0	
0.203167	0.0411041	-0.0749869	0.0062826	0.00315404	0	5	0	
0.203333	0.0680175	0.0544521	0.00637996	0.00304952	0	5	0	
0.2035	0.0371736	-0.0449347	0.00629189	0.00255068	0	5	0	
0.203667	0.075818	0.0205915	0.00628056	0.00223788	0	5	0	
0.203833	0.0273617	-0.0199593	0.00622058	0.00186746	0	5	0	
0.204	0.0562871	-0.00311606	0.00642381	0.00184116	0	5	0	
0.204167	0.0341816	-0.0012815	0.00643032	0.00178593	0	5	0	
0.204333	0.0646966	-0.00249816	0.00632767	0.0019887	0	5	0	
0.2045	0.0196311	-0.0154357	0.0061104	0.00222668	0	5	0	
0.204667	0.062362	0.0222569	0.0061691	0.00244285	0	5	0	
0.204833	0.02508	-0.0398399	0.00623619	0.00248816	0	5	0	
0.205	0.0653518	0.0315264	0.00633215	0.00242254	0	5	0	
0.205167	0.036241	-0.015275	0.0062729	0.00211884	0	5	0	
0.205333	0.049584	-0.0104413	0.00627566	0.00188208	0	5	0	
0.2055	0.021934	0.00303414	0.00614787	0.0018141	0	5	0	
0.205667	0.0570212	0.000545237	0.00614576	0.00208711	0	5	0	
0.205833	0.0334922	-0.0165797	0.00618546	0.00240401	0	5	0	
0.206	0.0368598	0.0288667	0.00640429	0.00264958	0	5	0	
0.206167	0.0565281	-0.0465821	0.0064898	0.00274438	0	5	0	
0.206333	0.0312739	0.0495639	0.00651091	0.00272151	0	5	0	
0.2065	0.0374543	-0.0395565	0.00626183	0.00237465	0	5	0	
0.206667	0.0541583	0.0126146	0.0061503	0.0020488	0	5	0	
0.206833	0.0335861	-0.00360305	0.00609064	0.00169767	0	5	0	
0.207	0.0438088	-0.0103987	0.00629185	0.00168227	0	5	0	
0.207167	0.022188	0.0171467	0.00634502	0.00174776	0	5	0	
0.207333	0.0413799	-0.00280759	0.00643927	0.0019988	0	5	0	
0.2075	0.0210479	-0.0200005	0.00645779	0.00227668	0	5	0	
0.207667	0.0352684	0.0219073	0.00652717	0.00242535	0	5	0	
0.207833	0.034499	-0.0185339	0.00649644	0.00239359	0	5	0	
0.208	0.0169455	0.0233581	0.00645977	0.00230601	0	5	0	
0.208167	0.0266313	-0.0261068	0.00631397	0.00219057	0	5	0	
0.208333	0.023532	0.0197765	0.00623175	0.00213928	0	5	0	
0.2085	0.0222958	-0.0271653	0.00617806	0.00209482	0	5	0	
0.208667	0.0233602	0.0419256	0.00620401	0.00220953	0	5	0	
0.208833	0.0219132	-0.0328001	0.00615584	0.00215059	0	5	0	
0.209	0.0140266	0.018893	0.00619224	0.00203256	0	5	0	
0.209167	0.0393741	-0.0100799	0.00623364	0.00183452	0	5	0	
0.209333	0.00372582	0.0113754	0.00626735	0.00190885	0	5	0	
0.2095	0.0344393	-0.0177436	0.0061737	0.00208212	0	5	0	
0.209667	0.0115085	0.0364842	0.0061093	0.00234263	0	5	0	
0.209833	0.0193294	-0.0309424	0.00592254	0.00238909	0	5	0	
0.21	0.0411745	0.0212883	0.00588243	0.00229131	0	5	0	
0.210167	0.0329503	-0.0193573	0.00606465	0.00215473	0	5	0	
0.210333	-0.00886591	0.0362798	0.00642897	0.00218507	0	5	0	
0.2105	0.0403912	-0.0146802	0.00643092	0.00209116	0	5	0	
0.210667	0.016956	-0.00116372	0.00626676	0.00193631	0	5	0	
0.210833	0.0470044	-0.00289058	0.00618905	0.00192181	0	5	0	
0.211	-0.0123325	0.03052	0.00633814	0.00217805	0	5	0	
0.211167	0.0336087	-0.024277	0.00618314	0.00236309	0	5	0	
0.211333	0.0154959	0.0440787	0.00603729	0.00239356	0	5	0	
0.2115	0.0448568	-0.0681372	0.00606384	0.00249565	0	5	0	
0.211667	-0.0177725	0.102244	0.00634995	0.00288689	0	5	0	
0.211833	0.0406121	-0.112011	0.00627013	0.00296908	0	5	0	
0.212	0.0130649	0.0860534	0.00607019	0.00290603	0	5	0	
0.212167	0.0202125	-0.0173045	0.0059794	0.00195187	0	5	0	
0.212333	-0.00812498	-0.00294075	0.00627949	0.00142281	0	5	0	
0.2125	0.051291	0.0173741	0.00648413	0.00114955	0	5	0	
0.212667	-0.015828	0.00159459	0.00653079	0.00188509	0	5	0	
0.212833	0.04191	-0.0377223	0.00635326	0.00267526	0	5	0	
0.213	-0.0278557	0.0905461	0.00632301	0.00308002	0	5	0	
0.213167	0.0563548	-0.0524928	0.00620375	0.00258607	0	5	0	
0.213333	-0.0119481	-0.0237138	0.00614244	0.00179741	0	5	0	
0.2135	0.0139789	0.0433464	0.00591803	0.00135508	0	5	0	
0.213667	-0.0135677	0.0231173	0.00599789	0.00189225	0	5	0	
0.213833	0.0418706	-0.00502242	0.00620486	0.00232794	0	5	0	
0.214	-0.0332063	0.0172186	0.00649266	0.00243457	0	5	0	
0.214167	0.0572134	-0.0695168	0.00653972	0.00256892	0	5	0	
0.214333	-0.0472314	0.134293	0.00655188	0.00297489	0	5	0	
0.2145	0.0500647	-0.0753644	0.00635662	0.00286424	0	5	0	
0.214667	-0.0292232	0.0220333	0.00623906	0.00229417	0	5	0	
0.214833	0.034381	-0.00720171	0.00609623	0.00158282	0	5	0	
0.215	-0.039233	0.0453097	0.00626316	0.00160013	0	5	0	
0.215167	0.0562832	-0.00107685	0.00632384	0.00147508	0	5	0	
0.215333	-0.0362642	-0.0110169	0.00634613	0.00138832	0	5	0	
0.2155	0.039547	0.0316489	0.00619278	0.00151097	0	5	0	
0.215667	-0.0324727	0.017247	0.0062525	0.00206203	0	5	0	
0.215833	0.0462759	-0.0378574	0.00628815	0.00272913	0	5	0	
0.216	-0.0425515	0.0546221	0.00644135	0.00287308	0	5	0	
0.216167	0.0520653	-0.00503266	0.00643585	0.00253	0	5	0	
0.216333	-0.0525488	0.0247967	0.00648359	0.00225312	0	5	0	
0.2165	0.0457993	-0.0344332	0.00630948	0.00236235	0	5	0	
0.216667	-0.0337263	0.0551968	0.00621971	0.00256754	0	5	0	
0.216833	0.0385616	-0.0162156	0.00612939	0.00244724	0	5	0	
0.217	-0.0501531	0.0386469	0.00628076	0.00224178	0	5	0	
0.217167	0.0473567	-0.0291586	0.00630153	0.00222304	0	5	0	
0.217333	-0.0536596	0.0496451	0.0063404	0.00233667	0	5	0	
0.2175	0.0427484	-0.0294069	0.00622691	0.00231213	0	5	0	
0.217667	-0.0427863	0.0525413	0.00620071	0.0022345	0	5	0	
0.217833	0.0340937	-0.0248653	0.00613469	0.00212258	0	5	0	
0.218	-0.0569712	0.046246	0.00629164	0.00210622	0	5	0	
0.218167	0.0530855	-0.0232602	0.00639646	0.00208024	0	5	0	
0.218333	-0.0618744	0.0433286	0.0064576	0.00210839	0	5	0	
0.2185	0.0418364	-0.0223153	0.00628863	0.00211352	0	5	0	
0.218667	-0.060851	0.0553591	0.00625055	0.00217158	0	5	0	
0.218833	0.0464639	-0.0221533	0.00620094	0.00215398	0	5	0	
0.219	-0.058665	0.029225	0.00625671	0.00208038	0	5	0	
0.219167	0.0361646	-0.00912816	0.00620641	0.00208182	0	5	0	
0.219333	-0.0680131	0.0581238	0.00632013	0.00226618	0	5	0	
0.2195	0.0587623	-0.0426313	0.00639687	0.0024456	0	5	0	
0.219667	-0.0768358	0.0656517	0.00646137	0.00245884	0	5	0	
0.219833	0.0410968	-0.0318221	0.00627606	0.0022832	0	5	0	
0.22	-0.0681361	0.0548927	0.00623513	0.00214915	0	5	0	
0.220167	0.0510933	-0.0161835	0.006256	0.00197578	0	5	0	
0.220333	-0.0764964	0.0290883	0.0063869	0.00186923	0	5	0	
0.2205	0.040069	0.00164081	0.00628006	0.00186306	0	5	0	
0.220667	-0.0737692	0.0463785	0.00625704	0.00205055	0	5	0	
0.220833	0.0541625	-0.0208429	0.00628622	0.00224814	0	5	0	
0.221	-0.0888053	0.0422399	0.00643068	0.00226011	0	5	0	
0.221167	0.0472049	-0.00973683	0.00635245	0.00220626	0	5	0	
0.221333	-0.0844206	0.054311	0.00631774	0.0022581	0	5	0	
0.2215	0.0561259	-0.0409252	0.00627563	0.00242124	0	5	0	
0.221667	-0.0922821	0.0766162	0.00636428	0.00244103	0	5	0	
0.221833	0.041834	-0.0264192	0.00624763	0.00220759	0	5	0	
0.222	-0.0754489	0.0542512	0.00618656	0.00198972	0	5	0	
0.222167	0.039808	-0.0215439	0.00617874	0.00187787	0	5	0	
0.222333	-0.0942443	0.0368586	0.00636875	0.00187473	0	5	0	
0.2225	0.05598	0.00130405	0.00645407	0.00189468	0	5	0	
0.222667	-0.101335	0.0545597	0.00647785	0.00206872	0	5	0	
0.222833	0.0508315	-0.0281067	0.00634064	0.00229393	0	5	0	
0.223	-0.0917633	0.049836	0.00625375	0.00232828	0	5	0	
0.223167	0.04101	-0.00673561	0.00613582	0.0021905	0	5	0	
0.223333	-0.0981721	0.040283	0.00619682	0.00210737	0	5	0	
0.2235	0.0508288	-0.0259396	0.00623639	0.00232997	0	5	0	
0.223667	-0.0988221	0.0934884	0.00628747	0.00263803	0	5	0	
0.223833	0.0411081	-0.058129	0.00623228	0.00273048	0	5	0	
0.224	-0.102514	0.0720012	0.00627175	0.00250458	0	5	0	
0.224167	0.0531881	-0.0282694	0.00632508	0.00208134	0	5	0	
0.224333	-0.114077	0.0416695	0.00640619	0.00178481	0	5	0	
0.2245	0.0572448	0.0323085	0.006364	0.00155068	0	5	0	
0.224667	-0.118697	0.00571173	0.00633711	0.00161855	0	5	0	
0.224833	0.0499093	-0.0108071	0.00622417	0.00207741	0	5	0	
0.225	-0.104521	0.0785822	0.00618495	0.00259284	0	5	0	
0.225167	0.0437546	-0.0494804	0.00617096	0.00286225	0	5	0	
0.225333	-0.117359	0.0868037	0.00629666	0.00270924	0	5	0	
0.2255	0.0549776	-0.0402457	0.00637525	0.00238781	0	5	0	
0.225667	-0.124183	0.0689228	0.00642259	0.00214452	0	5	0	
0.225833	0.0583632	-0.0305319	0.0063883	0.0019466	0	5	0	
0.226	-0.127807	0.0680876	0.0063604	0.00194594	0	5	0	
0.226167	0.0547134	-0.0170116	0.00625084	0.00188852	0	5	0	
0.226333	-0.125147	0.0601161	0.00621021	0.00192962	0	5	0	
0.2265	0.0544966	-0.0317972	0.00616791	0.00206115	0	5	0	
0.226667	-0.12846	0.0707193	0.00619167	0.00218463	0	5	0	
0.226833	0.0457879	-0.021767	0.00612582	0.0022133	0	5	0	
0.227	-0.122339	0.0720965	0.00610453	0.00217914	0	5	0	
0.227167	0.0515699	-0.0419785	0.0061654	0.00228948	0	5	0	
0.227333	-0.142409	0.0837776	0.00633626	0.00238814	0	5	0	
0.2275	0.0671136	-0.0329263	0.00644578	0.00238986	0	5	0	
0.227667	-0.147784	0.0717772	0.00644306	0.00226928	0	5	0	
0.227833	0.0614632	-0.0253693	0.006332	0.00220077	0	5	0	
0.228	-0.148402	0.0745484	0.00627696	0.00219604	0	5	0	
0.228167	0.0595167	-0.0349671	0.00620673	0.00227478	0	5	0	
0.228333	-0.14252	0.0766005	0.00619752	0.00228603	0	5	0	
0.2285	0.0558321	-0.0293684	0.00620214	0.00229392	0	5	0	
0.228667	-0.154149	0.0825233	0.00629357	0.00226022	0	5	0	
0.228833	0.0643589	-0.0337618	0.00632528	0.00224579	0	5	0	
0.229	-0.141005	0.0622966	0.00624626	0.0021394	0	5	0	
0.229167	0.037714	-0.0220661	0.00610336	0.00216298	0	5	0	
0.229333	-0.133864	0.0992505	0.00608419	0.00232482	0	5	0	
0.2295	0.0456416	-0.0507711	0.00626529	0.00248281	0	5	0	
0.229667	-0.160845	0.0720286	0.00651397	0.00235999	0	5	0	
0.229833	0.0920484	-0.0221248	0.00677381	0.00214439	0	5	0	
0.23	-0.197248	0.0801719	0.00680914	0.00206666	0	5	0	
0.230167	0.0717443	-0.0214951	0.00649232	0.00212028	0	5	0	
0.230333	-0.147665	0.0666851	0.00607902	0.00214708	0	5	0	
0.2305	0.0429952	-0.0386537	0.00583059	0.002292	0	5	0	
0.230667	-0.149376	0.0967385	0.00592019	0.00237332	0	5	0	
0.230833	0.0452418	-0.032583	0.00609746	0.00238082	0	5	0	
0.231	-0.166348	0.0765325	0.00626173	0.00218627	0	5	0	
0.231167	0.0710137	-0.0277871	0.00649973	0.0021383	0	5	0	
0.231333	-0.181476	0.0791368	0.0065694	0.00216661	0	5	0	
0.2315	0.0641651	-0.0393529	0.00653719	0.0023066	0	5	0	
0.231667	-0.173959	0.0936137	0.00638533	0.00233059	0	5	0	
0.231833	0.0679508	-0.0377869	0.00636938	0.00233641	0	5	0	
0.232	-0.184472	0.0853672	0.00636211	0.00222275	0	5	0	
0.232167	0.0623267	-0.0303813	0.00632326	0.00216593	0	5	0	
0.232333	-0.168836	0.0774145	0.00616887	0.0020949	0	5	0	
0.2325	0.0590433	-0.0289677	0.00610677	0.00211219	0	5	0	
0.232667	-0.177053	0.0787412	0.00611517	0.00205827	0	5	0	
0.232833	0.0563535	-0.0192986	0.006222	0.0020737	0	5	0	
0.233	-0.175863	0.0760035	0.00621378	0.00205639	0	5	0	
0.233167	0.0591886	-0.037075	0.00625133	0.00224012	0	5	0	
0.233333	-0.186372	0.095132	0.00622454	0.00232931	0	5	0	
0.2335	0.0707654	-0.0400518	0.00628736	0.00239201	0	5	0	
0.233667	-0.186318	0.0903318	0.00625264	0.00226498	0	5	0	
0.233833	0.0626895	-0.0361117	0.00628515	0.00224923	0	5	0	
0.234	-0.196138	0.0890745	0.00624953	0.00218424	0	5	0	
0.234167	0.067193	-0.0303702	0.00625946	0.00219158	0	5	0	
0.234333	-0.190177	0.0833424	0.00616831	0.00210887	0	5	0	
0.2345	0.061959	-0.0331438	0.00618522	0.00217598	0	5	0	
0.234667	-0.197144	0.0923688	0.00615635	0.00217715	0	5	0	
0.234833	0.0706483	-0.0364063	0.00627223	0.00225175	0	5	0	
0.235	-0.198924	0.0859522	0.00626353	0.00216209	0	5	0	
0.235167	0.0660675	-0.0280829	0.00631227	0.00216211	0	5	0	
0.235333	-0.198001	0.0925742	0.00622674	0.00210196	0	5	0	
0.2355	0.0758944	-0.0380471	0.00632007	0.00215858	0	5	0	
0.235667	-0.212108	0.0807842	0.00631299	0.00204034	0	5	0	
0.235833	0.0653911	-0.0139089	0.00633716	0.001961	0	5	0	
0.236	-0.192226	0.0784389	0.00619453	0.00187755	0	5	0	
0.236167	0.0763664	-0.0317259	0.00633812	0.00202489	0	5	0	
0.236333	-0.232154	0.0860673	0.00643275	0.00207555	0	5	0	
0.2365	0.0870189	-0.0328823	0.00649216	0.00220093	0	5	0	
0.236667	-0.19533	0.109749	0.0062333	0.00220936	0	5	0	
0.236833	0.0691518	-0.0490419	0.00618572	0.0023366	0	5	0	
0.237	-0.216343	0.102169	0.00619038	0.00228475	0	5	0	
0.237167	0.0636454	-0.0470801	0.0062894	0.00228446	0	5	0	
0.237333	-0.204478	0.0993825	0.00618664	0.00220889	0	5	0	
0.2375	0.0929995	-0.0459154	0.00641825	0.00225595	0	5	0	
0.237667	-0.249538	0.126755	0.0066052	0.00230704	0	5	0	
0.237833	0.093476	-0.0524834	0.00666452	0.00237796	0	5	0	
0.238	-0.209836	0.0882124	0.00629877	0.00223823	0	5	0	
0.238167	0.0605671	-0.0308923	0.00604805	0.0021017	0	5	0	
0.238333	-0.209239	0.101162	0.00591647	0.00194519	0	5	0	
0.2385	0.0485503	-0.0229389	0.00605286	0.00190919	0	5	0	
0.238667	-0.214131	0.0805874	0.00613237	0.00184354	0	5	0	
0.238833	0.0903386	-0.0644508	0.00657268	0.00219418	0	5	0	
0.239	-0.261624	0.161531	0.00671009	0.00260283	0	5	0	
0.239167	0.0930247	-0.0907469	0.00677966	0.00286593	0	5	0	
0.239333	-0.236871	0.122132	0.00640216	0.00270012	0	5	0	
0.2395	0.0649102	-0.0498129	0.00623161	0.00239709	0	5	0	
0.239667	-0.22338	0.111995	0.00599892	0.00224021	0	5	0	
0.239833	0.06315	-0.0380483	0.00614669	0.00215258	0	5	0	
0.24	-0.240153	0.0957823	0.00608517	0.00219809	0	5	0	
0.240167	0.082366	-0.0634237	0.00631755	0.00249585	0	5	0	
0.240333	-0.236609	0.139432	0.00614749	0.00271069	0	5	0	
0.2405	0.0704229	-0.0566025	0.0063019	0.00281786	0	5	0	
0.240667	-0.250251	0.110957	0.00616093	0.00254524	0	5	0	
0.240833	0.0766002	-0.0630057	0.00630842	0.00247159	0	5	0	
0.241	-0.230261	0.131631	0.00604419	0.00241764	0	5	0	
0.241167	0.0671222	-0.0520817	0.00617782	0.00240018	0	5	0	
0.241333	-0.259906	0.100987	0.00617857	0.00218139	0	5	0	
0.2415	0.0998291	-0.042555	0.00660484	0.00212823	0	5	0	
0.241667	-0.267678	0.111734	0.0064983	0.00209137	0	5	0	
0.241833	0.0831865	-0.0283953	0.00653125	0.00208329	0	5	0	
0.242	-0.262884	0.083785	0.00625785	0.00191662	0	5	0	
0.242167	0.0934242	-0.0477285	0.00637578	0.00214827	0	5	0	
0.242333	-0.250436	0.125787	0.00615858	0.00233005	0	5	0	
0.2425	0.0512444	-0.0347773	0.00617416	0.00251718	0	5	0	
0.242667	-0.25244	0.10747	0.00605603	0.00232096	0	5	0	
0.242833	0.106159	-0.0920506	0.00652262	0.00255162	0	5	0	
0.243	-0.280598	0.198147	0.00655072	0.00280453	0	5	0	
0.243167	0.0549939	-0.093341	0.00655688	0.0029398	0	5	0	
0.243333	-0.249973	0.100514	0.00609927	0.00261761	0	5	0	
0.2435	0.0956113	-0.0266027	0.00640353	0.00210836	0	5	0	
0.243667	-0.285903	0.114202	0.00645039	0.00187554	0	5	0	
0.243833	0.0795222	-0.0524397	0.00661991	0.00191176	0	5	0	
0.244	-0.262453	0.123625	0.00616421	0.0021208	0	5	0	
0.244167	0.0658918	-0.053929	0.00630508	0.00244976	0	5	0	
0.244333	-0.276705	0.13802	0.00618235	0.00267352	0	5	0	
0.2445	0.086599	-0.0989367	0.00656765	0.00310662	0	5	0	
0.244667	-0.285826	0.164444	0.00633693	0.00316917	0	5	0	
0.244833	0.0822493	-0.0748436	0.00651624	0.00310591	0	5	0	
0.245	-0.270103	0.134172	0.00612309	0.00276143	0	5	0	
0.245167	0.0733455	-0.0590796	0.00631379	0.00254829	0	5	0	
0.245333	-0.259505	0.107666	0.00603002	0.00225962	0	5	0	
0.2455	0.0696228	-0.00872013	0.00628848	0.00199581	0	5	0	
0.245667	-0.276306	0.0798663	0.00609226	0.00170248	0	5	0	
0.245833	0.100357	-0.035687	0.00653248	0.0019149	0	5	0	
0.246	-0.286286	0.122729	0.006349	0.00212559	0	5	0	
0.246167	0.0758846	-0.0445234	0.00645234	0.00242984	0	5	0	
0.246333	-0.268761	0.112081	0.00602534	0.00222485	0	5	0	
0.2465	0.0921367	-0.0464463	0.00629133	0.00228012	0	5	0	
0.246667	-0.290064	0.125527	0.00619046	0.00216993	0	5	0	
0.246833	0.0908716	-0.0536653	0.00646615	0.0022976	0	5	0	
0.247	-0.282673	0.113184	0.00613957	0.00212753	0	5	0	
0.247167	0.084149	-0.0321747	0.00630564	0.0021236	0	5	0	
0.247333	-0.283984	0.100612	0.00605171	0.00191938	0	5	0	
0.2475	0.0876372	-0.036547	0.00633735	0.00207102	0	5	0	
0.247667	-0.290372	0.122795	0.00612004	0.00208894	0	5	0	
0.247833	0.0921597	-0.0502625	0.00642297	0.00235559	0	5	0	
0.248	-0.291856	0.106972	0.00616822	0.00219503	0	5	0	
0.248167	0.089884	-0.0424909	0.0064438	0.00230199	0	5	0	
0.248333	-0.293822	0.135561	0.00615048	0.00224037	0	5	0	
0.2485	0.0858858	-0.0666184	0.00639707	0.00249936	0	5	0	
0.248667	-0.283554	0.110774	0.00607938	0.0023378	0	5	0	
0.248833	0.0875832	-0.032954	0.00647121	0.0022565	0	5	0	
0.249	-0.3162	0.123265	0.00635695	0.00203466	0	5	0	
0.249167	0.119206	-0.0639201	0.00681582	0.00229154	0	5	0	
0.249333	-0.313909	0.135981	0.00648315	0.00236753	0	5	0	
0.2495	0.106012	-0.0645578	0.00658034	0.00257086	0	5	0	
0.249667	-0.298246	0.134448	0.00609275	0.00239628	0	5	0	
0.249833	0.0638121	-0.0552054	0.00614626	0.00240586	0	5	0	
0.25	-0.273073	0.104821	0.00572627	0.00214879	0	5	0	
0.250167	0.0867923	-0.0284575	0.00616281	0.00220625	0	5	0	
0.250333	-0.314432	0.12574	0.00612667	0.00220721	0	5	0	
0.2505	0.107865	-0.0691299	0.00668596	0.00258802	0	5	0	
0.250667	-0.31754	0.135445	0.00637334	0.00257402	0	5	0	
0.250833	0.107076	-0.053428	0.00668537	0.00264499	0	5	0	
0.251	-0.316381	0.122446	0.00630332	0.00231637	0	5	0	
0.251167	0.0973204	-0.0493368	0.0065153	0.00234878	0	5	0	
0.251333	-0.301431	0.123558	0.00604642	0.00214602	0	5	0	
0.2515	0.088497	-0.0469037	0.00632611	0.00225355	0	5	0	
0.251667	-0.315207	0.112472	0.00604874	0.00202858	0	5	0	
0.251833	0.107131	-0.0360136	0.0065354	0.00211657	0	5	0	
0.252	-0.319223	0.114823	0.00623452	0.00194333	0	5	0	
0.252167	0.105812	-0.0506146	0.00657221	0.00218224	0	5	0	
0.252333	-0.324024	0.128695	0.00617792	0.00212605	0	5	0	
0.2525	0.102871	-0.0461796	0.00649382	0.00232015	0	5	0	
0.252667	-0.302829	0.107275	0.00602741	0.00211049	0	5	0	
0.252833	0.0844135	-0.0405661	0.00628683	0.00233475	0	5	0	
0.253	-0.321091	0.133095	0.00596399	0.00228682	0	5	0	
0.253167	0.114024	-0.053579	0.00653096	0.00257141	0	5	0	
0.253333	-0.329227	0.136118	0.00626117	0.00239622	0	5	0	
0.2535	0.101192	-0.0633342	0.00658366	0.00253334	0	5	0	
0.253667	-0.316976	0.108031	0.00604547	0.00222591	0	5	0	
0.253833	0.101463	-0.0140226	0.0063827	0.00215225	0	5	0	
0.254	-0.327917	0.108779	0.00602921	0.00182118	0	5	0	
0.254167	0.0998434	-0.0348332	0.00645148	0.00197351	0	5	0	
0.254333	-0.319475	0.109514	0.00602515	0.00185204	0	5	0	
0.2545	0.108665	-0.0420817	0.00646564	0.00208988	0	5	0	
0.254667	-0.338229	0.115119	0.00612876	0.00193156	0	5	0	
0.254833	0.107704	-0.0342051	0.00657424	0.00217733	0	5	0	
0.255	-0.328961	0.129727	0.00610439	0.00205507	0	5	0	
0.255167	0.108658	-0.0696574	0.00648528	0.00236541	0	5	0	
0.255333	-0.336421	0.125829	0.00607918	0.00223926	0	5	0	
0.2555	0.112708	-0.0419069	0.00654925	0.00233589	0	5	0	
0.255667	-0.341554	0.140708	0.00613746	0.00211271	0	5	0	
0.255833	0.10749	-0.0620918	0.0065167	0.00230778	0	5	0	
0.256	-0.330322	0.10411	0.00596291	0.00208717	0	5	0	
0.256167	0.101313	-0.0346041	0.00634333	0.00215118	0	5	0	
0.256333	-0.338756	0.144091	0.00594589	0.00198114	0	5	0	
0.2565	0.114218	-0.0577885	0.00653901	0.00226257	0	5	0	
0.256667	-0.327399	0.114229	0.00607403	0.00209076	0	5	0	
0.256833	0.114942	-0.0679211	0.006458	0.00232091	0	5	0	
0.257	-0.350559	0.163115	0.00596694	0.00221733	0	5	0	
0.257167	0.10348	-0.0372504	0.00654516	0.00231938	0	5	0	
0.257333	-0.329644	0.0767408	0.00610476	0.0018169	0	5	0	
0.2575	0.118476	-0.0206424	0.00665724	0.0017999	0	5	0	
0.257667	-0.354561	0.124963	0.00617248	0.00184738	0	5	0	
0.257833	0.13056	-0.0748234	0.00669709	0.00246061	0	5	0	
0.258	-0.346605	0.17812	0.00612496	0.00260485	0	5	0	
0.258167	0.104904	-0.0982302	0.00649781	0.00291245	0	5	0	
0.258333	-0.329673	0.146875	0.00584422	0.00265759	0	5	0	
0.2585	0.0966707	-0.0543039	0.00621935	0.00257837	0	5	0	
0.258667	-0.336474	0.118613	0.00569102	0.00210666	0	5	0	
0.258833	0.111879	-0.0399427	0.00635421	0.00206146	0	5	0	
0.259	-0.339351	0.127513	0.00592338	0.00186765	0	5	0	
0.259167	0.118149	-0.0555895	0.00647414	0.00213359	0	5	0	
0.259333	-0.351698	0.115862	0.00600014	0.00196566	0	5	0	
0.2595	0.138182	-0.0422012	0.00660122	0.00219801	0	5	0	
0.259667	-0.369674	0.131651	0.00621617	0.00202375	0	5	0	
0.259833	0.115692	-0.0619946	0.00666884	0.00237176	0	5	0	
0.26	-0.338985	0.140063	0.0060134	0.0022281	0	5	0	
0.260167	0.115602	-0.075748	0.00634003	0.00252017	0	5	0	
0.260333	-0.352829	0.154763	0.00579954	0.00234846	0	5	0	
0.2605	0.12315	-0.0807652	0.00642368	0.00260392	0	5	0	
0.260667	-0.353452	0.148561	0.00601819	0.002363	0	5	0	
0.260833	0.117645	-0.0644219	0.0065529	0.00245822	0	5	0	
0.261	-0.352192	0.129655	0.00588507	0.0021317	0	5	0	
0.261167	0.106489	-0.0482467	0.0063351	0.00219619	0	5	0	
0.261333	-0.360216	0.114365	0.00576321	0.00187782	0	5	0	
0.2615	0.12339	-0.0298262	0.00652202	0.00200658	0	5	0	
0.261667	-0.36217	0.121628	0.00602144	0.00188136	0	5	0	
0.261833	0.138189	-0.0828948	0.00668244	0.00243139	0	5	0	
0.262	-0.379749	0.164403	0.00606872	0.00248561	0	5	0	
0.262167	0.127483	-0.0719234	0.00668268	0.00276841	0	5	0	
0.262333	-0.353897	0.145943	0.00597248	0.00237882	0	5	0	
0.2625	0.115463	-0.0711488	0.00645816	0.00246934	0	5	0	
0.262667	-0.362477	0.133662	0.00580726	0.00216041	0	5	0	
0.262833	0.125811	-0.0444718	0.00649587	0.00222954	0	5	0	
0.263	-0.363048	0.120278	0.00590713	0.00186941	0	5	0	
0.263167	0.126681	-0.0518739	0.00653873	0.0020651	0	5	0	
0.263333	-0.365823	0.135941	0.00591269	0.00193587	0	5	0	
0.2635	0.129076	-0.0692739	0.00656321	0.00235009	0	5	0	
0.263667	-0.372614	0.147199	0.00596768	0.0022045	0	5	0	
0.263833	0.137472	-0.0667937	0.00659745	0.00248239	0	5	0	
0.264	-0.376355	0.137461	0.00599831	0.00216726	0	5	0	
0.264167	0.111688	-0.0508351	0.00656774	0.00230697	0	5	0	
0.264333	-0.359836	0.117785	0.00580975	0.00187774	0	5	0	
0.2645	0.12573	-0.0489594	0.00641704	0.00200007	0	5	0	
0.264667	-0.375738	0.115281	0.00583702	0.0016716	0	5	0	
0.264833	0.139927	-0.0306118	0.00667796	0.00190496	0	5	0	
0.265	-0.390088	0.124475	0.00606416	0.00167308	0	5	0	
0.265167	0.148837	-0.0828164	0.00680467	0.00216311	0	5	0	
0.265333	-0.366438	0.157648	0.00607707	0.00214541	0	5	0	
0.2655	0.127692	-0.0595904	0.00667772	0.00247098	0	5	0	
0.265667	-0.378786	0.132202	0.00594661	0.00207419	0	5	0	
0.265833	0.158294	-0.0852334	0.00677416	0.00233212	0	5	0	
0.266	-0.397742	0.148425	0.00622078	0.00217325	0	5	0	
0.266167	0.147291	-0.0366377	0.00695437	0.00234109	0	5	0	
0.266333	-0.357865	0.102183	0.00610147	0.00183831	0	5	0	
0.2665	0.150628	-0.0572008	0.00667096	0.00204714	0	5	0	
0.266667	-0.377072	0.151372	0.0059195	0.00194052	0	5	0	
0.266833	0.127774	-0.0716508	0.0065731	0.00235655	0	5	0	
0.267	-0.36146	0.12245	0.00584614	0.00204354	0	5	0	
0.267167	0.140445	-0.0541428	0.00656491	0.00221357	0	5	0	
0.267333	-0.385632	0.143754	0.00596645	0.00194584	0	5	0	
0.2675	0.14513	-0.062092	0.00678812	0.00218356	0	5	0	
0.267667	-0.383856	0.118056	0.00606792	0.00190749	0	5	0	
0.267833	0.160252	-0.0683714	0.00683814	0.00215319	0	5	0	
0.268	-0.400025	0.157007	0.00616254	0.00203095	0	5	0	
0.268167	0.154579	-0.0726757	0.00685157	0.00240185	0	5	0	
0.268333	-0.377742	0.128799	0.00599631	0.00215009	0	5	0	
0.2685	0.129796	-0.0660684	0.00654285	0.00232724	0	5	0	
0.268667	-0.382369	0.14749	0.00577735	0.00204089	0	5	0	
0.268833	0.146044	-0.0792387	0.00657438	0.00239329	0	5	0	
0.269	-0.387873	0.141413	0.00592461	0.0021494	0	5	0	
0.269167	0.178506	-0.0490883	0.00677636	0.00229449	0	5	0	
0.269333	-0.440279	0.113108	0.00627033	0.00181618	0	5	0	
0.2695	0.159717	-0.0686747	0.00707846	0.00205623	0	5	0	
0.269667	-0.374234	0.142407	0.00617057	0.00188751	0	5	0	
0.269833	0.125603	-0.0642047	0.00647331	0.00228663	0	5	0	
0.27	-0.372006	0.140526	0.00550952	0.00199499	0	5	0	
0.270167	0.150976	-0.07732	0.00634123	0.00230441	0	5	0	
0.270333	-0.409286	0.138869	0.00589145	0.00204983	0	5	0	
0.2705	0.170176	-0.0665257	0.00697269	0.00233589	0	5	0	
0.270667	-0.407595	0.131481	0.00625476	0.00198829	0	5	0	
0.270833	0.163097	-0.0770476	0.00691742	0.00230056	0	5	0	
0.271	-0.405111	0.164314	0.00601031	0.00213278	0	5	0	
0.271167	0.17943	-0.0853003	0.00680299	0.00254089	0	5	0	
0.271333	-0.40035	0.12198	0.00602882	0.00221807	0	5	0	
0.2715	0.146938	-0.0540451	0.00664295	0.00230418	0	5	0	
0.271667	-0.363936	0.140899	0.00564231	0.00188767	0	5	0	
0.271833	0.131601	-0.0662929	0.00627885	0.00216672	0	5	0	
0.272	-0.384529	0.120979	0.00557354	0.00190052	0	5	0	
0.272167	0.182868	-0.0569986	0.0066933	0.00218705	0	5	0	
0.272333	-0.441948	0.135191	0.00627765	0.00187194	0	5	0	
0.2725	0.209379	-0.0851557	0.00736235	0.00235553	0	5	0	
0.272667	-0.408415	0.167086	0.00650231	0.00222935	0	5	0	
0.272833	0.130178	-0.0758392	0.00682244	0.00262114	0	5	0	
0.273	-0.352774	0.130121	0.00552913	0.0021862	0	5	0	
0.273167	0.150436	-0.0879442	0.00617012	0.00241569	0	5	0	
0.273333	-0.405613	0.146726	0.00561659	0.00209918	0	5	0	
0.2735	0.163998	-0.0387507	0.00674797	0.0022902	0	5	0	
0.273667	-0.401917	0.109145	0.0059607	0.00175258	0	5	0	
0.273833	0.176373	-0.0746742	0.00680294	0.00203404	0	5	0	
0.274	-0.394654	0.14773	0.00587284	0.0019047	0	5	0	
0.274167	0.155615	-0.0820449	0.00666942	0.00246928	0	5	0	
0.274333	-0.396457	0.14549	0.00573858	0.00216537	0	5	0	
0.2745	0.176777	-0.0721691	0.00669979	0.00244922	0	5	0	
0.274667	-0.406576	0.141616	0.00592719	0.00205836	0	5	0	
0.274833	0.170552	-0.0839837	0.00680269	0.00238434	0	5	0	
0.275	-0.399213	0.131315	0.00582832	0.00205361	0	5	0	
0.275167	0.16903	-0.0567529	0.00666286	0.00227691	0	5	0	
0.275333	-0.393412	0.132453	0.00576779	0.0018363	0	5	0	
0.2755	0.159452	-0.0793103	0.00662897	0.00216457	0	5	0	
0.275667	-0.39281	0.139787	0.00567075	0.00194012	0	5	0	
0.275833	0.164076	-0.0727801	0.00660187	0.00234159	0	5	0	
0.276	-0.400917	0.13723	0.00568793	0.00199056	0	5	0	
0.276167	0.180188	-0.0800748	0.00672823	0.00234062	0	5	0	
0.276333	-0.407212	0.145749	0.00583464	0.00204542	0	5	0	
0.2765	0.184014	-0.0752506	0.00685984	0.00241138	0	5	0	
0.276667	-0.408382	0.136343	0.00590685	0.00203901	0	5	0	
0.276833	0.180205	-0.082806	0.00683642	0.00238615	0	5	0	
0.277	-0.398433	0.148666	0.00580695	0.00207957	0	5	0	
0.277167	0.172825	-0.0920015	0.00671656	0.00252488	0	5	0	
0.277333	-0.397167	0.154608	0.00571252	0.00222713	0	5	0	
0.2775	0.181616	-0.0766664	0.00673896	0.00254131	0	5	0	
0.277667	-0.404083	0.132574	0.00579316	0.00208557	0	5	0	
0.277833	0.182082	-0.0757213	0.00679774	0.00232432	0	5	0	
0.278	-0.397527	0.127433	0.00579366	0.00191858	0	5	0	
0.278167	0.177877	-0.0593371	0.00675142	0.00219639	0	5	0	
0.278333	-0.39791	0.133631	0.00574002	0.00180895	0	5	0	
0.2785	0.175302	-0.0901539	0.00668967	0.00227643	0	5	0	
0.278667	-0.402232	0.154236	0.00569668	0.00208596	0	5	0	
0.278833	0.185198	-0.0905988	0.00672788	0.0025668	0	5	0	
0.279	-0.404208	0.135588	0.00576917	0.00217307	0	5	0	
0.279167	0.199617	-0.0732877	0.00690957	0.00241547	0	5	0	
0.279333	-0.425386	0.146489	0.00600322	0.00200217	0	5	0	
0.2795	0.197818	-0.093164	0.00704866	0.00238379	0	5	0	
0.279667	-0.388745	0.132735	0.00587607	0.00209338	0	5	0	
0.279833	0.178278	-0.0734713	0.00668658	0.00241341	0	5	0	
0.28	-0.382424	0.15381	0.00554492	0.00202455	0	5	0	
0.280167	0.165054	-0.0936954	0.00650721	0.00241085	0	5	0	
0.280333	-0.387033	0.0976935	0.00551641	0.00205398	0	5	0	
0.2805	0.217188	-0.0129002	0.00673767	0.00207234	0	5	0	
0.280667	-0.429507	0.0649065	0.00595685	0.00178385	0	5	0	
0.280833	0.202542	-0.0854226	0.00707445	0.00243375	0	5	0	
0.281	-0.388543	0.176211	0.00590859	0.00275483	0	5	0	
0.281167	0.182219	-0.110716	0.00668212	0.00321726	0	5	0	
0.281333	-0.390969	0.166189	0.00557386	0.00277133	0	5	0	
0.2815	0.196042	-0.108691	0.00662819	0.00289978	0	5	0	
0.281667	-0.414623	0.0800132	0.00575341	0.00229818	0	5	0	
0.281833	0.210806	-0.00712686	0.00690597	0.00197172	0	5	0	
0.282	-0.411953	0.0969842	0.00592688	0.00121198	0	5	0	
0.282167	0.196023	-0.0637317	0.00692127	0.00141624	0	5	0	
0.282333	-0.40039	0.106794	0.00578676	0.0014218	0	5	0	
0.2825	0.196768	-0.0545914	0.00676694	0.00186466	0	5	0	
0.282667	-0.406608	0.112285	0.0057029	0.00150304	0	5	0	
0.282833	0.217429	-0.0611446	0.00683807	0.00191273	0	5	0	
0.283	-0.41493	0.136074	0.00588079	0.00171197	0	5	0	
0.283167	0.203175	-0.103307	0.00695126	0.00237261	0	5	0	
0.283333	-0.397068	0.153518	0.00580861	0.00218572	0	5	0	
0.2835	0.199261	-0.0976515	0.0067585	0.00266294	0	5	0	
0.283667	-0.41217	0.139763	0.00569568	0.00220797	0	5	0	
0.283833	0.230996	-0.07611	0.0069276	0.00247021	0	5	0	
0.284	-0.416726	0.14129	0.00601623	0.00198731	0	5	0	
0.284167	0.222354	-0.103371	0.00713583	0.00239643	0	5	0	
0.284333	-0.41054	0.138864	0.00598504	0.00210918	0	5	0	
0.2845	0.199677	-0.0749075	0.00688604	0.00246645	0	5	0	
0.284667	-0.388372	0.119526	0.00568918	0.00192413	0	5	0	
0.284833	0.220044	-0.0689168	0.00680836	0.00214457	0	5	0	
0.285	-0.430839	0.131475	0.00590563	0.00173467	0	5	0	
0.285167	0.238908	-0.0957378	0.00722408	0.00225313	0	5	0	
0.285333	-0.413293	0.136947	0.0061427	0.0019848	0	5	0	
0.2855	0.226868	-0.0912412	0.0071918	0.00246345	0	5	0	
0.285667	-0.422227	0.153191	0.00602306	0.00208961	0	5	0	
0.285833	0.21335	-0.0910774	0.00706017	0.0024994	0	5	0	
0.286	-0.391616	0.114788	0.00581338	0.00206201	0	5	0	
0.286167	0.217596	-0.0806318	0.00686988	0.00233919	0	5	0	
0.286333	-0.413507	0.142555	0.00574634	0.00190586	0	5	0	
0.2865	0.216823	-0.091864	0.00695724	0.00235356	0	5	0	
0.286667	-0.398621	0.13554	0.0057748	0.00202548	0	5	0	
0.286833	0.213596	-0.0935591	0.00689681	0.00244064	0	5	0	
0.287	-0.410219	0.132709	0.00572668	0.00201053	0	5	0	
0.287167	0.230432	-0.0921562	0.00697744	0.00239983	0	5	0	
0.287333	-0.409285	0.1466	0.00584649	0.00201624	0	5	0	
0.2875	0.218069	-0.0943005	0.00699927	0.00245032	0	5	0	
0.287667	-0.401286	0.122222	0.00573986	0.00204801	0	5	0	
0.287833	0.21983	-0.0833785	0.00687588	0.00235857	0	5	0	
0.288	-0.40115	0.131047	0.00567918	0.00189221	0	5	0	
0.288167	0.220699	-0.0875528	0.00687913	0.00228908	0	5	0	
0.288333	-0.405539	0.141897	0.00568293	0.00194975	0	5	0	
0.2885	0.231	-0.113009	0.00693085	0.00250108	0	5	0	
0.288667	-0.416433	0.14714	0.00578653	0.00220005	0	5	0	
0.288833	0.23695	-0.0962157	0.00704144	0.00265177	0	5	0	
0.289	-0.398219	0.134736	0.00581928	0.00214887	0	5	0	
0.289167	0.204018	-0.091824	0.00684042	0.00247115	0	5	0	
0.289333	-0.376166	0.136841	0.00544302	0.00200735	0	5	0	
0.2895	0.20744	-0.100827	0.00652181	0.00244196	0	5	0	
0.289667	-0.393284	0.125951	0.00535357	0.00202501	0	5	0	
0.289833	0.234742	-0.0766008	0.00675227	0.0023676	0	5	0	
0.29	-0.414544	0.124768	0.00569371	0.00182937	0	5	0	
0.290167	0.238875	-0.0868471	0.00703918	0.00221648	0	5	0	
0.290333	-0.397964	0.123487	0.00579957	0.0018173	0	5	0	
0.2905	0.223788	-0.0981906	0.00691959	0.0023257	0	5	0	
0.290667	-0.390263	0.147146	0.00560449	0.00197802	0	5	0	
0.290833	0.226029	-0.098335	0.00675709	0.00249933	0	5	0	
0.291	-0.404682	0.123035	0.00557828	0.00207361	0	5	0	
0.291167	0.24042	-0.111872	0.00686701	0.00248813	0	5	0	
0.291333	-0.394887	0.195288	0.00569575	0.00224575	0	5	0	
0.2915	0.226988	-0.142597	0.00688201	0.00299337	0	5	0	
0.291667	-0.392599	0.129812	0.00559167	0.0028303	0	5	0	
0.291833	0.230654	-0.0812771	0.00677805	0.00299457	0	5	0	
0.292	-0.398458	0.129033	0.0055774	0.00222823	0	5	0	
0.292167	0.245659	-0.0936941	0.00690226	0.00234588	0	5	0	
0.292333	-0.402979	0.143842	0.00572568	0.00199701	0	5	0	
0.2925	0.24008	-0.119966	0.00699972	0.00260934	0	5	0	
0.292667	-0.399886	0.16242	0.00571117	0.00235439	0	5	0	
0.292833	0.24307	-0.137256	0.00693961	0.00297919	0	5	0	
0.293	-0.384183	0.159157	0.00563546	0.00257751	0	5	0	
0.293167	0.220854	-0.0896157	0.00680024	0.00290073	0	5	0	
0.293333	-0.389709	0.120904	0.00545597	0.00220086	0	5	0	
0.2935	0.262558	-0.119301	0.00684414	0.00249082	0	5	0	
0.293667	-0.418759	0.15895	0.00578363	0.00214397	0	5	0	
0.293833	0.257759	-0.113063	0.00722975	0.00274697	0	5	0	
0.294	-0.404738	0.159477	0.00593054	0.00240346	0	5	0	
0.294167	0.251358	-0.145953	0.00712669	0.00290924	0	5	0	
0.294333	-0.385248	0.153843	0.00573762	0.00265458	0	5	0	
0.2945	0.233753	-0.0788768	0.00689236	0.00298992	0	5	0	
0.294667	-0.389597	0.0684504	0.00551695	0.00235048	0	5	0	
0.294833	0.252782	-0.0274159	0.00684142	0.00210368	0	5	0	
0.295	-0.399285	0.0973831	0.00563424	0.00155234	0	5	0	
0.295167	0.251434	-0.12105	0.00700478	0.00206586	0	5	0	
0.295333	-0.384471	0.163673	0.00565826	0.00215821	0	5	0	
0.2955	0.249206	-0.129177	0.00692244	0.00286645	0	5	0	
0.295667	-0.405976	0.155971	0.00562896	0.00251942	0	5	0	
0.295833	0.267936	-0.123971	0.00704219	0.00294728	0	5	0	
0.296	-0.389174	0.131014	0.0057941	0.00242693	0	5	0	
0.296167	0.243546	-0.0898032	0.00702643	0.00266369	0	5	0	
0.296333	-0.385748	0.118101	0.00558123	0.00204762	0	5	0	
0.2965	0.256664	-0.104753	0.00683745	0.00235255	0	5	0	
0.296667	-0.382223	0.131173	0.00555389	0.00196702	0	5	0	
0.296833	0.259557	-0.0884202	0.00691593	0.00240443	0	5	0	
0.297	-0.406467	0.110213	0.00565038	0.0019071	0	5	0	
0.297167	0.282665	-0.107775	0.00708207	0.00228404	0	5	0	
0.297333	-0.37283	0.129849	0.00581647	0.00191333	0	5	0	
0.2975	0.238425	-0.0761517	0.006977	0.00236641	0	5	0	
0.297667	-0.368547	0.099933	0.00543611	0.00182639	0	5	0	
0.297833	0.25854	-0.0904752	0.00663633	0.00211718	0	5	0	
0.298	-0.385796	0.117746	0.00544361	0.0016615	0	5	0	
0.298167	0.290209	-0.107137	0.00699324	0.00225047	0	5	0	
0.298333	-0.413789	0.158433	0.00589125	0.00203156	0	5	0	
0.2985	0.279468	-0.147893	0.00730906	0.00277451	0	5	0	
0.298667	-0.373747	0.154867	0.00590869	0.00256632	0	5	0	
0.298833	0.261911	-0.110828	0.00702168	0.00302167	0	5	0	
0.299	-0.384141	0.112557	0.00560515	0.00243143	0	5	0	
0.299167	0.258981	-0.0844785	0.00685424	0.00254557	0	5	0	
0.299333	-0.373034	0.105044	0.00554827	0.00188479	0	5	0	
0.2995	0.256453	-0.0942507	0.00680639	0.00216211	0	5	0	
0.299667	-0.379026	0.126447	0.0054646	0.00175979	0	5	0	
0.299833	0.265432	-0.114994	0.00682196	0.00233695	0	5	0	
0.3	-0.376655	0.132414	0.00551417	0.00202598	0	5	0	
0.300167	0.275624	-0.117168	0.00693934	0.00256439	0	5	0	
0.300333	-0.401383	0.113584	0.00566584	0.00211987	0	5	0	
0.3005	0.285626	-0.0798889	0.00714697	0.00242818	0	5	0	
0.300667	-0.378933	0.104339	0.00581238	0.00186139	0	5	0	
0.300833	0.249093	-0.0993838	0.00704934	0.00217635	0	5	0	
0.301	-0.354732	0.101094	0.00543269	0.00180939	0	5	0	
0.301167	0.26724	-0.0850664	0.00668318	0.00219662	0	5	0	
0.301333	-0.374624	0.133252	0.00532202	0.00178334	0	5	0	
0.3015	0.276217	-0.133103	0.00685604	0.00234533	0	5	0	
0.301667	-0.38668	0.118082	0.00554863	0.00217545	0	5	0	
0.301833	0.293389	-0.0975731	0.00708079	0.00264471	0	5	0	
0.302	-0.379762	0.128745	0.00574458	0.00208335	0	5	0	
0.302167	0.268863	-0.123522	0.00709893	0.00244598	0	5	0	
0.302333	-0.354721	0.158823	0.00552571	0.00217177	0	5	0	
0.3025	0.277022	-0.147194	0.00682489	0.00286008	0	5	0	
0.302667	-0.361297	0.100618	0.00538199	0.00271103	0	5	0	
0.302833	0.271356	-0.0370439	0.00680757	0.00285065	0	5	0	
0.303	-0.359365	0.0729772	0.00536806	0.00187362	0	5	0	
0.303167	0.284029	-0.0917786	0.00683579	0.00177636	0	5	0	
0.303333	-0.392136	0.108273	0.00551399	0.00138557	0	5	0	
0.3035	0.308896	-0.127421	0.00716971	0.0021797	0	5	0	
0.303667	-0.383036	0.170303	0.00586413	0.00209912	0	5	0	
0.303833	0.289653	-0.137493	0.00730265	0.00288923	0	5	0	
0.304	-0.372058	0.11009	0.00575142	0.00257185	0	5	0	
0.304167	0.27754	-0.0939828	0.00708626	0.00278685	0	5	0	
0.304333	-0.358037	0.105269	0.005508	0.00203021	0	5	0	
0.3045	0.284604	-0.119925	0.00692344	0.00230223	0	5	0	
0.304667	-0.372615	0.135423	0.00544599	0.00194523	0	5	0	
0.304833	0.285766	-0.0902334	0.00702682	0.0024813	0	5	0	
0.305	-0.36759	0.0740701	0.00552841	0.00189802	0	5	0	
0.305167	0.295397	-0.127481	0.00705809	0.00231796	0	5	0	
0.305333	-0.369054	0.165405	0.00554935	0.00216907	0	5	0	
0.3055	0.2991	-0.15137	0.00712514	0.00297635	0	5	0	
0.305667	-0.377339	0.129533	0.00561891	0.00265948	0	5	0	
0.305833	0.315393	-0.135971	0.00723077	0.00290193	0	5	0	
0.306	-0.365488	0.128663	0.00574402	0.00236121	0	5	0	
0.306167	0.292006	-0.0817059	0.00721975	0.00266619	0	5	0	
0.306333	-0.342942	0.0454693	0.0055695	0.00186797	0	5	0	
0.3065	0.269029	-0.0766583	0.0068075	0.00188331	0	5	0	
0.306667	-0.329693	0.102901	0.00515624	0.00130521	0	5	0	
0.306833	0.306289	-0.107647	0.00663529	0.00193895	0	5	0	
0.307	-0.383791	0.118484	0.0054154	0.0017563	0	5	0	
0.307167	0.309071	-0.134903	0.00713442	0.002415	0	5	0	
0.307333	-0.342861	0.116939	0.00572717	0.00208994	0	5	0	
0.3075	0.29322	-0.104424	0.00700415	0.00258509	0	5	0	
0.307667	-0.344061	0.125458	0.00542914	0.00202276	0	5	0	
0.307833	0.297891	-0.132949	0.00678948	0.00249989	0	5	0	
0.308	-0.356642	0.0948624	0.00543763	0.00213847	0	5	0	
0.308167	0.314485	-0.100398	0.00693682	0.00255131	0	5	0	
0.308333	-0.359631	0.137278	0.00565552	0.00200423	0	5	0	
0.3085	0.284694	-0.131147	0.00702199	0.00248819	0	5	0	
0.308667	-0.326601	0.0906138	0.00547722	0.00219549	0	5	0	
0.308833	0.293542	-0.103442	0.00670409	0.00256407	0	5	0	
0.309	-0.349057	0.119362	0.00530042	0.00194279	0	5	0	
0.309167	0.30803	-0.113812	0.00681557	0.0023259	0	5	0	
0.309333	-0.363586	0.101365	0.00554923	0.00194672	0	5	0	
0.3095	0.311182	-0.111973	0.00706341	0.0024022	0	5	0	
0.309667	-0.347444	0.10057	0.00567473	0.00189811	0	5	0	
0.309833	0.296444	-0.0947916	0.00702949	0.0022843	0	5	0	
0.31	-0.349416	0.0997753	0.00552122	0.00175912	0	5	0	
0.310167	0.314381	-0.119336	0.00694974	0.00222193	0	5	0	
0.310333	-0.355112	0.115024	0.00557931	0.00185226	0	5	0	
0.3105	0.306941	-0.12731	0.00707527	0.00245827	0	5	0	
0.310667	-0.351672	0.13149	0.00561486	0.00210064	0	5	0	
0.310833	0.314224	-0.129325	0.00705751	0.00267573	0	5	0	
0.311	-0.344767	0.102211	0.00561962	0.00228882	0	5	0	
0.311167	0.303468	-0.0973485	0.00704749	0.00262849	0	5	0	
0.311333	-0.339792	0.0755958	0.0055321	0.00196629	0	5	0	
0.3115	0.308144	-0.0763112	0.00693439	0.00209566	0	5	0	
0.311667	-0.347823	0.0807603	0.00549235	0.00145202	0	5	0	
0.311833	0.32223	-0.103899	0.00702766	0.00185644	0	5	0	
0.312	-0.34587	0.111809	0.00564138	0.00157006	0	5	0	
0.312167	0.303069	-0.132404	0.00708779	0.00228464	0	5	0	
0.312333	-0.328242	0.11851	0.00552282	0.00200678	0	5	0	
0.3125	0.311895	-0.128877	0.00688862	0.00258082	0	5	0	
0.312667	-0.340286	0.111545	0.00542395	0.00225678	0	5	0	
0.312833	0.320307	-0.103458	0.0069657	0.00273152	0	5	0	
0.313	-0.348749	0.0795996	0.00557492	0.0022843	0	5	0	
0.313167	0.326019	-0.086874	0.00710955	0.00246635	0	5	0	
0.313333	-0.327069	0.0541896	0.00566938	0.00197147	0	5	0	
0.3135	0.300057	-0.0669273	0.00703304	0.002085	0	5	0	
0.313667	-0.330859	0.0940667	0.00544414	0.00154985	0	5	0	
0.313833	0.342663	-0.151962	0.0069191	0.00203073	0	5	0	
0.314	-0.357852	0.14962	0.00567937	0.00202745	0	5	0	
0.314167	0.323671	-0.160302	0.00724221	0.00294293	0	5	0	
0.314333	-0.305717	0.125683	0.00582959	0.00268039	0	5	0	
0.3145	0.282085	-0.11353	0.00695243	0.00305871	0	5	0	
0.314667	-0.308987	0.0847091	0.00530036	0.00239837	0	5	0	
0.314833	0.309286	-0.103488	0.00654443	0.00254069	0	5	0	
0.315	-0.323862	0.0942651	0.00521145	0.0019218	0	5	0	
0.315167	0.338086	-0.111593	0.00680039	0.00226809	0	5	0	
0.315333	-0.368682	0.0941893	0.00563037	0.00182045	0	5	0	
0.3155	0.32854	-0.10797	0.0072776	0.00227104	0	5	0	
0.315667	-0.320195	0.0827672	0.0059482	0.00179628	0	5	0	
0.315833	0.324601	-0.102074	0.00721771	0.00221182	0	5	0	
0.316	-0.341801	0.0828507	0.00566804	0.00167995	0	5	0	
0.316167	0.324184	-0.112057	0.00707766	0.00209452	0	5	0	
0.316333	-0.319134	0.129744	0.00563282	0.0017774	0	5	0	
0.3165	0.328596	-0.155788	0.00705274	0.0025208	0	5	0	
0.316667	-0.316282	0.101797	0.00553122	0.00238431	0	5	0	
0.316833	0.289524	-0.0913968	0.0068629	0.0027993	0	5	0	
0.317	-0.271516	0.0640376	0.00517904	0.00209356	0	5	0	
0.317167	0.319	-0.095346	0.00646387	0.00213992	0	5	0	
0.317333	-0.332609	0.0888819	0.00506454	0.00154365	0	5	0	
0.3175	0.333085	-0.115431	0.00677778	0.0020317	0	5	0	
0.317667	-0.307218	0.0982911	0.00549129	0.00173942	0	5	0	
0.317833	0.366372	-0.11723	0.00704916	0.00232207	0	5	0	
0.318	-0.365051	0.0629568	0.00585912	0.00204226	0	5	0	
0.318167	0.287391	-0.0312804	0.00746259	0.00226377	0	5	0	
0.318333	-0.200183	0.0331909	0.0061798	0.00150801	0	5	0	
0.3185	0.304741	-0.16845	0.0069827	0.00180772	0	5	0	
0.318667	-0.399936	0.179891	0.00552646	0.00192228	0	5	0	
0.318833	0.430082	-0.143557	0.00733406	0.0030957	0	5	0	
0.319	-0.346546	0.110257	0.00700152	0.00293584	0	5	0	
0.319167	0.334318	-0.155223	0.00855347	0.00326594	0	5	0	
0.319333	-0.334925	0.0711647	0.00673291	0.00277382	0	5	0	
0.3195	0.362664	-0.052152	0.00766181	0.00290294	0	5	0	
0.319667	-0.348348	0.077253	0.00614899	0.00198088	0	5	0	
0.319833	0.427343	-0.14129	0.00780597	0.00203603	0	5	0	
0.32	-0.408105	0.0595637	0.00660833	0.00190533	0	5	0	
0.320167	0.414353	-0.0572976	0.00842379	0.00244094	0	5	0	
0.320333	-0.327222	0.0975915	0.00701089	0.00195573	0	5	0	
0.3205	0.292907	-0.193146	0.00796085	0.00230496	0	5	0	
0.320667	-0.257388	0.146824	0.00586299	0.00236489	0	5	0	
0.320833	0.3291	-0.160234	0.00672491	0.00322319	0	5	0	
0.321	-0.337536	0.129517	0.00521863	0.00297169	0	5	0	
0.321167	0.381457	-0.124945	0.00704109	0.00335955	0	5	0	
0.321333	-0.300158	0.0581037	0.005915	0.00279043	0	5	0	
0.3215	0.316829	-0.0845713	0.00736142	0.00273788	0	5	0	
0.321667	-0.302279	0.0751163	0.00555813	0.00185942	0	5	0	
0.321833	0.359543	-0.132876	0.00689128	0.00205713	0	5	0	
0.322	-0.319275	0.122779	0.00556014	0.00183596	0	5	0	
0.322167	0.336593	-0.161571	0.00724233	0.00264649	0	5	0	
0.322333	-0.279805	0.107117	0.00570283	0.00249311	0	5	0	
0.3225	0.354689	-0.0932378	0.00708916	0.00294401	0	5	0	
0.322667	-0.309084	0.0516312	0.00561945	0.00227836	0	5	0	
0.322833	0.322525	-0.10892	0.00712562	0.00229088	0	5	0	
0.323	-0.27645	0.0887744	0.0055065	0.00169719	0	5	0	
0.323167	0.357539	-0.137443	0.00683716	0.00219617	0	5	0	
0.323333	-0.302265	0.12159	0.00538803	0.00202439	0	5	0	
0.3235	0.35869	-0.15597	0.0070833	0.00273387	0	5	0	
0.323667	-0.318152	0.100423	0.00573857	0.00250973	0	5	0	
0.323833	0.354248	-0.132353	0.00725958	0.00298157	0	5	0	
0.324	-0.285365	0.0856478	0.00576244	0.00234709	0	5	0	
0.324167	0.352011	-0.134145	0.00714443	0.00245822	0	5	0	
0.324333	-0.293355	0.123739	0.00562953	0.00199316	0	5	0	
0.3245	0.339153	-0.150399	0.00705607	0.00258628	0	5	0	
0.324667	-0.273267	0.095432	0.0055502	0.00235081	0	5	0	
0.324833	0.349487	-0.128577	0.00693082	0.00271444	0	5	0	
0.325	-0.303099	0.0745009	0.00549143	0.00203598	0	5	0	
0.325167	0.354822	-0.110773	0.00703599	0.00223045	0	5	0	
0.325333	-0.284814	0.0919465	0.00564178	0.00175371	0	5	0	
0.3255	0.356705	-0.143668	0.00711206	0.00230993	0	5	0	
0.325667	-0.286577	0.0935076	0.00561162	0.00197303	0	5	0	
0.325833	0.343416	-0.129991	0.0070494	0.00246917	0	5	0	
0.326	-0.273451	0.0861356	0.00552237	0.00205039	0	5	0	
0.326167	0.351865	-0.116739	0.00691376	0.0025209	0	5	0	
0.326333	-0.288406	0.0704046	0.00543648	0.00198937	0	5	0	
0.3265	0.359251	-0.124986	0.00698193	0.00233367	0	5	0	
0.326667	-0.273476	0.088926	0.00559802	0.00182983	0	5	0	
0.326833	0.356529	-0.141685	0.00706359	0.00247705	0	5	0	
0.327	-0.30303	0.0552438	0.0056238	0.00231758	0	5	0	
0.327167	0.36946	-0.0728281	0.00718502	0.0026865	0	5	0	
0.327333	-0.256575	0.0604183	0.00580952	0.00184149	0	5	0	
0.3275	0.338869	-0.137371	0.00711538	0.00196084	0	5	0	
0.327667	-0.281781	0.0819734	0.00544587	0.00169727	0	5	0	
0.327833	0.372205	-0.142447	0.00687267	0.00251252	0	5	0	
0.328	-0.277587	0.0983672	0.0055834	0.00219957	0	5	0	
0.328167	0.360804	-0.133528	0.00711624	0.00273924	0	5	0	
0.328333	-0.290243	0.0482232	0.00561735	0.00241058	0	5	0	
0.3285	0.368854	-0.0929378	0.00710701	0.00269438	0	5	0	
0.328667	-0.241436	0.0787676	0.00577065	0.00197294	0	5	0	
0.328833	0.319083	-0.158122	0.00706843	0.00226661	0	5	0	
0.329	-0.248825	0.092232	0.00530652	0.00201185	0	5	0	
0.329167	0.356433	-0.126013	0.00653197	0.00268715	0	5	0	
0.329333	-0.276131	0.0783824	0.00521357	0.0022166	0	5	0	
0.3295	0.381876	-0.127849	0.00692769	0.00258067	0	5	0	
0.329667	-0.293092	0.0573054	0.00571162	0.00209987	0	5	0	
0.329833	0.375883	-0.0942034	0.00738095	0.00233894	0	5	0	
0.33	-0.247362	0.0810778	0.006044	0.00177303	0	5	0	
0.330167	0.347692	-0.145306	0.00732526	0.00213438	0	5	0	
0.330333	-0.274001	0.0878432	0.00567786	0.00187102	0	5	0	
0.3305	0.385958	-0.165814	0.00703711	0.00251265	0	5	0	
0.330667	-0.268468	0.155891	0.00585351	0.00236852	0	5	0	
0.330833	0.350153	-0.136035	0.00736872	0.00318902	0	5	0	
0.331	-0.251326	-0.00502453	0.00583474	0.00316587	0	5	0	
0.331167	0.366849	-0.0633599	0.00704666	0.0029339	0	5	0	
0.331333	-0.246988	0.0726556	0.0055995	0.00187431	0	5	0	
0.3315	0.368359	-0.124735	0.00703275	0.00172318	0	5	0	
0.331667	-0.291918	0.0832399	0.00570097	0.00164838	0	5	0	
0.331833	0.393962	-0.167793	0.00726793	0.00232173	0	5	0	
0.332	-0.253728	0.126716	0.00609884	0.00218679	0	5	0	
0.332167	0.346428	-0.152926	0.00743623	0.00293159	0	5	0	
0.332333	-0.246231	0.0724035	0.00573661	0.002722	0	5	0	
0.3325	0.387438	-0.103268	0.00694915	0.00297579	0	5	0	
0.332667	-0.282696	0.0569294	0.00568377	0.00224958	0	5	0	
0.332833	0.377033	-0.114719	0.00735317	0.00231066	0	5	0	
0.333	-0.236467	0.0628831	0.00600227	0.00180765	0	5	0	
0.333167	0.359975	-0.117554	0.00720192	0.00217742	0	5	0	
0.333333	-0.258934	0.0743644	0.00562398	0.00180222	0	5	0	
0.3335	0.368262	-0.132438	0.00701709	0.0022577	0	5	0	
0.333667	-0.241081	0.0851925	0.00569813	0.00195394	0	5	0	
0.333833	0.373488	-0.131795	0.00711654	0.00248658	0	5	0	
0.334	-0.235576	0.071732	0.00566303	0.00213587	0	5	0	
0.334167	0.361467	-0.138565	0.00703623	0.00252929	0	5	0	
0.334333	-0.22812	0.0911333	0.00552843	0.00214528	0	5	0	
0.3345	0.358801	-0.124985	0.00678261	0.00261925	0	5	0	
0.334667	-0.23896	0.06229	0.00530106	0.0023099	0	5	0	
0.334833	0.380285	-0.110949	0.00678021	0.00263696	0	5	0	
0.335	-0.24563	0.0258069	0.00553695	0.00220447	0	5	0	
0.335167	0.380414	-0.0717607	0.00711375	0.00225192	0	5	0	
0.335333	-0.239615	0.0550749	0.00576413	0.00168668	0	5	0	
0.3355	0.388966	-0.154721	0.00716226	0.00190714	0	5	0	
0.335667	-0.248893	0.132534	0.00593266	0.00197332	0	5	0	
0.335833	0.347161	-0.197417	0.0073756	0.00281773	0	5	0	
0.336	-0.204405	0.126083	0.00599262	0.00281427	0	5	0	
0.336167	0.355787	-0.141595	0.00702095	0.00328918	0	5	0	
0.336333	-0.230426	0.0302175	0.00549219	0.00279916	0	5	0	
0.3365	0.359398	-0.0627491	0.00673186	0.00258371	0	5	0	
0.336667	-0.23873	0.0288737	0.00543663	0.00155448	0	5	0	
0.336833	0.385004	-0.11249	0.00691187	0.00152605	0	5	0	
0.337	-0.265133	0.0644975	0.00567678	0.00139496	0	5	0	
0.337167	0.408151	-0.112812	0.00723926	0.00215974	0	5	0	
0.337333	-0.274721	0.0277971	0.00609424	0.0021347	0	5	0	
0.3375	0.401583	-0.0689232	0.00765238	0.00241799	0	5	0	
0.337667	-0.246691	0.0280833	0.00640203	0.00185252	0	5	0	
0.337833	0.330102	-0.106878	0.00761421	0.00188599	0	5	0	
0.338	-0.141951	0.0750799	0.00615231	0.00156239	0	5	0	
0.338167	0.303543	-0.165501	0.00681928	0.00213501	0	5	0	
0.338333	-0.235155	0.12102	0.00505013	0.00217127	0	5	0	
0.3385	0.388186	-0.16605	0.00621089	0.00298303	0	5	0	
0.338667	-0.217558	0.0907394	0.00519591	0.00288677	0	5	0	
0.338833	0.372835	-0.145588	0.00683751	0.00331915	0	5	0	
0.339	-0.24907	0.0715517	0.00575713	0.00287483	0	5	0	
0.339167	0.37684	-0.125433	0.00736711	0.00315689	0	5	0	
0.339333	-0.218396	0.0384359	0.00600509	0.00269671	0	5	0	
0.3395	0.391977	-0.0994061	0.00711245	0.00274643	0	5	0	
0.339667	-0.264536	0.0517757	0.00577399	0.00201287	0	5	0	
0.339833	0.391096	-0.14979	0.00747492	0.00220746	0	5	0	
0.34	-0.190685	0.079431	0.00653688	0.00195804	0	5	0	
0.340167	0.314235	-0.138137	0.00755771	0.00256006	0	5	0	
0.340333	-0.192291	0.0751209	0.00552193	0.00225765	0	5	0	
0.3405	0.405467	-0.150821	0.00643896	0.00266745	0	5	0	
0.340667	-0.224926	0.0618016	0.00547473	0.00238932	0	5	0	
0.340833	0.351875	-0.102933	0.00717791	0.00275307	0	5	0	
0.341	-0.237993	0.0516109	0.00578751	0.00213944	0	5	0	
0.341167	0.39512	-0.154199	0.00699925	0.00227883	0	5	0	
0.341333	-0.17944	0.0719564	0.00588362	0.0019772	0	5	0	
0.3415	0.353934	-0.10886	0.00725114	0.00258222	0	5	0	
0.341667	-0.23079	0.038298	0.00577024	0.00222208	0	5	0	
0.341833	0.38495	-0.118257	0.00703266	0.00230743	0	5	0	
0.342	-0.202214	0.0736319	0.00597066	0.0017687	0	5	0	
0.342167	0.359343	-0.151025	0.00729455	0.00221688	0	5	0	
0.342333	-0.217403	0.0806001	0.00587418	0.0020961	0	5	0	
0.3425	0.386101	-0.153003	0.00710862	0.00270228	0	5	0	
0.342667	-0.209904	0.0664655	0.00596737	0.00247639	0	5	0	
0.342833	0.362748	-0.101553	0.00727577	0.00283299	0	5	0	
0.343	-0.194802	0.0304311	0.00583483	0.00231776	0	5	0	
0.343167	0.366348	-0.104793	0.0069076	0.00234639	0	5	0	
0.343333	-0.210038	0.0478076	0.00551558	0.00180751	0	5	0	
0.3435	0.377355	-0.115335	0.00682937	0.00206578	0	5	0	
0.343667	-0.200617	0.0578953	0.00568805	0.00176852	0	5	0	
0.343833	0.352732	-0.123434	0.00701179	0.00218787	0	5	0	
0.344	-0.177074	0.0588869	0.00564859	0.00188386	0	5	0	
0.344167	0.360847	-0.13236	0.00674245	0.00230065	0	5	0	
0.344333	-0.189693	0.0712178	0.00544435	0.00202581	0	5	0	
0.3445	0.36128	-0.131475	0.00676387	0.00252684	0	5	0	
0.344667	-0.17644	0.0536235	0.00556396	0.0023037	0	5	0	
0.344833	0.377489	-0.118651	0.00686019	0.00263186	0	5	0	
0.345	-0.190831	0.0596719	0.00563069	0.00218031	0	5	0	
0.345167	0.364233	-0.12026	0.00686596	0.00244462	0	5	0	
0.345333	-0.196985	0.0355358	0.00562497	0.00216237	0	5	0	
0.3455	0.381108	-0.0993842	0.00693544	0.00240658	0	5	0	
0.345667	-0.192155	0.0447381	0.0058006	0.00185582	0	5	0	
0.345833	0.395021	-0.122063	0.00707001	0.00201762	0	5	0	
0.346	-0.208064	0.0584128	0.00585992	0.00170773	0	5	0	
