0	0.000409025	-0.00303587	4.09025E-08	3.03587E-07	0	0	0	
0.000166667	-0.0013312	0.0127807	6.09124E-06	3.88676E-05	0	0	0	
0.000333333	0.00298197	-0.021525	2.86354E-05	0.000161331	0	0	0	
0.0005	-0.00198261	0.0236755	4.57784E-05	0.000330011	0	0	0	
0.000666667	-0.00114376	-0.0166913	5.06159E-05	0.000460258	0	0	0	
0.000833333	0.00236653	0.0115802	4.23173E-05	0.000483201	0	0	0	
0.001	-0.0011026	-0.0119274	4.18537E-05	0.00043349	0	0	0	
0.00116667	0.000223717	0.0212515	4.83722E-05	0.000384493	0	0	0	
0.00133333	0.000438624	-0.0275332	4.75988E-05	0.000406654	0	0	0	
0.0015	-0.00116858	0.0326748	4.31983E-05	0.000465269	0	0	0	
0.00166667	-0.00153387	-0.0286733	4.60951E-05	0.000535841	0	0	0	
0.00183333	0.00113295	0.0319121	5.16036E-05	0.000549433	0	0	0	
0.002	0.00186958	-0.0282679	6.7259E-05	0.00055893	0	0	0	
0.00216667	-0.00490924	0.0267765	8.52815E-05	0.000549753	0	0	0	
0.00233333	0.0037664	-0.0259504	9.58145E-05	0.000532652	0	0	0	
0.0025	-0.00341475	0.0299647	9.356E-05	0.000509586	0	0	0	
0.00266667	-0.000309676	-0.0312848	7.27227E-05	0.000535333	0	0	0	
0.00283333	-0.0013201	0.0343907	5.45917E-05	0.000576905	0	0	0	
0.003	0.00415524	-0.0296093	5.54017E-05	0.000614598	0	0	0	
0.00316667	-0.00415258	0.0370028	7.18531E-05	0.000625425	0	0	0	
0.00333333	8.74219E-06	-0.0351316	7.48473E-05	0.000624699	0	0	0	
0.0035	0.00201619	0.0371148	5.33971E-05	0.00064792	0	0	0	
0.00366667	-0.00188134	-0.0376781	3.50763E-05	0.000675796	0	0	0	
0.00383333	-0.000515593	0.0372114	3.53097E-05	0.000711866	0	0	0	
0.004	0.000742881	-0.0350226	4.88353E-05	0.000728405	0	0	0	
0.00416667	0.000975137	0.0370723	6.11608E-05	0.000700167	0	0	0	
0.00433333	-0.000757834	-0.0326918	6.7032E-05	0.000678214	0	0	0	
0.0045	-0.000246814	0.0329518	5.13185E-05	0.000651697	0	0	0	
0.00466667	0.00133235	-0.0312134	2.90519E-05	0.000657995	0	0	0	
0.00483333	-0.00337405	0.0319059	2.80525E-05	0.000660113	0	0	0	
0.005	0.00535398	-0.031017	6.42041E-05	0.000656543	0	0	0	
0.00516667	-0.00539171	0.0319591	0.000103734	0.000617174	0	0	0	
0.00533333	0.00680872	-0.0345513	0.000141672	0.000620849	0	0	0	
0.0055	-0.00224203	0.0312469	0.000135777	0.000606734	0	0	0	
0.00566667	-0.00275392	-0.0328933	0.000102786	0.000639328	0	0	0	
0.00583333	0.00216606	0.0313452	6.33208E-05	0.000613403	0	0	0	
0.006	0.000892152	-0.0345162	4.26098E-05	0.000621733	0	0	0	
0.00616667	-0.00209963	0.0360674	5.00604E-05	0.000622605	0	0	0	
0.00633333	0.0020344	-0.0398749	6.76983E-05	0.000671632	0	0	0	
0.0065	0.000285591	0.0416057	7.57911E-05	0.000708591	0	0	0	
0.00666667	-0.00223887	-0.037728	6.28238E-05	0.0007526	0	0	0	
0.00683333	0.000345929	0.03147	4.64427E-05	0.000714503	0	0	0	
0.007	0.00206598	-0.0330409	5.17543E-05	0.000676687	0	0	0	
0.00716667	-0.00659947	0.0283459	8.96603E-05	0.000609378	0	0	0	
0.00733333	0.00712918	-0.0257615	0.000121733	0.000575989	0	0	0	
0.0075	-0.006132	0.0278434	0.000145347	0.000525554	0	0	0	
0.00766667	0.00394793	-0.0311474	0.000133409	0.000527487	0	0	0	
0.00783333	-0.00330818	0.034724	0.000105755	0.000554055	0	0	0	
0.008	0.00184781	-0.03551	7.64845E-05	0.000616222	0	0	0	
0.00816667	-0.00286566	0.0322977	6.01159E-05	0.000632735	0	0	0	
0.00833333	0.0014276	-0.0347231	5.15893E-05	0.000633039	0	0	0	
0.0085	-0.00144105	0.0376636	5.01087E-05	0.000654074	0	0	0	
0.00866667	-0.000189513	-0.0369484	5.78099E-05	0.000678237	0	0	0	
0.00883333	-0.000294663	0.035701	5.22875E-05	0.000699922	0	0	0	
0.009	0.00153808	-0.0309598	3.75121E-05	0.000657753	0	0	0	
0.00916667	-0.00240677	0.0260042	2.73445E-05	0.000599688	0	0	0	
0.00933333	0.00264222	-0.0307027	3.62159E-05	0.00055192	0	0	0	
0.0095	-0.00350697	0.0272495	5.08457E-05	0.000566803	0	0	0	
0.00966667	0.0029393	-0.0282516	5.98367E-05	0.000561032	0	0	0	
0.00983333	-0.00147642	0.0278922	6.71829E-05	0.000579981	0	0	0	
0.01	-0.000222859	-0.0317655	7.47533E-05	0.000559896	0	0	0	
0.0101667	0.0012699	0.0359567	7.72485E-05	0.000607631	0	0	0	
0.0103333	-0.000999901	-0.0390024	6.72539E-05	0.000651991	0	0	0	
0.0105	-4.02356E-05	0.0279012	4.76986E-05	0.000680306	0	0	0	
0.0106667	0.00497915	-0.0314396	3.81237E-05	0.000642383	0	0	0	
0.0108333	-0.00488448	0.0251599	5.6773E-05	0.000585685	0	0	0	
0.011	0.00234132	-0.029043	9.14041E-05	0.00055159	0	0	0	
0.0111667	-0.0017171	0.0341756	0.000115724	0.000570571	0	0	0	
0.0113333	0.00040912	-0.0388787	9.39257E-05	0.000623466	0	0	0	
0.0115	-0.00214962	0.0361692	6.14082E-05	0.000669998	0	0	0	
0.0116667	0.00494472	-0.0331301	4.87101E-05	0.000683018	0	0	0	
0.0118333	-0.00358712	0.0233591	7.13427E-05	0.00062193	0	0	0	
0.012	-0.00356166	-0.0143174	0.000120074	0.000509779	0	0	0	
0.0121667	0.00859767	0.0157726	0.000194867	0.000389787	0	0	0	
0.0123333	-0.0140347	-0.0299719	0.000206616	0.000377789	0	0	0	
0.0125	0.00441138	0.0410861	0.000299756	0.000522861	0	0	0	
0.0126667	0.0185536	-0.0429352	0.000436821	0.000720892	0	0	0	
0.0128333	-0.0221982	0.03751	0.00059085	0.000805697	0	0	0	
0.013	0.0143386	-0.0296454	0.000543882	0.000728122	0	0	0	
0.0131667	-0.0174498	0.0248613	0.000421131	0.000613047	0	0	0	
0.0133333	0.00637396	-0.0213498	0.000376112	0.000481333	0	0	0	
0.0135	0.0155803	0.0238927	0.000416662	0.000446619	0	0	0	
0.0136667	-0.0179141	-0.0276484	0.000383618	0.000429316	0	0	0	
0.0138333	0.0157379	0.034413	0.000403028	0.000527876	0	0	0	
0.014	-0.00791772	-0.0403865	0.000386352	0.000631454	0	0	0	
0.0141667	0.000712128	0.0343279	0.00033589	0.000706278	0	0	0	
0.0143333	0.00351046	-0.0298808	0.000170814	0.000684674	0	0	0	
0.0145	-0.00364659	0.033477	7.9876E-05	0.000640886	0	0	0	
0.0146667	0.00144567	-0.0308572	7.23971E-05	0.000637174	0	0	0	
0.0148333	0.000906288	0.0392757	7.70162E-05	0.000695455	0	0	0	
0.015	0.00202882	-0.0356359	4.9686E-05	0.000750319	0	0	0	
0.0151667	-0.00406713	0.03012	4.2676E-05	0.000714728	0	0	0	
0.0153333	0.00312881	-0.0286447	6.0211E-05	0.000656384	0	0	0	
0.0155	-0.00122966	0.0338543	7.9751E-05	0.000592064	0	0	0	
0.0156667	0.0031406	-0.025523	8.38316E-05	0.000589402	0	0	0	
0.0158333	-0.00714505	0.0313266	9.41119E-05	0.000565114	0	0	0	
0.016	0.00538104	-0.0343128	0.000109004	0.000600574	0	0	0	
0.0161667	-0.00312695	0.0449025	0.00011225	0.000679537	0	0	0	
0.0163333	-0.00224844	-0.0459177	0.000102226	0.000817312	0	0	0	
0.0165	0.00243374	0.0491131	8.47918E-05	0.000871975	0	0	0	
0.0166667	-0.000486963	-0.0399492	6.46834E-05	0.000862026	0	0	0	
0.0168333	-0.0015009	0.0365968	4.05003E-05	0.000814156	0	0	0	
0.017	-6.72505E-05	-0.0287007	4.55914E-05	0.000734137	0	0	0	
0.0171667	-0.00323167	0.0203783	6.72298E-05	0.000654424	0	0	0	
0.0173333	0.00513526	-0.019078	8.36107E-05	0.000533159	0	0	0	
0.0175	-0.00389487	0.0262295	8.63676E-05	0.00048306	0	0	0	
0.0176667	-0.000696094	-0.033491	7.80315E-05	0.000494789	0	0	0	
0.0178333	0.00157495	0.0354562	6.50556E-05	0.000586888	0	0	0	
0.018	0.00164099	-0.0346245	4.11702E-05	0.000644128	0	0	0	
0.0181667	-0.00352794	0.0335707	3.56626E-05	0.000663025	0	0	0	
0.0183333	0.0029826	-0.0314222	4.28905E-05	0.00062874	0	0	0	
0.0185	-0.00281873	0.0330775	5.50065E-05	0.000618867	0	0	0	
0.0186667	0.000357635	-0.0301415	5.15205E-05	0.000597082	0	0	0	
0.0188333	0.000542676	0.031446	4.02746E-05	0.000595389	0	0	0	
0.019	-9.01548E-05	-0.0281426	2.78993E-05	0.00059021	0	0	0	
0.0191667	-0.00150256	0.0307602	3.32996E-05	0.000579725	0	0	0	
0.0193333	-0.000425017	-0.0288756	4.74565E-05	0.000593372	0	0	0	
0.0195	0.000866179	0.0311188	6.49493E-05	0.000567586	0	0	0	
0.0196667	-0.00326031	-0.0355085	6.71011E-05	0.000608863	0	0	0	
0.0198333	-0.000305319	0.0321818	5.43497E-05	0.000619471	0	0	0	
0.02	0.00649096	-0.0295622	4.89649E-05	0.000629469	0	0	0	
0.0201667	-0.0070568	0.0309329	7.45492E-05	0.000579608	0	0	0	
0.0203333	0.00380445	-0.0322727	0.000102899	0.000575577	0	0	0	
0.0205	-0.0042262	0.0329697	0.000100776	0.000587172	0	0	0	
0.0206667	0.00184726	-0.03269	8.05186E-05	0.000640685	0	0	0	
0.0208333	-0.0035597	0.0322417	9.16653E-05	0.00062159	0	0	0	
0.021	0.00324448	-0.0379512	0.000104565	0.000641184	0	0	0	
0.0211667	-0.00455717	0.032251	0.000128665	0.000648703	0	0	0	
0.0213333	0.00485029	-0.0341287	0.000134971	0.00066219	0	0	0	
0.0215	-0.0016226	0.0278637	0.000126347	0.000670555	0	0	0	
0.0216667	0.00101039	-0.0244391	9.39806E-05	0.000643019	0	0	0	
0.0218333	-0.00503756	0.0234588	6.24015E-05	0.000642659	0	0	0	
0.022	0.00400522	-0.0281243	8.38841E-05	0.000634085	0	0	0	
0.0221667	0.000392631	0.0271292	7.95958E-05	0.000633748	0	0	0	
0.0223333	-0.00308853	-0.0269	7.46703E-05	0.000588953	0	0	0	
0.0225	-0.00087691	0.0240514	4.12443E-05	0.000545553	0	0	0	
0.0226667	0.00392509	-0.0239869	4.69288E-05	0.000486143	0	0	0	
0.0228333	-0.00318441	0.0217791	4.97057E-05	0.000469452	0	0	0	
0.023	0.0052498	-0.0213849	7.38725E-05	0.000419981	0	0	0	
0.0231667	-0.0101596	0.0169845	0.000100341	0.000389989	0	0	0	
0.0233333	0.00716667	-0.0227844	0.000140745	0.000375522	0	0	0	
0.0235	-0.00317379	0.0284185	0.000132906	0.000424948	0	0	0	
0.0236667	0.00118705	-0.0266443	0.000113962	0.00052618	0	0	0	
0.0238333	-0.00099523	0.0306226	6.55519E-05	0.000593647	0	0	0	
0.024	0.00204906	-0.0280343	5.15866E-05	0.000622072	0	0	0	
0.0241667	-0.00335189	0.0228846	4.75205E-05	0.000576453	0	0	0	
0.0243333	-0.00312383	-0.0240789	7.26248E-05	0.000524182	0	0	0	
0.0245	0.00345662	0.0211869	0.000103213	0.000454788	0	0	0	
0.0246667	0.00242502	-0.0227161	0.000100396	0.000444828	0	0	0	
0.0248333	-0.00329133	0.0279766	9.32072E-05	0.000482122	0	0	0	
0.025	0.00334628	-0.0276306	8.58239E-05	0.000568882	0	0	0	
0.0251667	-0.00503925	0.0299185	0.000101823	0.000597375	0	0	0	
0.0253333	0.00492116	-0.0292108	0.00010818	0.000595186	0	0	0	
0.0255	-0.00408791	0.0236099	0.000102408	0.000534007	0	0	0	
0.0256667	0.0026573	-0.0252702	8.75209E-05	0.00049294	0	0	0	
0.0258333	-0.00151826	0.021309	6.64197E-05	0.000472587	0	0	0	
0.026	0.00498359	-0.0187308	5.23209E-05	0.000469394	0	0	0	
0.0261667	-0.0047039	0.0284974	6.81183E-05	0.000487202	0	0	0	
0.0263333	0.00175853	-0.0330611	7.8591E-05	0.000549565	0	0	0	
0.0265	-0.0013434	0.0349674	8.10519E-05	0.000608191	0	0	0	
0.0266667	0.00153098	-0.0330534	6.7968E-05	0.000654527	0	0	0	
0.0268333	-0.0012369	0.0279225	5.54213E-05	0.000624178	0	0	0	
0.027	0.000824577	-0.0274271	4.12506E-05	0.00059194	0	0	0	
0.0271667	-0.000645913	0.0269113	2.45019E-05	0.000555473	0	0	0	
0.0273333	0.00151299	-0.0279924	1.89404E-05	0.000565753	0	0	0	
0.0275	-0.00286901	0.0279691	2.34407E-05	0.0005824	0	0	0	
0.0276667	0.00377213	-0.0278488	4.2001E-05	0.000614636	0	0	0	
0.0278333	-0.000952801	0.0312904	4.96525E-05	0.000614326	0	0	0	
0.028	-0.00216671	-0.0352566	4.80429E-05	0.000663628	0	0	0	
0.0281667	0.00255457	0.0299506	5.24509E-05	0.000672473	0	0	0	
0.0283333	9.78555E-05	-0.029811	5.60909E-05	0.000685356	0	0	0	
0.0285	-0.00167895	0.0228372	5.73912E-05	0.000616438	0	0	0	
0.0286667	0.0028472	-0.0267644	4.73246E-05	0.000571021	0	0	0	
0.0288333	-0.0028597	0.0259455	4.52916E-05	0.000531527	0	0	0	
0.029	0.00346728	-0.0257923	5.38156E-05	0.000555517	0	0	0	
0.0291667	-0.00340344	0.0239839	5.63034E-05	0.000574075	0	0	0	
0.0293333	0.00489446	-0.0284202	6.48172E-05	0.000598214	0	0	0	
0.0295	-0.00213095	0.0254279	6.84515E-05	0.000584052	0	0	0	
0.0296667	0.00235192	-0.0331049	7.60891E-05	0.000610193	0	0	0	
0.0298333	-0.00226939	0.0351919	6.14813E-05	0.000650274	0	0	0	
0.03	0.000272034	-0.0357628	5.44775E-05	0.000734457	0	0	0	
0.0301667	0.0024632	0.0295691	4.33998E-05	0.000771222	0	0	0	
0.0303333	-0.00147599	-0.0236891	4.45692E-05	0.000731528	0	0	0	
0.0305	-0.00335085	0.0184051	4.05353E-05	0.000607596	0	0	0	
0.0306667	0.00722824	-0.0210464	5.57496E-05	0.000498727	0	0	0	
0.0308333	-0.00397914	0.021441	7.93028E-05	0.000469215	0	0	0	
0.031	0.000854247	-0.0229424	8.46504E-05	0.000511464	0	0	0	
0.0311667	-0.000454358	0.0218027	5.80954E-05	0.000555125	0	0	0	
0.0313333	0.000589287	-0.0201354	2.74639E-05	0.000551462	0	0	0	
0.0315	-0.00294695	0.0319681	2.43569E-05	0.000520017	0	0	0	
0.0316667	0.00194645	-0.0323574	4.05023E-05	0.000551655	0	0	0	
0.0318333	0.000310715	0.0329202	6.20973E-05	0.000611039	0	0	0	
0.032	-0.000538352	-0.0289579	6.81531E-05	0.000671045	0	0	0	
0.0321667	-0.00214301	0.0249891	5.4225E-05	0.000657575	0	0	0	
0.0323333	0.00055981	-0.0218985	3.82282E-05	0.000629946	0	0	0	
0.0325	0.00101697	0.0361924	3.52415E-05	0.000610677	0	0	0	
0.0326667	0.00018219	-0.0304498	4.36083E-05	0.000656316	0	0	0	
0.0328333	-0.000637157	0.0241568	3.79363E-05	0.000651018	0	0	0	
0.033	0.000704122	-0.0226134	2.68728E-05	0.000635978	0	0	0	
0.0331667	-0.00398492	0.0289557	2.90052E-05	0.000597886	0	0	0	
0.0333333	0.00407871	-0.0287898	4.74393E-05	0.000617469	0	0	0	
0.0335	-0.00442822	0.0283803	6.16959E-05	0.000615597	0	0	0	
0.0336667	0.00591355	-0.0207605	9.46224E-05	0.000604068	0	0	0	
0.0338333	-0.00235493	0.0244624	0.000107121	0.000568739	0	0	0	
0.034	0.000455115	-0.0231297	0.000108185	0.000575543	0	0	0	
0.0341667	-0.00380315	0.0178298	6.90691E-05	0.000537176	0	0	0	
0.0343333	0.00355349	-0.0192627	6.66326E-05	0.000544321	0	0	0	
0.0345	-0.00336191	0.0284063	7.79343E-05	0.000583961	0	0	0	
0.0346667	0.00365976	-0.0300258	9.33998E-05	0.000661383	0	0	0	
0.0348333	-0.00245572	0.0292874	7.15521E-05	0.000661259	0	0	0	
0.035	0.00258812	-0.0247111	6.52335E-05	0.000624645	0	0	0	
0.0351667	-0.00408133	0.0252859	6.53905E-05	0.000559108	0	0	0	
0.0353333	0.000945419	-0.0263056	8.1827E-05	0.000567761	0	0	0	
0.0355	-0.00150451	0.0208531	7.15654E-05	0.000571883	0	0	0	
0.0356667	0.00383	-0.0220613	5.31932E-05	0.000576023	0	0	0	
0.0358333	-0.00568757	0.025165	5.98393E-05	0.000571416	0	0	0	
0.036	0.0058858	-0.0262189	8.3957E-05	0.000569633	0	0	0	
0.0361667	-0.00404582	0.0198672	0.000105728	0.000593644	0	0	0	
0.0363333	0.00394454	-0.0193598	0.000105528	0.000582409	0	0	0	
0.0365	-0.00231023	0.014288	9.3603E-05	0.000548642	0	0	0	
0.0366667	9.2071E-05	-0.0201168	8.35766E-05	0.000472147	0	0	0	
0.0368333	-0.00316821	0.021243	6.95715E-05	0.000462239	0	0	0	
0.037	0.00432178	-0.0212302	6.6796E-05	0.000477544	0	0	0	
0.0371667	-0.00392943	0.0149631	7.65623E-05	0.000530057	0	0	0	
0.0373333	0.00416305	-0.0194091	7.84425E-05	0.000517425	0	0	0	
0.0375	-0.000371725	0.0213721	7.08044E-05	0.000506348	0	0	0	
0.0376667	0.000251659	-0.0286698	4.92419E-05	0.000502808	0	0	0	
0.0378333	-0.00325628	0.0259085	4.27958E-05	0.000548098	0	0	0	
0.038	0.00203982	-0.0228747	4.31469E-05	0.000565802	0	0	0	
0.0381667	-0.0018242	0.0223983	4.96197E-05	0.000573926	0	0	0	
0.0383333	0.00224968	-0.0175448	5.2201E-05	0.000573353	0	0	0	
0.0385	-0.00227462	0.018505	5.51309E-05	0.000587342	0	0	0	
0.0386667	0.00271986	-0.0274257	5.61484E-05	0.00061938	0	0	0	
0.0388333	-0.00319424	0.0302137	5.41591E-05	0.000659661	0	0	0	
0.039	0.00394634	-0.031652	5.85406E-05	0.000691051	0	0	0	
0.0391667	-0.00529238	0.0218405	6.98209E-05	0.000680883	0	0	0	
0.0393333	0.0060632	-0.0122578	8.36057E-05	0.00062218	0	0	0	
0.0395	-0.00623671	0.0141378	0.000100734	0.000560828	0	0	0	
0.0396667	0.0055276	-0.01764	0.000108661	0.000522051	0	0	0	
0.0398333	-0.00441997	0.0237971	0.000111765	0.00052772	0	0	0	
0.04	0.00230836	-0.0270597	9.63981E-05	0.000588262	0	0	0	
0.0401667	-0.00250079	0.0244343	8.74011E-05	0.000646386	0	0	0	
0.0403333	0.00169252	-0.0221056	6.11621E-05	0.000656762	0	0	0	
0.0405	-0.000512119	0.0168844	6.03772E-05	0.000608498	0	0	0	
0.0406667	0.00132945	-0.0227975	4.53233E-05	0.000571093	0	0	0	
0.0408333	-0.00239631	0.0266242	5.9316E-05	0.000604336	0	0	0	
0.041	0.000356562	-0.033556	5.10931E-05	0.000681738	0	0	0	
0.0411667	0.000695919	0.0327208	4.97437E-05	0.00077057	0	0	0	
0.0413333	0.0025097	-0.024564	3.70295E-05	0.000794328	0	0	0	
0.0415	-0.00592645	0.0180665	4.36897E-05	0.00073292	0	0	0	
0.0416667	0.00588252	-0.0224888	7.51342E-05	0.000630192	0	0	0	
0.0418333	-0.00408389	0.01866	0.000102813	0.000567057	0	0	0	
0.042	0.00465491	-0.0221482	0.000105476	0.00056761	0	0	0	
0.0421667	-0.0021768	0.0195633	8.8425E-05	0.000628848	0	0	0	
0.0423333	-0.0004017	-0.0200239	5.73846E-05	0.000674241	0	0	0	
0.0425	0.00172394	0.0212968	3.86552E-05	0.000692931	0	0	0	
0.0426667	0.00108956	-0.026754	2.40351E-05	0.000656224	0	0	0	
0.0428333	-0.00380207	0.0244925	3.96847E-05	0.00062226	0	0	0	
0.043	0.00634855	-0.0193772	6.2267E-05	0.000586214	0	0	0	
0.0431667	-0.00332288	0.019196	8.4912E-05	0.000566394	0	0	0	
0.0433333	-7.9384E-05	-0.0228945	7.42071E-05	0.000570791	0	0	0	
0.0435	0.000308707	0.0202143	5.06494E-05	0.000616806	0	0	0	
0.0436667	0.0012542	-0.0196495	2.81552E-05	0.000660536	0	0	0	
0.0438333	-0.00159834	0.0196396	2.58456E-05	0.000676291	0	0	0	
0.044	0.00243747	-0.0248206	3.04487E-05	0.000690183	0	0	0	
0.0441667	-0.000953985	0.0269482	4.61534E-05	0.00072592	0	0	0	
0.0443333	0.000193958	-0.020192	4.99827E-05	0.00074964	0	0	0	
0.0445	0.00162526	0.0107481	5.1902E-05	0.000715412	0	0	0	
0.0446667	-0.000376144	-0.0141183	4.52374E-05	0.000635643	0	0	0	
0.0448333	-0.00366848	0.0150669	4.33426E-05	0.00056919	0	0	0	
0.045	0.00582587	-0.0153517	5.70246E-05	0.000542032	0	0	0	
0.0451667	-0.00382356	0.013113	7.05099E-05	0.000549134	0	0	0	
0.0453333	0.00180463	-0.012215	8.82084E-05	0.000560968	0	0	0	
0.0455	0.00176807	0.0168397	8.03364E-05	0.000567669	0	0	0	
0.0456667	1.22458E-05	-0.0202256	5.42499E-05	0.000570773	0	0	0	
0.0458333	-0.00280287	0.0144249	5.7223E-05	0.000561234	0	0	0	
0.046	0.0046426	-0.0131375	7.83281E-05	0.000549828	0	0	0	
0.0461667	-0.005571	0.0194766	0.000113471	0.000563288	0	0	0	
0.0463333	0.00240066	-0.0235784	0.000119738	0.000629556	0	0	0	
0.0465	0.0023664	0.019814	9.88494E-05	0.000703238	0	0	0	
0.0466667	-0.002883	-0.0116734	7.89555E-05	0.000714572	0	0	0	
0.0468333	-0.000358295	0.0127347	5.59608E-05	0.000644677	0	0	0	
0.047	0.00383225	-0.0152487	5.6492E-05	0.000557358	0	0	0	
0.0471667	-0.0062053	0.0122931	6.73136E-05	0.000489255	0	0	0	
0.0473333	0.0022816	-0.0119446	8.66456E-05	0.000486359	0	0	0	
0.0475	0.000974744	0.010571	7.47836E-05	0.000549897	0	0	0	
0.0476667	0.000139727	-0.00691135	6.00761E-05	0.000624417	0	0	0	
0.0478333	-0.00391776	0.00860338	4.4588E-05	0.000641173	0	0	0	
0.048	0.00520726	-0.0126999	7.1752E-05	0.000604813	0	0	0	
0.0481667	-0.00338411	0.0190079	8.8818E-05	0.000570523	0	0	0	
0.0483333	0.00119718	-0.0201074	0.000105566	0.000570781	0	0	0	
0.0485	-0.00120473	0.0159587	0.000113283	0.000550818	0	0	0	
0.0486667	0.00076723	-0.0120488	0.000115576	0.000501302	0	0	0	
0.0488333	-0.00216278	0.0110234	9.05527E-05	0.000442077	0	0	0	
0.049	0.00555146	-0.0104117	7.2481E-05	0.000404376	0	0	0	
0.0491667	-0.00485567	0.0134947	7.92679E-05	0.000414076	0	0	0	
0.0493333	0.00283792	-0.0195187	9.23863E-05	0.000483542	0	0	0	
0.0495	0.0025153	0.0237708	7.84013E-05	0.000609975	0	0	0	
0.0496667	-0.00533786	-0.0260643	5.92454E-05	0.000692179	0	0	0	
0.0498333	5.78854E-05	0.0113777	5.63863E-05	0.000688319	0	0	0	
0.05	0.00650356	-0.0110078	8.16808E-05	0.000604691	0	0	0	
0.0501667	-0.00588769	0.0182967	0.00011873	0.000591988	0	0	0	
0.0503333	0.00288079	-0.0174266	0.000139245	0.00060169	0	0	0	
0.0505	-0.00259006	0.0115472	0.000133431	0.00061252	0	0	0	
0.0506667	0.00462572	-0.0164306	9.48024E-05	0.000589943	0	0	0	
0.0508333	-0.00229724	0.0176908	7.7295E-05	0.000597605	0	0	0	
0.051	-0.00145244	-0.0207402	5.69313E-05	0.000605043	0	0	0	
0.0511667	-0.000245482	0.0144891	4.03197E-05	0.000610652	0	0	0	
0.0513333	0.00136991	-0.0178184	2.0998E-05	0.000622395	0	0	0	
0.0515	-0.00136452	0.025854	1.66335E-05	0.000682663	0	0	0	
0.0516667	0.00292934	-0.0224762	2.88779E-05	0.000727125	0	0	0	
0.0518333	-0.00157279	0.0175317	5.18143E-05	0.000699808	0	0	0	
0.052	0.00235895	-0.0148559	6.40528E-05	0.00065797	0	0	0	
0.0521667	-0.00224237	0.0138175	6.30619E-05	0.000647553	0	0	0	
0.0523333	0.00575957	-0.0126215	6.44891E-05	0.000695754	0	0	0	
0.0525	-0.00334304	0.0178964	8.08854E-05	0.000717849	0	0	0	
0.0526667	0.00380397	-0.0174891	8.75426E-05	0.000703397	0	0	0	
0.0528333	-0.00385084	0.0147529	8.74304E-05	0.000650744	0	0	0	
0.053	0.00393667	-0.00985148	8.2172E-05	0.000628354	0	0	0	
0.0531667	-0.00209663	0.0127729	7.43688E-05	0.000632737	0	0	0	
0.0533333	0.00347061	-0.0103227	6.86246E-05	0.00067138	0	0	0	
0.0535	-0.000697907	0.0138575	6.64844E-05	0.000678951	0	0	0	
0.0536667	0.000143654	-0.0126077	6.40696E-05	0.000665088	0	0	0	
0.0538333	-0.00226286	0.0129423	5.98319E-05	0.000622419	0	0	0	
0.054	0.00365957	-0.00872472	6.20505E-05	0.000592624	0	0	0	
0.0541667	-0.00277101	0.0102402	7.45444E-05	0.000560117	0	0	0	
0.0543333	0.00135134	-0.00986106	7.51049E-05	0.000556356	0	0	0	
0.0545	-0.000888644	0.0122031	5.2597E-05	0.000574315	0	0	0	
0.0546667	0.000344482	-0.0171577	4.63529E-05	0.000616067	0	0	0	
0.0548333	0.00233718	0.0177601	5.09105E-05	0.000651885	0	0	0	
0.055	-0.00174888	-0.010283	6.55763E-05	0.000666317	0	0	0	
0.0551667	-0.00244993	0.00598675	5.91477E-05	0.000663556	0	0	0	
0.0553333	0.0041424	-0.0100642	6.18816E-05	0.000663671	0	0	0	
0.0555	-0.00220536	0.0170851	5.83957E-05	0.000648907	0	0	0	
0.0556667	0.00233418	-0.0238803	6.96693E-05	0.000630045	0	0	0	
0.0558333	-0.00254787	0.0145842	7.16043E-05	0.000622846	0	0	0	
0.056	0.00380514	-0.00543049	6.93389E-05	0.000622592	0	0	0	
0.0561667	-0.00428899	0.00750003	8.15544E-05	0.000626164	0	0	0	
0.0563333	2.10526E-05	-0.0149875	7.91651E-05	0.000616955	0	0	0	
0.0565	0.00149368	0.0159287	9.24198E-05	0.000626514	0	0	0	
0.0566667	0.000465137	-0.0188806	8.33253E-05	0.000654849	0	0	0	
0.0568333	-0.00207772	0.00727584	7.70364E-05	0.00071809	0	0	0	
0.057	0.00248272	-0.00738806	5.80078E-05	0.000775128	0	0	0	
0.0571667	-0.00578921	0.0120918	6.60757E-05	0.000781717	0	0	0	
0.0573333	0.00304339	-0.00853773	7.39576E-05	0.000723691	0	0	0	
0.0575	-0.000652989	0.00700049	7.03898E-05	0.000639323	0	0	0	
0.0576667	-0.00116121	-0.0122925	4.04606E-05	0.000569598	0	0	0	
0.0578333	0.000995381	0.0091049	1.92963E-05	0.000512968	0	0	0	
0.058	0.00201447	-0.00495075	2.46687E-05	0.000476367	0	0	0	
0.0581667	-0.00814988	0.00618306	5.48777E-05	0.000487369	0	0	0	
0.0583333	0.00447926	-0.0138424	8.82207E-05	0.000558477	0	0	0	
0.0585	-1.80845E-05	0.0184902	8.94072E-05	0.000647386	0	0	0	
0.0586667	0.000152565	-0.0218229	7.08421E-05	0.000687292	0	0	0	
0.0588333	-0.00258538	0.0192454	5.87031E-05	0.00067828	0	0	0	
0.059	0.00358846	-0.012517	5.42514E-05	0.000665847	0	0	0	
0.0591667	-0.00369042	0.00965791	7.22248E-05	0.000657964	0	0	0	
0.0593333	0.00345131	-0.00770591	6.74953E-05	0.000626173	0	0	0	
0.0595	-0.00247435	0.0085346	8.57415E-05	0.000590283	0	0	0	
0.0596667	0.00163994	-0.0100714	6.16391E-05	0.000587071	0	0	0	
0.0598333	0.000681254	0.00734509	4.75855E-05	0.000622158	0	0	0	
0.06	-0.00047414	-0.00131488	2.70434E-05	0.000666304	0	0	0	
0.0601667	-0.0016794	0.00859802	2.75767E-05	0.000692416	0	0	0	
0.0603333	0.00101062	-0.0142517	3.23534E-05	0.000692118	0	0	0	
0.0605	-0.00237264	0.0189051	3.33831E-05	0.00067412	0	0	0	
0.0606667	0.00383972	-0.0101625	4.45057E-05	0.000656344	0	0	0	
0.0608333	-0.00540151	0.00887547	6.58341E-05	0.000643497	0	0	0	
0.061	0.00530587	0.00141292	9.27388E-05	0.000640481	0	0	0	
0.0611667	-0.00241726	0.00995758	9.70353E-05	0.000618923	0	0	0	
0.0613333	-0.00159917	-0.00565608	7.34405E-05	0.000616101	0	0	0	
0.0615	0.000181477	0.00659605	5.60223E-05	0.000614114	0	0	0	
0.0616667	0.000279128	-0.00650994	5.65811E-05	0.000629097	0	0	0	
0.0618333	-0.000988282	0.00379439	7.13707E-05	0.000618934	0	0	0	
0.062	0.00245419	0.00731531	6.91543E-05	0.000608191	0	0	0	
0.0621667	-0.00398334	0.00750504	6.13173E-05	0.000614457	0	0	0	
0.0623333	0.000835718	-0.00528626	4.99321E-05	0.000651835	0	0	0	
0.0625	-0.00146231	0.0104064	5.05514E-05	0.000670878	0	0	0	
0.0626667	-0.000180245	-0.00592222	4.12255E-05	0.000661378	0	0	0	
0.0628333	-6.89187E-05	0.00366918	3.11889E-05	0.000613974	0	0	0	
0.063	0.00142614	-0.00110476	2.68508E-05	0.000575734	0	0	0	
0.0631667	-0.00220378	0.00192842	3.06446E-05	0.000531329	0	0	0	
0.0633333	0.00516064	-0.00167216	5.78193E-05	0.000495549	0	0	0	
0.0635	-0.00434859	0.00199904	8.66279E-05	0.000490549	0	0	0	
0.0636667	0.000330559	0.000913176	0.000102842	0.000525759	0	0	0	
0.0638333	-0.00111768	0.00366408	8.99076E-05	0.00056246	0	0	0	
0.064	0.00208813	-0.0073767	6.58801E-05	0.000578917	0	0	0	
0.0641667	-0.00154405	0.0124615	4.33886E-05	0.000597509	0	0	0	
0.0643333	0.00142868	-0.0159627	3.79093E-05	0.000628755	0	0	0	
0.0645	-0.000106151	0.0119462	4.71415E-05	0.000628934	0	0	0	
0.0646667	0.000468885	-0.00624078	6.92723E-05	0.000578723	0	0	0	
0.0648333	-0.000897132	0.00349162	7.10782E-05	0.000537111	0	0	0	
0.065	-0.000133694	-0.0102603	5.16617E-05	0.000573138	0	0	0	
0.0651667	-0.00429659	0.0122886	4.4778E-05	0.000676404	0	0	0	
0.0653333	0.000809957	-0.0105711	5.51688E-05	0.000762585	0	0	0	
0.0655	0.000126969	0.00765541	6.67142E-05	0.000771779	0	0	0	
0.0656667	0.0031038	-0.00516482	6.85134E-05	0.000707281	0	0	0	
0.0658333	-0.0031945	0.00241727	8.04534E-05	0.000616252	0	0	0	
0.066	0.00115021	0.000173052	9.75633E-05	0.000563455	0	0	0	
0.0661667	-0.00548471	-0.000899466	8.88903E-05	0.000588396	0	0	0	
0.0663333	0.0017725	-0.00111891	8.94794E-05	0.000664983	0	0	0	
0.0665	-0.000659516	0.00118261	7.69388E-05	0.000721049	0	0	0	
0.0666667	0.00477073	-0.00503778	7.64591E-05	0.000710941	0	0	0	
0.0668333	-0.00471157	0.00484461	7.00894E-05	0.000649411	0	0	0	
0.067	0.00227106	-0.00120813	7.00898E-05	0.000588459	0	0	0	
0.0671667	-0.00138157	0.000417769	6.91184E-05	0.000594659	0	0	0	
0.0673333	0.000736736	-0.00377152	4.90605E-05	0.000668268	0	0	0	
0.0675	0.0023164	-0.000412363	4.04009E-05	0.000738424	0	0	0	
0.0676667	0.00157342	0.00379778	5.22898E-05	0.000747352	0	0	0	
0.0678333	-0.00539252	-0.000412387	8.01561E-05	0.000706094	0	0	0	
0.068	0.00317911	-0.0040872	0.000112355	0.000669792	0	0	0	
0.0681667	-0.00361927	0.00380023	0.000121225	0.000641507	0	0	0	
0.0683333	0.00384218	-0.00318694	9.9807E-05	0.000588226	0	0	0	
0.0685	0.00136939	-0.00529739	8.32511E-05	0.000534944	0	0	0	
0.0686667	-0.00404642	0.00733001	7.86253E-05	0.000520084	0	0	0	
0.0688333	0.00213726	0.00138465	7.87155E-05	0.000546882	0	0	0	
0.069	-0.000379434	-0.00142591	7.58664E-05	0.000566768	0	0	0	
0.0691667	-0.00482704	-0.00861692	7.00402E-05	0.000557816	0	0	0	
0.0693333	0.0040773	0.00800419	0.000109525	0.000578041	0	0	0	
0.0695	-0.00130476	-0.00468576	0.000122012	0.000654414	0	0	0	
0.0696667	-0.000476454	-0.00455733	0.000113678	0.000710572	0	0	0	
0.0698333	-0.000950245	0.00398242	7.68086E-05	0.000692959	0	0	0	
0.07	0.00161275	-0.00376385	4.81683E-05	0.000625403	0	0	0	
0.0701667	-0.00335774	0.000521585	5.67768E-05	0.000567407	0	0	0	
0.0703333	0.00191824	-0.00306263	7.12822E-05	0.000502846	0	0	0	
0.0705	-0.00100995	-0.0061061	8.6553E-05	0.000420957	0	0	0	
0.0706667	0.00194527	0.00381614	7.75061E-05	0.000381237	0	0	0	
0.0708333	-0.00111767	-0.00248589	7.42441E-05	0.000452322	0	0	0	
0.071	0.00197442	-0.00384342	5.85301E-05	0.000568408	0	0	0	
0.0711667	-0.00320167	0.0115736	7.97729E-05	0.00063457	0	0	0	
0.0713333	0.00142324	-0.0087774	9.60748E-05	0.000642656	0	0	0	
0.0715	0.00126839	0.00393108	0.000127377	0.000619455	0	0	0	
0.0716667	-0.00151327	-0.00476457	0.000112689	0.000609401	0	0	0	
0.0718333	-0.000930746	0.00183235	7.08767E-05	0.000591304	0	0	0	
0.072	0.00255557	-0.000529702	4.59597E-05	0.000577617	0	0	0	
0.0721667	-0.00362292	0.00271822	5.27751E-05	0.000591683	0	0	0	
0.0723333	0.00321022	0.00369178	7.00345E-05	0.000656471	0	0	0	
0.0725	-0.0016191	-0.00351516	6.99584E-05	0.000748633	0	0	0	
0.0726667	-0.000280938	0.00287867	5.85085E-05	0.000796607	0	0	0	
0.0728333	-0.00105269	-0.000230415	4.20108E-05	0.000746962	0	0	0	
0.073	-0.00183468	-0.00342414	5.27929E-05	0.000640013	0	0	0	
0.0731667	-0.000888712	0.00251524	7.17783E-05	0.000551989	0	0	0	
0.0733333	0.00225206	-7.63602E-05	0.000104717	0.00051666	0	0	0	
0.0735	-0.00245549	-0.00253531	0.000118836	0.000529875	0	0	0	
0.0736667	0.00118609	-0.000717471	0.000105603	0.000562573	0	0	0	
0.0738333	-0.000515819	0.00650193	7.25628E-05	0.000603737	0	0	0	
0.074	-0.00353797	-0.00689295	4.23073E-05	0.000640922	0	0	0	
0.0741667	0.000904159	0.00400686	3.34595E-05	0.000651007	0	0	0	
0.0743333	8.61142E-05	0.00238334	5.34003E-05	0.00064496	0	0	0	
0.0745	-0.000335764	-0.00270794	7.25692E-05	0.000652951	0	0	0	
0.0746667	0.00153978	0.00262393	6.97469E-05	0.000693498	0	0	0	
0.0748333	-0.000804789	-0.00065214	5.77569E-05	0.00074511	0	0	0	
0.075	6.05664E-05	0.00188281	4.66734E-05	0.000767335	0	0	0	
0.0751667	-0.00107193	-0.00444612	4.17848E-05	0.000733384	0	0	0	
0.0753333	0.00337903	0.00858876	5.55184E-05	0.000677425	0	0	0	
0.0755	-0.00335936	-0.0072694	6.48999E-05	0.000649485	0	0	0	
0.0756667	0.00285336	0.00731328	7.36389E-05	0.000662161	0	0	0	
0.0758333	-0.00297873	-0.00529729	6.68882E-05	0.000668751	0	0	0	
0.076	0.00440124	0.0105466	6.18874E-05	0.000655314	0	0	0	
0.0761667	-0.00160477	-0.00539147	7.52147E-05	0.000621896	0	0	0	
0.0763333	0.000843556	-0.000131635	8.73137E-05	0.000587795	0	0	0	
0.0765	-0.000987531	-0.00263412	0.000114633	0.000543107	0	0	0	
0.0766667	0.00345093	0.00786194	0.000126009	0.000519073	0	0	0	
0.0768333	-0.00302477	-0.00463769	0.000122074	0.000523484	0	0	0	
0.077	0.00175202	0.00647748	9.13375E-05	0.000556627	0	0	0	
0.0771667	0.000656645	-0.00184212	5.85012E-05	0.000573867	0	0	0	
0.0773333	-0.000383029	0.000613177	3.53653E-05	0.000574442	0	0	0	
0.0775	-0.00228251	6.60131E-05	2.92833E-05	0.00057386	0	0	0	
0.0776667	0.00422378	0.00338822	4.52436E-05	0.000614136	0	0	0	
0.0778333	-0.00199626	-0.0026047	6.42385E-05	0.000672067	0	0	0	
0.078	0.000635588	0.00443631	6.00001E-05	0.000702966	0	0	0	
0.0781667	-1.38264E-05	-0.00675264	4.2303E-05	0.000679849	0	0	0	
0.0783333	0.00106147	0.00704861	2.70096E-05	0.000625367	0	0	0	
0.0785	-0.00182254	-0.00703097	3.52868E-05	0.000574708	0	0	0	
0.0786667	0.0037008	0.00511447	5.86025E-05	0.000558964	0	0	0	
0.0788333	-0.00352671	-0.00950311	8.60384E-05	0.000576101	0	0	0	
0.079	0.00531477	0.00823611	9.89899E-05	0.000588214	0	0	0	
0.0791667	-0.00187351	-0.0118335	9.84777E-05	0.000601682	0	0	0	
0.0793333	-0.000318147	0.00772434	6.88627E-05	0.00060676	0	0	0	
0.0795	-0.000851165	0.00119271	4.47904E-05	0.000597437	0	0	0	
0.0796667	0.00156835	-0.00362	3.8364E-05	0.000555277	0	0	0	
0.0798333	-0.000981772	-0.00380143	6.12994E-05	0.000516212	0	0	0	
0.08	0.00260367	0.00243049	8.02227E-05	0.000513458	0	0	0	
0.0801667	-0.000300878	-0.00507091	8.68874E-05	0.00053107	0	0	0	
0.0803333	0.00316091	0.00583099	8.13451E-05	0.000525544	0	0	0	
0.0805	-0.00399747	-0.0106169	7.79636E-05	0.000517671	0	0	0	
0.0806667	0.00187423	0.0100092	7.17325E-05	0.000522393	0	0	0	
0.0808333	-0.00245455	-0.00432962	7.55736E-05	0.000557637	0	0	0	
0.081	0.000153826	0.00112798	8.00967E-05	0.000607788	0	0	0	
0.0811667	0.00606409	-0.00614091	7.89281E-05	0.000661779	0	0	0	
0.0813333	-0.00647554	0.00544043	9.13431E-05	0.000682376	0	0	0	
0.0815	0.00248318	-0.0121593	0.00012355	0.000659949	0	0	0	
0.0816667	0.00277652	0.0101438	0.000145677	0.000583399	0	0	0	
0.0818333	-0.00152831	-0.0114894	0.000128455	0.000530666	0	0	0	
0.082	-0.000494572	0.0120784	9.32815E-05	0.000536276	0	0	0	
0.0821667	-0.00139735	-0.0114274	6.45251E-05	0.000629418	0	0	0	
0.0823333	-0.00228142	0.00386105	5.25588E-05	0.000705302	0	0	0	
0.0825	0.00459962	-0.00522539	6.06796E-05	0.000703022	0	0	0	
0.0826667	3.13493E-05	0.00516869	5.79361E-05	0.000612634	0	0	0	
0.0828333	-0.00285454	-0.00588603	7.58649E-05	0.000515713	0	0	0	
0.083	0.00243158	0.00674231	7.9467E-05	0.000448284	0	0	0	
0.0831667	-0.000328768	-0.0109269	8.71613E-05	0.000436425	0	0	0	
0.0833333	-0.000242685	0.0212305	8.11784E-05	0.000499657	0	0	0	
0.0835	-0.00438679	-0.0168978	8.82666E-05	0.00059535	0	0	0	
0.0836667	0.00517465	0.00977951	0.000118018	0.000687268	0	0	0	
0.0838333	0.00144121	-0.00677521	0.000137404	0.000697436	0	0	0	
0.084	-0.00456358	0.0132821	0.000147001	0.00065279	0	0	0	
0.0841667	0.00266632	-0.0153931	0.000139596	0.000609243	0	0	0	
0.0843333	-0.00221658	0.0105756	0.00011585	0.000619293	0	0	0	
0.0845	0.00336411	-0.00117561	8.66796E-05	0.000625529	0	0	0	
0.0846667	-0.00335221	0.0119414	6.75451E-05	0.000597218	0	0	0	
0.0848333	0.00295782	-0.0175521	8.04043E-05	0.000559024	0	0	0	
0.085	-0.00692999	0.0131645	9.6622E-05	0.000561872	0	0	0	
0.0851667	0.0132043	-0.0133936	0.000140853	0.000571801	0	0	0	
0.0853333	-0.0174243	0.00818795	0.000183718	0.000526705	0	0	0	
0.0855	0.0129013	-0.0145608	0.000292716	0.000524436	0	0	0	
0.0856667	-0.000105	0.0173557	0.000360599	0.000614152	0	0	0	
0.0858333	-0.00868397	-0.00828486	0.000408805	0.000733124	0	0	0	
0.086	0.0148468	0.00746902	0.000355751	0.000755079	0	0	0	
0.0861667	-0.0144492	-0.00912672	0.000327792	0.00065831	0	0	0	
0.0863333	0.00317711	0.00940171	0.000270098	0.000569811	0	0	0	
0.0865	0.00323125	-0.0120467	0.000214163	0.000554224	0	0	0	
0.0866667	-0.00999894	0.010011	0.000161363	0.000580915	0	0	0	
0.0868333	0.0144359	-0.00568364	0.000190252	0.000593904	0	0	0	
0.087	-0.0159043	0.00790781	0.000236075	0.000531849	0	0	0	
0.0871667	0.0134631	-0.00473124	0.000286197	0.000391295	0	0	0	
0.0873333	0.0114518	0.00466129	0.000356383	0.00028202	0	0	0	
0.0875	-0.049207	0.0030646	0.000480556	0.000270517	0	0	0	
0.0876667	0.0357046	0.000600656	0.000731075	0.000341551	0	0	0	
0.0878333	-0.0107763	-0.0114388	0.000688464	0.000447969	0	0	0	
0.088	0.00709414	0.0222452	0.000650344	0.000654824	0	0	0	
0.0881667	0.0090032	0.00123886	0.0005005	0.000904174	0	0	0	
0.0883333	-0.018702	-0.0180695	0.000626128	0.00102843	0	0	0	
0.0885	0.0204558	0.020391	0.000573687	0.000885988	0	0	0	
0.0886667	0.00734335	-0.00343164	0.000956164	0.000597043	0	0	0	
0.0888333	-0.0281613	-0.0132173	0.00131538	0.000353938	0	0	0	
0.089	0.0512341	0.0276234	0.00146573	0.000332533	0	0	0	
0.0891667	-0.0298483	-0.0212437	0.00117202	0.000464382	0	0	0	
0.0893333	0.00538989	0.00476468	0.00095178	0.000554463	0	0	0	
0.0895	0.0227478	0.0108137	0.000975478	0.000674481	0	0	0	
0.0896667	-0.0357274	-0.0260414	0.00085738	0.000779507	0	0	0	
0.0898333	0.0296104	0.0110983	0.000661468	0.000830183	0	0	0	
0.09	-0.00620893	0.0133141	0.000587821	0.000611153	0	0	0	
0.0901667	-0.0203942	-0.0130517	0.000657921	0.000410463	0	0	0	
0.0903333	0.0364292	-0.00208268	0.000599535	0.000433374	0	0	0	
0.0905	-0.0195298	-0.00215658	0.000705717	0.000609764	0	0	0	
0.0906667	-0.00568515	0.0152053	0.000798567	0.000697164	0	0	0	
0.0908333	-0.0135694	-0.0171304	0.000877169	0.00073811	0	0	0	
0.091	-0.00593219	-0.00269477	0.000656913	0.000715325	0	0	0	
0.0911667	-0.00854376	0.0164677	0.000456513	0.000776936	0	0	0	
0.0913333	0.0450942	-0.00805919	0.000474765	0.000842879	0	0	0	
0.0915	-0.0309154	0.0400202	0.000695641	0.000938687	0	0	0	
0.0916667	0.0104525	-0.0146673	0.000679217	0.000927795	0	0	0	
0.0918333	-0.0414943	-0.0266766	0.000669655	0.000784479	0	0	0	
0.092	0.0577626	0.0693688	0.000690262	0.000726382	0	0	0	
0.0921667	-0.0516145	-0.0623895	0.000937125	0.000898958	0	0	0	
0.0923333	0.0156756	0.0315689	0.000958697	0.00123528	0	0	0	
0.0925	0.012284	0.00769273	0.000718572	0.00138957	0	0	0	
0.0926667	0.00734274	0.0232384	0.000551678	0.0012229	0	0	0	
0.0928333	-0.056733	-0.0257607	0.00049973	0.00091721	0	0	0	
0.093	0.0676959	0.0196193	0.000805633	0.000764531	0	0	0	
0.0931667	-0.00634288	-0.00552412	0.00097415	0.000726251	0	0	0	
0.0933333	-0.0268137	-0.00841138	0.00117994	0.000716512	0	0	0	
0.0935	0.0238957	0.00953764	0.000914739	0.000675837	0	0	0	
0.0936667	-0.00187587	-0.010141	0.000686704	0.000631315	0	0	0	
0.0938333	-0.0282949	-0.00590446	0.000464872	0.000483213	0	0	0	
0.094	0.061788	0.0366542	0.000623306	0.000466689	0	0	0	
0.0941667	-0.0722023	-0.047587	0.000909195	0.000520182	0	0	0	
0.0943333	0.058598	0.0312525	0.00115902	0.000791915	0	0	0	
0.0945	-0.0140713	-0.0206509	0.00123832	0.000975459	0	0	0	
0.0946667	-0.0137447	0.0120212	0.00105139	0.00101604	0	0	0	
0.0948333	0.0157989	-0.02844	0.000710456	0.000868494	0	0	0	
0.095	0.000585257	0.0355692	0.000416703	0.000713838	0	0	0	
0.0951667	-0.0246304	-0.0238478	0.000359678	0.000648992	0	0	0	
0.0953333	0.0262978	0.00699456	0.000488398	0.000674714	0	0	0	
0.0955	-0.00968028	-0.00329078	0.00050398	0.000596477	0	0	0	
0.0956667	0.000370031	0.00893734	0.000355801	0.000459489	0	0	0	
0.0958333	-0.00277574	-0.0197676	0.000195482	0.000375752	0	0	0	
0.096	0.00667556	0.0120654	0.00017159	0.000397627	0	0	0	
0.0961667	-0.00647344	-0.00349847	0.000208814	0.000530175	0	0	0	
0.0963333	0.00021617	0.00352119	0.00024229	0.000599473	0	0	0	
0.0965	-0.00522266	-0.00882985	0.000301321	0.000593453	0	0	0	
0.0966667	0.0230195	0.0180191	0.000348254	0.000569981	0	0	0	
0.0968333	-0.0218769	-0.0203541	0.000433292	0.000582843	0	0	0	
0.097	0.00221704	0.0190185	0.000401702	0.00059533	0	0	0	
0.0971667	0.0110406	-0.022289	0.000533903	0.000626204	0	0	0	
0.0973333	-0.0220816	0.0210618	0.000611812	0.000654932	0	0	0	
0.0975	0.00787588	-0.0188064	0.000568685	0.000691447	0	0	0	
0.0976667	0.010044	0.0178053	0.000471045	0.000680561	0	0	0	
0.0978333	-0.0147461	-0.0136983	0.000360928	0.000643243	0	0	0	
0.098	0.00634088	0.0111064	0.000404545	0.000612331	0	0	0	
0.0981667	-0.0213972	-0.0164689	0.000399035	0.000578756	0	0	0	
0.0983333	0.0320277	0.0204208	0.000469753	0.000544199	0	0	0	
0.0985	-0.0278792	-0.0226343	0.000555832	0.000545792	0	0	0	
0.0986667	0.00447728	0.0228542	0.000527106	0.000587841	0	0	0	
0.0988333	0.00115207	-0.0225082	0.000413802	0.000640729	0	0	0	
0.099	-0.00682474	0.0231081	0.000256567	0.000682506	0	0	0	
0.0991667	0.000535642	-0.0199892	0.000193648	0.00067548	0	0	0	
0.0993333	-0.00719128	0.0164399	0.000132469	0.000667474	0	0	0	
0.0995	0.0157189	-0.0112631	0.00016866	0.000636397	0	0	0	
0.0996667	-0.0094409	0.0152927	0.000188887	0.000611905	0	0	0	
0.0998333	-0.0064188	-0.0155398	0.000192826	0.000549539	0	0	0	
0.1	0.00143661	0.0140398	0.000137255	0.000509932	0	0	0	
0.100167	-0.000778829	-0.0198995	9.02443E-05	0.00050929	0	0	0	
0.100333	-0.00245478	0.0252017	7.88441E-05	0.00057939	0	0	0	
0.1005	0.00698204	-0.0196196	9.82253E-05	0.000653554	0	0	0	
0.100667	-0.00649096	0.0105678	0.000140343	0.000725112	0	0	0	
0.100833	-0.000364223	-0.00511454	0.00015976	0.000707629	0	0	0	
0.101	0.00270179	0.0190274	0.000132555	0.000630328	0	0	0	
0.101167	-0.010858	-0.0332667	0.000100927	0.000585684	0	0	0	
0.101333	0.0138136	0.0263427	0.00013231	0.000628793	0	0	0	
0.1015	-0.00668369	-0.0209126	0.0002039	0.000707382	0	0	0	
0.101667	0.00344911	0.0234353	0.000188111	0.000734597	0	0	0	
0.101833	-0.00679529	-0.0260686	0.000164927	0.000764027	0	0	0	
0.102	0.000329949	0.0188505	0.000125541	0.000781774	0	0	0	
0.102167	-2.63869E-05	-0.0132571	0.000113354	0.000711473	0	0	0	
0.102333	-0.00488542	0.0140179	0.00013583	0.0005477	0	0	0	
0.1025	0.000482018	-0.0234749	0.000167839	0.000458858	0	0	0	
0.102667	-0.000271879	0.023301	0.000173012	0.000514527	0	0	0	
0.102833	0.00713775	-0.0205694	0.000115045	0.00063309	0	0	0	
0.103	-0.00399575	0.0150235	8.65429E-05	0.000643594	0	0	0	
0.103167	-0.000118562	-0.0174862	0.000121069	0.000593176	0	0	0	
0.103333	0.00168368	0.0189548	0.00011691	0.000550595	0	0	0	
0.1035	-0.00157628	-0.0241385	8.57436E-05	0.000599508	0	0	0	
0.103667	0.00729663	0.0192813	7.93583E-05	0.000642245	0	0	0	
0.103833	-1.91136E-06	-0.0161881	0.000110762	0.00067542	0	0	0	
0.104	-0.00198019	0.0121304	0.000126884	0.000658695	0	0	0	
0.104167	0.0109361	-0.0167801	0.000104542	0.00063127	0	0	0	
0.104333	-0.00556133	0.0193645	0.000129307	0.000576742	0	0	0	
0.1045	0.00335967	-0.0227695	0.000175743	0.000555862	0	0	0	
0.104667	0.00543597	0.0192451	0.000171387	0.00056879	0	0	0	
0.104833	-0.00892821	-0.0213429	0.000157155	0.00063795	0	0	0	
0.105	0.00724173	0.0187959	0.000145205	0.000693629	0	0	0	
0.105167	0.00793743	-0.0158812	0.000162594	0.000710733	0	0	0	
0.105333	-0.0217386	0.0114642	0.000228965	0.000666357	0	0	0	
0.1055	0.0113144	-0.0182348	0.000272722	0.000608328	0	0	0	
0.105667	0.00648427	0.02274	0.000275244	0.000590976	0	0	0	
0.105833	-0.0151614	-0.0247724	0.000239383	0.00061748	0	0	0	
0.106	-0.00271645	0.0218389	0.000231066	0.000644502	0	0	0	
0.106167	-0.0023224	-0.0272667	0.000261927	0.000628675	0	0	0	
0.106333	0.00991464	0.0291494	0.000228953	0.000629909	0	0	0	
0.1065	-0.0199843	-0.031672	0.000230456	0.000653999	0	0	0	
0.106667	0.00861188	0.0271545	0.000244904	0.000721547	0	0	0	
0.106833	-0.00671579	-0.0220786	0.000252824	0.000728644	0	0	0	
0.107	0.0119224	0.0185599	0.000192073	0.000709709	0	0	0	
0.107167	-0.0160422	-0.0210804	0.00021773	0.00064799	0	0	0	
0.107333	-0.00465088	0.0209205	0.000219868	0.000608534	0	0	0	
0.1075	0.0108124	-0.0268165	0.000258901	0.000586886	0	0	0	
0.107667	-0.00425008	0.0239967	0.000244921	0.000595486	0	0	0	
0.107833	0.00142647	-0.0224733	0.000216074	0.000596703	0	0	0	
0.108	-0.00333667	0.0231863	0.000174725	0.000617009	0	0	0	
0.108167	0.00322694	-0.0168697	0.000104041	0.000608364	0	0	0	
0.108333	0.00408209	0.0226855	8.52262E-05	0.00060607	0	0	0	
0.1085	-0.00543646	-0.0250824	7.76448E-05	0.000588081	0	0	0	
0.108667	0.00522148	0.0191666	0.000101364	0.000597783	0	0	0	
0.108833	-0.00734236	-0.0164178	0.000156512	0.000594744	0	0	0	
0.109	0.00796914	0.023059	0.000185159	0.000592841	0	0	0	
0.109167	-0.00757944	-0.0236437	0.000178345	0.000596325	0	0	0	
0.109333	-0.00102875	0.0262497	0.000132223	0.000648725	0	0	0	
0.1095	0.00918061	-0.0246272	9.84568E-05	0.000688065	0	0	0	
0.109667	-0.0188621	0.022112	0.000149212	0.000703881	0	0	0	
0.109833	0.0193468	-0.0202522	0.000333627	0.000680216	0	0	0	
0.11	0.00147511	0.024687	0.000478375	0.000663797	0	0	0	
0.110167	-0.00370138	-0.0273414	0.00045539	0.000646785	0	0	0	
0.110333	-9.2812E-05	0.0251436	0.00027376	0.000663614	0	0	0	
0.1105	-0.00511826	-0.027581	0.000122451	0.000672497	0	0	0	
0.110667	-0.0050778	0.0219527	0.000106924	0.000673772	0	0	0	
0.110833	0.027246	-0.026971	0.00021644	0.000656743	0	0	0	
0.111	-0.0153808	0.0241586	0.000327656	0.000638728	0	0	0	
0.111167	0.00818651	-0.0197452	0.000368613	0.000649762	0	0	0	
0.111333	0.00883262	0.0195376	0.000271516	0.000667497	0	0	0	
0.1115	-0.0077096	-0.0214636	0.000206968	0.000632431	0	0	0	
0.111667	-0.00324779	0.0176522	0.000138879	0.000567895	0	0	0	
0.111833	0.0138273	-0.0180274	0.000189245	0.000485973	0	0	0	
0.112	-0.00172556	0.0140933	0.000186019	0.000466081	0	0	0	
0.112167	0.00037244	-0.0255164	0.00018153	0.000492625	0	0	0	
0.112333	0.00581025	0.0313724	0.000134472	0.000575909	0	0	0	
0.1125	-0.00209651	-0.0154004	0.00011883	0.000617484	0	0	0	
0.112667	-0.00414111	0.0109049	0.000118862	0.000623234	0	0	0	
0.112833	0.00783294	-0.0121267	0.000128109	0.000563987	0	0	0	
0.113	-0.00293752	0.0252748	0.000106157	0.000572461	0	0	0	
0.113167	0.00166411	-0.0280285	0.000142205	0.000604618	0	0	0	
0.113333	0.000752271	0.0266607	0.000168452	0.000652146	0	0	0	
0.1135	-0.000547725	-0.0200181	0.000192554	0.000635473	0	0	0	
0.113667	0.00336229	0.0245221	0.000148358	0.000627427	0	0	0	
0.113833	-0.00302748	-0.0232469	0.000114257	0.000594939	0	0	0	
0.114	-0.00120705	0.0269765	9.83799E-05	0.000629018	0	0	0	
0.114167	0.00467678	-0.0178053	0.000100784	0.000619821	0	0	0	
0.114333	-0.00811959	0.0163785	0.000101931	0.000616709	0	0	0	
0.1145	0.00873413	-0.0193753	0.000117791	0.000570026	0	0	0	
0.114667	0.000361627	0.0216255	0.00014235	0.000561258	0	0	0	
0.114833	0.00139409	-0.016978	0.000131804	0.000560714	0	0	0	
0.115	-0.00446205	0.0222684	0.000119884	0.000607118	0	0	0	
0.115167	0.0021253	-0.0243498	9.79629E-05	0.00063028	0	0	0	
0.115333	-0.00149568	0.0274784	9.06686E-05	0.000669536	0	0	0	
0.1155	0.00521002	-0.0272107	8.79336E-05	0.000673766	0	0	0	
0.115667	-0.00374862	0.0216735	0.000104524	0.00067007	0	0	0	
0.115833	0.00908594	-0.022608	0.000147961	0.000643449	0	0	0	
0.116	3.11251E-05	0.0270484	0.000152426	0.000604586	0	0	0	
0.116167	-0.00495789	-0.0278407	0.000130766	0.000596294	0	0	0	
0.116333	0.00217488	0.0293105	8.39977E-05	0.000630045	0	0	0	
0.1165	0.00315256	-0.0169458	7.32142E-05	0.000645899	0	0	0	
0.116667	-0.0196529	0.010583	0.000124447	0.000576725	0	0	0	
0.116833	0.0135132	-0.0240539	0.000226145	0.000495611	0	0	0	
0.117	0.00710161	0.0273632	0.000242168	0.000482422	0	0	0	
0.117167	-0.00949792	-0.0311822	0.000232558	0.000572134	0	0	0	
0.117333	0.00760251	0.0273937	0.000163207	0.000646849	0	0	0	
0.1175	-0.000574272	-0.024756	0.000166936	0.000659048	0	0	0	
0.117667	-0.0131794	0.023279	0.000149484	0.0006655	0	0	0	
0.117833	0.00643893	-0.0204941	0.000198739	0.000733103	0	0	0	
0.118	-0.00529183	0.0109021	0.000205266	0.00074538	0	0	0	
0.118167	0.00390276	-0.0151446	0.000190628	0.000623696	0	0	0	
0.118333	0.00269441	0.0208161	0.000152858	0.000460982	0	0	0	
0.1185	-0.000345765	-0.0301086	0.000137815	0.000441241	0	0	0	
0.118667	-0.00640993	0.031966	0.000146064	0.000557315	0	0	0	
0.118833	-0.00997344	-0.0364327	0.000140346	0.000668066	0	0	0	
0.119	0.0195557	0.0351319	0.000191672	0.000732781	0	0	0	
0.119167	-0.0217345	-0.0329971	0.000292129	0.000714841	0	0	0	
0.119333	0.0123564	0.0266984	0.000425887	0.000702262	0	0	0	
0.1195	0.00885619	-0.0198394	0.000515016	0.000618036	0	0	0	
0.119667	-0.0214595	0.014687	0.000496695	0.000528507	0	0	0	
0.119833	0.000872441	-0.0215199	0.000449941	0.000451447	0	0	0	
0.12	0.0110839	0.0130866	0.000664189	0.000422817	0	0	0	
0.120167	-0.0268817	-0.0120022	0.000873465	0.000394369	0	0	0	
0.120333	0.0271417	0.0106288	0.000918161	0.000297802	0	0	0	
0.1205	-0.0118289	-0.0225808	0.000632682	0.000327472	0	0	0	
0.120667	0.000864625	0.0173118	0.000388509	0.00050402	0	0	0	
0.120833	0.0158676	-0.0179955	0.000334203	0.000767066	0	0	0	
0.121	-0.049897	0.000311369	0.000419246	0.000782733	0	0	0	
0.121167	0.024416	-0.0149225	0.00064224	0.000636855	0	0	0	
0.121333	0.00681958	0.027704	0.000678929	0.000457485	0	0	0	
0.1215	-0.012002	-0.0515131	0.000593069	0.000596051	0	0	0	
0.121667	0.0138777	0.0501841	0.000367205	0.000795406	0	0	0	
0.121833	-0.00963845	-0.051442	0.000261238	0.00102392	0	0	0	
0.122	-0.00567777	0.0277226	0.000227391	0.00102442	0	0	0	
0.122167	0.00887695	-0.0179264	0.000233003	0.00102174	0	0	0	
0.122333	-0.00994625	0.0207131	0.000202147	0.000866719	0	0	0	
0.1225	0.02095	-0.0341766	0.000306387	0.000738037	0	0	0	
0.122667	-0.00922122	0.0404937	0.000394451	0.00067701	0	0	0	
0.122833	0.00760924	-0.0439084	0.000482608	0.000729989	0	0	0	
0.123	-0.0105568	0.0411032	0.000372672	0.000799395	0	0	0	
0.123167	0.0177774	-0.0314404	0.000303507	0.000777891	0	0	0	
0.123333	-0.0028007	0.0104195	0.000298271	0.000713337	0	0	0	
0.1235	0.00992086	0.00599599	0.000316821	0.00060093	0	0	0	
0.123667	-0.00553086	-0.00898619	0.000340845	0.000402433	0	0	0	
0.123833	0.029708	-0.0153459	0.000372988	0.000288316	0	0	0	
0.124	-0.0680476	0.0260923	0.000620406	0.000286655	0	0	0	
0.124167	0.0407708	-0.0296866	0.000839066	0.000446008	0	0	0	
0.124333	0.0340661	0.0410257	0.00104063	0.000610685	0	0	0	
0.1245	-0.0590559	-0.0508397	0.00104197	0.000726523	0	0	0	
0.124667	0.0160979	0.0307536	0.00097004	0.000857379	0	0	0	
0.124833	0.0306487	0.00389773	0.000964995	0.000977725	0	0	0	
0.125	-0.0380131	-0.0161525	0.000887574	0.000824349	0	0	0	
0.125167	0.0214027	-0.0554909	0.000881812	0.000940705	0	0	0	
0.125333	-0.0732155	0.206544	0.000853848	0.00129995	0	0	0	
0.1255	0.0591724	-0.466304	0.00117009	0.00351731	0	0	0	
0.125667	0.0399036	0.123879	0.00140772	0.00528612	0	0	0	
0.125833	-0.0556029	0.0323662	0.00135428	0.00533466	0	0	0	
0.126	0.0103775	-0.0471746	0.0011602	0.00361479	0	0	0	
0.126167	0.0280001	0.0415626	0.00108572	0.00186206	0	0	0	
0.126333	-0.00814649	0.014214	0.000964427	0.00120387	0	0	0	
0.1265	-0.0422038	-0.242886	0.000725509	0.00171162	0	0	0	
0.126667	0.0172601	-0.0145322	0.00106229	0.00359881	0	0	0	
0.126833	0.00497625	-0.0837742	0.00101865	0.00436778	0	0	0	
0.127	0.0160759	0.0858443	0.000924079	0.0037763	0	0	0	
0.127167	-0.0462172	-0.0699801	0.000391193	0.00196916	0	0	0	
0.127333	0.0560839	0.08827	0.000631428	0.00158236	0	0	0	
0.1275	-0.0227982	-0.1097	0.000821129	0.00169899	0	0	0	
0.127667	-0.010804	0.0863292	0.000691215	0.00183072	0	0	0	
0.127833	0.0223842	-0.0232091	0.000496512	0.00173381	0	0	0	
0.128	0.00154797	-0.0110395	0.000448719	0.00131012	0	0	0	
0.128167	-0.013964	0.00533183	0.00063154	0.000700232	0	0	0	
0.128333	0.0129703	0.00684929	0.000789264	0.000353611	0	0	0	
0.1285	-0.0222662	-0.01964	0.000849877	0.000219616	0	0	0	
0.128667	0.00523765	0.0290178	0.000854817	0.000592952	0	0	0	
0.128833	0.0294281	0.00509515	0.000780461	0.00151429	0	0	0	
0.129	-0.0763015	0.100427	0.000989585	0.00276354	0	0	0	
0.129167	0.0473224	-0.0204199	0.00101869	0.00289262	0	0	0	
0.129333	-0.0337607	0.0166896	0.00108056	0.00205967	0	0	0	
0.1295	0.00452038	-0.0333836	0.000723661	0.000935437	0	0	0	
0.129667	0.0107561	0.0503534	0.000668419	0.000516796	0	0	0	
0.129833	0.00168539	-0.129789	0.00054159	0.00119522	0	0	0	
0.13	-0.0705652	0.307962	0.00068612	0.00224254	0	0	0	
0.130167	-0.0182961	-0.0736765	0.000824785	0.0030084	0	0	0	
0.130333	0.00309882	0.017335	0.000755245	0.00247059	0	0	0	
0.1305	0.0147881	-0.00909202	0.000551922	0.00144958	0	0	0	
0.130667	-0.0214642	0.018482	0.000383557	0.000702628	0	0	0	
0.130833	0.000265982	-0.0258758	0.000347317	0.000613298	0	0	0	
0.131	0.00725304	0.0408844	0.000494411	0.000618751	0	0	0	
0.131167	0.0110196	0.0070861	0.000568656	0.000757671	0	0	0	
0.131333	-0.0036226	0.0360424	0.000794626	0.000711805	0	0	0	
0.1315	-0.00243664	-0.0557567	0.000778933	0.000787961	0	0	0	
0.131667	0.00974583	0.0489915	0.000521407	0.000833622	0	0	0	
0.131833	-0.0165168	-0.0445741	0.000439854	0.000992221	0	0	0	
0.132	-0.00275702	0.025305	0.000301381	0.000885906	0	0	0	
0.132167	0.0348558	0.0622613	0.000370609	0.000762783	0	0	0	
0.132333	0.00837337	0.0150556	0.000401027	0.000773383	0	0	0	
0.1325	-0.00511162	-0.0199654	0.000500478	0.000693275	0	0	0	
0.132667	-0.00130895	0.0295331	0.000443463	0.000608638	0	0	0	
0.132833	-0.00155119	-0.0394047	0.000242549	0.000489357	0	0	0	
0.133	0.000840233	0.0360679	0.000136258	0.000572132	0	0	0	
0.133167	0.00447076	-0.0391353	0.000148319	0.000677114	0	0	0	
0.133333	-6.82067E-05	0.0350265	0.000250578	0.00069879	0	0	0	
0.1335	-0.00379512	-0.0328701	0.000369551	0.000699769	0	0	0	
0.133667	0.0157937	0.0344512	0.000378001	0.000682593	0	0	0	
0.133833	-0.0117287	-0.0315661	0.000317455	0.00067441	0	0	0	
0.134	0.00451474	0.0265057	0.000217172	0.000660236	0	0	0	
0.134167	0.0194306	-0.0231758	0.000208541	0.000597027	0	0	0	
0.134333	0.000120296	0.0183132	0.000218292	0.000521467	0	0	0	
0.1345	-0.0134228	-0.0271563	0.00023812	0.000469534	0	0	0	
0.134667	0.0121679	0.0330853	0.000312525	0.000501441	0	0	0	
0.134833	0.00916539	-0.0356922	0.000373668	0.000591422	0	0	0	
0.135	-0.0135678	0.0328315	0.000403076	0.000657983	0	0	0	
0.135167	0.00545073	-0.0327338	0.000304537	0.000671348	0	0	0	
0.135333	0.0015356	0.0294822	0.000201411	0.000662708	0	0	0	
0.1355	0.000173242	-0.0263678	0.000115607	0.000645307	0	0	0	
0.135667	-0.00816634	0.0194017	0.00011676	0.000595486	0	0	0	
0.135833	-0.00496551	-0.0253081	0.000127859	0.000521685	0	0	0	
0.136	0.0195855	0.0343999	0.000236056	0.000485065	0	0	0	
0.136167	-0.0154156	-0.0372787	0.000362123	0.000545299	0	0	0	
0.136333	-0.00410747	0.040817	0.00045661	0.000624314	0	0	0	
0.1365	0.00146354	-0.0365218	0.00039816	0.000697166	0	0	0	
0.136667	0.0198415	0.0304848	0.000289207	0.000703323	0	0	0	
0.136833	-0.0201266	-0.0266043	0.000300471	0.000652002	0	0	0	
0.137	-6.62816E-05	0.0265401	0.000380568	0.000581196	0	0	0	
0.137167	0.0116306	-0.0249062	0.000553647	0.000514296	0	0	0	
0.137333	0.00920447	0.0223447	0.000769741	0.000529582	0	0	0	
0.1375	-0.0138318	-0.0244304	0.000938331	0.000562075	0	0	0	
0.137667	0.0117894	0.031164	0.000797949	0.000598302	0	0	0	
0.137833	0.00583577	-0.0337319	0.000484819	0.000625435	0	0	0	
0.138	-0.0209534	0.0304755	0.000331856	0.00063268	0	0	0	
0.138167	0.0189852	-0.0351312	0.000382419	0.000644521	0	0	0	
0.138333	-0.0214259	0.0444064	0.000499728	0.000696218	0	0	0	
0.1385	0.0273019	-0.0483081	0.000516728	0.000796993	0	0	0	
0.138667	-0.0245544	0.0381569	0.000564393	0.000859434	0	0	0	
0.138833	-0.000817307	-0.0345313	0.000454092	0.000825742	0	0	0	
0.139	-0.00523737	0.0263952	0.000332592	0.000697807	0	0	0	
0.139167	0.00324345	-0.0301952	0.000216599	0.000603929	0	0	0	
0.139333	-0.00546455	0.0303647	0.000268418	0.000564545	0	0	0	
0.1395	-0.0123466	-0.0303899	0.000329872	0.00057168	0	0	0	
0.139667	0.013636	0.0276975	0.000323668	0.000580577	0	0	0	
0.139833	-0.0121295	-0.0309114	0.000298408	0.00058394	0	0	0	
0.14	-0.0040457	0.0258411	0.000297239	0.000580739	0	0	0	
0.140167	0.0140501	-0.0296923	0.000301121	0.000586456	0	0	0	
0.140333	-0.0016617	0.0288456	0.00026554	0.000580552	0	0	0	
0.1405	-0.016362	-0.0359519	0.000229362	0.000598425	0	0	0	
0.140667	0.0183918	0.035165	0.000257312	0.000639273	0	0	0	
0.140833	-0.0157422	-0.0341182	0.000308352	0.000661937	0	0	0	
0.141	0.00349001	0.0309198	0.000310496	0.000655359	0	0	0	
0.141167	0.00866348	-0.0309826	0.000256735	0.000632313	0	0	0	
0.141333	0.00467903	0.0279255	0.000179577	0.000604025	0	0	0	
0.1415	-0.0111447	-0.0329954	0.000145005	0.000588504	0	0	0	
0.141667	0.0068955	0.0386662	0.000185171	0.000596705	0	0	0	
0.141833	0.00507231	-0.0411817	0.000237877	0.000651405	0	0	0	
0.142	-0.00802662	0.0324674	0.000279205	0.000701823	0	0	0	
0.142167	0.00121431	-0.0297204	0.000247252	0.000685076	0	0	0	
0.142333	0.00376601	0.0285717	0.000248761	0.000632295	0	0	0	
0.1425	-0.00849826	-0.0321125	0.00023287	0.000581191	0	0	0	
0.142667	0.00749276	0.0340801	0.000259162	0.000599927	0	0	0	
0.142833	0.00661865	-0.0364692	0.00024692	0.000634731	0	0	0	
0.143	-0.00573008	0.0340092	0.000249034	0.000670763	0	0	0	
0.143167	-0.00118118	-0.0390652	0.000197585	0.000672757	0	0	0	
0.143333	0.00672309	0.035148	0.000177523	0.000683079	0	0	0	
0.1435	-0.00723714	-0.0324906	0.000175542	0.00067396	0	0	0	
0.143667	0.00335092	0.0260207	0.000152437	0.000637052	0	0	0	
0.143833	-0.00266338	-0.0301981	0.000175438	0.000571695	0	0	0	
0.144	-0.0130522	0.0280242	0.000179335	0.000550506	0	0	0	
0.144167	0.0249375	-0.0391403	0.000261559	0.000589736	0	0	0	
0.144333	-0.0204393	0.0369766	0.000365177	0.000651917	0	0	0	
0.1445	-0.00116348	-0.0316527	0.000612576	0.000684008	0	0	0	
0.144667	0.0288501	0.0275339	0.000822465	0.000636658	0	0	0	
0.144833	-0.0393989	-0.0324827	0.000859373	0.000600284	0	0	0	
0.145	0.0210533	0.0342231	0.000733002	0.000587821	0	0	0	
0.145167	-0.00516768	-0.0320949	0.000507319	0.000641885	0	0	0	
0.145333	-0.019335	0.0255599	0.000442809	0.00061983	0	0	0	
0.1455	0.038222	-0.0315319	0.000422885	0.000597777	0	0	0	
0.145667	-0.0171024	0.0364931	0.000565455	0.000565764	0	0	0	
0.145833	0.000208038	-0.0306338	0.000449937	0.00062076	0	0	0	
0.146	-0.00185891	0.0258953	0.000299861	0.000615558	0	0	0	
0.146167	0.00732348	-0.0283307	0.000126286	0.000610821	0	0	0	
0.146333	-0.0073393	0.023051	0.000216634	0.000552047	0	0	0	
0.1465	0.00404582	-0.0324667	0.000247876	0.000547848	0	0	0	
0.146667	0.00316655	0.0291698	0.000235111	0.000547056	0	0	0	
0.146833	0.00143863	-0.0478057	0.000156764	0.00062968	0	0	0	
0.147	0.0113649	0.049065	0.000136297	0.000733391	0	0	0	
0.147167	-0.00192474	-0.0504835	0.000160586	0.000857203	0	0	0	
0.147333	-0.00994505	0.0416331	0.000226936	0.00088569	0	0	0	
0.1475	0.00377537	-0.0395578	0.000265439	0.000811386	0	0	0	
0.147667	0.00674478	0.0302544	0.000257345	0.000726916	0	0	0	
0.147833	-0.00269239	-0.0390311	0.000211085	0.000661309	0	0	0	
0.148	0.00785273	0.0267396	0.000172468	0.000673638	0	0	0	
0.148167	0.00614888	-0.0201231	0.000145655	0.000596985	0	0	0	
0.148333	-0.00576324	0.0182532	0.000114562	0.000492388	0	0	0	
0.1485	0.00587666	-0.030038	0.000124407	0.000424698	0	0	0	
0.148667	-0.00478691	0.0431738	0.000121916	0.000524437	0	0	0	
0.148833	0.00624537	-0.0449037	0.000139039	0.000690807	0	0	0	
0.149	-0.00646684	0.0306311	0.000146065	0.000761761	0	0	0	
0.149167	0.00820495	-0.0219571	0.000175614	0.000682704	0	0	0	
0.149333	-0.00054309	0.021712	0.000169733	0.000551493	0	0	0	
0.1495	0.00359595	-0.0267711	0.000164287	0.00050695	0	0	0	
0.149667	-0.00069525	0.030198	0.000124987	0.000520101	0	0	0	
0.149833	-0.00517417	-0.0386035	0.000115597	0.000607592	0	0	0	
0.15	0.00028739	0.0417275	0.000134069	0.000683274	0	0	0	
0.150167	0.00524013	-0.0426868	0.000156908	0.000770362	0	0	0	
0.150333	-0.00365052	0.0393807	0.000151908	0.000788211	0	0	0	
0.1505	0.00172311	-0.0330847	0.000118524	0.000764659	0	0	0	
0.150667	0.00737742	0.0338599	0.000132825	0.000678988	0	0	0	
0.150833	-5.13546E-05	-0.0290355	0.000137543	0.000630269	0	0	0	
0.151	-0.00569797	0.0307961	0.000140147	0.000595047	0	0	0	
0.151167	-0.00880932	-0.0276876	0.000154598	0.000590626	0	0	0	
0.151333	0.0101725	0.0277464	0.000187178	0.000560178	0	0	0	
0.1515	-0.0021332	-0.0308554	0.00019181	0.000529511	0	0	0	
0.151667	-0.00504191	0.0341903	0.000163375	0.000541409	0	0	0	
0.151833	0.0131491	-0.027779	0.000171255	0.000559272	0	0	0	
0.152	-0.00344476	0.0236176	0.000235254	0.000553162	0	0	0	
0.152167	0.0033404	-0.0280422	0.000271969	0.00052175	0	0	0	
0.152333	-0.0123056	0.0433411	0.000282821	0.000556672	0	0	0	
0.1525	0.0041764	-0.0473367	0.000241776	0.000666343	0	0	0	
0.152667	-0.00199275	0.0400016	0.000189164	0.000772487	0	0	0	
0.152833	0.00266516	-0.0358994	0.000118179	0.000767161	0	0	0	
0.153	0.0035923	0.0377079	8.16294E-05	0.00072369	0	0	0	
0.153167	-0.00411147	-0.032391	9.37526E-05	0.000662222	0	0	0	
0.153333	-0.00729219	0.0301985	0.000135122	0.000643262	0	0	0	
0.1535	0.00842515	-0.0357455	0.000212182	0.000645139	0	0	0	
0.153667	-0.000431457	0.0350801	0.000252718	0.000671508	0	0	0	
0.153833	0.00500304	-0.0239166	0.000207668	0.000647567	0	0	0	
0.154	-0.0110593	0.021698	0.000156209	0.000576358	0	0	0	
0.154167	0.00261045	-0.027712	0.000154575	0.000522012	0	0	0	
0.154333	-0.000836962	0.0379095	0.000209053	0.000574883	0	0	0	
0.1545	0.00666839	-0.0386551	0.000208935	0.000639934	0	0	0	
0.154667	-0.00616145	0.0336979	0.000217439	0.000679666	0	0	0	
0.154833	0.00296316	-0.0314306	0.000164596	0.000642352	0	0	0	
0.155	0.0129955	0.0357845	0.000149306	0.000660152	0	0	0	
0.155167	0.00103475	-0.0327338	0.00015738	0.000647757	0	0	0	
0.155333	-0.0103616	0.0327023	0.000202333	0.000671023	0	0	0	
0.1555	0.00516222	-0.0395497	0.000259595	0.000655501	0	0	0	
0.155667	0.000271076	0.0447856	0.000226195	0.000725387	0	0	0	
0.155833	0.000983009	-0.0435116	0.000188005	0.000802305	0	0	0	
0.156	0.00204659	0.0392251	0.000130066	0.000835281	0	0	0	
0.156167	0.00517947	-0.0311224	0.000143372	0.000789714	0	0	0	
0.156333	-0.00628716	0.0346022	0.000183436	0.000732061	0	0	0	
0.1565	0.00102549	-0.0407308	0.000199958	0.000716749	0	0	0	
0.156667	-0.00295868	0.0405058	0.000153746	0.000756605	0	0	0	
0.156833	0.00127649	-0.0337535	9.80028E-05	0.000766568	0	0	0	
0.157	0.00241833	0.0301992	6.25452E-05	0.000730557	0	0	0	
0.157167	-0.00302442	-0.0313518	6.38345E-05	0.000651214	0	0	0	
0.157333	-0.000801997	0.0284543	7.4856E-05	0.000603478	0	0	0	
0.1575	0.000536695	-0.0266488	9.55457E-05	0.000574585	0	0	0	
0.157667	-0.00245009	0.0225197	9.57574E-05	0.000563525	0	0	0	
0.157833	0.00529165	-0.0238625	9.2815E-05	0.000538955	0	0	0	
0.158	-0.0080719	0.027426	0.0001031	0.0005715	0	0	0	
0.158167	0.00481738	-0.0306512	0.000106941	0.000581207	0	0	0	
0.158333	-0.0031979	0.0302826	0.000113315	0.00060826	0	0	0	
0.1585	-0.000828253	-0.0301345	7.74553E-05	0.000578102	0	0	0	
0.158667	0.00027319	0.0216349	6.42401E-05	0.000549082	0	0	0	
0.158833	0.0102842	-0.0321987	0.000100822	0.000513058	0	0	0	
0.159	-0.0102681	0.108946	0.000163185	0.000842619	0	0	0	
0.159167	0.0505221	0.0404475	0.00074335	0.00164596	0	0	0	
0.159333	-0.00789129	0.0367582	0.000736205	0.00183274	0	0	0	
0.1595	-0.0103386	-0.0462453	0.000739376	0.00166395	0	0	0	
0.159667	0.00515843	0.0315985	0.000209894	0.000963034	0	0	0	
0.159833	-0.00518898	-0.0331685	0.000189275	0.000832906	0	0	0	
0.16	0.00580988	0.0787662	0.000205269	0.000734199	0	0	0	
0.160167	0.000569061	-0.0724918	0.000189961	0.000974483	0	0	0	
0.160333	-0.00707058	0.051755	0.000181457	0.00113131	0	0	0	
0.1605	0.00525349	-0.0245277	0.000132875	0.0011359	0	0	0	
0.160667	0.000900034	0.0123571	9.65938E-05	0.000725352	0	0	0	
0.160833	-0.00420353	-0.00822646	8.10376E-05	0.000410987	0	0	0	
0.161	0.0017996	0.00957598	6.11031E-05	0.000239747	0	0	0	
0.161167	0.00155539	-0.0143103	5.12947E-05	0.000260037	0	0	0	
0.161333	-0.00708078	0.0178744	7.23138E-05	0.000328971	0	0	0	
0.1615	0.0122201	-0.0246063	0.000132602	0.000398107	0	0	0	
0.161667	-0.0065258	0.0179567	0.000209969	0.000434015	0	0	0	
0.161833	0.00359664	-0.015445	0.000196238	0.000396138	0	0	0	
0.162	-0.00227034	0.016916	0.000141397	0.000344489	0	0	0	
0.162167	0.000219747	-0.0295722	0.000101033	0.000323076	0	0	0	
0.162333	0.00216821	0.0352838	0.000137484	0.000422684	0	0	0	
0.1625	-0.00317026	-0.0318966	0.000143346	0.00052386	0	0	0	
0.162667	0.00638212	0.0209959	0.000137616	0.000564592	0	0	0	
0.162833	-0.00312679	-0.0102927	0.000113568	0.000504019	0	0	0	
0.163	-0.00153844	0.00643361	8.64763E-05	0.00039658	0	0	0	
0.163167	0.00297637	-0.0101891	6.18683E-05	0.000317105	0	0	0	
0.163333	-0.00452793	0.0166808	5.78747E-05	0.000321838	0	0	0	
0.1635	0.00501495	-0.0297514	8.77712E-05	0.000379121	0	0	0	
0.163667	-0.00123748	0.0290181	0.000104033	0.000456747	0	0	0	
0.163833	1.12959E-05	-0.0119795	9.63465E-05	0.000497241	0	0	0	
0.164	-0.00659163	0.00683913	9.24112E-05	0.000430476	0	0	0	
0.164167	0.00030034	-0.00929061	0.000103969	0.000308798	0	0	0	
0.164333	0.00782271	0.0197372	0.000166614	0.000186949	0	0	0	
0.1645	-0.00376626	-0.0281924	0.000214535	0.000275686	0	0	0	
0.164667	-0.0112737	0.0286842	0.000225917	0.00046917	0	0	0	
0.164833	0.0140363	-0.00860799	0.000243386	0.000563948	0	0	0	
0.165	-0.00756105	0.000346944	0.000271494	0.000436557	0	0	0	
0.165167	-0.00171085	-0.00210868	0.000275297	0.000219553	0	0	0	
0.165333	-0.00505026	0.00631478	0.000189752	0.000125997	0	0	0	
0.1655	0.0125358	-0.0146248	0.000147453	0.000186996	0	0	0	
0.165667	-0.0146655	0.0179471	0.00017628	0.000276776	0	0	0	
0.165833	0.0186795	-0.0252156	0.000280709	0.000364084	0	0	0	
0.166	-0.016283	0.0222659	0.000315027	0.000434281	0	0	0	
0.166167	0.0103288	-0.01566	0.000312635	0.000437229	0	0	0	
0.166333	-0.00427626	0.0108236	0.000242574	0.000380795	0	0	0	
0.1665	-0.00116777	-0.0196708	0.000165277	0.000346722	0	0	0	
0.166667	0.00122015	0.025946	9.51385E-05	0.000452045	0	0	0	
0.166833	0.00418393	-0.0307861	6.21074E-05	0.000614594	0	0	0	
0.167	-0.00626519	0.0223911	6.96063E-05	0.000637745	0	0	0	
0.167167	0.00422683	-0.00957357	9.8578E-05	0.000496923	0	0	0	
0.167333	0.00104607	0.00604399	0.000107086	0.0002949	0	0	0	
0.1675	-0.00315364	-0.00692508	8.46103E-05	0.000198108	0	0	0	
0.167667	-0.00355841	0.0165426	6.05993E-05	0.000235749	0	0	0	
0.167833	0.00837459	-0.0232423	7.00906E-05	0.000368373	0	0	0	
0.168	-0.00530615	0.0319989	0.000105489	0.00049724	0	0	0	
0.168167	-0.00344686	-0.0268257	0.000108527	0.000582403	0	0	0	
0.168333	0.000330588	0.0139259	7.96264E-05	0.000519255	0	0	0	
0.1685	0.0029406	-0.0108647	5.01206E-05	0.000407749	0	0	0	
0.168667	-0.000338821	0.0181128	5.05098E-05	0.000308146	0	0	0	
0.168833	-0.0037799	-0.0240757	7.6989E-05	0.000333593	0	0	0	
0.169	0.00193084	0.0194844	7.60802E-05	0.000418363	0	0	0	
0.169167	1.24037E-05	-0.0304192	6.36149E-05	0.000499917	0	0	0	
0.169333	-0.00306879	0.0198235	6.02349E-05	0.000507063	0	0	0	
0.1695	-0.000197393	-0.0148291	6.30844E-05	0.000445402	0	0	0	
0.169667	0.000757144	0.0139239	5.81038E-05	0.000340449	0	0	0	
0.169833	0.00308934	-0.0242124	4.65398E-05	0.000336285	0	0	0	
0.17	-0.00287303	0.0240953	5.00348E-05	0.000413753	0	0	0	
0.170167	0.00399088	-0.0354349	6.72588E-05	0.00051109	0	0	0	
0.170333	-0.00116126	0.0234821	7.34288E-05	0.000550697	0	0	0	
0.1705	0.000540298	-0.0100873	6.27978E-05	0.00046614	0	0	0	
0.170667	-0.00205172	0.0091865	5.4146E-05	0.000353616	0	0	0	
0.170833	0.00224095	-0.0221393	3.65698E-05	0.000281107	0	0	0	
0.171	0.00205324	0.0311781	4.74688E-05	0.000364476	0	0	0	
0.171167	-0.00153128	-0.0269538	6.50248E-05	0.000504053	0	0	0	
0.171333	0.00144908	0.0246123	6.32995E-05	0.000576808	0	0	0	
0.1715	0.000406161	-0.014503	4.84793E-05	0.00051605	0	0	0	
0.171667	-0.000104592	0.0135388	2.19593E-05	0.000386142	0	0	0	
0.171833	-0.000405074	-0.0133725	2.20311E-05	0.000280242	0	0	0	
0.172	-0.000866003	0.0203628	2.4524E-05	0.000294898	0	0	0	
0.172167	0.00235691	-0.0195344	2.78547E-05	0.000370942	0	0	0	
0.172333	-0.00311218	0.0217003	3.81427E-05	0.000453028	0	0	0	
0.1725	0.00429805	-0.0205783	4.88126E-05	0.000488875	0	0	0	
0.172667	-0.00300675	0.013008	6.54331E-05	0.000450984	0	0	0	
0.172833	0.00385559	-0.010379	6.8675E-05	0.000372728	0	0	0	
0.173	-0.00488725	0.0166875	7.03071E-05	0.000302026	0	0	0	
0.173167	0.00218719	-0.0269525	6.97453E-05	0.000328294	0	0	0	
0.173333	0.000299327	0.0249424	5.43841E-05	0.000415396	0	0	0	
0.1735	0.00252121	-0.0198417	4.08368E-05	0.000472273	0	0	0	
0.173667	-0.00318612	0.00647378	4.16462E-05	0.000410536	0	0	0	
0.173833	0.00156322	-0.00592083	5.06017E-05	0.000280455	0	0	0	
0.174	-0.00221956	0.00967385	6.68526E-05	0.000188257	0	0	0	
0.174167	0.00196338	-0.0263778	8.52997E-05	0.000246471	0	0	0	
0.174333	0.00117445	0.0292254	9.89888E-05	0.000436573	0	0	0	
0.1745	-0.00161744	-0.0349002	9.46367E-05	0.00060383	0	0	0	
0.174667	0.000340179	0.0267488	5.80781E-05	0.000679906	0	0	0	
0.174833	0.000958437	-0.0131184	3.92792E-05	0.000571249	0	0	0	
0.175	-0.00219536	0.00697072	3.16995E-05	0.000404038	0	0	0	
0.175167	0.00248527	-0.0116219	3.73396E-05	0.000259715	0	0	0	
0.175333	-0.00256974	0.016707	4.19513E-05	0.000279679	0	0	0	
0.1755	0.00097708	-0.023511	4.39904E-05	0.000385986	0	0	0	
0.175667	0.00102612	0.0222325	4.26417E-05	0.000536444	0	0	0	
0.175833	-0.000411083	-0.00858632	4.50913E-05	0.000568321	0	0	0	
0.176	-0.00104249	0.00944926	3.84191E-05	0.000488417	0	0	0	
0.176167	0.00181636	-0.00903456	3.71244E-05	0.000339353	0	0	0	
0.176333	-0.00279925	0.0141405	4.19397E-05	0.000273958	0	0	0	
0.1765	0.00276242	-0.0178936	7.29274E-05	0.000343584	0	0	0	
0.176667	-0.0014119	0.0169657	8.21541E-05	0.000417167	0	0	0	
0.176833	3.75571E-05	-0.0103221	8.58058E-05	0.000405338	0	0	0	
0.177	-0.000339331	0.00686136	7.69741E-05	0.000313691	0	0	0	
0.177167	0.000877367	-0.00695139	7.17799E-05	0.000230038	0	0	0	
0.177333	-0.00043499	0.0130782	5.68154E-05	0.000226421	0	0	0	
0.1775	0.00272098	-0.0242917	4.23671E-05	0.000294516	0	0	0	
0.177667	-0.00208771	0.0312973	4.42755E-05	0.000404443	0	0	0	
0.177833	0.00385238	-0.0284661	5.2429E-05	0.000503866	0	0	0	
0.178	-0.00296798	0.0105535	6.32055E-05	0.000502047	0	0	0	
0.178167	0.00211385	-0.00744768	6.71682E-05	0.000394428	0	0	0	
0.178333	-0.00231875	0.00954265	6.28038E-05	0.000276728	0	0	0	
0.1785	0.00307061	-0.0255122	5.19492E-05	0.000288172	0	0	0	
0.178667	-0.000491916	0.0306821	5.47619E-05	0.000465404	0	0	0	
0.178833	0.00106176	-0.0261311	4.70645E-05	0.000612881	0	0	0	
0.179	-0.000542904	0.0130677	4.4586E-05	0.000603095	0	0	0	
0.179167	0.000445993	-0.00604992	4.17805E-05	0.000417962	0	0	0	
0.179333	9.73294E-06	0.00537763	5.22609E-05	0.000256773	0	0	0	
0.1795	0.000910206	-0.0176062	5.23582E-05	0.000255484	0	0	0	
0.179667	0.000479495	0.0170067	4.33587E-05	0.000391088	0	0	0	
0.179833	0.00241433	-0.0299648	4.03246E-05	0.000503561	0	0	0	
0.18	-7.26042E-05	0.0261873	3.78688E-05	0.00055217	0	0	0	
0.180167	-0.00249525	-0.0132542	4.04375E-05	0.000493961	0	0	0	
0.180333	0.000411569	0.00690799	4.11448E-05	0.000381935	0	0	0	
0.1805	-0.000492751	-0.00649423	3.67697E-05	0.000251344	0	0	0	
0.180667	0.00341713	0.0173782	4.59809E-05	0.000222922	0	0	0	
0.180833	0.00160962	-0.0229491	7.61557E-05	0.000350847	0	0	0	
0.181	-0.00343512	0.022481	0.000116432	0.000480296	0	0	0	
0.181167	0.0032507	-0.0154488	0.000130837	0.000532838	0	0	0	
0.181333	-0.00149102	0.0102025	0.00010464	0.000428399	0	0	0	
0.1815	-0.000468919	-0.00758156	6.33453E-05	0.000319606	0	0	0	
0.181667	-0.000277111	0.0125539	4.02787E-05	0.000258251	0	0	0	
0.181833	0.000846446	-0.0141826	4.86457E-05	0.000333256	0	0	0	
0.182	-0.00403697	0.0207071	6.43144E-05	0.000438555	0	0	0	
0.182167	0.00502783	-0.0216075	7.31254E-05	0.000530149	0	0	0	
0.182333	-0.00196092	0.010879	7.06632E-05	0.000486605	0	0	0	
0.1825	0.00111822	-0.0046613	5.8693E-05	0.000370013	0	0	0	
0.182667	0.000244925	0.00530828	4.16546E-05	0.000232799	0	0	0	
0.182833	-0.00189282	-0.0162767	3.14472E-05	0.000211329	0	0	0	
0.183	0.00217872	0.0240521	4.39232E-05	0.00030327	0	0	0	
0.183167	0.00146418	-0.0280409	4.76984E-05	0.000436994	0	0	0	
0.183333	-0.00443221	0.0192956	5.58879E-05	0.000512314	0	0	0	
0.1835	0.00290393	-0.00978655	6.16162E-05	0.000470466	0	0	0	
0.183667	-0.0016512	0.0075699	6.64941E-05	0.000349806	0	0	0	
0.183833	0.00402038	-0.0153734	6.38033E-05	0.000266308	0	0	0	
0.184	-0.00466024	0.0208748	6.22312E-05	0.000300212	0	0	0	
0.184167	0.00342022	-0.0226182	6.81809E-05	0.000389183	0	0	0	
0.184333	-0.00248301	0.0156533	7.75163E-05	0.00045663	0	0	0	
0.1845	0.00149945	-0.00620313	6.19271E-05	0.000410598	0	0	0	
0.184667	-0.00158988	0.00453622	4.82641E-05	0.000316886	0	0	0	
0.184833	-0.00141066	-0.00403897	3.30866E-05	0.000233251	0	0	0	
0.185	-0.000653645	0.0148288	3.839E-05	0.000292829	0	0	0	
0.185167	0.00029963	-0.02775	4.54999E-05	0.000499881	0	0	0	
0.185333	-0.000275014	0.0322886	4.64608E-05	0.000729695	0	0	0	
0.1855	0.000803917	-0.0265862	6.24941E-05	0.000790635	0	0	0	
0.185667	-0.000216814	0.0140895	7.55382E-05	0.000644782	0	0	0	
0.185833	0.00137443	-0.00340152	7.07478E-05	0.000398091	0	0	0	
0.186	-0.00730307	0.00292911	6.16717E-05	0.000233954	0	0	0	
0.186167	0.00797784	-0.00619739	8.46837E-05	0.000245057	0	0	0	
0.186333	-0.0067036	0.00465294	0.00012234	0.000371011	0	0	0	
0.1865	0.00423637	-0.00925698	0.000141917	0.000478189	0	0	0	
0.186667	-0.00230252	0.00777226	0.000109019	0.00045503	0	0	0	
0.186833	0.00138702	-0.00472613	7.4574E-05	0.000340682	0	0	0	
0.187	-6.26014E-05	0.00579169	4.8506E-05	0.000258186	0	0	0	
0.187167	0.00190759	-0.018233	6.44695E-05	0.000294451	0	0	0	
0.187333	-0.00217095	0.0197189	8.04889E-05	0.000424449	0	0	0	
0.1875	0.00250173	-0.0275413	8.56062E-05	0.000508611	0	0	0	
0.187667	0.000721563	0.0236168	7.32752E-05	0.000524368	0	0	0	
0.187833	-0.00236199	-0.0124606	6.1592E-05	0.000439182	0	0	0	
0.188	0.00107227	0.00353316	4.77812E-05	0.000334197	0	0	0	
0.188167	0.000294518	-0.00651896	3.33141E-05	0.000244822	0	0	0	
0.188333	0.000392493	0.00894897	1.91853E-05	0.000296744	0	0	0	
0.1885	0.00391007	-0.0225156	3.29911E-05	0.000427719	0	0	0	
0.188667	-0.00220895	0.0239809	4.63567E-05	0.00057555	0	0	0	
0.188833	0.00135185	-0.0146696	6.86349E-05	0.000591702	0	0	0	
0.189	-0.00196273	0.00906312	6.26249E-05	0.000502936	0	0	0	
0.189167	0.00294898	-0.00861571	5.50632E-05	0.000374067	0	0	0	
0.189333	-0.00538987	0.0145158	5.64182E-05	0.000322846	0	0	0	
0.1895	0.00780069	-0.031502	8.35581E-05	0.000383958	0	0	0	
0.189667	-0.00344559	0.0256871	0.000112331	0.000516151	0	0	0	
0.189833	1.43808E-05	-0.0115843	0.000102259	0.000544776	0	0	0	
0.19	0.00220189	0.00400549	7.07808E-05	0.000462307	0	0	0	
0.190167	7.15849E-05	-0.00187257	3.83029E-05	0.000298644	0	0	0	
0.190333	-0.00427357	0.00329755	4.1033E-05	0.000205157	0	0	0	
0.1905	0.00522212	-0.0103123	6.56332E-05	0.000255843	0	0	0	
0.190667	-0.000236781	0.0131013	7.83362E-05	0.00042427	0	0	0	
0.190833	-0.00119392	-0.0195536	6.51123E-05	0.000599352	0	0	0	
0.191	0.000452606	0.0151408	3.41924E-05	0.000637439	0	0	0	
0.191167	0.00188921	-0.00865149	1.96555E-05	0.000502911	0	0	0	
0.191333	-0.00239091	0.0054881	2.52435E-05	0.000328062	0	0	0	
0.1915	0.00289227	-0.0127328	3.54202E-05	0.000243038	0	0	0	
0.191667	-0.00341465	0.0177733	5.25327E-05	0.000273427	0	0	0	
0.191833	0.000878534	-0.0194411	6.72706E-05	0.000369507	0	0	0	
0.192	0.000436357	0.0128709	6.64667E-05	0.000446298	0	0	0	
0.192167	-0.000998243	-0.00593941	5.1847E-05	0.000420671	0	0	0	
0.192333	0.000296533	0.00291376	3.64434E-05	0.00031996	0	0	0	
0.1925	0.00307622	-0.0100538	3.62886E-05	0.000241089	0	0	0	
0.192667	-0.00589123	0.0201794	6.14366E-05	0.000320818	0	0	0	
0.192833	0.00297932	-0.01667	8.23409E-05	0.000494832	0	0	0	
0.193	-0.00379957	0.0133189	9.42898E-05	0.000599431	0	0	0	
0.193167	0.00323567	-0.00885069	8.48612E-05	0.000519551	0	0	0	
0.193333	-0.00324202	0.00480692	7.15862E-05	0.000335285	0	0	0	
0.1935	0.00203465	-0.00388927	6.23545E-05	0.00020347	0	0	0	
0.193667	-0.00110681	0.0100675	4.72798E-05	0.000225739	0	0	0	
0.193833	-0.000539989	-0.00830094	4.27484E-05	0.00037544	0	0	0	
0.194	-0.00353361	0.0236659	4.74341E-05	0.000524045	0	0	0	
0.194167	0.00248008	-0.0193273	6.27795E-05	0.000590938	0	0	0	
0.194333	-0.00109659	0.00686606	5.80657E-05	0.000496235	0	0	0	
0.1945	0.000140123	-0.00316468	4.14315E-05	0.00034615	0	0	0	
0.194667	-0.000661928	0.0105222	2.44654E-05	0.000259445	0	0	0	
0.194833	0.00304939	-0.015655	2.89983E-05	0.000342859	0	0	0	
0.195	-0.00568148	0.0214555	5.5126E-05	0.000485028	0	0	0	
0.195167	0.00404967	-0.0188165	7.25902E-05	0.000564085	0	0	0	
0.195333	-0.00216605	0.0105906	8.41298E-05	0.000504281	0	0	0	
0.1955	0.000422862	-0.0041163	6.48873E-05	0.000367623	0	0	0	
0.195667	-0.00114348	0.00223633	4.93281E-05	0.000241442	0	0	0	
0.195833	0.00314654	-0.00587306	5.67936E-05	0.000222368	0	0	0	
0.196	-0.00236093	0.00531085	8.82631E-05	0.000350573	0	0	0	
0.196167	0.00160575	-0.0189614	0.000104359	0.000518775	0	0	0	
0.196333	0.000795539	0.0162746	7.8256E-05	0.000627399	0	0	0	
0.1965	-0.000599088	-0.00762184	4.9665E-05	0.000563925	0	0	0	
0.196667	0.00040062	0.00632356	3.02503E-05	0.00040644	0	0	0	
0.196833	-0.000667792	-0.0130258	3.34102E-05	0.000277544	0	0	0	
0.197	0.000904401	0.0175613	4.22978E-05	0.000320156	0	0	0	
0.197167	0.00355451	-0.0187342	6.11073E-05	0.000432847	0	0	0	
0.197333	-0.00462693	0.0162868	6.61839E-05	0.000520215	0	0	0	
0.1975	0.00566664	-0.00745845	8.66408E-05	0.000506726	0	0	0	
0.197667	-0.00286918	0.00618547	9.36961E-05	0.000430624	0	0	0	
0.197833	0.00113333	-0.00691317	0.000110078	0.000343243	0	0	0	
0.198	0.0029284	0.0104913	0.000129136	0.000309969	0	0	0	
0.198167	-0.0054726	-0.00754045	0.000206921	0.000337737	0	0	0	
0.198333	0.0115282	0.0045891	0.000296185	0.000368204	0	0	0	
0.1985	-0.0149235	0.00292086	0.000337228	0.000387603	0	0	0	
0.198667	0.00861085	0.00183648	0.000299949	0.000399127	0	0	0	
0.198833	-0.000157118	-0.00712458	0.000211357	0.000383877	0	0	0	
0.199	-0.00683194	0.00772927	0.000127015	0.000330686	0	0	0	
0.199167	0.0149724	-0.0073981	0.000155153	0.000304838	0	0	0	
0.199333	-0.0172273	0.00925634	0.000251422	0.000357351	0	0	0	
0.1995	0.0169956	-0.00905515	0.000358844	0.000451327	0	0	0	
0.199667	-0.0111863	0.00882774	0.00036423	0.000472525	0	0	0	
0.199833	0.00030208	-0.0038132	0.000279194	0.000383534	0	0	0	
0.2	-0.00200441	0.00165827	0.000165329	0.000249219	0	0	0	
0.200167	0.00728272	-0.00945616	0.000108409	0.000214345	0	0	0	
0.200333	-0.00221219	0.00849875	0.000114974	0.000309413	0	0	0	
0.2005	-0.0025645	-0.0144869	0.000114636	0.000421271	0	0	0	
0.200667	0.0067343	0.0125765	0.000101447	0.000482179	0	0	0	
0.200833	-0.00392563	-0.00919912	9.4517E-05	0.000434216	0	0	0	
0.201	0.000225707	0.00500392	9.54028E-05	0.00035227	0	0	0	
0.201167	0.00214706	-0.000380017	7.22901E-05	0.00025741	0	0	0	
0.201333	-0.0105359	-0.00666129	6.99637E-05	0.00028484	0	0	0	
0.2015	0.0110001	-0.00465568	0.000129454	0.000462601	0	0	0	
0.201667	-0.0129901	0.0159798	0.000188905	0.000724242	0	0	0	
0.201833	0.0122465	-0.0192713	0.000243907	0.000853969	0	0	0	
0.202	-0.0035201	0.0100477	0.000225579	0.000733148	0	0	0	
0.202167	0.00111233	-0.00213827	0.000177504	0.00045802	0	0	0	
0.202333	-0.00235042	0.0069983	0.000144373	0.00028913	0	0	0	
0.2025	-0.0088784	-0.00846197	0.000203234	0.000359189	0	0	0	
0.202667	-0.000200286	0.00473712	0.000270017	0.000524693	0	0	0	
0.202833	0.0102925	-0.00868486	0.000263446	0.000601565	0	0	0	
0.203	-0.00340884	0.00663028	0.000204583	0.000549674	0	0	0	
0.203167	0.00131265	-0.00514466	0.000125636	0.000429175	0	0	0	
0.203333	0.00158373	0.00124603	8.05314E-05	0.000325129	0	0	0	
0.2035	-0.00718474	0.00312921	5.78052E-05	0.000333529	0	0	0	
0.203667	0.00288745	0.00450629	8.40929E-05	0.000505669	0	0	0	
0.203833	-0.000236007	-0.00934831	8.41288E-05	0.000733426	0	0	0	
0.204	0.000334368	0.00288041	8.39263E-05	0.000800028	0	0	0	
0.204167	0.00148448	-0.00227361	8.89744E-05	0.000612452	0	0	0	
0.204333	-0.000376795	-0.00419102	0.000102006	0.000334573	0	0	0	
0.2045	-0.00508437	0.00806893	9.54668E-05	0.0001741	0	0	0	
0.204667	0.00447525	-0.00812348	0.000128396	0.000252004	0	0	0	
0.204833	-0.00816522	-0.0118914	0.000154763	0.000454893	0	0	0	
0.205	0.00130379	0.0170107	0.000153502	0.000638263	0	0	0	
0.205167	0.0023314	-0.0124816	0.000105094	0.000675853	0	0	0	
0.205333	-0.00392921	0.00293782	7.77529E-05	0.000545948	0	0	0	
0.2055	0.00218952	0.00453971	7.24386E-05	0.000344944	0	0	0	
0.205667	-0.00839962	-0.011977	8.61466E-05	0.000235516	0	0	0	
0.205833	0.00225632	0.000949592	8.69824E-05	0.000267561	0	0	0	
0.206	0.00119723	0.009608	7.7942E-05	0.000432913	0	0	0	
0.206167	-0.000623056	-0.00828634	4.00162E-05	0.000559335	0	0	0	
0.206333	0.00167483	0.00612665	3.42432E-05	0.00052888	0	0	0	
0.2065	-0.00106942	-0.00246561	3.51011E-05	0.000367477	0	0	0	
0.206667	-0.00357664	0.00552735	5.37396E-05	0.000241484	0	0	0	
0.206833	0.00381475	-0.00976947	6.95731E-05	0.000314066	0	0	0	
0.207	-0.00743437	0.0149236	0.000129114	0.000478374	0	0	0	
0.207167	0.00715396	-0.00919274	0.000165961	0.000609539	0	0	0	
0.207333	0.000558912	0.00164549	0.000186929	0.000576609	0	0	0	
0.2075	0.00498971	0.00257317	0.000136038	0.000435038	0	0	0	
0.207667	-0.0068502	-0.000154542	0.000118467	0.000295569	0	0	0	
0.207833	0.00573951	-0.0129791	0.000100125	0.000275408	0	0	0	
0.208	-0.00876622	0.0176718	0.000138845	0.00037146	0	0	0	
0.208167	0.00399705	-0.0147254	0.00015445	0.000481644	0	0	0	
0.208333	0.0050924	0.00924479	0.000155773	0.000516771	0	0	0	
0.2085	-0.00103548	-0.00609077	0.000120485	0.000462052	0	0	0	
0.208667	-0.00122776	0.00975048	7.2613E-05	0.00036446	0	0	0	
0.208833	-0.000770377	-0.00588957	5.3865E-05	0.000267845	0	0	0	
0.209	-0.00110867	-0.0794431	7.18487E-05	0.000362443	0	0	0	
0.209167	-0.0412125	-0.0647565	0.000623188	0.000988159	0	0	0	
0.209333	0.00404768	-0.00891781	0.000665226	0.00118415	0	0	0	
0.2095	0.0140031	0.0250807	0.00068427	0.00117101	0	0	0	
0.209667	-0.0138057	-0.00808848	0.000193019	0.000587238	0	0	0	
0.209833	0.013654	0.00146432	0.00022611	0.000474182	0	0	0	
0.21	-0.0130892	-0.0272033	0.000319126	0.00051948	0	0	0	
0.210167	0.00323598	0.0158436	0.000294561	0.000696058	0	0	0	
0.210333	0.00655479	0.00724175	0.000232463	0.000896595	0	0	0	
0.2105	-0.00306565	-0.0219503	0.000118226	0.000968353	0	0	0	
0.210667	-0.00205953	0.0125839	9.82333E-05	0.000883375	0	0	0	
0.210833	0.0102942	0.00143815	0.000125375	0.00065602	0	0	0	
0.211	-0.0173498	-0.00762695	0.000185186	0.000486187	0	0	0	
0.211167	0.0114361	0.00907312	0.000266123	0.000517274	0	0	0	
0.211333	-0.00396047	0.00553403	0.00025546	0.000680719	0	0	0	
0.2115	-0.000745407	-0.00973614	0.000165937	0.00075904	0	0	0	
0.211667	0.0012198	0.00457053	7.57409E-05	0.00067032	0	0	0	
0.211833	0.00242848	-0.00231925	5.28966E-05	0.000533086	0	0	0	
0.212	-0.0022411	-0.0018842	6.89845E-05	0.000466436	0	0	0	
0.212167	0.00203911	0.0014447	8.26278E-05	0.000485916	0	0	0	
0.212333	-7.85631E-05	0.00800365	7.32843E-05	0.000551547	0	0	0	
0.2125	-0.00142496	-0.012894	5.99344E-05	0.000615286	0	0	0	
0.212667	0.00120562	0.00933982	4.74505E-05	0.000641332	0	0	0	
0.212833	0.00186917	-0.00975246	4.2486E-05	0.000631167	0	0	0	
0.213	-0.00211824	0.00663284	4.12214E-05	0.000603414	0	0	0	
0.213167	0.00283733	-0.00579708	4.37985E-05	0.000562027	0	0	0	
0.213333	-0.000433157	0.00483316	5.57562E-05	0.000530787	0	0	0	
0.2135	0.00354217	-0.00504996	5.69725E-05	0.000531774	0	0	0	
0.213667	-0.00493605	0.00193121	8.11187E-05	0.000561082	0	0	0	
0.213833	0.00371499	0.00076269	0.000102682	0.000556419	0	0	0	
0.214	-0.000187424	-0.000423273	9.84815E-05	0.000523966	0	0	0	
0.214167	-0.000498603	-0.00643766	6.33651E-05	0.000543126	0	0	0	
0.214333	0.00278101	0.0155347	3.17585E-05	0.000647822	0	0	0	
0.2145	-0.00170852	-0.0124251	3.69103E-05	0.000730993	0	0	0	
0.214667	-0.000397905	0.0105868	5.16528E-05	0.000673302	0	0	0	
0.214833	0.00312436	-0.00948122	6.29972E-05	0.000545876	0	0	0	
0.215	-0.00603803	0.00606296	7.0463E-05	0.000453971	0	0	0	
0.215167	0.0065156	-0.000212979	9.17364E-05	0.000476745	0	0	0	
0.215333	-0.00664393	0.00303875	0.000116569	0.000572671	0	0	0	
0.2155	0.00369053	-0.00650978	0.000125869	0.00067243	0	0	0	
0.215667	-0.0022869	0.0067589	0.000104425	0.000719868	0	0	0	
0.215833	0.00149934	-0.00584009	6.8238E-05	0.000726418	0	0	0	
0.216	-0.00542731	0.00296474	5.75269E-05	0.000731441	0	0	0	
0.216167	0.00521778	-0.00104526	7.9368E-05	0.000723228	0	0	0	
0.216333	-0.0029902	-0.00490988	0.000101842	0.000648034	0	0	0	
0.2165	0.00282054	0.0101402	0.000103816	0.000554099	0	0	0	
0.216667	-0.00229841	-0.0147144	0.000101185	0.000575386	0	0	0	
0.216833	-0.000385196	-0.0011462	0.000107616	0.000700301	0	0	0	
0.217	0.00371659	0.00452136	0.000125626	0.000790813	0	0	0	
0.217167	0.00318483	-0.00857652	0.000107872	0.000751351	0	0	0	
0.217333	-0.00504197	-6.69771E-05	9.80213E-05	0.000680131	0	0	0	
0.2175	0.00354425	-0.00616645	8.81957E-05	0.000644601	0	0	0	
0.217667	-0.000443526	0.00332892	9.2756E-05	0.000627006	0	0	0	
0.217833	0.000770003	0.00589929	9.57522E-05	0.000579636	0	0	0	
0.218	0.000672947	-0.0120741	9.18603E-05	0.000573693	0	0	0	
0.218167	0.00280275	-0.000290275	7.39317E-05	0.000625761	0	0	0	
0.218333	-0.000900813	-0.0105847	5.44858E-05	0.000707571	0	0	0	
0.2185	0.00275269	0.00751762	4.46366E-05	0.000720315	0	0	0	
0.218667	-0.0016337	-0.00274256	5.02868E-05	0.000688656	0	0	0	
0.218833	-9.51219E-05	-0.00137734	4.6746E-05	0.000646223	0	0	0	
0.219	0.0014778	0.00594939	4.58547E-05	0.000607173	0	0	0	
0.219167	-0.000221791	-0.00776148	4.09571E-05	0.000569867	0	0	0	
0.219333	-0.00232534	0.00271264	3.75811E-05	0.00053829	0	0	0	
0.2195	0.00281739	-0.00213161	4.47199E-05	0.000527224	0	0	0	
0.219667	0.000490067	0.00116669	5.44383E-05	0.000538563	0	0	0	
0.219833	0.00213577	-0.00522767	8.13888E-05	0.00058463	0	0	0	
0.22	-0.00320544	0.00448363	9.07204E-05	0.00066509	0	0	0	
0.220167	0.00274524	-0.00133259	9.87568E-05	0.000722486	0	0	0	
0.220333	-0.000991027	-0.00321345	7.08109E-05	0.000717825	0	0	0	
0.2205	0.000854688	0.000390951	4.61367E-05	0.000684939	0	0	0	
0.220667	-0.000977817	0.00584865	2.59788E-05	0.000682866	0	0	0	
0.220833	-0.00515503	-0.0132726	4.32936E-05	0.000702992	0	0	0	
0.221	0.00617865	0.00495372	9.2783E-05	0.000621816	0	0	0	
0.221167	0.0390863	0.0735986	0.000327105	0.000557903	0	0	0	
0.221333	-0.0269852	-0.0168039	0.00140876	0.00216184	0	0	0	
0.2215	0.0270266	0.0262519	0.00208149	0.00280842	0	0	0	
0.221667	-0.0323029	-0.0520228	0.0019513	0.00310048	0	0	0	
0.221833	-0.0150125	0.025038	0.00110503	0.00214532	0	0	0	
0.222	0.0296676	0.0123938	0.000745407	0.0021963	0	0	0	
0.222167	-0.0561527	-0.0462491	0.00104382	0.00228309	0	0	0	
0.222333	0.0433681	-0.0103427	0.000955509	0.00163398	0	0	0	
0.2225	-0.122988	-0.135299	0.00216402	0.00300137	0	0	0	
0.222667	0.0472116	-0.00322949	0.00223721	0.00278991	0	0	0	
0.222833	0.0119106	0.0641841	0.00231816	0.00300522	0	0	0	
0.223	-0.065493	-0.057407	0.000933953	0.00122536	0	0	0	
0.223167	0.053158	0.0440788	0.000765593	0.0013596	0	0	0	
0.223333	-0.048623	-0.0436434	0.000975971	0.00127983	0	0	0	
0.2235	0.0334071	0.0244408	0.00114243	0.00117741	0	0	0	
0.223667	0.000518258	-0.0118857	0.00114148	0.00105308	0	0	0	
0.223833	-0.00929936	-0.00451438	0.000912324	0.00108908	0	0	0	
0.224	0.0154849	0.0200861	0.000656002	0.00115981	0	0	0	
0.224167	-0.0129842	-0.00118857	0.000441642	0.00110416	0	0	0	
0.224333	-0.00569538	-0.000106941	0.000345903	0.000867372	0	0	0	
0.2245	0.0106585	0.0105471	0.000346788	0.000658336	0	0	0	
0.224667	-0.00751641	-0.0110687	0.000306399	0.000610808	0	0	0	
0.224833	-0.000776496	0.011707	0.000245236	0.000747367	0	0	0	
0.225	0.00665211	-0.00369206	0.000219205	0.00088979	0	0	0	
0.225167	-0.00347317	0.00774182	0.000217989	0.000926147	0	0	0	
0.225333	-0.00156251	-0.00656406	0.000160319	0.000803736	0	0	0	
0.2255	0.00258589	0.0109868	0.000117769	0.000632139	0	0	0	
0.225667	-0.00236017	-0.0163774	0.00010125	0.000554165	0	0	0	
0.225833	0.00482954	0.0160532	0.000105151	0.000605175	0	0	0	
0.226	-0.0046	-0.0155328	9.30449E-05	0.000688234	0	0	0	
0.226167	0.00500659	0.0162258	8.96291E-05	0.000728267	0	0	0	
0.226333	-0.00305799	-0.00689403	0.00010397	0.000738806	0	0	0	
0.2265	-4.4787E-05	-0.00141933	9.75141E-05	0.000745426	0	0	0	
0.226667	0.00194482	-0.000230281	6.26393E-05	0.000715935	0	0	0	
0.226833	0.00203667	0.00193834	3.99958E-05	0.000638508	0	0	0	
0.227	-0.00223879	-0.0090922	5.24308E-05	0.000551742	0	0	0	
0.227167	0.00361556	0.00758353	7.56872E-05	0.000501745	0	0	0	
0.227333	-0.00207999	-0.00165565	7.1573E-05	0.000528643	0	0	0	
0.2275	-0.00135751	0.00461007	6.04614E-05	0.000601196	0	0	0	
0.227667	0.00346933	-0.00623726	6.7444E-05	0.000672687	0	0	0	
0.227833	-0.00676462	0.00925629	9.97061E-05	0.000715611	0	0	0	
0.228	0.00800671	-0.00359944	0.000119524	0.000715272	0	0	0	
0.228167	-0.00258821	-0.00075304	0.000134629	0.00068498	0	0	0	
0.228333	-0.00146382	-0.00540262	0.000154079	0.000631608	0	0	0	
0.2285	0.00387113	0.00951631	0.000160905	0.000578216	0	0	0	
0.228667	-0.00643886	-0.00431558	0.000148135	0.000517736	0	0	0	
0.228833	0.00678963	0.00555762	0.00013878	0.000482982	0	0	0	
0.229	-0.00696346	0.00162463	0.000138506	0.000479	0	0	0	
0.229167	0.000879244	0.000958785	0.00013388	0.000528725	0	0	0	
0.229333	0.00293161	-0.00368805	9.35858E-05	0.000587619	0	0	0	
0.2295	-0.00114099	0.00899552	7.09531E-05	0.00063783	0	0	0	
0.229667	-0.000280365	-0.00288183	4.93992E-05	0.000663524	0	0	0	
0.229833	1.69502E-05	0.00329394	4.67128E-05	0.00068249	0	0	0	
0.23	0.00137708	0.000314057	2.80702E-05	0.000683857	0	0	0	
0.230167	-0.00345103	0.00380076	3.30248E-05	0.000685399	0	0	0	
0.230333	0.0033343	-0.00440837	4.84399E-05	0.000677372	0	0	0	
0.2305	-0.00100441	0.010371	7.18026E-05	0.000662989	0	0	0	
0.230667	-0.00306036	-0.00811686	8.04549E-05	0.000612678	0	0	0	
0.230833	0.00570973	0.0120633	8.79032E-05	0.000567535	0	0	0	
0.231	-0.00515	-0.0106657	9.4735E-05	0.000553236	0	0	0	
0.231167	0.00455341	0.0113779	0.000104395	0.000607964	0	0	0	
0.231333	-0.000149083	-0.00924268	9.57708E-05	0.000657504	0	0	0	
0.2315	-0.000131508	0.00601782	8.4038E-05	0.000674973	0	0	0	
0.231667	-0.00175623	-0.00132111	6.89159E-05	0.000644616	0	0	0	
0.231833	-0.00123783	0.00421527	4.91515E-05	0.000613004	0	0	0	
0.232	0.00122527	-0.0027773	4.0101E-05	0.000586462	0	0	0	
0.232167	0.00144644	0.0108163	4.76051E-05	0.000571345	0	0	0	
0.232333	-0.000216345	-0.0185497	9.29823E-05	0.000573166	0	0	0	
0.2325	0.000174496	0.0145238	0.000108106	0.000583301	0	0	0	
0.232667	-0.00340306	-0.00832534	9.36004E-05	0.000593951	0	0	0	
0.232833	0.00499092	0.0117778	7.61246E-05	0.000581897	0	0	0	
0.233	-0.00631798	-0.0123958	8.59947E-05	0.000554799	0	0	0	
0.233167	-0.000116379	0.00915166	0.00010521	0.00055943	0	0	0	
0.233333	0.00263065	-0.00893025	8.82233E-05	0.00063221	0	0	0	
0.2335	-0.00117479	0.000768992	6.35796E-05	0.000692829	0	0	0	
0.233667	-0.00162923	-0.00435217	6.3354E-05	0.000657937	0	0	0	
0.233833	0.00470309	0.00892732	0.000106855	0.000551203	0	0	0	
0.234	-0.0026322	-0.00468607	0.000143166	0.000498009	0	0	0	
0.234167	-0.00617497	0.00548662	0.000149428	0.000535694	0	0	0	
0.234333	0.00203816	-0.0157993	0.000120815	0.000602051	0	0	0	
0.2345	0.00195498	0.0129289	9.93581E-05	0.000644976	0	0	0	
0.234667	0.000856346	0.00086413	9.52599E-05	0.000678149	0	0	0	
0.234833	-0.00424343	0.00868148	0.000100058	0.000733443	0	0	0	
0.235	0.00529149	-0.0143428	0.000113779	0.000791586	0	0	0	
0.235167	-0.00548923	0.027108	0.000127323	0.000845701	0	0	0	
0.235333	-0.000447444	-0.0203392	0.000110994	0.000837458	0	0	0	
0.2355	0.000874039	0.0140262	8.35143E-05	0.000791198	0	0	0	
0.235667	-0.000572542	-0.00742352	4.814E-05	0.000704283	0	0	0	
0.235833	0.000349955	0.024866	5.75574E-05	0.000682494	0	0	0	
0.236	-0.00230405	-0.0239013	6.54188E-05	0.00070976	0	0	0	
0.236167	0.0012275	0.0225929	7.78966E-05	0.000732551	0	0	0	
0.236333	-0.0011425	-0.00765858	7.10932E-05	0.000674621	0	0	0	
0.2365	0.000792727	0.0072371	6.1496E-05	0.000607361	0	0	0	
0.236667	-0.00490801	-0.00499092	5.70336E-05	0.000560649	0	0	0	
0.236833	0.00329426	0.00917959	7.14947E-05	0.000550896	0	0	0	
0.237	-0.00272525	-0.00827514	9.50119E-05	0.000551617	0	0	0	
0.237167	-0.00216704	0.00971525	0.000101913	0.000584723	0	0	0	
0.237333	0.0043874	-0.0117234	9.11302E-05	0.000632694	0	0	0	
0.2375	-0.000297582	0.0176062	6.6009E-05	0.000676597	0	0	0	
0.237667	-0.00153142	-0.0167908	6.25522E-05	0.000684638	0	0	0	
0.237833	0.000886916	0.0126824	6.28422E-05	0.000654281	0	0	0	
0.238	-0.00105156	-0.00949874	5.51401E-05	0.000636851	0	0	0	
0.238167	-0.00110472	0.0111188	4.07992E-05	0.000655183	0	0	0	
0.238333	-0.000201241	-0.0146365	3.7176E-05	0.000697837	0	0	0	
0.2385	0.00601301	0.014227	7.86734E-05	0.000705726	0	0	0	
0.238667	-0.00428099	-0.0159173	0.000109465	0.000687633	0	0	0	
0.238833	0.000992085	0.00848724	0.000107681	0.000645355	0	0	0	
0.239	0.0020728	-0.00873227	7.23066E-05	0.000625139	0	0	0	
0.239167	0.000731281	0.0130419	5.24118E-05	0.000618463	0	0	0	
0.239333	0.000362052	-0.0166417	4.96367E-05	0.000625588	0	0	0	
0.2395	-5.44402E-06	0.0178158	6.51823E-05	0.00061137	0	0	0	
0.239667	0.00013187	-0.021528	9.7553E-05	0.000601126	0	0	0	
0.239833	0.0022867	0.0176366	0.000127724	0.000597725	0	0	0	
0.24	0.000372271	-0.0139986	0.000115391	0.000615656	0	0	0	
0.240167	0.000465389	0.0138327	7.07641E-05	0.000661884	0	0	0	
0.240333	-0.00176926	-0.00967491	3.48916E-05	0.000675016	0	0	0	
0.2405	0.00236185	0.0092523	3.77128E-05	0.000623816	0	0	0	
0.240667	0.00156023	-0.0127759	4.61005E-05	0.000522505	0	0	0	
0.240833	-0.00069222	0.0119983	4.90346E-05	0.000474524	0	0	0	
0.241	0.00046258	-0.0102147	5.77861E-05	0.000487304	0	0	0	
0.241167	0.00112124	0.0128259	7.21619E-05	0.000543814	0	0	0	
0.241333	-0.000519393	-0.0085716	9.70783E-05	0.000591453	0	0	0	
0.2415	8.24915E-05	0.0105195	0.000113113	0.000634085	0	0	0	
0.241667	-0.00320556	-0.0131447	0.000118328	0.00063428	0	0	0	
0.241833	0.00665797	0.0174016	0.000107512	0.000642734	0	0	0	
0.242	-0.00353145	-0.0209067	0.000102568	0.000662523	0	0	0	
0.242167	-0.000728733	0.0183866	8.44835E-05	0.000669572	0	0	0	
0.242333	0.00460107	-0.0223777	9.14998E-05	0.000673778	0	0	0	
0.2425	0.00139208	0.0145759	0.000105544	0.000726249	0	0	0	
0.242667	-0.00526042	0.0675144	0.000114426	0.000891884	0	0	0	
0.242833	0.106015	-0.0157304	0.000516073	0.00166547	0	0	0	
0.243	0.00225409	0.00119823	0.000707946	0.0018576	0	0	0	
0.243167	-0.0178809	-0.0114141	0.000733545	0.00157071	0	0	0	
0.243333	0.015558	-0.000383658	0.000437031	0.000623858	0	0	0	
0.2435	-0.0138361	-2.02544E-05	0.000352554	0.000179178	0	0	0	
0.243667	-0.00406438	0.0148094	0.000638635	0.000204616	0	0	0	
0.243833	0.01235	-0.014619	0.00100389	0.00029991	0	0	0	
0.244	-0.0103398	0.00104089	0.00128263	0.000343625	0	0	0	
0.244167	0.0105115	0.0280465	0.00112594	0.000464975	0	0	0	
0.244333	-0.0070499	-0.0185717	0.000659487	0.000613086	0	0	0	
0.2445	-0.0180432	0.00744808	0.000301865	0.000706973	0	0	0	
0.244667	0.0417501	-0.0128275	0.00030977	0.000590444	0	0	0	
0.244833	-0.0742225	0.0231678	0.000675793	0.000491211	0	0	0	
0.245	0.0501062	-0.0222081	0.00102726	0.000543759	0	0	0	
0.245167	-0.0246498	0.02076	0.00108432	0.000640515	0	0	0	
0.245333	0.0122529	-0.0195205	0.000790341	0.000640725	0	0	0	
0.2455	-0.00422307	0.011263	0.000414622	0.000525347	0	0	0	
0.245667	-0.000802289	-0.00725792	0.000187003	0.000377449	0	0	0	
0.245833	0.00760158	-0.00063593	0.000100408	0.000275825	0	0	0	
0.246	-0.00867268	-0.0100478	0.000129807	0.000333998	0	0	0	
0.246167	0.00213037	0.00411085	0.000180781	0.000452642	0	0	0	
0.246333	-0.0029724	-0.0119907	0.000173959	0.000543453	0	0	0	
0.2465	0.00115713	0.00669748	0.000101095	0.000496942	0	0	0	
0.246667	-0.000178475	-0.00784231	4.26415E-05	0.000370767	0	0	0	
0.246833	0.000482706	0.0100089	2.86036E-05	0.000265511	0	0	0	
0.247	0.000462352	-0.0165352	3.9221E-05	0.000316778	0	0	0	
0.247167	-0.000223068	0.0156184	4.9032E-05	0.000489079	0	0	0	
0.247333	0.00219449	-0.010626	5.12152E-05	0.000617349	0	0	0	
0.2475	-0.00198137	0.00878031	4.94103E-05	0.00059417	0	0	0	
0.247667	0.00079354	-0.00669426	5.29876E-05	0.000451202	0	0	0	
0.247833	-0.00145008	0.00816021	6.23495E-05	0.000316502	0	0	0	
0.248	0.00355799	-0.0144615	5.62755E-05	0.000264898	0	0	0	
0.248167	-0.0025954	0.0296567	5.60361E-05	0.00037621	0	0	0	
0.248333	0.00496466	-0.026783	6.51634E-05	0.000534202	0	0	0	
0.2485	-0.00195435	0.0156777	6.41729E-05	0.000622045	0	0	0	
0.248667	0.00154624	-0.00702005	5.74057E-05	0.000570751	0	0	0	
0.248833	-0.00173128	0.00307732	4.32799E-05	0.000407621	0	0	0	
0.249	0.00264688	-0.0095454	5.22139E-05	0.000270554	0	0	0	
0.249167	-0.00238366	0.0225816	6.85048E-05	0.000233585	0	0	0	
0.249333	-0.000843614	-0.0190256	7.60819E-05	0.00033293	0	0	0	
0.2495	0.00388379	0.0144459	7.39707E-05	0.000482658	0	0	0	
0.249667	-0.000201988	-0.0123753	6.07197E-05	0.000583709	0	0	0	
0.249833	-0.00037572	0.0060886	4.90319E-05	0.00053814	0	0	0	
0.25	0.000496287	-0.00725783	3.74376E-05	0.000416617	0	0	0	
0.250167	0.000938223	0.00582011	2.02657E-05	0.000305616	0	0	0	
0.250333	-0.00412192	-0.0108161	4.07406E-05	0.000356223	0	0	0	
0.2505	0.00259447	0.0106945	6.02218E-05	0.000439798	0	0	0	
0.250667	-0.000246462	-0.0116278	9.91578E-05	0.000469006	0	0	0	
0.250833	-0.000559053	0.00915091	0.000106058	0.000388977	0	0	0	
0.251	-0.000204169	-0.00996114	8.37653E-05	0.000294444	0	0	0	
0.251167	0.000340109	0.0154636	4.43849E-05	0.000248536	0	0	0	
0.251333	-0.00511201	-0.0261713	3.96506E-05	0.00035218	0	0	0	
0.2515	0.00370155	0.0156088	6.42614E-05	0.000538433	0	0	0	
0.251667	0.00383268	-0.00594322	8.74067E-05	0.000706829	0	0	0	
0.251833	-0.00404523	0.00391669	9.00215E-05	0.000703027	0	0	0	
0.252	-0.000253806	-0.0035657	7.33114E-05	0.000538882	0	0	0	
0.252167	-0.000342682	0.00692547	5.63663E-05	0.000338164	0	0	0	
0.252333	-0.00550995	-0.00845161	3.7547E-05	0.000226216	0	0	0	
0.2525	0.00573213	0.019488	7.29489E-05	0.000289549	0	0	0	
0.252667	-0.00347024	-0.0195417	0.000114721	0.000390401	0	0	0	
0.252833	0.0024129	0.0205036	0.00013629	0.000528756	0	0	0	
0.253	-0.00032363	-0.0109635	0.000110353	0.000539963	0	0	0	
0.253167	-0.00137335	0.0064149	7.02285E-05	0.000481351	0	0	0	
0.253333	-0.000628138	-0.0081565	4.92436E-05	0.000354868	0	0	0	
0.2535	0.00342727	0.0139691	5.58156E-05	0.000373877	0	0	0	
0.253667	-0.00275435	-0.0101209	7.63973E-05	0.000493193	0	0	0	
0.253833	-0.00152235	0.0119166	9.43144E-05	0.000600371	0	0	0	
0.254	0.00287757	-0.01354	9.13395E-05	0.000568872	0	0	0	
0.254167	-0.0013004	0.00544202	7.72686E-05	0.000447141	0	0	0	
0.254333	-0.000827297	-0.0064233	4.98337E-05	0.000312878	0	0	0	
0.2545	0.000268547	0.015907	3.12808E-05	0.000261199	0	0	0	
0.254667	0.00246427	-0.0314582	2.14499E-05	0.000360121	0	0	0	
0.254833	-0.00449174	0.0335014	4.27841E-05	0.000560508	0	0	0	
0.255	0.00262979	-0.0203087	7.46745E-05	0.000712343	0	0	0	
0.255167	-0.000860959	0.00748722	0.000101215	0.000722872	0	0	0	
0.255333	-0.000850458	-0.00200201	8.44428E-05	0.000565686	0	0	0	
0.2555	0.000274211	0.00906361	4.98905E-05	0.000373693	0	0	0	
0.255667	0.000246219	-0.0230218	2.96362E-05	0.00027807	0	0	0	
0.255833	-0.00166352	0.0207116	4.05558E-05	0.000359569	0	0	0	
0.256	0.00299469	-0.0159573	5.44591E-05	0.000461192	0	0	0	
0.256167	-0.00263208	0.0160789	5.80426E-05	0.000532984	0	0	0	
0.256333	0.000285526	-0.00859485	5.35664E-05	0.000447403	0	0	0	
0.2565	0.00137277	0.0107064	4.72045E-05	0.00036955	0	0	0	
0.256667	-0.00137426	-0.0162664	4.26708E-05	0.000277915	0	0	0	
0.256833	-2.70224E-05	0.0197291	3.98823E-05	0.000337733	0	0	0	
0.257	0.00123219	-0.0190671	3.68788E-05	0.000471165	0	0	0	
0.257167	-0.00130221	0.0148292	3.53122E-05	0.000594672	0	0	0	
0.257333	0.00195329	-0.00778712	4.13592E-05	0.000555209	0	0	0	
0.2575	0.000316784	0.00594045	4.4621E-05	0.000405814	0	0	0	
0.257667	-0.00104369	-0.00704455	4.00096E-05	0.00024378	0	0	0	
0.257833	0.00132164	0.0138005	3.87189E-05	0.000190608	0	0	0	
0.258	-0.00207264	-0.0206202	5.79424E-05	0.000251166	0	0	0	
0.258167	-0.00236276	0.0282999	9.30198E-05	0.000371801	0	0	0	
0.258333	0.00324291	-0.0215429	0.00011595	0.000481456	0	0	0	
0.2585	-0.000806835	0.00998655	0.000109083	0.000482725	0	0	0	
0.258667	-0.00103382	-0.0078444	8.14806E-05	0.000394152	0	0	0	
0.258833	0.00276996	0.0128017	6.2727E-05	0.000290511	0	0	0	
0.259	-0.00135693	-0.0243809	7.78082E-05	0.000311598	0	0	0	
0.259167	-0.00225917	0.0226243	0.000106663	0.00041586	0	0	0	
0.259333	0.00368067	-0.0147231	0.000124927	0.000528354	0	0	0	
0.2595	-0.00235903	0.00773949	0.000113367	0.000521012	0	0	0	
0.259667	0.000466561	-0.00518921	8.20302E-05	0.00041375	0	0	0	
0.259833	-0.00113051	0.00617677	4.83626E-05	0.000284511	0	0	0	
0.26	-0.000333513	-0.0148458	2.26743E-05	0.000217126	0	0	0	
0.260167	-0.000655675	0.0235601	2.55614E-05	0.000281874	0	0	0	
0.260333	0.00187177	-0.0331122	3.96913E-05	0.000418177	0	0	0	
0.2605	-0.00473852	0.0293691	6.88404E-05	0.00057958	0	0	0	
0.260667	0.00126713	-0.0134091	8.09761E-05	0.000598535	0	0	0	
0.260833	0.00074157	0.00927097	7.32185E-05	0.000510304	0	0	0	
0.261	-0.00160801	-0.0101715	4.67782E-05	0.000357338	0	0	0	
0.261167	-0.000180257	0.0229197	3.01173E-05	0.000340312	0	0	0	
0.261333	-0.000674083	-0.023546	3.61872E-05	0.00042857	0	0	0	
0.2615	-0.00128926	0.0204274	5.84817E-05	0.000562275	0	0	0	
0.261667	0.000485861	-0.0112444	6.11473E-05	0.000559232	0	0	0	
0.261833	-0.00111981	0.00869771	4.77049E-05	0.000443125	0	0	0	
0.262	0.00114521	-0.0108451	3.19179E-05	0.000295496	0	0	0	
0.262167	-0.00367202	0.024836	3.62543E-05	0.000268563	0	0	0	
0.262333	0.00480604	-0.029855	6.3812E-05	0.000395472	0	0	0	
0.2625	-0.00278427	0.0271189	6.99549E-05	0.000530784	0	0	0	
0.262667	0.00127076	-0.0172561	9.57774E-05	0.000597329	0	0	0	
0.262833	0.00103165	0.00782303	0.000106463	0.000513355	0	0	0	
0.263	-0.00173188	-0.00760593	0.000105306	0.000379737	0	0	0	
0.263167	0.00100219	0.010163	7.36918E-05	0.000264391	0	0	0	
0.263333	0.000680927	-0.0157056	6.14746E-05	0.000258954	0	0	0	
0.2635	0.000119432	0.0193935	8.6498E-05	0.000360459	0	0	0	
0.263667	0.00318346	-0.0187003	0.00010043	0.000474761	0	0	0	
0.263833	-0.00404609	0.0130378	8.65704E-05	0.000515174	0	0	0	
0.264	0.00308646	-0.00713256	7.60903E-05	0.00043372	0	0	0	
0.264167	-0.00188035	0.00764798	7.72946E-05	0.000311406	0	0	0	
0.264333	0.00214163	-0.0170553	7.49096E-05	0.000244197	0	0	0	
0.2645	0.000218541	0.0226178	6.60244E-05	0.000317616	0	0	0	
0.264667	-0.000176983	-0.0215722	6.00079E-05	0.00042396	0	0	0	
0.264833	-0.000673143	0.0125279	6.3069E-05	0.000485087	0	0	0	
0.265	0.000115425	-0.00639501	8.22918E-05	0.000412277	0	0	0	
0.265167	0.000131294	0.0069126	8.72591E-05	0.000296627	0	0	0	
0.265333	0.00167394	-0.0134534	8.15375E-05	0.00021908	0	0	0	
0.2655	-0.00403974	0.0207676	6.39916E-05	0.000263897	0	0	0	
0.265667	0.00317766	-0.0178366	7.08293E-05	0.000411092	0	0	0	
0.265833	-0.00530888	0.0163991	7.85084E-05	0.000568783	0	0	0	
0.266	0.00349201	-0.0117628	8.67259E-05	0.000615158	0	0	0	
0.266167	-0.00104193	0.00737605	8.53807E-05	0.000508121	0	0	0	
0.266333	0.00104237	-0.0119483	8.39798E-05	0.000349531	0	0	0	
0.2665	-6.53152E-05	0.0202912	5.70771E-05	0.000264829	0	0	0	
0.266667	4.20881E-05	-0.0326584	3.48636E-05	0.000397791	0	0	0	
0.266833	-0.00204912	0.0256984	2.31176E-05	0.000554461	0	0	0	
0.267	0.000435638	-0.0162855	2.49645E-05	0.000643733	0	0	0	
0.267167	0.000602167	0.00953447	3.69521E-05	0.000514192	0	0	0	
0.267333	-0.000880994	-0.00987979	5.05301E-05	0.000351505	0	0	0	
0.2675	-0.000699709	0.00844141	4.98593E-05	0.000223446	0	0	0	
0.267667	0.00447615	-0.0135007	4.63391E-05	0.000217137	0	0	0	
0.267833	-0.00426281	0.0173567	5.71194E-05	0.000286849	0	0	0	
0.268	0.00011147	-0.0153812	6.71795E-05	0.000433594	0	0	0	
0.268167	0.00117089	0.0059789	6.9332E-05	0.000535946	0	0	0	
0.268333	-0.000611025	-0.00319014	5.91277E-05	0.000488921	0	0	0	
0.2685	-0.000112016	0.0115105	5.59975E-05	0.000334902	0	0	0	
0.268667	0.000757221	-0.0210783	4.5073E-05	0.000260617	0	0	0	
0.268833	-0.00323346	0.0304507	3.89895E-05	0.000401229	0	0	0	
0.269	-0.000636264	-0.0326599	3.70654E-05	0.000592353	0	0	0	
0.269167	0.0026152	0.0271212	3.49984E-05	0.000698762	0	0	0	
0.269333	-0.00267709	-0.0163474	4.46559E-05	0.000640472	0	0	0	
0.2695	-0.00133028	0.00968312	4.36992E-05	0.00049826	0	0	0	
0.269667	0.00108053	-0.0121687	5.004E-05	0.000348986	0	0	0	
0.269833	0.000701793	0.0241729	3.48557E-05	0.000310668	0	0	0	
0.27	-0.0018372	-0.0287568	4.41079E-05	0.000376566	0	0	0	
0.270167	-0.000526424	0.0268813	4.78368E-05	0.000513814	0	0	0	
0.270333	0.000557827	-0.0125196	4.8757E-05	0.00055634	0	0	0	
0.2705	-0.00336102	0.00384868	5.16713E-05	0.000477982	0	0	0	
0.270667	0.00162541	-0.00504925	5.01713E-05	0.000310953	0	0	0	
0.270833	-0.0016864	0.0116146	5.07484E-05	0.000198987	0	0	0	
0.271	0.00431625	-0.0235292	5.65062E-05	0.00024494	0	0	0	
0.271167	-0.0035824	0.0371218	7.78674E-05	0.000432058	0	0	0	
0.271333	0.00175855	-0.0312632	8.37977E-05	0.000590338	0	0	0	
0.2715	-0.00223854	0.0141543	7.43947E-05	0.000626877	0	0	0	
0.271667	0.00107781	-0.00769086	5.01595E-05	0.000494541	0	0	0	
0.271833	-0.00164373	0.010261	4.32211E-05	0.000344311	0	0	0	
0.272	0.0009536	-0.0172325	3.87817E-05	0.000271934	0	0	0	
0.272167	-0.000992602	0.0234141	4.11346E-05	0.000329278	0	0	0	
0.272333	0.00315921	-0.019061	4.57441E-05	0.000387101	0	0	0	
0.2725	-0.00323159	0.015841	5.55504E-05	0.000441058	0	0	0	
0.272667	0.000604611	-0.0105323	5.87737E-05	0.000362077	0	0	0	
0.272833	-0.000393208	0.0107616	4.82271E-05	0.000304341	0	0	0	
0.273	0.000476571	-0.0159165	4.0393E-05	0.000237745	0	0	0	
0.273167	0.00229189	0.0271345	5.3853E-05	0.000343802	0	0	0	
0.273333	-0.00271544	-0.0210473	8.75968E-05	0.000438541	0	0	0	
0.2735	-0.00178227	0.0185305	9.88172E-05	0.000544701	0	0	0	
0.273667	0.00197652	-0.0092547	7.74127E-05	0.000482603	0	0	0	
0.273833	-0.00142896	0.00892	5.74916E-05	0.000385976	0	0	0	
0.274	-0.00126959	-0.0132318	4.67379E-05	0.00025866	0	0	0	
0.274167	0.00423983	0.0167028	5.6442E-05	0.000237723	0	0	0	
0.274333	-0.0034457	-0.0196014	8.09447E-05	0.00031904	0	0	0	
0.2745	0.00180006	0.0251061	0.000106274	0.000459282	0	0	0	
0.274667	0.000121122	-0.0185517	0.000121236	0.000541544	0	0	0	
0.274833	-0.000750023	0.0097858	0.000102262	0.000482257	0	0	0	
0.275	0.0013014	-0.0106873	7.37771E-05	0.000351715	0	0	0	
0.275167	-0.00157863	0.0154162	4.96659E-05	0.000250162	0	0	0	
0.275333	0.00132512	-0.0328892	4.07913E-05	0.000353992	0	0	0	
0.2755	-0.000101484	0.0305094	5.02403E-05	0.000520371	0	0	0	
0.275667	-0.000868199	-0.0204957	6.47969E-05	0.000622222	0	0	0	
0.275833	-0.00115946	0.00891375	7.2219E-05	0.000525932	0	0	0	
0.276	0.0030435	-0.00841478	7.16683E-05	0.000346849	0	0	0	
0.276167	-0.00396679	0.0105191	7.32405E-05	0.000224022	0	0	0	
0.276333	0.00387969	-0.0217621	7.99607E-05	0.000228194	0	0	0	
0.2765	-0.000338683	0.0181458	7.61339E-05	0.000310175	0	0	0	
0.276667	-0.00121759	-0.0260336	7.01263E-05	0.000416449	0	0	0	
0.276833	-0.00163198	0.0218222	5.58896E-05	0.000504442	0	0	0	
0.277	0.00150461	-0.0140841	4.40934E-05	0.000482902	0	0	0	
0.277167	-0.000867843	0.0124735	2.91133E-05	0.000404474	0	0	0	
0.277333	0.000932651	-0.0168622	2.10169E-05	0.000303071	0	0	0	
0.2775	0.00168924	0.0212854	2.80428E-05	0.000324548	0	0	0	
0.277667	-0.00613162	-0.031968	4.7687E-05	0.000447906	0	0	0	
0.277833	0.00438005	0.0220372	7.97049E-05	0.000554013	0	0	0	
0.278	-0.000782555	-0.0111504	8.20649E-05	0.000534584	0	0	0	
0.278167	-6.35188E-05	0.00752299	6.01931E-05	0.000379383	0	0	0	
0.278333	0.00122623	-0.0140956	2.81694E-05	0.000260858	0	0	0	
0.2785	-0.00141438	0.0296896	2.80181E-05	0.000264297	0	0	0	
0.278667	0.00058287	-0.0338679	5.381E-05	0.000457222	0	0	0	
0.278833	0.000545285	0.0337448	7.78284E-05	0.000611659	0	0	0	
0.279	-6.29532E-05	-0.0313454	8.17563E-05	0.000757491	0	0	0	
0.279167	0.000744533	0.0125115	6.55954E-05	0.000654944	0	0	0	
0.279333	0.0012171	-0.01085	5.28955E-05	0.000499904	0	0	0	
0.2795	-0.00161659	0.0203051	6.79199E-05	0.000320112	0	0	0	
0.279667	0.00303202	-0.0354384	0.000115194	0.000358423	0	0	0	
0.279833	-0.00219719	0.0376641	0.000150261	0.000489796	0	0	0	
0.28	0.00289935	-0.0322513	0.000137243	0.000645602	0	0	0	
0.280167	0.000504113	0.0138282	0.000116025	0.000608791	0	0	0	
0.280333	0.00206993	-0.00851651	8.85995E-05	0.000464893	0	0	0	
0.2805	-0.00249342	0.00717097	7.88751E-05	0.000265282	0	0	0	
0.280667	0.003811	-0.0194919	8.30613E-05	0.00019478	0	0	0	
0.280833	-0.010058	0.0254515	0.000139222	0.000274676	0	0	0	
0.281	0.00604016	-0.0207467	0.000193721	0.000416489	0	0	0	
0.281167	9.71642E-05	0.0141035	0.000185545	0.000460552	0	0	0	
0.281333	0.000136595	-0.00759684	0.000113123	0.000385687	0	0	0	
0.2815	-0.00284959	0.00986965	5.23933E-05	0.000265505	0	0	0	
0.281667	0.00533313	-0.0175267	5.21698E-05	0.000239808	0	0	0	
0.281833	-0.00775776	0.0327135	0.000113626	0.000349356	0	0	0	
0.282	0.0058539	-0.0321519	0.000175099	0.000493123	0	0	0	
0.282167	-0.00709149	0.0275194	0.000197055	0.000612595	0	0	0	
0.282333	0.00339073	-0.0162769	0.000173458	0.000598684	0	0	0	
0.2825	-0.00265229	0.00813134	0.000120417	0.000459005	0	0	0	
0.282667	0.00276975	-0.00553907	7.71579E-05	0.000289296	0	0	0	
0.282833	-0.00380378	0.0150964	5.56136E-05	0.000212535	0	0	0	
0.283	0.00832944	-0.0208294	0.000105248	0.000294229	0	0	0	
0.283167	-0.00528013	0.0287751	0.000140027	0.000374117	0	0	0	
0.283333	-0.000299547	-0.026766	0.000143204	0.000481134	0	0	0	
0.2835	0.000115723	0.0141848	8.4775E-05	0.000482835	0	0	0	
0.283667	0.000918885	-0.00999089	5.35322E-05	0.000453366	0	0	0	
0.283833	-0.00395852	0.00962816	4.23574E-05	0.000313476	0	0	0	
0.284	0.00716412	-0.0179594	0.000113281	0.000242036	0	0	0	
0.284167	-0.00846133	0.0365272	0.000179588	0.000295206	0	0	0	
0.284333	0.00687759	-0.0341405	0.000221207	0.000475808	0	0	0	
0.2845	-0.00454538	0.022374	0.000182692	0.000585609	0	0	0	
0.284667	0.00317903	-0.00970271	0.000117648	0.000540335	0	0	0	
0.284833	-0.000152345	0.00916911	6.92678E-05	0.000358983	0	0	0	
0.285	-0.0036629	-0.0256071	4.71188E-05	0.000258503	0	0	0	
0.285167	-0.000751991	0.040999	5.43483E-05	0.000404938	0	0	0	
0.285333	0.00556432	-0.0275179	6.80054E-05	0.000584475	0	0	0	
0.2855	-0.00543286	0.0235349	9.74336E-05	0.000706275	0	0	0	
0.285667	-0.000914927	-0.0106157	8.75095E-05	0.000579786	0	0	0	
0.285833	0.00159594	0.00789233	8.55125E-05	0.000412323	0	0	0	
0.286	-0.000453096	-0.016339	7.50281E-05	0.000270765	0	0	0	
0.286167	-0.00238975	0.0258759	0.000100331	0.000299132	0	0	0	
0.286333	0.00504127	-0.0315384	0.000121438	0.000387312	0	0	0	
0.2865	-0.00385258	0.0270677	0.000128287	0.000489757	0	0	0	
0.286667	-0.000905407	-0.0192029	0.000118774	0.000509864	0	0	0	
0.286833	0.000566562	0.0115389	8.90769E-05	0.00045904	0	0	0	
0.287	-7.83558E-06	-0.0137909	5.48219E-05	0.000360937	0	0	0	
0.287167	0.000545375	0.0263158	5.25875E-05	0.000309693	0	0	0	
0.287333	0.00195336	-0.0337282	8.94354E-05	0.000397842	0	0	0	
0.2875	0.000203841	0.0291111	0.000123935	0.000532834	0	0	0	
0.287667	0.00152905	-0.0256034	0.000114536	0.000613613	0	0	0	
0.287833	0.000394435	0.0112484	6.99537E-05	0.000529625	0	0	0	
0.288	0.000964092	-0.00791566	3.51565E-05	0.000384144	0	0	0	
0.288167	-0.00583864	0.0169743	4.97179E-05	0.00026823	0	0	0	
0.288333	0.0139228	-0.0207558	0.000122593	0.000278475	0	0	0	
0.2885	-0.0102236	0.0239401	0.000209561	0.000356119	0	0	0	
0.288667	0.00442151	-0.0197615	0.00022422	0.000417167	0	0	0	
0.288833	0.000874833	0.0113923	0.00016546	0.000397027	0	0	0	
0.289	-0.00207506	-0.00848864	8.23544E-05	0.000316864	0	0	0	
0.289167	0.00089494	0.0121986	4.43173E-05	0.000241362	0	0	0	
0.289333	0.000735018	-0.0254324	3.71323E-05	0.000245224	0	0	0	
0.2895	-0.000341523	0.0339824	3.99443E-05	0.0003728	0	0	0	
0.289667	0.00136626	-0.0298169	4.40898E-05	0.000504345	0	0	0	
0.289833	-0.0029491	0.0197354	5.27945E-05	0.000576236	0	0	0	
0.29	0.00214074	-0.0135189	5.58421E-05	0.00047747	0	0	0	
0.290167	0.00057601	0.0142656	4.99563E-05	0.000364084	0	0	0	
0.290333	-0.000518009	-0.0204143	4.14663E-05	0.00028617	0	0	0	
0.2905	-0.00573942	0.0249908	5.00016E-05	0.00035235	0	0	0	
0.290667	0.00214615	-0.0315093	6.27228E-05	0.000431562	0	0	0	
0.290833	0.00174118	0.0269677	6.57744E-05	0.000520259	0	0	0	
0.291	-0.00244502	-0.016361	5.72526E-05	0.000519495	0	0	0	
0.291167	0.000749922	0.00969246	4.72153E-05	0.000429252	0	0	0	
0.291333	0.000181737	-0.0103271	3.2952E-05	0.000309558	0	0	0	
0.2915	-0.00328918	0.02104	2.71714E-05	0.000250146	0	0	0	
0.291667	0.00123795	-0.0329783	3.89508E-05	0.000344691	0	0	0	
0.291833	-0.00355894	0.0305702	6.50549E-05	0.000491322	0	0	0	
0.292	0.00107927	-0.0214082	6.4943E-05	0.000555164	0	0	0	
0.292167	-0.000215118	0.00626065	4.92324E-05	0.000463744	0	0	0	
0.292333	0.00105838	-0.00350701	2.71916E-05	0.000275909	0	0	0	
0.2925	-0.00473739	0.0209504	3.15953E-05	0.000234218	0	0	0	
0.292667	-0.000611236	-0.108981	7.82017E-05	0.000511775	0	0	0	
0.292833	-0.0997034	0.0576195	0.000514752	0.00169471	0	0	0	
0.293	0.000546091	-0.0500683	0.000706549	0.00201222	0	0	0	
0.293167	0.0026325	0.055152	0.000701748	0.0020215	0	0	0	
0.293333	-0.000496779	-0.0404032	0.000284798	0.00111221	0	0	0	
0.2935	0.00655198	0.0308291	0.000130994	0.000889906	0	0	0	
0.293667	-0.0191314	-0.036769	0.000196255	0.000736071	0	0	0	
0.293833	-0.00233804	0.039979	0.000234893	0.000787814	0	0	0	
0.294	0.00489671	-0.0301987	0.000196074	0.000821388	0	0	0	
0.294167	-0.00487187	0.00983643	0.000137008	0.000726033	0	0	0	
0.294333	0.00528602	-0.0187273	0.000129996	0.00046559	0	0	0	
0.2945	0.0011766	0.0344597	0.000139754	0.000391005	0	0	0	
0.294667	-0.00526526	-0.0456369	0.000103682	0.000550299	0	0	0	
0.294833	0.00487624	0.039582	7.63848E-05	0.000727661	0	0	0	
0.295	-0.000489033	-0.0345629	7.36586E-05	0.000780963	0	0	0	
0.295167	-0.00481802	0.0268122	6.64717E-05	0.000688961	0	0	0	
0.295333	0.00807752	-0.0282694	8.07965E-05	0.000588229	0	0	0	
0.2955	-0.00551863	0.0234339	0.000110867	0.00052468	0	0	0	
0.295667	0.0018668	-0.023794	0.000124835	0.000505622	0	0	0	
0.295833	-0.000788171	0.022452	0.000101701	0.000481287	0	0	0	
0.296	0.00189084	-0.0277269	6.83707E-05	0.000477285	0	0	0	
0.296167	-0.00461224	0.030226	6.38559E-05	0.000489842	0	0	0	
0.296333	0.00322044	-0.0327948	7.24905E-05	0.000531265	0	0	0	
0.2965	-0.0039306	0.0311904	9.10218E-05	0.00056693	0	0	0	
0.296667	0.00212771	-0.0334865	8.50744E-05	0.000593088	0	0	0	
0.296833	-0.00118761	0.0313902	6.99526E-05	0.000608364	0	0	0	
0.297	-0.000206861	-0.0341811	5.10075E-05	0.00059693	0	0	0	
0.297167	-0.000169489	0.0350885	4.15844E-05	0.000610342	0	0	0	
0.297333	0.00170044	-0.0358832	3.08234E-05	0.000619864	0	0	0	
0.2975	-0.00393944	0.0410272	3.15898E-05	0.0006711	0	0	0	
0.297667	0.00262974	-0.0423014	4.70763E-05	0.000719648	0	0	0	
0.297833	-0.00379423	0.0375419	6.1015E-05	0.000778764	0	0	0	
0.298	0.00470034	-0.0383743	6.9852E-05	0.000769156	0	0	0	
0.298167	-0.00537069	0.040386	9.02588E-05	0.000763091	0	0	0	
0.298333	0.00595073	-0.0357557	0.000123958	0.000738359	0	0	0	
0.2985	-0.00328857	0.0369224	0.000135424	0.000733523	0	0	0	
0.298667	-0.000496358	-0.0346216	0.000101082	0.00071354	0	0	0	
0.298833	0.00259819	0.0319474	6.38038E-05	0.000700519	0	0	0	
0.299	-0.000519281	-0.0312884	3.64986E-05	0.000681878	0	0	0	
0.299167	-0.00351711	0.0304574	3.68078E-05	0.000647587	0	0	0	
0.299333	0.00366842	-0.0305518	4.71465E-05	0.000601984	0	0	0	
0.2995	-0.00165176	0.0277336	5.25753E-05	0.000572664	0	0	0	
0.299667	-0.000776744	-0.0268837	5.80725E-05	0.000542792	0	0	0	
0.299833	-0.000692287	0.0270802	4.54379E-05	0.000520106	0	0	0	
0.3	0.00383005	-0.0229219	4.79164E-05	0.000491339	0	0	0	
0.300167	-0.00377345	0.0187	6.20257E-05	0.00043548	0	0	0	
0.300333	0.00312853	-0.0283907	7.33231E-05	0.0004096	0	0	0	
0.3005	-0.00480436	0.0317921	8.04289E-05	0.00047094	0	0	0	
0.300667	0.00215202	-0.0360801	7.18195E-05	0.000553313	0	0	0	
0.300833	-0.000170716	0.0399139	7.06041E-05	0.000638451	0	0	0	
0.301	-0.00207505	-0.03815	5.47372E-05	0.000652875	0	0	0	
0.301167	-0.000146853	0.0329749	3.81597E-05	0.000661633	0	0	0	
0.301333	0.00201358	-0.0319019	2.12034E-05	0.000625655	0	0	0	
0.3015	-0.00370988	0.0313853	2.95896E-05	0.000622809	0	0	0	
0.301667	0.00265603	-0.0295383	4.89709E-05	0.000608068	0	0	0	
0.301833	-0.00272669	0.0382581	5.67385E-05	0.000648831	0	0	0	
0.302	0.00101458	-0.0409005	4.78076E-05	0.000670357	0	0	0	
0.302167	-0.00207481	0.033361	3.85228E-05	0.000707022	0	0	0	
0.302333	0.00345253	-0.0281482	5.449E-05	0.000667436	0	0	0	
0.3025	-0.00175977	0.0238479	9.1764E-05	0.000620788	0	0	0	
0.302667	0.00118529	-0.0250772	0.000124032	0.000550269	0	0	0	
0.302833	-0.0022226	0.0299347	0.00013513	0.000558605	0	0	0	
0.303	0.00412371	-0.0321369	0.000108688	0.000560604	0	0	0	
0.303167	-0.00386547	0.0341221	8.86555E-05	0.000600929	0	0	0	
0.303333	0.0035807	-0.0356448	8.88956E-05	0.000620222	0	0	0	
0.3035	-0.000499483	0.0288877	9.71416E-05	0.000633791	0	0	0	
0.303667	-0.00134675	-0.0292506	8.52801E-05	0.000599741	0	0	0	
0.303833	0.000803376	0.0290493	5.0347E-05	0.000588625	0	0	0	
0.304	0.00122298	-0.0287611	3.15999E-05	0.000569111	0	0	0	
0.304167	-0.00325469	0.0314351	3.95296E-05	0.000582817	0	0	0	
0.304333	0.00555225	-0.0361802	7.10156E-05	0.000597518	0	0	0	
0.3045	-0.00474157	0.040284	0.000100999	0.000658088	0	0	0	
0.304667	0.00406454	-0.0379985	0.000118852	0.000755838	0	0	0	
0.304833	-0.00367426	0.0396604	0.000107964	0.0008028	0	0	0	
0.305	0.00229606	-0.0440511	8.23516E-05	0.000817159	0	0	0	
0.305167	-0.00260466	0.0399715	6.1651E-05	0.000803758	0	0	0	
0.305333	0.00556611	-0.0338693	5.85965E-05	0.000756323	0	0	0	
0.3055	-0.00504683	0.0315865	7.9541E-05	0.000719202	0	0	0	
0.305667	0.00386198	-0.0229208	8.68457E-05	0.000653463	0	0	0	
0.305833	-0.00308353	0.0264132	9.36413E-05	0.000614412	0	0	0	
0.306	-0.000599916	-0.0358067	8.31606E-05	0.000617132	0	0	0	
0.306167	0.00124368	0.031427	7.13115E-05	0.000670946	0	0	0	
0.306333	0.00272901	-0.0334911	5.27342E-05	0.000700453	0	0	0	
0.3065	-0.0054817	0.0350369	5.61569E-05	0.000692815	0	0	0	
0.306667	0.0045408	-0.0285764	6.8147E-05	0.000636184	0	0	0	
0.306833	-0.0039227	0.0269798	9.14396E-05	0.000616182	0	0	0	
0.307	0.00271781	-0.0238382	9.4796E-05	0.00057934	0	0	0	
0.307167	-0.00424163	0.0269236	8.9465E-05	0.000547917	0	0	0	
0.307333	0.00192775	-0.031712	7.08329E-05	0.000561241	0	0	0	
0.3075	-3.21596E-05	0.0302411	4.56505E-05	0.000585943	0	0	0	
0.307667	0.00182029	-0.0232326	4.38948E-05	0.000613378	0	0	0	
0.307833	-0.00444826	0.0222704	5.68826E-05	0.000567623	0	0	0	
0.308	0.00223508	-0.0239716	7.16691E-05	0.000503639	0	0	0	
0.308167	0.000783989	0.0283342	5.79601E-05	0.000486406	0	0	0	
0.308333	-0.00124895	-0.027231	4.60986E-05	0.00053472	0	0	0	
0.3085	-0.00322201	0.0275402	4.48697E-05	0.000571551	0	0	0	
0.308667	0.00310382	-0.0248471	5.49848E-05	0.000557087	0	0	0	
0.308833	-0.00315253	0.0281226	6.61506E-05	0.000525259	0	0	0	
0.309	0.00318356	-0.0301086	6.34476E-05	0.000526312	0	0	0	
0.309167	-0.00287287	0.0287014	6.80912E-05	0.000577851	0	0	0	
0.309333	0.00179173	-0.037356	5.17562E-05	0.000605882	0	0	0	
0.3095	0.000836516	0.0392309	4.66766E-05	0.000678052	0	0	0	
0.309667	0.00100227	-0.04011	3.21228E-05	0.000724885	0	0	0	
0.309833	-0.00306119	0.0367851	3.05571E-05	0.000793348	0	0	0	
0.31	0.00191779	-0.0360055	3.2163E-05	0.000784049	0	0	0	
0.310167	-0.00186817	0.030443	4.33296E-05	0.00076832	0	0	0	
0.310333	0.0030555	-0.0336189	4.91036E-05	0.000742026	0	0	0	
0.3105	-0.00205557	0.0278402	5.38707E-05	0.000767699	0	0	0	
0.310667	0.0039657	-0.0263201	4.94156E-05	0.000757434	0	0	0	
0.310833	-0.00218036	0.0259819	5.27267E-05	0.000701414	0	0	0	
0.311	0.000717369	-0.0281809	5.31565E-05	0.000618096	0	0	0	
0.311167	-0.00156899	0.0243042	5.44311E-05	0.000591065	0	0	0	
0.311333	0.00142477	-0.0234648	5.47755E-05	0.00062651	0	0	0	
0.3115	-0.00244977	0.028961	4.34359E-05	0.000633101	0	0	0	
0.311667	0.000785958	-0.0320106	4.09478E-05	0.000628119	0	0	0	
0.311833	-0.000155987	0.0345284	3.56115E-05	0.000606768	0	0	0	
0.312	-0.00126755	-0.0326988	3.53597E-05	0.000630842	0	0	0	
0.312167	1.52363E-05	0.0259081	4.7706E-05	0.000628149	0	0	0	
0.312333	0.000997917	-0.0242125	6.35694E-05	0.00061603	0	0	0	
0.3125	-0.00387896	0.0318734	7.93321E-05	0.000596722	0	0	0	
0.312667	0.00245567	-0.0317021	8.07054E-05	0.000656712	0	0	0	
0.312833	-0.00323033	0.0296196	6.98995E-05	0.000704439	0	0	0	
0.313	0.00136019	-0.0302813	5.794E-05	0.0006849	0	0	0	
0.313167	-0.00108142	0.0281898	4.21913E-05	0.000607167	0	0	0	
0.313333	0.00361805	-0.027405	4.10853E-05	0.000554815	0	0	0	
0.3135	-0.00411549	0.0278629	5.56172E-05	0.000577834	0	0	0	
0.313667	0.00302498	-0.0291985	7.25947E-05	0.000619275	0	0	0	
0.313833	-0.000576137	0.0248449	6.50606E-05	0.000644591	0	0	0	
0.314	-0.00015834	-0.0285925	4.01549E-05	0.000620394	0	0	0	
0.314167	0.000181631	0.0304755	2.12187E-05	0.000613191	0	0	0	
0.314333	0.00228102	-0.0336936	2.72669E-05	0.000633535	0	0	0	
0.3145	-0.000443913	0.0304997	4.25431E-05	0.00067888	0	0	0	
0.314667	0.000823943	-0.0296748	4.63043E-05	0.000702086	0	0	0	
0.314833	0.000764018	0.0286564	3.95725E-05	0.000716539	0	0	0	
0.315	0.00267265	-0.0309328	3.61079E-05	0.000729969	0	0	0	
0.315167	-0.00323562	0.0273853	3.83665E-05	0.000694817	0	0	0	
0.315333	0.00511002	-0.0309964	5.64202E-05	0.000659733	0	0	0	
0.3155	-0.00404769	0.0271858	7.20196E-05	0.000638937	0	0	0	
0.315667	0.00512949	-0.0279254	9.03232E-05	0.000637175	0	0	0	
0.315833	-0.00451604	0.0250874	8.86923E-05	0.000613566	0	0	0	
0.316	0.00502474	-0.0224715	9.31483E-05	0.000574912	0	0	0	
0.316167	-0.00294476	0.0197388	8.95732E-05	0.000528509	0	0	0	
0.316333	0.00517982	-0.026897	8.50086E-05	0.000509688	0	0	0	
0.3165	-0.00239012	0.0212397	8.10566E-05	0.000525225	0	0	0	
0.316667	0.00107486	-0.0278197	6.63296E-05	0.000551606	0	0	0	
0.316833	-0.00236784	0.0335225	7.32729E-05	0.00061069	0	0	0	
0.317	0.00224866	-0.0308076	7.64227E-05	0.000644863	0	0	0	
0.317167	-0.00189973	0.0303456	8.3224E-05	0.000657986	0	0	0	
0.317333	0.00209767	-0.0286659	6.59516E-05	0.000627919	0	0	0	
0.3175	-0.0036466	0.0201571	6.61421E-05	0.000585161	0	0	0	
0.317667	0.00588071	-0.0286561	8.19493E-05	0.00056902	0	0	0	
0.317833	-0.00215296	0.0363808	9.9746E-05	0.000604476	0	0	0	
0.318	-0.00154261	-0.0324054	7.88391E-05	0.000655143	0	0	0	
0.318167	-0.000574555	0.0224205	5.003E-05	0.000653005	0	0	0	
0.318333	0.00285251	-0.0188575	2.85288E-05	0.000590592	0	0	0	
0.3185	-0.00029035	0.0179526	2.80435E-05	0.000503628	0	0	0	
0.318667	0.00263238	-0.0241514	3.89436E-05	0.000483981	0	0	0	
0.318833	-0.00308167	0.0276624	5.64472E-05	0.000517149	0	0	0	
0.319	0.00337532	-0.0340838	5.55201E-05	0.000611645	0	0	0	
0.319167	-0.00222318	0.0251558	5.80292E-05	0.000682337	0	0	0	
0.319333	0.00221838	-0.0264273	5.2584E-05	0.000656972	0	0	0	
0.3195	0.000455617	0.0206468	6.06888E-05	0.000569184	0	0	0	
0.319667	0.00444794	-0.0157985	5.53113E-05	0.00051781	0	0	0	
0.319833	-0.0036104	0.0194133	6.60406E-05	0.000539777	0	0	0	
0.32	0.00310289	-0.0295244	5.7059E-05	0.000595569	0	0	0	
0.320167	-0.00397273	0.0237498	7.22117E-05	0.000637499	0	0	0	
0.320333	0.0073198	-0.0230498	8.60231E-05	0.000629032	0	0	0	
0.3205	-0.0041745	0.0201649	0.000117923	0.000608461	0	0	0	
0.320667	0.000522393	-0.0186832	0.000122611	0.000590621	0	0	0	
0.320833	-0.000256615	0.0237782	9.0136E-05	0.000581514	0	0	0	
0.321	0.00147573	-0.0294532	6.30196E-05	0.000586526	0	0	0	
