0	0.0100174	0.0117927	1.00174E-06	1.17927E-06	0	0	0	
0.000166667	-0.0746131	-0.0571942	0.000250553	0.000152568	0	0	0	
0.000333333	0.0750188	-0.000872575	0.000768277	0.000645529	0	0	0	
0.0005	-0.03807	0.0562597	0.00106869	0.00107653	0	0	0	
0.000666667	0.0266006	-0.0189437	0.0010717	0.00129185	0	0	0	
0.000833333	-0.0251047	-0.0158134	0.000780236	0.000882273	0	0	0	
0.001	0.0196773	0.01403	0.000682762	0.000572167	0	0	0	
0.00116667	-0.0211931	-0.0269432	0.000630855	0.000304963	0	0	0	
0.00133333	-0.00219125	-0.00492608	0.000567385	0.000510098	0	0	0	
0.0015	-0.0143645	0.0451177	0.000559937	0.000882521	0	0	0	
0.00166667	0.0632617	-0.0382903	0.000651885	0.00121336	0	0	0	
0.00183333	-0.0688733	0.0644106	0.000909652	0.00118506	0	0	0	
0.002	0.0542667	-0.078936	0.00110413	0.00115507	0	0	0	
0.00216667	-0.0388965	0.0397367	0.00118557	0.00115648	0	0	0	
0.00233333	0.0602425	0.0354313	0.00115667	0.00124208	0	0	0	
0.0025	-0.0623393	-0.0662544	0.00123098	0.00132799	0	0	0	
0.00266667	0.0504542	0.0691474	0.00122919	0.00133868	0	0	0	
0.00283333	-0.0491047	-0.0319216	0.00116385	0.00122895	0	0	0	
0.003	0.0715344	0.0350259	0.00105298	0.00112001	0	0	0	
0.00316667	-0.0738674	-0.0212843	0.00116922	0.00112322	0	0	0	
0.00333333	0.0686156	0.00863166	0.00140197	0.00123276	0	0	0	
0.0035	-0.0511396	0.0214794	0.00148719	0.000889418	0	0	0	
0.00366667	0.0598995	-0.0490149	0.00134615	0.000756911	0	0	0	
0.00383333	-0.0705625	0.0754858	0.00122784	0.000924243	0	0	0	
0.004	0.0737457	-0.0490552	0.00125523	0.00127249	0	0	0	
0.00416667	-0.0825204	0.0280553	0.00143321	0.00132251	0	0	0	
0.00433333	0.0739011	0.00255501	0.00149348	0.00107619	0	0	0	
0.0045	-0.0450696	-0.0126461	0.00145681	0.000831871	0	0	0	
0.00466667	0.0372352	0.0214435	0.00127008	0.000633618	0	0	0	
0.00483333	-0.055101	-0.0235256	0.0011073	0.00055432	0	0	0	
0.005	0.0709293	0.0116906	0.00107289	0.000496689	0	0	0	
0.00516667	-0.0663298	-0.00911193	0.00115765	0.000585596	0	0	0	
0.00533333	0.0521331	0.00346923	0.00121477	0.000574945	0	0	0	
0.0055	-0.0505766	-0.00640926	0.00119285	0.000500932	0	0	0	
0.00566667	0.0541288	0.0171422	0.00112239	0.0003353	0	0	0	
0.00583333	-0.0645179	-0.0135942	0.00116294	0.000300132	0	0	0	
0.006	0.086796	0.0193309	0.00123468	0.000402764	0	0	0	
0.00616667	-0.0850097	-0.00111433	0.00140948	0.000404319	0	0	0	
0.00633333	0.07126	-0.00544004	0.00149653	0.000290104	0	0	0	
0.0065	-0.0530023	-0.0232211	0.00150408	0.000189608	0	0	0	
0.00666667	0.0319045	0.030564	0.00132296	0.00028095	0	0	0	
0.00683333	-0.0273929	-0.0231455	0.00103973	0.000429117	0	0	0	
0.007	0.0371644	0.0241433	0.000770868	0.000485354	0	0	0	
0.00716667	-0.0570824	-0.0170183	0.000758608	0.000443028	0	0	0	
0.00733333	0.0808143	0.0124137	0.000964143	0.000391476	0	0	0	
0.0075	-0.0756299	-0.0170496	0.00126573	0.000468362	0	0	0	
0.00766667	0.0667367	0.0156366	0.00142507	0.000487665	0	0	0	
0.00783333	-0.0636118	-0.022015	0.00141971	0.00049569	0	0	0	
0.008	0.0625188	0.0193713	0.00138364	0.000438897	0	0	0	
0.00816667	-0.0613701	-0.0216002	0.00134803	0.000414652	0	0	0	
0.00833333	0.0551823	0.0235951	0.00134565	0.000431402	0	0	0	
0.0085	-0.0512382	-0.0256017	0.00126356	0.000458728	0	0	0	
0.00866667	0.0534795	0.0232771	0.00115508	0.000486808	0	0	0	
0.00883333	-0.0499737	-0.019584	0.00106523	0.000494819	0	0	0	
0.009	0.0573191	0.0113854	0.00105816	0.000432126	0	0	0	
0.00916667	-0.0697432	-0.0142739	0.00110796	0.000328951	0	0	0	
0.00933333	0.0739801	0.0315306	0.00123535	0.00032394	0	0	0	
0.0095	-0.0660406	-0.0206803	0.00134733	0.000402195	0	0	0	
0.00966667	0.058202	-0.0106616	0.00137199	0.000513056	0	0	0	
0.00983333	-0.0616403	0.0521739	0.00131217	0.000542985	0	0	0	
0.01	0.062037	-0.0546686	0.00126291	0.000633457	0	0	0	
0.0101667	-0.0619914	0.0589315	0.00127096	0.00104438	0	0	0	
0.0103333	0.0616874	0.0334299	0.00129041	0.00112357	0	0	0	
0.0105	-0.0624969	-0.0560088	0.00130101	0.00123161	0	0	0	
0.0106667	0.056014	0.0341671	0.00127649	0.000929213	0	0	0	
0.0108333	-0.0520985	-0.0212902	0.00123022	0.0008768	0	0	0	
0.011	0.0600196	-0.00263539	0.00118445	0.000869363	0	0	0	
0.0111667	-0.0623784	0.0591483	0.00119041	0.00106627	0	0	0	
0.0113333	0.0561259	0.000469106	0.0012164	0.00129016	0	0	0	
0.0115	-0.0500263	-0.00678688	0.00121718	0.00105608	0	0	0	
0.0116667	0.0519439	-0.00232522	0.00114678	0.000718598	0	0	0	
0.0118333	-0.0558273	-0.0353155	0.00109193	0.000442011	0	0	0	
0.012	0.0599189	0.0101402	0.00109927	0.000465273	0	0	0	
0.0121667	-0.055613	0.00744741	0.00113896	0.000372723	0	0	0	
0.0123333	0.0513577	0.00814547	0.00116323	0.000280534	0	0	0	
0.0125	-0.0499364	-0.0157581	0.00112262	0.000204363	0	0	0	
0.0126667	0.0633412	0.0243242	0.00111636	0.000288631	0	0	0	
0.0128333	-0.0620623	-0.0420066	0.00116027	0.000442873	0	0	0	
0.013	0.0454895	0.0162847	0.00124988	0.000545523	0	0	0	
0.0131667	-0.0349266	-0.00834923	0.00123409	0.000493433	0	0	0	
0.0133333	0.0429708	0.0169819	0.00111315	0.00036506	0	0	0	
0.0135	-0.0501221	-0.0126494	0.000992733	0.000273331	0	0	0	
0.0136667	0.0539762	0.0119794	0.000996039	0.000281301	0	0	0	
0.0138333	-0.0585754	-0.0181039	0.00107563	0.000313518	0	0	0	
0.014	0.0640782	0.0229395	0.00118262	0.000376094	0	0	0	
0.0141667	-0.0583894	-0.013818	0.0012641	0.00041417	0	0	0	
0.0143333	0.0502695	0.0123991	0.00130101	0.000393591	0	0	0	
0.0145	-0.0474795	-0.0128457	0.0012548	0.00032941	0	0	0	
0.0146667	0.0482618	0.0172219	0.00116479	0.000322156	0	0	0	
0.0148333	-0.0535863	-0.0211053	0.00110274	0.000378443	0	0	0	
0.015	0.061436	0.0180983	0.00112527	0.000417468	0	0	0	
0.0151667	-0.0601397	-0.0128653	0.00119362	0.000384761	0	0	0	
0.0153333	0.0536028	0.0155244	0.00125918	0.000324195	0	0	0	
0.0155	-0.0487221	-0.0215945	0.00126069	0.000334011	0	0	0	
0.0156667	0.048197	0.0201804	0.0012007	0.000408125	0	0	0	
0.0158333	-0.0523746	-0.0156006	0.00113478	0.000443287	0	0	0	
0.016	0.0574215	0.0106576	0.00111819	0.000373775	0	0	0	
0.0161667	-0.0558765	-0.0141079	0.00116027	0.000297522	0	0	0	
0.0163333	0.0564968	0.0178927	0.00121199	0.000282349	0	0	0	
0.0165	-0.0518609	-0.0241482	0.00122642	0.00035058	0	0	0	
0.0166667	0.0482115	0.027037	0.00120015	0.000449104	0	0	0	
0.0168333	-0.0525617	-0.0247047	0.00115844	0.00050434	0	0	0	
0.017	0.0565839	0.0175881	0.00115059	0.000487452	0	0	0	
0.0171667	-0.0539848	-0.0140937	0.00118088	0.000421433	0	0	0	
0.0173333	0.0541535	0.0115657	0.00122411	0.000351335	0	0	0	
0.0175	-0.0503785	-0.0140106	0.00123028	0.000305893	0	0	0	
0.0176667	0.0470446	0.0162578	0.00121403	0.000304445	0	0	0	
0.0178333	-0.0458693	-0.0142848	0.00118154	0.000306364	0	0	0	
0.018	0.0464566	0.0149702	0.00113775	0.000308903	0	0	0	
0.0181667	-0.0501572	-0.017415	0.00109256	0.000309546	0	0	0	
0.0183333	0.0573449	0.0151484	0.00109844	0.000320871	0	0	0	
0.0185	-0.0568486	-0.0163138	0.00115466	0.000358587	0	0	0	
0.0186667	0.0547335	0.0144129	0.00123071	0.000382315	0	0	0	
0.0188333	-0.0515232	-0.0112715	0.00127259	0.000380543	0	0	0	
0.019	0.0479515	0.0116532	0.00127439	0.000348393	0	0	0	
0.0191667	-0.0437461	-0.0135013	0.00122812	0.000314549	0	0	0	
0.0193333	0.0458855	0.0149794	0.00116122	0.000311452	0	0	0	
0.0195	-0.0489997	-0.0154496	0.00110205	0.000314261	0	0	0	
0.0196667	0.0578405	0.00825644	0.00115813	0.000310536	0	0	0	
0.0198333	-0.0493067	0.0217508	0.00126251	0.000445025	0	0	0	
0.02	0.042534	-0.033419	0.00136511	0.000718357	0	0	0	
0.0201667	-0.0441688	0.0309107	0.00132304	0.000779948	0	0	0	
0.0203333	0.0579877	0.0217185	0.00129116	0.00088099	0	0	0	
0.0205	-0.0556175	-0.0893328	0.00136805	0.000895733	0	0	0	
0.0206667	0.0401657	0.144155	0.00155742	0.00155235	0	0	0	
0.0208333	-0.0223653	-0.0236167	0.00154374	0.00176189	0	0	0	
0.021	0.0431588	-0.0076451	0.00127681	0.00201164	0	0	0	
0.0211667	-0.0711128	0.00559655	0.0010521	0.00186502	0	0	0	
0.0213333	0.067634	-0.0252894	0.00114167	0.00172729	0	0	0	
0.0215	-0.0514359	0.010654	0.00138366	0.00117926	0	0	0	
0.0216667	0.0659509	0.0473496	0.00143802	0.000971389	0	0	0	
0.0218333	-0.0773463	-0.0172952	0.00144855	0.00112707	0	0	0	
0.022	0.0373905	0.052766	0.00152843	0.00118598	0	0	0	
0.0221667	-0.00729654	-0.0443562	0.0015804	0.00136605	0	0	0	
0.0223333	0.0398293	-0.00188969	0.00127216	0.00133906	0	0	0	
0.0225	-0.0729745	0.0340242	0.00106604	0.00138518	0	0	0	
0.0226667	0.0525822	-0.0113539	0.00110912	0.000872219	0	0	0	
0.0228333	-0.0368159	-0.00195202	0.00139169	0.00036712	0	0	0	
0.023	0.0417269	0.0227026	0.0013615	0.000314726	0	0	0	
0.0231667	-0.0505561	-0.0458375	0.00121777	0.000508104	0	0	0	
0.0233333	0.046722	0.0743952	0.00111895	0.00100207	0	0	0	
0.0235	-0.0396993	-0.0367797	0.00117815	0.00127359	0	0	0	
0.0236667	0.038358	0.0120316	0.00117706	0.00131259	0	0	0	
0.0238333	-0.0499075	0.000723246	0.00114009	0.00109085	0	0	0	
0.024	0.0539016	0.0278644	0.00111442	0.000953494	0	0	0	
0.0241667	-0.0496367	-0.0392812	0.00116822	0.00087933	0	0	0	
0.0243333	0.0463045	0.0383166	0.00121042	0.000832195	0	0	0	
0.0245	-0.0478969	-0.0184175	0.00122325	0.000747011	0	0	0	
0.0246667	0.0455661	-0.00194328	0.00121018	0.000510853	0	0	0	
0.0248333	-0.0449388	-0.00672416	0.00119635	0.000308892	0	0	0	
0.025	0.0488442	0.0217137	0.00118512	0.000237072	0	0	0	
0.0251667	-0.0489449	-0.0196906	0.00119412	0.000322115	0	0	0	
0.0253333	0.0457705	0.0182837	0.00122453	0.000384538	0	0	0	
0.0255	-0.0448438	-0.0147706	0.00124017	0.000410974	0	0	0	
0.0256667	0.0469242	0.0112139	0.00120216	0.000397153	0	0	0	
0.0258333	-0.0641085	-0.00645862	0.0012018	0.000381102	0	0	0	
0.026	0.0674986	0.000980858	0.00129784	0.000316684	0	0	0	
0.0261667	-0.0545101	-0.000947626	0.00150514	0.000224557	0	0	0	
0.0263333	0.0327032	0.00210874	0.00157538	0.000156496	0	0	0	
0.0265	-0.0319575	-0.0149849	0.00139722	0.000142048	0	0	0	
0.0266667	0.0466694	0.0330955	0.00111525	0.000265433	0	0	0	
0.0268333	-0.0538675	-0.0288671	0.000987399	0.000500519	0	0	0	
0.027	0.0529018	0.0154044	0.00106419	0.000793686	0	0	0	
0.0271667	-0.068799	-0.00856562	0.00121147	0.000990528	0	0	0	
0.0273333	0.0690688	-0.00659681	0.0013291	0.00097888	0	0	0	
0.0275	-0.0380174	0.00835217	0.00145955	0.000801983	0	0	0	
0.0276667	0.0122602	0.0117841	0.00146509	0.000536162	0	0	0	
0.0278333	-0.0269398	-0.0297757	0.00120877	0.000418853	0	0	0	
0.028	0.0581939	0.0416682	0.000974425	0.000445199	0	0	0	
0.0281667	-0.0537113	-0.0422673	0.000959342	0.000651108	0	0	0	
0.0283333	0.036688	0.0290456	0.00118337	0.000763718	0	0	0	
0.0285	-0.0438058	-0.0166498	0.00123586	0.000718179	0	0	0	
0.0286667	0.0542837	0.0123281	0.00117528	0.000549274	0	0	0	
0.0288333	-0.0431024	-0.00852276	0.00116444	0.000373826	0	0	0	
0.029	0.0374068	0.0102479	0.00120046	0.000299264	0	0	0	
0.0291667	-0.0487544	-0.0116856	0.00118258	0.000297752	0	0	0	
0.0293333	0.0502614	0.0123599	0.00117122	0.000339681	0	0	0	
0.0295	-0.0368507	-0.0101143	0.00124218	0.000366873	0	0	0	
0.0296667	0.0300546	0.0106537	0.00127349	0.000383265	0	0	0	
0.0298333	-0.0338052	-0.00802078	0.0011752	0.000392763	0	0	0	
0.03	0.0419549	0.00888387	0.00106093	0.000402617	0	0	0	
0.0301667	-0.0438168	-0.0117861	0.00105781	0.000397333	0	0	0	
0.0303333	0.0424772	0.0137338	0.00113986	0.000394805	0	0	0	
0.0305	-0.0377722	-0.0155153	0.00119969	0.000409093	0	0	0	
0.0306667	0.037054	0.0163777	0.00119017	0.000406796	0	0	0	
0.0308333	-0.0387189	-0.0166438	0.00114247	0.000399459	0	0	0	
0.031	0.0435678	0.015177	0.00111952	0.000379543	0	0	0	
0.0311667	-0.0430765	-0.013545	0.0011484	0.000371326	0	0	0	
0.0313333	0.0430114	0.0127015	0.00120033	0.000370855	0	0	0	
0.0315	-0.0400246	-0.0139406	0.00123019	0.000392986	0	0	0	
0.0316667	0.0386601	0.012512	0.00124268	0.000404866	0	0	0	
0.0318333	-0.0336671	-0.0145509	0.00123611	0.000414334	0	0	0	
0.032	0.0350177	0.0131574	0.00118955	0.000405179	0	0	0	
0.0321667	-0.0448674	-0.0130568	0.00112256	0.000410392	0	0	0	
0.0323333	0.0538175	0.0148514	0.00111117	0.000429359	0	0	0	
0.0325	-0.0452126	-0.0097262	0.00119577	0.000410304	0	0	0	
0.0326667	0.0335411	0.0100987	0.00129436	0.000358553	0	0	0	
0.0328333	-0.0316384	-0.0166089	0.00129399	0.00031645	0	0	0	
0.033	0.0347296	0.0187687	0.00120024	0.000334797	0	0	0	
0.0331667	-0.0369533	-0.0199989	0.00111149	0.000377366	0	0	0	
0.0333333	0.0410221	0.023385	0.00107914	0.000439864	0	0	0	
0.0335	-0.0447384	-0.0131792	0.00110641	0.000457156	0	0	0	
0.0336667	0.0430735	0.00919814	0.00116145	0.000468575	0	0	0	
0.0338333	-0.037765	-0.0113096	0.00124903	0.000428554	0	0	0	
0.034	0.0314607	0.00677188	0.00128315	0.000362066	0	0	0	
0.0341667	-0.0313714	-0.00826104	0.00123698	0.000289742	0	0	0	
0.0343333	0.039776	0.0144885	0.00115155	0.000252438	0	0	0	
0.0345	-0.0442159	-0.0138067	0.00111676	0.000271111	0	0	0	
0.0346667	0.0453017	0.0138633	0.0011594	0.000308953	0	0	0	
0.0348333	-0.0425901	-0.0114168	0.00122928	0.000333765	0	0	0	
0.035	0.0382635	0.00471528	0.0012701	0.000344237	0	0	0	
0.0351667	-0.03562	-0.00911206	0.00126536	0.000360105	0	0	0	
0.0353333	0.0375122	0.0145318	0.00122741	0.000354826	0	0	0	
0.0355	-0.0389041	-0.0139352	0.00119206	0.000354368	0	0	0	
0.0356667	0.0386765	0.0151459	0.00117487	0.000350342	0	0	0	
0.0358333	-0.0335363	-0.0149619	0.00118077	0.000363466	0	0	0	
0.036	0.0232198	0.0141464	0.00115828	0.000354371	0	0	0	
0.0361667	-0.0224336	-0.0254342	0.00104431	0.000403172	0	0	0	
0.0363333	0.0315241	0.00716593	0.000861441	0.000388996	0	0	0	
0.0365	-0.0508942	-0.000115736	0.000819759	0.00040524	0	0	0	
0.0366667	0.0493373	0.00961577	0.000971561	0.000368444	0	0	0	
0.0368333	-0.0382221	-0.00888327	0.00121563	0.000343326	0	0	0	
0.037	0.0296122	0.00578061	0.00131899	0.00028506	0	0	0	
0.0371667	-0.0224048	-0.00997991	0.00129271	0.000250725	0	0	0	
0.0373333	0.0139412	0.00392214	0.00123448	0.000226712	0	0	0	
0.0375	-0.0186439	-0.0213858	0.00118489	0.000302444	0	0	0	
0.0376667	0.0267257	0.0277572	0.00108996	0.000457122	0	0	0	
0.0378333	-0.0397054	-0.00375457	0.000989404	0.00062749	0	0	0	
0.038	0.0501164	-0.0177544	0.000978598	0.00084162	0	0	0	
0.0381667	-0.0449124	-0.0219649	0.0011558	0.00108226	0	0	0	
0.0383333	0.029018	0.0387102	0.00131217	0.00135763	0	0	0	
0.0385	-0.0322636	-0.000862759	0.0013616	0.00129516	0	0	0	
0.0386667	0.0356224	0.00936526	0.00127123	0.00104343	0	0	0	
0.0388333	-0.0263968	-0.0240494	0.0012242	0.000763911	0	0	0	
0.039	0.0187243	0.029949	0.00118889	0.000733204	0	0	0	
0.0391667	-0.0331812	-0.0729927	0.00112804	0.000960472	0	0	0	
0.0393333	0.0444172	0.0645794	0.00104595	0.00127822	0	0	0	
0.0395	-0.0481733	-0.0219473	0.00111092	0.00124065	0	0	0	
0.0396667	0.0393398	0.0371914	0.00126221	0.00101803	0	0	0	
0.0398333	-0.0333969	-0.0321447	0.00138793	0.000727752	0	0	0	
0.04	0.032057	0.0177805	0.00135876	0.000685267	0	0	0	
0.0401667	-0.0322128	-0.0120662	0.00127881	0.000583507	0	0	0	
0.0403333	0.0323988	0.00568391	0.00122408	0.000457229	0	0	0	
0.0405	-0.0305146	-0.00659006	0.0012085	0.00041074	0	0	0	
0.0406667	0.031251	0.00934054	0.00117781	0.000411874	0	0	0	
0.0408333	-0.0372967	-0.0116714	0.00111292	0.000451488	0	0	0	
0.041	0.0512213	0.000990792	0.00108313	0.000496145	0	0	0	
0.0411667	-0.0468658	0.013311	0.00111581	0.00050862	0	0	0	
0.0413333	0.0351591	-0.00583966	0.00122288	0.000491472	0	0	0	
0.0415	-0.0299902	-0.00593735	0.00129618	0.000431096	0	0	0	
0.0416667	0.0255222	0.00816802	0.00128604	0.000358279	0	0	0	
0.0418333	-0.0229688	-0.0165253	0.001188	0.000285734	0	0	0	
0.042	0.0220091	0.0185076	0.00105752	0.000313007	0	0	0	
0.0421667	-0.0169082	-0.0107659	0.000951982	0.00038929	0	0	0	
0.0423333	0.0235229	0.0147924	0.000901237	0.000539999	0	0	0	
0.0425	-0.036257	-0.00989713	0.000931123	0.000600135	0	0	0	
0.0426667	0.0323252	0.00241222	0.00103602	0.000561334	0	0	0	
0.0428333	-0.0233932	-0.00231889	0.00116279	0.000414091	0	0	0	
0.043	0.0234667	0.00682241	0.00117751	0.00031133	0	0	0	
0.0431667	-0.0327187	-0.00566963	0.00112126	0.000289386	0	0	0	
0.0433333	0.0313766	0.00631624	0.00109367	0.000284127	0	0	0	
0.0435	-0.0261872	-0.0116289	0.00115541	0.000278617	0	0	0	
0.0436667	0.0291763	0.0134067	0.00119044	0.000320211	0	0	0	
0.0438333	-0.0407237	-0.010657	0.00119264	0.000455364	0	0	0	
0.044	0.0408532	0.00417817	0.00123929	0.000588073	0	0	0	
0.0441667	-0.0316713	0.00377154	0.00134817	0.000589187	0	0	0	
0.0443333	0.0243903	-0.00297616	0.00141098	0.000463456	0	0	0	
0.0445	-0.0248275	-0.0050829	0.00136102	0.000346085	0	0	0	
0.0446667	0.0279875	0.0145421	0.00126805	0.000335505	0	0	0	
0.0448333	-0.0323035	-0.0204814	0.00119409	0.000377634	0	0	0	
0.045	0.0361626	0.0218018	0.00117811	0.000444162	0	0	0	
0.0451667	-0.0335069	-0.00874213	0.00118737	0.000490796	0	0	0	
0.0453333	0.0307758	0.00385845	0.00120864	0.000541482	0	0	0	
0.0455	-0.0285432	-0.0101784	0.00120655	0.000528614	0	0	0	
0.0456667	0.0294549	0.0124051	0.0011986	0.000493896	0	0	0	
0.0458333	-0.0316637	-0.0103098	0.00118692	0.000427846	0	0	0	
0.046	0.0330312	0.0131342	0.00120057	0.000401043	0	0	0	
0.0461667	-0.0284596	-0.0133567	0.00122912	0.000417794	0	0	0	
0.0463333	0.0244482	0.011425	0.00123788	0.000449362	0	0	0	
0.0465	-0.0216331	-0.0133205	0.00120839	0.000451266	0	0	0	
0.0466667	0.0219255	0.0136498	0.00116107	0.000418896	0	0	0	
0.0468333	-0.0261193	-0.00974329	0.00113103	0.000385232	0	0	0	
0.047	0.0272973	0.00949515	0.00111836	0.000372342	0	0	0	
0.0471667	-0.0282505	-0.0100096	0.00113914	0.00036833	0	0	0	
0.0473333	0.0258448	0.0101914	0.00117487	0.000358478	0	0	0	
0.0475	-0.0234687	-0.0149791	0.00121344	0.0003685	0	0	0	
0.0476667	0.0216196	0.0109836	0.0012116	0.000378802	0	0	0	
0.0478333	-0.0236847	-0.0063879	0.00118451	0.000384079	0	0	0	
0.048	0.0249311	0.00930202	0.00115835	0.000362941	0	0	0	
0.0481667	-0.02677	-0.00600019	0.00117009	0.00033295	0	0	0	
0.0483333	0.0247631	0.00618134	0.00120754	0.000332627	0	0	0	
0.0485	-0.0197275	-0.00866491	0.00124154	0.000343773	0	0	0	
0.0486667	0.0179428	0.00748399	0.00122813	0.000364945	0	0	0	
0.0488333	-0.0213283	-0.0111411	0.0011744	0.000395382	0	0	0	
0.049	0.0258143	0.00852264	0.00113793	0.000400991	0	0	0	
0.0491667	-0.0254032	-0.00690286	0.00114796	0.000384691	0	0	0	
0.0493333	0.0259035	0.015065	0.00119379	0.000383814	0	0	0	
0.0495	-0.0243975	-0.0106758	0.00123048	0.000392901	0	0	0	
0.0496667	0.0231879	0.00882299	0.00125464	0.000434434	0	0	0	
0.0498333	-0.0229134	-0.0153812	0.00125085	0.000464685	0	0	0	
0.05	0.0279281	0.0134954	0.00123136	0.00047816	0	0	0	
0.0501667	-0.0284901	-0.00914676	0.00122273	0.000443783	0	0	0	
0.0503333	0.0237538	0.00925478	0.00126621	0.000377517	0	0	0	
0.0505	-0.0166475	-0.00692371	0.00131545	0.000317687	0	0	0	
0.0506667	0.0129446	0.00400276	0.00131245	0.000294071	0	0	0	
0.0508333	-0.0123964	-0.0130224	0.00123032	0.000305827	0	0	0	
0.051	0.0226119	0.0201815	0.00109625	0.000337651	0	0	0	
0.0511667	-0.0506644	-0.0333997	0.00102677	0.000412569	0	0	0	
0.0513333	0.0601916	0.0604025	0.00118454	0.000673854	0	0	0	
0.0515	-0.0321991	-0.00265407	0.00132329	0.000805183	0	0	0	
0.0516667	0.0135281	-0.0200767	0.00147264	0.00081986	0	0	0	
0.0518333	-0.00858888	0.000862222	0.00137862	0.000609052	0	0	0	
0.052	0.0108917	1.34395E-05	0.0012991	0.00041524	0	0	0	
0.0521667	-0.0161629	-0.00423145	0.00115979	0.000250986	0	0	0	
0.0523333	0.0173442	0.031376	0.00101332	0.000200388	0	0	0	
0.0525	-0.011738	-0.00315233	0.000837053	0.000325408	0	0	0	
0.0526667	0.0222638	0.013772	0.000797905	0.000418931	0	0	0	
0.0528333	-0.0210127	-0.0184846	0.00093877	0.000560102	0	0	0	
0.053	0.0110194	-0.00479934	0.00121022	0.000600379	0	0	0	
0.0531667	0.000345748	0.0232202	0.00133508	0.00069947	0	0	0	
0.0533333	0.0101006	-0.0398205	0.0012909	0.000588416	0	0	0	
0.0535	-0.0309141	0.0362049	0.00120149	0.000610574	0	0	0	
0.0536667	0.0268516	-0.00895128	0.00114732	0.00062117	0	0	0	
0.0538333	-0.0210179	0.00971923	0.00118923	0.000607045	0	0	0	
0.054	0.0180654	-0.00369992	0.0012503	0.000518553	0	0	0	
0.0541667	-0.0151484	-0.00625237	0.00131306	0.000480161	0	0	0	
0.0543333	0.0155759	-0.0125755	0.00138097	0.00060223	0	0	0	
0.0545	-0.0113373	0.010405	0.0014026	0.000847634	0	0	0	
0.0546667	0.00937345	0.000772064	0.00129658	0.00103425	0	0	0	
0.0548333	-0.0198174	0.0184533	0.00110636	0.000946465	0	0	0	
0.055	0.0276875	0.00840849	0.00102671	0.000725423	0	0	0	
0.0551667	-0.0184245	-0.0175208	0.00113604	0.000619159	0	0	0	
0.0553333	0.00878716	-0.00414915	0.00126194	0.000627611	0	0	0	
0.0555	0.0131059	0.00809423	0.00120603	0.000471553	0	0	0	
0.0556667	0.0132148	-0.0161359	0.00111853	0.000420636	0	0	0	
0.0558333	-0.00618373	0.00432302	0.00111641	0.00046879	0	0	0	
0.056	0.0121123	0.000923708	0.00113005	0.000731005	0	0	0	
0.0561667	-0.0500718	0.0104127	0.00106813	0.000759224	0	0	0	
0.0563333	0.0604321	-0.022584	0.00112522	0.000708197	0	0	0	
0.0565	-0.0227622	0.0188049	0.00147347	0.000593117	0	0	0	
0.0566667	0.0114153	-0.0199011	0.0019064	0.000570118	0	0	0	
0.0568333	0.00021303	-0.00792624	0.00193246	0.000546208	0	0	0	
0.057	0.00637818	0.00473374	0.00159004	0.000458799	0	0	0	
0.0571667	-0.0103289	0.00559417	0.00116217	0.000393796	0	0	0	
0.0573333	0.00856774	0.00107228	0.000896577	0.000464289	0	0	0	
0.0575	0.00122819	0.0200934	0.000730849	0.000539295	0	0	0	
0.0576667	0.0216535	-0.0289976	0.000689414	0.000612313	0	0	0	
0.0578333	-0.0219974	-0.00943361	0.000843155	0.000568918	0	0	0	
0.058	0.0066612	0.0186367	0.00117436	0.000620382	0	0	0	
0.0581667	0.00234383	0.000698992	0.00137444	0.000603483	0	0	0	
0.0583333	0.0126267	0.00393336	0.0012869	0.000621766	0	0	0	
0.0585	-0.0130597	0.0161662	0.00111655	0.000603125	0	0	0	
0.0586667	0.0270863	-0.0102188	0.00123426	0.000676168	0	0	0	
0.0588333	-0.00734721	-0.0131605	0.00152084	0.000715505	0	0	0	
0.059	0.00941395	0.00576461	0.00164311	0.000610077	0	0	0	
0.0591667	-0.0195226	-0.00605593	0.00145736	0.00041168	0	0	0	
0.0593333	0.016704	0.00340984	0.00128478	0.000283619	0	0	0	
0.0595	-0.00907464	-0.00344532	0.00128969	0.000318191	0	0	0	
0.0596667	0.00280798	0.00124922	0.00135395	0.000366095	0	0	0	
0.0598333	-0.00529388	-0.000760182	0.00132803	0.000377287	0	0	0	
0.06	0.0114144	0.00357844	0.00121133	0.000361534	0	0	0	
0.0601667	-0.0185923	-0.00438636	0.00111631	0.000354345	0	0	0	
0.0603333	0.0176123	0.00344171	0.00111749	0.000371756	0	0	0	
0.0605	-0.0131314	-0.00866262	0.00119716	0.000400932	0	0	0	
0.0606667	0.00906152	0.00634871	0.00126613	0.000393193	0	0	0	
0.0608333	-0.00930989	-0.00731213	0.00128117	0.000376037	0	0	0	
0.061	0.00868436	0.00467508	0.00124812	0.000380354	0	0	0	
0.0611667	-0.0111851	-0.000773797	0.00120918	0.000431961	0	0	0	
0.0613333	0.00983418	0.000407098	0.00118814	0.00046574	0	0	0	
0.0615	-0.00776019	-0.00285284	0.00118576	0.000439516	0	0	0	
0.0616667	0.00748483	-0.000612893	0.00118295	0.000381388	0	0	0	
0.0618333	-0.00816701	0.00213462	0.00117182	0.000354185	0	0	0	
0.062	0.0129221	-0.00263902	0.00114584	0.000367827	0	0	0	
0.0621667	-0.0195399	-0.001952	0.00114653	0.000392356	0	0	0	
0.0623333	0.0189922	0.00385017	0.0012438	0.000402389	0	0	0	
0.0625	-0.0105685	-0.00733017	0.00143231	0.000408753	0	0	0	
0.0626667	0.000304472	0.00191304	0.00158145	0.000392657	0	0	0	
0.0628333	0.0019408	0.00226636	0.00156772	0.000367326	0	0	0	
0.063	-0.000374058	0.00117336	0.0014089	0.00035957	0	0	0	
0.0631667	-0.00513547	-0.00589855	0.00122068	0.000400301	0	0	0	
0.0633333	0.0167657	0.00627912	0.00108941	0.000457889	0	0	0	
0.0635	-0.0248733	-0.00077097	0.00105493	0.000479967	0	0	0	
0.0636667	0.0203639	-0.00509711	0.00111304	0.000453595	0	0	0	
0.0638333	-0.0118812	0.00529897	0.00122251	0.000417299	0	0	0	
0.064	0.00448059	0.00135672	0.00129905	0.000406156	0	0	0	
0.0641667	0.00340646	0.000344931	0.00131097	0.00041016	0	0	0	
0.0643333	-0.00221461	-0.00111681	0.0012642	0.000395515	0	0	0	
0.0645	-0.00415003	-0.00150666	0.00118037	0.000368324	0	0	0	
0.0646667	0.011454	0.00436729	0.00110267	0.000398654	0	0	0	
0.0648333	-0.0054835	0.000463537	0.00108795	0.000479368	0	0	0	
0.065	-0.00448885	-0.0124097	0.00115416	0.000503098	0	0	0	
0.0651667	0.00274772	0.02642	0.00118609	0.000488879	0	0	0	
0.0653333	0.00862561	-0.0232855	0.00114499	0.000503494	0	0	0	
0.0655	-0.00679939	0.0309895	0.00113828	0.000567771	0	0	0	
0.0656667	-0.0063961	-0.00247022	0.00123089	0.000624341	0	0	0	
0.0658333	0.00758057	-0.0172739	0.00126397	0.000601185	0	0	0	
0.066	0.00646866	0.0106279	0.00115122	0.000628712	0	0	0	
0.0661667	-0.0113053	0.0053127	0.001085	0.000693412	0	0	0	
0.0663333	-0.00682927	-0.00750919	0.00120828	0.000828199	0	0	0	
0.0665	0.0158163	0.022248	0.00140053	0.000931641	0	0	0	
0.0666667	-0.0251683	-0.0123609	0.00151529	0.000949726	0	0	0	
0.0668333	0.0426449	0.00135587	0.00158044	0.00075022	0	0	0	
0.067	-0.0268355	0.0244045	0.00155055	0.000510753	0	0	0	
0.0671667	0.00121628	-0.0248518	0.00130847	0.000395921	0	0	0	
0.0673333	0.0124102	0.0112941	0.00100808	0.000382008	0	0	0	
0.0675	-0.0192397	-0.00357868	0.0009341	0.000483534	0	0	0	
0.0676667	0.0200775	-0.0181226	0.00116547	0.000618415	0	0	0	
0.0678333	-0.00590436	0.0221865	0.00153661	0.000836511	0	0	0	
0.068	-0.00115039	-0.0158777	0.00184974	0.000789124	0	0	0	
0.0681667	0.013006	-0.00365048	0.00191063	0.000586062	0	0	0	
0.0683333	-0.0064922	0.0461877	0.00161578	0.00037128	0	0	0	
0.0685	-0.00987163	-0.112126	0.00114923	0.000880156	0	0	0	
0.0686667	0.0100949	0.0544615	0.000922503	0.00138173	0	0	0	
0.0688333	-0.00207199	-0.00732468	0.00105686	0.00140827	0	0	0	
0.069	-0.00528194	-0.0101957	0.00130011	0.000935505	0	0	0	
0.0691667	0.00461155	0.0163157	0.00137804	0.00050262	0	0	0	
0.0693333	-0.00929333	0.0148926	0.00129536	0.000460822	0	0	0	
0.0695	0.0110266	-0.0573999	0.0012039	0.000618993	0	0	0	
0.0696667	-0.0106401	-0.0127698	0.0011719	0.000905538	0	0	0	
0.0698333	0.00163439	0.0294342	0.00115892	0.00113585	0	0	0	
0.07	0.00168667	-0.00343384	0.00112662	0.000940702	0	0	0	
0.0701667	-0.00295837	0.00267893	0.00112065	0.00056134	0	0	0	
0.0703333	-0.000544482	0.0059939	0.00117288	0.000327806	0	0	0	
0.0705	0.0026048	-0.0144435	0.00124255	0.000321479	0	0	0	
0.0706667	-0.00226035	0.00412925	0.00125315	0.000365111	0	0	0	
0.0708333	0.00284761	0.00073547	0.00121955	0.000401361	0	0	0	
0.071	-0.00450882	0.00402065	0.00120064	0.000374462	0	0	0	
0.0711667	0.00309388	-0.00136436	0.00120225	0.000314582	0	0	0	
0.0713333	-0.00211268	-0.00133152	0.00120344	0.000244776	0	0	0	
0.0715	0.00323931	0.00172899	0.00120658	0.00022312	0	0	0	
0.0716667	-0.00430155	-0.00052947	0.00121068	0.000278626	0	0	0	
0.0718333	0.00262645	0.00439183	0.00121003	0.00035345	0	0	0	
0.072	-0.00391507	-0.0062185	0.00121221	0.000390501	0	0	0	
0.0721667	0.00471848	0.00969135	0.00121557	0.000389711	0	0	0	
0.0723333	-0.00257751	-0.00882797	0.00120674	0.000396474	0	0	0	
0.0725	0.00234433	0.0110177	0.00120843	0.000426729	0	0	0	
0.0726667	-0.0079653	-0.00584444	0.00123071	0.000456815	0	0	0	
0.0728333	0.00595339	0.000187193	0.00122125	0.000421859	0	0	0	
0.073	-0.00417311	0.00253742	0.00116875	0.00036074	0	0	0	
0.0731667	0.00636887	-0.00326985	0.00116029	0.000328869	0	0	0	
0.0733333	-0.0100329	-7.25403E-06	0.00120752	0.000346017	0	0	0	
0.0735	0.00501396	0.00113304	0.0012151	0.000374858	0	0	0	
0.0736667	-0.00274656	0.000366791	0.0011663	0.000397925	0	0	0	
0.0738333	0.00742881	0.00365248	0.00116454	0.00041937	0	0	0	
0.074	-0.0100795	-0.00432432	0.00122873	0.000418386	0	0	0	
0.0741667	0.00773523	0.00383381	0.00128146	0.00038306	0	0	0	
0.0743333	-0.0103552	-0.00242662	0.00129443	0.000358879	0	0	0	
0.0745	0.0122046	-0.00438352	0.00130155	0.00039677	0	0	0	
0.0746667	-0.010596	0.00261889	0.00127728	0.00045683	0	0	0	
0.0748333	0.00573658	0.00688881	0.00120751	0.000464208	0	0	0	
0.075	-0.00307131	-0.00526376	0.00115517	0.000402457	0	0	0	
0.0751667	0.00475431	0.00999944	0.00117447	0.000313579	0	0	0	
0.0753333	-0.00489798	0.00206047	0.00123485	0.000280352	0	0	0	
0.0755	0.00671606	-0.0115802	0.00128971	0.000279697	0	0	0	
0.0756667	-0.0136205	0.00776134	0.0013109	0.000296921	0	0	0	
0.0758333	0.0122693	-0.00244284	0.00128045	0.000295103	0	0	0	
0.076	-0.00750826	-0.00662218	0.00121421	0.000307012	0	0	0	
0.0761667	0.00728109	0.0135957	0.00118261	0.00035663	0	0	0	
0.0763333	-0.009556	-0.00552859	0.00121154	0.000429991	0	0	0	
0.0765	0.00993478	0.00478137	0.00124115	0.000440992	0	0	0	
0.0766667	-0.0100831	-0.00370702	0.00122617	0.000408955	0	0	0	
0.0768333	0.00795361	0.00255817	0.00120081	0.00034768	0	0	0	
0.077	-0.0110468	-0.0120845	0.00121132	0.000327745	0	0	0	
0.0771667	0.0118241	0.00881303	0.00124111	0.000379744	0	0	0	
0.0773333	-0.0108623	-0.00306843	0.00124123	0.000444045	0	0	0	
0.0775	0.00962038	0.00567345	0.00121207	0.000493847	0	0	0	
0.0776667	-0.0124781	-0.00284694	0.00118713	0.000482827	0	0	0	
0.0778333	0.0124366	0.00162551	0.00119304	0.000446187	0	0	0	
0.078	-0.0108313	-0.00358404	0.00121413	0.00040761	0	0	0	
0.0781667	0.0118754	0.000692683	0.00122839	0.000388998	0	0	0	
0.0783333	-0.0121988	0.000720226	0.00122534	0.000391245	0	0	0	
0.0785	0.00985232	0.00334028	0.00121563	0.000390933	0	0	0	
0.0786667	-0.0112868	0.00139953	0.00121196	0.000382876	0	0	0	
0.0788333	0.010419	0.00153436	0.0012215	0.000384843	0	0	0	
0.079	-0.00876204	-0.0100927	0.00123819	0.000396298	0	0	0	
0.0791667	0.0127696	0.00525115	0.00125294	0.000393868	0	0	0	
0.0793333	-0.0142115	-0.00506648	0.00125971	0.000359075	0	0	0	
0.0795	0.0144315	0.0057584	0.00125479	0.00034251	0	0	0	
0.0796667	-0.016028	-0.0020908	0.0012359	0.000343337	0	0	0	
0.0798333	0.0138061	0.00093779	0.0011928	0.000368561	0	0	0	
0.08	-0.0101789	-0.00614493	0.00113675	0.000412555	0	0	0	
0.0801667	0.00874272	0.00446751	0.00111487	0.000471911	0	0	0	
0.0803333	-0.0127373	-0.0114983	0.00116457	0.00051397	0	0	0	
0.0805	0.0164917	0.00607341	0.00125009	0.000522877	0	0	0	
0.0806667	-0.0183449	-0.00353461	0.00129334	0.000465979	0	0	0	
0.0808333	0.0161271	0.000525413	0.00126247	0.000395611	0	0	0	
0.081	-0.0128383	-0.00387095	0.00119778	0.000344331	0	0	0	
0.0811667	0.0123086	0.00313314	0.00115819	0.000363034	0	0	0	
0.0813333	-0.0177186	-0.00750476	0.00117453	0.000409308	0	0	0	
0.0815	0.0179709	0.00426543	0.00121886	0.000442111	0	0	0	
0.0816667	-0.0196837	-0.00826337	0.00124126	0.00042778	0	0	0	
0.0818333	0.0201857	0.00324299	0.00123546	0.000394034	0	0	0	
0.082	-0.0219101	-3.27478E-05	0.00120131	0.000333353	0	0	0	
0.0821667	0.0146735	-0.00464631	0.00114843	0.00032948	0	0	0	
0.0823333	-0.0110836	-0.00129493	0.00110438	0.00037913	0	0	0	
0.0825	0.0140323	0.00200224	0.00114613	0.000395931	0	0	0	
0.0826667	-0.0221502	0.0189102	0.00122462	0.000333177	0	0	0	
0.0828333	0.0230328	-0.0188925	0.00123708	0.000301937	0	0	0	
0.083	-0.0224997	-0.0269513	0.00117096	0.000358069	0	0	0	
0.0831667	0.0137905	0.0970537	0.0011397	0.000786711	0	0	0	
0.0833333	-0.011953	-0.0568236	0.00116165	0.00143803	0	0	0	
0.0835	0.0152781	0.0276245	0.00119213	0.00175461	0	0	0	
0.0836667	-0.0224773	-0.0230643	0.00121272	0.00150043	0	0	0	
0.0838333	0.0292449	0.0220895	0.00126026	0.000860357	0	0	0	
0.084	-0.0279395	-0.0104673	0.00129951	0.000503899	0	0	0	
0.0841667	0.0167045	0.00617961	0.00127643	0.000521853	0	0	0	
0.0843333	-0.0153483	0.0562057	0.00120631	0.000990597	0	0	0	
0.0845	0.0190159	-0.0459165	0.0011609	0.00148652	0	0	0	
0.0846667	-0.021257	0.0124211	0.00117712	0.00148934	0	0	0	
0.0848333	0.0248137	-0.00662147	0.00123565	0.0010308	0	0	0	
0.085	-0.0276383	0.00268599	0.00124311	0.000548833	0	0	0	
0.0851667	0.0296493	0.00674356	0.0011522	0.00044324	0	0	0	
0.0853333	-0.0157579	-0.0132032	0.00105732	0.000524322	0	0	0	
0.0855	0.014822	0.00831417	0.00107247	0.000653391	0	0	0	
0.0856667	-0.0233312	-0.00817679	0.00121925	0.000677989	0	0	0	
0.0858333	0.0238462	0.00531882	0.00133664	0.000529941	0	0	0	
0.086	-0.0269953	-0.00222751	0.00136316	0.000340169	0	0	0	
0.0861667	0.0345523	-0.00346107	0.00134325	0.000279054	0	0	0	
0.0863333	-0.0254867	0.00216148	0.00132913	0.000347219	0	0	0	
0.0865	0.0198216	-0.0108376	0.00127815	0.000437656	0	0	0	
0.0866667	-0.0174124	0.00373159	0.00120865	0.000441018	0	0	0	
0.0868333	0.0121917	0.0113768	0.00115363	0.000399715	0	0	0	
0.087	-0.0107996	-0.016731	0.00117027	0.000401268	0	0	0	
0.0871667	0.0177278	0.0119331	0.0012433	0.000485156	0	0	0	
0.0873333	-0.0258699	-0.00300398	0.00130716	0.000556813	0	0	0	
0.0875	0.0236305	0.00665598	0.00131739	0.000529237	0	0	0	
0.0876667	-0.0285691	-0.00919257	0.00127708	0.000423597	0	0	0	
0.0878333	0.0343075	0.00466352	0.00121183	0.000329369	0	0	0	
0.088	-0.0170122	0.00226925	0.00107352	0.000300552	0	0	0	
0.0881667	0.00199626	-0.000139959	0.000895599	0.000358823	0	0	0	
0.0883333	-0.01646	0.00242724	0.000936285	0.000418679	0	0	0	
0.0885	0.0312841	0.00306375	0.00115171	0.000409335	0	0	0	
0.0886667	-0.0267658	-0.00852692	0.00131325	0.000351214	0	0	0	
0.0888333	0.025303	0.0101856	0.0012823	0.000333505	0	0	0	
0.089	-0.0344558	-0.00440226	0.00126029	0.000347269	0	0	0	
0.0891667	0.0324349	0.00717973	0.00127343	0.000332622	0	0	0	
0.0893333	-0.0173857	-0.0106713	0.00121837	0.00033659	0	0	0	
0.0895	0.0172698	0.00987717	0.00114511	0.000395357	0	0	0	
0.0896667	-0.0283159	-0.0129232	0.00119365	0.000456483	0	0	0	
0.0898333	0.0292835	0.00992148	0.00127229	0.000448262	0	0	0	
0.09	-0.0252777	-0.00244379	0.00125626	0.000370604	0	0	0	
0.0901667	0.024653	0.00618002	0.00119126	0.000316334	0	0	0	
0.0903333	-0.0260376	-0.00949774	0.00118488	0.000334078	0	0	0	
0.0905	0.0251053	0.00741858	0.00122101	0.000407487	0	0	0	
0.0906667	-0.0277287	-0.0109369	0.00125277	0.000453149	0	0	0	
0.0908333	0.0316308	0.00971136	0.00126927	0.000451248	0	0	0	
0.091	-0.0290327	-0.00762639	0.00125525	0.000425906	0	0	0	
0.0911667	0.0232994	0.00809884	0.00121318	0.000425364	0	0	0	
0.0913333	-0.0263804	-0.00583222	0.0011825	0.0004132	0	0	0	
0.0915	0.0268249	0.00232821	0.00119361	0.00038646	0	0	0	
0.0916667	-0.028077	-0.0037887	0.00120094	0.000355655	0	0	0	
0.0918333	0.0252228	0.00222634	0.00119065	0.000340527	0	0	0	
0.092	-0.0269682	-0.00148938	0.00117756	0.000335407	0	0	0	
0.0921667	0.0318564	0.00258649	0.00120042	0.000328175	0	0	0	
0.0923333	-0.0333455	-0.00315883	0.00122645	0.000317018	0	0	0	
0.0925	0.0309357	0.00507669	0.00122919	0.000313419	0	0	0	
0.0926667	-0.0309602	-0.00747474	0.00121157	0.000318186	0	0	0	
0.0928333	0.0285494	0.00697826	0.00120023	0.000327442	0	0	0	
0.093	-0.0300196	-0.00781829	0.00119306	0.000339424	0	0	0	
0.0931667	0.0298203	0.00904423	0.0011996	0.000348212	0	0	0	
0.0933333	-0.0282919	-0.00716551	0.0012139	0.000324968	0	0	0	
0.0935	0.0300482	0.00945183	0.00124579	0.000276567	0	0	0	
0.0936667	-0.0326837	-0.0108006	0.00127435	0.0002438	0	0	0	
0.0938333	0.034104	0.010039	0.00127657	0.000247623	0	0	0	
0.094	-0.0304027	-0.00863574	0.00122286	0.000291117	0	0	0	
0.0941667	0.0186271	0.00716669	0.00112911	0.000342994	0	0	0	
0.0943333	-0.0190301	-0.0174824	0.00109333	0.000434346	0	0	0	
0.0945	0.0339631	0.0817898	0.00121408	0.000669601	0	0	0	
0.0946667	-0.0430175	-0.145758	0.00138456	0.00126295	0	0	0	
0.0948333	0.0405462	0.165015	0.00141839	0.00214362	0	0	0	
0.095	-0.0310948	-0.0990959	0.00128231	0.00334805	0	0	0	
0.0951667	0.0190413	-0.0837906	0.00106715	0.00371488	0	0	0	
0.0953333	-4.99726E-05	0.157058	0.000925642	0.00338821	0	0	0	
0.0955	0.00952546	-0.0950093	0.00101122	0.00267685	0	0	0	
0.0956667	-0.0379188	0.00470508	0.00138417	0.0022447	0	0	0	
0.0958333	0.061372	0.0802261	0.00173289	0.00244667	0	0	0	
0.096	-0.0485685	-0.169656	0.00173016	0.00269658	0	0	0	
0.0961667	0.0215454	0.0841302	0.00134549	0.0029258	0	0	0	
0.0963333	-0.00886139	0.010375	0.00102433	0.00235697	0	0	0	
0.0965	0.0231515	0.00320825	0.00101625	0.00175798	0	0	0	
0.0966667	-0.0346507	-0.0698962	0.00121366	0.00127215	0	0	0	
0.0968333	0.0399871	0.0899789	0.00138527	0.00137102	0	0	0	
0.097	-0.0476455	-0.144728	0.00139776	0.00181872	0	0	0	
0.0971667	0.0440713	0.0831782	0.0013181	0.00236111	0	0	0	
0.0973333	-0.0236151	-0.013804	0.0011502	0.00220426	0	0	0	
0.0975	0.0123877	0.00804277	0.00102643	0.00140435	0	0	0	
0.0976667	-0.0299749	-0.0107867	0.00108218	0.000789595	0	0	0	
0.0978333	0.0417012	0.0339464	0.00128784	0.00093142	0	0	0	
0.098	-0.0433683	-0.094362	0.00142583	0.00136657	0	0	0	
0.0981667	0.0399945	0.0392599	0.00139836	0.001776	0	0	0	
0.0983333	-0.0347341	0.00680395	0.00127526	0.00174177	0	0	0	
0.0985	0.0286015	-0.010906	0.00119861	0.00153109	0	0	0	
0.0986667	-0.0359037	0.00115011	0.00120723	0.00117736	0	0	0	
0.0988333	0.0466689	0.021097	0.00130077	0.00104561	0	0	0	
0.099	-0.043661	-0.0296213	0.00132902	0.000898751	0	0	0	
0.0991667	0.0317996	0.0172795	0.00121684	0.000716955	0	0	0	
0.0993333	-0.0291011	-0.0146262	0.001062	0.000596982	0	0	0	
0.0995	0.0364055	0.0183239	0.00107054	0.000568479	0	0	0	
0.0996667	-0.0425583	-0.022208	0.00118905	0.000555744	0	0	0	
0.0998333	0.0394853	0.0230985	0.00126714	0.000569866	0	0	0	
0.1	-0.0380089	-0.0200594	0.00123461	0.000555407	0	0	0	
0.100167	0.0419788	0.0186289	0.00120813	0.000517113	0	0	0	
0.100333	-0.0417462	-0.0164313	0.00123055	0.000484046	0	0	0	
0.1005	0.0411368	0.00719165	0.00126097	0.000437402	0	0	0	
0.100667	-0.0401348	-0.00285441	0.0012509	0.000382848	0	0	0	
0.100833	0.0401229	0.00284667	0.00122005	0.000357261	0	0	0	
0.101	-0.0382918	-0.0104913	0.00119225	0.000384499	0	0	0	
0.101167	0.0339818	0.0138509	0.00116242	0.000428484	0	0	0	
0.101333	-0.0304933	-0.011162	0.00112764	0.000427353	0	0	0	
0.1015	0.0337613	0.00481551	0.00113205	0.000393421	0	0	0	
0.101667	-0.0402222	-0.00445832	0.00118957	0.000379136	0	0	0	
0.101833	0.0411158	0.00549547	0.00124636	0.000378504	0	0	0	
0.102	-0.0361805	-0.00975858	0.00124098	0.000375936	0	0	0	
0.102167	0.0368492	0.0114077	0.00121225	0.000371839	0	0	0	
0.102333	-0.0409551	-0.0114168	0.00121199	0.000367904	0	0	0	
0.1025	0.0377275	0.00480421	0.00122202	0.00035599	0	0	0	
0.102667	-0.0380667	-0.00505054	0.0012197	0.000324953	0	0	0	
0.102833	0.0455621	0.00483816	0.00124958	0.000316064	0	0	0	
0.103	-0.0443753	-0.00818868	0.00126458	0.000350623	0	0	0	
0.103167	0.0341321	0.0131301	0.0012085	0.000426957	0	0	0	
0.103333	-0.0335281	-0.0195902	0.00111332	0.000481638	0	0	0	
0.1035	0.0413479	0.0165519	0.00112551	0.000487827	0	0	0	
0.103667	-0.0429225	-0.0104126	0.00121148	0.000423833	0	0	0	
0.103833	0.0385635	0.00576806	0.00126913	0.000355314	0	0	0	
0.104	-0.0422455	-0.00742739	0.00126045	0.000318542	0	0	0	
0.104167	0.0502361	0.00971083	0.00125295	0.000329189	0	0	0	
0.104333	-0.0476115	-0.0141955	0.00123785	0.000359433	0	0	0	
0.1045	0.0358315	0.0126207	0.00118018	0.000400453	0	0	0	
0.104667	-0.0318786	-0.0109409	0.00112375	0.000426319	0	0	0	
0.104833	0.0392121	0.00707353	0.00114334	0.000419814	0	0	0	
0.105	-0.0458367	-0.0070523	0.0012228	0.00037106	0	0	0	
0.105167	0.0465672	0.00907959	0.00127835	0.000350673	0	0	0	
0.105333	-0.0437426	-0.0102472	0.00128208	0.000387103	0	0	0	
0.1055	0.0449632	0.0106451	0.00127063	0.000441281	0	0	0	
0.105667	-0.0479711	-0.0110829	0.00128153	0.000444486	0	0	0	
0.105833	0.0478877	0.0124361	0.00128464	0.000387831	0	0	0	
0.106	-0.0461964	-0.0125357	0.00126912	0.000329399	0	0	0	
0.106167	0.0474186	0.014847	0.00125193	0.000303079	0	0	0	
0.106333	-0.0464665	-0.0156839	0.00125505	0.000329276	0	0	0	
0.1065	0.0443185	0.0122315	0.00124384	0.000350707	0	0	0	
0.106667	-0.0400532	-0.0123863	0.00120403	0.000347558	0	0	0	
0.106833	0.0383906	0.0114656	0.00116603	0.000320177	0	0	0	
0.107	-0.042245	-0.0102089	0.00117328	0.000302647	0	0	0	
0.107167	0.0481693	0.0153874	0.00121458	0.00033504	0	0	0	
0.107333	-0.0444062	-0.0163576	0.00123256	0.000409284	0	0	0	
0.1075	0.0421376	0.0108888	0.00120856	0.000475748	0	0	0	
0.107667	-0.0420733	-0.0168053	0.00117512	0.000481156	0	0	0	
0.107833	0.0445848	0.0156478	0.00117633	0.000453657	0	0	0	
0.108	-0.0487189	-0.0150684	0.0012102	0.000394763	0	0	0	
0.108167	0.0531998	0.0146503	0.00125046	0.000383077	0	0	0	
0.108333	-0.0496645	-0.00621512	0.00126038	0.000347292	0	0	0	
0.1085	0.0451362	0.00517506	0.00123525	0.000331592	0	0	0	
0.108667	-0.0427351	-0.00932438	0.00119049	0.00032124	0	0	0	
0.108833	0.041156	0.00467697	0.0011652	0.00034223	0	0	0	
0.109	-0.045364	-0.00617881	0.00117311	0.000347704	0	0	0	
0.109167	0.0486379	0.0101946	0.00121684	0.000332271	0	0	0	
0.109333	-0.0501463	-0.0125579	0.00125054	0.000321253	0	0	0	
0.1095	0.0487772	0.0189822	0.00126309	0.000344725	0	0	0	
0.109667	-0.0508417	-0.0185895	0.00124451	0.000384078	0	0	0	
0.109833	0.050827	0.0138414	0.00124097	0.000391478	0	0	0	
0.11	-0.0508682	-0.0210578	0.00123926	0.000386736	0	0	0	
0.110167	0.0453428	0.0171978	0.00123462	0.000397603	0	0	0	
0.110333	-0.0476576	-0.0118403	0.00119667	0.000376604	0	0	0	
0.1105	0.0449312	0.00697224	0.00118045	0.000373065	0	0	0	
0.110667	-0.0441294	-0.00885348	0.00116086	0.000346655	0	0	0	
0.110833	0.0436149	0.0126975	0.00118738	0.000360319	0	0	0	
0.111	-0.0493702	-0.0182331	0.00122524	0.000376254	0	0	0	
0.111167	0.0500675	0.0134012	0.00128372	0.000413621	0	0	0	
0.111333	-0.0521852	-0.0108243	0.00129323	0.000418892	0	0	0	
0.1115	0.0498064	0.0132781	0.00127575	0.00038488	0	0	0	
0.111667	-0.0500518	-0.0150322	0.00123247	0.000309472	0	0	0	
0.111833	0.0479232	0.0152532	0.00120905	0.000302152	0	0	0	
0.112	-0.0471281	-0.0159526	0.00117936	0.000327844	0	0	0	
0.112167	0.0429522	0.0123423	0.00116639	0.000385718	0	0	0	
0.112333	-0.0403729	-0.010186	0.00113386	0.000378645	0	0	0	
0.1125	0.0421856	0.011584	0.00111536	0.000349824	0	0	0	
0.112667	-0.0467963	-0.0143551	0.00113652	0.000326336	0	0	0	
0.112833	0.051006	0.0163997	0.00119422	0.000364472	0	0	0	
0.113	-0.0530356	-0.0199409	0.00123588	0.000408493	0	0	0	
0.113167	0.050969	0.017413	0.00124295	0.000429375	0	0	0	
0.113333	-0.0529211	-0.0125583	0.00122277	0.000393688	0	0	0	
0.1135	0.0522301	0.0149427	0.00120728	0.000371414	0	0	0	
0.113667	-0.0482808	-0.0197144	0.00116885	0.000368547	0	0	0	
0.113833	0.0442323	0.0165329	0.00113613	0.0003868	0	0	0	
0.114	-0.0484862	-0.00982351	0.00113213	0.000331445	0	0	0	
0.114167	0.0501627	0.0149621	0.00118254	0.000317707	0	0	0	
0.114333	-0.0499709	-0.0108151	0.00122528	0.000310919	0	0	0	
0.1145	0.0495236	0.00580795	0.00124375	0.000312682	0	0	0	
0.114667	-0.0535871	-0.00973564	0.00123289	0.00028241	0	0	0	
0.114833	0.0582515	0.0179301	0.00125795	0.000302014	0	0	0	
0.115	-0.0585569	-0.0308033	0.00127064	0.000409303	0	0	0	
0.115167	0.0487155	0.0512123	0.00122817	0.000567223	0	0	0	
0.115333	-0.0416969	-0.0392799	0.00112625	0.000744408	0	0	0	
0.1155	0.0489643	0.017649	0.00109883	0.000744845	0	0	0	
0.115667	-0.0582953	-0.0162986	0.0011648	0.000603025	0	0	0	
0.115833	0.0532024	0.017894	0.00124738	0.000427827	0	0	0	
0.116	-0.0474635	-0.0159897	0.00123625	0.000411568	0	0	0	
0.116167	0.0560046	0.0182942	0.00122108	0.000444699	0	0	0	
0.116333	-0.0626638	-0.0174659	0.00126156	0.000429736	0	0	0	
0.1165	0.0550336	0.0177014	0.00131123	0.000405604	0	0	0	
0.116667	-0.0497126	-0.0197292	0.00127865	0.000406091	0	0	0	
0.116833	0.0542264	0.0185273	0.00123429	0.000428759	0	0	0	
0.117	-0.059274	-0.0134708	0.00122117	0.000426848	0	0	0	
0.117167	0.0587361	0.0173502	0.00124881	0.000393062	0	0	0	
0.117333	-0.0522619	-0.0209308	0.00122366	0.000371155	0	0	0	
0.1175	0.0484503	0.0166787	0.00118698	0.000375586	0	0	0	
0.117667	-0.0509707	-0.0123312	0.0011547	0.000382658	0	0	0	
0.117833	0.0541728	0.0111197	0.00117661	0.000381595	0	0	0	
0.118	-0.0561758	-0.0135936	0.00120624	0.000382508	0	0	0	
0.118167	0.0544461	0.0181056	0.00123961	0.000382353	0	0	0	
0.118333	-0.0543005	-0.0149045	0.0012384	0.000374881	0	0	0	
0.1185	0.0560765	0.0163037	0.00125651	0.000367525	0	0	0	
0.118667	-0.0541419	-0.0188442	0.00132069	0.00041393	0	0	0	
0.118833	0.0517103	0.0168273	0.00135272	0.000448569	0	0	0	
0.119	-0.0573469	-0.0169215	0.00134786	0.000448958	0	0	0	
0.119167	0.0562499	0.0174318	0.00129871	0.000398671	0	0	0	
0.119333	-0.0598336	-0.0152511	0.00128198	0.000359282	0	0	0	
0.1195	0.0572142	0.014173	0.00127092	0.000335928	0	0	0	
0.119667	-0.0442907	-0.0123034	0.00120504	0.000327116	0	0	0	
0.119833	0.0362832	0.00733165	0.00107436	0.000300147	0	0	0	
0.12	-0.0482143	-0.0119828	0.00101989	0.000296547	0	0	0	
0.120167	0.0568107	0.0173369	0.00107843	0.000320071	0	0	0	
0.120333	-0.0598442	-0.0163711	0.00121778	0.000351354	0	0	0	
0.1205	0.0580019	0.0174919	0.00127583	0.000359408	0	0	0	
0.120667	-0.0533974	-0.020846	0.00124546	0.000360041	0	0	0	
0.120833	0.0510086	0.015509	0.00119515	0.000383454	0	0	0	
0.121	-0.0502637	-0.0119936	0.00116144	0.000382633	0	0	0	
0.121167	0.0532676	0.016531	0.00117181	0.000350585	0	0	0	
0.121333	-0.05561	-0.0160766	0.00119802	0.000319067	0	0	0	
0.1215	0.0598593	0.0189724	0.00123792	0.000320522	0	0	0	
0.121667	-0.0587149	-0.015839	0.00126046	0.000346284	0	0	0	
0.121833	0.0561264	-0.00163757	0.00125465	0.000331001	0	0	0	
0.122	-0.0536214	-0.00498659	0.0012101	0.000326892	0	0	0	
0.122167	0.055528	0.0210388	0.00117894	0.000337597	0	0	0	
0.122333	-0.0564845	-0.0156647	0.00117577	0.000400125	0	0	0	
0.1225	0.0624907	0.0189914	0.00122249	0.000414722	0	0	0	
0.122667	-0.0628745	-0.0167173	0.00125777	0.000416873	0	0	0	
0.122833	0.0586692	0.00978327	0.00126602	0.000351917	0	0	0	
0.123	-0.0508534	-0.017292	0.0012068	0.000305215	0	0	0	
0.123167	0.0529424	0.01235	0.00115865	0.000282153	0	0	0	
0.123333	-0.0587491	0.00393983	0.00115575	0.00025671	0	0	0	
0.1235	0.0477011	0.0164528	0.00115788	0.000364303	0	0	0	
0.123667	0.0224768	-0.100255	0.00107382	0.000642932	0	0	0	
0.123833	0.0638079	0.101387	0.00110984	0.00176804	0	0	0	
0.124	-0.0384839	-0.0324197	0.00133772	0.0021104	0	0	0	
0.124167	0.0665313	0.00751156	0.00152441	0.00181881	0	0	0	
0.124333	-0.0725229	-0.0194614	0.0015592	0.000753966	0	0	0	
0.1245	0.0752776	0.0112212	0.00146603	0.000435237	0	0	0	
0.124667	-0.0638608	-0.00638182	0.0014261	0.000468458	0	0	0	
0.124833	0.107978	-0.0623756	0.00136444	0.000818325	0	0	0	
0.125	-0.0193406	0.0321743	0.00127108	0.00140028	0	0	0	
0.125167	0.033079	0.0328156	0.00106378	0.00174588	0	0	0	
0.125333	-0.0451038	-0.0655751	0.000957637	0.00156026	0	0	0	
0.1255	0.0457346	0.0620279	0.000933843	0.00119611	0	0	0	
0.125667	-0.0556603	-0.0638346	0.00111754	0.00111258	0	0	0	
0.125833	0.0634873	0.0576922	0.00129366	0.00122651	0	0	0	
0.126	-0.0650086	-0.0252615	0.00137964	0.00109923	0	0	0	
0.126167	0.0595349	0.00664481	0.00137674	0.000836628	0	0	0	
0.126333	-0.0585261	-0.00697589	0.0012769	0.000508848	0	0	0	
0.1265	0.0536419	0.0102125	0.00118556	0.000356178	0	0	0	
0.126667	-0.0530739	-0.0257696	0.00112688	0.000453186	0	0	0	
0.126833	0.0493075	0.0519664	0.00110444	0.000710484	0	0	0	
0.127	-0.123159	-0.0516719	0.00148394	0.000969122	0	0	0	
0.127167	0.0980976	0.0894642	0.00198288	0.00112201	0	0	0	
0.127333	-0.0923884	-0.0396518	0.00257706	0.00134319	0	0	0	
0.1275	0.0664022	0.00587554	0.00228217	0.00122062	0	0	0	
0.127667	-0.0521534	-0.00214899	0.00176461	0.000991209	0	0	0	
0.127833	0.0512219	0.0101487	0.00115036	0.000511187	0	0	0	
0.128	-0.0984357	-0.015406	0.00125503	0.000391033	0	0	0	
0.128167	0.0444311	0.0732164	0.00161037	0.000500255	0	0	0	
0.128333	-0.0184042	-0.0718717	0.00181048	0.00118933	0	0	0	
0.1285	0.0451483	0.0560409	0.00156351	0.00142755	0	0	0	
0.128667	-0.0639724	-0.0375431	0.00125946	0.00144118	0	0	0	
0.128833	0.0704132	0.0190718	0.0011862	0.000864983	0	0	0	
0.129	-0.0638918	-0.0136745	0.00129009	0.000574806	0	0	0	
0.129167	0.0550635	0.0208316	0.00129265	0.000461985	0	0	0	
0.129333	-0.0541485	-0.0122426	0.00133665	0.000459619	0	0	0	
0.1295	0.068901	0.00740043	0.00129408	0.000425554	0	0	0	
0.129667	-0.0641065	-0.0149662	0.00131286	0.000324353	0	0	0	
0.129833	0.0520828	0.024037	0.00116994	0.000275711	0	0	0	
0.13	-0.0597232	-0.030163	0.00119123	0.000341873	0	0	0	
0.130167	0.0688705	0.0264085	0.00122367	0.00048132	0	0	0	
0.130333	-0.0573012	-0.00830983	0.00125751	0.000466509	0	0	0	
0.1305	0.0695657	0.0134203	0.00109594	0.000395546	0	0	0	
0.130667	-0.0642013	-0.0103873	0.00109682	0.000325246	0	0	0	
0.130833	0.0595293	0.00934225	0.00108135	0.000368425	0	0	0	
0.131	-0.050386	-0.00541866	0.00119009	0.000460802	0	0	0	
0.131167	0.0427645	-0.000595538	0.00105131	0.000468703	0	0	0	
0.131333	-0.0450089	0.00525989	0.000989584	0.000434795	0	0	0	
0.1315	0.0557922	-0.00139103	0.00103862	0.00039018	0	0	0	
0.131667	-0.0706235	-0.0015264	0.00119006	0.000315193	0	0	0	
0.131833	0.0753397	0.00718062	0.00134434	0.000198137	0	0	0	
0.132	-0.0703113	-0.0134724	0.00139258	0.00015948	0	0	0	
0.132167	0.0559257	0.015237	0.00132264	0.000205893	0	0	0	
0.132333	-0.0517116	-0.0158728	0.00119336	0.000279314	0	0	0	
0.1325	0.0564021	0.0160887	0.00111643	0.000313116	0	0	0	
0.132667	-0.0617848	-0.0177445	0.00113113	0.00030839	0	0	0	
0.132833	0.0636408	0.0188069	0.00120189	0.000334526	0	0	0	
0.133	-0.0643273	-0.0204779	0.0012354	0.000350242	0	0	0	
0.133167	0.0616584	0.0198518	0.00123597	0.000390948	0	0	0	
0.133333	-0.0599973	-0.0178026	0.00119621	0.000381512	0	0	0	
0.1335	0.056905	0.0166925	0.00116619	0.000374033	0	0	0	
0.133667	-0.0552286	-0.014	0.00112912	0.000333082	0	0	0	
0.133833	0.0600958	0.019287	0.00113228	0.000337359	0	0	0	
0.134	-0.0643466	-0.0161634	0.00117081	0.000357128	0	0	0	
0.134167	0.0659163	0.0132874	0.00122142	0.000369998	0	0	0	
0.134333	-0.0612261	-0.0170415	0.00123757	0.000366684	0	0	0	
0.1345	0.0596207	0.0182815	0.00121731	0.000358929	0	0	0	
0.134667	-0.0644909	-0.0183515	0.00120016	0.000366521	0	0	0	
0.134833	0.0661034	0.0227145	0.00122801	0.00037875	0	0	0	
0.135	-0.0653216	-0.0198149	0.00125999	0.000390369	0	0	0	
0.135167	0.0632702	0.0197207	0.00126238	0.000392381	0	0	0	
0.135333	-0.0601243	-0.0226099	0.00122306	0.000410233	0	0	0	
0.1355	0.0597258	0.0200911	0.00118107	0.00040518	0	0	0	
0.135667	-0.0615743	-0.0216554	0.00116874	0.000402492	0	0	0	
0.135833	0.0616232	0.025771	0.0011877	0.00040475	0	0	0	
0.136	-0.0613995	-0.0251024	0.0011986	0.000433644	0	0	0	
0.136167	0.061487	0.0205094	0.00120865	0.000469206	0	0	0	
0.136333	-0.0650428	-0.0122191	0.00121185	0.000441631	0	0	0	
0.1365	0.0655667	0.00959819	0.00123711	0.000368946	0	0	0	
0.136667	-0.0599999	-0.0193384	0.00123261	0.000334559	0	0	0	
0.136833	0.0617764	0.0320879	0.00121838	0.000395391	0	0	0	
0.137	-0.0733702	-0.0341253	0.00125724	0.000513549	0	0	0	
0.137167	0.0782062	0.0132468	0.00136982	0.000554365	0	0	0	
0.137333	-0.0726171	-0.00326756	0.00144002	0.000448532	0	0	0	
0.1375	0.064338	0.0180316	0.00140406	0.000299747	0	0	0	
0.137667	-0.0586988	-0.015587	0.00127787	0.000242895	0	0	0	
0.137833	0.0604765	0.0104768	0.00119998	0.000256361	0	0	0	
0.138	-0.06525	-0.0152752	0.00120348	0.000344776	0	0	0	
0.138167	0.0761556	0.0188569	0.001282	0.000463343	0	0	0	
0.138333	-0.0815673	0.000871258	0.00139928	0.000553649	0	0	0	
0.1385	0.075571	-0.018163	0.00146931	0.00051698	0	0	0	
0.138667	-0.0626983	0.0270683	0.0014257	0.000459067	0	0	0	
0.138833	0.0573165	-0.00417727	0.00129549	0.000417995	0	0	0	
0.139	-0.0549889	-0.000290247	0.00115531	0.000384788	0	0	0	
0.139167	0.0591366	0.00808924	0.00111343	0.000323944	0	0	0	
0.139333	-0.0690455	0.00415295	0.00120863	0.000253456	0	0	0	
0.1395	0.0836312	-0.00804142	0.00136724	0.000261655	0	0	0	
0.139667	-0.0807999	-0.00970103	0.00149638	0.000291184	0	0	0	
0.139833	0.0698432	0.027552	0.001489	0.000465013	0	0	0	
0.14	-0.0652814	-0.0280743	0.00139624	0.000606889	0	0	0	
0.140167	0.0633628	0.0329336	0.00128764	0.000667967	0	0	0	
0.140333	-0.0640516	-0.0237138	0.00121984	0.000643237	0	0	0	
0.1405	0.0646628	0.0122406	0.00119947	0.000533831	0	0	0	
0.140667	-0.0639253	-0.0147454	0.00120223	0.000411512	0	0	0	
0.140833	0.0657112	0.0131168	0.00121704	0.00029085	0	0	0	
0.141	-0.0663784	-0.0144202	0.00123101	0.000244341	0	0	0	
0.141167	0.065692	0.0165939	0.00123799	0.000265207	0	0	0	
0.141333	-0.0630732	-0.0170763	0.00122499	0.000280879	0	0	0	
0.1415	0.0606936	0.0194623	0.00119805	0.000325794	0	0	0	
0.141667	-0.0612356	-0.0183217	0.00117478	0.000358549	0	0	0	
0.141833	0.0638079	0.0170573	0.00118161	0.000369884	0	0	0	
0.142	-0.0624146	-0.016946	0.00118681	0.000359466	0	0	0	
0.142167	0.0623865	0.0179628	0.00119141	0.00035237	0	0	0	
0.142333	-0.0632899	-0.019393	0.0011766	0.000350994	0	0	0	
0.1425	0.0605095	0.0210358	0.00117794	0.000369177	0	0	0	
0.142667	-0.0583271	-0.016142	0.0011665	0.000362507	0	0	0	
0.142833	0.0647564	0.0197856	0.0011883	0.000370872	0	0	0	
0.143	-0.0760085	-0.0207049	0.00125332	0.000406293	0	0	0	
0.143167	0.0732438	0.0197339	0.00134151	0.000451067	0	0	0	
0.143333	-0.0576448	-0.0225586	0.00132496	0.000467231	0	0	0	
0.1435	0.0550163	0.0290088	0.0012202	0.000465528	0	0	0	
0.143667	-0.0669106	-0.0161838	0.00115793	0.000443503	0	0	0	
0.143833	0.0713502	-0.00176536	0.00119417	0.000354565	0	0	0	
0.144	-0.056009	0.00289057	0.0012219	0.000294119	0	0	0	
0.144167	0.0489518	0.00203002	0.00113972	0.000373547	0	0	0	
0.144333	-0.0528244	-0.00948104	0.00106396	0.000469375	0	0	0	
0.1445	0.0710097	0.0242242	0.0010936	0.000476226	0	0	0	
0.144667	-0.0860118	-0.0259577	0.0012837	0.00044767	0	0	0	
0.144833	0.0862747	0.00980473	0.00145437	0.000394578	0	0	0	
0.145	-0.0618945	0.00260628	0.00149826	0.000428981	0	0	0	
0.145167	0.0568586	-0.00426423	0.00136983	0.000307213	0	0	0	
0.145333	-0.0707624	-0.00869509	0.0012774	0.000252984	0	0	0	
0.1455	0.0661078	0.0300155	0.00122091	0.000265647	0	0	0	
0.145667	-0.0369275	-0.032357	0.00116407	0.000430946	0	0	0	
0.145833	0.0581212	0.0281731	0.00111147	0.000585249	0	0	0	
0.146	-0.103401	-0.0265351	0.00129371	0.000594901	0	0	0	
0.146167	0.089518	0.0220855	0.00154093	0.000505205	0	0	0	
0.146333	-0.0411714	-0.0280852	0.00159879	0.000467178	0	0	0	
0.1465	0.0515301	0.0308319	0.00134038	0.000490555	0	0	0	
0.146667	-0.0858675	-0.0274192	0.0012519	0.000537897	0	0	0	
0.146833	0.0796579	0.0207547	0.00131205	0.000536071	0	0	0	
0.147	-0.0599659	-0.0173544	0.00141811	0.000470029	0	0	0	
0.147167	0.0656284	0.0191276	0.00133079	0.000391761	0	0	0	
0.147333	-0.0719233	-0.0277758	0.00126271	0.000383187	0	0	0	
0.1475	0.0670845	0.027111	0.00126254	0.000446205	0	0	0	
0.147667	-0.0622058	-0.02138	0.00126285	0.000499896	0	0	0	
0.147833	0.0641198	0.0195274	0.0012224	0.000489306	0	0	0	
0.148	-0.0631701	-0.023593	0.00118745	0.000445197	0	0	0	
0.148167	0.0616429	0.0218322	0.00117986	0.00044291	0	0	0	
0.148333	-0.0645409	-0.019011	0.00118273	0.000429811	0	0	0	
0.1485	0.0682715	0.0221556	0.00120545	0.000416532	0	0	0	
0.148667	-0.0671903	-0.0183549	0.00123173	0.000381483	0	0	0	
0.148833	0.0686299	0.0226844	0.00126122	0.000382648	0	0	0	
0.149	-0.0688025	-0.0215328	0.00127245	0.000393072	0	0	0	
0.149167	0.0665556	0.020338	0.00127656	0.000395853	0	0	0	
0.149333	-0.0621645	-0.0196211	0.00124342	0.000387587	0	0	0	
0.1495	0.0619595	0.0196895	0.00120457	0.000382695	0	0	0	
0.149667	-0.0626859	-0.0181824	0.00117296	0.000362477	0	0	0	
0.149833	0.0643945	0.0263211	0.00118545	0.000389933	0	0	0	
0.15	-0.0629476	-0.0213069	0.00118991	0.000403787	0	0	0	
0.150167	0.0650215	0.0256349	0.00119912	0.000438823	0	0	0	
0.150333	-0.0647749	-0.0210831	0.00119384	0.000450391	0	0	0	
0.1505	0.068536	0.0170482	0.00121644	0.000425633	0	0	0	
0.150667	-0.0659524	-0.0149441	0.0012334	0.000380926	0	0	0	
0.150833	0.0586084	0.0222107	0.00122362	0.000341028	0	0	0	
0.151	-0.0545187	-0.0171673	0.00115299	0.00035186	0	0	0	
0.151167	0.0624568	0.0154361	0.00110511	0.000354692	0	0	0	
0.151333	-0.0661543	-0.0137851	0.00112194	0.000334192	0	0	0	
0.1515	0.0682842	0.019851	0.00119432	0.000298626	0	0	0	
0.151667	-0.0674683	-0.0182006	0.00124695	0.000321856	0	0	0	
0.151833	0.0678562	0.0164575	0.00126355	0.000332466	0	0	0	
0.152	-0.0654162	-0.0149823	0.0012548	0.000363882	0	0	0	
0.152167	0.0606878	0.027347	0.00122509	0.000427172	0	0	0	
0.152333	-0.0537637	-0.0259112	0.00117349	0.000531686	0	0	0	
0.1525	0.0490385	0.0210956	0.00110299	0.00052368	0	0	0	
0.152667	-0.0615425	-0.0570086	0.00110482	0.000723701	0	0	0	
0.152833	0.0742384	0.0531077	0.00117315	0.000943799	0	0	0	
0.153	-0.0751456	-0.0511265	0.00129777	0.00119273	0	0	0	
0.153167	0.0724393	0.0239581	0.00135576	0.00106363	0	0	0	
0.153333	-0.0647818	-0.00662824	0.00134483	0.000725167	0	0	0	
0.1535	0.0560502	0.0304021	0.00125731	0.000442132	0	0	0	
0.153667	-0.0538511	-0.068951	0.0011625	0.000517139	0	0	0	
0.153833	0.0547595	0.0530121	0.00105768	0.000886632	0	0	0	
0.154	-0.0556657	-0.0469187	0.00103017	0.00114653	0	0	0	
0.154167	0.0629525	0.0294747	0.00105538	0.00113395	0	0	0	
0.154333	-0.0664744	-0.0276959	0.00113813	0.000881285	0	0	0	
0.1545	0.0691531	0.0279069	0.00121459	0.000712204	0	0	0	
0.154667	-0.0611547	-0.0164201	0.0012393	0.000530731	0	0	0	
0.154833	0.0605866	0.0216411	0.00121193	0.000427127	0	0	0	
0.155	-0.0608106	-0.0241118	0.0011725	0.00040566	0	0	0	
0.155167	0.0698484	0.0196796	0.00117646	0.00040662	0	0	0	
0.155333	-0.0688898	-0.0150928	0.0012327	0.000406566	0	0	0	
0.1555	0.0602201	0.0181565	0.00125191	0.00035694	0	0	0	
0.155667	-0.063367	-0.0209724	0.00123573	0.000329814	0	0	0	
0.155833	0.0792527	0.0260666	0.00126193	0.000380002	0	0	0	
0.156	-0.0672477	-0.00965429	0.00130937	0.000426384	0	0	0	
0.156167	0.0599402	-0.0121264	0.00131894	0.00043163	0	0	0	
0.156333	-0.0712541	-0.00101396	0.00129117	0.000586913	0	0	0	
0.1565	0.0804389	0.0254737	0.00129461	0.000689628	0	0	0	
0.156667	-0.0478015	-0.0278255	0.00131064	0.000703612	0	0	0	
0.156833	0.0210689	0.022467	0.00113216	0.000579709	0	0	0	
0.157	-0.0514423	-0.0150101	0.000987914	0.000471477	0	0	0	
0.157167	0.0874474	-0.00870926	0.00101917	0.000390351	0	0	0	
0.157333	-0.101707	0.0195911	0.0013221	0.00034335	0	0	0	
0.1575	0.0648916	-0.028301	0.00198523	0.000322359	0	0	0	
0.157667	-0.0652426	-0.0139029	0.0021233	0.000395387	0	0	0	
0.157833	0.0908282	0.0393018	0.00204174	0.000463929	0	0	0	
0.158	-0.0580194	-0.0256465	0.00158845	0.000660632	0	0	0	
0.158167	0.0512061	0.00294667	0.00137818	0.000702798	0	0	0	
0.158333	-0.0684109	-0.0114368	0.00126735	0.00062061	0	0	0	
0.1585	0.0886329	-0.000330232	0.00126475	0.00039295	0	0	0	
0.158667	-0.0756683	0.00927752	0.00141514	0.000346429	0	0	0	
0.158833	0.0596271	-0.0163509	0.00146531	0.000409248	0	0	0	
0.159	-0.056706	0.00625086	0.00131869	0.00044279	0	0	0	
0.159167	0.0616882	0.000502971	0.00117584	0.000389638	0	0	0	
0.159333	-0.0665954	-0.00670087	0.00116446	0.000250198	0	0	0	
0.1595	0.0706623	0.0133866	0.00122135	0.000216043	0	0	0	
0.159667	-0.0703843	-0.0214543	0.00127943	0.000237256	0	0	0	
0.159833	0.0664123	0.0236269	0.00130899	0.000335764	0	0	0	
0.16	-0.0638427	-0.0142068	0.00129421	0.000374709	0	0	0	
0.160167	0.0601237	0.00607585	0.00124351	0.000353642	0	0	0	
0.160333	-0.0590684	-0.00444443	0.00117406	0.000245227	0	0	0	
0.1605	0.0618306	0.00848957	0.0011498	0.000148221	0	0	0	
0.160667	-0.0642425	-0.0133102	0.00115103	0.000170612	0	0	0	
0.160833	0.064726	0.021693	0.00120164	0.000289973	0	0	0	
0.161	-0.0648853	-0.0164853	0.00121918	0.000399757	0	0	0	
0.161167	0.0622572	0.00783321	0.00123361	0.000398915	0	0	0	
0.161333	-0.0596708	-0.00434895	0.00120552	0.00027666	0	0	0	
0.1615	0.0607339	0.00961859	0.00117583	0.000172133	0	0	0	
0.161667	-0.0618427	-0.0188623	0.00115544	0.000186461	0	0	0	
0.161833	0.0669868	0.0251632	0.00117392	0.000278985	0	0	0	
0.162	-0.0685893	-0.020324	0.00122525	0.000371337	0	0	0	
0.162167	0.0686484	0.0125145	0.00127329	0.000379973	0	0	0	
0.162333	-0.0625732	-0.00428893	0.00128378	0.000305523	0	0	0	
0.1625	0.0587954	0.00501468	0.00124709	0.000208012	0	0	0	
0.162667	-0.0572855	-0.0105919	0.00118889	0.000140053	0	0	0	
0.162833	0.05973	0.0165097	0.00114143	0.000188984	0	0	0	
0.163	-0.0606652	-0.0206925	0.00114057	0.000273558	0	0	0	
0.163167	0.0647666	0.019908	0.00115809	0.000358218	0	0	0	
0.163333	-0.0673549	-0.00937817	0.00120505	0.000343315	0	0	0	
0.1635	0.0680257	0.00873062	0.00123739	0.000277867	0	0	0	
0.163667	-0.0670149	-0.0131723	0.00127212	0.000210537	0	0	0	
0.163833	0.0650274	0.0211295	0.00128405	0.00024269	0	0	0	
0.164	-0.059323	-0.0188661	0.00127031	0.000311435	0	0	0	
0.164167	0.0572871	0.0164835	0.00121258	0.000359655	0	0	0	
0.164333	-0.0613971	-0.0147531	0.00116494	0.000341449	0	0	0	
0.1645	0.0619571	0.00850019	0.00114618	0.00028752	0	0	0	
0.164667	-0.0621316	-0.00893968	0.00117422	0.000226698	0	0	0	
0.164833	0.0645493	0.0196257	0.00120439	0.000213736	0	0	0	
0.165	-0.068044	-0.0248058	0.00123631	0.000300698	0	0	0	
0.165167	0.0653189	0.0193948	0.00125763	0.000389653	0	0	0	
0.165333	-0.0606823	-0.0143991	0.00125361	0.000401705	0	0	0	
0.1655	0.0618341	0.00634141	0.00122783	0.000317779	0	0	0	
0.165667	-0.0627364	-0.00643656	0.00120395	0.000213421	0	0	0	
0.165833	0.0611815	0.0137622	0.00120131	0.000171839	0	0	0	
0.166	-0.060573	-0.0245519	0.00119502	0.00023814	0	0	0	
0.166167	0.0618689	0.0177265	0.00120024	0.000328355	0	0	0	
0.166333	-0.0629313	-0.000730483	0.00120359	0.000355954	0	0	0	
0.1665	0.0606267	-0.0367665	0.00121141	0.000351756	0	0	0	
0.166667	-0.0619903	0.0151026	0.00118966	0.000384884	0	0	0	
0.166833	0.0685995	0.00578328	0.00120619	0.00041198	0	0	0	
0.167	-0.0616168	-0.00704957	0.0012307	0.000402865	0	0	0	
0.167167	0.0539861	0.0128794	0.00125922	0.000316375	0	0	0	
0.167333	-0.054787	-0.0174755	0.00119769	0.000379014	0	0	0	
0.1675	0.0623204	-4.49701E-05	0.00114286	0.000398612	0	0	0	
0.167667	-0.0644194	-0.0124354	0.00113013	0.000608354	0	0	0	
0.167833	0.0668784	0.00330058	0.00120927	0.000604208	0	0	0	
0.168	-0.0643544	-0.000694285	0.00124808	0.000485636	0	0	0	
0.168167	0.0689109	0.025312	0.00129623	0.000308978	0	0	0	
0.168333	-0.0588941	-0.0282649	0.00128246	0.000430863	0	0	0	
0.1685	0.0554823	0.0180336	0.00126085	0.000531245	0	0	0	
0.168667	-0.0569	-0.0192066	0.00118885	0.000580158	0	0	0	
0.168833	0.0631773	0.0115635	0.00115649	0.000391773	0	0	0	
0.169	-0.0605977	-0.00948008	0.00115711	0.000332804	0	0	0	
0.169167	0.0642251	0.0155069	0.0012062	0.000237632	0	0	0	
0.169333	-0.0572649	-0.0163611	0.00121541	0.000264292	0	0	0	
0.1695	0.0572882	0.0182407	0.00121457	0.000293788	0	0	0	
0.169667	-0.0621937	-0.0153603	0.00118188	0.000356899	0	0	0	
0.169833	0.0694219	0.00931345	0.00121415	0.000318047	0	0	0	
0.17	-0.0670479	-0.0119113	0.00127413	0.00029347	0	0	0	
0.170167	0.0638098	0.0129543	0.00131817	0.000243261	0	0	0	
0.170333	-0.0607649	-0.022849	0.00129548	0.000263364	0	0	0	
0.1705	0.0601896	0.0242054	0.00125481	0.000354317	0	0	0	
0.170667	-0.0623345	-0.0225573	0.00124083	0.000448133	0	0	0	
0.170833	0.063884	0.0139911	0.00124391	0.000468162	0	0	0	
0.171	-0.0619905	-0.00687107	0.00124836	0.000360209	0	0	0	
0.171167	0.0547043	0.00365032	0.00121431	0.000225039	0	0	0	
0.171333	-0.056701	-0.00529572	0.00117945	0.000114788	0	0	0	
0.1715	0.0681934	0.0127163	0.00117432	0.000131938	0	0	0	
0.171667	-0.0706985	-0.0137299	0.00123837	0.000171503	0	0	0	
0.171833	0.061474	0.010391	0.00128407	0.000232273	0	0	0	
0.172	-0.0602148	-0.00608921	0.0012983	0.000214036	0	0	0	
0.172167	0.0628132	0.00640482	0.00125961	0.000188271	0	0	0	
0.172333	-0.0566313	-0.00936077	0.00124037	0.000145482	0	0	0	
0.1725	0.0479733	0.0174456	0.00118913	0.000184741	0	0	0	
0.172667	-0.0509123	-0.0173277	0.00111654	0.000282771	0	0	0	
0.172833	0.0645206	0.0172524	0.00107318	0.000359206	0	0	0	
0.173	-0.066058	-0.012402	0.00113637	0.000377015	0	0	0	
0.173167	0.0609452	0.00647981	0.00123088	0.000291216	0	0	0	
0.173333	-0.0578175	-0.00573511	0.00127936	0.000213783	0	0	0	
0.1735	0.058113	0.00925323	0.00125375	0.000140646	0	0	0	
0.173667	-0.0601695	-0.0179974	0.00122314	0.000176356	0	0	0	
0.173833	0.0593322	0.0158364	0.0012044	0.000246379	0	0	0	
0.174	-0.0582545	-0.0151625	0.00120164	0.000309945	0	0	0	
0.174167	0.0599793	0.0110637	0.00120096	0.000306182	0	0	0	
0.174333	-0.057526	-0.00550613	0.00120239	0.000252858	0	0	0	
0.1745	0.0567667	0.00644918	0.00119249	0.000185065	0	0	0	
0.174667	-0.0596127	-0.0125346	0.001172	0.000156483	0	0	0	
0.174833	0.061201	0.0133633	0.00117568	0.000192826	0	0	0	
0.175	-0.0616816	-0.0136705	0.00119293	0.000231967	0	0	0	
0.175167	0.0593454	0.016687	0.00122773	0.000291999	0	0	0	
0.175333	-0.0554961	-0.00791913	0.00123455	0.000293284	0	0	0	
0.1755	0.0563414	0.00447696	0.00121921	0.000267951	0	0	0	
0.175667	-0.0549021	-0.00300732	0.00118033	0.000170287	0	0	0	
0.175833	0.0558428	0.00899927	0.0011516	0.0001139	0	0	0	
0.176	-0.0587773	-0.0143242	0.0011354	0.000141865	0	0	0	
0.176167	0.0608119	0.0180736	0.00116198	0.00023118	0	0	0	
0.176333	-0.0602891	-0.0129505	0.00119578	0.000302382	0	0	0	
0.1765	0.0570893	0.00864469	0.00122325	0.000290493	0	0	0	
0.176667	-0.0540428	-0.00658812	0.00120194	0.000220862	0	0	0	
0.176833	0.0570585	0.0148986	0.00116951	0.000176276	0	0	0	
0.177	-0.0645433	-0.0273849	0.00117493	0.000259015	0	0	0	
0.177167	0.0660006	0.0263706	0.00124284	0.000400609	0	0	0	
0.177333	-0.0652838	-0.0192754	0.00130405	0.000486944	0	0	0	
0.1775	0.0660287	0.0104382	0.00133427	0.000439929	0	0	0	
0.177667	-0.0628166	-0.00415775	0.00132124	0.000307002	0	0	0	
0.177833	0.057032	0.000435038	0.00130422	0.000170905	0	0	0	
0.178	-0.0500093	0.00117246	0.00125057	8.662E-05	0	0	0	
0.178167	0.0473052	0.00542314	0.00116092	7.54022E-05	0	0	0	
0.178333	-0.0488363	-0.00693327	0.00106519	8.89039E-05	0	0	0	
0.1785	0.0538698	0.00742973	0.00102051	0.000129885	0	0	0	
0.178667	-0.0593576	-0.00635255	0.00105124	0.000134828	0	0	0	
0.178833	0.0648294	0.00625737	0.00113382	0.000146596	0	0	0	
0.179	-0.0621336	-0.0103559	0.00122745	0.000150233	0	0	0	
0.179167	0.0533402	0.0219938	0.00127677	0.000247199	0	0	0	
0.179333	-0.0513945	-0.0190437	0.00126229	0.000334575	0	0	0	
0.1795	0.0567592	0.0164649	0.00120958	0.000413753	0	0	0	
0.179667	-0.0628766	-0.00870485	0.00118682	0.000364793	0	0	0	
0.179833	0.0625926	0.00459956	0.00122827	0.00029746	0	0	0	
0.18	-0.0596123	-0.00173637	0.00126052	0.000182353	0	0	0	
0.180167	0.0602171	0.00814097	0.00126499	0.000120827	0	0	0	
0.180333	-0.0583644	-0.00999061	0.00124252	0.000125211	0	0	0	
0.1805	0.0546161	0.0213864	0.00122179	0.000210805	0	0	0	
0.180667	-0.0595519	-0.0259111	0.00120036	0.000379399	0	0	0	
0.180833	0.0591101	0.0202868	0.00120362	0.000446671	0	0	0	
0.181	-0.0574238	-0.0185142	0.00120185	0.000465847	0	0	0	
0.181167	0.0630079	0.035095	0.00121272	0.000467295	0	0	0	
0.181333	-0.0654838	-0.0174191	0.00122094	0.000539648	0	0	0	
0.1815	0.0630727	0.0307304	0.00126778	0.000636264	0	0	0	
0.181667	-0.055932	-0.0124378	0.0012963	0.000601598	0	0	0	
0.181833	0.0543379	-0.000391465	0.00127239	0.000450858	0	0	0	
0.182	-0.0559574	-0.00833191	0.00122187	0.000274673	0	0	0	
0.182167	0.0495042	0.0171257	0.00118107	0.000190607	0	0	0	
0.182333	-0.0502415	-0.00637466	0.00113383	0.00025015	0	0	0	
0.1825	0.0582153	0.0362698	0.00110937	0.000353028	0	0	0	
0.182667	-0.0629181	-0.0175981	0.00112835	0.000441487	0	0	0	
0.182833	0.0634513	0.00879639	0.00120387	0.000416138	0	0	0	
0.183	-0.0600781	-0.00588275	0.00127577	0.000310735	0	0	0	
0.183167	0.0556031	0.011162	0.00130189	0.000200202	0	0	0	
0.183333	-0.05382	-0.0100853	0.00126181	0.000197955	0	0	0	
0.1835	0.0520982	0.0195984	0.0012159	0.00030308	0	0	0	
0.183667	-0.0520785	-0.0154714	0.00116349	0.000354522	0	0	0	
0.183833	0.0521039	0.0179766	0.00115174	0.000401555	0	0	0	
0.184	-0.055404	-0.0082484	0.00114743	0.000356763	0	0	0	
0.184167	0.0576358	0.00534727	0.00116979	0.00032315	0	0	0	
0.184333	-0.0575215	-0.00422397	0.00121003	0.000231405	0	0	0	
0.1845	0.057269	0.0111699	0.00124901	0.000179027	0	0	0	
0.184667	-0.0590738	-0.0177642	0.00126301	0.000197828	0	0	0	
0.184833	0.0592217	0.0191925	0.00126172	0.000295593	0	0	0	
0.185	-0.05593	-0.0104778	0.00126577	0.000361636	0	0	0	
0.185167	0.0500287	0.00520558	0.00125142	0.000347908	0	0	0	
0.185333	-0.0510429	-0.00772863	0.00119444	0.000274062	0	0	0	
0.1855	0.0557395	0.00828191	0.00113408	0.000209654	0	0	0	
0.185667	-0.055541	-0.00870972	0.00112109	0.000175385	0	0	0	
0.185833	0.0597859	0.0230777	0.00116568	0.000216325	0	0	0	
0.186	-0.0565547	-0.0248684	0.00123166	0.000330278	0	0	0	
0.186167	0.050423	0.0154226	0.00124724	0.000401057	0	0	0	
0.186333	-0.0502323	-0.00910595	0.00120434	0.000382715	0	0	0	
0.1865	0.0530777	0.00190833	0.00115488	0.000252626	0	0	0	
0.186667	-0.0497933	-0.00233064	0.00113773	0.000167055	0	0	0	
0.186833	0.0595848	0.0159696	0.00118512	0.0001747	0	0	0	
0.187	-0.0634967	-0.00634684	0.00123766	0.00022815	0	0	0	
0.187167	0.0572748	0.00554395	0.00129905	0.0002299	0	0	0	
0.187333	-0.0464955	-0.00762255	0.00129737	0.000171999	0	0	0	
0.1875	0.0478526	0.01053	0.00120847	0.000137893	0	0	0	
0.187667	-0.0587409	-0.0135196	0.00114597	0.000183336	0	0	0	
0.187833	0.0646423	0.0133448	0.00117047	0.000243273	0	0	0	
0.188	-0.0605813	-0.0117081	0.00126571	0.000284945	0	0	0	
0.188167	0.0586563	0.00579053	0.00132415	0.000256159	0	0	0	
0.188333	-0.0522928	-0.00248115	0.00131594	0.000205555	0	0	0	
0.1885	0.0489192	0.00263778	0.00127239	0.00013125	0	0	0	
0.188667	-0.0528027	-0.00620279	0.00123908	0.000107808	0	0	0	
0.188833	0.0486784	0.0134405	0.0011907	0.000133867	0	0	0	
0.189	-0.0505554	-0.0206141	0.00117097	0.000215284	0	0	0	
0.189167	0.0542778	0.0161704	0.00113764	0.000313407	0	0	0	
0.189333	-0.0601111	-0.013448	0.00116963	0.000364704	0	0	0	
0.1895	0.0615702	0.00609249	0.00120933	0.000336109	0	0	0	
0.189667	-0.0561919	-0.00385154	0.00127272	0.000259574	0	0	0	
0.189833	0.0504922	0.0028994	0.00128046	0.000161572	0	0	0	
0.19	-0.0502711	-0.01308	0.00126528	0.000141151	0	0	0	
0.190167	0.0479899	0.0087626	0.00122808	0.000173748	0	0	0	
0.190333	-0.0446033	-0.00847509	0.00119956	0.000196729	0	0	0	
0.1905	0.0446744	0.00508565	0.00115504	0.000195843	0	0	0	
0.190667	-0.0448728	-0.00476664	0.00110222	0.000149886	0	0	0	
0.190833	0.0512359	0.00276712	0.00108079	0.000127829	0	0	0	
0.191	-0.0552938	-0.0103667	0.00111871	0.000114545	0	0	0	
0.191167	0.0566246	0.010272	0.00118738	0.000148512	0	0	0	
0.191333	-0.0578735	-0.0131441	0.0012492	0.000199619	0	0	0	
0.1915	0.058258	0.0131936	0.00130156	0.000261547	0	0	0	
0.191667	-0.0501556	-0.0106681	0.00132734	0.000276278	0	0	0	
0.191833	0.0470447	0.00754701	0.00131362	0.000252116	0	0	0	
0.192	-0.0453457	-0.00923118	0.00124579	0.000233156	0	0	0	
0.192167	0.0459886	0.0187346	0.00118049	0.000343072	0	0	0	
0.192333	-0.0456766	-0.0109108	0.00114653	0.000490461	0	0	0	
0.1925	0.0518273	0.0174784	0.00113446	0.000611266	0	0	0	
0.192667	-0.0577688	-0.00734588	0.00115355	0.000532595	0	0	0	
0.192833	0.0584096	0.000881837	0.00120142	0.00037091	0	0	0	
0.193	-0.0542207	-0.00749034	0.00126145	0.000208134	0	0	0	
0.193167	0.0531925	0.0257444	0.00129968	0.000223782	0	0	0	
0.193333	-0.0503885	-0.0281764	0.00130341	0.00037691	0	0	0	
0.1935	0.0459581	0.0331118	0.00127146	0.000572107	0	0	0	
0.193667	-0.0471678	-0.0172414	0.00122513	0.000602242	0	0	0	
0.193833	0.0484009	0.00975525	0.0011833	0.000494025	0	0	0	
0.194	-0.0466245	-0.0172374	0.00116009	0.000350008	0	0	0	
0.194167	0.0494148	0.029893	0.00113592	0.000326389	0	0	0	
0.194333	-0.0552937	-0.0310568	0.0011307	0.000455493	0	0	0	
0.1945	0.0572687	0.0234855	0.0011591	0.000550167	0	0	0	
0.194667	-0.0567892	-0.00825342	0.00124182	0.000521225	0	0	0	
0.194833	0.0475868	0.00541577	0.00129693	0.000359103	0	0	0	
0.195	-0.0460753	0.000346285	0.00130558	0.000196164	0	0	0	
0.195167	0.0459453	-0.00178073	0.00123767	9.59193E-05	0	0	0	
0.195333	-0.048859	0.00357638	0.00117089	0.00010883	0	0	0	
0.1955	0.0507848	0.0101809	0.00114527	0.000114704	0	0	0	
0.195667	-0.0559332	-0.00786214	0.00116906	0.000183297	0	0	0	
0.195833	0.0597974	0.013215	0.00123498	0.000245593	0	0	0	
0.196	-0.0564243	-0.00424683	0.00128237	0.000285713	0	0	0	
0.196167	0.0422439	0.00939107	0.0012831	0.000254043	0	0	0	
0.196333	-0.0379868	-0.0284712	0.00119495	0.000265047	0	0	0	
0.1965	0.0448609	0.0211341	0.00108732	0.000411849	0	0	0	
0.196667	-0.0551548	-0.0235647	0.00104778	0.000484429	0	0	0	
0.196833	0.0547226	0.0151327	0.00110858	0.000486157	0	0	0	
0.197	-0.0457375	-0.00143247	0.00116891	0.000332649	0	0	0	
0.197167	0.042966	0.00616862	0.00116966	0.000226474	0	0	0	
0.197333	-0.0469672	-0.0101215	0.00114887	0.000156615	0	0	0	
0.1975	0.0461203	0.0120158	0.00116001	0.000176002	0	0	0	
0.197667	-0.0521377	-0.0218935	0.00120463	0.000272996	0	0	0	
0.197833	0.0512036	0.00980505	0.0012127	0.00030773	0	0	0	
0.198	-0.0483194	-0.007018	0.00120809	0.000303065	0	0	0	
0.198167	0.0450417	0.00564518	0.00117871	0.000284839	0	0	0	
0.198333	-0.0398303	-0.0010171	0.0011497	0.000216897	0	0	0	
0.1985	0.0405568	0.0104807	0.00110346	0.000220545	0	0	0	
0.198667	-0.0483596	-0.00207872	0.00106225	0.000296465	0	0	0	
0.198833	0.0588521	0.00176629	0.00106519	0.00035775	0	0	0	
0.199	-0.059144	-0.0139987	0.00115165	0.00033651	0	0	0	
0.199167	0.0469256	0.0123927	0.00126187	0.000299106	0	0	0	
0.199333	-0.0422669	-0.00395445	0.0013074	0.000273609	0	0	0	
0.1995	0.0491158	0.00601128	0.00127125	0.000282952	0	0	0	
0.199667	-0.0448355	-0.0132085	0.00122786	0.000279311	0	0	0	
0.199833	0.0447467	0.0160727	0.00121108	0.000361152	0	0	0	
0.2	-0.0471283	-0.0113909	0.00118742	0.000394903	0	0	0	
0.200167	0.0523521	0.0140592	0.00118191	0.000379936	0	0	0	
0.200333	-0.0534765	-0.00568814	0.001222	0.000309688	0	0	0	
0.2005	0.0489608	0.00301302	0.00125576	0.000248943	0	0	0	
0.200667	-0.0479675	-0.0124673	0.00122695	0.000195597	0	0	0	
0.200833	0.0476003	0.0122424	0.00114984	0.000205307	0	0	0	
0.201	-0.0521148	-0.0051016	0.00113466	0.000212109	0	0	0	
0.201167	0.0549522	0.00805448	0.00118376	0.000253339	0	0	0	
0.201333	-0.054379	-0.00805517	0.00126145	0.000286588	0	0	0	
0.2015	0.0473806	0.00340983	0.00129169	0.000327052	0	0	0	
0.201667	-0.04259	-0.00428004	0.00127904	0.000279099	0	0	0	
0.201833	0.0382684	0.0110739	0.00121506	0.00019514	0	0	0	
0.202	-0.0420114	-0.0210836	0.00115126	0.000214292	0	0	0	
0.202167	0.0443037	0.0221038	0.0010961	0.000309187	0	0	0	
0.202333	-0.0477879	-0.0199827	0.00109577	0.000434197	0	0	0	
0.2025	0.0500117	0.00895478	0.00112766	0.000435336	0	0	0	
0.202667	-0.052419	-0.00384558	0.00119246	0.000323511	0	0	0	
0.202833	0.0487508	0.0116853	0.00123269	0.000199526	0	0	0	
0.203	-0.0437777	-0.022647	0.0012558	0.000193494	0	0	0	
0.203167	0.0456086	0.0258323	0.00125467	0.000331579	0	0	0	
0.203333	-0.0483799	-0.0197337	0.00125201	0.000443299	0	0	0	
0.2035	0.0506286	0.00887657	0.00125246	0.000453802	0	0	0	
0.203667	-0.0477024	-0.00187717	0.00126274	0.000339298	0	0	0	
0.203833	0.0413084	0.00366065	0.00127384	0.000221777	0	0	0	
0.204	-0.0366854	-0.0103595	0.00124924	0.000140574	0	0	0	
0.204167	0.0440197	0.0163142	0.00119631	0.000189639	0	0	0	
0.204333	-0.0444316	-0.00560129	0.00116026	0.000226342	0	0	0	
0.2045	0.0365491	0.00432413	0.00114826	0.000222966	0	0	0	
0.204667	-0.0310582	-0.00306965	0.00112836	0.000146897	0	0	0	
0.204833	0.03981	-0.00168238	0.00106076	9.29168E-05	0	0	0	
0.205	-0.0489737	0.012706	0.001025	0.000115149	0	0	0	
0.205167	0.0548426	-0.00179618	0.00108373	0.000134494	0	0	0	
0.205333	-0.0535039	0.0300253	0.00122013	0.000251866	0	0	0	
0.2055	0.0504027	-0.00657273	0.00131928	0.000405086	0	0	0	
0.205667	-0.0490801	-0.0101576	0.00137462	0.000461524	0	0	0	
0.205833	0.0343119	0.00584326	0.00136746	0.000408303	0	0	0	
0.206	-0.0200488	-0.00413072	0.00125638	0.000278512	0	0	0	
0.206167	0.0422382	0.00478815	0.00105383	0.000268453	0	0	0	
0.206333	-0.0644937	0.0224752	0.000964405	0.000328681	0	0	0	
0.2065	0.0546856	-0.00582006	0.00109458	0.000490764	0	0	0	
0.206667	-0.0395311	0.00240652	0.0012847	0.000507943	0	0	0	
0.206833	0.0370958	0.00447707	0.00128985	0.000390735	0	0	0	
0.207	-0.0433388	-0.00300423	0.00119133	0.000175721	0	0	0	
0.207167	0.0395369	-0.00317628	0.00112813	7.53204E-05	0	0	0	
0.207333	0.0035478	-0.00144095	0.00109114	7.18288E-05	0	0	0	
0.2075	0.0289669	0.0292698	0.00133186	0.000206149	0	0	0	
0.207667	-0.0615318	-0.0271878	0.00176763	0.000470259	0	0	0	
0.207833	0.0358606	0.000822878	0.00190462	0.000579024	0	0	0	
0.208	-0.0296678	0.00729413	0.00169644	0.000525788	0	0	0	
0.208167	0.0295957	0.00924746	0.00121001	0.000284298	0	0	0	
0.208333	-0.0475739	0.00339523	0.0011487	0.000237122	0	0	0	
0.2085	0.0446066	0.0117855	0.00109008	0.000207597	0	0	0	
0.208667	-0.0391773	-0.0341251	0.00115377	0.000413785	0	0	0	
0.208833	0.0394118	0.0350194	0.00113646	0.000633302	0	0	0	
0.209	-0.0490983	-0.0253626	0.00117986	0.000815271	0	0	0	
0.209167	0.0519682	0.0145134	0.00121164	0.000771154	0	0	0	
0.209333	-0.0424509	3.9195E-05	0.00129017	0.000539118	0	0	0	
0.2095	0.038969	-0.00689366	0.00134376	0.00033063	0	0	0	
0.209667	-0.0392798	-0.00831389	0.00128556	0.000232167	0	0	0	
0.209833	0.0421375	0.0114332	0.0011837	0.000257808	0	0	0	
0.21	-0.0449981	-0.013775	0.00114641	0.000285403	0	0	0	
0.210167	0.0453713	0.0172898	0.0011947	0.000311566	0	0	0	
0.210333	-0.0419485	-0.0123896	0.00126897	0.00036792	0	0	0	
0.2105	0.0388853	0.000224601	0.00129025	0.000454147	0	0	0	
0.210667	-0.0362014	-0.003452	0.00124371	0.000490235	0	0	0	
0.210833	0.0409852	0.000166848	0.00117538	0.000414	0	0	0	
0.211	-0.0461295	-0.00409109	0.00115457	0.000281646	0	0	0	
0.211167	0.0456858	0.0155619	0.00119685	0.000210485	0	0	0	
0.211333	-0.0414299	-0.0163104	0.00125189	0.000262134	0	0	0	
0.2115	0.0382584	0.0144254	0.00125725	0.000357347	0	0	0	
0.211667	-0.0366684	-0.0123277	0.00122293	0.000401408	0	0	0	
0.211833	0.0406194	0.00643283	0.00118289	0.000388695	0	0	0	
0.212	-0.0435952	-0.00730437	0.00115973	0.000386019	0	0	0	
0.212167	0.0479621	0.0106036	0.00116319	0.000367494	0	0	0	
0.212333	-0.0505918	-0.0149934	0.00121094	0.000366861	0	0	0	
0.2125	0.044643	0.0150942	0.00128843	0.000354717	0	0	0	
0.212667	-0.0317299	-0.0129099	0.00134678	0.000369959	0	0	0	
0.212833	0.0272754	0.0136765	0.00129488	0.000406976	0	0	0	
0.213	-0.0366584	-0.014547	0.00115224	0.000463423	0	0	0	
0.213167	0.0470429	0.0122438	0.00105283	0.000487796	0	0	0	
0.213333	-0.043375	-0.0111871	0.0010925	0.000456259	0	0	0	
0.2135	0.0369359	0.0117633	0.00118708	0.000374591	0	0	0	
0.213667	-0.0410775	-0.0158421	0.00122004	0.000332727	0	0	0	
0.213833	0.0419417	0.0185482	0.00120788	0.000334595	0	0	0	
0.214	-0.0365325	-0.0274487	0.00121888	0.000413801	0	0	0	
0.214167	0.037469	0.0433055	0.00122851	0.000572052	0	0	0	
0.214333	-0.0392598	-0.0442041	0.00119264	0.00082976	0	0	0	
0.2145	0.039867	0.0171376	0.00118117	0.00085542	0	0	0	
0.214667	-0.0352034	-0.0154216	0.00121816	0.000733265	0	0	0	
0.214833	0.0324411	0.00764595	0.00124266	0.000452881	0	0	0	
0.215	-0.035167	-0.0139178	0.00119897	0.000368387	0	0	0	
0.215167	0.041479	0.0305593	0.00114696	0.000386358	0	0	0	
0.215333	-0.040956	-0.0307626	0.00114159	0.000537859	0	0	0	
0.2155	0.0412103	0.0122067	0.00119024	0.000576439	0	0	0	
0.215667	-0.0379575	-0.0224731	0.00123265	0.000523931	0	0	0	
0.215833	0.0334032	0.0204411	0.00123292	0.000400556	0	0	0	
0.216	-0.0366789	-0.0246509	0.0012048	0.000418141	0	0	0	
0.216167	0.0391298	0.0252812	0.0011864	0.000507468	0	0	0	
0.216333	-0.0255387	-0.00913826	0.00122477	0.000552024	0	0	0	
0.2165	0.0150098	-0.00259909	0.00118951	0.000465854	0	0	0	
0.216667	-0.104562	-0.0853256	0.00116515	0.000666704	0	0	0	
0.216833	-0.185752	-0.199296	0.00260151	0.00248219	0	0	0	
0.217	-0.03003	-0.0208192	0.00292163	0.0032435	0	0	0	
0.217167	0.104509	0.136037	0.00293104	0.00342691	0	0	0	
0.217333	-0.122775	-0.0930042	0.00180254	0.0023504	0	0	0	
0.2175	0.124821	-0.0152324	0.00197471	0.00224903	0	0	0	
0.217667	-0.080748	0.0900171	0.00236709	0.00250178	0	0	0	
0.217833	-0.357993	-0.552495	0.00240987	0.0026474	0	0	0	
0.218	0.0250053	0.219541	0.00354335	0.00462937	0	0	0	
0.218167	-0.00311264	-0.121285	0.00322391	0.00461113	0	0	0	
0.218333	0.00905064	0.0792772	0.00251467	0.00474434	0	0	0	
0.2185	-0.00114172	-0.0125335	0.000693963	0.00293031	0	0	0	
0.218667	-0.0285734	-0.0699521	0.000611941	0.0024557	0	0	0	
0.218833	0.0725205	0.0576243	0.00100348	0.00162823	0	0	0	
0.219	-0.0801814	-0.0215987	0.00130922	0.00134705	0	0	0	
0.219167	0.0652786	-0.0264827	0.00141205	0.00199008	0	0	0	
0.219333	-0.0437182	0.0581262	0.00149236	0.00280006	0	0	0	
0.2195	0.0323105	-0.0689669	0.001519	0.00322852	0	0	0	
0.219667	-0.0224415	0.0699434	0.00143594	0.00293939	0	0	0	
0.219833	0.0286837	-0.0475711	0.0012108	0.00217027	0	0	0	
0.22	-0.0433733	0.017858	0.00102385	0.00128253	0	0	0	
0.220167	0.0587117	-0.00623657	0.000999035	0.000666343	0	0	0	
0.220333	-0.0584798	0.00221634	0.00115065	0.0002964	0	0	0	
0.2205	0.0447233	-0.00275246	0.00137123	0.000184915	0	0	0	
0.220667	-0.0273517	0.00322142	0.00150343	0.000157655	0	0	0	
0.220833	0.0217996	0.00765237	0.00144322	0.000199832	0	0	0	
0.221	-0.0272292	-0.00928561	0.00123461	0.000239017	0	0	0	
0.221167	0.0319778	0.00723059	0.00103824	0.000237995	0	0	0	
0.221333	-0.0297969	-0.0152906	0.000970432	0.000233137	0	0	0	
0.2215	0.0352625	0.015928	0.00102197	0.000232994	0	0	0	
0.221667	-0.0428849	-0.00714577	0.00110735	0.000320963	0	0	0	
0.221833	0.0430723	0.0013683	0.00125858	0.000475856	0	0	0	
0.222	-0.0270042	0.00917593	0.00140898	0.000577539	0	0	0	
0.222167	0.024429	-0.0195229	0.00141577	0.000522916	0	0	0	
0.222333	-0.037529	-0.0182221	0.00126702	0.000409971	0	0	0	
0.2225	0.0377457	0.110861	0.00117594	0.000673166	0	0	0	
0.222667	-0.0249794	-0.106754	0.00122908	0.0014629	0	0	0	
0.222833	0.0336862	0.0599047	0.00125338	0.00191702	0	0	0	
0.223	-0.0464457	-0.0331755	0.00118525	0.00182422	0	0	0	
0.223167	0.0395216	-0.0342911	0.00114749	0.00109588	0	0	0	
0.223333	-0.025365	0.0845741	0.00119894	0.00099884	0	0	0	
0.2235	0.0322735	-0.0908219	0.00119988	0.00113337	0	0	0	
0.223667	-0.0450731	0.111954	0.00118341	0.00179781	0	0	0	
0.223833	0.0331234	-0.0778403	0.00123617	0.00230817	0	0	0	
0.224	-0.0223592	0.0281061	0.00134464	0.00225346	0	0	0	
0.224167	0.026573	-0.0286213	0.00133602	0.00167637	0	0	0	
0.224333	-0.0306352	-0.00680724	0.00123549	0.000933662	0	0	0	
0.2245	0.0330438	0.0312606	0.00116739	0.000925276	0	0	0	
0.224667	-0.0357783	-0.0137652	0.00118481	0.00122534	0	0	0	
0.224833	0.0322578	-0.00636224	0.00122702	0.00143473	0	0	0	
0.225	-0.030301	-0.000888061	0.00124784	0.00126015	0	0	0	
0.225167	0.0311115	0.00966663	0.00123183	0.000865294	0	0	0	
0.225333	-0.0325031	-0.00786121	0.00118963	0.000559842	0	0	0	
0.2255	0.0347471	0.00335667	0.00116434	0.0004994	0	0	0	
0.225667	-0.0374725	0.00180072	0.00119048	0.000542297	0	0	0	
0.225833	0.0353452	-0.00184452	0.00124011	0.00050726	0	0	0	
0.226	-0.0317873	-0.00725978	0.00126628	0.000373057	0	0	0	
0.226167	0.029217	0.0133918	0.0012455	0.000269997	0	0	0	
0.226333	-0.0307412	-0.0154688	0.00121293	0.000272259	0	0	0	
0.2265	0.0302238	0.0141563	0.00118996	0.000356901	0	0	0	
0.226667	-0.0293843	-0.00922996	0.00118719	0.000429743	0	0	0	
0.226833	0.0309879	0.00910034	0.00115276	0.000440517	0	0	0	
0.227	-0.0369224	-0.0126544	0.00112614	0.000410548	0	0	0	
0.227167	0.0350621	0.00680211	0.00115589	0.00037982	0	0	0	
0.227333	-0.0281274	-0.00298381	0.001237	0.000398429	0	0	0	
0.2275	0.0305215	0.00157871	0.00125472	0.000399812	0	0	0	
0.227667	-0.0368755	-0.00384563	0.00123849	0.000383458	0	0	0	
0.227833	0.0297336	0.00745078	0.00125775	0.000358748	0	0	0	
0.228	-0.023621	-0.00548819	0.00130639	0.00033825	0	0	0	
0.228167	0.0298562	0.00787395	0.00127072	0.000319285	0	0	0	
0.228333	-0.033565	-0.00821315	0.00119147	0.000286986	0	0	0	
0.2285	0.031344	0.0112909	0.0011701	0.000280445	0	0	0	
0.228667	-0.0278528	-0.00753086	0.00120169	0.000299865	0	0	0	
0.228833	0.031237	0.00320776	0.00120303	0.000314689	0	0	0	
0.229	-0.0350377	-0.00556767	0.00117834	0.000317436	0	0	0	
0.229167	0.0323224	0.00837722	0.00118713	0.00031471	0	0	0	
0.229333	-0.0278233	-0.00335108	0.00121816	0.000331425	0	0	0	
0.2295	0.0301354	0.00399222	0.00121907	0.000364785	0	0	0	
0.229667	-0.0298967	-0.000519745	0.00118339	0.00037983	0	0	0	
0.229833	0.0299835	6.99416E-05	0.00117377	0.000377675	0	0	0	
0.23	-0.0280719	-0.00606659	0.0011881	0.000354905	0	0	0	
0.230167	0.0291692	0.00397413	0.00119372	0.000315089	0	0	0	
0.230333	-0.0307522	-0.0058087	0.00118439	0.000285737	0	0	0	
0.2305	0.0279734	0.0108261	0.00118439	0.000278613	0	0	0	
0.230667	-0.0258958	-0.0131504	0.00120136	0.000316734	0	0	0	
0.230833	0.0263689	0.0122664	0.00120075	0.000347461	0	0	0	
0.231	-0.0262003	-0.0128493	0.00118868	0.000371984	0	0	0	
0.231167	0.0259888	0.00860099	0.00118436	0.000384302	0	0	0	
0.231333	-0.0279724	-0.00859803	0.00119139	0.000433567	0	0	0	
0.2315	0.0290405	0.0103675	0.00119142	0.00048313	0	0	0	
0.231667	-0.0285425	-0.00901099	0.0011992	0.00049791	0	0	0	
0.231833	0.0271949	0.00843983	0.00120887	0.000444057	0	0	0	
0.232	-0.0267167	-0.00901058	0.00121029	0.00036395	0	0	0	
0.232167	0.0276348	0.00623707	0.00119831	0.000296739	0	0	0	
0.232333	-0.0298243	-0.0104135	0.00119573	0.000300762	0	0	0	
0.2325	0.0282315	0.0136163	0.00119741	0.000351914	0	0	0	
0.232667	-0.0269184	-0.0125886	0.00121173	0.000434671	0	0	0	
0.232833	0.02471	0.010729	0.00123554	0.000490353	0	0	0	
0.233	-0.0182013	-0.00296067	0.00124476	0.000477406	0	0	0	
0.233167	0.0204351	0.000222081	0.00120736	0.000440454	0	0	0	
0.233333	-0.0273322	-0.0043839	0.00115239	0.000401086	0	0	0	
0.2335	0.027144	0.00798179	0.00113061	0.000390031	0	0	0	
0.233667	-0.0301108	-0.012341	0.00115911	0.000378469	0	0	0	
0.233833	0.0338457	0.0176044	0.00120877	0.000366263	0	0	0	
0.234	-0.028759	-0.0227621	0.00128329	0.000377172	0	0	0	
0.234167	0.0222525	0.00929099	0.00135995	0.000529125	0	0	0	
0.234333	-0.0226899	0.0612264	0.00137356	0.000871912	0	0	0	
0.2345	0.0232185	-0.145874	0.00130954	0.0014081	0	0	0	
0.234667	-0.0217666	0.128888	0.00124354	0.00203627	0	0	0	
0.234833	0.0207269	-0.0453187	0.00120124	0.00213417	0	0	0	
0.235	-0.0285698	-0.00854663	0.00115373	0.00158702	0	0	0	
0.235167	0.0353336	0.0213527	0.0011242	0.000826857	0	0	0	
0.235333	-0.0312613	-0.0128383	0.00120318	0.000507101	0	0	0	
0.2355	0.0173573	-0.011524	0.00132406	0.000972881	0	0	0	
0.235667	-0.0163746	0.028954	0.00134614	0.00179407	0	0	0	
0.235833	0.0244782	-0.0222569	0.0012492	0.00237787	0	0	0	
0.236	-0.0250635	-0.0100636	0.00116279	0.00211464	0	0	0	
0.236167	0.0233942	0.0269143	0.00115153	0.00132432	0	0	0	
0.236333	-0.0242532	-0.0150316	0.00118776	0.000641771	0	0	0	
0.2365	0.0151766	0.00128664	0.00122278	0.000391126	0	0	0	
0.236667	-0.014252	-0.0220163	0.00123419	0.000462563	0	0	0	
0.236833	0.0183598	0.074139	0.00113658	0.000864041	0	0	0	
0.237	-0.0317248	-0.0384451	0.00100531	0.00140808	0	0	0	
0.237167	0.0385545	0.0136293	0.000976322	0.00137926	0	0	0	
0.237333	-0.0330251	0.00164815	0.00113575	0.000955833	0	0	0	
0.2375	0.02084	-0.0224936	0.00133696	0.000556043	0	0	0	
0.237667	-0.0191815	0.0570744	0.00142511	0.000625579	0	0	0	
0.237833	0.0122493	-0.0958864	0.00136423	0.000947393	0	0	0	
0.238	-0.0515814	0.110572	0.00130511	0.00148134	0	0	0	
0.238167	0.0683573	-0.0433764	0.00162296	0.00159381	0	0	0	
0.238333	-0.0173035	0.00342761	0.00143745	0.00135569	0	0	0	
0.2385	0.0369864	0.0182836	0.00133724	0.000751513	0	0	0	
0.238667	-0.0321025	-0.0374031	0.00102153	0.000680261	0	0	0	
0.238833	0.0213381	0.0164987	0.00124465	0.000789092	0	0	0	
0.239	-0.006709	-0.00787532	0.00132926	0.00126512	0	0	0	
0.239167	0.0370242	0.0167332	0.00130146	0.00156147	0	0	0	
0.239333	-0.0379396	0.0176853	0.00128328	0.00146512	0	0	0	
0.2395	0.0214894	-0.0142874	0.00133336	0.0010226	0	0	0	
0.239667	-0.0124445	-0.00303393	0.0013128	0.000525282	0	0	0	
0.239833	0.0150492	0.0115077	0.00112333	0.000364766	0	0	0	
0.24	-0.0358332	-0.0342002	0.000947853	0.000283919	0	0	0	
0.240167	0.0357506	0.0420346	0.000965545	0.000518731	0	0	0	
0.240333	-0.0183524	-0.0162786	0.00119916	0.000730141	0	0	0	
0.2405	0.0157309	0.023364	0.00132437	0.000919304	0	0	0	
0.240667	-0.019908	-0.010446	0.00123018	0.000732193	0	0	0	
0.240833	0.0245011	0.000366879	0.00109227	0.000537414	0	0	0	
0.241	-0.0251312	-0.00480615	0.00110132	0.000274556	0	0	0	
0.241167	0.0139299	0.0188659	0.00123728	0.00024928	0	0	0	
0.241333	-0.00900441	-0.060407	0.00130533	0.000371407	0	0	0	
0.2415	0.0199452	0.0463118	0.00120357	0.000717941	0	0	0	
0.241667	-0.0169148	-0.00936187	0.00108675	0.000831614	0	0	0	
0.241833	0.00248096	-0.0245958	0.00112565	0.00119738	0	0	0	
0.242	-0.00986355	0.033947	0.00119941	0.0013152	0	0	0	
0.242167	0.0203335	-0.0182694	0.0011534	0.00114958	0	0	0	
0.242333	-0.0302746	-0.00443847	0.00105566	0.000993879	0	0	0	
0.2425	0.0392299	-0.00247215	0.00105804	0.000702492	0	0	0	
0.242667	-0.036925	0.0171004	0.00116353	0.000900625	0	0	0	
0.242833	0.040208	0.0307482	0.00131144	0.00103894	0	0	0	
0.243	-0.0334312	-0.0298226	0.00147781	0.0012724	0	0	0	
0.243167	0.0182247	-0.000731861	0.00161501	0.00119	0	0	0	
0.243333	-0.00804031	0.024836	0.00161588	0.000767099	0	0	0	
0.2435	0.00289206	-0.00891549	0.00143976	0.000481804	0	0	0	
0.243667	-0.00874393	-0.0268066	0.00116433	0.000450019	0	0	0	
0.243833	0.0219254	0.0531746	0.000953782	0.000774885	0	0	0	
0.244	-0.0258334	-0.00173078	0.000935135	0.000987203	0	0	0	
0.244167	0.0283906	-0.00753717	0.0010905	0.00108448	0	0	0	
0.244333	-0.0206999	-0.00616275	0.00123465	0.000756375	0	0	0	
0.2445	0.0233876	0.0143172	0.00128955	0.000472289	0	0	0	
0.244667	-0.0272906	-0.0229836	0.00128383	0.000424667	0	0	0	
0.244833	0.0210769	0.00921496	0.00128594	0.000630848	0	0	0	
0.245	-0.0196666	-0.00730255	0.00129931	0.000870355	0	0	0	
0.245167	0.0169223	-0.00302505	0.00128155	0.000807432	0	0	0	
0.245333	-0.0138429	0.00843972	0.00124893	0.000530676	0	0	0	
0.2455	0.00925895	-0.0134672	0.00121801	0.000302605	0	0	0	
0.245667	-0.00876433	0.000833305	0.00118819	0.000237998	0	0	0	
0.245833	0.00888514	0.0181854	0.00113528	0.000290752	0	0	0	
0.246	-0.01351	-0.0157263	0.00108975	0.000326364	0	0	0	
0.246167	0.0128982	0.0102972	0.00108138	0.000345406	0	0	0	
0.246333	-0.0161377	-0.0109108	0.00109958	0.000328541	0	0	0	
0.2465	0.018205	0.0180568	0.00111252	0.000315898	0	0	0	
0.246667	-0.0169519	-0.0303624	0.00114682	0.000420995	0	0	0	
0.246833	0.0124201	0.0248998	0.00121819	0.000621494	0	0	0	
0.247	-0.0130654	-0.00318908	0.00129145	0.0007713	0	0	0	
0.247167	0.0110352	-0.0107033	0.00130372	0.000784443	0	0	0	
0.247333	-0.0169745	0.010735	0.00126406	0.000622195	0	0	0	
0.2475	0.0175278	-0.000413198	0.00121319	0.000386007	0	0	0	
0.247667	-0.0151111	-0.00846931	0.00120811	0.000178983	0	0	0	
0.247833	0.0111562	3.26543E-05	0.0012203	9.91894E-05	0	0	0	
0.248	-0.0170096	0.0145256	0.00120601	0.000170958	0	0	0	
0.248167	0.0190028	-0.00299054	0.00116182	0.000303409	0	0	0	
0.248333	-0.0173041	0.00036278	0.00116042	0.000382804	0	0	0	
0.2485	0.0120971	-0.0017495	0.00119559	0.000349727	0	0	0	
0.248667	-0.0151664	-0.00363995	0.00118225	0.000213523	0	0	0	
0.248833	0.0239801	0.00106778	0.00112055	0.000127053	0	0	0	
0.249	-0.0241757	-0.000372657	0.00111894	9.1931E-05	0	0	0	
0.249167	0.0135052	0.019809	0.00121021	0.000246898	0	0	0	
0.249333	-0.011506	-0.0259579	0.00127504	0.000506002	0	0	0	
0.2495	0.0156113	0.00483723	0.00123099	0.00068963	0	0	0	
0.249667	-0.0182508	-0.00297278	0.00117663	0.000587677	0	0	0	
0.249833	0.014605	0.0104577	0.00119788	0.000344032	0	0	0	
0.25	-0.0111918	-0.0145757	0.00124366	0.000212933	0	0	0	
0.250167	0.0140068	0.0194161	0.0012323	0.000311282	0	0	0	
0.250333	-0.0158434	-0.0220513	0.0011889	0.000459585	0	0	0	
0.2505	0.0156454	0.0180915	0.00117418	0.000585003	0	0	0	
0.250667	-0.0164979	0.00218648	0.00119281	0.000586153	0	0	0	
0.250833	0.0142763	-0.01551	0.00121909	0.000459777	0	0	0	
0.251	-0.00661644	0.0264935	0.00122762	0.000420244	0	0	0	
0.251167	0.00490002	-0.0203674	0.00118985	0.000500328	0	0	0	
0.251333	-0.0124226	0.00310333	0.00111123	0.000687316	0	0	0	
0.2515	0.0149472	0.0301755	0.00107633	0.000699715	0	0	0	
0.251667	-0.0218366	-0.0161617	0.00112745	0.000640729	0	0	0	
0.251833	0.0155036	0.00856935	0.00116479	0.000451568	0	0	0	
0.252	-0.0218587	-0.0229805	0.0011919	0.000379457	0	0	0	
0.252167	0.0164712	0.008919	0.00121736	0.000458895	0	0	0	
0.252333	-0.0274746	-0.0170138	0.00125663	0.000848918	0	0	0	
0.2525	0.0305725	0.0135855	0.00124307	0.00102769	0	0	0	
0.252667	-0.0355656	0.00786918	0.00130682	0.0008033	0	0	0	
0.252833	0.00426686	-0.0130488	0.00148699	0.000459756	0	0	0	
0.253	0.0190752	0.0239657	0.00171218	0.000237424	0	0	0	
0.253167	-0.0301899	-0.0382675	0.00160774	0.000541939	0	0	0	
0.253333	-0.00256756	-0.0317661	0.00112758	0.000675943	0	0	0	
0.2535	0.044483	0.0372936	0.000656483	0.000858466	0	0	0	
0.253667	-0.0593395	-0.00659475	0.000691464	0.000722286	0	0	0	
0.253833	0.0280129	0.00498817	0.00124425	0.000671377	0	0	0	
0.254	-0.00911317	0.00436413	0.00164504	0.000522488	0	0	0	
0.254167	0.01767	-0.017076	0.00164577	0.000447172	0	0	0	
0.254333	0.00448909	-0.0103252	0.00153345	0.000549001	0	0	0	
0.2545	-0.0157072	0.0202917	0.00146068	0.000785513	0	0	0	
0.254667	-0.0218515	-0.0015538	0.00123644	0.000867558	0	0	0	
0.254833	0.0359664	0.00278919	0.00103059	0.000713087	0	0	0	
0.255	0.00402016	0.000108169	0.00119875	0.00042822	0	0	0	
0.255167	-0.0202805	-0.00828244	0.00154852	0.000284455	0	0	0	
0.255333	-0.0081485	-0.00467428	0.00144027	0.000249058	0	0	0	
0.2555	0.0369074	0.0365509	0.00104496	0.000313574	0	0	0	
0.255667	-0.0459482	-0.0517063	0.000920958	0.000497112	0	0	0	
0.255833	0.0291664	0.043658	0.00124147	0.000790805	0	0	0	
0.256	-0.00829566	-0.00475067	0.00165967	0.000925737	0	0	0	
0.256167	-0.00962659	-0.0170117	0.00179314	0.000731747	0	0	0	
0.256333	-0.00324567	-0.00109889	0.00158473	0.000405753	0	0	0	
0.2565	0.0182615	0.016611	0.00120479	0.000251132	0	0	0	
0.256667	-0.0255533	-0.0188367	0.000968357	0.000261765	0	0	0	
0.256833	0.024928	0.010414	0.000980482	0.000307573	0	0	0	
0.257	-0.0273835	-0.000217369	0.00115916	0.000314523	0	0	0	
0.257167	0.00925764	-0.00478748	0.00138032	0.000319024	0	0	0	
0.257333	0.00185364	0.00835855	0.00154853	0.000240596	0	0	0	
0.2575	0.00206664	-0.00871391	0.0014658	0.00023137	0	0	0	
0.257667	-0.0152502	-0.00279814	0.00124038	0.000315117	0	0	0	
0.257833	0.012474	0.00607981	0.00112381	0.000454836	0	0	0	
0.258	-0.00254563	-0.00438412	0.00121621	0.000467733	0	0	0	
0.258167	0.00174453	0.00328165	0.00127745	0.00033183	0	0	0	
0.258333	-0.0130711	-0.00500608	0.00117462	0.000181265	0	0	0	
0.2585	0.0150755	0.00352108	0.0010665	0.000113486	0	0	0	
0.258667	-0.0105437	-7.18889E-05	0.00111997	0.000144094	0	0	0	
0.258833	0.00736952	-0.00155033	0.00123322	0.000222219	0	0	0	
0.259	-0.0126684	0.00259391	0.00126188	0.000323061	0	0	0	
0.259167	0.0125591	-0.00329658	0.00124039	0.000385536	0	0	0	
0.259333	-0.00684661	0.00556324	0.00125055	0.000378174	0	0	0	
0.2595	0.00154767	-0.0101928	0.00125906	0.000309172	0	0	0	
0.259667	8.16718E-06	-0.00106644	0.00123816	0.000232493	0	0	0	
0.259833	0.00074851	0.0283845	0.00120181	0.000278167	0	0	0	
0.26	-0.00361818	-0.0479865	0.00115391	0.000413109	0	0	0	
0.260167	0.00294691	0.0427861	0.00110708	0.000775812	0	0	0	
0.260333	0.00635428	-0.0366658	0.00105516	0.00113094	0	0	0	
0.2605	0.0116546	0.00272102	0.00095511	0.00117739	0	0	0	
0.260667	-0.0298388	0.00422429	0.000964325	0.000925098	0	0	0	
0.260833	0.0106035	-0.0106262	0.00129914	0.000537314	0	0	0	
0.261	0.0239981	0.00274534	0.00176564	0.000338099	0	0	0	
0.261167	-0.00893785	0.0320144	0.00176048	0.000259492	0	0	0	
0.261333	-0.0177296	-0.0547313	0.00133172	0.000466805	0	0	0	
0.2615	0.00229798	0.0147122	0.00109476	0.000612339	0	0	0	
0.261667	0.00533267	-0.0121131	0.00116968	0.000616207	0	0	0	
0.261833	0.0351693	0.00154	0.00115918	0.000342984	0	0	0	
0.262	-0.0499552	0.0243763	0.00107952	0.000225859	0	0	0	
0.262167	0.010639	-0.038531	0.00126601	0.000375364	0	0	0	
0.262333	0.00913962	0.0277633	0.00160415	0.000574516	0	0	0	
0.2625	-0.00261308	-0.0101131	0.00156917	0.000637445	0	0	0	
0.262667	-0.00457546	0.00552605	0.00127916	0.000451916	0	0	0	
0.262833	-0.000463702	-0.00190476	0.00104859	0.000241017	0	0	0	
0.263	-0.00978716	-0.00170736	0.000991497	0.000262047	0	0	0	
0.263167	0.0129601	-0.00647296	0.0010041	0.000600395	0	0	0	
0.263333	-0.0101523	0.0069904	0.00108138	0.00102813	0	0	0	
0.2635	0.00518347	3.92184E-05	0.00120479	0.00118555	0	0	0	
0.263667	0.000134056	0.00220719	0.00127344	0.000933113	0	0	0	
0.263833	-0.00551292	0.00958023	0.00126287	0.000523534	0	0	0	
0.264	0.00538306	-0.0262241	0.0012069	0.000323853	0	0	0	
0.264167	0.00836541	0.0279277	0.00112439	0.000653911	0	0	0	
0.264333	-0.0153333	0.0475052	0.00108972	0.00161403	0	0	0	
0.2645	0.00147916	-0.0720363	0.00116826	0.00263439	0	0	0	
0.264667	0.0058594	0.0552346	0.00129223	0.00271514	0	0	0	
0.264833	-0.00838008	0.00617654	0.00129476	0.00189974	0	0	0	
0.265	-0.000926485	-0.0504903	0.00117586	0.000974692	0	0	0	
0.265167	0.0120799	0.0869141	0.001071	0.000858134	0	0	0	
0.265333	-0.00887832	-0.0872758	0.00107911	0.00124103	0	0	0	
0.2655	-3.55125E-05	0.0776693	0.00116104	0.00171735	0	0	0	
0.265667	-0.00193848	-0.0107102	0.00123696	0.00186766	0	0	0	
0.265833	1.90832E-05	-0.0238007	0.00128301	0.00160333	0	0	0	
0.266	0.00453487	0.00448399	0.00130533	0.000983735	0	0	0	
0.266167	-0.00630512	0.0229104	0.0012724	0.0006288	0	0	0	
0.266333	0.002674	-0.0279054	0.0011628	0.000458907	0	0	0	
0.2665	0.00622077	-0.00331521	0.00104752	0.000699465	0	0	0	
0.266667	-0.007957	0.00403024	0.001027	0.00100333	0	0	0	
0.266833	0.00514579	-0.0139114	0.00109425	0.00117297	0	0	0	
0.267	-0.000273658	0.00100924	0.00116228	0.000921957	0	0	0	
0.267167	-0.00519482	0.0090033	0.00117442	0.000426677	0	0	0	
0.267333	0.00127684	-0.0110636	0.0011386	0.00019976	0	0	0	
0.2675	0.00397862	-0.00823264	0.00110206	0.000310205	0	0	0	
0.267667	-0.00100411	0.0139689	0.00111115	0.000437561	0	0	0	
0.267833	-0.00552392	-0.0259875	0.00114428	0.000466054	0	0	0	
0.268	0.00338786	0.00826488	0.00115455	0.000421597	0	0	0	
0.268167	-0.00378499	0.0075153	0.00112731	0.00030176	0	0	0	
0.268333	-0.000685018	-0.00730527	0.00107663	0.000232785	0	0	0	
0.2685	0.00839951	0.00661901	0.00101022	0.000224913	0	0	0	
0.268667	-0.0122813	0.00120654	0.00100736	0.000355538	0	0	0	
0.268833	-0.00541467	-0.0155938	0.00115655	0.000494023	0	0	0	
0.269	0.0194251	0.0106005	0.00136722	0.000536337	0	0	0	
0.269167	-0.0109838	-0.00792542	0.00141522	0.000410842	0	0	0	
0.269333	0.00265159	-6.36525E-05	0.00126676	0.000288704	0	0	0	
0.2695	-0.00126776	0.00129243	0.00112103	0.00016713	0	0	0	
0.269667	-0.00293103	-0.0057504	0.0010778	0.000203952	0	0	0	
0.269833	0.00496512	-0.00514412	0.00110744	0.000276853	0	0	0	
0.27	-0.00330149	0.0066241	0.00117849	0.000322958	0	0	0	
0.270167	-0.00459937	-0.0147296	0.00129317	0.000304782	0	0	0	
0.270333	0.0102713	0.0126821	0.0013559	0.000264555	0	0	0	
0.2705	-0.00566956	-0.00627854	0.00126859	0.000248689	0	0	0	
0.270667	-0.0032365	-0.0122822	0.00109668	0.000258498	0	0	0	
0.270833	0.00731637	0.0163877	0.00101519	0.000297575	0	0	0	
0.271	-0.0023815	-0.0114343	0.00107273	0.000392751	0	0	0	
0.271167	-0.000764593	0.00327019	0.00118201	0.000450468	0	0	0	
0.271333	0.00201463	0.00207862	0.00124487	0.000369543	0	0	0	
0.2715	-0.00657921	0.00147768	0.00126383	0.000227462	0	0	0	
0.271667	0.00772392	-0.00747529	0.0012728	0.000156925	0	0	0	
0.271833	-0.0059763	0.0117643	0.0012727	0.000236265	0	0	0	
0.272	0.00674977	-0.0085345	0.00124266	0.000380623	0	0	0	
0.272167	-0.00530215	0.00861195	0.0011883	0.000481362	0	0	0	
0.272333	0.00367811	-0.00306189	0.0011439	0.000444094	0	0	0	
0.2725	-0.00328723	0.000731573	0.00114665	0.000323271	0	0	0	
0.272667	0.00179893	0.00218013	0.00119036	0.000207244	0	0	0	
0.272833	-0.00180237	-0.00372255	0.00122409	0.000185257	0	0	0	
0.273	0.00107109	0.00143774	0.00121779	0.000239587	0	0	0	
0.273167	-0.00215592	0.000914997	0.00121275	0.000293959	0	0	0	
0.273333	0.00527898	-0.0026116	0.00124649	0.000305762	0	0	0	
0.2735	-0.00617748	0.000952166	0.00128864	0.000278109	0	0	0	
0.273667	0.00399	0.000901644	0.00128976	0.00023926	0	0	0	
0.273833	-0.00514278	-0.00202378	0.00125794	0.000217576	0	0	0	
0.274	0.00613485	-0.000488051	0.00122826	0.000230878	0	0	0	
0.274167	-0.00716934	0.000278325	0.00120926	0.000257114	0	0	0	
0.274333	0.00500708	-0.00157883	0.00119922	0.000260264	0	0	0	
0.2745	-0.00529734	0.00140405	0.00119703	0.000224416	0	0	0	
0.274667	0.00297601	0.000655604	0.00119646	0.000182628	0	0	0	
0.274833	-0.00213614	-0.00502735	0.00119402	0.000170627	0	0	0	
0.275	0.00604426	0.0024649	0.0012067	0.000198966	0	0	0	
0.275167	-0.00699867	-0.00794515	0.00123283	0.00025801	0	0	0	
0.275333	0.00582538	0.0105458	0.00126106	0.000328979	0	0	0	
0.2755	-0.00673044	-0.0064951	0.0012925	0.000354218	0	0	0	
0.275667	0.0107116	9.06494E-05	0.00131759	0.000296712	0	0	0	
0.275833	-0.0137635	0.00316166	0.00127826	0.000205001	0	0	0	
0.276	0.00476402	0.00167456	0.00115958	0.000202763	0	0	0	
0.276167	0.00484089	-0.0129464	0.0010687	0.000372322	0	0	0	
0.276333	0.000413235	0.00410022	0.00114314	0.000590771	0	0	0	
0.2765	-0.0117912	0.00471876	0.00131829	0.000598067	0	0	0	
0.276667	0.0150186	0.00304963	0.00139704	0.000442311	0	0	0	
0.276833	-0.0124288	-0.00646059	0.00130694	0.000252483	0	0	0	
0.277	0.00955786	0.00281225	0.00118924	0.0001738	0	0	0	
0.277167	-0.0102803	0.0138425	0.0011576	0.000195851	0	0	0	
0.277333	0.00554552	-0.0207791	0.00115271	0.000303141	0	0	0	
0.2775	-0.000679539	0.0142099	0.00110526	0.000437856	0	0	0	
0.277667	-0.00153088	0.0119938	0.00109208	0.000428638	0	0	0	
0.277833	-0.00610914	-0.0164676	0.00119093	0.000362187	0	0	0	
0.278	0.0188059	0.00946077	0.00132199	0.00027446	0	0	0	
0.278167	-0.0179313	-0.0285607	0.00132709	0.000431993	0	0	0	
0.278333	0.00157481	0.0423595	0.00117119	0.000731964	0	0	0	
0.2785	0.00889216	0.0027772	0.00101453	0.000875289	0	0	0	
0.278667	-0.00762366	0.00427013	0.000986064	0.000777078	0	0	0	
0.278833	0.0109614	-0.0122858	0.0010601	0.000487717	0	0	0	
0.279	-0.0117319	0.0263625	0.00119918	0.000460946	0	0	0	
0.279167	-0.00743524	-0.0811463	0.00134877	0.000644111	0	0	0	
0.279333	0.00456294	0.0697365	0.00138027	0.00124441	0	0	0	
0.2795	0.000288208	-0.0017995	0.00122995	0.00149557	0	0	0	
0.279667	0.0150307	0.0202257	0.00110229	0.0013058	0	0	0	
0.279833	-0.0227075	-0.0291625	0.00105705	0.000819432	0	0	0	
0.28	-0.0112769	-0.0015221	0.000957122	0.000593414	0	0	0	
0.280167	-0.00337019	0.0180537	0.00100534	0.000508883	0	0	0	
0.280333	0.0966604	-0.0253973	0.00174865	0.000542356	0	0	0	
0.2805	-0.0292412	0.0458944	0.00275811	0.000773361	0	0	0	
0.280667	0.0191687	-0.0576706	0.00284092	0.00130889	0	0	0	
0.280833	-0.0176837	-0.00460958	0.00214325	0.00130094	0	0	0	
0.281	0.0202606	0.0260685	0.00136395	0.00106957	0	0	0	
0.281167	0.0254241	-0.00880997	0.00111388	0.000656462	0	0	0	
0.281333	-0.0582285	-0.0142037	0.00125208	0.000446564	0	0	0	
0.2815	0.108429	0.0409475	0.00194254	0.000384604	0	0	0	
0.281667	-0.00968896	-0.0282107	0.00237614	0.000584993	0	0	0	
0.281833	-0.00683929	-0.0254945	0.00229714	0.000724963	0	0	0	
0.282	0.0246681	0.0178482	0.00168825	0.000767345	0	0	0	
0.282167	-0.0232857	0.0076179	0.00140576	0.000449235	0	0	0	
0.282333	-0.00133939	-0.0124395	0.00116301	0.000326516	0	0	0	
0.2825	0.00697057	-0.0062525	0.00100814	0.000195572	0	0	0	
0.282667	0.0186996	0.000754986	0.00117444	0.000331735	0	0	0	
0.282833	-0.0312172	0.022951	0.00144454	0.000514547	0	0	0	
0.283	0.0215448	-0.0449747	0.00143307	0.000790714	0	0	0	
0.283167	-0.0114817	0.0249242	0.00118266	0.000935673	0	0	0	
0.283333	0.0102364	0.0020257	0.00111139	0.000907757	0	0	0	
0.2835	-0.0198011	-0.00867005	0.00123165	0.000727645	0	0	0	
0.283667	0.0177592	-0.00908772	0.00127732	0.00058973	0	0	0	
0.283833	-0.0146408	0.0140513	0.00116367	0.000569029	0	0	0	
0.284	0.019128	-0.0223899	0.00110266	0.000541395	0	0	0	
0.284167	-0.0244445	0.0239451	0.00115673	0.000570007	0	0	0	
0.284333	0.0102013	-0.0185219	0.00117931	0.000526643	0	0	0	
0.2845	-0.00459432	0.0135922	0.00110389	0.000459259	0	0	0	
0.284667	0.016514	-0.0253358	0.00109882	0.000431991	0	0	0	
0.284833	-0.0257045	0.0326924	0.00117284	0.000559473	0	0	0	
0.285	0.020039	-0.0257507	0.00120741	0.000767677	0	0	0	
0.285167	-0.0182588	0.0104785	0.00115357	0.000768569	0	0	0	
0.285333	0.0246989	-0.000772239	0.00114546	0.000603684	0	0	0	
0.2855	-0.0249223	-0.00261408	0.00114535	0.000397584	0	0	0	
0.285667	0.0154164	-0.00227317	0.00107696	0.000262069	0	0	0	
0.285833	-0.0123706	-0.00147063	0.0010001	0.000230202	0	0	0	
0.286	0.0138041	0.000962821	0.00102014	0.00029514	0	0	0	
0.286167	-0.0159548	-0.0145344	0.00111628	0.000368242	0	0	0	
0.286333	0.0193363	0.0154859	0.00120636	0.000392145	0	0	0	
0.2865	-0.0247769	-0.0105104	0.00126946	0.000331031	0	0	0	
0.286667	0.0245298	0.00321587	0.00132819	0.000247932	0	0	0	
0.286833	-0.027939	-0.00203691	0.00134017	0.000194837	0	0	0	
0.287	0.0209561	-0.00118109	0.00128861	0.000223008	0	0	0	
0.287167	-0.0174825	-0.000409819	0.00121536	0.000282755	0	0	0	
0.287333	0.0228684	0.00411847	0.00118633	0.000328277	0	0	0	
0.2875	-0.0157337	-0.00236394	0.00114476	0.000327612	0	0	0	
0.287667	0.00667219	0.000273004	0.00106108	0.000287904	0	0	0	
0.287833	-0.0122698	0.0054295	0.00104508	0.00022204	0	0	0	
0.288	0.061419	0.00379076	0.00118793	0.000177522	0	0	0	
0.288167	-0.0706126	0.0106414	0.0018289	0.000338029	0	0	0	
0.288333	0.00627423	-0.0105737	0.00226286	0.000553049	0	0	0	
0.2885	-0.0299609	-0.00931039	0.00229015	0.000547473	0	0	0	
0.288667	0.0355047	0.0281216	0.00182136	0.00055285	0	0	0	
0.288833	-0.0312703	-0.0033845	0.00145883	0.000434553	0	0	0	
0.289	0.0155772	0.00580712	0.001342	0.000633318	0	0	0	
0.289167	-0.0332689	0.00187654	0.00124459	0.00062062	0	0	0	
0.289333	0.0277629	-0.0220317	0.00119062	0.000534684	0	0	0	
0.2895	-0.018056	0.0282794	0.00112198	0.000510442	0	0	0	
0.289667	0.00458089	-0.0100599	0.00105215	0.000531272	0	0	0	
0.289833	-0.00292106	-0.00437338	0.00102924	0.000710406	0	0	0	
0.29	0.0140133	0.0219183	0.00119121	0.000637682	0	0	0	
0.290167	-0.0310241	-0.0266524	0.0014109	0.000607979	0	0	0	
0.290333	0.0336838	0.0143072	0.00147685	0.000595595	0	0	0	
0.2905	-0.0249258	-0.0126874	0.00132863	0.000583367	0	0	0	
0.290667	0.0144974	0.00912159	0.00114338	0.000475417	0	0	0	
0.290833	-0.0149905	-0.00138986	0.00108537	0.000356777	0	0	0	
0.291	0.0152002	0.00250428	0.00114513	0.000335226	0	0	0	
0.291167	-0.0248961	-0.0106764	0.0012389	0.000357051	0	0	0	
0.291333	0.0342571	0.00975866	0.00133622	0.000346978	0	0	0	
0.2915	-0.0395815	-0.00514822	0.00137455	0.000262789	0	0	0	
0.291667	0.0280406	-0.00559602	0.00129756	0.000183502	0	0	0	
0.291833	-0.0119825	0.0366384	0.00110664	0.000236742	0	0	0	
0.292	0.00770535	-0.0413841	0.000983866	0.000460351	0	0	0	
0.292167	-0.0159339	0.0220112	0.00103562	0.000678514	0	0	0	
0.292333	0.0223613	0.00480675	0.0012209	0.000861554	0	0	0	
0.2925	-0.0292248	-0.0222197	0.00138761	0.000844373	0	0	0	
0.292667	0.031284	0.0219779	0.00144809	0.000722391	0	0	0	
0.292833	-0.0317006	0.00194178	0.00140532	0.000537529	0	0	0	
0.293	0.0302296	-0.0113492	0.00131906	0.000610029	0	0	0	
0.293167	-0.0247162	0.0158622	0.00122848	0.000766177	0	0	0	
0.293333	0.018277	-0.0123743	0.00116272	0.000734476	0	0	0	
0.2935	-0.0159542	-0.000396081	0.00114744	0.000528721	0	0	0	
0.293667	0.0178068	0.0139778	0.00118601	0.000408612	0	0	0	
0.293833	-0.0236926	-0.0241311	0.00124183	0.000478071	0	0	0	
0.294	0.0222935	0.0245019	0.00128153	0.000538248	0	0	0	
0.294167	-0.0225565	-0.0179818	0.00128563	0.000488344	0	0	0	
0.294333	0.0223629	0.0102136	0.00127212	0.000414041	0	0	0	
0.2945	-0.0198667	-0.00507973	0.00123007	0.000350815	0	0	0	
0.294667	0.0195377	0.00393061	0.00118523	0.00033671	0	0	0	
0.294833	-0.0236722	-0.000605979	0.00116919	0.00033596	0	0	0	
0.295	0.0249429	-0.00324564	0.00119869	0.000331501	0	0	0	
0.295167	-0.0264459	-0.00322816	0.00123595	0.000313253	0	0	0	
0.295333	0.0252734	0.00678132	0.00124851	0.000305416	0	0	0	
0.2955	-0.0244082	-0.00768535	0.00121232	0.000302296	0	0	0	
0.295667	0.0203485	0.0139971	0.00116839	0.000319411	0	0	0	
0.295833	-0.0197786	-0.0166838	0.00116469	0.000385135	0	0	0	
0.296	0.0280819	0.0194613	0.00122662	0.000442426	0	0	0	
0.296167	-0.0316991	-0.0176154	0.00127417	0.000483755	0	0	0	
0.296333	0.0217825	0.00755467	0.00123787	0.000471584	0	0	0	
0.2965	-0.0198359	-0.00444319	0.00116151	0.000473954	0	0	0	
0.296667	0.0252753	0.00849794	0.00116302	0.000526162	0	0	0	
0.296833	-0.0260311	-0.00498244	0.0012048	0.000607293	0	0	0	
0.297	0.0237548	0.00908105	0.00119917	0.000635902	0	0	0	
0.297167	-0.0220673	-0.0107345	0.00114893	0.00058533	0	0	0	
0.297333	0.0236881	0.0144955	0.00114395	0.000500399	0	0	0	
0.2975	-0.0258941	-0.00800925	0.00117988	0.000454376	0	0	0	
0.297667	0.0227643	0.00245002	0.00120482	0.000426551	0	0	0	
0.297833	-0.0261768	0.00520514	0.00122562	0.000425517	0	0	0	
0.298	0.0333196	-0.000369088	0.00127906	0.000430065	0	0	0	
0.298167	-0.0341262	-0.00652434	0.00130381	0.000428131	0	0	0	
0.298333	0.0285746	0.0112783	0.00124675	0.000387398	0	0	0	
0.2985	-0.0254022	-0.00610878	0.00114047	0.00034442	0	0	0	
0.298667	0.0229884	0.00804287	0.00109364	0.000327186	0	0	0	
0.298833	-0.0268963	-0.00258858	0.0011212	0.000354691	0	0	0	
0.299	0.0269838	8.78859E-05	0.00117641	0.000368894	0	0	0	
0.299167	-0.0249877	-0.00240699	0.00119185	0.00037633	0	0	0	
0.299333	0.0259452	0.00662724	0.00118781	0.000356904	0	0	0	
0.2995	-0.0288066	-0.0132685	0.00119079	0.000333966	0	0	0	
0.299667	0.0285277	0.0184765	0.00121216	0.000352954	0	0	0	
0.299833	-0.0286588	-0.00991505	0.00122197	0.000404083	0	0	0	
0.3	0.0278155	0.004455	0.00121394	0.000427256	0	0	0	
0.300167	-0.0280823	-0.00845286	0.00119015	0.000378989	0	0	0	
0.300333	0.0277963	0.00741532	0.00118767	0.000312452	0	0	0	
0.3005	-0.0306124	-0.0133446	0.00121097	0.000292764	0	0	0	
0.300667	0.0316555	0.0123982	0.00124911	0.000349296	0	0	0	
0.300833	-0.0320147	-0.00459904	0.00124908	0.000404236	0	0	0	
0.301	0.0313972	0.00464682	0.00119932	0.000425392	0	0	0	
0.301167	-0.0296606	-0.0126176	0.00112923	0.000381905	0	0	0	
0.301333	0.0256974	0.0119229	0.00109576	0.000352927	0	0	0	
0.3015	-0.0232223	-0.00951719	0.00110003	0.000360003	0	0	0	
0.301667	0.0231274	0.000414274	0.00112993	0.000394875	0	0	0	
0.301833	-0.0277183	-0.000541352	0.00117184	0.000394416	0	0	0	
0.302	0.0319519	0.00973657	0.00122321	0.000372661	0	0	0	
0.302167	-0.0343148	-0.0136772	0.00126386	0.000376076	0	0	0	
0.302333	0.0340219	0.0153976	0.00127468	0.00042505	0	0	0	
0.3025	-0.0333835	-0.0121524	0.00124281	0.000494837	0	0	0	
0.302667	0.031124	0.00312569	0.00118382	0.000474944	0	0	0	
0.302833	-0.0274417	-0.0069892	0.00113668	0.000351246	0	0	0	
0.303	0.0300573	0.0173465	0.00113262	0.00026775	0	0	0	
0.303167	-0.0310866	-0.0102172	0.00116182	0.000300473	0	0	0	
0.303333	0.0287632	0.000722129	0.00118977	0.000394729	0	0	0	
0.3035	-0.035511	-0.00117019	0.00123195	0.000418288	0	0	0	
0.303667	0.0422894	0.00537249	0.00129307	0.000373488	0	0	0	
0.303833	-0.0376743	-0.0113857	0.0012942	0.00034984	0	0	0	
0.304	0.0268374	0.018246	0.0011975	0.000378369	0	0	0	
0.304167	-0.0246074	-0.00682788	0.00109451	0.000418748	0	0	0	
0.304333	0.0314429	0.00186847	0.00111158	0.000391003	0	0	0	
0.3045	-0.0335597	-0.00761511	0.00119781	0.000324069	0	0	0	
0.304667	0.0302373	0.0128829	0.00124569	0.000278981	0	0	0	
0.304833	-0.0330294	-0.0121862	0.00123867	0.000305671	0	0	0	
0.305	0.0391576	0.00816603	0.00124131	0.000310637	0	0	0	
0.305167	-0.0363539	-0.000457638	0.0012377	0.000246623	0	0	0	
0.305333	0.0310617	9.2935E-07	0.00121287	0.000149608	0	0	0	
0.3055	-0.0341863	-0.00172242	0.00120079	0.000137482	0	0	0	
0.305667	0.0355455	0.0125671	0.00123014	0.000223738	0	0	0	
0.305833	-0.0351279	-0.0136864	0.00123797	0.000380319	0	0	0	
0.306	0.0328613	0.00876397	0.00120089	0.000477269	0	0	0	
0.306167	-0.0303652	-0.00979052	0.00115919	0.000467257	0	0	0	
0.306333	0.0301738	0.0136795	0.0011744	0.000376261	0	0	0	
0.3065	-0.0370752	-0.0116616	0.00122292	0.000313151	0	0	0	
0.306667	0.0388147	0.0130119	0.0012729	0.000310649	0	0	0	
0.306833	-0.0370825	-0.00279874	0.00125805	0.000382683	0	0	0	
0.307	0.0293314	-0.00276152	0.00118934	0.00040878	0	0	0	
0.307167	-0.02835	0.00253701	0.00111171	0.000383468	0	0	0	
0.307333	0.0295174	0.00653593	0.00111687	0.000301748	0	0	0	
0.3075	-0.0348978	-0.00735485	0.00115971	0.000276103	0	0	0	
0.307667	0.0336769	0.00499828	0.00120241	0.000303254	0	0	0	
0.307833	-0.0352568	-0.0053915	0.00120429	0.00033552	0	0	0	
0.308	0.0382265	0.00653829	0.00120238	0.000325895	0	0	0	
0.308167	-0.0369541	-0.00621333	0.00118193	0.000290297	0	0	0	
0.308333	0.0343865	0.0088971	0.00117202	0.000252215	0	0	0	
0.3085	-0.0386514	-0.0070805	0.0011847	0.000249422	0	0	0	
0.308667	0.037778	0.00629191	0.00121728	0.000277141	0	0	0	
0.308833	-0.0386301	-0.0089036	0.00122614	0.000319327	0	0	0	
0.309	0.0396612	0.0064997	0.0012195	0.000339011	0	0	0	
0.309167	-0.0385419	-0.00397073	0.0011948	0.000324039	0	0	0	
0.309333	0.0370248	0.00290491	0.00118125	0.000304023	0	0	0	
0.3095	-0.0386597	-0.010059	0.00119442	0.000311552	0	0	0	
0.309667	0.0404765	0.0158736	0.00121246	0.000348833	0	0	0	
0.309833	-0.032103	-0.0143425	0.00118514	0.000372189	0	0	0	
0.31	0.0237529	0.00790411	0.00112399	0.000348849	0	0	0	
0.310167	-0.0336961	-0.0109557	0.00114856	0.00034504	0	0	0	
0.310333	0.0431173	0.0119265	0.00131082	0.000393752	0	0	0	
0.3105	-0.0505765	-0.0166083	0.00147116	0.000439064	0	0	0	
0.310667	0.0489	0.0216062	0.0014596	0.000470517	0	0	0	
0.310833	-0.0367595	-0.0193197	0.00128872	0.000474867	0	0	0	
0.311	0.0306759	0.0123656	0.00110901	0.000448789	0	0	0	
0.311167	-0.0327659	-0.0127849	0.00105099	0.00037813	0	0	0	
0.311333	0.0249935	0.00583852	0.00106669	0.000313392	0	0	0	
0.3115	-0.0276756	-0.00709801	0.00111565	0.000321815	0	0	0	
0.311667	0.0443454	0.0100476	0.00121758	0.00041626	0	0	0	
0.311833	-0.0543961	-0.0129293	0.00133055	0.000512801	0	0	0	
0.312	0.0428489	0.0191014	0.00135536	0.000551337	0	0	0	
0.312167	-0.0327981	-0.0224281	0.00125475	0.000531199	0	0	0	
0.312333	0.0359525	0.0157175	0.00117091	0.000497513	0	0	0	
0.3125	-0.0396757	-0.0114956	0.00115964	0.000470968	0	0	0	
0.312667	0.0374437	0.00898096	0.00118244	0.000443728	0	0	0	
0.312833	-0.0388674	-0.00764062	0.00118032	0.00041326	0	0	0	
0.313	0.0407114	0.0133095	0.00118818	0.000417404	0	0	0	
0.313167	-0.0397799	-0.0145806	0.00119483	0.000440989	0	0	0	
0.313333	0.041497	0.0127499	0.00119478	0.000443622	0	0	0	
0.3135	-0.0431226	-0.0131153	0.00119386	0.000418932	0	0	0	
0.313667	0.0392397	0.00890196	0.00118944	0.000384721	0	0	0	
0.313833	-0.0372837	-0.0073518	0.00116167	0.000351326	0	0	0	
0.314	0.0374017	0.0126813	0.00114089	0.000330856	0	0	0	
0.314167	-0.0410126	-0.0133081	0.00115548	0.000320252	0	0	0	
0.314333	0.0422051	0.0162721	0.0011997	0.000345164	0	0	0	
0.3145	-0.0420257	-0.0148241	0.00121897	0.000399853	0	0	0	
0.314667	0.042736	0.0131695	0.00122407	0.000431952	0	0	0	
0.314833	-0.0438204	-0.0161405	0.00122447	0.000430039	0	0	0	
0.315	0.0420777	0.0169572	0.00122672	0.000419741	0	0	0	
0.315167	-0.0423862	-0.0141247	0.00120766	0.000402655	0	0	0	
0.315333	0.044061	0.014914	0.00119181	0.000389113	0	0	0	
0.3155	-0.0429506	-0.00930785	0.00118682	0.000362324	0	0	0	
0.315667	0.0430379	0.0086965	0.00119747	0.000343892	0	0	0	
0.315833	-0.041316	-0.00971066	0.00118284	0.000374023	0	0	0	
0.316	0.0372964	0.00928363	0.00113185	0.000425838	0	0	0	
0.316167	-0.0346883	-0.0158101	0.00106772	0.000461264	0	0	0	
0.316333	0.0377102	0.0202354	0.00106721	0.000460074	0	0	0	
0.3165	-0.0426656	-0.0144312	0.00114354	0.000447005	0	0	0	
0.316667	0.0477712	0.01084	0.0012446	0.000435124	0	0	0	
0.316833	-0.0502922	-0.0103555	0.00130786	0.000459483	0	0	0	
0.317	0.0528997	0.0159214	0.00131937	0.000516132	0	0	0	
0.317167	-0.0459593	-0.0404087	0.00127435	0.00058501	0	0	0	
0.317333	0.0181023	0.0374079	0.00113324	0.000720665	0	0	0	
0.3175	0.00382304	-0.000896486	0.000920482	0.000682241	0	0	0	
0.317667	0.0265727	0.0314558	0.000856261	0.000594629	0	0	0	
0.317833	-0.0455911	-0.0320408	0.000994034	0.000534003	0	0	0	
0.318	0.0491837	0.00150432	0.00119064	0.000542338	0	0	0	
0.318167	-0.0438227	-0.00289758	0.00126206	0.000611194	0	0	0	
0.318333	0.0432231	0.00859291	0.00120014	0.00064595	0	0	0	
0.3185	-0.0384177	0.00161134	0.00104639	0.000721167	0	0	0	
0.318667	0.0527475	0.0385594	0.00102421	0.000697926	0	0	0	
0.318833	-0.0439249	-0.0304215	0.001018	0.000743396	0	0	0	
0.319	0.0464219	0.00546046	0.00115	0.000744121	0	0	0	
0.319167	-0.0447851	-0.00728796	0.00118299	0.000697899	0	0	0	
0.319333	0.0420524	0.00828228	0.00119543	0.000466766	0	0	0	
0.3195	-0.03837	-0.00763152	0.00117801	0.000312781	0	0	0	
0.319667	0.0462736	0.0178261	0.00118435	0.000301417	0	0	0	
0.319833	-0.0522336	-0.0174434	0.00124219	0.000362332	0	0	0	
0.32	0.0489913	0.00992919	0.00128142	0.000387745	0	0	0	
0.320167	-0.0436419	-0.00923975	0.00123939	0.000371187	0	0	0	
0.320333	0.0430999	0.00088397	0.0011707	0.000282571	0	0	0	
0.3205	-0.0421377	-0.0058609	0.00113402	0.000203924	0	0	0	
0.320667	0.0476712	0.0168379	0.00116849	0.00022884	0	0	0	
0.320833	-0.0518097	-0.017229	0.00123501	0.000343932	0	0	0	
0.321	0.0500243	0.0154547	0.00128259	0.000439919	0	0	0	
0.321167	-0.046682	-0.0163657	0.00126889	0.000428	0	0	0	
0.321333	0.0458694	0.0120391	0.00122012	0.00033848	0	0	0	
0.3215	-0.0479522	-0.0116446	0.00119367	0.000264676	0	0	0	
0.321667	0.0490635	0.0157694	0.00121706	0.000271734	0	0	0	
0.321833	-0.0501876	-0.0165206	0.00123093	0.000319114	0	0	0	
0.322	0.0486267	0.0139675	0.00121991	0.000348297	0	0	0	
0.322167	-0.0487576	-0.0133352	0.00118986	0.000342538	0	0	0	
0.322333	0.0471761	0.0184067	0.00117438	0.000334605	0	0	0	
0.3225	-0.0481497	-0.0204068	0.00117734	0.000398082	0	0	0	
0.322667	0.0495283	0.0200982	0.00120749	0.000445179	0	0	0	
0.322833	-0.0515025	-0.018377	0.00123252	0.000458329	0	0	0	
0.323	0.0508384	0.0206991	0.00124614	0.000448971	0	0	0	
0.323167	-0.0531907	-0.0235148	0.0012475	0.000464954	0	0	0	
0.323333	0.0505171	0.0166005	0.00124925	0.000458743	0	0	0	
0.3235	-0.0443265	-0.00782707	0.00122071	0.000412775	0	0	0	
0.323667	0.0422224	0.0072194	0.00120058	0.000369869	0	0	0	
0.323833	-0.0547325	-0.0120253	0.00123947	0.000370008	0	0	0	
0.324	0.0601799	0.0098635	0.00131307	0.000375812	0	0	0	
0.324167	-0.0508547	0.00102981	0.00131253	0.000342822	0	0	0	
0.324333	0.0456168	-0.00816467	0.00123686	0.000333157	0	0	0	
0.3245	-0.049814	-0.00397509	0.0011947	0.000376567	0	0	0	
0.324667	0.0504791	0.0167992	0.00120413	0.000422532	0	0	0	
0.324833	-0.0462623	-0.0188857	0.00120395	0.000419294	0	0	0	
0.325	0.0490643	0.0136914	0.00119634	0.000372733	0	0	0	
0.325167	-0.0556959	-0.0108506	0.00122775	0.000320854	0	0	0	
0.325333	0.055666	0.00726558	0.00128169	0.000238947	0	0	0	
0.3255	-0.0483894	-0.0155918	0.00127126	0.000206	0	0	0	
0.325667	0.0448624	0.019752	0.00118976	0.000258368	0	0	0	
0.325833	-0.0447065	-0.0194317	0.00113213	0.000358764	0	0	0	
0.326	0.0462284	0.0128164	0.00112585	0.000416676	0	0	0	
0.326167	-0.0491086	-0.009755	0.00116876	0.000385066	0	0	0	
0.326333	0.0529545	0.0116922	0.00121505	0.000344484	0	0	0	
0.3265	-0.0553863	-0.019043	0.00125298	0.000333333	0	0	0	
0.326667	0.054185	0.0197098	0.00126762	0.000411143	0	0	0	
0.326833	-0.0535847	-0.0200208	0.00126045	0.000489854	0	0	0	
0.327	0.0527174	0.0149547	0.00123899	0.000532167	0	0	0	
0.327167	-0.0526738	-0.0096951	0.00121838	0.000462139	0	0	0	
0.327333	0.0511751	0.00815793	0.00120057	0.000356579	0	0	0	
0.3275	-0.0482601	-0.015275	0.00119007	0.000281324	0	0	0	
0.327667	0.0481396	0.0164964	0.00119359	0.000315328	0	0	0	
0.327833	-0.0519487	-0.0156239	0.00120574	0.000379212	0	0	0	
0.328	0.0542655	0.00897523	0.00122978	0.000406754	0	0	0	
0.328167	-0.0542351	-0.0130105	0.00124203	0.000357541	0	0	0	
0.328333	0.0529653	0.0181051	0.00123956	0.000341775	0	0	0	
0.3285	-0.0501952	-0.0251652	0.00121236	0.000373682	0	0	0	
0.328667	0.0505782	0.0174287	0.0011828	0.000443015	0	0	0	
0.328833	-0.0479225	-0.0115241	0.00116471	0.000436664	0	0	0	
0.329	0.0480932	0.00655016	0.00116013	0.00038071	0	0	0	
0.329167	-0.0515504	-0.00915315	0.00118017	0.000303103	0	0	0	
0.329333	0.0549351	0.0117555	0.00121301	0.000292286	0	0	0	
0.3295	-0.0545119	-0.0147481	0.001227	0.000323343	0	0	0	
0.329667	0.0501449	0.0178878	0.00122313	0.000375131	0	0	0	
0.329833	-0.0525814	-0.0179279	0.00120947	0.000389568	0	0	0	
0.33	0.056128	0.01242	0.00121429	0.000360376	0	0	0	
0.330167	-0.051048	-0.0029201	0.00119192	0.000300242	0	0	0	
0.330333	0.0457457	-0.00044181	0.00115525	0.000274514	0	0	0	
0.3305	-0.0524666	-0.00549226	0.00115558	0.000266685	0	0	0	
