0	7.56733E-05	-0.31414	7.56733E-09	3.1414E-05	0	5	0	
0.000166667	-0.000177007	-0.246315	1.09934E-05	0.00841485	0	5	0	
0.000333333	0.00351872	0.773309	3.12117E-05	0.0223087	0	5	0	
0.0005	-0.003856	-1.04869	6.42347E-05	0.0370631	0	5	0	
0.000666667	0.000457355	1.08749	0.000109509	0.0426351	0	5	0	
0.000833333	-0.000434859	-1.01935	0.000147875	0.0418268	0	5	0	
0.001	0.00329248	0.723037	0.000139625	0.0385889	0	5	0	
0.00116667	-0.0127221	0.00928186	0.000149933	0.035198	0	5	0	
0.00133333	0.00817279	-0.739907	0.000160318	0.0356112	0	5	0	
0.0015	-0.00391016	0.837609	0.000187751	0.041572	0	5	0	
0.00166667	0.0124961	-0.681808	0.00017657	0.0499474	0	5	0	
0.00183333	-0.0135309	0.680528	0.000193344	0.0548952	0	5	0	
0.002	0.000670088	-0.749412	0.000219332	0.0553876	0	5	0	
0.00216667	0.00329386	0.798355	0.000176943	0.0551031	0	5	0	
0.00233333	0.00521004	-0.70689	0.000243054	0.0560209	0	5	0	
0.0025	-0.0269711	0.68319	0.000350415	0.0576287	0	5	0	
0.00266667	0.0316554	-0.65662	0.000509557	0.0585903	0	5	0	
0.00283333	-0.0186212	0.647007	0.000535655	0.0590265	0	5	0	
0.003	0.013189	-0.607363	0.000491152	0.0591327	0	5	0	
0.00316667	-0.0112331	0.643636	0.000461342	0.059189	0	5	0	
0.00333333	-0.0105264	-0.58606	0.000405866	0.0590789	0	5	0	
0.0035	0.0181455	0.57626	0.00036236	0.0588291	0	5	0	
0.00366667	-0.00436036	-0.620314	0.000325565	0.0580443	0	5	0	
0.00383333	-0.0150096	0.727863	0.000365564	0.0571216	0	5	0	
0.004	0.0260402	-0.73799	0.00040569	0.0567924	0	5	0	
0.00416667	-0.0213479	0.73983	0.000460699	0.0575387	0	5	0	
0.00433333	-0.00133267	-0.67991	0.000387361	0.0583948	0	5	0	
0.0045	-0.000534166	0.696956	0.000306243	0.058611	0	5	0	
0.00466667	0.00918174	-0.722993	0.000176686	0.0580909	0	5	0	
0.00483333	-0.0117437	0.767489	0.000173173	0.0576841	0	5	0	
0.005	0.00448401	-0.749749	0.000230282	0.0576472	0	5	0	
0.00516667	-0.0043635	0.773215	0.000258424	0.0579107	0	5	0	
0.00533333	0.0136898	-0.762712	0.000223539	0.0579787	0	5	0	
0.0055	-0.01462	0.789085	0.000215276	0.05796	0	5	0	
0.00566667	0.000765876	-0.785659	0.000252866	0.0578652	0	5	0	
0.00583333	-0.00615797	0.813033	0.000241654	0.0579016	0	5	0	
0.006	0.0168023	-0.807728	0.000224285	0.0578713	0	5	0	
0.00616667	-0.017219	0.843622	0.000239821	0.057928	0	5	0	
0.00633333	0.00745001	-0.826341	0.000304248	0.0579163	0	5	0	
0.0065	-0.00474628	0.8512	0.00029017	0.0579773	0	5	0	
0.00666667	0.00622092	-0.846338	0.000218626	0.0579089	0	5	0	
0.00683333	-0.0101554	0.87684	0.000163009	0.0579235	0	5	0	
0.007	0.00450944	-0.871072	0.000159561	0.0578774	0	5	0	
0.00716667	-0.00459812	0.901546	0.000160708	0.0579511	0	5	0	
0.00733333	0.00929215	-0.885016	0.000159542	0.0579774	0	5	0	
0.0075	-0.00780303	0.902123	0.000147801	0.0580677	0	5	0	
0.00766667	0.000749051	-0.897696	0.000151586	0.0579464	0	5	0	
0.00783333	-0.000915295	0.937418	0.00011886	0.0578141	0	5	0	
0.008	0.0151995	-0.937834	0.000171452	0.057665	0	5	0	
0.00816667	-0.0210525	0.978024	0.000256004	0.0577358	0	5	0	
0.00833333	0.0175676	-0.988031	0.000367934	0.0578048	0	5	0	
0.0085	-0.00762998	1.00785	0.000358525	0.058055	0	5	0	
0.00866667	0.00679992	-0.963368	0.000302155	0.0582499	0	5	0	
0.00883333	-0.000795957	0.972386	0.000237883	0.0583472	0	5	0	
0.009	-0.00365991	-0.985583	0.000192705	0.0580866	0	5	0	
0.00916667	-0.000861178	1.02731	0.000138079	0.0578931	0	5	0	
0.00933333	0.0120268	-1.01533	0.000158139	0.0577529	0	5	0	
0.0095	-0.0116827	1.04949	0.000175993	0.0577758	0	5	0	
0.00966667	0.0112805	-1.03996	0.000234544	0.0576693	0	5	0	
0.00983333	-0.0127111	1.06428	0.00023763	0.0577751	0	5	0	
0.01	0.00629101	-1.05913	0.00024875	0.0578676	0	5	0	
0.0101667	-0.00224174	1.0966	0.000230842	0.058042	0	5	0	
0.0103333	0.000673809	-1.08481	0.000167785	0.0579864	0	5	0	
0.0105	-0.00382908	1.1078	0.000101539	0.0580066	0	5	0	
0.0106667	0.00768803	-1.10147	8.95051E-05	0.0579203	0	5	0	
0.0108333	-0.0089995	1.13181	0.000116292	0.0579793	0	5	0	
0.011	0.00982561	-1.12008	0.000169722	0.0579446	0	5	0	
0.0111667	-0.0122011	1.14302	0.000185565	0.0580423	0	5	0	
0.0113333	0.00995924	-1.13159	0.000225584	0.057957	0	5	0	
0.0115	-0.00554712	1.1602	0.000208472	0.0578962	0	5	0	
0.0116667	0.00571046	-1.16009	0.000189493	0.0577239	0	5	0	
0.0118333	-0.00946248	1.18808	0.000162798	0.0577839	0	5	0	
0.012	0.00999893	-1.18159	0.000161866	0.0578208	0	5	0	
0.0121667	-0.00645878	1.21116	0.000174472	0.0579539	0	5	0	
0.0123333	0.0044808	-1.20832	0.000171605	0.0579524	0	5	0	
0.0125	-0.00441182	1.2173	0.000146509	0.0580573	0	5	0	
0.0126667	0.00363117	-1.21061	0.000111556	0.0580134	0	5	0	
0.0128333	-0.00650543	1.24996	9.80486E-05	0.0580111	0	5	0	
0.013	0.00186831	-1.25368	9.3565E-05	0.0578992	0	5	0	
0.0131667	-0.00751732	1.27645	0.000118491	0.0580028	0	5	0	
0.0133333	0.0100864	-1.27086	0.000114342	0.0580317	0	5	0	
0.0135	-0.002505	1.28434	0.000136804	0.0581041	0	5	0	
0.0136667	0.000792738	-1.28534	0.000116676	0.0579906	0	5	0	
0.0138333	-0.00860871	1.31135	0.000118911	0.0580005	0	5	0	
0.014	0.00899944	-1.30219	0.000137565	0.0579553	0	5	0	
0.0141667	-0.0119606	1.32135	0.000179361	0.0580454	0	5	0	
0.0143333	0.0052247	-1.32631	0.000186959	0.0579711	0	5	0	
0.0145	-0.0051728	1.3442	0.000164637	0.0579872	0	5	0	
0.0146667	0.010062	-1.34638	0.000161407	0.0579572	0	5	0	
0.0148333	-0.00912277	1.3632	0.000183903	0.0580494	0	5	0	
0.015	0.00489226	-1.36493	0.000186526	0.0579604	0	5	0	
0.0151667	-0.00647402	1.40161	0.000158164	0.0579728	0	5	0	
0.0153333	0.00500029	-1.38744	0.000135121	0.0579706	0	5	0	
0.0155	-0.0132411	1.39085	0.000146112	0.0581561	0	5	0	
0.0156667	0.00909173	-1.39226	0.000184912	0.0580847	0	5	0	
0.0158333	-0.0068205	1.42137	0.000202388	0.0579917	0	5	0	
0.016	0.00811954	-1.41768	0.000201557	0.057813	0	5	0	
0.0161667	-0.0107138	1.43774	0.000188925	0.057888	0	5	0	
0.0163333	0.00804883	-1.43081	0.000189487	0.0578639	0	5	0	
0.0165	-0.00504566	1.45398	0.000180515	0.057921	0	5	0	
0.0166667	0.00747914	-1.464	0.000167618	0.057866	0	5	0	
0.0168333	-0.013138	1.4816	0.000168338	0.0580101	0	5	0	
0.017	0.0121751	-1.47006	0.000194296	0.0580388	0	5	0	
0.0171667	-0.0119728	1.49763	0.000226888	0.0581223	0	5	0	
0.0173333	0.0102707	-1.49596	0.000242608	0.0579993	0	5	0	
0.0175	-0.0033587	1.51561	0.000238222	0.0580561	0	5	0	
0.0176667	0.00200926	-1.51803	0.00018891	0.05807	0	5	0	
0.0178333	-0.00542741	1.53355	0.000147636	0.0582175	0	5	0	
0.018	0.013408	-1.52101	0.000145407	0.0581378	0	5	0	
0.0181667	-0.0136962	1.5324	0.0002025	0.0581156	0	5	0	
0.0183333	0.0116518	-1.53193	0.000240962	0.057934	0	5	0	
0.0185	-0.00428192	1.56773	0.000231629	0.0579029	0	5	0	
0.0186667	0.00346559	-1.56753	0.000172086	0.0577727	0	5	0	
0.0188333	-0.00835152	1.587	0.000146339	0.0577943	0	5	0	
0.019	0.00987548	-1.62439	0.000145279	0.0576959	0	5	0	
0.0191667	0.00415787	1.67076	0.000211272	0.0579695	0	5	0	
0.0193333	-0.0168051	-1.63245	0.000286673	0.0585074	0	5	0	
0.0195	0.0134695	1.59327	0.000312836	0.0590713	0	5	0	
0.0196667	0.0093965	-1.5902	0.000332819	0.0587754	0	5	0	
0.0198333	-0.0102988	1.63784	0.000266854	0.0581218	0	5	0	
0.02	-0.00445319	-1.659	0.000241764	0.057591	0	5	0	
0.0201667	0.0017472	1.70009	0.000189593	0.0576739	0	5	0	
0.0203333	0.00638949	-1.72681	0.000224529	0.0578049	0	5	0	
0.0205	-0.00342962	1.73386	0.000300298	0.0581484	0	5	0	
0.0206667	0.00453933	-1.69182	0.0003103	0.0583681	0	5	0	
0.0208333	-0.0113996	1.69412	0.000286948	0.058574	0	5	0	
0.021	0.0129248	-1.69417	0.000220527	0.0583354	0	5	0	
0.0211667	-0.0180458	1.71582	0.000267528	0.0581385	0	5	0	
0.0213333	0.00960978	-1.72593	0.000353181	0.0578642	0	5	0	
0.0215	0.00291488	1.74331	0.000413914	0.0578875	0	5	0	
0.0216667	0.00275111	-1.7338	0.000330683	0.0578848	0	5	0	
0.0218333	-0.0238306	1.7479	0.000326154	0.05801	0	5	0	
0.022	0.0189872	-1.76475	0.000334921	0.0579227	0	5	0	
0.0221667	-0.00586702	1.78867	0.000373047	0.0579717	0	5	0	
0.0223333	0.00149493	-1.79562	0.0002493	0.0579552	0	5	0	
0.0225	-0.011105	1.81443	0.000176722	0.0581246	0	5	0	
0.0226667	0.0114382	-1.81306	0.000186707	0.0581812	0	5	0	
0.0228333	-0.0107885	1.81125	0.000226526	0.0583555	0	5	0	
0.023	0.00719367	-1.81868	0.000225406	0.0582658	0	5	0	
0.0231667	-0.00645124	1.83744	0.000179825	0.0582499	0	5	0	
0.0233333	0.00610737	-1.82481	0.000150161	0.0580888	0	5	0	
0.0235	-0.00803195	1.82785	0.000138428	0.0580884	0	5	0	
0.0236667	0.0025752	-1.83602	0.000139355	0.0578488	0	5	0	
0.0238333	-0.00582421	1.86411	0.00012287	0.0578174	0	5	0	
0.024	0.00623395	-1.86627	0.000112213	0.0577695	0	5	0	
0.0241667	-0.00375455	1.87898	0.000104726	0.0580266	0	5	0	
0.0243333	0.00140178	-1.86826	9.92917E-05	0.0580494	0	5	0	
0.0245	-0.00300615	1.87489	9.39281E-05	0.0580716	0	5	0	
0.0246667	0.00647972	-1.89507	0.000118662	0.05782	0	5	0	
0.0248333	-0.0139453	1.92991	0.000161102	0.0577847	0	5	0	
0.025	0.015844	-1.93975	0.000224014	0.0578058	0	5	0	
0.0251667	-0.0130169	1.935	0.000255363	0.0581239	0	5	0	
0.0253333	0.00219593	-1.91647	0.000276795	0.0582351	0	5	0	
0.0255	0.0036644	1.92146	0.00019331	0.0582435	0	5	0	
0.0256667	0.00931541	-1.9425	0.000170912	0.0579796	0	5	0	
0.0258333	-0.0128959	1.94787	0.000150874	0.0578851	0	5	0	
0.026	0.00254457	-1.95627	0.000195388	0.05771	0	5	0	
0.0261667	-0.00901983	1.99725	0.000160465	0.0577318	0	5	0	
0.0263333	0.0101244	-2.01272	0.000154351	0.0577961	0	5	0	
0.0265	0.00144696	1.99244	0.000185768	0.058224	0	5	0	
0.0266667	-0.00377501	-1.98839	0.00018085	0.0584138	0	5	0	
0.0268333	-0.00755939	2.01603	0.000207501	0.0584093	0	5	0	
0.027	0.0135104	-2.05265	0.000194143	0.0582087	0	5	0	
0.0271667	-0.0107411	2.05678	0.000241587	0.0584458	0	5	0	
0.0273333	0.00829043	-2.0255	0.000215313	0.0586226	0	5	0	
0.0275	-0.0104275	2.02564	0.000202465	0.0586961	0	5	0	
0.0276667	0.000829422	-2.04088	0.000185645	0.0583287	0	5	0	
0.0278333	0.00103629	2.05405	0.000158909	0.0581081	0	5	0	
0.028	0.00576526	-2.09048	0.000120329	0.0578602	0	5	0	
0.0281667	-0.00848432	2.13106	0.000128681	0.057926	0	5	0	
0.0283333	0.0106284	-2.135	0.000156717	0.0580808	0	5	0	
0.0285	-0.01326	2.11935	0.000202103	0.0585179	0	5	0	
0.0286667	0.00626258	-2.10071	0.000202932	0.058629	0	5	0	
0.0288333	-0.0066817	2.10187	0.000180097	0.0585994	0	5	0	
0.029	0.00736732	-2.10427	0.000169221	0.0582543	0	5	0	
0.0291667	-0.0051287	2.11803	0.000132431	0.0581425	0	5	0	
0.0293333	0.0035265	-2.13104	0.000138063	0.0580494	0	5	0	
0.0295	-0.00520519	2.13884	0.000106692	0.0581518	0	5	0	
0.0296667	0.00609301	-2.15297	0.000148899	0.058136	0	5	0	
0.0298333	-0.0117122	2.15812	0.000167969	0.0582077	0	5	0	
0.03	0.0060415	-2.16939	0.000208093	0.0581548	0	5	0	
0.0301667	-0.00410429	2.18348	0.000166391	0.0582386	0	5	0	
0.0303333	0.00775079	-2.18931	0.000150384	0.0582139	0	5	0	
0.0305	-0.0107272	2.18811	0.000133857	0.0583193	0	5	0	
0.0306667	0.00591259	-2.20093	0.000172085	0.0582667	0	5	0	
0.0308333	-0.00625926	2.19851	0.000157773	0.0582871	0	5	0	
0.031	0.00426631	-2.21219	0.000173929	0.058165	0	5	0	
0.0311667	-0.0106042	2.2221	0.000169811	0.0582103	0	5	0	
0.0313333	0.0104794	-2.23	0.000200932	0.0581594	0	5	0	
0.0315	-0.00771109	2.23444	0.00019392	0.0582755	0	5	0	
0.0316667	0.00188669	-2.24818	0.000164788	0.0582325	0	5	0	
0.0318333	-0.0044102	2.24959	0.000118413	0.0583212	0	5	0	
0.032	0.00119199	-2.26429	9.47261E-05	0.058261	0	5	0	
0.0321667	-0.003463	2.2753	8.08904E-05	0.0583697	0	5	0	
0.0323333	0.00412977	-2.28006	0.000120943	0.0583304	0	5	0	
0.0325	-0.00790887	2.27856	0.00014702	0.0583686	0	5	0	
0.0326667	0.00740943	-2.29371	0.000170971	0.0581924	0	5	0	
0.0328333	-0.00764007	2.29434	0.000166986	0.0581984	0	5	0	
0.033	0.00670671	-2.3081	0.000152564	0.058131	0	5	0	
0.0331667	-0.0140315	2.31765	0.000170862	0.0582607	0	5	0	
0.0333333	0.00716972	-2.32499	0.000188051	0.0582461	0	5	0	
0.0335	-0.00305727	2.31521	0.000163264	0.0583045	0	5	0	
0.0336667	0.00719409	-2.33273	0.000137426	0.0581684	0	5	0	
0.0338333	-0.0120929	2.33879	0.000136458	0.0581662	0	5	0	
0.034	0.0110668	-2.35335	0.000171483	0.0581284	0	5	0	
0.0341667	-0.00523815	2.35219	0.000201197	0.0582883	0	5	0	
0.0343333	0.00215853	-2.36523	0.000159024	0.0582922	0	5	0	
0.0345	-0.00720734	2.3634	0.000149402	0.0583353	0	5	0	
0.0346667	0.00907681	-2.37134	0.000150655	0.0581632	0	5	0	
0.0348333	-0.00578645	2.37726	0.000169839	0.0581581	0	5	0	
0.035	0.0128797	-2.39445	0.000185702	0.0580792	0	5	0	
0.0351667	-0.0122494	2.40286	0.000219495	0.0582266	0	5	0	
0.0353333	0.0109889	-2.41738	0.000236124	0.0582422	0	5	0	
0.0355	-0.00468534	2.412	0.000221208	0.05834	0	5	0	
0.0356667	0.00352503	-2.42249	0.000154258	0.0582631	0	5	0	
0.0358333	-0.00185568	2.41905	0.000102585	0.0583409	0	5	0	
0.036	0.00483733	-2.42055	7.79736E-05	0.0582881	0	5	0	
0.0361667	-0.0104876	2.43232	0.00010469	0.0583215	0	5	0	
0.0363333	0.0140698	-2.45954	0.000179939	0.0581991	0	5	0	
0.0365	-0.00344713	2.44948	0.000204703	0.0583049	0	5	0	
0.0366667	-0.00526384	-2.44001	0.000171021	0.0583034	0	5	0	
0.0368333	-0.00496014	2.43736	0.000183277	0.0582232	0	5	0	
0.037	0.0176786	-2.49357	0.000272771	0.0579675	0	5	0	
0.0371667	-0.0174092	2.49883	0.000368202	0.0580356	0	5	0	
0.0373333	0.0106651	-2.48723	0.000396475	0.0581751	0	5	0	
0.0375	-0.0181851	2.50133	0.000390081	0.0583734	0	5	0	
0.0376667	0.0184073	-2.53696	0.000359778	0.0583298	0	5	0	
0.0378333	-0.00267355	2.50471	0.000363703	0.0584798	0	5	0	
0.038	-0.00941016	-2.50061	0.000293199	0.0584816	0	5	0	
0.0381667	0.00635012	2.50029	0.000251871	0.0583955	0	5	0	
0.0383333	-0.00578002	-2.52438	0.000224201	0.0580734	0	5	0	
0.0385	-0.00652542	2.51186	0.00030151	0.0580276	0	5	0	
0.0386667	0.0151518	-2.51318	0.000356244	0.057908	0	5	0	
0.0388333	-0.00690974	2.52417	0.000339389	0.0579422	0	5	0	
0.039	0.00579405	-2.55811	0.000245777	0.0578001	0	5	0	
0.0391667	-0.0161196	2.56231	0.00022526	0.0579349	0	5	0	
0.0393333	0.00915538	-2.56416	0.000219376	0.0579824	0	5	0	
0.0395	-1.27912E-05	2.55103	0.000209877	0.0581079	0	5	0	
0.0396667	0.00338923	-2.58098	0.000154811	0.0580767	0	5	0	
0.0398333	-0.007713	2.57541	0.000150669	0.058155	0	5	0	
0.04	0.00965565	-2.5787	0.000162294	0.0580751	0	5	0	
0.0401667	-0.00900957	2.57736	0.000195263	0.0580344	0	5	0	
0.0403333	0.00506809	-2.60276	0.000176584	0.0578567	0	5	0	
0.0405	-0.00687564	2.60791	0.000171548	0.0579224	0	5	0	
0.0406667	0.00925397	-2.62467	0.000157405	0.0580367	0	5	0	
0.0408333	-0.00479396	2.59221	0.000148354	0.0581583	0	5	0	
0.041	-0.000484244	-2.61942	0.000121256	0.0580599	0	5	0	
0.0411667	-6.3535E-05	2.62024	8.22472E-05	0.0579954	0	5	0	
0.0413333	0.00666782	-2.62928	8.96763E-05	0.0579248	0	5	0	
0.0415	-0.0165844	2.61303	0.000180092	0.0579729	0	5	0	
0.0416667	0.0157154	-2.63396	0.000267302	0.0578709	0	5	0	
0.0418333	0.0017089	2.6239	0.000270048	0.0578022	0	5	0	
0.042	-0.0172641	-2.66494	0.000220757	0.0576502	0	5	0	
0.0421667	0.0020441	2.67713	0.0003322	0.0577373	0	5	0	
0.0423333	0.0281097	-2.68456	0.000533745	0.0578858	0	5	0	
0.0425	-0.0215138	2.66077	0.000615256	0.0581221	0	5	0	
0.0426667	-0.0170194	-2.67304	0.000584799	0.0581081	0	5	0	
0.0428333	0.0175685	2.63973	0.000464277	0.0579354	0	5	0	
0.043	-0.000279138	-2.65565	0.000410428	0.0576581	0	5	0	
0.0431667	0.00630153	2.66642	0.000267734	0.0575299	0	5	0	
0.0433333	-0.0139316	-2.70215	0.000201514	0.0575037	0	5	0	
0.0435	-0.0018682	2.70866	0.000210566	0.0576989	0	5	0	
0.0436667	0.0193397	-2.7233	0.000312489	0.0579196	0	5	0	
0.0438333	-0.0174747	2.68113	0.000339962	0.0581001	0	5	0	
0.044	-0.00183199	-2.70565	0.000351257	0.0580267	0	5	0	
0.0441667	0.000532442	2.72322	0.000254559	0.0579268	0	5	0	
0.0443333	0.0102793	-2.74373	0.000273231	0.057923	0	5	0	
0.0445	-0.0134396	2.72533	0.000251162	0.0580514	0	5	0	
0.0446667	0.0106683	-2.75267	0.000282271	0.0580701	0	5	0	
0.0448333	0.000119229	2.73021	0.000197047	0.058027	0	5	0	
0.045	-0.00232978	-2.742	0.000126106	0.0578755	0	5	0	
0.0451667	-0.00711143	2.74435	9.91894E-05	0.0578498	0	5	0	
0.0453333	0.00746923	-2.77351	0.00015131	0.0578378	0	5	0	
0.0455	-0.00998323	2.76433	0.000201655	0.057983	0	5	0	
0.0456667	0.0104083	-2.77632	0.000215878	0.0580265	0	5	0	
0.0458333	-0.00250046	2.74719	0.000180335	0.0580516	0	5	0	
0.046	0.00455976	-2.76979	0.000163697	0.0579262	0	5	0	
0.0461667	-0.0125515	2.76661	0.000185145	0.0578788	0	5	0	
0.0463333	0.0154437	-2.79257	0.000240048	0.0577988	0	5	0	
0.0465	-0.0119976	2.79814	0.000266963	0.0579254	0	5	0	
0.0466667	0.00336162	-2.823	0.000238465	0.0580517	0	5	0	
0.0468333	0.00146448	2.79605	0.000147406	0.0582423	0	5	0	
0.047	0.00232427	-2.81723	0.000118814	0.0582108	0	5	0	
0.0471667	-0.00435339	2.80985	0.00013091	0.0581733	0	5	0	
0.0473333	0.00943331	-2.82024	0.000206825	0.0580728	0	5	0	
0.0475	-0.0162496	2.81943	0.000275957	0.0581251	0	5	0	
0.0476667	0.0166842	-2.85117	0.000311037	0.0581662	0	5	0	
0.0478333	-0.00708052	2.82102	0.000282064	0.0582167	0	5	0	
0.048	0.00280284	-2.83037	0.000216629	0.0581208	0	5	0	
0.0481667	-0.00273478	2.82597	0.000151385	0.0580066	0	5	0	
0.0483333	0.00442843	-2.85817	0.000130651	0.0579352	0	5	0	
0.0485	-0.00406899	2.85988	0.000128081	0.0580591	0	5	0	
0.0486667	0.00933977	-2.87946	0.000149582	0.0581945	0	5	0	
0.0488333	-0.00974197	2.85155	0.000179575	0.0582748	0	5	0	
0.049	0.00685759	-2.88024	0.000180794	0.0582604	0	5	0	
0.0491667	-0.000244844	2.8697	0.000145262	0.0582645	0	5	0	
0.0493333	0.000492079	-2.88745	0.000110897	0.0583005	0	5	0	
0.0495	-0.00542643	2.87698	0.000136859	0.0583021	0	5	0	
0.0496667	0.0125244	-2.90379	0.000189996	0.0582518	0	5	0	
0.0498333	-0.0102412	2.86442	0.000233697	0.0582146	0	5	0	
0.05	0.00586714	-2.87569	0.000203644	0.0580772	0	5	0	
0.0501667	-0.00699606	2.88534	0.000180816	0.0579491	0	5	0	
0.0503333	0.00941165	-2.92959	0.000157525	0.0579348	0	5	0	
0.0505	-0.0112718	2.89869	0.000185297	0.0580997	0	5	0	
0.0506667	0.0114023	-2.907	0.000200664	0.0581635	0	5	0	
0.0508333	-0.00478027	2.89082	0.000191813	0.0581142	0	5	0	
0.051	0.00273386	-2.9143	0.000148331	0.0579944	0	5	0	
0.0511667	-0.00598986	2.9	0.000140719	0.0580064	0	5	0	
0.0513333	0.0122213	-2.91625	0.000180999	0.0579509	0	5	0	
0.0515	-0.0099745	2.91502	0.000232805	0.0579512	0	5	0	
0.0516667	0.00367134	-2.94372	0.00021251	0.0579432	0	5	0	
0.0518333	-0.0061396	2.92628	0.000175916	0.0581166	0	5	0	
0.052	0.0104114	-2.93787	0.000160093	0.0581737	0	5	0	
0.0521667	-0.00401156	2.92361	0.000148289	0.058189	0	5	0	
0.0523333	-0.00053391	-2.94062	0.000128035	0.0580474	0	5	0	
0.0525	2.9244E-05	2.9392	0.000129093	0.058043	0	5	0	
0.0526667	0.00873502	-2.96378	0.00019657	0.0580848	0	5	0	
0.0528333	-0.0113595	2.9436	0.000247192	0.0581928	0	5	0	
0.053	0.00780096	-2.95035	0.000258153	0.0581658	0	5	0	
0.0531667	-0.0146056	2.95154	0.00023202	0.0581151	0	5	0	
0.0533333	0.0168252	-3.00925	0.000260209	0.058177	0	5	0	
0.0535	-0.00311299	3.00292	0.00025218	0.0584603	0	5	0	
0.0536667	-0.0109082	-2.96653	0.000277355	0.058679	0	5	0	
0.0538333	0.014553	2.89647	0.000250189	0.0584393	0	5	0	
0.054	2.3424E-07	-2.95529	0.000313329	0.0579172	0	5	0	
0.0541667	-0.00512896	2.98115	0.000353085	0.0576522	0	5	0	
0.0543333	0.0124833	-3.00002	0.000387577	0.0578427	0	5	0	
0.0545	-0.0128231	2.99563	0.000375808	0.0581906	0	5	0	
0.0546667	0.0155537	-3.05017	0.000328953	0.0584673	0	5	0	
0.0548333	-0.00763589	3.00506	0.000280665	0.0586926	0	5	0	
0.055	0.00276133	-2.99521	0.000213243	0.0587315	0	5	0	
0.0551667	0.00424664	2.96941	0.000153218	0.0585258	0	5	0	
0.0553333	0.00268053	-3.00396	0.000148601	0.0581692	0	5	0	
0.0555	-0.00882939	3.00918	0.000172712	0.0581168	0	5	0	
0.0556667	0.00906243	-3.04256	0.000197977	0.058255	0	5	0	
0.0558333	0.00305981	3.00204	0.0001637	0.0584575	0	5	0	
0.056	0.00352596	-3.00952	0.000178656	0.0584169	0	5	0	
0.0561667	-0.0110096	2.99498	0.000255096	0.0582617	0	5	0	
0.0563333	0.00734033	-3.03756	0.000284914	0.0581529	0	5	0	
0.0565	-0.00300298	3.03977	0.000240979	0.058291	0	5	0	
0.0566667	0.00562672	-3.06666	0.000179265	0.0585329	0	5	0	
0.0568333	-0.00329947	3.01173	0.000180279	0.0586297	0	5	0	
0.057	0.00255625	-3.03462	0.000182405	0.0585033	0	5	0	
0.0571667	-0.00763801	3.03364	0.000208065	0.0583416	0	5	0	
0.0573333	0.0119695	-3.06658	0.000241847	0.0583599	0	5	0	
0.0575	-0.00883348	3.03409	0.000272259	0.0584851	0	5	0	
0.0576667	0.00345378	-3.04951	0.000217273	0.0584939	0	5	0	
0.0578333	-0.00501866	3.01582	0.000152787	0.058327	0	5	0	
0.058	0.0035903	-3.05839	0.000110842	0.0581643	0	5	0	
0.0581667	-0.00503279	3.04509	0.000132381	0.0581818	0	5	0	
0.0583333	0.00815441	-3.06487	0.000190554	0.0583114	0	5	0	
0.0585	-0.00892041	3.05213	0.000238389	0.0584333	0	5	0	
0.0586667	0.00619238	-3.08697	0.000244352	0.0584704	0	5	0	
0.0588333	-0.0112322	3.05176	0.000221529	0.0585158	0	5	0	
0.059	0.0129779	-3.06672	0.000194957	0.0585122	0	5	0	
0.0591667	0.00206045	3.04671	0.00018133	0.0584589	0	5	0	
0.0593333	-0.00904458	-3.07072	0.000141794	0.0583482	0	5	0	
0.0595	0.00320475	3.05196	0.000192898	0.0583006	0	5	0	
0.0596667	0.00775861	-3.09754	0.00028312	0.0583483	0	5	0	
0.0598333	-0.00983899	3.09407	0.000352188	0.0585299	0	5	0	
0.06	0.0120573	-3.10877	0.000338484	0.0587386	0	5	0	
0.0601667	-0.0154938	3.06072	0.000314915	0.0587797	0	5	0	
0.0603333	0.0125407	-3.07786	0.000302257	0.0585946	0	5	0	
0.0605	0.000545021	3.06589	0.000232316	0.0583879	0	5	0	
0.0606667	0.00319352	-3.08031	0.000157054	0.0583008	0	5	0	
0.0608333	-0.00875088	3.0638	0.000151226	0.0582977	0	5	0	
0.061	0.00253531	-3.11753	0.00018747	0.0583734	0	5	0	
0.0611667	-0.00400504	3.09953	0.000193361	0.0585155	0	5	0	
0.0613333	0.00438273	-3.09525	0.000179912	0.058628	0	5	0	
0.0615	-0.0019385	3.07315	0.000149413	0.0585727	0	5	0	
0.0616667	-0.00312622	-3.11075	0.000114681	0.0584944	0	5	0	
0.0618333	0.000624288	3.08536	0.000123092	0.0584843	0	5	0	
0.062	0.00582386	-3.09642	0.000204411	0.0584924	0	5	0	
0.0621667	-0.00833967	3.07548	0.000256785	0.0583849	0	5	0	
0.0623333	0.000824876	-3.09232	0.000235323	0.0582868	0	5	0	
0.0625	-0.00934862	3.07804	0.000208081	0.0582345	0	5	0	
0.0626667	0.014358	-3.10918	0.000246479	0.0582986	0	5	0	
0.0628333	-0.0113538	3.08891	0.000275613	0.0583553	0	5	0	
0.063	-0.00047644	-3.11876	0.00023435	0.0584526	0	5	0	
0.0631667	0.00156372	3.10742	0.000155542	0.0585278	0	5	0	
0.0633333	0.00241219	-3.12295	0.000153441	0.0586507	0	5	0	
0.0635	-0.00547767	3.09256	0.000170793	0.0586284	0	5	0	
0.0636667	0.00678814	-3.11625	0.000209851	0.0586077	0	5	0	
0.0638333	-0.00838807	3.0922	0.000211964	0.0584811	0	5	0	
0.064	0.00879713	-3.12794	0.00020509	0.0585273	0	5	0	
0.0641667	-0.00294371	3.10822	0.000178126	0.0585554	0	5	0	
0.0643333	-0.00322103	-3.12267	0.000120117	0.0586199	0	5	0	
0.0645	-0.00279942	3.10137	0.000147159	0.0585848	0	5	0	
0.0646667	0.0121402	-3.1368	0.000212573	0.0586028	0	5	0	
0.0648333	-0.0107125	3.09824	0.0002719	0.0585911	0	5	0	
0.065	0.00736038	-3.11748	0.000253122	0.0585885	0	5	0	
0.0651667	-0.0148808	3.09369	0.000219332	0.0584885	0	5	0	
0.0653333	0.00664611	-3.11666	0.000222887	0.0584005	0	5	0	
0.0655	-0.000109438	3.11163	0.00017238	0.0584118	0	5	0	
0.0656667	0.00203935	-3.14004	0.000134277	0.0585136	0	5	0	
0.0658333	-0.00596673	3.11611	0.000132828	0.058689	0	5	0	
0.066	0.00626587	-3.13658	0.000208906	0.0587651	0	5	0	
0.0661667	-0.0114253	3.1117	0.000255176	0.0587318	0	5	0	
0.0663333	0.00524395	-3.11386	0.000270918	0.0586141	0	5	0	
0.0665	-0.0070404	3.10061	0.000223699	0.0584852	0	5	0	
0.0666667	0.00426741	-3.12975	0.000189102	0.0584543	0	5	0	
0.0668333	0.00142406	3.11166	0.000108652	0.0584973	0	5	0	
0.067	-0.00117244	-3.1281	0.000122388	0.0585831	0	5	0	
0.0671667	-0.00362839	3.11259	0.000173326	0.0585905	0	5	0	
0.0673333	0.00893975	-3.1282	0.00026042	0.0586256	0	5	0	
0.0675	-0.00851173	3.10949	0.000280324	0.0585957	0	5	0	
0.0676667	0.0115362	-3.13339	0.000253541	0.0586281	0	5	0	
0.0678333	-0.00888288	3.11255	0.000219019	0.0585812	0	5	0	
0.068	0.00585558	-3.13593	0.000207112	0.0586645	0	5	0	
0.0681667	0.000866629	3.11279	0.000154262	0.0586606	0	5	0	
0.0683333	-0.00253806	-3.12155	0.000136792	0.05867	0	5	0	
0.0685	-0.00427093	3.10041	0.000201618	0.0585422	0	5	0	
0.0686667	0.0140042	-3.1338	0.000282084	0.0585422	0	5	0	
0.0688333	-0.00323488	3.11041	0.000287891	0.058555	0	5	0	
0.069	0.000904355	-3.12881	0.000200741	0.0586478	0	5	0	
0.0691667	-0.00428075	3.10302	0.000180722	0.0586099	0	5	0	
0.0693333	0.00410138	-3.12509	0.000150615	0.0585818	0	5	0	
0.0695	0.00648137	3.11823	0.000130721	0.0585852	0	5	0	
0.0696667	-0.00175816	-3.14937	0.00013614	0.0587756	0	5	0	
0.0698333	-0.0121649	3.12435	0.000240943	0.0589112	0	5	0	
0.07	0.0131613	-3.14132	0.000319944	0.0589758	0	5	0	
0.0701667	0.000589509	3.09871	0.000265696	0.0588409	0	5	0	
0.0703333	-0.00685961	-3.10603	0.000161283	0.058703	0	5	0	
0.0705	0.00601422	3.11992	0.000103704	0.05864	0	5	0	
0.0706667	0.00204158	-3.15682	0.000129772	0.0587996	0	5	0	
0.0708333	-0.0171945	3.09464	0.000168945	0.0588566	0	5	0	
0.071	0.0173395	-3.10031	0.000234951	0.0587555	0	5	0	
0.0711667	0.00122157	3.09826	0.000331256	0.0585197	0	5	0	
0.0713333	-0.0122652	-3.10754	0.000369629	0.0584981	0	5	0	
0.0715	-0.00180364	3.07995	0.000314072	0.0584828	0	5	0	
0.0716667	0.0147365	-3.13109	0.000255333	0.0585545	0	5	0	
0.0718333	-0.0127895	3.12526	0.000231816	0.0586849	0	5	0	
0.072	0.0199382	-3.14054	0.000309582	0.0589455	0	5	0	
0.0721667	-0.034055	3.09965	0.000414245	0.0589843	0	5	0	
0.0723333	0.0218175	-3.08485	0.000487894	0.0588054	0	5	0	
0.0725	0.00256163	3.04959	0.00054662	0.0584308	0	5	0	
0.0726667	-0.0125015	-3.10403	0.000460512	0.0582786	0	5	0	
0.0728333	0.00601964	3.11833	0.000381829	0.0584131	0	5	0	
0.073	0.00844213	-3.13307	0.000337051	0.0587856	0	5	0	
0.0731667	-0.0100192	3.08574	0.000357881	0.0589355	0	5	0	
0.0733333	0.003144	-3.10645	0.000342535	0.0589047	0	5	0	
0.0735	-0.00352027	3.09815	0.00021226	0.0587785	0	5	0	
0.0736667	0.0084522	-3.09908	0.000145911	0.0587818	0	5	0	
0.0738333	-0.0110493	3.06073	0.000178802	0.0586143	0	5	0	
0.074	0.00742559	-3.09444	0.000208215	0.0585648	0	5	0	
0.0741667	0.00536345	3.08164	0.000170451	0.0585581	0	5	0	
0.0743333	-0.00310911	-3.09706	0.000125509	0.0587215	0	5	0	
0.0745	-0.0089408	3.07765	0.000173677	0.0587285	0	5	0	
0.0746667	0.0106462	-3.08622	0.00023819	0.0587378	0	5	0	
0.0748333	-0.00411515	3.06885	0.000240447	0.0586336	0	5	0	
0.075	0.00180627	-3.09355	0.000183936	0.058722	0	5	0	
0.0751667	0.000950717	3.06164	0.000158106	0.0586687	0	5	0	
0.0753333	0.00275351	-3.07612	0.000185373	0.0587176	0	5	0	
0.0755	-0.000221464	3.07568	0.000218814	0.0586574	0	5	0	
0.0756667	0.0022287	-3.08841	0.000222138	0.0587695	0	5	0	
0.0758333	-0.000520073	3.05701	0.000207766	0.0587335	0	5	0	
0.076	-0.00255799	-3.04707	0.000156736	0.0586618	0	5	0	
0.0761667	0.0130574	3.01265	0.000142537	0.0583427	0	5	0	
0.0763333	-0.00139108	-3.05506	0.000189469	0.0583233	0	5	0	
0.0765	-0.0124728	3.07394	0.000316172	0.0584401	0	5	0	
0.0766667	0.00788248	-3.09692	0.00032239	0.0588524	0	5	0	
0.0768333	0.0118206	3.05701	0.000276503	0.0589876	0	5	0	
0.077	0.00235296	-3.05976	0.000252733	0.0589954	0	5	0	
0.0771667	-0.0170291	3.02389	0.000358701	0.0587073	0	5	0	
0.0773333	0.00592051	-3.01839	0.00034092	0.0584951	0	5	0	
0.0775	0.00152271	3.00577	0.000247335	0.0582596	0	5	0	
0.0776667	0.0141392	-3.05977	0.000217278	0.0584244	0	5	0	
0.0778333	-0.0154843	3.057	0.000276191	0.0587229	0	5	0	
0.078	-0.00353309	-3.05437	0.000313331	0.0590297	0	5	0	
0.0781667	0.00928698	3.00358	0.000214908	0.0588883	0	5	0	
0.0783333	-0.000400274	-3.01036	0.000240382	0.0586062	0	5	0	
0.0785	-0.00908923	2.99821	0.000296881	0.0583839	0	5	0	
0.0786667	0.00655602	-3.02346	0.000350134	0.0584771	0	5	0	
0.0788333	-0.00900208	3.02354	0.00029223	0.0586108	0	5	0	
0.079	0.00348592	-3.03758	0.00021955	0.0587776	0	5	0	
0.0791667	0.00177032	2.99931	0.000152615	0.0587475	0	5	0	
0.0793333	-0.00166507	-2.9997	0.000151667	0.0586683	0	5	0	
0.0795	-0.00583397	2.98078	0.000206986	0.0584719	0	5	0	
0.0796667	0.00649295	-2.99307	0.000251866	0.0584046	0	5	0	
0.0798333	-0.00576527	2.97747	0.0002393	0.0583478	0	5	0	
0.08	0.00563154	-3.00175	0.00020862	0.0584922	0	5	0	
0.0801667	-0.00275926	2.9874	0.000182922	0.0585884	0	5	0	
0.0803333	-0.00309187	-2.9969	0.000127023	0.0587409	0	5	0	
0.0805	0.00545503	2.97946	8.71888E-05	0.0586732	0	5	0	
0.0806667	0.000607501	-2.99231	0.000120111	0.0586762	0	5	0	
0.0808333	-0.00326528	2.96752	0.000187755	0.0586184	0	5	0	
0.081	0.00456749	-2.98066	0.000214948	0.058665	0	5	0	
0.0811667	-0.00446489	2.95839	0.000214115	0.0585602	0	5	0	
0.0813333	0.00809579	-2.96834	0.000195956	0.0585762	0	5	0	
0.0815	-0.00220541	2.95426	0.000168745	0.0585069	0	5	0	
0.0816667	-0.00314823	-2.97165	0.000114961	0.0586302	0	5	0	
0.0818333	0.00557042	2.95472	9.72691E-05	0.0586565	0	5	0	
0.082	0.0018428	-2.96715	0.000158194	0.0587539	0	5	0	
0.0821667	-0.00839477	2.94533	0.00025392	0.0586834	0	5	0	
0.0823333	0.00745918	-2.95437	0.000298005	0.0587099	0	5	0	
0.0825	-0.00567572	2.93421	0.000253518	0.0586348	0	5	0	
0.0826667	0.00140896	-2.94198	0.000148976	0.0586756	0	5	0	
0.0828333	0.00432812	2.91574	9.04508E-05	0.0585335	0	5	0	
0.083	-0.00102626	-2.93152	8.08994E-05	0.0585525	0	5	0	
0.0831667	0.000709316	2.91702	0.000123609	0.0585107	0	5	0	
0.0833333	-0.00174954	-2.92937	0.000188616	0.0586458	0	5	0	
0.0835	-0.00654923	2.91282	0.000243669	0.0586312	0	5	0	
0.0836667	0.00535134	-2.91817	0.000243491	0.0586855	0	5	0	
0.0838333	0.00296413	2.89201	0.000177379	0.0585548	0	5	0	
0.084	-0.0026603	-2.90449	0.000123297	0.0585452	0	5	0	
0.0841667	-0.000651799	2.88438	0.000156899	0.0584368	0	5	0	
0.0843333	0.00132256	-2.8931	0.000211603	0.0585037	0	5	0	
0.0845	-0.000746867	2.88638	0.000207146	0.058486	0	5	0	
0.0846667	0.000845042	-2.89282	0.000170048	0.0585939	0	5	0	
0.0848333	-0.00621058	2.87403	0.000174646	0.0585762	0	5	0	
0.085	0.00349103	-2.88853	0.000196447	0.0586549	0	5	0	
0.0851667	-0.000309903	2.87225	0.000180684	0.058618	0	5	0	
0.0853333	0.00331812	-2.86735	0.000175396	0.0586875	0	5	0	
0.0855	-0.00256509	2.85356	0.00018696	0.0585911	0	5	0	
0.0856667	-0.00113792	-2.86074	0.000181846	0.0586105	0	5	0	
0.0858333	-0.00231367	2.8482	0.000183803	0.0585338	0	5	0	
0.086	0.0206253	-2.85834	0.000242414	0.0586457	0	5	0	
0.0861667	-0.017749	2.84065	0.000321776	0.0586024	0	5	0	
0.0863333	-0.00358199	-2.84168	0.000372499	0.0586501	0	5	0	
0.0865	0.00439007	2.82366	0.000278867	0.0585241	0	5	0	
0.0866667	0.00721555	-2.83047	0.000285277	0.0585627	0	5	0	
0.0868333	-0.00556137	2.81755	0.000284851	0.0585119	0	5	0	
0.087	0.00776098	-2.83409	0.000419654	0.058646	0	5	0	
0.0871667	-0.0212351	2.82014	0.000545994	0.0585978	0	5	0	
0.0873333	0.0272227	-2.81919	0.000601682	0.0586488	0	5	0	
0.0875	-0.0153296	2.79337	0.00056475	0.0585372	0	5	0	
0.0876667	0.00424421	-2.82011	0.000394236	0.0586995	0	5	0	
0.0878333	-0.00318714	2.83826	0.000271206	0.058868	0	5	0	
0.088	-0.00611597	-2.81776	0.000175619	0.0590316	0	5	0	
0.0881667	0.00309119	2.76003	0.000171197	0.0587048	0	5	0	
0.0883333	0.015421	-2.77981	0.00021522	0.058449	0	5	0	
0.0885	-0.00101058	2.75671	0.000213306	0.0582576	0	5	0	
0.0886667	-0.0208984	-2.73402	0.000207096	0.0582781	0	5	0	
0.0888333	0.00641459	2.72234	0.000277873	0.0581763	0	5	0	
0.089	0.0233699	-2.78848	0.000494826	0.0584377	0	5	0	
0.0891667	-0.0181644	2.80035	0.000543768	0.0588487	0	5	0	
0.0893333	-0.00473188	-2.78532	0.000465293	0.059165	0	5	0	
0.0895	0.00772604	2.73386	0.000293159	0.0588981	0	5	0	
0.0896667	0.0018645	-2.7367	0.00025279	0.0584942	0	5	0	
0.0898333	-0.000456998	2.70997	0.00018959	0.0581267	0	5	0	
0.09	-0.0022291	-2.71259	0.000119435	0.0579829	0	5	0	
0.0901667	-0.00872745	2.69178	0.000131483	0.0579231	0	5	0	
0.0903333	0.0119735	-2.71148	0.000181193	0.0580733	0	5	0	
0.0905	-0.00651804	2.71427	0.000222363	0.0582556	0	5	0	
0.0906667	-0.00529069	-2.72171	0.000172079	0.0585281	0	5	0	
0.0908333	0.00344644	2.71303	0.000132516	0.0585999	0	5	0	
0.091	0.00813612	-2.72729	0.00022179	0.0587811	0	5	0	
0.0911667	-0.0156691	2.71631	0.000292078	0.0587967	0	5	0	
0.0913333	0.00649916	-2.70263	0.00032334	0.0588836	0	5	0	
0.0915	0.0133055	2.66987	0.000227893	0.0586468	0	5	0	
0.0916667	-0.00905582	-2.66552	0.000227055	0.0585095	0	5	0	
0.0918333	0.000217171	2.64662	0.000283601	0.0582598	0	5	0	
0.092	0.00211559	-2.65074	0.000332795	0.0583621	0	5	0	
0.0921667	-0.000535823	2.65546	0.00030621	0.0584366	0	5	0	
0.0923333	0.00557218	-2.67367	0.000257448	0.0588043	0	5	0	
0.0925	-0.00431677	2.65972	0.000225816	0.0588801	0	5	0	
0.0926667	0.000482391	-2.65154	0.000167726	0.0589565	0	5	0	
0.0928333	0.0081102	2.63302	9.53341E-05	0.0587402	0	5	0	
0.093	-0.00313189	-2.63372	0.000110947	0.0586976	0	5	0	
0.0931667	-0.00803559	2.60674	0.00021066	0.0585489	0	5	0	
0.0933333	0.00444664	-2.59773	0.000241781	0.0585032	0	5	0	
0.0935	0.011254	2.60539	0.000219226	0.0583774	0	5	0	
0.0936667	-0.0114621	-2.61098	0.000170796	0.0585311	0	5	0	
0.0938333	-0.00103591	2.58388	0.000251519	0.0585563	0	5	0	
0.094	0.00363134	-2.58944	0.000275593	0.0586725	0	5	0	
0.0941667	0.00314313	2.60159	0.00021959	0.0586928	0	5	0	
0.0943333	-0.00398752	-2.60526	0.000154246	0.0588829	0	5	0	
0.0945	-0.00634617	2.58312	0.000164444	0.0588149	0	5	0	
0.0946667	0.0053562	-2.55349	0.000185477	0.0587588	0	5	0	
0.0948333	0.00259206	2.54269	0.000149675	0.0585567	0	5	0	
0.095	0.00196671	-2.54749	0.000125418	0.0586377	0	5	0	
0.0951667	-0.00539302	2.53696	0.000145336	0.0585447	0	5	0	
0.0953333	-0.00223014	-2.53736	0.000141532	0.0586634	0	5	0	
0.0955	0.00963341	2.521	0.0001106	0.0585938	0	5	0	
0.0956667	-0.00832296	-2.50452	0.0001438	0.0586314	0	5	0	
0.0958333	0.00195967	2.48694	0.000225555	0.0584142	0	5	0	
0.096	0.00390743	-2.49623	0.000289161	0.0583999	0	5	0	
0.0961667	-0.00429428	2.50305	0.000283404	0.0583707	0	5	0	
0.0963333	0.00619116	-2.50582	0.00021737	0.0586415	0	5	0	
0.0965	0.00250609	2.48739	0.000147008	0.0586568	0	5	0	
0.0966667	-0.00823623	-2.4781	0.000112952	0.0586541	0	5	0	
0.0968333	0.00435176	2.46078	0.000142037	0.0583937	0	5	0	
0.097	-0.0034026	-2.46291	0.000201443	0.0583318	0	5	0	
0.0971667	0.00439715	2.44564	0.000238237	0.0582187	0	5	0	
0.0973333	-0.000293382	-2.43861	0.000249115	0.0582786	0	5	0	
0.0975	0.00124485	2.43391	0.000235806	0.0582669	0	5	0	
0.0976667	-0.00335746	-2.43116	0.000202919	0.0584435	0	5	0	
0.0978333	0.00422218	2.42971	0.000157661	0.0584589	0	5	0	
0.098	-0.00684334	-2.42647	0.000144898	0.0585865	0	5	0	
0.0981667	0.00313905	2.41588	0.000155614	0.0585261	0	5	0	
0.0983333	-0.000796248	-2.42144	0.000171512	0.0586391	0	5	0	
0.0985	0.00537724	2.40337	0.000159108	0.0586003	0	5	0	
0.0986667	-0.00585847	-2.38617	0.000161537	0.0586366	0	5	0	
0.0988333	0.00399798	2.38743	0.00017961	0.0585219	0	5	0	
0.099	-0.00613993	-2.3825	0.000203483	0.0585891	0	5	0	
0.0991667	0.00569492	2.37063	0.000207026	0.0585261	0	5	0	
0.0993333	-0.000517744	-2.36692	0.00020363	0.0585864	0	5	0	
0.0995	0.00439829	2.35837	0.000191086	0.0584512	0	5	0	
0.0996667	-0.00796436	-2.35112	0.000184037	0.0585098	0	5	0	
0.0998333	0.00899658	2.34913	0.000200712	0.0584385	0	5	0	
0.1	-0.000930022	-2.33853	0.000237893	0.0585612	0	5	0	
0.100167	-0.00138789	2.3255	0.000236871	0.0584993	0	5	0	
0.100333	-0.00344787	-2.32971	0.00017377	0.0586038	0	5	0	
0.1005	0.0111293	2.33005	0.000116323	0.0585509	0	5	0	
0.100667	-0.00422602	-2.30944	0.000142082	0.0586756	0	5	0	
0.100833	0.0031954	2.29735	0.000211589	0.0585376	0	5	0	
0.101	-0.00335124	-2.28988	0.000205487	0.0585479	0	5	0	
0.101167	0.00968926	2.27902	0.00017626	0.0584225	0	5	0	
0.101333	-0.0022368	-2.28237	0.000154357	0.058557	0	5	0	
0.1015	-0.000563419	2.28007	0.000171812	0.0585397	0	5	0	
0.101667	-0.00355185	-2.2642	0.000133114	0.0586722	0	5	0	
0.101833	0.0124181	2.26233	0.000128064	0.0586025	0	5	0	
0.102	-0.00404041	-2.25472	0.000158782	0.0586676	0	5	0	
0.102167	-0.00248797	2.23642	0.000232094	0.0585566	0	5	0	
0.102333	0.00612826	-2.23151	0.000219927	0.0586047	0	5	0	
0.1025	0.000699975	2.2343	0.000160985	0.0585067	0	5	0	
0.102667	-0.0031531	-2.21574	9.27217E-05	0.0586079	0	5	0	
0.102833	0.000980478	2.20787	0.000109218	0.0585474	0	5	0	
0.103	0.00344179	-2.20181	0.000154338	0.0586207	0	5	0	
0.103167	-0.000969016	2.19401	0.000159927	0.0585009	0	5	0	
0.103333	-0.00670355	-2.18197	0.000129962	0.0585575	0	5	0	
0.1035	0.00262391	2.17756	0.00015313	0.0584243	0	5	0	
0.103667	0.00900414	-2.15261	0.000248502	0.0584831	0	5	0	
0.103833	-0.00358012	2.15411	0.00027746	0.0584384	0	5	0	
0.104	-0.00951383	-2.17861	0.000249133	0.0586748	0	5	0	
0.104167	0.0243188	2.16962	0.000236724	0.0586882	0	5	0	
0.104333	-0.0216177	-2.11889	0.000318514	0.0586111	0	5	0	
0.1045	-0.00188827	2.11079	0.000456492	0.0582869	0	5	0	
0.104667	0.0173348	-2.12937	0.000537686	0.0584058	0	5	0	
0.104833	-0.00711333	2.13549	0.000484488	0.0585793	0	5	0	
0.105	0.00130751	-2.10937	0.000303149	0.0587788	0	5	0	
0.105167	-0.0110502	2.10162	0.000170358	0.0586429	0	5	0	
0.105333	0.0148593	-2.11017	0.000158488	0.0587232	0	5	0	
0.1055	0.00376232	2.09362	0.000228458	0.0586536	0	5	0	
0.105667	-0.0182445	-2.05787	0.000232053	0.0585167	0	5	0	
0.105833	0.01182	2.04994	0.000370851	0.0582358	0	5	0	
0.106	0.00493774	-2.05962	0.000471672	0.0583924	0	5	0	
0.106167	-0.000192367	2.07226	0.000476569	0.0586315	0	5	0	
0.106333	-0.0126174	-2.06179	0.000321606	0.0589041	0	5	0	
0.1065	0.00799839	2.04504	0.000253763	0.0587405	0	5	0	
0.106667	-0.00224087	-2.01896	0.000351629	0.0586478	0	5	0	
0.106833	0.00942891	2.02062	0.00037771	0.0585544	0	5	0	
0.107	-0.0164881	-2.01804	0.00032939	0.0587534	0	5	0	
0.107167	0.0154786	2.00544	0.000283094	0.0587593	0	5	0	
0.107333	0.00296282	-1.99378	0.000338395	0.0588234	0	5	0	
0.1075	-0.00702229	2.0145	0.000308253	0.058834	0	5	0	
0.107667	-0.00767464	-2.01765	0.000223524	0.0591044	0	5	0	
0.107833	0.00807119	1.99706	0.00014148	0.0590726	0	5	0	
0.108	-0.00365138	-1.94979	0.000164005	0.0588801	0	5	0	
0.108167	0.0104929	1.94888	0.000170049	0.0584974	0	5	0	
0.108333	-0.0100039	-1.94532	0.000190196	0.058553	0	5	0	
0.1085	-0.00346191	1.94043	0.000265461	0.0586711	0	5	0	
0.108667	0.00632455	-1.91474	0.000313098	0.0588836	0	5	0	
0.108833	0.00679875	1.91545	0.000255978	0.0588472	0	5	0	
0.109	-0.0120557	-1.91331	0.00017634	0.0589421	0	5	0	
0.109167	0.00676462	1.91613	0.000179925	0.0588584	0	5	0	
0.109333	-0.00164658	-1.88218	0.000226078	0.0587809	0	5	0	
0.1095	0.00655031	1.86247	0.000196906	0.058487	0	5	0	
0.109667	-0.0138364	-1.84537	0.000174189	0.0584781	0	5	0	
0.109833	0.0107926	1.87704	0.000216083	0.0585268	0	5	0	
0.11	0.00394641	-1.87321	0.000341484	0.058763	0	5	0	
0.110167	-0.00768287	1.85291	0.000371294	0.0586696	0	5	0	
0.110333	-0.00282778	-1.83727	0.000283081	0.0585828	0	5	0	
0.1105	0.00593516	1.84001	0.000166168	0.0583864	0	5	0	
0.110667	0.00159786	-1.78996	0.000151469	0.0582866	0	5	0	
0.110833	0.000916865	1.76191	0.000145962	0.0579795	0	5	0	
0.111	-0.0110443	-1.76397	0.000140662	0.0580185	0	5	0	
0.111167	0.00470514	1.80522	0.000143444	0.0583072	0	5	0	
0.111333	-7.24434E-05	-1.80952	0.000223654	0.0587774	0	5	0	
0.1115	0.00639155	1.7987	0.000225093	0.0587584	0	5	0	
0.111667	-0.00832209	-1.76027	0.000210472	0.0585547	0	5	0	
0.111833	-0.00268627	1.75505	0.000232395	0.0581562	0	5	0	
0.112	-0.000937319	-1.72935	0.000275173	0.0579627	0	5	0	
0.112167	0.00408416	1.71879	0.000258105	0.057764	0	5	0	
0.112333	-0.00109898	-1.71784	0.000221194	0.0579421	0	5	0	
0.1125	-0.000983404	1.74389	0.000206093	0.0582582	0	5	0	
0.112667	-0.0036729	-1.7439	0.000171596	0.0587817	0	5	0	
0.112833	0.0067045	1.752	0.000112627	0.0589316	0	5	0	
0.113	-0.00961927	-1.71255	0.000114835	0.0588263	0	5	0	
0.113167	0.00615528	1.68577	0.000190543	0.0584204	0	5	0	
0.113333	-0.00113306	-1.67069	0.000251773	0.0583121	0	5	0	
0.1135	-0.000858818	1.67335	0.000223505	0.0582968	0	5	0	
0.113667	-0.0048779	-1.63584	0.000154751	0.0584566	0	5	0	
0.113833	0.00074153	1.64945	0.000134627	0.0584512	0	5	0	
0.114	0.00323059	-1.64996	0.000178201	0.0586117	0	5	0	
0.114167	-0.000116435	1.6545	0.000184973	0.0586412	0	5	0	
0.114333	-0.00489649	-1.62989	0.00013532	0.0587003	0	5	0	
0.1145	0.00318617	1.63058	9.9657E-05	0.0585277	0	5	0	
0.114667	-0.00231893	-1.6021	0.000136465	0.0585357	0	5	0	
0.114833	-0.000178539	1.61614	0.00017182	0.0584768	0	5	0	
0.115	-0.00897885	-1.59403	0.000178083	0.0585599	0	5	0	
0.115167	0.00780453	1.58672	0.000195093	0.0584508	0	5	0	
0.115333	-0.000278263	-1.56658	0.000242148	0.0585033	0	5	0	
0.1155	-0.00343344	1.57263	0.000258484	0.0584555	0	5	0	
0.115667	-0.00392476	-1.54641	0.000185825	0.0585657	0	5	0	
0.115833	0.011067	1.54709	0.000130623	0.0585065	0	5	0	
0.116	-0.0113587	-1.52678	0.00014303	0.0585245	0	5	0	
0.116167	0.00621219	1.52479	0.000223151	0.0584154	0	5	0	
0.116333	-0.00465754	-1.50707	0.000227636	0.0585218	0	5	0	
0.1165	0.00739951	1.52568	0.000194409	0.0585883	0	5	0	
0.116667	-0.00350351	-1.52168	0.000188333	0.0587678	0	5	0	
0.116833	-0.00237615	1.51657	0.000223761	0.0587132	0	5	0	
0.117	-0.00154744	-1.47735	0.000202041	0.0586443	0	5	0	
0.117167	0.00812358	1.47523	0.000151558	0.0584432	0	5	0	
0.117333	-0.00448948	-1.45895	0.000115314	0.0584855	0	5	0	
0.1175	0.00505467	1.46847	0.000138935	0.0585074	0	5	0	
0.117667	-0.00763384	-1.44009	0.00015769	0.058643	0	5	0	
0.117833	0.00524411	1.4435	0.000187678	0.0586122	0	5	0	
0.118	-0.00192594	-1.41817	0.000210269	0.0587256	0	5	0	
0.118167	0.00431579	1.4263	0.000206219	0.0587125	0	5	0	
0.118333	-0.00547857	-1.40819	0.000184675	0.0587853	0	5	0	
0.1185	0.00552966	1.41276	0.000172556	0.0587066	0	5	0	
0.118667	-0.00943763	-1.38389	0.000191379	0.0587515	0	5	0	
0.118833	0.00725039	1.39901	0.000220814	0.0586589	0	5	0	
0.119	-0.00069755	-1.36427	0.000248862	0.058677	0	5	0	
0.119167	-0.00200482	1.36292	0.000231073	0.0585299	0	5	0	
0.119333	-0.00631796	-1.34497	0.00017956	0.0585186	0	5	0	
0.1195	0.00987755	1.34423	0.00014201	0.0584679	0	5	0	
0.119667	-0.00812959	-1.32818	0.000177043	0.0586882	0	5	0	
0.119833	0.00598091	1.36765	0.000209707	0.0588243	0	5	0	
0.12	-0.0065409	-1.40571	0.000206204	0.058793	0	5	0	
0.120167	0.0025248	1.37752	0.000172129	0.0584824	0	5	0	
0.120333	-0.000706199	-1.29308	0.000189558	0.0581498	0	5	0	
0.1205	-0.00248686	1.27786	0.000195622	0.0580021	0	5	0	
0.120667	-0.00377532	-1.26238	0.000160786	0.0582196	0	5	0	
0.120833	0.0162098	1.30016	0.000147142	0.0584503	0	5	0	
0.121	-0.0222374	-1.31146	0.000216097	0.0587168	0	5	0	
0.121167	0.0142653	1.27889	0.000348811	0.0590327	0	5	0	
0.121333	-0.00154186	-1.25386	0.000426226	0.059474	0	5	0	
0.1215	0.00655305	1.2768	0.000380838	0.0595738	0	5	0	
0.121667	-0.00467274	-1.22333	0.000302443	0.0592526	0	5	0	
0.121833	-0.00855646	1.23596	0.000274739	0.0588315	0	5	0	
0.122	0.00572931	-1.23094	0.000226353	0.0588565	0	5	0	
0.122167	0.014652	1.22338	0.000266579	0.0587772	0	5	0	
0.122333	-0.018126	-1.16817	0.000257991	0.058535	0	5	0	
0.1225	0.00881621	1.1691	0.000348177	0.0581367	0	5	0	
0.122667	-0.000370341	-1.15016	0.000311118	0.0581889	0	5	0	
0.122833	0.00359721	1.15487	0.000232952	0.0583166	0	5	0	
0.123	-0.00649811	-1.12711	0.000153277	0.0583417	0	5	0	
0.123167	0.00920874	1.13155	0.000141612	0.0581402	0	5	0	
0.123333	-0.00554875	-1.11083	0.000190396	0.0582145	0	5	0	
0.1235	2.8551E-05	1.12871	0.00022137	0.0583886	0	5	0	
0.123667	-0.00517209	-1.10633	0.00018944	0.05862	0	5	0	
0.123833	0.00847881	1.11854	0.00014987	0.0585961	0	5	0	
0.124	-0.000997509	-1.10589	0.000169709	0.0585536	0	5	0	
0.124167	-0.00229814	1.09891	0.000201284	0.0583874	0	5	0	
0.124333	-0.00567329	-1.04969	0.000191156	0.0582953	0	5	0	
0.1245	0.0116112	1.06318	0.000146951	0.0581957	0	5	0	
0.124667	-0.00614206	-1.03702	0.000206013	0.0583674	0	5	0	
0.124833	-0.00334095	1.0621	0.000271138	0.0585075	0	5	0	
0.125	-0.00592446	-1.03619	0.000253595	0.0586249	0	5	0	
0.125167	0.0117679	1.02922	0.000195469	0.0584753	0	5	0	
0.125333	-0.00279788	-0.995227	0.000191018	0.0584644	0	5	0	
0.1255	-0.0023053	1.0188	0.000262969	0.0585099	0	5	0	
0.125667	-0.00590671	-0.989534	0.000241166	0.0586934	0	5	0	
0.125833	0.00945904	1.00268	0.000198944	0.0586311	0	5	0	
0.126	-0.00602799	-0.961631	0.000180103	0.0585338	0	5	0	
0.126167	0.00454277	0.955465	0.000185711	0.0583944	0	5	0	
0.126333	-0.0140634	-0.939783	0.000189057	0.0585403	0	5	0	
0.1265	0.0180449	0.962631	0.000220238	0.0586777	0	5	0	
0.126667	-0.00255546	-0.941667	0.00033743	0.0588027	0	5	0	
0.126833	-0.00510694	0.956685	0.000348292	0.0587071	0	5	0	
0.127	-0.00941122	-0.914004	0.000339005	0.0585877	0	5	0	
0.127167	0.00735729	0.898996	0.000216609	0.0583322	0	5	0	
0.127333	0.0070432	-0.869769	0.000245681	0.0582119	0	5	0	
0.1275	0.00616579	0.881013	0.000189997	0.0581718	0	5	0	
0.127667	-0.0217922	-0.856225	0.00026785	0.0584007	0	5	0	
0.127833	0.00555942	0.895355	0.000289269	0.0586602	0	5	0	
0.128	0.0190488	-0.884262	0.000390879	0.0589007	0	5	0	
0.128167	-0.00492918	0.877204	0.000344654	0.0587591	0	5	0	
0.128333	-0.0141583	-0.835985	0.000284003	0.0585072	0	5	0	
0.1285	0.00474207	0.851114	0.000272928	0.0583053	0	5	0	
0.128667	0.00895699	-0.818579	0.000296913	0.0584057	0	5	0	
0.128833	0.00715432	0.8274	0.000280247	0.0584529	0	5	0	
0.129	-0.0164906	-0.803141	0.000208506	0.0585314	0	5	0	
0.129167	0.0104133	0.806851	0.00025085	0.0585793	0	5	0	
0.129333	0.00282755	-0.776123	0.00032018	0.0587102	0	5	0	
0.1295	0.00358099	0.787252	0.000294912	0.0586842	0	5	0	
0.129667	-0.0105285	-0.756634	0.000196221	0.058667	0	5	0	
0.129833	0.0111394	0.768252	0.000160426	0.0585979	0	5	0	
0.13	-0.00845057	-0.73666	0.000202031	0.0586172	0	5	0	
0.130167	0.00662158	0.737403	0.000209029	0.0585843	0	5	0	
0.130333	-0.00770327	-0.716279	0.000202029	0.0586367	0	5	0	
0.1305	0.0162171	0.738828	0.000183724	0.058654	0	5	0	
0.130667	-0.0126337	-0.704411	0.000232986	0.0587143	0	5	0	
0.130833	0.00773474	0.70854	0.00024645	0.0586242	0	5	0	
0.131	-0.00759966	-0.677149	0.000233191	0.0585089	0	5	0	
0.131167	0.0103148	0.689508	0.000195381	0.0583957	0	5	0	
0.131333	-0.0056176	-0.661006	0.000198789	0.0584825	0	5	0	
0.1315	0.00249345	0.679329	0.00020149	0.0585081	0	5	0	
0.131667	-0.0067989	-0.634762	0.000169874	0.0585105	0	5	0	
0.131833	0.0136038	0.648551	0.000144015	0.0584535	0	5	0	
0.132	-0.00737925	-0.626346	0.000168877	0.0585635	0	5	0	
0.132167	0.00441893	0.640273	0.000242833	0.0586567	0	5	0	
0.132333	-0.000592645	-0.614301	0.000236822	0.0587925	0	5	0	
0.1325	0.004417	0.646534	0.000183379	0.0588172	0	5	0	
0.132667	-0.0111378	-0.609455	0.000114062	0.0587978	0	5	0	
0.132833	0.0086488	0.595792	0.000142186	0.0585775	0	5	0	
0.133	-0.00621422	-0.554861	0.000197933	0.0583896	0	5	0	
0.133167	0.00614834	0.567074	0.000209906	0.0583126	0	5	0	
0.133333	-0.0083291	-0.542513	0.000194685	0.0584918	0	5	0	
0.1335	0.00583854	0.557863	0.000172906	0.0586932	0	5	0	
0.133667	-0.0069599	-0.531652	0.000189207	0.0588579	0	5	0	
0.133833	0.010766	0.548274	0.000198784	0.0588429	0	5	0	
0.134	-0.00915847	-0.518966	0.000205771	0.0587572	0	5	0	
0.134167	0.00534747	0.514599	0.000179383	0.0585922	0	5	0	
0.134333	-0.0118482	-0.479565	0.000170464	0.0585117	0	5	0	
0.1345	0.0097356	0.496372	0.000174922	0.0584918	0	5	0	
0.134667	-0.0070339	-0.465258	0.000211485	0.058568	0	5	0	
0.134833	0.00429143	0.485269	0.000207376	0.0585641	0	5	0	
0.135	0.00350055	-0.448585	0.000171514	0.058538	0	5	0	
0.135167	-0.000850016	0.452289	0.000118068	0.0584491	0	5	0	
0.135333	-0.00431269	-0.424423	9.21042E-05	0.0584444	0	5	0	
0.1355	0.0108753	0.443965	0.000106511	0.0584355	0	5	0	
0.135667	-0.00920209	-0.405507	0.000151269	0.0584669	0	5	0	
0.135833	0.00359916	0.426608	0.000182304	0.0584213	0	5	0	
0.136	-0.00296808	-0.391773	0.000170795	0.0583947	0	5	0	
0.136167	0.00443123	0.40101	0.000133114	0.0583524	0	5	0	
0.136333	-0.00462139	-0.376589	0.000102356	0.058413	0	5	0	
0.1365	0.00939455	0.391001	0.000109968	0.0584693	0	5	0	
0.136667	-0.00687262	-0.355407	0.000148946	0.0585554	0	5	0	
0.136833	0.000277261	0.378173	0.000188827	0.0585944	0	5	0	
0.137	-0.000312095	-0.352914	0.000188981	0.0586424	0	5	0	
0.137167	0.0025715	0.364701	0.000134532	0.05856	0	5	0	
0.137333	-0.00636959	-0.310398	0.000110641	0.0583472	0	5	0	
0.1375	-0.00316399	0.298316	0.000165985	0.0581596	0	5	0	
0.137667	0.0111766	-0.288221	0.000242719	0.0584276	0	5	0	
0.137833	-0.00556373	0.358571	0.000244601	0.0589339	0	5	0	
0.138	-0.0107612	-0.314975	0.00024471	0.059002	0	5	0	
0.138167	0.0134834	0.273374	0.000256645	0.0583919	0	5	0	
0.138333	-0.0192308	-0.227507	0.000289245	0.057957	0	5	0	
0.1385	0.024475	0.269008	0.000328903	0.0581506	0	5	0	
0.138667	-0.0223633	-0.228684	0.000395324	0.0585281	0	5	0	
0.138833	0.00225281	0.238899	0.000522466	0.0585826	0	5	0	
0.139	0.014086	-0.23451	0.00053351	0.0586432	0	5	0	
0.139167	-0.00820739	0.273011	0.000419064	0.0588334	0	5	0	
0.139333	-0.0089822	-0.227287	0.000290858	0.0587826	0	5	0	
0.1395	0.0133056	0.216214	0.000215112	0.058297	0	5	0	
0.139667	-0.00813994	-0.167585	0.000225774	0.057937	0	5	0	
0.139833	0.00236351	0.196765	0.000207309	0.058069	0	5	0	
0.14	-0.0053121	-0.189745	0.000150672	0.0584732	0	5	0	
0.140167	0.0171168	0.194905	0.000169475	0.0586276	0	5	0	
0.140333	-0.0109868	-0.149039	0.000194461	0.0584805	0	5	0	
0.1405	-0.00040964	0.152254	0.000256125	0.0583263	0	5	0	
0.140667	-0.011092	-0.121463	0.000212874	0.0584327	0	5	0	
0.140833	0.0194853	0.152916	0.000220237	0.0587161	0	5	0	
0.141	-0.00792954	-0.124992	0.00026485	0.0589163	0	5	0	
0.141167	-0.00109066	0.12469	0.000299927	0.0588398	0	5	0	
0.141333	-0.00516084	-0.0850782	0.000246224	0.0586222	0	5	0	
0.1415	0.015725	0.101999	0.000188206	0.0584911	0	5	0	
0.141667	-0.0137294	-0.0736559	0.000232717	0.0585194	0	5	0	
0.141833	6.1407E-05	0.0853917	0.000260919	0.0585265	0	5	0	
0.142	-0.00263845	-0.0302226	0.000216967	0.0584429	0	5	0	
0.142167	0.0061665	0.0522903	0.000124032	0.0583929	0	5	0	
0.142333	-0.00536527	-0.0408443	0.000106466	0.0584524	0	5	0	
0.1425	0.00323665	0.0573996	0.000132275	0.0584831	0	5	0	
0.142667	-0.00498228	-0.00531307	0.000149911	0.0583988	0	5	0	
0.142833	0.0108823	0.0284292	0.000158224	0.0583246	0	5	0	
0.143	-0.0110606	-0.0120046	0.000185476	0.0584006	0	5	0	
0.143167	-0.00700902	0.0313203	0.000296373	0.0585084	0	5	0	
0.143333	0.0172467	0.00480658	0.000347503	0.0585118	0	5	0	
0.1435	-0.00185082	0.00269278	0.000336782	0.0584667	0	5	0	
0.143667	-0.0097319	0.0229477	0.000293176	0.0584445	0	5	0	
0.143833	0.0115607	-0.0187087	0.000228732	0.0583252	0	5	0	
0.144	-0.00301427	0.0680032	0.000245002	0.0581384	0	5	0	
0.144167	0.00964732	-0.0503802	0.000199126	0.0581427	0	5	0	
0.144333	-0.0109481	0.0629409	0.00024351	0.0583935	0	5	0	
0.1445	0.00382348	-0.0555535	0.000302132	0.0585473	0	5	0	
0.144667	0.00736811	0.0904104	0.000330352	0.0584767	0	5	0	
0.144833	0.0051875	-0.0771286	0.000274216	0.0583588	0	5	0	
0.145	-0.00658959	0.106789	0.000167937	0.0583514	0	5	0	
0.145167	0.011766	-0.0936497	0.000160017	0.058407	0	5	0	
0.145333	-0.0048555	0.119954	0.000187206	0.0585184	0	5	0	
0.1455	0.00269053	-0.0985015	0.000199159	0.0586296	0	5	0	
0.145667	-0.00190003	0.125444	0.000126495	0.0586849	0	5	0	
0.145833	0.0147412	-0.100378	0.000121507	0.0585967	0	5	0	
0.146	-0.0113598	0.143187	0.000146007	0.0584135	0	5	0	
0.146167	0.00834465	-0.159373	0.000240085	0.0581436	0	5	0	
0.146333	0.00279288	0.199736	0.000240931	0.0580213	0	5	0	
0.1465	0.00441683	-0.169509	0.000188058	0.0581788	0	5	0	
0.146667	-0.00776074	0.199428	0.000115248	0.0585073	0	5	0	
0.146833	0.00699714	-0.184498	0.000148373	0.0586403	0	5	0	
0.147	0.0052891	0.21693	0.000229717	0.0586096	0	5	0	
0.147167	0.00265277	-0.201769	0.000230945	0.0585624	0	5	0	
0.147333	-0.00577362	0.22716	0.000160051	0.0586086	0	5	0	
0.1475	0.00699391	-0.219188	0.000129644	0.0585895	0	5	0	
0.147667	-0.00394076	0.256498	0.000158607	0.0585478	0	5	0	
0.147833	0.0134297	-0.239497	0.000200489	0.0585135	0	5	0	
0.148	-0.0113446	0.264485	0.000220268	0.0585357	0	5	0	
0.148167	0.00793262	-0.253846	0.000231907	0.0584919	0	5	0	
0.148333	-0.00329044	0.285909	0.000229021	0.0584269	0	5	0	
0.1485	0.00906595	-0.276734	0.000206232	0.0583288	0	5	0	
0.148667	-0.00710833	0.308204	0.000186924	0.0583148	0	5	0	
0.148833	0.00339285	-0.290825	0.000187082	0.0583365	0	5	0	
0.149	-0.0013131	0.324265	0.000148872	0.0584247	0	5	0	
0.149167	0.00221212	-0.312375	0.000106564	0.0584621	0	5	0	
0.149333	-0.00752824	0.337516	8.53141E-05	0.0584971	0	5	0	
0.1495	0.00841866	-0.32123	0.000114014	0.0584694	0	5	0	
0.149667	-0.00531817	0.351008	0.000137948	0.0584395	0	5	0	
0.149833	0.00571021	-0.343249	0.000158257	0.0583184	0	5	0	
0.15	-0.00796678	0.387278	0.000148449	0.0582749	0	5	0	
0.150167	0.00405823	-0.371517	0.000164344	0.0583384	0	5	0	
0.150333	-0.00784176	0.387605	0.000158617	0.0585326	0	5	0	
0.1505	0.0057972	-0.367965	0.000160114	0.0585866	0	5	0	
0.150667	-0.00790376	0.405743	0.000145573	0.0585471	0	5	0	
0.150833	0.00825134	-0.395001	0.00015624	0.0584565	0	5	0	
0.151	-0.00592102	0.424681	0.000174614	0.0584622	0	5	0	
0.151167	0.00159287	-0.422336	0.000179861	0.0584069	0	5	0	
0.151333	-0.00775692	0.454463	0.000154758	0.0583889	0	5	0	
0.1515	0.00394399	-0.43764	0.000137349	0.0584242	0	5	0	
0.151667	-0.00540254	0.467058	0.000119346	0.0586026	0	5	0	
0.151833	0.00886669	-0.457042	0.000129421	0.0586852	0	5	0	
0.152	-0.0136238	0.486058	0.000155084	0.0586734	0	5	0	
0.152167	0.00957772	-0.476131	0.000201679	0.0585702	0	5	0	
0.152333	-0.0085089	0.494901	0.000239423	0.0585722	0	5	0	
0.1525	0.00377681	-0.484124	0.000218775	0.0585762	0	5	0	
0.152667	-0.00577476	0.526552	0.000187986	0.0585876	0	5	0	
0.152833	0.00575803	-0.52051	0.000145364	0.0584817	0	5	0	
0.153	-0.0114605	0.543993	0.000147974	0.0584289	0	5	0	
0.153167	0.0105967	-0.528572	0.00016818	0.0583809	0	5	0	
0.153333	-0.00970212	0.557594	0.000201473	0.0584253	0	5	0	
0.1535	0.00860933	-0.549726	0.000197431	0.0584142	0	5	0	
0.153667	-0.0119723	0.588205	0.000214597	0.0584658	0	5	0	
0.153833	0.00933579	-0.5627	0.000211191	0.0584616	0	5	0	
0.154	-0.00451594	0.579776	0.000224678	0.0585287	0	5	0	
0.154167	0.0041371	-0.567036	0.000184901	0.0584883	0	5	0	
0.154333	-0.0109631	0.609038	0.000163413	0.058493	0	5	0	
0.1545	0.0154591	-0.597352	0.000178329	0.0584316	0	5	0	
0.154667	-0.00778313	0.639959	0.00022519	0.0584929	0	5	0	
0.154833	0.00160952	-0.610817	0.000213537	0.058563	0	5	0	
0.155	-0.00820624	0.61405	0.000213453	0.0587484	0	5	0	
0.155167	0.0206191	-0.593413	0.000238006	0.0586339	0	5	0	
0.155333	-0.0178353	0.665201	0.000306075	0.0582424	0	5	0	
0.1555	0.0154012	-0.69864	0.000346691	0.0578598	0	5	0	
0.155667	-0.0171711	0.716448	0.000336564	0.0581382	0	5	0	
0.155833	0.0139718	-0.66184	0.000353318	0.0587119	0	5	0	
0.156	0.00321404	0.685136	0.000371399	0.0590547	0	5	0	
0.156167	-0.00730805	-0.674025	0.000348037	0.0588678	0	5	0	
0.156333	-0.00469794	0.699328	0.000303968	0.0586453	0	5	0	
0.1565	0.0140584	-0.700926	0.000272867	0.0583944	0	5	0	
0.156667	-0.0131935	0.744229	0.000267265	0.0582391	0	5	0	
0.156833	0.0113389	-0.73352	0.000271506	0.0581702	0	5	0	
0.157	-0.0102862	0.747659	0.000232579	0.0584228	0	5	0	
0.157167	0.00847424	-0.726928	0.000226712	0.0586793	0	5	0	
0.157333	-0.00519928	0.742651	0.000191683	0.0587676	0	5	0	
0.1575	0.0129819	-0.743934	0.000187579	0.0584859	0	5	0	
0.157667	-0.0170524	0.795483	0.000206866	0.0582445	0	5	0	
0.157833	0.00884344	-0.781783	0.000276969	0.0581869	0	5	0	
0.158	-0.00558025	0.799511	0.000279025	0.0583863	0	5	0	
0.158167	0.0108012	-0.794061	0.000254689	0.0583605	0	5	0	
0.158333	-0.00601437	0.833374	0.00022567	0.058264	0	5	0	
0.1585	-0.00148154	-0.824374	0.000212684	0.0582629	0	5	0	
0.158667	-0.00513224	0.831426	0.000168652	0.0585775	0	5	0	
0.158833	0.0132963	-0.798989	0.000145058	0.0587205	0	5	0	
0.159	-0.00436493	0.824266	0.000148495	0.058656	0	5	0	
0.159167	0.000212953	-0.817953	0.000167376	0.0583567	0	5	0	
0.159333	-0.00752817	0.851791	0.000133242	0.0582173	0	5	0	
0.1595	0.0138351	-0.857491	0.000139788	0.0581463	0	5	0	
0.159667	-0.0163733	0.888155	0.000200838	0.0582871	0	5	0	
0.159833	0.0105077	-0.867768	0.000287784	0.0584239	0	5	0	
0.16	-0.00118005	0.891049	0.000279612	0.0586092	0	5	0	
0.160167	0.00662782	-0.890413	0.000232541	0.0585464	0	5	0	
0.160333	-0.00889634	0.925759	0.000158559	0.0583993	0	5	0	
0.1605	0.00940988	-0.929139	0.000172144	0.0582243	0	5	0	
0.160667	-0.0138414	0.961064	0.000200765	0.058473	0	5	0	
0.160833	0.00751263	-0.922303	0.000241149	0.0588743	0	5	0	
0.161	0.00308484	0.926524	0.000258575	0.0592175	0	5	0	
0.161167	0.00363815	-0.923083	0.000208945	0.0589891	0	5	0	
0.161333	-0.0136955	0.969034	0.000222227	0.0585433	0	5	0	
0.1615	0.0173839	-0.971869	0.000241673	0.0581487	0	5	0	
0.161667	-0.00900482	1.00201	0.00032033	0.0582197	0	5	0	
0.161833	0.00390542	-0.990937	0.000274002	0.058383	0	5	0	
0.162	-0.0076972	1.00925	0.000214879	0.0586264	0	5	0	
0.162167	0.00884723	-0.980881	0.000182956	0.0587133	0	5	0	
0.162333	0.00545663	0.984699	0.000176758	0.0587034	0	5	0	
0.1625	0.0097652	-1.00126	0.000228977	0.0583133	0	5	0	
0.162667	-0.0198828	1.0525	0.000261993	0.0579749	0	5	0	
0.162833	0.00902761	-1.04244	0.000319421	0.0579555	0	5	0	
0.163	0.00220795	1.04694	0.00031426	0.0583908	0	5	0	
0.163167	0.00679046	-1.03031	0.00024111	0.0586492	0	5	0	
0.163333	-0.00683703	1.04558	0.000192092	0.0586442	0	5	0	
0.1635	0.00694655	-1.04351	0.000138052	0.0583328	0	5	0	
0.163667	-0.00748379	1.08512	0.000150955	0.0581552	0	5	0	
0.163833	0.00672277	-1.09045	0.000145921	0.058075	0	5	0	
0.164	-0.0032997	1.10372	0.000158052	0.0583028	0	5	0	
0.164167	0.00528032	-1.07593	0.000145001	0.0584749	0	5	0	
0.164333	-0.0152461	1.09392	0.000161741	0.0585801	0	5	0	
0.1645	0.0156103	-1.0946	0.000202923	0.0584033	0	5	0	
0.164667	-0.00633264	1.12137	0.000252666	0.0583501	0	5	0	
0.164833	0.00489625	-1.10981	0.000218202	0.0582924	0	5	0	
0.165	-0.0113907	1.13546	0.00017797	0.0583459	0	5	0	
0.165167	0.0139409	-1.13869	0.000174657	0.0582749	0	5	0	
0.165333	-0.00609985	1.16154	0.00021553	0.0583615	0	5	0	
0.1655	0.00738957	-1.15422	0.000205938	0.0583926	0	5	0	
0.165667	-0.00887599	1.18181	0.000190034	0.0584708	0	5	0	
0.165833	0.00618344	-1.17592	0.000152595	0.058368	0	5	0	
0.166	-0.00407053	1.19801	0.000148545	0.0584261	0	5	0	
0.166167	0.0071943	-1.19184	0.000124585	0.0584715	0	5	0	
0.166333	-0.00418039	1.21145	0.000135396	0.0586407	0	5	0	
0.1665	0.00704013	-1.20274	0.000129875	0.0586023	0	5	0	
0.166667	-0.0082994	1.22467	0.000139542	0.0585903	0	5	0	
0.166833	0.00675344	-1.20999	0.000145681	0.0584239	0	5	0	
0.167	-0.00786569	1.2378	0.000158993	0.0584145	0	5	0	
0.167167	0.00799351	-1.24224	0.000163126	0.0583623	0	5	0	
0.167333	-0.00723977	1.26059	0.000163556	0.0584771	0	5	0	
0.1675	0.0104945	-1.24833	0.000168535	0.0584387	0	5	0	
0.167667	-0.00859813	1.27022	0.000184668	0.0584498	0	5	0	
0.167833	0.00476884	-1.25919	0.000178132	0.0583361	0	5	0	
0.168	-0.00758351	1.28487	0.000176598	0.0584007	0	5	0	
0.168167	0.012489	-1.28566	0.000170469	0.0583709	0	5	0	
0.168333	-0.00263899	1.30283	0.000183577	0.0584391	0	5	0	
0.1685	0.00224413	-1.29904	0.00013847	0.0583961	0	5	0	
0.168667	-0.0103602	1.31483	0.000136175	0.0584517	0	5	0	
0.168833	0.0125219	-1.30949	0.000136522	0.0583969	0	5	0	
0.169	-0.004194	1.33733	0.000193132	0.05847	0	5	0	
0.169167	0.00356909	-1.33001	0.000168789	0.0584311	0	5	0	
0.169333	-0.00373919	1.34077	0.000143583	0.0584608	0	5	0	
0.1695	0.00711478	-1.3414	9.98429E-05	0.0583417	0	5	0	
0.169667	-0.00714344	1.35534	0.000125635	0.0583589	0	5	0	
0.169833	0.0113456	-1.3485	0.000142056	0.0583086	0	5	0	
0.17	-0.0132325	1.38017	0.000210554	0.0583981	0	5	0	
0.170167	0.0116489	-1.37045	0.000218598	0.0583172	0	5	0	
0.170333	-0.00892482	1.38367	0.000242076	0.0583607	0	5	0	
0.1705	0.00484308	-1.38262	0.000194245	0.0583011	0	5	0	
0.170667	-0.00660736	1.40519	0.000181384	0.0584392	0	5	0	
0.170833	0.00820664	-1.39836	0.000148655	0.0584364	0	5	0	
0.171	-0.0121934	1.42435	0.000187121	0.0585046	0	5	0	
0.171167	0.0134206	-1.41794	0.00020906	0.0583645	0	5	0	
0.171333	-0.0164919	1.44548	0.000260145	0.0584143	0	5	0	
0.1715	0.00899794	-1.44301	0.0002622	0.0584036	0	5	0	
0.171667	-0.00515858	1.45861	0.000270565	0.0586202	0	5	0	
0.171833	0.000762815	-1.44937	0.000215101	0.0586997	0	5	0	
0.172	-0.00467524	1.46089	0.000170493	0.0588211	0	5	0	
0.172167	0.00710945	-1.45539	0.000141744	0.0586629	0	5	0	
0.172333	-0.0116256	1.48287	0.000170314	0.0585485	0	5	0	
0.1725	0.0111298	-1.48756	0.0002074	0.0583834	0	5	0	
0.172667	-0.0154707	1.50085	0.000235254	0.0585023	0	5	0	
0.172833	0.0135569	-1.49284	0.00026677	0.0585618	0	5	0	
0.173	-0.0108079	1.51689	0.000260963	0.0586242	0	5	0	
0.173167	0.0115541	-1.54808	0.000242306	0.0584489	0	5	0	
0.173333	-0.00591527	1.57045	0.000230173	0.0585251	0	5	0	
0.1735	-0.00954738	-1.53036	0.000259024	0.0587608	0	5	0	
0.173667	0.0137872	1.51319	0.000233481	0.0590762	0	5	0	
0.173833	-0.00474842	-1.51864	0.000244977	0.058809	0	5	0	
0.174	-0.00577294	1.54634	0.000261588	0.0584397	0	5	0	
0.174167	0.0233973	-1.53821	0.000342737	0.0580962	0	5	0	
0.174333	-0.0255756	1.57317	0.000416448	0.0580271	0	5	0	
0.1745	0.0131692	-1.61849	0.000422359	0.0578705	0	5	0	
0.174667	0.00277443	1.63453	0.000452407	0.0581632	0	5	0	
0.174833	-0.00187213	-1.57746	0.000346105	0.0586011	0	5	0	
0.175	-0.00558728	1.57992	0.000251219	0.0589655	0	5	0	
0.175167	0.00617297	-1.60088	0.000142112	0.0587429	0	5	0	
0.175333	-0.00611086	1.60989	0.000160757	0.0586082	0	5	0	
0.1755	0.0170536	-1.58861	0.000217774	0.0585228	0	5	0	
0.175667	-0.0114787	1.60966	0.000282079	0.0585615	0	5	0	
0.175833	-0.0053878	-1.6233	0.000347924	0.0583088	0	5	0	
0.176	0.00608077	1.65985	0.000296106	0.0583031	0	5	0	
0.176167	0.0039976	-1.64905	0.000288969	0.058324	0	5	0	
0.176333	-0.0154224	1.66749	0.000231338	0.0585752	0	5	0	
0.1765	0.0156324	-1.6819	0.00031331	0.0585798	0	5	0	
0.176667	-0.0163284	1.69751	0.000300756	0.058754	0	5	0	
0.176833	0.0112148	-1.67278	0.00029895	0.0587348	0	5	0	
0.177	-0.00975473	1.69057	0.000260296	0.0587382	0	5	0	
0.177167	0.000912499	-1.69821	0.000206039	0.0584365	0	5	0	
0.177333	0.000137494	1.71707	0.000115779	0.058454	0	5	0	
0.1775	0.00659544	-1.70306	0.00010326	0.0585491	0	5	0	
0.177667	-0.0166437	1.7086	0.000152331	0.0587602	0	5	0	
0.177833	0.0112204	-1.71559	0.000230401	0.0585682	0	5	0	
0.178	-0.00613198	1.74225	0.000243046	0.0584657	0	5	0	
0.178167	0.00210561	-1.73201	0.000181843	0.0583775	0	5	0	
0.178333	-0.0075435	1.74766	0.000135345	0.0585489	0	5	0	
0.1785	0.0112904	-1.76472	0.000126773	0.0585947	0	5	0	
0.178667	-0.0112431	1.77189	0.000173428	0.0587939	0	5	0	
0.178833	0.00497601	-1.76712	0.000195926	0.0588152	0	5	0	
0.179	0.00419376	1.79383	0.000174724	0.0588605	0	5	0	
0.179167	-0.00190029	-1.77839	0.000129547	0.0587029	0	5	0	
0.179333	-0.00671792	1.77963	0.000169656	0.0587399	0	5	0	
0.1795	0.0155003	-1.80678	0.000210967	0.0586536	0	5	0	
0.179667	-0.0104383	1.82971	0.000264146	0.0586958	0	5	0	
0.179833	0.0145921	-1.81248	0.000252215	0.0586574	0	5	0	
0.18	-0.0124298	1.80809	0.000244361	0.0587119	0	5	0	
0.180167	0.00164103	-1.81875	0.000248116	0.0584813	0	5	0	
0.180333	0.00381858	1.85149	0.000175435	0.0583976	0	5	0	
0.1805	0.0118096	-1.85624	0.000186526	0.0583603	0	5	0	
0.180667	-0.0145828	1.85239	0.000189117	0.058558	0	5	0	
0.180833	0.00446569	-1.85449	0.000242945	0.0585102	0	5	0	
0.181	-0.0033364	1.86691	0.000187603	0.0585759	0	5	0	
0.181167	0.0107318	-1.85649	0.000166276	0.0585846	0	5	0	
0.181333	-0.00883968	1.85878	0.000159196	0.0586865	0	5	0	
0.1815	0.00794562	-1.8671	0.000184607	0.0584662	0	5	0	
0.181667	-0.0145684	1.88658	0.000180685	0.058354	0	5	0	
0.181833	0.00854175	-1.88672	0.00020514	0.0581814	0	5	0	
0.182	-0.00380876	1.90407	0.000196538	0.058326	0	5	0	
0.182167	-0.00180688	-1.9031	0.000150566	0.0583504	0	5	0	
0.182333	-0.00485022	1.9096	0.000103874	0.0584784	0	5	0	
0.1825	0.0106728	-1.91647	0.000143259	0.0583645	0	5	0	
0.182667	-0.0141915	1.92396	0.000220696	0.0583791	0	5	0	
0.182833	0.0103746	-1.9242	0.000269182	0.0583231	0	5	0	
0.183	-0.00921824	1.93628	0.000235926	0.0584559	0	5	0	
0.183167	0.00824091	-1.94341	0.000204165	0.0584433	0	5	0	
0.183333	-0.0137152	1.95416	0.000186485	0.0585342	0	5	0	
0.1835	0.00531895	-1.95478	0.000197493	0.0584555	0	5	0	
0.183667	-0.00175319	1.95495	0.000166157	0.0584753	0	5	0	
0.183833	0.00252784	-1.9722	0.000108638	0.0583941	0	5	0	
0.184	-0.00508467	1.98154	7.66388E-05	0.0584568	0	5	0	
0.184167	0.00226622	-1.99907	6.95294E-05	0.0584419	0	5	0	
0.184333	-0.00384596	2.00009	9.5416E-05	0.058533	0	5	0	
0.1845	0.00958157	-1.9974	0.000110612	0.0584884	0	5	0	
0.184667	-0.0119852	1.99121	0.000160339	0.0585252	0	5	0	
0.184833	0.00611078	-2.01003	0.000175456	0.0584189	0	5	0	
0.185	-0.00427392	2.02583	0.000171454	0.058494	0	5	0	
0.185167	0.00704514	-2.03378	0.000132246	0.0585087	0	5	0	
0.185333	-0.00616466	2.03008	0.000138045	0.0586376	0	5	0	
0.1855	0.00745053	-2.04256	0.000128704	0.0585156	0	5	0	
0.185667	-0.00495694	2.05295	0.000137953	0.0585174	0	5	0	
0.185833	0.00928198	-2.05868	0.000126942	0.058452	0	5	0	
0.186	-0.00730847	2.06012	0.00014298	0.0585658	0	5	0	
0.186167	0.00438022	-2.06323	0.000150711	0.0584504	0	5	0	
0.186333	-0.00282689	2.07122	0.000138797	0.0584319	0	5	0	
0.1865	0.00933016	-2.08186	0.000139867	0.0583452	0	5	0	
0.186667	-0.00763606	2.07982	0.000147729	0.058468	0	5	0	
0.186833	0.0106415	-2.08304	0.000183159	0.0584381	0	5	0	
0.187	-0.00756978	2.09285	0.000191824	0.0584729	0	5	0	
0.187167	0.0115252	-2.09911	0.000199946	0.0583582	0	5	0	
0.187333	-0.014329	2.10894	0.000212334	0.0584336	0	5	0	
0.1875	0.00509208	-2.12254	0.000212686	0.0584598	0	5	0	
0.187667	2.1777E-05	2.11963	0.000165315	0.0585603	0	5	0	
0.187833	0.0102943	-2.13018	0.000140804	0.0584466	0	5	0	
0.188	-0.0158034	2.1396	0.000165719	0.0584442	0	5	0	
0.188167	0.00778005	-2.13758	0.000222716	0.0583765	0	5	0	
0.188333	-0.00466971	2.13616	0.000209225	0.0584811	0	5	0	
0.1885	0.00887532	-2.15086	0.00018952	0.058454	0	5	0	
0.188667	-0.0136068	2.1516	0.000182308	0.0585237	0	5	0	
0.188833	0.00623472	-2.16135	0.000199451	0.0584396	0	5	0	
0.189	-0.00576228	2.16813	0.000174436	0.0584518	0	5	0	
0.189167	0.0101426	-2.17234	0.000173785	0.0583458	0	5	0	
0.189333	-0.0123388	2.18059	0.000187816	0.0584098	0	5	0	
0.1895	0.00702812	-2.20422	0.000213538	0.0584252	0	5	0	
0.189667	-0.00411937	2.20021	0.000179169	0.0586178	0	5	0	
0.189833	0.00659898	-2.19511	0.00016862	0.0585982	0	5	0	
0.19	-0.0128788	2.18998	0.000168104	0.0585506	0	5	0	
0.190167	0.0115165	-2.19396	0.000225099	0.0583082	0	5	0	
0.190333	-0.0105029	2.21155	0.000215669	0.0582571	0	5	0	
0.1905	0.00472642	-2.25065	0.000214283	0.0582503	0	5	0	
0.190667	0.00705958	2.24254	0.000207148	0.0585429	0	5	0	
0.190833	-0.0118594	-2.21185	0.00020152	0.0587254	0	5	0	
0.191	-0.000215567	2.20401	0.00025163	0.0587338	0	5	0	
0.191167	0.0111306	-2.25037	0.000298854	0.0583625	0	5	0	
0.191333	-0.0112825	2.27062	0.000348374	0.058254	0	5	0	
0.1915	0.013768	-2.26967	0.000321777	0.0583162	0	5	0	
0.191667	-0.0189805	2.27022	0.00028782	0.0585952	0	5	0	
0.191833	0.00671716	-2.29481	0.000290139	0.0586097	0	5	0	
0.192	0.00743773	2.28187	0.000318169	0.0587445	0	5	0	
0.192167	-0.00338046	-2.26529	0.000267402	0.0587289	0	5	0	
0.192333	-0.00382966	2.26325	0.000211379	0.058673	0	5	0	
0.1925	0.0100685	-2.30048	0.000153508	0.0583491	0	5	0	
0.192667	-0.00831069	2.32195	0.000163278	0.0583185	0	5	0	
0.192833	0.00692094	-2.32767	0.00018221	0.0584617	0	5	0	
0.193	0.0037685	2.30942	0.000149521	0.0587751	0	5	0	
0.193167	0.00804849	-2.316	0.000179635	0.058745	0	5	0	
0.193333	-0.0175016	2.33164	0.000236989	0.0586344	0	5	0	
0.1935	0.0112004	-2.3474	0.000294812	0.0584516	0	5	0	
0.193667	0.0022905	2.33586	0.0002422	0.0584742	0	5	0	
0.193833	0.0113897	-2.3578	0.000167297	0.058479	0	5	0	
0.194	-0.00951677	2.37175	0.000154424	0.0585726	0	5	0	
0.194167	0.00263888	-2.38344	0.000178577	0.0586842	0	5	0	
0.194333	0.00253845	2.35985	0.000150354	0.0589329	0	5	0	
0.1945	0.0127651	-2.34874	0.000155411	0.0588868	0	5	0	
0.194667	-0.0158294	2.35338	0.000201335	0.0587009	0	5	0	
0.194833	0.0113646	-2.38514	0.000268223	0.0584203	0	5	0	
0.195	-0.00556294	2.38553	0.000256598	0.0584645	0	5	0	
0.195167	0.00641775	-2.40072	0.000199085	0.0585042	0	5	0	
0.195333	-0.00705834	2.41433	0.000168756	0.0586181	0	5	0	
0.1955	0.00842255	-2.42422	0.000148604	0.0585963	0	5	0	
0.195667	-0.00427995	2.41071	0.000157146	0.0587352	0	5	0	
0.195833	0.0083706	-2.41148	0.000152998	0.058701	0	5	0	
0.196	-0.00897383	2.40573	0.000154183	0.0586684	0	5	0	
0.196167	0.00522248	-2.41716	0.000150679	0.0584279	0	5	0	
0.196333	-0.00285693	2.42785	0.000143636	0.0583358	0	5	0	
0.1965	0.0141487	-2.44459	0.000192103	0.0583189	0	5	0	
0.196667	-0.0192079	2.42636	0.000239874	0.0585159	0	5	0	
0.196833	0.00666207	-2.4364	0.000282511	0.0585379	0	5	0	
0.197	-0.00210654	2.44007	0.000226916	0.0585664	0	5	0	
0.197167	0.0130347	-2.43456	0.00019994	0.0584424	0	5	0	
0.197333	-0.0112975	2.41975	0.000200834	0.058376	0	5	0	
0.1975	0.00390142	-2.45629	0.000211047	0.0581543	0	5	0	
0.197667	-0.00513027	2.474	0.000194201	0.0581324	0	5	0	
0.197833	0.0177998	-2.48565	0.000209843	0.0582334	0	5	0	
0.198	-0.00931739	2.46133	0.000249534	0.0584954	0	5	0	
0.198167	0.000124749	-2.4613	0.000216864	0.0584813	0	5	0	
0.198333	-0.00678184	2.46886	0.000183365	0.0583713	0	5	0	
0.1985	0.0138904	-2.5009	0.000187005	0.0582088	0	5	0	
0.198667	-0.0102619	2.49553	0.000234775	0.0582773	0	5	0	
0.198833	0.010539	-2.51225	0.000236751	0.0583483	0	5	0	
0.199	-0.00394713	2.51943	0.000189617	0.0585241	0	5	0	
0.199167	0.00139669	-2.53723	0.00014082	0.0586474	0	5	0	
0.199333	-0.00601422	2.51229	0.000139074	0.0588266	0	5	0	
0.1995	0.0174892	-2.50823	0.000202505	0.0587386	0	5	0	
0.199667	-0.0202456	2.49507	0.000299447	0.0584906	0	5	0	
0.199833	0.0146804	-2.52665	0.000342969	0.0581524	0	5	0	
0.2	-0.00559153	2.52775	0.000309168	0.0581175	0	5	0	
0.200167	0.00273815	-2.54547	0.000218908	0.058178	0	5	0	
0.200333	-0.000881998	2.54886	0.000127876	0.0583384	0	5	0	
0.2005	0.000435442	-2.57633	8.88295E-05	0.0583614	0	5	0	
0.200667	-0.00796754	2.56022	0.000157463	0.058522	0	5	0	
0.200833	0.0177555	-2.57258	0.000264157	0.0586211	0	5	0	
0.201	-0.013633	2.56234	0.000339958	0.0587154	0	5	0	
0.201167	0.0100183	-2.58023	0.00031482	0.0586132	0	5	0	
0.201333	-0.00707956	2.57236	0.000237451	0.0585847	0	5	0	
0.2015	0.00705512	-2.58096	0.000184422	0.0584719	0	5	0	
0.201667	-0.0113417	2.57128	0.000186117	0.0584566	0	5	0	
0.201833	0.00972681	-2.60071	0.000189966	0.0583553	0	5	0	
0.202	-0.00534259	2.59162	0.000180769	0.0583704	0	5	0	
0.202167	0.00678509	-2.60964	0.000150363	0.0583636	0	5	0	
0.202333	-0.00705357	2.60571	0.000148222	0.058477	0	5	0	
0.2025	0.0058934	-2.61342	0.000146404	0.0584767	0	5	0	
0.202667	-0.00548055	2.59887	0.000152921	0.0584978	0	5	0	
0.202833	0.00822062	-2.61577	0.000171175	0.0583613	0	5	0	
0.203	-0.0104448	2.60911	0.000197635	0.0583266	0	5	0	
0.203167	0.00757555	-2.63628	0.000193306	0.0582968	0	5	0	
0.203333	-0.00382776	2.62427	0.00017285	0.0584067	0	5	0	
0.2035	0.0100769	-2.64079	0.000164668	0.0584191	0	5	0	
0.203667	-0.0102247	2.63284	0.00020857	0.0584362	0	5	0	
0.203833	0.00881852	-2.65156	0.000228162	0.0583507	0	5	0	
0.204	-0.00611998	2.64357	0.000204885	0.0584072	0	5	0	
0.204167	0.00966933	-2.66147	0.000163428	0.0584124	0	5	0	
0.204333	-0.00384393	2.65269	0.000149196	0.0584898	0	5	0	
0.2045	0.00336123	-2.67408	0.000116072	0.0584499	0	5	0	
0.204667	0.000769196	2.65312	0.00010374	0.0584277	0	5	0	
0.204833	0.0103133	-2.67011	0.000108315	0.0582896	0	5	0	
0.205	-0.00887557	2.66736	0.000163761	0.0582813	0	5	0	
0.205167	0.0090686	-2.6878	0.000188405	0.0582949	0	5	0	
0.205333	-0.00410903	2.68254	0.000165932	0.0584392	0	5	0	
0.2055	0.00843765	-2.70096	0.000142677	0.0584597	0	5	0	
0.205667	-0.00633107	2.68366	0.000149612	0.0584907	0	5	0	
0.205833	0.00974808	-2.70305	0.000152692	0.0584035	0	5	0	
0.206	-0.00503516	2.69942	0.000173925	0.0584369	0	5	0	
0.206167	0.00824482	-2.72355	0.000151782	0.0584589	0	5	0	
0.206333	-0.0088966	2.70972	0.000177359	0.0585572	0	5	0	
0.2065	0.00822154	-2.72616	0.000192044	0.0585094	0	5	0	
0.206667	-0.00765047	2.71302	0.000214048	0.058484	0	5	0	
0.206833	0.0107751	-2.72959	0.00020484	0.0583912	0	5	0	
0.207	-0.00671926	2.7202	0.000189985	0.0584111	0	5	0	
0.207167	0.00783688	-2.74347	0.000156765	0.058399	0	5	0	
0.207333	-0.0054532	2.73382	0.000149081	0.058468	0	5	0	
0.2075	0.00217557	-2.75247	0.000130727	0.0584611	0	5	0	
0.207667	-0.00945635	2.73557	0.000161217	0.0584943	0	5	0	
0.207833	0.0101192	-2.74971	0.00019678	0.0584109	0	5	0	
0.208	-0.00541373	2.7481	0.000199145	0.0583947	0	5	0	
0.208167	0.00678587	-2.78038	0.000165896	0.0583987	0	5	0	
0.208333	-0.00769442	2.76972	0.000147664	0.0585624	0	5	0	
0.2085	0.00779633	-2.77126	0.000153836	0.0586279	0	5	0	
0.208667	-0.0111365	2.74671	0.00017756	0.058591	0	5	0	
0.208833	0.014151	-2.78325	0.000205762	0.0583745	0	5	0	
0.209	-0.0139765	2.80637	0.000237789	0.0584047	0	5	0	
0.209167	-0.00151474	-2.81103	0.000324157	0.0586017	0	5	0	
0.209333	0.00892142	2.76061	0.000300354	0.0588383	0	5	0	
0.2095	-0.00103591	-2.77807	0.000276273	0.0586665	0	5	0	
0.209667	-0.00550205	2.79063	0.000204276	0.0583922	0	5	0	
0.209833	0.00863544	-2.80801	0.000196003	0.0582139	0	5	0	
0.21	-0.0179561	2.7876	0.000237831	0.0582973	0	5	0	
0.210167	0.0249774	-2.79627	0.000308258	0.058303	0	5	0	
0.210333	-0.0150322	2.78618	0.000366937	0.0582778	0	5	0	
0.2105	0.000775277	-2.82707	0.000362691	0.0583262	0	5	0	
0.210667	-0.000368177	2.81202	0.000282466	0.0584875	0	5	0	
0.210833	0.000866998	-2.81716	0.000182927	0.0585986	0	5	0	
0.211	-0.00659098	2.81435	0.000156179	0.0585704	0	5	0	
0.211167	0.0131085	-2.85308	0.000160432	0.0585026	0	5	0	
0.211333	-0.00203389	2.84107	0.000187462	0.0586326	0	5	0	
0.2115	-0.00125458	-2.8228	0.000127604	0.058814	0	5	0	
0.211667	-0.0109642	2.78727	0.000146144	0.0586654	0	5	0	
0.211833	0.0105539	-2.85313	0.000160793	0.058293	0	5	0	
0.212	0.00146265	2.86143	0.000215164	0.0581082	0	5	0	
0.212167	0.000104281	-2.85124	0.000136037	0.0582764	0	5	0	
0.212333	-0.0101343	2.83751	0.000144283	0.0584898	0	5	0	
0.2125	0.00708759	-2.86807	0.000133328	0.0584819	0	5	0	
0.212667	-0.000472198	2.84961	0.000151645	0.0584613	0	5	0	
0.212833	0.00707863	-2.86855	0.000123939	0.0584844	0	5	0	
0.213	-0.013532	2.85986	0.000158598	0.0585363	0	5	0	
0.213167	0.0113134	-2.87374	0.000199138	0.0585504	0	5	0	
0.213333	-0.00492722	2.84686	0.000211936	0.058517	0	5	0	
0.2135	0.00357985	-2.86286	0.000153441	0.058344	0	5	0	
0.213667	-0.0037498	2.85315	0.000129948	0.0581892	0	5	0	
0.213833	0.00383843	-2.88851	0.000123207	0.0580927	0	5	0	
0.214	-0.0100984	2.8949	0.00016453	0.0582584	0	5	0	
0.214167	0.0188979	-2.91456	0.000219986	0.0584738	0	5	0	
0.214333	-0.00937365	2.88131	0.000248092	0.0586686	0	5	0	
0.2145	-0.00511126	-2.87838	0.000266751	0.0585933	0	5	0	
0.214667	0.00803442	2.86771	0.000207968	0.058395	0	5	0	
0.214833	0.00640851	-2.92119	0.000274336	0.0582072	0	5	0	
0.215	-0.0210046	2.93422	0.00032522	0.0583667	0	5	0	
0.215167	0.0161239	-2.93353	0.00039124	0.05863	0	5	0	
0.215333	-0.00551245	2.90512	0.000319028	0.0588154	0	5	0	
0.2155	0.0123487	-2.92713	0.000249086	0.0587281	0	5	0	
0.215667	-0.0148433	2.90005	0.000227558	0.0585927	0	5	0	
0.215833	-0.00177527	-2.91267	0.00023573	0.0584441	0	5	0	
0.216	0.00235831	2.91311	0.000183997	0.0583495	0	5	0	
0.216167	0.0150591	-2.94964	0.000254962	0.0583256	0	5	0	
0.216333	-0.0189357	2.94016	0.000293527	0.0584566	0	5	0	
0.2165	-0.000694304	-2.95784	0.000347262	0.0585978	0	5	0	
0.216667	0.0031799	2.9271	0.000205123	0.058645	0	5	0	
0.216833	0.0100714	-2.95197	0.000206584	0.0585753	0	5	0	
0.217	-0.0162338	2.94272	0.000258499	0.0585422	0	5	0	
0.217167	0.00795591	-2.95722	0.000323158	0.0585287	0	5	0	
0.217333	-0.00764866	2.92302	0.000253466	0.0585295	0	5	0	
0.2175	0.00765377	-2.92188	0.000216146	0.0583347	0	5	0	
0.217667	-0.0162486	2.89223	0.000231893	0.0580421	0	5	0	
0.217833	0.0129662	-2.93989	0.000265634	0.0577449	0	5	0	
0.218	-0.00364233	2.95645	0.000233159	0.0577943	0	5	0	
0.218167	0.00714512	-2.97576	0.000184948	0.0580213	0	5	0	
0.218333	-0.0110423	2.9543	0.000174119	0.0583344	0	5	0	
0.2185	0.000948764	-2.97702	0.000161105	0.0584324	0	5	0	
0.218667	-0.00300842	2.95973	0.000151529	0.0584856	0	5	0	
0.218833	0.0114262	-2.972	0.000173454	0.0584417	0	5	0	
0.219	-0.0186324	2.95197	0.000249028	0.0584194	0	5	0	
0.219167	0.012576	-2.97218	0.00030594	0.0583089	0	5	0	
0.219333	-0.0053962	2.96291	0.000273695	0.0582907	0	5	0	
0.2195	0.00562585	-2.98703	0.000190267	0.0582833	0	5	0	
0.219667	-0.00866924	2.96389	0.000153673	0.0583346	0	5	0	
0.219833	0.00743654	-2.99319	0.0001376	0.058308	0	5	0	
0.22	-0.00958916	2.98187	0.000162916	0.0583209	0	5	0	
0.220167	0.00306794	-3.00286	0.000169232	0.0583158	0	5	0	
0.220333	-0.00637399	2.98264	0.00016792	0.058386	0	5	0	
0.2205	0.00839731	-3.00626	0.00017562	0.0583788	0	5	0	
0.220667	-0.0131677	2.98481	0.000197041	0.0584033	0	5	0	
0.220833	0.0126454	-3.01202	0.00022481	0.0583642	0	5	0	
0.221	-0.00889047	2.98995	0.000232357	0.0584001	0	5	0	
0.221167	0.00291764	-3.0051	0.00019495	0.0583346	0	5	0	
0.221333	-0.00835264	3.00116	0.000164313	0.0583682	0	5	0	
0.2215	0.00717904	-3.02196	0.000127886	0.0583508	0	5	0	
0.221667	-0.00661899	2.9951	0.000129316	0.0584178	0	5	0	
0.221833	0.0047173	-3.02451	0.000126911	0.0583933	0	5	0	
0.222	-0.00236314	3.02227	0.000156679	0.0584572	0	5	0	
0.222167	0.00704468	-3.03089	0.000209538	0.058506	0	5	0	
0.222333	-0.0170404	3.00894	0.000251895	0.0585389	0	5	0	
0.2225	0.00920028	-3.03562	0.000254941	0.0584404	0	5	0	
0.222667	-0.00702596	3.03087	0.00020818	0.0584423	0	5	0	
0.222833	0.00802285	-3.04732	0.00018235	0.0585127	0	5	0	
0.223	-0.00383613	3.02744	0.000149636	0.0585982	0	5	0	
0.223167	0.000737267	-3.04075	0.000119762	0.0585914	0	5	0	
0.223333	-0.00470744	3.02279	0.000117073	0.0584985	0	5	0	
0.2235	0.0117392	-3.05239	0.000164326	0.0584578	0	5	0	
0.223667	-0.0137408	3.02435	0.000223554	0.0584315	0	5	0	
0.223833	0.00747821	-3.04346	0.00023817	0.0583998	0	5	0	
0.224	-0.00317144	3.04111	0.000177452	0.0583779	0	5	0	
0.224167	0.00285195	-3.06107	0.000147129	0.0584308	0	5	0	
0.224333	-0.0040902	3.04212	0.000132038	0.0585089	0	5	0	
0.2245	0.00723644	-3.06647	0.000170936	0.0585811	0	5	0	
0.224667	-0.0105132	3.0371	0.000206515	0.0585356	0	5	0	
0.224833	0.00955641	-3.05999	0.000227379	0.0584731	0	5	0	
0.225	-0.0055226	3.04165	0.000204453	0.0584052	0	5	0	
0.225167	0.00341169	-3.05608	0.000158011	0.0583634	0	5	0	
0.225333	-0.00565627	3.05085	0.000130962	0.0583597	0	5	0	
0.2255	0.00440938	-3.07989	0.000143897	0.0584385	0	5	0	
0.225667	-0.00127819	3.05332	0.000129626	0.0584975	0	5	0	
0.225833	-0.0011496	-3.07248	0.000102504	0.0585593	0	5	0	
0.226	-0.00505153	3.05111	8.47156E-05	0.0584862	0	5	0	
0.226167	0.00502775	-3.07905	0.000146754	0.0584918	0	5	0	
0.226333	-0.00808481	3.06485	0.0002215	0.0585037	0	5	0	
0.2265	0.0103082	-3.08424	0.000254034	0.0585659	0	5	0	
0.226667	-0.0082872	3.05671	0.00021708	0.0585243	0	5	0	
0.226833	0.000412271	-3.08794	0.000160917	0.0584975	0	5	0	
0.227	-0.00148317	3.08003	0.00010037	0.0584975	0	5	0	
0.227167	0.000517478	-3.10657	0.000116543	0.058648	0	5	0	
0.227333	-0.00318319	3.06765	0.000167819	0.0587064	0	5	0	
0.2275	0.00779806	-3.08128	0.000227937	0.0586443	0	5	0	
0.227667	-0.0128297	3.06268	0.000246562	0.0584672	0	5	0	
0.227833	0.0128729	-3.11538	0.000230574	0.0584463	0	5	0	
0.228	-0.00235253	3.10418	0.000238238	0.0586106	0	5	0	
0.228167	-0.0170631	-3.07229	0.000227073	0.0587315	0	5	0	
0.228333	0.0129828	3.02615	0.000289232	0.0585162	0	5	0	
0.2285	0.00921602	-3.08309	0.000436747	0.0581915	0	5	0	
0.228667	-0.0161586	3.07789	0.000518383	0.0580575	0	5	0	
0.228833	0.0163834	-3.08372	0.000476383	0.0581609	0	5	0	
0.229	-0.0155305	3.10033	0.000401312	0.0583911	0	5	0	
0.229167	0.0122575	-3.15431	0.00034627	0.0586633	0	5	0	
0.229333	-0.00180574	3.12791	0.000305003	0.0590272	0	5	0	
0.2295	-0.00336974	-3.0942	0.00018256	0.0591165	0	5	0	
0.229667	0.00308885	3.05118	0.000131079	0.058777	0	5	0	
0.229833	-0.00093218	-3.08274	0.000136625	0.0583237	0	5	0	
0.23	-0.000782986	3.07832	0.000233292	0.0581204	0	5	0	
0.230167	0.0126985	-3.09177	0.000328317	0.0581763	0	5	0	
0.230333	-0.0123437	3.07483	0.00033726	0.0582444	0	5	0	
0.2305	0.00522776	-3.10717	0.000284344	0.0582462	0	5	0	
0.230667	-0.00626955	3.09202	0.000207504	0.0582914	0	5	0	
0.230833	0.00689732	-3.11859	0.00020247	0.0584236	0	5	0	
0.231	0.00136116	3.10146	0.000154963	0.0585327	0	5	0	
0.231167	0.000225043	-3.11349	0.000181204	0.0586052	0	5	0	
0.231333	-0.0136452	3.07954	0.000290996	0.0585132	0	5	0	
0.2315	0.0182507	-3.10121	0.000397907	0.0583864	0	5	0	
0.231667	-0.0052609	3.08687	0.000378176	0.0582788	0	5	0	
0.231833	0.00206237	-3.11247	0.000244403	0.0583175	0	5	0	
0.232	-0.00633429	3.09206	0.000194203	0.0583582	0	5	0	
0.232167	0.00944703	-3.10103	0.000204376	0.0583475	0	5	0	
0.232333	-0.00706531	3.09635	0.000213797	0.0583015	0	5	0	
0.2325	0.00706002	-3.12393	0.00017333	0.0583737	0	5	0	
0.232667	-0.00103286	3.09966	0.000132725	0.0584453	0	5	0	
0.232833	0.00422553	-3.11582	0.000118461	0.0585299	0	5	0	
0.233	-0.00319322	3.10263	0.000131092	0.0584751	0	5	0	
0.233167	0.00671728	-3.11424	0.000138961	0.0584522	0	5	0	
0.233333	-0.0037233	3.08746	0.000150062	0.0583579	0	5	0	
0.2335	0.00143016	-3.11367	0.000128237	0.058341	0	5	0	
0.233667	0.00339009	3.1025	0.000140385	0.0583244	0	5	0	
0.233833	0.00582577	-3.12261	0.000220781	0.0584225	0	5	0	
0.234	-0.0150046	3.09973	0.000336966	0.0584247	0	5	0	
0.234167	0.0121785	-3.13696	0.000371119	0.0584955	0	5	0	
0.234333	-0.00672686	3.13218	0.000300038	0.0585882	0	5	0	
0.2345	0.00245092	-3.13594	0.000179256	0.0587454	0	5	0	
0.234667	0.00553273	3.08517	0.000105151	0.0586914	0	5	0	
0.234833	-0.00273444	-3.11149	7.42878E-05	0.058505	0	5	0	
0.235	-0.00369445	3.09517	0.000143222	0.0583091	0	5	0	
0.235167	0.0132852	-3.11229	0.000252441	0.0582672	0	5	0	
0.235333	-0.0134345	3.09487	0.000301791	0.0582826	0	5	0	
0.2355	-0.000874298	-3.12212	0.000260397	0.0583248	0	5	0	
0.235667	0.000853933	3.10102	0.000134501	0.0583623	0	5	0	
0.235833	0.0103609	-3.12412	0.000110407	0.0584208	0	5	0	
0.236	-0.0037247	3.10006	0.000144794	0.0584174	0	5	0	
0.236167	0.00395282	-3.12972	0.000229451	0.0584264	0	5	0	
0.236333	-0.0102388	3.12312	0.000276099	0.0584835	0	5	0	
0.2365	0.00863031	-3.1291	0.000267927	0.0585783	0	5	0	
0.236667	-0.00505492	3.0921	0.000223809	0.0585412	0	5	0	
0.236833	0.00388479	-3.11012	0.000189415	0.0584066	0	5	0	
0.237	-0.00452629	3.09362	0.000214463	0.0582703	0	5	0	
0.237167	0.0103952	-3.11919	0.000266576	0.0582751	0	5	0	
0.237333	-0.0101408	3.10422	0.000273171	0.0583289	0	5	0	
0.2375	0.00392415	-3.11564	0.000216433	0.0583889	0	5	0	
0.237667	-0.00261554	3.09796	0.000180768	0.0583652	0	5	0	
0.237833	0.00616791	-3.13191	0.000197658	0.0584018	0	5	0	
0.238	-0.00248957	3.11742	0.000211147	0.0584653	0	5	0	
0.238167	0.00489544	-3.12255	0.000201754	0.0585608	0	5	0	
0.238333	-0.0032123	3.10274	0.000203947	0.0585292	0	5	0	
0.2385	0.00705539	-3.11933	0.000227706	0.05848	0	5	0	
0.238667	-0.00481288	3.08956	0.000224533	0.0583861	0	5	0	
0.238833	0.00184136	-3.10512	0.000169875	0.0583209	0	5	0	
0.239	-0.00197144	3.09296	0.000132385	0.0582222	0	5	0	
0.239167	0.00240154	-3.11941	0.000134728	0.0582786	0	5	0	
0.239333	0.000886544	3.10528	0.000145425	0.0583435	0	5	0	
0.2395	0.00833839	-3.11817	0.000179943	0.05849	0	5	0	
0.239667	-0.0148577	3.09093	0.00025175	0.0584403	0	5	0	
0.239833	0.0174382	-3.11597	0.000324279	0.0584265	0	5	0	
0.24	-0.00487807	3.09589	0.000308425	0.0583235	0	5	0	
0.240167	0.000410374	-3.11593	0.000199563	0.0583817	0	5	0	
0.240333	-0.00469479	3.099	0.000148531	0.0583845	0	5	0	
0.2405	0.0102343	-3.11399	0.000190225	0.0584775	0	5	0	
0.240667	-0.00523941	3.09162	0.000270351	0.0584459	0	5	0	
0.240833	0.0022596	-3.12815	0.000261171	0.0585249	0	5	0	
0.241	0.00202619	3.11766	0.000233491	0.0585686	0	5	0	
0.241167	0.00263089	-3.13985	0.000231733	0.0587646	0	5	0	
0.241333	0.00161913	3.12602	0.000225082	0.058837	0	5	0	
0.2415	-0.00491185	-3.18511	0.000183484	0.0589679	0	5	0	
0.241667	0.000151034	3.12633	0.000154288	0.0592068	0	5	0	
0.241833	0.00474305	-3.08937	0.000150832	0.0590923	0	5	0	
0.242	0.00448093	3.06443	0.000128071	0.0587305	0	5	0	
0.242167	-0.00829582	-3.09269	0.000116809	0.0582436	0	5	0	
0.242333	-0.00185925	3.10957	0.000148753	0.0582571	0	5	0	
0.2425	0.00586353	-3.18839	0.000213382	0.058744	0	5	0	
0.242667	-0.010817	3.14164	0.000208562	0.0594067	0	5	0	
0.242833	0.00812783	-3.12616	0.000189272	0.0595579	0	5	0	
0.243	0.000537117	3.09006	0.000128768	0.0592422	0	5	0	
0.243167	-0.00239874	-3.08803	0.000107173	0.0586283	0	5	0	
0.243333	0.00181728	3.08234	5.99014E-05	0.0583885	0	5	0	
0.2435	-0.000273164	-3.11362	9.20232E-05	0.0584477	0	5	0	
0.243667	-0.00517828	3.09606	0.000123494	0.0585293	0	5	0	
0.243833	0.00693579	-3.11218	0.000158303	0.058676	0	5	0	
0.244	-0.00162659	3.08117	0.000140637	0.0586025	0	5	0	
0.244167	0.00320576	-3.09348	0.000112658	0.0585887	0	5	0	
0.244333	-0.00638199	3.07588	0.000128603	0.05847	0	5	0	
0.2445	0.00867478	-3.09682	0.00016365	0.0584923	0	5	0	
0.244667	-0.00615067	3.0821	0.000185056	0.0584541	0	5	0	
0.244833	0.00377852	-3.09772	0.00015673	0.0585661	0	5	0	
0.245	0.00867118	3.07229	0.000116147	0.0585146	0	5	0	
0.245167	-0.0109715	-3.08125	0.000128979	0.0585365	0	5	0	
0.245333	-0.00100554	3.05566	0.000199772	0.0583691	0	5	0	
0.2455	0.0111115	-3.0814	0.000282302	0.0583505	0	5	0	
0.245667	-0.00968931	3.07513	0.000286055	0.0583406	0	5	0	
0.245833	0.00345143	-3.09476	0.000226662	0.0585263	0	5	0	
0.246	0.002016	3.04514	0.000144386	0.0584796	0	5	0	
0.246167	0.00572196	-3.03637	0.000196893	0.0583023	0	5	0	
0.246333	-0.015631	3.05336	0.000293499	0.0580832	0	5	0	
0.2465	0.0147796	-3.11484	0.000366067	0.0583188	0	5	0	
0.246667	-0.0071137	3.07872	0.000302805	0.0586058	0	5	0	
0.246833	0.00721484	-3.06751	0.000207625	0.0587393	0	5	0	
0.247	0.00265787	3.04823	0.000168689	0.0585034	0	5	0	
0.247167	-0.0220456	-3.05176	0.000216464	0.0582836	0	5	0	
0.247333	0.0266356	3.02009	0.000321002	0.058068	0	5	0	
0.2475	-0.00279392	-3.03883	0.000488039	0.0580515	0	5	0	
0.247667	-0.0145494	3.04548	0.000576074	0.0580905	0	5	0	
0.247833	0.0116078	-3.08737	0.000526481	0.0584174	0	5	0	
0.248	-0.00220289	3.06734	0.000336854	0.0586367	0	5	0	
0.248167	0.00395848	-3.05815	0.000179659	0.058736	0	5	0	
0.248333	-0.000982866	3.03411	0.000132806	0.0585295	0	5	0	
0.2485	0.0061731	-3.05288	0.000153375	0.0584291	0	5	0	
0.248667	-0.00923127	3.04315	0.000171407	0.0583671	0	5	0	
0.248833	0.00020402	-3.05867	0.000158869	0.0585043	0	5	0	
0.249	0.00611786	3.03021	0.000129571	0.0584538	0	5	0	
0.249167	-0.0021144	-3.03905	0.000136896	0.0584642	0	5	0	
0.249333	-0.000794518	3.02348	0.000169768	0.058349	0	5	0	
0.2495	0.00118818	-3.04226	0.000197052	0.0583746	0	5	0	
0.249667	0.00158776	3.02431	0.00019312	0.0583509	0	5	0	
0.249833	0.00342151	-3.03914	0.000188737	0.0584257	0	5	0	
0.25	-0.0044697	3.01768	0.000211381	0.0583861	0	5	0	
0.250167	0.00292271	-3.02035	0.000218269	0.0583913	0	5	0	
0.250333	0.00241721	3.00789	0.000205709	0.0582692	0	5	0	
0.2505	-0.000254919	-3.03434	0.000225108	0.0583188	0	5	0	
0.250667	-0.0074973	3.00457	0.000285446	0.0583087	0	5	0	
0.250833	0.00958726	-3.01913	0.000302006	0.0583707	0	5	0	
0.251	0.00080209	3.00607	0.000243293	0.0583015	0	5	0	
0.251167	-0.00618036	-3.01242	0.000166376	0.0583088	0	5	0	
0.251333	0.00790125	2.99126	0.000170225	0.0582546	0	5	0	
0.2515	-0.00641634	-3.0101	0.000201371	0.0583158	0	5	0	
0.251667	0.00381685	2.98232	0.000265414	0.058268	0	5	0	
0.251833	0.010755	-3.00599	0.000360077	0.0583174	0	5	0	
0.252	-0.020074	3.00302	0.000423699	0.0583153	0	5	0	
0.252167	0.00946173	-3.02128	0.000400384	0.0584826	0	5	0	
0.252333	-0.000734261	2.98561	0.000287188	0.0584874	0	5	0	
0.2525	-0.00193424	-2.9759	0.00015487	0.0583788	0	5	0	
0.252667	0.00253276	2.9576	0.000107006	0.058113	0	5	0	
0.252833	-0.00114624	-3.00158	0.000108541	0.0581263	0	5	0	
0.253	-0.00370723	2.97999	0.000221796	0.058195	0	5	0	
0.253167	0.0101378	-2.98594	0.000312827	0.058356	0	5	0	
0.253333	-0.00709438	2.98541	0.000335428	0.058356	0	5	0	
0.2535	0.00164343	-2.99468	0.000249697	0.0584354	0	5	0	
0.253667	-0.00233881	2.94959	0.00016199	0.0583444	0	5	0	
0.253833	0.00437116	-2.9635	0.00015044	0.0582674	0	5	0	
0.254	-0.00232284	2.96472	0.000192836	0.0581697	0	5	0	
0.254167	0.00564735	-2.98693	0.000208223	0.0583412	0	5	0	
0.254333	-0.00478026	2.96589	0.000199999	0.0584688	0	5	0	
0.2545	0.00214648	-2.97245	0.000169351	0.0585615	0	5	0	
0.254667	0.000785277	2.9517	0.000141846	0.0584715	0	5	0	
0.254833	0.000374181	-2.95916	0.000131393	0.0584578	0	5	0	
0.255	-0.00595953	2.94972	0.000169091	0.0583724	0	5	0	
0.255167	0.00820498	-2.96205	0.000197199	0.0583975	0	5	0	
0.255333	-0.000720527	2.94692	0.000182953	0.0583698	0	5	0	
0.2555	-0.00602878	-2.9541	0.000148365	0.058456	0	5	0	
0.255667	-0.00295173	2.9324	0.000179857	0.0583858	0	5	0	
0.255833	0.00861968	-2.93659	0.000226022	0.0583743	0	5	0	
0.256	-0.00687251	2.9258	0.000248454	0.0582438	0	5	0	
0.256167	0.000183302	-2.94593	0.000195023	0.0583315	0	5	0	
0.256333	-0.000811727	2.93432	0.000142873	0.0583951	0	5	0	
0.2565	0.000386646	-2.93721	0.000126248	0.0585593	0	5	0	
0.256667	0.0011963	2.912	0.000152557	0.0584665	0	5	0	
0.256833	0.000481956	-2.92493	0.000184968	0.0584162	0	5	0	
0.257	-0.00264344	2.9067	0.00018739	0.0582632	0	5	0	
0.257167	0.00105814	-2.91365	0.000157824	0.0583118	0	5	0	
0.257333	0.00311182	2.90704	0.000113189	0.0582897	0	5	0	
0.2575	-0.00537133	-2.93179	0.000114018	0.0584706	0	5	0	
0.257667	0.00454131	2.91213	0.000183561	0.0585232	0	5	0	
0.257833	0.0039312	-2.91905	0.000263725	0.0586193	0	5	0	
0.258	-0.00652475	2.89884	0.000285871	0.0585085	0	5	0	
0.258167	0.00930148	-2.90618	0.000255351	0.0585242	0	5	0	
0.258333	-0.00421625	2.89568	0.000205474	0.0584552	0	5	0	
0.2585	-0.00206378	-2.89982	0.000141854	0.0585551	0	5	0	
0.258667	0.00729113	2.88481	0.00010882	0.0585228	0	5	0	
0.258833	-0.00181313	-2.90144	0.000139654	0.0586476	0	5	0	
0.259	-0.00259123	2.88282	0.000227709	0.0585869	0	5	0	
0.259167	0.00625665	-2.88378	0.00025821	0.0586218	0	5	0	
0.259333	-0.0014541	2.87367	0.000221809	0.0585112	0	5	0	
0.2595	-0.00017362	-2.88485	0.000142959	0.0585897	0	5	0	
0.259667	0.000968724	2.87461	0.000106247	0.0585841	0	5	0	
0.259833	-0.00368743	-2.87398	0.000121586	0.0586674	0	5	0	
0.26	0.00430162	2.8546	0.000182923	0.0585361	0	5	0	
0.260167	0.00246419	-2.86501	0.000233937	0.0585299	0	5	0	
0.260333	-0.00473205	2.84574	0.000247653	0.0584076	0	5	0	
0.2605	0.00698865	-2.84637	0.000219903	0.0584312	0	5	0	
0.260667	-0.00416394	2.83802	0.000189567	0.0583429	0	5	0	
0.260833	-2.32503E-05	-2.84854	0.0001407	0.0584442	0	5	0	
0.261	0.00359843	2.8326	0.000101699	0.0584333	0	5	0	
0.261167	-0.00351552	-2.84119	7.59833E-05	0.0585068	0	5	0	
0.261333	0.000340046	2.82507	0.000113388	0.0583837	0	5	0	
0.2615	0.0063584	-2.83365	0.000190945	0.0584174	0	5	0	
0.261667	-0.00878478	2.81308	0.000267245	0.0583278	0	5	0	
0.261833	0.0105575	-2.82276	0.000262346	0.0583812	0	5	0	
0.262	0.000998329	2.80626	0.000209381	0.0583063	0	5	0	
0.262167	-0.00482968	-2.81504	0.00012756	0.0583852	0	5	0	
0.262333	0.00812738	2.80399	0.000113144	0.0583374	0	5	0	
0.2625	-0.00568351	-2.81166	0.00015156	0.0584154	0	5	0	
0.262667	0.00184999	2.79229	0.000247852	0.0583158	0	5	0	
0.262833	0.00822801	-2.8005	0.000328301	0.0583423	0	5	0	
0.263	-0.00897294	2.76877	0.000341584	0.0582226	0	5	0	
0.263167	0.00750475	-2.76804	0.000254811	0.0582121	0	5	0	
0.263333	0.000814267	2.78133	0.00019149	0.0581693	0	5	0	
0.2635	-0.0114454	-2.80578	0.000145286	0.0583779	0	5	0	
0.263667	0.0150176	2.77042	0.000192544	0.0584102	0	5	0	
0.263833	-0.00411003	-2.73883	0.000284278	0.0582653	0	5	0	
0.264	-0.0101031	2.71448	0.000429521	0.0578574	0	5	0	
0.264167	0.0132295	-2.75766	0.000469443	0.0578228	0	5	0	
0.264333	-0.00772483	2.76818	0.000404804	0.0580124	0	5	0	
0.2645	0.007627	-2.76352	0.000295054	0.0583285	0	5	0	
0.264667	-0.00720689	2.74041	0.00023641	0.0583256	0	5	0	
0.264833	-0.00730882	-2.75331	0.000217938	0.0582679	0	5	0	
0.265	0.0190756	2.74034	0.000198518	0.0581354	0	5	0	
0.265167	-0.00759577	-2.7372	0.000281136	0.0581921	0	5	0	
0.265333	-0.00453757	2.73481	0.000373725	0.0581803	0	5	0	
0.2655	0.000401987	-2.74578	0.000391736	0.0583422	0	5	0	
0.265667	0.000204876	2.74516	0.000308422	0.0584514	0	5	0	
0.265833	0.00867757	-2.74267	0.000207816	0.0586281	0	5	0	
0.266	-0.000543617	2.69926	0.000165827	0.0584508	0	5	0	
0.266167	-0.0011482	-2.68952	0.000123393	0.0583015	0	5	0	
0.266333	-0.00319195	2.72755	0.000124149	0.0582411	0	5	0	
0.2665	-0.00150171	-2.75623	0.000132486	0.0586284	0	5	0	
0.266667	0.00481805	2.72216	0.000142779	0.0588047	0	5	0	
0.266833	-0.00224836	-2.69992	0.00014736	0.0588106	0	5	0	
0.267	-0.00163071	2.6867	0.000208995	0.0584655	0	5	0	
0.267167	0.0029526	-2.68957	0.000265949	0.0583579	0	5	0	
0.267333	0.000129126	2.67881	0.000248173	0.0582332	0	5	0	
0.2675	-0.000170009	-2.69401	0.000186745	0.0583756	0	5	0	
0.267667	-0.00208595	2.68082	0.000160816	0.0584477	0	5	0	
0.267833	-0.00413349	-2.68024	0.000145626	0.0586129	0	5	0	
0.268	0.00807819	2.6681	0.000125723	0.0585372	0	5	0	
0.268167	-0.00693634	-2.67519	0.000122119	0.0585278	0	5	0	
0.268333	-0.00061054	2.66421	0.000174973	0.0584368	0	5	0	
0.2685	0.00488938	-2.65736	0.000209241	0.0585054	0	5	0	
0.268667	0.00282961	2.63025	0.000181982	0.058384	0	5	0	
0.268833	-0.00757751	-2.6392	0.000137825	0.0583513	0	5	0	
0.269	0.00184184	2.63585	0.000135751	0.0582533	0	5	0	
0.269167	0.00652379	-2.65276	0.000211575	0.0583978	0	5	0	
0.269333	-0.0137336	2.64483	0.000263454	0.0584545	0	5	0	
0.2695	0.00654239	-2.62285	0.000258906	0.0584626	0	5	0	
0.269667	0.00958036	2.59249	0.000205368	0.0581565	0	5	0	
0.269833	-0.0122637	-2.604	0.000172428	0.0580534	0	5	0	
0.27	0.00392978	2.60713	0.000238308	0.0580704	0	5	0	
0.270167	0.00440001	-2.62568	0.000290396	0.0583846	0	5	0	
0.270333	-0.000182788	2.62077	0.000268087	0.0585075	0	5	0	
0.2705	-0.00520091	-2.61117	0.000227054	0.0586234	0	5	0	
0.270667	-0.00353859	2.59281	0.000228708	0.0584731	0	5	0	
0.270833	-0.00324971	-2.57706	0.000200341	0.0583964	0	5	0	
0.271	0.0179905	2.56069	0.00017999	0.0581677	0	5	0	
0.271167	-0.00244094	-2.59031	0.000187888	0.0583176	0	5	0	
0.271333	-0.0129992	2.60662	0.000343477	0.0585239	0	5	0	
0.2715	0.00471061	-2.58874	0.000336823	0.0588425	0	5	0	
0.271667	0.00785797	2.55184	0.00029705	0.0586314	0	5	0	
0.271833	-0.00837698	-2.51714	0.000164161	0.0583679	0	5	0	
0.272	0.00628081	2.46309	0.000190054	0.0581078	0	5	0	
0.272167	0.00336367	-2.49399	0.000184943	0.0583226	0	5	0	
0.272333	-0.00400495	2.56779	0.000210895	0.058641	0	5	0	
0.2725	-0.000899732	-2.57105	0.000153181	0.0590484	0	5	0	
0.272667	0.0057983	2.5419	0.000108647	0.0589441	0	5	0	
0.272833	-0.00209226	-2.51056	9.84115E-05	0.0586242	0	5	0	
0.273	-0.00137916	2.43136	0.000151442	0.0578701	0	5	0	
0.273167	0.00402996	-2.41907	0.000173625	0.0572184	0	5	0	
0.273333	0.00301864	2.45794	0.000158267	0.0567985	0	5	0	
0.2735	-0.00346077	-2.48302	0.000130724	0.0571174	0	5	0	
0.273667	0.0030561	2.49942	0.000147777	0.0577109	0	5	0	
0.273833	-0.00323027	-2.50224	0.000162952	0.0582585	0	5	0	
0.274	0.00400908	2.48331	0.000168732	0.0582927	0	5	0	
0.274167	-0.00081525	-2.48229	0.000195097	0.0583565	0	5	0	
0.274333	-0.000955264	2.47825	0.000241775	0.0582865	0	5	0	
0.2745	-0.000167109	-2.48046	0.00023281	0.0583951	0	5	0	
0.274667	0.00483404	2.47151	0.000164795	0.0583517	0	5	0	
0.274833	-0.00252961	-2.46351	0.000102534	0.0583921	0	5	0	
0.275	0.00090853	2.45264	0.000135135	0.0582533	0	5	0	
0.275167	0.00145909	-2.44953	0.00018981	0.0583201	0	5	0	
0.275333	0.00248583	2.44857	0.000193859	0.0582977	0	5	0	
0.2755	-0.00827314	-2.44089	0.000160396	0.0584192	0	5	0	
0.275667	0.00203659	2.42892	0.000129176	0.0583026	0	5	0	
0.275833	-0.000189686	-2.42759	0.000148949	0.0583033	0	5	0	
0.276	0.00230515	2.41194	0.000159368	0.0581827	0	5	0	
0.276167	-0.00255608	-2.40611	0.000164672	0.0582363	0	5	0	
0.276333	0.00446922	2.39522	0.000144755	0.0581257	0	5	0	
0.2765	-0.00697468	-2.39597	0.000130882	0.0581524	0	5	0	
0.276667	1.94233E-07	2.39746	0.000136032	0.0580715	0	5	0	
0.276833	0.00151836	-2.39289	0.000181387	0.0581357	0	5	0	
0.277	-0.0049919	2.37902	0.000190078	0.0580322	0	5	0	
0.277167	0.000204252	-2.37607	0.000176222	0.0580401	0	5	0	
0.277333	-0.00149692	2.37285	0.000152391	0.0579471	0	5	0	
0.2775	0.00284099	-2.37138	0.000164919	0.0580683	0	5	0	
0.277667	-0.00125676	2.36807	0.00017608	0.0580982	0	5	0	
0.277833	-0.000318402	-2.36303	0.000189867	0.0582516	0	5	0	
0.278	-0.00675161	2.35967	0.00021149	0.0582343	0	5	0	
0.278167	0.00246502	-2.35083	0.000211146	0.0583411	0	5	0	
0.278333	0.00588861	2.34368	0.000154595	0.0582731	0	5	0	
0.2785	-0.0125988	-2.32286	0.000140906	0.0583128	0	5	0	
0.278667	0.00679134	2.31678	0.000187183	0.0581544	0	5	0	
0.278833	-0.00387729	-2.3129	0.000278755	0.0581701	0	5	0	
0.279	-0.00138904	2.3113	0.000293104	0.0580744	0	5	0	
0.279167	0.00183556	-2.30865	0.000246865	0.0581825	0	5	0	
0.279333	0.000793977	2.30394	0.000162974	0.0581272	0	5	0	
0.2795	-0.00489652	-2.28984	0.00011312	0.058193	0	5	0	
0.279667	0.00219734	2.28268	0.000113081	0.058064	0	5	0	
0.279833	-0.00232676	-2.27753	0.000145121	0.0580765	0	5	0	
0.28	0.000183904	2.26572	0.000159421	0.057925	0	5	0	
0.280167	0.00112675	-2.25988	0.00016315	0.0579204	0	5	0	
0.280333	0.000701235	2.2563	0.000152861	0.0578237	0	5	0	
0.2805	-0.00458807	-2.24784	0.000139306	0.0579359	0	5	0	
0.280667	0.00361327	2.24996	0.0001361	0.0579343	0	5	0	
0.280833	-0.000311941	-2.24776	0.000160468	0.0580558	0	5	0	
0.281	-9.08175E-05	2.24203	0.000177223	0.0579812	0	5	0	
0.281167	-0.0013987	-2.23179	0.000164838	0.0580341	0	5	0	
0.281333	0.0027611	2.21977	0.000159816	0.057927	0	5	0	
0.2815	0.00502555	-2.21095	0.000163627	0.0580004	0	5	0	
0.281667	-0.00174615	2.22726	0.000150362	0.058036	0	5	0	
0.281833	-0.0116663	-2.21647	0.000111242	0.0582123	0	5	0	
0.282	0.0116038	2.17776	0.000140321	0.0580063	0	5	0	
0.282167	0.00253749	-2.14017	0.00028177	0.0577925	0	5	0	
0.282333	-0.0144908	2.17219	0.000427657	0.0576723	0	5	0	
0.2825	0.0159086	-2.21289	0.000429371	0.0581514	0	5	0	
0.282667	-0.00322429	2.20382	0.000333683	0.0584437	0	5	0	
0.282833	-0.000820037	-2.16314	0.000185477	0.0584176	0	5	0	
0.283	-0.00247711	2.15525	0.000124402	0.0579453	0	5	0	
0.283167	-0.0088793	-2.14068	8.22177E-05	0.0576968	0	5	0	
0.283333	0.0156042	2.10321	0.000140342	0.0573402	0	5	0	
0.2835	0.00162031	-2.057	0.000285058	0.0571491	0	5	0	
0.283667	-0.0164919	2.05867	0.000429829	0.057093	0	5	0	
0.283833	0.0161771	-2.10515	0.000459985	0.0576638	0	5	0	
0.284	0.00071026	2.1524	0.000329135	0.0582213	0	5	0	
0.284167	-0.0081759	-2.12342	0.000169209	0.058454	0	5	0	
0.284333	0.00639314	2.08573	0.000115522	0.0579908	0	5	0	
0.2845	-0.000566328	-2.07686	0.000157127	0.0576217	0	5	0	
0.284667	0.000344734	2.0904	0.00020148	0.0573649	0	5	0	
0.284833	-0.00216627	-2.05547	0.00018699	0.0573269	0	5	0	
0.285	0.00356382	2.03245	0.00021654	0.0569876	0	5	0	
0.285167	0.0112469	-2.02518	0.000287849	0.0569294	0	5	0	
0.285333	-0.0084568	2.05243	0.000297995	0.0570765	0	5	0	
0.2855	-0.00143875	-2.05609	0.000227655	0.057562	0	5	0	
0.285667	0.00627591	2.05868	0.000125449	0.0577004	0	5	0	
0.285833	-0.00615826	-2.05487	0.000121419	0.0578789	0	5	0	
0.286	0.00624212	2.05887	0.000136892	0.0577948	0	5	0	
0.286167	-0.00949541	-1.99125	0.000176746	0.0575895	0	5	0	
0.286333	0.00587919	1.86188	0.000213698	0.0568756	0	5	0	
0.2865	0.0019765	-1.71237	0.000259903	0.0565442	0	5	0	
0.286667	-0.00379347	1.76999	0.0002753	0.0569176	0	5	0	
0.286833	3.37858E-05	-1.89629	0.000210398	0.0582565	0	5	0	
0.287	0.00531958	1.9694	0.000124042	0.059247	0	5	0	
0.287167	-0.00680604	-1.88949	9.43463E-05	0.059474	0	5	0	
0.287333	-0.000732512	1.72638	0.000152077	0.0583302	0	5	0	
0.2875	0.000766571	-1.57445	0.000179623	0.0563932	0	5	0	
0.287667	-0.000358012	1.65375	0.00013165	0.0543542	0	5	0	
0.287833	-0.00604759	-1.72964	7.20236E-05	0.0535574	0	5	0	
0.288	0.00959341	1.80075	8.33931E-05	0.0538729	0	5	0	
0.288167	-0.00805036	-1.79005	0.000175261	0.0548124	0	5	0	
0.288333	-3.25066E-06	1.76925	0.000268488	0.0547934	0	5	0	
0.2885	0.000548808	-1.7308	0.000274799	0.0540394	0	5	0	
0.288667	0.000292916	1.76492	0.000217529	0.0532102	0	5	0	
0.288833	-0.00188727	-1.7854	0.000197835	0.0536691	0	5	0	
0.289	-0.00675974	1.87097	0.000204915	0.0550373	0	5	0	
0.289167	-0.00887766	-1.87327	0.000194986	0.0564441	0	5	0	
0.289333	0.0126605	1.85729	0.000165519	0.0567984	0	5	0	
0.2895	0.00038884	-1.82863	0.000228686	0.0568077	0	5	0	
0.289667	-0.00607725	1.84851	0.000278558	0.0567217	0	5	0	
0.289833	-0.00934061	-1.87013	0.000252341	0.0571883	0	5	0	
0.29	0.0102454	1.89889	0.000166417	0.0575821	0	5	0	
0.290167	-0.00784788	-1.88575	0.000202404	0.0578692	0	5	0	
0.290333	0.00322852	1.87841	0.000256978	0.0577038	0	5	0	
0.2905	-0.0066232	-1.85388	0.00028061	0.0576257	0	5	0	
0.290667	0.00163345	1.85987	0.000222749	0.0574641	0	5	0	
0.290833	-0.00453042	-1.85784	0.000188572	0.057536	0	5	0	
0.291	0.00449019	1.84842	0.000156589	0.0574265	0	5	0	
0.291167	-0.00758959	-1.80462	0.000140309	0.0573565	0	5	0	
0.291333	0.0098268	1.81669	0.0001425	0.0569808	0	5	0	
0.2915	-0.00410421	-1.82135	0.000189231	0.0570641	0	5	0	
0.291667	-0.00453658	1.85276	0.000244847	0.0571383	0	5	0	
0.291833	0.00117602	-1.75505	0.00024488	0.0569558	0	5	0	
0.292	0.000988637	1.46366	0.000174731	0.0556689	0	5	0	
0.292167	-0.00238051	-1.11802	0.00011093	0.0542935	0	5	0	
0.292333	-0.00068357	1.18842	0.000123008	0.0541973	0	5	0	
0.2925	0.00149038	-1.22185	0.000159877	0.0563003	0	5	0	
0.292667	0.00596995	1.40895	0.000173256	0.0587614	0	5	0	
0.292833	-0.00232045	-1.25072	0.000190744	0.0602516	0	5	0	
0.293	-0.00121665	0.813066	0.000248421	0.0577941	0	5	0	
0.293167	0.000589944	-0.126841	0.000254821	0.0510144	0	5	0	
0.293333	0.00423212	-0.303484	0.000189574	0.0407991	0	5	0	
0.2935	-0.00630839	0.592029	0.000146627	0.0322579	0	5	0	
0.293667	0.00129975	-0.574212	0.000181671	0.0283262	0	5	0	
0.293833	-0.0026303	0.596128	0.000238121	0.028799	0	5	0	
0.294	0.00687902	-0.520403	0.000229341	0.0291755	0	5	0	
0.294167	-0.0103401	0.423174	0.00021353	0.026429	0	5	0	
0.294333	0.00113447	-0.240776	0.000219656	0.0202212	0	5	0	
0.2945	0.00353353	-0.0190913	0.000264055	0.0127272	0	5	0	
0.294667	-0.00240806	0.12069	0.000236053	0.007173	0	5	0	
0.294833	-0.00423102	-0.148083	0.000166835	0.00420886	0	5	0	
0.295	0.00117112	0.136801	0.000113587	0.00333766	0	5	0	
0.295167	-0.00121679	-0.0888828	0.00014167	0.00292951	0	5	0	
0.295333	-0.00202825	0.0423312	0.000155894	0.0022873	0	5	0	
0.2955	-0.00582007	-0.0208954	0.000148465	0.00152175	0	5	0	
0.295667	0.00136238	0.0119944	0.000160942	0.000856896	0	5	0	
0.295833	0.00455216	-0.00641722	0.000224564	0.000449934	0	5	0	
0.296	-0.00105804	-0.000192694	0.000240061	0.000228594	0	5	0	
0.296167	-0.0074472	0.00319326	0.000194801	0.000149665	0	5	0	
0.296333	0.0108851	-0.00125604	0.000175768	8.91594E-05	0	5	0	
0.2965	-0.0110678	0.00401243	0.000226826	0.000101316	0	5	0	
0.296667	0.00107547	-0.00679174	0.00034742	0.000134115	0	5	0	
0.296833	0.0231691	-0.0198847	0.000529898	0.000297816	0	5	0	
0.297	-0.0334536	0.0239716	0.000715925	0.000479825	0	5	0	
0.297167	0.0197769	-0.0244879	0.000703522	0.000860981	0	5	0	
0.297333	0.0149793	-0.0251949	0.000642592	0.00145211	0	5	0	
0.2975	-0.0318411	0.0729813	0.000460479	0.00195773	0	5	0	
0.297667	0.0185169	-0.0472921	0.000563895	0.00194164	0	5	0	
0.297833	0.00104005	-0.0216541	0.000641472	0.00131899	0	5	0	
0.298	0.00358296	0.0344744	0.000744358	0.000844761	0	5	0	
0.298167	0.00161859	-0.0433959	0.000695291	0.000663306	0	5	0	
0.298333	-0.0136716	0.0641544	0.000580627	0.000867913	0	5	0	
0.2985	0.00106212	-0.078333	0.000432292	0.00105081	0	5	0	
0.298667	0.0240399	0.0578813	0.000333596	0.00124498	0	5	0	
0.298833	-0.0288282	-0.022352	0.000326336	0.00126404	0	5	0	
0.299	0.00832008	0.0115109	0.000507037	0.00101559	0	5	0	
0.299167	0.0106817	-0.0188286	0.00063994	0.000666811	0	5	0	
0.299333	-0.00478733	0.0129952	0.000531978	0.000410189	0	5	0	
0.2995	-0.0136483	0.0145488	0.000347116	0.000489448	0	5	0	
0.299667	0.0136332	-0.0282957	0.000195856	0.000623762	0	5	0	
0.299833	-0.00513017	0.0104757	0.00028855	0.000610799	0	5	0	
0.3	-0.00391435	0.0131045	0.000331742	0.000448549	0	5	0	
0.300167	-0.000102239	0.00489653	0.000263836	0.000359317	0	5	0	
0.300333	0.0190416	-0.0519052	0.000237956	0.000610524	0	5	0	
0.3005	-0.0298148	0.0618433	0.000261848	0.000848743	0	5	0	
0.300667	0.0128138	-0.0158409	0.000452921	0.00101884	0	5	0	
0.300833	0.00724348	-0.0223105	0.00059921	0.000997751	0	5	0	
0.301	-0.0140593	0.0191481	0.000611158	0.00076488	0	5	0	
0.301167	0.0083299	0.000580795	0.000478506	0.000597904	0	5	0	
0.301333	-0.00612382	-0.00388717	0.000273765	0.000352843	0	5	0	
0.3015	0.00311637	-0.0112671	0.000173291	0.000278327	0	5	0	
0.301667	0.0155669	0.0123292	0.000199486	0.000211516	0	5	0	
0.301833	-0.0244169	0.00765322	0.000245785	0.000354256	0	5	0	
0.302	0.0109247	-0.0202278	0.000377819	0.00050943	0	5	0	
0.302167	-0.00139679	0.0110867	0.00045148	0.00049972	0	5	0	
0.302333	-0.000263595	0.000197586	0.000418827	0.000343771	0	5	0	
0.3025	-0.00495647	0.00596157	0.000261695	0.000174852	0	5	0	
0.302667	0.0123505	-0.0137868	0.000152742	0.000150696	0	5	0	
0.302833	-0.00766493	-0.000457073	0.000176167	0.000210282	0	5	0	
0.303	0.00137551	0.0176825	0.000281969	0.000330077	0	5	0	
0.303167	0.00245977	-0.00783233	0.000328736	0.000358208	0	5	0	
0.303333	-0.00471771	-0.00647113	0.00029028	0.000292774	0	5	0	
0.3035	-0.00302924	0.00660669	0.000210053	0.000184857	0	5	0	
0.303667	0.00243803	-0.000153182	0.000148541	0.000176352	0	5	0	
0.303833	-0.000691531	0.00703734	0.000128031	0.000163204	0	5	0	
0.304	0.0080923	-0.0163811	0.000113958	0.000230675	0	5	0	
0.304167	-0.0132426	0.0154874	0.000139757	0.000354982	0	5	0	
0.304333	0.00697881	-0.00593872	0.000223308	0.000445539	0	5	0	
0.3045	-0.00612927	0.00977884	0.000289833	0.00039981	0	5	0	
0.304667	0.00779961	-0.0128144	0.000274968	0.000298463	0	5	0	
0.304833	-0.00595749	0.00693685	0.00022906	0.000263134	0	5	0	
0.305	0.00124691	-0.0193409	0.000225721	0.000300936	0	5	0	
0.305167	-0.00266625	0.0324809	0.000230138	0.000377835	0	5	0	
0.305333	0.00224669	-0.0149232	0.000201303	0.000428446	0	5	0	
0.3055	-0.0050295	-0.00189851	0.000129531	0.000429454	0	5	0	
0.305667	0.0103482	-0.00691257	0.000125123	0.000304694	0	5	0	
0.305833	-0.0117045	0.0199114	0.000127353	0.000278954	0	5	0	
0.306	0.0100357	-0.0198007	0.00019435	0.000301673	0	5	0	
0.306167	-0.00946869	0.00653084	0.00023308	0.000381566	0	5	0	
0.306333	-0.00126366	0.00125466	0.000310364	0.000330679	0	5	0	
0.3065	0.00718567	-0.00959036	0.000325834	0.000332101	0	5	0	
0.306667	-0.00625181	0.038922	0.000252921	0.000427902	0	5	0	
0.306833	-0.0031084	-0.0385248	0.000188935	0.000608905	0	5	0	
0.307	0.0155875	-0.00629955	0.000148082	0.000657913	0	5	0	
0.307167	-0.0174353	0.0232076	0.000231804	0.000515158	0	5	0	
0.307333	0.00384363	0.00371893	0.000322549	0.000493947	0	5	0	
0.3075	0.00320305	-0.0232585	0.000385027	0.00054303	0	5	0	
0.307667	-0.00110582	0.00357437	0.000318011	0.000557054	0	5	0	
0.307833	-0.00755725	0.0173804	0.000210021	0.000431245	0	5	0	
0.308	0.00773869	0.000924045	0.000157339	0.000497728	0	5	0	
0.308167	-0.0093297	-0.0274034	0.000188316	0.000592603	0	5	0	
0.308333	0.0119281	0.00651284	0.000221609	0.000612101	0	5	0	
0.3085	-0.0104129	0.024123	0.000219161	0.000559515	0	5	0	
0.308667	0.00996376	-0.0285345	0.00022558	0.000504617	0	5	0	
0.308833	-0.000183877	-0.00293475	0.000262088	0.000670693	0	5	0	
0.309	-0.00527054	0.0218667	0.000269245	0.000666526	0	5	0	
0.309167	-0.00186339	-0.00767358	0.000203987	0.000606229	0	5	0	
0.309333	0.0116086	-0.0135778	0.000134933	0.000414658	0	5	0	
0.3095	-0.00427867	0.00661915	0.000119504	0.000249208	0	5	0	
0.309667	0.00130612	0.00423161	0.000131047	0.000291486	0	5	0	
0.309833	-0.00612219	-0.00194223	0.000112492	0.000205702	0	5	0	
0.31	0.0135406	-0.0147187	0.000123953	0.000208643	0	5	0	
0.310167	-0.00292483	0.0157076	0.000211985	0.000179938	0	5	0	
0.310333	0.000221015	-0.00564103	0.000289698	0.000270778	0	5	0	
0.3105	-0.00367223	0.00358753	0.00024408	0.000275133	0	5	0	
0.310667	0.00684202	-0.0144592	0.000157651	0.000246674	0	5	0	
0.310833	-0.00477006	0.0157307	0.000124295	0.000223098	0	5	0	
0.311	0.00356287	-0.00158912	0.00018743	0.000242937	0	5	0	
0.311167	-0.00371422	-0.0150144	0.00019623	0.000228186	0	5	0	
0.311333	0.0108764	-0.00478051	0.000190314	0.000255708	0	5	0	
0.3115	-0.00473251	0.0227695	0.00015742	0.000245056	0	5	0	
0.311667	-8.17039E-05	-0.0117025	0.000178613	0.000331648	0	5	0	
0.311833	-0.00207225	-0.00673064	0.000168638	0.00032531	0	5	0	
0.312	0.0062545	0.00239719	0.000160762	0.000294661	0	5	0	
0.312167	-0.00339952	-0.00522643	0.000137098	0.000201947	0	5	0	
0.312333	0.00731997	0.00217179	0.000130696	0.000199586	0	5	0	
0.3125	-0.00874548	0.00879083	0.000135231	0.00024257	0	5	0	
0.312667	0.00945727	-0.0204254	0.000178641	0.000313703	0	5	0	
0.312833	0.0020216	0.0170524	0.000255578	0.000323274	0	5	0	
0.313	-0.00612496	-0.0139625	0.000297531	0.000420809	0	5	0	
0.313167	-0.00216798	0.0105047	0.000243991	0.000486695	0	5	0	
0.313333	0.0129282	-0.0148552	0.000175261	0.000492546	0	5	0	
0.3135	-0.0113184	0.0243647	0.000173022	0.000452629	0	5	0	
0.313667	0.000331485	-0.021187	0.000257382	0.000466411	0	5	0	
0.313833	0.000621763	0.00880431	0.000273517	0.000506273	0	5	0	
0.314	0.00218776	-0.0101103	0.000228157	0.000454416	0	5	0	
0.314167	0.00236858	0.0236991	0.000164685	0.000375389	0	5	0	
0.314333	-0.000209775	-0.0284473	0.000107599	0.000379206	0	5	0	
0.3145	-0.0100845	0.0272083	0.000104951	0.000462452	0	5	0	
0.314667	0.0157779	-0.0173457	0.000134027	0.000543798	0	5	0	
0.314833	-0.00899464	0.0128315	0.00023588	0.000563182	0	5	0	
0.315	0.00157128	-0.0158245	0.000289887	0.000539209	0	5	0	
0.315167	-0.00212888	0.0207464	0.000268105	0.000521625	0	5	0	
0.315333	0.00514209	-0.0171339	0.0002186	0.000509383	0	5	0	
0.3155	0.00099622	0.0163186	0.00017539	0.000545429	0	5	0	
0.315667	0.000502349	-0.0173963	0.000137095	0.00055066	0	5	0	
0.315833	-0.00494189	0.0277243	9.24023E-05	0.000597734	0	5	0	
0.316	0.0111825	-0.0274021	9.72449E-05	0.000621103	0	5	0	
0.316167	-0.00947448	0.0278828	0.000144552	0.000653691	0	5	0	
0.316333	0.00928824	-0.0255058	0.000200216	0.000625441	0	5	0	
0.3165	-0.00424124	0.0279265	0.000190315	0.000592677	0	5	0	
0.316667	0.00253506	-0.0281962	0.000190407	0.000566357	0	5	0	
0.316833	-0.00242397	0.0304955	0.000180436	0.00056923	0	5	0	
0.317	0.00552489	-0.0221263	0.00018349	0.000562123	0	5	0	
0.317167	-0.00352568	0.0217274	0.000146945	0.000554357	0	5	0	
0.317333	0.0078178	-0.0202519	0.00012722	0.000536134	0	5	0	
0.3175	-0.00918093	0.0192423	0.000129997	0.000499729	0	5	0	
0.317667	0.00218431	-0.0145903	0.000221763	0.000496606	0	5	0	
0.317833	0.0113881	-0.0129384	0.000306812	0.000587062	0	5	0	
0.318	-0.0107333	0.0408118	0.000309227	0.000682238	0	5	0	
0.318167	-0.00850803	-0.0187965	0.000332326	0.000691581	0	5	0	
0.318333	0.0240797	-0.0240036	0.000334768	0.00068896	0	5	0	
0.3185	-0.0155357	0.0435718	0.000388233	0.0006472	0	5	0	
0.318667	0.0104695	-0.0287302	0.000342608	0.000754389	0	5	0	
0.318833	-0.0121717	-0.00500773	0.000287481	0.000839578	0	5	0	
0.319	0.00461786	0.0219364	0.00026532	0.000894998	0	5	0	
0.319167	0.00813725	-0.00457552	0.00030071	0.000730731	0	5	0	
0.319333	-0.0101129	-0.0195278	0.000277216	0.000474	0	5	0	
0.3195	-0.000348281	0.018244	0.000284454	0.00044304	0	5	0	
0.319667	0.0130756	0.00184267	0.000216122	0.000556886	0	5	0	
0.319833	-0.00561822	-0.0112188	0.000236449	0.000607347	0	5	0	
0.32	-0.00988368	0.00114429	0.000275988	0.000507051	0	5	0	
0.320167	0.00876504	0.00663326	0.000287985	0.000404227	0	5	0	
0.320333	0.0103045	-0.0130549	0.00030204	0.000404695	0	5	0	
0.3205	-0.0208612	0.0196545	0.000254133	0.000438735	0	5	0	
0.320667	0.00827899	-0.0141097	0.000314388	0.000472541	0	5	0	
0.320833	0.00100457	0.00796681	0.000317573	0.000512829	0	5	0	
0.321	0.015726	-0.0148657	0.000283976	0.000551343	0	5	0	
0.321167	-0.0215275	0.0173995	0.000255364	0.000578664	0	5	0	
0.321333	0.0071189	-0.0146022	0.000323056	0.000567969	0	5	0	
0.3215	0.00127583	0.0271372	0.000369245	0.000548981	0	5	0	
0.321667	0.0082337	-0.0274927	0.000305297	0.000568526	0	5	0	
0.321833	-0.0153475	0.00487484	0.000215621	0.000633592	0	5	0	
0.322	0.00280929	0.00529454	0.000213393	0.00062315	0	5	0	
0.322167	0.00651875	0.0207158	0.000238223	0.000475122	0	5	0	
0.322333	0.00926728	-0.0476164	0.00021904	0.000450971	0	5	0	
0.3225	-0.0158173	0.0351702	0.000199457	0.00055884	0	5	0	
0.322667	0.00595459	-0.0088073	0.000234771	0.000774747	0	5	0	
0.322833	-0.000887626	-0.000982161	0.000270209	0.000716006	0	5	0	
0.323	0.00562569	-0.0149127	0.000225009	0.000506909	0	5	0	
0.323167	-0.00902183	0.038243	0.000185556	0.000390363	0	5	0	
0.323333	0.00168539	-0.0474694	0.000207848	0.000487562	0	5	0	
0.3235	-0.000909376	0.0295227	0.000201647	0.000730225	0	5	0	
0.323667	0.0158173	-0.00110594	0.000175569	0.000862147	0	5	0	
0.323833	-0.0121906	-0.00281961	0.000178999	0.000680037	0	5	0	
0.324	-0.00124545	-0.0266044	0.000278752	0.000605467	0	5	0	
0.324167	-0.00527588	0.043426	0.000256988	0.000513205	0	5	0	
0.324333	0.0137908	-0.0251022	0.000218196	0.000693053	0	5	0	
0.3245	-0.00163701	0.00531815	0.000189933	0.000654581	0	5	0	
0.324667	-0.00916333	-0.00838971	0.000259708	0.000510259	0	5	0	
0.324833	-0.00576155	0.00273587	0.000242879	0.000365004	0	5	0	
0.325	0.0136129	0.0222989	0.000204515	0.000298711	0	5	0	
0.325167	-0.000417991	-0.0201146	0.000222494	0.000411986	0	5	0	
0.325333	-0.0084658	-0.0284495	0.00024299	0.000579935	0	5	0	
0.3255	-0.00399405	0.0465216	0.000216761	0.000672346	0	5	0	
0.325667	0.00909486	-0.0182125	0.000158428	0.000867582	0	5	0	
0.325833	-0.00779937	-0.00980588	0.000169469	0.000954278	0	5	0	
0.326	0.00186741	0.0138652	0.000250095	0.000880181	0	5	0	
0.326167	0.00122393	-0.00549944	0.000287989	0.000575706	0	5	0	
0.326333	0.00483937	-0.0170836	0.000246424	0.000287275	0	5	0	
0.3265	-0.00124244	0.0490534	0.000180551	0.000375152	0	5	0	
0.326667	-0.00617606	-0.0608321	0.000196697	0.000660048	0	5	0	
0.326833	0.00538552	0.028319	0.000207514	0.000889303	0	5	0	
0.327	0.0110705	0.0086655	0.000216877	0.000970006	0	5	0	
0.327167	-0.0159562	-0.00490019	0.000194018	0.000680873	0	5	0	
0.327333	0.00508524	-0.0192676	0.000281764	0.000543501	0	5	0	
0.3275	0.00918034	0.0277546	0.000329215	0.000413464	0	5	0	
0.327667	0.00582412	-0.0117016	0.000286338	0.000479108	0	5	0	
0.327833	-0.00994685	0.00662445	0.00017993	0.000347738	0	5	0	
0.328	0.00651171	-0.0104062	0.000166866	0.000238189	0	5	0	
0.328167	-0.000339389	0.0140211	0.00022812	0.000225046	0	5	0	
0.328333	0.00303256	-0.0109877	0.000237436	0.00030108	0	5	0	
0.3285	-0.00783436	0.0152154	0.000174904	0.000319172	0	5	0	
0.328667	0.0132648	-0.0208148	0.000158813	0.000321145	0	5	0	
0.328833	-0.00433078	0.0204149	0.000195799	0.000350799	0	5	0	
0.329	0.00359272	-0.0146774	0.000261971	0.000425531	0	5	0	
0.329167	-0.00652067	0.0179156	0.000230613	0.000456396	0	5	0	
0.329333	0.00950363	-0.0186831	0.000223104	0.000459967	0	5	0	
0.3295	0.000991504	0.0238091	0.000248078	0.000437149	0	5	0	
0.329667	-0.00662551	-0.0274441	0.000272449	0.000468357	0	5	0	
0.329833	-0.0104132	0.0219544	0.000294609	0.000503442	0	5	0	
0.33	0.0266624	-0.0211251	0.000317455	0.000548714	0	5	0	
0.330167	-0.0182339	0.0250106	0.00038171	0.000545184	0	5	0	
0.330333	0.000849706	-0.0302628	0.0004231	0.00054992	0	5	0	
0.3305	-0.00142881	0.036496	0.000332433	0.000577191	0	5	0	
0.330667	0.011632	-0.028376	0.000247094	0.000620936	0	5	0	
0.330833	-0.00381299	0.0181592	0.000175205	0.000611203	0	5	0	
0.331	-0.00586909	-0.0169	0.000194377	0.000551425	0	5	0	
0.331167	-0.00107431	0.0183657	0.000173221	0.000466197	0	5	0	
0.331333	0.0140677	-0.0198186	0.00015978	0.000412038	0	5	0	
0.3315	-0.0140024	0.0246766	0.000195875	0.000411136	0	5	0	
0.331667	0.0053434	-0.0188826	0.000329229	0.000438919	0	5	0	
0.331833	0.00278401	0.00953727	0.000393441	0.000427376	0	5	0	
0.332	0.00700687	-0.0137565	0.000342272	0.000379056	0	5	0	
0.332167	-0.0083611	0.0216542	0.000228978	0.000344045	0	5	0	
0.332333	0.00921894	-0.0255401	0.000186025	0.000393011	0	5	0	
0.3325	-0.00993539	0.0245228	0.000197749	0.000454734	0	5	0	
0.332667	0.0176764	-0.0163539	0.000244277	0.000478621	0	5	0	
0.332833	-0.0185015	0.0126743	0.000284654	0.000455813	0	5	0	
0.333	0.0093257	-0.0158881	0.000334314	0.000407273	0	5	0	
0.333167	-0.00202252	0.0193177	0.000305185	0.000383279	0	5	0	
0.333333	0.0119792	-0.0174348	0.000243362	0.000386171	0	5	0	
0.3335	-0.0155826	0.0169108	0.0002067	0.000410394	0	5	0	
0.333667	0.0104666	-0.0234907	0.000229611	0.000434492	0	5	0	
0.333833	-0.0075892	0.0236596	0.000268528	0.000473115	0	5	0	
0.334	0.00689928	-0.0141784	0.000247962	0.000497409	0	5	0	
0.334167	-0.000644015	0.0130807	0.000209919	0.000503667	0	5	0	
0.334333	-0.00364884	-0.0207615	0.000173124	0.000475113	0	5	0	
0.3345	0.000856449	0.024821	0.00014286	0.00047005	0	5	0	
0.334667	0.0109204	-0.0223215	0.000142886	0.0004678	0	5	0	
0.334833	-0.0134115	0.0166456	0.000193721	0.000463772	0	5	0	
0.335	-0.00151622	-0.0177206	0.000305734	0.000431771	0	5	0	
0.335167	0.00312946	0.0281504	0.000294615	0.000426611	0	5	0	
0.335333	0.0186707	-0.0399974	0.000253245	0.00050019	0	5	0	
0.3355	-0.0246511	0.0356276	0.00025057	0.000636572	0	5	0	
0.335667	0.00456825	-0.0138654	0.000427848	0.000744652	0	5	0	
0.335833	0.0124631	-0.00055436	0.000600274	0.000757893	0	5	0	
0.336	-0.0128601	-0.000957044	0.000549717	0.000574	0	5	0	
0.336167	0.00303783	0.0116088	0.000376395	0.000355002	0	5	0	
0.336333	-0.000291732	-0.0154405	0.000161391	0.000214913	0	5	0	
0.3365	-0.00795468	0.0228317	0.000135333	0.000281626	0	5	0	
0.336667	0.0186339	-0.0293404	0.000186389	0.000406966	0	5	0	
0.336833	-0.0250416	0.0324384	0.000298651	0.000519345	0	5	0	
0.337	0.00867025	-0.016429	0.000410271	0.000608509	0	5	0	
0.337167	0.00520469	0.0156539	0.000511643	0.000580197	0	5	0	
0.337333	-0.00970713	-0.0249235	0.000473926	0.000523873	0	5	0	
0.3375	-0.00404171	0.00244158	0.000359884	0.000675272	0	5	0	
0.337667	0.0161241	0.0221947	0.000230548	0.00100051	0	5	0	
0.337833	-0.012389	-0.000348792	0.000254047	0.000909074	0	5	0	
0.338	-0.00499736	-0.0526028	0.000334622	0.000769578	0	5	0	
0.338167	0.00106887	0.0560225	0.000317714	0.000659696	0	5	0	
0.338333	0.0026724	-0.0126237	0.000202135	0.000967906	0	5	0	
0.3385	-0.00171466	0.0213293	9.28174E-05	0.000915587	0	5	0	
0.338667	0.00305731	-0.0549209	5.87797E-05	0.000828182	0	5	0	
0.338833	-0.0110154	0.032544	0.00010155	0.000756624	0	5	0	
0.339	0.0142388	-0.00519203	0.00014648	0.000774687	0	5	0	
0.339167	-0.0123942	0.0202081	0.00021698	0.000622611	0	5	0	
0.339333	0.00720273	-0.0515728	0.000281012	0.000610152	0	5	0	
0.3395	-0.00245383	0.0554844	0.000285215	0.000720683	0	5	0	
0.339667	0.00636348	-0.00788136	0.000236971	0.000986216	0	5	0	
0.339833	-0.00771926	-0.0135495	0.000175837	0.000947651	0	5	0	
0.34	0.00424005	-0.0204024	0.000165843	0.00076216	0	5	0	
0.340167	-3.67341E-05	0.0511631	0.000177679	0.000655734	0	5	0	
0.340333	0.00916453	-0.0438938	0.00016907	0.000704705	0	5	0	
0.3405	-0.0122187	0.0230591	0.000150714	0.000830452	0	5	0	
0.340667	0.00969534	-0.0167554	0.000185621	0.000716887	0	5	0	
0.340833	-0.00526453	0.0262697	0.000210061	0.000562606	0	5	0	
0.341	0.00705218	-0.0233536	0.000211795	0.000465899	0	5	0	
0.341167	-0.00304424	0.00323026	0.000165239	0.000483411	0	5	0	
0.341333	0.00348454	-0.00304288	0.000142545	0.000434911	0	5	0	
0.3415	-0.00549251	0.021149	0.000104308	0.000378016	0	5	0	
0.341667	0.0121096	-0.03601	0.000138973	0.00038741	0	5	0	
