0	0.000225475	-0.000826722	2.25475E-08	8.26722E-08	0	0	0	
0.000166667	-0.00284006	-1.48105E-05	1.34641E-05	6.53771E-06	0	0	0	
0.000333333	0.00663068	0.00152076	3.8594E-05	1.64413E-05	0	0	0	
0.0005	-0.00917416	0.00176366	0.000120776	2.95484E-05	0	0	0	
0.000666667	0.00144097	-0.0023624	0.000187918	3.92192E-05	0	0	0	
0.000833333	0.00182664	0.00151062	0.000233888	5.32493E-05	0	0	0	
0.001	-0.000514748	-0.00747136	0.000201377	6.33187E-05	0	0	0	
0.00116667	-0.000874882	0.00495127	0.000150026	8.24423E-05	0	0	0	
0.00133333	0.00209525	-0.00406362	9.42115E-05	0.000109179	0	0	0	
0.0015	-0.00405062	0.00369775	8.92795E-05	0.000112194	0	0	0	
0.00166667	-0.0015544	0.000928631	0.00013761	0.000119805	0	0	0	
0.00183333	-0.00645288	-0.00494035	0.000219702	0.00010366	0	0	0	
0.002	0.0121451	0.0054897	0.00026728	0.000126732	0	0	0	
0.00216667	-0.0168356	0.00284785	0.000282372	0.000147694	0	0	0	
0.00233333	0.0130647	-0.00890203	0.000276846	0.000164046	0	0	0	
0.0025	-0.00563564	0.00606148	0.000300907	0.000150267	0	0	0	
0.00266667	-0.00674875	-0.00684089	0.000363764	0.000126685	0	0	0	
0.00283333	0.00929128	0.00327381	0.000420135	0.000115784	0	0	0	
0.003	-0.00879296	0.00487904	0.000391651	0.000119872	0	0	0	
0.00316667	-0.00352418	0.00170892	0.000269491	0.000122763	0	0	0	
0.00333333	0.00817544	-0.000759059	0.000160796	0.000100703	0	0	0	
0.0035	-0.0123966	0.00845685	0.000162819	0.000105965	0	0	0	
0.00366667	0.0103808	-0.0105792	0.000222319	0.00010785	0	0	0	
0.00383333	-0.00902512	0.000800638	0.000288243	0.000138961	0	0	0	
0.004	0.00556996	-0.00214081	0.000252314	0.000130263	0	0	0	
0.00416667	-0.00974275	-0.00148649	0.000228596	0.00010575	0	0	0	
0.00433333	0.0181373	0.00167051	0.000204343	6.24414E-05	0	0	0	
0.0045	-0.0223273	0.00203518	0.000287699	3.90498E-05	0	0	0	
0.00466667	0.0149533	-0.0026432	0.000346828	5.11445E-05	0	0	0	
0.00483333	-0.0111082	0.00112348	0.000400553	7.80738E-05	0	0	0	
0.005	0.00556309	-0.00490442	0.000347636	7.79662E-05	0	0	0	
0.00516667	-0.00332161	-0.000980431	0.000288567	6.78697E-05	0	0	0	
0.00533333	0.00443319	-0.00311785	0.000223509	5.90608E-05	0	0	0	
0.0055	-0.00469369	0.00367691	0.000196726	7.30051E-05	0	0	0	
0.00566667	0.00499157	-0.00232503	0.000164747	8.73685E-05	0	0	0	
0.00583333	-0.0139051	0.00194462	0.000161928	7.84307E-05	0	0	0	
0.006	0.00984677	0.00198763	0.000179768	7.14228E-05	0	0	0	
0.00616667	-0.0122543	0.00178749	0.000223467	4.98711E-05	0	0	0	
0.00633333	0.0137869	-0.00199605	0.000262952	6.35473E-05	0	0	0	
0.0065	-0.0126441	0.00344674	0.000295281	6.66721E-05	0	0	0	
0.00666667	0.00525111	-0.00555637	0.000312174	7.97822E-05	0	0	0	
0.00683333	-0.0031862	0.00185493	0.000286101	6.92988E-05	0	0	0	
0.007	0.00504063	-0.0019499	0.000235533	8.81264E-05	0	0	0	
0.00716667	-0.00776359	-0.000648353	0.000190206	9.0778E-05	0	0	0	
0.00733333	0.00779922	-0.000424968	0.000184956	0.000111056	0	0	0	
0.0075	-0.0104152	-0.000576381	0.000180165	0.00010202	0	0	0	
0.00766667	0.00976956	-0.00269699	0.000213189	9.43564E-05	0	0	0	
0.00783333	-0.00686186	-0.00256126	0.000226763	8.37941E-05	0	0	0	
0.008	0.00518451	-0.00440611	0.000266857	7.21564E-05	0	0	0	
0.00816667	-0.00346528	0.00314368	0.00022184	7.22951E-05	0	0	0	
0.00833333	0.0109471	-0.00692191	0.000198658	9.40741E-05	0	0	0	
0.0085	-0.0113584	-0.00310046	0.000177723	0.000100981	0	0	0	
0.00866667	0.0115351	-0.00460087	0.000247098	0.000109948	0	0	0	
0.00883333	-0.00959243	-0.00230862	0.00027319	8.57246E-05	0	0	0	
0.009	0.0114767	-0.00118826	0.000307662	7.91465E-05	0	0	0	
0.00916667	-0.00540065	-0.000748839	0.000294333	6.89386E-05	0	0	0	
0.00933333	0.00670613	-0.00340082	0.000299046	5.99593E-05	0	0	0	
0.0095	-0.0101033	0.00252798	0.000272363	5.57964E-05	0	0	0	
0.00966667	0.0153078	-0.00339732	0.000275918	5.76877E-05	0	0	0	
0.00983333	-0.0108806	-0.0029463	0.000276476	7.57662E-05	0	0	0	
0.01	0.00821091	0.00177172	0.000300531	0.000109276	0	0	0	
0.0101667	-0.00271787	-0.00418537	0.000297926	0.000116306	0	0	0	
0.0103333	0.00234686	-0.000518364	0.000255534	0.000123646	0	0	0	
0.0105	-0.0099054	-0.00183657	0.000211548	8.87698E-05	0	0	0	
0.0106667	0.016505	-0.000493073	0.000195859	7.58105E-05	0	0	0	
0.0108333	-0.0130758	0.00278101	0.000249383	6.31685E-05	0	0	0	
0.011	0.00992344	-0.00558188	0.000292964	6.74388E-05	0	0	0	
0.0111667	-0.00678168	0.00280849	0.000323867	8.87329E-05	0	0	0	
0.0113333	0.00349259	-0.0024	0.000290235	9.41021E-05	0	0	0	
0.0115	-0.00393024	0.00053309	0.000263975	0.000110695	0	0	0	
0.0116667	0.00722417	-0.000881074	0.000212342	0.000105674	0	0	0	
0.0118333	-0.00670492	-0.00487219	0.00020399	9.67205E-05	0	0	0	
0.012	0.0122584	0.000181419	0.000192576	8.83362E-05	0	0	0	
0.0121667	-0.00723346	-0.00443093	0.000220539	6.9293E-05	0	0	0	
0.0123333	0.00632875	-0.00211364	0.000235469	6.55268E-05	0	0	0	
0.0125	-0.00447009	0.00266646	0.000234788	5.57688E-05	0	0	0	
0.0126667	0.00793812	-0.00435898	0.000209279	8.23919E-05	0	0	0	
0.0128333	-0.00749218	0.00310002	0.000209254	7.57207E-05	0	0	0	
0.013	0.0071932	-0.00264946	0.000235008	9.2593E-05	0	0	0	
0.0131667	-0.002674	-0.00139881	0.000256291	8.26251E-05	0	0	0	
0.0133333	0.0083155	-0.000264288	0.000263814	9.25809E-05	0	0	0	
0.0135	-0.00740923	-4.24325E-05	0.000253068	8.22416E-05	0	0	0	
0.0136667	0.00974597	0.00029934	0.000248921	7.91291E-05	0	0	0	
0.0138333	-0.0154455	0.00269555	0.000268788	7.20627E-05	0	0	0	
0.014	0.015809	-0.00281214	0.000318344	6.66438E-05	0	0	0	
0.0141667	-0.0107317	0.00126425	0.000365047	4.7501E-05	0	0	0	
0.0143333	0.00853569	0.000457692	0.000390981	4.09447E-05	0	0	0	
0.0145	-0.00155382	1.31194E-05	0.000339981	3.48213E-05	0	0	0	
0.0146667	0.00541639	0.00275113	0.000242876	5.10907E-05	0	0	0	
0.0148333	-0.0138795	0.000256435	0.000174834	5.69656E-05	0	0	0	
0.015	0.0151738	-0.00228485	0.000196312	6.03364E-05	0	0	0	
0.0151667	-0.0129773	-0.00123737	0.000259	5.05072E-05	0	0	0	
0.0153333	0.0137777	-0.000544721	0.000299726	5.57528E-05	0	0	0	
0.0155	-0.010352	0.00312315	0.000294353	5.60453E-05	0	0	0	
0.0156667	0.00501657	-0.000607282	0.000294661	4.96097E-05	0	0	0	
0.0158333	-0.00289262	0.00215002	0.000284888	4.78338E-05	0	0	0	
0.016	0.00159469	0.000136476	0.000241429	4.49218E-05	0	0	0	
0.0161667	-0.00493187	0.000525657	0.000186318	6.53268E-05	0	0	0	
0.0163333	0.00571106	-0.00364436	0.000157124	6.17059E-05	0	0	0	
0.0165	-0.00249936	0.00413503	0.000181891	7.1389E-05	0	0	0	
0.0166667	0.00258744	-0.0047054	0.000200952	8.65393E-05	0	0	0	
0.0168333	-0.007764	0.000900887	0.000190968	8.05496E-05	0	0	0	
0.017	0.00531181	0.00312129	0.000184664	8.50079E-05	0	0	0	
0.0171667	-0.0068468	0.00164524	0.000194556	7.98007E-05	0	0	0	
0.0173333	0.0161471	0.00646486	0.000223226	9.9848E-05	0	0	0	
0.0175	-0.0184169	0.00316651	0.000264503	9.77721E-05	0	0	0	
0.0176667	0.0139251	-0.00420457	0.000326779	9.42456E-05	0	0	0	
0.0178333	-0.00917953	9.80317E-05	0.000362389	8.57205E-05	0	0	0	
0.018	0.0114471	-0.000830766	0.000353752	0.000107203	0	0	0	
0.0181667	-0.01174	-0.00277839	0.000348456	0.000114049	0	0	0	
0.0183333	0.00143698	-0.00341833	0.000357562	0.000139207	0	0	0	
0.0185	0.00193599	0.00681918	0.000317698	0.000115463	0	0	0	
0.0186667	0.000107434	0.00142487	0.000210202	0.00010695	0	0	0	
0.0188333	-0.00753239	0.00614772	0.000116687	9.02703E-05	0	0	0	
0.019	0.00813168	-0.00340711	0.000125821	9.13451E-05	0	0	0	
0.0191667	-0.00905246	-0.000804242	0.000179811	7.81065E-05	0	0	0	
0.0193333	0.0122387	-0.00380008	0.000225047	6.78831E-05	0	0	0	
0.0195	-0.00779251	0.00145019	0.000216504	7.1946E-05	0	0	0	
0.0196667	0.0010888	-0.00378061	0.000224507	8.17811E-05	0	0	0	
0.0198333	-0.00618451	0.00425614	0.000222055	7.63387E-05	0	0	0	
0.02	0.00902105	0.00323638	0.000230777	7.5247E-05	0	0	0	
0.0201667	-0.00850931	-0.000692158	0.000234331	5.96336E-05	0	0	0	
0.0203333	0.00598504	-0.000735059	0.000239122	7.7518E-05	0	0	0	
0.0205	0.00083487	0.0042624	0.000228397	9.76589E-05	0	0	0	
0.0206667	0.00385976	-0.00494713	0.000203163	9.78301E-05	0	0	0	
0.0208333	-0.00365361	-0.000404048	0.000175028	8.02194E-05	0	0	0	
0.021	0.00446496	-0.00293501	0.000172676	5.94586E-05	0	0	0	
0.0211667	-0.0064883	-0.000934513	0.000185064	5.84918E-05	0	0	0	
0.0213333	0.00734964	-0.00123963	0.000196157	5.51348E-05	0	0	0	
0.0215	-0.00746418	0.0036728	0.000212478	4.7872E-05	0	0	0	
0.0216667	0.00898611	-0.000106763	0.000236854	4.98638E-05	0	0	0	
0.0218333	-0.00508451	-0.0014807	0.000274178	5.27318E-05	0	0	0	
0.022	0.00261067	-0.00258446	0.00029422	5.06062E-05	0	0	0	
0.0221667	-0.00201745	-0.00391297	0.000266559	5.09692E-05	0	0	0	
0.0223333	0.00179147	-0.00482638	0.000214757	7.50092E-05	0	0	0	
0.0225	-0.0056586	-0.00294028	0.000183764	8.54216E-05	0	0	0	
0.0226667	0.00505638	-0.00299822	0.00017172	9.13826E-05	0	0	0	
0.0228333	-0.00592217	0.0081725	0.000164151	9.44126E-05	0	0	0	
0.023	0.00842199	-0.00743673	0.000163655	9.73906E-05	0	0	0	
0.0231667	-0.0076969	0.00402065	0.00019742	0.000128328	0	0	0	
0.0233333	0.00461815	-0.00290131	0.000234898	0.000139113	0	0	0	
0.0235	-0.00822639	-0.00353535	0.000253751	0.000135033	0	0	0	
0.0236667	0.00566644	-0.00314042	0.000241186	0.000111909	0	0	0	
0.0238333	-0.00314471	0.000494471	0.00023839	9.13484E-05	0	0	0	
0.024	0.00235306	-0.00356601	0.000221421	9.22652E-05	0	0	0	
0.0241667	-0.00795737	0.00454749	0.000219303	8.44098E-05	0	0	0	
0.0243333	0.00251183	-0.00152746	0.000207528	7.35554E-05	0	0	0	
0.0245	-0.000218565	0.0013697	0.000225581	8.63993E-05	0	0	0	
0.0246667	0.00136693	0.00264522	0.000213077	8.4356E-05	0	0	0	
0.0248333	-0.00516975	0.000922462	0.000206096	7.15793E-05	0	0	0	
0.025	0.00140837	-0.00133475	0.000193157	4.52689E-05	0	0	0	
0.0251667	-0.00417466	0.00591943	0.000197405	5.32613E-05	0	0	0	
0.0253333	0.00673194	-0.00367152	0.000174172	8.92534E-05	0	0	0	
0.0255	-0.0113495	0.00180777	0.000169989	9.41921E-05	0	0	0	
0.0256667	0.00900034	9.2259E-05	0.00019322	8.17251E-05	0	0	0	
0.0258333	-0.00402881	0.00609302	0.000244966	8.30304E-05	0	0	0	
0.026	0.00639841	-0.00145271	0.00024982	8.50846E-05	0	0	0	
0.0261667	-0.00803755	0.00603786	0.000209577	0.000108815	0	0	0	
0.0263333	0.00820538	-0.0025281	0.00018263	8.31981E-05	0	0	0	
0.0265	-0.00400235	-0.00523194	0.000186162	8.92108E-05	0	0	0	
0.0266667	0.00180025	-0.00137339	0.000194249	6.94667E-05	0	0	0	
0.0268333	-0.00600429	0.00295672	0.000185677	6.89348E-05	0	0	0	
0.027	0.0110823	0.000705952	0.000199193	5.44733E-05	0	0	0	
0.0271667	-0.00329602	2.79702E-05	0.000221803	4.3885E-05	0	0	0	
0.0273333	0.00226098	0.000661519	0.000232776	2.93067E-05	0	0	0	
0.0275	-0.00126598	-0.00240312	0.000197752	2.59404E-05	0	0	0	
0.0276667	0.00343538	-0.0040929	0.000171571	4.44097E-05	0	0	0	
0.0278333	-0.0081614	-0.00120377	0.000171701	5.28016E-05	0	0	0	
0.028	0.0121602	-0.00354257	0.000204579	5.67691E-05	0	0	0	
0.0281667	-0.0105013	0.00615751	0.000244831	7.01228E-05	0	0	0	
0.0283333	0.00887412	-0.00140616	0.000263057	8.0567E-05	0	0	0	
0.0285	-0.00782346	0.00397947	0.000271571	9.54784E-05	0	0	0	
0.0286667	0.00798471	-1.37884E-06	0.000276427	6.79712E-05	0	0	0	
0.0288333	-0.0058973	-2.2978E-05	0.000274868	5.17364E-05	0	0	0	
0.029	0.00647686	-0.00418312	0.000260893	3.95121E-05	0	0	0	
0.0291667	-0.00986875	0.00125262	0.000254372	5.69839E-05	0	0	0	
0.0293333	0.00749744	0.00236853	0.00026479	6.94492E-05	0	0	0	
0.0295	-0.00419517	0.00340315	0.000278635	7.40457E-05	0	0	0	
0.0296667	0.00306693	-0.000279052	0.00027575	6.75535E-05	0	0	0	
0.0298333	-0.00465563	0.00282612	0.000254901	7.29336E-05	0	0	0	
0.03	0.00922733	0.000745615	0.000240393	7.53538E-05	0	0	0	
0.0301667	-0.0114958	-0.00229944	0.000253219	6.56318E-05	0	0	0	
0.0303333	0.00631636	-0.000678072	0.000270797	5.21045E-05	0	0	0	
0.0305	-0.00666934	0.00456521	0.000260008	4.6921E-05	0	0	0	
0.0306667	0.010205	-0.00152496	0.000241213	6.51886E-05	0	0	0	
0.0308333	-0.00918754	-0.000892083	0.000256137	6.44091E-05	0	0	0	
0.031	0.00440397	0.0008122	0.000314699	6.22888E-05	0	0	0	
0.0311667	-0.000187741	0.00078454	0.000341844	3.97497E-05	0	0	0	
0.0313333	0.000968423	-0.00409591	0.000294944	5.50308E-05	0	0	0	
0.0315	-0.00398123	0.00179949	0.000216222	6.11382E-05	0	0	0	
0.0316667	0.00613614	-0.00680282	0.000177161	9.58858E-05	0	0	0	
0.0318333	-0.0102832	0.00655053	0.000205494	9.58057E-05	0	0	0	
0.032	0.0137919	0.00156096	0.000274257	0.000120402	0	0	0	
0.0321667	-0.00968002	-0.00142825	0.00033648	0.000111459	0	0	0	
0.0323333	0.00698431	-0.00121453	0.000387103	9.90581E-05	0	0	0	
0.0325	-0.00367084	0.000206815	0.000373611	9.0954E-05	0	0	0	
0.0326667	0.00348803	-0.00281799	0.000318476	7.75711E-05	0	0	0	
0.0328333	-0.00548163	-0.00275072	0.00025187	9.18204E-05	0	0	0	
0.033	0.00647211	-0.0028236	0.000218057	6.83899E-05	0	0	0	
0.0331667	-0.00725779	0.00347929	0.000215836	6.38899E-05	0	0	0	
0.0333333	0.00840084	-0.00246041	0.000213865	6.08199E-05	0	0	0	
0.0335	-0.00763909	0.000672352	0.000204023	6.217E-05	0	0	0	
0.0336667	0.00818134	1.42449E-05	0.00020107	4.81445E-05	0	0	0	
0.0338333	-0.0081616	-0.000871504	0.000218502	4.17868E-05	0	0	0	
0.034	0.00711623	-0.00341171	0.000248854	4.08529E-05	0	0	0	
0.0341667	-0.00234759	0.00245585	0.000270323	6.87647E-05	0	0	0	
0.0343333	0.00234445	-0.00710274	0.000246802	8.78292E-05	0	0	0	
0.0345	-0.00657403	0.00188926	0.000199016	0.00010284	0	0	0	
0.0346667	0.00645339	0.000186862	0.000162289	9.86901E-05	0	0	0	
0.0348333	-0.00435151	-0.000433561	0.000179073	8.23198E-05	0	0	0	
0.035	0.00247515	0.00171273	0.00019399	6.67837E-05	0	0	0	
0.0351667	-0.00805557	-0.0014988	0.000194204	5.2867E-05	0	0	0	
0.0353333	0.015374	-0.00118102	0.000224342	3.84705E-05	0	0	0	
0.0355	-0.00301453	0.00308526	0.000275605	3.73861E-05	0	0	0	
0.0356667	-0.002202	0.00288477	0.000278838	4.10817E-05	0	0	0	
0.0358333	-0.00432463	0.00180183	0.000216439	4.96113E-05	0	0	0	
0.036	0.00300215	-0.000666487	0.000161311	6.29678E-05	0	0	0	
0.0361667	-0.00438227	0.00560835	0.000187083	5.59254E-05	0	0	0	
0.0363333	0.00730495	0.000869522	0.000216436	7.14499E-05	0	0	0	
0.0365	-0.00451456	0.00182405	0.000230261	6.65538E-05	0	0	0	
0.0366667	0.000306636	-0.00156439	0.000178164	8.19814E-05	0	0	0	
0.0368333	-0.00150729	-0.00309659	0.00016454	8.11126E-05	0	0	0	
0.037	0.00567181	-0.00220282	0.000178031	9.24349E-05	0	0	0	
0.0371667	-0.00431706	6.48992E-05	0.000229469	7.98704E-05	0	0	0	
0.0373333	0.00591269	-0.00123617	0.000229734	8.43215E-05	0	0	0	
0.0375	-0.00616401	0.005256	0.000204417	7.48498E-05	0	0	0	
0.0376667	0.00181075	-0.00483925	0.000167849	9.9991E-05	0	0	0	
0.0378333	-0.000158648	-0.00204743	0.000188269	8.63433E-05	0	0	0	
0.038	0.00149875	-0.00570545	0.000216271	8.78977E-05	0	0	0	
0.0381667	-0.000248769	-0.00409913	0.000216639	8.96336E-05	0	0	0	
0.0383333	0.00177525	-0.00506353	0.000173526	9.50909E-05	0	0	0	
0.0385	0.00015851	0.00257846	0.000149146	9.37673E-05	0	0	0	
0.0386667	0.000972507	-0.0031919	0.000161855	7.37209E-05	0	0	0	
0.0388333	-0.00657036	0.00345352	0.000182561	7.57578E-05	0	0	0	
0.039	0.00812003	-0.00344316	0.000197012	6.82619E-05	0	0	0	
0.0391667	-0.00769115	-0.000876409	0.00024345	7.08845E-05	0	0	0	
0.0393333	0.00230239	-0.00219673	0.000297416	7.20309E-05	0	0	0	
0.0395	-0.000487686	-0.0018679	0.000308268	7.83282E-05	0	0	0	
0.0396667	0.00646984	-0.00120651	0.000263411	7.95385E-05	0	0	0	
0.0398333	-0.00722127	-0.00156485	0.00021299	6.33817E-05	0	0	0	
0.04	0.00546848	-0.00221198	0.000183442	5.35189E-05	0	0	0	
0.0401667	-0.00682425	0.000338652	0.000179082	3.7032E-05	0	0	0	
0.0403333	0.00662792	-0.0029918	0.000169606	5.55721E-05	0	0	0	
0.0405	-0.00675088	-0.000951908	0.000171392	6.98757E-05	0	0	0	
0.0406667	0.0119228	0.00361282	0.000205942	7.7512E-05	0	0	0	
0.0408333	-0.00879822	-0.00235777	0.000239814	6.16586E-05	0	0	0	
0.041	0.00358078	-0.000512613	0.000249202	6.28531E-05	0	0	0	
0.0411667	-0.00674585	0.00103288	0.000236255	8.42269E-05	0	0	0	
0.0413333	0.00543092	-0.00576065	0.000217703	8.94494E-05	0	0	0	
0.0415	-0.00564401	0.00192619	0.000223796	8.24226E-05	0	0	0	
0.0416667	0.00727342	0.00116968	0.000224486	7.58808E-05	0	0	0	
0.0418333	-0.000857418	-0.00236802	0.00022598	9.05376E-05	0	0	0	
0.042	-0.00184745	0.00361167	0.00022028	0.000101256	0	0	0	
0.0421667	-0.00649601	-0.00427681	0.000194273	9.10198E-05	0	0	0	
0.0423333	0.00453749	-0.00129702	0.000146064	8.92968E-05	0	0	0	
0.0425	-0.00992946	0.00116026	0.000138519	7.23525E-05	0	0	0	
0.0426667	0.0117877	-0.00243526	0.000163145	7.77133E-05	0	0	0	
0.0428333	-0.0111142	0.00103977	0.000255615	5.16877E-05	0	0	0	
0.043	0.00352011	-0.00295288	0.000327932	4.9918E-05	0	0	0	
0.0431667	-0.0024221	0.0012912	0.000361444	4.76945E-05	0	0	0	
0.0433333	6.04276E-05	-0.00536762	0.000311847	5.28092E-05	0	0	0	
0.0435	-0.00391878	0.000904576	0.00023431	7.15657E-05	0	0	0	
0.0436667	0.00571694	-0.00022439	0.000178358	5.4468E-05	0	0	0	
0.0438333	-0.00980197	-0.00425629	0.000185789	6.07367E-05	0	0	0	
0.044	0.00709906	-0.00038728	0.000232317	4.53882E-05	0	0	0	
0.0441667	-0.00653393	-0.00160152	0.000297224	4.8225E-05	0	0	0	
0.0443333	0.00780802	-0.0069813	0.000336549	6.07736E-05	0	0	0	
0.0445	-0.00483374	-0.000933459	0.000312781	7.52644E-05	0	0	0	
0.0446667	0.00552226	0.000240074	0.000265658	8.46056E-05	0	0	0	
0.0448333	-0.00729421	0.00305535	0.000236503	7.6876E-05	0	0	0	
0.045	0.00613854	-0.0017231	0.000239333	7.52313E-05	0	0	0	
0.0451667	-0.00507426	0.00373891	0.000227494	9.05407E-05	0	0	0	
0.0453333	0.00786889	-0.00136574	0.000224191	8.94511E-05	0	0	0	
0.0455	-0.00605411	-0.00268171	0.000224208	7.44298E-05	0	0	0	
0.0456667	0.0036887	-0.00318231	0.000238641	5.96917E-05	0	0	0	
0.0458333	-0.00765838	0.00171164	0.00024304	4.75852E-05	0	0	0	
0.046	0.00609044	-0.00482991	0.00024718	6.69084E-05	0	0	0	
0.0461667	-0.00339716	0.00392755	0.000245802	6.10587E-05	0	0	0	
0.0463333	0.00141868	0.000512495	0.000240124	8.30097E-05	0	0	0	
0.0465	-0.00542398	0.00348546	0.000238925	7.99893E-05	0	0	0	
0.0466667	0.00176415	0.00395832	0.000230575	9.49075E-05	0	0	0	
0.0468333	-0.00039916	-0.00191385	0.000210467	8.29435E-05	0	0	0	
0.047	0.00195711	-0.00253575	0.000181282	6.77629E-05	0	0	0	
0.0471667	-0.000732222	-0.00112784	0.000156676	6.31712E-05	0	0	0	
0.0473333	0.00337473	-0.00174422	0.000155454	5.87587E-05	0	0	0	
0.0475	-0.00349937	0.00411617	0.000178413	6.09678E-05	0	0	0	
0.0476667	0.00176952	-0.000291083	0.000220144	5.67887E-05	0	0	0	
0.0478333	-0.00214449	0.00371508	0.000253013	6.58472E-05	0	0	0	
0.048	0.00472812	-0.00231759	0.000276197	6.8943E-05	0	0	0	
0.0481667	-0.00568413	-0.00327548	0.000283712	6.86766E-05	0	0	0	
0.0483333	0.00513936	-0.00144238	0.000262793	7.31643E-05	0	0	0	
0.0485	-0.00399321	-0.00113293	0.000228027	7.04648E-05	0	0	0	
0.0486667	0.00405418	0.00354496	0.000225077	5.83598E-05	0	0	0	
0.0488333	-0.00375625	0.00356183	0.000254953	5.2598E-05	0	0	0	
0.049	0.0018009	-0.000109911	0.000265171	7.32345E-05	0	0	0	
0.0491667	-0.0030377	0.00155956	0.000243206	8.91821E-05	0	0	0	
0.0493333	-0.00138208	-0.0053731	0.000209269	7.80014E-05	0	0	0	
0.0495	0.00292719	-2.25679E-05	0.000202841	6.52606E-05	0	0	0	
0.0496667	0.0014616	-0.000915272	0.000203337	6.48778E-05	0	0	0	
0.0498333	-0.00811081	-0.00435751	0.000219788	9.05411E-05	0	0	0	
0.05	0.00580435	0.00589196	0.00023775	8.9076E-05	0	0	0	
0.0501667	-0.00753988	0.000636974	0.00028355	0.000103803	0	0	0	
0.0503333	0.00613512	0.00123579	0.00030277	7.46045E-05	0	0	0	
0.0505	-0.0108469	-0.00629419	0.00032178	6.82984E-05	0	0	0	
0.0506667	0.0159375	0.00536421	0.000349469	8.72239E-05	0	0	0	
0.0508333	-0.0147995	-0.0127577	0.000399924	0.000140448	0	0	0	
0.051	0.0104796	-0.000556294	0.000412168	0.000153929	0	0	0	
0.0511667	-0.0138479	0.000614362	0.000379998	0.000118056	0	0	0	
0.0513333	0.0104402	-0.00155753	0.000347184	8.34621E-05	0	0	0	
0.0515	-0.0064998	-0.00599869	0.000367057	9.20302E-05	0	0	0	
0.0516667	0.00117586	0.00315733	0.000341907	0.000127441	0	0	0	
0.0518333	-0.00383171	-0.00142161	0.000245938	0.000146283	0	0	0	
0.052	0.0113984	0.00302342	0.000151204	0.000144335	0	0	0	
0.0521667	-0.0107808	-0.00332367	0.000140304	9.89468E-05	0	0	0	
0.0523333	0.0068878	-0.00270825	0.000184172	7.27154E-05	0	0	0	
0.0525	-0.00784574	0.000963632	0.000218743	4.99365E-05	0	0	0	
0.0526667	0.0047608	0.00168199	0.00023582	8.17059E-05	0	0	0	
0.0528333	-0.00042774	0.00496891	0.000279253	9.82677E-05	0	0	0	
0.053	-0.00515479	0.000589383	0.000285447	0.000105588	0	0	0	
0.0531667	0.00459646	0.000208792	0.000242501	8.60572E-05	0	0	0	
0.0533333	0.0100384	0.000686771	0.000202831	7.49332E-05	0	0	0	
0.0535	-0.00422224	-0.000158897	0.00021681	7.05789E-05	0	0	0	
0.0536667	0.0025555	-0.00345302	0.000286925	7.66631E-05	0	0	0	
0.0538333	-0.00276122	0.00101742	0.000303649	7.22208E-05	0	0	0	
0.054	0.000976136	-0.00347377	0.000277703	8.13647E-05	0	0	0	
0.0541667	-0.00442324	0.00102249	0.000246029	7.84079E-05	0	0	0	
0.0543333	0.0149099	-0.00198892	0.000276834	7.44507E-05	0	0	0	
0.0545	-0.0034051	0.00105399	0.000296768	8.1027E-05	0	0	0	
0.0546667	0.00372953	-0.00425636	0.000324836	8.35669E-05	0	0	0	
0.0548333	-0.000651506	0.00199824	0.000315771	8.55883E-05	0	0	0	
0.055	-0.00321175	-0.00586386	0.000306219	9.12109E-05	0	0	0	
0.0551667	0.002466	0.000737187	0.000258663	8.66842E-05	0	0	0	
0.0553333	0.00074963	-0.00295373	0.000218088	8.00244E-05	0	0	0	
0.0555	-0.000922605	0.00160656	0.000197092	8.75971E-05	0	0	0	
0.0556667	0.00369222	-0.00194278	0.000191795	7.74115E-05	0	0	0	
0.0558333	-0.00850416	-9.5244E-05	0.000205772	8.20269E-05	0	0	0	
0.056	0.00579301	0.000592904	0.000215657	4.19861E-05	0	0	0	
0.0561667	-0.00961917	-0.00170035	0.000250698	3.91452E-05	0	0	0	
0.0563333	0.00730711	0.000290117	0.000288631	2.95121E-05	0	0	0	
0.0565	-0.00322191	-0.00302312	0.000332451	4.10046E-05	0	0	0	
0.0566667	0.00227996	-0.00371465	0.000330942	4.83149E-05	0	0	0	
0.0568333	-0.002071	0.00188311	0.000290864	7.44017E-05	0	0	0	
0.057	-0.00143158	-0.0026003	0.000253222	7.07215E-05	0	0	0	
0.0571667	-0.00038922	-0.00270059	0.000221096	6.94407E-05	0	0	0	
0.0573333	-0.000761584	0.00133473	0.000170904	5.25194E-05	0	0	0	
0.0575	-0.00177271	0.000746773	0.00012757	4.7805E-05	0	0	0	
0.0576667	0.00149611	-0.00038299	0.000115705	4.72592E-05	0	0	0	
0.0578333	0.000713066	-0.000148474	0.000138098	3.82084E-05	0	0	0	
0.058	0.00240845	-0.00189963	0.000184688	4.60703E-05	0	0	0	
0.0581667	-0.00276704	-1.40995E-05	0.000247234	5.66982E-05	0	0	0	
0.0583333	-0.00226227	-0.00632874	0.000310062	6.97058E-05	0	0	0	
0.0585	0.0024032	-0.000953617	0.000340892	7.55788E-05	0	0	0	
0.0586667	-0.00170215	-0.00339571	0.000327867	8.27038E-05	0	0	0	
0.0588333	0.0039291	0.00215975	0.000310508	7.82488E-05	0	0	0	
0.059	-0.00223726	-0.00232874	0.000296754	8.22892E-05	0	0	0	
0.0591667	-0.00228108	0.00210973	0.000260266	8.10531E-05	0	0	0	
0.0593333	0.00322646	-0.00490669	0.000206651	7.77187E-05	0	0	0	
0.0595	-0.00613757	-0.00165875	0.000182127	9.83512E-05	0	0	0	
0.0596667	0.00575764	-0.00688952	0.00019292	9.9517E-05	0	0	0	
0.0598333	-0.00227202	-0.00270954	0.000210698	0.000121113	0	0	0	
0.06	0.00182091	0.0017426	0.000217251	8.38621E-05	0	0	0	
0.0601667	0.00165934	0.00310006	0.000241287	7.12357E-05	0	0	0	
0.0603333	-0.00417762	-8.72775E-05	0.00026024	5.05865E-05	0	0	0	
0.0605	-0.000288543	0.000950181	0.000223184	6.58355E-05	0	0	0	
0.0606667	0.00377436	9.82566E-05	0.000152668	7.00711E-05	0	0	0	
0.0608333	-0.00143872	0.0023285	0.00011032	0.000102385	0	0	0	
0.061	0.00795745	-0.000766606	0.000139175	0.00011294	0	0	0	
0.0611667	-0.00652908	0.00155473	0.000196995	0.000122235	0	0	0	
0.0613333	0.00462424	-0.00426013	0.000251838	9.72728E-05	0	0	0	
0.0615	0.00101672	0.00364984	0.000266335	9.01424E-05	0	0	0	
0.0616667	-0.000131764	-0.00356109	0.000247532	8.29321E-05	0	0	0	
0.0618333	0.000136866	0.00628299	0.00019325	9.9561E-05	0	0	0	
0.062	0.00362868	0.00369633	0.000158974	0.000107485	0	0	0	
0.0621667	-0.00135104	-0.00164066	0.000164519	0.00011584	0	0	0	
0.0623333	-0.00109334	-0.0014305	0.000187571	0.000119879	0	0	0	
0.0625	0.00246217	-0.00259939	0.000180091	9.9515E-05	0	0	0	
0.0626667	0.00260192	-0.00524606	0.000151928	9.10711E-05	0	0	0	
0.0628333	-0.00583785	0.0038775	0.000147833	7.35822E-05	0	0	0	
0.063	0.00648418	-0.000302333	0.000172303	9.09115E-05	0	0	0	
0.0631667	-0.0100342	0.00469503	0.000227509	9.47612E-05	0	0	0	
0.0633333	0.00694196	0.00133071	0.000279571	9.88785E-05	0	0	0	
0.0635	-0.00270945	0.00369762	0.000322731	9.42987E-05	0	0	0	
0.0636667	0.00381822	0.00280676	0.000312839	8.77072E-05	0	0	0	
0.0638333	-0.00345606	0.00107243	0.0002584	7.28606E-05	0	0	0	
0.064	0.00267172	-0.00145655	0.000187256	6.13018E-05	0	0	0	
0.0641667	-0.00726781	0.00621403	0.000147603	6.56251E-05	0	0	0	
0.0643333	0.00621784	-0.00577128	0.00014102	0.000101349	0	0	0	
0.0645	-0.00356565	-0.00138164	0.000173968	0.000125019	0	0	0	
0.0646667	0.0021188	0.00613889	0.000226734	0.000129663	0	0	0	
0.0648333	0.00217813	0.000993521	0.000287546	0.000122325	0	0	0	
0.065	0.000401951	0.00215897	0.00030847	9.69216E-05	0	0	0	
0.0651667	0.00113037	-0.000363875	0.000284112	7.08697E-05	0	0	0	
0.0653333	-0.00132831	-0.0069052	0.000252979	5.27242E-05	0	0	0	
0.0655	-0.000192153	0.00239167	0.000236118	6.6178E-05	0	0	0	
0.0656667	0.00313221	-0.00334157	0.00022847	7.9724E-05	0	0	0	
0.0658333	-0.00761781	0.0029343	0.000224216	7.90274E-05	0	0	0	
0.066	0.0102823	0.00213857	0.000232092	6.50027E-05	0	0	0	
0.0661667	-0.00528897	0.00267083	0.000245853	6.20618E-05	0	0	0	
0.0663333	0.000579554	-0.00323577	0.000264899	7.3394E-05	0	0	0	
0.0665	0.00268994	0.00225922	0.000259237	6.32924E-05	0	0	0	
0.0666667	0.00302808	0.00510831	0.000230142	6.33018E-05	0	0	0	
0.0668333	-0.00435863	-0.000747673	0.000202038	5.73766E-05	0	0	0	
0.067	0.00106322	0.00328826	0.000221146	7.83592E-05	0	0	0	
0.0671667	-0.000450526	0.00207381	0.000262083	9.36598E-05	0	0	0	
0.0673333	-0.000166648	0.00465065	0.000259368	8.225E-05	0	0	0	
0.0675	-0.00401682	0.00103185	0.000228364	8.10548E-05	0	0	0	
0.0676667	0.00717159	0.00193175	0.000232299	5.51297E-05	0	0	0	
0.0678333	-0.00171042	0.00210195	0.00026496	5.51572E-05	0	0	0	
0.068	0.00135057	-0.00352097	0.000293586	5.5002E-05	0	0	0	
0.0681667	-0.00099528	0.00107167	0.000292776	6.3607E-05	0	0	0	
0.0683333	-0.00223839	-0.00183454	0.000285921	6.63112E-05	0	0	0	
0.0685	-0.000844598	0.00187823	0.000261227	6.64059E-05	0	0	0	
0.0686667	0.00425156	-0.00275286	0.000222857	7.45946E-05	0	0	0	
0.0688333	-0.00593047	-0.00216352	0.00019356	8.09294E-05	0	0	0	
0.069	0.00961287	0.00212022	0.000207255	7.98841E-05	0	0	0	
0.0691667	-0.00719009	0.00181829	0.000261814	8.52139E-05	0	0	0	
0.0693333	0.00123354	-0.00687009	0.000312354	9.02491E-05	0	0	0	
0.0695	-0.00161042	0.00372232	0.000310753	9.88645E-05	0	0	0	
0.0696667	0.00387154	-0.00598652	0.000261384	0.000124445	0	0	0	
0.0698333	-0.00554871	-0.00289947	0.000215979	0.000135094	0	0	0	
0.07	0.00478206	0.00308148	0.000193618	0.000138463	0	0	0	
0.0701667	-0.00234477	-0.000921095	0.000199426	0.000123025	0	0	0	
0.0703333	-0.00245436	0.000513072	0.000225321	8.70761E-05	0	0	0	
0.0705	0.00254086	-0.000636009	0.000227496	7.36677E-05	0	0	0	
0.0706667	0.00521862	-0.0051426	0.000188676	6.27098E-05	0	0	0	
0.0708333	-0.00742677	0.00474182	0.000153754	7.55927E-05	0	0	0	
0.071	0.0028878	-0.00358176	0.000166689	0.000105265	0	0	0	
0.0711667	-0.00574975	-0.00125392	0.00021323	0.000124403	0	0	0	
0.0713333	0.0067042	0.00111489	0.000232622	0.000112269	0	0	0	
0.0715	-0.00348654	0.00234118	0.000245761	6.95754E-05	0	0	0	
0.0716667	0.000437589	0.000831657	0.00025815	3.81565E-05	0	0	0	
0.0718333	-0.00107216	-0.00278644	0.000257216	4.19458E-05	0	0	0	
0.072	-0.000994476	-0.0025118	0.000238019	4.41323E-05	0	0	0	
0.0721667	-0.00170839	0.00114431	0.000206922	4.44689E-05	0	0	0	
0.0723333	0.000783339	0.00432926	0.000176044	6.21018E-05	0	0	0	
0.0725	-0.00872712	-0.00105097	0.000186442	7.10299E-05	0	0	0	
0.0726667	0.00895686	0.00586146	0.000237035	9.75193E-05	0	0	0	
0.0728333	-0.010688	-0.00149594	0.000321027	9.50182E-05	0	0	0	
0.073	0.00521107	0.00114286	0.000373506	9.68496E-05	0	0	0	
0.0731667	-0.000173798	0.00205743	0.000407985	7.20912E-05	0	0	0	
0.0733333	-0.00215662	-0.000281102	0.000372129	7.43887E-05	0	0	0	
0.0735	-0.00618207	-0.00524396	0.000274826	0.000109081	0	0	0	
0.0736667	0.00874287	0.00806717	0.000179234	0.000162176	0	0	0	
0.0738333	-0.00759756	-0.00290998	0.000140983	0.000189712	0	0	0	
0.074	0.0103683	-0.00257911	0.000173515	0.000150804	0	0	0	
0.0741667	-0.00876118	0.00856599	0.000203715	0.000125066	0	0	0	
0.0743333	0.00946905	-0.00419149	0.000256521	0.000107046	0	0	0	
0.0745	-0.00302023	-0.000236321	0.000288482	0.000128976	0	0	0	
0.0746667	0.0031683	-0.00659593	0.000315409	0.000140531	0	0	0	
0.0748333	0.00187438	-0.00309862	0.00031738	0.000143788	0	0	0	
0.075	-0.00250173	-0.00325163	0.000321511	0.000139233	0	0	0	
0.0751667	0.00260014	0.00159524	0.000298252	0.000101725	0	0	0	
0.0753333	0.0017231	-0.00304372	0.000250614	7.46943E-05	0	0	0	
0.0755	-0.00191397	0.00393655	0.000200601	6.97075E-05	0	0	0	
0.0756667	-0.00046685	-0.0078283	0.000192223	9.00455E-05	0	0	0	
0.0758333	0.00376284	-0.002037	0.000227107	0.000122501	0	0	0	
0.076	-0.00234983	-0.00317665	0.00026885	0.000128386	0	0	0	
0.0761667	-0.00100571	-0.00417457	0.00028109	0.000117433	0	0	0	
0.0763333	-0.00145302	-0.00497182	0.000274608	9.98326E-05	0	0	0	
0.0765	-0.000753794	0.00519351	0.000255352	9.37326E-05	0	0	0	
0.0766667	0.00406477	-0.00292673	0.00022354	8.33015E-05	0	0	0	
0.0768333	-0.00622935	0.00336004	0.000211356	8.44379E-05	0	0	0	
0.077	0.00367017	-0.00313609	0.000245115	6.99733E-05	0	0	0	
0.0771667	-0.00129426	-0.00337814	0.000288496	8.296E-05	0	0	0	
0.0773333	0.00196947	0.000348579	0.000283943	8.94513E-05	0	0	0	
0.0775	-0.00658584	0.000743289	0.000262564	8.07478E-05	0	0	0	
0.0776667	0.00313486	0.000749863	0.000248512	5.8806E-05	0	0	0	
0.0778333	-0.00238481	0.00450494	0.000245568	4.07997E-05	0	0	0	
0.078	0.0028368	0.00314334	0.000247736	5.57252E-05	0	0	0	
0.0781667	0.00801629	0.0020188	0.000286746	7.69488E-05	0	0	0	
0.0783333	-0.00958857	-0.000949787	0.00034508	7.6122E-05	0	0	0	
0.0785	0.00220246	0.00101321	0.000336516	7.29488E-05	0	0	0	
0.0786667	0.00416705	-0.00216904	0.000266098	4.87933E-05	0	0	0	
0.0788333	-0.0029222	-0.000234483	0.000205997	4.09494E-05	0	0	0	
0.079	0.00116898	0.00263274	0.000202419	3.63149E-05	0	0	0	
0.0791667	-0.00232886	0.0060049	0.000232942	6.59872E-05	0	0	0	
0.0793333	0.00414537	0.000173266	0.000268773	8.25022E-05	0	0	0	
0.0795	-0.000888645	0.000405581	0.000301581	7.3839E-05	0	0	0	
0.0796667	0.00145096	-0.00426245	0.000314275	6.37449E-05	0	0	0	
0.0798333	-0.00238578	-0.00129725	0.000278456	6.9124E-05	0	0	0	
0.08	0.00627798	-0.00256747	0.000232947	0.000100471	0	0	0	
0.0801667	-0.00698177	0.00450544	0.000228083	0.0001052	0	0	0	
0.0803333	0.000249496	0.00132085	0.000263948	0.000110929	0	0	0	
0.0805	0.00383205	0.000427447	0.000297649	9.93932E-05	0	0	0	
0.0806667	-0.00156156	0.00209343	0.000273258	9.19235E-05	0	0	0	
0.0808333	-0.00617439	-0.00136334	0.000222127	7.28451E-05	0	0	0	
0.081	0.00771265	0.00135933	0.000206116	5.88311E-05	0	0	0	
0.0811667	0.00105222	0.000797937	0.000249141	5.2162E-05	0	0	0	
0.0813333	-0.00207341	-0.00135021	0.000296084	5.87121E-05	0	0	0	
0.0815	-0.00178626	0.00639617	0.000274718	7.12806E-05	0	0	0	
0.0816667	0.00121741	-0.00263218	0.00022586	6.72286E-05	0	0	0	
0.0818333	0.00336872	0.00447664	0.000233496	9.15606E-05	0	0	0	
0.082	-0.00359949	0.00377606	0.000280895	0.000122799	0	0	0	
0.0821667	0.00539283	-0.0033856	0.000277768	0.000160636	0	0	0	
0.0823333	0.00454528	0.00344682	0.000218943	0.000142518	0	0	0	
0.0825	-0.00401718	0.000510784	0.000159482	9.94847E-05	0	0	0	
0.0826667	0.00423041	-0.00154391	0.000153539	5.79984E-05	0	0	0	
0.0828333	-0.00795237	0.00446311	0.000171432	4.52223E-05	0	0	0	
0.083	0.00931717	-0.00143661	0.000221882	6.18999E-05	0	0	0	
0.0831667	-0.000278518	0.00807787	0.000291447	8.32788E-05	0	0	0	
0.0833333	-0.000848812	-0.00417701	0.000350542	0.000105722	0	0	0	
0.0835	0.00572047	0.00416155	0.000332844	0.000128728	0	0	0	
0.0836667	-0.00377713	0.00147612	0.00027728	0.000148984	0	0	0	
0.0838333	0.00150143	-0.0049991	0.000215123	0.0001273	0	0	0	
0.084	-0.00152918	0.00322681	0.000185327	0.000107717	0	0	0	
0.0841667	-0.000978041	-0.00235379	0.000166641	9.07844E-05	0	0	0	
0.0843333	0.00353774	-0.00438612	0.000173598	0.000111434	0	0	0	
0.0845	-0.00424776	0.00258371	0.000212713	0.000100118	0	0	0	
0.0846667	0.00511219	-0.00215745	0.000266167	9.72587E-05	0	0	0	
0.0848333	-0.0011425	0.000606375	0.000309662	6.61415E-05	0	0	0	
0.085	-0.00420665	0.00136507	0.00034156	5.65706E-05	0	0	0	
0.0851667	0.00779827	0.00212222	0.000338803	4.5223E-05	0	0	0	
0.0853333	-0.00577152	-0.00325679	0.000298341	6.08761E-05	0	0	0	
0.0855	-9.26406E-05	-0.00102947	0.00024686	7.665E-05	0	0	0	
0.0856667	-0.0055935	-0.000718083	0.000224087	7.94911E-05	0	0	0	
0.0858333	0.000245222	-0.00480009	0.000200098	7.7961E-05	0	0	0	
0.086	0.00514644	0.00118034	0.000162054	6.88252E-05	0	0	0	
0.0861667	-0.00633845	0.00609017	0.000179056	6.95601E-05	0	0	0	
0.0863333	0.00106517	-0.00382517	0.000262511	7.32304E-05	0	0	0	
0.0865	-0.00430688	0.000624922	0.000352608	8.24826E-05	0	0	0	
0.0866667	0.00220013	0.00263591	0.0003698	0.000101065	0	0	0	
0.0868333	-0.00172086	-0.00111975	0.000338271	0.000107448	0	0	0	
0.087	0.00199496	0.000942191	0.00029043	0.000107233	0	0	0	
0.0871667	-0.0113285	-0.000463488	0.00025288	7.93468E-05	0	0	0	
0.0873333	0.0185299	-0.00318983	0.000251249	5.28381E-05	0	0	0	
0.0875	-0.0299643	-0.00298845	0.000323941	6.21341E-05	0	0	0	
0.0876667	0.00961874	0.0129548	0.0004862	0.00017873	0	0	0	
0.0878333	0.0213566	0.00942402	0.000695314	0.000270545	0	0	0	
0.088	-0.0202305	-0.000240312	0.000695843	0.000373024	0	0	0	
0.0881667	-0.00259445	0.0109169	0.000622694	0.000263751	0	0	0	
0.0883333	0.00743399	0.00799079	0.000474774	0.000436901	0	0	0	
0.0885	-0.00352821	-0.0382824	0.000433212	0.000584285	0	0	0	
0.0886667	-0.00778241	0.0269235	0.000457353	0.000775024	0	0	0	
0.0888333	-0.00792523	0.00829325	0.000460079	0.000646121	0	0	0	
0.089	0.00406997	0.0171083	0.000376069	0.000511912	0	0	0	
0.0891667	0.0136501	0.00559631	0.000297656	0.000377478	0	0	0	
0.0893333	-0.0173701	-0.0343451	0.000220341	0.000327674	0	0	0	
0.0895	0.0199014	0.0247458	0.000372061	0.000377578	0	0	0	
0.0896667	-0.0155139	0.00436119	0.000359958	0.000637098	0	0	0	
0.0898333	0.0180933	-0.0239005	0.000496277	0.000802894	0	0	0	
0.09	-0.0230703	0.0200393	0.000552646	0.000755959	0	0	0	
0.0901667	0.0155595	-0.00754764	0.00058925	0.000460608	0	0	0	
0.0903333	-0.00136753	0.00475237	0.000415063	0.000288172	0	0	0	
0.0905	0.00748816	-0.00572777	0.000246565	0.000175015	0	0	0	
0.0906667	-0.00082841	0.00436247	0.00022164	0.000205465	0	0	0	
0.0908333	0.00280332	-0.0171627	0.000227602	0.00018328	0	0	0	
0.091	-0.0039837	0.00328544	0.000213975	0.000183942	0	0	0	
0.0911667	0.00782882	0.00940422	0.000199862	0.000207132	0	0	0	
0.0913333	-0.0054779	-0.00748062	0.000237406	0.00018326	0	0	0	
0.0915	0.00744714	-0.00103871	0.000267673	0.000202659	0	0	0	
0.0916667	-0.0236825	0.00153223	0.000291656	0.000158114	0	0	0	
0.0918333	0.019044	-0.000778876	0.000325344	0.000140811	0	0	0	
0.092	0.0113166	-0.00226369	0.000402797	0.000159867	0	0	0	
0.0921667	-0.0152416	-0.0194595	0.00036663	0.000215101	0	0	0	
0.0923333	-0.00410942	0.0187128	0.000361293	0.000319561	0	0	0	
0.0925	-0.0531462	-0.00187803	0.000482478	0.000344241	0	0	0	
0.0926667	0.114214	-0.0116998	0.00116446	0.000322039	0	0	0	
0.0928333	-0.0760687	0.00943696	0.00152565	0.000255619	0	0	0	
0.093	-0.0200126	0.00118299	0.0020886	0.000247888	0	0	0	
0.0931667	0.0690906	-0.00679582	0.00183994	0.000265222	0	0	0	
0.0933333	-0.0364659	0.0109393	0.00168558	0.000314388	0	0	0	
0.0935	0.0183202	-0.00965773	0.00103196	0.000295588	0	0	0	
0.0936667	-0.0417181	0.00935097	0.000799589	0.000249419	0	0	0	
0.0938333	0.0135668	0.00276826	0.000949533	0.000209019	0	0	0	
0.094	0.0556007	-0.00685269	0.00108234	0.000165053	0	0	0	
0.0941667	-0.0393427	0.0095091	0.00109768	0.000175258	0	0	0	
0.0943333	-0.0055546	-0.00220212	0.00110543	0.000196519	0	0	0	
0.0945	0.0301235	-0.0071552	0.00109212	0.000244547	0	0	0	
0.0946667	-0.00173441	0.0103908	0.000884223	0.00023137	0	0	0	
0.0948333	-0.0301647	0.0019295	0.00056521	0.00020397	0	0	0	
0.095	0.0335846	-0.00541593	0.000448539	0.000167224	0	0	0	
0.0951667	-0.0133014	0.00278868	0.000549344	0.000155485	0	0	0	
0.0953333	0.00238356	-0.000629825	0.000534537	0.000102461	0	0	0	
0.0955	-0.00181948	-0.00213809	0.000431864	7.81377E-05	0	0	0	
0.0956667	0.0061536	-0.000260143	0.000330449	4.37766E-05	0	0	0	
0.0958333	0.000276535	0.00236943	0.000300162	5.21059E-05	0	0	0	
0.096	-0.00925758	0.00196241	0.000364204	6.76784E-05	0	0	0	
0.0961667	0.0126378	-0.00350943	0.000361429	9.76947E-05	0	0	0	
0.0963333	0.00141506	0.00332628	0.000297377	0.000116906	0	0	0	
0.0965	-0.0130263	-0.00667088	0.000176621	0.000136677	0	0	0	
0.0966667	0.00736956	0.00753757	0.000208687	0.000152915	0	0	0	
0.0968333	0.00222019	-0.00792829	0.000302422	0.000185455	0	0	0	
0.097	0.00213691	-0.000445971	0.00040705	0.00017308	0	0	0	
0.0971667	0.001967	0.00856457	0.000422933	0.000183341	0	0	0	
0.0973333	-0.0170504	-0.00309255	0.000388717	0.000150946	0	0	0	
0.0975	0.00700346	0.00506982	0.00035605	0.000147086	0	0	0	
0.0976667	0.00325381	-0.00545799	0.000253755	0.000104675	0	0	0	
0.0978333	-0.00387057	0.00439482	0.000196157	0.000110011	0	0	0	
0.098	0.00378253	-0.00352586	0.000187964	0.000122867	0	0	0	
0.0981667	0.000291151	-0.00281328	0.000198412	0.000136789	0	0	0	
0.0983333	-0.0019337	0.00352473	0.000172416	0.000113109	0	0	0	
0.0985	-0.0128627	0.00263735	0.000108877	7.35814E-05	0	0	0	
0.0986667	0.0114463	0.000412189	0.000168222	5.4111E-05	0	0	0	
0.0988333	2.49737E-06	-0.000459361	0.000268335	5.85243E-05	0	0	0	
0.099	0.00141645	-0.00313772	0.000372493	6.15516E-05	0	0	0	
0.0991667	0.00482154	0.00343152	0.000367368	7.36799E-05	0	0	0	
0.0993333	-0.0106354	-0.00462549	0.0003354	8.77929E-05	0	0	0	
0.0995	0.0154902	0.000179618	0.000294463	9.8792E-05	0	0	0	
0.0996667	-0.00625557	0.000947824	0.000270338	9.10021E-05	0	0	0	
0.0998333	-0.00261212	0.00369396	0.000210737	7.18041E-05	0	0	0	
0.1	0.00750552	-0.00342277	0.000219293	6.40101E-05	0	0	0	
0.100167	0.00265116	-0.00285086	0.000266667	8.04688E-05	0	0	0	
0.100333	-0.00424614	-0.00347043	0.000337214	9.30514E-05	0	0	0	
0.1005	0.00785725	0.00339425	0.000332515	9.86898E-05	0	0	0	
0.100667	-0.00530507	-0.00746443	0.00031676	0.000123164	0	0	0	
0.100833	-0.00707129	0.00569495	0.000294527	0.000131052	0	0	0	
0.101	0.0100451	-0.000776162	0.000275449	0.000146455	0	0	0	
0.101167	-0.0137162	-0.00580946	0.000265905	0.000130414	0	0	0	
0.101333	0.0172322	0.00332354	0.000354774	0.00014403	0	0	0	
0.1015	-0.00225329	-0.00290568	0.000441008	0.000126848	0	0	0	
0.101667	0.00090835	-0.00531811	0.000474756	0.000131846	0	0	0	
0.101833	-0.00961187	0.00516777	0.000401365	0.000117616	0	0	0	
0.102	0.00462742	-0.00504845	0.000348543	0.000132724	0	0	0	
0.102167	0.00251013	0.00393949	0.000343088	0.000114306	0	0	0	
0.102333	-0.000834029	0.000578985	0.000295873	9.39942E-05	0	0	0	
0.1025	-0.000260825	0.000536353	0.000211151	7.7377E-05	0	0	0	
0.102667	0.00943081	0.00327526	0.000117184	6.94697E-05	0	0	0	
0.102833	-0.0123787	0.00423136	0.000133295	8.15345E-05	0	0	0	
0.103	0.0132585	-0.00698473	0.000184477	9.51134E-05	0	0	0	
0.103167	-0.0187622	0.00652534	0.000254161	0.000102542	0	0	0	
0.103333	0.0131743	-0.000186011	0.00030861	0.000101901	0	0	0	
0.1035	-0.00135465	-0.000812241	0.000368555	0.000114009	0	0	0	
0.103667	-0.00722935	0.00146024	0.000406612	0.00012457	0	0	0	
0.103833	0.00804264	-0.000895717	0.000365245	0.000114876	0	0	0	
0.104	-0.00697635	0.000449129	0.000301186	7.99403E-05	0	0	0	
0.104167	-0.00156857	-0.00302241	0.000213265	7.11924E-05	0	0	0	
0.104333	-0.0028233	-0.00319883	0.000179332	7.8126E-05	0	0	0	
0.1045	0.00849846	0.00547656	0.000188325	9.53158E-05	0	0	0	
0.104667	-0.00314901	-0.00846002	0.000230502	0.000113142	0	0	0	
0.104833	0.00159592	0.00274158	0.000227266	0.000143293	0	0	0	
0.105	0.00369255	0.000196035	0.000188783	0.000165424	0	0	0	
0.105167	-0.00793755	-0.00154316	0.000174323	0.000137521	0	0	0	
0.105333	0.00670718	0.00118147	0.000201764	0.000118985	0	0	0	
0.1055	-0.00281924	-0.000979712	0.000259874	0.000100013	0	0	0	
0.105667	0.00981907	0.00288612	0.000318154	0.000131852	0	0	0	
0.105833	-0.0016935	0.0014238	0.000344358	0.000112731	0	0	0	
0.106	-0.00719761	-0.00290399	0.000327512	0.0001015	0	0	0	
0.106167	0.00282319	0.00173835	0.00025909	5.97122E-05	0	0	0	
0.106333	0.000463769	0.00424461	0.000185145	6.1072E-05	0	0	0	
0.1065	-0.00444321	0.00284324	0.000144862	6.02548E-05	0	0	0	
0.106667	0.00156096	0.00244973	0.000162939	7.85496E-05	0	0	0	
0.106833	0.00587734	0.000395566	0.000244695	8.77807E-05	0	0	0	
0.107	-0.00529211	-0.000556611	0.000313346	8.98937E-05	0	0	0	
0.107167	0.000797822	-7.91988E-05	0.000301328	7.13991E-05	0	0	0	
0.107333	-0.000597167	-0.00298128	0.000193512	8.46194E-05	0	0	0	
0.1075	-0.00388857	-0.00561311	8.67096E-05	0.000111484	0	0	0	
0.107667	0.00137987	0.00656449	5.17769E-05	0.000126905	0	0	0	
0.107833	-0.00906649	-0.000471967	0.000137137	0.000120159	0	0	0	
0.108	0.0124621	0.00450917	0.000237016	0.000100458	0	0	0	
0.108167	0.00186824	-0.00247773	0.000292157	8.82424E-05	0	0	0	
0.108333	-0.00829853	-0.000118328	0.00031621	8.30509E-05	0	0	0	
0.1085	0.0123368	-0.00158947	0.000302869	6.15997E-05	0	0	0	
0.108667	-0.012086	-0.00144253	0.000304099	6.62813E-05	0	0	0	
0.108833	0.00766344	0.00504059	0.000277229	4.9207E-05	0	0	0	
0.109	-0.00552772	-0.00205662	0.000244345	5.14474E-05	0	0	0	
0.109167	-0.000633594	0.00264122	0.000175938	7.42327E-05	0	0	0	
0.109333	0.00761578	0.00341207	0.000121812	0.000108537	0	0	0	
0.1095	-0.00745212	3.0512E-05	0.000138016	0.000125309	0	0	0	
0.109667	-0.00159843	0.00484009	0.000257548	0.00010238	0	0	0	
0.109833	0.00966194	0.00100846	0.000406614	7.03232E-05	0	0	0	
0.11	-0.00994017	0.00264779	0.000474558	6.7822E-05	0	0	0	
0.110167	0.00338135	0.00388671	0.00041334	7.23159E-05	0	0	0	
0.110333	-0.00524351	-0.000587961	0.000282389	7.84505E-05	0	0	0	
0.1105	0.00383339	0.00343787	0.000204649	7.62818E-05	0	0	0	
0.110667	-0.00544454	0.000937821	0.00020047	8.36214E-05	0	0	0	
0.110833	0.00372961	-0.00298938	0.00022796	8.93793E-05	0	0	0	
0.111	0.000912691	0.00214988	0.000236455	7.14686E-05	0	0	0	
0.111167	-0.000918155	0.00119634	0.000240815	6.55771E-05	0	0	0	
0.111333	-0.000598966	-0.000849075	0.000232652	5.87803E-05	0	0	0	
0.1115	-0.0029803	0.00322176	0.000208594	8.60156E-05	0	0	0	
0.111667	0.00395222	0.00258802	0.000191393	7.95109E-05	0	0	0	
0.111833	0.000239175	-0.00025473	0.00021784	6.85183E-05	0	0	0	
0.112	-0.00273282	0.000550286	0.000267964	4.03354E-05	0	0	0	
0.112167	0.00295996	0.000311162	0.000275252	2.83407E-05	0	0	0	
0.112333	0.00271772	-0.000212811	0.000220245	1.98471E-05	0	0	0	
0.1125	-0.0049783	0.00430853	0.000179237	2.72133E-05	0	0	0	
0.112667	-2.75887E-05	-0.00621443	0.000219303	7.25635E-05	0	0	0	
0.112833	0.00899424	0.000786735	0.000303306	9.76862E-05	0	0	0	
0.113	-0.00719946	0.000880848	0.000347216	0.00011134	0	0	0	
0.113167	0.00774661	0.000801161	0.000319191	6.95358E-05	0	0	0	
0.113333	-0.00716134	-0.00631778	0.000257679	5.51905E-05	0	0	0	
0.1135	0.00249751	0.00444769	0.000187909	6.71557E-05	0	0	0	
0.113667	0.00266323	-0.00219613	0.00011988	8.66824E-05	0	0	0	
0.113833	-0.00170044	-0.00293684	9.83051E-05	9.56659E-05	0	0	0	
0.114	0.00237998	0.000563828	0.000132254	8.88053E-05	0	0	0	
0.114167	0.00104218	-0.00693568	0.000211422	8.60188E-05	0	0	0	
0.114333	-0.00400784	-0.000614132	0.000282476	8.8131E-05	0	0	0	
0.1145	0.00227171	0.00158453	0.000307435	0.000103997	0	0	0	
0.114667	-0.00201955	-0.000378044	0.000290574	0.000108632	0	0	0	
0.114833	0.00129131	0.00226131	0.000264262	9.38965E-05	0	0	0	
0.115	-0.0009883	-0.00349361	0.000249969	5.88018E-05	0	0	0	
0.115167	-0.000729773	0.00184054	0.000258441	4.74844E-05	0	0	0	
0.115333	-0.0015953	-0.00175929	0.000278713	7.05828E-05	0	0	0	
0.1155	0.00398961	0.000529648	0.000282676	7.84291E-05	0	0	0	
0.115667	-0.00215333	0.0037092	0.000243434	7.14502E-05	0	0	0	
0.115833	-0.00325502	0.00297769	0.000182547	6.18658E-05	0	0	0	
0.116	0.00157874	-0.00192221	0.000168832	6.67313E-05	0	0	0	
0.116167	0.000203078	-0.000691397	0.000217646	9.57359E-05	0	0	0	
0.116333	-0.00295748	-0.00287045	0.000259533	0.000121829	0	0	0	
0.1165	0.000828097	-0.00561517	0.000244964	0.000159749	0	0	0	
0.116667	0.000192499	0.00752837	0.000202285	0.000149002	0	0	0	
0.116833	0.0027135	0.000147086	0.000199762	0.000146403	0	0	0	
0.117	-0.00885	-0.00539659	0.000217669	0.000138528	0	0	0	
0.117167	0.00428212	0.0119966	0.000217692	0.000189776	0	0	0	
0.117333	0.000588699	-0.0157827	0.000166893	0.000205346	0	0	0	
0.1175	-0.0032862	0.00524829	0.000166398	0.000255831	0	0	0	
0.117667	0.0015163	0.000992985	0.000192397	0.000269243	0	0	0	
0.117833	0.00101302	-0.00451795	0.000221105	0.000267636	0	0	0	
0.118	-0.00176772	0.00439378	0.000241302	0.000181914	0	0	0	
0.118167	0.0055665	-0.00106335	0.000292694	0.000116077	0	0	0	
0.118333	-0.0104251	-0.00825831	0.000350079	8.21986E-05	0	0	0	
0.1185	0.00634833	0.00470292	0.000344905	0.000121525	0	0	0	
0.118667	-0.000481212	-0.000441378	0.000252251	0.000129647	0	0	0	
0.118833	-0.000827708	0.000947424	0.000161101	0.000140414	0	0	0	
0.119	0.00308793	-0.00350367	0.000143383	0.000100506	0	0	0	
0.119167	-0.00114002	0.00953479	0.000213735	8.41184E-05	0	0	0	
0.119333	-0.00588133	-0.00659592	0.000289675	0.000119187	0	0	0	
0.1195	0.00243815	0.000795177	0.000304379	0.00012455	0	0	0	
0.119667	-0.00010946	0.000781842	0.000261044	0.000144819	0	0	0	
0.119833	0.00028814	-0.00500426	0.000232915	0.000110328	0	0	0	
0.12	-0.00167247	0.000986999	0.000224742	0.000113964	0	0	0	
0.120167	0.00012843	-0.000354966	0.000231246	9.23084E-05	0	0	0	
0.120333	-0.00335699	0.00324811	0.000246345	6.61532E-05	0	0	0	
0.1205	0.00409049	-0.00163995	0.000265245	7.31066E-05	0	0	0	
0.120667	-0.00847766	-0.00112939	0.000255118	6.00477E-05	0	0	0	
0.120833	0.00283001	0.00389215	0.000226293	8.76518E-05	0	0	0	
0.121	-0.000822717	-0.000856879	0.000148185	0.000105249	0	0	0	
0.121167	-0.00242507	-0.00318489	0.00010985	0.000148475	0	0	0	
0.121333	0.0116957	0.00146089	0.000141858	0.00014977	0	0	0	
0.1215	-0.00490075	0.00532863	0.000254081	0.000129077	0	0	0	
0.121667	-0.00453643	-0.00209158	0.000351963	0.000107983	0	0	0	
0.121833	0.00814613	0.00945986	0.000354256	9.66613E-05	0	0	0	
0.122	-0.00679353	-0.00325428	0.000295904	9.66777E-05	0	0	0	
0.122167	-0.00143656	0.0011855	0.000221379	0.00012262	0	0	0	
0.122333	0.00626267	0.00712396	0.000171152	0.00014159	0	0	0	
0.1225	-0.00104869	-0.00625159	0.000151409	0.000124498	0	0	0	
0.122667	-0.0020912	0.00634455	0.00018182	0.000140183	0	0	0	
0.122833	0.00746902	0.00336161	0.000242947	0.000163789	0	0	0	
0.123	-0.0107433	-0.00672229	0.000309265	0.00019779	0	0	0	
0.123167	0.0098887	0.0119857	0.000294624	0.000198713	0	0	0	
0.123333	0.00421114	-0.000165046	0.000277212	0.000221421	0	0	0	
0.1235	-0.0130017	-0.00672005	0.000251614	0.000256605	0	0	0	
0.123667	0.00801608	0.00778807	0.000245262	0.000244027	0	0	0	
0.123833	-0.0039263	-0.00204038	0.000213407	0.000162957	0	0	0	
0.124	0.00734974	-0.0064129	0.000181579	9.75142E-05	0	0	0	
0.124167	0.00345562	0.00574039	0.000248616	8.77732E-05	0	0	0	
0.124333	-0.0176511	-0.00534822	0.000356385	0.000103713	0	0	0	
0.1245	0.0199744	0.00167051	0.000413488	0.000110689	0	0	0	
0.124667	-0.0117909	0.00187557	0.000394622	8.169E-05	0	0	0	
0.124833	0.00536613	0.00093377	0.00030089	7.54707E-05	0	0	0	
0.125	-0.00124654	-0.00288575	0.000217147	7.3855E-05	0	0	0	
0.125167	-0.00689728	-0.000133083	0.000139849	8.8078E-05	0	0	0	
0.125333	0.00726761	-0.00438126	0.000137288	8.57166E-05	0	0	0	
0.1255	-0.00173819	-0.0001486	0.000221158	8.7292E-05	0	0	0	
0.125667	-0.00227734	0.00457148	0.000279151	7.74027E-05	0	0	0	
0.125833	-0.00569249	0.00171306	0.000254406	8.43256E-05	0	0	0	
0.126	-0.00533733	-0.0249366	0.000267812	0.00015738	0	0	0	
0.126167	0.0391299	0.034998	0.000407428	0.000344404	0	0	0	
0.126333	-0.129409	-0.0239861	0.000906059	0.00106039	0	0	0	
0.1265	0.170633	0.0503581	0.00171596	0.00219389	0	0	0	
0.126667	-0.0467905	-0.0135789	0.00223407	0.00225547	0	0	0	
0.126833	-0.00706896	-0.0315632	0.00197905	0.0016771	0	0	0	
0.127	0.00643983	-0.0307402	0.00107561	0.000653211	0	0	0	
0.127167	0.00345076	0.0297184	0.000475206	0.000665347	0	0	0	
0.127333	-0.0645582	-0.105084	0.000485802	0.000870836	0	0	0	
0.1275	0.059335	0.205833	0.00108272	0.0017958	0	0	0	
0.127667	-0.0451285	-0.0312723	0.00175177	0.00198414	0	0	0	
0.127833	0.0287555	-0.041019	0.00183508	0.00180757	0	0	0	
0.128	-0.0120928	-0.0103783	0.00131572	0.000886912	0	0	0	
0.128167	0.00571783	-0.0170494	0.000599153	0.000615732	0	0	0	
0.128333	-0.016453	0.00521948	0.000430862	0.000544037	0	0	0	
0.1285	0.0450958	0.0197268	0.000521496	0.000419549	0	0	0	
0.128667	-0.0534947	-0.0242035	0.00076774	0.000346979	0	0	0	
0.128833	0.00279994	0.00228816	0.000752771	0.000308419	0	0	0	
0.129	0.00359711	-0.0151833	0.000564947	0.000351469	0	0	0	
0.129167	-0.000361443	0.00810369	0.000286038	0.000314235	0	0	0	
0.129333	0.00192833	0.0206639	0.000155141	0.00034628	0	0	0	
0.1295	-0.0508463	-0.0495126	0.000336618	0.000326028	0	0	0	
0.129667	0.105156	0.114664	0.00118456	0.00108905	0	0	0	
0.129833	-0.181399	-0.223214	0.00184647	0.00176514	0	0	0	
0.13	0.0176352	0.0184791	0.00219418	0.00231162	0	0	0	
0.130167	-0.00606108	-0.00680925	0.0013641	0.00155916	0	0	0	
0.130333	0.00492274	-0.000663334	0.000739855	0.00083531	0	0	0	
0.1305	-0.0263289	0.00361453	0.000290445	0.000266973	0	0	0	
0.130667	-0.00680792	-0.00895333	0.000796412	0.000580215	0	0	0	
0.130833	0.0874845	0.049541	0.00134793	0.00121442	0	0	0	
0.131	-0.0772044	-0.0791817	0.00192657	0.00192149	0	0	0	
0.131167	0.00905844	-0.00181373	0.00158299	0.0018024	0	0	0	
0.131333	-0.00439605	0.00757103	0.000964747	0.00114484	0	0	0	
0.1315	0.00342719	0.016803	0.000305804	0.000415836	0	0	0	
0.131667	0.0163578	-0.00168022	0.00011994	0.000211422	0	0	0	
0.131833	-0.00416997	-0.0126639	0.000148417	0.000236992	0	0	0	
0.132	-0.0452313	0.0608848	0.000206476	0.000367435	0	0	0	
0.132167	0.00320712	-0.0173338	0.000341659	0.000512078	0	0	0	
0.132333	0.0025915	0.0143193	0.000335106	0.000546254	0	0	0	
0.1325	-0.00165862	-0.00360107	0.000332972	0.000389387	0	0	0	
0.132667	-0.00240755	0.0051413	0.000262528	0.000206472	0	0	0	
0.132833	0.0112435	0.00465355	0.000324989	0.000163192	0	0	0	
0.133	-0.0153353	0.00259914	0.000385212	0.000182723	0	0	0	
0.133167	-0.0204859	0.0308642	0.000494722	0.000303464	0	0	0	
0.133333	0.00242266	-0.00547324	0.000542482	0.000388218	0	0	0	
0.1335	0.00685812	-0.00057945	0.000542945	0.000432985	0	0	0	
0.133667	-0.00970107	-2.8705E-05	0.000399854	0.00033765	0	0	0	
0.133833	0.00602978	-0.00426599	0.000314186	0.000262943	0	0	0	
0.134	-0.00144193	0.0117848	0.000240255	0.000199459	0	0	0	
0.134167	0.000627725	-0.00268454	0.000176689	0.00017212	0	0	0	
0.134333	0.00454684	-0.00203358	0.000128056	0.000161662	0	0	0	
0.1345	0.00136789	-0.00400658	0.000147682	0.000158205	0	0	0	
0.134667	-0.00533689	-0.00427376	0.00024843	0.000143176	0	0	0	
0.134833	0.0111632	0.00553426	0.000355188	0.000117735	0	0	0	
0.135	-0.00937143	-0.00139681	0.000404881	0.000123193	0	0	0	
0.135167	0.0107324	0.00157094	0.000357479	9.79074E-05	0	0	0	
0.135333	-0.00716025	0.000320195	0.00027455	7.86383E-05	0	0	0	
0.1355	0.000146175	-0.00488743	0.000168619	5.48923E-05	0	0	0	
0.135667	0.0113929	0.000829555	0.000143289	8.02265E-05	0	0	0	
0.135833	-0.00464744	-0.00314067	0.000195212	8.87257E-05	0	0	0	
0.136	-0.0108127	0.00496511	0.000354896	9.70816E-05	0	0	0	
0.136167	0.0163253	0.00428891	0.000476779	0.000111417	0	0	0	
0.136333	-0.012907	0.00473682	0.000473868	0.000117336	0	0	0	
0.1365	0.00976637	-0.000563052	0.00036361	0.000119451	0	0	0	
0.136667	-0.00397683	1.20251E-05	0.000250334	9.89739E-05	0	0	0	
0.136833	-0.00245632	-0.00450154	0.000184539	9.79966E-05	0	0	0	
0.137	0.00391105	-0.00248989	0.000187728	9.79581E-05	0	0	0	
0.137167	-0.00282702	-0.00337315	0.000269716	9.10461E-05	0	0	0	
0.137333	-0.00810452	0.000150317	0.000378178	7.94052E-05	0	0	0	
0.1375	0.011804	-0.00124052	0.000416513	7.23151E-05	0	0	0	
0.137667	-0.00636152	0.00351926	0.000364798	6.22402E-05	0	0	0	
0.137833	-0.0029484	0.000688004	0.000248479	6.96208E-05	0	0	0	
0.138	0.00331947	0.00170964	0.000169305	9.91059E-05	0	0	0	
0.138167	-0.00104337	0.000790867	0.000178055	0.00011829	0	0	0	
0.138333	-0.0106705	-0.00327647	0.000277544	0.00011945	0	0	0	
0.1385	0.0133222	-0.00422666	0.000372805	0.000107611	0	0	0	
0.138667	-0.00929136	0.00323799	0.000365052	0.000106864	0	0	0	
0.138833	-5.975E-05	-0.00189556	0.000271097	0.000117145	0	0	0	
0.139	-0.000354322	0.00722649	0.000182652	0.00010553	0	0	0	
0.139167	0.00344556	0.00335471	0.000174294	0.000108427	0	0	0	
0.139333	-0.00675604	0.00282233	0.000198044	0.000105226	0	0	0	
0.1395	0.000814693	0.0028349	0.000217715	0.000101658	0	0	0	
0.139667	-0.00093203	-0.00116658	0.000203687	7.77404E-05	0	0	0	
0.139833	0.00589523	7.11098E-05	0.00021687	6.55066E-05	0	0	0	
0.14	-0.00208106	0.00329454	0.000204607	6.0497E-05	0	0	0	
0.140167	-0.00206306	0.00136631	0.000167729	6.22021E-05	0	0	0	
0.140333	0.0022683	0.00173072	0.000171278	4.90322E-05	0	0	0	
0.1405	0.00237375	0.0015088	0.000240037	4.3905E-05	0	0	0	
0.140667	-0.0090315	-0.00131197	0.000310603	3.96398E-05	0	0	0	
0.140833	0.00616375	0.00476421	0.000313377	5.1413E-05	0	0	0	
0.141	-0.00207304	0.00210839	0.000265688	5.47921E-05	0	0	0	
0.141167	0.00349367	0.000348902	0.000237742	7.18383E-05	0	0	0	
0.141333	-0.00391639	-0.00409146	0.00022213	6.79674E-05	0	0	0	
0.1415	0.000216411	0.000766274	0.000176921	6.56094E-05	0	0	0	
0.141667	0.00470581	-0.00429262	0.000116342	7.28699E-05	0	0	0	
0.141833	-0.00938808	-0.00198906	0.000128802	7.70041E-05	0	0	0	
0.142	0.000525196	0.000379175	0.000234262	6.91613E-05	0	0	0	
0.142167	0.00559568	0.00391691	0.000348635	6.31709E-05	0	0	0	
0.142333	-0.00706812	0.00119646	0.000340683	6.14511E-05	0	0	0	
0.1425	0.00347881	0.000761585	0.000258281	6.80503E-05	0	0	0	
0.142667	-0.00623455	-0.00732344	0.00016377	8.55834E-05	0	0	0	
0.142833	0.00299867	0.00490109	0.000131416	0.000101387	0	0	0	
0.143	0.0026513	-0.000744354	0.000103005	0.000122599	0	0	0	
0.143167	-0.00134122	0.000860228	0.000160139	8.858E-05	0	0	0	
0.143333	-0.00753765	-0.00427031	0.000254	7.66048E-05	0	0	0	
0.1435	0.00986115	0.00325495	0.000338672	5.86455E-05	0	0	0	
0.143667	-0.00801994	0.00422139	0.000313675	8.959E-05	0	0	0	
0.143833	0.00417571	-0.00174786	0.000238464	9.92358E-05	0	0	0	
0.144	-0.00326704	-0.000126252	0.000192832	8.94364E-05	0	0	0	
0.144167	-0.000458999	-0.00118599	0.00019769	5.75987E-05	0	0	0	
0.144333	0.000511036	0.00183518	0.000215574	5.2262E-05	0	0	0	
0.1445	0.00262764	-0.00141196	0.000230568	5.46941E-05	0	0	0	
0.144667	-0.0044939	-0.00205894	0.00023096	6.58597E-05	0	0	0	
0.144833	0.00562966	0.00106058	0.000216606	5.35844E-05	0	0	0	
0.145	-0.00654548	-0.00358867	0.000190478	6.24043E-05	0	0	0	
0.145167	0.0015212	0.000519746	0.000169454	5.07948E-05	0	0	0	
0.145333	-0.00363562	-0.00516355	0.000164946	6.34964E-05	0	0	0	
0.1455	0.00741295	0.00509102	0.000180725	7.40077E-05	0	0	0	
0.145667	-0.00419828	0.000303312	0.00018202	8.49342E-05	0	0	0	
0.145833	0.0035388	0.000436778	0.000173316	9.50486E-05	0	0	0	
0.146	-0.0063365	-0.00194509	0.000178422	0.000115332	0	0	0	
0.146167	0.00288993	-0.0122269	0.00017444	0.000138021	0	0	0	
0.146333	0.00191393	0.00337962	0.00014908	0.000143953	0	0	0	
0.1465	-0.00178232	0.00715348	0.000158367	0.000207908	0	0	0	
0.146667	-0.00306363	-0.0110471	0.000234953	0.000244216	0	0	0	
0.146833	0.00713881	0.010606	0.000319407	0.000275906	0	0	0	
0.147	-0.00775217	-0.00224895	0.000345724	0.000219076	0	0	0	
0.147167	0.0115562	0.00255319	0.000320316	0.000171798	0	0	0	
0.147333	-0.00996984	-0.00301928	0.000282974	0.000144067	0	0	0	
0.1475	-0.00191969	-0.00838426	0.000211651	0.000149627	0	0	0	
0.147667	0.007492	0.00408705	0.000149925	0.000150734	0	0	0	
0.147833	-0.00140345	-0.00158678	0.00016074	0.00015699	0	0	0	
0.148	-0.00299878	-0.00315734	0.000243814	0.000126244	0	0	0	
0.148167	0.00605868	0.0048748	0.00032009	0.000116844	0	0	0	
0.148333	-0.00939412	0.00551208	0.000334809	9.59935E-05	0	0	0	
0.1485	0.00558946	0.00301721	0.000291838	9.45662E-05	0	0	0	
0.148667	-0.00217688	-0.000495478	0.000217797	0.000101388	0	0	0	
0.148833	0.000242548	0.00281612	0.000172768	7.95716E-05	0	0	0	
0.149	-9.08281E-05	-0.00225071	0.000183015	6.03984E-05	0	0	0	
0.149167	0.000650451	0.00292106	0.000232255	4.64083E-05	0	0	0	
0.149333	-0.00871163	-0.000152156	0.000263193	6.63778E-05	0	0	0	
0.1495	0.00878948	0.00742135	0.000268392	8.89043E-05	0	0	0	
0.149667	-0.00866944	0.00462616	0.000231286	0.000101377	0	0	0	
0.149833	0.00069947	0.00344404	0.000193841	0.000112888	0	0	0	
0.15	-0.00154577	0.00656914	0.000138673	0.000109232	0	0	0	
0.150167	0.00628228	-0.00154657	0.000179866	0.000111921	0	0	0	
0.150333	-0.0121326	0.00138645	0.000266912	9.74171E-05	0	0	0	
0.1505	0.0124447	9.39795E-06	0.00035755	7.34331E-05	0	0	0	
0.150667	-0.0129795	-0.000919022	0.000353768	6.537E-05	0	0	0	
0.150833	0.00471041	-0.00116326	0.000299654	6.34444E-05	0	0	0	
0.151	-0.00268379	-0.00183375	0.000213275	7.18649E-05	0	0	0	
0.151167	-0.00368769	0.000143986	0.000185884	5.70756E-05	0	0	0	
0.151333	0.00163051	-0.000570985	0.000206489	5.706E-05	0	0	0	
0.1515	0.00644655	0.00113167	0.000285483	7.80628E-05	0	0	0	
0.151667	-0.010401	0.000717574	0.000329881	8.44976E-05	0	0	0	
0.151833	0.0104615	-0.00161378	0.000317759	6.89746E-05	0	0	0	
0.152	-0.00820953	-0.0033193	0.000278484	5.41524E-05	0	0	0	
0.152167	0.00212285	-0.00568537	0.00024292	6.10371E-05	0	0	0	
0.152333	-0.00331227	-0.0045385	0.00022439	9.85618E-05	0	0	0	
0.1525	0.00651069	-0.00162336	0.000232404	0.000106229	0	0	0	
0.152667	-0.00694062	-0.00613575	0.000259478	0.000113942	0	0	0	
0.152833	0.00588909	-0.000769805	0.000284876	8.30682E-05	0	0	0	
0.153	-0.00399796	-0.00297711	0.000282789	7.68591E-05	0	0	0	
0.153167	0.00360636	0.00025306	0.000273385	5.76724E-05	0	0	0	
0.153333	-0.00319087	0.000528102	0.000283325	6.22033E-05	0	0	0	
0.1535	0.00745106	-0.00147026	0.000300058	6.88284E-05	0	0	0	
0.153667	-0.0112781	-0.00709918	0.000316437	9.46913E-05	0	0	0	
0.153833	0.0114593	0.000726681	0.000320085	0.000112524	0	0	0	
0.154	-0.00788318	-0.00812086	0.000296857	0.000141003	0	0	0	
0.154167	0.00262625	-0.0034579	0.000251898	0.000159854	0	0	0	
0.154333	-0.000739507	0.00631395	0.000209367	0.000153904	0	0	0	
0.1545	0.00531304	0.00146967	0.000212227	0.000115512	0	0	0	
0.154667	-0.00896967	0.00113231	0.00023979	7.73243E-05	0	0	0	
0.154833	0.00434773	0.00989015	0.000266406	8.73088E-05	0	0	0	
0.155	-0.0014393	-0.00162161	0.000291285	9.88479E-05	0	0	0	
0.155167	0.00577729	0.005713	0.000334259	0.000142997	0	0	0	
0.155333	-0.0121514	0.00184875	0.000371915	0.000124056	0	0	0	
0.1555	0.0132613	-0.0059138	0.000380006	0.000110027	0	0	0	
0.155667	-0.0116954	0.00034512	0.000333177	7.19435E-05	0	0	0	
0.155833	0.00464366	0.00306456	0.000274645	7.80226E-05	0	0	0	
0.156	7.46461E-05	-0.00264786	0.000225422	0.000107195	0	0	0	
0.156167	-0.000982098	0.00542443	0.000220121	0.000126898	0	0	0	
0.156333	-0.00109449	0.00274257	0.000242836	0.000147846	0	0	0	
0.1565	0.0050182	-0.00513352	0.00029042	0.000138813	0	0	0	
0.156667	-0.00809721	-0.00276607	0.000324898	0.000140722	0	0	0	
0.156833	0.00498586	-0.00318166	0.000312602	0.000115829	0	0	0	
0.157	-0.00205526	-0.00622832	0.000237863	0.000126765	0	0	0	
0.157167	-0.000558064	-0.000137182	0.00017664	0.000104553	0	0	0	
0.157333	-0.00181475	-0.00631209	0.00019263	0.000118302	0	0	0	
0.1575	0.00670352	0.000508566	0.000251955	0.000107887	0	0	0	
0.157667	-0.00759016	-0.00229848	0.000253988	0.000113185	0	0	0	
0.157833	0.00672891	0.00280403	0.000200381	0.000102071	0	0	0	
0.158	6.05676E-05	0.00175009	0.000121375	7.69977E-05	0	0	0	
0.158167	-0.00257741	5.02029E-05	9.37409E-05	5.34325E-05	0	0	0	
0.158333	-0.0012784	-0.00662461	0.000141196	6.40168E-05	0	0	0	
0.1585	0.0147232	0.00727905	0.000240852	7.01319E-05	0	0	0	
0.158667	-0.0190409	-0.00226487	0.000317529	0.000100533	0	0	0	
0.158833	-0.000521534	0.00559883	0.000294596	0.000108429	0	0	0	
0.159	0.0108704	0.0079204	0.000220414	0.00012903	0	0	0	
0.159167	-0.00729303	-0.00167332	0.000192978	0.000135306	0	0	0	
0.159333	0.0107663	-0.000999967	0.000261719	9.74587E-05	0	0	0	
0.1595	0.0329375	0.00523189	0.000567526	0.000116849	0	0	0	
0.159667	0.119637	0.0560979	0.00139984	0.000728859	0	0	0	
0.159833	-0.013749	0.0155218	0.00172698	0.000977568	0	0	0	
0.16	0.000450225	-0.0352211	0.00146087	0.00115532	0	0	0	
0.160167	-0.0146662	0.00654923	0.000666385	0.000644636	0	0	0	
0.160333	0.0354434	0.0069032	0.000345323	0.000423954	0	0	0	
0.1605	0.00204704	-0.00444882	0.000455703	0.000277367	0	0	0	
0.160667	-0.0104593	-0.0020615	0.000555659	0.000245973	0	0	0	
0.160833	0.0206489	0.0108345	0.000651016	0.000300743	0	0	0	
0.161	-0.0275778	-0.00504212	0.000613069	0.000321415	0	0	0	
0.161167	0.0063503	0.00936704	0.000491812	0.000242017	0	0	0	
0.161333	-0.00225624	-0.000295584	0.00029739	0.000208541	0	0	0	
0.1615	0.0110602	-0.0148132	0.000226951	0.000159021	0	0	0	
0.161667	-0.0161915	0.00734529	0.000275947	0.000187167	0	0	0	
0.161833	0.0148592	0.00188509	0.00029308	0.000164011	0	0	0	
0.162	-0.0103567	0.0104385	0.000290083	0.000150064	0	0	0	
0.162167	-0.00164676	-0.0037062	0.000183203	0.000133708	0	0	0	
0.162333	-0.00474079	0.00295663	0.000155287	0.000139502	0	0	0	
0.1625	0.00213894	0.00623731	0.0001342	0.000113096	0	0	0	
0.162667	-0.0065985	-0.0168218	0.000171437	0.000169904	0	0	0	
0.162833	0.0074651	0.000218195	0.000233971	0.000213805	0	0	0	
0.163	-0.00996174	0.0103272	0.000289529	0.000227046	0	0	0	
0.163167	0.0037849	0.000452963	0.000332161	0.00015596	0	0	0	
0.163333	-0.00558646	-0.00028146	0.000297704	9.40993E-05	0	0	0	
0.1635	0.00379558	0.000817539	0.000224871	6.37402E-05	0	0	0	
0.163667	-0.00864806	-0.00321274	0.000160883	4.45684E-05	0	0	0	
0.163833	0.00872634	0.000910043	0.000193473	6.0981E-05	0	0	0	
0.164	-0.00649887	0.00336523	0.000214369	9.38575E-05	0	0	0	
0.164167	0.00101599	0.00129133	0.000235545	0.000103947	0	0	0	
0.164333	-0.0026605	0.000756804	0.00021495	8.74563E-05	0	0	0	
0.1645	0.0020237	-0.00546114	0.000198807	8.14388E-05	0	0	0	
0.164667	-0.00136602	-0.000311425	0.000169384	7.43652E-05	0	0	0	
0.164833	0.00288391	0.0033686	0.000189873	9.28E-05	0	0	0	
0.165	-0.00735844	-0.00207195	0.00025929	0.000112311	0	0	0	
0.165167	0.00423589	0.00398057	0.000292769	0.000129069	0	0	0	
0.165333	0.001144	0.00618932	0.00025618	0.000135724	0	0	0	
0.1655	0.00130944	-0.00120464	0.000192437	9.87347E-05	0	0	0	
0.165667	3.09036E-05	-0.0004665	0.000162716	7.68934E-05	0	0	0	
0.165833	0.00109768	-0.0014323	0.00013261	3.19065E-05	0	0	0	
0.166	-0.000252594	0.00165795	0.000112737	2.94968E-05	0	0	0	
0.166167	0.000338719	0.00172751	0.00011703	4.53368E-05	0	0	0	
0.166333	-0.00128703	0.00156342	0.000145323	5.79257E-05	0	0	0	
0.1665	0.00119248	-0.000219086	0.00014083	6.85238E-05	0	0	0	
0.166667	0.00288895	0.00446111	0.000107065	5.68158E-05	0	0	0	
0.166833	0.000397765	0.000528895	8.22614E-05	7.2904E-05	0	0	0	
0.167	-0.00681447	-0.00751007	0.000110372	0.000115846	0	0	0	
0.167167	0.0113091	0.00615	0.000169147	0.00017233	0	0	0	
0.167333	-0.00996294	-0.00831017	0.000229645	0.000191909	0	0	0	
0.1675	0.00738355	0.00256768	0.000257496	0.000148103	0	0	0	
0.167667	-0.00460329	-0.00198759	0.000223493	9.76814E-05	0	0	0	
0.167833	0.00250172	0.000594508	0.000146423	5.09292E-05	0	0	0	
0.168	-0.0021046	0.000525482	8.1833E-05	4.95851E-05	0	0	0	
0.168167	0.00134917	-0.00529682	0.000105373	7.72975E-05	0	0	0	
0.168333	-0.00524552	0.00647506	0.000181837	0.000137612	0	0	0	
0.1685	0.00702282	-0.00965226	0.000231156	0.000158011	0	0	0	
0.168667	-0.00559109	0.00372557	0.000207827	0.000167415	0	0	0	
0.168833	0.00454558	0.000828714	0.000151642	0.00013235	0	0	0	
0.169	-0.00219169	-0.00224929	0.000105592	0.000103763	0	0	0	
0.169167	0.00134499	0.002292	8.1646E-05	6.98804E-05	0	0	0	
0.169333	-0.000530815	-0.00507307	8.65752E-05	6.13399E-05	0	0	0	
0.1695	1.96198E-05	-0.0013976	0.000129439	9.90599E-05	0	0	0	
0.169667	-0.00477265	-0.0034199	0.000180961	0.000145498	0	0	0	
0.169833	0.00478891	-0.00141279	0.000191662	0.000163913	0	0	0	
0.17	-0.00188149	-0.000308518	0.000150812	0.000117407	0	0	0	
0.170167	0.00271436	0.00425622	0.000102681	6.47477E-05	0	0	0	
0.170333	-0.00280461	-0.00776441	9.65311E-05	6.08151E-05	0	0	0	
0.1705	0.00224091	0.00387311	0.000118324	0.000106685	0	0	0	
0.170667	-0.00323161	-0.00953145	0.00013472	0.000134214	0	0	0	
0.170833	0.00467415	0.00181198	0.000131127	0.000151913	0	0	0	
0.171	-0.00465565	-0.00234095	0.000120608	0.000108607	0	0	0	
0.171167	0.00281934	-0.00121299	0.000111737	7.24449E-05	0	0	0	
0.171333	-0.00150548	0.00282807	9.03924E-05	2.8267E-05	0	0	0	
0.1715	0.00367185	0.00119118	7.57684E-05	4.28062E-05	0	0	0	
0.171667	-0.00631598	-0.00017779	8.61809E-05	8.15089E-05	0	0	0	
0.171833	0.00911859	0.0026775	0.000124321	9.8672E-05	0	0	0	
0.172	-0.00350648	-0.00145071	0.000151181	9.27386E-05	0	0	0	
0.172167	0.00258671	0.000528891	0.00014075	4.81563E-05	0	0	0	
0.172333	-0.00715583	-0.000689332	0.000126789	2.28714E-05	0	0	0	
0.1725	0.0148172	0.00610772	0.000156067	4.29988E-05	0	0	0	
0.172667	-0.0133179	0.0045023	0.000227273	7.9722E-05	0	0	0	
0.172833	0.0095731	-0.00178366	0.000275838	0.000132246	0	0	0	
0.173	-0.00508811	0.00218017	0.000274897	0.000141903	0	0	0	
0.173167	0.00300164	-0.00149645	0.000217233	0.000124936	0	0	0	
0.173333	8.16432E-05	0.000929801	0.000149653	7.76819E-05	0	0	0	
0.1735	0.00172185	0.00419825	0.000118326	4.52678E-05	0	0	0	
0.173667	-0.00247072	0.00240641	0.000171808	4.53947E-05	0	0	0	
0.173833	0.00424315	0.00365368	0.000261168	7.3757E-05	0	0	0	
0.174	-0.00644573	-0.00275717	0.000317017	8.24339E-05	0	0	0	
0.174167	0.00442159	0.00192942	0.000298518	7.69874E-05	0	0	0	
0.174333	-0.00399219	0.000178206	0.000222762	5.59978E-05	0	0	0	
0.1745	0.00380986	-0.000637975	0.000141536	4.31098E-05	0	0	0	
0.174667	-0.00904171	0.0022269	0.00010841	3.55723E-05	0	0	0	
0.174833	0.00561071	0.00153629	0.000128699	3.77645E-05	0	0	0	
0.175	-0.00558364	0.00125576	0.000151356	5.96308E-05	0	0	0	
0.175167	-0.000337993	-0.000326498	0.000147041	7.97226E-05	0	0	0	
0.175333	0.00105994	0.00181767	0.000120738	7.43263E-05	0	0	0	
0.1755	0.000394951	-0.000527481	0.000116686	5.46915E-05	0	0	0	
0.175667	-0.00677097	-0.00153511	0.000141054	5.02492E-05	0	0	0	
0.175833	0.00733873	0.0100346	0.000214835	7.78411E-05	0	0	0	
0.176	-0.0119993	-0.0027443	0.000273804	0.000105383	0	0	0	
0.176167	0.00783492	-0.000138372	0.000301003	0.000101168	0	0	0	
0.176333	-0.00427568	0.00296246	0.000235616	7.63078E-05	0	0	0	
0.1765	0.00237422	-0.00338669	0.000148306	6.14687E-05	0	0	0	
0.176667	0.00109551	0.00687537	6.53292E-05	6.40618E-05	0	0	0	
0.176833	0.000198093	-0.00492983	3.50785E-05	0.000105242	0	0	0	
0.177	0.000225228	0.00555813	7.73335E-05	0.00014008	0	0	0	
0.177167	-8.22671E-05	0.00626217	0.000125133	0.000147016	0	0	0	
0.177333	0.00414555	0.00199399	0.000145858	0.000113377	0	0	0	
0.1775	-0.00396343	0.00149128	0.000111183	6.49312E-05	0	0	0	
0.177667	-6.11159E-05	0.000451418	9.0049E-05	6.39793E-05	0	0	0	
0.177833	0.00738453	-0.012581	0.000105507	0.000164818	0	0	0	
0.178	-0.011411	0.00341992	0.000139738	0.000291955	0	0	0	
0.178167	0.0126599	0.0038477	0.000163487	0.00029868	0	0	0	
0.178333	-0.012521	-0.000479808	0.00020814	0.000233606	0	0	0	
0.1785	0.00726176	0.00709132	0.000209071	0.000143665	0	0	0	
0.178667	-0.000754213	0.00116421	0.000186013	0.000151572	0	0	0	
0.178833	0.0015009	0.00204324	0.00011004	0.000104931	0	0	0	
0.179	-0.00564945	-0.0088284	0.000107568	0.000100593	0	0	0	
0.179167	0.00868135	-0.000367958	0.000171786	8.90877E-05	0	0	0	
0.179333	-0.0142772	-0.00410541	0.000273196	0.000160224	0	0	0	
0.1795	0.0175379	0.0160353	0.000317857	0.00028986	0	0	0	
0.179667	-0.00715029	-0.0149942	0.000288213	0.000390221	0	0	0	
0.179833	-0.000187419	0.00574693	0.000242924	0.000348756	0	0	0	
0.18	0.0079823	0.00309313	0.000166663	0.0002307	0	0	0	
0.180167	-0.00468636	0.00798183	0.00014671	0.000185121	0	0	0	
0.180333	0.00748641	0.0113047	0.000178794	0.000208776	0	0	0	
0.1805	0.003824	-0.0156129	0.000293811	0.000237346	0	0	0	
0.180667	-0.00534676	0.00523394	0.000400433	0.000279554	0	0	0	
0.180833	0.0114651	-0.00111341	0.000391	0.000288138	0	0	0	
0.181	-0.00771423	0.00130367	0.00032636	0.000231369	0	0	0	
0.181167	0.00887353	0.00415543	0.000227494	0.000144928	0	0	0	
0.181333	-0.00338972	-0.00396016	0.000164323	0.00012627	0	0	0	
0.1815	0.00182047	-0.000982619	0.000114374	0.000138908	0	0	0	
0.181667	-0.000238587	0.00102549	7.89796E-05	0.000118164	0	0	0	
0.181833	0.000803031	-0.00142152	5.441E-05	7.2105E-05	0	0	0	
0.182	-0.00249345	-0.00369625	4.43623E-05	5.53275E-05	0	0	0	
0.182167	0.00495571	0.00168753	4.98675E-05	4.3505E-05	0	0	0	
0.182333	-0.00358153	0.00322707	0.000100293	7.89349E-05	0	0	0	
0.1825	0.00391584	0.00135949	0.000151255	0.000103675	0	0	0	
0.182667	-0.00593156	-0.00312516	0.000209951	0.000120258	0	0	0	
0.182833	0.00252543	0.00330221	0.000250205	9.38798E-05	0	0	0	
0.183	-0.00527154	-0.000560823	0.000252072	6.82482E-05	0	0	0	
0.183167	0.00421919	-0.00299966	0.000215966	4.95574E-05	0	0	0	
0.183333	-0.00484746	0.00606786	0.000167738	7.16693E-05	0	0	0	
0.1835	0.00427892	0.00307794	0.000130494	7.90389E-05	0	0	0	
0.183667	0.00257669	-0.00254411	8.89179E-05	0.000104257	0	0	0	
0.183833	-0.00910823	0.000379862	8.47596E-05	8.09986E-05	0	0	0	
0.184	0.00108103	-0.000522668	0.000112095	6.78137E-05	0	0	0	
0.184167	0.0017209	0.00414669	0.000160014	5.15063E-05	0	0	0	
0.184333	-0.00705531	-0.00549222	0.000170407	5.79099E-05	0	0	0	
0.1845	0.0114015	0.0102689	0.000201689	0.000127248	0	0	0	
0.184667	-0.0132483	-0.0025361	0.000228502	0.00014236	0	0	0	
0.184833	0.0121902	0.00627738	0.00025108	0.000180881	0	0	0	
0.185	-0.00393294	-0.00382372	0.000204102	0.000163217	0	0	0	
0.185167	0.000835161	-0.000949416	0.000134733	0.00018332	0	0	0	
0.185333	-0.00196834	0.00477722	8.00133E-05	0.000138746	0	0	0	
0.1855	0.00413258	-0.00853094	9.589E-05	0.000120461	0	0	0	
0.185667	-0.0101254	0.00279318	0.000161454	0.000152852	0	0	0	
0.185833	0.0122155	0.00306461	0.000250832	0.00016954	0	0	0	
0.186	-0.00797464	-0.00152619	0.000309951	0.000153949	0	0	0	
0.186167	0.00737004	0.00179352	0.000290721	8.62382E-05	0	0	0	
0.186333	-0.00297546	-0.0020329	0.000204208	6.70563E-05	0	0	0	
0.1865	-0.00301991	0.000413123	0.000103229	4.57587E-05	0	0	0	
0.186667	-0.000543498	-0.00109225	8.19227E-05	6.76043E-05	0	0	0	
0.186833	0.000471067	-0.0026526	0.00014369	9.29354E-05	0	0	0	
0.187	-0.00419078	0.00136142	0.000221164	0.000122335	0	0	0	
0.187167	0.00258862	-0.000131513	0.000243815	0.00011242	0	0	0	
0.187333	-0.0031771	-0.00107463	0.00018928	8.70665E-05	0	0	0	
0.1875	0.00381489	-0.00105715	0.000116293	5.42854E-05	0	0	0	
0.187667	-0.00452626	0.00704492	7.77577E-05	4.06672E-05	0	0	0	
0.187833	0.00203224	-0.00062561	6.74144E-05	9.78984E-05	0	0	0	
0.188	-0.00563011	0.0064792	9.28988E-05	0.000114827	0	0	0	
0.188167	0.0062721	0.00309839	0.000140046	0.000138551	0	0	0	
0.188333	-0.00517784	0.00113542	0.000165009	7.74305E-05	0	0	0	
0.1885	0.00514234	-0.000754612	0.000151442	5.59428E-05	0	0	0	
0.188667	-0.00360254	-0.00513858	0.000104456	3.21896E-05	0	0	0	
0.188833	0.00233618	-2.71762E-05	8.86853E-05	4.91362E-05	0	0	0	
0.189	-0.00541207	0.00239214	0.000105341	8.56011E-05	0	0	0	
0.189167	0.00694098	0.00579345	0.000146497	0.000107581	0	0	0	
0.189333	-0.00474564	-0.000652492	0.000167662	0.000116116	0	0	0	
0.1895	0.00577071	0.0024497	0.000154122	8.94313E-05	0	0	0	
0.189667	-0.00323667	0.000947096	0.000116031	6.65647E-05	0	0	0	
0.189833	0.00540405	-0.00688864	8.78695E-05	4.41934E-05	0	0	0	
0.19	-0.00954253	-0.00352525	0.00011343	6.84979E-05	0	0	0	
0.190167	0.00470466	-0.00533659	0.000141158	9.4421E-05	0	0	0	
0.190333	-0.000561522	0.00310456	0.000158865	0.000102664	0	0	0	
0.1905	0.00167938	7.48698E-05	0.000138981	8.29814E-05	0	0	0	
0.190667	-0.00288977	-0.000736347	0.00011803	4.83758E-05	0	0	0	
0.190833	0.00734338	-0.00205294	0.000114775	5.11509E-05	0	0	0	
0.191	-0.00960739	0.00563704	0.000150158	9.99367E-05	0	0	0	
0.191167	0.0084485	-0.00970777	0.000196291	0.000124004	0	0	0	
0.191333	-0.0073393	-0.00235326	0.000205647	0.000133959	0	0	0	
0.1915	0.00749671	0.000780665	0.000185505	7.91513E-05	0	0	0	
0.191667	-0.00177704	-0.000651815	0.000134527	7.54154E-05	0	0	0	
0.191833	0.000671082	-0.00273839	9.52638E-05	5.80066E-05	0	0	0	
0.192	-0.00150904	0.00932613	7.90765E-05	8.31798E-05	0	0	0	
0.192167	0.00732454	-0.000952011	0.000133289	7.85543E-05	0	0	0	
0.192333	-0.0105747	-0.00407668	0.000213364	8.90178E-05	0	0	0	
0.1925	0.0131401	0.000509582	0.000268157	7.35022E-05	0	0	0	
0.192667	-0.00463398	-0.00213264	0.000231863	7.0485E-05	0	0	0	
0.192833	0.00134831	0.00049367	0.00016703	5.23537E-05	0	0	0	
0.193	-0.00309721	-8.68891E-05	9.35029E-05	4.38134E-05	0	0	0	
0.193167	0.00273179	0.00292993	8.22581E-05	6.2807E-05	0	0	0	
0.193333	0.000396967	0.00594641	0.000109071	8.43764E-05	0	0	0	
0.1935	0.00772352	-0.000539287	0.000167093	8.72632E-05	0	0	0	
0.193667	-0.00616228	-0.00336318	0.000212579	5.94526E-05	0	0	0	
0.193833	0.00302705	-0.000947626	0.000207086	3.72924E-05	0	0	0	
0.194	-0.00418335	-0.000225895	0.000160921	3.54911E-05	0	0	0	
0.194167	0.0113117	0.00520386	0.000150241	9.86868E-05	0	0	0	
0.194333	-0.012646	-0.00128357	0.000191321	0.000167978	0	0	0	
0.1945	0.00706678	0.00978887	0.000210633	0.000191237	0	0	0	
0.194667	0.00483504	-0.0054749	0.000194898	0.000164358	0	0	0	
0.194833	-0.0050579	0.000413317	0.0001413	0.000107083	0	0	0	
0.195	0.00032305	0.00282335	0.000133944	0.000101015	0	0	0	
0.195167	-0.00615885	-0.0129184	0.000115509	9.72069E-05	0	0	0	
0.195333	0.00697264	0.0103554	0.000153771	0.000150265	0	0	0	
0.1955	0.0104949	0.00256883	0.000200472	0.000171417	0	0	0	
0.195667	-0.00994713	-0.00341983	0.000240547	0.000161764	0	0	0	
0.195833	0.00270001	0.00272255	0.000215447	0.000114237	0	0	0	
0.196	0.00254935	-0.00379182	0.000156847	7.45549E-05	0	0	0	
0.196167	0.000712131	-0.00119855	9.52488E-05	6.37886E-05	0	0	0	
0.196333	-0.00655889	0.00227642	6.46445E-05	0.000115926	0	0	0	
0.1965	0.012699	-0.00714431	9.82234E-05	0.000155492	0	0	0	
0.196667	-0.00488659	-0.00200945	0.000132382	0.000169499	0	0	0	
0.196833	0.00274229	0.013991	0.000160719	0.000141774	0	0	0	
0.197	0.0012733	-0.00753989	0.000126938	0.000150108	0	0	0	
0.197167	0.00130134	0.00152348	9.37454E-05	0.000159889	0	0	0	
0.197333	-0.00417528	-0.00806009	8.72679E-05	0.000142	0	0	0	
0.1975	0.00740319	-0.00359805	0.000100427	0.000137009	0	0	0	
0.197667	-0.0072986	-4.62301E-05	0.000143787	0.000151785	0	0	0	
0.197833	0.0153864	-0.00489564	0.000182277	0.000153243	0	0	0	
0.198	-0.0111643	-0.000242951	0.000237091	0.000108399	0	0	0	
0.198167	0.00466349	0.00413599	0.000222964	5.93034E-05	0	0	0	
0.198333	-0.000638541	0.000394225	0.000163669	4.60883E-05	0	0	0	
0.1985	0.0038266	-0.00306902	9.84496E-05	5.58713E-05	0	0	0	
0.198667	-0.010337	0.000940205	0.000131254	0.000115995	0	0	0	
0.198833	0.0106006	-0.00270184	0.000210138	0.000120216	0	0	0	
0.199	-0.00675352	-0.00660082	0.000250333	0.000144253	0	0	0	
0.199167	0.000450955	0.00433159	0.000214461	0.000113347	0	0	0	
0.199333	-0.0034128	0.000473285	0.000155429	0.000113181	0	0	0	
0.1995	0.00670056	-0.00181178	0.000117495	9.25631E-05	0	0	0	
0.199667	-0.0132008	0.0169885	0.000146367	0.000127594	0	0	0	
0.199833	0.00446469	-0.00483488	0.000187864	0.000209818	0	0	0	
0.2	-0.00319852	-0.000104296	0.000217303	0.000254676	0	0	0	
0.200167	0.003513	-0.00329273	0.00020031	0.000241111	0	0	0	
0.200333	-0.00367762	0.00449146	0.000146447	0.000177099	0	0	0	
0.2005	0.00435722	-0.000556664	0.000119419	0.000117841	0	0	0	
0.200667	-0.0127312	-0.00216078	0.000156978	8.54966E-05	0	0	0	
0.200833	0.0105056	0.00904925	0.000257626	7.40985E-05	0	0	0	
0.201	-0.0074473	-0.00487207	0.000286983	9.95124E-05	0	0	0	
0.201167	0.00773092	0.00361222	0.000241558	0.000119085	0	0	0	
0.201333	-0.00267734	-0.00349076	0.000160559	0.000124244	0	0	0	
0.2015	0.000278641	-0.00117627	0.000117391	0.00011502	0	0	0	
0.201667	0.00122089	0.00481659	0.000100765	7.61447E-05	0	0	0	
0.201833	0.00190896	-0.00180358	0.000138488	7.23974E-05	0	0	0	
0.202	-0.00594267	-0.00381632	0.000220749	6.48758E-05	0	0	0	
0.202167	0.00741502	-0.00359656	0.000261312	9.17623E-05	0	0	0	
0.202333	-0.00504625	0.00282317	0.000209882	0.000132864	0	0	0	
0.2025	0.000930906	-0.0044951	0.000117993	0.000148836	0	0	0	
0.202667	-0.00109149	0.00106811	5.96201E-05	0.000120016	0	0	0	
0.202833	0.00454749	0.000861512	6.99985E-05	6.94565E-05	0	0	0	
0.203	-0.00546265	0.00443063	0.000126623	6.05695E-05	0	0	0	
0.203167	0.00863907	-0.00223702	0.000178643	7.56547E-05	0	0	0	
0.203333	-0.010836	-0.00596518	0.000194219	7.70835E-05	0	0	0	
0.2035	0.00373203	0.00150232	0.000166	8.31229E-05	0	0	0	
0.203667	1.44189E-05	0.00074224	0.000107989	8.56412E-05	0	0	0	
0.203833	0.000652088	-0.000636886	7.23068E-05	6.63563E-05	0	0	0	
0.204	-0.00333047	-0.00153036	7.07092E-05	6.26819E-05	0	0	0	
0.204167	0.00755706	0.00223497	0.000108492	5.77309E-05	0	0	0	
0.204333	-0.0141015	0.00236168	0.000171849	6.70954E-05	0	0	0	
0.2045	0.0116561	0.00140141	0.00021276	5.70615E-05	0	0	0	
0.204667	-0.0053179	-0.00151916	0.000213234	4.16095E-05	0	0	0	
0.204833	0.00190012	-0.0018415	0.000153163	4.35973E-05	0	0	0	
0.205	-0.00111348	0.00183999	8.69952E-05	6.08739E-05	0	0	0	
0.205167	0.00675919	-0.0138409	8.42725E-05	9.31001E-05	0	0	0	
0.205333	-0.0122513	0.0067275	0.000136551	0.000126218	0	0	0	
0.2055	0.00705085	-0.0101848	0.000202292	0.000177581	0	0	0	
0.205667	-0.0044606	0.00324135	0.000208571	0.000181418	0	0	0	
0.205833	0.00508801	0.00196871	0.00016586	0.00015338	0	0	0	
0.206	-0.00504343	-0.000722871	0.000119361	7.5594E-05	0	0	0	
0.206167	0.0113634	-0.00587521	0.000130197	5.23167E-05	0	0	0	
0.206333	-0.0125102	0.00548612	0.000179114	9.39445E-05	0	0	0	
0.2065	0.0114042	-0.00910091	0.000219646	0.000156222	0	0	0	
0.206667	-0.00763878	0.001042	0.000216449	0.000191131	0	0	0	
0.206833	0.0030424	-0.00103413	0.000171393	0.000143385	0	0	0	
0.207	-0.00295883	0.000604488	0.000121982	7.70913E-05	0	0	0	
0.207167	0.00580718	0.000634499	9.73268E-05	3.30243E-05	0	0	0	
0.207333	-0.00660559	0.000513553	0.000113361	3.99346E-05	0	0	0	
0.2075	0.00837515	0.00189286	0.000158868	6.43941E-05	0	0	0	
0.207667	-0.00699093	0.00143119	0.000206368	7.46089E-05	0	0	0	
0.207833	0.00556032	0.000620198	0.000195143	6.45155E-05	0	0	0	
0.208	-0.00388232	3.8816E-06	0.000153222	4.31942E-05	0	0	0	
0.208167	0.00709298	0.000203651	0.000115645	3.1283E-05	0	0	0	
0.208333	-0.0136271	-0.00363674	0.000142755	3.60194E-05	0	0	0	
0.2085	0.0130036	-0.00299282	0.000205312	5.38303E-05	0	0	0	
0.208667	-0.0128826	0.00131371	0.000234648	5.90275E-05	0	0	0	
0.208833	0.0072457	0.00150863	0.000221766	5.87001E-05	0	0	0	
0.209	-0.00125609	-0.000692708	0.000164049	4.26321E-05	0	0	0	
0.209167	0.0077772	0.00418468	0.000160037	4.34468E-05	0	0	0	
0.209333	-0.0200766	-6.68002E-05	0.000188974	5.37882E-05	0	0	0	
0.2095	-0.010506	-0.00735544	0.000335359	0.000132937	0	0	0	
0.209667	-0.154042	-0.0650131	0.00112238	0.000743544	0	0	0	
0.209833	0.0392824	-0.00376684	0.00156902	0.000963336	0	0	0	
0.21	-0.0250019	0.0430108	0.001629	0.00107073	0	0	0	
0.210167	0.014251	-0.0123423	0.000894445	0.000625989	0	0	0	
0.210333	-0.0274834	-0.00438485	0.000486476	0.000452869	0	0	0	
0.2105	0.00674558	0.00897957	0.000467552	0.000317605	0	0	0	
0.210667	-0.00249566	0.00527285	0.000373128	0.000252931	0	0	0	
0.210833	0.00093984	-0.00560046	0.000264329	0.000250916	0	0	0	
0.211	-0.00841187	0.00226989	9.81163E-05	0.000230859	0	0	0	
0.211167	0.0162843	-0.00207749	0.000156861	0.000149038	0	0	0	
0.211333	-0.0106891	0.00265032	0.000215951	0.000122581	0	0	0	
0.2115	0.000315603	-0.000825257	0.000195834	0.000158431	0	0	0	
0.211667	0.0101936	0.00981446	0.000142379	0.000158865	0	0	0	
0.211833	-0.00758607	-0.00225428	0.000168637	0.000179923	0	0	0	
0.212	-0.0104863	-0.00356618	0.00033088	0.00012736	0	0	0	
0.212167	0.0259519	-0.00117445	0.000526035	0.000111406	0	0	0	
0.212333	-0.0241479	-0.00585342	0.000605371	7.27587E-05	0	0	0	
0.2125	0.0139023	-0.00157357	0.000520254	7.10205E-05	0	0	0	
0.212667	-0.0126663	-0.00504761	0.000369122	8.4935E-05	0	0	0	
0.212833	0.00606435	0.00200701	0.000257809	8.66289E-05	0	0	0	
0.213	-0.00109472	0.000257433	0.00017093	0.000110107	0	0	0	
0.213167	-0.00356086	-0.00275768	0.000109343	0.000116227	0	0	0	
0.213333	-0.00618629	-0.00482891	0.00016109	0.000122893	0	0	0	
0.2135	0.0205133	0.00173393	0.000312514	0.00011821	0	0	0	
0.213667	-0.0202798	-0.00685923	0.000469403	0.000128958	0	0	0	
0.213833	0.0152194	-0.00717569	0.000489432	0.000141441	0	0	0	
0.214	-0.0163552	0.00029051	0.000380762	0.000123366	0	0	0	
0.214167	0.0120245	0.00990648	0.000300408	0.000116703	0	0	0	
0.214333	-0.00163205	-0.00169556	0.000211363	9.58664E-05	0	0	0	
0.2145	-0.01189	-9.12804E-05	0.000191065	0.000124283	0	0	0	
0.214667	0.00649309	-0.000186964	0.000247202	9.40154E-05	0	0	0	
0.214833	0.009225	-0.00157108	0.000391679	8.98608E-05	0	0	0	
0.215	-0.0119481	-0.00291485	0.000507363	7.14355E-05	0	0	0	
0.215167	0.015981	-0.00322504	0.000502921	8.05923E-05	0	0	0	
0.215333	-0.0169986	0.00456043	0.000434199	8.00766E-05	0	0	0	
0.2155	0.0108115	0.0082298	0.000385422	8.13832E-05	0	0	0	
0.215667	-0.0141272	-0.00141079	0.000307212	8.77588E-05	0	0	0	
0.215833	0.0101338	-0.00365329	0.000251767	0.000104163	0	0	0	
0.216	-0.00482668	0.00802982	0.000204544	0.000122962	0	0	0	
0.216167	0.00943701	0.000458994	0.000212432	0.000126256	0	0	0	
0.216333	-0.00397122	0.00405215	0.00022513	0.000122929	0	0	0	
0.2165	0.00444185	-0.00218661	0.000217929	8.23406E-05	0	0	0	
0.216667	-0.00651681	-0.000242706	0.000212227	6.62578E-05	0	0	0	
0.216833	0.00931576	-0.00186257	0.000223473	5.74272E-05	0	0	0	
0.217	-0.0157025	0.0049385	0.000273289	6.90566E-05	0	0	0	
0.217167	0.01868	0.00747095	0.000323128	0.000103107	0	0	0	
0.217333	-0.00714695	0.00674435	0.000319574	0.000126722	0	0	0	
0.2175	0.00748554	-0.00465045	0.000251927	0.000161181	0	0	0	
0.217667	-5.48417E-05	3.89272E-05	0.000205811	0.000134613	0	0	0	
0.217833	0.0031435	0.000594279	0.000209773	0.000109881	0	0	0	
0.218	-0.0161592	0.0054388	0.000380243	9.49679E-05	0	0	0	
0.218167	0.0631656	-0.0232868	0.000611515	0.000202652	0	0	0	
0.218333	-0.450338	0.242289	0.00148652	0.000690819	0	0	0	
0.2185	0.106066	-0.025009	0.00356495	0.00185317	0	0	0	
0.218667	-0.0569394	0.119817	0.00368831	0.00221644	0	0	0	
0.218833	0.0106508	-0.0168346	0.00282912	0.00211046	0	0	0	
0.219	0.00378609	0.0317324	0.000776201	0.00149646	0	0	0	
0.219167	0.0368808	-0.0460753	0.000793886	0.00143307	0	0	0	
0.219333	-0.138833	0.0788353	0.00152467	0.00131278	0	0	0	
0.2195	-0.10224	0.140043	0.00340859	0.00190547	0	0	0	
0.219667	-0.0499498	0.0539567	0.00401611	0.00202547	0	0	0	
0.219833	0.0250061	0.0835163	0.0034872	0.00241681	0	0	0	
0.22	0.0136931	0.0156858	0.0015272	0.00179605	0	0	0	
0.220167	-0.0269334	-0.097582	0.000651054	0.00191894	0	0	0	
0.220333	0.0261731	0.0802704	0.000646584	0.00180846	0	0	0	
0.2205	0.00638508	-0.0371576	0.000888974	0.0018386	0	0	0	
0.220667	-0.0121111	0.0521738	0.00110881	0.00161214	0	0	0	
0.220833	0.0233198	0.0173308	0.00109679	0.00133387	0	0	0	
0.221	-0.0208218	-0.0252114	0.000920962	0.000951903	0	0	0	
0.221167	0.0299616	-6.8032E-05	0.000766716	0.000605565	0	0	0	
0.221333	-0.0312653	-0.00435192	0.000676709	0.000499122	0	0	0	
0.2215	0.0165805	-0.00506985	0.0005922	0.000417687	0	0	0	
0.221667	-0.0184372	0.0184201	0.000487777	0.000422177	0	0	0	
0.221833	0.00987287	0.00173174	0.000369382	0.000313739	0	0	0	
0.222	0.000523141	0.00945328	0.000274262	0.000279269	0	0	0	
0.222167	-0.00457297	0.000675705	0.000213221	0.000227319	0	0	0	
0.222333	0.00246385	0.00692763	0.000293351	0.000179816	0	0	0	
0.2225	0.0140276	-0.00369578	0.00046012	0.000119361	0	0	0	
0.222667	-0.03051	0.0035676	0.000605782	0.000120973	0	0	0	
0.222833	0.026615	0.0035002	0.000618994	0.000130106	0	0	0	
0.223	-0.0091922	0.00273539	0.000505892	0.000121665	0	0	0	
0.223167	-0.00332854	0.000330343	0.000322349	0.000135801	0	0	0	
0.223333	0.00360872	0.0121042	0.000231735	0.000135576	0	0	0	
0.2235	0.00642709	-0.00885784	0.000263137	0.000160876	0	0	0	
0.223667	-0.0104682	0.00118455	0.000349259	0.000158037	0	0	0	
0.223833	0.00865845	0.00302487	0.000328141	0.000169416	0	0	0	
0.224	-0.00833794	-0.00891641	0.000247167	0.000139944	0	0	0	
0.224167	0.00272307	-0.00599535	0.000166027	0.000132547	0	0	0	
0.224333	0.000823881	0.0131364	0.000103564	0.000152938	0	0	0	
0.2245	0.000287836	-0.00677714	7.28131E-05	0.000213631	0	0	0	
0.224667	-0.00460712	0.00656384	0.000101274	0.000207134	0	0	0	
0.224833	0.0119786	-0.00187591	0.00019064	0.000183945	0	0	0	
0.225	-0.0219123	0.00353694	0.000296372	0.000167123	0	0	0	
0.225167	0.0211339	0.00143149	0.000362681	0.000152287	0	0	0	
0.225333	-0.0168801	-0.00222131	0.000368798	0.000120371	0	0	0	
0.2255	0.0151485	0.00417631	0.00033151	9.10865E-05	0	0	0	
0.225667	-0.0120371	0.00230753	0.000287755	7.53203E-05	0	0	0	
0.225833	0.00922024	0.000385317	0.000249317	7.08975E-05	0	0	0	
0.226	-0.00916506	0.00781298	0.000222299	6.4068E-05	0	0	0	
0.226167	0.0100153	0.00540453	0.000206501	9.51444E-05	0	0	0	
0.226333	-0.00972232	0.00294098	0.000242056	0.000106556	0	0	0	
0.2265	0.0118269	-0.00310681	0.00027138	0.000126166	0	0	0	
0.226667	-0.0130471	0.00654197	0.000306309	0.000124659	0	0	0	
0.226833	0.00787873	-0.0028692	0.000308376	0.000169064	0	0	0	
0.227	-0.00886864	0.00944965	0.000315518	0.000141514	0	0	0	
0.227167	0.00964951	0.00283065	0.000326583	0.000127101	0	0	0	
0.227333	-0.0105194	0.00639024	0.000337572	0.000110651	0	0	0	
0.2275	0.0134213	0.00176283	0.000328775	0.000107856	0	0	0	
0.227667	-0.0132218	-0.00416988	0.000309916	0.000104656	0	0	0	
0.227833	0.00981222	-0.000463438	0.000289821	8.22556E-05	0	0	0	
0.228	-0.00660077	-0.00484559	0.00025324	0.000113226	0	0	0	
0.228167	0.00510242	-0.00239706	0.000200955	0.000116148	0	0	0	
0.228333	-0.00884097	0.0104493	0.000208922	0.000123556	0	0	0	
0.2285	0.0130438	-0.00175124	0.000300192	0.000118474	0	0	0	
0.228667	-0.0120943	0.0119392	0.000391382	0.000167176	0	0	0	
0.228833	0.00682853	-0.00638419	0.000415548	0.000182681	0	0	0	
0.229	-0.00586756	-0.00536622	0.000382121	0.000212658	0	0	0	
0.229167	0.00756896	0.00335096	0.000323262	0.000210566	0	0	0	
0.229333	-0.00809502	-0.00989427	0.000280944	0.000207852	0	0	0	
0.2295	0.00286383	0.00227545	0.000277616	0.000199128	0	0	0	
0.229667	-0.0117295	0.0122533	0.000292838	0.000228972	0	0	0	
0.229833	0.00525728	-0.00887629	0.000288651	0.000285023	0	0	0	
0.23	0.000198369	0.0153566	0.000207404	0.000305082	0	0	0	
0.230167	-0.00194598	-0.00800019	0.00013457	0.000252845	0	0	0	
0.230333	-0.00165594	-0.00029925	0.000100326	0.000195182	0	0	0	
0.2305	0.00889599	-6.07601E-06	0.000192067	0.000143286	0	0	0	
0.230667	-0.0185449	-0.0103268	0.000341844	0.0001279	0	0	0	
0.230833	0.0174339	0.000660346	0.000435357	0.000121553	0	0	0	
0.231	-0.0101519	0.00504977	0.000382853	0.000138164	0	0	0	
0.231167	0.0114221	-0.00591976	0.000283356	0.00011676	0	0	0	
0.231333	-0.00562606	-0.00482834	0.000188467	0.000102805	0	0	0	
0.2315	-0.00395386	0.00141036	0.000138912	7.86008E-05	0	0	0	
0.231667	0.00540196	-0.00608266	0.000109185	9.13389E-05	0	0	0	
0.231833	0.00594441	-0.00930222	0.000155991	0.000114533	0	0	0	
0.232	-0.00986821	-0.00484409	0.000230698	0.000154201	0	0	0	
0.232167	0.00756592	-0.005363	0.000272474	0.000158488	0	0	0	
0.232333	-0.00729826	0.00108279	0.000257424	0.000165962	0	0	0	
0.2325	0.0091927	-0.00576473	0.000218007	0.000121741	0	0	0	
0.232667	-0.0127409	0.000353875	0.000196705	0.000122002	0	0	0	
0.232833	0.0116832	-0.00626108	0.000210928	8.40303E-05	0	0	0	
0.233	-0.011822	-0.00895965	0.000223969	0.00012111	0	0	0	
0.233167	0.00985488	-0.00531081	0.000241657	0.000130465	0	0	0	
0.233333	-0.0139159	0.000130418	0.000210017	0.000150468	0	0	0	
0.2335	0.00881764	-0.00222661	0.000204343	0.000122889	0	0	0	
0.233667	-0.0122129	0.00310363	0.000213746	0.000109782	0	0	0	
0.233833	0.00779582	-0.000128086	0.000230108	9.26572E-05	0	0	0	
0.234	-0.00916665	0.000328308	0.000230401	8.22482E-05	0	0	0	
0.234167	0.00658258	-0.00387041	0.000209348	6.72237E-05	0	0	0	
0.234333	-0.00484309	-0.00397879	0.000206576	8.08927E-05	0	0	0	
0.2345	0.00476696	-0.00240012	0.000204366	0.000113162	0	0	0	
0.234667	-0.0104817	0.000756397	0.000172575	0.000141064	0	0	0	
0.234833	0.00012174	0.00414556	0.000164236	0.000149124	0	0	0	
0.235	-0.00929055	0.00332802	0.000203371	0.000127845	0	0	0	
0.235167	0.0166098	0.000649919	0.000297922	9.81217E-05	0	0	0	
0.235333	-0.0165155	-0.00105963	0.000351328	6.67954E-05	0	0	0	
0.2355	0.022014	-0.0012031	0.000376486	5.59198E-05	0	0	0	
0.235667	-0.0143341	-5.9885E-05	0.000348148	8.07177E-05	0	0	0	
0.235833	0.00540412	-0.000735701	0.000324153	0.00011166	0	0	0	
0.236	-0.00914679	0.00147238	0.000264353	0.000110026	0	0	0	
0.236167	0.00606334	0.00208098	0.000239288	9.73571E-05	0	0	0	
0.236333	-0.00889473	0.00146518	0.000235479	8.11079E-05	0	0	0	
0.2365	0.0163852	0.0018716	0.000269039	8.60787E-05	0	0	0	
0.236667	-0.00755679	-0.00399586	0.000291196	6.86673E-05	0	0	0	
0.236833	0.00556864	0.00147705	0.000240057	7.28531E-05	0	0	0	
0.237	-0.00274581	0.00253215	0.00016126	8.02598E-05	0	0	0	
0.237167	0.00317373	-0.00267369	0.000124882	0.00011176	0	0	0	
0.237333	-0.016038	0.00912498	0.000203229	0.000111404	0	0	0	
0.2375	0.0159548	0.00275153	0.000320244	0.000113614	0	0	0	
0.237667	-0.0155532	0.00690267	0.00036722	0.000103932	0	0	0	
0.237833	0.0215355	-0.00077036	0.000370435	9.87346E-05	0	0	0	
0.238	-0.0179486	4.33054E-05	0.000338147	0.000106674	0	0	0	
0.238167	0.0119627	0.0037382	0.000332843	0.000118291	0	0	0	
0.238333	0.00520651	0.00439277	0.000253953	0.000110971	0	0	0	
0.2385	-0.0633824	0.0536727	0.000455623	0.000131591	0	0	0	
0.238667	0.101249	0.0717557	0.00137683	0.000773964	0	0	0	
0.238833	-0.0125121	0.00576753	0.00157402	0.00095898	0	0	0	
0.239	0.00290647	-0.0198585	0.00145175	0.00109776	0	0	0	
0.239167	0.00210546	0.00800754	0.000487143	0.000496672	0	0	0	
0.239333	0.0269257	0.0179359	0.000330788	0.000338051	0	0	0	
0.2395	0.00659009	-0.000336419	0.000284644	0.000190246	0	0	0	
0.239667	-0.00935764	0.00236343	0.000365979	0.000193275	0	0	0	
0.239833	0.0214239	0.0120778	0.000436264	0.000209105	0	0	0	
0.24	-0.0119993	0.00167628	0.000414738	0.000194992	0	0	0	
0.240167	0.00207874	-0.00204876	0.000311606	0.000136896	0	0	0	
0.240333	0.000525802	0.00238083	0.000179431	8.5283E-05	0	0	0	
0.2405	0.00614029	0.00199252	9.14326E-05	7.60917E-05	0	0	0	
0.240667	-0.0158402	0.00409834	0.000106392	8.43306E-05	0	0	0	
0.240833	0.012713	0.00643705	0.000190101	0.000131433	0	0	0	
0.241	-0.0100145	0.00104325	0.000235695	0.000128111	0	0	0	
0.241167	0.00157506	0.000158187	0.000211569	0.000118697	0	0	0	
0.241333	3.8183E-06	0.00124423	0.000114513	7.58298E-05	0	0	0	
0.2415	0.00186849	-0.000246359	5.79458E-05	5.26365E-05	0	0	0	
0.241667	-0.0121661	-0.0023413	9.09801E-05	3.46598E-05	0	0	0	
0.241833	0.0134806	0.00568756	0.00019316	5.96535E-05	0	0	0	
0.242	-0.0144771	0.00622534	0.000245727	9.60408E-05	0	0	0	
0.242167	0.00617669	0.00291666	0.000253384	0.000114636	0	0	0	
0.242333	-0.00444973	-0.000557119	0.000173909	9.58791E-05	0	0	0	
0.2425	0.00140023	0.000660953	0.000122677	6.15693E-05	0	0	0	
0.242667	0.00892309	0.00405574	8.00438E-05	4.92619E-05	0	0	0	
0.242833	-0.000799638	0.000371838	8.43675E-05	5.06654E-05	0	0	0	
0.243	-0.00224408	0.00264414	0.000125172	5.49926E-05	0	0	0	
0.243167	0.0123977	0.00233092	0.000193753	8.60714E-05	0	0	0	
0.243333	-0.00819397	-0.000572043	0.000266281	0.000106426	0	0	0	
0.2435	0.00582028	0.000705497	0.000264424	0.000107943	0	0	0	
0.243667	-0.00370403	0.00195604	0.000190398	6.96798E-05	0	0	0	
0.243833	0.00860965	-0.000269748	0.00012457	6.88445E-05	0	0	0	
0.244	-0.00473022	0.00135747	0.000142145	8.23183E-05	0	0	0	
0.244167	0.00808781	-0.000648708	0.000193027	0.00011006	0	0	0	
0.244333	-0.00492466	-0.00152818	0.000224257	0.000110036	0	0	0	
0.2445	0.00413089	0.00162767	0.000179586	9.38681E-05	0	0	0	
0.244667	-0.00151334	-0.00148837	0.000113081	6.23667E-05	0	0	0	
0.244833	0.00280747	0.000432062	6.42896E-05	3.79167E-05	0	0	0	
0.245	-0.00285188	-4.6041E-05	8.65239E-05	7.28783E-05	0	0	0	
0.245167	0.0114549	-0.00670141	0.000144475	0.000115764	0	0	0	
0.245333	-0.0122457	0.00183902	0.000207274	0.000130276	0	0	0	
0.2455	0.00716454	-0.00112292	0.000218079	0.000113347	0	0	0	
0.245667	-0.00478431	0.00114331	0.000185195	6.95947E-05	0	0	0	
0.245833	0.00278913	-0.00288941	0.000118795	5.12564E-05	0	0	0	
0.246	-0.00303296	0.0083667	7.06167E-05	7.44558E-05	0	0	0	
0.246167	0.00371452	-0.00424194	7.45007E-05	9.07732E-05	0	0	0	
0.246333	-0.00170763	-0.00200865	0.000115105	0.000104797	0	0	0	
0.2465	0.00372267	0.00242912	0.000182803	8.80814E-05	0	0	0	
0.246667	-0.00830753	-0.00344856	0.000206294	8.16977E-05	0	0	0	
0.246833	0.0078642	0.000650416	0.000192813	6.79272E-05	0	0	0	
0.247	-0.00767912	0.00203013	0.000152767	5.74272E-05	0	0	0	
0.247167	0.0153392	0.00420125	0.000165132	8.92815E-05	0	0	0	
0.247333	-0.0113806	0.00221447	0.000192388	0.000115787	0	0	0	
0.2475	0.0126245	-0.00406738	0.000223549	0.000103449	0	0	0	
0.247667	-0.00643532	0.00134038	0.000214338	0.000102503	0	0	0	
0.247833	0.00360333	0.0015624	0.000174405	9.77122E-05	0	0	0	
0.248	-0.00724802	-0.000455766	0.000140904	9.68671E-05	0	0	0	
0.248167	0.0173019	-0.00124173	0.000161822	5.44404E-05	0	0	0	
0.248333	-0.0102816	0.00181415	0.000216556	3.97168E-05	0	0	0	
0.2485	0.000167688	-0.00513348	0.000203171	4.48246E-05	0	0	0	
0.248667	0.0149628	0.00772338	0.000190109	9.83606E-05	0	0	0	
0.248833	-0.00391872	0.000117836	0.000183096	0.000106221	0	0	0	
0.249	-0.00494558	-0.00248202	0.000217916	0.000106805	0	0	0	
0.249167	0.0146096	-0.00595631	0.000210564	9.84278E-05	0	0	0	
0.249333	-0.0188776	-0.00258344	0.000257835	0.000158619	0	0	0	
0.2495	0.0210163	-0.00572877	0.000319387	0.000188932	0	0	0	
0.249667	-0.0109175	0.000777282	0.000347672	0.000192825	0	0	0	
0.249833	0.00691069	0.000794758	0.000278252	0.000209209	0	0	0	
0.25	-0.00135577	0.00521367	0.000194908	0.000241406	0	0	0	
0.250167	0.00126889	-0.00375934	0.000109999	0.000214599	0	0	0	
0.250333	-0.00696045	-0.00456341	7.86243E-05	0.000179088	0	0	0	
0.2505	0.00805844	-0.002157	8.4842E-05	0.00014253	0	0	0	
0.250667	0.00017179	-0.012233	0.000109336	0.000190586	0	0	0	
0.250833	0.00313836	0.0193261	0.000108792	0.000216948	0	0	0	
0.251	0.000894344	-0.0159542	7.93158E-05	0.000285632	0	0	0	
0.251167	0.0032957	0.00076822	5.49295E-05	0.000249861	0	0	0	
0.251333	-0.00625656	0.00977144	6.97777E-05	0.000223656	0	0	0	
0.2515	0.0119233	0.000816988	0.000110567	0.000197832	0	0	0	
0.251667	-0.0160224	0.00307521	0.000206966	0.000175004	0	0	0	
0.251833	0.0238334	-0.00514829	0.000267838	0.000140181	0	0	0	
0.252	-0.0109577	1.3711E-05	0.000330458	8.11145E-05	0	0	0	
0.252167	0.00710745	-0.00184092	0.000287839	7.38754E-05	0	0	0	
0.252333	-0.00241875	0.00198218	0.000217961	4.90506E-05	0	0	0	
0.2525	0.00362263	-0.00304687	0.000125605	4.99151E-05	0	0	0	
0.252667	-0.00568122	0.00679543	0.000128287	8.03663E-05	0	0	0	
0.252833	0.0127261	0.00430007	0.000182892	0.000109697	0	0	0	
0.253	-0.0129246	0.000159967	0.000270291	0.000109972	0	0	0	
0.253167	0.00783148	0.00410059	0.000269727	8.86158E-05	0	0	0	
0.253333	-0.00499574	-0.00315003	0.000222538	8.41222E-05	0	0	0	
0.2535	0.00848984	0.00761677	0.00014811	8.80565E-05	0	0	0	
0.253667	-0.01041	0.00325855	0.000140479	0.0001237	0	0	0	
0.253833	0.00833386	-0.00131465	0.000148249	0.000170403	0	0	0	
0.254	-0.00203661	0.0103549	0.000159507	0.000175733	0	0	0	
0.254167	0.00231059	0.00101527	0.000164462	0.000151909	0	0	0	
0.254333	-0.0070118	0.00111691	0.000163961	8.20591E-05	0	0	0	
0.2545	0.00581031	-0.00178157	0.000150359	5.0428E-05	0	0	0	
0.254667	-0.00697807	0.00576841	0.000118485	5.61552E-05	0	0	0	
0.254833	0.00933616	0.00434331	0.000135275	8.75292E-05	0	0	0	
0.255	-0.0053422	0.00602572	0.000121709	0.000115246	0	0	0	
0.255167	0.00367594	-0.00318256	0.000145643	0.000128718	0	0	0	
0.255333	0.000670649	0.00396394	0.000101019	0.000106369	0	0	0	
0.2555	0.00107697	0.00415944	0.000103054	0.000102331	0	0	0	
0.255667	-0.00456017	-0.00969783	9.77325E-05	8.24306E-05	0	0	0	
0.255833	0.00748032	0.00573909	0.000156713	0.000120155	0	0	0	
0.256	-0.00943239	0.000357986	0.000201066	0.000135935	0	0	0	
0.256167	0.0129878	-0.0020506	0.000226614	0.000163714	0	0	0	
0.256333	-0.0086338	0.00134569	0.000231671	0.000187986	0	0	0	
0.2565	0.00205801	-0.00189231	0.000188815	0.000205621	0	0	0	
0.256667	-0.00235842	0.00392218	0.000126702	0.000157151	0	0	0	
0.256833	0.00531617	-0.00316404	9.80952E-05	0.000126217	0	0	0	
0.257	-0.00711711	0.0045248	0.000131855	0.000158809	0	0	0	
0.257167	0.0125623	-0.00484035	0.000176972	0.000172369	0	0	0	
0.257333	-0.0118446	-0.00353547	0.000204583	0.000152726	0	0	0	
0.2575	0.00401085	-0.000417427	0.000181559	6.83438E-05	0	0	0	
0.257667	-0.00174087	-0.00033025	0.000151028	5.1261E-05	0	0	0	
0.257833	-0.00185508	-0.000468297	8.17259E-05	2.7962E-05	0	0	0	
0.258	0.00129093	0.0116349	7.36166E-05	7.47458E-05	0	0	0	
0.258167	0.00572234	-0.00410165	9.81562E-05	0.000119142	0	0	0	
0.258333	-0.00746344	0.00323218	0.000152588	0.000172022	0	0	0	
0.2585	0.00332503	-0.00218701	0.000173384	0.000165505	0	0	0	
0.258667	-0.00427042	-9.495E-05	0.000147384	0.000137585	0	0	0	
0.258833	0.00377423	-0.000892177	0.000115288	9.60178E-05	0	0	0	
0.259	-0.0100921	0.00541778	9.9279E-05	9.08389E-05	0	0	0	
0.259167	0.0118654	-0.00536257	0.000161895	0.000119358	0	0	0	
0.259333	-0.0124866	0.00459706	0.000200553	0.000139901	0	0	0	
0.2595	0.00598949	0.00349561	0.000227707	0.00011519	0	0	0	
0.259667	-0.00521076	-0.0010554	0.000176007	8.44287E-05	0	0	0	
0.259833	0.00186566	0.000473017	0.000127553	5.31273E-05	0	0	0	
0.26	-0.00529207	-0.00015588	9.01258E-05	4.09926E-05	0	0	0	
0.260167	0.00586233	-6.97186E-05	0.000117736	3.75134E-05	0	0	0	
0.260333	-0.00440141	0.00471281	0.000153757	5.38533E-05	0	0	0	
0.2605	0.0082406	0.00463275	0.000174956	8.41286E-05	0	0	0	
0.260667	-0.0106069	0.00258687	0.000171942	8.8723E-05	0	0	0	
0.260833	0.00576484	0.000364814	0.000165556	7.04521E-05	0	0	0	
0.261	-0.0035718	-0.00125041	0.000151044	4.02771E-05	0	0	0	
0.261167	0.00530032	-0.00185518	0.000117038	5.0466E-05	0	0	0	
0.261333	-0.00946493	0.00214564	0.000113095	8.72496E-05	0	0	0	
0.2615	0.0115121	0.0030238	0.000148426	0.000117644	0	0	0	
0.261667	-0.00844767	0.00703482	0.000189323	0.000125191	0	0	0	
0.261833	0.00231432	-0.000811286	0.00017943	0.00010129	0	0	0	
0.262	-0.00143115	-0.00153435	0.000126268	7.76215E-05	0	0	0	
0.262167	0.00515914	0.000115105	8.05354E-05	4.44213E-05	0	0	0	
0.262333	-0.0114308	-0.00790189	0.000122246	7.66442E-05	0	0	0	
0.2625	0.0116038	-0.00464369	0.000216688	0.000108261	0	0	0	
0.262667	-0.0158698	0.00532072	0.000287691	0.000126091	0	0	0	
0.262833	0.0115149	-0.00140925	0.0002886	0.000118115	0	0	0	
0.263	-0.00545476	0.00217859	0.000231409	8.36475E-05	0	0	0	
0.263167	0.00197929	-0.00170584	0.000159923	6.41044E-05	0	0	0	
0.263333	-0.00661183	-0.00307431	0.000133158	3.20183E-05	0	0	0	
0.2635	0.00698486	-0.00518936	0.000180041	5.59286E-05	0	0	0	
0.263667	-0.0153923	-0.00540801	0.000261516	7.77329E-05	0	0	0	
0.263833	0.0126862	0.00420158	0.00030298	8.84463E-05	0	0	0	
0.264	-0.00633826	-0.00111749	0.000264241	7.84703E-05	0	0	0	
0.264167	0.00194501	0.000236732	0.000185574	6.86251E-05	0	0	0	
0.264333	-0.00205261	-0.00069571	0.000102822	5.13667E-05	0	0	0	
0.2645	0.00278805	-0.00373626	0.00010351	3.96683E-05	0	0	0	
0.264667	-0.0080504	-0.000360472	0.000177665	6.37106E-05	0	0	0	
0.264833	0.0124559	-0.00243108	0.000266678	8.78205E-05	0	0	0	
0.265	-0.0113712	-0.0025551	0.00030337	0.000122316	0	0	0	
0.265167	0.00690303	0.00265572	0.000254156	0.00010837	0	0	0	
0.265333	-0.002104	-0.00222982	0.000174482	9.62839E-05	0	0	0	
0.2655	0.00251655	0.00446504	0.000113803	8.20353E-05	0	0	0	
0.265667	-0.00337833	-0.00641336	0.000147412	0.000100779	0	0	0	
0.265833	0.00557539	0.000988594	0.000209105	0.000120781	0	0	0	
0.266	-0.00693408	-0.00308968	0.000261488	0.000108764	0	0	0	
0.266167	-0.000120947	-0.000478019	0.000269895	7.59664E-05	0	0	0	
0.266333	-0.00404541	0.00231643	0.000240684	6.31375E-05	0	0	0	
0.2665	0.00401131	-0.0112298	0.000175394	7.98445E-05	0	0	0	
0.266667	-0.000801822	0.0221525	9.46802E-05	0.000201594	0	0	0	
0.266833	0.00442579	-0.00902028	7.5025E-05	0.000248244	0	0	0	
0.267	-0.00424589	-0.00239107	7.65941E-05	0.00025149	0	0	0	
0.267167	-0.00357078	-0.0134276	9.26756E-05	0.000183827	0	0	0	
0.267333	-0.000581119	0.00640662	7.20373E-05	0.000180293	0	0	0	
0.2675	0.000300574	0.000145359	5.86042E-05	0.000163863	0	0	0	
0.267667	0.0010393	0.000714409	4.03399E-05	0.000108304	0	0	0	
0.267833	0.00612551	0.00282063	4.7277E-05	7.06652E-05	0	0	0	
0.268	-0.00591312	-0.00513812	0.000105776	6.6574E-05	0	0	0	
0.268167	0.00869626	0.00865248	0.00016778	0.000122005	0	0	0	
0.268333	-0.00614721	-0.00979882	0.000207043	0.00022466	0	0	0	
0.2685	0.00347144	-0.00233177	0.000165744	0.000295696	0	0	0	
0.268667	-0.00355989	0.00709568	0.000120868	0.000259827	0	0	0	
0.268833	0.012953	-0.00945895	0.000111248	0.000183624	0	0	0	
0.269	-0.00960039	-0.000302445	0.000178484	0.00011749	0	0	0	
0.269167	0.00937633	0.00297856	0.00021738	9.16072E-05	0	0	0	
0.269333	-0.0082309	-0.00499794	0.00022955	8.4646E-05	0	0	0	
0.2695	0.00473786	-0.0021593	0.00016564	7.40109E-05	0	0	0	
0.269667	-0.0010534	-0.00234899	0.000120575	8.73489E-05	0	0	0	
0.269833	-0.00229765	0.0054903	6.35535E-05	6.143E-05	0	0	0	
0.27	-0.00202316	0.00553174	7.61189E-05	8.71065E-05	0	0	0	
0.270167	0.00841701	-0.00129965	0.000145654	7.84815E-05	0	0	0	
0.270333	-0.0117895	-0.00203552	0.000233042	6.9039E-05	0	0	0	
0.2705	0.00653423	0.00398966	0.000263151	4.85048E-05	0	0	0	
0.270667	-0.00606452	-0.00626994	0.000206804	8.68202E-05	0	0	0	
0.270833	0.00562674	-0.00341511	0.000150462	0.000119957	0	0	0	
0.271	-0.00786619	0.0279432	0.000129024	0.000166191	0	0	0	
0.271167	0.00613574	-0.00877209	0.000153471	0.000266937	0	0	0	
0.271333	-0.0111298	0.00981301	0.000204184	0.000319696	0	0	0	
0.2715	0.0128046	-0.0068951	0.000248098	0.000285652	0	0	0	
0.271667	-0.00827704	0.00351358	0.000249909	0.000166828	0	0	0	
0.271833	0.00586339	0.0011761	0.000209041	8.1622E-05	0	0	0	
0.272	-0.0111528	-0.000307326	0.000162452	5.91209E-05	0	0	0	
0.272167	0.0136584	0.000318953	0.00018859	7.09661E-05	0	0	0	
0.272333	-0.00845485	0.00292294	0.000204887	0.000111598	0	0	0	
0.2725	0.00885974	-0.00251196	0.000208394	0.000117205	0	0	0	
0.272667	-0.00508867	-0.00188293	0.000189499	8.79677E-05	0	0	0	
0.272833	0.00690116	0.00288002	0.000170333	4.56807E-05	0	0	0	
0.273	-0.00706816	0.000810998	0.000159038	5.38059E-05	0	0	0	
0.273167	0.0123192	-0.00257508	0.000155576	8.93217E-05	0	0	0	
0.273333	-0.0121224	0.00405121	0.000189418	0.000118683	0	0	0	
0.2735	0.0143143	-0.00782081	0.000226113	0.00017131	0	0	0	
0.273667	-0.00489038	0.0124078	0.000226614	0.000191482	0	0	0	
0.273833	0.00195794	-0.00760913	0.000164834	0.000212282	0	0	0	
0.274	-0.00185015	0.000401664	0.000102008	0.000151667	0	0	0	
0.274167	0.00696858	0.00116094	8.80963E-05	9.29167E-05	0	0	0	
0.274333	-0.011577	0.00273664	0.000158779	4.07006E-05	0	0	0	
0.2745	0.0182764	0.0017053	0.000252491	3.80233E-05	0	0	0	
0.274667	-0.012397	-0.00125085	0.000286731	4.2472E-05	0	0	0	
0.274833	0.00631112	0.00103133	0.000256524	5.02532E-05	0	0	0	
0.275	-0.00263965	-0.000611581	0.000170589	4.36837E-05	0	0	0	
0.275167	0.000553109	0.000628191	0.000101821	3.37224E-05	0	0	0	
0.275333	-0.00358457	-0.00338984	7.75312E-05	3.16808E-05	0	0	0	
0.2755	0.00972636	-0.00729756	0.000137391	5.6659E-05	0	0	0	
0.275667	-0.0187733	-0.00178021	0.000252268	7.59998E-05	0	0	0	
0.275833	0.0231871	0.00295347	0.000358615	8.38812E-05	0	0	0	
0.276	-0.0123461	-0.00185569	0.000382836	6.67789E-05	0	0	0	
0.276167	0.00184257	0.00134823	0.00028676	5.63636E-05	0	0	0	
0.276333	-0.00446514	-0.00264773	0.000171696	4.66659E-05	0	0	0	
0.2765	0.00533677	-0.00304491	0.000140259	5.09865E-05	0	0	0	
0.276667	-0.00444107	0.00328032	0.000200654	4.97942E-05	0	0	0	
0.276833	0.00341381	0.000449208	0.000290968	7.8976E-05	0	0	0	
0.277	-0.00443221	-0.0025034	0.000346619	0.000129163	0	0	0	
0.277167	0.00408384	0.00389604	0.000327954	0.000155084	0	0	0	
0.277333	-0.00135819	4.86385E-05	0.000233566	0.000131877	0	0	0	
0.2775	0.000844089	-0.00116742	0.00014595	0.000106293	0	0	0	
0.277667	-0.00825295	0.00254863	0.000155724	0.000143493	0	0	0	
0.277833	0.00975384	0.000405888	0.000207203	0.000159649	0	0	0	
0.278	-0.0103031	0.000863391	0.000235412	0.000139012	0	0	0	
0.278167	0.00326794	-0.00123882	0.000180867	8.00771E-05	0	0	0	
0.278333	-0.00139979	0.00226346	0.000121305	5.1588E-05	0	0	0	
0.2785	0.00390534	-0.00218046	6.73808E-05	3.66874E-05	0	0	0	
0.278667	-0.00968663	0.00288397	9.34208E-05	5.57082E-05	0	0	0	
0.278833	0.0122992	-0.00178778	0.000172746	6.32028E-05	0	0	0	
0.279	-0.01682	-0.00289623	0.00025253	7.82717E-05	0	0	0	
0.279167	0.00841579	-0.00271508	0.00028574	7.31979E-05	0	0	0	
0.279333	-0.00383126	0.000406077	0.000225931	6.95068E-05	0	0	0	
0.2795	0.00493675	0.000190019	0.000154463	4.5137E-05	0	0	0	
0.279667	-0.00907143	-0.00218208	0.00012875	2.46777E-05	0	0	0	
0.279833	0.0102801	0.00181882	0.000184042	2.06213E-05	0	0	0	
0.28	-0.0111257	0.00213851	0.000220548	3.86103E-05	0	0	0	
0.280167	0.00660875	-0.00329821	0.000218254	6.15506E-05	0	0	0	
0.280333	-0.00399986	0.000962935	0.000165329	7.1855E-05	0	0	0	
0.2805	0.00365445	-0.000143004	0.000132734	5.65371E-05	0	0	0	
0.280667	-0.00826289	0.00157198	0.000117214	3.04807E-05	0	0	0	
0.280833	0.0150164	-0.00679248	0.000165788	5.93887E-05	0	0	0	
0.281	-0.0177085	0.00737046	0.000224534	8.87126E-05	0	0	0	
0.281167	0.0119173	0.00307016	0.000272247	0.00011809	0	0	0	
0.281333	-0.00535008	0.00166986	0.00024434	9.28476E-05	0	0	0	
0.2815	0.00256424	0.00131186	0.000175726	6.7637E-05	0	0	0	
0.281667	-0.002135	0.000831008	0.000100971	4.36046E-05	0	0	0	
0.281833	0.00834982	-0.000801434	9.41576E-05	6.3579E-05	0	0	0	
0.282	-0.0109595	0.000571494	0.000173305	9.2016E-05	0	0	0	
0.282167	0.00791496	0.00279865	0.00024005	9.47591E-05	0	0	0	
0.282333	-0.00630464	-0.00281359	0.000229076	7.68929E-05	0	0	0	
0.2825	0.00453035	0.00237815	0.000152585	6.98121E-05	0	0	0	
0.282667	-0.00695095	-0.0035028	0.000113583	7.14114E-05	0	0	0	
0.282833	0.0137062	0.0138188	0.000138062	9.30008E-05	0	0	0	
0.283	-0.0125467	-0.0077674	0.000216816	0.00014654	0	0	0	
0.283167	0.00375557	-0.00639265	0.000211366	0.000188591	0	0	0	
0.283333	-0.00693228	0.00427357	0.000198489	0.000203314	0	0	0	
0.2835	0.011627	-0.00142689	0.000188979	0.000133646	0	0	0	
0.283667	-0.00665149	0.00217228	0.000209089	8.4032E-05	0	0	0	
0.283833	0.00513939	0.00294615	0.000203049	6.39392E-05	0	0	0	
0.284	-0.00992177	-0.00525405	0.000235819	0.000140663	0	0	0	
0.284167	0.0124802	0.0039177	0.000334499	0.000169522	0	0	0	
0.284333	-0.0106824	0.000243957	0.000352945	0.000176551	0	0	0	
0.2845	0.00528054	0.00236625	0.000267129	0.000134692	0	0	0	
0.284667	0.000744447	-0.00215084	0.000133469	0.000143041	0	0	0	
0.284833	0.00242166	-0.00189785	9.62351E-05	0.000116745	0	0	0	
0.285	0.00330994	0.00513289	0.000109915	9.36541E-05	0	0	0	
0.285167	0.00197145	-0.0136798	0.000173951	0.000135092	0	0	0	
0.285333	-0.00971579	-0.00486959	0.000268621	0.000162091	0	0	0	
0.2855	0.0184502	7.00086E-05	0.000366344	0.000185116	0	0	0	
0.285667	-0.0150926	0.0129165	0.000411227	0.000207907	0	0	0	
0.285833	0.00728026	-0.0108507	0.000362238	0.000243078	0	0	0	
0.286	0.00038952	0.003992	0.000231396	0.000241466	0	0	0	
0.286167	0.00674097	-0.00349297	0.00011942	0.000148462	0	0	0	
0.286333	-0.000721608	0.00609212	0.000145162	0.00012112	0	0	0	
0.2865	0.0105429	-0.00173192	0.000231965	0.00010004	0	0	0	
0.286667	-0.00566433	-0.00957595	0.000303222	0.00013629	0	0	0	
0.286833	0.00343594	0.00459837	0.000261337	0.00011844	0	0	0	
0.287	-0.00392893	-0.0019353	0.000194415	0.000126049	0	0	0	
0.287167	0.00690811	0.000742363	0.000157314	8.76923E-05	0	0	0	
0.287333	-0.0117794	0.00519829	0.000204416	7.73497E-05	0	0	0	
0.2875	0.0169569	0.00550467	0.000251593	8.57949E-05	0	0	0	
0.287667	-0.0159788	-0.00140831	0.000295719	8.84505E-05	0	0	0	
0.287833	0.00634414	-0.00188599	0.000268269	8.49365E-05	0	0	0	
0.288	0.00032009	-0.000366437	0.000201939	6.58083E-05	0	0	0	
0.288167	0.00353225	-0.000449393	0.000153175	6.09826E-05	0	0	0	
0.288333	-0.0245573	-0.0033365	0.000173789	5.77808E-05	0	0	0	
0.2885	0.0833296	-0.0509015	0.000372461	9.81256E-05	0	0	0	
0.288667	-0.131314	-0.0638094	0.00145186	0.000752129	0	0	0	
0.288833	0.0445587	-0.000560695	0.00178817	0.000891537	0	0	0	
0.289	-0.0226191	0.0326679	0.00182095	0.0010918	0	0	0	
0.289167	0.0183857	-0.0101122	0.000794234	0.000547614	0	0	0	
0.289333	-0.041812	-0.00919326	0.000559896	0.0004786	0	0	0	
0.2895	0.0211391	0.00681196	0.000512171	0.000271611	0	0	0	
0.289667	-0.0145126	-0.000673797	0.000495611	0.00021955	0	0	0	
0.289833	0.00159254	-0.00685998	0.000369458	0.000202013	0	0	0	
0.29	0.000289578	6.57382E-05	0.000183056	0.000197652	0	0	0	
0.290167	0.0128058	0.00227551	0.000165657	0.000167992	0	0	0	
0.290333	-0.0154431	0.0105672	0.000213526	0.000154247	0	0	0	
0.2905	0.00663873	-0.00265087	0.000251779	0.000189407	0	0	0	
0.290667	0.00478299	0.00239915	0.000203172	0.000179909	0	0	0	
0.290833	0.00239669	-0.00638866	0.000148064	0.000166216	0	0	0	
0.291	-0.0113232	-0.0028828	0.000192175	0.000114338	0	0	0	
0.291167	0.0201162	8.14845E-06	0.000282276	0.000104053	0	0	0	
0.291333	-0.0204972	4.10252E-05	0.000348315	8.08126E-05	0	0	0	
0.2915	0.0129092	0.00840554	0.000343279	6.69899E-05	0	0	0	
0.291667	-0.0162717	-0.0040793	0.000323422	0.000106933	0	0	0	
0.291833	0.012987	0.0035553	0.000277958	0.00010166	0	0	0	
0.292	-0.00584531	-0.00224652	0.000250438	0.000111089	0	0	0	
0.292167	0.0105634	-0.00673593	0.000227367	6.94586E-05	0	0	0	
0.292333	-0.0109782	0.00280758	0.000255276	8.65471E-05	0	0	0	
0.2925	0.00927754	-0.00281811	0.000295866	8.19984E-05	0	0	0	
0.292667	-0.00791988	0.00125897	0.000298996	9.24103E-05	0	0	0	
0.292833	0.00364779	0.00308903	0.000269122	7.91729E-05	0	0	0	
0.293	-0.00948228	-0.000765437	0.000261476	6.82809E-05	0	0	0	
0.293167	0.0169151	-0.00279558	0.000298626	6.59421E-05	0	0	0	
0.293333	-0.0106894	0.00112263	0.000309045	7.51282E-05	0	0	0	
0.2935	0.00442146	-0.00405777	0.000242114	6.98386E-05	0	0	0	
0.293667	-0.000682119	-0.00179671	0.000150173	6.2086E-05	0	0	0	
0.293833	0.0028059	-0.0015145	8.70208E-05	4.89416E-05	0	0	0	
0.294	-0.00786537	-0.000136475	0.000113663	6.04172E-05	0	0	0	
0.294167	0.00990392	-0.00497916	0.000177073	5.90489E-05	0	0	0	
0.294333	-0.0128578	-0.000914197	0.000218854	5.89472E-05	0	0	0	
0.2945	0.0113135	0.00390174	0.000228446	5.84036E-05	0	0	0	
0.294667	-0.00756833	0.00158616	0.000204509	5.99469E-05	0	0	0	
0.294833	0.00102894	0.000548013	0.000154443	6.63443E-05	0	0	0	
0.295	-0.00269625	0.00249595	0.000108486	6.09106E-05	0	0	0	
0.295167	0.00888913	-0.00782495	0.000120651	5.99298E-05	0	0	0	
0.295333	-0.0146693	0.00112952	0.000195462	8.326E-05	0	0	0	
0.2955	0.0165851	-0.00258382	0.00027234	7.94094E-05	0	0	0	
0.295667	-0.0144316	0.00127288	0.000294978	8.38456E-05	0	0	0	
0.295833	0.00757129	2.45594E-05	0.000252621	5.25664E-05	0	0	0	
0.296	-0.00940236	-3.50405E-05	0.000206981	6.0916E-05	0	0	0	
0.296167	0.0103868	-0.00446475	0.000171377	7.70076E-05	0	0	0	
0.296333	-0.00994689	0.00653121	0.000199565	0.000134136	0	0	0	
0.2965	0.0172986	-0.00284368	0.000240234	0.000134712	0	0	0	
0.296667	-0.0176275	0.00168509	0.00029713	0.000129586	0	0	0	
0.296833	0.00721888	-0.000198691	0.000282685	7.61777E-05	0	0	0	
0.297	-0.00326069	-0.00157896	0.000218088	8.10959E-05	0	0	0	
0.297167	0.0065003	4.96884E-05	0.000152289	7.71029E-05	0	0	0	
0.297333	-0.0101685	0.00165658	0.000151566	0.000119992	0	0	0	
0.2975	0.0103043	-0.00549203	0.000180182	0.00017081	0	0	0	
0.297667	-0.00695996	0.00562118	0.000172059	0.000177209	0	0	0	
0.297833	0.00504222	-0.000470525	0.000145757	0.00013503	0	0	0	
0.298	-0.00950008	-0.00036488	0.000116217	7.53959E-05	0	0	0	
0.298167	0.0134204	0.00787782	0.000160338	6.47551E-05	0	0	0	
0.298333	-0.0171626	-0.00518093	0.00021496	9.11179E-05	0	0	0	
0.2985	0.0188253	0.00456162	0.000297999	0.000114043	0	0	0	
0.298667	-0.0170098	0.00125129	0.000312065	0.000127904	0	0	0	
0.298833	0.0161448	-0.0075719	0.000333301	0.000113654	0	0	0	
0.299	-0.0108925	0.00239746	0.000291549	0.00010634	0	0	0	
0.299167	0.00757866	-0.00202806	0.000264457	9.42951E-05	0	0	0	
0.299333	-0.00753502	0.000465439	0.000216303	8.3024E-05	0	0	0	
0.2995	0.0160167	0.000296589	0.000250739	6.6378E-05	0	0	0	
0.299667	-0.0193682	3.73484E-05	0.000291471	4.81094E-05	0	0	0	
0.299833	0.0148221	-0.00199996	0.000318969	4.87856E-05	0	0	0	
0.3	-0.00532826	-0.00215709	0.000293869	8.84074E-05	0	0	0	
0.300167	0.0040156	-0.00757512	0.00020369	0.00012205	0	0	0	
0.300333	-0.00416569	-0.00130717	0.000125862	0.000151955	0	0	0	
0.3005	0.00307848	-0.00125021	8.10172E-05	0.000123221	0	0	0	
0.300667	-0.0106561	-0.00371263	0.000104199	9.06828E-05	0	0	0	
0.300833	0.0142087	0.00058469	0.000171743	6.09929E-05	0	0	0	
0.301	-0.0146372	0.00282757	0.000242431	5.89042E-05	0	0	0	
0.301167	0.0140301	0.00359229	0.000272546	8.14259E-05	0	0	0	
0.301333	-0.00697289	0.00557032	0.00024744	0.000104241	0	0	0	
0.3015	0.00678014	-0.00438759	0.000202455	0.000102431	0	0	0	
0.301667	-0.000579801	0.00303179	0.000162298	0.000111029	0	0	0	
0.301833	0.0101265	-0.00179343	0.000186714	8.33252E-05	0	0	0	
0.302	-0.0112018	0.0015117	0.000219216	7.98634E-05	0	0	0	
0.302167	0.0108113	-0.000818277	0.000265923	6.31219E-05	0	0	0	
0.302333	-0.0110148	0.00864666	0.00025141	7.29241E-05	0	0	0	
0.3025	0.0222386	0.00184923	0.000243211	9.25754E-05	0	0	0	
0.302667	-0.00839808	0.00118665	0.000261341	9.19757E-05	0	0	0	
0.302833	0.0122447	-0.00129742	0.000277631	9.126E-05	0	0	0	
0.303	-0.0100063	-0.00296269	0.000271948	8.62895E-05	0	0	0	
0.303167	0.00681446	-0.00405653	0.00023378	8.62827E-05	0	0	0	
0.303333	-0.00593019	0.00146008	0.000171914	9.5189E-05	0	0	0	
0.3035	0.0127611	-0.00259292	0.000166313	7.13317E-05	0	0	0	
0.303667	-0.0133211	0.0036957	0.000208044	7.27334E-05	0	0	0	
0.303833	0.01891	0.000270918	0.000297774	6.03058E-05	0	0	0	
0.304	-0.0106228	0.00455247	0.000347251	7.75284E-05	0	0	0	
0.304167	0.00879	0.00279345	0.000305705	8.49005E-05	0	0	0	
0.304333	-0.0116369	0.00436299	0.000258673	0.000107203	0	0	0	
0.3045	0.0182332	-0.000243711	0.000241118	0.000101228	0	0	0	
0.304667	-0.0140143	0.000478319	0.000268396	8.44877E-05	0	0	0	
0.304833	0.017627	0.00221713	0.000318611	7.53736E-05	0	0	0	
0.305	-0.00445369	0.00419781	0.000272168	8.19371E-05	0	0	0	
0.305167	0.00107706	0.00194144	0.000195358	9.25387E-05	0	0	0	
0.305333	-0.00658943	0.00543922	0.000123848	8.94846E-05	0	0	0	
0.3055	0.0138281	5.05172E-05	0.000162314	8.9313E-05	0	0	0	
0.305667	-0.0115077	-0.000623823	0.000274457	7.34658E-05	0	0	0	
0.305833	0.0184024	-1.19703E-05	0.000329898	5.0041E-05	0	0	0	
0.306	-0.0130728	0.00302144	0.000304977	4.34422E-05	0	0	0	
0.306167	0.00880143	-0.00345495	0.000260907	6.75204E-05	0	0	0	
0.306333	-0.00947441	-0.000358311	0.000229774	7.08995E-05	0	0	0	
0.3065	0.00702449	-0.0007325	0.000220818	7.53014E-05	0	0	0	
0.306667	-0.0030646	-0.000219551	0.000179706	4.24377E-05	0	0	0	
0.306833	0.0111485	0.00218347	0.000135185	6.17855E-05	0	0	0	
0.307	-0.0129017	0.00361083	0.000183089	6.38458E-05	0	0	0	
0.307167	0.018662	0.000988137	0.000245535	9.05368E-05	0	0	0	
0.307333	-0.0188443	0.00482346	0.000330107	7.4616E-05	0	0	0	
0.3075	0.0181772	-0.00281952	0.000333357	7.85836E-05	0	0	0	
0.307667	-0.00737047	-0.000216161	0.000316137	5.85005E-05	0	0	0	
0.307833	0.00915839	0.00337209	0.000253621	5.51158E-05	0	0	0	
0.308	-0.00960235	0.00329367	0.00022184	4.98272E-05	0	0	0	
0.308167	0.00865277	0.00291129	0.000221266	5.7141E-05	0	0	0	
0.308333	-0.0159659	0.00317295	0.0002656	6.93111E-05	0	0	0	
0.3085	0.0236066	-0.00106965	0.000276032	7.30979E-05	0	0	0	
0.308667	-0.0142832	0.00618353	0.000317016	9.49647E-05	0	0	0	
0.308833	0.0107642	-0.00486142	0.000294733	0.00011581	0	0	0	
0.309	-0.00876766	0.00516325	0.000276339	0.000104467	0	0	0	
0.309167	0.00400195	0.000458338	0.000265749	8.33768E-05	0	0	0	
0.309333	-0.0121511	0.00254105	0.000286109	5.50352E-05	0	0	0	
0.3095	0.0165563	-4.57861E-05	0.000292179	4.95356E-05	0	0	0	
0.309667	-0.00865423	-0.00415228	0.000270327	5.99116E-05	0	0	0	
0.309833	0.0133767	0.00267994	0.000233487	8.31759E-05	0	0	0	
0.31	-0.00988723	-0.000222311	0.000223928	0.000101043	0	0	0	
0.310167	0.00620848	-0.00112013	0.000181922	8.06118E-05	0	0	0	
0.310333	-0.00679849	0.00228052	0.000180912	5.59147E-05	0	0	0	
0.3105	0.00888077	0.000901788	0.000158497	3.51696E-05	0	0	0	
0.310667	-0.00602242	-0.00110063	0.000201167	3.72466E-05	0	0	0	
0.310833	0.0183019	-0.00251141	0.000247528	4.82974E-05	0	0	0	
0.311	-0.0158259	0.000491939	0.000314574	6.11307E-05	0	0	0	
0.311167	0.0160381	-0.00607465	0.00030556	9.07285E-05	0	0	0	
0.311333	-0.0113352	0.00290485	0.000283721	7.95835E-05	0	0	0	
0.3115	0.0062644	0.000518604	0.000216246	8.31729E-05	0	0	0	
0.311667	-0.000737601	0.000376448	0.000157007	5.37997E-05	0	0	0	
0.311833	0.00404745	0.000515592	9.75704E-05	4.85597E-05	0	0	0	
0.312	-0.00959113	-0.00285544	0.000100348	5.62207E-05	0	0	0	
0.312167	0.0174644	-0.00539326	0.000166089	7.46672E-05	0	0	0	
0.312333	-0.0181811	0.00345525	0.00026545	7.92381E-05	0	0	0	
0.3125	0.0212957	0.00248974	0.000367475	9.2739E-05	0	0	0	
0.312667	-0.0221925	-0.00449693	0.000477106	0.000104189	0	0	0	
0.312833	0.0272218	0.00299863	0.000523523	0.000114173	0	0	0	
0.313	-0.0348692	0.00259782	0.000552344	0.000100368	0	0	0	
0.313167	0.0279242	0.000707545	0.000546234	9.32978E-05	0	0	0	
0.313333	-0.010388	0.00640579	0.000495136	9.68627E-05	0	0	0	
0.3135	-0.00667049	-0.00345953	0.000347205	0.000115152	0	0	0	
0.313667	0.0112881	0.00718879	0.000253018	0.000123025	0	0	0	
0.313833	0.00915172	-0.000438048	0.000304405	0.000110107	0	0	0	
0.314	-0.0229487	0.000138166	0.000439668	7.45342E-05	0	0	0	
0.314167	0.0246447	0.00221879	0.000539632	5.12148E-05	0	0	0	
0.314333	-0.0196514	0.00440588	0.000572421	6.2275E-05	0	0	0	
0.3145	0.015988	-0.000370185	0.000563634	7.06938E-05	0	0	0	
0.314667	-0.0130803	-0.00274272	0.000470108	7.59871E-05	0	0	0	
0.314833	0.0126779	0.00498353	0.000346875	6.32502E-05	0	0	0	
0.315	-0.0100932	0.000849028	0.00028058	5.86048E-05	0	0	0	
0.315167	0.0106342	0.00320892	0.0002495	5.88224E-05	0	0	0	
0.315333	-0.00342486	0.00167524	0.000257545	6.7789E-05	0	0	0	
0.3155	0.00623995	-0.00374069	0.0002342	7.98772E-05	0	0	0	
0.315667	-0.00890416	-0.00254814	0.000252219	9.84424E-05	0	0	0	
0.315833	0.0180615	-0.00621231	0.000265639	0.000104176	0	0	0	
0.316	-0.0149856	0.0061166	0.000287546	9.54154E-05	0	0	0	
0.316167	0.00376133	0.00427933	0.000234092	8.67503E-05	0	0	0	
0.316333	-0.00809027	0.00296418	0.000178761	8.74914E-05	0	0	0	
0.3165	0.0151206	0.00343889	0.000166656	8.90242E-05	0	0	0	
0.316667	-0.0176189	-0.00147787	0.000239206	7.54193E-05	0	0	0	
0.316833	0.0142502	-0.00385638	0.000300825	7.40778E-05	0	0	0	
0.317	-0.00481348	0.00149308	0.000277572	8.46655E-05	0	0	0	
0.317167	0.00280452	0.00107042	0.000186186	7.21006E-05	0	0	0	
0.317333	-0.00826323	-0.000428031	0.000121729	6.65993E-05	0	0	0	
0.3175	0.00916789	0.000205096	0.00014314	4.5356E-05	0	0	0	
0.317667	-0.0115732	0.00244422	0.000210082	6.64119E-05	0	0	0	
0.317833	0.0103836	-0.0065238	0.000258592	5.93637E-05	0	0	0	
0.318	-0.0114451	-0.00308405	0.000261617	7.46504E-05	0	0	0	
