0	0.00304102	-0.000300405	3.04102E-07	3.00405E-08	0	5	0	
0.000166667	0.00717011	-0.00599155	0.000121736	4.95964E-05	0	5	0	
0.000333333	-0.0178503	0.00955946	0.000301073	0.000120828	0	5	0	
0.0005	0.0172514	-0.0129327	0.000501259	0.000196566	0	5	0	
0.000666667	-0.0152051	0.0125573	0.000574157	0.000250979	0	5	0	
0.000833333	0.0180638	-0.0101839	0.000577652	0.000293879	0	5	0	
0.001	-0.014772	0.00823698	0.000536527	0.000324686	0	5	0	
0.00116667	0.0019	-0.00816368	0.000459167	0.00032025	0	5	0	
0.00133333	0.00734156	0.00568484	0.000422865	0.000335828	0	5	0	
0.0015	-0.00780844	-0.00938942	0.000505216	0.000398994	0	5	0	
0.00166667	0.00127909	0.00640221	0.00063761	0.00047759	0	5	0	
0.00183333	-0.00325221	0.00268998	0.000688438	0.000476699	0	5	0	
0.002	0.00412341	-0.0152566	0.000652747	0.000452918	0	5	0	
0.00216667	0.00308871	0.0127764	0.000688983	0.000484421	0	5	0	
0.00233333	-0.00845346	-0.0103013	0.000775354	0.000625405	0	5	0	
0.0025	0.000586657	0.00357525	0.000786121	0.000743054	0	5	0	
0.00266667	-0.00420535	0.001755	0.00077136	0.000758951	0	5	0	
0.00283333	0.0186401	-0.00753687	0.000845922	0.000612722	0	5	0	
0.003	-0.0166013	-0.00832883	0.000894659	0.000383489	0	5	0	
0.00316667	-0.00760319	0.0243718	0.000769022	0.000260714	0	5	0	
0.00333333	0.010522	-0.0123165	0.000651852	0.000338541	0	5	0	
0.0035	-0.00114308	-0.00881139	0.000737974	0.000562325	0	5	0	
0.00366667	0.00140642	0.00247846	0.00088457	0.000608735	0	5	0	
0.00383333	0.00293722	0.0139285	0.000945152	0.000543853	0	5	0	
0.004	-0.0182151	0.009308	0.000917677	0.000518585	0	5	0	
0.00416667	0.00325117	-0.0430135	0.000741205	0.000587185	0	5	0	
0.00433333	0.0371509	0.0244426	0.00057242	0.000680552	0	5	0	
0.0045	-0.047703	-0.00153495	0.000543822	0.000524115	0	5	0	
0.00466667	0.00564742	0.00766631	0.000975382	0.000420843	0	5	0	
0.00483333	0.0301545	-0.000928897	0.00133902	0.000339941	0	5	0	
0.005	-0.0247929	-0.00351004	0.00133773	0.000293803	0	5	0	
0.00516667	0.0181878	-0.00578775	0.00099157	0.000289996	0	5	0	
0.00533333	-0.00979695	0.013021	0.000604609	0.000464582	0	5	0	
0.0055	-0.0118362	-0.0302549	0.000381765	0.000785232	0	5	0	
0.00566667	0.0227725	0.023269	0.000360577	0.000958993	0	5	0	
0.00583333	-0.011455	-0.00474512	0.000583035	0.00077072	0	5	0	
0.006	-0.0041895	-0.000511763	0.000900118	0.000483882	0	5	0	
0.00616667	0.00293992	-0.00269336	0.000994817	0.000305004	0	5	0	
0.00633333	0.00760329	0.0123973	0.000890936	0.000253338	0	5	0	
0.0065	0.00346158	0.00939773	0.000898541	0.000260504	0	5	0	
0.00666667	-0.0298842	-0.0249676	0.00124624	0.000298797	0	5	0	
0.00683333	0.0632767	0.0224202	0.00160639	0.000441648	0	5	0	
0.007	-0.0487849	0.00942256	0.00159936	0.000729572	0	5	0	
0.00716667	0.00386294	-0.0123194	0.00114073	0.000861335	0	5	0	
0.00733333	0.0361568	0.0199637	0.000660676	0.000803867	0	5	0	
0.0075	-0.0483184	-0.0144735	0.000588759	0.000609249	0	5	0	
0.00766667	0.0542893	0.0129019	0.00096143	0.000393442	0	5	0	
0.00783333	-0.0280083	0.0191094	0.00154316	0.000322791	0	5	0	
0.008	-0.0255115	0.00914287	0.00210779	0.000279568	0	5	0	
0.00816667	0.0869586	0.0274727	0.00236299	0.000537552	0	5	0	
0.00833333	-0.0908572	-0.329144	0.0020843	0.00194708	0	5	0	
0.0085	0.0934411	0.554713	0.0023867	0.0050038	0	5	0	
0.00866667	-0.00211787	-0.423872	0.00254635	0.00752736	0	5	0	
0.00883333	0.0153143	0.13835	0.00236242	0.00941099	0	5	0	
0.009	-0.0299297	0.0589504	0.00137097	0.00950013	0	5	0	
0.00916667	-0.0174138	-0.123588	0.000593005	0.00795712	0	5	0	
0.00933333	0.0236563	0.0608202	0.000560347	0.0050759	0	5	0	
0.0095	0.135057	-0.0546418	0.00121197	0.00347704	0	5	0	
0.00966667	-0.130268	-0.0575174	0.00221433	0.00479821	0	5	0	
0.00983333	0.0444181	0.310961	0.0025492	0.0064055	0	5	0	
0.01	0.0388062	-0.336619	0.00185853	0.00680189	0	5	0	
0.0101667	0.000980138	0.102857	0.00125327	0.00560405	0	5	0	
0.0103333	-0.0504174	0.0193334	0.00125815	0.00401688	0	5	0	
0.0105	0.022742	0.0433351	0.00134302	0.00236343	0	5	0	
0.0106667	0.0316513	-0.124749	0.0011302	0.00162991	0	5	0	
0.0108333	-0.0153302	0.113153	0.00072782	0.00180941	0	5	0	
0.011	-0.0223275	-0.0225958	0.000707622	0.00232473	0	5	0	
0.0111667	0.00434271	-0.037674	0.000428576	0.00234354	0	5	0	
0.0113333	0.0258348	0.0197654	0.000445368	0.00188525	0	5	0	
0.0115	-0.0250414	0.0224742	0.000411119	0.00104333	0	5	0	
0.0116667	0.00415384	-0.0304607	0.00063579	0.000585653	0	5	0	
0.0118333	-0.000169792	-2.91607E-05	0.000699054	0.000729645	0	5	0	
0.012	0.0142905	0.0279257	0.000640981	0.00100151	0	5	0	
0.0121667	-0.0241282	-0.0204971	0.00055578	0.00093847	0	5	0	
0.0123333	0.0131269	-0.00810524	0.00066314	0.000601667	0	5	0	
0.0125	-0.00192575	0.0148648	0.000871872	0.000325919	0	5	0	
0.0126667	0.00650241	-0.00497245	0.00089771	0.000260924	0	5	0	
0.0128333	-0.0188834	-0.00637014	0.000793421	0.000371328	0	5	0	
0.013	0.0209962	0.0076256	0.00076144	0.000430555	0	5	0	
0.0131667	-0.012415	0.00532877	0.000904908	0.000394046	0	5	0	
0.0133333	0.0125955	-0.0186199	0.0010296	0.000330932	0	5	0	
0.0135	-0.0263974	0.0129199	0.000998274	0.000323264	0	5	0	
0.0136667	0.0264897	-0.000709796	0.000917905	0.000381055	0	5	0	
0.0138333	-0.0140525	-0.011814	0.000983315	0.000367865	0	5	0	
0.014	0.0034225	-0.000959384	0.00109261	0.000297491	0	5	0	
0.0141667	-0.0133074	0.0159379	0.00103604	0.000225821	0	5	0	
0.0143333	0.0247145	-0.0166774	0.000879121	0.000255108	0	5	0	
0.0145	-0.0206067	0.0110814	0.000807132	0.000274603	0	5	0	
0.0146667	0.0103043	-0.0173585	0.000833435	0.000304287	0	5	0	
0.0148333	-0.0201114	0.00465239	0.000828904	0.000283624	0	5	0	
0.015	0.0205419	-0.000357163	0.000799024	0.000334137	0	5	0	
0.0151667	-0.00857376	-0.00185334	0.000857039	0.000338552	0	5	0	
0.0153333	0.00437912	0.00463127	0.000943669	0.000293244	0	5	0	
0.0155	-0.0107024	0.000426623	0.00092156	0.000213129	0	5	0	
0.0156667	0.0165311	-0.00425438	0.00083733	0.000163197	0	5	0	
0.0158333	-0.0152596	-0.00385945	0.000819389	0.000174742	0	5	0	
0.016	0.00648958	0.00371176	0.000898234	0.000228644	0	5	0	
0.0161667	-0.00794593	-0.000951787	0.000947891	0.000277826	0	5	0	
0.0163333	0.0190963	-0.00634546	0.00091585	0.000298115	0	5	0	
0.0165	-0.0202682	0.0145733	0.000892561	0.000305193	0	5	0	
0.0166667	0.0130963	-0.0122772	0.000933981	0.000303736	0	5	0	
0.0168333	-0.0123074	0.0135771	0.000949027	0.000344347	0	5	0	
0.017	0.017397	-0.0116579	0.000886058	0.000380912	0	5	0	
0.0171667	-0.0213822	0.00734238	0.000829769	0.000432141	0	5	0	
0.0173333	0.015579	-0.00156602	0.000843006	0.000431986	0	5	0	
0.0175	-0.0177144	-0.00273407	0.000865248	0.000344769	0	5	0	
0.0176667	0.0190314	-0.000813622	0.000825996	0.000202364	0	5	0	
0.0178333	-0.0183899	0.0106969	0.000814752	0.000108407	0	5	0	
0.018	0.00204018	-0.0179499	0.000871953	0.000158553	0	5	0	
0.0181667	-0.00463444	0.0204787	0.000912414	0.000335799	0	5	0	
0.0183333	0.00493969	-0.0124256	0.000835177	0.000476608	0	5	0	
0.0185	-0.00494821	0.00741411	0.000739256	0.000525103	0	5	0	
0.0186667	-0.00240101	-0.00469709	0.000687564	0.000489771	0	5	0	
0.0188333	-0.00574596	0.00739691	0.000646374	0.00044765	0	5	0	
0.019	0.0153125	-0.0115601	0.000606703	0.000406828	0	5	0	
0.0191667	-0.0182008	0.0133638	0.000673905	0.000379334	0	5	0	
0.0193333	0.00489491	0.00109846	0.000842942	0.000367635	0	5	0	
0.0195	-0.00598597	-0.00460264	0.000938059	0.000393637	0	5	0	
0.0196667	0.0139486	3.57151E-05	0.000894134	0.000375665	0	5	0	
0.0198333	-0.0141166	0.00994908	0.000888065	0.000332974	0	5	0	
0.02	0.00623072	-0.017658	0.000978354	0.000332033	0	5	0	
0.0201667	-0.00621051	0.0173359	0.00103246	0.000411626	0	5	0	
0.0203333	0.0113734	-0.016808	0.000948047	0.000564031	0	5	0	
0.0205	-0.0133893	0.0158937	0.000849417	0.000633885	0	5	0	
0.0206667	0.00692364	-0.0148928	0.000831202	0.000656527	0	5	0	
0.0208333	-0.0118163	0.0135531	0.000849971	0.000605913	0	5	0	
0.021	0.0145845	-0.017632	0.000813824	0.000585013	0	5	0	
0.0211667	-0.0173736	0.0184748	0.000763253	0.000547976	0	5	0	
0.0213333	0.020152	-0.0239645	0.000730893	0.000570534	0	5	0	
0.0215	-0.0212659	0.0188268	0.00073723	0.000550618	0	5	0	
0.0216667	0.0181053	-0.0130678	0.000781325	0.000503267	0	5	0	
0.0218333	-0.0179621	0.0168155	0.000855829	0.000457049	0	5	0	
0.022	0.0172159	-0.011402	0.00089098	0.000448767	0	5	0	
0.0221667	-0.0242619	0.00718985	0.000868913	0.00046851	0	5	0	
0.0223333	0.0231993	0.000547387	0.000840374	0.000393814	0	5	0	
0.0225	-0.00884865	0.00736718	0.000834746	0.000276694	0	5	0	
0.0226667	0.00890724	-0.00461413	0.000825218	0.000177413	0	5	0	
0.0228333	-0.0193638	0.00736054	0.000763039	0.000148525	0	5	0	
0.023	0.025901	-0.00231036	0.00072673	0.000168371	0	5	0	
0.0231667	-0.0320738	0.002445	0.000764059	0.000194492	0	5	0	
0.0233333	0.0239851	-0.000653045	0.000856508	0.000220208	0	5	0	
0.0235	-0.0107742	0.00866676	0.000913084	0.000242967	0	5	0	
0.0236667	0.0108311	-0.0056788	0.000909188	0.00021825	0	5	0	
0.0238333	-0.0139609	0.0121143	0.000843576	0.000243627	0	5	0	
0.024	0.020509	-0.00517272	0.000786365	0.00036527	0	5	0	
0.0241667	-0.0288031	0.000551867	0.000733295	0.000546171	0	5	0	
0.0243333	0.034493	-0.000213922	0.000739938	0.00057292	0	5	0	
0.0245	-0.0287017	0.00911323	0.000792787	0.000458656	0	5	0	
0.0246667	0.0138597	-0.00313218	0.000899347	0.00029915	0	5	0	
0.0248333	-0.00698927	0.0109425	0.000946721	0.000211527	0	5	0	
0.025	0.0203779	-0.0207663	0.000887244	0.000206113	0	5	0	
0.0251667	-0.0259421	0.0248754	0.00078066	0.000309305	0	5	0	
0.0253333	0.0254665	-0.0140958	0.000740796	0.000453549	0	5	0	
0.0255	-0.0217002	0.0138137	0.000796469	0.000504715	0	5	0	
0.0256667	0.0197174	-0.00906238	0.000830943	0.000451262	0	5	0	
0.0258333	-0.0361451	-0.00118295	0.000866316	0.000315149	0	5	0	
0.026	0.0535352	-0.00154571	0.000944042	0.000220902	0	5	0	
0.0261667	-0.0441858	0.0107438	0.00106409	0.000164873	0	5	0	
0.0263333	0.0265321	-0.0153378	0.00112189	0.000220575	0	5	0	
0.0265	-0.0150696	0.0128133	0.00105319	0.000247417	0	5	0	
0.0266667	0.0160201	-0.0189528	0.000884119	0.000311434	0	5	0	
0.0268333	-0.0249506	0.00992272	0.000725522	0.000335511	0	5	0	
0.027	0.0309043	-0.00213779	0.000637075	0.000404792	0	5	0	
0.0271667	-0.0302398	-0.00241282	0.000627372	0.000391641	0	5	0	
0.0273333	0.0315275	-0.00242455	0.000646575	0.000334776	0	5	0	
0.0275	-0.0261923	0.00530519	0.000700162	0.00028194	0	5	0	
0.0276667	0.0200837	-0.0116961	0.000768757	0.000312532	0	5	0	
0.0278333	-0.0206837	0.0117089	0.000777789	0.00038506	0	5	0	
0.028	0.0251187	-0.0100656	0.00072719	0.000427358	0	5	0	
0.0281667	-0.025692	0.0123082	0.000670684	0.000435329	0	5	0	
0.0283333	0.0230336	-0.00739309	0.000675086	0.000426578	0	5	0	
0.0285	-0.0180852	0.00989415	0.000705427	0.000432769	0	5	0	
0.0286667	0.0138442	-0.01198	0.000716566	0.000429633	0	5	0	
0.0288333	-0.0190863	0.0148388	0.000684759	0.00042446	0	5	0	
0.029	0.0258239	-0.0182937	0.00065383	0.000407815	0	5	0	
0.0291667	-0.0240846	0.0252761	0.000688809	0.000398913	0	5	0	
0.0293333	0.0109148	-0.0185774	0.000796613	0.000435664	0	5	0	
0.0295	-0.0131909	0.0182407	0.000827044	0.000524238	0	5	0	
0.0296667	0.0281004	-0.0220805	0.000773526	0.000565444	0	5	0	
0.0298333	-0.030747	0.0232411	0.00076051	0.000549658	0	5	0	
0.03	0.00888658	-0.00763679	0.000872233	0.000517519	0	5	0	
0.0301667	-0.00761242	-0.0174728	0.00101093	0.000564146	0	5	0	
0.0303333	0.0121869	0.0114226	0.000995697	0.000564272	0	5	0	
0.0305	-0.0154102	0.0309862	0.000846491	0.000514079	0	5	0	
0.0306667	0.00869931	-0.0535161	0.000603115	0.00059513	0	5	0	
0.0308333	-0.025952	0.0450902	0.000437935	0.000797333	0	5	0	
0.031	0.0384113	-0.0289684	0.00042903	0.00083728	0	5	0	
0.0311667	-0.0312167	0.0308246	0.000657835	0.000792846	0	5	0	
0.0313333	0.0177195	-0.026979	0.000913464	0.000714072	0	5	0	
0.0315	-0.0154929	0.0191395	0.000965374	0.000832595	0	5	0	
0.0316667	-0.00242707	0.0147529	0.000795103	0.000771931	0	5	0	
0.0318333	0.0177535	-0.0303605	0.000726409	0.000593905	0	5	0	
0.032	-0.0163305	0.0279513	0.000847697	0.000613065	0	5	0	
0.0321667	0.00177507	0.00631335	0.000877218	0.000619156	0	5	0	
0.0323333	0.0235958	-0.0174292	0.000719612	0.000622753	0	5	0	
0.0325	-0.0382276	0.00257287	0.000660625	0.000353382	0	5	0	
0.0326667	0.0148217	-0.0194139	0.000789554	0.000276082	0	5	0	
0.0328333	-0.0181777	0.0178416	0.000914319	0.000399594	0	5	0	
0.033	0.0417442	0.0133613	0.000942164	0.000616041	0	5	0	
0.0331667	-0.0319637	-0.0150232	0.000972518	0.000764301	0	5	0	
0.0333333	0.0159506	-0.000502441	0.00101509	0.000713168	0	5	0	
0.0335	-0.0253675	0.00922089	0.000923205	0.000541909	0	5	0	
0.0336667	0.0352587	-0.034665	0.000808443	0.000458308	0	5	0	
0.0338333	-0.0417919	0.0325167	0.00077441	0.000563607	0	5	0	
0.034	0.0316731	-0.0215016	0.000861578	0.000728042	0	5	0	
0.0341667	-0.0144976	0.012461	0.000861325	0.000722729	0	5	0	
0.0343333	0.0194092	-0.00872528	0.000758436	0.000545728	0	5	0	
0.0345	-0.0275555	0.00939751	0.000635389	0.00037767	0	5	0	
0.0346667	0.0359629	-0.00387571	0.000697979	0.000225921	0	5	0	
0.0348333	-0.0221056	0.0210899	0.000813949	0.000219047	0	5	0	
0.035	0.0309502	-0.0209206	0.000895871	0.000280721	0	5	0	
0.0351667	-0.0156806	0.0390616	0.000817111	0.000419665	0	5	0	
0.0353333	0.0205074	-0.0337002	0.000771306	0.000585386	0	5	0	
0.0355	-0.0187961	0.0263651	0.000705736	0.000688303	0	5	0	
0.0356667	0.0277888	-0.013782	0.000715702	0.000742963	0	5	0	
0.0358333	-0.0176514	0.0164796	0.000726266	0.000678192	0	5	0	
0.036	0.0158785	-0.0105199	0.000779586	0.000537976	0	5	0	
0.0361667	-0.00412297	0.03177	0.000765465	0.00048297	0	5	0	
0.0363333	0.0253588	-0.0376537	0.000741586	0.000599374	0	5	0	
0.0365	-0.0273528	0.0465632	0.000754705	0.000750017	0	5	0	
0.0366667	0.0248066	-0.0251767	0.00089346	0.000812756	0	5	0	
0.0368333	-0.0198973	-0.0145279	0.00101095	0.000675203	0	5	0	
0.037	0.0297701	0.0324633	0.0010093	0.000600175	0	5	0	
0.0371667	-0.0440284	-0.0136372	0.000969879	0.000490569	0	5	0	
0.0373333	0.0563699	-0.00773041	0.00103966	0.000515129	0	5	0	
0.0375	-0.0502486	0.0301459	0.00119228	0.000542972	0	5	0	
0.0376667	0.0468773	-0.0373442	0.00124898	0.000634376	0	5	0	
0.0378333	-0.0471388	0.0326613	0.00117156	0.000644445	0	5	0	
0.038	0.0433202	-0.025129	0.00107898	0.000705245	0	5	0	
0.0381667	-0.0297551	0.0170477	0.00103721	0.000735903	0	5	0	
0.0383333	0.0300297	0.00368501	0.000983998	0.000625709	0	5	0	
0.0385	-0.0312003	-0.00301692	0.000872659	0.00045303	0	5	0	
0.0386667	0.0309203	-0.0131585	0.000757148	0.000360178	0	5	0	
0.0388333	-0.0343157	0.0160284	0.00072294	0.000416617	0	5	0	
0.039	0.0355686	-0.00985489	0.00075201	0.000424264	0	5	0	
0.0391667	-0.0414741	0.00230262	0.00083187	0.000329916	0	5	0	
0.0393333	0.0393387	-0.0162815	0.00088051	0.000227699	0	5	0	
0.0395	-0.0383802	0.0166634	0.000919729	0.000234552	0	5	0	
0.0396667	0.0336016	-0.0084217	0.000940876	0.000296163	0	5	0	
0.0398333	-0.0233381	-0.0124168	0.000937257	0.000418895	0	5	0	
0.04	0.0155012	0.00368654	0.000844451	0.000466458	0	5	0	
0.0401667	-0.040168	-0.00733947	0.000724781	0.000400063	0	5	0	
0.0403333	0.0392138	-0.0572585	0.000710579	0.000445507	0	5	0	
0.0405	-0.0302601	0.045403	0.000784835	0.000737089	0	5	0	
0.0406667	0.00160411	-0.0241742	0.000809813	0.000825819	0	5	0	
0.0408333	0.0503415	0.00664457	0.000826689	0.000863985	0	5	0	
0.041	0.0187775	-0.00402482	0.00069758	0.000539293	0	5	0	
0.0411667	-0.0196604	-0.0181015	0.000826713	0.00045816	0	5	0	
0.0413333	0.0023007	-0.0130407	0.000886874	0.000497307	0	5	0	
0.0415	-0.0618366	0.057329	0.00206588	0.00120255	0	5	0	
0.0416667	0.0522717	-0.212685	0.00448897	0.00233479	0	5	0	
0.0418333	-0.173752	0.128897	0.00599369	0.00345528	0	5	0	
0.042	0.174314	-0.0883946	0.00560094	0.00321907	0	5	0	
0.0421667	-0.109197	0.0255761	0.00377992	0.00233904	0	5	0	
0.0423333	0.0759992	-0.0069639	0.00281775	0.00118874	0	5	0	
0.0425	0.0809124	-0.027294	0.00247855	0.00071046	0	5	0	
0.0426667	-0.358496	0.021657	0.00344482	0.000606067	0	5	0	
0.0428333	0.238567	-0.151664	0.00430482	0.00129783	0	5	0	
0.043	-0.107233	0.064524	0.00517638	0.00206561	0	5	0	
0.0431667	-0.102904	0.0745388	0.00500785	0.00300512	0	5	0	
0.0433333	0.232429	-0.0682006	0.00470637	0.00354189	0	5	0	
0.0435	-0.174457	0.16092	0.00451379	0.00337815	0	5	0	
0.0436667	0.0481385	-0.11827	0.00358058	0.00332538	0	5	0	
0.0438333	0.119696	-0.0915994	0.00271382	0.00223833	0	5	0	
0.044	0.00269096	0.0730405	0.00195477	0.00223745	0	5	0	
0.0441667	-0.0487365	-0.122704	0.00156035	0.0018255	0	5	0	
0.0443333	-0.00612866	0.270175	0.00123152	0.0025554	0	5	0	
0.0445	0.0263622	-0.164513	0.000839113	0.00328859	0	5	0	
0.0446667	-0.00223535	0.00245793	0.000531792	0.00367142	0	5	0	
0.0448333	0.0496979	-0.0346072	0.00065042	0.00330558	0	5	0	
0.045	0.0162939	-0.0862793	0.000673535	0.00255758	0	5	0	
0.0451667	-0.0437924	0.0643632	0.000703131	0.0025496	0	5	0	
0.0453333	0.0664245	-0.0453377	0.000898449	0.00281079	0	5	0	
0.0455	-0.0620388	-0.0148472	0.00163095	0.00321636	0	5	0	
0.0456667	-0.00217773	0.00696371	0.00215522	0.00323248	0	5	0	
0.0458333	0.0606115	-0.0462764	0.0020064	0.0026808	0	5	0	
0.046	-0.118353	-0.0091772	0.00170673	0.00176722	0	5	0	
0.0461667	0.0301017	0.0402865	0.00163018	0.0011091	0	5	0	
0.0463333	0.143654	-0.0483536	0.0016315	0.0010937	0	5	0	
0.0465	-0.149883	0.046396	0.00209583	0.00116212	0	5	0	
0.0466667	0.0517168	-0.0408813	0.00225006	0.00104632	0	5	0	
0.0468333	0.0121352	0.00914425	0.00246204	0.000787382	0	5	0	
0.047	-0.00931883	0.0171844	0.0016268	0.000668352	0	5	0	
0.0471667	-0.0192798	-0.0259767	0.000937764	0.000556585	0	5	0	
0.0473333	0.0756876	0.0335309	0.000640329	0.000547697	0	5	0	
0.0475	-0.0552151	-0.0469848	0.000981981	0.000728115	0	5	0	
0.0476667	0.00902838	0.0318401	0.00125881	0.000810826	0	5	0	
0.0478333	0.00379841	-0.0184235	0.00102144	0.000743271	0	5	0	
0.048	0.0379063	0.00743978	0.00063679	0.000512062	0	5	0	
0.0481667	-0.0773686	0.00741861	0.000693495	0.000280199	0	5	0	
0.0483333	0.0771523	-0.0120458	0.00105769	0.000318632	0	5	0	
0.0485	-0.0413387	0.0109748	0.00138757	0.000438339	0	5	0	
0.0486667	0.0121147	-0.0109184	0.00136125	0.00052353	0	5	0	
0.0488333	-0.0148784	0.0247299	0.00103407	0.000475352	0	5	0	
0.049	0.0313523	-0.037748	0.000685192	0.000469716	0	5	0	
0.0491667	-0.0424932	0.0399687	0.000553139	0.00059429	0	5	0	
0.0493333	0.0444945	-0.0364722	0.000684392	0.000711769	0	5	0	
0.0495	-0.0399709	0.0314484	0.000813993	0.000730035	0	5	0	
0.0496667	0.0373528	-0.0205995	0.0008334	0.000649551	0	5	0	
0.0498333	-0.0366577	0.0197743	0.000816313	0.000562698	0	5	0	
0.05	0.035786	-0.0220625	0.000798719	0.000497125	0	5	0	
0.0501667	-0.0211463	0.0194731	0.000782148	0.000456816	0	5	0	
0.0503333	0.0190084	-0.0191325	0.000675761	0.000449905	0	5	0	
0.0505	-0.0389007	0.0326311	0.000615423	0.000477341	0	5	0	
0.0506667	0.0578195	-0.0321294	0.000681084	0.000528833	0	5	0	
0.0508333	-0.0503721	0.00300338	0.000872493	0.000703909	0	5	0	
0.051	0.0369631	0.0138892	0.000969312	0.000813313	0	5	0	
0.0511667	-0.0315702	-0.000144376	0.000904196	0.000721412	0	5	0	
0.0513333	0.0293675	-0.0107405	0.000816055	0.000458892	0	5	0	
0.0515	-0.0175681	0.0111571	0.000725524	0.000253897	0	5	0	
0.0516667	0.0209791	-0.026416	0.000620433	0.000302185	0	5	0	
0.0518333	-0.0353597	0.0523086	0.000555384	0.000518936	0	5	0	
0.052	0.0461027	-0.0579691	0.000586962	0.00076309	0	5	0	
0.0521667	-0.0510106	0.0442195	0.000750571	0.000953763	0	5	0	
0.0523333	0.0538854	-0.0365689	0.00092902	0.00093953	0	5	0	
0.0525	-0.0400412	0.029071	0.00102691	0.000817876	0	5	0	
0.0526667	0.0259466	-0.0201315	0.00101495	0.000643503	0	5	0	
0.0528333	-0.0296821	0.0110777	0.000875495	0.000482549	0	5	0	
0.053	0.0334846	-0.0127933	0.000751824	0.000343708	0	5	0	
0.0531667	-0.0374902	0.00981313	0.000687997	0.00026672	0	5	0	
0.0533333	0.0498745	-0.0104795	0.000729782	0.000236795	0	5	0	
0.0535	-0.0554817	0.00982111	0.000852659	0.000227691	0	5	0	
0.0536667	0.0496895	-0.0116616	0.000968021	0.0002076	0	5	0	
0.0538333	-0.0414224	0.00505665	0.00100463	0.000216612	0	5	0	
0.054	0.0277798	-0.00374765	0.000929931	0.000215686	0	5	0	
0.0541667	-0.0208601	0.00318945	0.000770214	0.000185855	0	5	0	
0.0543333	0.0310327	-0.00671292	0.000644826	0.000135426	0	5	0	
0.0545	-0.0399771	0.0116094	0.000608726	0.000126439	0	5	0	
0.0546667	0.0484346	-0.0170628	0.000711471	0.000188765	0	5	0	
0.0548333	-0.049555	0.0200904	0.000826449	0.000279631	0	5	0	
0.055	0.0503766	-0.0249228	0.000920049	0.000366576	0	5	0	
0.0551667	-0.0441343	0.0321086	0.00095225	0.000458455	0	5	0	
0.0553333	0.0410893	-0.0343572	0.000944678	0.000563915	0	5	0	
0.0555	-0.0332766	0.0311017	0.000868821	0.000641513	0	5	0	
0.0556667	0.0313525	-0.0268327	0.000773861	0.000653429	0	5	0	
0.0558333	-0.0376432	0.0250537	0.000697603	0.000599207	0	5	0	
0.056	0.0435916	-0.0275196	0.000705694	0.000546454	0	5	0	
0.0561667	-0.0478439	0.0249373	0.000775695	0.000520245	0	5	0	
0.0563333	0.0453057	-0.0184869	0.000854419	0.000482691	0	5	0	
0.0565	-0.0356879	0.0141972	0.000861109	0.00042755	0	5	0	
0.0566667	0.0321428	-0.00982298	0.000811716	0.000337792	0	5	0	
0.0568333	-0.0334161	0.00345786	0.000743244	0.000243438	0	5	0	
0.057	0.033923	-0.00536428	0.000706157	0.000160246	0	5	0	
0.0571667	-0.0403705	0.00941988	0.000704413	0.000132919	0	5	0	
0.0573333	0.0421646	-0.0149232	0.000737158	0.000168311	0	5	0	
0.0575	-0.043496	0.0183997	0.000777748	0.000264546	0	5	0	
0.0576667	0.046411	-0.0182414	0.000821525	0.000348016	0	5	0	
0.0578333	-0.0474038	0.0162589	0.000858804	0.000420341	0	5	0	
0.058	0.0473642	-0.0206451	0.000907485	0.000446291	0	5	0	
0.0581667	-0.0387293	0.0219285	0.000910066	0.000472194	0	5	0	
0.0583333	0.0319407	-0.0253796	0.000857784	0.000495882	0	5	0	
0.0585	-0.0312112	0.0250862	0.000741548	0.000516637	0	5	0	
0.0586667	0.0367547	-0.0236762	0.000671959	0.000507502	0	5	0	
0.0588333	-0.0462763	0.0223848	0.000684027	0.000476526	0	5	0	
0.059	0.0492805	-0.0211938	0.000782203	0.000435982	0	5	0	
0.0591667	-0.0438982	0.0185701	0.000865385	0.000402763	0	5	0	
0.0593333	0.0440112	-0.020578	0.000897785	0.000398841	0	5	0	
0.0595	-0.0455821	0.0153764	0.000872898	0.000381907	0	5	0	
0.0596667	0.0480672	-0.0155681	0.000869936	0.000355754	0	5	0	
0.0598333	-0.0459294	0.0176805	0.000872063	0.000314387	0	5	0	
0.06	0.042939	-0.0220545	0.000882531	0.000328756	0	5	0	
0.0601667	-0.0458003	0.0238272	0.000865405	0.000375933	0	5	0	
0.0603333	0.0372101	-0.028606	0.00084349	0.00047255	0	5	0	
0.0605	-0.0301107	0.0280329	0.000766484	0.000543692	0	5	0	
0.0606667	0.0355955	-0.02504	0.000698628	0.000577823	0	5	0	
0.0608333	-0.0410978	0.0234773	0.000676956	0.000543778	0	5	0	
0.061	0.0433167	-0.0268056	0.000727963	0.000495166	0	5	0	
0.0611667	-0.0441019	0.0248541	0.000785709	0.000475519	0	5	0	
0.0613333	0.0381543	-0.0255529	0.000803824	0.000474564	0	5	0	
0.0615	-0.0337112	0.0279491	0.000764285	0.000504402	0	5	0	
0.0616667	0.0374199	-0.017858	0.000726373	0.000518878	0	5	0	
0.0618333	-0.0381174	0.0164402	0.00069643	0.000517464	0	5	0	
0.062	0.0443998	-0.0156115	0.000720157	0.000489772	0	5	0	
0.0621667	-0.0418155	0.0217171	0.000775283	0.000469279	0	5	0	
0.0623333	0.0365168	-0.0241459	0.000780469	0.000471164	0	5	0	
0.0625	-0.0397255	0.018085	0.000770656	0.00044746	0	5	0	
0.0626667	0.0443291	-0.00467685	0.000746508	0.000349476	0	5	0	
0.0628333	-0.0400231	0.00215076	0.000764751	0.000256673	0	5	0	
0.063	0.0394003	0.00390753	0.00078869	0.000180477	0	5	0	
0.0631667	-0.0397477	0.0022554	0.000789836	0.000155619	0	5	0	
0.0633333	0.0411726	-0.00924105	0.00076845	0.000134154	0	5	0	
0.0635	-0.0455411	0.0166919	0.000777752	0.0001473	0	5	0	
0.0636667	0.0455368	-0.024502	0.000800517	0.000245535	0	5	0	
0.0638333	-0.0489617	0.0199518	0.000841593	0.000379398	0	5	0	
0.064	0.0345735	-0.0103822	0.000860581	0.000478878	0	5	0	
0.0641667	-0.0175519	-0.00082594	0.00071858	0.000450693	0	5	0	
0.0643333	0.0214901	0.00568235	0.00055948	0.000290415	0	5	0	
0.0645	-0.028885	0.00239534	0.000463516	0.00015949	0	5	0	
0.0646667	0.0350654	-0.0112472	0.000529884	0.000135203	0	5	0	
0.0648333	-0.0205917	0.0131334	0.00059515	0.000228104	0	5	0	
0.065	-0.0165087	-0.000330775	0.000545528	0.000247745	0	5	0	
0.0651667	-0.0147878	0.00381501	0.000510117	0.000243039	0	5	0	
0.0653333	0.0141276	-0.0123988	0.000496248	0.000254176	0	5	0	
0.0655	-0.0148115	0.0323162	0.00044254	0.000408111	0	5	0	
0.0656667	0.0350889	-0.0428385	0.000430723	0.000613706	0	5	0	
0.0658333	-0.0423842	0.0461441	0.000493788	0.000803915	0	5	0	
0.066	0.0347578	-0.0383419	0.000631013	0.000898193	0	5	0	
0.0661667	-0.0606352	0.0323851	0.000964689	0.000953092	0	5	0	
0.0663333	0.0344231	-0.0144932	0.00112593	0.000795624	0	5	0	
0.0665	-0.0329676	0.0136066	0.00112448	0.000630781	0	5	0	
0.0666667	0.0381266	-0.0178278	0.000890244	0.000548005	0	5	0	
0.0668333	-0.0325672	0.0214871	0.000715054	0.00068886	0	5	0	
0.067	0.0203131	-0.020263	0.000678108	0.000811375	0	5	0	
0.0671667	0.0166052	-0.00784169	0.000516977	0.000741557	0	5	0	
0.0673333	-0.0576278	0.034463	0.000598841	0.000680471	0	5	0	
0.0675	-0.0102188	-0.0248723	0.000619212	0.000708388	0	5	0	
0.0676667	0.0614889	-0.0136364	0.000876167	0.000759508	0	5	0	
0.0678333	-0.0688505	0.0319025	0.00096897	0.000663269	0	5	0	
0.068	0.0486023	-0.0273074	0.00113379	0.0005685	0	5	0	
0.0681667	-0.0353172	0.0204581	0.00105548	0.000487727	0	5	0	
0.0683333	0.0219451	-0.00712179	0.000923343	0.000456552	0	5	0	
0.0685	-0.0462931	-0.0154544	0.00103783	0.000488726	0	5	0	
0.0686667	0.0332123	0.0222793	0.00115801	0.000506068	0	5	0	
0.0688333	-0.0320441	-0.00861597	0.00108796	0.000534647	0	5	0	
0.069	0.0476801	0.00643783	0.00084202	0.000489577	0	5	0	
0.0691667	-0.0433848	0.00131727	0.000768787	0.000381287	0	5	0	
0.0693333	0.0471216	-0.0105899	0.000895239	0.000282306	0	5	0	
0.0695	-0.0680722	0.0192151	0.00102469	0.00017803	0	5	0	
0.0696667	0.0741841	-0.0218749	0.00112769	0.000290685	0	5	0	
0.0698333	-0.0577061	0.0159798	0.00121274	0.000509704	0	5	0	
0.07	0.0319264	-0.00836515	0.0012116	0.000688919	0	5	0	
0.0701667	0.00626267	0.0170061	0.000946882	0.000767554	0	5	0	
0.0703333	-0.00239882	-0.0190484	0.000623052	0.000689564	0	5	0	
0.0705	-0.0372012	0.0296688	0.00057653	0.000581924	0	5	0	
0.0706667	0.0629593	-0.04458	0.000878363	0.000575775	0	5	0	
0.0708333	-0.0776354	0.0422362	0.00124127	0.000674433	0	5	0	
0.071	0.0689169	-0.0276055	0.00136009	0.000732164	0	5	0	
0.0711667	-0.0442354	0.0226809	0.00124599	0.000638085	0	5	0	
0.0713333	0.0295208	-0.0225804	0.00105208	0.000510657	0	5	0	
0.0715	-0.0276194	0.0197732	0.000789097	0.000443805	0	5	0	
0.0716667	0.0371666	-0.0251853	0.000648399	0.000445262	0	5	0	
0.0718333	-0.0444951	0.0234328	0.000649063	0.000456453	0	5	0	
0.072	0.0474405	-0.021199	0.000747391	0.000439784	0	5	0	
0.0721667	-0.0440412	0.0279125	0.000810624	0.000434496	0	5	0	
0.0723333	0.0426291	-0.0361851	0.000826625	0.000477461	0	5	0	
0.0725	-0.0387056	0.0209821	0.000805108	0.000532478	0	5	0	
0.0726667	0.0390585	-0.0132344	0.000780146	0.000495988	0	5	0	
0.0728333	-0.0425057	0.0156405	0.000799376	0.000400043	0	5	0	
0.073	0.0445109	-0.0201537	0.000820744	0.000330229	0	5	0	
0.0731667	-0.0277647	0.0183168	0.000785262	0.000338831	0	5	0	
0.0733333	0.0194869	-0.0212065	0.000639262	0.000362704	0	5	0	
0.0735	-0.0458751	0.0273996	0.00056983	0.000461694	0	5	0	
0.0736667	0.0502876	-0.0304902	0.000674109	0.000531628	0	5	0	
0.0738333	-0.0436751	0.0224217	0.000824283	0.00055865	0	5	0	
0.074	0.0406222	-0.0186211	0.000861755	0.000467881	0	5	0	
0.0741667	-0.0413978	0.0274453	0.000799705	0.000440813	0	5	0	
0.0743333	0.0425965	-0.0300502	0.000759393	0.000465542	0	5	0	
0.0745	-0.0487003	0.0250822	0.000795045	0.000521515	0	5	0	
0.0746667	0.0338135	-0.0282301	0.000803139	0.000522859	0	5	0	
0.0748333	-0.0343329	0.0258416	0.00078763	0.000512322	0	5	0	
0.075	0.0423567	-0.0220131	0.000763407	0.000495374	0	5	0	
0.0751667	-0.0436524	0.026073	0.000797057	0.000518331	0	5	0	
0.0753333	0.038443	-0.0199082	0.000802196	0.000499916	0	5	0	
0.0755	-0.0396073	0.0179021	0.000806584	0.000457289	0	5	0	
0.0756667	0.0463862	-0.0254736	0.000811519	0.000422555	0	5	0	
0.0758333	-0.0562635	0.0246348	0.000910001	0.000469096	0	5	0	
0.076	0.0525105	-0.0171367	0.00096166	0.000459124	0	5	0	
0.0761667	-0.0248964	0.0106683	0.000912298	0.000390115	0	5	0	
0.0763333	0.0161071	-0.00940272	0.00072266	0.000273959	0	5	0	
0.0765	-0.0327234	0.0179255	0.0005965	0.000272747	0	5	0	
0.0766667	0.0373206	-0.0216096	0.000595641	0.00032083	0	5	0	
0.0768333	-0.045519	0.0169174	0.00070193	0.000347834	0	5	0	
0.077	0.0524332	-0.0192332	0.000811908	0.000345761	0	5	0	
0.0771667	-0.0475578	0.0260024	0.000869436	0.000353692	0	5	0	
0.0773333	0.0441995	-0.0327041	0.000899625	0.000445805	0	5	0	
0.0775	-0.0419601	0.0272412	0.000862073	0.000505296	0	5	0	
0.0776667	0.0399776	-0.0237013	0.000814504	0.000545434	0	5	0	
0.0778333	-0.0397119	0.0154468	0.000764093	0.000450175	0	5	0	
0.078	0.0366275	-0.0172188	0.000753791	0.000388924	0	5	0	
0.0781667	-0.0316889	0.0163131	0.000707045	0.000318106	0	5	0	
0.0783333	0.0340273	-0.0205743	0.000676349	0.000367124	0	5	0	
0.0785	-0.0356896	0.0262209	0.000654916	0.00046644	0	5	0	
0.0786667	0.0387219	-0.027479	0.000690521	0.000581149	0	5	0	
0.0788333	-0.0387421	0.0211199	0.00071421	0.000588828	0	5	0	
0.079	0.0366238	-0.0212814	0.000721405	0.000526795	0	5	0	
0.0791667	-0.0316256	0.0202595	0.000670611	0.000439533	0	5	0	
0.0793333	0.0340095	-0.0160581	0.000653005	0.000403002	0	5	0	
0.0795	-0.0384141	0.0131523	0.000679	0.000358711	0	5	0	
0.0796667	0.0403423	-0.0125665	0.000759076	0.00032197	0	5	0	
0.0798333	-0.0433198	0.0160807	0.000817474	0.000278138	0	5	0	
0.08	0.0403643	-0.00898921	0.000810329	0.000278651	0	5	0	
0.0801667	-0.0361801	0.00761699	0.00075482	0.000236428	0	5	0	
0.0803333	0.0326028	-0.00811707	0.000709419	0.000231523	0	5	0	
0.0805	-0.0362911	0.0144378	0.000688106	0.000230642	0	5	0	
0.0806667	0.0322432	-0.0169954	0.000695095	0.000287623	0	5	0	
0.0808333	-0.0300096	0.0174829	0.000675445	0.000319694	0	5	0	
0.081	0.0330066	-0.0115136	0.000647107	0.000337039	0	5	0	
0.0811667	-0.0390844	0.0120357	0.000651881	0.00030379	0	5	0	
0.0813333	0.0391547	-0.0157755	0.000697411	0.000275423	0	5	0	
0.0815	-0.0420961	0.0187776	0.000740519	0.000272824	0	5	0	
0.0816667	0.043287	-0.0197843	0.000784367	0.000308532	0	5	0	
0.0818333	-0.0422558	0.0193867	0.00080752	0.000346917	0	5	0	
0.082	0.0412165	-0.017419	0.00081365	0.000355038	0	5	0	
0.0821667	-0.0393109	0.0160045	0.000785495	0.000342273	0	5	0	
0.0823333	0.0377078	-0.0182479	0.000748329	0.000325078	0	5	0	
0.0825	-0.0403786	0.0150496	0.00074282	0.000340688	0	5	0	
0.0826667	0.0370148	-0.0139043	0.000756832	0.000345704	0	5	0	
0.0828333	-0.034843	0.0155027	0.000765464	0.000350339	0	5	0	
0.083	0.0410282	-0.0228228	0.000765537	0.000345429	0	5	0	
0.0831667	-0.0446144	0.0196042	0.000783816	0.000383201	0	5	0	
0.0833333	0.0456407	-0.016566	0.000841248	0.000384079	0	5	0	
0.0835	-0.0454169	0.0135754	0.000892007	0.000360098	0	5	0	
0.0836667	0.0419433	-0.0171329	0.000898461	0.000308292	0	5	0	
0.0838333	-0.0387457	0.0225593	0.00085681	0.000319615	0	5	0	
0.084	0.0371685	-0.0234308	0.000807402	0.000377742	0	5	0	
0.0841667	-0.0361606	0.0158522	0.000769098	0.000428545	0	5	0	
0.0843333	0.0363015	-0.0150396	0.000771449	0.000416609	0	5	0	
0.0845	-0.0375265	0.0170232	0.00078622	0.000351324	0	5	0	
0.0846667	0.0385357	-0.0163695	0.00080149	0.000324531	0	5	0	
0.0848333	-0.0388327	0.016139	0.000787122	0.000318343	0	5	0	
0.085	0.0361798	-0.0148673	0.000757376	0.000350717	0	5	0	
0.0851667	-0.0365521	0.0163323	0.000713987	0.000345903	0	5	0	
0.0853333	0.0345294	-0.0161048	0.000706247	0.000365698	0	5	0	
0.0855	-0.0343069	0.0170601	0.00072788	0.000346669	0	5	0	
0.0856667	0.0393036	-0.0187294	0.000795043	0.00037463	0	5	0	
0.0858333	-0.0495019	0.0195855	0.000872219	0.000389697	0	5	0	
0.086	0.0514361	-0.0170801	0.000948514	0.000406102	0	5	0	
0.0861667	-0.0443743	0.0127971	0.000945059	0.000363147	0	5	0	
0.0863333	0.0298779	-0.00550696	0.000856177	0.000294745	0	5	0	
0.0865	-0.0188358	-0.00240707	0.000675196	0.00019218	0	5	0	
0.0866667	0.0262215	0.00267562	0.000569207	0.000142551	0	5	0	
0.0868333	-0.0364101	0.00409289	0.000574817	0.000185054	0	5	0	
0.087	0.0352527	-0.0172855	0.000668891	0.000288987	0	5	0	
0.0871667	-0.034369	0.0202737	0.000736648	0.000390328	0	5	0	
0.0873333	0.0467341	-0.0210789	0.000801164	0.000409263	0	5	0	
0.0875	-0.0545555	0.0223277	0.000868496	0.000410813	0	5	0	
0.0876667	0.0486547	-0.0195897	0.000936309	0.000391211	0	5	0	
0.0878333	-0.0476825	0.0147843	0.000944087	0.000365451	0	5	0	
0.088	0.052346	-0.0133055	0.000962949	0.000321741	0	5	0	
0.0881667	-0.0399581	0.00811666	0.000928265	0.000262707	0	5	0	
0.0883333	0.026502	-0.00494943	0.00082113	0.000205843	0	5	0	
0.0885	-0.0336677	0.0108015	0.000736981	0.000233358	0	5	0	
0.0886667	0.0446983	-0.0120416	0.000803256	0.000301299	0	5	0	
0.0888333	-0.049542	0.00702465	0.000939912	0.000352081	0	5	0	
0.089	0.0413067	-0.0125625	0.00101236	0.000330816	0	5	0	
0.0891667	-0.036704	0.026523	0.000937226	0.000329964	0	5	0	
0.0893333	0.033946	-0.0251417	0.000848418	0.000412219	0	5	0	
0.0895	-0.0293041	0.0142567	0.000756875	0.000438333	0	5	0	
0.0896667	0.025768	-0.00893294	0.000696217	0.00036861	0	5	0	
0.0898333	-0.0322492	0.00851181	0.000671355	0.000250463	0	5	0	
0.09	0.036689	-0.0151804	0.000706711	0.000221465	0	5	0	
0.0901667	-0.0397093	0.0181926	0.000760605	0.000291386	0	5	0	
0.0903333	0.0365946	-0.0178794	0.000800386	0.000391288	0	5	0	
0.0905	-0.0384357	0.0181792	0.000800767	0.00044852	0	5	0	
0.0906667	0.0394488	-0.021643	0.000813578	0.000449453	0	5	0	
0.0908333	-0.0375201	0.0160831	0.000808137	0.000406513	0	5	0	
0.091	0.0270593	-0.0035258	0.000753946	0.000325254	0	5	0	
0.0911667	-0.027119	-0.00527326	0.00066282	0.000224047	0	5	0	
0.0913333	0.0326092	0.000435616	0.000658446	0.000211925	0	5	0	
0.0915	-0.0372108	0.0100383	0.0007418	0.000300026	0	5	0	
0.0916667	0.0385571	-0.0172548	0.000826694	0.000395855	0	5	0	
0.0918333	-0.0349772	0.0135354	0.000833187	0.000402949	0	5	0	
0.092	0.0341313	-0.0121326	0.000785074	0.00033788	0	5	0	
0.0921667	-0.0387714	0.0132318	0.000772314	0.000297188	0	5	0	
0.0923333	0.0375771	-0.0164647	0.000793337	0.000287709	0	5	0	
0.0925	-0.0322149	0.0187283	0.000802061	0.000324872	0	5	0	
0.0926667	0.0308342	-0.0150306	0.000768255	0.000339287	0	5	0	
0.0928333	-0.0315645	0.00568077	0.000755384	0.000318879	0	5	0	
0.093	0.0438281	-0.0071825	0.000832768	0.000320926	0	5	0	
0.0931667	-0.0539384	0.0158667	0.000969428	0.000378709	0	5	0	
0.0933333	0.0431645	-0.00760348	0.00100626	0.000375304	0	5	0	
0.0935	-0.0248697	-0.00826913	0.000880944	0.000276417	0	5	0	
0.0936667	0.0198411	0.0022563	0.000679279	0.000229205	0	5	0	
0.0938333	-0.0258815	0.0140536	0.00060328	0.000324442	0	5	0	
0.094	0.0288182	-0.0124194	0.000673372	0.000389798	0	5	0	
0.0941667	-0.0373783	0.00900852	0.000841757	0.00033354	0	5	0	
0.0943333	0.0500131	-0.0224982	0.001009	0.000266928	0	5	0	
0.0945	-0.0545241	0.0285083	0.00109602	0.000326916	0	5	0	
0.0946667	0.0373484	-0.0136977	0.00104132	0.000418229	0	5	0	
0.0948333	-0.0128271	0.00159073	0.000802295	0.000381067	0	5	0	
0.095	0.00947797	-0.00388843	0.000595993	0.000285896	0	5	0	
0.0951667	-0.0275434	0.0099109	0.00063154	0.000272326	0	5	0	
0.0953333	0.0425796	-0.0214828	0.000845831	0.000352833	0	5	0	
0.0955	-0.0452525	0.021385	0.00101207	0.000448462	0	5	0	
0.0956667	0.0384711	-0.014588	0.00097771	0.00042765	0	5	0	
0.0958333	-0.0326265	0.0127975	0.000849066	0.000368189	0	5	0	
0.096	0.0293336	-0.0175734	0.000754882	0.000333427	0	5	0	
0.0961667	-0.0255425	0.0195316	0.000692877	0.000336447	0	5	0	
0.0963333	0.0257612	-0.02309	0.000683721	0.000375184	0	5	0	
0.0965	-0.0298891	0.0200019	0.000710131	0.000403515	0	5	0	
0.0966667	0.032727	-0.0171923	0.000763853	0.000414519	0	5	0	
0.0968333	-0.031558	0.0164745	0.000802416	0.000401867	0	5	0	
0.097	0.0306846	-0.0162802	0.000807871	0.000379509	0	5	0	
0.0971667	-0.0275278	0.0162137	0.000791913	0.000402051	0	5	0	
0.0973333	0.0286761	-0.0168109	0.000753678	0.000459792	0	5	0	
0.0975	-0.027429	0.0143008	0.000726112	0.000535106	0	5	0	
0.0976667	0.029731	-0.0117239	0.000706654	0.000559346	0	5	0	
0.0978333	-0.0291296	0.0132901	0.000723852	0.000533306	0	5	0	
0.098	0.0301636	-0.0120425	0.000737264	0.000477909	0	5	0	
0.0981667	-0.0275397	0.0088701	0.000757168	0.000455458	0	5	0	
0.0983333	0.0301624	-0.0046254	0.000746589	0.000465074	0	5	0	
0.0985	-0.0296049	0.00100104	0.000748641	0.00046782	0	5	0	
0.0986667	0.0312908	0.000553256	0.000732582	0.000428512	0	5	0	
0.0988333	-0.0313144	0.00280098	0.000747526	0.000369227	0	5	0	
0.099	0.0313945	-0.00370275	0.000759693	0.000327349	0	5	0	
0.0991667	-0.029484	0.00496787	0.000788207	0.000308626	0	5	0	
0.0993333	0.0301343	-0.00543916	0.000793901	0.000297062	0	5	0	
0.0995	-0.0315279	0.00360035	0.000800244	0.00028503	0	5	0	
0.0996667	0.031525	-0.011543	0.000793507	0.000270406	0	5	0	
0.0998333	-0.0325803	0.0197248	0.00079648	0.000282804	0	5	0	
0.1	0.0295619	-0.0195647	0.000784777	0.000312746	0	5	0	
0.100167	-0.0261135	0.0172754	0.000763125	0.000347583	0	5	0	
0.100333	0.0239616	-0.0141881	0.000734804	0.000346188	0	5	0	
0.1005	-0.0278207	0.0134622	0.00074457	0.000326871	0	5	0	
0.100667	0.0319912	-0.0170255	0.000797203	0.000317977	0	5	0	
0.100833	-0.0364251	0.0210258	0.000854503	0.000358698	0	5	0	
0.101	0.0349924	-0.0242514	0.000875047	0.000427164	0	5	0	
0.101167	-0.0319309	0.0287568	0.000859122	0.000518211	0	5	0	
0.101333	0.0261781	-0.0284256	0.00082002	0.000586275	0	5	0	
0.1015	-0.0252658	0.0255309	0.000772409	0.00062214	0	5	0	
0.101667	0.0271667	-0.0223252	0.000751421	0.000610492	0	5	0	
0.101833	-0.0319757	0.0209796	0.000774394	0.000575363	0	5	0	
0.102	0.0316947	-0.023364	0.000818634	0.000532807	0	5	0	
0.102167	-0.0251954	0.0248851	0.000823374	0.000529937	0	5	0	
0.102333	0.0192557	-0.0199756	0.000779571	0.000544149	0	5	0	
0.1025	-0.0218027	0.0131106	0.000740836	0.000559828	0	5	0	
0.102667	0.0269465	-0.0091602	0.000749727	0.000537297	0	5	0	
0.102833	-0.0273933	0.00599737	0.000782407	0.00049541	0	5	0	
0.103	0.0267459	-0.00401968	0.00078786	0.000430107	0	5	0	
0.103167	-0.0248286	0.00478689	0.000766731	0.000364481	0	5	0	
0.103333	0.0271557	-0.00158125	0.000752327	0.000337352	0	5	0	
0.1035	-0.0284234	0.00463012	0.000763313	0.000373411	0	5	0	
0.103667	0.0287656	-0.0120018	0.000768254	0.00043311	0	5	0	
0.103833	-0.0295404	0.0164143	0.000770932	0.000455882	0	5	0	
0.104	0.0288712	-0.0199489	0.000755541	0.000425791	0	5	0	
0.104167	-0.0222849	0.0233175	0.000740909	0.00040433	0	5	0	
0.104333	0.0201424	-0.0200007	0.000725765	0.000404017	0	5	0	
0.1045	-0.0229914	0.0161252	0.000757109	0.000408566	0	5	0	
0.104667	0.0282972	-0.013415	0.000809018	0.00038875	0	5	0	
0.104833	-0.0299503	0.00873579	0.00085141	0.000364506	0	5	0	
0.105	0.0252197	-0.0101288	0.000832326	0.000372245	0	5	0	
0.105167	-0.0228908	0.014535	0.000782181	0.000432909	0	5	0	
0.105333	0.0207541	-0.0185553	0.000742072	0.000519749	0	5	0	
0.1055	-0.0251101	0.017736	0.00075472	0.000583616	0	5	0	
0.105667	0.0312119	-0.0198931	0.000817142	0.000588124	0	5	0	
0.105833	-0.0314729	0.0219278	0.0008767	0.000576168	0	5	0	
0.106	0.029274	-0.0225079	0.000872383	0.000566886	0	5	0	
0.106167	-0.0237284	0.0144693	0.000805146	0.00054751	0	5	0	
0.106333	0.0183101	-0.00950687	0.000726142	0.000499234	0	5	0	
0.1065	-0.0181544	0.00660529	0.000699142	0.000446039	0	5	0	
0.106667	0.0214792	-0.00101235	0.000730214	0.000383099	0	5	0	
0.106833	-0.0250386	-0.0072655	0.000790854	0.000350742	0	5	0	
0.107	0.0265388	0.000164469	0.000825612	0.000411633	0	5	0	
0.107167	-0.0184644	0.0181651	0.000806855	0.000557186	0	5	0	
0.107333	0.0136838	-0.0308403	0.000766834	0.000671058	0	5	0	
0.1075	-0.0214692	0.0338486	0.000823457	0.000692409	0	5	0	
0.107667	0.0390128	-0.0342713	0.000979742	0.000662194	0	5	0	
0.107833	-0.0447478	0.0281796	0.00112459	0.000635465	0	5	0	
0.108	0.0327877	-0.0124428	0.001101	0.00056461	0	5	0	
0.108167	-0.0162506	0.00533832	0.00088721	0.000440301	0	5	0	
0.108333	0.00733403	-0.00132205	0.000594465	0.000378021	0	5	0	
0.1085	0.00732546	0.00282398	0.000394811	0.000384595	0	5	0	
0.108667	-0.0043665	0.00011054	0.000485373	0.000529888	0	5	0	
0.108833	-0.0207951	0.00713176	0.000853534	0.000721755	0	5	0	
0.109	0.0339971	-0.0131221	0.00119636	0.000861609	0	5	0	
0.109167	-0.030749	0.0115673	0.00122836	0.000833369	0	5	0	
0.109333	0.0287679	-0.0107703	0.000999171	0.000688218	0	5	0	
0.1095	-0.0214644	0.0148446	0.000773242	0.000578825	0	5	0	
0.109667	0.0109847	-0.00331676	0.000641451	0.000510727	0	5	0	
0.109833	-0.00722565	-0.0056155	0.000591329	0.000415371	0	5	0	
0.11	0.00927561	0.00220346	0.000601322	0.000370151	0	5	0	
0.110167	-0.016878	0.00264926	0.000676292	0.000437497	0	5	0	
0.110333	0.018813	0.00176427	0.000740375	0.000545599	0	5	0	
0.1105	-0.0194716	-0.0119471	0.000733213	0.000553003	0	5	0	
0.110667	0.0156202	0.0156657	0.000712842	0.000464851	0	5	0	
0.110833	-0.0204877	-0.0122772	0.000731869	0.000390169	0	5	0	
0.111	0.0275506	0.0125592	0.000795767	0.000401905	0	5	0	
0.111167	-0.0261328	-0.00921475	0.00083827	0.000412579	0	5	0	
0.111333	0.0200131	0.0107719	0.000804565	0.000371599	0	5	0	
0.1115	-0.0196359	-0.0097172	0.000745595	0.000292483	0	5	0	
0.111667	0.0188952	0.00147616	0.00073389	0.000200834	0	5	0	
0.111833	-0.0181038	0.00661554	0.00076828	0.000167876	0	5	0	
0.112	0.015777	-0.00898755	0.000790145	0.00016322	0	5	0	
0.112167	-0.0183631	0.012657	0.000781668	0.00020289	0	5	0	
0.112333	0.0242007	-0.0134046	0.000789389	0.000267145	0	5	0	
0.1125	-0.0254854	0.0184611	0.000801618	0.000314018	0	5	0	
0.112667	0.0145722	-0.0252636	0.000755057	0.000387365	0	5	0	
0.112833	-0.00696828	0.0210892	0.000666737	0.000425932	0	5	0	
0.113	0.0119837	-0.0115877	0.000655809	0.000426669	0	5	0	
0.113167	-0.0255652	0.0072956	0.000760794	0.000397914	0	5	0	
0.113333	0.0327725	-0.0107584	0.000883165	0.000438757	0	5	0	
0.1135	-0.0275897	0.0154904	0.00087014	0.000482416	0	5	0	
0.113667	0.00730413	-0.0118361	0.000720451	0.000509617	0	5	0	
0.113833	-0.00225773	0.0174685	0.00060967	0.000553253	0	5	0	
0.114	0.0105488	-0.0301871	0.000677746	0.00069658	0	5	0	
0.114167	-0.016342	0.0187208	0.000830214	0.00076958	0	5	0	
0.114333	0.0244542	0.0025822	0.000962645	0.000634786	0	5	0	
0.1145	-0.0406718	-0.00055702	0.00103578	0.000470157	0	5	0	
0.114667	0.0364698	-0.0090441	0.00105765	0.000389051	0	5	0	
0.114833	-0.0123624	-0.00605761	0.000892228	0.000339257	0	5	0	
0.115	-0.00350386	0.018661	0.000585337	0.000296279	0	5	0	
0.115167	0.00150261	-0.01236	0.000461562	0.000346959	0	5	0	
0.115333	0.0143784	0.00216948	0.000626796	0.000472783	0	5	0	
0.1155	-0.0244834	0.00450495	0.000878646	0.000485275	0	5	0	
0.115667	0.0228274	-0.0187986	0.000949686	0.000381168	0	5	0	
0.115833	-0.0141223	0.0192964	0.000854873	0.000328462	0	5	0	
0.116	0.0110699	-0.0128138	0.000758651	0.000324495	0	5	0	
0.116167	-0.0128635	0.0111556	0.000732928	0.000319192	0	5	0	
0.116333	0.0159536	-0.0128645	0.000761307	0.000300723	0	5	0	
0.1165	-0.0186247	0.0159764	0.00079694	0.000296169	0	5	0	
0.116667	0.017867	-0.0189737	0.000830886	0.000349553	0	5	0	
0.116833	-0.0153852	0.0224251	0.000868904	0.000429388	0	5	0	
0.117	0.012658	-0.0185323	0.000869842	0.000538005	0	5	0	
0.117167	-0.0134048	0.0115981	0.000809	0.000595767	0	5	0	
0.117333	0.01161	-0.00635073	0.000747863	0.000590828	0	5	0	
0.1175	-0.0136859	0.00687885	0.000745608	0.000547647	0	5	0	
0.117667	0.0133393	-0.00690676	0.000795193	0.000510489	0	5	0	
0.117833	-0.014805	0.00769338	0.000826722	0.000476878	0	5	0	
0.118	0.0126515	-0.00436716	0.000807651	0.000447875	0	5	0	
0.118167	-0.0121034	0.000447626	0.000749481	0.000410162	0	5	0	
0.118333	0.0103334	-0.000501591	0.00071397	0.000366809	0	5	0	
0.1185	-0.0139106	0.00702305	0.000726232	0.000336336	0	5	0	
0.118667	0.0130363	-0.012343	0.00077179	0.000345767	0	5	0	
0.118833	-0.0136362	0.0112037	0.000801058	0.000372045	0	5	0	
0.119	0.0123854	-0.00935199	0.000824941	0.000381187	0	5	0	
0.119167	-0.0157341	0.0105321	0.000846595	0.000381296	0	5	0	
0.119333	0.0145838	-0.0140334	0.000852105	0.000395138	0	5	0	
0.1195	-0.0111836	0.0139354	0.000798587	0.000429438	0	5	0	
0.119667	0.0030747	-0.00741187	0.000727594	0.000458952	0	5	0	
0.119833	-0.00740026	0.00195095	0.000704886	0.000468445	0	5	0	
0.12	0.00873849	-0.00176329	0.00075318	0.00046426	0	5	0	
0.120167	-0.0123184	0.0064753	0.000816262	0.000442865	0	5	0	
0.120333	0.0121891	-0.00688625	0.000851964	0.000422228	0	5	0	
0.1205	-0.0140108	0.00816413	0.000846813	0.000419958	0	5	0	
0.120667	0.0140989	-0.00731989	0.000814741	0.000438023	0	5	0	
0.120833	-0.0148265	0.00780494	0.000784171	0.000458855	0	5	0	
0.121	0.0140599	-0.00294209	0.000782599	0.000456816	0	5	0	
0.121167	-0.0131742	0.0066103	0.000798343	0.000414906	0	5	0	
0.121333	0.00864527	-0.00263721	0.000789286	0.000349103	0	5	0	
0.1215	-0.00907211	0.000374019	0.000756533	0.000293441	0	5	0	
0.121667	0.0107585	0.00566013	0.000742016	0.000298077	0	5	0	
0.121833	-0.00851204	-0.00417076	0.000759737	0.000333574	0	5	0	
0.122	0.00887931	0.00601499	0.00077495	0.000378123	0	5	0	
0.122167	-0.00819516	0.00105955	0.000782011	0.000399586	0	5	0	
0.122333	0.0102481	-0.00611899	0.00079944	0.000415184	0	5	0	
0.1225	-0.0129591	0.0176855	0.000830117	0.000403567	0	5	0	
0.122667	0.0108021	-0.0125523	0.000843035	0.000390218	0	5	0	
0.122833	-0.00880642	0.0203734	0.00083391	0.000368549	0	5	0	
0.123	0.012502	-0.0141775	0.000821728	0.000376305	0	5	0	
0.123167	-0.0113517	0.00403211	0.000817759	0.000354899	0	5	0	
0.123333	0.0115212	0.00139644	0.000814297	0.000323251	0	5	0	
0.1235	-0.00967402	0.00697498	0.00081922	0.000320519	0	5	0	
0.123667	0.00993154	-0.00909009	0.000819876	0.000386872	0	5	0	
0.123833	-0.00954501	0.0129101	0.000810741	0.000479037	0	5	0	
0.124	0.0107083	-0.00620768	0.000783337	0.000530245	0	5	0	
0.124167	-0.00777431	0.00600955	0.000756798	0.000505533	0	5	0	
0.124333	0.00501901	-0.00620002	0.000736793	0.000442564	0	5	0	
0.1245	9.75328E-05	0.00261069	0.000741833	0.00037801	0	5	0	
0.124667	0.00408706	-0.00521899	0.000784881	0.000371671	0	5	0	
0.124833	-0.00729004	0.00887389	0.000852563	0.00042346	0	5	0	
0.125	0.00845171	-0.00556854	0.000887497	0.000466722	0	5	0	
0.125167	-0.00764449	0.00548102	0.000863219	0.000435871	0	5	0	
0.125333	0.00826821	-0.00858935	0.000815919	0.000375893	0	5	0	
0.1255	-0.00689569	0.00857686	0.000786422	0.000350569	0	5	0	
0.125667	0.00513579	-0.00817331	0.000771805	0.000371078	0	5	0	
0.125833	-0.00441382	0.00181071	0.00076627	0.000398177	0	5	0	
0.126	0.00620936	-0.00216948	0.000780644	0.000434329	0	5	0	
0.126167	-0.00636992	0.00684528	0.000810974	0.000476656	0	5	0	
0.126333	0.00109875	-0.0080719	0.00082211	0.00048688	0	5	0	
0.1265	-0.000266177	0.00418683	0.000806367	0.000455797	0	5	0	
0.126667	0.00284015	0.00424292	0.000801452	0.000412495	0	5	0	
0.126833	-0.0105164	-0.0127613	0.000832041	0.000380055	0	5	0	
0.127	0.011692	0.0237729	0.000876242	0.000386368	0	5	0	
0.127167	-0.00861409	-0.0220508	0.000870235	0.000447869	0	5	0	
0.127333	0.00419056	0.0140272	0.000781987	0.000555659	0	5	0	
0.1275	0.00148374	-0.000457597	0.000658189	0.000636532	0	5	0	
0.127667	-0.00577634	-0.00934449	0.000598224	0.000628139	0	5	0	
0.127833	0.00543866	0.0105003	0.00066082	0.000484778	0	5	0	
0.128	0.00222593	0.00609976	0.000838923	0.000298253	0	5	0	
0.128167	-0.0173724	-0.00297965	0.00104757	0.000140628	0	5	0	
0.128333	0.026491	0.0052776	0.00114213	0.000141968	0	5	0	
0.1285	-0.0138695	-0.00397456	0.00102739	0.000169006	0	5	0	
0.128667	-0.00547695	0.00474952	0.0007421	0.000230147	0	5	0	
0.128833	0.0147864	0.00118919	0.000558592	0.000274517	0	5	0	
0.129	-0.0217644	0.00134072	0.00058364	0.000310255	0	5	0	
0.129167	0.0160627	-0.00113201	0.000784111	0.000314384	0	5	0	
0.129333	0.00327274	-0.000409935	0.00102276	0.000361704	0	5	0	
0.1295	-0.0275863	0.0125451	0.00116069	0.000482848	0	5	0	
0.129667	0.0244208	-0.0132684	0.00111197	0.000569339	0	5	0	
0.129833	-0.00395053	0.00776943	0.000843929	0.000512492	0	5	0	
0.13	-0.0098229	0.00536853	0.000560162	0.000364903	0	5	0	
0.130167	0.00609881	-0.0113092	0.000477667	0.000296086	0	5	0	
0.130333	-0.00461997	0.0153876	0.000598383	0.000375278	0	5	0	
0.1305	-0.00360526	-0.00750759	0.000804925	0.000530843	0	5	0	
0.130667	0.00903653	-0.000208302	0.000963924	0.000640327	0	5	0	
0.130833	-0.0108693	0.00616297	0.00101769	0.000617974	0	5	0	
0.131	0.0098895	0.000227622	0.000942324	0.000514631	0	5	0	
0.131167	-0.00395588	-0.00485926	0.000788418	0.000393433	0	5	0	
0.131333	-0.00300564	0.0134689	0.000671204	0.000344737	0	5	0	
0.1315	0.00843016	-0.00493588	0.000645886	0.000350316	0	5	0	
0.131667	-0.0106667	-0.00569692	0.000640316	0.000410724	0	5	0	
0.131833	0.0105435	0.00743721	0.000672764	0.000413292	0	5	0	
0.132	0.0196565	0.000936968	0.000951905	0.000364437	0	5	0	
0.132167	-0.0238816	-0.00653259	0.00153686	0.000327701	0	5	0	
0.132333	0.0481886	0.00836509	0.00198327	0.000375321	0	5	0	
0.1325	-0.0393394	0.00212639	0.00193737	0.000418053	0	5	0	
0.132667	0.0218779	-0.0106893	0.00143766	0.000404634	0	5	0	
0.132833	-0.0111267	0.00504759	0.000960103	0.000409016	0	5	0	
0.133	-0.0055537	-0.00482398	0.000705179	0.00047135	0	5	0	
0.133167	0.0552174	0.00419949	0.000803113	0.000476161	0	5	0	
0.133333	-0.0393692	0.00469755	0.00103971	0.0003364	0	5	0	
0.1335	0.0205332	-0.00377107	0.00130349	0.000217179	0	5	0	
0.133667	-0.00863087	-0.0101898	0.00136358	0.000296417	0	5	0	
0.133833	0.00620423	0.00808964	0.00123637	0.00049067	0	5	0	
0.134	-0.0133126	0.00261056	0.00104634	0.000560252	0	5	0	
0.134167	0.00497635	-0.00152788	0.000978555	0.000479454	0	5	0	
0.134333	0.0140759	-0.00609774	0.00111688	0.000444029	0	5	0	
0.1345	-0.0219968	0.0119125	0.00120072	0.000530402	0	5	0	
0.134667	0.0130023	-0.0127122	0.00105589	0.000593109	0	5	0	
0.134833	-0.000884598	0.00475155	0.000781417	0.000551412	0	5	0	
0.135	-0.00263113	0.00445385	0.000635314	0.000482822	0	5	0	
0.135167	-0.00365678	-0.00281329	0.00063714	0.000445131	0	5	0	
0.135333	0.000681218	0.00568054	0.000661919	0.00038457	0	5	0	
0.1355	0.00796759	-0.0127367	0.000641495	0.000331809	0	5	0	
0.135667	-0.0088453	0.0118317	0.0006594	0.000352275	0	5	0	
0.135833	0.00296924	-0.00891714	0.000772329	0.000480515	0	5	0	
0.136	-0.000967415	0.0039934	0.00088306	0.000588987	0	5	0	
0.136167	0.00344608	-0.00365595	0.000879184	0.000586267	0	5	0	
0.136333	-0.00404266	0.0041854	0.000798451	0.000496875	0	5	0	
0.1365	0.00272637	-0.00235452	0.000745571	0.000423365	0	5	0	
0.136667	-0.00341344	0.000410143	0.000744078	0.000386098	0	5	0	
0.136833	0.00699969	-0.00699754	0.000757521	0.000341637	0	5	0	
0.137	-0.00750822	0.00678828	0.000783853	0.00029221	0	5	0	
0.137167	-0.000840035	-0.005017	0.000810596	0.000284703	0	5	0	
0.137333	0.00233923	0.0051286	0.000791198	0.0003149	0	5	0	
0.1375	9.33932E-05	-0.00414581	0.000726163	0.000338577	0	5	0	
0.137667	-0.0027995	0.0048354	0.000687769	0.000347204	0	5	0	
0.137833	0.00786532	-0.00613701	0.000712313	0.000340523	0	5	0	
0.138	-0.00819531	0.00543216	0.000769364	0.00033783	0	5	0	
0.138167	0.00349352	-0.00246243	0.00082005	0.000342296	0	5	0	
0.138333	-0.0011502	0.00315793	0.000839818	0.000360371	0	5	0	
0.1385	0.000770551	-0.00442968	0.000813898	0.000370839	0	5	0	
0.138667	-0.00392547	0.00174095	0.000759219	0.000352847	0	5	0	
0.138833	0.00618049	-0.000116632	0.000727296	0.00031534	0	5	0	
0.139	-0.00390024	0.00297185	0.000750035	0.000280398	0	5	0	
0.139167	0.00441376	-0.000998884	0.000797617	0.000259322	0	5	0	
0.139333	-0.00256754	0.00164188	0.000817368	0.000272932	0	5	0	
0.1395	0.00403463	-0.00495101	0.000803097	0.000328477	0	5	0	
0.139667	-0.00379764	-0.00115353	0.000780795	0.000402777	0	5	0	
0.139833	0.00191798	0.00306435	0.000781203	0.000452168	0	5	0	
0.14	-0.00151173	-0.00207227	0.00079897	0.000446422	0	5	0	
0.140167	0.00561854	0.000161599	0.000812107	0.000406143	0	5	0	
0.140333	-0.00492725	0.00350447	0.000808145	0.000365265	0	5	0	
0.1405	0.00634902	-0.00569933	0.000801158	0.000349256	0	5	0	
0.140667	-0.00751609	0.00423126	0.000798218	0.00035684	0	5	0	
0.140833	0.00991287	-0.00650041	0.000803959	0.000389438	0	5	0	
0.141	-0.0104495	0.00709424	0.000818912	0.000440067	0	5	0	
0.141167	0.0106978	-0.00348419	0.000845859	0.000483374	0	5	0	
0.141333	-0.00461367	0.00398659	0.000859689	0.000472277	0	5	0	
0.1415	0.00530255	-0.00605063	0.000850197	0.000407546	0	5	0	
0.141667	-0.00965404	0.00622768	0.000809373	0.000349825	0	5	0	
0.141833	0.0103355	-0.00518282	0.00075638	0.00033891	0	5	0	
0.142	-0.00848708	0.00612384	0.000707329	0.000350088	0	5	0	
0.142167	0.00906209	-0.00366461	0.000679104	0.000334507	0	5	0	
0.142333	-0.00545028	0.00518736	0.000669865	0.000318137	0	5	0	
0.1425	0.00602678	-0.00558505	0.000696969	0.000326421	0	5	0	
0.142667	-0.00579957	0.00276608	0.000760185	0.000344551	0	5	0	
0.142833	0.00396147	-0.00460577	0.000836681	0.000347926	0	5	0	
0.143	-0.00326435	0.00894675	0.000873524	0.00036153	0	5	0	
0.143167	0.00712163	-0.00995804	0.000855499	0.000407151	0	5	0	
0.143333	-0.0071572	0.0100667	0.000795024	0.000458538	0	5	0	
0.1435	0.0121776	-0.0113671	0.000733492	0.000497457	0	5	0	
0.143667	-0.0168042	0.00505156	0.000708503	0.000493654	0	5	0	
0.143833	0.0177323	-0.00366102	0.000735038	0.000455842	0	5	0	
0.144	-0.0131338	0.00124319	0.000780874	0.0003811	0	5	0	
0.144167	0.0108785	-0.00450056	0.000823151	0.000330553	0	5	0	
0.144333	-0.00417218	0.00575582	0.000828183	0.00030082	0	5	0	
0.1445	0.00170412	-0.011619	0.000785297	0.000301344	0	5	0	
0.144667	-0.00363882	0.0106867	0.000704153	0.000309769	0	5	0	
0.144833	0.00812019	-0.00833452	0.000658425	0.000335095	0	5	0	
0.145	-0.00838637	0.00383663	0.000689084	0.00036171	0	5	0	
0.145167	0.00810549	-0.00573378	0.000785257	0.000395776	0	5	0	
0.145333	0.00013465	0.00902155	0.00086779	0.000401174	0	5	0	
0.1455	-0.000206062	-0.0186908	0.000856849	0.00039088	0	5	0	
0.145667	-0.00489969	0.0176851	0.000737025	0.000368383	0	5	0	
0.145833	0.0118751	-0.017155	0.000619067	0.000375038	0	5	0	
0.146	-0.0177864	0.0116391	0.000596253	0.000394923	0	5	0	
0.146167	0.0191499	-0.00237673	0.00065622	0.000420173	0	5	0	
0.146333	-0.0138311	-0.00483381	0.000729536	0.000447864	0	5	0	
0.1465	0.0142046	0.00208446	0.00081007	0.000401903	0	5	0	
0.146667	-0.00955581	0.000735728	0.000870968	0.00027805	0	5	0	
0.146833	0.000957249	-0.00602085	0.000925553	0.000160763	0	5	0	
0.147	0.00203516	-0.00160983	0.000956193	8.69232E-05	0	5	0	
0.147167	-0.00316222	0.00342762	0.000915564	0.000120135	0	5	0	
0.147333	-0.00585517	0.0107543	0.000784099	0.000180463	0	5	0	
0.1475	0.0157792	-0.0111064	0.000669147	0.000303717	0	5	0	
0.147667	-0.0152448	0.00412876	0.000665444	0.000371851	0	5	0	
0.147833	0.0153058	-0.00410185	0.000723266	0.000364702	0	5	0	
0.148	-0.0228872	0.00172825	0.000777161	0.000345295	0	5	0	
0.148167	0.0173647	0.000310107	0.000821981	0.000409742	0	5	0	
0.148333	-0.00990626	0.0024867	0.000875738	0.000504178	0	5	0	
0.1485	0.00971297	0.00265308	0.00085001	0.000496391	0	5	0	
0.148667	-0.0147821	0.00121294	0.000770466	0.000374205	0	5	0	
0.148833	0.0160164	-0.00473982	0.000730907	0.000273286	0	5	0	
0.149	-0.0131259	0.0072066	0.000793856	0.000288212	0	5	0	
0.149167	0.0085889	-0.00456738	0.000867817	0.00034273	0	5	0	
0.149333	-0.0118602	0.00632549	0.000846221	0.000349255	0	5	0	
0.1495	0.0183235	-0.0033497	0.000766184	0.000305887	0	5	0	
0.149667	-0.0180359	0.00424846	0.000763219	0.000324981	0	5	0	
0.149833	0.00938247	-0.00271437	0.000856168	0.00041071	0	5	0	
0.15	-0.00955575	0.000928137	0.000916458	0.000501101	0	5	0	
0.150167	0.0145745	0.00527053	0.00086342	0.00052144	0	5	0	
0.150333	-0.0164729	-0.00271228	0.000765196	0.000495871	0	5	0	
0.1505	0.0156237	-0.00282542	0.000718197	0.000468166	0	5	0	
0.150667	-0.0188735	0.00904531	0.000741269	0.00046295	0	5	0	
0.150833	0.0208077	-0.00846913	0.000778097	0.000453404	0	5	0	
0.151	-0.0195337	0.00748146	0.000812847	0.000439032	0	5	0	
0.151167	0.0149787	-0.00826717	0.000857593	0.000430096	0	5	0	
0.151333	-0.00921701	0.011467	0.000886833	0.000456497	0	5	0	
0.1515	0.00962209	-0.0107288	0.000856347	0.000516178	0	5	0	
0.151667	-0.0174556	0.000724506	0.000773277	0.000546227	0	5	0	
0.151833	0.0235806	0.00687069	0.000703497	0.000504681	0	5	0	
0.152	-0.0240112	-0.000506999	0.000698402	0.000428773	0	5	0	
0.152167	0.0155799	0.00268121	0.000777131	0.000398994	0	5	0	
0.152333	-0.00585045	-0.0141521	0.000864315	0.00041924	0	5	0	
0.1525	0.00621149	0.0065191	0.000825631	0.00040766	0	5	0	
0.152667	-0.0184152	0.00585687	0.000684345	0.000332668	0	5	0	
0.152833	0.02185	-0.00265108	0.000587396	0.00031014	0	5	0	
0.153	-0.0180144	0.00407823	0.000640247	0.000367662	0	5	0	
0.153167	0.0171381	-0.00885923	0.000749769	0.000438028	0	5	0	
0.153333	-0.0156398	0.00786108	0.000811883	0.000453309	0	5	0	
0.1535	0.00824141	-0.00693558	0.000836798	0.000480255	0	5	0	
0.153667	-0.00455621	0.0123309	0.000847994	0.000533411	0	5	0	
0.153833	0.00875035	-0.00787983	0.000794222	0.00053043	0	5	0	
0.154	-0.0201889	0.00821521	0.000689728	0.000449942	0	5	0	
0.154167	0.0303495	-0.0094412	0.000649592	0.000382011	0	5	0	
0.154333	-0.0215232	0.00911694	0.000759753	0.000420587	0	5	0	
0.1545	0.012247	-0.0011529	0.000922087	0.000512532	0	5	0	
0.154667	-0.0118484	0.00404613	0.000928216	0.000526306	0	5	0	
0.154833	0.023337	-0.00554502	0.000826649	0.000401428	0	5	0	
0.155	-0.0211561	0.009596	0.000758581	0.000269106	0	5	0	
0.155167	0.0167544	-0.0111964	0.000797065	0.000250164	0	5	0	
0.155333	-0.0163168	0.0111218	0.000819762	0.000321483	0	5	0	
0.1555	0.022811	-0.0125426	0.000784039	0.000345863	0	5	0	
0.155667	-0.0200632	0.0132489	0.000731704	0.000340011	0	5	0	
0.155833	0.0245286	-0.0103609	0.000772539	0.000311606	0	5	0	
0.156	-0.0199654	0.00614091	0.000836626	0.000309784	0	5	0	
0.156167	0.0162711	-0.0057432	0.000897233	0.000296265	0	5	0	
0.156333	-0.0117197	-0.0014859	0.000893616	0.000344382	0	5	0	
0.1565	0.0145673	0.00808769	0.000853433	0.000419434	0	5	0	
0.156667	-0.0197377	-0.00418556	0.000769211	0.000430239	0	5	0	
0.156833	0.0377088	-0.0120405	0.000744197	0.000350504	0	5	0	
0.157	-0.0358345	0.0189034	0.000784713	0.000294565	0	5	0	
0.157167	0.0284468	-0.0203631	0.00089335	0.000340689	0	5	0	
0.157333	-0.0188854	0.0149528	0.000962131	0.000456105	0	5	0	
0.1575	0.0169184	-0.00898876	0.000976337	0.00052933	0	5	0	
0.157667	-0.0149623	0.00260474	0.000918586	0.000547768	0	5	0	
0.157833	0.0191344	-0.00332696	0.000812083	0.000502039	0	5	0	
0.158	-0.0180165	0.00543348	0.000688979	0.000399198	0	5	0	
0.158167	0.0251467	-0.0107716	0.000624683	0.000296241	0	5	0	
0.158333	-0.0276809	0.0120053	0.000652901	0.000249984	0	5	0	
0.1585	0.0268257	-0.0108364	0.000777921	0.000275905	0	5	0	
0.158667	-0.019251	0.00656374	0.000895863	0.000331933	0	5	0	
0.158833	0.0179035	-0.00831894	0.00091783	0.000381658	0	5	0	
0.159	-0.0191468	0.0149576	0.000843341	0.000400262	0	5	0	
0.159167	0.0222254	-0.019004	0.000777397	0.00039437	0	5	0	
0.159333	-0.0233654	0.0144306	0.000768897	0.000378702	0	5	0	
0.1595	0.0251432	-0.0133778	0.000810422	0.000365125	0	5	0	
0.159667	-0.0240257	0.0108503	0.000832099	0.000335122	0	5	0	
0.159833	0.0236355	-0.0129389	0.000838486	0.000325853	0	5	0	
0.16	-0.0214044	0.0093569	0.000825236	0.000329855	0	5	0	
0.160167	0.0235967	-0.00543477	0.000820214	0.00034486	0	5	0	
0.160333	-0.0273988	0.00488351	0.000811785	0.000333433	0	5	0	
0.1605	0.0292325	-0.00685596	0.000816051	0.000313874	0	5	0	
0.160667	-0.0258978	0.00848823	0.00082261	0.000319896	0	5	0	
0.160833	0.0204888	-0.00706486	0.000826248	0.000346138	0	5	0	
0.161	-0.0187898	0.00567917	0.000818294	0.000384903	0	5	0	
0.161167	0.0219753	-0.00677333	0.000796294	0.000413456	0	5	0	
0.161333	-0.0254861	0.0131983	0.00076193	0.000436101	0	5	0	
0.1615	0.0282869	-0.0160647	0.000744779	0.000447557	0	5	0	
0.161667	-0.0274016	0.0234748	0.000765799	0.000487949	0	5	0	
0.161833	0.0235015	-0.0207686	0.000786377	0.000521735	0	5	0	
0.162	-0.0269597	0.0186802	0.000796907	0.000533813	0	5	0	
0.162167	0.027262	-0.0179774	0.000798066	0.00050378	0	5	0	
0.162333	-0.0233109	0.0202985	0.000824624	0.000485356	0	5	0	
0.1625	0.018814	-0.0182849	0.000826379	0.000491525	0	5	0	
0.162667	-0.0233475	0.0228025	0.00078969	0.000511385	0	5	0	
0.162833	0.0232452	-0.0206733	0.000731937	0.000508272	0	5	0	
0.163	-0.0225347	0.0194486	0.000714938	0.000488868	0	5	0	
0.163167	0.0190258	-0.0151064	0.000705528	0.000448906	0	5	0	
0.163333	-0.0253515	0.0159258	0.000709049	0.000410041	0	5	0	
0.1635	0.0275439	-0.0155192	0.000699887	0.000366262	0	5	0	
0.163667	-0.0268491	0.0186326	0.000745189	0.000350197	0	5	0	
0.163833	0.0216643	-0.0191167	0.000787303	0.000357763	0	5	0	
0.164	-0.020649	0.0214374	0.000793283	0.000385958	0	5	0	
0.164167	0.0198987	-0.0139195	0.00074467	0.000411151	0	5	0	
0.164333	-0.0248364	-0.00347892	0.000721697	0.000455092	0	5	0	
0.1645	0.0292225	0.019994	0.000719774	0.000477099	0	5	0	
0.164667	-0.0358443	-0.0146441	0.000789468	0.000440661	0	5	0	
0.164833	0.0255331	-0.00248186	0.000866957	0.000303995	0	5	0	
0.165	-0.00768372	0.00889805	0.000939585	0.000195314	0	5	0	
0.165167	0.00873722	-0.0140826	0.000845742	0.000165712	0	5	0	
0.165333	-0.0258514	0.0220859	0.00068266	0.000250195	0	5	0	
0.1655	0.0353157	-0.0243601	0.000596347	0.000424546	0	5	0	
0.165667	-0.0403162	0.0137359	0.000712182	0.000627806	0	5	0	
0.165833	0.0418428	-0.0141931	0.000883376	0.000778964	0	5	0	
0.166	-0.0336585	0.0186704	0.00100148	0.000788327	0	5	0	
0.166167	0.0178523	-0.0195133	0.00105676	0.000718279	0	5	0	
0.166333	-0.00911896	0.0194298	0.00101321	0.000660527	0	5	0	
0.1665	0.0192411	-0.0260857	0.000844858	0.000656848	0	5	0	
0.166667	-0.0348039	0.0192609	0.000681902	0.000636074	0	5	0	
0.166833	0.0374684	-0.0190164	0.000663826	0.000595453	0	5	0	
0.167	-0.0330534	0.0212052	0.000771757	0.000523974	0	5	0	
0.167167	0.0319401	-0.0246839	0.000871934	0.000477168	0	5	0	
0.167333	-0.0271005	0.0223849	0.000907605	0.00046398	0	5	0	
0.1675	0.0215257	-0.0200316	0.00088138	0.000479052	0	5	0	
0.167667	-0.0218432	0.0160964	0.000796004	0.000461133	0	5	0	
0.167833	0.0256006	-0.0197742	0.000721046	0.000427385	0	5	0	
0.168	-0.0292632	0.0189151	0.000711311	0.000383904	0	5	0	
0.168167	0.0318225	-0.0151558	0.000746103	0.000373996	0	5	0	
0.168333	-0.0327768	0.0193909	0.000793046	0.00036667	0	5	0	
0.1685	0.0314802	-0.0214656	0.000833645	0.000383873	0	5	0	
0.168667	-0.0267102	0.017904	0.00085838	0.000420079	0	5	0	
0.168833	0.0223701	-0.00624946	0.000860364	0.000442054	0	5	0	
0.169	-0.023098	-0.00471001	0.000831661	0.000454625	0	5	0	
0.169167	0.0221722	0.0117904	0.000748166	0.000426156	0	5	0	
0.169333	-0.0299722	-0.00680794	0.00067183	0.000386943	0	5	0	
0.1695	0.0376698	0.00240479	0.000671694	0.000313439	0	5	0	
0.169667	-0.0314928	0.00862041	0.000757322	0.000296311	0	5	0	
0.169833	0.0243245	-0.0150541	0.000832363	0.00035159	0	5	0	
0.17	-0.0220989	0.0122556	0.000816167	0.000457407	0	5	0	
0.170167	0.0229998	-0.00482751	0.000732712	0.000520199	0	5	0	
0.170333	-0.0277414	0.00867841	0.00067647	0.000523894	0	5	0	
0.1705	0.0257069	-0.0194844	0.000691483	0.000549735	0	5	0	
0.170667	-0.0182386	0.025207	0.000721741	0.000634963	0	5	0	
0.170833	0.025366	-0.0269599	0.000681581	0.000695941	0	5	0	
0.171	-0.039681	0.0247811	0.000650451	0.000681259	0	5	0	
0.171167	0.0441283	-0.0147459	0.000725079	0.000663922	0	5	0	
0.171333	-0.0358589	-0.00315017	0.000877461	0.000709014	0	5	0	
0.1715	0.031163	-0.00420369	0.000968424	0.000646664	0	5	0	
0.171667	-0.0257941	0.0160836	0.000967701	0.000497996	0	5	0	
0.171833	0.0133296	-0.0128474	0.000934213	0.000320333	0	5	0	
0.172	-0.00639206	0.00724183	0.000819436	0.000279325	0	5	0	
0.172167	0.0236274	-0.0169599	0.000639248	0.00027856	0	5	0	
0.172333	-0.0486149	0.0257372	0.000569469	0.000321586	0	5	0	
0.1725	0.0555197	-0.0243055	0.000707328	0.000419244	0	5	0	
0.172667	-0.0433893	0.0162546	0.000966965	0.000544288	0	5	0	
0.172833	0.0257526	-0.0110472	0.00108261	0.000593304	0	5	0	
0.173	-0.0200194	0.0141598	0.00101198	0.000585975	0	5	0	
0.173167	0.0232607	-0.0155548	0.000845845	0.000542443	0	5	0	
0.173333	-0.0249273	0.0168872	0.000696191	0.000507355	0	5	0	
0.1735	0.0277708	-0.0193148	0.000629481	0.000468153	0	5	0	
0.173667	-0.0342729	0.020681	0.00063036	0.000449641	0	5	0	
0.173833	0.0373044	-0.0208738	0.000687489	0.000440833	0	5	0	
0.174	-0.0363473	0.0179479	0.000778714	0.000423737	0	5	0	
0.174167	0.0302861	-0.0115195	0.000861135	0.000374775	0	5	0	
0.174333	-0.0250982	0.00538372	0.000860902	0.000297696	0	5	0	
0.1745	0.0276041	-0.00597627	0.000804643	0.000211091	0	5	0	
0.174667	-0.0301166	0.00253653	0.000737907	0.0001391	0	5	0	
0.174833	0.0312242	0.000303292	0.000747435	0.000105377	0	5	0	
0.175	-0.0296274	-0.00395683	0.000752762	0.000120244	0	5	0	
0.175167	0.032746	0.00105507	0.000781371	0.000172155	0	5	0	
0.175333	-0.033522	0.00409476	0.00078202	0.000240207	0	5	0	
0.1755	0.034419	-0.0109107	0.000816291	0.000309206	0	5	0	
0.175667	-0.0345921	0.0123738	0.000818566	0.000378106	0	5	0	
0.175833	0.0354818	-0.0134072	0.00083204	0.000457438	0	5	0	
0.176	-0.032677	0.0147376	0.000807525	0.00052098	0	5	0	
0.176167	0.0368083	-0.016817	0.00082037	0.000548928	0	5	0	
0.176333	-0.0377266	0.0181326	0.000819755	0.000531795	0	5	0	
0.1765	0.0328993	-0.0209456	0.000832559	0.000510655	0	5	0	
0.176667	-0.0317519	0.0252562	0.000805095	0.000514144	0	5	0	
0.176833	0.0326361	-0.0264064	0.000766661	0.000531522	0	5	0	
0.177	-0.0331692	0.0308045	0.000750457	0.000565121	0	5	0	
0.177167	0.0310126	-0.0228101	0.000740577	0.000563153	0	5	0	
0.177333	-0.0309167	0.0200357	0.000743857	0.000536862	0	5	0	
0.1775	0.0328338	-0.0167859	0.00073544	0.000457747	0	5	0	
0.177667	-0.0356275	0.0176778	0.000763262	0.000400047	0	5	0	
0.177833	0.035346	-0.0163073	0.000792379	0.000359825	0	5	0	
0.178	-0.0350082	0.0173999	0.000818623	0.000345662	0	5	0	
0.178167	0.0318853	-0.0145655	0.000798911	0.000331613	0	5	0	
0.178333	-0.0330582	0.0173981	0.000783573	0.000347689	0	5	0	
0.1785	0.0362073	-0.0164436	0.00076973	0.000359483	0	5	0	
0.178667	-0.0381347	0.0178979	0.000796246	0.000384358	0	5	0	
0.178833	0.0389449	-0.0201359	0.00082342	0.000392036	0	5	0	
0.179	-0.0343193	0.019915	0.000846698	0.000426997	0	5	0	
0.179167	0.0302982	-0.0203517	0.000846376	0.000446929	0	5	0	
0.179333	-0.0305148	0.0197105	0.000810923	0.000461217	0	5	0	
0.1795	0.0330984	-0.0172444	0.000770908	0.000435092	0	5	0	
0.179667	-0.0358427	0.0130413	0.000753055	0.000393972	0	5	0	
0.179833	0.0373532	-0.016393	0.000765419	0.000349137	0	5	0	
0.18	-0.0377176	0.0196642	0.000796912	0.000352642	0	5	0	
0.180167	0.0402486	-0.0198831	0.000820953	0.000364587	0	5	0	
0.180333	-0.037898	0.0231735	0.00082861	0.000402542	0	5	0	
0.1805	0.0341065	-0.0218693	0.000822618	0.000423974	0	5	0	
0.180667	-0.0324769	0.0210051	0.000797046	0.000453065	0	5	0	
0.180833	0.0320765	-0.0168576	0.000764894	0.00044669	0	5	0	
0.181	-0.032436	0.0143241	0.000740995	0.000410078	0	5	0	
0.181167	0.0336422	-0.00856891	0.000730701	0.000334559	0	5	0	
0.181333	-0.0327743	0.0130033	0.000742166	0.000293201	0	5	0	
0.1815	0.0345189	-0.0129037	0.000752716	0.000269135	0	5	0	
0.181667	-0.0365805	0.0143807	0.000776563	0.00029376	0	5	0	
0.181833	0.0347545	-0.00934141	0.000803188	0.00030892	0	5	0	
0.182	-0.0333044	0.0118307	0.00081309	0.000347945	0	5	0	
0.182167	0.0346136	-0.0136625	0.000792254	0.000374791	0	5	0	
0.182333	-0.0360943	0.0208442	0.000768347	0.000411603	0	5	0	
0.1825	0.0352801	-0.0196978	0.000752417	0.000429348	0	5	0	
0.182667	-0.0413631	0.0221391	0.000770727	0.000458358	0	5	0	
0.182833	0.0426779	-0.0272819	0.000809957	0.000481995	0	5	0	
0.183	-0.0355851	0.0304701	0.000845818	0.00053961	0	5	0	
0.183167	0.0317323	-0.028268	0.000821461	0.000588134	0	5	0	
0.183333	-0.0374644	0.0257362	0.000767567	0.000601545	0	5	0	
0.1835	0.0401817	-0.0185247	0.000754138	0.00053916	0	5	0	
0.183667	-0.0380551	0.0025787	0.000793653	0.000412582	0	5	0	
0.183833	0.0367684	0.00721883	0.000843069	0.000255732	0	5	0	
0.184	-0.0347689	-0.0047311	0.000845532	0.000240448	0	5	0	
0.184167	0.0291276	-0.00612946	0.000812885	0.000339473	0	5	0	
0.184333	-0.0229418	0.0131322	0.000730115	0.000463433	0	5	0	
0.1845	0.0312547	-0.0178437	0.000655708	0.000438431	0	5	0	
0.184667	-0.0409127	0.01338	0.000638244	0.000354432	0	5	0	
0.184833	0.0546811	-0.00983953	0.000738036	0.000379193	0	5	0	
0.185	-0.0587406	0.00826805	0.000915285	0.000480515	0	5	0	
0.185167	0.054454	-0.010919	0.00105334	0.000620319	0	5	0	
0.185333	-0.0399709	0.00462362	0.00111382	0.000685309	0	5	0	
0.1855	0.0238451	-0.00882312	0.00105548	0.000641637	0	5	0	
0.185667	-0.0213938	0.0252764	0.00087609	0.000538057	0	5	0	
0.185833	0.0356063	-0.0337656	0.000702745	0.000493427	0	5	0	
0.186	-0.0366059	0.0303514	0.000641141	0.000531372	0	5	0	
0.186167	0.0401817	-0.0340837	0.000694343	0.000618058	0	5	0	
0.186333	-0.0488681	0.0469257	0.000786764	0.000694161	0	5	0	
0.1865	0.0478587	-0.050205	0.000863816	0.000793128	0	5	0	
0.186667	-0.034102	0.034014	0.000928381	0.000856142	0	5	0	
0.186833	0.0326832	-0.023388	0.000900532	0.00077269	0	5	0	
0.187	-0.0358968	0.030175	0.00080459	0.000658881	0	5	0	
0.187167	0.0410338	-0.0299662	0.000738705	0.000578869	0	5	0	
0.187333	-0.0410504	0.0260746	0.000750485	0.000578437	0	5	0	
0.1875	0.0461834	-0.0214225	0.000807626	0.0005463	0	5	0	
0.187667	-0.0432664	0.0194793	0.000868307	0.000491423	0	5	0	
0.187833	0.0411457	-0.0199789	0.000896664	0.000431459	0	5	0	
0.188	-0.0364205	0.0186644	0.000870829	0.000411355	0	5	0	
0.188167	0.0367435	-0.0133698	0.000809179	0.000366347	0	5	0	
0.188333	-0.0366404	0.0137577	0.000779815	0.000324926	0	5	0	
0.1885	0.0379668	-0.012549	0.000772502	0.000273473	0	5	0	
0.188667	-0.0391287	0.0143466	0.000796583	0.000276032	0	5	0	
0.188833	0.0427345	-0.0164541	0.000802153	0.000305004	0	5	0	
0.189	-0.0389082	0.0186832	0.000814005	0.000351445	0	5	0	
0.189167	0.0355533	-0.0206587	0.000789225	0.000383951	0	5	0	
0.189333	-0.0400254	0.021636	0.000766586	0.000405266	0	5	0	
0.1895	0.045432	-0.0203997	0.000765474	0.000406154	0	5	0	
0.189667	-0.0441132	0.0228512	0.000823068	0.000417935	0	5	0	
0.189833	0.0382067	-0.0319487	0.000860706	0.00045156	0	5	0	
0.19	-0.0238543	0.0305819	0.000831117	0.00053942	0	5	0	
0.190167	0.016294	-0.0233404	0.000690413	0.000594766	0	5	0	
0.190333	-0.0282478	0.0176249	0.000546917	0.000564235	0	5	0	
0.1905	0.0503078	-0.0281184	0.000565052	0.000473997	0	5	0	
0.190667	-0.0522988	0.0307015	0.000730247	0.000470767	0	5	0	
0.190833	0.0469314	-0.0298767	0.000905866	0.000535415	0	5	0	
0.191	-0.0432641	0.0301565	0.000940932	0.000621406	0	5	0	
0.191167	0.0386994	-0.0284176	0.000901481	0.000622334	0	5	0	
0.191333	-0.0295103	0.0174217	0.000844194	0.000560687	0	5	0	
0.1915	0.0289007	-0.0193237	0.000779542	0.000456686	0	5	0	
0.191667	-0.0357489	0.0216126	0.000714724	0.000398212	0	5	0	
0.191833	0.041983	-0.0230013	0.000703903	0.000395615	0	5	0	
0.192	-0.0430157	0.0220194	0.000743151	0.000422432	0	5	0	
0.192167	0.0352264	-0.0191048	0.000792569	0.000408186	0	5	0	
0.192333	-0.0314267	0.0156963	0.000761034	0.000382488	0	5	0	
0.1925	0.0378941	-0.015384	0.000721059	0.000347815	0	5	0	
0.192667	-0.0454958	0.0190254	0.000715706	0.00032541	0	5	0	
0.192833	0.0384552	-0.0231219	0.000763308	0.0003436	0	5	0	
0.193	-0.0367376	0.0199177	0.000779004	0.00038779	0	5	0	
0.193167	0.0395235	-0.0150056	0.000762282	0.000397915	0	5	0	
0.193333	-0.0451254	0.0177897	0.000755822	0.000366795	0	5	0	
0.1935	0.0461063	-0.0191381	0.000803448	0.000329894	0	5	0	
0.193667	-0.0437724	0.0193329	0.000850457	0.000338551	0	5	0	
0.193833	0.0398442	-0.0176026	0.000860277	0.000361323	0	5	0	
0.194	-0.0414682	0.0164888	0.000827999	0.000358193	0	5	0	
0.194167	0.0391395	-0.0153694	0.000799725	0.00032816	0	5	0	
0.194333	-0.0360744	0.0163057	0.000771456	0.000307051	0	5	0	
0.1945	0.0377494	-0.0134939	0.000747464	0.00029851	0	5	0	
0.194667	-0.0449215	0.0198306	0.000751943	0.000314735	0	5	0	
0.194833	0.0446446	-0.0229187	0.000787051	0.000347631	0	5	0	
0.195	-0.0422984	0.0209337	0.000825828	0.000386675	0	5	0	
0.195167	0.0396405	-0.0160798	0.000815053	0.000386451	0	5	0	
0.195333	-0.0422013	0.0194866	0.000794471	0.000369437	0	5	0	
0.1955	0.0418426	-0.0174949	0.000782343	0.000345725	0	5	0	
0.195667	-0.0397138	0.0204014	0.000786687	0.000352434	0	5	0	
0.195833	0.037106	-0.0225592	0.000770084	0.000375383	0	5	0	
0.196	-0.0393487	0.020356	0.000753101	0.000399961	0	5	0	
0.196167	0.040034	-0.0172721	0.000735459	0.000393751	0	5	0	
0.196333	-0.0410714	0.0238761	0.000756128	0.000387444	0	5	0	
0.1965	0.0390213	-0.0181823	0.0007694	0.000393456	0	5	0	
0.196667	-0.039921	0.016215	0.000773531	0.000384788	0	5	0	
0.196833	0.0412879	-0.0211431	0.000766699	0.000368448	0	5	0	
0.197	-0.0414577	0.020108	0.000770116	0.000356976	0	5	0	
0.197167	0.0395392	-0.0159287	0.000774537	0.000370956	0	5	0	
0.197333	-0.0419561	0.0142622	0.000780013	0.000347956	0	5	0	
0.1975	0.0419216	-0.00778956	0.000785486	0.000304544	0	5	0	
0.197667	-0.0391068	0.00691796	0.000777139	0.000230493	0	5	0	
0.197833	0.0351767	-0.00935043	0.000748303	0.00018389	0	5	0	
0.198	-0.0382112	0.00886206	0.000712901	0.000154902	0	5	0	
0.198167	0.0417284	-0.00955582	0.000720294	0.000173118	0	5	0	
0.198333	-0.0465309	0.0136298	0.000766757	0.000191964	0	5	0	
0.1985	0.0442416	-0.0172886	0.000822921	0.000224644	0	5	0	
0.198667	-0.0405548	0.0175432	0.000833446	0.000263496	0	5	0	
0.198833	0.0410916	-0.0187699	0.000804777	0.000322954	0	5	0	
0.199	-0.0433607	0.0182042	0.000777795	0.00036431	0	5	0	
0.199167	0.0417535	-0.0167862	0.000784402	0.000390893	0	5	0	
0.199333	-0.0420832	0.0129367	0.000798217	0.000352234	0	5	0	
0.1995	0.0385418	-0.0124121	0.00079568	0.000299014	0	5	0	
0.199667	-0.0368763	0.0158588	0.000757507	0.000268006	0	5	0	
0.199833	0.0382379	-0.0241592	0.000723028	0.000301877	0	5	0	
0.2	-0.0393654	0.0213774	0.000705893	0.000370938	0	5	0	
0.200167	0.0399998	-0.0144242	0.000727903	0.000380541	0	5	0	
0.200333	-0.0393586	0.008095	0.000748282	0.00032295	0	5	0	
0.2005	0.0419159	-0.0161698	0.000761879	0.000242917	0	5	0	
0.200667	-0.0427533	0.0199092	0.000764473	0.00026586	0	5	0	
0.200833	0.0440172	-0.0209464	0.000785231	0.000326779	0	5	0	
0.201	-0.044071	0.0156057	0.000801329	0.000387145	0	5	0	
0.201167	0.0467312	-0.0172804	0.000822891	0.000366973	0	5	0	
0.201333	-0.0433136	0.0182844	0.000831184	0.000363713	0	5	0	
0.2015	0.0401649	-0.0231979	0.000823948	0.000357555	0	5	0	
0.201667	-0.0398251	0.0222023	0.000790945	0.000412945	0	5	0	
0.201833	0.0460076	-0.0242197	0.000778895	0.000429615	0	5	0	
0.202	-0.0425247	0.020516	0.000783654	0.000449404	0	5	0	
0.202167	0.037415	-0.0181587	0.000786874	0.000410541	0	5	0	
0.202333	-0.0329827	0.014237	0.000744443	0.000361495	0	5	0	
0.2025	0.0329593	-0.0220697	0.000690265	0.000327757	0	5	0	
0.202667	-0.0328709	0.0213482	0.000636699	0.000343603	0	5	0	
0.202833	0.0387051	-0.0188739	0.000645849	0.000397624	0	5	0	
0.203	-0.0533256	0.0129681	0.000743109	0.000403844	0	5	0	
0.203167	0.0670114	-0.0135273	0.000924475	0.000353256	0	5	0	
0.203333	-0.0572917	0.00944274	0.00107029	0.000287455	0	5	0	
0.2035	0.0367857	-0.020572	0.00106732	0.00027375	0	5	0	
0.203667	-0.0246911	0.0278558	0.000879288	0.000363668	0	5	0	
0.203833	0.0261262	-0.0295243	0.00066608	0.000480749	0	5	0	
0.204	-0.0286464	0.0220915	0.000553753	0.000558566	0	5	0	
0.204167	0.0392058	-0.0221482	0.000635148	0.000529795	0	5	0	
0.204333	-0.0549988	0.0208692	0.000801097	0.000468615	0	5	0	
0.2045	0.0546859	-0.0228362	0.000938215	0.000422092	0	5	0	
0.204667	-0.039747	0.0164593	0.00094949	0.00039872	0	5	0	
0.204833	0.0337247	-0.0137204	0.000851098	0.000355672	0	5	0	
0.205	-0.0327088	0.0149226	0.000729172	0.000297272	0	5	0	
0.205167	0.0318874	-0.0153631	0.000654423	0.000277855	0	5	0	
0.205333	-0.0391595	0.014222	0.000653032	0.000275618	0	5	0	
0.2055	0.0481744	-0.0220471	0.000719187	0.000323854	0	5	0	
0.205667	-0.0459748	0.0218759	0.000798695	0.000364248	0	5	0	
0.205833	0.0431382	-0.021898	0.000837259	0.000404008	0	5	0	
0.206	-0.0421776	0.0208367	0.000815372	0.00040807	0	5	0	
0.206167	0.0408981	-0.0197934	0.000790504	0.000388458	0	5	0	
0.206333	-0.0425458	0.0185448	0.000783875	0.000375478	0	5	0	
0.2065	0.0438906	-0.0206693	0.000799104	0.000380554	0	5	0	
0.206667	-0.0446191	0.0206288	0.00081783	0.00038781	0	5	0	
0.206833	0.0435505	-0.0218372	0.000825199	0.000405388	0	5	0	
0.207	-0.0435599	0.0209493	0.00081888	0.000414532	0	5	0	
0.207167	0.0463357	-0.0235994	0.000824501	0.000423149	0	5	0	
0.207333	-0.0505815	0.0247798	0.000853749	0.000435827	0	5	0	
0.2075	0.0433382	-0.024889	0.000889903	0.000466919	0	5	0	
0.207667	-0.0417816	0.0192923	0.000862338	0.000454653	0	5	0	
0.207833	0.0388755	-0.0231617	0.000807754	0.000441879	0	5	0	
0.208	-0.0399364	0.0236859	0.000745622	0.000410454	0	5	0	
0.208167	0.0389454	-0.0220034	0.000734352	0.000422588	0	5	0	
0.208333	-0.0419014	0.0184881	0.000742161	0.000412773	0	5	0	
0.2085	0.0386419	-0.0175381	0.000767784	0.000381269	0	5	0	
0.208667	-0.0392875	0.0103674	0.00077065	0.000311686	0	5	0	
0.208833	0.0482794	-0.0194098	0.000816989	0.000273537	0	5	0	
0.209	-0.0616218	0.028254	0.00089544	0.000309189	0	5	0	
0.209167	0.0553711	-0.0249739	0.00100365	0.000403941	0	5	0	
0.209333	-0.0375519	0.00574737	0.00099794	0.000430434	0	5	0	
0.2095	0.0315347	-0.00578811	0.000873808	0.000330797	0	5	0	
0.209667	-0.0389581	0.0120338	0.000737623	0.00022947	0	5	0	
0.209833	0.0372545	-0.0150619	0.000679277	0.000193749	0	5	0	
0.21	-0.0345047	0.0171934	0.000681265	0.000251771	0	5	0	
0.210167	0.0421484	-0.0239297	0.000725552	0.000325833	0	5	0	
0.210333	-0.0499495	0.0273509	0.000795553	0.000413602	0	5	0	
0.2105	0.044417	-0.0275813	0.000864121	0.000474286	0	5	0	
0.210667	-0.0385968	0.0176485	0.000841514	0.00047278	0	5	0	
0.210833	0.0390212	-0.0149526	0.000787546	0.000421051	0	5	0	
0.211	-0.0485971	0.0172422	0.000785376	0.000351867	0	5	0	
0.211167	0.0487441	-0.0204729	0.000847168	0.000332991	0	5	0	
0.211333	-0.0423598	0.0215946	0.000870079	0.000338639	0	5	0	
0.2115	0.0330812	-0.0168533	0.000813967	0.000375359	0	5	0	
0.211667	-0.0385341	0.0119411	0.000736472	0.000341101	0	5	0	
0.211833	0.0422397	-0.0160554	0.000723053	0.000317624	0	5	0	
0.212	-0.0461061	0.0188537	0.000770308	0.000276485	0	5	0	
0.212167	0.0410248	-0.0205056	0.000819727	0.000315582	0	5	0	
0.212333	-0.0407927	0.0245664	0.000826267	0.000368262	0	5	0	
0.2125	0.0399082	-0.0283712	0.000805421	0.000482299	0	5	0	
0.212667	-0.0428726	0.0292349	0.000796111	0.000560137	0	5	0	
0.212833	0.0397427	-0.0265128	0.000777856	0.000607705	0	5	0	
0.213	-0.0415424	0.0230619	0.000781211	0.000555796	0	5	0	
0.213167	0.0387858	-0.0199307	0.000775065	0.000497222	0	5	0	
0.213333	-0.0369952	0.0144516	0.000772693	0.000427588	0	5	0	
0.2135	0.0362211	-0.0131483	0.000760055	0.000399521	0	5	0	
0.213667	-0.0402709	0.0122066	0.000753987	0.000375643	0	5	0	
0.213833	0.0407712	-0.0106041	0.00076195	0.000355256	0	5	0	
0.214	-0.043255	0.0109012	0.00078191	0.000302938	0	5	0	
0.214167	0.0397313	-0.0130582	0.000780595	0.000252494	0	5	0	
0.214333	-0.0363081	0.017536	0.000757274	0.000232272	0	5	0	
0.2145	0.0378335	-0.0227987	0.000726715	0.000293055	0	5	0	
0.214667	-0.0390494	0.0198658	0.00072306	0.000365265	0	5	0	
0.214833	0.0411321	-0.0207479	0.000756531	0.000415133	0	5	0	
0.215	-0.0434694	0.0190399	0.000790309	0.000409897	0	5	0	
0.215167	0.0399201	-0.0190484	0.000797011	0.00037064	0	5	0	
0.215333	-0.0364558	0.0180141	0.000754798	0.000347671	0	5	0	
0.2155	0.0347038	-0.0157817	0.000705699	0.000321938	0	5	0	
0.215667	-0.031565	0.0127593	0.000677897	0.000310372	0	5	0	
0.215833	0.039769	-0.0114242	0.0007052	0.000260849	0	5	0	
0.216	-0.0403367	0.0109251	0.000754371	0.000226421	0	5	0	
0.216167	0.0412526	-0.017653	0.000782264	0.000217235	0	5	0	
0.216333	-0.0457848	0.0241839	0.00079679	0.000284095	0	5	0	
0.2165	0.0514691	-0.0315543	0.000831544	0.000385153	0	5	0	
0.216667	-0.0448806	0.0321626	0.000868167	0.000503342	0	5	0	
0.216833	0.0385069	-0.0264876	0.000866346	0.000548494	0	5	0	
0.217	-0.0352595	0.0254762	0.000807595	0.000539964	0	5	0	
0.217167	0.0391683	-0.0213058	0.000772371	0.000488711	0	5	0	
0.217333	-0.0411935	0.0193796	0.000777954	0.000445206	0	5	0	
0.2175	0.0403057	-0.0197409	0.000799528	0.000417578	0	5	0	
0.217667	-0.0401349	0.0168228	0.000801392	0.000385548	0	5	0	
0.217833	0.0425751	-0.0192765	0.000819396	0.000363934	0	5	0	
0.218	-0.0433882	0.0208982	0.000823524	0.00035229	0	5	0	
0.218167	0.0378439	-0.0196963	0.000823287	0.000376361	0	5	0	
0.218333	-0.0377117	0.0195555	0.000778913	0.000388973	0	5	0	
0.2185	0.0399759	-0.0267435	0.000777642	0.000414767	0	5	0	
0.218667	-0.0434145	0.0275238	0.000797529	0.000442422	0	5	0	
0.218833	0.0403915	-0.0288972	0.000837642	0.000497522	0	5	0	
0.219	-0.0363447	0.0238561	0.000820991	0.000524726	0	5	0	
0.219167	0.0371178	-0.020597	0.000800203	0.000519668	0	5	0	
0.219333	-0.0405448	0.0167021	0.000778852	0.000512277	0	5	0	
0.2195	0.0410907	-0.0186541	0.000801897	0.000517138	0	5	0	
0.219667	-0.0398455	0.0160928	0.000808153	0.000548582	0	5	0	
0.219833	0.0398415	-0.0126066	0.000810604	0.00056332	0	5	0	
0.22	-0.0364256	0.0112401	0.000780851	0.000542526	0	5	0	
0.220167	0.0358701	-0.00752159	0.000746587	0.000466294	0	5	0	
0.220333	-0.0372004	0.00102837	0.000722743	0.000346464	0	5	0	
0.2205	0.0404116	0.00051914	0.000730909	0.000209837	0	5	0	
0.220667	-0.0405956	0.00238371	0.000761368	0.000101936	0	5	0	
0.220833	0.0395269	-0.00487888	0.000797773	5.54655E-05	0	5	0	
0.221	-0.0408083	0.0115291	0.000819084	7.92439E-05	0	5	0	
0.221167	0.0405609	-0.0191824	0.000834272	0.000161821	0	5	0	
0.221333	-0.0428226	0.0269664	0.000839983	0.000281978	0	5	0	
0.2215	0.0440157	-0.0279604	0.000846152	0.000403451	0	5	0	
0.221667	-0.0447218	0.0345863	0.000863305	0.000507618	0	5	0	
0.221833	0.041762	-0.0301206	0.000863984	0.000568362	0	5	0	
0.222	-0.0355449	0.0126411	0.000838397	0.000546799	0	5	0	
0.222167	0.0376442	-0.00248319	0.00079682	0.00043232	0	5	0	
0.222333	-0.0415842	0.00868421	0.000777292	0.000445546	0	5	0	
0.2225	0.0305002	-0.0140285	0.00073919	0.000560768	0	5	0	
0.222667	-0.0194481	0.0194477	0.000663422	0.000698149	0	5	0	
0.222833	0.0267658	-0.0197836	0.000629049	0.000716901	0	5	0	
0.223	-0.0396673	0.0304339	0.000742187	0.000685046	0	5	0	
0.223167	0.0482295	-0.029153	0.000882201	0.000638144	0	5	0	
0.223333	-0.0462482	0.0114529	0.000967944	0.000527466	0	5	0	
0.2235	0.0462561	-0.00257387	0.000932884	0.000395244	0	5	0	
0.223667	-0.0395617	0.00146131	0.000878249	0.000248978	0	5	0	
0.223833	0.0228646	0.00208126	0.00075369	0.000157851	0	5	0	
0.224	-0.0175941	0.00113462	0.000622643	0.000151141	0	5	0	
0.224167	0.0282707	-0.0107183	0.000608694	0.000284884	0	5	0	
0.224333	-0.0431076	0.0146909	0.000723256	0.000448973	0	5	0	
0.2245	0.0467495	-0.0201344	0.00086238	0.000542393	0	5	0	
0.224667	-0.0412377	0.0211032	0.000901546	0.000566444	0	5	0	
0.224833	0.0341832	-0.0157711	0.000837691	0.00051633	0	5	0	
0.225	-0.0281101	0.00685607	0.000746239	0.000409385	0	5	0	
0.225167	0.0287588	-0.00875875	0.000691653	0.000292331	0	5	0	
0.225333	-0.0399596	0.0117433	0.000717794	0.000278101	0	5	0	
0.2255	0.0408673	-0.0169928	0.000786897	0.000324091	0	5	0	
0.225667	-0.0369063	0.0160086	0.000828974	0.000370587	0	5	0	
0.225833	0.0335359	-0.0109439	0.000813737	0.000323958	0	5	0	
0.226	-0.0309858	0.0129622	0.000786382	0.000281487	0	5	0	
0.226167	0.033111	-0.0193052	0.000764078	0.000287153	0	5	0	
0.226333	-0.0362805	0.0167725	0.000764795	0.000352863	0	5	0	
0.2265	0.0351851	-0.0133539	0.000765062	0.000390265	0	5	0	
0.226667	-0.0309713	0.0135066	0.000766295	0.000362828	0	5	0	
0.226833	0.0302372	-0.0120428	0.000767382	0.000322392	0	5	0	
0.227	-0.0342296	0.0132127	0.000768294	0.000321717	0	5	0	
0.227167	0.037033	-0.0120201	0.000782799	0.000368034	0	5	0	
0.227333	-0.0406505	0.0120294	0.000810297	0.000406184	0	5	0	
0.2275	0.0434476	-0.0136783	0.000859957	0.000444277	0	5	0	
0.227667	-0.0426974	0.020635	0.00088857	0.000457205	0	5	0	
0.227833	0.032148	-0.0225371	0.000863167	0.00049947	0	5	0	
0.228	-0.0287372	0.0212559	0.000763138	0.000518549	0	5	0	
0.228167	0.0244681	-0.0174486	0.000672366	0.000544177	0	5	0	
0.228333	-0.02127	0.0136847	0.000624098	0.000498543	0	5	0	
0.2285	0.0238125	-0.0121915	0.00067485	0.000464956	0	5	0	
0.228667	-0.0400954	0.024372	0.000835106	0.000458312	0	5	0	
0.228833	0.0500716	-0.0268609	0.00102476	0.000507955	0	5	0	
0.229	-0.0482543	0.00820967	0.0010878	0.000474466	0	5	0	
0.229167	0.0360717	0.00256067	0.000984325	0.000357534	0	5	0	
0.229333	-0.0322499	0.00134115	0.000811758	0.00027958	0	5	0	
0.2295	0.0216497	-0.00470846	0.000670858	0.000267136	0	5	0	
0.229667	-0.0133728	0.00303362	0.000560673	0.000306887	0	5	0	
0.229833	0.0208581	-0.00990513	0.000590289	0.000380834	0	5	0	
0.23	-0.0414087	0.0218902	0.000770326	0.00051934	0	5	0	
0.230167	0.0498973	-0.0227141	0.000974062	0.000605152	0	5	0	
0.230333	-0.0407805	0.0172359	0.00101604	0.00053192	0	5	0	
0.2305	0.0270826	-0.014483	0.000871551	0.000395662	0	5	0	
0.230667	-0.023516	0.0106378	0.000703893	0.000303219	0	5	0	
0.230833	0.0243155	-0.0112619	0.000643166	0.000291283	0	5	0	
0.231	-0.0311747	0.0154281	0.000708881	0.000339057	0	5	0	
0.231167	0.0364539	-0.0144072	0.000827625	0.000407483	0	5	0	
0.231333	-0.0379702	0.0140098	0.00089548	0.000447346	0	5	0	
0.2315	0.0378954	-0.0183145	0.00089749	0.000461282	0	5	0	
0.231667	-0.033971	0.0147746	0.000846443	0.000473551	0	5	0	
0.231833	0.024254	-0.00442273	0.000763946	0.000449947	0	5	0	
0.232	-0.01763	-0.00499132	0.000668636	0.000383089	0	5	0	
0.232167	0.0173436	0.01092	0.000626023	0.000335693	0	5	0	
0.232333	-0.0218637	-0.00901776	0.000683148	0.000339943	0	5	0	
0.2325	0.0303328	0.00442729	0.000819445	0.00038741	0	5	0	
0.232667	-0.03844	-0.00334296	0.000933032	0.000474339	0	5	0	
0.232833	0.0344918	-0.00255834	0.000942695	0.000589074	0	5	0	
0.233	-0.0248799	0.0142638	0.000829467	0.00060721	0	5	0	
0.233167	0.0249312	-0.0216773	0.000688877	0.000488882	0	5	0	
0.233333	-0.0278417	0.0204918	0.000616695	0.00044358	0	5	0	
0.2335	0.0268337	-0.00858462	0.000628955	0.000462276	0	5	0	
0.233667	-0.0189433	-0.016526	0.000675094	0.000436976	0	5	0	
0.233833	0.027242	0.0246623	0.00076209	0.000484687	0	5	0	
0.234	-0.0423615	-0.000886841	0.000878106	0.000538526	0	5	0	
0.234167	0.0349247	-0.01569	0.000912528	0.000648192	0	5	0	
0.234333	-0.0235724	0.0153682	0.000805639	0.00055915	0	5	0	
0.2345	0.0276161	-0.0139372	0.000720296	0.000445188	0	5	0	
0.234667	-0.0315359	0.00250993	0.000770377	0.000372584	0	5	0	
0.234833	0.0245311	0.00918629	0.000836519	0.000309484	0	5	0	
0.235	-0.0206454	-0.000679505	0.000843186	0.000325819	0	5	0	
0.235167	0.034639	-0.00908555	0.000849079	0.000424678	0	5	0	
0.235333	-0.040823	0.0142493	0.000867592	0.000467618	0	5	0	
0.2355	0.0175877	-0.00713022	0.000810226	0.000417167	0	5	0	
0.235667	-0.00571432	-0.0166019	0.000657478	0.000354722	0	5	0	
0.235833	0.0168365	0.0319929	0.000686843	0.000361259	0	5	0	
0.236	-0.0252216	-0.0308681	0.000773011	0.000502958	0	5	0	
0.236167	0.0260771	0.018069	0.000844613	0.000583675	0	5	0	
0.236333	-0.0300318	0.000815748	0.000819662	0.000620672	0	5	0	
0.2365	0.0348762	-0.0147449	0.000831048	0.000569975	0	5	0	
0.236667	-0.0302981	0.0186306	0.000832347	0.000483	0	5	0	
0.236833	0.0232885	-0.0195635	0.000749198	0.00042259	0	5	0	
0.237	-0.0258131	0.0093905	0.000642424	0.000364813	0	5	0	
0.237167	0.0250028	0.000651231	0.000631195	0.000286948	0	5	0	
0.237333	-0.0242323	-0.00338605	0.000676821	0.000207787	0	5	0	
0.2375	0.0218539	0.00375639	0.000742633	0.000196235	0	5	0	
0.237667	-0.0245492	0.000636175	0.000767833	0.000269133	0	5	0	
0.237833	0.0241584	-0.00395502	0.000802545	0.00036729	0	5	0	
0.238	-0.0311813	0.00748126	0.000837048	0.000394919	0	5	0	
0.238167	0.0307037	-0.0106796	0.000877455	0.000387537	0	5	0	
0.238333	-0.0257161	0.00994461	0.000844851	0.000361939	0	5	0	
0.2385	0.018218	-0.00752979	0.000772177	0.000332494	0	5	0	
0.238667	-0.0199465	0.00605529	0.000708876	0.000319377	0	5	0	
0.238833	0.0231559	-0.00165506	0.000732492	0.000332566	0	5	0	
0.239	-0.0265	0.000573895	0.00078015	0.000356639	0	5	0	
0.239167	0.0252478	0.000215365	0.000800912	0.000377193	0	5	0	
0.239333	-0.0230904	0.000828052	0.000778528	0.000388522	0	5	0	
0.2395	0.0244476	-0.00117171	0.000748827	0.000396579	0	5	0	
0.239667	-0.0242638	0.00025092	0.000747261	0.000392304	0	5	0	
0.239833	0.0308098	-0.000295297	0.00077507	0.000357436	0	5	0	
0.24	-0.0312274	0.00493879	0.000839778	0.000291842	0	5	0	
0.240167	0.0266363	-0.00732247	0.000852479	0.000229083	0	5	0	
0.240333	-0.0208301	0.00965255	0.000817067	0.000204933	0	5	0	
0.2405	0.0208776	-0.0094047	0.000755246	0.000246074	0	5	0	
0.240667	-0.0234504	0.0080603	0.000746188	0.000298643	0	5	0	
0.240833	0.025766	-0.00758352	0.000761833	0.000308685	0	5	0	
0.241	-0.0232185	0.0109268	0.000793685	0.000279342	0	5	0	
0.241167	0.0231659	-0.0145258	0.000804648	0.000276816	0	5	0	
0.241333	-0.0221483	0.0126263	0.000814346	0.000304984	0	5	0	
0.2415	0.0224193	-0.00889681	0.000815888	0.000328154	0	5	0	
0.241667	-0.026345	0.00763227	0.000840094	0.000317344	0	5	0	
0.241833	0.025311	-0.00605741	0.000856838	0.000293664	0	5	0	
0.242	-0.0242718	-0.00621309	0.000849737	0.000254098	0	5	0	
0.242167	0.0258536	0.0148146	0.000840761	0.000298464	0	5	0	
0.242333	-0.0280857	-0.0104036	0.000825124	0.000486286	0	5	0	
0.2425	0.0167011	0.00164193	0.000747962	0.00074419	0	5	0	
0.242667	0.00117615	0.000438415	0.000604629	0.00087798	0	5	0	
0.242833	0.00249058	-0.000382804	0.000599659	0.000862508	0	5	0	
0.243	-0.0222096	0.00418153	0.000786598	0.000778605	0	5	0	
0.243167	0.0321282	-0.00392816	0.00099518	0.00060721	0	5	0	
0.243333	-0.0334378	-0.00768958	0.00103768	0.000398564	0	5	0	
0.2435	0.0357362	0.0161235	0.000957283	0.000290283	0	5	0	
0.243667	-0.0294896	-0.0162664	0.000864656	0.000335956	0	5	0	
0.243833	0.0122911	0.0174118	0.000715852	0.000432125	0	5	0	
0.244	0.000572944	-0.011117	0.000576672	0.000407446	0	5	0	
0.244167	0.00910244	-0.00392622	0.000632719	0.00030569	0	5	0	
0.244333	-0.0246328	0.018021	0.000851562	0.000282306	0	5	0	
0.2445	0.0290923	-0.0279994	0.0010426	0.000361639	0	5	0	
0.244667	-0.0285326	0.0344561	0.00102552	0.000549456	0	5	0	
0.244833	0.0218896	-0.0347399	0.000907373	0.000678154	0	5	0	
0.245	-0.0128446	0.0280207	0.000799442	0.000726994	0	5	0	
0.245167	0.0123924	-0.0191618	0.000753041	0.000718142	0	5	0	
0.245333	-0.0147507	0.0112066	0.000744289	0.000703175	0	5	0	
0.2455	0.0141748	-0.0100536	0.00074274	0.000707446	0	5	0	
0.245667	-0.0168795	0.00462046	0.00074703	0.000694079	0	5	0	
0.245833	0.0197392	-0.000252329	0.000775544	0.000630731	0	5	0	
0.246	-0.0194824	-0.00274091	0.000810932	0.000541848	0	5	0	
0.246167	0.0177452	0.00280104	0.000823421	0.000483716	0	5	0	
0.246333	-0.0198709	-0.00379586	0.000811913	0.000467799	0	5	0	
0.2465	0.019476	0.00102014	0.000798626	0.000430656	0	5	0	
0.246667	-0.0156469	-0.00211161	0.000783757	0.000349063	0	5	0	
0.246833	0.0131937	-0.00178325	0.000780132	0.000278096	0	5	0	
0.247	-0.0143153	0.00427274	0.000819288	0.000281457	0	5	0	
0.247167	0.0197305	-0.00598845	0.00088798	0.000324559	0	5	0	
0.247333	-0.0238501	0.00293436	0.000917836	0.000354962	0	5	0	
0.2475	0.0214743	-0.0075671	0.00086665	0.000366485	0	5	0	
0.247667	-0.012831	0.0136581	0.000775547	0.000394788	0	5	0	
0.247833	0.0122439	-0.00935731	0.000713496	0.000433449	0	5	0	
0.248	-0.0087294	0.00319137	0.000710101	0.000458111	0	5	0	
0.248167	0.0121151	-0.000934457	0.000708166	0.000454944	0	5	0	
0.248333	-0.00725795	-0.00505283	0.000682478	0.000407946	0	5	0	
0.2485	0.0071548	0.00862102	0.000658394	0.000374217	0	5	0	
0.248667	-0.0102396	0.000703801	0.000750912	0.000419709	0	5	0	
0.248833	0.0247354	-0.00936618	0.000911031	0.000511518	0	5	0	
0.249	-0.0241158	0.0084384	0.00101723	0.000478435	0	5	0	
0.249167	0.0255083	-0.0043854	0.000969758	0.000327964	0	5	0	
0.249333	-0.0237193	0.00529192	0.000880446	0.000169027	0	5	0	
0.2495	0.0229085	-0.00473113	0.000788828	0.000125733	0	5	0	
0.249667	-0.00702849	0.00349739	0.000717808	0.000145826	0	5	0	
0.249833	0.00241253	-0.00907929	0.000657916	0.000231766	0	5	0	
0.25	-0.008525	0.0158193	0.000731161	0.000374196	0	5	0	
0.250167	0.0189373	-0.0220807	0.000868481	0.000485946	0	5	0	
0.250333	-0.0218665	0.021296	0.000952734	0.000522802	0	5	0	
0.2505	0.0149559	-0.0165773	0.000885516	0.00048017	0	5	0	
0.250667	-0.00719464	0.00933979	0.000771125	0.000419905	0	5	0	
0.250833	0.00651196	-0.00752657	0.000735577	0.000365788	0	5	0	
0.251	-0.0118349	0.0127605	0.000789517	0.00036715	0	5	0	
0.251167	0.0117043	-0.0174418	0.000851856	0.000386811	0	5	0	
0.251333	-0.015438	0.015313	0.000852985	0.000386772	0	5	0	
0.2515	0.0144039	-0.0130286	0.000833412	0.000362894	0	5	0	
0.251667	-0.0164022	0.0148118	0.000822369	0.00035829	0	5	0	
0.251833	0.0113732	-0.0154332	0.000812152	0.000377101	0	5	0	
0.252	-0.00944026	0.0119538	0.000758939	0.000385548	0	5	0	
0.252167	0.00489884	-0.00986018	0.000712899	0.00038671	0	5	0	
0.252333	-0.0116604	0.00923786	0.000708502	0.000395362	0	5	0	
0.2525	0.0137822	-0.0127103	0.000761401	0.000405932	0	5	0	
0.252667	-0.0150271	0.0125846	0.000808207	0.000405798	0	5	0	
0.252833	0.00944884	-0.0138325	0.000827547	0.000401747	0	5	0	
0.253	-0.0102948	0.0106294	0.000816256	0.000415917	0	5	0	
0.253167	0.00960248	-0.00850789	0.000814333	0.000436913	0	5	0	
0.253333	-0.0133267	0.00583874	0.000806567	0.00045037	0	5	0	
0.2535	0.0119818	-0.0118425	0.000790887	0.000443361	0	5	0	
0.253667	-0.0109221	0.0122287	0.000759628	0.000417719	0	5	0	
0.253833	0.0046987	-0.00297167	0.000748594	0.000355035	0	5	0	
0.254	-0.00587648	-0.00796643	0.00076002	0.000298381	0	5	0	
0.254167	0.00566641	0.00758279	0.000796826	0.000330428	0	5	0	
0.254333	-0.0119941	-0.00539449	0.000825362	0.000430527	0	5	0	
0.2545	0.0117555	0.00125206	0.000829758	0.000529103	0	5	0	
0.254667	-0.0124904	0.00111801	0.000795399	0.000567251	0	5	0	
0.254833	0.00783141	0.000693023	0.000754791	0.000538141	0	5	0	
0.255	-0.00779628	-0.00152474	0.000713871	0.000433291	0	5	0	
0.255167	0.00286085	0.00963345	0.0006944	0.00030608	0	5	0	
0.255333	-0.00764839	-0.0135665	0.000704135	0.000255041	0	5	0	
0.2555	0.00976013	0.00823727	0.000759124	0.000280164	0	5	0	
0.255667	-0.0125788	-0.00184141	0.000812969	0.000290146	0	5	0	
0.255833	0.00992837	0.00430371	0.000830804	0.000230333	0	5	0	
0.256	-0.00906467	-0.000877152	0.000812005	0.000151612	0	5	0	
0.256167	0.00920739	0.00259976	0.000807081	0.000141739	0	5	0	
0.256333	-0.012029	0.00360604	0.000825357	0.000208071	0	5	0	
0.2565	0.011775	-0.0108848	0.000841094	0.00031619	0	5	0	
0.256667	-0.0122358	0.0167328	0.000820615	0.000403174	0	5	0	
0.256833	0.00755629	-0.0106318	0.000764931	0.000449806	0	5	0	
0.257	-0.00284132	0.0108539	0.000706121	0.000441838	0	5	0	
0.257167	0.00115563	-0.0033847	0.000694728	0.00042688	0	5	0	
0.257333	-0.00226268	0.00287388	0.000749449	0.000408813	0	5	0	
0.2575	0.00669165	-0.00143817	0.000834015	0.000439552	0	5	0	
0.257667	-0.00898692	0.00150953	0.000886194	0.000472196	0	5	0	
0.257833	0.00703846	0.00219831	0.000880284	0.000506059	0	5	0	
0.258	-0.00841933	-0.000390463	0.000837351	0.000520458	0	5	0	
0.258167	0.00552295	0.00474111	0.000779168	0.000521611	0	5	0	
0.258333	-0.00342649	-0.0045597	0.000717423	0.000509624	0	5	0	
0.2585	0.00211916	0.00643947	0.000684428	0.000490907	0	5	0	
0.258667	-0.00438248	-0.0051526	0.000701176	0.000460768	0	5	0	
0.258833	0.00589764	0.00560421	0.000747286	0.00042039	0	5	0	
0.259	-0.00876597	-0.00271149	0.000774352	0.000356733	0	5	0	
0.259167	0.00717624	0.00797424	0.000782094	0.000297124	0	5	0	
0.259333	-0.00708263	-0.0054115	0.000780704	0.000245785	0	5	0	
0.2595	0.00375394	0.00329238	0.000768128	0.000210647	0	5	0	
0.259667	-0.000487222	0.000224522	0.000747852	0.000191256	0	5	0	
0.259833	2.73349E-05	0.00456112	0.000770959	0.000210926	0	5	0	
0.26	-0.00406696	-0.000188115	0.000841922	0.000258918	0	5	0	
0.260167	0.00359791	-0.00167047	0.000901371	0.000302117	0	5	0	
0.260333	-0.00192447	0.00528844	0.000893857	0.000323349	0	5	0	
0.2605	0.00611085	-0.00478568	0.000836306	0.000360877	0	5	0	
0.260667	-0.00579511	0.00539507	0.000770209	0.000402873	0	5	0	
0.260833	-0.000985157	0.00051782	0.000720681	0.000421812	0	5	0	
0.261	0.00155055	0.00118307	0.00070754	0.000387124	0	5	0	
0.261167	0.00203855	0.00165039	0.000720939	0.000312661	0	5	0	
0.261333	-0.00382047	-0.012588	0.000730196	0.00025433	0	5	0	
0.2615	0.00585827	0.0186906	0.000724746	0.000279477	0	5	0	
0.261667	-0.00558228	-0.0141577	0.000692739	0.000407648	0	5	0	
0.261833	-0.00546155	0.00895776	0.0006183	0.000543427	0	5	0	
0.262	0.0151102	0.00410268	0.000563725	0.000582895	0	5	0	
0.262167	-0.00977808	-0.00293778	0.000631309	0.000511756	0	5	0	
0.262333	-0.00160065	-0.00143968	0.000861889	0.000390318	0	5	0	
0.2625	0.00761885	0.00962426	0.00109838	0.000308051	0	5	0	
0.262667	-0.0216799	-0.00609586	0.00120614	0.000267656	0	5	0	
0.262833	0.0247218	0.00445331	0.00115163	0.000230863	0	5	0	
0.263	-0.0115237	-0.0100329	0.000915082	0.000195624	0	5	0	
0.263167	-0.0103537	0.0200962	0.000591045	0.000206054	0	5	0	
0.263333	0.0212911	-0.0155825	0.00043072	0.000304332	0	5	0	
0.2635	-0.0183266	0.0124964	0.000576344	0.000382018	0	5	0	
0.263667	0.00373873	-0.00303045	0.000879737	0.000382491	0	5	0	
0.263833	0.00274096	-0.00575999	0.00109293	0.000387386	0	5	0	
0.264	-0.011276	0.0168272	0.00111291	0.000424978	0	5	0	
0.264167	0.00928457	-0.0125157	0.000981141	0.00044762	0	5	0	
0.264333	0.00287521	0.00467434	0.00077355	0.000364377	0	5	0	
0.2645	-0.00700791	0.000828357	0.000646508	0.000253788	0	5	0	
0.264667	0.00603916	-0.00193438	0.000672159	0.00023786	0	5	0	
0.264833	-0.0095945	-0.000185227	0.000782236	0.000296359	0	5	0	
0.265	0.0055821	0.00400486	0.000868222	0.000359315	0	5	0	
0.265167	0.000402519	-0.00153167	0.000888685	0.00036501	0	5	0	
0.265333	0.00366801	-0.00424157	0.000828859	0.000348823	0	5	0	
0.2655	-0.00653402	0.00646465	0.000742692	0.000349368	0	5	0	
0.265667	0.00697811	-0.00815251	0.00072199	0.000368395	0	5	0	
0.265833	-0.00272758	0.00683443	0.000788802	0.000398152	0	5	0	
0.266	0.000440662	-0.00345768	0.000854892	0.00043184	0	5	0	
0.266167	-0.00100295	0.00149892	0.000835758	0.000473909	0	5	0	
0.266333	0.00349781	-0.00443247	0.000763577	0.000509462	0	5	0	
0.2665	-0.00117583	0.00321505	0.000710538	0.000507341	0	5	0	
0.266667	-0.000251062	-0.00110653	0.000692569	0.000452646	0	5	0	
0.266833	-0.00318898	0.0038576	0.000675159	0.000373668	0	5	0	
0.267	0.00982678	-0.00802149	0.000665631	0.000313964	0	5	0	
0.267167	-0.00703358	0.00981961	0.000702044	0.000290196	0	5	0	
0.267333	-0.000836719	-0.0088923	0.000818865	0.000305195	0	5	0	
0.2675	0.0112832	0.00222361	0.000956045	0.000365916	0	5	0	
0.267667	-0.0177093	0.00559083	0.000996442	0.000418649	0	5	0	
0.267833	0.00574972	0.00313209	0.000886331	0.000386844	0	5	0	
0.268	0.00729749	-0.0107652	0.00071192	0.000311798	0	5	0	
0.268167	-0.00424756	0.00373771	0.000630543	0.000293912	0	5	0	
0.268333	0.010916	0.000237592	0.000625815	0.000364893	0	5	0	
0.2685	-0.027591	0.00717975	0.00067052	0.000387858	0	5	0	
0.268667	0.0275449	-0.0140381	0.000763572	0.000369496	0	5	0	
0.268833	-0.0117484	0.00814322	0.000961589	0.000370311	0	5	0	
0.269	-0.00218299	0.00267569	0.00113732	0.000414521	0	5	0	
0.269167	0.00986284	-0.000706517	0.00113214	0.000409861	0	5	0	
0.269333	-0.00603995	-0.00462711	0.000981517	0.000363199	0	5	0	
0.2695	0.00198359	0.00383745	0.000815137	0.000347377	0	5	0	
0.269667	-0.000356379	-0.000369391	0.000712079	0.000358935	0	5	0	
0.269833	-0.00172428	-0.0024736	0.000617616	0.000329565	0	5	0	
0.27	0.0104997	-0.00213288	0.000551989	0.000254363	0	5	0	
0.270167	-0.012103	0.00955991	0.000590374	0.000240326	0	5	0	
0.270333	0.00467193	-0.00520638	0.000737694	0.000326883	0	5	0	
0.2705	-0.00259781	-0.00263209	0.000866555	0.000444693	0	5	0	
0.270667	0.0101873	0.00100258	0.000875259	0.00047145	0	5	0	
0.270833	-0.0131165	0.00556762	0.000821304	0.000421571	0	5	0	
0.271	0.0127789	-0.00865668	0.000819438	0.000388321	0	5	0	
0.271167	-0.0109479	0.00437251	0.000876386	0.000393178	0	5	0	
0.271333	0.00678699	-0.00484087	0.000904406	0.000403969	0	5	0	
0.2715	-0.00857486	0.00981282	0.000878719	0.000400364	0	5	0	
0.271667	0.00938225	-0.0128066	0.000839988	0.000434265	0	5	0	
0.271833	-0.00504803	0.0136126	0.000814503	0.000493152	0	5	0	
0.272	0.00538765	-0.00681316	0.000786126	0.000504618	0	5	0	
0.272167	-0.0111705	-0.000705903	0.000746549	0.000432411	0	5	0	
0.272333	0.014171	-0.00432332	0.000725678	0.00033737	0	5	0	
0.2725	-0.0132731	0.00204664	0.000760776	0.000282304	0	5	0	
0.272667	0.00568193	0.00297673	0.000833374	0.000280594	0	5	0	
0.272833	-0.00460871	-0.00188507	0.000874915	0.000269112	0	5	0	
0.273	0.0105243	-0.00258786	0.000844499	0.0002243	0	5	0	
0.273167	-0.0141411	0.00453223	0.000791124	0.00017804	0	5	0	
0.273333	0.0118797	-0.00898424	0.000769586	0.000193884	0	5	0	
0.2735	-0.00712662	0.000640948	0.000783992	0.000254473	0	5	0	
0.273667	0.00445348	0.000274681	0.000808705	0.000358012	0	5	0	
0.273833	-0.00680858	-0.00253451	0.000831366	0.000457982	0	5	0	
0.274	0.0114056	0.00273255	0.000834266	0.000534799	0	5	0	
0.274167	-0.0126856	-0.00577461	0.000804993	0.000512811	0	5	0	
0.274333	0.0167037	-0.00441808	0.000786887	0.000407472	0	5	0	
0.2745	-0.019629	0.00775824	0.000813301	0.000292585	0	5	0	
0.274667	0.0177227	-0.0122624	0.000867318	0.000256273	0	5	0	
0.274833	-0.015966	0.0129447	0.000900632	0.00029747	0	5	0	
0.275	0.0178076	-0.0117159	0.000895713	0.000378303	0	5	0	
0.275167	-0.0163733	0.00888643	0.000840001	0.000419631	0	5	0	
0.275333	0.0191424	-0.00846992	0.000771005	0.000394327	0	5	0	
0.2755	-0.0169704	0.00347086	0.00072924	0.000308005	0	5	0	
0.275667	0.00660199	-0.00301632	0.000743121	0.00023813	0	5	0	
0.275833	-0.00148633	0.00386044	0.000772843	0.000220187	0	5	0	
0.276	0.00697191	-0.00741207	0.00076427	0.000257882	0	5	0	
0.276167	-0.0105403	0.00825862	0.000739642	0.000310431	0	5	0	
0.276333	0.0110932	-0.0033316	0.000729846	0.000355767	0	5	0	
0.2765	-0.00963619	0.00281105	0.000747803	0.00040716	0	5	0	
0.276667	0.0111743	-0.00828548	0.000776613	0.000453854	0	5	0	
0.276833	-0.0123735	0.00933183	0.000792568	0.000479623	0	5	0	
0.277	0.0172291	-0.0107257	0.000801692	0.000465564	0	5	0	
0.277167	-0.0200976	0.00870514	0.000806587	0.000413686	0	5	0	
0.277333	0.0196617	-0.0114663	0.000823105	0.000361776	0	5	0	
0.2775	-0.0153291	0.0136756	0.000845858	0.000350709	0	5	0	
0.277667	0.0133759	-0.0139503	0.000867836	0.00037903	0	5	0	
0.277833	-0.0123767	0.0119541	0.000869428	0.000411657	0	5	0	
0.278	0.0107527	-0.00736197	0.000848767	0.00039295	0	5	0	
0.278167	-0.00921038	0.00254939	0.00079219	0.000348796	0	5	0	
0.278333	0.0159707	-0.0025849	0.000722254	0.000298151	0	5	0	
0.2785	-0.0184834	0.00521846	0.000680266	0.000273542	0	5	0	
0.278667	0.0176687	-0.00652632	0.00071238	0.000261541	0	5	0	
0.278833	-0.020322	0.00666412	0.000778798	0.000254586	0	5	0	
0.279	0.0222126	-0.0068944	0.000827149	0.000251989	0	5	0	
0.279167	-0.0173867	0.0088959	0.000859591	0.000304665	0	5	0	
0.279333	0.00967881	-0.00183868	0.000889552	0.000388481	0	5	0	
0.2795	-0.00797907	0.00280093	0.000864017	0.000407558	0	5	0	
0.279667	0.0128964	-0.0148898	0.000778271	0.000345319	0	5	0	
0.279833	-0.0125585	0.0176031	0.0007059	0.000305479	0	5	0	
0.28	0.00909487	-0.0140938	0.000667845	0.000407634	0	5	0	
0.280167	-0.0208289	0.0091487	0.000619343	0.000542514	0	5	0	
0.280333	0.0352108	-0.00648755	0.000614897	0.000577238	0	5	0	
0.2805	-0.0306994	-0.00136798	0.000749734	0.000495071	0	5	0	
0.280667	0.0173387	0.0071075	0.000972301	0.000360531	0	5	0	
0.280833	-0.0118997	-0.00968297	0.00105656	0.000256382	0	5	0	
0.281	0.00921495	-0.00249903	0.000978784	0.000213513	0	5	0	
0.281167	-0.00437863	0.00278505	0.000851896	0.000160129	0	5	0	
0.281333	0.0102757	-0.0009735	0.000716591	0.000142706	0	5	0	
0.2815	-0.027496	0.000927532	0.000613387	0.000120696	0	5	0	
0.281667	0.0373389	-0.000634801	0.000619842	0.000211905	0	5	0	
0.281833	-0.0259413	-0.00694921	0.000765546	0.000377602	0	5	0	
0.282	0.0170648	0.00994245	0.000921651	0.000568982	0	5	0	
0.282167	-0.0131268	-0.00824012	0.000930587	0.000703436	0	5	0	
0.282333	0.0136106	0.00414742	0.000841992	0.000731212	0	5	0	
0.2825	-0.0169878	-0.00138323	0.000729904	0.000659277	0	5	0	
0.282667	0.0263599	-0.00907062	0.000685934	0.000540439	0	5	0	
0.282833	-0.0269779	0.0173793	0.000717223	0.000470375	0	5	0	
0.283	0.0256681	-0.0139158	0.000812986	0.000487061	0	5	0	
0.283167	-0.0191612	0.0110917	0.000876549	0.000561332	0	5	0	
0.283333	0.0152626	-0.010357	0.00087828	0.00056978	0	5	0	
0.2835	-0.0125329	0.00842092	0.000807625	0.000494249	0	5	0	
0.283667	0.0141126	-0.0101495	0.000731285	0.000378815	0	5	0	
0.283833	-0.018405	0.0123397	0.000690905	0.000308849	0	5	0	
0.284	0.0221553	-0.0130368	0.000713253	0.000310445	0	5	0	
0.284167	-0.0216678	0.00903652	0.000758919	0.0003705	0	5	0	
0.284333	0.0185605	-0.00840562	0.000793984	0.000434648	0	5	0	
0.2845	-0.0177599	0.00662685	0.000775026	0.000436695	0	5	0	
0.284667	0.0248758	-0.00955575	0.000772948	0.000373506	0	5	0	
0.284833	-0.0260093	0.00895251	0.000810045	0.000297272	0	5	0	
0.285	0.0221782	-0.00857753	0.000880047	0.000278729	0	5	0	
0.285167	-0.0255897	0.00710704	0.00090798	0.000302944	0	5	0	
0.285333	0.0239595	-0.014816	0.00088376	0.000343865	0	5	0	
0.2855	-0.0194528	0.0200496	0.000851047	0.000401721	0	5	0	
0.285667	0.0176777	-0.0135845	0.000825378	0.000445961	0	5	0	
0.285833	-0.0180947	0.00410099	0.000758717	0.000443089	0	5	0	
0.286	0.0302169	-0.00552789	0.000693671	0.000381953	0	5	0	
0.286167	-0.0375569	0.00690825	0.000718022	0.000357995	0	5	0	
0.286333	0.0269045	0.00112512	0.000842608	0.000461956	0	5	0	
0.2865	-0.010654	-0.00931872	0.000943378	0.000599802	0	5	0	
0.286667	0.0125413	0.00704766	0.000877037	0.000596144	0	5	0	
0.286833	-0.0159448	-0.0010323	0.000732605	0.000439028	0	5	0	
0.287	0.0178615	0.00452656	0.000646177	0.000318217	0	5	0	
0.287167	-0.0164155	0.00135685	0.000617565	0.000336895	0	5	0	
0.287333	0.0317698	-0.0159505	0.000636268	0.000432075	0	5	0	
0.2875	-0.0316845	0.0265959	0.000698434	0.000571613	0	5	0	
0.287667	0.0217522	-0.0188868	0.000849401	0.000708891	0	5	0	
0.287833	-0.0105347	0.0121757	0.000941923	0.000801007	0	5	0	
0.288	0.0165113	-0.00998629	0.000876329	0.000780585	0	5	0	
0.288167	-0.0222857	0.0168795	0.000728629	0.000739124	0	5	0	
0.288333	0.030728	-0.0249046	0.000666454	0.000720881	0	5	0	
0.2885	-0.0286335	0.0228196	0.000728291	0.000694183	0	5	0	
0.288667	0.0250287	-0.0145231	0.000814812	0.000612997	0	5	0	
0.288833	-0.0254653	0.0142401	0.000849804	0.000497296	0	5	0	
0.289	0.0256497	-0.0195271	0.000840581	0.000426313	0	5	0	
0.289167	-0.0225334	0.0209585	0.000825666	0.000433534	0	5	0	
0.289333	0.0175552	-0.0166977	0.000791087	0.000466588	0	5	0	
0.2895	-0.0194247	0.0099131	0.000736904	0.000433228	0	5	0	
0.289667	0.0227825	-0.010399	0.000699431	0.000339223	0	5	0	
0.289833	-0.0257754	0.0110932	0.000710054	0.000271721	0	5	0	
0.29	0.0279766	-0.0133779	0.000762281	0.000290465	0	5	0	
0.290167	-0.0258184	0.0120468	0.00078764	0.000347047	0	5	0	
0.290333	0.0236405	-0.00873193	0.000788563	0.00036867	0	5	0	
0.2905	-0.0236849	0.00805222	0.000761245	0.000351509	0	5	0	
0.290667	0.0278773	-0.00426158	0.000770038	0.00032474	0	5	0	
0.290833	-0.030307	0.00524748	0.00079117	0.000326625	0	5	0	
0.291	0.0302681	-0.00806643	0.000829419	0.000331735	0	5	0	
0.291167	-0.0284402	0.0107222	0.000835771	0.000340662	0	5	0	
0.291333	0.0270013	-0.0103682	0.000834949	0.000349218	0	5	0	
0.2915	-0.0233277	0.0114805	0.000813574	0.000385481	0	5	0	
0.291667	0.0259578	-0.00910187	0.000805957	0.000403244	0	5	0	
0.291833	-0.0287657	0.0130614	0.000777725	0.000412565	0	5	0	
0.292	0.0311322	-0.0153586	0.000770238	0.000416854	0	5	0	
0.292167	-0.0338095	0.0173922	0.000776877	0.000438754	0	5	0	
0.292333	0.0306518	-0.0173766	0.000807415	0.000446183	0	5	0	
0.2925	-0.0293295	0.0194801	0.00082333	0.000438851	0	5	0	
0.292667	0.0282363	-0.0162041	0.000826411	0.00041965	0	5	0	
0.292833	-0.0249784	0.0143153	0.000811004	0.000393196	0	5	0	
0.293	0.0252887	-0.0153723	0.00079198	0.000366485	0	5	0	
0.293167	-0.0267136	0.0142736	0.000746921	0.000342673	0	5	0	
0.293333	0.0285342	-0.0123876	0.00072876	0.000334667	0	5	0	
0.2935	-0.0299238	0.0100279	0.000732686	0.000300681	0	5	0	
0.293667	0.0298537	-0.00943207	0.000763877	0.000263571	0	5	0	
0.293833	-0.0298736	0.00906732	0.000773674	0.000225101	0	5	0	
0.294	0.0292904	-0.0131764	0.000785147	0.000249229	0	5	0	
0.294167	-0.0244699	0.0104699	0.000772632	0.000289542	0	5	0	
0.294333	0.0281253	-0.0105352	0.000773347	0.000328491	0	5	0	
0.2945	-0.0320238	0.00922795	0.000757117	0.000316802	0	5	0	
0.294667	0.033446	-0.0104902	0.00077812	0.00030338	0	5	0	
0.294833	-0.0320459	0.0124679	0.000786194	0.00030163	0	5	0	
0.295	0.029976	-0.0175865	0.000802401	0.000322787	0	5	0	
0.295167	-0.0274629	0.0195585	0.000781652	0.000355824	0	5	0	
0.295333	0.0300694	-0.0196094	0.00077979	0.000383025	0	5	0	
0.2955	-0.0325422	0.0199623	0.000776451	0.000411458	0	5	0	
0.295667	0.0333071	-0.023607	0.000799612	0.000431056	0	5	0	
0.295833	-0.0324985	0.0255278	0.000812326	0.000468889	0	5	0	
0.296	0.0288176	-0.0236373	0.000820626	0.000498116	0	5	0	
0.296167	-0.025336	0.0210386	0.000787529	0.000526257	0	5	0	
0.296333	0.0254138	-0.0144767	0.000746465	0.000512485	0	5	0	
0.2965	-0.0272764	0.00741994	0.000711032	0.000447411	0	5	0	
0.296667	0.0284462	-0.00557536	0.000713333	0.000344452	0	5	0	
0.296833	-0.0341159	0.0106616	0.000731429	0.000261327	0	5	0	
0.297	0.0360814	-0.0153368	0.000770582	0.000244086	0	5	0	
0.297167	-0.0321781	0.0204558	0.000805841	0.000287623	0	5	0	
0.297333	0.0297064	-0.0196254	0.000819806	0.00035865	0	5	0	
0.2975	-0.0323314	0.0162841	0.000809459	0.000384748	0	5	0	
0.297667	0.0367847	-0.0147239	0.000819336	0.000382037	0	5	0	
0.297833	-0.0350239	0.01256	0.000847105	0.000376137	0	5	0	
0.298	0.030911	-0.00798666	0.000856328	0.000377485	0	5	0	
0.298167	-0.0290314	0.00929803	0.000814284	0.000356253	0	5	0	
0.298333	0.0275987	-0.00882374	0.000757861	0.000308204	0	5	0	
0.2985	-0.0295301	0.00551198	0.000734836	0.00024203	0	5	0	
0.298667	0.0356033	-0.0121454	0.000750329	0.000201597	0	5	0	
0.298833	-0.0330234	0.0319869	0.000789694	0.000257443	0	5	0	
0.299	0.026803	-0.0367229	0.000798376	0.000431211	0	5	0	
0.299167	-0.0160654	0.0260546	0.000763683	0.000627713	0	5	0	
0.299333	0.0239769	-0.0122851	0.000673177	0.000722932	0	5	0	
0.2995	-0.0410958	0.00673397	0.000647336	0.000716452	0	5	0	
0.299667	0.0466687	-0.0041877	0.000711214	0.000672231	0	5	0	
0.299833	-0.0452105	0.00731747	0.000838609	0.000592554	0	5	0	
0.3	0.0402197	-0.00740136	0.00092099	0.00044297	0	5	0	
0.300167	-0.0269892	0.0171041	0.000933157	0.000323505	0	5	0	
0.300333	0.0196986	-0.0264448	0.000887253	0.000310164	0	5	0	
0.3005	-0.0199311	0.036087	0.000774084	0.000437448	0	5	0	
0.300667	0.0218486	-0.0372854	0.000637056	0.000581115	0	5	0	
0.300833	-0.0272257	0.0309826	0.000549807	0.000671218	0	5	0	
0.301	0.0324797	-0.0243781	0.000567735	0.00064924	0	5	0	
0.301167	-0.0322057	0.022412	0.000632952	0.000580806	0	5	0	
0.301333	0.0270068	-0.00951948	0.000716785	0.000479503	0	5	0	
0.3015	-0.0298544	-0.000774356	0.00077006	0.000394619	0	5	0	
0.301667	0.0357385	0.000835614	0.000790628	0.000276154	0	5	0	
0.301833	-0.0400818	0.00817866	0.000803773	0.000208224	0	5	0	
0.302	0.037672	-0.0100793	0.00080122	0.00024779	0	5	0	
0.302167	-0.035089	0.00956584	0.000828568	0.000357118	0	5	0	
0.302333	0.035727	-0.0110386	0.000850937	0.000437243	0	5	0	
0.3025	-0.0385691	0.0127259	0.000880505	0.000454519	0	5	0	
0.302667	0.0376144	-0.01871	0.0008897	0.000480384	0	5	0	
0.302833	-0.0363554	0.0291099	0.000859064	0.000555487	0	5	0	
0.303	0.0315273	-0.027949	0.000791448	0.000636531	0	5	0	
0.303167	-0.0322041	0.0267982	0.000737585	0.000655123	0	5	0	
0.303333	0.0388432	-0.0227639	0.0007271	0.000594594	0	5	0	
0.3035	-0.040317	0.0217313	0.000778295	0.000506231	0	5	0	
0.303667	0.0381226	-0.0227224	0.000841931	0.00045274	0	5	0	
0.303833	-0.0310552	0.0208895	0.000849425	0.000448734	0	5	0	
0.304	0.0304165	-0.0153014	0.000806024	0.000433682	0	5	0	
0.304167	-0.0315872	0.01413	0.000742987	0.000385709	0	5	0	
0.304333	0.0377194	-0.00914099	0.000733448	0.00030446	0	5	0	
0.3045	-0.0366548	0.00906791	0.000768782	0.000247815	0	5	0	
0.304667	0.0321648	-0.0103723	0.000800856	0.000244717	0	5	0	
0.304833	-0.0273074	0.0128459	0.000772487	0.00028175	0	5	0	
0.305	0.038935	-0.0173195	0.000723686	0.000324334	0	5	0	
0.305167	-0.0524231	0.0165389	0.000748693	0.000344083	0	5	0	
0.305333	0.0544566	-0.0068483	0.000879208	0.000356051	0	5	0	
0.3055	-0.0421883	-0.000605322	0.0010332	0.000370541	0	5	0	
0.305667	0.0325791	-0.00544403	0.0010625	0.000299708	0	5	0	
0.305833	-0.0289521	0.0131075	0.000974576	0.000242924	0	5	0	
0.306	0.0217685	-0.0139176	0.00081464	0.000207332	0	5	0	
0.306167	-0.0237611	0.0134196	0.000661557	0.000263205	0	5	0	
0.306333	0.0425294	-0.0258016	0.000622672	0.000321522	0	5	0	
0.3065	-0.0573292	0.0302983	0.000721929	0.000421201	0	5	0	
0.306667	0.0520575	-0.0244523	0.000912509	0.000540505	0	5	0	
0.306833	-0.038865	0.0170901	0.00101897	0.000593716	0	5	0	
0.307	0.0276331	-0.018741	0.000961819	0.000554254	0	5	0	
0.307167	-0.0282905	0.0174855	0.000812775	0.000485178	0	5	0	
0.307333	0.0357671	-0.016088	0.000703713	0.00042264	0	5	0	
0.3075	-0.0424343	0.0139191	0.000705305	0.000367023	0	5	0	
0.307667	0.0422289	-0.0150819	0.000788448	0.000318429	0	5	0	
0.307833	-0.0398913	0.0145283	0.000840869	0.000304654	0	5	0	
0.308	0.0371062	-0.020643	0.000845732	0.000322931	0	5	0	
0.308167	-0.0370584	0.0242767	0.000823403	0.000382567	0	5	0	
0.308333	0.0356535	-0.0241248	0.000806508	0.000432687	0	5	0	
0.3085	-0.0410191	0.0297853	0.000804595	0.000505259	0	5	0	
0.308667	0.0408963	-0.0330677	0.000812235	0.000555799	0	5	0	
0.308833	-0.0389039	0.0330769	0.00082679	0.000635729	0	5	0	
0.309	0.03702	-0.0300907	0.000818011	0.000664004	0	5	0	
0.309167	-0.0400023	0.0270986	0.000803742	0.000651704	0	5	0	
0.309333	0.0406447	-0.0238119	0.00079376	0.000581175	0	5	0	
0.3095	-0.0422527	0.024892	0.000804255	0.000529081	0	5	0	
0.309667	0.0426346	-0.0242422	0.00082038	0.000494261	0	5	0	
0.309833	-0.0426054	0.0276685	0.000831489	0.000504126	0	5	0	
0.31	0.0400638	-0.0283148	0.000835986	0.000514184	0	5	0	
0.310167	-0.0352412	0.0293017	0.000816828	0.000541428	0	5	0	
0.310333	0.0339906	-0.0283537	0.000768363	0.000552403	0	5	0	
0.3105	-0.0380989	0.0237045	0.000730225	0.00054488	0	5	0	
0.310667	0.0395236	-0.0204146	0.000731877	0.000492604	0	5	0	
0.310833	-0.0364951	0.0170898	0.00075263	0.000429969	0	5	0	
0.311	0.0379676	-0.0141349	0.000772082	0.000363239	0	5	0	
0.311167	-0.0378521	0.0166947	0.000750827	0.00032984	0	5	0	
0.311333	0.039133	-0.015766	0.000756709	0.000318128	0	5	0	
0.3115	-0.0411908	0.0145659	0.00076185	0.000318218	0	5	0	
0.311667	0.0379543	-0.017487	0.000788824	0.000311237	0	5	0	
0.311833	-0.0383246	0.0176284	0.000787048	0.00031451	0	5	0	
0.312	0.0389802	-0.0163012	0.000785162	0.000324161	0	5	0	
0.312167	-0.0402647	0.0174267	0.000768161	0.00033903	0	5	0	
0.312333	0.0412502	-0.014151	0.000781339	0.000322238	0	5	0	
0.3125	-0.0402587	0.0126258	0.000779071	0.000298002	0	5	0	
0.312667	0.0377939	-0.0106086	0.000786967	0.000270281	0	5	0	
0.312833	-0.0408078	0.0109829	0.00077572	0.00024343	0	5	0	
0.313	0.0402989	-0.0116893	0.000775882	0.000231184	0	5	0	
0.313167	-0.0422217	0.0112463	0.000784252	0.000223614	0	5	0	
0.313333	0.0420536	-0.0106152	0.00079289	0.000211133	0	5	0	
0.3135	-0.0409684	0.0167455	0.000810539	0.000232796	0	5	0	
0.313667	0.0405788	-0.0161634	0.000810961	0.000272498	0	5	0	
0.313833	-0.0393889	0.0131488	0.000807416	0.000318363	0	5	0	
0.314	0.0389333	-0.00876816	0.00078142	0.000294162	0	5	0	
0.314167	-0.0437425	0.0102178	0.000783356	0.000245834	0	5	0	
0.314333	0.0446431	-0.0148012	0.000802057	0.000224246	0	5	0	
0.3145	-0.0430144	0.0226011	0.000841736	0.000275393	0	5	0	
0.314667	0.0401893	-0.0230351	0.000834666	0.000360975	0	5	0	
0.314833	-0.0376735	0.0208328	0.000810092	0.000427145	0	5	0	
0.315	0.0386785	-0.0136909	0.000759331	0.000414156	0	5	0	
0.315167	-0.0436206	0.0116844	0.000759234	0.000333962	0	5	0	
0.315333	0.0431417	-0.00867456	0.000778782	0.000244138	0	5	0	
0.3155	-0.043786	0.0118602	0.000813395	0.000201399	0	5	0	
0.315667	0.0451387	-0.01356	0.000833983	0.000209758	0	5	0	
0.315833	-0.0450152	0.0161902	0.000848486	0.000245636	0	5	0	
0.316	0.0452558	-0.0213113	0.000853165	0.000295849	0	5	0	
0.316167	-0.0439387	0.0237112	0.000859943	0.000356027	0	5	0	
0.316333	0.0426842	-0.0257312	0.000841455	0.000419455	0	5	0	
0.3165	-0.0403986	0.0301385	0.000824117	0.000488519	0	5	0	
0.316667	0.0412108	-0.0273263	0.000801626	0.000528688	0	5	0	
0.316833	-0.0391526	0.0221999	0.00078416	0.000522161	0	5	0	
0.317	0.0410019	-0.0242724	0.000775163	0.000495272	0	5	0	
0.317167	-0.0410716	0.0222606	0.000764987	0.000485845	0	5	0	
0.317333	0.0411396	-0.020642	0.000765447	0.000489816	0	5	0	
0.3175	-0.0386729	0.0249085	0.000764866	0.000526851	0	5	0	
0.317667	0.0432994	-0.0357838	0.000767632	0.000639503	0	5	0	
0.317833	-0.0387729	0.0473525	0.00077244	0.000784603	0	5	0	
0.318	0.0329556	-0.0459097	0.000750931	0.000871253	0	5	0	
0.318167	-0.0374303	0.0279524	0.000716468	0.000822649	0	5	0	
0.318333	0.0520612	-0.0136391	0.000744879	0.000651675	0	5	0	
0.3185	-0.0564311	0.010702	0.000847963	0.000464414	0	5	0	
0.318667	0.0541203	-0.00611512	0.000967511	0.000291151	0	5	0	
0.318833	-0.0482355	0.00794365	0.00101679	0.00024114	0	5	0	
0.319	0.034864	-0.0155016	0.000973877	0.000238781	0	5	0	
0.319167	-0.0204672	0.00972985	0.000862297	0.000285133	0	5	0	
0.319333	0.0165554	-0.0122978	0.000660508	0.000309344	0	5	0	
0.3195	-0.0341961	0.0247666	0.000590949	0.000363998	0	5	0	
0.319667	0.0563944	-0.0282848	0.000688502	0.000439079	0	5	0	
0.319833	-0.0604037	0.0283197	0.000913836	0.000525356	0	5	0	
0.32	0.0560159	-0.0334667	0.00105721	0.000576423	0	5	0	
0.320167	-0.0498634	0.0242864	0.00105927	0.000563904	0	5	0	
0.320333	0.0351778	-0.0102349	0.000993147	0.000505563	0	5	0	
0.3205	-0.0258439	-0.000886396	0.000820504	0.00038343	0	5	0	
0.320667	0.0324372	-9.54609E-05	0.000686691	0.000252815	0	5	0	
0.320833	-0.0390656	0.0106477	0.000615722	0.000221939	0	5	0	
0.321	0.0462488	-0.0132012	0.00069021	0.000239867	0	5	0	
0.321167	-0.0490487	0.0106213	0.000782968	0.000254116	0	5	0	
0.321333	0.044618	-0.0110968	0.000850349	0.000224903	0	5	0	
0.3215	-0.0383591	0.0148714	0.000833239	0.000218318	0	5	0	
0.321667	0.0376922	-0.0161281	0.000780781	0.000267081	0	5	0	
0.321833	-0.0386033	0.0169648	0.000718932	0.000302368	0	5	0	
0.322	0.0408729	-0.0156165	0.000709022	0.000316695	0	5	0	
0.322167	-0.0399149	0.0176768	0.00073057	0.000315747	0	5	0	
0.322333	0.0395981	-0.0196647	0.00074828	0.000325641	0	5	0	
0.3225	-0.0428915	0.0209765	0.000769664	0.00035717	0	5	0	
0.322667	0.0466545	-0.0189013	0.000792837	0.000386556	0	5	0	
0.322833	-0.0471299	0.0170115	0.000835667	0.00038175	0	5	0	
0.323	0.0482822	-0.0216092	0.000864566	0.000367128	0	5	0	
0.323167	-0.0451033	0.0218757	0.000877078	0.000370647	0	5	0	
0.323333	0.0435685	-0.023311	0.000856685	0.000388371	0	5	0	
0.3235	-0.0424686	0.0278166	0.000830469	0.00044069	0	5	0	
0.323667	0.0401691	-0.0249321	0.000786977	0.000468309	0	5	0	
0.323833	-0.0305642	0.0166577	0.000732768	0.000460419	0	5	0	
0.324	0.0305088	-0.0152863	0.000658083	0.000393161	0	5	0	
0.324167	-0.0392744	0.0218395	0.000655973	0.000376279	0	5	0	
0.324333	0.0481049	-0.0345805	0.000727173	0.000450526	0	5	0	
0.3245	-0.0437794	0.0334866	0.000814952	0.000568823	0	5	0	
0.324667	0.0450407	-0.0210848	0.000845832	0.000581795	0	5	0	
0.324833	-0.0538857	0.0240533	0.00086757	0.000526962	0	5	0	
0.325	0.0559768	-0.0272337	0.000925857	0.000465165	0	5	0	
0.325167	-0.0417492	0.0190295	0.000953195	0.000446973	0	5	0	
0.325333	0.0309615	-0.0171382	0.000871433	0.000415523	0	5	0	
