0	-0.0155265	0.00516622	1.55265E-06	5.16622E-07	0	5	0	
0.000166667	0.00390476	-0.0041689	0.00029478	0.000114352	0	5	0	
0.000333333	0.00300478	0.0018537	0.000864774	0.000308544	0	5	0	
0.0005	-0.0141917	-0.00107641	0.00152462	0.000528209	0	5	0	
0.000666667	0.0202241	-0.00385131	0.00187658	0.000633272	0	5	0	
0.000833333	-0.0197095	0.00778008	0.00189969	0.000634103	0	5	0	
0.001	0.00944358	-0.00318113	0.0017465	0.000583156	0	5	0	
0.00116667	0.0227192	-0.00719361	0.00159535	0.000520308	0	5	0	
0.00133333	-0.0613173	0.0288899	0.00166447	0.000564632	0	5	0	
0.0015	0.0703891	-0.0372106	0.00192622	0.000691024	0	5	0	
0.00166667	-0.0705265	0.0303544	0.00225985	0.000865994	0	5	0	
0.00183333	0.0665631	-0.0271766	0.00244448	0.000903217	0	5	0	
0.002	-0.0634636	0.0283398	0.002518	0.000889825	0	5	0	
0.00216667	0.0677012	-0.0280829	0.00251466	0.00088038	0	5	0	
0.00233333	-0.0722795	0.0328657	0.00252891	0.00094407	0	5	0	
0.0025	0.064438	-0.0268266	0.00259685	0.000953422	0	5	0	
0.00266667	-0.0542307	0.030665	0.00267959	0.000917866	0	5	0	
0.00283333	0.062214	-0.0257834	0.00264723	0.000834286	0	5	0	
0.003	-0.0764884	0.023056	0.00255036	0.000841416	0	5	0	
0.00316667	0.0745036	-0.0321064	0.0025523	0.000857994	0	5	0	
0.00333333	-0.0601449	0.0311929	0.00269654	0.000911974	0	5	0	
0.0035	0.0528508	-0.0262314	0.00276992	0.000933212	0	5	0	
0.00366667	-0.0621114	0.0246338	0.00267312	0.000926944	0	5	0	
0.00383333	0.0699965	-0.0313476	0.0025366	0.000890162	0	5	0	
0.004	-0.0688752	0.0390744	0.00253083	0.000899619	0	5	0	
0.00416667	0.0647822	-0.0257723	0.00259574	0.000884413	0	5	0	
0.00433333	-0.0676027	0.0243667	0.00266163	0.000871908	0	5	0	
0.0045	0.0630206	-0.0298055	0.00270422	0.000799083	0	5	0	
0.00466667	-0.053758	0.0350365	0.00275228	0.000834575	0	5	0	
0.00483333	0.0517071	-0.0347074	0.00272166	0.000903253	0	5	0	
0.005	-0.0584876	0.0311039	0.00260424	0.000958165	0	5	0	
0.00516667	0.064595	-0.022913	0.00247375	0.000910278	0	5	0	
0.00533333	-0.0700129	0.0265199	0.00247752	0.000900707	0	5	0	
0.0055	0.0656121	-0.0229409	0.00256791	0.000923949	0	5	0	
0.00566667	-0.0632102	0.0271445	0.00264967	0.000966887	0	5	0	
0.00583333	0.0659152	-0.0291565	0.00263977	0.000912043	0	5	0	
0.006	-0.0659812	0.0314233	0.00262551	0.000860316	0	5	0	
0.00616667	0.064092	-0.0359103	0.00264236	0.000875144	0	5	0	
0.00633333	-0.06434	0.0319195	0.00266745	0.000926388	0	5	0	
0.0065	0.0641805	-0.0272491	0.00265675	0.000923495	0	5	0	
0.00666667	-0.0631734	0.0240889	0.00264735	0.000880785	0	5	0	
0.00683333	0.0609472	-0.0224117	0.00263793	0.000867053	0	5	0	
0.007	-0.0634884	0.0266857	0.00263167	0.00090434	0	5	0	
0.00716667	0.0659072	-0.0348437	0.00260871	0.000935084	0	5	0	
0.00733333	-0.0636356	0.0311719	0.00261672	0.000934689	0	5	0	
0.0075	0.0565419	-0.0268931	0.00262238	0.000919655	0	5	0	
0.00766667	-0.0633533	0.0178024	0.00259986	0.000901807	0	5	0	
0.00783333	0.0714846	-0.0268503	0.00253422	0.000915843	0	5	0	
0.008	-0.0724182	0.0347725	0.00255144	0.000935318	0	5	0	
0.00816667	0.0639071	-0.0293509	0.00265173	0.000945117	0	5	0	
0.00833333	-0.0585438	0.0223953	0.00273009	0.000905192	0	5	0	
0.0085	0.063467	-0.0246526	0.00268114	0.000845825	0	5	0	
0.00866667	-0.0697398	0.0233653	0.00260825	0.000816163	0	5	0	
0.00883333	0.0613324	-0.0308183	0.00258814	0.000871853	0	5	0	
0.009	-0.0592481	0.0229329	0.00262092	0.000905291	0	5	0	
0.00916667	0.0643657	-0.0189327	0.0025961	0.000882158	0	5	0	
0.00933333	-0.0687258	0.0199876	0.002566	0.000803142	0	5	0	
0.0095	0.0660178	-0.0309644	0.00256126	0.000829992	0	5	0	
0.00966667	-0.0635873	0.0307351	0.00261044	0.000928482	0	5	0	
0.00983333	0.0609688	-0.0274473	0.00263144	0.00101279	0	5	0	
0.01	-0.0647161	0.0216017	0.00263316	0.000945181	0	5	0	
0.0101667	0.0690155	-0.0232997	0.00261723	0.000839247	0	5	0	
0.0103333	-0.0673002	0.0213164	0.00263606	0.000788028	0	5	0	
0.0105	0.0628467	-0.0255788	0.00264626	0.000850744	0	5	0	
0.0106667	-0.0643097	0.0280816	0.00264144	0.000909475	0	5	0	
0.0108333	0.0671562	-0.0285172	0.00260655	0.000926748	0	5	0	
0.011	-0.0694087	0.0211026	0.0026062	0.000886774	0	5	0	
0.0111667	0.0691221	-0.0206226	0.00262286	0.000858422	0	5	0	
0.0113333	-0.0648337	0.0285727	0.00264095	0.000836733	0	5	0	
0.0115	0.0636646	-0.0348783	0.00262398	0.000860827	0	5	0	
0.0116667	-0.0616021	0.036732	0.00258806	0.000943954	0	5	0	
0.0118333	0.0643472	-0.0297002	0.00255824	0.0010251	0	5	0	
0.012	-0.0669724	0.0263896	0.00255679	0.0010697	0	5	0	
0.0121667	0.0671357	-0.0268286	0.00257027	0.00103096	0	5	0	
0.0123333	-0.0659738	0.0234577	0.00259102	0.000979155	0	5	0	
0.0125	0.0676625	-0.0229136	0.00259972	0.000945413	0	5	0	
0.0126667	-0.0639652	0.0284016	0.00261275	0.000929187	0	5	0	
0.0128333	0.0637134	-0.0309413	0.00263594	0.000905985	0	5	0	
0.013	-0.0634899	0.0344354	0.00265219	0.000899102	0	5	0	
0.0131667	0.065555	-0.0291808	0.00263773	0.000866606	0	5	0	
0.0133333	-0.067009	0.0251205	0.0026132	0.000846532	0	5	0	
0.0135	0.0658763	-0.0273977	0.00259065	0.000832245	0	5	0	
0.0136667	-0.0653385	0.0305081	0.00259288	0.000899163	0	5	0	
0.0138333	0.0673286	-0.0269934	0.00259503	0.000942558	0	5	0	
0.014	-0.0671208	0.0228776	0.00260987	0.000908577	0	5	0	
0.0141667	0.0666343	-0.0186627	0.00260494	0.00080659	0	5	0	
0.0143333	-0.0682112	0.0225428	0.00259333	0.000755169	0	5	0	
0.0145	0.0689397	-0.0280471	0.002573	0.000781489	0	5	0	
0.0146667	-0.0714437	0.0314862	0.00259303	0.000887519	0	5	0	
0.0148333	0.073646	-0.0259599	0.00263287	0.000941512	0	5	0	
0.015	-0.0698469	0.0164018	0.00268601	0.000911589	0	5	0	
0.0151667	0.0647074	-0.0216684	0.00271281	0.000783943	0	5	0	
0.0153333	-0.0661935	0.0251572	0.00272179	0.00071416	0	5	0	
0.0155	0.0634371	-0.023514	0.00270437	0.000740991	0	5	0	
0.0156667	-0.0591124	0.027966	0.00269109	0.000815081	0	5	0	
0.0158333	0.0603191	-0.030018	0.00260078	0.000877056	0	5	0	
0.016	-0.0737035	0.024685	0.00249529	0.000941714	0	5	0	
0.0161667	0.0803688	-0.0164032	0.00246952	0.000953476	0	5	0	
0.0163333	-0.0741651	0.0195095	0.00260947	0.000909291	0	5	0	
0.0165	0.066232	-0.0318405	0.00274326	0.000852163	0	5	0	
0.0166667	-0.0697111	0.0321455	0.00275286	0.000877568	0	5	0	
0.0168333	0.073188	-0.0264952	0.00266489	0.000932025	0	5	0	
0.017	-0.0711286	0.0300364	0.00265031	0.000929565	0	5	0	
0.0171667	0.0668017	-0.0286863	0.00267859	0.000874595	0	5	0	
0.0173333	-0.0681897	0.0307298	0.00267815	0.000868659	0	5	0	
0.0175	0.0747012	-0.0290987	0.0026189	0.000880003	0	5	0	
0.0176667	-0.0744284	0.0232885	0.00260712	0.000894179	0	5	0	
0.0178333	0.0687599	-0.0243013	0.00265239	0.000863079	0	5	0	
0.018	-0.0647329	0.0329957	0.00267999	0.000873725	0	5	0	
0.0181667	0.0704601	-0.0365645	0.00264119	0.000909526	0	5	0	
0.0183333	-0.0714086	0.0357644	0.00260859	0.000953355	0	5	0	
0.0185	0.0700532	-0.0293512	0.00262603	0.000924147	0	5	0	
0.0186667	-0.0688066	0.0267267	0.00266791	0.000888637	0	5	0	
0.0188333	0.0676161	-0.0299496	0.00265488	0.000862488	0	5	0	
0.019	-0.0711775	0.0321793	0.00261013	0.000889033	0	5	0	
0.0191667	0.0792446	-0.0271899	0.00259015	0.000892875	0	5	0	
0.0193333	-0.0731562	0.0283136	0.00265098	0.000880289	0	5	0	
0.0195	0.0654884	-0.0253961	0.00271408	0.000831688	0	5	0	
0.0196667	-0.0672955	0.0284926	0.00268013	0.00083459	0	5	0	
0.0198333	0.0767952	-0.0276129	0.00259237	0.000834931	0	5	0	
0.02	-0.0741214	0.0260889	0.00258594	0.000859141	0	5	0	
0.0201667	0.069658	-0.0297968	0.00264231	0.000875873	0	5	0	
0.0203333	-0.0747349	0.0346237	0.0026705	0.000923043	0	5	0	
0.0205	0.0776956	-0.0317049	0.0026601	0.000935941	0	5	0	
0.0206667	-0.0659788	0.0360216	0.00270495	0.000939668	0	5	0	
0.0208333	0.068612	-0.0346552	0.00273619	0.000969184	0	5	0	
0.021	-0.075178	0.0193062	0.00265798	0.00102803	0	5	0	
0.0211667	0.0842518	-0.0225221	0.0025823	0.00100802	0	5	0	
0.0213333	-0.0719967	0.031917	0.00259337	0.000929381	0	5	0	
0.0215	0.0717907	-0.0317451	0.00266758	0.000883019	0	5	0	
0.0216667	-0.0758864	0.0322719	0.00267875	0.000902499	0	5	0	
0.0218333	0.075912	-0.0389517	0.00266936	0.000920954	0	5	0	
0.022	-0.0578399	0.0416519	0.00266405	0.000926436	0	5	0	
0.0221667	0.0608768	-0.0449101	0.00264082	0.000963984	0	5	0	
0.0223333	-0.0629202	0.0401416	0.00254669	0.00106644	0	5	0	
0.0225	0.0737696	-0.0333447	0.00250669	0.00110936	0	5	0	
0.0226667	-0.069714	0.0280698	0.00253543	0.00104778	0	5	0	
0.0228333	0.0701928	-0.0272601	0.00259279	0.000936868	0	5	0	
0.023	-0.0752201	0.0251732	0.00262422	0.000889843	0	5	0	
0.0231667	0.0770067	-0.0265163	0.00265345	0.000883238	0	5	0	
0.0233333	-0.0704514	0.0281175	0.00273077	0.000828446	0	5	0	
0.0235	0.0683455	-0.0276379	0.0027554	0.00072668	0	5	0	
0.0236667	-0.0691526	0.0295283	0.00271661	0.000706409	0	5	0	
0.0238333	0.0688376	-0.0334815	0.00264526	0.000768213	0	5	0	
0.024	-0.0688968	0.0269124	0.00262641	0.000856679	0	5	0	
0.0241667	0.0656683	-0.0269754	0.00259418	0.00087431	0	5	0	
0.0243333	-0.0675648	0.0217663	0.00256397	0.000813513	0	5	0	
0.0245	0.0693704	-0.0240405	0.00253606	0.000776608	0	5	0	
0.0246667	-0.0708986	0.033392	0.00259175	0.000819434	0	5	0	
0.0248333	0.0695234	-0.0337845	0.00265529	0.000900498	0	5	0	
0.025	-0.0713733	0.0278953	0.00270301	0.000941919	0	5	0	
0.0251667	0.0669025	-0.0315274	0.00268039	0.000919068	0	5	0	
0.0253333	-0.0672142	0.0270665	0.00265589	0.00088511	0	5	0	
0.0255	0.0707178	-0.0259297	0.00263853	0.000859147	0	5	0	
0.0256667	-0.0748945	0.0337545	0.00266891	0.000865858	0	5	0	
0.0258333	0.0750222	-0.026588	0.00269401	0.000877186	0	5	0	
0.026	-0.0751495	0.0212272	0.00271666	0.00087716	0	5	0	
0.0261667	0.0716764	-0.0263978	0.00270895	0.000832397	0	5	0	
0.0263333	-0.069624	0.0298718	0.0027031	0.000803509	0	5	0	
0.0265	0.0700805	-0.0307558	0.00267314	0.000814031	0	5	0	
0.0266667	-0.0747954	0.0321081	0.00264559	0.000857117	0	5	0	
0.0268333	0.0784541	-0.029171	0.00262584	0.0009025	0	5	0	
0.027	-0.0773692	0.0296726	0.00266152	0.000944397	0	5	0	
0.0271667	0.0733192	-0.0275299	0.00271717	0.000957902	0	5	0	
0.0273333	-0.070371	0.0269955	0.00274697	0.000935357	0	5	0	
0.0275	0.0731213	-0.0306221	0.00269789	0.000877509	0	5	0	
0.0276667	-0.0813257	0.0319025	0.00265195	0.000843185	0	5	0	
0.0278333	0.0794687	-0.0387282	0.00264765	0.000875792	0	5	0	
0.028	-0.0753228	0.0364768	0.0027094	0.000934339	0	5	0	
0.0281667	0.0767838	-0.0311066	0.00271783	0.000976966	0	5	0	
0.0283333	-0.0840021	0.0249564	0.00271469	0.000962669	0	5	0	
0.0285	0.0778682	-0.0256235	0.00273456	0.000945714	0	5	0	
0.0286667	-0.0619016	0.0316359	0.00278977	0.000926728	0	5	0	
0.0288333	0.0617814	-0.0379072	0.00270953	0.000931712	0	5	0	
0.029	-0.0831261	0.0279992	0.00255651	0.000908524	0	5	0	
0.0291667	0.0892523	-0.0300794	0.0024861	0.000893564	0	5	0	
0.0293333	-0.076386	0.0342481	0.00262434	0.000858045	0	5	0	
0.0295	0.0714403	-0.029353	0.0027548	0.00087778	0	5	0	
0.0296667	-0.0763813	0.0353242	0.0027522	0.000910147	0	5	0	
0.0298333	0.082522	-0.0358539	0.00268841	0.000935843	0	5	0	
0.03	-0.0770214	0.0376469	0.00271044	0.000958587	0	5	0	
0.0301667	0.0699626	-0.0351383	0.00276261	0.000966226	0	5	0	
0.0303333	-0.072067	0.026019	0.00273193	0.000959728	0	5	0	
0.0305	0.0841235	-0.0253876	0.00265126	0.000896352	0	5	0	
0.0306667	-0.0809662	0.028479	0.00265052	0.000840134	0	5	0	
0.0308333	0.0727575	-0.026273	0.00271062	0.000841556	0	5	0	
0.031	-0.0712453	0.0341019	0.00271102	0.000890189	0	5	0	
0.0311667	0.0858447	-0.031767	0.00264056	0.000895792	0	5	0	
0.0313333	-0.0900939	0.0368777	0.00264018	0.000894467	0	5	0	
0.0315	0.0697443	-0.0358772	0.00274038	0.000898396	0	5	0	
0.0316667	-0.0696472	0.0261692	0.00292041	0.000934588	0	5	0	
0.0318333	0.0637185	-0.0309672	0.00294687	0.000957308	0	5	0	
0.032	-0.061746	0.0359462	0.00274251	0.000951907	0	5	0	
0.0321667	0.0857972	-0.0297582	0.00254059	0.000935463	0	5	0	
0.0323333	-0.0797749	0.0237928	0.00245551	0.000882078	0	5	0	
0.0325	0.0850591	-0.0302646	0.00258621	0.000853047	0	5	0	
0.0326667	-0.102013	0.0262845	0.00272302	0.000801393	0	5	0	
0.0328333	0.0897694	-0.0292471	0.00288782	0.000786843	0	5	0	
0.033	-0.0632741	0.0315935	0.00293004	0.000786457	0	5	0	
0.0331667	0.0710752	-0.0324823	0.00287494	0.000853532	0	5	0	
0.0333333	-0.07277	0.0310315	0.00266843	0.000894665	0	5	0	
0.0335	0.0844188	-0.0369568	0.00261082	0.000908271	0	5	0	
0.0336667	-0.0729854	0.0275761	0.00260179	0.000887366	0	5	0	
0.0338333	0.0739352	-0.0258406	0.00266081	0.000878488	0	5	0	
0.034	-0.0790923	0.0286219	0.00266635	0.000871844	0	5	0	
0.0341667	0.0796403	-0.0367174	0.00265238	0.000897658	0	5	0	
0.0343333	-0.0772101	0.0296339	0.00266516	0.000899614	0	5	0	
0.0345	0.080102	-0.0193762	0.00265502	0.000856228	0	5	0	
0.0346667	-0.0804485	0.0244479	0.00265135	0.000792997	0	5	0	
0.0348333	0.0792333	-0.0357488	0.00266605	0.000787917	0	5	0	
0.035	-0.0743196	0.0400352	0.00268527	0.000875259	0	5	0	
0.0351667	0.0789065	-0.0405497	0.00266105	0.000960531	0	5	0	
0.0353333	-0.0796771	0.0355298	0.00261221	0.000989764	0	5	0	
0.0355	0.0840669	-0.0257936	0.00260977	0.000934599	0	5	0	
0.0356667	-0.0812883	0.0341562	0.0026702	0.000923013	0	5	0	
0.0358333	0.0796065	-0.0354152	0.00272595	0.000945331	0	5	0	
0.036	-0.0765615	0.0317976	0.00272717	0.00098122	0	5	0	
0.0361667	0.0807623	-0.0280784	0.00268635	0.00089802	0	5	0	
0.0363333	-0.0817891	0.0311875	0.00265937	0.000826584	0	5	0	
0.0365	0.0830545	-0.0310162	0.0026698	0.000801962	0	5	0	
0.0366667	-0.0784759	0.035155	0.00270268	0.000885575	0	5	0	
0.0368333	0.0769257	-0.0299399	0.00268681	0.000941024	0	5	0	
0.037	-0.0808306	0.037157	0.00263597	0.00096911	0	5	0	
0.0371667	0.0876518	-0.0341126	0.0026021	0.00093592	0	5	0	
0.0373333	-0.0821424	0.0382831	0.00263198	0.000960149	0	5	0	
0.0375	0.0804693	-0.0344161	0.00268006	0.000956455	0	5	0	
0.0376667	-0.081819	0.0359332	0.00269184	0.000978921	0	5	0	
0.0378333	0.0811112	-0.0383209	0.00268302	0.000946825	0	5	0	
0.038	-0.0780687	0.0377062	0.00269164	0.000950487	0	5	0	
0.0381667	0.0785436	-0.0306371	0.00269375	0.000928291	0	5	0	
0.0383333	-0.078346	0.02808	0.0026696	0.000915226	0	5	0	
0.0385	0.0815084	-0.0296023	0.00264978	0.000887098	0	5	0	
0.0386667	-0.0803624	0.0328062	0.00266594	0.000895392	0	5	0	
0.0388333	0.0807391	-0.0312814	0.00270856	0.000895848	0	5	0	
0.039	-0.0812862	0.024789	0.00271877	0.000877193	0	5	0	
0.0391667	0.0825307	-0.0279037	0.0026958	0.000840075	0	5	0	
0.0393333	-0.0862534	0.0252868	0.00268358	0.000812322	0	5	0	
0.0395	0.0878055	-0.0361506	0.00267451	0.000855643	0	5	0	
0.0396667	-0.0941176	0.0378503	0.00270951	0.000904509	0	5	0	
0.0398333	0.093111	-0.0334709	0.00276358	0.000963091	0	5	0	
0.04	-0.0835304	0.0313454	0.00281898	0.000954915	0	5	0	
0.0401667	0.0803241	-0.0287917	0.00280495	0.000918447	0	5	0	
0.0403333	-0.0788126	0.0325747	0.00273291	0.000882354	0	5	0	
0.0405	0.083246	-0.0329938	0.00266139	0.000878649	0	5	0	
0.0406667	-0.0833277	0.0295991	0.00260839	0.000868711	0	5	0	
0.0408333	0.0953114	-0.025424	0.0026329	0.000821751	0	5	0	
0.041	-0.0837726	0.034228	0.00269165	0.000790327	0	5	0	
0.0411667	0.0785712	-0.0361918	0.00275806	0.000797743	0	5	0	
0.0413333	-0.0793547	0.0351329	0.00272166	0.000866782	0	5	0	
0.0415	0.0934884	-0.0195857	0.00266054	0.000871545	0	5	0	
0.0416667	-0.0872772	0.0173977	0.00263964	0.000816898	0	5	0	
0.0418333	0.0892944	-0.0272651	0.00271199	0.00071884	0	5	0	
0.042	-0.0819969	0.0357178	0.00273113	0.000747107	0	5	0	
0.0421667	0.0898275	-0.0307014	0.00271317	0.000852254	0	5	0	
0.0423333	-0.0869715	0.0194285	0.00269233	0.000912209	0	5	0	
0.0425	0.0834837	-0.0235863	0.00271727	0.000841186	0	5	0	
0.0426667	-0.0842035	0.0278193	0.00272462	0.000785633	0	5	0	
0.0428333	0.0888769	-0.0317777	0.00269233	0.000818881	0	5	0	
0.043	-0.0870592	0.0345788	0.00268671	0.000901332	0	5	0	
0.0431667	0.0833437	-0.0393139	0.00270787	0.000944263	0	5	0	
0.0433333	-0.0800463	0.0375831	0.00271135	0.00095306	0	5	0	
0.0435	0.0835283	-0.0363001	0.00266603	0.00096618	0	5	0	
0.0436667	-0.0891581	0.0329182	0.00261452	0.00101122	0	5	0	
0.0438333	0.0934789	-0.0335485	0.00262219	0.00101629	0	5	0	
0.044	-0.0890338	0.0352872	0.00269506	0.000982736	0	5	0	
0.0441667	0.0832634	-0.0359652	0.00275585	0.000907475	0	5	0	
0.0443333	-0.0800712	0.0347926	0.00273969	0.000861384	0	5	0	
0.0445	0.0837805	-0.0376853	0.00266605	0.000875073	0	5	0	
0.0446667	-0.0866758	0.0422691	0.0026265	0.000940942	0	5	0	
0.0448333	0.0871212	-0.0367207	0.00265159	0.00100502	0	5	0	
0.045	-0.0854933	0.0329976	0.0026841	0.00102364	0	5	0	
0.0451667	0.089841	-0.0322404	0.00266873	0.000967152	0	5	0	
0.0453333	-0.0926408	0.0307882	0.00266102	0.000926985	0	5	0	
0.0455	0.0852114	-0.0349352	0.0026935	0.000908839	0	5	0	
0.0456667	-0.0800485	0.0355167	0.00273143	0.000914109	0	5	0	
0.0458333	0.083483	-0.0407165	0.00268476	0.0009352	0	5	0	
0.046	-0.0865587	0.0435447	0.00261513	0.000969062	0	5	0	
0.0461667	0.0862427	-0.0386376	0.00258331	0.00099052	0	5	0	
0.0463333	-0.0883889	0.0363786	0.00260507	0.00098991	0	5	0	
0.0465	0.0923307	-0.0374847	0.00263462	0.000947989	0	5	0	
0.0466667	-0.0898626	0.0321589	0.00268777	0.0009275	0	5	0	
0.0468333	0.0813901	-0.0335268	0.00272963	0.000902677	0	5	0	
0.047	-0.0800908	0.0305398	0.00272012	0.000875858	0	5	0	
0.0471667	0.0856283	-0.0373721	0.00264837	0.000873431	0	5	0	
0.0473333	-0.0884595	0.0420405	0.00262098	0.000889396	0	5	0	
0.0475	0.0888876	-0.0388035	0.0026517	0.000941997	0	5	0	
0.0476667	-0.0889283	0.0351615	0.00270279	0.000944944	0	5	0	
0.0478333	0.0916837	-0.0371647	0.00270985	0.000920634	0	5	0	
0.048	-0.0892386	0.035502	0.00271155	0.000931083	0	5	0	
0.0481667	0.0856717	-0.0393247	0.00271203	0.00096719	0	5	0	
0.0483333	-0.087321	0.0295802	0.0027112	0.000952609	0	5	0	
0.0485	0.0936887	-0.0288874	0.0026887	0.000863188	0	5	0	
0.0486667	-0.0949321	0.0290604	0.00270121	0.000755964	0	5	0	
0.0488333	0.0931799	-0.0295276	0.00272844	0.000743958	0	5	0	
0.049	-0.0831549	0.0301509	0.00273554	0.000781946	0	5	0	
0.0491667	0.0890326	-0.0328933	0.00270328	0.000817658	0	5	0	
0.0493333	-0.0879549	0.0313559	0.0026772	0.000843141	0	5	0	
0.0495	0.0913482	-0.0310584	0.00265605	0.00085576	0	5	0	
0.0496667	-0.0939914	0.0341137	0.00268282	0.000900779	0	5	0	
0.0498333	0.0907144	-0.0425998	0.00268757	0.000930267	0	5	0	
0.05	-0.0891442	0.0405514	0.00272066	0.000987186	0	5	0	
0.0501667	0.0937092	-0.037313	0.00270434	0.00102601	0	5	0	
0.0503333	-0.0914166	0.037812	0.00272002	0.00102951	0	5	0	
0.0505	0.0893181	-0.0336613	0.00269739	0.000960654	0	5	0	
0.0506667	-0.0916384	0.0350338	0.00271328	0.000906273	0	5	0	
0.0508333	0.0901015	-0.0332854	0.00268332	0.000840987	0	5	0	
0.051	-0.0931107	0.0318059	0.00269149	0.000824559	0	5	0	
0.0511667	0.0913907	-0.0440246	0.00265742	0.000833515	0	5	0	
0.0513333	-0.0920722	0.0436693	0.00266842	0.000920246	0	5	0	
0.0515	0.0926181	-0.0373359	0.00268034	0.000976824	0	5	0	
0.0516667	-0.0930468	0.0390632	0.002706	0.0009836	0	5	0	
0.0518333	0.0930161	-0.0382088	0.0027153	0.000934429	0	5	0	
0.052	-0.0881981	0.034939	0.00271864	0.000918789	0	5	0	
0.0521667	0.0868018	-0.038192	0.00269938	0.000936723	0	5	0	
0.0523333	-0.0886537	0.0299386	0.00265919	0.000934747	0	5	0	
0.0525	0.0965354	-0.0309168	0.00264173	0.000856124	0	5	0	
0.0526667	-0.0949355	0.034568	0.00266123	0.000763411	0	5	0	
0.0528333	0.0953764	-0.0296264	0.00270458	0.000697403	0	5	0	
0.053	-0.0905605	0.0320054	0.00272286	0.000738848	0	5	0	
0.0531667	0.0892676	-0.038159	0.0026984	0.000791856	0	5	0	
0.0533333	-0.0928092	0.0350455	0.00264285	0.000887092	0	5	0	
0.0535	0.100843	-0.0347455	0.00260363	0.000936876	0	5	0	
0.0536667	-0.0981509	0.0259674	0.00261817	0.000932561	0	5	0	
0.0538333	0.0971752	-0.0288641	0.00266108	0.000881012	0	5	0	
0.054	-0.0975508	0.0390525	0.00269703	0.000868896	0	5	0	
0.0541667	0.0972651	-0.0400499	0.00273183	0.000902771	0	5	0	
0.0543333	-0.0839911	0.0393313	0.00276758	0.000973125	0	5	0	
0.0545	0.0785298	-0.0419364	0.00273649	0.000944231	0	5	0	
0.0546667	-0.0887795	0.0335663	0.0026235	0.000904554	0	5	0	
0.0548333	0.102577	-0.036474	0.00254568	0.00086644	0	5	0	
0.055	-0.100105	0.039794	0.00260472	0.000911137	0	5	0	
0.0551667	0.0934811	-0.0391465	0.00273343	0.000938721	0	5	0	
0.0553333	-0.091333	0.0325296	0.00276738	0.000943849	0	5	0	
0.0555	0.0954772	-0.0280425	0.00270178	0.000870556	0	5	0	
0.0556667	-0.0956158	0.0278204	0.00265451	0.000822917	0	5	0	
0.0558333	0.0882871	-0.0385892	0.00267173	0.000793797	0	5	0	
0.056	-0.087931	0.0429359	0.0026697	0.000872549	0	5	0	
0.0561667	0.100518	-0.0402616	0.00261924	0.000953295	0	5	0	
0.0563333	-0.106265	0.0402297	0.00260803	0.00103554	0	5	0	
0.0565	0.0958358	-0.0426212	0.00269652	0.00104677	0	5	0	
0.0566667	-0.0861989	0.0386501	0.00278741	0.00103022	0	5	0	
0.0568333	0.090975	-0.0400793	0.00277007	0.000994887	0	5	0	
0.057	-0.0975167	0.0405494	0.00270473	0.000974738	0	5	0	
0.0571667	0.0974843	-0.0418424	0.00268335	0.000973771	0	5	0	
0.0573333	-0.0931224	0.0461242	0.00271056	0.00098931	0	5	0	
0.0575	0.0976881	-0.0385596	0.0027167	0.000970186	0	5	0	
0.0576667	-0.0967622	0.034157	0.00270957	0.000918404	0	5	0	
0.0578333	0.0934222	-0.0345641	0.00272082	0.000867311	0	5	0	
0.058	-0.0900126	0.0353889	0.00273463	0.000853231	0	5	0	
0.0581667	0.0963443	-0.0365708	0.00270265	0.000880959	0	5	0	
0.0583333	-0.0979301	0.0360262	0.00266599	0.0008784	0	5	0	
0.0585	0.101086	-0.030262	0.00266852	0.000838323	0	5	0	
0.0586667	-0.0956392	0.0390957	0.00269973	0.000829631	0	5	0	
0.0588333	0.0997218	-0.0387571	0.00271317	0.000874223	0	5	0	
0.059	-0.0995358	0.0374242	0.00271726	0.000964084	0	5	0	
0.0591667	0.0956648	-0.0390304	0.00272659	0.000989156	0	5	0	
0.0593333	-0.0935681	0.0289264	0.00271544	0.000945061	0	5	0	
0.0595	0.104477	-0.0224679	0.00267007	0.000883767	0	5	0	
0.0596667	-0.105512	0.0317616	0.00266013	0.00084879	0	5	0	
0.0598333	0.099739	-0.0427081	0.00271486	0.000873319	0	5	0	
0.06	-0.094706	0.043957	0.00276962	0.000931056	0	5	0	
0.0601667	0.10255	-0.037615	0.0027577	0.000972051	0	5	0	
0.0603333	-0.104911	0.0317153	0.00272762	0.000951212	0	5	0	
0.0605	0.0992609	-0.0359119	0.00272118	0.000904759	0	5	0	
0.0606667	-0.0917376	0.0405193	0.00272433	0.000899725	0	5	0	
0.0608333	0.0947796	-0.0452509	0.00267016	0.000962042	0	5	0	
0.061	-0.102614	0.0382374	0.00262336	0.000999455	0	5	0	
0.0611667	0.104197	-0.0387188	0.00263182	0.00100022	0	5	0	
0.0613333	-0.0970664	0.0378935	0.00269554	0.000932528	0	5	0	
0.0615	0.0965713	-0.0413652	0.00271004	0.000928922	0	5	0	
0.0616667	-0.0998174	0.037156	0.00268651	0.000942904	0	5	0	
0.0618333	0.102819	-0.0336554	0.00266694	0.000962853	0	5	0	
0.062	-0.0997757	0.0345809	0.00269072	0.000911588	0	5	0	
0.0621667	0.0998821	-0.0371429	0.00271294	0.000854857	0	5	0	
0.0623333	-0.0981264	0.0356239	0.00272223	0.000823741	0	5	0	
0.0625	0.0982178	-0.0431488	0.00270244	0.000866628	0	5	0	
0.0626667	-0.096911	0.043494	0.00267762	0.00091106	0	5	0	
0.0628333	0.0980603	-0.0393036	0.00264004	0.000932766	0	5	0	
0.063	-0.0973899	0.0420643	0.00262203	0.00092892	0	5	0	
0.0631667	0.103626	-0.0374709	0.00263027	0.000933896	0	5	0	
0.0633333	-0.102099	0.0359745	0.00266822	0.000984035	0	5	0	
0.0635	0.099522	-0.0351771	0.00270458	0.000962093	0	5	0	
0.0636667	-0.0980584	0.0316809	0.00273073	0.000881881	0	5	0	
0.0638333	0.0957824	-0.0342013	0.00271792	0.000776796	0	5	0	
0.064	-0.0990778	0.0378916	0.0026909	0.000771389	0	5	0	
0.0641667	0.111262	-0.0419405	0.00266813	0.000827195	0	5	0	
0.0643333	-0.115237	0.0414288	0.00273771	0.000920738	0	5	0	
0.0645	0.121158	-0.0360904	0.00299945	0.000937158	0	5	0	
0.0646667	-0.0797136	0.0309423	0.0030972	0.000918837	0	5	0	
0.0648333	0.0916486	-0.045498	0.00295546	0.000918709	0	5	0	
0.065	-0.103563	0.0475955	0.00266713	0.000971894	0	5	0	
0.0651667	0.10242	-0.0437691	0.00255458	0.00103297	0	5	0	
0.0653333	-0.107183	0.0393173	0.00263483	0.00102476	0	5	0	
0.0655	0.134638	-0.0467022	0.00272992	0.000991959	0	5	0	
0.0656667	-0.116372	0.0426575	0.00280614	0.000985179	0	5	0	
0.0658333	0.110175	-0.0472469	0.00289317	0.001033	0	5	0	
0.066	-0.0936854	0.0417355	0.00291478	0.00100321	0	5	0	
0.0661667	0.100113	-0.0413771	0.00279922	0.000973146	0	5	0	
0.0663333	-0.10874	0.0417654	0.00268616	0.000912555	0	5	0	
0.0665	0.104846	-0.0403028	0.00261112	0.000904516	0	5	0	
0.0666667	-0.0977419	0.043104	0.00269998	0.000932825	0	5	0	
0.0668333	0.095657	-0.0488131	0.00267461	0.000954928	0	5	0	
0.067	-0.11017	0.0341279	0.00263314	0.000958417	0	5	0	
0.0671667	0.114282	-0.0369417	0.00261258	0.000922648	0	5	0	
0.0673333	-0.0978636	0.0387394	0.00270454	0.000859515	0	5	0	
0.0675	0.0891848	-0.0419845	0.00272814	0.00087002	0	5	0	
0.0676667	-0.0989759	0.0450735	0.00265027	0.000906035	0	5	0	
0.0678333	0.110991	-0.0400737	0.00255791	0.000936585	0	5	0	
0.068	-0.106712	0.0396215	0.00259373	0.000949586	0	5	0	
0.0681667	0.0991034	-0.0421144	0.00267437	0.000915657	0	5	0	
0.0683333	-0.101258	0.0359773	0.00267273	0.000933317	0	5	0	
0.0685	0.114975	-0.0420191	0.00262644	0.000940994	0	5	0	
0.0686667	-0.110848	0.0352058	0.00263808	0.000912183	0	5	0	
0.0688333	0.102079	-0.0369283	0.00271296	0.000896657	0	5	0	
0.069	-0.101207	0.0425445	0.00273296	0.000858674	0	5	0	
0.0691667	0.109945	-0.0405617	0.00268368	0.000878791	0	5	0	
0.0693333	-0.101664	0.0450139	0.00263861	0.000923756	0	5	0	
0.0695	0.0975254	-0.0422277	0.00264852	0.0009488	0	5	0	
0.0696667	-0.0947038	0.0337935	0.00261965	0.00095668	0	5	0	
0.0698333	0.104657	-0.0340115	0.00258405	0.000867972	0	5	0	
0.07	-0.10472	0.0300352	0.00256856	0.000782512	0	5	0	
0.0701667	0.10437	-0.0374896	0.00259414	0.000755228	0	5	0	
0.0703333	-0.101427	0.0462542	0.00261754	0.00081983	0	5	0	
0.0705	0.108021	-0.041722	0.00262792	0.000936175	0	5	0	
0.0706667	-0.109828	0.0394681	0.0026645	0.000987719	0	5	0	
0.0708333	0.113962	-0.0320016	0.00271073	0.000918304	0	5	0	
0.071	-0.108551	0.0264699	0.00275831	0.000837909	0	5	0	
0.0711667	0.104714	-0.0387321	0.00277799	0.000778932	0	5	0	
0.0713333	-0.100812	0.0503325	0.00275687	0.00085116	0	5	0	
0.0715	0.103388	-0.0495482	0.00268917	0.000972111	0	5	0	
0.0716667	-0.105873	0.0371342	0.0026508	0.00101468	0	5	0	
0.0718333	0.113007	-0.0343441	0.00263494	0.000963433	0	5	0	
0.072	-0.115501	0.0364322	0.00268347	0.000849539	0	5	0	
0.0721667	0.108138	-0.040234	0.00274193	0.000822347	0	5	0	
0.0723333	-0.0988825	0.0429401	0.00277202	0.00087615	0	5	0	
0.0725	0.106788	-0.0383868	0.0027142	0.000912414	0	5	0	
0.0726667	-0.113166	0.0341219	0.00266169	0.000905494	0	5	0	
0.0728333	0.109887	-0.036533	0.00265689	0.00086133	0	5	0	
0.073	-0.108213	0.0352972	0.00269828	0.000836536	0	5	0	
0.0731667	0.116729	-0.0364486	0.0027011	0.00086483	0	5	0	
0.0733333	-0.11674	0.0424842	0.00273412	0.000885208	0	5	0	
0.0735	0.105889	-0.0399537	0.00277514	0.000883377	0	5	0	
0.0736667	-0.0986308	0.0437396	0.00278399	0.000888374	0	5	0	
0.0738333	0.106156	-0.0461138	0.00269982	0.000907838	0	5	0	
0.074	-0.114134	0.0495436	0.00263068	0.000991412	0	5	0	
0.0741667	0.114956	-0.0453053	0.00264313	0.00103692	0	5	0	
0.0743333	-0.10728	0.0446783	0.00270935	0.00102844	0	5	0	
0.0745	0.110875	-0.0403632	0.00272531	0.000977815	0	5	0	
0.0746667	-0.116423	0.0417917	0.00271921	0.000945496	0	5	0	
0.0748333	0.114208	-0.0490101	0.00273421	0.000946709	0	5	0	
0.075	-0.108196	0.0431247	0.00275219	0.000954694	0	5	0	
0.0751667	0.112893	-0.0411973	0.00274235	0.000913441	0	5	0	
0.0753333	-0.112489	0.0432103	0.0027044	0.000899546	0	5	0	
0.0755	0.115465	-0.0411482	0.00271066	0.000906629	0	5	0	
0.0756667	-0.110622	0.0358964	0.00271887	0.000919141	0	5	0	
0.0758333	0.111239	-0.034822	0.00272164	0.000836338	0	5	0	
0.076	-0.110098	0.0280619	0.00270131	0.000737644	0	5	0	
0.0761667	0.108805	-0.0403772	0.00269212	0.000701286	0	5	0	
0.0763333	-0.102471	0.044513	0.0026658	0.000799374	0	5	0	
0.0765	0.108107	-0.0504453	0.00262082	0.000926944	0	5	0	
0.0766667	-0.11267	0.0464003	0.00257374	0.00101821	0	5	0	
0.0768333	0.119095	-0.0352725	0.00258464	0.000985272	0	5	0	
0.077	-0.117475	0.0347118	0.00266123	0.000933722	0	5	0	
0.0771667	0.112911	-0.0506871	0.00274356	0.000916043	0	5	0	
0.0773333	-0.107111	0.0511585	0.00277368	0.000984908	0	5	0	
0.0775	0.109754	-0.0434773	0.00272605	0.00102033	0	5	0	
0.0776667	-0.111101	0.0342786	0.00267046	0.000948092	0	5	0	
0.0778333	0.113918	-0.0357116	0.00264482	0.000837959	0	5	0	
0.078	-0.112803	0.0438407	0.00265918	0.000807726	0	5	0	
0.0781667	0.118124	-0.0435671	0.00268731	0.000861542	0	5	0	
0.0783333	-0.115094	0.0400395	0.0027227	0.000918354	0	5	0	
0.0785	0.111552	-0.0390232	0.00274238	0.000881932	0	5	0	
0.0786667	-0.108684	0.0328749	0.00271284	0.000861815	0	5	0	
0.0788333	0.113579	-0.0400626	0.00265596	0.000872539	0	5	0	
0.079	-0.115243	0.043888	0.00262091	0.000924013	0	5	0	
0.0791667	0.118588	-0.0421946	0.00265487	0.00094766	0	5	0	
0.0793333	-0.11228	0.0404388	0.00270133	0.000938557	0	5	0	
0.0795	0.110809	-0.0339205	0.00271257	0.000890442	0	5	0	
0.0796667	-0.111388	0.0313208	0.00267791	0.000857931	0	5	0	
0.0798333	0.117003	-0.0391041	0.00267296	0.000809474	0	5	0	
0.08	-0.110261	0.0445631	0.00268127	0.000851366	0	5	0	
0.0801667	0.108775	-0.0486906	0.00269218	0.000891108	0	5	0	
0.0803333	-0.111086	0.0411598	0.00263886	0.000948933	0	5	0	
0.0805	0.125482	-0.0447213	0.00262887	0.000965958	0	5	0	
0.0806667	-0.123276	0.0464011	0.00269257	0.000998399	0	5	0	
0.0808333	0.115501	-0.0409289	0.00279466	0.0010076	0	5	0	
0.081	-0.108858	0.0365056	0.00280257	0.000998035	0	5	0	
0.0811667	0.118699	-0.0450878	0.00272722	0.000932246	0	5	0	
0.0813333	-0.124753	0.0400916	0.00269528	0.000904176	0	5	0	
0.0815	0.120303	-0.0482488	0.00274952	0.000895142	0	5	0	
0.0816667	-0.107782	0.0400927	0.00277979	0.000900605	0	5	0	
0.0818333	0.112803	-0.0344294	0.00271591	0.000874822	0	5	0	
0.082	-0.122492	0.0358124	0.00265717	0.000812631	0	5	0	
0.0821667	0.12285	-0.0455292	0.00267604	0.00080977	0	5	0	
0.0823333	-0.114938	0.0385477	0.00275361	0.000849605	0	5	0	
0.0825	0.112236	-0.0448265	0.00275445	0.000909897	0	5	0	
0.0826667	-0.116596	0.0350803	0.00268621	0.000895393	0	5	0	
0.0828333	0.124001	-0.0408165	0.00265374	0.000876663	0	5	0	
0.083	-0.116762	0.0414781	0.00269119	0.000831339	0	5	0	
0.0831667	0.116521	-0.0478218	0.00272561	0.000902007	0	5	0	
0.0833333	-0.122445	0.0467597	0.00271191	0.000953012	0	5	0	
0.0835	0.130968	-0.0436641	0.0027189	0.00100795	0	5	0	
0.0836667	-0.116894	0.0330787	0.00277275	0.000936349	0	5	0	
0.0838333	0.10839	-0.0372502	0.0027914	0.000832065	0	5	0	
0.084	-0.109876	0.0391191	0.002712	0.000771241	0	5	0	
0.0841667	0.126027	-0.0465628	0.0026255	0.000807581	0	5	0	
0.0843333	-0.127648	0.0445423	0.00264221	0.000873399	0	5	0	
0.0845	0.12169	-0.0391275	0.00272986	0.000905617	0	5	0	
0.0846667	-0.110911	0.0396113	0.00277884	0.000867563	0	5	0	
0.0848333	0.118795	-0.0396278	0.00274044	0.000861852	0	5	0	
0.085	-0.117264	0.0415553	0.00268987	0.000902193	0	5	0	
0.0851667	0.117704	-0.039832	0.00267401	0.000894543	0	5	0	
0.0853333	-0.118727	0.0400123	0.0026526	0.00090542	0	5	0	
0.0855	0.130554	-0.0455384	0.00266046	0.000872244	0	5	0	
0.0856667	-0.125432	0.042135	0.0027173	0.000931481	0	5	0	
0.0858333	0.115121	-0.044862	0.00279516	0.000963173	0	5	0	
0.086	-0.10621	0.0387469	0.00275309	0.000971591	0	5	0	
0.0861667	0.118027	-0.0369489	0.00265038	0.000914366	0	5	0	
0.0863333	-0.113845	0.0440993	0.00257357	0.000876749	0	5	0	
0.0865	0.109732	-0.0496004	0.00258414	0.000858321	0	5	0	
0.0866667	-0.111135	0.046123	0.00257567	0.000933718	0	5	0	
0.0868333	0.122128	-0.0567256	0.00255968	0.000967765	0	5	0	
0.087	-0.122983	0.0430781	0.00258517	0.00102094	0	5	0	
0.0871667	0.120751	-0.0424069	0.00266821	0.00100462	0	5	0	
0.0873333	-0.118199	0.039276	0.00272255	0.000942193	0	5	0	
0.0875	0.124826	-0.047405	0.00272962	0.000930508	0	5	0	
0.0876667	-0.121714	0.0491615	0.00273264	0.000947919	0	5	0	
0.0878333	0.117252	-0.048364	0.00273508	0.00100552	0	5	0	
0.088	-0.115531	0.0393941	0.00270604	0.000976146	0	5	0	
0.0881667	0.120416	-0.0432077	0.00266368	0.00091896	0	5	0	
0.0883333	-0.119725	0.0445863	0.00264	0.00088997	0	5	0	
0.0885	0.123427	-0.0503318	0.00266365	0.00093101	0	5	0	
0.0886667	-0.119162	0.0453198	0.00267761	0.000961792	0	5	0	
0.0888333	0.117924	-0.0438844	0.00268036	0.000942627	0	5	0	
0.089	-0.118206	0.0385646	0.00265311	0.000887088	0	5	0	
0.0891667	0.124459	-0.0440712	0.00264467	0.000858318	0	5	0	
0.0893333	-0.125049	0.0408917	0.00265694	0.00088025	0	5	0	
0.0895	0.126656	-0.0408607	0.00270507	0.000875068	0	5	0	
0.0896667	-0.122504	0.0434839	0.00272576	0.00086907	0	5	0	
0.0898333	0.124821	-0.0496988	0.00271922	0.0008808	0	5	0	
0.09	-0.125894	0.0501691	0.00269903	0.000958676	0	5	0	
0.0901667	0.127925	-0.0510878	0.00271057	0.00100061	0	5	0	
0.0903333	-0.123981	0.0397179	0.00273168	0.00101427	0	5	0	
0.0905	0.121135	-0.0305403	0.0027439	0.000911261	0	5	0	
0.0906667	-0.113406	0.0317483	0.00269224	0.000797919	0	5	0	
0.0908333	0.113792	-0.0522579	0.00266598	0.000763192	0	5	0	
0.091	-0.113093	0.0586765	0.00259974	0.000870972	0	5	0	
0.0911667	0.122174	-0.0535822	0.00261781	0.00100558	0	5	0	
0.0913333	-0.120966	0.0462645	0.00259516	0.00104286	0	5	0	
0.0915	0.130455	-0.0435365	0.00265041	0.000971237	0	5	0	
0.0916667	-0.125853	0.0387814	0.00267451	0.000922021	0	5	0	
0.0918333	0.129738	-0.0404276	0.00278353	0.000884911	0	5	0	
0.092	-0.123815	0.037828	0.00280253	0.000861484	0	5	0	
0.0921667	0.132461	-0.0393856	0.00283166	0.000820915	0	5	0	
0.0923333	-0.127486	0.0394415	0.00277075	0.000776943	0	5	0	
0.0925	0.127575	-0.0375476	0.00277628	0.000757808	0	5	0	
0.0926667	-0.119025	0.0361739	0.00273481	0.000781902	0	5	0	
0.0928333	0.125464	-0.0443491	0.00271393	0.000815106	0	5	0	
0.093	-0.128367	0.0469884	0.00269375	0.000882824	0	5	0	
0.0931667	0.131643	-0.0451011	0.00271653	0.000908496	0	5	0	
0.0933333	-0.124049	0.0458341	0.00273874	0.000919659	0	5	0	
0.0935	0.124731	-0.0518934	0.00272121	0.000940524	0	5	0	
0.0936667	-0.130977	0.0466097	0.00269509	0.000968062	0	5	0	
0.0938333	0.131204	-0.046053	0.00271461	0.000988179	0	5	0	
0.094	-0.115855	0.0440632	0.00274128	0.000957557	0	5	0	
0.0941667	0.114808	-0.0462968	0.00268153	0.000919231	0	5	0	
0.0943333	-0.129828	0.0351089	0.00258195	0.000868254	0	5	0	
0.0945	0.138907	-0.045472	0.00258094	0.000844692	0	5	0	
0.0946667	-0.126431	0.0460005	0.00268329	0.000836309	0	5	0	
0.0948333	0.122589	-0.0506619	0.00275192	0.000895205	0	5	0	
0.095	-0.127329	0.047246	0.0027153	0.000945088	0	5	0	
0.0951667	0.134283	-0.0504469	0.00267942	0.000990123	0	5	0	
0.0953333	-0.12673	0.0435801	0.00269108	0.00098657	0	5	0	
0.0955	0.120287	-0.0499631	0.0027085	0.000981457	0	5	0	
0.0956667	-0.121181	0.0412676	0.00266147	0.000962359	0	5	0	
0.0958333	0.133482	-0.037669	0.00262533	0.000906125	0	5	0	
0.096	-0.132361	0.0369423	0.00264862	0.000827056	0	5	0	
0.0961667	0.125245	-0.0450126	0.00271235	0.000778232	0	5	0	
0.0963333	-0.121373	0.0446053	0.00270237	0.000805562	0	5	0	
0.0965	0.131266	-0.0518586	0.00266144	0.00086388	0	5	0	
0.0966667	-0.131419	0.0488171	0.0026521	0.000937351	0	5	0	
0.0968333	0.125199	-0.0514577	0.00269208	0.000971058	0	5	0	
0.097	-0.120921	0.0428708	0.00267879	0.000995832	0	5	0	
0.0971667	0.131716	-0.0391993	0.00264049	0.000941894	0	5	0	
0.0973333	-0.133136	0.0466155	0.00263949	0.000915967	0	5	0	
0.0975	0.128595	-0.0559178	0.00269816	0.00092594	0	5	0	
0.0976667	-0.112674	0.0482264	0.00268597	0.000984215	0	5	0	
0.0978333	0.120352	-0.0472046	0.00259488	0.00100252	0	5	0	
0.098	-0.130143	0.0371587	0.00253007	0.000933196	0	5	0	
0.0981667	0.141637	-0.0424982	0.00257188	0.000851287	0	5	0	
0.0983333	-0.137226	0.0505292	0.00271405	0.000849455	0	5	0	
0.0985	0.131008	-0.0496065	0.00278962	0.000931745	0	5	0	
0.0986667	-0.124805	0.0475573	0.00278561	0.000985918	0	5	0	
0.0988333	0.126444	-0.0495332	0.00272967	0.000977289	0	5	0	
0.099	-0.112452	0.0380695	0.00265163	0.00089239	0	5	0	
0.0991667	0.114448	-0.0421689	0.00252616	0.000870324	0	5	0	
0.0993333	-0.127036	0.0452134	0.00244007	0.000856768	0	5	0	
0.0995	0.1336	-0.0530225	0.00244221	0.00093431	0	5	0	
0.0996667	-0.129278	0.0455725	0.00257742	0.000952353	0	5	0	
0.0998333	0.126722	-0.0437233	0.00265094	0.000944822	0	5	0	
0.1	-0.126384	0.0424233	0.00272211	0.000860079	0	5	0	
0.100167	0.122278	-0.0492084	0.00263821	0.000857247	0	5	0	
0.100333	-0.127732	0.0440341	0.00262393	0.000881983	0	5	0	
0.1005	0.118823	-0.0471619	0.00255591	0.000921588	0	5	0	
0.100667	-0.128555	0.0432611	0.00259352	0.000916153	0	5	0	
0.100833	0.140687	-0.0537352	0.00261987	0.0009039	0	5	0	
0.101	-0.141416	0.0462612	0.00276395	0.000913768	0	5	0	
0.101167	0.121206	-0.0504468	0.00277555	0.000949194	0	5	0	
0.101333	-0.128302	0.0460797	0.0027505	0.000951073	0	5	0	
0.1015	0.1342	-0.0462922	0.00262456	0.000953421	0	5	0	
0.101667	-0.14104	0.0405581	0.00267219	0.000895764	0	5	0	
0.101833	0.13171	-0.0467572	0.00272521	0.000864206	0	5	0	
0.102	-0.128959	0.04217	0.00274327	0.000850454	0	5	0	
0.102167	0.134107	-0.0541942	0.00272257	0.000879385	0	5	0	
0.102333	-0.133822	0.0437344	0.00269672	0.000907783	0	5	0	
0.1025	0.129804	-0.0418919	0.00269517	0.000925589	0	5	0	
0.102667	-0.125624	0.0394989	0.00266497	0.000855589	0	5	0	
0.102833	0.134069	-0.0420948	0.00262215	0.000815439	0	5	0	
0.103	-0.139354	0.0419065	0.00262778	0.000782141	0	5	0	
0.103167	0.136051	-0.0483963	0.00268157	0.000836813	0	5	0	
0.103333	-0.128387	0.0462312	0.00271316	0.000887747	0	5	0	
0.1035	0.131604	-0.0538458	0.00268731	0.000946174	0	5	0	
0.103667	-0.13497	0.0493026	0.00265602	0.000965362	0	5	0	
0.103833	0.13949	-0.0442008	0.00266836	0.000966049	0	5	0	
0.104	-0.137873	0.0447578	0.00271559	0.000911627	0	5	0	
0.104167	0.136571	-0.0536359	0.00274519	0.000917653	0	5	0	
0.104333	-0.130093	0.0493175	0.00273322	0.000931676	0	5	0	
0.1045	0.132462	-0.0426217	0.00269805	0.00094783	0	5	0	
0.104667	-0.13362	0.0365133	0.00266761	0.000877735	0	5	0	
0.104833	0.138125	-0.0408333	0.00267158	0.000810982	0	5	0	
0.105	-0.133914	0.0468078	0.00268823	0.000785332	0	5	0	
0.105167	0.133572	-0.048351	0.00269304	0.000846617	0	5	0	
0.105333	-0.135958	0.0396987	0.00268732	0.000875639	0	5	0	
0.1055	0.138528	-0.0473462	0.00269923	0.000874562	0	5	0	
0.105667	-0.130774	0.0483548	0.00271352	0.000860415	0	5	0	
0.105833	0.129699	-0.0520312	0.00269067	0.000901649	0	5	0	
0.106	-0.138344	0.0441417	0.00265733	0.000923355	0	5	0	
0.106167	0.146579	-0.0447155	0.00267602	0.000936801	0	5	0	
0.106333	-0.138079	0.0484398	0.00275246	0.000889716	0	5	0	
0.1065	0.127663	-0.044131	0.00277507	0.000895448	0	5	0	
0.106667	-0.125141	0.0410043	0.00270323	0.000865267	0	5	0	
0.106833	0.13514	-0.0380604	0.00261728	0.000824516	0	5	0	
0.107	-0.137012	0.0385706	0.00260898	0.000780782	0	5	0	
0.107167	0.128614	-0.0502296	0.00264547	0.00079734	0	5	0	
0.107333	-0.128808	0.0504234	0.0026483	0.000867162	0	5	0	
0.1075	0.147367	-0.0527737	0.00264711	0.0009604	0	5	0	
0.107667	-0.153273	0.0473281	0.00272837	0.000964783	0	5	0	
0.107833	0.141275	-0.0409903	0.00284667	0.000947323	0	5	0	
0.108	-0.12828	0.0452841	0.00286513	0.000871982	0	5	0	
0.108167	0.137616	-0.0433835	0.00277652	0.000860736	0	5	0	
0.108333	-0.144688	0.0390064	0.00270883	0.000857725	0	5	0	
0.1085	0.141462	-0.0470974	0.00273973	0.000828821	0	5	0	
0.108667	-0.128266	0.0463968	0.002748	0.000839395	0	5	0	
0.108833	0.128332	-0.0513823	0.00268413	0.00087034	0	5	0	
0.109	-0.137756	0.04598	0.00260349	0.000925108	0	5	0	
0.109167	0.143619	-0.0550439	0.00262082	0.000977343	0	5	0	
0.109333	-0.135054	0.0466405	0.00268271	0.000976641	0	5	0	
0.1095	0.13498	-0.0450331	0.00270976	0.000960039	0	5	0	
0.109667	-0.139402	0.051819	0.00268592	0.000914907	0	5	0	
0.109833	0.145061	-0.0525651	0.00269512	0.000926344	0	5	0	
0.11	-0.136932	0.0487778	0.00272947	0.00097239	0	5	0	
0.110167	0.133949	-0.0543092	0.00274355	0.000995263	0	5	0	
0.110333	-0.135921	0.0458955	0.00270569	0.000981899	0	5	0	
0.1105	0.143485	-0.0428126	0.0026815	0.000942724	0	5	0	
0.110667	-0.138563	0.043432	0.0026959	0.000862295	0	5	0	
0.110833	0.137499	-0.0449926	0.00271601	0.000829178	0	5	0	
0.111	-0.132715	0.0494603	0.00270235	0.000852469	0	5	0	
0.111167	0.139069	-0.0495594	0.00266822	0.000907818	0	5	0	
0.111333	-0.142126	0.0445841	0.00267158	0.000931411	0	5	0	
0.1115	0.141651	-0.0481565	0.00270308	0.000913961	0	5	0	
0.111667	-0.134892	0.049999	0.0027272	0.000886958	0	5	0	
0.111833	0.140867	-0.0485529	0.00271448	0.000911804	0	5	0	
0.112	-0.136527	0.0522799	0.00270072	0.00093176	0	5	0	
0.112167	0.136347	-0.0439002	0.00268811	0.000947431	0	5	0	
0.112333	-0.137855	0.0382698	0.0026829	0.000890644	0	5	0	
0.1125	0.146011	-0.0438854	0.00269528	0.000818118	0	5	0	
0.112667	-0.140448	0.0465176	0.0027257	0.000809643	0	5	0	
0.112833	0.138072	-0.0448879	0.00274172	0.000832769	0	5	0	
0.113	-0.138508	0.0480152	0.0027187	0.000868898	0	5	0	
0.113167	0.146061	-0.0467546	0.00271074	0.00088676	0	5	0	
0.113333	-0.140481	0.0490598	0.00272522	0.000898916	0	5	0	
0.1135	0.13814	-0.0455029	0.00273545	0.000897734	0	5	0	
0.113667	-0.136868	0.0439461	0.00270117	0.000875507	0	5	0	
0.113833	0.144666	-0.0445838	0.00268573	0.000844898	0	5	0	
0.114	-0.142558	0.0502417	0.00269397	0.000874899	0	5	0	
0.114167	0.141188	-0.0493937	0.00273693	0.00088889	0	5	0	
0.114333	-0.137061	0.044926	0.00272372	0.000922031	0	5	0	
0.1145	0.140613	-0.0455724	0.00270811	0.000877759	0	5	0	
0.114667	-0.138522	0.0475454	0.0026701	0.000880166	0	5	0	
0.114833	0.138451	-0.0553904	0.00267	0.000901462	0	5	0	
0.115	-0.138001	0.0521057	0.00265691	0.000958076	0	5	0	
0.115167	0.142364	-0.0501727	0.00266821	0.000996379	0	5	0	
0.115333	-0.138973	0.0469089	0.00266931	0.000971124	0	5	0	
0.1155	0.140378	-0.0445346	0.00268685	0.000927559	0	5	0	
0.115667	-0.133257	0.0481238	0.00265053	0.000894591	0	5	0	
0.115833	0.133217	-0.0523741	0.00261792	0.000893564	0	5	0	
0.116	-0.13707	0.0486968	0.00256673	0.000947948	0	5	0	
0.116167	0.146375	-0.0516959	0.00261777	0.000968543	0	5	0	
0.116333	-0.145637	0.0481913	0.00268476	0.000964617	0	5	0	
0.1165	0.146693	-0.0476526	0.00276757	0.000937739	0	5	0	
0.116667	-0.138657	0.0482904	0.00276099	0.000894848	0	5	0	
0.116833	0.137865	-0.0452577	0.00273019	0.000901398	0	5	0	
0.117	-0.136013	0.0482083	0.00266735	0.000900479	0	5	0	
0.117167	0.143042	-0.0451796	0.00267162	0.000891172	0	5	0	
0.117333	-0.141194	0.0416798	0.00266825	0.000867644	0	5	0	
0.1175	0.145891	-0.0467674	0.00270833	0.000832094	0	5	0	
0.117667	-0.143759	0.0440974	0.00271375	0.000836261	0	5	0	
0.117833	0.144987	-0.0516367	0.00273613	0.000876085	0	5	0	
0.118	-0.139925	0.0509749	0.00272732	0.000916928	0	5	0	
0.118167	0.141496	-0.0485674	0.00271172	0.000951512	0	5	0	
0.118333	-0.137221	0.0519462	0.00267595	0.000947265	0	5	0	
0.1185	0.142364	-0.0523269	0.00266332	0.000947303	0	5	0	
0.118667	-0.142933	0.0430843	0.00266267	0.000945528	0	5	0	
0.118833	0.144844	-0.0486016	0.00269382	0.000906232	0	5	0	
0.119	-0.140655	0.0422961	0.00271029	0.000877509	0	5	0	
0.119167	0.141917	-0.0477652	0.00271121	0.000863202	0	5	0	
0.119333	-0.142468	0.0471349	0.00269262	0.000881274	0	5	0	
0.1195	0.146065	-0.0479762	0.00269893	0.000884459	0	5	0	
0.119667	-0.142078	0.0485395	0.00270406	0.000900338	0	5	0	
0.119833	0.142555	-0.0559372	0.00272062	0.000915701	0	5	0	
0.12	-0.141812	0.0397482	0.00269908	0.000956119	0	5	0	
0.120167	0.142493	-0.0366024	0.00270159	0.000871823	0	5	0	
0.120333	-0.136622	0.0305952	0.00266352	0.000774774	0	5	0	
0.1205	0.136639	-0.0502121	0.00264855	0.00069095	0	5	0	
0.120667	-0.139511	0.0551548	0.00260749	0.000796439	0	5	0	
0.120833	0.148362	-0.058835	0.00264233	0.000946507	0	5	0	
0.121	-0.141637	0.0451333	0.00266547	0.00103372	0	5	0	
0.121167	0.124941	-0.0415913	0.00265987	0.000956855	0	5	0	
0.121333	-0.123814	0.0401874	0.00253004	0.000842807	0	5	0	
0.1215	0.145099	-0.0512441	0.00249334	0.000802117	0	5	0	
0.121667	-0.149894	0.0454798	0.00253646	0.000882857	0	5	0	
0.121833	0.146617	-0.0508243	0.0026964	0.000934919	0	5	0	
0.122	-0.138116	0.0493309	0.00273679	0.000959616	0	5	0	
0.122167	0.137593	-0.0518683	0.00270587	0.000937476	0	5	0	
0.122333	-0.138757	0.0451881	0.00263764	0.000920194	0	5	0	
0.1225	0.132912	-0.0498077	0.00260722	0.0009125	0	5	0	
0.122667	-0.131821	0.0398118	0.00256556	0.000872012	0	5	0	
0.122833	0.147958	-0.042032	0.0025824	0.000836839	0	5	0	
0.123	-0.152696	0.0454454	0.00265008	0.000803898	0	5	0	
0.123167	0.146441	-0.0485488	0.00274571	0.00083523	0	5	0	
0.123333	-0.135068	0.0478947	0.00275249	0.000882104	0	5	0	
0.1235	0.137452	-0.0530381	0.00266726	0.000922752	0	5	0	
0.123667	-0.146603	0.0466716	0.00263454	0.000928259	0	5	0	
0.123833	0.14985	-0.04881	0.00266621	0.000960893	0	5	0	
0.124	-0.140766	0.0488657	0.00272302	0.000931212	0	5	0	
0.124167	0.138103	-0.0478123	0.00270223	0.000930693	0	5	0	
0.124333	-0.141022	0.048919	0.00265345	0.000888615	0	5	0	
0.1245	0.150512	-0.0454257	0.00265304	0.000894695	0	5	0	
0.124667	-0.14771	0.04053	0.00271137	0.000859167	0	5	0	
0.124833	0.144114	-0.0405979	0.00275159	0.00081543	0	5	0	
0.125	-0.140288	0.0423799	0.00272859	0.000768596	0	5	0	
0.125167	0.144122	-0.0525572	0.00268467	0.000804323	0	5	0	
0.125333	-0.140633	0.0624217	0.00265641	0.000914365	0	5	0	
0.1255	0.147398	-0.059114	0.00267499	0.00104727	0	5	0	
0.125667	-0.148897	0.0515382	0.00270761	0.00109234	0	5	0	
0.125833	0.145474	-0.0455729	0.00274156	0.00102343	0	5	0	
0.126	-0.134945	0.0462482	0.00270858	0.000946365	0	5	0	
0.126167	0.141531	-0.053814	0.00265841	0.000912389	0	5	0	
0.126333	-0.148742	0.0499789	0.00264792	0.000947656	0	5	0	
0.1265	0.154279	-0.043471	0.00271517	0.000976482	0	5	0	
0.126667	-0.147307	0.0421519	0.00278408	0.000915	0	5	0	
0.126833	0.147627	-0.0350781	0.00279536	0.000829388	0	5	0	
0.127	-0.144807	0.0435769	0.00276234	0.000751786	0	5	0	
0.127167	0.140662	-0.0502352	0.00271934	0.000782861	0	5	0	
0.127333	-0.137966	0.0466964	0.0026653	0.000860804	0	5	0	
0.1275	0.146573	-0.0473162	0.00264988	0.000906613	0	5	0	
0.127667	-0.150131	0.0473071	0.00267537	0.000901909	0	5	0	
0.127833	0.151646	-0.0445876	0.00274583	0.000875945	0	5	0	
0.128	-0.144327	0.0465217	0.00277023	0.000856979	0	5	0	
0.128167	0.138557	-0.0493788	0.00273021	0.000881994	0	5	0	
0.128333	-0.141027	0.0435348	0.00265961	0.000874359	0	5	0	
0.1285	0.14791	-0.0438181	0.0026516	0.000863757	0	5	0	
0.128667	-0.147229	0.0412496	0.00268313	0.000824197	0	5	0	
0.128833	0.149838	-0.0398952	0.00274317	0.000802227	0	5	0	
0.129	-0.145682	0.0443086	0.00275009	0.000804064	0	5	0	
0.129167	0.144524	-0.0480348	0.00273678	0.000823189	0	5	0	
0.129333	-0.147343	0.0396537	0.00271747	0.00081439	0	5	0	
0.1295	0.149148	-0.0465674	0.0027319	0.000826932	0	5	0	
0.129667	-0.14671	0.0434444	0.00275092	0.000838762	0	5	0	
0.129833	0.144986	-0.0448496	0.00275265	0.000878272	0	5	0	
0.13	-0.14255	0.0437712	0.00271164	0.000858462	0	5	0	
0.130167	0.14705	-0.0422008	0.0026948	0.000826305	0	5	0	
0.130333	-0.146166	0.0487295	0.00270243	0.000809085	0	5	0	
0.1305	0.14735	-0.0510343	0.00273046	0.000874264	0	5	0	
0.130667	-0.145108	0.0411559	0.00273271	0.000898889	0	5	0	
0.130833	0.146773	-0.0446621	0.00272282	0.000870802	0	5	0	
0.131	-0.146089	0.0535241	0.00270967	0.000848488	0	5	0	
0.131167	0.148296	-0.0547687	0.00272497	0.00091267	0	5	0	
0.131333	-0.142819	0.0453435	0.00271793	0.000978407	0	5	0	
0.1315	0.142285	-0.0381423	0.00270015	0.00095125	0	5	0	
0.131667	-0.139892	0.0427698	0.00265364	0.000818897	0	5	0	
0.131833	0.145337	-0.054225	0.00264413	0.000816018	0	5	0	
0.132	-0.143235	0.0559868	0.00264791	0.000897836	0	5	0	
0.132167	0.144979	-0.0505752	0.00267481	0.00103255	0	5	0	
0.132333	-0.142715	0.0410638	0.00267298	0.00100299	0	5	0	
0.1325	0.147813	-0.0415352	0.00268757	0.00088944	0	5	0	
0.132667	-0.147158	0.048951	0.00269784	0.000794958	0	5	0	
0.132833	0.146276	-0.0571353	0.00272592	0.000866993	0	5	0	
0.133	-0.139916	0.0477344	0.00269598	0.000948825	0	5	0	
0.133167	0.14234	-0.0482831	0.0026788	0.000987804	0	5	0	
0.133333	-0.143466	0.0488548	0.00265492	0.0009506	0	5	0	
0.1335	0.154541	-0.0445183	0.00271518	0.000915044	0	5	0	
0.133667	-0.156112	0.0379527	0.00277937	0.000835479	0	5	0	
0.133833	0.15118	-0.0445551	0.0028514	0.000785382	0	5	0	
0.134	-0.152771	0.0510678	0.00285326	0.000792573	0	5	0	
0.134167	0.155951	-0.0472592	0.00286601	0.000898543	0	5	0	
0.134333	-0.138552	0.0402672	0.00278839	0.000910242	0	5	0	
0.1345	0.12808	-0.0435391	0.00269305	0.000867469	0	5	0	
0.134667	-0.132131	0.0536544	0.00254024	0.000841685	0	5	0	
0.134833	0.152168	-0.059023	0.00257427	0.000909782	0	5	0	
0.135	-0.152102	0.051171	0.00266486	0.00100813	0	5	0	
0.135167	0.139678	-0.0449845	0.00275569	0.00100743	0	5	0	
0.135333	-0.136162	0.0451525	0.00268386	0.000920486	0	5	0	
0.1355	0.152187	-0.0515049	0.00266657	0.000870339	0	5	0	
0.135667	-0.150267	0.0493126	0.00268641	0.000877964	0	5	0	
0.135833	0.142761	-0.0464092	0.00274679	0.000919006	0	5	0	
0.136	-0.13683	0.042781	0.00269901	0.000888859	0	5	0	
0.136167	0.151419	-0.0513347	0.002682	0.000874638	0	5	0	
0.136333	-0.151284	0.0548313	0.00270338	0.000920804	0	5	0	
0.1365	0.146165	-0.0527019	0.00275586	0.000979899	0	5	0	
0.136667	-0.135574	0.0473419	0.00271988	0.000999359	0	5	0	
0.136833	0.14394	-0.0509669	0.00267237	0.00098457	0	5	0	
0.137	-0.154095	0.0427019	0.00268083	0.000952814	0	5	0	
0.137167	0.152652	-0.0463106	0.0027606	0.000924273	0	5	0	
0.137333	-0.138561	0.0411546	0.00276451	0.000869333	0	5	0	
0.1375	0.140939	-0.0413369	0.00271644	0.000828514	0	5	0	
0.137667	-0.142767	0.0528158	0.00264666	0.000833943	0	5	0	
0.137833	0.146928	-0.0510957	0.00266248	0.000874231	0	5	0	
0.138	-0.13936	0.0442435	0.0026598	0.000923394	0	5	0	
0.138167	0.139314	-0.0523336	0.00265748	0.000924146	0	5	0	
0.138333	-0.147408	0.0461281	0.00264565	0.000919066	0	5	0	
0.1385	0.15138	-0.0494476	0.00270397	0.000913009	0	5	0	
0.138667	-0.140009	0.0540792	0.00271714	0.000928557	0	5	0	
0.138833	0.141765	-0.0559319	0.00271267	0.000978031	0	5	0	
0.139	-0.152046	0.0540239	0.00270806	0.0010073	0	5	0	
0.139167	0.157314	-0.0424239	0.00278232	0.00099079	0	5	0	
0.139333	-0.147428	0.0308863	0.00282967	0.000873699	0	5	0	
0.1395	0.139406	-0.0368563	0.00279282	0.000762847	0	5	0	
0.139667	-0.141437	0.0426518	0.00269458	0.000722671	0	5	0	
0.139833	0.1424	-0.0490183	0.00265262	0.000792224	0	5	0	
0.14	-0.13584	0.0563738	0.00262226	0.000903313	0	5	0	
0.140167	0.135632	-0.0551549	0.00261421	0.000995237	0	5	0	
0.140333	-0.145432	0.0470343	0.00261258	0.000988317	0	5	0	
0.1405	0.149791	-0.0474261	0.00267458	0.000955294	0	5	0	
0.140667	-0.145424	0.0477449	0.00272232	0.00088417	0	5	0	
0.140833	0.14261	-0.0485889	0.00273178	0.000927671	0	5	0	
0.141	-0.142302	0.0587439	0.00268961	0.00096596	0	5	0	
0.141167	0.146286	-0.0572431	0.00268911	0.00105066	0	5	0	
0.141333	-0.142311	0.0517052	0.00267765	0.00106794	0	5	0	
0.1415	0.141376	-0.0483871	0.00268472	0.00102321	0	5	0	
0.141667	-0.142107	0.045262	0.00265829	0.000970478	0	5	0	
0.141833	0.147585	-0.0458478	0.00268216	0.00092603	0	5	0	
0.142	-0.146925	0.0416046	0.00270683	0.000910702	0	5	0	
0.142167	0.145539	-0.0391627	0.00274469	0.000888788	0	5	0	
0.142333	-0.144318	0.0405912	0.00273742	0.000856185	0	5	0	
0.1425	0.14957	-0.0452091	0.00275392	0.000854537	0	5	0	
0.142667	-0.145536	0.0517811	0.00275086	0.000888095	0	5	0	
0.142833	0.144139	-0.0463999	0.00275347	0.000918494	0	5	0	
0.143	-0.145338	0.0472859	0.00272014	0.000946834	0	5	0	
0.143167	0.146683	-0.0492742	0.00272556	0.000941999	0	5	0	
0.143333	-0.140439	0.0501146	0.00270833	0.000947559	0	5	0	
0.1435	0.142406	-0.0451815	0.0027051	0.000940443	0	5	0	
0.143667	-0.142711	0.0459598	0.00267751	0.000913865	0	5	0	
0.143833	0.145857	-0.0461813	0.00269656	0.000903364	0	5	0	
0.144	-0.14632	0.0457378	0.00270951	0.000918223	0	5	0	
0.144167	0.146572	-0.0433877	0.00273726	0.000926613	0	5	0	
0.144333	-0.145674	0.0428192	0.00274523	0.000905988	0	5	0	
0.1445	0.144454	-0.0428282	0.00275721	0.000897358	0	5	0	
0.144667	-0.139531	0.0507546	0.00272884	0.000879775	0	5	0	
0.144833	0.144729	-0.0459654	0.00271553	0.000906044	0	5	0	
0.145	-0.146616	0.0468453	0.00270453	0.000906998	0	5	0	
0.145167	0.144846	-0.047987	0.0027352	0.000925256	0	5	0	
0.145333	-0.141799	0.0474255	0.00272798	0.000936764	0	5	0	
0.1455	0.141954	-0.0520068	0.00272732	0.000951846	0	5	0	
0.145667	-0.14082	0.050286	0.0026909	0.000982575	0	5	0	
0.145833	0.147588	-0.0473812	0.00270474	0.0010089	0	5	0	
0.146	-0.145619	0.0493434	0.00271582	0.000998431	0	5	0	
0.146167	0.142711	-0.043486	0.00273803	0.000978807	0	5	0	
0.146333	-0.135172	0.0400507	0.00268701	0.000905395	0	5	0	
0.1465	0.13297	-0.0388635	0.00263149	0.000858891	0	5	0	
0.146667	-0.132045	0.0367072	0.00257208	0.000849918	0	5	0	
0.146833	0.145472	-0.0357342	0.00261737	0.000842702	0	5	0	
0.147	-0.143996	0.0386658	0.0026839	0.000835912	0	5	0	
0.147167	0.140271	-0.0461381	0.00273681	0.000838192	0	5	0	
0.147333	-0.141641	0.0519937	0.00273115	0.00087183	0	5	0	
0.1475	0.152666	-0.0473594	0.00275108	0.000900614	0	5	0	
0.147667	-0.143839	0.0400796	0.00275972	0.000895181	0	5	0	
0.147833	0.129292	-0.0474293	0.00271249	0.000884178	0	5	0	
0.148	-0.131447	0.0514873	0.00259963	0.000901076	0	5	0	
0.148167	0.162712	-0.0556447	0.00265161	0.000949642	0	5	0	
0.148333	-0.156838	0.0463116	0.00281752	0.000947332	0	5	0	
0.1485	0.149962	-0.0362398	0.00294912	0.000908542	0	5	0	
0.148667	-0.134083	0.0406479	0.00288173	0.000838324	0	5	0	
0.148833	0.148706	-0.0414475	0.0027703	0.00080996	0	5	0	
0.149	-0.14934	0.03868	0.00274797	0.000837663	0	5	0	
0.149167	0.142845	-0.0558728	0.00277227	0.000906758	0	5	0	
0.149333	-0.124378	0.0494591	0.00275003	0.00101709	0	5	0	
0.1495	0.140986	-0.0482298	0.00269427	0.00106542	0	5	0	
0.149667	-0.139582	0.04909	0.00270777	0.00102897	0	5	0	
0.149833	0.144757	-0.046974	0.00272577	0.000973145	0	5	0	
0.15	-0.136602	0.0453883	0.00274393	0.000929198	0	5	0	
0.150167	0.138589	-0.0482671	0.00270335	0.000910316	0	5	0	
0.150333	-0.144033	0.0443082	0.00272672	0.000889134	0	5	0	
0.1505	0.146626	-0.048632	0.00275856	0.000885302	0	5	0	
0.150667	-0.14306	0.037098	0.00278222	0.000865593	0	5	0	
0.150833	0.139322	-0.0413129	0.00275004	0.00085055	0	5	0	
0.151	-0.137174	0.045401	0.00268997	0.000866268	0	5	0	
0.151167	0.139005	-0.0515288	0.00266125	0.000935237	0	5	0	
0.151333	-0.137411	0.050359	0.002649	0.000989059	0	5	0	
0.1515	0.135267	-0.0471617	0.00264928	0.00100705	0	5	0	
0.151667	-0.137876	0.0466246	0.00263923	0.00098245	0	5	0	
0.151833	0.143441	-0.0488472	0.00268229	0.000970641	0	5	0	
0.152	-0.142293	0.0374124	0.00270909	0.000954027	0	5	0	
0.152167	0.136062	-0.0375678	0.00273296	0.000902287	0	5	0	
0.152333	-0.138059	0.0398794	0.00269765	0.000828009	0	5	0	
0.1525	0.144487	-0.0514868	0.00271512	0.000835235	0	5	0	
0.152667	-0.14116	0.0544035	0.00272239	0.000926418	0	5	0	
0.152833	0.137998	-0.0472514	0.00273941	0.0010371	0	5	0	
0.153	-0.140007	0.0403319	0.00272145	0.00101506	0	5	0	
0.153167	0.142449	-0.0389368	0.00273863	0.000944875	0	5	0	
0.153333	-0.138755	0.0459607	0.00273268	0.000838281	0	5	0	
0.1535	0.136399	-0.049964	0.00272211	0.000875506	0	5	0	
0.153667	-0.135898	0.0495897	0.00268194	0.000948498	0	5	0	
0.153833	0.141359	-0.0410737	0.00270255	0.00102323	0	5	0	
0.154	-0.140797	0.0401935	0.00272276	0.000958252	0	5	0	
0.154167	0.138513	-0.0416686	0.00273563	0.000901549	0	5	0	
0.154333	-0.133879	0.0509333	0.00269682	0.000861532	0	5	0	
0.1545	0.137876	-0.0477022	0.00267244	0.000960389	0	5	0	
0.154667	-0.136239	0.0490204	0.00267086	0.00099605	0	5	0	
0.154833	0.138229	-0.0350669	0.00269396	0.00100427	0	5	0	
0.155	-0.137727	0.043615	0.00270616	0.000894123	0	5	0	
0.155167	0.142607	-0.0441493	0.0027337	0.000846796	0	5	0	
0.155333	-0.142643	0.0410404	0.00274897	0.000842468	0	5	0	
0.1555	0.140808	-0.0411605	0.00276954	0.000889901	0	5	0	
0.155667	-0.135922	0.0436775	0.00273353	0.000916682	0	5	0	
0.155833	0.134467	-0.0437628	0.00270434	0.000931925	0	5	0	
0.156	-0.131314	0.0483567	0.00264701	0.00092858	0	5	0	
0.156167	0.132805	-0.051177	0.00263888	0.000952544	0	5	0	
0.156333	-0.136802	0.0468621	0.00264365	0.000977623	0	5	0	
0.1565	0.142963	-0.0414703	0.00271863	0.000985781	0	5	0	
0.156667	-0.14025	0.0405086	0.00276019	0.000955521	0	5	0	
0.156833	0.138322	-0.040708	0.00278354	0.000924933	0	5	0	
0.157	-0.135966	0.0412883	0.00273638	0.00090299	0	5	0	
0.157167	0.135541	-0.0425194	0.00271664	0.000898206	0	5	0	
0.157333	-0.133965	0.04149	0.00268771	0.000890174	0	5	0	
0.1575	0.137161	-0.044045	0.00270697	0.000914502	0	5	0	
0.157667	-0.138445	0.0430539	0.00271717	0.000925395	0	5	0	
0.157833	0.1381	-0.0440538	0.00274184	0.00092442	0	5	0	
0.158	-0.133237	0.0440373	0.00272065	0.000883309	0	5	0	
0.158167	0.136604	-0.0454266	0.00270437	0.000877595	0	5	0	
0.158333	-0.136522	0.0458654	0.00269567	0.000892809	0	5	0	
0.1585	0.13299	-0.0411786	0.00269389	0.000949782	0	5	0	
0.158667	-0.129179	0.0409073	0.00266825	0.000946177	0	5	0	
0.158833	0.135538	-0.0465649	0.00268394	0.000931792	0	5	0	
0.159	-0.141667	0.0463388	0.00273079	0.000914965	0	5	0	
0.159167	0.139407	-0.0453968	0.00278469	0.000913995	0	5	0	
0.159333	-0.12754	0.0344953	0.00274095	0.000905647	0	5	0	
0.1595	0.126185	-0.0341318	0.00267125	0.000893089	0	5	0	
0.159667	-0.132767	0.046923	0.00264374	0.000915111	0	5	0	
0.159833	0.135479	-0.0512848	0.00269372	0.000996531	0	5	0	
0.16	-0.129344	0.0452424	0.00269791	0.00102711	0	5	0	
0.160167	0.126078	-0.0448463	0.00266519	0.000999213	0	5	0	
0.160333	-0.134524	0.0443179	0.00264698	0.000956594	0	5	0	
0.1605	0.144974	-0.0435063	0.00274229	0.000943356	0	5	0	
0.160667	-0.138235	0.0314829	0.00279629	0.000952323	0	5	0	
0.160833	0.121587	-0.0333161	0.00274582	0.000938037	0	5	0	
0.161	-0.123344	0.0383753	0.00261116	0.00091583	0	5	0	
0.161167	0.138551	-0.0411944	0.00261299	0.00090062	0	5	0	
0.161333	-0.137461	0.0451521	0.00267843	0.000891904	0	5	0	
0.1615	0.125903	-0.0379802	0.00272702	0.000889367	0	5	0	
0.161667	-0.123145	0.0293405	0.00266175	0.000851613	0	5	0	
0.161833	0.134123	-0.0340576	0.00266007	0.000777435	0	5	0	
0.162	-0.140649	0.0400613	0.00271734	0.000753153	0	5	0	
0.162167	0.135266	-0.0422438	0.00278176	0.00082227	0	5	0	
0.162333	-0.125216	0.0442824	0.00273004	0.000913735	0	5	0	
0.1625	0.130512	-0.0379974	0.00268839	0.000973221	0	5	0	
0.162667	-0.134793	0.0439662	0.00268798	0.000950883	0	5	0	
0.162833	0.134513	-0.0418211	0.00273498	0.000931532	0	5	0	
0.163	-0.12705	0.0427901	0.00270955	0.000924051	0	5	0	
0.163167	0.127513	-0.0438108	0.00266237	0.000946987	0	5	0	
0.163333	-0.130498	0.0368496	0.00264145	0.000950734	0	5	0	
0.1635	0.13204	-0.0359968	0.00268683	0.000943264	0	5	0	
0.163667	-0.13209	0.0427641	0.00271795	0.000921549	0	5	0	
0.163833	0.126334	-0.0399042	0.00271986	0.000916738	0	5	0	
0.164	-0.12928	0.041281	0.0026718	0.000897942	0	5	0	
0.164167	0.135116	-0.0445486	0.00270393	0.000925614	0	5	0	
0.164333	-0.135506	0.0383764	0.00272589	0.000975118	0	5	0	
0.1645	0.127718	-0.0410744	0.00274894	0.000995061	0	5	0	
0.164667	-0.124899	0.0343392	0.00268007	0.000928592	0	5	0	
0.164833	0.126701	-0.0332981	0.00265939	0.000841801	0	5	0	
0.165	-0.132543	0.0391736	0.00265822	0.000805875	0	5	0	
0.165167	0.12722	-0.0424423	0.00270422	0.000871716	0	5	0	
0.165333	-0.127494	0.0412571	0.00269789	0.000911969	0	5	0	
0.1655	0.134466	-0.0375977	0.00274542	0.000948488	0	5	0	
0.165667	-0.132877	0.041593	0.00275198	0.000934972	0	5	0	
0.165833	0.124982	-0.0430144	0.0027511	0.000962527	0	5	0	
0.166	-0.124515	0.04374	0.00268103	0.000964992	0	5	0	
0.166167	0.127485	-0.0421866	0.00266972	0.000987182	0	5	0	
0.166333	-0.126425	0.0409917	0.00267544	0.00096028	0	5	0	
0.1665	0.124968	-0.0272894	0.00270022	0.000940796	0	5	0	
0.166667	-0.125779	0.0306819	0.00267897	0.000833685	0	5	0	
0.166833	0.127845	-0.0309051	0.00269574	0.000789033	0	5	0	
0.167	-0.128854	0.0411286	0.00270042	0.00079061	0	5	0	
0.167167	0.124814	-0.0416315	0.00272624	0.00090087	0	5	0	
0.167333	-0.125256	0.0416586	0.00270402	0.000963066	0	5	0	
0.1675	0.128279	-0.0385051	0.00272978	0.000976446	0	5	0	
0.167667	-0.128058	0.0374357	0.00271723	0.000922754	0	5	0	
0.167833	0.12459	-0.0385452	0.0027215	0.000880266	0	5	0	
0.168	-0.120424	0.0381447	0.00266177	0.000871774	0	5	0	
0.168167	0.119782	-0.0405929	0.00263971	0.000923206	0	5	0	
0.168333	-0.123533	0.0411546	0.00263411	0.00096597	0	5	0	
0.1685	0.127406	-0.0329872	0.00269292	0.000969114	0	5	0	
0.168667	-0.129582	0.0342226	0.00272505	0.000903057	0	5	0	
0.168833	0.126022	-0.0374297	0.00275492	0.000863217	0	5	0	
0.169	-0.122881	0.0329894	0.00271046	0.000860916	0	5	0	
0.169167	0.122648	-0.0386145	0.00269715	0.000862574	0	5	0	
0.169333	-0.125125	0.0340421	0.00268386	0.000861773	0	5	0	
0.1695	0.126796	-0.035327	0.00272949	0.000857889	0	5	0	
0.169667	-0.124029	0.0411402	0.0027382	0.000878981	0	5	0	
0.169833	0.12087	-0.0361952	0.00274382	0.000908001	0	5	0	
0.17	-0.1248	0.0324414	0.0027176	0.000920345	0	5	0	
0.170167	0.123015	-0.0418193	0.00273649	0.000909857	0	5	0	
0.170333	-0.122664	0.0337712	0.00270827	0.000928137	0	5	0	
0.1705	0.121353	-0.0424249	0.00271628	0.000931165	0	5	0	
0.170667	-0.122187	0.0351105	0.00268543	0.000972679	0	5	0	
0.170833	0.123215	-0.0327254	0.0027076	0.000939017	0	5	0	
0.171	-0.12254	0.0331777	0.00269303	0.000915587	0	5	0	
0.171167	0.118368	-0.0366409	0.00270468	0.000880951	0	5	0	
0.171333	-0.122963	0.0310277	0.00269131	0.000881335	0	5	0	
0.1715	0.124495	-0.0364512	0.00273803	0.000863324	0	5	0	
0.171667	-0.125329	0.028557	0.00274315	0.000861012	0	5	0	
0.171833	0.122852	-0.0345368	0.00276151	0.000847896	0	5	0	
0.172	-0.116276	0.0389796	0.00271512	0.000867449	0	5	0	
0.172167	0.116463	-0.0318701	0.00270565	0.000872267	0	5	0	
0.172333	-0.125287	0.0332391	0.00272294	0.000844229	0	5	0	
0.1725	0.127181	-0.0383725	0.00280024	0.000833894	0	5	0	
0.172667	-0.12321	0.0309258	0.00281265	0.000881251	0	5	0	
0.172833	0.120656	-0.0347901	0.00280327	0.000945811	0	5	0	
0.173	-0.12656	0.0380019	0.00277638	0.00096937	0	5	0	
0.173167	0.127229	-0.0357593	0.00279567	0.000941655	0	5	0	
0.173333	-0.114327	0.0405049	0.0027385	0.000898835	0	5	0	
0.1735	0.104688	-0.0359639	0.00265238	0.000912257	0	5	0	
0.173667	-0.118668	0.0234283	0.00263224	0.00089991	0	5	0	
0.173833	0.129946	-0.0216121	0.0027529	0.000884124	0	5	0	
0.174	-0.123654	0.0330786	0.00283102	0.000858279	0	5	0	
0.174167	0.111662	-0.0433912	0.00281052	0.000910187	0	5	0	
0.174333	-0.112978	0.0385951	0.0027244	0.000989462	0	5	0	
0.1745	0.119725	-0.0320207	0.00275054	0.000997477	0	5	0	
0.174667	-0.124284	0.033004	0.00281655	0.000897706	0	5	0	
0.174833	0.120553	-0.0337454	0.00284979	0.000832596	0	5	0	
0.175	-0.114513	0.0402165	0.00278406	0.000817349	0	5	0	
0.175167	0.11643	-0.0374207	0.002738	0.000895588	0	5	0	
0.175333	-0.119609	0.0330839	0.00271416	0.000948382	0	5	0	
0.1755	0.11033	-0.033826	0.00269664	0.000960255	0	5	0	
0.175667	-0.103615	0.0344137	0.00261976	0.000905586	0	5	0	
0.175833	0.111775	-0.0348042	0.00260346	0.00089552	0	5	0	
0.176	-0.120693	0.0436192	0.00266084	0.00095672	0	5	0	
0.176167	0.118824	-0.0399937	0.00275376	0.00107458	0	5	0	
0.176333	-0.112583	0.0366731	0.00274648	0.00109185	0	5	0	
0.1765	0.108625	-0.0306301	0.00269778	0.00102438	0	5	0	
0.176667	-0.112127	0.0280095	0.0026665	0.000909766	0	5	0	
0.176833	0.115774	-0.0351799	0.00270892	0.00086304	0	5	0	
0.177	-0.11707	0.0353591	0.00271593	0.000899963	0	5	0	
0.177167	0.113798	-0.0319686	0.00271861	0.000955419	0	5	0	
0.177333	-0.113113	0.0336104	0.00269022	0.00096946	0	5	0	
0.1775	0.115059	-0.0286101	0.0027022	0.000942887	0	5	0	
0.177667	-0.112609	0.0314512	0.00267739	0.000902827	0	5	0	
0.177833	0.110017	-0.0370618	0.00267943	0.000862803	0	5	0	
0.178	-0.118487	0.0258454	0.0026917	0.000862126	0	5	0	
0.178167	0.117071	-0.0306465	0.00276522	0.000844874	0	5	0	
0.178333	-0.111229	0.0368602	0.0027649	0.000872129	0	5	0	
0.1785	0.10807	-0.0334482	0.00274731	0.000879507	0	5	0	
0.178667	-0.113029	0.0351886	0.00271127	0.000898423	0	5	0	
0.178833	0.11037	-0.037356	0.00275411	0.000902095	0	5	0	
0.179	-0.110413	0.0287258	0.00273957	0.000923868	0	5	0	
0.179167	0.101599	-0.0368972	0.0027196	0.000933499	0	5	0	
0.179333	-0.107663	0.0374385	0.00267264	0.00097854	0	5	0	
0.1795	0.115284	-0.0353966	0.00274382	0.000995796	0	5	0	
0.179667	-0.117034	0.0316101	0.00277982	0.00100246	0	5	0	
0.179833	0.109086	-0.0281135	0.0027796	0.0009725	0	5	0	
0.18	-0.10691	0.0282592	0.00268825	0.000943113	0	5	0	
0.180167	0.107245	-0.0275924	0.00265159	0.000929096	0	5	0	
0.180333	-0.108185	0.0258804	0.00262798	0.000879143	0	5	0	
0.1805	0.102441	-0.0292436	0.00264658	0.000837796	0	5	0	
0.180667	-0.10621	0.0278903	0.00265083	0.000853352	0	5	0	
0.180833	0.111592	-0.0327318	0.00272886	0.000894553	0	5	0	
0.181	-0.111579	0.0342017	0.00278368	0.000884866	0	5	0	
0.181167	0.109515	-0.0279963	0.00278931	0.000856684	0	5	0	
0.181333	-0.106215	0.0382339	0.00272913	0.000850349	0	5	0	
0.1815	0.102885	-0.0376097	0.00268888	0.000941341	0	5	0	
0.181667	-0.106545	0.0348468	0.00269723	0.000985541	0	5	0	
0.181833	0.109312	-0.0360076	0.00275487	0.000986178	0	5	0	
0.182	-0.111063	0.0372728	0.00278684	0.00094329	0	5	0	
0.182167	0.105588	-0.0332098	0.00276842	0.000967377	0	5	0	
0.182333	-0.103261	0.0291586	0.00268358	0.000996444	0	5	0	
0.1825	0.102632	-0.0281053	0.00264144	0.00100789	0	5	0	
0.182667	-0.104683	0.0324334	0.00265063	0.00100022	0	5	0	
0.182833	0.103564	-0.0314123	0.00270276	0.00102785	0	5	0	
0.183	-0.104762	0.0275111	0.00271924	0.00100845	0	5	0	
0.183167	0.103279	-0.0257962	0.00272352	0.00094295	0	5	0	
0.183333	-0.106042	0.0297287	0.00270077	0.000883835	0	5	0	
0.1835	0.10516	-0.0336364	0.00271739	0.000917269	0	5	0	
0.183667	-0.108266	0.0290104	0.00274226	0.000965679	0	5	0	
0.183833	0.108564	-0.0229802	0.00278587	0.000948596	0	5	0	
0.184	-0.104243	0.024889	0.00276849	0.000849977	0	5	0	
0.184167	0.099555	-0.0309715	0.0027342	0.000797797	0	5	0	
0.184333	-0.103148	0.0334565	0.00268816	0.000839776	0	5	0	
0.1845	0.100934	-0.0308352	0.00268265	0.000933176	0	5	0	
0.184667	-0.0989354	0.0304348	0.00267811	0.000960842	0	5	0	
0.184833	0.0989587	-0.0292517	0.00271801	0.000941968	0	5	0	
0.185	-0.102034	0.0280394	0.00275844	0.000903756	0	5	0	
0.185167	0.0994454	-0.0245064	0.00277266	0.000913856	0	5	0	
0.185333	-0.0928873	0.0279967	0.0027026	0.000934487	0	5	0	
0.1855	0.0942424	-0.0276143	0.00263648	0.000986829	0	5	0	
0.185667	-0.106883	0.032977	0.00268725	0.00100608	0	5	0	
0.185833	0.109321	-0.0270407	0.00280883	0.00100632	0	5	0	
0.186	-0.102338	0.0176357	0.00281948	0.000935018	0	5	0	
0.186167	0.0888781	-0.0187435	0.00270319	0.000870977	0	5	0	
0.186333	-0.0935467	0.0238774	0.00260168	0.000847792	0	5	0	
0.1865	0.104702	-0.0202446	0.00265849	0.000898159	0	5	0	
0.186667	-0.104157	0.0229676	0.00275022	0.000938319	0	5	0	
0.186833	0.0907186	-0.0230735	0.00275466	0.000933783	0	5	0	
0.187	-0.0924618	0.0261866	0.00268572	0.00085959	0	5	0	
0.187167	0.0968487	-0.0267064	0.00269545	0.00081227	0	5	0	
0.187333	-0.104693	0.0225434	0.00275573	0.000808268	0	5	0	
0.1875	0.0977487	-0.0156606	0.00280316	0.000842465	0	5	0	
0.187667	-0.0956423	0.0135234	0.00274664	0.00085488	0	5	0	
0.187833	0.0978039	-0.0255758	0.00273285	0.000833523	0	5	0	
0.188	-0.103077	0.0323323	0.00273578	0.000842162	0	5	0	
0.188167	0.0949129	-0.028396	0.00273831	0.000904128	0	5	0	
0.188333	-0.0912824	0.0241074	0.00267738	0.000957995	0	5	0	
0.1885	0.0927772	-0.02031	0.00267817	0.000947044	0	5	0	
0.188667	-0.0996536	0.0201869	0.00271832	0.000863233	0	5	0	
0.188833	0.0971667	-0.0283336	0.00278052	0.000798664	0	5	0	
0.189	-0.0959031	0.020329	0.00275258	0.000850102	0	5	0	
0.189167	0.0930115	-0.0200795	0.00272389	0.00095659	0	5	0	
0.189333	-0.0973587	0.0246302	0.00272061	0.00101828	0	5	0	
0.1895	0.104764	-0.02195	0.00281399	0.000931687	0	5	0	
0.189667	-0.106371	0.0190301	0.00288024	0.000785057	0	5	0	
0.189833	0.0940724	-0.0228506	0.00285323	0.000723921	0	5	0	
0.19	-0.0836533	0.0230938	0.00269286	0.000784528	0	5	0	
0.190167	0.0818564	-0.0200266	0.00258543	0.000862265	0	5	0	
0.190333	-0.0872945	0.0238006	0.00258426	0.000885913	0	5	0	
0.1905	0.0920195	-0.0261103	0.00269871	0.000890036	0	5	0	
0.190667	-0.0988383	0.0289208	0.00280322	0.000942717	0	5	0	
0.190833	0.102649	-0.0301975	0.00285197	0.0010077	0	5	0	
0.191	-0.104397	0.0247	0.00275623	0.00100256	0	5	0	
0.191167	0.0759122	-0.0174507	0.00252465	0.000942643	0	5	0	
0.191333	-0.0640387	0.0213484	0.00232363	0.000886085	0	5	0	
0.1915	0.086757	-0.0128881	0.00238036	0.000879075	0	5	0	
0.191667	-0.104736	0.00952686	0.0026491	0.000849463	0	5	0	
0.191833	0.0949726	-0.0110369	0.00282533	0.000816255	0	5	0	
0.192	-0.100403	0.0222626	0.00283332	0.000834853	0	5	0	
0.192167	0.0983088	-0.0318835	0.00279351	0.00093505	0	5	0	
0.192333	-0.0984531	0.0265382	0.00276547	0.00100447	0	5	0	
0.1925	0.0821696	-0.0191764	0.00265973	0.000961102	0	5	0	
0.192667	-0.0836074	0.0205037	0.00256248	0.000864075	0	5	0	
0.192833	0.0922048	-0.0250117	0.00262076	0.000806865	0	5	0	
0.193	-0.0999271	0.0202151	0.00275247	0.000822487	0	5	0	
0.193167	0.0907457	-0.0192509	0.00277199	0.000869109	0	5	0	
0.193333	-0.0894729	0.0256547	0.00267497	0.000911925	0	5	0	
0.1935	0.0860188	-0.0268258	0.00263961	0.000931211	0	5	0	
0.193667	-0.0906996	0.0271145	0.0026953	0.00092816	0	5	0	
0.193833	0.0880689	-0.0221627	0.00277693	0.000909004	0	5	0	
0.194	-0.090175	0.0164946	0.00276285	0.0009129	0	5	0	
0.194167	0.0832585	-0.0274608	0.00269309	0.000943723	0	5	0	
0.194333	-0.0870224	0.0229934	0.0026612	0.00101295	0	5	0	
0.1945	0.0923615	-0.018518	0.00272816	0.00105005	0	5	0	
0.194667	-0.0887636	0.0225086	0.00279051	0.00106614	0	5	0	
0.194833	0.0801846	-0.0152819	0.00275122	0.00104683	0	5	0	
0.195	-0.0850501	0.021733	0.00265842	0.000990877	0	5	0	
0.195167	0.0820886	-0.0221318	0.00262283	0.000897785	0	5	0	
0.195333	-0.083709	0.00862575	0.00264646	0.000833163	0	5	0	
0.1955	0.0832267	-0.0133325	0.00267458	0.000841175	0	5	0	
0.195667	-0.0784168	0.01979	0.00264592	0.0009153	0	5	0	
0.195833	0.0791822	-0.0249833	0.00260943	0.000931397	0	5	0	
0.196	-0.0773709	0.0294993	0.00258864	0.000905479	0	5	0	
0.196167	0.0755305	-0.0272333	0.00259687	0.000908055	0	5	0	
0.196333	-0.0804337	0.0233733	0.00262654	0.000955919	0	5	0	
0.1965	0.0854443	-0.0153334	0.00268001	0.00095538	0	5	0	
0.196667	-0.0869656	0.0173869	0.00271968	0.000887463	0	5	0	
0.196833	0.0844242	-0.0288404	0.00273138	0.000866811	0	5	0	
0.197	-0.0812096	0.026585	0.00269777	0.00095135	0	5	0	
0.197167	0.0795138	-0.0221372	0.00267626	0.0010217	0	5	0	
0.197333	-0.0815479	0.0160232	0.00265656	0.00099672	0	5	0	
0.1975	0.0761674	-0.0137987	0.00263713	0.000907246	0	5	0	
0.197667	-0.0733473	0.0205722	0.00257608	0.000860043	0	5	0	
0.197833	0.0676915	-0.0237069	0.00253963	0.000913935	0	5	0	
0.198	-0.0701254	0.0223379	0.00256044	0.0010055	0	5	0	
0.198167	0.0778606	-0.0156429	0.00268153	0.000994742	0	5	0	
0.198333	-0.0876021	-0.00457188	0.00276949	0.000810756	0	5	0	
0.1985	0.0857214	-0.00145935	0.00278751	0.000654177	0	5	0	
0.198667	-0.0886855	0.0197392	0.00273559	0.000721477	0	5	0	
0.198833	0.0877493	-0.0229753	0.00271603	0.000916111	0	5	0	
0.199	-0.0754107	0.0210671	0.00260306	0.00102864	0	5	0	
0.199167	0.0592956	-0.0217857	0.00246172	0.00100889	0	5	0	
0.199333	-0.0666584	0.0275828	0.0024246	0.000927718	0	5	0	
0.1995	0.0851736	-0.033172	0.00265833	0.000837335	0	5	0	
0.199667	-0.0915708	0.0170752	0.00292034	0.000763555	0	5	0	
0.199833	0.0832773	-0.0117454	0.00299442	0.000763596	0	5	0	
0.2	-0.080596	0.0187036	0.00287061	0.000846972	0	5	0	
0.200167	0.0842138	-0.0197285	0.00279539	0.000919846	0	5	0	
0.200333	-0.0823305	0.0277783	0.00277194	0.000952039	0	5	0	
0.2005	0.0688063	-0.0192855	0.00272438	0.000968744	0	5	0	
0.200667	-0.0630491	0.012169	0.00261196	0.00098371	0	5	0	
0.200833	0.0678021	-0.0168766	0.00260771	0.00100899	0	5	0	
0.201	-0.0801063	0.0239381	0.00270793	0.000994277	0	5	0	
0.201167	0.075354	-0.025422	0.00278324	0.000997604	0	5	0	
0.201333	-0.0650744	0.022109	0.00270981	0.00100388	0	5	0	
0.2015	0.0669454	-0.00584543	0.00264226	0.000981404	0	5	0	
0.201667	-0.0865472	0.00420268	0.00270282	0.000816691	0	5	0	
0.201833	0.090412	3.76684E-05	0.00284395	0.000648909	0	5	0	
0.202	-0.0820092	0.0122057	0.00282913	0.00066145	0	5	0	
0.202167	0.0670997	-0.0175789	0.00269018	0.000878328	0	5	0	
0.202333	-0.0654946	0.0138457	0.00256652	0.0010613	0	5	0	
0.2025	0.0694337	-0.0220284	0.00260047	0.00106246	0	5	0	
0.202667	-0.0695962	0.0335657	0.00267497	0.000956442	0	5	0	
0.202833	0.0650862	-0.0272564	0.00274855	0.000891135	0	5	0	
0.203	-0.0751825	0.0152217	0.00283079	0.000809556	0	5	0	
0.203167	0.0809806	-0.00406954	0.0029417	0.000775964	0	5	0	
0.203333	-0.0747395	0.0121956	0.00293145	0.000793064	0	5	0	
0.2035	0.06046	-0.0225529	0.00280636	0.000879555	0	5	0	
0.203667	-0.0668762	0.0180838	0.00270805	0.000935985	0	5	0	
0.203833	0.0770981	-0.0161767	0.002767	0.000906962	0	5	0	
0.204	-0.0755258	0.0149369	0.00282482	0.000854095	0	5	0	
0.204167	0.0641773	-0.0137089	0.00277577	0.000819063	0	5	0	
0.204333	-0.0641057	0.0227739	0.00266821	0.000844921	0	5	0	
0.2045	0.0646463	-0.0205981	0.0026498	0.000928211	0	5	0	
0.204667	-0.0642635	0.0209427	0.00267302	0.000984117	0	5	0	
0.204833	0.0623969	-0.0192217	0.00270535	0.000974472	0	5	0	
0.205	-0.068843	0.0148776	0.00271707	0.000925331	0	5	0	
0.205167	0.0682837	-0.0239363	0.00273652	0.000904521	0	5	0	
0.205333	-0.0602949	0.0205952	0.00271757	0.000930779	0	5	0	
0.2055	0.0599364	-0.0104286	0.00269178	0.000955106	0	5	0	
0.205667	-0.0623524	0.0188079	0.00269314	0.00095806	0	5	0	
0.205833	0.0652344	-0.00830165	0.00272762	0.000954849	0	5	0	
0.206	-0.0708921	0.0126043	0.00277071	0.000927906	0	5	0	
0.206167	0.0697492	-0.0177083	0.00279645	0.000910118	0	5	0	
0.206333	-0.0655028	0.0105515	0.00275996	0.00090228	0	5	0	
0.2065	0.0598241	-0.0154522	0.00268112	0.000913128	0	5	0	
0.206667	-0.060399	0.014345	0.00262657	0.000924703	0	5	0	
0.206833	0.0646334	-0.00958519	0.00265931	0.00091361	0	5	0	
0.207	-0.0632367	0.0230726	0.00270595	0.00089436	0	5	0	
0.207167	0.0559785	-0.0120317	0.00270554	0.000894399	0	5	0	
0.207333	-0.0604453	0.0104959	0.00268469	0.000887409	0	5	0	
0.2075	0.06413	-0.0202419	0.0027191	0.000907847	0	5	0	
0.207667	-0.0665528	0.0149673	0.00275401	0.000928429	0	5	0	
0.207833	0.0618346	-0.0158787	0.00274845	0.000949962	0	5	0	
0.208	-0.0573105	0.0153772	0.00268317	0.000961825	0	5	0	
0.208167	0.0555353	-0.00869695	0.00265127	0.000948998	0	5	0	
0.208333	-0.0647182	0.0113867	0.00267469	0.000939612	0	5	0	
0.2085	0.0609833	-0.017688	0.00272261	0.00093535	0	5	0	
0.208667	-0.0602861	0.00907368	0.00269627	0.000934405	0	5	0	
0.208833	0.0505017	-0.0062096	0.00267176	0.000930439	0	5	0	
0.209	-0.059974	0.00905703	0.00269681	0.000925797	0	5	0	
0.209167	0.0638979	-0.0112558	0.00278665	0.000912857	0	5	0	
0.209333	-0.0604467	0.0134207	0.00277601	0.000886337	0	5	0	
0.2095	0.0537692	-0.00969444	0.0027104	0.000850635	0	5	0	
0.209667	-0.0615909	0.00761342	0.0026789	0.000852852	0	5	0	
0.209833	0.0594968	-0.0107072	0.00272265	0.000901988	0	5	0	
0.21	-0.0563177	0.0117081	0.0027123	0.00094034	0	5	0	
0.210167	0.0521539	-0.0161422	0.00267884	0.000943817	0	5	0	
0.210333	-0.0621282	0.0198799	0.00268964	0.000930964	0	5	0	
0.2105	0.0674542	-0.0134969	0.00277331	0.000942813	0	5	0	
0.210667	-0.0607653	0.0109246	0.00278968	0.000959101	0	5	0	
0.210833	0.0525389	-0.00803797	0.00273066	0.000954839	0	5	0	
0.211	-0.054411	0.00622992	0.00267682	0.000887824	0	5	0	
0.211167	0.0527386	-0.0132663	0.00266843	0.000805779	0	5	0	
0.211333	-0.0509148	0.018546	0.0026616	0.000792651	0	5	0	
0.2115	0.0558509	-0.0108804	0.00270473	0.000817231	0	5	0	
0.211667	-0.0751171	-0.0116717	0.00280417	0.000752393	0	5	0	
0.211833	0.0715624	0.0212951	0.00287959	0.00068333	0	5	0	
0.212	-0.0537918	-0.000559658	0.00275336	0.000759057	0	5	0	
0.212167	0.0505603	-0.027632	0.00260106	0.000975456	0	5	0	
0.212333	-0.0565089	0.0266383	0.00256582	0.00110703	0	5	0	
0.2125	0.0544122	-0.0231913	0.00262729	0.00110362	0	5	0	
0.212667	-0.0423628	0.0222254	0.00263055	0.00103738	0	5	0	
0.212833	0.0456533	-0.0135769	0.00265469	0.000879923	0	5	0	
0.213	-0.0581775	-4.17778E-06	0.0028193	0.00063898	0	5	0	
0.213167	0.0719164	-0.00167501	0.00299129	0.000534803	0	5	0	
0.213333	-0.0586385	0.0107864	0.002946	0.000696191	0	5	0	
0.2135	0.0465232	-0.0122696	0.00270225	0.000952453	0	5	0	
0.213667	-0.0450588	0.0104473	0.00256475	0.00106251	0	5	0	
0.213833	0.0570983	-0.00979249	0.00261311	0.00101693	0	5	0	
0.214	-0.0534738	0.0121053	0.00268679	0.000928947	0	5	0	
0.214167	0.0410849	-0.00674674	0.00262885	0.000870463	0	5	0	
0.214333	-0.0439442	0.011792	0.00259344	0.0008713	0	5	0	
0.2145	0.0571096	-0.00469202	0.00268851	0.000935787	0	5	0	
0.214667	-0.0539236	0.00641308	0.00277254	0.000967217	0	5	0	
0.214833	0.0399376	-0.00241953	0.00272186	0.000932342	0	5	0	
0.215	-0.0453459	0.0010643	0.00268916	0.000870231	0	5	0	
0.215167	0.0595303	-0.00611001	0.00282367	0.000845673	0	5	0	
0.215333	-0.0680709	0.0152682	0.00295543	0.000851219	0	5	0	
0.2155	0.0518997	-0.00639078	0.00289214	0.000888169	0	5	0	
0.215667	-0.0335904	0.00864768	0.00270663	0.000915045	0	5	0	
0.215833	0.0416535	-0.00864868	0.00267679	0.000907533	0	5	0	
0.216	-0.0534783	0.0141493	0.00278243	0.000845221	0	5	0	
0.216167	0.0421887	-0.0149647	0.00283264	0.000796211	0	5	0	
0.216333	-0.0400558	0.0116411	0.00277448	0.00082299	0	5	0	
0.2165	0.0451644	-0.00832433	0.00278497	0.000911663	0	5	0	
0.216667	-0.0482807	0.0103674	0.00283335	0.000972417	0	5	0	
0.216833	0.0413726	-0.0120436	0.00277816	0.000939861	0	5	0	
0.217	-0.0367891	0.0137757	0.00264426	0.000871596	0	5	0	
0.217167	0.0453741	-0.00279157	0.00265597	0.000849164	0	5	0	
0.217333	-0.0576788	0.0043731	0.00278882	0.000888426	0	5	0	
0.2175	0.046572	-0.00977745	0.00283003	0.000937683	0	5	0	
0.217667	-0.0376677	0.0142513	0.00269877	0.000953244	0	5	0	
0.217833	0.0359465	-0.0196593	0.00261856	0.000942246	0	5	0	
0.218	-0.044569	0.0146852	0.00266533	0.000925761	0	5	0	
0.218167	0.0453817	-0.00579052	0.00275029	0.000913321	0	5	0	
0.218333	-0.0417165	0.0104199	0.00273564	0.000921989	0	5	0	
0.2185	0.0335125	-0.00916178	0.00269062	0.000955974	0	5	0	
0.218667	-0.0389652	0.0148386	0.00269579	0.000999454	0	5	0	
0.218833	0.040993	-0.0193966	0.00274094	0.00103221	0	5	0	
0.219	-0.0412532	0.0143468	0.00273744	0.00103009	0	5	0	
0.219167	0.0420926	-0.00248194	0.00270724	0.00098511	0	5	0	
0.219333	-0.0462091	-0.00351205	0.00268049	0.000923638	0	5	0	
0.2195	0.0417901	0.00396341	0.00265539	0.000892785	0	5	0	
0.219667	-0.0361438	0.00664714	0.00259875	0.000907589	0	5	0	
0.219833	0.0348567	-0.00675371	0.00255164	0.000942829	0	5	0	
0.22	-0.0376761	0.00940488	0.00255718	0.000974277	0	5	0	
0.220167	0.0374672	-0.00376548	0.00261248	0.000999009	0	5	0	
0.220333	-0.0408529	0.008428	0.00268866	0.000967495	0	5	0	
0.2205	0.0411855	-0.0068117	0.00276412	0.000882522	0	5	0	
0.220667	-0.042788	0.00847904	0.00277964	0.000814089	0	5	0	
0.220833	0.0365582	-0.00963014	0.00272718	0.000817648	0	5	0	
0.221	-0.0379866	0.00659199	0.00266618	0.000855765	0	5	0	
0.221167	0.0377916	-0.00141335	0.00268385	0.000883168	0	5	0	
0.221333	-0.0415403	0.00804296	0.00273088	0.000896977	0	5	0	
0.2215	0.0351049	-0.00580927	0.00274485	0.000922861	0	5	0	
0.221667	-0.0377029	0.00554637	0.00269508	0.000939351	0	5	0	
0.221833	0.0331056	-0.0100791	0.00265144	0.00092298	0	5	0	
0.222	-0.0373467	0.00937419	0.00262627	0.00090258	0	5	0	
0.222167	0.0337283	-0.00616717	0.00264903	0.000923581	0	5	0	
0.222333	-0.034731	0.00621665	0.00267634	0.000962749	0	5	0	
0.2225	0.0315435	0.000366495	0.00271325	0.000960406	0	5	0	
0.222667	-0.0361496	0.00445298	0.00272395	0.000933527	0	5	0	
0.222833	0.0371478	-0.00963489	0.00271246	0.000943445	0	5	0	
0.223	-0.0355701	0.00290851	0.00266704	0.00098437	0	5	0	
0.223167	0.02901	0.00206799	0.00263597	0.000994607	0	5	0	
0.223333	-0.032327	-0.00185719	0.00264811	0.000968321	0	5	0	
0.2235	0.0308241	-0.00319748	0.00269568	0.000931811	0	5	0	
0.223667	-0.0347376	0.00641111	0.00271919	0.000895468	0	5	0	
0.223833	0.0367264	0.000548521	0.00272276	0.000881323	0	5	0	
0.224	-0.0386488	-0.00105421	0.00270695	0.000916127	0	5	0	
0.224167	0.0321813	-0.00757883	0.00269926	0.000946838	0	5	0	
0.224333	-0.0313071	0.00476583	0.00269708	0.000904184	0	5	0	
0.2245	0.0273307	-0.00721203	0.00270277	0.000828936	0	5	0	
0.224667	-0.0297348	0.00711382	0.00268483	0.00083085	0	5	0	
0.224833	0.0291213	-0.00611177	0.00268002	0.000913106	0	5	0	
0.225	-0.0361364	0.00175581	0.00270981	0.00097333	0	5	0	
0.225167	0.0271725	-0.000678236	0.00273682	0.000986682	0	5	0	
0.225333	-0.0179015	0.00839513	0.002688	0.00100335	0	5	0	
0.2255	0.0211172	-0.0123695	0.00266593	0.0010049	0	5	0	
0.225667	-0.0393607	0.00732352	0.00274083	0.000950713	0	5	0	
0.225833	0.0386174	0.0013321	0.00281295	0.000891294	0	5	0	
0.226	-0.0265405	0.00236048	0.00273714	0.000914936	0	5	0	
0.226167	0.0187472	0.000945983	0.00262854	0.000979501	0	5	0	
0.226333	-0.0319265	-0.00405236	0.00264593	0.00099229	0	5	0	
0.2265	0.0356322	-0.00417381	0.00273637	0.00097015	0	5	0	
0.226667	-0.0284159	0.00883735	0.00272389	0.000999911	0	5	0	
0.226833	0.0210523	-0.00535317	0.00263549	0.00105189	0	5	0	
0.227	-0.0284106	-0.00173777	0.00263029	0.00102092	0	5	0	
0.227167	0.0322949	0.00868196	0.00270714	0.000932732	0	5	0	
0.227333	-0.0275753	-0.00095977	0.00271539	0.000873147	0	5	0	
0.2275	0.0165613	0.00335551	0.00264176	0.000872753	0	5	0	
0.227667	-0.0225986	-0.00299511	0.00263894	0.000874453	0	5	0	
0.227833	0.032201	0.000508406	0.0027531	0.000870385	0	5	0	
0.228	-0.0355372	-0.000150077	0.00281433	0.000887912	0	5	0	
0.228167	0.0237636	-0.00122367	0.00272843	0.000910042	0	5	0	
0.228333	-0.0213001	0.0035762	0.002613	0.000900127	0	5	0	
0.2285	0.0247434	-0.00431143	0.00261824	0.000905183	0	5	0	
0.228667	-0.0299575	0.00320664	0.00268925	0.000944379	0	5	0	
0.228833	0.0246173	0.00084335	0.00270798	0.000978003	0	5	0	
0.229	-0.0204232	0.00307596	0.00265511	0.000965693	0	5	0	
0.229167	0.0199503	0.00634471	0.00264735	0.000924358	0	5	0	
0.229333	-0.0307793	-0.00237895	0.00272014	0.000895184	0	5	0	
0.2295	0.0271168	-0.00228157	0.0027794	0.000903043	0	5	0	
0.229667	-0.0201806	-0.00835138	0.00272715	0.000934155	0	5	0	
0.229833	0.0205796	0.00193891	0.00266958	0.000931767	0	5	0	
0.23	-0.0299258	0.00314016	0.00270783	0.00087069	0	5	0	
0.230167	0.028382	0.0147904	0.00275412	0.000813916	0	5	0	
0.230333	-0.0173706	-0.00435652	0.00267722	0.000821664	0	5	0	
0.2305	0.0099623	-0.00470835	0.0025742	0.000904116	0	5	0	
0.230667	-0.0231953	-0.000320734	0.00259664	0.000983134	0	5	0	
0.230833	0.022819	-0.000118247	0.00269522	0.00101842	0	5	0	
0.231	-0.019401	0.00192785	0.00273675	0.000991965	0	5	0	
0.231167	0.0185587	0.00143005	0.00274832	0.000932617	0	5	0	
0.231333	-0.0257428	0.00576137	0.00277535	0.000872931	0	5	0	
0.2315	0.025593	0.00116443	0.00276858	0.000837122	0	5	0	
0.231667	-0.0192736	-0.00340917	0.00268996	0.00084287	0	5	0	
0.231833	0.0133641	0.00355754	0.00262849	0.000877674	0	5	0	
0.232	-0.0200338	0.000518692	0.00265281	0.000891919	0	5	0	
0.232167	0.0168372	-0.0065844	0.00271014	0.000882917	0	5	0	
0.232333	-0.0177585	0.0032757	0.0027163	0.000877096	0	5	0	
0.2325	0.0151312	-6.2647E-05	0.00269518	0.000891358	0	5	0	
0.232667	-0.0156476	0.00159033	0.00270435	0.000925281	0	5	0	
0.232833	0.0181913	0.00285131	0.00274632	0.000973935	0	5	0	
0.233	-0.021823	0.0017928	0.00275016	0.000998823	0	5	0	
0.233167	0.0125338	0.000909097	0.00268897	0.000975062	0	5	0	
0.233333	-0.0122099	0.0021638	0.00262395	0.000956825	0	5	0	
0.2335	0.0131468	0.000727478	0.00263417	0.000998534	0	5	0	
0.233667	-0.0190738	-0.00147125	0.00269358	0.0010492	0	5	0	
0.233833	0.0147045	0.00665956	0.00273772	0.00103647	0	5	0	
0.234	-0.0169139	-0.00851443	0.00272672	0.000982264	0	5	0	
0.234167	0.016561	0.00331243	0.00270865	0.0009451	0	5	0	
0.234333	-0.0247985	0.00146351	0.00271259	0.000923893	0	5	0	
0.2345	0.0259131	0.00645976	0.0027277	0.000891536	0	5	0	
0.234667	-0.0248712	-0.00628128	0.00270541	0.000863614	0	5	0	
0.234833	0.00811029	0.0117473	0.00264235	0.000875411	0	5	0	
0.235	-0.00612328	-0.00830669	0.00259848	0.000909281	0	5	0	
0.235167	0.0101566	-8.14537E-05	0.00265661	0.000943499	0	5	0	
0.235333	-0.0192938	0.00265553	0.00275905	0.00095924	0	5	0	
0.2355	0.0140121	-0.00329502	0.0028156	0.000951397	0	5	0	
0.235667	-0.0135381	7.3175E-05	0.00281265	0.000923705	0	5	0	
0.235833	0.0136606	0.00704272	0.00281252	0.000903708	0	5	0	
0.236	-0.0168757	-0.00238053	0.00279058	0.000898987	0	5	0	
0.236167	0.00991432	0.00756462	0.00271483	0.000911713	0	5	0	
0.236333	-0.0107404	-0.0061395	0.00264591	0.000936589	0	5	0	
0.2365	0.0119375	0.00242043	0.00267097	0.000983	0	5	0	
0.236667	-0.0153525	-0.00178727	0.00272645	0.00101506	0	5	0	
0.236833	0.0109954	0.00464851	0.00272095	0.000996698	0	5	0	
0.237	-0.00489165	-0.00202446	0.00266216	0.000942869	0	5	0	
0.237167	0.00916172	0.00546858	0.00263207	0.000903073	0	5	0	
0.237333	-0.0151888	-0.00254696	0.00267429	0.000890903	0	5	0	
0.2375	0.0112082	0.00901869	0.00271834	0.000907046	0	5	0	
0.237667	-0.0155956	-0.0106551	0.00270268	0.000925813	0	5	0	
0.237833	0.00768879	0.00696465	0.00265499	0.000933112	0	5	0	
0.238	-0.0100299	-0.00278416	0.00261099	0.000929352	0	5	0	
0.238167	0.00520164	0.00244758	0.00259124	0.000952875	0	5	0	
0.238333	-0.00213198	-0.000650097	0.00260327	0.00101309	0	5	0	
0.2385	0.00381931	0.000938074	0.00270385	0.00103715	0	5	0	
0.238667	-0.0191225	-0.00690653	0.00285581	0.00097146	0	5	0	
0.238833	0.0157336	0.00477507	0.00289892	0.000890074	0	5	0	
0.239	-0.0120049	-0.00219309	0.00275564	0.000870008	0	5	0	
0.239167	0.00256167	0.0090691	0.0025944	0.000905963	0	5	0	
0.239333	-0.00839097	-0.0116392	0.00256762	0.000944292	0	5	0	
0.2395	0.0097164	0.0087932	0.00262551	0.000973987	0	5	0	
0.239667	-0.00027502	-0.00645596	0.00261962	0.000994751	0	5	0	
0.239833	-0.00445074	0.00821506	0.00259838	0.000982862	0	5	0	
0.24	-0.01046	-0.0103352	0.00268795	0.000958851	0	5	0	
0.240167	0.0158224	0.00668429	0.00280199	0.000959834	0	5	0	
0.240333	-0.00653093	-0.00725804	0.00277227	0.000973576	0	5	0	
0.2405	-0.00443777	-0.00011645	0.00266828	0.000962288	0	5	0	
0.240667	-0.00545766	0.00404306	0.0026927	0.000941263	0	5	0	
0.240833	0.0103034	0.000116021	0.00281261	0.000928631	0	5	0	
0.241	-0.0106766	-0.0041433	0.00282714	0.000920651	0	5	0	
0.241167	0.0039171	0.0108222	0.00270972	0.000901592	0	5	0	
0.241333	-0.00647561	-0.0116525	0.00261587	0.000882012	0	5	0	
0.2415	1.34897E-05	0.0021221	0.00262115	0.000883011	0	5	0	
0.241667	-0.00342204	-0.00740888	0.00265505	0.000934219	0	5	0	
0.241833	-0.00128733	0.00666161	0.00267103	0.00102708	0	5	0	
0.242	-0.00147083	-0.00891616	0.00269678	0.00110162	0	5	0	
0.242167	0.00380408	0.00732185	0.00275261	0.00108825	0	5	0	
0.242333	-0.0119397	-0.00383822	0.00279083	0.00101062	0	5	0	
0.2425	0.00170982	0.00754237	0.00275809	0.000945618	0	5	0	
0.242667	-0.000114235	-0.00871704	0.00269383	0.000925696	0	5	0	
0.242833	0.00361682	0.0122411	0.00268092	0.000929744	0	5	0	
0.243	-0.00546131	-0.0146547	0.00267885	0.000957432	0	5	0	
0.243167	-0.00606081	0.00740139	0.00263295	0.000993916	0	5	0	
0.243333	0.00228729	-0.00678343	0.0026203	0.000988248	0	5	0	
0.2435	0.0040914	0.00923773	0.00271993	0.000918315	0	5	0	
0.243667	-0.00865098	-0.00707271	0.00280852	0.000846221	0	5	0	
0.243833	0.0013546	0.0120494	0.00275343	0.000850229	0	5	0	
0.244	-0.000660343	-0.0120636	0.00265068	0.000885412	0	5	0	
0.244167	0.007566	0.0111262	0.0026624	0.00086862	0	5	0	
0.244333	-0.00916339	-0.00764541	0.0027243	0.0008138	0	5	0	
0.2445	-0.00244542	0.00770269	0.00269067	0.000835219	0	5	0	
0.244667	0.00746207	-0.015757	0.00261366	0.00095243	0	5	0	
0.244833	-0.00249159	0.0100965	0.00263762	0.00103954	0	5	0	
0.245	-0.00747032	-0.00933328	0.00273887	0.000997435	0	5	0	
0.245167	0.00025069	0.00237429	0.00276271	0.000877378	0	5	0	
0.245333	0.00549427	-0.000920839	0.00270232	0.000817225	0	5	0	
0.2455	-0.00316701	0.0122054	0.00269159	0.000825202	0	5	0	
0.245667	-0.00229632	-0.015718	0.00275985	0.000851525	0	5	0	
0.245833	0.00152158	0.0115858	0.00278692	0.00086455	0	5	0	
0.246	-0.000191133	-0.00481954	0.00271825	0.000893454	0	5	0	
0.246167	-0.00586514	0.000327336	0.00264282	0.000932429	0	5	0	
0.246333	0.000929715	-0.011868	0.00263362	0.000958987	0	5	0	
0.2465	-0.00530993	0.0122457	0.00266627	0.000968779	0	5	0	
0.246667	0.00411518	-0.00867164	0.00269433	0.000957134	0	5	0	
0.246833	-0.0056395	0.00724831	0.00272139	0.000918613	0	5	0	
0.247	-0.000242464	-0.00486781	0.00273873	0.000876953	0	5	0	
0.247167	-0.00205858	0.0115813	0.00273363	0.000865691	0	5	0	
0.247333	0.00246161	-0.0130614	0.00271047	0.000866606	0	5	0	
0.2475	-0.0042639	0.0206574	0.00269372	0.000861344	0	5	0	
0.247667	0.00464531	-0.018993	0.00267339	0.000847937	0	5	0	
0.247833	-0.0105551	0.00511554	0.00265435	0.000873931	0	5	0	
0.248	0.00785607	-0.000382667	0.00267251	0.000937153	0	5	0	
0.248167	-0.0049294	0.00362249	0.00273827	0.000968642	0	5	0	
0.248333	0.00243082	-0.011328	0.00278067	0.000936727	0	5	0	
0.2485	-0.00551259	0.0136183	0.00275075	0.000866729	0	5	0	
0.248667	0.00745097	-0.00237995	0.00269235	0.000796663	0	5	0	
0.248833	-0.00543238	0.00623273	0.00267194	0.00073678	0	5	0	
0.249	0.00495854	-0.00698533	0.00269544	0.000702963	0	5	0	
0.249167	-0.0105612	0.010579	0.00272458	0.000746851	0	5	0	
0.249333	0.00518517	-0.0167337	0.0027459	0.000810329	0	5	0	
0.2495	-0.00748074	0.00823406	0.00276116	0.000807264	0	5	0	
0.249667	0.00484478	-0.00355901	0.00274537	0.000794374	0	5	0	
0.249833	-0.00875338	5.9508E-05	0.00270823	0.000873799	0	5	0	
0.25	0.00872743	0.00555778	0.00268979	0.000998506	0	5	0	
0.250167	-0.0134729	0.00718072	0.00271846	0.000940151	0	5	0	
0.250333	0.00335456	-0.031706	0.00276964	0.000729182	0	5	0	
0.2505	-0.00369614	0.0452125	0.00284208	0.000596436	0	5	0	
0.250667	-0.00641546	-0.0344081	0.00291002	0.000704433	0	5	0	
0.250833	3.55806E-05	0.0272195	0.00290402	0.00104991	0	5	0	
0.251	0.00513111	-0.0212091	0.0027958	0.00129739	0	5	0	
0.251167	-0.00638448	0.00796853	0.00270646	0.00134756	0	5	0	
0.251333	-0.000727531	0.0141531	0.00268736	0.00118122	0	5	0	
0.2515	-0.0197904	-0.0147345	0.00265546	0.000899454	0	5	0	
0.251667	0.0306264	-0.0102721	0.00262711	0.000593871	0	5	0	
0.251833	-0.0223346	0.0364691	0.00274874	0.000454964	0	5	0	
0.252	0.00151997	-0.0253727	0.00296282	0.000579319	0	5	0	
0.252167	-0.0106311	0.00826673	0.00301271	0.000803876	0	5	0	
0.252333	0.0151621	-0.010489	0.0028852	0.000858942	0	5	0	
0.2525	-0.00594366	0.027329	0.0028132	0.000815825	0	5	0	
0.252667	-0.00328308	-0.0205164	0.00281477	0.000804147	0	5	0	
0.252833	-0.0131879	0.0183036	0.002718	0.000889455	0	5	0	
0.253	0.0194387	-0.0186611	0.00256841	0.000980486	0	5	0	
0.253167	-0.0209916	0.00941705	0.00257623	0.00102966	0	5	0	
0.253333	0.0142064	-0.0135325	0.00270642	0.000962925	0	5	0	
0.2535	-0.0177811	0.0166068	0.00275949	0.000821382	0	5	0	
0.253667	0.0161696	-0.012554	0.00269385	0.000733873	0	5	0	
0.253833	-0.0177569	0.0199882	0.00264232	0.000788263	0	5	0	
0.254	0.0180069	-0.0170082	0.00264628	0.000914282	0	5	0	
0.254167	-0.02373	0.00791409	0.00267906	0.000987074	0	5	0	
0.254333	0.0206818	-0.00250855	0.00270672	0.000960068	0	5	0	
0.2545	-0.0196441	-0.00271757	0.00273283	0.000893874	0	5	0	
0.254667	0.0162531	-0.0064205	0.00272553	0.000855353	0	5	0	
0.254833	-0.0188537	0.0160451	0.00268258	0.000842328	0	5	0	
0.255	0.0202625	-0.0269707	0.00262178	0.000862627	0	5	0	
0.255167	-0.0217079	0.022366	0.00258494	0.000895096	0	5	0	
0.255333	0.0180582	-0.014717	0.00260258	0.000949908	0	5	0	
0.2555	-0.0174731	0.0170723	0.00265232	0.000989338	0	5	0	
0.255667	0.0181088	-0.0146082	0.00263623	0.00100917	0	5	0	
0.255833	-0.0272019	0.0153414	0.00255725	0.00100216	0	5	0	
0.256	0.0220763	-0.0115215	0.002517	0.000956743	0	5	0	
0.256167	-0.0113702	0.0032013	0.00259436	0.000914667	0	5	0	
0.256333	0.012004	-0.000601296	0.00267696	0.000871172	0	5	0	
0.2565	-0.0218228	0.00791006	0.00268118	0.000842966	0	5	0	
0.256667	0.0160199	-0.00713286	0.00266068	0.000823663	0	5	0	
0.256833	-0.0130021	0.0131548	0.00267605	0.00085045	0	5	0	
0.257	0.0137019	-0.0069665	0.00265736	0.000893186	0	5	0	
0.257167	-0.0207726	0.0106038	0.00261379	0.000918098	0	5	0	
0.257333	0.0162961	-0.0146553	0.00262553	0.00090883	0	5	0	
0.2575	-0.0104627	0.0152026	0.00271272	0.000923862	0	5	0	
0.257667	0.00922541	-0.0139595	0.00275029	0.00097777	0	5	0	
0.257833	-0.0178034	0.0168208	0.00268452	0.00103239	0	5	0	
0.258	0.0234042	-0.0140107	0.0026174	0.00102166	0	5	0	
0.258167	-0.0241248	0.0110688	0.00267326	0.000946196	0	5	0	
0.258333	0.01614	-0.00840134	0.00281028	0.000868634	0	5	0	
0.2585	-0.0141635	0.0107171	0.00288496	0.000844901	0	5	0	
0.258667	0.0192639	-0.0117934	0.00283206	0.000871918	0	5	0	
0.258833	-0.0266957	0.0107695	0.00274836	0.000888842	0	5	0	
0.259	0.0252046	-0.0110704	0.0027288	0.000876387	0	5	0	
0.259167	-0.0245335	0.0094514	0.00276696	0.000876548	0	5	0	
0.259333	0.0215458	-0.0106785	0.0027792	0.000927242	0	5	0	
0.2595	-0.0215621	0.0166434	0.00273862	0.00101344	0	5	0	
0.259667	0.0249306	-0.0157484	0.00268538	0.00107504	0	5	0	
0.259833	-0.0264377	0.0108407	0.0026967	0.00106581	0	5	0	
0.26	0.0199889	-0.00919841	0.00277558	0.000978767	0	5	0	
0.260167	-0.0167688	0.0157635	0.00282975	0.000856156	0	5	0	
0.260333	0.0181595	-0.0166976	0.00279187	0.000759501	0	5	0	
0.2605	-0.0207938	0.0223878	0.00271981	0.000783627	0	5	0	
0.260667	0.020159	-0.0198958	0.00268052	0.000878311	0	5	0	
0.260833	-0.0241128	0.0174361	0.00266605	0.000962062	0	5	0	
0.261	0.0276131	-0.00965148	0.00263963	0.000948112	0	5	0	
0.261167	-0.0320239	0.00228429	0.00264304	0.000905313	0	5	0	
0.261333	0.026369	-0.00360193	0.00270337	0.000880284	0	5	0	
0.2615	-0.0238504	0.0158941	0.00278818	0.000909512	0	5	0	
0.261667	0.020872	-0.016209	0.00280275	0.000944193	0	5	0	
0.261833	-0.0226898	0.0186336	0.0027521	0.000970276	0	5	0	
0.262	0.0238074	-0.0122389	0.00270973	0.00096367	0	5	0	
0.262167	-0.0213899	0.0139751	0.00273995	0.000974415	0	5	0	
0.262333	0.0152959	-0.014268	0.00277401	0.000992276	0	5	0	
0.2625	-0.0245564	0.0199233	0.00273007	0.00101451	0	5	0	
0.262667	0.0313341	-0.021094	0.00264364	0.00101178	0	5	0	
0.262833	-0.027422	0.0181004	0.00265294	0.000998414	0	5	0	
0.263	0.0155555	-0.013538	0.0027579	0.000955817	0	5	0	
0.263167	-0.0127411	0.0164715	0.00279958	0.000899522	0	5	0	
0.263333	0.0219503	-0.0137519	0.00270342	0.000888711	0	5	0	
0.2635	-0.0248025	0.0161423	0.00262488	0.000935411	0	5	0	
0.263667	0.00660263	-0.0177451	0.00267166	0.000899062	0	5	0	
0.263833	-0.0146012	0.023987	0.00270344	0.000779203	0	5	0	
0.264	0.0256712	-0.027859	0.00258093	0.000736546	0	5	0	
0.264167	-0.0355585	0.0151712	0.0025274	0.000856796	0	5	0	
0.264333	0.0170168	-0.0159224	0.00269483	0.00101678	0	5	0	
0.2645	-0.0134813	0.0181412	0.0028887	0.00104458	0	5	0	
0.264667	0.0264473	-0.00620309	0.00283056	0.00097055	0	5	0	
0.264833	-0.0403711	0.00458113	0.00272227	0.000875167	0	5	0	
0.265	0.0220204	-0.017567	0.00280665	0.000803193	0	5	0	
0.265167	-0.00927763	0.0208091	0.00297214	0.000794504	0	5	0	
0.265333	0.0195298	-0.0158355	0.00290778	0.000856431	0	5	0	
0.2655	-0.0349466	0.0155378	0.0027068	0.000925941	0	5	0	
0.265667	0.0294155	-0.0135823	0.00264804	0.000920255	0	5	0	
0.265833	-0.0162975	0.0151786	0.00277299	0.000853348	0	5	0	
0.266	0.0221969	-0.0159358	0.00281125	0.000818075	0	5	0	
0.266167	-0.0334044	0.0187805	0.00266075	0.000878912	0	5	0	
0.266333	0.0423935	-0.0129494	0.0025583	0.00095741	0	5	0	
0.2665	-0.0310495	0.0128573	0.00267219	0.000999629	0	5	0	
0.266667	0.0225686	-0.00731423	0.00284932	0.00097397	0	5	0	
0.266833	-0.0280048	0.0157651	0.00283115	0.000937857	0	5	0	
0.267	0.0365614	-0.0231117	0.00268684	0.000928635	0	5	0	
0.267167	-0.0313431	0.0246024	0.00263483	0.00098068	0	5	0	
0.267333	0.0177743	-0.0148427	0.00269121	0.00101351	0	5	0	
0.2675	-0.0249548	0.018745	0.00270298	0.00100165	0	5	0	
0.267667	0.0356219	-0.021069	0.00263867	0.000951352	0	5	0	
0.267833	-0.0327392	0.027906	0.00262707	0.000954301	0	5	0	
0.268	0.0279585	-0.0256575	0.00268869	0.000951989	0	5	0	
0.268167	-0.0339302	0.0177234	0.00273518	0.00093136	0	5	0	
0.268333	0.0266904	-0.0115223	0.00276357	0.000881687	0	5	0	
0.2685	-0.0182129	0.0158596	0.00286186	0.000870059	0	5	0	
0.268667	0.0254379	-0.0152215	0.00288668	0.000894309	0	5	0	
0.268833	-0.0328623	0.013692	0.00270766	0.000924325	0	5	0	
0.269	0.0451802	-0.0103344	0.00252777	0.000891684	0	5	0	
0.269167	-0.0367185	0.00957122	0.00258111	0.000816097	0	5	0	
0.269333	0.0245711	-0.0156464	0.00277638	0.000778024	0	5	0	
0.2695	-0.0332495	0.01861	0.00283458	0.00079748	0	5	0	
0.269667	0.0313183	-0.0227817	0.00274952	0.000798417	0	5	0	
0.269833	-0.0199493	0.0247793	0.00270144	0.000771695	0	5	0	
0.27	0.0228861	-0.0199751	0.00268592	0.000812314	0	5	0	
0.270167	-0.0361887	0.0168823	0.00262156	0.00092768	0	5	0	
0.270333	0.0423189	-0.0167155	0.00256232	0.00101352	0	5	0	
0.2705	-0.0400394	0.0123543	0.00264858	0.00102528	0	5	0	
0.270667	0.0197773	-0.00230338	0.00282026	0.000980515	0	5	0	
0.270833	-0.0288599	0.00644358	0.00288449	0.000904804	0	5	0	
0.271	0.0373568	-0.0179085	0.00274255	0.000830144	0	5	0	
0.271167	-0.0426936	0.0223273	0.00265259	0.000823998	0	5	0	
0.271333	0.027485	-0.0222731	0.00271481	0.000886587	0	5	0	
0.2715	-0.0232621	0.0261387	0.00280995	0.000969889	0	5	0	
0.271667	0.0280686	-0.0284389	0.0027325	0.00103168	0	5	0	
0.271833	-0.039789	0.0214317	0.002594	0.0010516	0	5	0	
0.272	0.0403288	-0.0159371	0.00256545	0.0010294	0	5	0	
0.272167	-0.039742	0.015336	0.00267781	0.000969101	0	5	0	
0.272333	0.0363263	-0.0160839	0.00276794	0.00092778	0	5	0	
0.2725	-0.0381866	0.0209942	0.00278747	0.000911708	0	5	0	
0.272667	0.0386693	-0.0246858	0.00278944	0.000908093	0	5	0	
0.272833	-0.0351595	0.0210782	0.00281067	0.000918941	0	5	0	
0.273	0.0320775	-0.0194002	0.00279334	0.000954288	0	5	0	
0.273167	-0.0377259	0.018614	0.00272136	0.00098183	0	5	0	
0.273333	0.0393372	-0.0196561	0.00264776	0.00098975	0	5	0	
0.2735	-0.0408472	0.0278496	0.00264008	0.000995153	0	5	0	
0.273667	0.0383766	-0.0147828	0.00266784	0.000967367	0	5	0	
0.273833	-0.0331709	0.0167455	0.00269825	0.000930508	0	5	0	
0.274	0.030201	-0.0242668	0.0027105	0.000866781	0	5	0	
0.274167	-0.0331379	0.0216016	0.00269855	0.000880315	0	5	0	
0.274333	0.0354532	-0.0224445	0.00265095	0.000940769	0	5	0	
0.2745	-0.0432192	0.0180594	0.00260533	0.000957188	0	5	0	
0.274667	0.0426109	-0.0130995	0.00260267	0.000916913	0	5	0	
0.274833	-0.0415924	0.0194729	0.00267994	0.000895236	0	5	0	
0.275	0.0397688	-0.0193044	0.00278035	0.000933105	0	5	0	
0.275167	-0.0346282	0.0192186	0.00285265	0.000980277	0	5	0	
0.275333	0.026641	-0.0221343	0.00283602	0.000961983	0	5	0	
0.2755	-0.0359673	0.0177144	0.00273651	0.000902435	0	5	0	
0.275667	0.0437358	-0.0240462	0.00262975	0.000879461	0	5	0	
0.275833	-0.0428781	0.0189053	0.00265584	0.000896771	0	5	0	
0.276	0.0319725	-0.018304	0.00280823	0.000947421	0	5	0	
0.276167	-0.0317949	0.0199031	0.00291563	0.000939224	0	5	0	
0.276333	0.0408134	-0.0272302	0.00283614	0.000920633	0	5	0	
0.2765	-0.0383475	0.0261982	0.00266907	0.000935892	0	5	0	
0.276667	0.0414285	-0.0209728	0.0026127	0.00098619	0	5	0	
0.276833	-0.0392714	0.0186367	0.00265504	0.000990722	0	5	0	
0.277	0.0445352	-0.0230971	0.00269398	0.001011	0	5	0	
0.277167	-0.0531416	0.0197854	0.00270573	0.00107472	0	5	0	
0.277333	0.0479018	-0.0164201	0.00276979	0.00110335	0	5	0	
0.2775	-0.0253663	0.0199661	0.00286178	0.00100265	0	5	0	
0.277667	0.0326774	-0.0206841	0.00286996	0.000847289	0	5	0	
0.277833	-0.0379938	0.0195294	0.00274595	0.000794099	0	5	0	
0.278	0.0450692	-0.0266562	0.00262824	0.00087337	0	5	0	
0.278167	-0.0459416	0.028256	0.00263396	0.000980936	0	5	0	
0.278333	0.0405499	-0.0177363	0.00275223	0.00103845	0	5	0	
0.2785	-0.0361346	0.0175788	0.00281669	0.00102399	0	5	0	
0.278667	0.0359595	-0.0179487	0.00276179	0.000939171	0	5	0	
0.278833	-0.0418294	0.0214509	0.00270192	0.000873247	0	5	0	
0.279	0.0312695	-0.0221522	0.00266661	0.000863356	0	5	0	
0.279167	-0.041598	0.0178768	0.0026364	0.000919782	0	5	0	
0.279333	0.0523917	-0.023352	0.00256918	0.000958494	0	5	0	
0.2795	-0.0526607	0.0263975	0.00261368	0.000958849	0	5	0	
0.279667	0.0407214	-0.0194571	0.00277306	0.000930508	0	5	0	
0.279833	-0.0418651	0.0164693	0.00291083	0.000875446	0	5	0	
0.28	0.0339046	-0.021238	0.00285874	0.000818791	0	5	0	
0.280167	-0.0407268	0.0240416	0.00273059	0.000852079	0	5	0	
0.280333	0.0377635	-0.0194578	0.00262184	0.000945311	0	5	0	
0.2805	-0.0453015	0.00963055	0.00260588	0.00100805	0	5	0	
0.280667	0.0494268	-0.00928439	0.0026283	0.000961609	0	5	0	
0.280833	-0.04332	0.0152743	0.00270103	0.000874194	0	5	0	
0.281	0.0330858	-0.0120577	0.00275497	0.000787794	0	5	0	
0.281167	-0.0390741	0.0159523	0.00270665	0.000737492	0	5	0	
0.281333	0.0504974	-0.0232139	0.00259874	0.000699325	0	5	0	
0.2815	-0.0546174	0.0259793	0.00261036	0.000732902	0	5	0	
0.281667	0.0377995	-0.030344	0.00276579	0.000859011	0	5	0	
0.281833	-0.0327589	0.0260784	0.00287065	0.00101154	0	5	0	
0.282	0.0470438	-0.0201423	0.00276587	0.00107318	0	5	0	
0.282167	-0.0539407	0.0182887	0.00264209	0.00103105	0	5	0	
0.282333	0.0397502	-0.0119162	0.00268294	0.000999059	0	5	0	
0.2825	-0.0329075	0.0164552	0.00277834	0.00101599	0	5	0	
0.282667	0.0482885	-0.0198954	0.00270944	0.00100513	0	5	0	
0.282833	-0.0604001	0.0210984	0.00259865	0.000958568	0	5	0	
0.283	0.0589537	-0.0260738	0.00268522	0.000917436	0	5	0	
0.283167	-0.041962	0.0244179	0.00289955	0.000897529	0	5	0	
0.283333	0.031909	-0.0249767	0.00293994	0.000872577	0	5	0	
0.2835	-0.0446111	0.0279135	0.00279705	0.000853935	0	5	0	
0.283667	0.0470485	-0.0211456	0.00265901	0.000858316	0	5	0	
0.283833	-0.0458558	0.021572	0.00268361	0.000917	0	5	0	
0.284	0.048218	-0.0203127	0.00270815	0.000950939	0	5	0	
0.284167	-0.0556422	0.0256422	0.00267881	0.000977993	0	5	0	
0.284333	0.053615	-0.0225719	0.00262784	0.000949118	0	5	0	
0.2845	-0.051413	0.0169953	0.00273159	0.000944548	0	5	0	
0.284667	0.0368906	-0.0190698	0.00284421	0.000932025	0	5	0	
0.284833	-0.0407863	0.0228271	0.0028574	0.000927907	0	5	0	
0.285	0.0473777	-0.0251986	0.00269192	0.000920563	0	5	0	
0.285167	-0.0558314	0.0303096	0.00259281	0.000937274	0	5	0	
0.285333	0.0532912	-0.0226416	0.00260374	0.000929806	0	5	0	
0.2855	-0.0554422	0.0229923	0.00270365	0.000907743	0	5	0	
0.285667	0.0491364	-0.0214	0.0027862	0.000855304	0	5	0	
0.285833	-0.0394682	0.0179121	0.00285328	0.000850094	0	5	0	
0.286	0.0402061	-0.023842	0.00281904	0.000852919	0	5	0	
0.286167	-0.0510684	0.0233276	0.0027088	0.000862554	0	5	0	
0.286333	0.0475096	-0.0277845	0.00262504	0.000914463	0	5	0	
0.2865	-0.0437215	0.0275388	0.0026587	0.000972921	0	5	0	
0.286667	0.0474036	-0.0179116	0.00271459	0.000986642	0	5	0	
0.286833	-0.0510917	0.0216131	0.00277485	0.000950341	0	5	0	
0.287	0.0341986	-0.024783	0.00285135	0.000904898	0	5	0	
0.287167	-0.0247781	0.0189468	0.00286837	0.000885968	0	5	0	
0.287333	0.0371746	-0.0376225	0.00268294	0.000915296	0	5	0	
0.2875	-0.0625515	0.031337	0.00247869	0.000906837	0	5	0	
0.287667	0.0661221	-0.0247565	0.00250292	0.000928329	0	5	0	
0.287833	-0.0563168	0.0258236	0.00277861	0.00091999	0	5	0	
0.288	0.0455215	-0.018225	0.00299772	0.00093417	0	5	0	
0.288167	-0.0408204	0.0220495	0.00302548	0.000929697	0	5	0	
0.288333	0.0387274	-0.031466	0.00292786	0.000918977	0	5	0	
0.2885	-0.0433873	0.0245739	0.00282034	0.000887674	0	5	0	
0.288667	0.0513894	-0.0282923	0.00273766	0.00086867	0	5	0	
0.288833	-0.0563952	0.0285146	0.00272686	0.000844096	0	5	0	
0.289	0.0524341	-0.024784	0.00278472	0.000890922	0	5	0	
0.289167	-0.0470978	0.0253699	0.00285864	0.00096382	0	5	0	
0.289333	0.0423673	-0.0217146	0.0028465	0.000976962	0	5	0	
0.2895	-0.043807	0.0202338	0.00273907	0.000919143	0	5	0	
0.289667	0.0507015	-0.0186707	0.00259224	0.00085176	0	5	0	
0.289833	-0.0596448	0.0223851	0.00252899	0.00086551	0	5	0	
0.29	0.0573197	-0.0314108	0.00260356	0.000906714	0	5	0	
0.290167	-0.0477002	0.030578	0.00274476	0.00094738	0	5	0	
0.290333	0.044811	-0.0238156	0.00279859	0.000965498	0	5	0	
0.2905	-0.0492352	0.0200125	0.00274907	0.000978821	0	5	0	
0.290667	0.0474494	-0.0259703	0.00269576	0.000958225	0	5	0	
0.290833	-0.0487143	0.0334394	0.0027332	0.000965629	0	5	0	
0.291	0.0465092	-0.0244079	0.0028162	0.000972719	0	5	0	
0.291167	-0.0394351	0.0207558	0.00286222	0.000989195	0	5	0	
0.291333	0.0384348	-0.0245747	0.00281477	0.000932954	0	5	0	
0.2915	-0.0502668	0.025967	0.00272636	0.000908978	0	5	0	
0.291667	0.0497017	-0.0284885	0.0026644	0.000930764	0	5	0	
0.291833	-0.0528248	0.0216525	0.00266923	0.000972556	0	5	0	
0.292	0.0619759	-0.0178002	0.0026763	0.000963533	0	5	0	
0.292167	-0.0674187	0.0232645	0.00272496	0.000928136	0	5	0	
0.292333	0.0554306	-0.0252318	0.00284616	0.000926637	0	5	0	
0.2925	-0.0475265	0.0271323	0.0029987	0.000987967	0	5	0	
0.292667	0.0439791	-0.0335865	0.00299328	0.00104334	0	5	0	
0.292833	-0.0517008	0.0255596	0.00285856	0.00104494	0	5	0	
0.293	0.0500375	-0.0240198	0.00273383	0.00100551	0	5	0	
0.293167	-0.0462518	0.0275949	0.00270553	0.000988897	0	5	0	
0.293333	0.0503539	-0.0263569	0.00267642	0.00100634	0	5	0	
0.2935	-0.0596654	0.0244307	0.00264175	0.00102875	0	5	0	
0.293667	0.0581033	-0.0306592	0.00266516	0.00100873	0	5	0	
0.293833	-0.0569936	0.0283831	0.00275745	0.000970759	0	5	0	
0.294	0.0572839	-0.0268861	0.00281368	0.000937113	0	5	0	
0.294167	-0.0539214	0.0244238	0.00280959	0.000908659	0	5	0	
0.294333	0.0496229	-0.0175672	0.00277377	0.000879185	0	5	0	
0.2945	-0.0505517	0.0289245	0.00274332	0.000889803	0	5	0	
0.294667	0.0502655	-0.0337186	0.00270703	0.000934364	0	5	0	
0.294833	-0.0507135	0.029207	0.00267723	0.00100038	0	5	0	
0.295	0.0498895	-0.0229661	0.00264544	0.000981977	0	5	0	
0.295167	-0.0491258	0.0170173	0.00261318	0.000911019	0	5	0	
0.295333	0.0530292	-0.0179936	0.00256975	0.000857168	0	5	0	
0.2955	-0.0574545	0.0286149	0.00257055	0.000873242	0	5	0	
0.295667	0.0545035	-0.0232782	0.00263592	0.000900118	0	5	0	
0.295833	-0.0498756	0.0302876	0.0027242	0.000915917	0	5	0	
0.296	0.051884	-0.0263619	0.0027388	0.000892931	0	5	0	
0.296167	-0.0550468	0.0230381	0.00270117	0.000917362	0	5	0	
0.296333	0.0505411	-0.0238944	0.00268628	0.000939657	0	5	0	
0.2965	-0.0448046	0.0251504	0.00270974	0.00095028	0	5	0	
0.296667	0.0510009	-0.0252006	0.00268289	0.000925305	0	5	0	
0.296833	-0.0600305	0.028617	0.00261612	0.000903729	0	5	0	
0.297	0.0577522	-0.0227977	0.00259697	0.000878082	0	5	0	
0.297167	-0.0522995	0.0244858	0.00266754	0.000863313	0	5	0	
0.297333	0.0520335	-0.0272228	0.00271951	0.000855273	0	5	0	
0.2975	-0.0561483	0.0261613	0.00271265	0.000894919	0	5	0	
0.297667	0.0557949	-0.024128	0.00269062	0.000921098	0	5	0	
0.297833	-0.0514256	0.0221731	0.00270585	0.000913547	0	5	0	
0.298	0.0486629	-0.023173	0.00270848	0.000893107	0	5	0	
0.298167	-0.0543488	0.0228728	0.00267202	0.000912652	0	5	0	
0.298333	0.0571291	-0.0300732	0.00262631	0.000961284	0	5	0	
0.2985	-0.0572277	0.0300766	0.00264545	0.000978714	0	5	0	
0.298667	0.0553486	-0.0251759	0.0026922	0.000939171	0	5	0	
0.298833	-0.0528929	0.0264551	0.0027228	0.000894901	0	5	0	
0.299	0.0524857	-0.0256547	0.00271277	0.000890476	0	5	0	
0.299167	-0.0524317	0.0309533	0.00269504	0.000931773	0	5	0	
0.299333	0.0541517	-0.0294061	0.00267077	0.000947122	0	5	0	
0.2995	-0.0605124	0.0215757	0.00267113	0.000938743	0	5	0	
0.299667	0.056555	-0.0189419	0.00269017	0.000884548	0	5	0	
0.299833	-0.0512049	0.0229067	0.00273074	0.00085242	0	5	0	
0.3	0.0510334	-0.0290627	0.00272228	0.000873278	0	5	0	
0.300167	-0.0531474	0.0271208	0.00268473	0.000932082	0	5	0	
0.300333	0.054786	-0.0198277	0.00264569	0.000958848	0	5	0	
0.3005	-0.0583185	0.0256452	0.00264108	0.000929757	0	5	0	
0.300667	0.0589149	-0.0271446	0.00265116	0.000894131	0	5	0	
0.300833	-0.0591504	0.0266552	0.00269663	0.000918365	0	5	0	
0.301	0.0522106	-0.0224276	0.00273375	0.000925272	0	5	0	
0.301167	-0.0512588	0.0216269	0.00274558	0.000899985	0	5	0	
0.301333	0.0538404	-0.0263405	0.00270114	0.000845206	0	5	0	
0.3015	-0.0588649	0.0311086	0.00264914	0.00085813	0	5	0	
0.301667	0.0631597	-0.035003	0.00261117	0.000926584	0	5	0	
0.301833	-0.0656241	0.0297519	0.00262836	0.000989822	0	5	0	
0.302	0.0585454	-0.0176796	0.0026712	0.000986793	0	5	0	
0.302167	-0.0578316	0.0218393	0.00271698	0.000981037	0	5	0	
0.302333	0.0608913	-0.0221687	0.00273079	0.000959525	0	5	0	
0.3025	-0.0536485	0.0299032	0.00276083	0.000957981	0	5	0	
0.302667	0.0443796	-0.0340126	0.00276641	0.000913005	0	5	0	
0.302833	-0.0535091	0.0287927	0.00267203	0.000899362	0	5	0	
0.303	0.0674778	-0.0232162	0.00254679	0.000872374	0	5	0	
0.303167	-0.0624329	0.0223889	0.0025739	0.00090093	0	5	0	
0.303333	0.0456446	-0.0244408	0.00271536	0.000947686	0	5	0	
0.3035	-0.0510349	0.0266526	0.00273695	0.00101121	0	5	0	
0.303667	0.068415	-0.0196493	0.00259527	0.000983488	0	5	0	
0.303833	-0.0690447	0.0222149	0.00254295	0.000907362	0	5	0	
0.304	0.0546902	-0.0204408	0.00266873	0.000824139	0	5	0	
0.304167	-0.0524459	0.0265198	0.00277734	0.000825699	0	5	0	
0.304333	0.0582097	-0.039126	0.00272159	0.000869722	0	5	0	
0.3045	-0.0571444	0.0374365	0.00265287	0.00095192	0	5	0	
0.304667	0.0475242	-0.0334704	0.00266393	0.00100848	0	5	0	
0.304833	-0.0493453	0.0289818	0.00266944	0.00103915	0	5	0	
0.305	0.0632591	-0.0212852	0.00258902	0.00102595	0	5	0	
0.305167	-0.0675144	0.0251968	0.00256034	0.00101165	0	5	0	
0.305333	0.0588286	-0.0179699	0.00268572	0.000961019	0	5	0	
0.3055	-0.0467317	0.0208644	0.00282994	0.000916159	0	5	0	
0.305667	0.0499991	-0.0274081	0.00280505	0.000861376	0	5	0	
0.305833	-0.0605119	0.0268798	0.00266398	0.000865265	0	5	0	
0.306	0.0616863	-0.0280468	0.0026087	0.000890892	0	5	0	
0.306167	-0.0535012	0.0258887	0.00270631	0.000913192	0	5	0	
0.306333	0.0517987	-0.026228	0.00279457	0.00092063	0	5	0	
0.3065	-0.0560642	0.033024	0.002746	0.000950221	0	5	0	
0.306667	0.0605317	-0.0261109	0.00264061	0.000982334	0	5	0	
0.306833	-0.0604309	0.0244709	0.00261601	0.000996629	0	5	0	
0.307	0.0599105	-0.0304357	0.00265847	0.000952055	0	5	0	
0.307167	-0.0669532	0.0272553	0.00270849	0.000908313	0	5	0	
0.307333	0.0621495	-0.0298942	0.00274753	0.000902402	0	5	0	
0.3075	-0.0526186	0.0242456	0.00280427	0.000943118	0	5	0	
0.307667	0.0531425	-0.0195693	0.00279406	0.000987016	0	5	0	
0.307833	-0.0617867	0.020477	0.00271562	0.00096674	0	5	0	
0.308	0.0626261	-0.0250868	0.00266458	0.00090973	0	5	0	
0.308167	-0.0567756	0.0287415	0.00271037	0.000881825	0	5	0	
0.308333	0.0536443	-0.0257859	0.0027501	0.000880866	0	5	0	
0.3085	-0.0615797	0.026565	0.00272715	0.000915755	0	5	0	
0.308667	0.0643763	-0.0288175	0.00268101	0.000957028	0	5	0	
0.308833	-0.0602198	0.0239509	0.00269782	0.00101523	0	5	0	
0.309	0.0572427	-0.0237974	0.00273224	0.00104152	0	5	0	
0.309167	-0.0589597	0.0298618	0.00273605	0.00101395	0	5	0	
0.309333	0.060735	-0.0297401	0.00270955	0.000961136	0	5	0	
0.3095	-0.0608524	0.0322115	0.0027103	0.00093047	0	5	0	
0.309667	0.058014	-0.0231947	0.00271716	0.000908201	0	5	0	
0.309833	-0.0591236	0.0218206	0.0027083	0.000912199	0	5	0	
0.31	0.0618835	-0.0278634	0.00267704	0.000904097	0	5	0	
0.310167	-0.0647792	0.0280258	0.00269502	0.000926472	0	5	0	
0.310333	0.0622788	-0.0279991	0.00275709	0.000956402	0	5	0	
0.3105	-0.0562189	0.0255453	0.00279798	0.000950248	0	5	0	
0.310667	0.0550633	-0.0182306	0.00274543	0.000886822	0	5	0	
0.310833	-0.0590339	0.0274147	0.00264332	0.000845303	0	5	0	
0.311	0.0648712	-0.0264888	0.00258455	0.000863482	0	5	0	
0.311167	-0.0677871	0.0270457	0.00263748	0.000939245	0	5	0	
0.311333	0.0625767	-0.0272541	0.00270678	0.000954405	0	5	0	
0.3115	-0.0556204	0.0240141	0.00273648	0.000902491	0	5	0	
0.311667	0.0500645	-0.0234319	0.00270314	0.000825172	0	5	0	
0.311833	-0.049938	0.0245408	0.00267136	0.00079072	0	5	0	
0.312	0.0572871	-0.0248081	0.00262899	0.000824583	0	5	0	
0.312167	-0.061847	0.0335964	0.00261515	0.00089655	0	5	0	
0.312333	0.055993	-0.0274134	0.00262793	0.000949371	0	5	0	
0.3125	-0.0547046	0.020883	0.00268992	0.000981989	0	5	0	
0.312667	0.0573956	-0.0173657	0.00272379	0.000951311	0	5	0	
0.312833	-0.0592047	0.0230536	0.00274615	0.000894085	0	5	0	
0.313	0.0596758	-0.0300376	0.00273588	0.000868095	0	5	0	
0.313167	-0.0637188	0.0265267	0.00272345	0.000889476	0	5	0	
0.313333	0.0671498	-0.0233436	0.00272999	0.000893752	0	5	0	
0.3135	-0.0615956	0.0261914	0.00277617	0.00086376	0	5	0	
0.313667	0.0560839	-0.0276011	0.00281394	0.000860906	0	5	0	
0.313833	-0.0538544	0.031032	0.00277882	0.000920818	0	5	0	
0.314	0.0601262	-0.0351789	0.00267806	0.000979038	0	5	0	
0.314167	-0.0680339	0.0370538	0.00259943	0.00100971	0	5	0	
0.314333	0.07223	-0.028664	0.00261638	0.00101413	0	5	0	
0.3145	-0.0634107	0.0307381	0.00271017	0.0010315	0	5	0	
0.314667	0.0581604	-0.0330591	0.00276493	0.00102202	0	5	0	
0.314833	-0.0693925	0.0268496	0.00274381	0.00100137	0	5	0	
0.315	0.0727716	-0.0258547	0.00274727	0.000946697	0	5	0	
0.315167	-0.0543565	0.02813	0.00285931	0.000877506	0	5	0	
0.315333	0.049597	-0.0266249	0.0029145	0.000823041	0	5	0	
0.3155	-0.0697582	0.0324224	0.00279722	0.000838156	0	5	0	
0.315667	0.0769215	-0.0260034	0.00268632	0.000853412	0	5	0	
0.315833	-0.0587414	0.0278244	0.00277621	0.00091354	0	5	0	
0.316	0.0515398	-0.0296085	0.00286555	0.000977313	0	5	0	
0.316167	-0.0700514	0.0242065	0.00274849	0.00106435	0	5	0	
0.316333	0.08226	-0.0267557	0.00261159	0.00104614	0	5	0	
0.3165	-0.0675671	0.0316751	0.0027012	0.00097644	0	5	0	
0.316667	0.0550913	-0.0310693	0.00285532	0.000908622	0	5	0	
0.316833	-0.0671749	0.0326886	0.00283741	0.000928515	0	5	0	
0.317	0.0711962	-0.0397274	0.0027023	0.000944346	0	5	0	
0.317167	-0.0658275	0.0308167	0.00269312	0.000962183	0	5	0	
0.317333	0.0606021	-0.0262688	0.00274278	0.000962139	0	5	0	
0.3175	-0.0682625	0.0250592	0.00276202	0.000975625	0	5	0	
0.317667	0.072526	-0.0232973	0.00272152	0.000946693	0	5	0	
0.317833	-0.0707784	0.0245779	0.00276203	0.000897377	0	5	0	
0.318	0.0580914	-0.0250907	0.00282827	0.00085538	0	5	0	
0.318167	-0.0544273	0.014752	0.00283743	0.000864076	0	5	0	
0.318333	0.0551462	-0.0278883	0.00271057	0.000892407	0	5	0	
0.3185	-0.0656306	0.0324882	0.00259088	0.000910446	0	5	0	
0.318667	0.0655329	-0.0365737	0.00254274	0.000950777	0	5	0	
0.318833	-0.0629127	0.031186	0.00260888	0.000963695	0	5	0	
0.319	0.0616767	-0.0246377	0.00267228	0.000949164	0	5	0	
0.319167	-0.0625909	0.026645	0.00269532	0.000906619	0	5	0	
0.319333	0.0636179	-0.030673	0.00268833	0.000900879	0	5	0	
0.3195	-0.0615856	0.0223706	0.00270035	0.00093	0	5	0	
0.319667	0.0590986	-0.0204342	0.00269597	0.000923883	0	5	0	
0.319833	-0.0679461	0.0155017	0.00266566	0.000844355	0	5	0	
0.32	0.0706869	-0.026953	0.00264475	0.000756055	0	5	0	
0.320167	-0.0637052	0.0270998	0.00270245	0.000734774	0	5	0	
0.320333	0.0606328	-0.0222227	0.00274987	0.0008245	0	5	0	
0.3205	-0.0644617	0.0274138	0.00273473	0.000929771	0	5	0	
0.320667	0.0674371	-0.0292089	0.00270531	0.000995035	0	5	0	
0.320833	-0.0612709	0.0284564	0.00271593	0.00102453	0	5	0	
0.321	0.060183	-0.0224255	0.00271268	0.000980959	0	5	0	
0.321167	-0.0662684	0.0141747	0.00265746	0.000888729	0	5	0	
0.321333	0.0680511	-0.0266407	0.00261965	0.00080468	0	5	0	
0.3215	-0.0637813	0.0368273	0.00266923	0.000848384	0	5	0	
0.321667	0.0613817	-0.0320726	0.00272473	0.000960949	0	5	0	
0.321833	-0.0632682	0.0236927	0.002716	0.000994474	0	5	0	
0.322	0.0660918	-0.020475	0.00266415	0.000923152	0	5	0	
0.322167	-0.0640966	0.0255593	0.00265654	0.000867644	0	5	0	
0.322333	0.0618039	-0.034906	0.00269103	0.000905072	0	5	0	
0.3225	-0.0614692	0.0324229	0.00272036	0.000976892	0	5	0	
0.322667	0.0635051	-0.0288533	0.00271212	0.000969815	0	5	0	
0.322833	-0.0665967	0.0241744	0.00269286	0.000901193	0	5	0	
0.323	0.0657543	-0.0264325	0.00267377	0.00085416	0	5	0	
0.323167	-0.0650813	0.0278658	0.00268227	0.000869312	0	5	0	
0.323333	0.0639851	-0.0287992	0.00269476	0.000914454	0	5	0	
0.3235	-0.0634903	0.0275896	0.00271441	0.000906582	0	5	0	
0.323667	0.0657907	-0.0289938	0.00272856	0.000875115	0	5	0	
0.323833	-0.0618912	0.0320242	0.00272623	0.000872183	0	5	0	
0.324	0.0603578	-0.0266497	0.00270606	0.000901145	0	5	0	
0.324167	-0.0627195	0.0252345	0.00267313	0.000925282	0	5	0	
0.324333	0.0636362	-0.027068	0.00264274	0.000913843	0	5	0	
0.3245	-0.0663801	0.0291142	0.00264764	0.000914363	0	5	0	
0.324667	0.0668049	-0.0273271	0.00267471	0.000928932	0	5	0	
0.324833	-0.0639067	0.0269034	0.00270613	0.000932317	0	5	0	
0.325	0.0657185	-0.0243182	0.00271943	0.000888741	0	5	0	
0.325167	-0.064207	0.0254021	0.00271868	0.000838892	0	5	0	
0.325333	0.0630984	-0.028324	0.00271739	0.000858675	0	5	0	
0.3255	-0.0634736	0.0353394	0.00270953	0.000993368	0	5	0	
0.325667	0.0638675	-0.0287155	0.0026983	0.00108557	0	5	0	
0.325833	-0.0635289	0.0288125	0.0026988	0.00107089	0	5	0	
0.326	0.0635497	-0.0315277	0.00268187	0.00097627	0	5	0	
0.326167	-0.0670283	0.0284221	0.00266397	0.000946634	0	5	0	
0.326333	0.0672424	-0.0346655	0.00266071	0.000994673	0	5	0	
0.3265	-0.0613997	0.0449101	0.00269124	0.00107951	0	5	0	
0.326667	0.0575269	-0.0356755	0.00269614	0.00109771	0	5	0	
0.326833	-0.060635	0.0263015	0.00263789	0.00106336	0	5	0	
0.327	0.0653106	-0.0308528	0.00255	0.000999286	0	5	0	
0.327167	-0.0687982	0.0274913	0.00255873	0.000941657	0	5	0	
0.327333	0.0621862	-0.0340087	0.00263777	0.000943024	0	5	0	
0.3275	-0.064155	0.033465	0.00269652	0.000942292	0	5	0	
0.327667	0.0732725	-0.0227508	0.00268178	0.000937416	0	5	0	
0.327833	-0.0673063	0.019829	0.00271856	0.000880676	0	5	0	
0.328	0.0502726	-0.026351	0.00280438	0.000818402	0	5	0	
0.328167	-0.0552501	0.0214941	0.00279763	0.00080394	0	5	0	
0.328333	0.0696713	-0.031131	0.00265987	0.000870691	0	5	0	
0.3285	-0.0706216	0.0264104	0.00259044	0.000902768	0	5	0	
0.328667	0.0603397	-0.0189739	0.00265204	0.000940686	0	5	0	
0.328833	-0.0587004	0.0203369	0.00270707	0.000938111	0	5	0	
0.329	0.0693284	-0.02544	0.00263847	0.000957612	0	5	0	
0.329167	-0.0772173	0.0281182	0.00260514	0.000959213	0	5	0	
0.329333	0.0684285	-0.0312036	0.00269257	0.00095079	0	5	0	
0.3295	-0.0592608	0.0262092	0.00280366	0.000948238	0	5	0	
0.329667	0.0638947	-0.0268157	0.00276904	0.000957059	0	5	0	
0.329833	-0.0716092	0.0296193	0.00268568	0.000961613	0	5	0	
0.33	0.0658769	-0.0289346	0.00266799	0.000971822	0	5	0	
0.330167	-0.0602486	0.019825	0.00271902	0.00092301	0	5	0	
0.330333	0.0628758	-0.0251855	0.00269409	0.000856643	0	5	0	
0.3305	-0.0705805	0.0328462	0.00263735	0.000839453	0	5	0	
0.330667	0.0706855	-0.0282886	0.00263839	0.000895733	0	5	0	
0.330833	-0.0648864	0.027054	0.00271753	0.000938937	0	5	0	
0.331	0.0623174	-0.0243097	0.0027503	0.000913377	0	5	0	
0.331167	-0.0648732	0.0234793	0.00271313	0.000894906	0	5	0	
0.331333	0.0673369	-0.0279592	0.0026756	0.000946651	0	5	0	
0.3315	-0.0660783	0.0264214	0.00271303	0.000994025	0	5	0	
0.331667	0.0613957	-0.0270977	0.00276362	0.000975622	0	5	0	
0.331833	-0.0611715	0.0256409	0.00274614	0.000888095	0	5	0	
0.332	0.069007	-0.0262002	0.00268116	0.000842282	0	5	0	
0.332167	-0.0665606	0.0313094	0.00266911	0.000856416	0	5	0	
0.332333	0.0602256	-0.0356791	0.00270222	0.000906693	0	5	0	
0.3325	-0.0686329	0.0299975	0.00268693	0.000919993	0	5	0	
0.332667	0.0800381	-0.0280965	0.00263348	0.000915563	0	5	0	
0.332833	-0.0721869	0.0268773	0.00268195	0.000903863	0	5	0	
0.333	0.058268	-0.0294173	0.00281361	0.000910093	0	5	0	
0.333167	-0.0589304	0.0251331	0.00283956	0.000904711	0	5	0	
0.333333	0.068526	-0.0281139	0.00271327	0.000885962	0	5	0	
0.3335	-0.0704855	0.0242365	0.00262617	0.000850158	0	5	0	
0.333667	0.0617306	-0.0264399	0.00265755	0.000853366	0	5	0	
0.333833	-0.0611311	0.0276512	0.00270231	0.000859404	0	5	0	
0.334	0.0713918	-0.0263005	0.00267041	0.000886562	0	5	0	
0.334167	-0.0733924	0.0262526	0.00267333	0.000881186	0	5	0	
0.334333	0.0653668	-0.0277526	0.0027384	0.000887091	0	5	0	
0.3345	-0.0628044	0.0261939	0.00278797	0.000890937	0	5	0	
0.334667	0.0674526	-0.0233211	0.0027295	0.000916385	0	5	0	
0.334833	-0.068904	0.0254043	0.00265654	0.000928842	0	5	0	
0.335	0.0684422	-0.0227588	0.00265669	0.000915938	0	5	0	
0.335167	-0.0642031	0.0264995	0.00271799	0.000904046	0	5	0	
