0	-0.011221	-0.00876779	1.1221E-06	8.76779E-07	0	0	0	
0.000166667	0.0497546	0.0388429	0.000164108	0.000128863	0	0	0	
0.000333333	-0.0740184	-0.0570316	0.000565367	0.000438673	0	0	0	
0.0005	0.0758564	0.0550162	0.00107192	0.000818179	0	0	0	
0.000666667	-0.0686223	-0.0494172	0.00142337	0.00107239	0	0	0	
0.000833333	0.063419	0.0477415	0.00150952	0.0011265	0	0	0	
0.001	-0.0601479	-0.0462156	0.0014599	0.00109402	0	0	0	
0.00116667	0.0736401	0.0559518	0.00140477	0.00106085	0	0	0	
0.00133333	-0.0864138	-0.0673958	0.00147424	0.00113033	0	0	0	
0.0015	0.0981721	0.0758683	0.0016356	0.00126319	0	0	0	
0.00166667	-0.102157	-0.0822737	0.00183815	0.00143839	0	0	0	
0.00183333	0.101489	0.0777708	0.00194589	0.00152518	0	0	0	
0.002	-0.101381	-0.074187	0.00199207	0.00153555	0	0	0	
0.00216667	0.105206	0.0773478	0.0020075	0.00150186	0	0	0	
0.00233333	-0.108486	-0.0812807	0.00204407	0.00151215	0	0	0	
0.0025	0.10955	0.0827303	0.00207901	0.00154859	0	0	0	
0.00266667	-0.109187	-0.0858584	0.00210591	0.001604	0	0	0	
0.00283333	0.10828	0.0814231	0.00211034	0.00160993	0	0	0	
0.003	-0.110108	-0.0833278	0.00212205	0.00160761	0	0	0	
0.00316667	0.11117	0.0875837	0.00213126	0.00160672	0	0	0	
0.00333333	-0.110058	-0.08444	0.00214256	0.00163342	0	0	0	
0.0035	0.106497	0.0840014	0.00212796	0.00164504	0	0	0	
0.00366667	-0.107249	-0.0830098	0.00210974	0.00164695	0	0	0	
0.00383333	0.110356	0.0822003	0.00210489	0.00161622	0	0	0	
0.004	-0.113337	-0.0861367	0.00215298	0.00162499	0	0	0	
0.00416667	0.10819	0.0852594	0.00217571	0.00162323	0	0	0	
0.00433333	-0.108161	-0.0838114	0.00216789	0.00164611	0	0	0	
0.0045	0.107057	0.0821282	0.00212387	0.00163299	0	0	0	
0.00466667	-0.105595	-0.0817356	0.0020907	0.00161793	0	0	0	
0.00483333	0.102023	0.0816261	0.00206461	0.00159264	0	0	0	
0.005	-0.102354	-0.0839495	0.00204271	0.00159423	0	0	0	
0.00516667	0.103351	0.084362	0.00203633	0.00160417	0	0	0	
0.00533333	-0.107275	-0.0843199	0.002051	0.00162611	0	0	0	
0.0055	0.105586	0.0815515	0.00207085	0.0016306	0	0	0	
0.00566667	-0.107468	-0.0836173	0.00208906	0.001625	0	0	0	
0.00583333	0.110185	0.0784423	0.00211464	0.00161995	0	0	0	
0.006	-0.108577	-0.0769353	0.00212761	0.00157372	0	0	0	
0.00616667	0.111883	0.0840051	0.00215739	0.00156444	0	0	0	
0.00633333	-0.113089	-0.0834623	0.00219086	0.00156881	0	0	0	
0.0065	0.106906	0.082611	0.00221788	0.00160741	0	0	0	
0.00666667	-0.112022	-0.083005	0.00222795	0.00162032	0	0	0	
0.00683333	0.120251	0.0821839	0.00225375	0.00161294	0	0	0	
0.007	-0.11523	-0.0779152	0.00228216	0.00158969	0	0	0	
0.00716667	0.101219	0.0757482	0.0022559	0.00155433	0	0	0	
0.00733333	-0.0958696	-0.0810829	0.00214991	0.00153644	0	0	0	
0.0075	0.10013	0.0862657	0.0020741	0.00157653	0	0	0	
0.00766667	-0.107107	-0.0852068	0.00205917	0.00163407	0	0	0	
0.00783333	0.106058	0.0822125	0.00208932	0.00166257	0	0	0	
0.008	-0.10008	-0.0803556	0.00207702	0.00164998	0	0	0	
0.00816667	0.0993292	0.0781294	0.00205526	0.00160959	0	0	0	
0.00833333	-0.103567	-0.079811	0.00203265	0.00156633	0	0	0	
0.0085	0.104485	0.0802829	0.00205405	0.00155966	0	0	0	
0.00866667	-0.104378	-0.0810534	0.00207804	0.00157683	0	0	0	
0.00883333	0.111861	0.0819702	0.00213034	0.00160671	0	0	0	
0.009	-0.115732	-0.0830412	0.0021939	0.00162672	0	0	0	
0.00916667	0.111694	0.0823639	0.00224873	0.00164415	0	0	0	
0.00933333	-0.103369	-0.0820253	0.00222193	0.00164214	0	0	0	
0.0095	0.103456	0.0824001	0.0021546	0.00163888	0	0	0	
0.00966667	-0.107009	-0.0803465	0.00211828	0.00162269	0	0	0	
0.00983333	0.10888	0.082958	0.00214145	0.00161938	0	0	0	
0.01	-0.102279	-0.0841863	0.00215048	0.00163763	0	0	0	
0.0101667	0.0968271	0.0812548	0.0021065	0.00165712	0	0	0	
0.0103333	-0.100419	-0.0794248	0.00205181	0.00166913	0	0	0	
0.0105	0.10442	0.0791169	0.00205298	0.00164549	0	0	0	
0.0106667	-0.104161	-0.0784894	0.00208901	0.00161251	0	0	0	
0.0108333	0.101558	0.080323	0.00211379	0.00159716	0	0	0	
0.011	-0.0977367	-0.0783422	0.00208516	0.00159929	0	0	0	
0.0111667	0.0994462	0.0794513	0.00205312	0.00161746	0	0	0	
0.0113333	-0.101688	-0.0791501	0.00204282	0.00163213	0	0	0	
0.0115	0.0974718	0.0799483	0.00203848	0.001627	0	0	0	
0.0116667	-0.0941522	-0.0774216	0.00202007	0.00161516	0	0	0	
0.0118333	0.0975254	0.0802698	0.00200839	0.00160988	0	0	0	
0.012	-0.10376	-0.0801008	0.00203171	0.00161997	0	0	0	
0.0121667	0.103236	0.0792181	0.00208528	0.00162914	0	0	0	
0.0123333	-0.101361	-0.0780727	0.00210754	0.00162279	0	0	0	
0.0125	0.101008	0.0794962	0.0020974	0.00161919	0	0	0	
0.0126667	-0.0984447	-0.0729904	0.00206298	0.00159127	0	0	0	
0.0128333	0.0961864	0.076943	0.00203014	0.00155871	0	0	0	
0.013	-0.100248	-0.0761082	0.00201791	0.00154501	0	0	0	
0.0131667	0.103017	0.0774721	0.00205725	0.00155647	0	0	0	
0.0133333	-0.106192	-0.0809134	0.00211227	0.00159484	0	0	0	
0.0135	0.10468	0.0804223	0.00215437	0.00162409	0	0	0	
0.0136667	-0.0978649	-0.0779007	0.00212632	0.00163289	0	0	0	
0.0138333	0.097215	0.0850639	0.00209127	0.0016464	0	0	0	
0.014	-0.103005	-0.0763057	0.00208792	0.00165625	0	0	0	
0.0141667	0.105373	0.0774272	0.00213592	0.00165041	0	0	0	
0.0143333	-0.102425	-0.0794653	0.00216475	0.00164787	0	0	0	
0.0145	0.0986277	0.0734351	0.00215101	0.00162409	0	0	0	
0.0146667	-0.0959538	-0.0748296	0.00210089	0.00160982	0	0	0	
0.0148333	0.095861	0.0785523	0.00207033	0.0015996	0	0	0	
0.015	-0.0951995	-0.0741763	0.00205681	0.00159526	0	0	0	
0.0151667	0.0986275	0.0766818	0.00206564	0.00160557	0	0	0	
0.0153333	-0.10169	-0.0750099	0.00209355	0.00159459	0	0	0	
0.0155	0.101574	0.0726443	0.00211797	0.00157158	0	0	0	
0.0156667	-0.0980651	-0.0769737	0.00211669	0.00155448	0	0	0	
0.0158333	0.0963858	0.0753498	0.00209178	0.00156178	0	0	0	
0.016	-0.0964063	-0.075789	0.00206456	0.00156165	0	0	0	
0.0161667	0.0985416	0.0775683	0.00206601	0.00158643	0	0	0	
0.0163333	-0.0987418	-0.0755164	0.00208577	0.00158631	0	0	0	
0.0165	0.0989338	0.073449	0.00210323	0.00158562	0	0	0	
0.0166667	-0.0981708	-0.079861	0.00210509	0.001586	0	0	0	
0.0168333	0.0948736	0.0762543	0.00209347	0.00161952	0	0	0	
0.017	-0.0929808	-0.0783239	0.00206768	0.00164801	0	0	0	
0.0171667	0.0954454	0.0785294	0.00205844	0.00167369	0	0	0	
0.0173333	-0.0947754	-0.0694717	0.00206682	0.00164541	0	0	0	
0.0175	0.0975826	0.0708709	0.00208981	0.00158459	0	0	0	
0.0176667	-0.0996305	-0.0764693	0.00211414	0.0015603	0	0	0	
0.0178333	0.0976462	0.0681316	0.00212364	0.00154464	0	0	0	
0.018	-0.0945951	-0.0725064	0.0021081	0.0015539	0	0	0	
0.0181667	0.0916846	0.0725159	0.00206357	0.00155707	0	0	0	
0.0183333	-0.0894552	-0.0702233	0.00201903	0.00155285	0	0	0	
0.0185	0.0927962	0.0758607	0.00201347	0.00156848	0	0	0	
0.0186667	-0.0920218	-0.0719483	0.002028	0.00157305	0	0	0	
0.0188333	0.0947399	0.0691422	0.00202092	0.00155309	0	0	0	
0.019	-0.0906305	-0.0747526	0.00201271	0.00157046	0	0	0	
0.0191667	0.0892739	0.0695848	0.00199479	0.00157562	0	0	0	
0.0193333	-0.0912445	-0.072	0.00201258	0.00158185	0	0	0	
0.0195	0.0952711	0.0710867	0.00204274	0.00156505	0	0	0	
0.0196667	-0.0988308	-0.069815	0.00208802	0.00152182	0	0	0	
0.0198333	0.103406	0.0702813	0.00212459	0.00152471	0	0	0	
0.02	-0.0966087	-0.0714389	0.00214384	0.00152669	0	0	0	
0.0201667	0.0915805	0.0704756	0.00211617	0.00154242	0	0	0	
0.0203333	-0.0890277	-0.0764578	0.0020749	0.00157069	0	0	0	
0.0205	0.0914568	0.0748035	0.00204593	0.00162092	0	0	0	
0.0206667	-0.0936695	-0.073356	0.00207474	0.00164565	0	0	0	
0.0208333	0.0985226	0.0633833	0.00214331	0.00164164	0	0	0	
0.021	-0.105162	-0.0678331	0.00222194	0.00158035	0	0	0	
0.0211667	0.103373	0.0715921	0.00225394	0.00157871	0	0	0	
0.0213333	-0.0834451	-0.0655793	0.00216474	0.00156747	0	0	0	
0.0215	0.0716964	0.0636902	0.0019801	0.00157559	0	0	0	
0.0216667	-0.0774271	-0.0688342	0.00187307	0.0015488	0	0	0	
0.0218333	0.0869836	0.0626362	0.00191793	0.00153523	0	0	0	
0.022	-0.0843599	-0.0642767	0.00202897	0.00149643	0	0	0	
0.0221667	0.083988	0.0695315	0.0020821	0.0015121	0	0	0	
0.0223333	-0.0909281	-0.0702636	0.00210214	0.00152829	0	0	0	
0.0225	0.0985227	0.0718572	0.0021289	0.00156225	0	0	0	
0.0226667	-0.0915897	-0.0673922	0.00213773	0.00154636	0	0	0	
0.0228333	0.0849491	0.0648853	0.00207897	0.00153083	0	0	0	
0.023	-0.0858774	-0.0651097	0.00203111	0.00154518	0	0	0	
0.0231667	0.0927084	0.0664634	0.00203054	0.0015561	0	0	0	
0.0233333	-0.0932738	-0.0703892	0.00205782	0.00157139	0	0	0	
0.0235	0.0876555	0.0728284	0.0020386	0.00158598	0	0	0	
0.0236667	-0.077176	-0.0660951	0.00196884	0.00159302	0	0	0	
0.0238333	0.0752432	0.0680399	0.00189723	0.00157881	0	0	0	
0.024	-0.0780256	-0.0667131	0.00188621	0.00159775	0	0	0	
0.0241667	0.0795733	0.0660244	0.00191923	0.00160177	0	0	0	
0.0243333	-0.0830192	-0.0712068	0.00198309	0.00162629	0	0	0	
0.0245	0.0903657	0.0679327	0.0020583	0.00162442	0	0	0	
0.0246667	-0.0954712	-0.0704474	0.00215537	0.00162389	0	0	0	
0.0248333	0.0959074	0.0724655	0.00222012	0.00164426	0	0	0	
0.025	-0.0914052	-0.0635894	0.00219854	0.00165304	0	0	0	
0.0251667	0.0809613	0.0622209	0.00209605	0.00164423	0	0	0	
0.0253333	-0.079254	-0.0679849	0.001993	0.00162104	0	0	0	
0.0255	0.0813608	0.0681667	0.00196557	0.00160399	0	0	0	
0.0256667	-0.0825767	-0.0692379	0.00199741	0.00160128	0	0	0	
0.0258333	0.078136	0.0609795	0.00204003	0.00159984	0	0	0	
0.026	-0.0815596	-0.0622775	0.00206964	0.0015841	0	0	0	
0.0261667	0.0879051	0.0680883	0.00213435	0.00160903	0	0	0	
0.0263333	-0.0925066	-0.0700378	0.00219869	0.00163064	0	0	0	
0.0265	0.0890093	0.0688765	0.00220909	0.00165805	0	0	0	
0.0266667	-0.0839827	-0.069391	0.00214552	0.00166993	0	0	0	
0.0268333	0.0782606	0.0630092	0.00206284	0.00166315	0	0	0	
0.027	-0.0761077	-0.0623574	0.00200444	0.00162108	0	0	0	
0.0271667	0.0740913	0.0617035	0.00197798	0.00157994	0	0	0	
0.0273333	-0.0773425	-0.063566	0.00199858	0.00156352	0	0	0	
0.0275	0.0819124	0.0624022	0.0020614	0.00158641	0	0	0	
0.0276667	-0.0848474	-0.0651293	0.00213313	0.00159396	0	0	0	
0.0278333	0.0848255	0.0635295	0.00216752	0.0015855	0	0	0	
0.028	-0.0832021	-0.0636431	0.00216064	0.00155847	0	0	0	
0.0281667	0.0829253	0.0650264	0.00214905	0.00155863	0	0	0	
0.0283333	-0.0880252	-0.067926	0.00218389	0.00159352	0	0	0	
0.0285	0.0896092	0.06597	0.00221934	0.00165068	0	0	0	
0.0286667	-0.0809757	-0.061672	0.00217693	0.00167277	0	0	0	
0.0288333	0.0702306	0.0609608	0.00205478	0.00164454	0	0	0	
0.029	-0.0693124	-0.0600766	0.00196016	0.00161444	0	0	0	
0.0291667	0.0741718	0.060191	0.00197472	0.00158657	0	0	0	
0.0293333	-0.0787228	-0.0602919	0.00206341	0.00157515	0	0	0	
0.0295	0.0822248	0.0620658	0.00214498	0.00158082	0	0	0	
0.0296667	-0.0853446	-0.0590089	0.00218111	0.00160887	0	0	0	
0.0298333	0.0825458	0.060845	0.0021675	0.00161402	0	0	0	
0.03	-0.0752488	-0.0621414	0.00210311	0.00159771	0	0	0	
0.0301667	0.0704061	0.0612309	0.00202092	0.00156925	0	0	0	
0.0303333	-0.0714967	-0.0589083	0.0019856	0.00156163	0	0	0	
0.0305	0.0788932	0.0598213	0.00203409	0.0015627	0	0	0	
0.0306667	-0.0813524	-0.0571609	0.00211666	0.00157578	0	0	0	
0.0308333	0.0779572	0.0559696	0.00214763	0.00158062	0	0	0	
0.031	-0.07379	-0.0564963	0.00210827	0.00155142	0	0	0	
0.0311667	0.0732683	0.0558041	0.00205166	0.00151308	0	0	0	
0.0313333	-0.0729472	-0.0536326	0.00202898	0.00147573	0	0	0	
0.0315	0.0751921	0.0582641	0.00203386	0.00146817	0	0	0	
0.0316667	-0.0727144	-0.0619922	0.00204822	0.00148832	0	0	0	
0.0318333	0.0726846	0.0637145	0.00205841	0.0015416	0	0	0	
0.032	-0.0741493	-0.0644355	0.00207155	0.0015923	0	0	0	
0.0321667	0.0736033	0.0649789	0.00207556	0.00162001	0	0	0	
0.0323333	-0.0727169	-0.065968	0.00207636	0.00164261	0	0	0	
0.0325	0.0746489	0.0660094	0.00208485	0.00168306	0	0	0	
0.0326667	-0.0771716	-0.063039	0.00209667	0.00171351	0	0	0	
0.0328333	0.0708654	0.0584328	0.00208267	0.00169862	0	0	0	
0.033	-0.0666812	-0.0562878	0.00203228	0.00164437	0	0	0	
0.0331667	0.0685678	0.0547381	0.00202327	0.00159035	0	0	0	
0.0333333	-0.074228	-0.0566294	0.00208975	0.00158061	0	0	0	
0.0335	0.0763341	0.051845	0.0021773	0.00161258	0	0	0	
0.0336667	-0.0771152	-0.05255	0.00218687	0.00164918	0	0	0	
0.0338333	0.0709675	0.0540246	0.00213118	0.00166146	0	0	0	
0.034	-0.0690121	-0.0554093	0.00205272	0.00162388	0	0	0	
0.0341667	0.063294	0.0541837	0.00200749	0.00157298	0	0	0	
0.0343333	-0.0595993	-0.0540496	0.00198361	0.00153463	0	0	0	
0.0345	0.0655318	0.0537822	0.00202915	0.0015443	0	0	0	
0.0346667	-0.075124	-0.055962	0.00211976	0.00158268	0	0	0	
0.0348333	0.0768714	0.0532294	0.00219946	0.0016251	0	0	0	
0.035	-0.0730295	-0.054085	0.00217815	0.00161356	0	0	0	
0.0351667	0.0639159	0.0544982	0.00207635	0.00157624	0	0	0	
0.0353333	-0.057368	-0.0534024	0.00196989	0.00153092	0	0	0	
0.0355	0.0593716	0.0518779	0.00197279	0.00153845	0	0	0	
0.0356667	-0.0718695	-0.0524248	0.00208976	0.00157176	0	0	0	
0.0358333	0.0851919	0.0516815	0.00223488	0.00161025	0	0	0	
0.036	-0.076813	-0.0537122	0.00225697	0.00162753	0	0	0	
0.0361667	0.0629913	0.0570338	0.00209298	0.00165819	0	0	0	
0.0363333	-0.0564697	-0.066871	0.00191561	0.00168498	0	0	0	
0.0365	0.0565455	0.05968	0.00185376	0.00172367	0	0	0	
0.0366667	-0.0543239	-0.0493518	0.00190508	0.0017042	0	0	0	
0.0368333	0.0566443	0.0501799	0.00196434	0.00169553	0	0	0	
0.037	-0.0616019	-0.0511639	0.00204347	0.00169253	0	0	0	
0.0371667	0.0724107	0.0483009	0.00214428	0.00170023	0	0	0	
0.0373333	-0.0719752	-0.0549455	0.00224812	0.00168315	0	0	0	
0.0375	0.0688111	0.0549734	0.00225713	0.00168224	0	0	0	
0.0376667	-0.0699665	-0.0463169	0.00221429	0.00166434	0	0	0	
0.0378333	0.0728977	0.0418545	0.0021501	0.0016041	0	0	0	
0.038	-0.0677221	-0.0430399	0.0020977	0.00149377	0	0	0	
0.0381667	0.0542412	0.0486748	0.00200413	0.00142856	0	0	0	
0.0383333	-0.043102	-0.0571183	0.00190463	0.00145831	0	0	0	
0.0385	0.0490941	0.0606045	0.00190171	0.00157088	0	0	0	
0.0386667	-0.0627827	-0.0533839	0.00203059	0.00168213	0	0	0	
0.0388333	0.0646443	0.0503696	0.00216199	0.00171707	0	0	0	
0.039	-0.0599666	-0.0514167	0.00217693	0.00167775	0	0	0	
0.0391667	0.0548495	0.0539286	0.00210709	0.00164413	0	0	0	
0.0393333	-0.0536862	-0.0562105	0.00203895	0.00168014	0	0	0	
0.0395	0.0570263	0.050176	0.0020354	0.00173958	0	0	0	
0.0396667	-0.0663195	-0.0456328	0.0021172	0.00174724	0	0	0	
0.0398333	0.0754782	0.0462732	0.00221112	0.00169451	0	0	0	
0.04	-0.0830149	-0.0451971	0.00221729	0.00162071	0	0	0	
0.0401667	0.0709483	0.0448972	0.00211817	0.00156581	0	0	0	
0.0403333	-0.0481128	-0.0424698	0.00192973	0.00153497	0	0	0	
0.0405	0.0232529	0.038158	0.0017152	0.00152294	0	0	0	
0.0406667	-0.00632215	-0.0396193	0.00152027	0.00156297	0	0	0	
0.0408333	0.0158345	0.0407844	0.00155063	0.00164393	0	0	0	
0.041	-0.0502757	-0.0429176	0.0018842	0.00168654	0	0	0	
0.0411667	0.0780117	0.0473001	0.00238379	0.00164555	0	0	0	
0.0413333	-0.0859742	-0.0420423	0.00270428	0.00156084	0	0	0	
0.0415	0.0800146	0.0390828	0.00263307	0.00149696	0	0	0	
0.0416667	-0.0663443	-0.0327278	0.00224769	0.00147441	0	0	0	
0.0418333	0.0547422	0.0299893	0.00183928	0.00143449	0	0	0	
0.042	-0.0472855	-0.0368258	0.00162992	0.00139619	0	0	0	
0.0421667	0.0443983	0.0451474	0.00164507	0.00139584	0	0	0	
0.0423333	-0.0448932	-0.045137	0.00178914	0.00144692	0	0	0	
0.0425	0.0492705	0.0450326	0.00195993	0.0015021	0	0	0	
0.0426667	-0.0519065	-0.0442119	0.00206914	0.0015372	0	0	0	
0.0428333	0.0472189	0.045502	0.00207317	0.00155402	0	0	0	
0.043	-0.0453384	-0.0465435	0.00203067	0.0015802	0	0	0	
0.0431667	0.0492947	0.0453795	0.00204375	0.00161033	0	0	0	
0.0433333	-0.0546698	-0.0446262	0.00211733	0.00162458	0	0	0	
0.0435	0.0539295	0.0429153	0.00216744	0.00162454	0	0	0	
0.0436667	-0.0500498	-0.0382906	0.00213244	0.00161463	0	0	0	
0.0438333	0.0460817	0.0356283	0.00206136	0.00161107	0	0	0	
0.044	-0.0454197	-0.0361855	0.0020253	0.00160467	0	0	0	
0.0441667	0.0464873	0.0360661	0.00204823	0.00158715	0	0	0	
0.0443333	-0.0504149	-0.0336972	0.00209416	0.00155063	0	0	0	
0.0445	0.0510745	0.0374922	0.0021198	0.0015195	0	0	0	
0.0446667	-0.0477297	-0.036813	0.0020964	0.00151327	0	0	0	
0.0448333	0.0443294	0.0394856	0.00205271	0.00152231	0	0	0	
0.045	-0.0440027	-0.0393833	0.00202902	0.00153941	0	0	0	
0.0451667	0.0464961	0.0363829	0.00203882	0.0015463	0	0	0	
0.0453333	-0.0481576	-0.0339862	0.00206527	0.00154691	0	0	0	
0.0455	0.0472749	0.0428737	0.00209579	0.0015413	0	0	0	
0.0456667	-0.0487734	-0.0435089	0.00212623	0.00155537	0	0	0	
0.0458333	0.0490056	0.0402383	0.00213675	0.00158052	0	0	0	
0.046	-0.0459298	-0.036087	0.00209752	0.00161157	0	0	0	
0.0461667	0.041641	0.0344044	0.0020176	0.00162892	0	0	0	
0.0463333	-0.0371741	-0.033624	0.00194097	0.00162971	0	0	0	
0.0465	0.0306503	0.0383185	0.001909	0.00161165	0	0	0	
0.0466667	-0.0315643	-0.0336513	0.00195768	0.00160404	0	0	0	
0.0468333	0.0405468	0.0326238	0.00210094	0.00160702	0	0	0	
0.047	-0.0521097	-0.0344418	0.00226694	0.00160902	0	0	0	
0.0471667	0.0552392	0.0310132	0.00233948	0.00158444	0	0	0	
0.0473333	-0.0505835	-0.031037	0.00225841	0.00154974	0	0	0	
0.0475	0.0432612	0.0355986	0.00210613	0.00153523	0	0	0	
0.0476667	-0.0369394	-0.0332656	0.00198697	0.00153355	0	0	0	
0.0478333	0.0322654	0.0363909	0.00194431	0.00152989	0	0	0	
0.048	-0.0324307	-0.0361419	0.00197046	0.0015388	0	0	0	
0.0481667	0.0379321	0.0318859	0.0020507	0.00155987	0	0	0	
0.0483333	-0.0419597	-0.0354398	0.0021325	0.00159956	0	0	0	
0.0485	0.0404755	0.0370584	0.00214961	0.00163793	0	0	0	
0.0486667	-0.0337675	-0.0372868	0.00209437	0.00165772	0	0	0	
0.0488333	0.0338462	0.0371699	0.00205585	0.00167201	0	0	0	
0.049	-0.0516593	-0.0311752	0.00213678	0.00167103	0	0	0	
0.0491667	0.0568423	0.0267707	0.00230546	0.00165071	0	0	0	
0.0493333	-0.05655	-0.0260228	0.00236414	0.0016167	0	0	0	
0.0495	0.0453267	0.0252687	0.00224754	0.00159207	0	0	0	
0.0496667	-0.034547	-0.0303063	0.00203687	0.00160215	0	0	0	
0.0498333	0.0276748	0.0313194	0.00190425	0.00163163	0	0	0	
0.05	-0.0245662	-0.0229972	0.00189734	0.00163038	0	0	0	
0.0501667	0.0214686	0.0229103	0.00204773	0.00161052	0	0	0	
0.0503333	-0.0367568	-0.0258506	0.00228688	0.0015914	0	0	0	
0.0505	0.0401068	0.0236163	0.00244547	0.00155333	0	0	0	
0.0506667	-0.0322591	-0.023212	0.00238328	0.00150065	0	0	0	
0.0508333	0.0245457	0.0279946	0.00218879	0.0014841	0	0	0	
0.051	-0.0266211	-0.0303674	0.00205142	0.00152362	0	0	0	
0.0511667	0.0276708	0.0269809	0.00205562	0.00156081	0	0	0	
0.0513333	-0.0291738	-0.0257527	0.00215639	0.00155654	0	0	0	
0.0515	0.0353889	0.0305565	0.00224975	0.00155386	0	0	0	
0.0516667	-0.040609	-0.0320142	0.00224806	0.00158227	0	0	0	
0.0518333	0.0344965	0.0293939	0.0021305	0.00161131	0	0	0	
0.052	-0.0308698	-0.0292979	0.00196539	0.00161901	0	0	0	
0.0521667	0.0185274	0.0265035	0.00185937	0.00160589	0	0	0	
0.0523333	-0.0102977	-0.0249746	0.00185394	0.00158981	0	0	0	
0.0525	0.0143607	0.0256996	0.00195202	0.00159275	0	0	0	
0.0526667	-0.0235668	-0.0234579	0.00208759	0.00162099	0	0	0	
0.0528333	0.0270561	0.021927	0.00219329	0.00165604	0	0	0	
0.053	-0.0288345	-0.0248154	0.00221526	0.00167462	0	0	0	
0.0531667	0.0259579	0.0242629	0.00217671	0.00167977	0	0	0	
0.0533333	-0.0235321	-0.0244741	0.00211367	0.00168062	0	0	0	
0.0535	0.0240509	0.0227477	0.00206234	0.00168164	0	0	0	
0.0536667	-0.0249626	-0.0183149	0.0020448	0.00167311	0	0	0	
0.0538333	0.0242837	0.0163604	0.00207013	0.00165948	0	0	0	
0.054	-0.0267837	-0.018245	0.00211085	0.00164863	0	0	0	
0.0541667	0.0263819	0.0184383	0.00212494	0.00164185	0	0	0	
0.0543333	-0.0237997	-0.0223216	0.00208214	0.00162012	0	0	0	
0.0545	0.0167956	0.0200628	0.00201722	0.00159397	0	0	0	
0.0546667	-0.0144451	-0.0169287	0.00200319	0.00156862	0	0	0	
0.0548333	0.0191022	0.0174625	0.00208263	0.00154173	0	0	0	
0.055	-0.0244023	-0.0152832	0.00218385	0.00150087	0	0	0	
0.0551667	0.0245432	0.0127085	0.00222152	0.00147863	0	0	0	
0.0553333	-0.0275702	-0.0157381	0.00219094	0.00151726	0	0	0	
0.0555	0.0250139	0.0165431	0.0021355	0.00160049	0	0	0	
0.0556667	-0.0198546	-0.0166102	0.00204801	0.00166278	0	0	0	
0.0558333	0.0102097	0.022567	0.00195375	0.00166672	0	0	0	
0.056	-0.00885941	-0.0220117	0.00192841	0.00163006	0	0	0	
0.0561667	0.0139137	0.0181841	0.00202183	0.00157892	0	0	0	
0.0563333	-0.0221904	-0.0180486	0.0021526	0.00155019	0	0	0	
0.0565	0.0236304	0.0136236	0.00221156	0.00155218	0	0	0	
0.0566667	-0.0224595	-0.0129491	0.00217193	0.00156427	0	0	0	
0.0568333	0.0176753	0.0168428	0.00210586	0.00156975	0	0	0	
0.057	-0.0180763	-0.0145716	0.00206201	0.00156771	0	0	0	
0.0571667	0.0166332	0.015058	0.00204681	0.00156747	0	0	0	
0.0573333	-0.0150705	-0.0144205	0.00204406	0.0015702	0	0	0	
0.0575	0.0159375	0.0107482	0.00206646	0.00157171	0	0	0	
0.0576667	-0.018658	-0.0115868	0.00211067	0.00157848	0	0	0	
0.0578333	0.0194846	0.0149576	0.00213694	0.00158945	0	0	0	
0.058	-0.0170633	-0.0132732	0.00210021	0.0015892	0	0	0	
0.0581667	0.00736125	0.0140913	0.00201427	0.00156493	0	0	0	
0.0583333	0.00762637	-0.0118061	0.00193023	0.00152664	0	0	0	
0.0585	-0.00731588	0.00926441	0.00187731	0.00150678	0	0	0	
0.0586667	-0.0113741	-0.00702926	0.00186175	0.00153017	0	0	0	
0.0588333	0.0408011	0.00974854	0.00193241	0.00155411	0	0	0	
0.059	-0.062651	-0.0138781	0.00215862	0.00153305	0	0	0	
0.0591667	0.0693269	0.0200763	0.00242002	0.00148166	0	0	0	
0.0593333	-0.0522241	-0.0234681	0.00246679	0.00146017	0	0	0	
0.0595	0.0287027	0.0204076	0.00215181	0.00148479	0	0	0	
0.0596667	-0.0128825	-0.0153218	0.0017352	0.00152562	0	0	0	
0.0598333	0.00512651	0.0130099	0.00163846	0.00156248	0	0	0	
0.06	-0.00406159	-0.0148729	0.00203118	0.00160783	0	0	0	
0.0601667	0.0119238	0.015734	0.00262091	0.00166253	0	0	0	
0.0603333	-0.0171019	-0.0112387	0.00296315	0.00169699	0	0	0	
0.0605	0.0154513	0.00493226	0.00287156	0.00169254	0	0	0	
0.0606667	-0.0118094	-0.00522467	0.00249813	0.00167222	0	0	0	
0.0608333	0.00418907	0.0031284	0.002112	0.0016634	0	0	0	
0.061	-0.000224324	-0.00249037	0.00190556	0.00165138	0	0	0	
0.0611667	0.00398112	0.0027347	0.00194442	0.00161488	0	0	0	
0.0613333	-0.0128389	-0.00290324	0.00211556	0.00156127	0	0	0	
0.0615	0.0149865	0.00172689	0.00222348	0.00151714	0	0	0	
0.0616667	-0.0124257	-0.00700948	0.00216903	0.00149969	0	0	0	
0.0618333	0.00554289	0.00517094	0.00202595	0.00151467	0	0	0	
0.062	0.00364605	-0.00589731	0.0019245	0.00154966	0	0	0	
0.0621667	-0.00729857	0.00901727	0.00194745	0.00159342	0	0	0	
0.0623333	-0.00092397	-0.00566036	0.00207427	0.00162152	0	0	0	
0.0625	0.00719688	0.00441938	0.00218787	0.00161242	0	0	0	
0.0626667	-0.00469518	-0.00376767	0.00218016	0.0015758	0	0	0	
0.0628333	-0.000157686	-0.00334139	0.0021073	0.0015547	0	0	0	
0.063	-0.00298384	-0.002883	0.00209036	0.00158957	0	0	0	
0.0631667	0.00331962	0.00358851	0.00211526	0.00165949	0	0	0	
0.0633333	0.00196982	0.00163617	0.00209195	0.00170058	0	0	0	
0.0635	-0.00595434	0.00253088	0.00203937	0.00168729	0	0	0	
0.0636667	0.00630857	0.00107823	0.00202902	0.00163854	0	0	0	
0.0638333	-0.00911376	-0.0102793	0.00206225	0.00158812	0	0	0	
0.064	0.00698671	0.00602937	0.00211368	0.00157196	0	0	0	
0.0641667	-0.000871994	-0.00430759	0.00218788	0.00159858	0	0	0	
0.0643333	-0.00545039	0.000396786	0.00224345	0.00162096	0	0	0	
0.0645	0.000788959	0.00497223	0.00220077	0.00162729	0	0	0	
0.0646667	0.00402016	-0.00528216	0.00207516	0.00161771	0	0	0	
0.0648333	-0.00557725	-0.0015881	0.00198693	0.00158431	0	0	0	
0.065	-0.00156699	0.00780267	0.00201479	0.00152857	0	0	0	
0.0651667	0.00818496	-0.00687703	0.00208077	0.00149674	0	0	0	
0.0653333	-0.00527647	-0.000117914	0.00202465	0.00153469	0	0	0	
0.0655	-0.0247179	-0.000365833	0.00182986	0.00159867	0	0	0	
0.0656667	0.0483791	-0.000337174	0.00174232	0.00162998	0	0	0	
0.0658333	-0.035864	-0.00148326	0.00192875	0.00163671	0	0	0	
0.066	0.006367	0.00362461	0.00229442	0.00162859	0	0	0	
0.0661667	0.0117531	-4.23083E-05	0.00253332	0.0016035	0	0	0	
0.0663333	-0.0241654	0.00332688	0.00257314	0.00156517	0	0	0	
0.0665	0.0276455	-0.00157017	0.00246028	0.00152903	0	0	0	
0.0666667	-0.0144683	-0.000827333	0.00215067	0.00152557	0	0	0	
0.0668333	-0.0174086	-0.0049253	0.00168546	0.00155255	0	0	0	
0.067	0.0394653	0.00379113	0.00143744	0.0015772	0	0	0	
0.0671667	-0.0239928	-0.00357344	0.00167234	0.00158446	0	0	0	
0.0673333	0.00115189	0.00457317	0.00218696	0.00158061	0	0	0	
0.0675	0.00670571	0.00140493	0.00241189	0.00158004	0	0	0	
0.0676667	0.0105621	0.0026731	0.00225083	0.00158219	0	0	0	
0.0678333	-0.0218595	-0.00467707	0.00202341	0.00158155	0	0	0	
0.068	0.0164332	0.00050107	0.00197362	0.00158578	0	0	0	
0.0681667	-0.0119222	-0.00840416	0.00203008	0.00157687	0	0	0	
0.0683333	0.00716613	0.0020159	0.00202851	0.00155475	0	0	0	
0.0685	-0.011309	-0.00518404	0.00200674	0.00155532	0	0	0	
0.0686667	0.0152769	0.00370262	0.00202426	0.00152783	0	0	0	
0.0688333	-0.0162448	-0.00294984	0.00207024	0.00148259	0	0	0	
0.069	0.0172611	0.000568	0.002123	0.00148783	0	0	0	
0.0691667	-0.0145182	-0.00823102	0.0022036	0.00160797	0	0	0	
0.0693333	0.00406189	0.000389038	0.00226648	0.0017712	0	0	0	
0.0695	-0.0141527	-0.000844518	0.00221668	0.0018696	0	0	0	
0.0696667	0.0188261	0.0197495	0.00207959	0.00182343	0	0	0	
0.0698333	-0.0153701	-0.0234406	0.00200657	0.00167779	0	0	0	
0.07	0.0217601	0.035429	0.00201458	0.00160164	0	0	0	
0.0701667	-0.0336314	-0.018332	0.00201912	0.001595	0	0	0	
0.0703333	0.035848	0.0340255	0.00205646	0.00165938	0	0	0	
0.0705	-0.0196238	-0.0150916	0.00217683	0.00158829	0	0	0	
0.0706667	0.0144809	0.0431288	0.00226913	0.001557	0	0	0	
0.0708333	-0.0199617	-0.0421118	0.00217935	0.00147551	0	0	0	
0.071	0.0283468	0.0197333	0.00200887	0.00139153	0	0	0	
0.0711667	-0.028084	0.0212528	0.0018925	0.00154842	0	0	0	
0.0713333	0.0329079	-0.00528994	0.00184212	0.00199537	0	0	0	
0.0715	-0.0375105	0.00433683	0.00184096	0.00229355	0	0	0	
0.0716667	0.0446735	-0.0342383	0.00202564	0.00180943	0	0	0	
0.0718333	-0.0265065	0.0239257	0.00232988	0.00115866	0	0	0	
0.072	0.0114081	0.0445403	0.0025604	0.000660864	0	0	0	
0.0721667	0.000272411	-0.0488469	0.0025081	0.000918761	0	0	0	
0.0723333	0.0111502	0.0736951	0.00220205	0.00142666	0	0	0	
0.0725	-0.0413643	-0.0435098	0.00189692	0.00202031	0	0	0	
0.0726667	0.0575015	-0.0520745	0.00186455	0.00218475	0	0	0	
0.0728333	-0.0441583	0.0646824	0.00208416	0.00218237	0	0	0	
0.073	0.0284519	0.00678703	0.0022419	0.00205966	0	0	0	
0.0731667	-0.0371923	-0.00126136	0.00215801	0.0018771	0	0	0	
0.0733333	0.0326152	0.0193796	0.0019432	0.00156222	0	0	0	
0.0735	-0.0334795	-0.0100899	0.00185583	0.0014002	0	0	0	
0.0736667	0.0360383	-0.00189479	0.00185391	0.00150149	0	0	0	
0.0738333	-0.0422679	0.00070888	0.00192818	0.00157186	0	0	0	
0.074	0.0260155	0.0210932	0.00202469	0.00159426	0	0	0	
0.0741667	-0.0210809	-0.0331157	0.00214899	0.00163942	0	0	0	
0.0743333	0.0153707	0.0158115	0.00214937	0.00166717	0	0	0	
0.0745	-0.0383528	-0.0118792	0.0020634	0.00166881	0	0	0	
0.0746667	0.0383629	0.00896642	0.00201048	0.00159676	0	0	0	
0.0748333	-0.0232834	-0.0183526	0.00211401	0.00155674	0	0	0	
0.075	0.0146327	0.026059	0.00217853	0.00155429	0	0	0	
0.0751667	-0.0286248	-0.0233779	0.00209261	0.00160665	0	0	0	
0.0753333	0.0391704	0.015312	0.00194842	0.00168106	0	0	0	
0.0755	-0.0403467	-0.0113277	0.0018882	0.0017114	0	0	0	
0.0756667	0.0441399	0.0125411	0.00194588	0.00167134	0	0	0	
0.0758333	-0.042004	-0.0100121	0.00201569	0.00156148	0	0	0	
0.076	0.0392584	0.0162033	0.00204865	0.00144764	0	0	0	
0.0761667	-0.0464088	-0.0315813	0.00206924	0.00138078	0	0	0	
0.0763333	0.0467087	0.0340516	0.00214243	0.00139556	0	0	0	
0.0765	-0.030755	-0.0405079	0.00223508	0.00153484	0	0	0	
0.0766667	0.0270766	0.0366556	0.00225262	0.00173221	0	0	0	
0.0768333	-0.0250216	-0.0193485	0.00207918	0.00186949	0	0	0	
0.077	0.0263108	0.0110122	0.00183795	0.00186671	0	0	0	
0.0771667	-0.0260103	-0.0245295	0.0016925	0.00172823	0	0	0	
0.0773333	0.0503006	0.0267022	0.00176611	0.00154012	0	0	0	
0.0775	-0.0509568	-0.0424866	0.0018435	0.00143417	0	0	0	
0.0776667	0.0462916	0.0430447	0.00197727	0.00143627	0	0	0	
0.0778333	-0.0182447	-0.0248729	0.00211102	0.00144283	0	0	0	
0.078	0.0128755	0.0180408	0.00219342	0.00150022	0	0	0	
0.0781667	-0.0254469	-0.0127685	0.00200751	0.00161632	0	0	0	
0.0783333	0.0557828	-0.00214157	0.00183386	0.00172323	0	0	0	
0.0785	-0.0370458	-0.0169585	0.00186193	0.00159204	0	0	0	
0.0786667	0.00796269	0.0313506	0.00213967	0.00134502	0	0	0	
0.0788333	-0.0377882	-0.0329848	0.00227116	0.00124664	0	0	0	
0.079	0.0397848	0.0379331	0.00216591	0.00138459	0	0	0	
0.0791667	-0.0302351	-0.0298146	0.0019561	0.00157095	0	0	0	
0.0793333	0.0378507	0.00981952	0.00189267	0.00167093	0	0	0	
0.0795	-0.0550232	-0.0330476	0.00197106	0.00156914	0	0	0	
0.0796667	0.0581778	0.0479548	0.00209836	0.0012962	0	0	0	
0.0798333	-0.0631854	-0.10024	0.0022532	0.00123299	0	0	0	
0.08	0.0257349	0.111608	0.00231371	0.00148351	0	0	0	
0.0801667	-0.0204235	-0.100043	0.00221682	0.00189542	0	0	0	
0.0803333	0.0380466	0.0664025	0.00199932	0.00208301	0	0	0	
0.0805	-0.045341	-0.0240855	0.00188281	0.00199367	0	0	0	
0.0806667	0.0464367	-0.0217155	0.00185544	0.00170112	0	0	0	
0.0808333	-0.0340357	0.014864	0.00181122	0.00123368	0	0	0	
0.081	0.0343287	0.000232038	0.00183508	0.000673678	0	0	0	
0.0811667	-0.0388448	-0.0387235	0.00188741	0.000398791	0	0	0	
0.0813333	0.0514115	0.0213557	0.00193956	0.000392863	0	0	0	
0.0815	-0.0318912	0.00616226	0.00185954	0.00055595	0	0	0	
0.0816667	0.0255562	0.0262158	0.00186984	0.000735896	0	0	0	
0.0818333	-0.0512445	-0.0446535	0.00212045	0.000941453	0	0	0	
0.082	0.00810071	0.0494765	0.00248689	0.00135627	0	0	0	
0.0821667	-0.00550615	-0.0428002	0.00259418	0.00178009	0	0	0	
0.0823333	0.00415002	0.000601312	0.00209503	0.00191237	0	0	0	
0.0825	-0.0269451	0.0135643	0.00146826	0.00177283	0	0	0	
0.0826667	0.0629655	0.0409494	0.00115449	0.00149153	0	0	0	
0.0828333	-0.128238	-0.0929958	0.00150616	0.00143504	0	0	0	
0.083	0.064228	0.140467	0.00199603	0.00166898	0	0	0	
0.0831667	-0.0192447	-0.201531	0.00258623	0.00232177	0	0	0	
0.0833333	-0.00802928	0.160192	0.00250392	0.00330768	0	0	0	
0.0835	-0.0700898	-0.0702935	0.00212729	0.00392464	0	0	0	
0.0836667	0.067515	0.0414186	0.00177457	0.00393706	0	0	0	
0.0838333	-0.026312	-0.0116194	0.00202104	0.00323796	0	0	0	
0.084	0.032503	0.00643298	0.00230202	0.00227332	0	0	0	
0.0841667	-0.0664569	-0.0507123	0.00227519	0.00138446	0	0	0	
0.0843333	0.0275841	0.08411	0.00213142	0.00105981	0	0	0	
0.0845	-0.00237573	-0.062671	0.00206259	0.00120129	0	0	0	
0.0846667	0.0491186	0.0691312	0.0018411	0.00135121	0	0	0	
0.0848333	-0.0812711	-0.073191	0.00160043	0.00151218	0	0	0	
0.085	0.0772252	0.0655472	0.00168199	0.00157398	0	0	0	
0.0851667	-0.0530158	-0.050264	0.00201619	0.00173383	0	0	0	
0.0853333	0.0421054	0.0685806	0.00224839	0.00181407	0	0	0	
0.0855	-0.0418402	-0.0345783	0.00217403	0.001951	0	0	0	
0.0856667	0.112916	0.0326925	0.00218758	0.00207909	0	0	0	
0.0858333	-0.0708743	-0.00851051	0.00208731	0.00190055	0	0	0	
0.086	0.0493283	0.0247995	0.00216934	0.0015975	0	0	0	
0.0861667	-0.0427622	-0.0535776	0.00212628	0.00146735	0	0	0	
0.0863333	0.0563953	0.0493416	0.00208335	0.00156756	0	0	0	
0.0865	-0.0644666	-0.0251838	0.00196399	0.00177304	0	0	0	
0.0866667	0.0783702	0.0496161	0.00194065	0.00185155	0	0	0	
0.0868333	-0.0302508	-0.0289203	0.00191919	0.00178914	0	0	0	
0.087	0.0455206	0.0497236	0.00195554	0.00179764	0	0	0	
0.0871667	-0.0532412	-0.0451941	0.00194209	0.00183037	0	0	0	
0.0873333	0.0560618	0.029925	0.00204449	0.00178775	0	0	0	
0.0875	-0.0554227	-0.0384462	0.00209496	0.0016665	0	0	0	
0.0876667	0.0597358	0.0473281	0.00209706	0.00148585	0	0	0	
0.0878333	-0.0592936	-0.0428603	0.00204698	0.00145752	0	0	0	
0.088	0.0718251	0.045096	0.00195108	0.00143329	0	0	0	
0.0881667	-0.093331	-0.045301	0.00192593	0.00143723	0	0	0	
0.0883333	0.128842	0.0449249	0.00222354	0.0014137	0	0	0	
0.0885	-0.1129	-0.053625	0.00265149	0.0014542	0	0	0	
0.0886667	0.0733476	0.0646923	0.00282497	0.00158023	0	0	0	
0.0888333	-0.0534868	-0.0627238	0.00263993	0.00180051	0	0	0	
0.089	0.0506618	0.0403041	0.0022984	0.00184636	0	0	0	
0.0891667	-0.0567804	-0.043005	0.00207919	0.00177963	0	0	0	
0.0893333	0.0765675	0.0384712	0.00194195	0.00164624	0	0	0	
0.0895	-0.0693963	-0.0377321	0.001814	0.00164305	0	0	0	
0.0896667	0.0611717	0.0519327	0.00165391	0.00162708	0	0	0	
0.0898333	-0.0706388	-0.0588724	0.00166511	0.00159058	0	0	0	
0.09	0.0726723	0.0510884	0.0018219	0.0015167	0	0	0	
0.0901667	-0.0721872	-0.0448679	0.00209509	0.00165291	0	0	0	
0.0903333	0.0619413	0.0304887	0.00220723	0.0018087	0	0	0	
0.0905	-0.0559633	-0.0438155	0.00213327	0.00192437	0	0	0	
0.0906667	0.0797866	0.0537754	0.00195697	0.00183387	0	0	0	
0.0908333	-0.0871716	-0.0608978	0.00184692	0.00179516	0	0	0	
0.091	0.0941387	0.0709982	0.00191537	0.00183576	0	0	0	
0.0911667	-0.0813416	-0.0727125	0.00210135	0.00189325	0	0	0	
0.0913333	0.0793321	0.0641026	0.00222301	0.00190713	0	0	0	
0.0915	-0.0675994	-0.0627278	0.00227348	0.00197346	0	0	0	
0.0916667	0.0451937	0.0554459	0.00226699	0.00196182	0	0	0	
0.0918333	-0.0229547	-0.0577658	0.00209982	0.00185514	0	0	0	
0.092	0.0486181	0.0674027	0.00176287	0.00170584	0	0	0	
0.0921667	-0.0725899	-0.0606051	0.00150923	0.00163969	0	0	0	
0.0923333	0.0796435	0.0505562	0.001583	0.0016498	0	0	0	
0.0925	-0.0663672	-0.0486035	0.00186221	0.00162933	0	0	0	
0.0926667	0.0683584	0.0447141	0.00196224	0.00152675	0	0	0	
0.0928333	-0.0898183	-0.0554215	0.00192653	0.00142361	0	0	0	
0.093	0.0912399	0.059406	0.00198803	0.00139964	0	0	0	
0.0931667	-0.0709688	-0.055905	0.00221251	0.00147904	0	0	0	
0.0933333	0.074614	0.042198	0.0023722	0.001499	0	0	0	
0.0935	-0.0827136	-0.0394049	0.00230642	0.00145003	0	0	0	
0.0936667	0.0720459	0.0462048	0.00216724	0.00148592	0	0	0	
0.0938333	-0.0662598	-0.0324792	0.00206971	0.00153423	0	0	0	
0.094	0.0815586	0.0293594	0.00200878	0.00149046	0	0	0	
0.0941667	-0.0934428	-0.0486064	0.00201978	0.00134383	0	0	0	
0.0943333	0.0872347	0.0543855	0.00218549	0.00128035	0	0	0	
0.0945	-0.059199	-0.0653427	0.00228548	0.0013834	0	0	0	
0.0946667	0.064268	0.0711698	0.00216927	0.00160479	0	0	0	
0.0948333	-0.0878413	-0.0541409	0.00193995	0.00170804	0	0	0	
0.095	0.094115	0.0545493	0.0019322	0.00168623	0	0	0	
0.0951667	-0.0815703	-0.0580355	0.00213111	0.00155644	0	0	0	
0.0953333	0.076408	0.0539961	0.00227858	0.0015282	0	0	0	
0.0955	-0.0743756	-0.0546984	0.00224748	0.00150973	0	0	0	
0.0956667	0.0777635	0.0652485	0.00214631	0.00151289	0	0	0	
0.0958333	-0.0808406	-0.0612006	0.00206663	0.00153494	0	0	0	
0.096	0.0856061	0.0484974	0.00204881	0.0015976	0	0	0	
0.0961667	-0.0876811	-0.0525258	0.002085	0.00158383	0	0	0	
0.0963333	0.0840667	0.0628101	0.00215053	0.00153854	0	0	0	
0.0965	-0.0729114	-0.0659795	0.0021987	0.00148175	0	0	0	
0.0966667	0.0709866	0.0641683	0.00215939	0.00149392	0	0	0	
0.0968333	-0.0760887	-0.0558457	0.00205875	0.00146567	0	0	0	
0.097	0.0833036	0.0539075	0.00199883	0.00148117	0	0	0	
0.0971667	-0.0875592	-0.0502689	0.00201515	0.00150084	0	0	0	
0.0973333	0.0902593	0.0425447	0.00207563	0.00143788	0	0	0	
0.0975	-0.0882622	-0.0475798	0.00215144	0.00127206	0	0	0	
0.0976667	0.0809509	0.0491695	0.00221598	0.00113705	0	0	0	
0.0978333	-0.0596016	-0.0531758	0.00224416	0.00116802	0	0	0	
0.098	0.0480099	0.0604833	0.00220245	0.0013015	0	0	0	
0.0981667	-0.0448723	-0.0709094	0.00197829	0.00149873	0	0	0	
0.0983333	0.0375236	0.0625053	0.00160669	0.00167237	0	0	0	
0.0985	-0.0689711	-0.0526215	0.00134604	0.0017158	0	0	0	
0.0986667	0.0895533	0.0463402	0.00139626	0.0015405	0	0	0	
0.0988333	-0.0942716	-0.055729	0.00163296	0.00140016	0	0	0	
0.099	0.100015	0.0532806	0.00200917	0.00133817	0	0	0	
0.0991667	-0.0784895	-0.0720574	0.00229402	0.00146363	0	0	0	
0.0993333	0.0567995	0.0708446	0.00243672	0.0015829	0	0	0	
0.0995	-0.0752994	-0.0556021	0.0023539	0.00162312	0	0	0	
0.0996667	0.0675687	0.0506101	0.00219085	0.00149215	0	0	0	
0.0998333	-0.0597851	-0.0609907	0.00205794	0.00138343	0	0	0	
0.1	0.0789714	0.0593647	0.0019721	0.00139105	0	0	0	
0.100167	-0.0896251	-0.0684896	0.00195932	0.00153591	0	0	0	
0.100333	0.0863296	0.067515	0.00203216	0.00161437	0	0	0	
0.1005	-0.0803833	-0.0621823	0.00205549	0.00162172	0	0	0	
0.100667	0.0866291	0.0608333	0.0020163	0.00154351	0	0	0	
0.100833	-0.09284	-0.0621494	0.00200624	0.00146197	0	0	0	
0.101	0.0911453	0.0682092	0.00204924	0.00145037	0	0	0	
0.101167	-0.0819853	-0.0764846	0.00210356	0.00152175	0	0	0	
0.101333	0.0816818	0.0692716	0.00208779	0.00161302	0	0	0	
0.1015	-0.0881259	-0.0603997	0.00202766	0.00163733	0	0	0	
0.101667	0.0907867	0.0574849	0.00200168	0.00157323	0	0	0	
0.101833	-0.0881	-0.0605087	0.00202914	0.00150258	0	0	0	
0.102	0.0898982	0.067023	0.00206574	0.00150789	0	0	0	
0.102167	-0.0897559	-0.0691898	0.00208322	0.00156129	0	0	0	
0.102333	0.0871933	0.0648289	0.00208864	0.00158652	0	0	0	
0.1025	-0.0847959	-0.0620299	0.00207582	0.00157175	0	0	0	
0.102667	0.0912742	0.0642224	0.00203854	0.00155953	0	0	0	
0.102833	-0.11545	-0.0646803	0.00209611	0.00157699	0	0	0	
0.103	0.121542	0.0630033	0.00214906	0.00159548	0	0	0	
0.103167	-0.134719	-0.0603553	0.00243011	0.00158264	0	0	0	
0.103333	0.102631	0.0597864	0.00251746	0.00153007	0	0	0	
0.1035	-0.0868039	-0.0659834	0.00252184	0.00151269	0	0	0	
0.103667	0.0933086	0.0705925	0.00226096	0.00153301	0	0	0	
0.103833	-0.101792	-0.0710659	0.00215382	0.00159641	0	0	0	
0.104	0.0661186	0.06873	0.00194948	0.00162886	0	0	0	
0.104167	-0.0832754	-0.0677376	0.00182536	0.00164686	0	0	0	
0.104333	0.0876402	0.0714995	0.00160678	0.00165074	0	0	0	
0.1045	-0.10001	-0.0848077	0.001682	0.00172296	0	0	0	
0.104667	0.109536	0.0787791	0.00187834	0.00175267	0	0	0	
0.104833	-0.0995239	-0.0682168	0.00212371	0.00174229	0	0	0	
0.105	0.0829229	0.053471	0.0021608	0.00162462	0	0	0	
0.105167	-0.076349	-0.04065	0.00207082	0.00145329	0	0	0	
0.105333	0.0714479	0.0511533	0.0019803	0.00132395	0	0	0	
0.1055	-0.0690944	-0.0597331	0.00192455	0.00129291	0	0	0	
0.105667	0.0835537	0.0561656	0.0018492	0.00130075	0	0	0	
0.105833	-0.0850443	-0.0609798	0.00176652	0.00131145	0	0	0	
0.106	0.0974825	0.0601078	0.0017667	0.00133092	0	0	0	
0.106167	-0.105847	-0.0522623	0.00186341	0.00141996	0	0	0	
0.106333	0.109078	0.0615007	0.00202541	0.00154265	0	0	0	
0.1065	-0.105788	-0.0646667	0.00222091	0.00160589	0	0	0	
0.106667	0.0990922	0.0692376	0.0023128	0.00161528	0	0	0	
0.106833	-0.0863124	-0.0748608	0.00230736	0.00159565	0	0	0	
0.107	0.0742667	0.074342	0.00219882	0.00161725	0	0	0	
0.107167	-0.0714446	-0.0652103	0.00203244	0.00166381	0	0	0	
0.107333	0.0779261	0.0633351	0.0018553	0.00166604	0	0	0	
0.1075	-0.0917791	-0.0636841	0.00176096	0.00160941	0	0	0	
0.107667	0.10708	0.0665129	0.00181698	0.00154929	0	0	0	
0.107833	-0.110629	-0.0691816	0.00199283	0.0015198	0	0	0	
0.108	0.105844	0.0745574	0.00219478	0.00152926	0	0	0	
0.108167	-0.092722	-0.0713492	0.00224813	0.00154041	0	0	0	
0.108333	0.0940848	0.071654	0.00216147	0.0015637	0	0	0	
0.1085	-0.0998089	-0.0747971	0.00204304	0.00158186	0	0	0	
0.108667	0.0991653	0.0760386	0.00201444	0.00161117	0	0	0	
0.108833	-0.0973879	-0.0735901	0.00203982	0.00161929	0	0	0	
0.109	0.102737	0.0714654	0.00205593	0.0015812	0	0	0	
0.109167	-0.100614	-0.0689521	0.00204974	0.00150894	0	0	0	
0.109333	0.0894299	0.0712883	0.00204722	0.00146846	0	0	0	
0.1095	-0.0671339	-0.0745592	0.00195766	0.00147339	0	0	0	
0.109667	0.0714206	0.0743392	0.00177054	0.00151345	0	0	0	
0.109833	-0.0930331	-0.0712509	0.0016536	0.00152962	0	0	0	
0.11	0.106758	0.0662654	0.00171115	0.00149305	0	0	0	
0.110167	-0.111487	-0.0665112	0.00195161	0.00144861	0	0	0	
0.110333	0.105798	0.0698714	0.00214717	0.00144021	0	0	0	
0.1105	-0.0938687	-0.0690532	0.00219871	0.00147563	0	0	0	
0.110667	0.091176	0.0706177	0.00216759	0.00148941	0	0	0	
0.110833	-0.0864883	-0.0707577	0.00211012	0.0014771	0	0	0	
0.111	0.0901086	0.0708352	0.00203979	0.00145209	0	0	0	
0.111167	-0.102903	-0.0782933	0.00198637	0.00149318	0	0	0	
0.111333	0.108091	0.0855382	0.00199295	0.00157238	0	0	0	
0.1115	-0.0999011	-0.080884	0.00206791	0.00167217	0	0	0	
0.111667	0.0922225	0.0704866	0.00210164	0.00168781	0	0	0	
0.111833	-0.0950392	-0.0648861	0.00204132	0.00161025	0	0	0	
0.112	0.107568	0.0695578	0.00200924	0.00149095	0	0	0	
0.112167	-0.111178	-0.0754052	0.00204659	0.00144587	0	0	0	
0.112333	0.104974	0.0754399	0.00213333	0.00145876	0	0	0	
0.1125	-0.0961304	-0.0786876	0.00215758	0.00150362	0	0	0	
0.112667	0.0931724	0.0763813	0.00209766	0.00153822	0	0	0	
0.112833	-0.0960101	-0.0725631	0.00200131	0.00154352	0	0	0	
0.113	0.105373	0.0745353	0.00197104	0.00155176	0	0	0	
0.113167	-0.107373	-0.0745977	0.00200926	0.00154355	0	0	0	
0.113333	0.106167	0.0723628	0.00208001	0.00152886	0	0	0	
0.1135	-0.106537	-0.0776961	0.00212283	0.00152453	0	0	0	
0.113667	0.108408	0.0778151	0.0021496	0.00154524	0	0	0	
0.113833	-0.102445	-0.0740842	0.00215676	0.0015688	0	0	0	
0.114	0.0956971	0.0775788	0.00213378	0.00158854	0	0	0	
0.114167	-0.0921048	-0.0754324	0.00204945	0.00157271	0	0	0	
0.114333	0.100243	0.0743021	0.00197357	0.00155848	0	0	0	
0.1145	-0.109633	-0.0792973	0.00196662	0.00155552	0	0	0	
0.114667	0.112863	0.078412	0.00205048	0.00157061	0	0	0	
0.114833	-0.107395	-0.0737253	0.00214406	0.00158054	0	0	0	
0.115	0.101005	0.0781623	0.00217231	0.00156757	0	0	0	
0.115167	-0.0971653	-0.0763671	0.00212062	0.00154979	0	0	0	
0.115333	0.0979954	0.0725702	0.0020428	0.0015408	0	0	0	
0.1155	-0.100284	-0.0762491	0.00198961	0.00152639	0	0	0	
0.115667	0.103367	0.0807667	0.00198622	0.00153468	0	0	0	
0.115833	-0.106112	-0.0784151	0.00201368	0.0015629	0	0	0	
0.116	0.110743	0.0792859	0.00205918	0.00158494	0	0	0	
0.116167	-0.108749	-0.0809446	0.00210211	0.00159078	0	0	0	
0.116333	0.101478	0.0764137	0.00211891	0.0015825	0	0	0	
0.1165	-0.0992027	-0.0768373	0.0020906	0.00157761	0	0	0	
0.116667	0.10623	0.0813524	0.00204979	0.00159175	0	0	0	
0.116833	-0.11259	-0.0780599	0.00205413	0.00160845	0	0	0	
0.117	0.107924	0.0801827	0.00212468	0.00161934	0	0	0	
0.117167	-0.0902117	-0.0821345	0.00218651	0.00161067	0	0	0	
0.117333	0.0800489	0.0802885	0.00210931	0.00161162	0	0	0	
0.1175	-0.0892293	-0.084329	0.00194065	0.00161296	0	0	0	
0.117667	0.103943	0.0928024	0.00183209	0.00165846	0	0	0	
0.117833	-0.11362	-0.0879678	0.00189911	0.0017164	0	0	0	
0.118	0.124847	0.0865104	0.00207893	0.00175436	0	0	0	
0.118167	-0.130426	-0.0887157	0.00227956	0.00176113	0	0	0	
0.118333	0.122236	0.0872977	0.00240823	0.00175417	0	0	0	
0.1185	-0.107757	-0.0841983	0.00242647	0.00173926	0	0	0	
0.118667	0.0985871	0.0880423	0.00229526	0.00170163	0	0	0	
0.118833	-0.0997587	-0.0894749	0.0021232	0.00169488	0	0	0	
0.119	0.10861	0.0849688	0.00201524	0.00170404	0	0	0	
0.119167	-0.11046	-0.0831808	0.00203014	0.00169651	0	0	0	
0.119333	0.108179	0.0751458	0.00208473	0.00163058	0	0	0	
0.1195	-0.109989	-0.070197	0.00211623	0.00153923	0	0	0	
0.119667	0.116021	0.0820201	0.00212501	0.00147463	0	0	0	
0.119833	-0.113027	-0.0886631	0.00215457	0.00152285	0	0	0	
0.12	0.10394	0.0781264	0.00215506	0.00157757	0	0	0	
0.120167	-0.0998139	-0.0813	0.00209821	0.00159271	0	0	0	
0.120333	0.0996534	0.0856713	0.00200438	0.00157212	0	0	0	
0.1205	-0.096813	-0.0845805	0.00194051	0.00160293	0	0	0	
0.120667	0.0988354	0.0857319	0.00190356	0.00167165	0	0	0	
0.120833	-0.108079	-0.0824985	0.00193376	0.00168135	0	0	0	
0.121	0.118505	0.0811033	0.00201378	0.00165387	0	0	0	
0.121167	-0.117743	-0.0809577	0.00212687	0.00161452	0	0	0	
0.121333	0.1026	0.0791724	0.00216722	0.00158229	0	0	0	
0.1215	-0.0915098	-0.0802091	0.00209606	0.00156543	0	0	0	
0.121667	0.0969246	0.0817685	0.00195474	0.00156238	0	0	0	
0.121833	-0.101976	-0.0828023	0.00188408	0.00155792	0	0	0	
0.122	0.1041	0.0869903	0.00189752	0.00159947	0	0	0	
0.122167	-0.106199	-0.0838943	0.0019665	0.00161721	0	0	0	
0.122333	0.108302	0.0809654	0.00201299	0.00162749	0	0	0	
0.1225	-0.109123	-0.0795195	0.00205459	0.00157694	0	0	0	
0.122667	0.109429	0.0806314	0.00208477	0.00154674	0	0	0	
0.122833	-0.10748	-0.0792612	0.00209941	0.00152781	0	0	0	
0.123	0.106524	0.082574	0.00209616	0.00154568	0	0	0	
0.123167	-0.108701	-0.0796403	0.00207838	0.00154554	0	0	0	
0.123333	0.112604	0.0754875	0.00208348	0.00153553	0	0	0	
0.1235	-0.11027	-0.0758295	0.0021021	0.00149554	0	0	0	
0.123667	0.107139	0.0819108	0.00212615	0.00150461	0	0	0	
0.123833	-0.110649	-0.0811586	0.00212088	0.00152292	0	0	0	
0.124	0.116352	0.0896419	0.00212886	0.00158399	0	0	0	
0.124167	-0.117389	-0.092937	0.00216059	0.0016567	0	0	0	
0.124333	0.118494	0.0929493	0.00222676	0.00173787	0	0	0	
0.1245	-0.109042	-0.0895959	0.00225798	0.00178471	0	0	0	
0.124667	0.109529	0.0836281	0.00222645	0.001754	0	0	0	
0.124833	-0.119336	-0.0822807	0.00218463	0.00168207	0	0	0	
0.125	0.132534	0.0909663	0.00223334	0.00165402	0	0	0	
0.125167	-0.113834	-0.0883221	0.0023386	0.00166354	0	0	0	
0.125333	0.11933	0.0905894	0.00231905	0.00170024	0	0	0	
0.1255	-0.109787	-0.089038	0.00226618	0.00173114	0	0	0	
0.125667	0.103614	0.0801358	0.00213022	0.00167818	0	0	0	
0.125833	-0.105801	-0.0825566	0.00209756	0.00162347	0	0	0	
0.126	0.0986477	0.0727618	0.0020485	0.00154698	0	0	0	
0.126167	-0.055752	-0.0656948	0.00188087	0.00144115	0	0	0	
0.126333	0.0959577	0.0785398	0.00171037	0.00139964	0	0	0	
0.1265	-0.1094	-0.0750419	0.001694	0.00138227	0	0	0	
0.126667	0.108257	0.070668	0.00190538	0.00141223	0	0	0	
0.126833	-0.109289	-0.0791653	0.00209688	0.00142614	0	0	0	
0.127	0.102709	0.0787045	0.00209721	0.00144714	0	0	0	
0.127167	-0.0977107	-0.0794898	0.00197146	0.00149318	0	0	0	
0.127333	0.133189	0.0880052	0.00206903	0.00158057	0	0	0	
0.1275	-0.120423	-0.0868883	0.00218265	0.00162738	0	0	0	
0.127667	0.0990484	0.0900038	0.00231256	0.00170679	0	0	0	
0.127833	-0.0961987	-0.0905149	0.0021344	0.00171124	0	0	0	
0.128	0.104635	0.0915136	0.00199021	0.00173096	0	0	0	
0.128167	-0.113059	-0.0897487	0.00196247	0.00173744	0	0	0	
0.128333	0.114125	0.0906912	0.00207577	0.00174997	0	0	0	
0.1285	-0.112445	-0.0883616	0.00213707	0.00173747	0	0	0	
0.128667	0.111521	0.0879469	0.00215606	0.00172239	0	0	0	
0.128833	-0.108601	-0.0868941	0.0021286	0.00168824	0	0	0	
0.129	0.10748	0.0878173	0.00210033	0.00166755	0	0	0	
0.129167	-0.107035	-0.0822094	0.00207409	0.00164695	0	0	0	
0.129333	0.109153	0.0777216	0.00206048	0.00160669	0	0	0	
0.1295	-0.108744	-0.0787537	0.00206822	0.00154973	0	0	0	
0.129667	0.105549	0.0829662	0.00206765	0.001527	0	0	0	
0.129833	-0.10401	-0.0842941	0.00205358	0.00155404	0	0	0	
0.13	0.107562	0.0868867	0.0020338	0.00160503	0	0	0	
0.130167	-0.111241	-0.0885123	0.00205432	0.0016518	0	0	0	
0.130333	0.115905	0.0899987	0.00210629	0.00167626	0	0	0	
0.1305	-0.118383	-0.0875301	0.00218447	0.00170049	0	0	0	
0.130667	0.116535	0.0846049	0.00221927	0.00168386	0	0	0	
0.130833	-0.10987	-0.080787	0.00221266	0.00165121	0	0	0	
0.131	0.100254	0.0759866	0.00212748	0.00157492	0	0	0	
0.131167	-0.0955913	-0.0775598	0.00202449	0.00151044	0	0	0	
0.131333	0.0973253	0.0821497	0.00194258	0.0014995	0	0	0	
0.1315	-0.110678	-0.0769294	0.00196714	0.00152786	0	0	0	
0.131667	0.124045	0.0818488	0.00210712	0.0015391	0	0	0	
0.131833	-0.135434	-0.0848727	0.00229857	0.00156046	0	0	0	
0.132	0.134649	0.0803305	0.00245756	0.00156148	0	0	0	
0.132167	-0.113946	-0.0815128	0.00247283	0.00157848	0	0	0	
0.132333	0.0904665	0.0838185	0.00229057	0.00158222	0	0	0	
0.1325	-0.0824143	-0.0836422	0.00199343	0.00159098	0	0	0	
0.132667	0.0874984	0.0937802	0.00177514	0.00164055	0	0	0	
0.132833	-0.100766	-0.0927178	0.00175956	0.00170128	0	0	0	
0.133	0.107043	0.0818214	0.00189825	0.00171168	0	0	0	
0.133167	-0.106803	-0.0822854	0.002053	0.00166795	0	0	0	
0.133333	0.1075	0.0822437	0.00212135	0.00160219	0	0	0	
0.1335	-0.10007	-0.0851614	0.00205442	0.00158979	0	0	0	
0.133667	0.0942236	0.0838519	0.00192107	0.00162469	0	0	0	
0.133833	-0.0999955	-0.0767373	0.00186878	0.00159902	0	0	0	
0.134	0.117012	0.080827	0.00196787	0.001567	0	0	0	
0.134167	-0.113389	-0.0803989	0.00214377	0.00154715	0	0	0	
0.134333	0.0892275	0.0777294	0.00216811	0.00154502	0	0	0	
0.1345	-0.0774088	-0.0870803	0.00200303	0.00158114	0	0	0	
0.134667	0.126997	0.0879047	0.00193406	0.00162234	0	0	0	
0.134833	-0.156297	-0.0866158	0.00225443	0.00165599	0	0	0	
0.135	0.155194	0.0885919	0.00270343	0.00168529	0	0	0	
0.135167	-0.130819	-0.0789979	0.00288197	0.00164138	0	0	0	
0.135333	0.108044	0.0754966	0.00262599	0.00158312	0	0	0	
0.1355	-0.081868	-0.0761716	0.00221861	0.00152741	0	0	0	
0.135667	0.0806263	0.0819842	0.00188235	0.00149951	0	0	0	
0.135833	-0.079176	-0.0845782	0.00173446	0.00154677	0	0	0	
0.136	0.0985792	0.0847521	0.00179908	0.00158712	0	0	0	
0.136167	-0.1179	-0.0831494	0.0020109	0.0015999	0	0	0	
0.136333	0.138032	0.0854895	0.00227579	0.00162011	0	0	0	
0.1365	-0.133246	-0.0740169	0.00247115	0.00157861	0	0	0	
0.136667	0.114926	0.0814719	0.00247408	0.00154601	0	0	0	
0.136833	-0.0804963	-0.0822634	0.0022626	0.00153961	0	0	0	
0.137	0.0895332	0.0829812	0.00197944	0.00156961	0	0	0	
0.137167	-0.112363	-0.087999	0.0019444	0.00164147	0	0	0	
0.137333	0.114786	0.0869238	0.00205121	0.00167443	0	0	0	
0.1375	-0.116314	-0.0855387	0.00219671	0.00170673	0	0	0	
0.137667	0.13555	0.0889164	0.00228922	0.0017241	0	0	0	
0.137833	-0.132522	-0.0861094	0.00241301	0.00171554	0	0	0	
0.138	0.119164	0.0747616	0.00247466	0.00167084	0	0	0	
0.138167	-0.104451	-0.0727252	0.00236911	0.00158717	0	0	0	
0.138333	0.0978243	0.0657869	0.00213524	0.00150014	0	0	0	
0.1385	-0.0955754	-0.07124	0.00197019	0.0014489	0	0	0	
0.138667	0.0758101	0.0707114	0.00181784	0.00144974	0	0	0	
0.138833	-0.0777303	-0.0776402	0.0016635	0.00147368	0	0	0	
0.139	0.0943924	0.08061	0.0016504	0.00153205	0	0	0	
0.139167	-0.125155	-0.0799743	0.00189661	0.00155131	0	0	0	
0.139333	0.162019	0.0707912	0.00242419	0.0015293	0	0	0	
0.1395	-0.162495	-0.0692161	0.00285653	0.0014494	0	0	0	
0.139667	0.118871	0.0675644	0.00291991	0.00140169	0	0	0	
0.139833	-0.103815	-0.0753371	0.00263543	0.00139525	0	0	0	
0.14	0.10463	0.0803768	0.00227791	0.00147087	0	0	0	
0.140167	-0.0950306	-0.0829514	0.0021048	0.0015421	0	0	0	
0.140333	0.0966066	0.0766936	0.00208608	0.0015801	0	0	0	
0.1405	-0.119991	-0.0749751	0.0023244	0.0015405	0	0	0	
0.140667	0.132539	0.0681485	0.00251655	0.00147755	0	0	0	
0.140833	-0.0627922	-0.0684158	0.00239258	0.00140961	0	0	0	
0.141	0.0642075	0.0696405	0.00202408	0.00139766	0	0	0	
0.141167	-0.0659165	-0.0757116	0.00175499	0.00142956	0	0	0	
0.141333	0.0868636	0.0839586	0.00184126	0.00151687	0	0	0	
0.1415	-0.135774	-0.0965703	0.00211177	0.00164339	0	0	0	
0.141667	0.0930697	0.0894508	0.00227505	0.00173548	0	0	0	
0.141833	-0.0644524	-0.0808301	0.0020385	0.00174323	0	0	0	
0.142	0.164856	0.077941	0.00192567	0.0016596	0	0	0	
0.142167	-0.173531	-0.0738908	0.00245472	0.00157649	0	0	0	
0.142333	0.157473	0.0707129	0.00296031	0.00151747	0	0	0	
0.1425	-0.156301	-0.0756909	0.0032767	0.00151734	0	0	0	
0.142667	0.123576	0.0780476	0.00290247	0.00153924	0	0	0	
0.142833	-0.116448	-0.0822738	0.00259112	0.00160732	0	0	0	
0.143	0.0834671	0.0889639	0.00236157	0.00165666	0	0	0	
0.143167	-0.0262821	-0.0898904	0.00189497	0.00173665	0	0	0	
0.143333	0.0756125	0.0806863	0.00222523	0.00175598	0	0	0	
0.1435	-0.172162	-0.0863296	0.0030491	0.00173995	0	0	0	
0.143667	0.250477	0.0871978	0.00414452	0.00170754	0	0	0	
0.143833	-0.239913	-0.0833524	0.00467409	0.0016901	0	0	0	
0.144	0.147931	0.083439	0.00434018	0.00167247	0	0	0	
0.144167	-0.0538263	-0.0701796	0.00353511	0.0016286	0	0	0	
0.144333	-0.0186653	0.0585794	0.00245156	0.00153393	0	0	0	
0.1445	0.00839373	-0.0799149	0.0015568	0.00154596	0	0	0	
0.144667	0.102201	0.088638	0.00208216	0.00167269	0	0	0	
0.144833	-0.208175	-0.0804869	0.00325565	0.00175689	0	0	0	
0.145	0.192102	0.0435326	0.00429115	0.00165491	0	0	0	
0.145167	-0.178165	-0.0406407	0.00408925	0.00142814	0	0	0	
0.145333	0.144517	0.0865253	0.00363629	0.00157068	0	0	0	
0.1455	-0.119382	-0.122545	0.00298435	0.00188628	0	0	0	
0.145667	0.0496408	0.0855924	0.00263538	0.00214731	0	0	0	
0.145833	-0.0991859	-0.0741409	0.00229209	0.0019508	0	0	0	
0.146	0.156281	0.0696844	0.00248441	0.00170166	0	0	0	
0.146167	-0.121332	-0.0584506	0.0026665	0.00137823	0	0	0	
0.146333	0.0755327	0.0403125	0.00266279	0.00123393	0	0	0	
0.1465	-0.112926	-0.0537358	0.00255827	0.00114117	0	0	0	
0.146667	0.0741626	0.0487221	0.00279377	0.00142762	0	0	0	
0.146833	-0.0960322	-0.0653966	0.00275949	0.0015186	0	0	0	
0.147	0.130414	0.0611682	0.00276239	0.00155626	0	0	0	
0.147167	-0.100867	-0.0494512	0.00246319	0.00129913	0	0	0	
0.147333	0.0455353	0.0654415	0.00218581	0.00133843	0	0	0	
0.1475	0.0089408	-0.0830625	0.00155607	0.00149462	0	0	0	
0.147667	-0.0216774	0.0789688	0.00120852	0.0017125	0	0	0	
0.147833	-0.0961111	-0.0901332	0.00133584	0.00171516	0	0	0	
0.148	0.13885	0.0883576	0.00192276	0.00173579	0	0	0	
0.148167	-0.115802	-0.074903	0.00224963	0.00168283	0	0	0	
0.148333	0.0990432	0.0823987	0.00234516	0.00177331	0	0	0	
0.1485	-0.0903438	-0.087837	0.00219698	0.00176586	0	0	0	
0.148667	0.120905	0.0805592	0.00199569	0.00181881	0	0	0	
0.148833	-0.112614	-0.069386	0.00208557	0.00178138	0	0	0	
0.149	0.108301	0.0611922	0.00213176	0.00163064	0	0	0	
0.149167	-0.0607141	-0.056657	0.00222877	0.00146781	0	0	0	
0.149333	0.0169162	0.055864	0.00201244	0.00141868	0	0	0	
0.1495	-0.0306672	-0.0737435	0.00198302	0.00150301	0	0	0	
0.149667	0.101153	0.0897707	0.0022968	0.00173192	0	0	0	
0.149833	-0.166383	-0.0947486	0.00287384	0.0019112	0	0	0	
0.15	0.150067	0.0897948	0.00319742	0.0019762	0	0	0	
0.150167	-0.0993047	-0.0762228	0.00306435	0.00185037	0	0	0	
0.150333	0.0914218	0.0812189	0.00238918	0.00170567	0	0	0	
0.1505	-0.0831553	-0.0734663	0.00202572	0.00162113	0	0	0	
0.150667	0.015027	0.0551832	0.00153619	0.00158315	0	0	0	
0.150833	-0.0696081	-0.0511099	0.00180441	0.00156488	0	0	0	
0.151	0.0964543	0.0708319	0.00216864	0.00155497	0	0	0	
0.151167	-0.0738969	-0.0743466	0.00229778	0.00162199	0	0	0	
0.151333	0.0770034	0.082119	0.0020397	0.00173054	0	0	0	
0.1515	-0.0821776	-0.0768522	0.0017811	0.0018173	0	0	0	
0.151667	0.0841579	0.0733765	0.0020797	0.00177333	0	0	0	
0.151833	-0.103984	-0.0638906	0.00249151	0.00164102	0	0	0	
0.152	0.133192	0.0733098	0.00263892	0.00149312	0	0	0	
0.152167	-0.0983474	-0.0716664	0.00241951	0.00147475	0	0	0	
0.152333	0.101485	0.0594973	0.0022579	0.00147232	0	0	0	
0.1525	-0.0844381	-0.058788	0.0020781	0.00143931	0	0	0	
0.152667	0.101935	0.0685074	0.00221458	0.0014128	0	0	0	
0.152833	-0.0788793	-0.0668061	0.00229644	0.00149603	0	0	0	
0.153	0.0874831	0.0609119	0.00231487	0.00154868	0	0	0	
0.153167	-0.119278	-0.0641996	0.00253561	0.00150226	0	0	0	
0.153333	0.131442	0.0595738	0.00274576	0.00142664	0	0	0	
0.1535	-0.114547	-0.0658621	0.00276597	0.00140913	0	0	0	
0.153667	0.0795064	0.0632877	0.00245243	0.0014319	0	0	0	
0.153833	-0.06461	-0.0527054	0.0020364	0.00138316	0	0	0	
0.154	0.0776252	0.054969	0.0019164	0.00131975	0	0	0	
0.154167	-0.0856509	-0.0745213	0.00191588	0.00131023	0	0	0	
0.154333	0.0735456	0.0759435	0.00197637	0.00143074	0	0	0	
0.1545	-0.078366	-0.076958	0.00197675	0.00154496	0	0	0	
0.154667	0.0763721	0.0669007	0.00202711	0.00158184	0	0	0	
0.154833	-0.0744539	-0.0627674	0.00210557	0.0014636	0	0	0	
0.155	0.0923239	0.0654978	0.00222151	0.00143189	0	0	0	
0.155167	-0.0943769	-0.0682084	0.00223468	0.0014693	0	0	0	
0.155333	0.0676117	0.0761158	0.00206052	0.00163551	0	0	0	
0.1555	-0.0609561	-0.080292	0.00177524	0.00176039	0	0	0	
0.155667	0.0430467	0.0611653	0.00147612	0.00180543	0	0	0	
0.155833	-0.0561438	-0.0561595	0.00139895	0.00164628	0	0	0	
0.156	0.0647728	0.0674997	0.00158935	0.00156243	0	0	0	
0.156167	-0.0848502	-0.0605289	0.00188555	0.00152464	0	0	0	
0.156333	0.0947558	0.0689509	0.00214637	0.00163055	0	0	0	
0.1565	-0.117523	-0.0646951	0.00224496	0.00168167	0	0	0	
0.156667	0.0943862	0.0600287	0.00222118	0.00165994	0	0	0	
0.156833	-0.0756133	-0.0575233	0.00204134	0.00151343	0	0	0	
0.157	0.057015	0.0598484	0.00183755	0.00138758	0	0	0	
0.157167	-0.0704357	-0.0503854	0.00172883	0.0013333	0	0	0	
0.157333	0.0800655	0.0602078	0.00184633	0.00143385	0	0	0	
0.1575	-0.0973887	-0.0632456	0.00196452	0.00153358	0	0	0	
0.157667	0.0172413	0.0662662	0.00172036	0.00160764	0	0	0	
0.157833	0.1543	-0.0639332	0.00139443	0.00162783	0	0	0	
0.158	0.0390911	0.0574304	0.00328067	0.00157743	0	0	0	
0.158167	-0.960326	-0.0597976	0.00930346	0.00154113	0	0	0	
0.158333	1.33156	0.0655489	0.0178144	0.00153211	0	0	0	
0.1585	-0.849283	-0.0690782	0.0215385	0.00154851	0	0	0	
0.158667	0.194462	0.0578818	0.0190917	0.00155646	0	0	0	
0.158833	0.0736927	-0.0571847	0.0120619	0.0015389	0	0	0	
0.159	-0.215675	0.0694492	0.00642495	0.00156093	0	0	0	
0.159167	0.359465	-0.0629771	0.00486137	0.00160213	0	0	0	
0.159333	-0.354261	0.0629337	0.00915801	0.00163295	0	0	0	
0.1595	-0.0873704	-0.0651116	0.0163799	0.00165389	0	0	0	
0.159667	0.393006	0.0626532	0.0188976	0.00165627	0	0	0	
0.159833	-0.239639	-0.0522568	0.0145919	0.00163427	0	0	0	
0.16	-0.0110844	0.0554169	0.00751941	0.00155493	0	0	0	
0.160167	0.0809198	-0.053731	0.00321207	0.0015051	0	0	0	
0.160333	0.132386	0.0541483	0.00306511	0.00148186	0	0	0	
0.1605	-0.277149	-0.0537744	0.00395068	0.00147865	0	0	0	
0.160667	0.218167	0.0589755	0.00485609	0.0014544	0	0	0	
0.160833	-0.0671159	-0.061545	0.00408062	0.00147156	0	0	0	
0.161	0.0253036	0.0633645	0.00280555	0.00148762	0	0	0	
0.161167	-0.0693449	-0.0648761	0.00213743	0.00152659	0	0	0	
0.161333	0.113182	0.0619496	0.00219603	0.00155454	0	0	0	
0.1615	-0.099406	-0.0634821	0.00258098	0.00159862	0	0	0	
0.161667	0.06429	0.0614108	0.00232704	0.0016234	0	0	0	
0.161833	-0.0428197	-0.0620076	0.00192809	0.00165205	0	0	0	
0.162	0.0632913	0.059119	0.00189151	0.00167098	0	0	0	
0.162167	-0.0898209	-0.057975	0.00217153	0.00167371	0	0	0	
0.162333	0.0976232	0.0570533	0.00239247	0.00164461	0	0	0	
0.1625	-0.0793907	-0.0556063	0.00230033	0.0016001	0	0	0	
0.162667	0.054445	0.05632	0.0020383	0.00155008	0	0	0	
0.162833	-0.031886	-0.0643696	0.00173783	0.00155557	0	0	0	
0.163	0.0389864	0.0598062	0.00152954	0.00159022	0	0	0	
0.163167	-0.0569974	-0.0563815	0.00154748	0.00160007	0	0	0	
0.163333	0.0492118	0.0537367	0.00186697	0.00156631	0	0	0	
0.1635	-0.0646156	-0.0517205	0.00205622	0.0015143	0	0	0	
0.163667	0.0546734	0.0578406	0.00202861	0.001515	0	0	0	
0.163833	-0.0598629	-0.0631543	0.00171949	0.00160436	0	0	0	
0.164	0.0842923	0.061219	0.00166761	0.00170835	0	0	0	
0.164167	-0.0932677	-0.0589379	0.00181979	0.00174931	0	0	0	
0.164333	0.0303707	0.0515064	0.00191231	0.00168162	0	0	0	
0.1645	-0.0684652	-0.0511557	0.00184319	0.00158034	0	0	0	
0.164667	0.0884605	0.0534335	0.00196517	0.00153517	0	0	0	
0.164833	-0.124093	-0.0575533	0.00218353	0.00153394	0	0	0	
0.165	0.0723445	0.0571801	0.0022879	0.00159373	0	0	0	
0.165167	-0.0602443	-0.0549714	0.00200651	0.0016662	0	0	0	
0.165333	0.0408621	0.0511229	0.00174873	0.00168811	0	0	0	
0.1655	-0.0566929	-0.0468513	0.0016595	0.0016126	0	0	0	
0.165667	0.0238962	0.0416379	0.00168662	0.00149635	0	0	0	
0.165833	-0.0646349	-0.0491171	0.00180511	0.00142878	0	0	0	
0.166	0.0771856	0.046382	0.00211142	0.00146055	0	0	0	
0.166167	-0.0948112	-0.045291	0.00235086	0.00149853	0	0	0	
0.166333	0.0764373	0.0537898	0.00242238	0.00151767	0	0	0	
0.1665	-0.0653832	-0.0593717	0.00223946	0.00151187	0	0	0	
0.166667	0.0720049	0.0577395	0.0021575	0.00151887	0	0	0	
0.166833	-0.0870722	-0.056396	0.00227246	0.00154429	0	0	0	
0.167	0.09678	0.0534548	0.0024416	0.00156907	0	0	0	
0.167167	-0.0879367	-0.0554569	0.00239746	0.00159943	0	0	0	
0.167333	0.0610068	0.0592732	0.00207734	0.00163639	0	0	0	
0.1675	-0.034734	-0.0591008	0.0016112	0.00168687	0	0	0	
0.167667	0.04311	0.0559717	0.001395	0.00172455	0	0	0	
0.167833	-0.0234629	-0.0487562	0.00160999	0.00170982	0	0	0	
0.168	0.0617458	0.0481879	0.00205474	0.00161856	0	0	0	
0.168167	-0.0959988	-0.0450004	0.0025264	0.00153591	0	0	0	
0.168333	0.113054	0.0461953	0.00286916	0.00148531	0	0	0	
0.1685	-0.136419	-0.0479485	0.00307246	0.00149483	0	0	0	
0.168667	0.102646	0.0418891	0.00298595	0.00150415	0	0	0	
0.168833	-0.0233581	-0.0405761	0.00237291	0.00148855	0	0	0	
0.169	0.031484	0.0462999	0.00173118	0.00146238	0	0	0	
0.169167	-0.0361296	-0.0435826	0.00164928	0.00147505	0	0	0	
0.169333	0.0553451	0.0486978	0.00208514	0.00152077	0	0	0	
0.1695	-0.0745749	-0.0568869	0.00257084	0.00158769	0	0	0	
0.169667	0.0753827	0.0524444	0.00268812	0.00161573	0	0	0	
0.169833	-0.095551	-0.0561088	0.00263235	0.00159046	0	0	0	
0.17	0.0771245	0.0539608	0.00252951	0.00154132	0	0	0	
0.170167	-0.0209698	-0.0470601	0.00213327	0.0014743	0	0	0	
0.170333	0.023766	0.0448806	0.00178162	0.00145104	0	0	0	
0.1705	-0.0458792	-0.0443834	0.00185719	0.00144924	0	0	0	
0.170667	0.0637213	0.0366496	0.00228852	0.00148694	0	0	0	
0.170833	-0.0673147	-0.0479845	0.00262481	0.00154738	0	0	0	
0.171	0.0650389	0.0544946	0.00256602	0.00161876	0	0	0	
0.171167	-0.0637092	-0.0440455	0.00233009	0.0015798	0	0	0	
0.171333	0.0620544	0.0369833	0.00207753	0.00137185	0	0	0	
0.1715	-0.0398983	-0.0495477	0.00183717	0.00117459	0	0	0	
0.171667	0.0338658	0.0437717	0.00169899	0.0012457	0	0	0	
0.171833	-0.0456873	-0.0314677	0.00181454	0.00147754	0	0	0	
0.172	0.053884	0.0434178	0.00204754	0.00165422	0	0	0	
0.172167	-0.064692	-0.0679429	0.00227792	0.00179613	0	0	0	
0.172333	0.0788808	0.0834831	0.00244036	0.00197227	0	0	0	
0.1725	-0.0882522	-0.075157	0.00254727	0.0020146	0	0	0	
0.172667	0.0797836	0.0329504	0.00252836	0.00178101	0	0	0	
0.172833	-0.0646295	-0.0168734	0.00236023	0.00142314	0	0	0	
0.173	0.0543721	0.0333459	0.00213766	0.001217	0	0	0	
0.173167	-0.0351193	-0.0242605	0.0020235	0.00118078	0	0	0	
0.173333	0.0330434	0.0173475	0.00203314	0.00139922	0	0	0	
0.1735	-0.0446017	-0.0650139	0.00221161	0.00189319	0	0	0	
0.173667	0.0656982	0.108834	0.00243328	0.0023957	0	0	0	
0.173833	-0.0722221	-0.0992699	0.00261777	0.00264444	0	0	0	
0.174	0.0680859	0.0264164	0.00259043	0.00231204	0	0	0	
0.174167	-0.0526968	-0.0218932	0.00238183	0.00167522	0	0	0	
0.174333	0.0506599	0.0177556	0.00201495	0.00117585	0	0	0	
0.1745	-0.0421678	0.00459303	0.00178453	0.00106557	0	0	0	
0.174667	0.0412033	-0.0058813	0.00177383	0.00135993	0	0	0	
0.174833	-0.0447856	-0.0244433	0.00201388	0.00173573	0	0	0	
0.175	0.0504277	0.0271877	0.00220537	0.00194221	0	0	0	
0.175167	-0.0608102	-0.0501817	0.00225518	0.00174916	0	0	0	
0.175333	0.0593743	0.044559	0.00217255	0.00146922	0	0	0	
0.1755	-0.0545495	-0.0323465	0.00212073	0.00134662	0	0	0	
0.175667	0.0443036	0.052491	0.00215754	0.00155668	0	0	0	
0.175833	-0.0529135	-0.0631622	0.00224127	0.00173016	0	0	0	
0.176	0.0598472	0.0574861	0.00228957	0.00175588	0	0	0	
0.176167	-0.0696097	-0.0361046	0.00224657	0.0016465	0	0	0	
0.176333	0.0588772	0.0329266	0.0021533	0.00147954	0	0	0	
0.1765	-0.0461731	-0.0241591	0.00203515	0.00138672	0	0	0	
0.176667	0.0360326	0.0307119	0.00199017	0.00135158	0	0	0	
0.176833	-0.0396297	-0.0397454	0.00199306	0.00143218	0	0	0	
0.177	0.0452698	0.0490425	0.00203081	0.00154035	0	0	0	
0.177167	-0.0548368	-0.0372378	0.0021128	0.00163745	0	0	0	
0.177333	0.0635273	0.0318258	0.00225433	0.00160415	0	0	0	
0.1775	-0.0800858	-0.0291783	0.00227433	0.0015662	0	0	0	
0.177667	0.063586	0.0349329	0.00217507	0.00160168	0	0	0	
0.177833	-0.0544559	-0.0411383	0.00196994	0.00174839	0	0	0	
0.178	0.0353133	0.0360988	0.00198926	0.00183633	0	0	0	
0.178167	-0.027868	-0.0298432	0.00198208	0.00174746	0	0	0	
0.178333	0.028074	0.0353125	0.00194581	0.00153864	0	0	0	
0.1785	-0.0460025	-0.0371822	0.00191536	0.00140875	0	0	0	
0.178667	0.0671761	0.0305521	0.00216105	0.00142351	0	0	0	
0.178833	-0.0753391	-0.0256408	0.00252061	0.00147121	0	0	0	
0.179	0.0530881	0.031596	0.00268189	0.00143638	0	0	0	
0.179167	-0.0485661	-0.0424419	0.00248412	0.00141031	0	0	0	
0.179333	0.0517133	0.0602636	0.00220084	0.00156611	0	0	0	
0.1795	-0.0559237	-0.0334985	0.00200172	0.00197561	0	0	0	
0.179667	0.0599532	-0.00910109	0.00199424	0.00227288	0	0	0	
0.179833	-0.0579292	0.0114852	0.0020757	0.00220087	0	0	0	
0.18	0.0524337	0.0305116	0.00219112	0.00178448	0	0	0	
0.180167	-0.0411045	-0.0457113	0.00225376	0.00151964	0	0	0	
0.180333	0.0314388	0.0450391	0.0022072	0.00155036	0	0	0	
0.1805	-0.041873	0.00190878	0.00215799	0.00171388	0	0	0	
0.180667	0.0499606	-0.0136984	0.00221408	0.00169957	0	0	0	
0.180833	-0.0472719	-0.0267104	0.00232972	0.00148842	0	0	0	
0.181	0.0385694	0.0684128	0.00238759	0.00132037	0	0	0	
0.181167	-0.0427861	-0.057553	0.00234401	0.00143169	0	0	0	
0.181333	0.0429764	0.0390908	0.00228839	0.00167327	0	0	0	
0.1815	-0.0416674	-0.0178809	0.00223481	0.00186641	0	0	0	
0.181667	0.0391072	0.0267647	0.00217715	0.00184181	0	0	0	
0.181833	-0.0315775	-0.034116	0.0021267	0.00179438	0	0	0	
0.182	0.0361657	0.0349535	0.00210862	0.0017682	0	0	0	
0.182167	-0.0484029	-0.0311135	0.00211257	0.00180494	0	0	0	
0.182333	0.0451176	0.0264031	0.00210433	0.00182195	0	0	0	
0.1825	-0.0321941	-0.020593	0.00207014	0.00174128	0	0	0	
0.182667	0.0324846	0.0292126	0.00206637	0.00161862	0	0	0	
0.182833	-0.0382982	-0.0375446	0.00211122	0.00160575	0	0	0	
0.183	0.0416939	0.0322287	0.00213053	0.00171669	0	0	0	
0.183167	-0.0386893	-0.0201233	0.00206455	0.00181746	0	0	0	
0.183333	0.0274176	0.0165274	0.00198811	0.00180077	0	0	0	
0.1835	-0.027323	-0.0227168	0.00200101	0.00169858	0	0	0	
0.183667	0.0272761	0.0281271	0.00206341	0.00158487	0	0	0	
0.183833	-0.0221763	-0.0269391	0.0020929	0.00150629	0	0	0	
0.184	0.0242195	0.0267585	0.00215239	0.00149256	0	0	0	
0.184167	-0.0459403	-0.0259225	0.00227623	0.00152433	0	0	0	
0.184333	0.0537786	0.0195501	0.00236349	0.00151174	0	0	0	
0.1845	-0.0423426	-0.0166128	0.00226359	0.0014422	0	0	0	
0.184667	0.0287747	0.0225393	0.00203397	0.00142032	0	0	0	
0.184833	-0.0240298	-0.0385743	0.00185154	0.0014953	0	0	0	
0.185	0.0167752	0.0407066	0.00180396	0.00159812	0	0	0	
0.185167	-0.0244526	-0.0312739	0.00185788	0.00162185	0	0	0	
0.185333	0.0309185	0.0260602	0.00198549	0.0015867	0	0	0	
0.1855	-0.0355363	-0.0261029	0.00212842	0.00151132	0	0	0	
0.185667	0.0353431	0.0235211	0.00220185	0.0014409	0	0	0	
0.185833	-0.0333381	-0.0299883	0.00215333	0.00144158	0	0	0	
0.186	0.0297508	0.0333131	0.00207232	0.00156314	0	0	0	
0.186167	-0.0332163	-0.0335184	0.00204302	0.00169195	0	0	0	
0.186333	0.0305486	0.0320948	0.00205945	0.00171163	0	0	0	
0.1865	-0.0290964	-0.03578	0.00207781	0.00162151	0	0	0	
0.186667	0.0268061	0.0381098	0.0021139	0.00156947	0	0	0	
0.186833	-0.0303213	-0.0370842	0.00215133	0.00161512	0	0	0	
0.187	0.0321002	0.0325474	0.00216549	0.0017119	0	0	0	
0.187167	-0.0298618	-0.0283626	0.00213897	0.0017673	0	0	0	
0.187333	0.0294848	0.0248905	0.00210741	0.00175407	0	0	0	
0.1875	-0.0318314	-0.0302815	0.00209698	0.00170377	0	0	0	
0.187667	0.0250662	0.0312989	0.00208468	0.00166922	0	0	0	
0.187833	-0.0211355	-0.0251827	0.00204863	0.00166076	0	0	0	
0.188	0.023567	0.0207499	0.00204492	0.00166976	0	0	0	
0.188167	-0.0295667	-0.0229261	0.00210191	0.00168482	0	0	0	
0.188333	0.0315019	0.0174935	0.00214889	0.001691	0	0	0	
0.1885	-0.0254645	-0.0171751	0.00210313	0.00168414	0	0	0	
0.188667	0.0184793	0.0213944	0.00201255	0.00170326	0	0	0	
0.188833	-0.0165529	-0.0272831	0.00196888	0.00175532	0	0	0	
0.189	0.0136824	0.0236219	0.00197495	0.00179129	0	0	0	
0.189167	-0.0140905	-0.0188963	0.00203869	0.00176148	0	0	0	
0.189333	0.0322261	0.0088938	0.00220379	0.00170806	0	0	0	
0.1895	-0.0459317	-0.005604	0.00239145	0.00164547	0	0	0	
0.189667	0.0363938	0.00503975	0.00240103	0.00158462	0	0	0	
0.189833	-0.0239377	-0.00776706	0.00217338	0.00155606	0	0	0	
0.19	0.0158267	0.00823087	0.00192274	0.00158572	0	0	0	
0.190167	-0.0124721	-0.00807873	0.00184547	0.00160058	0	0	0	
0.190333	0.0162722	0.00757819	0.00195113	0.00153088	0	0	0	
0.1905	-0.0181969	-0.0130578	0.00209415	0.00141666	0	0	0	
0.190667	0.0178047	0.0208149	0.00216994	0.00135145	0	0	0	
0.190833	-0.0212378	-0.020633	0.0021758	0.00136351	0	0	0	
0.191	0.0201886	0.0205174	0.00213798	0.00141112	0	0	0	
0.191167	-0.0138257	-0.0230192	0.00207297	0.00145344	0	0	0	
0.191333	0.0106694	0.023488	0.00202429	0.00147603	0	0	0	
0.1915	-0.0177613	-0.0219614	0.00205278	0.00150775	0	0	0	
0.191667	0.0230677	0.0236384	0.00214292	0.00156066	0	0	0	
0.191833	-0.0231433	-0.0239448	0.00218763	0.00162431	0	0	0	
0.192	0.0179834	0.020623	0.00213044	0.00166233	0	0	0	
0.192167	-0.0159845	-0.0198892	0.0020331	0.0016579	0	0	0	
0.192333	0.0143819	0.0188922	0.00197777	0.00162091	0	0	0	
0.1925	-0.0144957	-0.0180682	0.00196273	0.00157969	0	0	0	
0.192667	0.010275	0.0162129	0.00196332	0.0015659	0	0	0	
0.192833	-0.00599019	-0.0165239	0.00198895	0.00158821	0	0	0	
0.193	0.0109235	0.012676	0.0020695	0.00161943	0	0	0	
0.193167	-0.0209702	-0.014717	0.0021669	0.00162524	0	0	0	
0.193333	0.0227292	0.0179119	0.00219465	0.00162082	0	0	0	
0.1935	-0.0202519	-0.0155014	0.00212073	0.00163979	0	0	0	
0.193667	0.0144247	0.0120001	0.00201577	0.00167391	0	0	0	
0.193833	-0.0100064	-0.00784644	0.00195254	0.00167788	0	0	0	
0.194	0.0091851	0.00759711	0.00195443	0.00163869	0	0	0	
0.194167	-0.0129634	-0.0105725	0.00201146	0.00159843	0	0	0	
0.194333	0.0167532	0.0144356	0.00207425	0.00158501	0	0	0	
0.1945	-0.0127774	-0.011123	0.0020668	0.00157826	0	0	0	
0.194667	0.00540876	0.00795697	0.00199384	0.00154688	0	0	0	
0.194833	-0.00673967	-0.00657384	0.00196426	0.00150619	0	0	0	
0.195	0.00851063	0.00986463	0.00202745	0.00149872	0	0	0	
0.195167	-0.00677441	-0.00962925	0.00210572	0.00154948	0	0	0	
0.195333	0.00825517	0.0125162	0.00213743	0.00162746	0	0	0	
0.1955	-0.0128362	-0.0137686	0.00214978	0.00166689	0	0	0	
0.195667	0.0200623	0.00871794	0.00216633	0.00162448	0	0	0	
0.195833	-0.0178083	-0.00414516	0.00213657	0.0015353	0	0	0	
0.196	0.0118351	0.00119128	0.00203896	0.0014918	0	0	0	
0.196167	-0.00921978	0.00607896	0.00196564	0.00151495	0	0	0	
0.196333	0.0112643	-0.00447459	0.00197181	0.00154868	0	0	0	
0.1965	-0.00678927	-0.00560299	0.0019964	0.00155098	0	0	0	
0.196667	-0.00138366	0.01283	0.00199162	0.00150798	0	0	0	
0.196833	0.00249447	-0.00980418	0.00203082	0.00143159	0	0	0	
0.197	0.00812027	0.00372191	0.00214532	0.00134291	0	0	0	
0.197167	-0.0127707	-0.00354681	0.00223082	0.00130589	0	0	0	
0.197333	0.00894081	0.0136142	0.00219744	0.00133924	0	0	0	
0.1975	-0.00754216	-0.0178942	0.00212023	0.00140667	0	0	0	
0.197667	0.00799854	0.016186	0.0020983	0.0014684	0	0	0	
0.197833	-0.0126751	-0.0124426	0.0021059	0.00152267	0	0	0	
0.198	0.017243	0.00973022	0.00206272	0.00155553	0	0	0	
0.198167	-0.00757507	-0.00688122	0.00197832	0.00156611	0	0	0	
0.198333	0.00159379	0.00693907	0.00193479	0.00157468	0	0	0	
0.1985	-0.00347046	-0.00479604	0.00199037	0.00160357	0	0	0	
0.198667	0.00640571	0.00363899	0.00208075	0.00162466	0	0	0	
0.198833	-0.0074821	-0.00261174	0.00214035	0.00159602	0	0	0	
0.199	0.0110313	0.00795085	0.00217191	0.00153932	0	0	0	
0.199167	-0.010446	-0.00878307	0.00219677	0.00151682	0	0	0	
0.199333	0.00833714	0.00705632	0.00216773	0.00153098	0	0	0	
0.1995	-0.000410645	-0.00586972	0.00207081	0.00153345	0	0	0	
0.199667	-0.000268361	0.00448499	0.00200613	0.00149422	0	0	0	
0.199833	-0.0032527	-0.00375982	0.00205776	0.00142735	0	0	0	
0.2	0.00498099	0.00685215	0.00214459	0.00138109	0	0	0	
0.200167	-0.00190103	-0.00608907	0.00214052	0.00141694	0	0	0	
0.200333	-0.000939706	0.00963497	0.00207206	0.00154197	0	0	0	
0.2005	0.0012104	-0.0129333	0.00204159	0.00167934	0	0	0	
0.200667	-0.00159111	0.0118597	0.00206593	0.00174639	0	0	0	
0.200833	-0.000305667	-0.0113909	0.0020935	0.00173706	0	0	0	
0.201	0.000812661	0.0135977	0.00209682	0.00169267	0	0	0	
0.201167	-0.000701347	-0.00849859	0.00207245	0.00164682	0	0	0	
0.201333	-0.00209658	0.00449382	0.00203524	0.00163947	0	0	0	
0.2015	0.00170151	-0.00320629	0.00201719	0.0016994	0	0	0	
0.201667	-0.00217457	0.00121439	0.00202954	0.00177311	0	0	0	
0.201833	0.00363586	0.000500234	0.00204939	0.0017803	0	0	0	
0.202	-0.0028309	0.000498632	0.00207533	0.00171582	0	0	0	
0.202167	-0.00247757	0.000129011	0.00210228	0.00165212	0	0	0	
0.202333	-0.00223573	-0.00214535	0.00208107	0.00164189	0	0	0	
0.2025	0.0083561	0.00334977	0.00200917	0.00166726	0	0	0	
0.202667	-0.00860793	-0.00402081	0.00197358	0.00168534	0	0	0	
0.202833	0.00476645	0.00320513	0.00201792	0.00167565	0	0	0	
0.203	-0.00281445	-0.00378397	0.00207644	0.00164741	0	0	0	
0.203167	0.0034718	0.000850887	0.0020952	0.00162015	0	0	0	
0.203333	-0.00278207	-0.00156773	0.00209628	0.00161331	0	0	0	
0.2035	-0.00156976	0.000827469	0.00210731	0.00162669	0	0	0	
0.203667	0.000542608	0.00254579	0.00211391	0.00163967	0	0	0	
0.203833	-0.00122097	-0.00518274	0.00209264	0.00163423	0	0	0	
0.204	-0.00251176	0.00212979	0.0020514	0.0016141	0	0	0	
0.204167	0.00603978	-0.00448851	0.00201864	0.00160686	0	0	0	
0.204333	-0.009553	0.00200729	0.00201249	0.00162865	0	0	0	
0.2045	0.0102736	-0.00078409	0.00201463	0.00166144	0	0	0	
0.204667	-0.0143608	-0.00212632	0.0020141	0.00168742	0	0	0	
0.204833	0.0113701	0.00319832	0.00203518	0.00169016	0	0	0	
0.205	-0.00426055	-0.00325506	0.00210754	0.00167137	0	0	0	
0.205167	-0.000195634	0.00109576	0.00218193	0.00165294	0	0	0	
0.205333	-0.00351371	0.00205355	0.00217595	0.00166126	0	0	0	
0.2055	0.00367409	0.00169347	0.00208488	0.00169538	0	0	0	
0.205667	-0.00377986	-0.00861257	0.0020058	0.00171043	0	0	0	
0.205833	0.000372878	0.00903753	0.00201214	0.00167833	0	0	0	
0.206	0.00111706	-0.00101607	0.00205981	0.00163527	0	0	0	
0.206167	0.00464939	0.00340736	0.00206152	0.00162572	0	0	0	
0.206333	-0.00801797	-0.0074807	0.00202367	0.00164048	0	0	0	
0.2065	0.00358036	0.00975791	0.00200181	0.0016554	0	0	0	
0.206667	-0.00185116	-0.00211439	0.00198471	0.0016503	0	0	0	
0.206833	0.011113	-0.00352445	0.00193935	0.00162032	0	0	0	
0.207	-0.0213094	-0.000487525	0.00194011	0.00155786	0	0	0	
0.207167	0.0188365	0.0119321	0.00206944	0.00150598	0	0	0	
0.207333	-0.00893755	-0.0113472	0.0022609	0.0015301	0	0	0	
0.2075	0.00510566	0.00323066	0.00234738	0.00162739	0	0	0	
0.207667	-0.00442271	-0.000839827	0.00229063	0.00171839	0	0	0	
0.207833	0.00650608	0.0102337	0.00220381	0.00175216	0	0	0	
0.208	-0.00886662	-0.0150202	0.00216329	0.00175714	0	0	0	
0.208167	0.012818	0.017422	0.00212153	0.00175342	0	0	0	
0.208333	-0.0171475	-0.016208	0.00203996	0.00170353	0	0	0	
0.2085	0.0192048	0.0174	0.0019935	0.00161434	0	0	0	
0.208667	-0.0127189	-0.0180362	0.00203547	0.00155703	0	0	0	
0.208833	0.0124777	0.0150516	0.0020836	0.00155006	0	0	0	
0.209	-0.023726	-0.0126574	0.00206124	0.0015242	0	0	0	
0.209167	0.0264821	0.013025	0.00205843	0.00144951	0	0	0	
0.209333	-0.019646	-0.00981204	0.00217352	0.00137889	0	0	0	
0.2095	0.0141692	0.00618672	0.00229516	0.0013678	0	0	0	
0.209667	-0.0174429	-0.0110623	0.00228263	0.0014086	0	0	0	
0.209833	0.0185788	0.00373477	0.00219895	0.00146052	0	0	0	
0.21	-0.0167497	0.00253621	0.00217411	0.00150922	0	0	0	
0.210167	0.0184336	-0.00152835	0.00217232	0.00153337	0	0	0	
0.210333	-0.0281685	-0.00469626	0.0021167	0.00153736	0	0	0	
0.2105	0.026362	0.00793743	0.00205018	0.00152984	0	0	0	
0.210667	-0.0191272	-0.010984	0.0020688	0.00152182	0	0	0	
0.210833	0.0116469	0.00944486	0.0021169	0.00153397	0	0	0	
0.211	-0.0140188	-0.0146674	0.00210754	0.00159293	0	0	0	
0.211167	0.0202378	0.0132547	0.00204564	0.00167043	0	0	0	
0.211333	-0.0212911	-0.0135888	0.00201043	0.00171793	0	0	0	
0.2115	0.0170471	0.0163182	0.0020286	0.00168988	0	0	0	
0.211667	-0.0138354	-0.0113358	0.00205055	0.00160639	0	0	0	
0.211833	0.0147565	0.0127843	0.00204581	0.00153106	0	0	0	
0.212	-0.0142185	-0.0151342	0.00205839	0.00148815	0	0	0	
0.212167	0.0127286	0.00990768	0.00210764	0.00147058	0	0	0	
0.212333	-0.0142922	-0.0104864	0.00211577	0.0014573	0	0	0	
0.2125	0.0203066	0.0134002	0.00204735	0.00143216	0	0	0	
0.212667	-0.0229338	-0.00501301	0.00199539	0.00141412	0	0	0	
0.212833	0.0176696	0.00795453	0.00203218	0.00142821	0	0	0	
0.213	-0.0178981	-0.008314	0.0020986	0.00146347	0	0	0	
0.213167	0.0180374	0.0080481	0.00212569	0.0015288	0	0	0	
0.213333	-0.0118985	-0.0071693	0.00213061	0.0015958	0	0	0	
0.2135	0.0148122	0.00584215	0.00209663	0.0016218	0	0	0	
0.213667	-0.0261545	-0.00477188	0.00200353	0.0015925	0	0	0	
0.213833	0.0282252	0.00955735	0.00194046	0.00157105	0	0	0	
0.214	-0.0228928	-0.0108055	0.00199783	0.00159952	0	0	0	
0.214167	0.0167918	0.0115642	0.0020973	0.00163026	0	0	0	
0.214333	-0.018901	-0.0169597	0.00211974	0.00161594	0	0	0	
0.2145	0.0211741	0.0166222	0.00207241	0.00159173	0	0	0	
0.214667	-0.0204093	-0.0148631	0.00203618	0.00160841	0	0	0	
0.214833	0.0196128	0.0166465	0.00202809	0.00164286	0	0	0	
0.215	-0.0212273	-0.0196654	0.00202484	0.00165263	0	0	0	
0.215167	0.0221476	0.0170282	0.00201728	0.00161658	0	0	0	
0.215333	-0.0257316	-0.0169778	0.00201414	0.001561	0	0	0	
0.2155	0.0269299	0.0135839	0.00202681	0.00151522	0	0	0	
0.215667	-0.0251169	-0.0153997	0.00206496	0.00151095	0	0	0	
0.215833	0.0217557	0.0189704	0.00210321	0.00153392	0	0	0	
0.216	-0.0219283	-0.0167666	0.00210665	0.0015586	0	0	0	
0.216167	0.0244252	0.0180901	0.0020766	0.00157546	0	0	0	
0.216333	-0.0236525	-0.0127952	0.00204058	0.00156791	0	0	0	
0.2165	0.0255047	0.0125845	0.00202506	0.00157509	0	0	0	
0.216667	-0.0245575	-0.0169962	0.00202709	0.0016029	0	0	0	
0.216833	0.0254872	0.0161904	0.00205727	0.00163343	0	0	0	
0.217	-0.0231241	-0.0148572	0.00209323	0.00162208	0	0	0	
0.217167	0.0231586	0.0210173	0.00211516	0.00157512	0	0	0	
0.217333	-0.0259292	-0.0188513	0.0020983	0.00153784	0	0	0	
0.2175	0.030466	0.0238196	0.00206147	0.00155965	0	0	0	
0.217667	-0.0332648	-0.0283662	0.00204862	0.00159902	0	0	0	
0.217833	0.0333328	0.0232477	0.00209732	0.00164143	0	0	0	
0.218	-0.0261848	-0.0178754	0.00218267	0.00170928	0	0	0	
0.218167	0.022234	0.0111331	0.00222608	0.00174874	0	0	0	
0.218333	-0.0283921	-0.0119718	0.00218668	0.00169788	0	0	0	
0.2185	0.0312837	0.0199059	0.00212513	0.00157811	0	0	0	
0.218667	-0.0329787	-0.0212888	0.0021191	0.0014917	0	0	0	
0.218833	0.0312993	0.0181828	0.00213002	0.00145877	0	0	0	
0.219	-0.0326084	-0.0294769	0.00211956	0.00146367	0	0	0	
0.219167	0.0323767	0.0247561	0.00208921	0.00149311	0	0	0	
0.219333	-0.0349241	-0.0160451	0.00208885	0.00158693	0	0	0	
0.2195	0.0359482	0.0167741	0.00210735	0.001687	0	0	0	
0.219667	-0.0360494	-0.0159889	0.00211855	0.00174118	0	0	0	
0.219833	0.0333754	0.0117319	0.002094	0.00172763	0	0	0	
0.22	-0.0338433	-0.0229341	0.00205686	0.00167624	0	0	0	
0.220167	0.0341252	0.0218968	0.00204373	0.00162593	0	0	0	
0.220333	-0.0323675	-0.0234445	0.002073	0.00161469	0	0	0	
0.2205	0.0310634	0.0296497	0.00210775	0.00161885	0	0	0	
0.220667	-0.0297102	-0.0322935	0.00211552	0.00163088	0	0	0	
0.220833	0.0304417	0.0254695	0.00209018	0.00162738	0	0	0	
0.221	-0.0350603	-0.0233437	0.00204779	0.00160663	0	0	0	
0.221167	0.0342339	0.0209887	0.00201799	0.00156472	0	0	0	
0.221333	-0.030798	-0.0159937	0.00202778	0.00150623	0	0	0	
0.2215	0.0381145	0.0185201	0.00206489	0.0014457	0	0	0	
0.221667	-0.0369559	-0.0212696	0.00207207	0.00141356	0	0	0	
0.221833	0.0361636	0.0181052	0.00205645	0.00143603	0	0	0	
0.222	-0.0364687	-0.0150933	0.00203205	0.00149319	0	0	0	
0.222167	0.0307794	0.0170012	0.00201584	0.00154695	0	0	0	
0.222333	-0.0256383	-0.0211077	0.00203083	0.00158079	0	0	0	
0.2225	0.0251353	0.0226615	0.00205438	0.00161139	0	0	0	
0.222667	-0.0226276	-0.0204321	0.0020149	0.0016505	0	0	0	
0.222833	0.0272413	0.0193114	0.00188606	0.00166953	0	0	0	
0.223	-0.0340064	-0.021379	0.00175596	0.00167044	0	0	0	
0.223167	0.0351975	0.0237881	0.00175135	0.0016928	0	0	0	
0.223333	-0.0354712	-0.0168567	0.0019012	0.0017164	0	0	0	
0.2235	0.0289583	0.0100062	0.00210105	0.00168588	0	0	0	
0.223667	-0.0248236	-0.0182115	0.00220668	0.00158413	0	0	0	
0.223833	0.0212559	0.0206471	0.00210522	0.00148135	0	0	0	
0.224	-0.0391936	-0.0239384	0.00193315	0.00149792	0	0	0	
0.224167	0.0406775	0.0322785	0.00187202	0.0016444	0	0	0	
0.224333	-0.0412874	-0.0220151	0.00200034	0.00175565	0	0	0	
0.2245	0.0434299	0.0136546	0.0021615	0.00173794	0	0	0	
0.224667	-0.0372867	-0.025858	0.00227042	0.00166853	0	0	0	
0.224833	0.0227884	0.0230922	0.00232614	0.00164887	0	0	0	
0.225	-0.0221348	-0.0241652	0.002296	0.00166888	0	0	0	
0.225167	0.0286127	0.0400549	0.00213611	0.00167873	0	0	0	
0.225333	-0.0418727	-0.034776	0.00195105	0.00168586	0	0	0	
0.2255	0.0478558	0.0190428	0.00188695	0.00170357	0	0	0	
0.225667	-0.0474853	-0.028475	0.00195119	0.0017151	0	0	0	
0.225833	0.0516164	0.0256704	0.00205899	0.00167438	0	0	0	
0.226	-0.0417075	-0.020113	0.0021471	0.00160913	0	0	0	
0.226167	0.0356512	0.0253031	0.00224089	0.00154957	0	0	0	
0.226333	-0.030102	-0.0249489	0.00228338	0.00153998	0	0	0	
0.2265	0.0268018	0.0225279	0.00226077	0.00154515	0	0	0	
0.226667	-0.034627	-0.0311734	0.0021626	0.00152627	0	0	0	
0.226833	0.0466309	0.0355733	0.0020552	0.00153108	0	0	0	
0.227	-0.0467127	-0.0372051	0.00202886	0.00160209	0	0	0	
0.227167	0.0404529	0.0345241	0.00212842	0.00170652	0	0	0	
0.227333	-0.0346158	-0.0296836	0.00225393	0.00177356	0	0	0	
0.2275	0.0353372	0.0249862	0.00227585	0.00175193	0	0	0	
0.227667	-0.0337253	-0.0313936	0.00218265	0.00168605	0	0	0	
0.227833	0.0190925	0.034335	0.00210474	0.00164556	0	0	0	
0.228	0.00620999	-0.0282153	0.00220139	0.00162177	0	0	0	
0.228167	-0.0291731	0.0239897	0.0024108	0.00157099	0	0	0	
0.228333	0.0186051	-0.0231348	0.00250946	0.00148982	0	0	0	
0.2285	0.0142267	0.0193199	0.00230911	0.00141854	0	0	0	
0.228667	-0.0363447	-0.0282537	0.00200638	0.0014093	0	0	0	
0.228833	0.0502738	0.0370801	0.0018948	0.00146149	0	0	0	
0.229	-0.0639191	-0.038128	0.0021332	0.00155682	0	0	0	
0.229167	0.0618118	0.0381792	0.00257608	0.00168434	0	0	0	
0.229333	-0.0503391	-0.0307858	0.00302211	0.00180612	0	0	0	
0.2295	0.0342737	0.0215947	0.00321029	0.00187453	0	0	0	
0.229667	-0.0275043	-0.0272164	0.00299877	0.00184774	0	0	0	
0.229833	0.0351197	0.0326609	0.0025171	0.00175406	0	0	0	
0.23	-0.044185	-0.036014	0.00209115	0.00167349	0	0	0	
0.230167	0.0462728	0.0364011	0.00192936	0.0016219	0	0	0	
0.230333	-0.0390851	-0.029189	0.00197465	0.00157091	0	0	0	
0.2305	0.0338186	0.0335984	0.00206402	0.00154405	0	0	0	
0.230667	-0.0377086	-0.0391005	0.00206597	0.001529	0	0	0	
0.230833	0.048797	0.0366722	0.00199417	0.00154571	0	0	0	
0.231	-0.0502255	-0.0354243	0.0019588	0.00162898	0	0	0	
0.231167	0.0416652	0.0285536	0.00202223	0.00175055	0	0	0	
0.231333	-0.0336245	-0.0250848	0.00206303	0.00183345	0	0	0	
0.2315	0.0441397	0.0335512	0.00201501	0.0017856	0	0	0	
0.231667	-0.0505596	-0.0285321	0.00197254	0.00164187	0	0	0	
0.231833	0.0453949	0.0309149	0.00204155	0.00154277	0	0	0	
0.232	-0.0402887	-0.0380565	0.00213792	0.00152613	0	0	0	
0.232167	0.0427747	0.0349847	0.0021374	0.00154925	0	0	0	
0.232333	-0.0466083	-0.0352194	0.00206938	0.00157082	0	0	0	
0.2325	0.0509471	0.0405562	0.00204568	0.00156574	0	0	0	
0.232667	-0.0488962	-0.0333486	0.00208965	0.0015296	0	0	0	
0.232833	0.040228	0.0414223	0.00214818	0.00152041	0	0	0	
0.233	-0.0476705	-0.044698	0.00221538	0.001544	0	0	0	
0.233167	0.0484828	0.0294639	0.00225777	0.00161303	0	0	0	
0.233333	-0.0449742	-0.0256451	0.00224619	0.00170638	0	0	0	
0.2335	0.0469728	0.033282	0.00214546	0.00175904	0	0	0	
0.233667	-0.0517719	-0.0235018	0.00203321	0.00169988	0	0	0	
0.233833	0.0515126	0.0322247	0.00200049	0.00157981	0	0	0	
0.234	-0.0564094	-0.0395476	0.00206403	0.00148764	0	0	0	
0.234167	0.0578778	0.026817	0.0021317	0.00146694	0	0	0	
0.234333	-0.0488088	-0.0343698	0.00211044	0.00150386	0	0	0	
0.2345	0.0465063	0.0410726	0.00206022	0.00154355	0	0	0	
0.234667	-0.0463588	-0.0313682	0.00203911	0.00155265	0	0	0	
0.234833	0.0467928	0.0416087	0.00206025	0.00156749	0	0	0	
0.235	-0.0452361	-0.03675	0.00206835	0.00158272	0	0	0	
0.235167	0.0456775	0.0239145	0.0021054	0.00160614	0	0	0	
0.235333	-0.0387839	-0.0338626	0.00213677	0.00154907	0	0	0	
0.2355	0.0437479	0.0418878	0.00214361	0.00147537	0	0	0	
0.235667	-0.0507649	-0.0441557	0.00211547	0.00151514	0	0	0	
0.235833	0.0471632	0.0426901	0.00208862	0.00161843	0	0	0	
0.236	-0.0512221	-0.0459753	0.0020407	0.00169966	0	0	0	
0.236167	0.0612754	0.0465346	0.00201703	0.00171278	0	0	0	
0.236333	-0.0593153	-0.0396118	0.00208155	0.00169584	0	0	0	
0.2365	0.0489991	0.0342829	0.00221105	0.00167823	0	0	0	
0.236667	-0.0482937	-0.0390459	0.00227824	0.00162203	0	0	0	
0.236833	0.0458512	0.0426633	0.00224413	0.00150499	0	0	0	
0.237	-0.0440184	-0.0566868	0.00214697	0.00147125	0	0	0	
0.237167	0.0525873	0.0513576	0.00203702	0.00152922	0	0	0	
0.237333	-0.0603562	-0.0291819	0.00196454	0.00153439	0	0	0	
0.2375	0.0632752	0.0327778	0.0020067	0.0014602	0	0	0	
0.237667	-0.0577512	-0.0363795	0.0021262	0.00138374	0	0	0	
0.237833	0.0549323	0.0316904	0.00220504	0.00142469	0	0	0	
0.238	-0.0565914	-0.0360134	0.00217296	0.00149133	0	0	0	
0.238167	0.0571343	0.0374689	0.00209621	0.00149238	0	0	0	
0.238333	-0.0556437	-0.0310668	0.00205989	0.0014572	0	0	0	
0.2385	0.0596492	0.0411611	0.00207836	0.00148858	0	0	0	
0.238667	-0.0538775	-0.0420286	0.00210694	0.00157883	0	0	0	
0.238833	0.0498186	0.0374676	0.00212234	0.0016443	0	0	0	
0.239	-0.0491106	-0.0466373	0.00208433	0.00163677	0	0	0	
0.239167	0.0529037	0.045872	0.0020125	0.00159044	0	0	0	
0.239333	-0.0567637	-0.0456928	0.00195884	0.00160115	0	0	0	
0.2395	0.0579513	0.0433281	0.00197469	0.00159809	0	0	0	
0.239667	-0.0530025	-0.0412216	0.00203511	0.00157735	0	0	0	
0.239833	0.0491858	0.0408654	0.00208098	0.00154043	0	0	0	
0.24	-0.0478954	-0.0373748	0.00205877	0.00150059	0	0	0	
0.240167	0.0536961	0.0341319	0.00199929	0.00147475	0	0	0	
0.240333	-0.0588399	-0.0421178	0.00194993	0.00148495	0	0	0	
0.2405	0.0592379	0.0475655	0.00196272	0.00154165	0	0	0	
0.240667	-0.0563141	-0.0467989	0.00201161	0.00161293	0	0	0	
0.240833	0.056777	0.0400139	0.00206121	0.00162992	0	0	0	
0.241	-0.0569978	-0.0362412	0.0020965	0.00159509	0	0	0	
0.241167	0.0569275	0.0386021	0.00214445	0.00157833	0	0	0	
0.241333	-0.0546524	-0.0420993	0.00214303	0.00156997	0	0	0	
0.2415	0.0613079	0.0540821	0.00209018	0.00157405	0	0	0	
0.241667	-0.0660446	-0.0537579	0.0020461	0.00154023	0	0	0	
0.241833	0.0638557	0.035633	0.00210422	0.00147499	0	0	0	
0.242	-0.0524385	-0.0356962	0.002164	0.00145708	0	0	0	
0.242167	0.0562957	0.0417186	0.00213174	0.00150196	0	0	0	
0.242333	-0.0534484	-0.0393783	0.00197967	0.00158439	0	0	0	
0.2425	0.0657422	0.0388909	0.0019169	0.00161806	0	0	0	
0.242667	-0.0668748	-0.0357896	0.00195754	0.00158558	0	0	0	
0.242833	0.0625644	0.0309502	0.00206975	0.00155486	0	0	0	
0.243	-0.0547186	-0.0391644	0.00210529	0.00157372	0	0	0	
0.243167	0.0549666	0.0477357	0.00206667	0.00166514	0	0	0	
0.243333	-0.0571604	-0.053718	0.00203529	0.00177871	0	0	0	
0.2435	0.0646778	0.0520652	0.00204327	0.00180517	0	0	0	
0.243667	-0.0636824	-0.0533024	0.00204772	0.00173782	0	0	0	
0.243833	0.0652521	0.0552629	0.00206747	0.00167107	0	0	0	
0.244	-0.0567588	-0.0528206	0.00209638	0.00164464	0	0	0	
0.244167	0.0519479	0.0536917	0.00210155	0.00164612	0	0	0	
0.244333	-0.0680154	-0.0514175	0.00203894	0.00159282	0	0	0	
0.2445	0.0899742	0.0434355	0.00200709	0.00152676	0	0	0	
0.244667	-0.0786992	-0.0372146	0.00207319	0.00147213	0	0	0	
0.244833	0.0680632	0.0379326	0.00222526	0.00145727	0	0	0	
0.245	-0.0564855	-0.0386766	0.00229531	0.00145938	0	0	0	
0.245167	0.0501738	0.0315483	0.0022709	0.00146009	0	0	0	
0.245333	-0.0497935	-0.02582	0.00215267	0.00143803	0	0	0	
0.2455	0.0572021	0.0348995	0.00200978	0.00144322	0	0	0	
0.245667	-0.0574073	-0.0409361	0.00184635	0.00148599	0	0	0	
0.245833	0.0703585	0.0426658	0.00180255	0.0015569	0	0	0	
0.246	-0.0650584	-0.0477884	0.00190816	0.00160575	0	0	0	
0.246167	0.0558301	0.0506986	0.0020844	0.00165334	0	0	0	
0.246333	-0.0595018	-0.0492268	0.00213211	0.00170568	0	0	0	
0.2465	0.0638005	0.0475489	0.00206929	0.00174056	0	0	0	
0.246667	-0.0652905	-0.0427198	0.00202992	0.00170715	0	0	0	
0.246833	0.0662348	0.0392065	0.00207547	0.00161858	0	0	0	
0.247	-0.0663009	-0.0502302	0.00213693	0.00154878	0	0	0	
0.247167	0.0596653	0.0588306	0.00217987	0.00155031	0	0	0	
0.247333	-0.0555283	-0.0575654	0.0021698	0.00160224	0	0	0	
0.2475	0.0565568	0.0478012	0.00212017	0.00161441	0	0	0	
0.247667	-0.065648	-0.0391179	0.00207982	0.00158456	0	0	0	
0.247833	0.0701544	0.0405728	0.0020999	0.00158774	0	0	0	
0.248	-0.0666316	-0.0495299	0.00216834	0.00165921	0	0	0	
0.248167	0.0631065	0.0427031	0.0021972	0.00167904	0	0	0	
0.248333	-0.0657978	-0.0393184	0.00215239	0.00159653	0	0	0	
0.2485	0.0690141	0.0386268	0.0020907	0.00147944	0	0	0	
0.248667	-0.0705098	-0.0370384	0.00207983	0.00146683	0	0	0	
0.248833	0.0692964	0.0454905	0.00209024	0.00155982	0	0	0	
0.249	-0.066819	-0.0483273	0.00210089	0.00163993	0	0	0	
0.249167	0.0621633	0.0450882	0.00210264	0.0016621	0	0	0	
0.249333	-0.0546451	-0.051849	0.00209877	0.00167353	0	0	0	
0.2495	0.0560412	0.0592312	0.00205608	0.00172213	0	0	0	
0.249667	-0.0607745	-0.0564328	0.00197749	0.00176105	0	0	0	
0.249833	0.067672	0.0510592	0.00192736	0.00173878	0	0	0	
0.25	-0.0755093	-0.0487268	0.00195696	0.00168571	0	0	0	
0.250167	0.0754267	0.0496438	0.0020725	0.00165759	0	0	0	
0.250333	-0.0693098	-0.0540876	0.00223942	0.00165854	0	0	0	
0.2505	0.0624428	0.0538381	0.00233054	0.00163766	0	0	0	
0.250667	-0.0592303	-0.0452473	0.00224123	0.00155094	0	0	0	
0.250833	0.0656586	0.0383806	0.00208346	0.00148455	0	0	0	
0.251	-0.067047	-0.0421547	0.00198003	0.00150289	0	0	0	
0.251167	0.0705195	0.0464308	0.00199891	0.00158669	0	0	0	
0.251333	-0.077152	-0.0488437	0.0020573	0.00163737	0	0	0	
0.2515	0.0693367	0.0472256	0.00210446	0.00161669	0	0	0	
0.251667	-0.0608104	-0.045579	0.00210335	0.00158138	0	0	0	
0.251833	0.0644706	0.0519074	0.00206622	0.00159133	0	0	0	
0.252	-0.0682461	-0.0555543	0.00202864	0.00165516	0	0	0	
0.252167	0.0703397	0.053309	0.00205217	0.00172825	0	0	0	
0.252333	-0.0654702	-0.0478847	0.00208973	0.00171687	0	0	0	
0.2525	0.0597833	0.0490451	0.00210119	0.00162924	0	0	0	
0.252667	-0.0595186	-0.0492016	0.00204645	0.00154466	0	0	0	
0.252833	0.0667003	0.0510912	0.00197422	0.00154224	0	0	0	
0.253	-0.0704192	-0.0588541	0.00193826	0.00163374	0	0	0	
0.253167	0.0731568	0.0575746	0.00198543	0.00172646	0	0	0	
0.253333	-0.0680559	-0.0516219	0.00204749	0.0017621	0	0	0	
0.2535	0.0627165	0.0503276	0.00209572	0.00170292	0	0	0	
0.253667	-0.0574041	-0.0525426	0.00208555	0.00161857	0	0	0	
0.253833	0.0598863	0.0635541	0.00204741	0.00161561	0	0	0	
0.254	-0.0636395	-0.0802399	0.00200318	0.00175459	0	0	0	
0.254167	0.0652963	0.0759672	0.00200311	0.00192094	0	0	0	
0.254333	-0.0612052	-0.0602147	0.00202625	0.00193478	0	0	0	
0.2545	0.0621088	0.0532124	0.00205659	0.00178405	0	0	0	
0.254667	-0.0679471	-0.0484724	0.00208756	0.00159067	0	0	0	
0.254833	0.0695665	0.0487131	0.00215223	0.00147871	0	0	0	
0.255	-0.0640329	-0.0533408	0.00218664	0.00141223	0	0	0	
0.255167	0.0632419	0.049957	0.00217365	0.0013716	0	0	0	
0.255333	-0.0668505	-0.0448175	0.00211349	0.00133454	0	0	0	
0.2555	0.0732337	0.0471022	0.00209491	0.00135936	0	0	0	
0.255667	-0.0758886	-0.0487379	0.00211519	0.00143192	0	0	0	
0.255833	0.0769746	0.0485118	0.00215431	0.00151906	0	0	0	
0.256	-0.0733777	-0.0472277	0.0021528	0.00154273	0	0	0	
0.256167	0.0726523	0.0464674	0.00215484	0.00156361	0	0	0	
0.256333	-0.0672561	-0.0514313	0.0021628	0.00162205	0	0	0	
0.2565	0.062358	0.0533769	0.00218322	0.00168852	0	0	0	
0.256667	-0.0581859	-0.0566213	0.00213579	0.00172049	0	0	0	
0.256833	0.0630336	0.0596468	0.00205035	0.00171978	0	0	0	
0.257	-0.0666544	-0.0581858	0.00197863	0.00168991	0	0	0	
0.257167	0.0653643	0.0570321	0.00196261	0.00164975	0	0	0	
0.257333	-0.070646	-0.059407	0.00198069	0.001629	0	0	0	
0.2575	0.0796998	0.0598741	0.0020071	0.00166213	0	0	0	
0.257667	-0.0813575	-0.0601043	0.00204649	0.00170279	0	0	0	
0.257833	0.0760813	0.0587096	0.00212688	0.0017139	0	0	0	
0.258	-0.0682987	-0.051464	0.00218699	0.00165526	0	0	0	
0.258167	0.0688223	0.047357	0.00219417	0.00154544	0	0	0	
0.258333	-0.0732119	-0.0489745	0.00216522	0.00146018	0	0	0	
0.2585	0.0653278	0.0532567	0.00211811	0.00146488	0	0	0	
0.258667	-0.0616507	-0.0559154	0.00206559	0.00151687	0	0	0	
0.258833	0.065138	0.055795	0.00197983	0.00155214	0	0	0	
0.259	-0.0704895	-0.0518762	0.00193471	0.00155758	0	0	0	
0.259167	0.072667	0.0471928	0.00195853	0.00155107	0	0	0	
0.259333	-0.0740292	-0.0497579	0.00201943	0.00154397	0	0	0	
0.2595	0.074722	0.0523845	0.00203911	0.00154616	0	0	0	
0.259667	-0.0786192	-0.0506006	0.0020512	0.00155774	0	0	0	
0.259833	0.0715297	0.0477894	0.00206696	0.0015555	0	0	0	
0.26	-0.0660777	-0.0494551	0.00211359	0.00154737	0	0	0	
0.260167	0.0677297	0.0545803	0.00210346	0.00157144	0	0	0	
0.260333	-0.0723385	-0.0565221	0.00206186	0.00161486	0	0	0	
0.2605	0.072108	0.0582806	0.00204111	0.00165648	0	0	0	
0.260667	-0.0677236	-0.0560751	0.00205535	0.00168004	0	0	0	
0.260833	0.0697043	0.0556415	0.00206494	0.00169063	0	0	0	
0.261	-0.0757199	-0.0575917	0.00206438	0.0016793	0	0	0	
0.261167	0.076548	0.059948	0.0020867	0.00168148	0	0	0	
0.261333	-0.0727736	-0.056642	0.00212623	0.00169321	0	0	0	
0.2615	0.0745015	0.0559662	0.00214234	0.00168977	0	0	0	
0.261667	-0.0778486	-0.0600795	0.00213049	0.00166603	0	0	0	
0.261833	0.0762582	0.0629303	0.0021344	0.00164859	0	0	0	
0.262	-0.0717916	-0.0609133	0.00214973	0.00163143	0	0	0	
0.262167	0.0725184	0.0630642	0.00212936	0.00160692	0	0	0	
0.262333	-0.0766206	-0.0690039	0.00208085	0.00160369	0	0	0	
0.2625	0.0764098	0.0585028	0.00204949	0.00162382	0	0	0	
0.262667	-0.0748566	-0.0569228	0.00206011	0.00163452	0	0	0	
0.262833	0.0747181	0.0561788	0.00208422	0.0015854	0	0	0	
0.263	-0.0703512	-0.0504584	0.00207775	0.00149474	0	0	0	
0.263167	0.0711261	0.0465965	0.00204309	0.00139511	0	0	0	
0.263333	-0.0782032	-0.0479717	0.00201109	0.00131946	0	0	0	
0.2635	0.0793223	0.045347	0.00203369	0.00130607	0	0	0	
0.263667	-0.074325	-0.0477902	0.00209865	0.0013668	0	0	0	
0.263833	0.070688	0.046234	0.00212939	0.00145229	0	0	0	
0.264	-0.0732915	-0.0418043	0.00210033	0.00148416	0	0	0	
0.264167	0.0779394	0.0432775	0.00208592	0.00146177	0	0	0	
0.264333	-0.0754538	-0.0468827	0.00211009	0.00143994	0	0	0	
0.2645	0.0769529	0.0531592	0.00217228	0.00149866	0	0	0	
0.264667	-0.0738355	-0.0513045	0.00218555	0.00158529	0	0	0	
0.264833	0.0722639	0.0488306	0.00217198	0.00163074	0	0	0	
0.265	-0.0745091	-0.0482716	0.00213604	0.00160316	0	0	0	
0.265167	0.0766179	0.0534553	0.00210359	0.00157522	0	0	0	
0.265333	-0.0787928	-0.0550609	0.00207786	0.00159052	0	0	0	
0.2655	0.0842665	0.0519645	0.00209752	0.00162585	0	0	0	
0.265667	-0.0801412	-0.0448096	0.00214781	0.00162854	0	0	0	
0.265833	0.0745738	0.0519764	0.00219184	0.00163487	0	0	0	
0.266	-0.0718151	-0.0655113	0.00215928	0.00169748	0	0	0	
0.266167	0.0734799	0.0650703	0.00207204	0.00176782	0	0	0	
0.266333	-0.0795687	-0.0566491	0.00200683	0.00175909	0	0	0	
0.2665	0.0832971	0.0541857	0.00201621	0.00168001	0	0	0	
0.266667	-0.0804753	-0.0588181	0.00209635	0.00163994	0	0	0	
0.266833	0.0735143	0.0659996	0.00217028	0.00169388	0	0	0	
0.267	-0.0686881	-0.0616169	0.00217423	0.00174774	0	0	0	
0.267167	0.072616	0.0513378	0.00211743	0.00169452	0	0	0	
0.267333	-0.0709316	-0.0489992	0.00203494	0.00158505	0	0	0	
0.2675	0.0735638	0.0553267	0.00197106	0.00154799	0	0	0	
0.267667	-0.0796401	-0.0588377	0.0019668	0.00162002	0	0	0	
0.267833	0.0810184	0.0577123	0.00202899	0.0016885	0	0	0	
0.268	-0.0763981	-0.0571928	0.00211882	0.00168678	0	0	0	
0.268167	0.0758257	0.0604537	0.00216269	0.00164568	0	0	0	
0.268333	-0.0716375	-0.060142	0.00212322	0.00162894	0	0	0	
0.2685	0.0724317	0.0615433	0.00206043	0.00164307	0	0	0	
0.268667	-0.0720843	-0.0632842	0.00201945	0.00166726	0	0	0	
0.268833	0.0753474	0.0584894	0.00200668	0.00165133	0	0	0	
0.269	-0.0822749	-0.0577553	0.00200473	0.00162688	0	0	0	
0.269167	0.0862697	0.0589337	0.00202943	0.00160843	0	0	0	
0.269333	-0.0840008	-0.0541024	0.0021047	0.00159385	0	0	0	
0.2695	0.0790303	0.0522717	0.00217645	0.00157225	0	0	0	
0.269667	-0.0766952	-0.0520162	0.00219608	0.00155039	0	0	0	
0.269833	0.0722355	0.0537072	0.00216815	0.00155612	0	0	0	
0.27	-0.0642338	-0.0574663	0.00209359	0.00157398	0	0	0	
0.270167	0.0659506	0.0607648	0.00195222	0.00159119	0	0	0	
0.270333	-0.0813387	-0.057381	0.00183709	0.00158775	0	0	0	
0.2705	0.0852422	0.0602284	0.00183646	0.00156962	0	0	0	
0.270667	-0.0823225	-0.0652854	0.00196973	0.00158191	0	0	0	
0.270833	0.0733142	0.0663521	0.0020468	0.00164341	0	0	0	
0.271	-0.0716437	-0.0586273	0.00200368	0.00170609	0	0	0	
0.271167	0.073547	0.0521607	0.00193092	0.00167942	0	0	0	
0.271333	-0.0776129	-0.0501421	0.00193714	0.00157262	0	0	0	
0.2715	0.076021	0.0561599	0.00202092	0.00145448	0	0	0	
0.271667	-0.0741765	-0.0584952	0.00208471	0.00141587	0	0	0	
0.271833	0.0673339	0.0570221	0.00207179	0.00143848	0	0	0	
0.272	-0.064712	-0.0571565	0.00200035	0.00150361	0	0	0	
0.272167	0.068491	0.0532046	0.00193242	0.00153909	0	0	0	
0.272333	-0.0795734	-0.0499128	0.00188919	0.00156185	0	0	0	
0.2725	0.0893755	0.0506366	0.00192288	0.00155104	0	0	0	
0.272667	-0.0885983	-0.0542672	0.00200866	0.00154555	0	0	0	
0.272833	0.0743496	0.0575395	0.00212467	0.00154978	0	0	0	
0.273	-0.0640684	-0.0607003	0.0021504	0.00157927	0	0	0	
0.273167	0.0667789	0.0585139	0.00205287	0.00160335	0	0	0	
0.273333	-0.0783279	-0.0573214	0.00192901	0.001623	0	0	0	
0.2735	0.0823815	0.0541879	0.00190204	0.00161045	0	0	0	
0.273667	-0.0810278	-0.057297	0.00195934	0.00160759	0	0	0	
0.273833	0.0829518	0.0588389	0.00204087	0.00162406	0	0	0	
0.274	-0.0795545	-0.059744	0.00207707	0.00164381	0	0	0	
0.274167	0.073124	0.0617395	0.00210834	0.00164582	0	0	0	
0.274333	-0.071452	-0.0612228	0.00211536	0.00161541	0	0	0	
0.2745	0.0743147	0.0608666	0.00209462	0.00159953	0	0	0	
0.274667	-0.0790585	-0.0641247	0.00205177	0.00161176	0	0	0	
0.274833	0.0831214	0.0651249	0.00205158	0.00165703	0	0	0	
0.275	-0.0733683	-0.0608408	0.00206406	0.00168597	0	0	0	
0.275167	0.0671316	0.0556411	0.00204616	0.00166955	0	0	0	
0.275333	-0.0743366	-0.0498766	0.0020155	0.00158098	0	0	0	
0.2755	0.0781227	0.0519045	0.00199519	0.00149631	0	0	0	
0.275667	-0.0863295	-0.0572386	0.00203155	0.00144776	0	0	0	
0.275833	0.0916484	0.062951	0.00207118	0.00148011	0	0	0	
0.276	-0.0872829	-0.0629529	0.00212143	0.00153363	0	0	0	
0.276167	0.0739341	0.0571963	0.00214692	0.00157005	0	0	0	
0.276333	-0.0781713	-0.0560417	0.00216633	0.00157353	0	0	0	
0.2765	0.0801349	0.0573114	0.00215991	0.00157879	0	0	0	
0.276667	-0.0819105	-0.0595335	0.00215338	0.00160082	0	0	0	
0.276833	0.080557	0.0594123	0.00211706	0.00161729	0	0	0	
0.277	-0.0813661	-0.0576039	0.0020833	0.00159594	0	0	0	
0.277167	0.0791494	0.0548491	0.00205074	0.00154795	0	0	0	
0.277333	-0.0801877	-0.0575454	0.00203596	0.00152659	0	0	0	
0.2775	0.0812307	0.0573272	0.00203634	0.0015329	0	0	0	
0.277667	-0.0808302	-0.0609336	0.0020392	0.00155791	0	0	0	
0.277833	0.0808245	0.0624093	0.0020368	0.00157568	0	0	0	
0.278	-0.0844583	-0.0608638	0.00203672	0.00158026	0	0	0	
0.278167	0.0892012	0.05958	0.0020673	0.00156723	0	0	0	
0.278333	-0.0872382	-0.0627377	0.00211624	0.00155906	0	0	0	
0.2785	0.082483	0.0584767	0.00217174	0.00156714	0	0	0	
0.278667	-0.0787367	-0.0569225	0.00219294	0.00159705	0	0	0	
0.278833	0.0772643	0.0564646	0.00213782	0.0016087	0	0	0	
0.279	-0.0817975	-0.0533092	0.00209007	0.00156172	0	0	0	
0.279167	0.0791657	0.0546249	0.00208192	0.00152462	0	0	0	
0.279333	-0.0714614	-0.0569996	0.00209101	0.0015075	0	0	0	
0.2795	0.0735482	0.0592821	0.00204538	0.00153757	0	0	0	
0.279667	-0.0845672	-0.065878	0.00198485	0.00157396	0	0	0	
0.279833	0.0879756	0.0669924	0.00197313	0.00161933	0	0	0	
0.28	-0.0894205	-0.0633585	0.00204769	0.00164774	0	0	0	
0.280167	0.087677	0.0637425	0.00213434	0.00166029	0	0	0	
0.280333	-0.0868742	-0.0628907	0.00219858	0.00163542	0	0	0	
0.2805	0.0841903	0.0622189	0.00221471	0.00161605	0	0	0	
0.280667	-0.0753772	-0.0622755	0.00219196	0.00159387	0	0	0	
0.280833	0.0657917	0.0581261	0.00212388	0.00157157	0	0	0	
0.281	-0.070019	-0.0535568	0.00201951	0.00152127	0	0	0	
0.281167	0.0783703	0.0548326	0.00192153	0.00145034	0	0	0	
0.281333	-0.084289	-0.0546895	0.00190763	0.00140077	0	0	0	
0.2815	0.0851545	0.0518116	0.00198985	0.00140873	0	0	0	
0.281667	-0.0765028	-0.0509933	0.00211195	0.00144267	0	0	0	
0.281833	0.0729682	0.0489599	0.00220364	0.00145806	0	0	0	
0.282	-0.0781621	-0.0481929	0.00221385	0.00145432	0	0	0	
0.282167	0.0801293	0.0528452	0.00217486	0.00147732	0	0	0	
0.282333	-0.078581	-0.0509041	0.00216062	0.00151079	0	0	0	
0.2825	0.0804185	0.0547793	0.00216764	0.00156165	0	0	0	
0.282667	-0.0827493	-0.0598604	0.00215773	0.0016212	0	0	0	
0.282833	0.0876492	0.0598661	0.00212577	0.00170644	0	0	0	
0.283	-0.0902631	-0.0631421	0.00209316	0.00175754	0	0	0	
0.283167	0.0945367	0.0724721	0.00211717	0.001754	0	0	0	
0.283333	-0.0932226	-0.0730829	0.00217593	0.00174745	0	0	0	
0.2835	0.0860412	0.0701651	0.0022199	0.00177715	0	0	0	
0.283667	-0.0769903	-0.0713252	0.00221427	0.00182304	0	0	0	
0.283833	0.0712832	0.068719	0.00212674	0.00184487	0	0	0	
0.284	-0.0722989	-0.0598097	0.00201984	0.00178222	0	0	0	
0.284167	0.079352	0.0589434	0.00193545	0.00165921	0	0	0	
0.284333	-0.0834501	-0.0630879	0.00193284	0.00152894	0	0	0	
0.2845	0.0850486	0.0646852	0.00198378	0.00148028	0	0	0	
0.284667	-0.0833818	-0.0660385	0.00208289	0.00150536	0	0	0	
0.284833	0.0719199	0.0649962	0.00213157	0.00156596	0	0	0	
0.285	-0.0677295	-0.0595725	0.00209296	0.00159391	0	0	0	
0.285167	0.081945	0.0576715	0.00196944	0.0015872	0	0	0	
0.285333	-0.0918073	-0.0581378	0.00192023	0.00153502	0	0	0	
0.2855	0.0870166	0.0598478	0.00200724	0.00152096	0	0	0	
0.285667	-0.0795226	-0.0617609	0.00212829	0.00153569	0	0	0	
0.285833	0.0780237	0.0636957	0.00213819	0.00158477	0	0	0	
0.286	-0.0779622	-0.0597675	0.00207572	0.00161174	0	0	0	
0.286167	0.0762969	0.057865	0.00202444	0.00160948	0	0	0	
0.286333	-0.0775838	-0.0604417	0.00203466	0.00157402	0	0	0	
0.2865	0.0753658	0.0649296	0.00203989	0.00155713	0	0	0	
0.286667	-0.073827	-0.067954	0.00201661	0.00157607	0	0	0	
0.286833	0.0826429	0.0666186	0.00198313	0.00161724	0	0	0	
0.287	-0.0868802	-0.0628728	0.00199808	0.00163538	0	0	0	
0.287167	0.0820724	0.0600846	0.00206225	0.00162612	0	0	0	
0.287333	-0.0805931	-0.054831	0.00213096	0.00158393	0	0	0	
0.2875	0.0802848	0.0575067	0.0021097	0.00154433	0	0	0	
0.287667	-0.0874837	-0.0611697	0.00209806	0.00151055	0	0	0	
0.287833	0.0800327	0.0614293	0.00211337	0.00149962	0	0	0	
0.288	-0.0733626	-0.0609096	0.00214381	0.00148721	0	0	0	
0.288167	0.0800081	0.0619359	0.00209817	0.00148841	0	0	0	
0.288333	-0.0846317	-0.0584032	0.00204613	0.00151178	0	0	0	
0.2885	0.0802112	0.0594074	0.00204844	0.00157164	0	0	0	
0.288667	-0.0793976	-0.0573826	0.00208234	0.00160805	0	0	0	
0.288833	0.0819692	0.0567747	0.00207249	0.00160204	0	0	0	
0.289	-0.0873188	-0.058592	0.00205764	0.00156729	0	0	0	
0.289167	0.0871638	0.0624243	0.00208402	0.00155614	0	0	0	
0.289333	-0.0809558	-0.0595849	0.0021301	0.00156404	0	0	0	
0.2895	0.0788488	0.065146	0.00213171	0.00159649	0	0	0	
0.289667	-0.0809053	-0.0674792	0.00207225	0.00163939	0	0	0	
0.289833	0.0836695	0.0639602	0.00201859	0.0016616	0	0	0	
0.29	-0.0840219	-0.0657626	0.00201929	0.00165338	0	0	0	
0.290167	0.0820509	0.0633896	0.00205356	0.00161651	0	0	0	
0.290333	-0.0829471	-0.0581659	0.00206999	0.00157818	0	0	0	
0.2905	0.0847912	0.0599996	0.00206957	0.00154948	0	0	0	
0.290667	-0.0828355	-0.0623356	0.002067	0.00153981	0	0	0	
0.290833	0.0824036	0.0596617	0.00206976	0.00155054	0	0	0	
0.291	-0.0835264	-0.0613629	0.00207138	0.00156655	0	0	0	
0.291167	0.0809476	0.0589278	0.00207153	0.00155565	0	0	0	
0.291333	-0.0789666	-0.0605912	0.0020673	0.00154601	0	0	0	
0.2915	0.0817913	0.0618529	0.0020446	0.00154351	0	0	0	
0.291667	-0.0838359	-0.0623926	0.00202462	0.00156038	0	0	0	
0.291833	0.0846888	0.0620902	0.00203716	0.00158338	0	0	0	
0.292	-0.0821995	-0.0634226	0.00206462	0.00159425	0	0	0	
0.292167	0.0826181	0.0594344	0.00206972	0.00158344	0	0	0	
0.292333	-0.0820916	-0.062727	0.00205321	0.00159215	0	0	0	
0.2925	0.0824105	0.0602399	0.00203963	0.00159384	0	0	0	
0.292667	-0.081621	-0.05919	0.00204417	0.00159563	0	0	0	
0.292833	0.0832023	0.0622777	0.00204786	0.00157857	0	0	0	
0.293	-0.0836094	-0.0657927	0.00205084	0.00157072	0	0	0	
0.293167	0.0837497	0.0672191	0.00205432	0.00158834	0	0	0	
0.293333	-0.0838825	-0.0694608	0.00206775	0.00162637	0	0	0	
0.2935	0.0843416	0.0660739	0.00209167	0.00166178	0	0	0	
0.293667	-0.0791403	-0.0632251	0.00210398	0.00166394	0	0	0	
0.293833	0.0785467	0.0627957	0.00209106	0.00163667	0	0	0	
0.294	-0.0804163	-0.0606877	0.002048	0.00158776	0	0	0	
0.294167	0.0842729	0.0615896	0.00201979	0.00155109	0	0	0	
0.294333	-0.0852117	-0.0654141	0.00202881	0.00153207	0	0	0	
0.2945	0.0851778	0.0645466	0.00205494	0.00153509	0	0	0	
0.294667	-0.084618	-0.0621827	0.0020679	0.00153912	0	0	0	
0.294833	0.0871385	0.0608469	0.00207756	0.00155137	0	0	0	
0.295	-0.0826271	-0.0563329	0.0020915	0.00152603	0	0	0	
0.295167	0.0794545	0.0607249	0.00209814	0.00151407	0	0	0	
0.295333	-0.08107	-0.0627713	0.00207008	0.00150629	0	0	0	
0.2955	0.0829349	0.0604165	0.0020338	0.00154055	0	0	0	
0.295667	-0.0822754	-0.0585207	0.00201719	0.00155625	0	0	0	
0.295833	0.084642	0.0600188	0.0020207	0.00155975	0	0	0	
0.296	-0.0879258	-0.0566209	0.00202559	0.00155148	0	0	0	
0.296167	0.0887338	0.0592119	0.00201774	0.0015845	0	0	0	
0.296333	-0.092983	-0.0618338	0.00204946	0.00158785	0	0	0	
0.2965	0.0884529	0.0692963	0.00212771	0.00161409	0	0	0	
0.296667	-0.0755519	-0.0633758	0.0021933	0.00161523	0	0	0	
0.296833	0.0660253	0.0597224	0.00214387	0.0016144	0	0	0	
0.297	-0.0622492	-0.0646015	0.0019443	0.00159632	0	0	0	
0.297167	0.0759679	0.0660116	0.00178925	0.00156501	0	0	0	
0.297333	-0.088386	-0.0681659	0.00175124	0.00156935	0	0	0	
0.2975	0.0944186	0.0663818	0.00189994	0.00158906	0	0	0	
0.297667	-0.0872341	-0.0573091	0.0020762	0.00158478	0	0	0	
0.297833	0.0790381	0.0590602	0.00221846	0.00156065	0	0	0	
0.298	-0.0770042	-0.0585187	0.00226732	0.00154486	0	0	0	
0.298167	0.0812442	0.0508059	0.00222976	0.00153956	0	0	0	
0.298333	-0.0800291	-0.0548916	0.002122	0.00153036	0	0	0	
0.2985	0.0877782	0.0572332	0.00203667	0.00146994	0	0	0	
0.298667	-0.0945261	-0.0608025	0.00205849	0.00144571	0	0	0	
0.298833	0.0924729	0.064979	0.00218441	0.0015001	0	0	0	
0.299	-0.0872303	-0.0631108	0.00229667	0.00158286	0	0	0	
0.299167	0.0773774	0.0685916	0.00221899	0.00167374	0	0	0	
0.299333	-0.0833089	-0.0656729	0.00209491	0.00169398	0	0	0	
0.2995	0.0828195	0.0587384	0.00198862	0.00168031	0	0	0	
0.299667	-0.0898298	-0.0602647	0.00204358	0.00163619	0	0	0	
0.299833	0.0842878	0.062123	0.00210276	0.00159807	0	0	0	
0.3	-0.0810648	-0.065716	0.00213112	0.00158642	0	0	0	
0.300167	0.0788305	0.0685593	0.00208061	0.00162107	0	0	0	
0.300333	-0.0808128	-0.0623952	0.00201729	0.00162484	0	0	0	
0.3005	0.0849523	0.062997	0.0019973	0.0016342	0	0	0	
0.300667	-0.0898254	-0.0615586	0.00204336	0.00160226	0	0	0	
0.300833	0.0819209	0.0603964	0.00209107	0.00157266	0	0	0	
0.301	-0.0795032	-0.0636277	0.00209631	0.00155501	0	0	0	
0.301167	0.074401	0.0616374	0.00205539	0.00155016	0	0	0	
0.301333	-0.076893	-0.0582457	0.00199331	0.00154525	0	0	0	
0.3015	0.0890164	0.0622542	0.00196822	0.00153824	0	0	0	
0.301667	-0.0956394	-0.0591852	0.00200769	0.00151734	0	0	0	
0.301833	0.0896535	0.0560745	0.00207845	0.00150672	0	0	0	
0.302	-0.0877716	-0.0620876	0.00213063	0.00151552	0	0	0	
0.302167	0.0826111	0.0635222	0.00215082	0.001549	0	0	0	
0.302333	-0.0781359	-0.0599268	0.00214807	0.00158435	0	0	0	
0.3025	0.0761807	0.0604733	0.00210969	0.0016067	0	0	0	
0.302667	-0.0770996	-0.0561116	0.0020173	0.00158771	0	0	0	
0.302833	0.0778621	0.0565863	0.00192929	0.00155838	0	0	0	
0.303	-0.083919	-0.0632387	0.00189066	0.00153567	0	0	0	
0.303167	0.0871658	0.0633424	0.00192811	0.00153917	0	0	0	
0.303333	-0.085046	-0.0623616	0.00201732	0.00154627	0	0	0	
0.3035	0.0833745	0.0661046	0.00208725	0.00156882	0	0	0	
0.303667	-0.0858769	-0.0609095	0.00209303	0.00157245	0	0	0	
0.303833	0.0902627	0.0612445	0.00208279	0.00158399	0	0	0	
0.304	-0.0849825	-0.0609286	0.00210029	0.00155573	0	0	0	
0.304167	0.0781564	0.0587444	0.00213215	0.00152126	0	0	0	
0.304333	-0.0780301	-0.0611702	0.00211622	0.00150538	0	0	0	
0.3045	0.0815019	0.0636153	0.0020614	0.0015175	0	0	0	
0.304667	-0.081307	-0.0584161	0.00201562	0.00153364	0	0	0	
0.304833	0.0836803	0.0623393	0.00200108	0.00156182	0	0	0	
0.305	-0.0858337	-0.059479	0.00200021	0.00154266	0	0	0	
0.305167	0.0892731	0.059927	0.00203417	0.00152135	0	0	0	
0.305333	-0.0849659	-0.063394	0.00208545	0.00149207	0	0	0	
0.3055	0.0829205	0.0634583	0.00212078	0.00149262	0	0	0	
0.305667	-0.0839334	-0.0645271	0.00210618	0.00153285	0	0	0	
0.305833	0.0859935	0.0677921	0.00208278	0.00159397	0	0	0	
0.306	-0.0818789	-0.0606328	0.00206861	0.00159816	0	0	0	
0.306167	0.0842183	0.0572867	0.00208803	0.00154887	0	0	0	
0.306333	-0.0816097	-0.0570031	0.00209469	0.0014578	0	0	0	
0.3065	0.0798179	0.0576719	0.00209538	0.00141466	0	0	0	
0.306667	-0.0774916	-0.0628356	0.00205839	0.00143183	0	0	0	
0.306833	0.0804877	0.0622689	0.00201154	0.00147587	0	0	0	
0.307	-0.0833356	-0.0593082	0.00197504	0.0015026	0	0	0	
0.307167	0.0884107	0.0621867	0.00198827	0.0015259	0	0	0	
0.307333	-0.0872588	-0.0622099	0.00203443	0.00152386	0	0	0	
0.3075	0.0877693	0.0607551	0.00209672	0.00153562	0	0	0	
0.307667	-0.0848298	-0.0622479	0.00212728	0.00153641	0	0	0	
0.307833	0.0829853	0.0604748	0.00212934	0.00155248	0	0	0	
0.308	-0.0811653	-0.0646624	0.00210303	0.00157161	0	0	0	
0.308167	0.0820914	0.0668481	0.0020641	0.00159381	0	0	0	
0.308333	-0.0842341	-0.0624065	0.00204214	0.00157835	0	0	0	
0.3085	0.0877781	0.0632879	0.0020534	0.00156675	0	0	0	
0.308667	-0.0833325	-0.0646794	0.00207999	0.00154883	0	0	0	
0.308833	0.0810333	0.065762	0.00208767	0.00156146	0	0	0	
0.309	-0.0799484	-0.0672177	0.002059	0.00157981	0	0	0	
0.309167	0.0834308	0.0619484	0.00202643	0.00157217	0	0	0	
0.309333	-0.087971	-0.0670997	0.00201977	0.00157604	0	0	0	
0.3095	0.0925102	0.068985	0.00204541	0.00158982	0	0	0	
0.309667	-0.091813	-0.0608754	0.00209784	0.00159981	0	0	0	
0.309833	0.0886588	0.0562603	0.00215846	0.00158097	0	0	0	
0.31	-0.0843946	-0.0584825	0.0021822	0.00152512	0	0	0	
0.310167	0.0842251	0.060988	0.00216275	0.00148091	0	0	0	
0.310333	-0.0825814	-0.0640902	0.00211529	0.00150355	0	0	0	
0.3105	0.0817423	0.0603593	0.00206207	0.00153299	0	0	0	
0.310667	-0.0843996	-0.0640322	0.00202287	0.00155435	0	0	0	
0.310833	0.0853203	0.0640774	0.00200071	0.00155262	0	0	0	
0.311	-0.0841782	-0.0621393	0.00202596	0.00156778	0	0	0	
0.311167	0.081454	0.0638037	0.00204747	0.00160847	0	0	0	
0.311333	-0.0826233	-0.0649189	0.00204909	0.00163084	0	0	0	
0.3115	0.0861446	0.0657196	0.0020175	0.00165635	0	0	0	
0.311667	-0.0891745	-0.0648304	0.00201942	0.00166604	0	0	0	
0.311833	0.0857336	0.0601488	0.00204567	0.00162884	0	0	0	
0.312	-0.0841118	-0.0610622	0.00208676	0.00155564	0	0	0	
0.312167	0.0877025	0.0657009	0.00208969	0.00151612	0	0	0	
0.312333	-0.0868394	-0.0656769	0.00209886	0.00151942	0	0	0	
0.3125	0.0754914	0.0682833	0.00210661	0.00157953	0	0	0	
0.312667	-0.0719032	-0.0640483	0.00208518	0.0016061	0	0	0	
0.312833	0.0799852	0.0601714	0.00200284	0.00159241	0	0	0	
0.313	-0.0876158	-0.0577098	0.00195023	0.00153275	0	0	0	
0.313167	0.0869024	0.0593804	0.0019885	0.00148363	0	0	0	
0.313333	-0.0867447	-0.064044	0.00207524	0.00149738	0	0	0	
0.3135	0.0876255	0.0651713	0.00211663	0.00154073	0	0	0	
0.313667	-0.088786	-0.0606124	0.00213862	0.00156674	0	0	0	
0.313833	0.0822089	0.0585081	0.0021489	0.0015425	0	0	0	
0.314	-0.0766605	-0.0576866	0.00212145	0.0015079	0	0	0	
0.314167	0.0813028	0.0560836	0.00203785	0.0014766	0	0	0	
0.314333	-0.0884098	-0.0582231	0.00198249	0.00148043	0	0	0	
0.3145	0.0884365	0.0580543	0.00198569	0.00145568	0	0	0	
0.314667	-0.0873698	-0.0601576	0.00205813	0.00146102	0	0	0	
0.314833	0.0791023	0.0618277	0.00211199	0.00149094	0	0	0	
0.315	-0.0737646	-0.059775	0.00211179	0.00156517	0	0	0	
0.315167	0.0828989	0.058614	0.0020414	0.00158786	0	0	0	
0.315333	-0.0882901	-0.0584734	0.00200012	0.00156905	0	0	0	
0.3155	0.0839967	0.0638227	0.00203046	0.00156334	0	0	0	
0.315667	-0.0789889	-0.0637157	0.00208268	0.00158131	0	0	0	
0.315833	0.0803238	0.0691572	0.0020722	0.0016065	0	0	0	
0.316	-0.0825274	-0.06832	0.00204417	0.00163001	0	0	0	
0.316167	0.0829993	0.0614145	0.0020105	0.00163417	0	0	0	
0.316333	-0.0880432	-0.0571953	0.00200876	0.001606	0	0	0	
0.3165	0.0913338	0.0635077	0.00203796	0.0015679	0	0	0	
0.316667	-0.0870432	-0.0562901	0.00210113	0.00150647	0	0	0	
0.316833	0.0825282	0.063361	0.00215227	0.00149952	0	0	0	
0.317	-0.0789601	-0.0653961	0.00215217	0.00151775	0	0	0	
0.317167	0.0755865	0.0606649	0.0020976	0.00157476	0	0	0	
0.317333	-0.080825	-0.0612424	0.00203025	0.00161742	0	0	0	
0.3175	0.0876021	0.0641388	0.00197898	0.00162918	0	0	0	
0.317667	-0.0895578	-0.0599324	0.0019946	0.0016132	0	0	0	
0.317833	0.0835522	0.0681339	0.00205177	0.00161623	0	0	0	
0.318	-0.0785026	-0.068564	0.00208178	0.00161667	0	0	0	
0.318167	0.081972	0.0648626	0.00205573	0.0016239	0	0	0	
0.318333	-0.0866571	-0.0669758	0.0020099	0.00161763	0	0	0	
0.3185	0.0868385	0.0664442	0.00200661	0.00160128	0	0	0	
0.318667	-0.0848219	-0.061936	0.00204766	0.00159133	0	0	0	
0.318833	0.0819151	0.0615779	0.002088	0.00156129	0	0	0	
0.319	-0.0798182	-0.0590914	0.00209617	0.00153022	0	0	0	
0.319167	0.0807635	0.0549371	0.00207442	0.0015108	0	0	0	
0.319333	-0.0821394	-0.0570125	0.00203927	0.0014979	0	0	0	
0.3195	0.0849063	0.0612556	0.00203166	0.00151193	0	0	0	
0.319667	-0.0842781	-0.058561	0.00203626	0.00152944	0	0	0	
0.319833	0.083378	0.0618591	0.00205451	0.00155568	0	0	0	
0.32	-0.0813702	-0.0640376	0.00206162	0.00157432	0	0	0	
0.320167	0.0810943	0.0625364	0.00204911	0.00160185	0	0	0	
0.320333	-0.0827235	-0.0609676	0.00202438	0.00161231	0	0	0	
0.3205	0.0832037	0.0651547	0.00200525	0.00162098	0	0	0	
0.320667	-0.083514	-0.0609568	0.00199854	0.0016049	0	0	0	
0.320833	0.0899757	0.0661342	0.00202018	0.00161296	0	0	0	
0.321	-0.0905699	-0.0657417	0.00206117	0.00161074	0	0	0	
0.321167	0.0865427	0.0582081	0.00211888	0.00159752	0	0	0	
0.321333	-0.0807482	-0.0600521	0.00215192	0.00156722	0	0	0	
0.3215	0.0781633	0.0633339	0.00213891	0.00154141	0	0	0	
0.321667	-0.0742484	-0.0596703	0.00209028	0.00153774	0	0	0	
0.321833	0.0746922	0.0621284	0.00202267	0.00154984	0	0	0	
0.322	-0.0784077	-0.0629427	0.00194829	0.00155806	0	0	0	
0.322167	0.0858664	0.0585858	0.00191883	0.00155996	0	0	0	
0.322333	-0.0865075	-0.0629762	0.00195765	0.00155936	0	0	0	
0.3225	0.0846805	0.0616347	0.00203707	0.00154935	0	0	0	
0.322667	-0.0805677	-0.0578382	0.00208682	0.00153715	0	0	0	
0.322833	0.0814812	0.0595028	0.00208842	0.00152696	0	0	0	
0.323	-0.0803231	-0.0608937	0.00206382	0.00151081	0	0	0	
0.323167	0.0803957	0.0645773	0.00204191	0.00153071	0	0	0	
0.323333	-0.0779001	-0.0671071	0.002006	0.00157514	0	0	0	
0.3235	0.0810403	0.0594478	0.00196434	0.00159056	0	0	0	
0.323667	-0.0875965	-0.0561295	0.001946	0.00156378	0	0	0	
0.323833	0.0902828	0.0546132	0.00197947	0.00149374	0	0	0	
0.324	-0.0853571	-0.0605846	0.00202944	0.00149393	0	0	0	
0.324167	0.0871428	0.0640239	0.0020659	0.00154713	0	0	0	
0.324333	-0.0888676	-0.061417	0.0020787	0.00157875	0	0	0	
0.3245	0.0757071	0.0591479	0.00202967	0.0015166	0	0	0	
0.324667	-0.0744371	-0.0577873	0.00201386	0.00145342	0	0	0	
0.324833	0.0715174	0.0517164	0.00196222	0.00142115	0	0	0	
0.325	-0.0708268	-0.0566259	0.00195372	0.00147032	0	0	0	
0.325167	0.0762558	0.0630524	0.00193859	0.00150178	0	0	0	
0.325333	-0.0696511	-0.0596545	0.00191721	0.00152155	0	0	0	
0.3255	0.0666417	0.0524311	0.0018403	0.00150028	0	0	0	
0.325667	-0.0861909	-0.052801	0.00181385	0.00149239	0	0	0	
0.325833	0.0920523	0.0568463	0.00185961	0.00150584	0	0	0	
0.326	-0.0913587	-0.0543708	0.0020259	0.00155073	0	0	0	
0.326167	0.0909581	0.0588197	0.00210605	0.00158534	0	0	0	
0.326333	-0.0813298	-0.0608175	0.00214904	0.00159434	0	0	0	
0.3265	0.0770675	0.0577087	0.00214307	0.00155425	0	0	0	
0.326667	-0.0738253	-0.0584983	0.00209363	0.00150728	0	0	0	
0.326833	0.0793697	0.0606488	0.00201517	0.00149689	0	0	0	
0.327	-0.0835455	-0.0585681	0.00196567	0.00152918	0	0	0	
0.327167	0.0831607	0.0616913	0.00198573	0.00157994	0	0	0	
0.327333	-0.0817378	-0.0599223	0.00207144	0.00159892	0	0	0	
0.3275	0.0800843	0.0556005	0.0021321	0.00159274	0	0	0	
0.327667	-0.075867	-0.0519463	0.00213673	0.00156303	0	0	0	
0.327833	0.0792478	0.0542288	0.00207078	0.00155502	0	0	0	
0.328	-0.0847325	-0.0612603	0.00200868	0.00158387	0	0	0	
0.328167	0.0854148	0.0657829	0.00200586	0.00162941	0	0	0	
0.328333	-0.0837974	-0.0675077	0.00204597	0.00166807	0	0	0	
0.3285	0.0874419	0.063405	0.0020858	0.00168617	0	0	0	
0.328667	-0.0903879	-0.0615905	0.00211415	0.00168739	0	0	0	
0.328833	0.0861588	0.0647001	0.00215283	0.00169891	0	0	0	
0.329	-0.0788566	-0.0671612	0.00216995	0.00170462	0	0	0	
0.329167	0.0812361	0.0650256	0.00213275	0.00167328	0	0	0	
0.329333	-0.0830703	-0.0650545	0.00209058	0.0015867	0	0	0	
0.3295	0.0762342	0.0612229	0.00207483	0.00149667	0	0	0	
0.329667	-0.074849	-0.0653333	0.00205443	0.00148516	0	0	0	
0.329833	0.0877079	0.0673771	0.00200248	0.00155369	0	0	0	
0.33	-0.0920385	-0.0602341	0.00199075	0.00161427	0	0	0	
0.330167	0.085792	0.0501764	0.00206093	0.00158403	0	0	0	
0.330333	-0.0817233	-0.0500942	0.00215118	0.00149265	0	0	0	
0.3305	0.079818	0.0519755	0.00216066	0.00144073	0	0	0	
0.330667	-0.0766179	-0.0549188	0.00211891	0.00147345	0	0	0	
0.330833	0.0768993	0.059097	0.00204369	0.00153941	0	0	0	
0.331	-0.0814163	-0.0646076	0.00198726	0.00160899	0	0	0	
0.331167	0.0842228	0.0672319	0.00196496	0.00167017	0	0	0	
0.331333	-0.0849457	-0.062962	0.00201475	0.0016991	0	0	0	
0.3315	0.0816175	0.060384	0.00207161	0.00168228	0	0	0	
0.331667	-0.0813682	-0.0600808	0.00210274	0.00164161	0	0	0	
0.331833	0.0814754	0.0651135	0.00209866	0.00164733	0	0	0	
0.332	-0.0783001	-0.0679025	0.00208617	0.00168269	0	0	0	
0.332167	0.0751558	0.0664264	0.00205348	0.00168797	0	0	0	
0.332333	-0.0774883	-0.0587611	0.00201343	0.00161586	0	0	0	
0.3325	0.0785306	0.0564679	0.0019982	0.00153787	0	0	0	
0.332667	-0.0815153	-0.0567964	0.00201847	0.00150217	0	0	0	
0.332833	0.0820979	0.0632524	0.00204091	0.00154134	0	0	0	
0.333	-0.0796524	-0.0626095	0.00204285	0.00157891	0	0	0	
0.333167	0.0776352	0.0565112	0.00202389	0.0015771	0	0	0	
0.333333	-0.0810118	-0.051707	0.00201942	0.00151808	0	0	0	
0.3335	0.0864299	0.0506912	0.00205164	0.00145822	0	0	0	
0.333667	-0.0898474	-0.0487496	0.00213337	0.00143762	0	0	0	
0.333833	0.0857209	0.0488017	0.00221169	0.00145709	0	0	0	
0.334	-0.0782046	-0.0496816	0.00224812	0.0014741	0	0	0	
0.334167	0.069472	0.0489071	0.0021856	0.00147128	0	0	0	
0.334333	-0.0739699	-0.0481392	0.00207954	0.0014585	0	0	0	
0.3345	0.0810627	0.0484855	0.0019754	0.00145962	0	0	0	
0.334667	-0.0905029	-0.0510839	0.00197109	0.00148894	0	0	0	
0.334833	0.0921725	0.0571626	0.00202364	0.00155744	0	0	0	
0.335	-0.0886045	-0.0599102	0.00212431	0.0016387	0	0	0	
0.335167	0.0771454	0.0598619	0.0021726	0.00170503	0	0	0	
0.335333	-0.0743121	-0.0574859	0.00216741	0.00171421	0	0	0	
0.3355	0.0773227	0.0583203	0.00210065	0.0016949	0	0	0	
0.335667	-0.0846307	-0.0602701	0.00204888	0.00167272	0	0	0	
0.335833	0.0840244	0.0668822	0.00203969	0.00168713	0	0	0	
0.336	-0.0802255	-0.0675277	0.0020761	0.00170148	0	0	0	
0.336167	0.0762117	0.0655734	0.00208871	0.00172458	0	0	0	
0.336333	-0.0800818	-0.0621622	0.00206272	0.0017249	0	0	0	
0.3365	0.0858159	0.0620495	0.00204283	0.00172523	0	0	0	
0.336667	-0.0834038	-0.0573015	0.00206934	0.00168701	0	0	0	
0.336833	0.0760913	0.0582589	0.00210139	0.00162776	0	0	0	
0.337	-0.0743468	-0.0579135	0.00209186	0.00153686	0	0	0	
0.337167	0.0709666	0.0606753	0.00206589	0.0014815	0	0	0	
0.337333	-0.0609172	-0.0635731	0.00201852	0.00149528	0	0	0	
0.3375	0.066189	0.0638525	0.00193994	0.00157032	0	0	0	
0.337667	-0.0839865	-0.0600351	0.00187534	0.00163897	0	0	0	
0.337833	0.089501	0.0582219	0.00190843	0.00167429	0	0	0	
0.338	-0.085348	-0.0544491	0.00204249	0.00165818	0	0	0	
0.338167	0.0793571	0.0600839	0.00214409	0.00163355	0	0	0	
0.338333	-0.0782301	-0.0631806	0.00214569	0.00163195	0	0	0	
0.3385	0.0831664	0.0628264	0.00212991	0.00167709	0	0	0	
0.338667	-0.0791286	-0.0658008	0.00213757	0.00173038	0	0	0	
0.338833	0.0734713	0.0692751	0.00214591	0.00174567	0	0	0	
0.339	-0.0753663	-0.064841	0.00208781	0.00172456	0	0	0	
0.339167	0.0749794	0.0652826	0.00201097	0.00168894	0	0	0	
