0	0.00129809	-0.00156125	1.29809E-07	1.56125E-07	0	0	0	
0.000166667	0.00191536	0.0121601	5.64463E-05	0.000128291	0	0	0	
0.000333333	-0.00731423	-0.0126087	0.000111426	0.000273613	0	0	0	
0.0005	0.00429937	0.0016217	0.00014525	0.000322024	0	0	0	
0.000666667	-0.000147342	0.00793775	0.000129377	0.000281985	0	0	0	
0.000833333	0.000575	-0.00399264	0.000120555	0.000166085	0	0	0	
0.001	-0.00854375	-0.00405677	0.000160874	0.000267135	0	0	0	
0.00116667	-0.000881751	-0.00296425	0.000196013	0.000283954	0	0	0	
0.00133333	0.00908434	0.0265942	0.000205567	0.000379603	0	0	0	
0.0015	-0.00435473	-0.0182257	0.000175424	0.000374401	0	0	0	
0.00166667	-0.00486882	-0.00805261	0.000117982	0.000349347	0	0	0	
0.00183333	0.00493094	0.010223	9.49227E-05	0.000314005	0	0	0	
0.002	-0.00902321	0.00818535	0.000100831	0.00022375	0	0	0	
0.00216667	0.00925223	-0.00743454	0.000147977	0.00023845	0	0	0	
0.00233333	-0.00898438	-0.0086378	0.000167534	0.000182922	0	0	0	
0.0025	0.00993741	0.00927128	0.000188999	0.000260347	0	0	0	
0.00266667	-0.00767891	0.0149887	0.000191718	0.000343096	0	0	0	
0.00283333	0.00963714	-0.0384194	0.000226318	0.000474795	0	0	0	
0.003	-0.0170764	0.0420058	0.000289096	0.000611012	0	0	0	
0.00316667	0.017275	-0.0233677	0.000362466	0.000646473	0	0	0	
0.00333333	-0.0136355	0.00639004	0.000373426	0.000573584	0	0	0	
0.0035	0.0136198	-0.00363995	0.000333131	0.000340102	0	0	0	
0.00366667	-0.00939465	0.0100997	0.000272379	0.000164301	0	0	0	
0.00383333	0.0106602	-0.0118947	0.000245638	0.00016671	0	0	0	
0.004	-0.0168074	0.000642125	0.00025516	0.000239268	0	0	0	
0.00416667	0.0122717	0.0121805	0.000302553	0.000367586	0	0	0	
0.00433333	-0.00750747	-0.00284408	0.0003119	0.000426976	0	0	0	
0.0045	0.00749351	-0.00321658	0.000261353	0.00042764	0	0	0	
0.00466667	-0.00096746	0.00943116	0.000169383	0.000342104	0	0	0	
0.00483333	-0.00363811	-0.0137574	0.00010559	0.000291772	0	0	0	
0.005	0.00119534	0.00783124	6.79275E-05	0.000246027	0	0	0	
0.00516667	0.000646029	0.00434897	7.05297E-05	0.000226309	0	0	0	
0.00533333	-0.00390526	-0.000279475	8.18746E-05	0.000138198	0	0	0	
0.0055	0.00614311	-0.00371521	0.000101057	0.000166046	0	0	0	
0.00566667	-0.00443555	0.00502447	0.000107971	0.000173514	0	0	0	
0.00583333	-0.00288587	-0.0144626	0.000103059	0.000206617	0	0	0	
0.006	0.004799	0.0154634	0.000107475	0.000213187	0	0	0	
0.00616667	-0.00481113	-0.0104531	0.00011176	0.000243061	0	0	0	
0.00633333	0.00148846	-0.000748747	0.00012175	0.000259867	0	0	0	
0.0065	0.00103497	-0.00394962	8.75225E-05	0.000214415	0	0	0	
0.00666667	-0.00379348	0.00532593	5.62971E-05	0.000163898	0	0	0	
0.00683333	0.000815238	-0.00928324	7.20582E-05	0.000141006	0	0	0	
0.007	-0.00310404	0.00601851	0.000128744	0.00016704	0	0	0	
0.00716667	0.00596601	-0.00895926	0.000152934	0.000269039	0	0	0	
0.00733333	-0.00744809	-0.00147186	0.000155976	0.000349931	0	0	0	
0.0075	0.00377738	-0.00349361	0.00015009	0.000320769	0	0	0	
0.00766667	-0.00438798	0.00167495	0.000173866	0.000206923	0	0	0	
0.00783333	0.0036806	-0.00583381	0.000160169	0.000100012	0	0	0	
0.008	-0.00189148	0.0141213	0.000129636	0.000137523	0	0	0	
0.00816667	0.000494629	-0.0185993	6.79133E-05	0.000224395	0	0	0	
0.00833333	-0.00290323	0.0112901	4.23216E-05	0.000319107	0	0	0	
0.0085	0.00544286	-0.000844735	3.97226E-05	0.000267199	0	0	0	
0.00866667	-0.00674396	-0.00317058	7.99347E-05	0.000168723	0	0	0	
0.00883333	0.000282125	-0.0118651	0.000109309	9.41471E-05	0	0	0	
0.009	0.0034017	0.0169476	0.000111907	0.0001662	0	0	0	
0.00916667	-0.000648796	-0.000395979	8.68681E-05	0.000198815	0	0	0	
0.00933333	-0.00366905	-0.00997793	6.09842E-05	0.000210552	0	0	0	
0.0095	0.00577238	0.00331609	7.26235E-05	0.000166525	0	0	0	
0.00966667	-0.00607302	0.00259342	9.64679E-05	0.000175399	0	0	0	
0.00983333	0.00291275	-0.00225557	0.00011815	0.000219293	0	0	0	
0.01	0.0032764	0.0062021	0.000103831	0.00023592	0	0	0	
0.0101667	-0.00267451	-0.0102879	8.77604E-05	0.000242113	0	0	0	
0.0103333	0.000639745	0.00680054	6.46094E-05	0.000197645	0	0	0	
0.0105	0.00303943	-0.00674861	5.64143E-05	0.00017196	0	0	0	
0.0106667	-0.00410583	0.00523194	6.19488E-05	0.000153187	0	0	0	
0.0108333	0.00178041	-0.00951823	7.71831E-05	0.000175155	0	0	0	
0.011	0.00247559	0.0170106	7.77225E-05	0.000207395	0	0	0	
0.0111667	0.000425664	-0.00720697	8.0548E-05	0.000274111	0	0	0	
0.0113333	-0.00127002	0.000729944	7.84559E-05	0.000261623	0	0	0	
0.0115	0.0023979	0.00443886	8.51875E-05	0.000221881	0	0	0	
0.0116667	-0.00212533	-0.00179831	6.30616E-05	0.00014378	0	0	0	
0.0118333	0.00205721	-0.00306702	5.78252E-05	0.00012651	0	0	0	
0.012	-0.000650198	0.00273284	6.97336E-05	0.000137202	0	0	0	
0.0121667	4.21506E-05	-0.00449751	8.7895E-05	0.000137418	0	0	0	
0.0123333	0.000949483	0.00692554	8.97001E-05	0.000138159	0	0	0	
0.0125	0.00216745	0.00448158	6.35322E-05	0.000123249	0	0	0	
0.0126667	-0.00237946	-0.00258215	4.69072E-05	0.000135623	0	0	0	
0.0128333	-0.000245548	0.00294981	3.2189E-05	0.000137695	0	0	0	
0.013	0.00599919	-0.000922662	4.78073E-05	0.000112301	0	0	0	
0.0131667	-0.00511325	-0.0069292	8.18912E-05	0.000146067	0	0	0	
0.0133333	-0.00254722	0.00102128	0.000116025	0.00020172	0	0	0	
0.0135	0.000772706	-0.00105415	0.000120245	0.000204052	0	0	0	
0.0136667	0.00538778	0.00430758	9.03864E-05	0.000157246	0	0	0	
0.0138333	-0.00453635	-0.00409817	9.41276E-05	0.00010107	0	0	0	
0.014	0.00214914	0.00457987	0.000105253	0.000137497	0	0	0	
0.0141667	0.0030296	-0.0029427	0.000119069	0.000134439	0	0	0	
0.0143333	-0.00773998	-0.00498527	0.000127271	0.000112866	0	0	0	
0.0145	0.00185407	0.00505357	0.0001245	0.000102241	0	0	0	
0.0146667	-0.00187744	-0.00158338	0.000130888	8.58635E-05	0	0	0	
0.0148333	0.0043593	0.00328081	0.000128809	0.000103674	0	0	0	
0.015	-0.00393205	-0.00439112	0.000144485	0.000114163	0	0	0	
0.0151667	0.00186691	-0.00120258	0.000127317	0.000133608	0	0	0	
0.0153333	-0.00328308	-0.000910937	9.99718E-05	0.000126251	0	0	0	
0.0155	0.00218098	-0.00464241	6.66419E-05	8.77481E-05	0	0	0	
0.0156667	-0.000377246	0.010576	5.39607E-05	9.85735E-05	0	0	0	
0.0158333	-0.00220369	0.0002622	3.54975E-05	0.000108073	0	0	0	
0.016	0.00282909	-0.000874648	3.7327E-05	0.000109069	0	0	0	
0.0161667	-0.00115252	-0.00482709	4.88735E-05	7.30615E-05	0	0	0	
0.0163333	-0.00391052	0.00515269	6.14835E-05	8.21184E-05	0	0	0	
0.0165	0.0044592	-0.00821343	9.25708E-05	0.000122543	0	0	0	
0.0166667	-0.0047408	0.0124904	0.000150993	0.000212389	0	0	0	
0.0168333	0.00728748	-0.0109288	0.000186817	0.000237075	0	0	0	
0.017	-0.00796021	0.0241375	0.000204423	0.000304602	0	0	0	
0.0171667	0.0029944	-0.0278168	0.000153534	0.000390873	0	0	0	
0.0173333	0.00260137	0.021957	0.000119685	0.000481607	0	0	0	
0.0175	0.00484949	0.00919575	0.000131991	0.00054344	0	0	0	
0.0176667	-0.01196	-0.0233601	0.000203771	0.00052794	0	0	0	
0.0178333	0.00192914	0.0128301	0.000236957	0.000466276	0	0	0	
0.018	0.00770158	0.0173413	0.000193022	0.000469734	0	0	0	
0.0181667	-0.00151083	-0.0169126	0.000153579	0.000452477	0	0	0	
0.0183333	-0.00175469	-0.00348653	0.000142073	0.000387807	0	0	0	
0.0185	-0.00324803	0.00952459	0.000120713	0.000263073	0	0	0	
0.0186667	0.00610512	0.0122088	0.000104762	0.000280883	0	0	0	
0.0188333	0.00386543	-0.0140787	8.3922E-05	0.00037376	0	0	0	
0.019	-0.0094894	0.00304866	0.000123006	0.000355274	0	0	0	
0.0191667	0.00342783	-0.00837677	0.000117869	0.000212944	0	0	0	
0.0193333	0.00456158	0.0234056	0.00011024	0.000186893	0	0	0	
0.0195	-0.0036994	-0.0212352	8.99556E-05	0.000283793	0	0	0	
0.0196667	-0.00112064	-0.00452219	7.76924E-05	0.000418025	0	0	0	
0.0198333	0.00703701	0.0271034	8.79034E-05	0.00046243	0	0	0	
0.02	-0.00501125	-0.0272888	0.000104336	0.00048153	0	0	0	
0.0201667	0.00421043	0.0028435	0.00011409	0.000511587	0	0	0	
0.0203333	-0.00425346	0.0262244	0.000118648	0.000670473	0	0	0	
0.0205	0.00252605	-0.0457509	8.88412E-05	0.000843124	0	0	0	
0.0206667	0.00166642	0.0513283	8.30252E-05	0.000936367	0	0	0	
0.0208333	-0.007062	-0.0280656	9.65478E-05	0.000879163	0	0	0	
0.021	0.00721141	-0.0058599	0.000124473	0.000860348	0	0	0	
0.0211667	-0.000679578	0.0320258	0.00011558	0.00087103	0	0	0	
0.0213333	-0.0030366	-0.034084	9.70563E-05	0.000826946	0	0	0	
0.0215	0.00141046	0.0225928	7.97795E-05	0.000699772	0	0	0	
0.0216667	-0.00177341	0.0001889	6.51011E-05	0.000648682	0	0	0	
0.0218333	0.0048683	-0.0104242	0.000101562	0.000648745	0	0	0	
0.022	-0.00771159	0.0177212	0.000215462	0.000556882	0	0	0	
0.0221667	0.00159087	-0.0165611	0.000343858	0.000406602	0	0	0	
0.0223333	0.00116971	0.0083	0.000319909	0.000366852	0	0	0	
0.0225	0.00667441	0.0115423	0.000204238	0.000368303	0	0	0	
0.0226667	-0.0131236	-0.00453139	0.000130753	0.000351769	0	0	0	
0.0228333	0.00773026	-0.0129859	0.000165419	0.000320505	0	0	0	
0.023	-0.0082785	0.00862567	0.000197476	0.000288211	0	0	0	
0.0231667	0.00546892	-0.00253685	0.000192164	0.000290422	0	0	0	
0.0233333	0.00157144	0.00209333	0.000149909	0.00019756	0	0	0	
0.0235	-0.00417421	-0.0102927	0.000116317	0.000201481	0	0	0	
0.0236667	0.000496234	0.00738142	8.53778E-05	0.000262312	0	0	0	
0.0238333	0.00199375	0.0161267	7.93765E-05	0.000380246	0	0	0	
0.024	-0.00243308	-0.0206049	6.41371E-05	0.000450526	0	0	0	
0.0241667	-0.000116926	0.00727498	6.77979E-05	0.000414585	0	0	0	
0.0243333	-0.00042131	0.00117999	7.67421E-05	0.000292617	0	0	0	
0.0245	-0.00300837	0.00407078	7.90968E-05	0.000180506	0	0	0	
0.0246667	-0.000627813	-0.014408	7.69924E-05	0.000137415	0	0	0	
0.0248333	0.00594208	0.0141882	9.03231E-05	0.000234003	0	0	0	
0.025	0.00210699	-0.00209331	0.000104913	0.000268309	0	0	0	
0.0251667	0.00155484	-0.000694588	0.000133941	0.000219288	0	0	0	
0.0253333	-0.00808448	-0.00173239	0.000172015	8.82694E-05	0	0	0	
0.0255	-0.00188363	0.00250103	0.000186136	5.22672E-05	0	0	0	
0.0256667	0.00195945	0.00250853	0.000180877	8.23375E-05	0	0	0	
0.0258333	-0.00133705	-0.00416865	0.000188118	0.000151754	0	0	0	
0.026	0.00129179	-0.000481476	0.000271204	0.000183443	0	0	0	
0.0261667	0.0107056	-0.00490127	0.000353152	0.000176663	0	0	0	
0.0263333	-0.0153642	0.00890594	0.000400764	0.00019262	0	0	0	
0.0265	0.0105512	-0.00542933	0.000385918	0.000253885	0	0	0	
0.0266667	-0.0210257	0.00468743	0.000427985	0.000285622	0	0	0	
0.0268333	0.0208664	-0.00424279	0.000474012	0.000242243	0	0	0	
0.027	-0.019425	0.00228908	0.000510918	0.000170354	0	0	0	
0.0271667	0.0195427	-0.00813603	0.000503864	0.000129887	0	0	0	
0.0273333	-0.02848	0.0086495	0.000510286	0.000163349	0	0	0	
0.0275	0.0298438	-0.00735114	0.000573671	0.000175394	0	0	0	
0.0276667	-0.0265408	0.00906043	0.000589101	0.000181728	0	0	0	
0.0278333	0.0152768	-0.00835048	0.000540596	0.000160518	0	0	0	
0.028	-0.00732063	0.00448089	0.000397588	0.000168717	0	0	0	
0.0281667	0.0130514	-0.00119547	0.000276501	0.000229843	0	0	0	
0.0283333	-0.027425	0.00141049	0.000256152	0.000240978	0	0	0	
0.0285	0.0271637	-0.00370115	0.000403773	0.000195981	0	0	0	
0.0286667	-0.010466	0.00679207	0.000493189	0.000155102	0	0	0	
0.0288333	0.0105158	-0.00952506	0.000419782	0.000155866	0	0	0	
0.029	-0.00916065	0.0133595	0.000279794	0.000197622	0	0	0	
0.0291667	-0.000948786	-0.0147146	0.000150631	0.000243685	0	0	0	
0.0293333	0.00672378	0.0122537	0.000150732	0.000262929	0	0	0	
0.0295	-0.00911687	-0.00311447	0.00018985	0.000266657	0	0	0	
0.0296667	0.0132781	0.00228426	0.000320543	0.000220141	0	0	0	
0.0298333	-0.00829827	-0.00467397	0.000386707	0.000199953	0	0	0	
0.03	0.00578679	0.0028663	0.000358489	0.00017684	0	0	0	
0.0301667	-0.00899725	0.00128163	0.00030449	0.000132642	0	0	0	
0.0303333	0.00479147	-0.00940905	0.000251111	0.000112215	0	0	0	
0.0305	-0.00465148	0.014398	0.000194857	0.000135791	0	0	0	
0.0306667	0.00112779	-0.00933165	0.000135299	0.000207416	0	0	0	
0.0308333	0.000354865	0.00882376	0.000118831	0.000203945	0	0	0	
0.031	0.00512743	-0.0124335	0.000131578	0.000194242	0	0	0	
0.0311667	-0.0119651	0.0050048	0.00015436	0.000180273	0	0	0	
0.0313333	0.0113649	-0.000103873	0.000184552	0.000157844	0	0	0	
0.0315	-0.00498284	-0.00123194	0.000184911	0.000131796	0	0	0	
0.0316667	0.000957005	-0.00180988	0.000186477	8.73306E-05	0	0	0	
0.0318333	0.00371356	-0.000229984	0.000170505	8.67593E-05	0	0	0	
0.032	-0.00636944	0.00990918	0.000181124	8.5561E-05	0	0	0	
0.0321667	-5.96594E-05	-0.0191475	0.000159193	0.000140546	0	0	0	
0.0323333	0.00389165	0.0115114	0.000126042	0.00023425	0	0	0	
0.0325	2.48612E-06	-0.00301744	8.41598E-05	0.000249028	0	0	0	
0.0326667	-0.00317591	-0.00301034	8.98941E-05	0.000188411	0	0	0	
0.0328333	-0.000883742	4.66432E-05	0.000167313	0.000111938	0	0	0	
0.033	-0.00859869	0.00309434	0.000270876	0.000119094	0	0	0	
0.0331667	0.00723758	0.000708365	0.000344336	0.000136874	0	0	0	
0.0333333	0.00108592	-0.0103786	0.000298294	0.000139157	0	0	0	
0.0335	-0.00773359	0.0064402	0.000220812	0.000166005	0	0	0	
0.0336667	0.0152288	0.0054189	0.000164497	0.000155302	0	0	0	
0.0338333	-0.0183802	-0.00236401	0.000215674	0.000203505	0	0	0	
0.034	0.0126104	0.00415511	0.0002879	0.000219686	0	0	0	
0.0341667	-0.0223335	-0.010198	0.000329111	0.000266009	0	0	0	
0.0343333	0.0231225	-0.00720296	0.000374706	0.00026549	0	0	0	
0.0345	-0.00798129	0.0257462	0.000361059	0.000329948	0	0	0	
0.0346667	0.00281071	-0.0234629	0.000284961	0.000401607	0	0	0	
0.0348333	-0.00147619	-0.00277449	0.000159328	0.000487631	0	0	0	
0.035	-0.00717084	0.0217354	0.000124796	0.000474892	0	0	0	
0.0351667	0.013361	-0.0193828	0.000162259	0.0004434	0	0	0	
0.0353333	-0.0076182	0.00767213	0.000201226	0.000375757	0	0	0	
0.0355	-0.000761998	-0.0159183	0.000219376	0.000305672	0	0	0	
0.0356667	0.00552175	0.0160459	0.000193507	0.000282751	0	0	0	
0.0358333	-0.00483147	0.00466471	0.000161946	0.000372015	0	0	0	
0.036	0.00186135	-0.0136577	0.000101931	0.000492203	0	0	0	
0.0361667	-0.00850216	-0.000426525	9.58856E-05	0.000434429	0	0	0	
0.0363333	0.0071088	0.0101362	0.000112331	0.000316013	0	0	0	
0.0365	-0.00553551	0.00837561	0.000132795	0.000164558	0	0	0	
0.0366667	0.00313253	-0.0116885	0.000137007	0.000208475	0	0	0	
0.0368333	0.00131124	0.00317862	0.000118644	0.000179518	0	0	0	
0.037	-0.00138902	0.0150349	0.000131286	0.000212608	0	0	0	
0.0371667	-0.00577878	-0.0096557	0.00015056	0.000212294	0	0	0	
0.0373333	0.000239987	-0.0054198	0.000143165	0.00021719	0	0	0	
0.0375	0.00156121	0.00638592	0.000106084	0.00017588	0	0	0	
0.0376667	-0.00548751	0.017048	7.52289E-05	0.000244489	0	0	0	
0.0378333	0.00499529	-0.032216	0.000137679	0.000405321	0	0	0	
0.038	-0.00120597	0.0241848	0.000178466	0.000537536	0	0	0	
0.0381667	0.00194323	-0.0139237	0.000179822	0.000512987	0	0	0	
0.0383333	-0.00365058	0.00591259	0.000133203	0.000380925	0	0	0	
0.0385	0.000510057	-0.0058407	8.75526E-05	0.000244748	0	0	0	
0.0386667	-0.00582779	0.000727663	8.1764E-05	0.000170941	0	0	0	
0.0388333	0.0158994	0.00609304	0.000143055	0.000123832	0	0	0	
0.039	-0.0104424	-0.000291728	0.000249557	0.000145802	0	0	0	
0.0391667	-0.00823999	-0.0241486	0.000273464	0.000266669	0	0	0	
0.0393333	0.0159364	0.0260263	0.000262523	0.000434665	0	0	0	
0.0395	-0.00503068	0.000228959	0.000242735	0.000433969	0	0	0	
0.0396667	-0.00486616	-0.0186134	0.000263513	0.000346236	0	0	0	
0.0398333	-0.00105886	0.0157367	0.000199902	0.000267828	0	0	0	
0.04	0.00903493	-0.00106798	0.000140921	0.000250331	0	0	0	
0.0401667	-0.00918152	5.22062E-05	0.000138782	0.000189338	0	0	0	
0.0403333	0.00354747	-0.0060602	0.000173943	0.000119587	0	0	0	
0.0405	-0.0027268	0.0108549	0.000184253	0.000187509	0	0	0	
0.0406667	0.00418626	-0.00519642	0.000143851	0.000226628	0	0	0	
0.0408333	-0.00553995	0.000890039	0.000117126	0.000217889	0	0	0	
0.041	0.00255837	0.00504952	9.71354E-05	0.000155734	0	0	0	
0.0411667	-0.00209547	-0.00776966	9.89908E-05	0.000151437	0	0	0	
0.0413333	0.00261814	0.00808527	8.72055E-05	0.000147627	0	0	0	
0.0415	-0.00346518	-0.00202639	8.19288E-05	0.000160614	0	0	0	
0.0416667	0.00158621	-0.00261075	7.61176E-05	0.000186725	0	0	0	
0.0418333	0.000356071	0.00507063	7.28849E-05	0.00019717	0	0	0	
0.042	0.000302995	-0.00443662	7.99028E-05	0.000182038	0	0	0	
0.0421667	-0.00114977	-0.0077381	8.96672E-05	0.000142425	0	0	0	
0.0423333	-0.0013739	0.0106961	9.55667E-05	0.000142042	0	0	0	
0.0425	0.00281379	-0.00605351	9.71148E-05	0.000186223	0	0	0	
0.0426667	-0.00306335	0.00147215	9.76666E-05	0.00025922	0	0	0	
0.0428333	0.00457151	0.00580941	9.61091E-05	0.000316525	0	0	0	
0.043	-0.00481957	-0.0100781	9.90832E-05	0.000299153	0	0	0	
0.0431667	0.00194797	-0.00482171	9.66763E-05	0.00021487	0	0	0	
0.0433333	-0.00160222	0.0141651	9.42686E-05	0.000180614	0	0	0	
0.0435	0.00161095	-0.0079883	6.69162E-05	0.00020535	0	0	0	
0.0436667	-0.00406982	0.00386581	5.63634E-05	0.000244449	0	0	0	
0.0438333	0.00341225	-0.00464924	5.59406E-05	0.000250916	0	0	0	
0.044	-0.00158962	0.00617532	7.26718E-05	0.000228662	0	0	0	
0.0441667	-0.0013958	-0.0130159	6.88524E-05	0.000212732	0	0	0	
0.0443333	0.00288725	0.0156073	6.59014E-05	0.000227094	0	0	0	
0.0445	-0.0056213	0.000269447	6.60705E-05	0.000210831	0	0	0	
0.0446667	-6.79584E-05	-0.0111049	6.96355E-05	0.000256542	0	0	0	
0.0448333	0.00914169	0.0134589	7.80244E-05	0.00030083	0	0	0	
0.045	-0.00828996	-0.00405655	0.000114209	0.000426397	0	0	0	
0.0451667	-0.00147432	-0.00131366	0.000142023	0.000514631	0	0	0	
0.0453333	0.00572762	-0.00960388	0.000167276	0.000519626	0	0	0	
0.0455	-0.0109253	0.0199765	0.000157757	0.000450138	0	0	0	
0.0456667	0.00377153	-0.0250369	0.000164346	0.000409755	0	0	0	
0.0458333	0.0042894	0.0194871	0.000128721	0.000416991	0	0	0	
0.046	-0.000665126	0.00887796	0.000137594	0.000362896	0	0	0	
0.0461667	-0.000170245	-0.0294994	0.000139016	0.000422772	0	0	0	
0.0463333	-0.00341571	0.0313014	0.000150556	0.000538277	0	0	0	
0.0465	-8.4059E-05	-0.0212289	0.000210411	0.000625598	0	0	0	
0.0466667	-0.00101964	0.0113489	0.000275991	0.000585931	0	0	0	
0.0468333	0.00247487	-0.0176298	0.000300394	0.000526011	0	0	0	
0.047	-0.00456257	0.0175128	0.000215144	0.000566526	0	0	0	
0.0471667	0.00334117	-0.0046231	0.000132396	0.000530185	0	0	0	
0.0473333	-0.00436572	-0.00950115	0.000119079	0.000421779	0	0	0	
0.0475	0.0116913	0.00580386	0.000142356	0.000306829	0	0	0	
0.0476667	-0.0158149	0.000152271	0.000199841	0.000210235	0	0	0	
0.0478333	0.011135	-0.00314899	0.000247904	0.000130057	0	0	0	
0.048	-0.0048373	0.00160071	0.000259614	0.000101595	0	0	0	
0.0481667	0.000743	-0.0070998	0.000218155	0.000153918	0	0	0	
0.0483333	-0.0109448	0.00282547	0.000169435	0.000194129	0	0	0	
0.0485	0.0157502	-0.00280774	0.000193517	0.000169264	0	0	0	
0.0486667	-0.00682073	0.00413485	0.000219045	9.89719E-05	0	0	0	
0.0488333	0.000696444	-0.0200383	0.000222459	0.000110489	0	0	0	
0.049	0.000635667	0.0188548	0.000216557	0.000230379	0	0	0	
0.0491667	0.00229148	-0.0207402	0.000198644	0.000346279	0	0	0	
0.0493333	-0.000736862	0.019716	0.000173199	0.000380737	0	0	0	
0.0495	0.00189818	-0.0100338	0.000143664	0.000423485	0	0	0	
0.0496667	-0.00624868	-0.0108814	0.000177823	0.000534865	0	0	0	
0.0498333	0.00475691	0.0165941	0.000191917	0.00055724	0	0	0	
0.05	0.00653698	-0.00123485	0.000191924	0.000471522	0	0	0	
0.0501667	-0.00245326	-0.00665665	0.000130281	0.000317601	0	0	0	
0.0503333	-0.00560533	-0.00607419	0.000155589	0.000248759	0	0	0	
0.0505	0.00867812	0.011615	0.000145162	0.000222571	0	0	0	
0.0506667	-0.00537228	0.00867869	0.000155965	0.000236092	0	0	0	
0.0508333	0.00437649	-0.0193319	0.000128639	0.000284805	0	0	0	
0.051	-0.0172164	0.0110977	0.000139898	0.000330964	0	0	0	
0.0511667	0.0210405	-0.00673952	0.000225447	0.00033213	0	0	0	
0.0513333	-0.00855866	0.0173556	0.000287351	0.000325801	0	0	0	
0.0515	-0.00195095	-0.0132941	0.000252343	0.000309222	0	0	0	
0.0516667	0.00443903	-0.0152564	0.000146638	0.000351995	0	0	0	
0.0518333	-0.0053379	0.020521	9.63203E-05	0.000392661	0	0	0	
0.052	0.000825212	0.00334183	0.000109125	0.000346975	0	0	0	
0.0521667	-0.000451145	-0.0158251	0.000144284	0.00026687	0	0	0	
0.0523333	-0.00219167	0.0064293	0.000145975	0.000204963	0	0	0	
0.0525	0.00870724	0.00485801	0.000157837	0.000192688	0	0	0	
0.0526667	-0.00178929	-0.00773725	0.000201598	0.000165894	0	0	0	
0.0528333	-0.00562687	-0.00288498	0.000318242	0.000142954	0	0	0	
0.053	0.0127103	0.00739842	0.000436032	0.000179276	0	0	0	
0.0531667	-0.0113683	-0.00388716	0.000490898	0.000184895	0	0	0	
0.0533333	0.00281198	0.00577325	0.000431496	0.000168676	0	0	0	
0.0535	0.0111182	-0.0106623	0.000317023	0.000156741	0	0	0	
0.0536667	-0.0161655	0.0194374	0.000319178	0.000210261	0	0	0	
0.0538333	0.0349663	-0.0216518	0.000443789	0.000289346	0	0	0	
0.054	-0.0471488	0.01923	0.000678904	0.000359224	0	0	0	
0.0541667	0.0448688	-0.0248273	0.000792378	0.000403086	0	0	0	
0.0543333	-0.0403977	0.018922	0.000847264	0.000411248	0	0	0	
0.0545	0.0238425	0.00384023	0.000791789	0.000451448	0	0	0	
0.0546667	-0.00694049	-0.0183494	0.0006731	0.000414647	0	0	0	
0.0548333	-0.00113705	0.01429	0.000483153	0.000385466	0	0	0	
0.055	0.0123192	-0.0109697	0.00039994	0.000317329	0	0	0	
0.0551667	-0.0201733	0.0164921	0.000481604	0.000322298	0	0	0	
0.0553333	0.0120456	-0.0137769	0.000583981	0.000331367	0	0	0	
0.0555	-0.0132832	-0.00410225	0.000576385	0.000307825	0	0	0	
0.0556667	0.0161483	0.0142441	0.000483717	0.000256432	0	0	0	
0.0558333	0.000131324	-0.00229801	0.000365375	0.000199431	0	0	0	
0.056	-0.000643241	-0.00161465	0.00024088	0.000177315	0	0	0	
0.0561667	0.00293501	-0.000357175	0.000195468	0.00013829	0	0	0	
0.0563333	-0.00118109	0.0108015	0.000297476	0.000139452	0	0	0	
0.0565	0.00279479	-0.0167022	0.000413046	0.000218609	0	0	0	
0.0566667	-0.00616315	0.00494875	0.000382234	0.000340442	0	0	0	
0.0568333	0.0184101	0.0114478	0.000309614	0.000371305	0	0	0	
0.057	-0.0146868	-0.0111864	0.000293909	0.000315464	0	0	0	
0.0571667	0.0194497	0.00712538	0.000350391	0.000240448	0	0	0	
0.0573333	-0.0196429	-0.000470098	0.000405904	0.000209331	0	0	0	
0.0575	0.0205808	-0.0028115	0.000466929	0.000177587	0	0	0	
0.0576667	-0.0162377	0.00833549	0.00049008	0.000168615	0	0	0	
0.0578333	0.0110623	-0.0101068	0.000429904	0.000167159	0	0	0	
0.058	-0.00851262	-0.00384922	0.000294979	0.000165024	0	0	0	
0.0581667	0.00851971	0.00832419	0.00021496	0.000186057	0	0	0	
0.0583333	-0.0109327	6.94552E-05	0.000216324	0.000150402	0	0	0	
0.0585	0.0104495	-0.0122849	0.000265541	0.000158149	0	0	0	
0.0586667	-0.000786517	0.0171183	0.000242116	0.000181967	0	0	0	
0.0588333	-0.00621605	-0.00464279	0.000171666	0.000254707	0	0	0	
0.059	0.00707269	0.00349934	0.000141052	0.000243331	0	0	0	
0.0591667	-0.00265206	-0.0186964	0.00016619	0.000220587	0	0	0	
0.0593333	0.00307641	0.0112509	0.000210595	0.000251621	0	0	0	
0.0595	-0.00369851	-0.00154747	0.000234774	0.000322103	0	0	0	
0.0596667	0.00163807	0.00252832	0.000246001	0.00028484	0	0	0	
0.0598333	0.00384076	-0.000397523	0.000231844	0.000205671	0	0	0	
0.06	-0.00552246	0.0015949	0.00019383	0.000105951	0	0	0	
0.0601667	0.00607962	-0.0101505	0.000152469	0.000144058	0	0	0	
0.0603333	-0.00323771	0.0101883	0.000132545	0.000192652	0	0	0	
0.0605	0.000731809	-0.0116333	9.32306E-05	0.000254102	0	0	0	
0.0606667	-0.000834877	0.00761715	9.367E-05	0.000234061	0	0	0	
0.0608333	0.00343898	-0.00336413	9.279E-05	0.000181166	0	0	0	
0.061	0.00141835	-0.00395917	0.000105241	0.00012757	0	0	0	
0.0611667	-0.00545615	-0.00733828	9.76188E-05	0.000123169	0	0	0	
0.0613333	0.00771313	0.014506	0.000102118	0.000168278	0	0	0	
0.0615	-0.0076717	-0.00970385	0.000135224	0.000267899	0	0	0	
0.0616667	0.00422098	-0.00302625	0.000159372	0.000285799	0	0	0	
0.0618333	0.000283702	-0.00286929	0.000167741	0.000220851	0	0	0	
0.062	-0.000569411	0.00410595	0.000154056	0.000124661	0	0	0	
0.0621667	0.00245034	-0.00928512	0.000123906	0.000109258	0	0	0	
0.0623333	-0.00335915	0.00665588	9.50991E-05	0.00014735	0	0	0	
0.0625	0.00606328	0.00139343	8.852E-05	0.000180953	0	0	0	
0.0626667	-0.00672941	0.00211203	0.000102947	0.000154309	0	0	0	
0.0628333	0.00874852	-0.00385619	0.000133233	0.000123541	0	0	0	
0.063	-0.00463296	0.000906744	0.000134383	9.11203E-05	0	0	0	
0.0631667	0.00377143	0.00392964	0.000126474	8.20568E-05	0	0	0	
0.0633333	0.000755312	-0.00168484	9.43573E-05	0.000112655	0	0	0	
0.0635	-0.00417613	0.00145195	9.48524E-05	0.000130504	0	0	0	
0.0636667	0.00679682	0.000594886	0.000112802	0.000124503	0	0	0	
0.0638333	-0.00368006	0.000579815	0.000132253	8.21146E-05	0	0	0	
0.064	0.00158413	0.00180947	0.000127259	4.47615E-05	0	0	0	
0.0641667	0.00126961	-0.000486656	9.63969E-05	9.43629E-05	0	0	0	
0.0643333	-0.00314914	-0.00469934	8.06865E-05	0.000182096	0	0	0	
0.0645	0.00637906	0.00812782	7.72131E-05	0.000211856	0	0	0	
0.0646667	-0.00325191	-0.00124473	9.52183E-05	0.000242642	0	0	0	
0.0648333	-0.00539449	-0.00972369	0.000118817	0.000256075	0	0	0	
0.065	0.00696436	0.00631504	0.000149372	0.000318254	0	0	0	
0.0651667	-0.00530063	-0.0212655	0.000193026	0.000325052	0	0	0	
0.0653333	0.00801513	0.0340215	0.000215245	0.000388481	0	0	0	
0.0655	-0.00642838	-0.0315538	0.000201726	0.000509358	0	0	0	
0.0656667	-0.00249297	0.00575677	0.000206648	0.000693435	0	0	0	
0.0658333	0.0037098	0.0145631	0.000155002	0.000715738	0	0	0	
0.066	-0.00404923	-0.0116705	0.000181384	0.000563364	0	0	0	
0.0661667	0.00455121	-0.00340277	0.000166373	0.000319139	0	0	0	
0.0663333	-0.00362158	-0.00876298	0.000198109	0.000204621	0	0	0	
0.0665	-0.00459405	0.00918933	0.000183857	0.000218582	0	0	0	
0.0666667	0.00742471	-0.00171913	0.000171192	0.000296561	0	0	0	
0.0668333	-0.00392693	-0.0143442	0.000150471	0.000355609	0	0	0	
0.067	-0.00261475	0.0027099	0.000132129	0.000310199	0	0	0	
0.0671667	0.00258031	0.00727037	8.74591E-05	0.00021771	0	0	0	
0.0673333	0.000650309	0.00780854	0.000119031	0.000208862	0	0	0	
0.0675	-0.00332907	-0.0224966	0.000158	0.000305267	0	0	0	
0.0676667	-9.98177E-05	0.0133802	0.000218707	0.000389881	0	0	0	
0.0678333	-0.000965211	-0.00958428	0.000204238	0.000327634	0	0	0	
0.068	0.00156599	0.00855666	0.000145045	0.0002401	0	0	0	
0.0681667	0.000945197	-0.0184591	8.1826E-05	0.000223981	0	0	0	
0.0683333	-0.00181486	0.0135044	4.84438E-05	0.000240442	0	0	0	
0.0685	0.00853033	0.0112232	7.00569E-05	0.000313262	0	0	0	
0.0686667	-0.0118729	-0.0164769	0.00013138	0.000337091	0	0	0	
0.0688333	0.00589965	0.00844434	0.000175926	0.000329577	0	0	0	
0.069	-0.000829742	0.00368805	0.000161589	0.000278866	0	0	0	
0.0691667	-0.000809735	-0.00514325	0.000119747	0.000233908	0	0	0	
0.0693333	-0.000551916	-0.00293003	9.80327E-05	0.000224234	0	0	0	
0.0695	0.00131297	0.00602451	9.7995E-05	0.000220224	0	0	0	
0.0696667	-0.000639302	0.00742458	8.80738E-05	0.000182101	0	0	0	
0.0698333	0.0027791	-0.00498688	8.89221E-05	0.000170705	0	0	0	
0.07	-0.00617615	0.000207479	9.00556E-05	0.000140978	0	0	0	
0.0701667	-0.000979147	-0.00125959	8.90976E-05	0.000166025	0	0	0	
0.0703333	0.00760895	0.0130275	7.69294E-05	0.000157213	0	0	0	
0.0705	-0.00446607	-0.00195307	9.78489E-05	0.000206808	0	0	0	
0.0706667	-0.0050426	-0.00534656	9.91605E-05	0.000230317	0	0	0	
0.0708333	0.00335221	0.000443924	0.000102268	0.000197294	0	0	0	
0.071	0.000464401	0.00519209	6.40905E-05	0.00019064	0	0	0	
0.0711667	-0.00339548	-0.00378288	6.00816E-05	0.000177082	0	0	0	
0.0713333	0.00487435	0.00798177	7.3445E-05	0.000226565	0	0	0	
0.0715	-0.00384709	-0.00989236	0.000121184	0.000214242	0	0	0	
0.0716667	0.00221241	0.0117054	0.000143211	0.000202086	0	0	0	
0.0718333	-0.00222115	-0.00605515	0.000110648	0.000219134	0	0	0	
0.072	-0.00188105	-0.00794066	6.53249E-05	0.000185337	0	0	0	
0.0721667	0.00555182	0.00617414	6.35017E-05	0.000197804	0	0	0	
0.0723333	-0.000778812	0.00156859	8.76425E-05	0.0001562	0	0	0	
0.0725	-0.00254654	-0.00332213	8.99863E-05	0.000200273	0	0	0	
0.0726667	-0.00118097	-0.00674101	7.29018E-05	0.000225067	0	0	0	
0.0728333	0.00561498	0.0191386	6.3742E-05	0.000249443	0	0	0	
0.073	-0.00185607	-0.0159172	8.16573E-05	0.000299876	0	0	0	
0.0731667	-0.00204162	0.00381389	8.95323E-05	0.000316281	0	0	0	
0.0733333	0.00289493	0.00901633	9.15239E-05	0.000353557	0	0	0	
0.0735	-0.00140637	-0.0144384	9.34729E-05	0.000308972	0	0	0	
0.0736667	-0.00286255	0.00604732	9.11498E-05	0.000244517	0	0	0	
0.0738333	0.00553402	0.00371249	9.3814E-05	0.000208653	0	0	0	
0.074	-0.00332256	-0.00830737	8.8358E-05	0.000197703	0	0	0	
0.0741667	-0.000390683	0.0118305	0.000105906	0.000210413	0	0	0	
0.0743333	0.000616785	-0.00364874	0.000110272	0.000233827	0	0	0	
0.0745	-0.000275189	-0.00671621	9.23997E-05	0.000191184	0	0	0	
0.0746667	0.000775182	0.00698063	8.70078E-05	0.000192487	0	0	0	
0.0748333	0.000457044	0.00513846	9.15024E-05	0.000151128	0	0	0	
0.075	-0.0021361	-0.01098	9.75877E-05	0.000188181	0	0	0	
0.0751667	0.00354417	0.0175132	8.53808E-05	0.000216778	0	0	0	
0.0753333	-0.000551244	-0.00319128	7.35591E-05	0.00024737	0	0	0	
0.0755	-0.00289452	-0.0056492	6.49353E-05	0.000217833	0	0	0	
0.0756667	0.00477122	0.00429125	7.39898E-05	0.000157506	0	0	0	
0.0758333	-0.00134035	0.00281282	6.5902E-05	9.18992E-05	0	0	0	
0.076	0.000269673	-0.00468898	6.29461E-05	9.2445E-05	0	0	0	
0.0761667	0.00138286	0.00229984	3.16362E-05	0.000131738	0	0	0	
0.0763333	0.000838985	0.00673359	3.27287E-05	0.000219301	0	0	0	
0.0765	-0.00337453	-0.0025284	7.90415E-05	0.000247525	0	0	0	
0.0766667	0.0103988	0.001753	0.000158451	0.000183474	0	0	0	
0.0768333	-0.0157838	-0.00133536	0.00024172	9.97292E-05	0	0	0	
0.077	0.0168652	-0.00310606	0.000294398	9.1027E-05	0	0	0	
0.0771667	-0.00786174	-0.00344272	0.000293261	0.000165524	0	0	0	
0.0773333	-0.00106931	0.00920731	0.00023596	0.000234579	0	0	0	
0.0775	0.00227588	0.00123049	0.000184274	0.000243577	0	0	0	
0.0776667	0.000911745	-0.00697099	0.000123409	0.000212523	0	0	0	
0.0778333	0.000898588	0.000504108	8.60304E-05	0.000133918	0	0	0	
0.078	-0.00258995	0.0118116	6.75264E-05	0.000126771	0	0	0	
0.0781667	0.000896086	-0.012407	9.85143E-05	0.000154365	0	0	0	
0.0783333	-0.00667513	0.00987622	0.000138134	0.000220563	0	0	0	
0.0785	0.00784375	-0.00487047	0.000163379	0.000238131	0	0	0	
0.0786667	-0.00581227	0.00298851	0.000160798	0.000222298	0	0	0	
0.0788333	0.000407309	0.00907716	0.000183473	0.00022273	0	0	0	
0.079	0.00162083	-0.0178589	0.000190097	0.000232422	0	0	0	
0.0791667	0.00158169	0.00798885	0.000168104	0.0002504	0	0	0	
0.0793333	-0.00727642	0.0153008	0.000125213	0.000251676	0	0	0	
0.0795	0.00676802	-0.0208222	0.000111552	0.000279316	0	0	0	
0.0796667	-0.00698384	0.0135793	0.000145456	0.000337248	0	0	0	
0.0798333	0.00500793	-0.00730896	0.000169251	0.000381391	0	0	0	
0.08	-0.00838436	-0.00163501	0.000171191	0.000349762	0	0	0	
0.0801667	0.00359925	-0.000871142	0.000165761	0.000258217	0	0	0	
0.0803333	0.00595475	-0.0193181	0.000127772	0.000202476	0	0	0	
0.0805	0.00826026	0.036228	0.000241605	0.000288739	0	0	0	
0.0806667	-0.0623668	0.0136167	0.000532489	0.000747758	0	0	0	
0.0808333	0.10751	-0.0936372	0.00106141	0.00166923	0	0	0	
0.081	-0.0706143	0.0912999	0.00145677	0.00248009	0	0	0	
0.0811667	0.0364619	-0.0519848	0.00146539	0.00236743	0	0	0	
0.0813333	-0.02766	0.0127472	0.00113665	0.00166736	0	0	0	
0.0815	0.0198952	0.000630939	0.000743663	0.000940303	0	0	0	
0.0816667	0.000797692	-0.0391358	0.000503538	0.000774054	0	0	0	
0.0818333	0.0149433	0.0867374	0.000556317	0.00081796	0	0	0	
0.082	-0.0180177	-0.101483	0.00077081	0.00131894	0	0	0	
0.0821667	0.0078617	0.0179045	0.000895126	0.00190661	0	0	0	
0.0823333	0.00896989	0.0495335	0.000781934	0.00221689	0	0	0	
0.0825	-0.0104507	-0.0490669	0.000632187	0.00181185	0	0	0	
0.0826667	0.0165702	0.0254625	0.000647137	0.00119106	0	0	0	
0.0828333	-0.00500672	-0.0178925	0.000647647	0.000789121	0	0	0	
0.083	-0.00865961	-0.0102405	0.000452831	0.000733182	0	0	0	
0.0831667	0.00749574	0.0422936	0.00036588	0.000736441	0	0	0	
0.0833333	0.0158873	-0.0435232	0.000524539	0.000756412	0	0	0	
0.0835	-0.0306676	0.0250717	0.000718165	0.000764056	0	0	0	
0.0836667	0.0244342	-0.00790149	0.000695842	0.000757617	0	0	0	
0.0838333	-0.0120258	0.00111798	0.000540933	0.000565321	0	0	0	
0.084	-0.0101998	0.0161227	0.000442098	0.000343786	0	0	0	
0.0841667	0.0299034	-0.025811	0.000564087	0.000314534	0	0	0	
0.0843333	-0.0360023	0.0195324	0.000659055	0.000434534	0	0	0	
0.0845	0.0353311	-0.00743473	0.000754275	0.000498121	0	0	0	
0.0846667	-0.0225478	-0.00234143	0.000723218	0.000439555	0	0	0	
0.0848333	0.00247133	-0.0093532	0.000533777	0.000334768	0	0	0	
0.085	-0.0318027	0.0347555	0.000419845	0.000404946	0	0	0	
0.0851667	0.0456695	-0.0137538	0.000478372	0.000589885	0	0	0	
0.0853333	-0.0258715	-0.0195532	0.000621506	0.000780235	0	0	0	
0.0855	0.00173909	0.0128737	0.000671542	0.000671928	0	0	0	
0.0856667	0.00489585	0.020456	0.000582453	0.000628872	0	0	0	
0.0858333	-0.0242388	-0.0379009	0.000634814	0.000511641	0	0	0	
0.086	0.0160332	0.0207007	0.000723162	0.000699816	0	0	0	
0.0861667	-0.00950791	0.0102037	0.000579071	0.000539205	0	0	0	
0.0863333	-0.0077825	0.0167564	0.000418059	0.00062928	0	0	0	
0.0865	0.0398963	-0.0814102	0.000344552	0.000907469	0	0	0	
0.0866667	-0.0746634	0.126122	0.000637914	0.00150089	0	0	0	
0.0868333	0.081139	-0.104158	0.0010225	0.00194785	0	0	0	
0.087	-0.0611779	0.0504805	0.00133813	0.00195071	0	0	0	
0.0871667	0.0381348	-0.00828889	0.0013196	0.00166914	0	0	0	
0.0873333	-0.0319193	-0.0272949	0.00104035	0.00142027	0	0	0	
0.0875	0.0303739	0.0833547	0.000780239	0.00130393	0	0	0	
0.0876667	0.00138411	-0.0890402	0.000568227	0.00141716	0	0	0	
0.0878333	-0.0203566	0.0237095	0.000501304	0.00181553	0	0	0	
0.088	0.00991	0.0592667	0.000487669	0.00221961	0	0	0	
0.0881667	0.00109344	-0.0692373	0.000450128	0.00221148	0	0	0	
0.0883333	0.0122511	0.0673485	0.000356108	0.00176619	0	0	0	
0.0885	0.0267365	-0.0729401	0.00021575	0.00134294	0	0	0	
0.0886667	-0.0377587	0.0460997	0.000334931	0.00121991	0	0	0	
0.0888333	-0.0250637	0.0260179	0.000628807	0.00116335	0	0	0	
0.089	0.0434572	-0.049013	0.000912308	0.00101432	0	0	0	
0.0891667	-0.0116639	0.0310402	0.000850334	0.000897424	0	0	0	
0.0893333	-0.0158373	-0.0246009	0.000620712	0.000716711	0	0	0	
0.0895	0.0198196	0.0162796	0.000494035	0.00063682	0	0	0	
0.0896667	-0.0194929	0.00679318	0.000714619	0.000798571	0	0	0	
0.0898333	-0.00255026	0.00183315	0.00075575	0.000734749	0	0	0	
0.09	-0.0315531	-0.0300757	0.000611156	0.000863689	0	0	0	
0.0901667	0.0637417	0.0211771	0.000512468	0.000674569	0	0	0	
0.0903333	-0.0473526	0.00566063	0.000792352	0.000724287	0	0	0	
0.0905	-0.00622732	-0.017209	0.001386	0.000618549	0	0	0	
0.0906667	-0.0375544	0.0235909	0.00153628	0.000652266	0	0	0	
0.0908333	0.0634825	-0.0454465	0.00148315	0.000723515	0	0	0	
0.091	-0.00675058	0.0259316	0.00146586	0.00075518	0	0	0	
0.0911667	-0.0940424	0.0243764	0.00147637	0.000849836	0	0	0	
0.0913333	0.00448696	-0.0322807	0.00175681	0.000753509	0	0	0	
0.0915	0.124666	0.00529842	0.00190715	0.00084204	0	0	0	
0.0916667	-0.155228	0.0156663	0.00235094	0.000820624	0	0	0	
0.0918333	0.0734364	-0.0202952	0.00241724	0.000882294	0	0	0	
0.092	-0.068435	0.0237003	0.00198356	0.000655087	0	0	0	
0.0921667	0.037913	-0.00424355	0.00154653	0.000552332	0	0	0	
0.0923333	0.0173537	-0.010645	0.00136647	0.000524131	0	0	0	
0.0925	-0.0535439	0.0128083	0.00140829	0.000570318	0	0	0	
0.0926667	0.0510559	0.000730051	0.0013673	0.000602486	0	0	0	
0.0928333	-0.0415001	-0.0115633	0.00105373	0.000645898	0	0	0	
0.093	-0.044123	0.0439725	0.000918574	0.000643739	0	0	0	
0.0931667	0.0921152	-0.0416052	0.000934606	0.000653729	0	0	0	
0.0933333	-0.0363268	-0.0278891	0.00122133	0.000835816	0	0	0	
0.0935	-0.0664162	0.0708302	0.00165804	0.000958252	0	0	0	
0.0936667	0.142589	0.0387176	0.00200996	0.0013642	0	0	0	
0.0938333	0.0134276	-0.178377	0.00262431	0.00151471	0	0	0	
0.094	-0.45906	0.1451	0.00577722	0.00425136	0	0	0	
0.0941667	0.489083	-0.417542	0.0111402	0.0104065	0	0	0	
0.0943333	-0.288049	0.417592	0.0136889	0.0163915	0	0	0	
0.0945	-0.0261353	-0.199111	0.0103668	0.0165253	0	0	0	
0.0946667	0.151598	0.0747637	0.00537196	0.0106844	0	0	0	
0.0948333	-0.13089	-0.085629	0.00251044	0.00515293	0	0	0	
0.095	0.273902	0.372856	0.00297004	0.00344976	0	0	0	
0.0951667	-0.704255	-1.00444	0.00554607	0.00733063	0	0	0	
0.0953333	0.453594	0.864575	0.0096471	0.0131625	0	0	0	
0.0955	0.0206851	-0.306254	0.0111463	0.0157563	0	0	0	
0.0956667	-0.0901958	-0.0131819	0.00800432	0.011912	0	0	0	
0.0958333	-0.134107	0.0747938	0.00428354	0.00558824	0	0	0	
0.096	0.086445	0.0142586	0.00249918	0.00178895	0	0	0	
0.0961667	0.108317	-0.0798147	0.00360053	0.00120023	0	0	0	
0.0963333	-0.12475	0.064054	0.00324795	0.0015159	0	0	0	
0.0965	-0.00146618	-0.0311344	0.00295905	0.00186632	0	0	0	
0.0966667	0.00997781	0.0220053	0.00134435	0.00169822	0	0	0	
0.0968333	0.00953072	-0.0359519	0.000789933	0.00113187	0	0	0	
0.097	0.0268794	0.024137	0.000645926	0.000728519	0	0	0	
0.0971667	-0.0912905	-0.0144862	0.00109885	0.00058467	0	0	0	
0.0973333	0.041931	0.00324902	0.00125877	0.000440722	0	0	0	
0.0975	0.0414088	-0.00315814	0.00126956	0.000325852	0	0	0	
0.0976667	-0.0396597	-0.00308574	0.00113093	0.000294516	0	0	0	
0.0978333	-0.00906451	-0.0040041	0.000957553	0.000361751	0	0	0	
0.098	-0.0174996	-0.00194133	0.000841197	0.000436912	0	0	0	
0.0981667	0.0466852	0.00357502	0.000677717	0.000440972	0	0	0	
0.0983333	0.0129109	-0.0063318	0.000934715	0.000311947	0	0	0	
0.0985	-0.10062	-0.0192937	0.0014574	0.000386699	0	0	0	
0.0986667	0.084909	0.0390092	0.00177159	0.000517195	0	0	0	
0.0988333	0.0245243	-0.0199998	0.00221589	0.000663148	0	0	0	
0.099	-0.0993271	-0.0153273	0.00236323	0.000752006	0	0	0	
0.0991667	0.0986054	0.0265121	0.0024076	0.000676425	0	0	0	
0.0993333	-0.044803	-0.0244295	0.00206932	0.000664402	0	0	0	
0.0995	0.0306597	0.0191011	0.00163432	0.000515549	0	0	0	
0.0996667	0.00196741	-0.0258378	0.00152938	0.000497617	0	0	0	
0.0998333	-0.0668517	0.0212834	0.00138216	0.000510059	0	0	0	
0.1	0.0699088	0.014537	0.00133821	0.000535949	0	0	0	
0.100167	0.0131526	-0.0449874	0.00146435	0.000560666	0	0	0	
0.100333	-0.0402553	0.0379734	0.00145847	0.000659142	0	0	0	
0.1005	0.0664286	-0.0266173	0.00148864	0.000667589	0	0	0	
0.100667	-0.103779	0.0202721	0.00149773	0.000674129	0	0	0	
0.100833	-0.054797	-0.0178727	0.00206172	0.000643745	0	0	0	
0.101	0.149088	0.00784846	0.00255622	0.00064796	0	0	0	
0.101167	-0.0166862	-0.00268728	0.00275445	0.000528751	0	0	0	
0.101333	-0.0814105	0.0180579	0.00233902	0.000521739	0	0	0	
0.1015	-0.0338044	-0.0329856	0.00203016	0.000584292	0	0	0	
0.101667	0.0166602	0.0401321	0.0014534	0.000729511	0	0	0	
0.101833	0.107557	-0.0345453	0.0019262	0.000757564	0	0	0	
0.102	-0.0813872	0.00943833	0.00197736	0.000735046	0	0	0	
0.102167	-0.104857	0.0293096	0.00315137	0.000693768	0	0	0	
0.102333	0.0732529	-0.0254494	0.0025194	0.000575549	0	0	0	
0.1025	0.0814607	-0.0139369	0.00270035	0.000492211	0	0	0	
0.102667	-0.0456626	0.0204336	0.00163909	0.000452989	0	0	0	
0.102833	-0.0456026	0.000821505	0.00171454	0.00039555	0	0	0	
0.103	0.0414464	-0.0208457	0.0015267	0.000663631	0	0	0	
0.103167	0.100905	0.0973739	0.00260113	0.00172675	0	0	0	
0.103333	-0.046583	-0.0730475	0.00354582	0.00255155	0	0	0	
0.1035	-0.0225538	0.043865	0.00310522	0.00320021	0	0	0	
0.103667	-0.0260311	-0.0631137	0.00265589	0.00365144	0	0	0	
0.103833	0.0359088	0.0900467	0.0019379	0.00429522	0	0	0	
0.104	-0.0354573	-0.1645	0.00188456	0.00418537	0	0	0	
0.104167	0.166614	0.285966	0.00194784	0.00408281	0	0	0	
0.104333	-0.103744	-0.131801	0.00235617	0.00397806	0	0	0	
0.1045	-0.00373748	-0.104761	0.00280224	0.00363722	0	0	0	
0.104667	0.0281733	0.25056	0.00206516	0.00325312	0	0	0	
0.104833	-0.0467313	-0.275268	0.00114185	0.0034749	0	0	0	
0.105	0.0331105	0.150639	0.000922127	0.00435832	0	0	0	
0.105167	-0.00111286	0.0715026	0.000905673	0.00488813	0	0	0	
0.105333	0.0252511	-0.199757	0.00091787	0.00524032	0	0	0	
0.1055	-0.0601877	0.287077	0.000839273	0.00567942	0	0	0	
0.105667	0.0270788	-0.28591	0.000965679	0.00581909	0	0	0	
0.105833	0.0526281	0.188393	0.00138341	0.00525645	0	0	0	
0.106	-0.0622086	0.0294585	0.00141323	0.00505145	0	0	0	
0.106167	-0.0137292	-0.241247	0.00150395	0.0046761	0	0	0	
0.106333	0.0661236	0.260301	0.00119912	0.00474175	0	0	0	
0.1065	-0.0364438	-0.108267	0.00118411	0.00475698	0	0	0	
0.106667	-0.0127056	-0.0150012	0.000929998	0.00533505	0	0	0	
0.106833	0.00380589	0.140269	0.000675588	0.00566773	0	0	0	
0.107	0.0526651	-0.226367	0.000777842	0.00536157	0	0	0	
0.107167	-0.0546472	0.167721	0.000866518	0.00441223	0	0	0	
0.107333	-0.0097025	-0.0210201	0.00110916	0.00387293	0	0	0	
0.1075	0.00998761	-0.0536167	0.000735008	0.0033259	0	0	0	
0.107667	0.0553933	0.0477395	0.000776932	0.00260177	0	0	0	
0.107833	-0.0369794	-0.0575751	0.000692897	0.00166582	0	0	0	
0.108	-0.0530462	0.0820576	0.00118392	0.00121728	0	0	0	
0.108167	0.040441	-0.0652851	0.00109667	0.00134158	0	0	0	
0.108333	0.0523732	0.00170804	0.00148958	0.00166138	0	0	0	
0.1085	-0.0506968	0.0425331	0.00123198	0.00185425	0	0	0	
0.108667	-0.0325038	-0.0522783	0.00149422	0.00182826	0	0	0	
0.108833	0.0457196	0.0692025	0.00101838	0.00146948	0	0	0	
0.109	0.0370987	-0.0639518	0.00122878	0.00123529	0	0	0	
0.109167	-0.0654967	0.0398804	0.00104547	0.00114728	0	0	0	
0.109333	0.0445746	-0.0367218	0.00132319	0.00116568	0	0	0	
0.1095	-0.0246351	0.0224019	0.00120288	0.00112695	0	0	0	
0.109667	0.0313715	-0.0432157	0.00104534	0.00100733	0	0	0	
0.109833	-0.0212816	0.00658105	0.000713375	0.00130507	0	0	0	
0.11	-0.0107312	0.0883803	0.000614431	0.00151513	0	0	0	
0.110167	0.016535	-0.13042	0.00052356	0.00194927	0	0	0	
0.110333	0.0299821	0.10228	0.000682066	0.00203284	0	0	0	
0.1105	-0.0503347	-0.0533237	0.000958293	0.00223931	0	0	0	
0.110667	0.0295012	-0.0426183	0.00131296	0.00218365	0	0	0	
0.110833	-0.0185923	0.0739287	0.00118613	0.00193551	0	0	0	
0.111	0.0169274	-0.0395733	0.000742083	0.00140695	0	0	0	
0.111167	-0.0235825	0.0023154	0.000419909	0.00124282	0	0	0	
0.111333	0.0148054	0.0204015	0.000378131	0.00116792	0	0	0	
0.1115	0.00431233	-0.0283954	0.000313447	0.00106528	0	0	0	
0.111667	-0.0144661	0.0354218	0.000254878	0.000816851	0	0	0	
0.111833	0.00886254	-0.0322266	0.000176371	0.000618248	0	0	0	
0.112	-0.00461621	0.0236225	0.000232371	0.000624266	0	0	0	
0.112167	0.00413369	-0.0213494	0.000250791	0.000566344	0	0	0	
0.112333	-0.0112958	0.0174868	0.000288835	0.000594426	0	0	0	
0.1125	0.00209498	-0.000547262	0.000288203	0.000653284	0	0	0	
0.112667	0.00556646	-0.0115617	0.000276175	0.000628637	0	0	0	
0.112833	-0.00769373	0.0189853	0.000247166	0.000459014	0	0	0	
0.113	-0.00307564	-0.00980992	0.000204742	0.000329135	0	0	0	
0.113167	0.0024632	-0.00288014	0.00018629	0.000240708	0	0	0	
0.113333	-0.0120799	0.00936936	0.000188867	0.000199815	0	0	0	
0.1135	0.0132821	-0.0138363	0.000213047	0.000156045	0	0	0	
0.113667	-0.0120713	0.016144	0.000263909	0.000215723	0	0	0	
0.113833	0.00824056	-0.0085983	0.000254617	0.00029013	0	0	0	
0.114	-0.00993471	0.00228931	0.000277424	0.000337724	0	0	0	
0.114167	-0.00940512	-0.00122472	0.000251063	0.000267821	0	0	0	
0.114333	0.00979688	0.000393181	0.000265096	0.000185099	0	0	0	
0.1145	-0.000925551	5.51874E-05	0.000210205	0.000114114	0	0	0	
0.114667	-0.00525242	-0.00776495	0.000234215	0.000246582	0	0	0	
0.114833	0.00652915	0.00889106	0.000247165	0.000291093	0	0	0	
0.115	-0.00791139	0.000873076	0.000261164	0.00036445	0	0	0	
0.115167	-0.000403331	-0.00746489	0.000171927	0.000304669	0	0	0	
0.115333	0.00208453	-0.00594885	0.000150413	0.000269698	0	0	0	
0.1155	-0.00900555	0.00266882	0.000214262	0.000239027	0	0	0	
0.115667	0.0181532	0.0161888	0.00031786	0.000200173	0	0	0	
0.115833	-0.014349	-0.0201792	0.000349615	0.000292163	0	0	0	
0.116	0.00840425	-0.00320622	0.00029698	0.000352977	0	0	0	
0.116167	-0.00415396	0.0173083	0.000223582	0.000386525	0	0	0	
0.116333	0.00638097	-0.0114063	0.000196378	0.000329801	0	0	0	
0.1165	-0.00640226	-0.00142315	0.000181129	0.000238069	0	0	0	
0.116667	0.00672991	0.00761103	0.000204851	0.000197634	0	0	0	
0.116833	-0.00644077	-0.00179066	0.000219312	0.00017032	0	0	0	
0.117	0.00901328	-0.00244942	0.000224856	0.000166746	0	0	0	
0.117167	-0.0114926	0.00233915	0.000225198	0.000151235	0	0	0	
0.117333	0.00651387	-0.00205294	0.00019354	0.000138391	0	0	0	
0.1175	-0.00756355	0.00193097	0.000195899	0.000137735	0	0	0	
0.117667	0.0165937	-0.0103696	0.000211257	0.000167199	0	0	0	
0.117833	-0.0219479	0.0197783	0.000288428	0.000236897	0	0	0	
0.118	0.0151959	-0.0130611	0.00037141	0.00028589	0	0	0	
0.118167	-0.00770235	-0.00704505	0.000394443	0.000313226	0	0	0	
0.118333	-0.00163625	0.00520031	0.000324583	0.000240766	0	0	0	
0.1185	-0.00470782	0.00897139	0.000263144	0.000239015	0	0	0	
0.118667	0.0123112	-0.00470902	0.000266833	0.000185304	0	0	0	
0.118833	-0.0118257	-0.000234155	0.000262501	0.000153952	0	0	0	
0.119	0.00536646	-0.008456	0.000249628	9.66691E-05	0	0	0	
0.119167	0.00432794	0.00945717	0.000156343	0.000109495	0	0	0	
0.119333	-0.00601392	0.0053634	0.000138071	0.000142103	0	0	0	
0.1195	0.00607722	-0.0133836	0.000114112	0.000162483	0	0	0	
0.119667	-0.00954586	0.0113798	0.00014464	0.000201209	0	0	0	
0.119833	0.00746224	0.0010541	0.00015402	0.000207655	0	0	0	
0.12	-0.00249965	5.4628E-05	0.000151806	0.000178677	0	0	0	
0.120167	0.000134082	0.00358607	0.000125471	0.000109876	0	0	0	
0.120333	-0.00110723	-0.000779714	7.7306E-05	0.000121117	0	0	0	
0.1205	-0.000430014	0.000261291	5.63953E-05	0.0001288	0	0	0	
0.120667	0.00265462	-0.000383468	6.83158E-05	0.000138915	0	0	0	
0.120833	-0.000707627	0.00461338	8.44334E-05	0.000135532	0	0	0	
0.121	-0.00112326	-5.99693E-05	8.52367E-05	0.000112818	0	0	0	
0.121167	0.00327891	-0.00163181	9.63876E-05	8.27408E-05	0	0	0	
0.121333	-0.00690102	0.00620997	0.000116348	4.54051E-05	0	0	0	
0.1215	0.00315407	-0.00866452	0.000123908	0.000100634	0	0	0	
0.121667	-0.00104438	0.00748025	9.60707E-05	0.00015822	0	0	0	
0.121833	0.00361138	-0.00619319	7.90548E-05	0.000163267	0	0	0	
0.122	-0.00128479	0.00768234	6.73612E-05	0.000208382	0	0	0	
0.122167	0.00138194	0.0012775	6.47012E-05	0.000293447	0	0	0	
0.122333	0.00071694	-0.00802977	7.51636E-05	0.000393747	0	0	0	
0.1225	-0.00270256	0.010244	9.67559E-05	0.000391059	0	0	0	
0.122667	-0.000298352	-0.0173618	9.38536E-05	0.000346232	0	0	0	
0.122833	0.00156452	0.0161885	6.37246E-05	0.000327422	0	0	0	
0.123	-0.000717256	-0.00551885	2.75105E-05	0.000305965	0	0	0	
0.123167	-0.00162468	0.00114133	1.96969E-05	0.000245411	0	0	0	
0.123333	0.00400171	-0.0011815	3.86465E-05	0.000175195	0	0	0	
0.1235	-0.0031176	0.00274245	7.18159E-05	0.000116795	0	0	0	
0.123667	-0.000615782	-0.00387068	9.69664E-05	9.66051E-05	0	0	0	
0.123833	0.00110524	-0.00378481	0.000100069	8.30176E-05	0	0	0	
0.124	-0.000243736	0.00676134	9.26414E-05	0.000117999	0	0	0	
0.124167	-0.000401105	-0.00454034	8.79545E-05	0.000180446	0	0	0	
0.124333	0.000381749	0.00157241	8.29802E-05	0.00023496	0	0	0	
0.1245	-0.00128704	-0.000646568	7.30818E-05	0.000253881	0	0	0	
0.124667	0.00259294	-0.00638369	5.98736E-05	0.000278135	0	0	0	
0.124833	-0.002648	0.0146887	5.63152E-05	0.000323315	0	0	0	
0.125	0.00162538	-0.0157133	5.19111E-05	0.000351592	0	0	0	
0.125167	-0.00264953	0.00667941	4.89606E-05	0.000338135	0	0	0	
0.125333	0.00489733	-1.25882E-05	5.31405E-05	0.000268372	0	0	0	
0.1255	-0.00615202	0.00233391	7.67307E-05	0.00022895	0	0	0	
0.125667	0.00345295	-0.0150205	0.000105607	0.000181118	0	0	0	
0.125833	-0.0042382	0.00953474	0.000110779	0.000224793	0	0	0	
0.126	0.00520915	0.00267006	0.000106867	0.000215533	0	0	0	
0.126167	-0.00443399	-0.00438678	0.000114628	0.000261022	0	0	0	
0.126333	0.00451285	-0.00176245	0.00013793	0.000219786	0	0	0	
0.1265	-0.00318262	-0.000947153	0.000148132	0.000183331	0	0	0	
0.126667	-0.00185606	-0.0137507	0.000119509	0.000197925	0	0	0	
0.126833	0.00292626	0.0202383	8.89328E-05	0.000349726	0	0	0	
0.127	0.00113485	-0.0138288	8.91335E-05	0.000435136	0	0	0	
0.127167	0.0060429	-0.0054045	0.000110904	0.000441932	0	0	0	
0.127333	-0.0176953	0.00967994	0.000173097	0.000347868	0	0	0	
0.1275	0.0144501	-0.0198305	0.000233668	0.000306228	0	0	0	
0.127667	-0.00577673	0.020782	0.000260854	0.000353331	0	0	0	
0.127833	0.00792026	-0.0156596	0.000217082	0.000500999	0	0	0	
0.128	-0.00615196	-0.00529286	0.000154795	0.000688249	0	0	0	
0.128167	-0.00116643	0.00938841	0.000142378	0.000609792	0	0	0	
0.128333	0.00603088	-0.00257989	0.000115901	0.000419799	0	0	0	
0.1285	-0.00459906	-0.00462068	0.000164441	0.000183021	0	0	0	
0.128667	-0.000384444	-0.00590154	0.000226334	0.000192056	0	0	0	
0.128833	0.00164153	0.00285313	0.00027997	0.000136695	0	0	0	
0.129	-0.000347079	0.00897349	0.000210667	0.000251647	0	0	0	
0.129167	0.000155401	-0.0137306	0.000100658	0.000294211	0	0	0	
0.129333	-0.00112091	0.00981721	4.64653E-05	0.000365467	0	0	0	
0.1295	0.00158425	-0.0157528	7.47833E-05	0.000316914	0	0	0	
0.129667	0.000413813	0.0237939	0.000133624	0.000298668	0	0	0	
0.129833	-0.00314316	-0.00863622	0.000161728	0.000387624	0	0	0	
0.13	0.00251912	-0.0151882	0.000144612	0.000533389	0	0	0	
0.130167	-0.000895832	0.0187927	0.000118226	0.000521041	0	0	0	
0.130333	-0.000318086	-0.00943548	0.000120663	0.00048522	0	0	0	
0.1305	0.00130157	-0.00737616	0.000110369	0.000371046	0	0	0	
0.130667	-0.00246267	0.0124053	8.50192E-05	0.000324015	0	0	0	
0.130833	0.00273874	-0.00556167	5.50992E-05	0.00027439	0	0	0	
0.131	-0.000243606	0.00976557	5.70249E-05	0.000222136	0	0	0	
0.131167	0.000293497	-0.0115314	8.18833E-05	0.000242569	0	0	0	
0.131333	-0.00333293	-0.000805076	9.54144E-05	0.000202154	0	0	0	
0.1315	0.00495812	0.00397025	9.80534E-05	0.000203633	0	0	0	
0.131667	-0.00334627	-0.00382319	8.99214E-05	0.000150449	0	0	0	
0.131833	-0.00150416	-0.00187166	9.74574E-05	0.000113165	0	0	0	
0.132	0.00971028	0.0040144	9.65106E-05	7.23538E-05	0	0	0	
0.132167	-0.0105207	0.00383576	0.00014139	7.51683E-05	0	0	0	
0.132333	0.00129196	-0.00660862	0.000156798	8.79766E-05	0	0	0	
0.1325	0.000815526	0.000504159	0.000134928	0.000108754	0	0	0	
0.132667	0.00565723	0.00488314	7.9371E-05	0.000151418	0	0	0	
0.132833	-0.0052703	-0.00850471	6.74399E-05	0.000176058	0	0	0	
0.133	0.00887657	0.00847327	0.000104673	0.000248558	0	0	0	
0.133167	-0.0153454	-0.00945294	0.000189366	0.000264055	0	0	0	
0.133333	0.0076889	8.19106E-05	0.000260904	0.000273244	0	0	0	
0.1335	-0.00377537	0.0109437	0.000260085	0.00029767	0	0	0	
0.133667	0.00616382	-0.0176123	0.000195087	0.000398908	0	0	0	
0.133833	-0.00543054	0.00264041	0.000161462	0.000477899	0	0	0	
0.134	0.0026236	-0.00164174	0.000187381	0.000372435	0	0	0	
0.134167	-0.00501095	0.00450195	0.000242533	0.000216616	0	0	0	
0.134333	0.0323315	0.0246365	0.000398163	0.000268896	0	0	0	
0.1345	-0.058616	-0.068114	0.000554461	0.000459756	0	0	0	
0.134667	-0.080237	-0.0646447	0.00143922	0.00149262	0	0	0	
0.134833	0.443314	0.483935	0.00266339	0.00304977	0	0	0	
0.135	-1.1036	-1.15883	0.00853794	0.00905828	0	0	0	
0.135167	0.352709	0.361213	0.0118027	0.0122157	0	0	0	
0.135333	-0.00823424	0.00276259	0.0121958	0.0117605	0	0	0	
0.1355	-0.0967092	-0.150131	0.00710243	0.00607272	0	0	0	
0.135667	0.114953	0.201663	0.00344993	0.00297661	0	0	0	
0.135833	-0.0188228	-0.096662	0.00251094	0.00322748	0	0	0	
0.136	-0.400464	-0.362624	0.00493957	0.0069366	0	0	0	
0.136167	-0.0943547	-0.176818	0.00952579	0.0118823	0	0	0	
0.136333	-0.137245	-0.106222	0.0109721	0.0135064	0	0	0	
0.1365	0.0762001	0.0806414	0.00812067	0.00985992	0	0	0	
0.136667	0.0362679	-0.000447372	0.00350129	0.0044736	0	0	0	
0.136833	-0.0230969	-0.0246385	0.00131608	0.00180817	0	0	0	
0.137	-0.0552536	0.00016255	0.00111964	0.00130908	0	0	0	
0.137167	0.102935	0.0305654	0.00105504	0.000790817	0	0	0	
0.137333	-0.0508208	0.0137323	0.00142595	0.000638402	0	0	0	
0.1375	-0.00450029	-0.0603322	0.0014105	0.000737358	0	0	0	
0.137667	0.0207429	0.040718	0.00101766	0.000996112	0	0	0	
0.137833	-0.0138528	-0.00348111	0.000600667	0.00120767	0	0	0	
0.138	0.0185758	-0.000800551	0.000303556	0.00129064	0	0	0	
0.138167	-0.177293	0.0306544	0.00100997	0.00163614	0	0	0	
0.138333	0.222394	0.108235	0.00234185	0.00263645	0	0	0	
0.1385	-0.0383731	0.117329	0.00359849	0.00434029	0	0	0	
0.138667	0.0363411	-0.0181308	0.00317515	0.00431742	0	0	0	
0.138833	-0.00263464	0.039681	0.0018679	0.00305284	0	0	0	
0.139	-0.00559062	-0.0556489	0.000597579	0.00137057	0	0	0	
0.139167	-0.096499	0.10351	0.000579625	0.0009667	0	0	0	
0.139333	-0.0427846	-0.222783	0.00136503	0.00220086	0	0	0	
0.1395	0.151618	0.450585	0.00268902	0.00427574	0	0	0	
0.139667	-0.0515096	-0.114784	0.00298705	0.00528287	0	0	0	
0.139833	-0.0105412	0.0451042	0.00235569	0.00420924	0	0	0	
0.14	0.0277255	0.00161542	0.00115132	0.0020326	0	0	0	
0.140167	-0.0181088	-0.0117442	0.000653185	0.000797787	0	0	0	
0.140333	0.0331926	-0.00653142	0.000536905	0.000421786	0	0	0	
0.1405	-0.0521137	0.0564281	0.000668604	0.000525114	0	0	0	
0.140667	0.0526677	-0.034657	0.00101183	0.000988992	0	0	0	
0.140833	-0.0156616	0.026623	0.00101703	0.00109773	0	0	0	
0.141	0.00552514	-0.0360873	0.000782497	0.000988618	0	0	0	
0.141167	0.0120518	0.0507579	0.0003229	0.000721831	0	0	0	
0.141333	-0.0189562	-0.0330091	0.000244014	0.000820274	0	0	0	
0.1415	0.000619294	-0.00901715	0.000398035	0.000912049	0	0	0	
0.141667	0.0296569	0.0871409	0.000737156	0.000915251	0	0	0	
0.141833	0.012933	-0.0443118	0.000949288	0.00102405	0	0	0	
0.142	-0.00151315	-0.00707699	0.000809885	0.000936162	0	0	0	
0.142167	0.0034978	0.0264433	0.000489058	0.000762888	0	0	0	
0.142333	-0.00891235	0.000328963	0.000248798	0.000446488	0	0	0	
0.1425	0.012492	0.0102418	0.000243717	0.000319422	0	0	0	
0.142667	-0.0143998	-0.0590049	0.000272983	0.000414075	0	0	0	
0.142833	0.0139838	0.0595904	0.000299271	0.000687196	0	0	0	
0.143	-0.00569899	-0.0180253	0.000292362	0.000923118	0	0	0	
0.143167	0.00163367	-0.00499517	0.00021724	0.00088436	0	0	0	
0.143333	-0.00473321	-0.0022527	0.000142715	0.000572702	0	0	0	
0.1435	-0.000113611	0.00675874	0.000106125	0.000303238	0	0	0	
0.143667	-0.000463369	-0.00262878	9.24495E-05	0.000155558	0	0	0	
0.143833	0.00144439	-0.00013741	0.000111074	0.000151444	0	0	0	
0.144	-0.00807107	-0.0139214	0.000151469	0.000191335	0	0	0	
0.144167	0.0198376	0.0112433	0.000216419	0.000199261	0	0	0	
0.144333	-0.0294647	-0.0033756	0.00032965	0.000247051	0	0	0	
0.1445	0.0288025	-0.0066653	0.000474185	0.000183565	0	0	0	
0.144667	-0.0245509	-0.00389421	0.000602306	0.000178044	0	0	0	
0.144833	0.0256596	0.0101212	0.000619239	0.000121672	0	0	0	
0.145	-0.0266496	-0.00837378	0.000604024	0.000178007	0	0	0	
0.145167	0.0149701	-0.00515004	0.000528954	0.000158305	0	0	0	
0.145333	-0.00963929	0.00726078	0.000420859	0.000186562	0	0	0	
0.1455	0.00991991	0.00369454	0.000255896	0.000177145	0	0	0	
0.145667	-0.0166827	-0.0205653	0.000220072	0.00024459	0	0	0	
0.145833	0.0213626	0.0215861	0.000267251	0.000310637	0	0	0	
0.146	-0.0151901	-0.0172218	0.000364205	0.000386516	0	0	0	
0.146167	0.00921827	0.0123538	0.000360332	0.000376456	0	0	0	
0.146333	-0.0106958	-0.00511978	0.000293234	0.000325151	0	0	0	
0.1465	0.00913332	0.00354889	0.000234974	0.000306111	0	0	0	
0.146667	-0.0138295	0.0065387	0.000279263	0.00025036	0	0	0	
0.146833	0.0131573	-0.00997524	0.000300909	0.000249554	0	0	0	
0.147	-0.013061	0.0045218	0.000326373	0.000170274	0	0	0	
0.147167	0.0185191	-0.00525641	0.000300735	0.000182097	0	0	0	
0.147333	-0.0112332	0.0125715	0.000325683	0.000209298	0	0	0	
0.1475	0.00353417	-0.00988587	0.000246461	0.000287815	0	0	0	
0.147667	-0.000230698	0.00173629	0.000204674	0.000337238	0	0	0	
0.147833	-0.010643	0.00981618	0.000210326	0.000262055	0	0	0	
0.148	0.0183205	-0.0139301	0.000295903	0.000203405	0	0	0	
0.148167	-0.0176811	0.0125569	0.000350455	0.000215767	0	0	0	
0.148333	0.00980742	-0.000545268	0.000326467	0.000270825	0	0	0	
0.1485	-0.00200256	0.00290888	0.00025176	0.000211276	0	0	0	
0.148667	-0.0013075	-0.00605715	0.000172096	0.000177482	0	0	0	
0.148833	-0.001352	0.00817195	0.000136577	0.000184499	0	0	0	
0.149	-0.0048159	-0.00589386	0.00016539	0.000227483	0	0	0	
0.149167	0.0067424	-0.00372463	0.000230752	0.00023045	0	0	0	
0.149333	-0.00793325	0.00877221	0.000289216	0.000222231	0	0	0	
0.1495	0.00803974	-0.00590862	0.000300197	0.000209215	0	0	0	
0.149667	-0.00885902	-0.000422364	0.000250618	0.000187979	0	0	0	
0.149833	0.00131815	0.0059134	0.00018557	0.000169333	0	0	0	
0.15	-0.00362081	0.00152124	0.000168672	0.000185308	0	0	0	
0.150167	0.00639069	0.00300716	0.000175959	0.000202253	0	0	0	
0.150333	-0.0047717	-0.0140419	0.000177554	0.000223817	0	0	0	
0.1505	-0.00128891	0.0118713	0.000152951	0.000286722	0	0	0	
0.150667	0.00280786	0.000686136	0.000137118	0.000250025	0	0	0	
0.150833	-0.00135469	-0.00489752	0.000133493	0.000188283	0	0	0	
0.151	-0.00333924	0.000462568	0.00013835	8.79858E-05	0	0	0	
0.151167	0.00602339	0.00561404	0.000146244	8.50057E-05	0	0	0	
0.151333	0.00181331	-0.00119442	0.000154933	0.000155251	0	0	0	
0.1515	-0.0109183	-0.00184235	0.000168166	0.000241876	0	0	0	
0.151667	0.0107276	0.00365219	0.000196565	0.000287516	0	0	0	
0.151833	-0.00810507	0.00843609	0.000208512	0.000226029	0	0	0	
0.152	0.00919781	-0.0104153	0.000208732	0.000185601	0	0	0	
0.152167	-0.00704117	-0.000423853	0.000199717	0.000179602	0	0	0	
0.152333	0.0052962	0.0108453	0.000193317	0.000238478	0	0	0	
0.1525	-0.0076503	-0.00585404	0.000185625	0.000254856	0	0	0	
0.152667	0.00633901	-0.00165329	0.000189839	0.000228383	0	0	0	
0.152833	-0.000366346	0.00593076	0.000199385	0.000158045	0	0	0	
0.153	-0.00429455	-0.00281553	0.000183816	0.00012623	0	0	0	
0.153167	0.00695423	-0.00376756	0.000145782	0.000114521	0	0	0	
0.153333	-0.00511573	0.00911327	0.000135197	0.000138721	0	0	0	
0.1535	0.000114005	-0.00179607	0.000126008	0.000152773	0	0	0	
0.153667	0.00128074	-0.00208384	9.62499E-05	0.000151725	0	0	0	
0.153833	-0.00643577	-0.00394723	6.97285E-05	0.000147457	0	0	0	
0.154	0.01035	0.0134114	9.48949E-05	0.000128892	0	0	0	
0.154167	-7.59349E-05	-0.0126117	0.000125042	0.000210911	0	0	0	
0.154333	-0.0108975	0.00463314	0.000136942	0.00028863	0	0	0	
0.1545	0.0093603	0.00261942	0.0001491	0.000345348	0	0	0	
0.154667	-0.00382109	-0.011623	0.00016837	0.000405857	0	0	0	
0.154833	0.00583241	0.0301383	0.000157763	0.000489402	0	0	0	
0.155	-0.00656455	-0.0222169	0.000155818	0.0005202	0	0	0	
0.155167	-0.00383713	-0.0104959	0.000163795	0.000590547	0	0	0	
0.155333	0.00513455	0.0228956	0.000177195	0.000577501	0	0	0	
0.1555	0.0029091	-0.0051159	0.000213005	0.000521832	0	0	0	
0.155667	0.00117879	-0.00733019	0.000206147	0.000426696	0	0	0	
0.155833	-0.0119214	-0.00605489	0.000222233	0.000289621	0	0	0	
0.156	0.0102802	0.0153904	0.000203161	0.000287134	0	0	0	
0.156167	-0.00757309	0.00971188	0.000204442	0.000305119	0	0	0	
0.156333	0.00791066	-0.026988	0.000213255	0.000375261	0	0	0	
0.1565	-0.00918782	0.0036415	0.000197733	0.000426363	0	0	0	
0.156667	0.00907947	0.0229922	0.000189251	0.000342839	0	0	0	
0.156833	-0.00693016	-0.0201156	0.000183718	0.000394276	0	0	0	
0.157	0.00454083	-0.00410429	0.000167704	0.000382568	0	0	0	
0.157167	-0.00117327	0.00303031	0.000153262	0.000318549	0	0	0	
0.157333	0.00109188	0.00981628	0.000125513	0.000208247	0	0	0	
0.1575	-0.000358689	-0.00166906	0.000124143	0.000115265	0	0	0	
0.157667	0.00110397	-0.0118724	0.000131766	0.000191482	0	0	0	
0.157833	-0.00431493	0.0142228	0.000140381	0.000231179	0	0	0	
0.158	0.00814983	0.000500509	0.000147145	0.000238621	0	0	0	
0.158167	-0.00958504	-0.00914897	0.000160858	0.000169724	0	0	0	
0.158333	0.00482257	-0.00102249	0.000179044	0.000122917	0	0	0	
0.1585	0.00262273	0.0156578	0.000158425	0.000149387	0	0	0	
0.158667	-0.00150831	-0.00908204	0.000124406	0.000212484	0	0	0	
0.158833	-0.0015368	-0.00437839	8.21052E-05	0.000191275	0	0	0	
0.159	0.00332961	0.0145541	6.72941E-05	0.000213606	0	0	0	
0.159167	-0.00356707	-0.00302132	6.39435E-05	0.000173032	0	0	0	
0.159333	0.000599001	-0.00629973	7.96728E-05	0.000156838	0	0	0	
0.1595	0.00199326	0.00932923	0.000100337	0.000145173	0	0	0	
0.159667	-0.00107144	-0.0108136	0.000101179	0.000194879	0	0	0	
0.159833	0.00163892	0.00907584	0.000116575	0.00032155	0	0	0	
0.16	-0.00019952	-0.0132088	0.000100264	0.000284277	0	0	0	
0.160167	-0.00517505	0.00153085	0.000100567	0.000294225	0	0	0	
0.160333	0.00446142	0.0104113	9.30307E-05	0.000250958	0	0	0	
0.1605	0.00040923	-0.00700704	8.39392E-05	0.000248966	0	0	0	
0.160667	0.0023649	0.00662659	8.11719E-05	0.000247579	0	0	0	
0.160833	-0.0100953	-0.0119789	9.13522E-05	0.000309509	0	0	0	
0.161	0.00882784	-0.0054042	0.000146286	0.000393651	0	0	0	
0.161167	-0.00251966	0.0140204	0.000166147	0.000390653	0	0	0	
0.161333	-0.000480326	-0.0176053	0.000132034	0.0003287	0	0	0	
0.1615	-0.001134	0.0146816	9.08262E-05	0.000314076	0	0	0	
0.161667	0.00211151	-0.00798085	6.0137E-05	0.000283887	0	0	0	
0.161833	-0.000122486	0.0146101	5.90504E-05	0.000278387	0	0	0	
0.162	-0.000659036	-0.0170365	3.45451E-05	0.00026759	0	0	0	
0.162167	0.000694419	0.00866456	6.29702E-05	0.000267586	0	0	0	
0.162333	0.00188792	-0.0092446	8.28571E-05	0.000271643	0	0	0	
0.1625	-0.00272681	0.00084941	0.000103874	0.000277126	0	0	0	
0.162667	0.00315503	0.00639605	7.83738E-05	0.000262407	0	0	0	
0.162833	-0.00458259	-0.00901839	6.82843E-05	0.000202069	0	0	0	
0.163	0.00457031	0.00288698	9.76259E-05	0.000174007	0	0	0	
0.163167	-0.000695353	0.00405403	0.000115405	0.000156077	0	0	0	
0.163333	0.00179991	-0.0102119	9.91043E-05	0.000168965	0	0	0	
0.1635	-0.00418903	0.00293173	7.39269E-05	0.000146765	0	0	0	
0.163667	0.00275483	-0.00181702	6.4617E-05	0.000133299	0	0	0	
0.163833	-0.000908963	0.00571787	6.87655E-05	0.00014979	0	0	0	
0.164	0.00135636	-0.0102938	6.68453E-05	0.000164283	0	0	0	
0.164167	-0.00466692	0.00129201	8.63858E-05	0.000177055	0	0	0	
0.164333	0.00514533	0.000264356	0.000116551	0.000123635	0	0	0	
0.1645	-0.00415295	0.0023861	0.00012367	7.20633E-05	0	0	0	
0.164667	0.00591037	-0.00318046	0.000116156	6.00217E-05	0	0	0	
0.164833	-0.00268575	0.0012304	0.000102635	7.62084E-05	0	0	0	
0.165	-0.0022074	0.00469285	8.01013E-05	9.76737E-05	0	0	0	
0.165167	0.000672571	0.00224613	8.44575E-05	8.42878E-05	0	0	0	
0.165333	-0.00348859	-0.0113797	7.72016E-05	0.000101186	0	0	0	
0.1655	-0.000285709	0.00829643	8.86788E-05	0.000163975	0	0	0	
0.165667	0.00859165	0.00342915	9.43552E-05	0.000195292	0	0	0	
0.165833	-0.00622769	-0.00743664	0.000127212	0.000197494	0	0	0	
0.166	0.00245465	0.00246904	0.000148248	0.000174862	0	0	0	
0.166167	-0.00559564	0.00128116	0.000125507	0.000171095	0	0	0	
0.166333	0.00168519	0.000162437	0.000102798	0.000169888	0	0	0	
0.1665	-0.00330076	0.00642837	7.09781E-05	0.000200067	0	0	0	
0.166667	0.00504146	-0.00508326	0.000102618	0.000242173	0	0	0	
0.166833	-0.00369243	0.000816799	8.83934E-05	0.000229685	0	0	0	
0.167	0.000881518	-0.0015426	0.000104398	0.000134036	0	0	0	
0.167167	0.0033849	-0.00676756	7.88609E-05	6.59475E-05	0	0	0	
0.167333	-0.00540432	0.00800379	9.15505E-05	8.48043E-05	0	0	0	
0.1675	0.00238948	-0.00570905	9.29349E-05	0.00013641	0	0	0	
0.167667	0.000658328	0.00811207	7.41525E-05	0.000203619	0	0	0	
0.167833	-0.00232449	-0.000340223	5.01104E-05	0.000204467	0	0	0	
0.168	0.00203625	-0.00253541	5.38505E-05	0.000167924	0	0	0	
0.168167	0.00774015	0.0059466	8.56951E-05	0.000126444	0	0	0	
0.168333	-0.011583	-0.00263078	0.00018758	0.000104332	0	0	0	
0.1685	-0.00236479	0.000173217	0.000186907	0.000116764	0	0	0	
0.168667	-0.0016459	-0.000365992	0.000185667	8.82443E-05	0	0	0	
0.168833	-0.00328716	0.00763202	9.28962E-05	8.09336E-05	0	0	0	
0.169	0.00979994	-0.00707358	0.000107861	0.000140735	0	0	0	
0.169167	-0.0132945	-0.00776348	0.000163392	0.000245205	0	0	0	
0.169333	0.00472569	0.0202691	0.000200608	0.000307387	0	0	0	
0.1695	-0.112991	-0.0467897	0.000624522	0.000783042	0	0	0	
0.169667	-0.0770056	0.119333	0.00138999	0.00178922	0	0	0	
0.169833	0.0385852	-0.0247122	0.00169759	0.00212141	0	0	0	
0.17	-0.012387	0.0301654	0.00139315	0.00201341	0	0	0	
0.170167	-0.0191398	-0.0113461	0.000633319	0.00106174	0	0	0	
0.170333	-0.00728912	0.0337443	0.000331816	0.000892899	0	0	0	
0.1705	0.00836067	-0.012646	0.000379805	0.000930322	0	0	0	
0.170667	-0.00844661	-0.0354577	0.000388238	0.000998441	0	0	0	
0.170833	0.000254263	0.00799927	0.000393426	0.00107479	0	0	0	
0.171	0.00279458	0.0391694	0.00024591	0.00092205	0	0	0	
0.171167	-0.00901903	-0.0159818	0.000182926	0.000810948	0	0	0	
0.171333	0.000309258	0.0048617	0.000150482	0.000564633	0	0	0	
0.1715	0.00394516	-0.0633341	0.000104204	0.000438068	0	0	0	
0.171667	-0.000396735	0.0701149	7.04961E-05	0.000757687	0	0	0	
0.171833	-0.00379774	-0.0501553	6.14223E-05	0.000952048	0	0	0	
0.172	0.00329721	0.0365485	7.46208E-05	0.0010856	0	0	0	
0.172167	-0.00396033	-0.0175099	0.000151708	0.00100006	0	0	0	
0.172333	-0.000170809	-0.00878359	0.000173834	0.000932461	0	0	0	
0.1725	-0.00114904	0.00300321	0.000143924	0.000665082	0	0	0	
0.172667	0.00808795	0.000106369	9.54597E-05	0.000309316	0	0	0	
0.172833	-0.00795208	0.0200592	0.000123183	0.000223192	0	0	0	
0.173	0.00465996	-0.00277966	0.000163829	0.000397266	0	0	0	
0.173167	-0.00811796	-0.0328604	0.000159964	0.000708594	0	0	0	
0.173333	0.00363267	0.0274067	0.000123121	0.000763656	0	0	0	
0.1735	0.00764643	-0.0105868	9.84045E-05	0.000640494	0	0	0	
0.173667	-0.00257056	0.000546287	0.000146054	0.000429865	0	0	0	
0.173833	-0.0357411	0.0227859	0.00034216	0.000354299	0	0	0	
0.174	0.0585857	-0.0487998	0.000748779	0.000509633	0	0	0	
0.174167	-0.0177153	0.0253792	0.00102342	0.000728873	0	0	0	
0.174333	-0.00578648	-0.0128451	0.000900514	0.000737001	0	0	0	
0.1745	0.00668664	0.00472519	0.000531291	0.000500216	0	0	0	
0.174667	-0.0123037	-0.00320454	0.000226834	0.000203424	0	0	0	
0.174833	0.0217377	0.0113503	0.000231238	0.000252721	0	0	0	
0.175	-0.0234718	0.0134177	0.00046535	0.000353251	0	0	0	
0.175167	0.0308252	-0.0274423	0.000830626	0.000447525	0	0	0	
0.175333	-0.00833736	0.0105368	0.000925156	0.00043664	0	0	0	
0.1755	0.000580224	0.000933024	0.000665055	0.000332661	0	0	0	
0.175667	-0.00268503	0.00135795	0.000275862	0.000217953	0	0	0	
0.175833	0.00160178	0.000955469	7.72083E-05	7.18168E-05	0	0	0	
0.176	0.00726875	-0.0115838	7.5186E-05	8.73933E-05	0	0	0	
0.176167	-0.00739526	0.0382865	0.00010533	0.000215683	0	0	0	
0.176333	0.0154245	-0.0200655	0.000175923	0.000396595	0	0	0	
0.1765	-0.00581789	0.00462938	0.000249433	0.000438257	0	0	0	
0.176667	0.00341247	0.00295893	0.000231055	0.000347898	0	0	0	
0.176833	-0.00373666	0.00468852	0.000171531	0.000193286	0	0	0	
0.177	0.00297306	-0.0149995	0.000107998	0.000168752	0	0	0	
0.177167	0.00725933	0.0107678	0.000131842	0.000263396	0	0	0	
0.177333	0.00511869	-0.0119675	0.0001519	0.000463996	0	0	0	
0.1775	-0.00179095	0.0250262	0.000164019	0.000637357	0	0	0	
0.177667	0.00139977	-0.0182758	0.000122664	0.000645471	0	0	0	
0.177833	-0.0036897	0.00454934	9.50974E-05	0.000473999	0	0	0	
0.178	0.00458295	0.00442791	6.68203E-05	0.000244857	0	0	0	
0.178167	-0.00261401	-0.0100814	6.92158E-05	0.000182782	0	0	0	
0.178333	0.00651392	0.011625	9.14609E-05	0.000229402	0	0	0	
0.1785	-0.00350695	-0.0137402	0.000108084	0.000314523	0	0	0	
0.178667	0.00216739	0.00442039	0.000107045	0.000303066	0	0	0	
0.178833	-0.000575526	-0.00305222	9.01441E-05	0.000223311	0	0	0	
0.179	0.000807119	0.00457631	5.38475E-05	0.000128144	0	0	0	
0.179167	-0.00212237	0.000449988	3.96137E-05	9.06613E-05	0	0	0	
0.179333	-0.00214815	0.00543291	2.59672E-05	7.80198E-05	0	0	0	
0.1795	0.000573312	-0.00421661	4.71102E-05	0.000120857	0	0	0	
0.179667	0.00376881	-0.00711085	6.4103E-05	0.000103239	0	0	0	
0.179833	-0.00225352	0.00270477	8.2597E-05	0.000138128	0	0	0	
0.18	0.00124273	-0.00390818	6.78449E-05	0.000115057	0	0	0	
0.180167	-0.0032364	0.0138495	5.30801E-05	0.000126251	0	0	0	
0.180333	0.00455416	-0.00928511	5.21764E-05	0.000195569	0	0	0	
0.1805	-0.00751629	0.00138237	7.00918E-05	0.000215153	0	0	0	
0.180667	0.00653648	-0.00623085	0.000104989	0.000229532	0	0	0	
0.180833	-0.00111328	-7.38351E-05	0.000104204	0.000199392	0	0	0	
0.181	-1.77743E-05	0.00256709	8.49098E-05	0.000187695	0	0	0	
0.181167	-0.00180658	-0.00417686	4.77178E-05	0.000149245	0	0	0	
0.181333	0.00295176	-0.00571725	4.48115E-05	9.22051E-05	0	0	0	
0.1815	-0.00341516	0.00287983	5.46856E-05	9.2361E-05	0	0	0	
0.181667	0.00385389	-0.00359761	6.72556E-05	0.000119637	0	0	0	
0.181833	-0.00228976	0.00318619	6.57887E-05	0.000127213	0	0	0	
0.182	-0.000207222	-0.0038121	5.34495E-05	0.000102393	0	0	0	
0.182167	0.00068919	0.0096893	3.66761E-05	0.000105072	0	0	0	
0.182333	0.00280679	-0.0199679	3.32591E-05	0.000144228	0	0	0	
0.1825	-0.0048742	0.000327545	6.18073E-05	0.000232265	0	0	0	
0.182667	0.00276174	0.0105867	8.02556E-05	0.000281265	0	0	0	
0.182833	-0.000301879	-0.0043111	8.7629E-05	0.00023708	0	0	0	
0.183	0.00181519	-0.0028825	7.98162E-05	0.000223712	0	0	0	
0.183167	-0.00340895	-0.00307117	7.58701E-05	0.000173567	0	0	0	
0.183333	-0.000702	0.00593378	6.08311E-05	0.000179942	0	0	0	
0.1835	0.009038	-0.00647628	6.75552E-05	0.000251312	0	0	0	
0.183667	-0.00677743	-0.000762736	0.000101738	0.000441479	0	0	0	
0.183833	-0.00517029	-0.00339638	0.000144248	0.000572567	0	0	0	
0.184	0.0108882	0.0142499	0.000164606	0.000575139	0	0	0	
0.184167	-0.00551861	0.00549141	0.000161142	0.000507834	0	0	0	
0.184333	0.00062412	-0.0292081	0.00012948	0.000475836	0	0	0	
0.1845	-0.00131129	0.025243	9.03925E-05	0.000478476	0	0	0	
0.184667	0.00672888	0.0120272	0.000105679	0.000638463	0	0	0	
0.184833	-0.00143538	-0.036495	0.000142584	0.000735216	0	0	0	
0.185	-0.00126167	0.00730911	0.000154391	0.000713317	0	0	0	
0.185167	-0.00366966	0.00978898	0.000154008	0.000426521	0	0	0	
0.185333	0.00274328	0.00706004	0.000140618	0.000255232	0	0	0	
0.1855	-5.39088E-05	-0.00803802	0.000134566	0.000159623	0	0	0	
0.185667	0.00376025	-0.0100876	0.000116336	0.000349486	0	0	0	
0.185833	-0.00607699	0.00285918	0.000146387	0.000603126	0	0	0	
0.186	0.00138378	-0.0254575	0.000159495	0.000864241	0	0	0	
0.186167	0.00161047	0.0367015	0.000115494	0.000927919	0	0	0	
0.186333	-0.00254294	-0.0249033	6.04735E-05	0.000808886	0	0	0	
0.1865	0.00178493	0.00958098	4.39252E-05	0.000616835	0	0	0	
0.186667	-0.0043729	-0.00591845	5.44627E-05	0.000375495	0	0	0	
0.186833	0.00291144	0.0047132	6.52206E-05	0.000274025	0	0	0	
0.187	-0.000206663	-0.00823458	7.49991E-05	0.000258646	0	0	0	
0.187167	-0.00261627	0.00919088	6.80747E-05	0.000371979	0	0	0	
0.187333	0.00269459	-0.00638155	6.87108E-05	0.000501009	0	0	0	
0.1875	6.71053E-05	0.0103144	5.69787E-05	0.000530523	0	0	0	
0.187667	-0.000328291	-0.00802664	4.90204E-05	0.00041619	0	0	0	
0.187833	0.00056197	-0.0010063	3.32615E-05	0.000247059	0	0	0	
0.188	-0.000515964	0.00890031	3.34464E-05	0.000179459	0	0	0	
0.188167	5.54166E-05	-0.0214184	4.19397E-05	0.000221596	0	0	0	
0.188333	0.00669615	0.0256391	7.58276E-05	0.000293561	0	0	0	
0.1885	-0.000656111	-0.0116879	8.9364E-05	0.000369598	0	0	0	
0.188667	0.000297464	0.00655603	8.62691E-05	0.000327233	0	0	0	
0.188833	-0.00394585	-0.0169992	4.88507E-05	0.000262529	0	0	0	
0.189	0.0106077	0.0236169	6.83191E-05	0.000332221	0	0	0	
0.189167	-0.00770372	0.00134903	0.000126179	0.000421579	0	0	0	
0.189333	0.00650324	-0.0266129	0.000156757	0.000480624	0	0	0	
0.1895	-0.00331721	0.0130442	0.000148619	0.000405498	0	0	0	
0.189667	0.00243694	-0.00223281	0.000109215	0.000347965	0	0	0	
0.189833	0.00246128	-0.00268028	9.3667E-05	0.000263827	0	0	0	
0.19	-0.00109798	0.0141834	0.000109305	0.000231182	0	0	0	
0.190167	-0.00168875	-0.0134496	0.000193352	0.000310437	0	0	0	
0.190333	0.00769576	0.0183979	0.000282013	0.000382457	0	0	0	
0.1905	-0.00816719	-0.0166949	0.000294963	0.000373249	0	0	0	
0.190667	0.00127876	0.000886926	0.000209037	0.000308928	0	0	0	
0.190833	0.00478989	0.000250958	0.000124439	0.000223777	0	0	0	
0.191	-0.00262337	0.00139116	8.25981E-05	0.000174582	0	0	0	
0.191167	-0.00139667	0.00959023	8.18716E-05	0.00011233	0	0	0	
0.191333	-0.00102034	-0.0128383	7.78699E-05	0.000163982	0	0	0	
0.1915	0.00522521	0.00642238	8.10463E-05	0.000265617	0	0	0	
0.191667	-0.00741692	0.00545623	0.000109921	0.000454335	0	0	0	
0.191833	0.000206276	-0.0106096	0.000107178	0.000496471	0	0	0	
0.192	0.00107333	-0.00143399	8.09118E-05	0.000376336	0	0	0	
0.192167	0.000276414	0.0101005	3.38541E-05	0.000207856	0	0	0	
0.192333	0.00192024	-0.0027608	2.97141E-05	0.000159152	0	0	0	
0.1925	-0.00899859	-0.00724839	0.00010153	0.00016417	0	0	0	
0.192667	0.00265007	-0.0020278	0.000167465	0.000183471	0	0	0	
0.192833	-0.0033623	0.00637183	0.000194127	0.000203438	0	0	0	
0.193	0.00123289	-0.00184206	0.0001469	0.000186603	0	0	0	
0.193167	0.00331335	-0.00297288	0.000110304	0.000120839	0	0	0	
0.193333	-0.00152479	0.00766683	0.000111562	0.00010561	0	0	0	
0.1935	-0.0106707	-0.00768603	0.000135205	0.00017702	0	0	0	
0.193667	0.00951288	-0.00702069	0.000181233	0.000364609	0	0	0	
0.193833	-0.0110137	-0.00891964	0.000183339	0.000381976	0	0	0	
0.194	0.00845179	-0.0013518	0.000191351	0.000326122	0	0	0	
0.194167	-0.00619051	0.00938909	0.00016422	0.00017291	0	0	0	
0.194333	0.00292917	-0.00912467	0.00016845	0.000144862	0	0	0	
0.1945	-0.00272161	0.0248721	0.000170732	0.000291346	0	0	0	
0.194667	-0.0072473	-0.0107203	0.000148204	0.000431622	0	0	0	
0.194833	0.00787735	-0.00449157	0.000150811	0.000481096	0	0	0	
0.195	-0.00492884	0.00111203	0.000126118	0.00048576	0	0	0	
0.195167	0.00231967	0.00715699	0.000134659	0.000449128	0	0	0	
0.195333	-0.00216367	-0.00903276	0.000104801	0.000424451	0	0	0	
0.1955	-0.000209206	0.013808	8.95902E-05	0.000319767	0	0	0	
0.195667	0.00536263	-0.0047312	7.40796E-05	0.000294119	0	0	0	
0.195833	-0.00300818	-0.0031831	0.000109781	0.000308109	0	0	0	
0.196	-0.00234334	-0.00276869	0.000173278	0.000278986	0	0	0	
0.196167	0.00271881	0.00125699	0.000210632	0.000177186	0	0	0	
0.196333	-0.000876597	0.00321528	0.000166946	9.32129E-05	0	0	0	
0.1965	-0.00567438	-0.0236689	9.55508E-05	0.000131284	0	0	0	
0.196667	0.0132922	0.0336679	0.000121454	0.000338273	0	0	0	
0.196833	-0.00440498	-0.0357803	0.000177588	0.000528484	0	0	0	
0.197	0.00295166	0.0198544	0.000179163	0.00057881	0	0	0	
0.197167	-0.00301061	-0.0188989	0.000130919	0.000505337	0	0	0	
0.197333	-0.00241437	0.00495331	7.61428E-05	0.000436367	0	0	0	
0.1975	0.00636477	0.00687559	8.59747E-05	0.000427334	0	0	0	
0.197667	-0.00544722	-0.0227624	0.000157202	0.000344461	0	0	0	
0.197833	0.00492376	0.00940198	0.000296913	0.000325391	0	0	0	
0.198	0.0157299	-0.0154988	0.000342379	0.000280805	0	0	0	
0.198167	-0.00224555	0.0255607	0.000310869	0.000364283	0	0	0	
0.198333	0.000335199	-0.0167583	0.000159128	0.000351001	0	0	0	
0.1985	-0.00247656	-0.0229044	0.000109376	0.000516999	0	0	0	
0.198667	-0.00445217	0.0732288	0.000102129	0.000652718	0	0	0	
0.198833	0.00825459	-0.0570025	0.00015438	0.000930982	0	0	0	
0.199	0.00792226	0.0153811	0.000187873	0.000870892	0	0	0	
0.199167	0.00139698	-0.0227731	0.000254315	0.000702803	0	0	0	
0.199333	0.00266075	0.0261661	0.000281809	0.000512629	0	0	0	
0.1995	-0.00618147	0.00635286	0.000268784	0.000500456	0	0	0	
0.199667	0.00722886	-0.0231581	0.000175777	0.000488515	0	0	0	
0.199833	-0.006794	0.0587795	0.000139916	0.000644664	0	0	0	
0.2	-0.00300831	-0.0774238	0.000126417	0.00100277	0	0	0	
0.200167	0.0114276	0.0314216	0.000139763	0.0012829	0	0	0	
0.200333	-0.00578044	0.00205472	0.000139949	0.00138758	0	0	0	
0.2005	0.000513424	-0.0211825	0.000131533	0.00121484	0	0	0	
0.200667	0.00349349	0.0289153	8.42791E-05	0.000993266	0	0	0	
0.200833	-0.00930337	-0.0161859	7.43908E-05	0.000682321	0	0	0	
0.201	0.00950319	-0.0199823	0.000119765	0.000586931	0	0	0	
0.201167	-0.00854731	0.0557784	0.000171563	0.000782703	0	0	0	
0.201333	0.00514255	-0.0645536	0.000180953	0.00101986	0	0	0	
0.2015	-0.00460582	0.0347633	0.00013721	0.0011435	0	0	0	
0.201667	0.00343686	0.000643066	0.000105995	0.00104016	0	0	0	
0.201833	-0.00035997	-0.000520746	7.12611E-05	0.00075104	0	0	0	
0.202	-0.000153331	-0.0281681	7.57279E-05	0.000486724	0	0	0	
0.202167	0.00554622	0.0220436	0.000100552	0.000426637	0	0	0	
0.202333	-0.00688416	-0.00521173	0.00014412	0.00046073	0	0	0	
0.2025	0.00230889	0.0151576	0.000154749	0.000420044	0	0	0	
0.202667	0.00229785	-0.00873592	0.000109596	0.000306848	0	0	0	
0.202833	-0.00284715	0.00828927	6.88104E-05	0.00021717	0	0	0	
0.203	-0.00106492	-0.031745	3.88968E-05	0.00025309	0	0	0	
0.203167	0.00831082	0.0313748	6.26651E-05	0.000393275	0	0	0	
0.203333	-0.00305799	-0.0028028	9.20658E-05	0.000436629	0	0	0	
0.2035	-0.00267941	-0.00581717	9.80266E-05	0.000409693	0	0	0	
0.203667	0.0013445	0.00344778	7.72879E-05	0.000201786	0	0	0	
0.203833	0.0023786	-0.00301419	4.62636E-05	0.000186214	0	0	0	
0.204	-0.0058076	0.000769529	5.63176E-05	0.000109183	0	0	0	
0.204167	0.00718399	-0.0107637	9.33181E-05	0.000172077	0	0	0	
0.204333	-0.00433589	0.00753774	0.000124873	0.000314557	0	0	0	
0.2045	0.00872824	0.00662584	0.000138566	0.000550448	0	0	0	
0.204667	-0.011776	-0.0176594	0.00015728	0.000644336	0	0	0	
0.204833	0.00474258	0.00558825	0.000163507	0.000511906	0	0	0	
0.205	0.000788635	-0.00614063	0.000139457	0.000289614	0	0	0	
0.205167	0.00210742	0.0147058	9.39189E-05	0.000189697	0	0	0	
0.205333	-0.00325788	-0.00845922	6.59052E-05	0.000192125	0	0	0	
0.2055	0.00224728	-0.0120451	8.0741E-05	0.000308775	0	0	0	
0.205667	0.00080319	0.0187208	9.13495E-05	0.000373637	0	0	0	
0.205833	-7.00743E-05	-0.00380483	0.000117236	0.000355169	0	0	0	
0.206	0.000571604	-0.00895851	0.000129108	0.000282614	0	0	0	
0.206167	-0.0014602	0.000241577	0.000117278	0.00016866	0	0	0	
0.206333	0.00147682	0.0143071	9.41E-05	0.000163202	0	0	0	
0.2065	0.00174757	-0.0126935	7.81179E-05	0.000222826	0	0	0	
0.206667	0.00322209	-0.00389825	7.3011E-05	0.000275702	0	0	0	
0.206833	-0.00672505	0.00729404	8.13886E-05	0.000318686	0	0	0	
0.207	0.00437335	0.00148925	9.0592E-05	0.000227418	0	0	0	
0.207167	-0.00164905	0.00202232	9.20918E-05	0.000176602	0	0	0	
0.207333	0.00470443	-0.0108033	6.91728E-05	0.000127018	0	0	0	
0.2075	-0.00349146	0.00945379	6.36744E-05	0.00025952	0	0	0	
0.207667	-0.00255907	0.000524874	7.79978E-05	0.000428627	0	0	0	
0.207833	0.0041088	0.00277041	9.16449E-05	0.00043823	0	0	0	
0.208	-0.0012612	-0.00609892	8.16676E-05	0.000296632	0	0	0	
0.208167	-0.00170626	0.000193335	7.55029E-05	0.000135094	0	0	0	
0.208333	0.00377029	-0.00162458	5.99391E-05	0.000150851	0	0	0	
0.2085	-0.00286639	0.00995322	6.75447E-05	0.000273298	0	0	0	
0.208667	0.00325484	-0.00991758	5.799E-05	0.000405035	0	0	0	
0.208833	-0.00442973	0.0191517	7.96801E-05	0.000392044	0	0	0	
0.209	0.000768207	-0.0120757	8.26267E-05	0.000332366	0	0	0	
0.209167	0.000461964	-5.39209E-05	9.54613E-05	0.00023385	0	0	0	
0.209333	0.00138488	0.00832657	7.59641E-05	0.00022154	0	0	0	
0.2095	-0.00366184	-0.00514799	6.92805E-05	0.0001633	0	0	0	
0.209667	0.0076125	-0.0124803	6.85128E-05	0.000142822	0	0	0	
0.209833	-0.0115867	0.0151931	0.000127038	0.000177955	0	0	0	
0.21	0.0119346	-0.0117372	0.000176614	0.000242671	0	0	0	
0.210167	-0.0076066	0.00426237	0.000217912	0.000244652	0	0	0	
0.210333	0.00226649	-0.00305799	0.000170252	0.000189219	0	0	0	
0.2105	-0.00135398	-0.000796835	0.000112208	0.000101424	0	0	0	
0.210667	0.00188639	0.00283827	8.0767E-05	7.06633E-05	0	0	0	
0.210833	-0.00146611	-0.0132276	0.000114405	0.000113155	0	0	0	
0.211	-0.000309886	-0.00828116	0.000159438	0.000154627	0	0	0	
0.211167	0.0036307	0.0183086	0.000174914	0.00020337	0	0	0	
0.211333	-0.00207073	-0.00851093	0.00014856	0.000246857	0	0	0	
0.2115	0.00108253	-0.00332137	0.000102281	0.00027711	0	0	0	
0.211667	-0.0032793	0.00709114	5.81155E-05	0.00026647	0	0	0	
0.211833	0.00441752	-0.00227644	6.01728E-05	0.000186717	0	0	0	
0.212	-0.000639598	-0.00178543	7.98967E-05	0.00013101	0	0	0	
0.212167	-0.00012928	0.0120146	0.000130819	0.000198701	0	0	0	
0.212333	-0.00118261	-0.014164	0.000146729	0.000336853	0	0	0	
0.2125	0.00167136	0.0172261	0.000128464	0.000376647	0	0	0	
0.212667	-0.00057749	-0.0134061	9.49315E-05	0.000377838	0	0	0	
0.212833	-0.00614012	-0.00632178	0.000130589	0.00037669	0	0	0	
0.213	0.0197205	0.02468	0.000233368	0.000431326	0	0	0	
0.213167	-0.0220517	-0.00611198	0.00033713	0.00041192	0	0	0	
0.213333	0.00946704	-0.0202373	0.000352148	0.000414573	0	0	0	
0.2135	0.000970418	0.0219994	0.000266725	0.000422713	0	0	0	
0.213667	-0.00389795	-0.00758372	0.000151187	0.000415961	0	0	0	
0.213833	0.00663491	-0.00546481	8.67023E-05	0.000290302	0	0	0	
0.214	-0.00715592	0.00827682	0.000118285	0.000178045	0	0	0	
0.214167	-0.00199795	0.00312644	0.000140089	0.000164846	0	0	0	
0.214333	0.00973737	-0.00789511	0.000183139	0.000292653	0	0	0	
0.2145	-0.0107022	0.0166792	0.00022522	0.000457069	0	0	0	
0.214667	0.00669858	-0.00769772	0.000239211	0.000497846	0	0	0	
0.214833	-0.000820856	0.00938651	0.000184709	0.000410706	0	0	0	
0.215	0.0022972	-0.0333786	0.000100652	0.000480028	0	0	0	
0.215167	-0.0114849	0.0246825	0.000108925	0.000694633	0	0	0	
0.215333	0.00933009	-0.0221341	0.000163185	0.00085299	0	0	0	
0.2155	-0.00243747	0.0251467	0.000202042	0.00084793	0	0	0	
0.215667	-0.000713175	-0.0166458	0.000176608	0.00070551	0	0	0	
0.215833	-0.00334515	-0.00858332	0.00012311	0.000505781	0	0	0	
0.216	0.00455703	0.0259891	9.37993E-05	0.00032978	0	0	0	
0.216167	-0.0029747	-0.0356629	9.49117E-05	0.000477094	0	0	0	
0.216333	0.000277458	0.00647652	0.000114605	0.000772791	0	0	0	
0.2165	-0.00435343	0.000850208	0.000151834	0.000883324	0	0	0	
0.216667	0.00771996	0.00662534	0.000184431	0.000652654	0	0	0	
0.216833	-0.00543059	-0.00291671	0.000180971	0.000373752	0	0	0	
0.217	0.00152519	-0.00160009	0.000135971	0.000210633	0	0	0	
0.217167	-0.000696077	-0.00315221	7.92015E-05	0.000125877	0	0	0	
0.217333	0.00538758	0.0152676	6.31405E-05	0.000140803	0	0	0	
0.2175	-0.0137072	-0.0261536	0.000107205	0.000231435	0	0	0	
0.217667	0.0072517	0.0126323	0.000162716	0.000312411	0	0	0	
0.217833	0.00107285	-0.00389445	0.000161435	0.000372924	0	0	0	
0.218	-0.00214078	-0.00385752	0.000105504	0.000334879	0	0	0	
0.218167	-0.000162133	0.0021582	6.7603E-05	0.000238899	0	0	0	
0.218333	0.00307508	-0.00746767	9.95648E-05	0.000151579	0	0	0	
0.2185	-0.00421217	0.0118179	0.000169158	0.000138857	0	0	0	
0.218667	0.00125071	-0.0109261	0.000200094	0.000249558	0	0	0	
0.218833	7.60961E-06	-0.0104317	0.00015406	0.000301317	0	0	0	
0.219	-0.00196668	0.00431866	0.000116216	0.000283019	0	0	0	
0.219167	0.0118018	0.0198844	0.000131318	0.000272049	0	0	0	
0.219333	-0.0186804	-0.0100955	0.000204022	0.000295041	0	0	0	
0.2195	0.113689	0.00199629	0.000630033	0.00102026	0	0	0	
0.219667	0.0736165	-0.0662564	0.00140882	0.00199034	0	0	0	
0.219833	-0.0314646	-0.0164657	0.00160868	0.0021667	0	0	0	
0.22	0.0158126	0.0118484	0.0013083	0.00163597	0	0	0	
0.220167	-0.00225853	-0.026109	0.000524936	0.000744078	0	0	0	
0.220333	0.0113706	0.01832	0.000272477	0.000590692	0	0	0	
0.2205	-0.0170894	-0.0382409	0.000243519	0.000616361	0	0	0	
0.220667	0.0200672	0.014793	0.000297528	0.000770749	0	0	0	
0.220833	-0.0107353	0.0253579	0.000400538	0.00100309	0	0	0	
0.221	0.00483981	-0.0411702	0.00040019	0.000999661	0	0	0	
0.221167	-0.00242007	0.041046	0.000315905	0.00089258	0	0	0	
0.221333	0.00489375	-0.0156418	0.000245168	0.000784039	0	0	0	
0.2215	-0.0148353	-0.00299046	0.000174724	0.000736882	0	0	0	
0.221667	0.0161605	0.00993846	0.000245919	0.000594221	0	0	0	
0.221833	-0.00631	-0.00746339	0.000265938	0.000380929	0	0	0	
0.222	0.00463877	0.0106199	0.000245978	0.000243673	0	0	0	
0.222167	-0.00531559	-0.00248195	0.000178561	0.000200257	0	0	0	
0.222333	-0.000479967	-0.0011054	0.000137675	0.000178649	0	0	0	
0.2225	-0.00518366	-0.00372881	0.000118709	0.0001567	0	0	0	
0.222667	0.00867377	0.00856372	0.0001427	0.000159841	0	0	0	
0.222833	-0.0032526	-0.0104283	0.000117142	0.000202575	0	0	0	
0.223	0.0093225	0.008354	0.000139862	0.000219766	0	0	0	
0.223167	-0.00946493	-0.00248775	0.000148809	0.000178988	0	0	0	
0.223333	-0.00190167	0.00286168	0.000170692	0.000189809	0	0	0	
0.2235	0.00372855	0.00322972	0.00013629	0.000209208	0	0	0	
0.223667	0.0114982	-0.0151433	0.000116753	0.000248434	0	0	0	
0.223833	-0.00911564	0.0246835	0.000195443	0.000282186	0	0	0	
0.224	0.0217138	-0.0329008	0.000287713	0.000370993	0	0	0	
0.224167	-0.0114835	0.0280489	0.000359608	0.000529839	0	0	0	
0.224333	0.00903426	-0.0128423	0.00028764	0.000589786	0	0	0	
0.2245	-0.00899857	-0.00241652	0.000265202	0.000580066	0	0	0	
0.224667	0.0121535	0.0060452	0.000219288	0.000494697	0	0	0	
0.224833	-0.00173845	-0.00465345	0.000229886	0.000344188	0	0	0	
0.225	0.00407758	0.000871238	0.000215779	0.000218142	0	0	0	
0.225167	0.00334247	0.00773943	0.000185341	0.000145862	0	0	0	
0.225333	-0.0013282	-0.00394686	0.000170537	0.000157832	0	0	0	
0.2255	-0.00567597	0.0027148	0.000149633	0.000130641	0	0	0	
0.225667	-0.00179547	0.000657797	0.000193079	9.45484E-05	0	0	0	
0.225833	-0.00468968	0.00361665	0.000218941	5.86911E-05	0	0	0	
0.226	0.0238322	-0.0110706	0.000259792	8.58428E-05	0	0	0	
0.226167	-0.0232682	0.0169556	0.000338901	0.000145743	0	0	0	
0.226333	0.00590846	-0.0131185	0.000366374	0.000226831	0	0	0	
0.2265	-0.00857271	0.00661813	0.000384856	0.000253329	0	0	0	
0.226667	0.0053369	-0.00130093	0.000278563	0.000212879	0	0	0	
0.226833	-0.00404989	0.0109741	0.000212734	0.0001857	0	0	0	
0.227	0.00931779	-0.00916078	0.000174416	0.000180127	0	0	0	
0.227167	-0.00382219	0.00544095	0.000187681	0.000185137	0	0	0	
0.227333	-0.00446246	-0.00621229	0.000196613	0.000173681	0	0	0	
0.2275	0.000463201	-0.000843676	0.000169664	0.000154738	0	0	0	
0.227667	-0.000682239	-0.00436618	0.000165967	0.000144011	0	0	0	
0.227833	-0.000583438	0.0154856	0.000231233	0.000161782	0	0	0	
0.228	0.00636904	-0.00262785	0.000217817	0.00019901	0	0	0	
0.228167	-0.00479507	0.00951084	0.000209581	0.000222444	0	0	0	
0.228333	-0.000108036	-0.0203242	0.000161361	0.000258154	0	0	0	
0.2285	-0.0101121	0.0142226	0.000201108	0.000328407	0	0	0	
0.228667	0.0151895	-0.0187143	0.000272554	0.000396282	0	0	0	
0.228833	-0.0151242	0.0222279	0.000369826	0.000390857	0	0	0	
0.229	0.0161309	-0.00558216	0.000435695	0.000380234	0	0	0	
0.229167	-0.0112195	-0.00781146	0.000425489	0.000436937	0	0	0	
0.229333	-0.00149464	0.0206931	0.000406053	0.000400505	0	0	0	
0.2295	-0.00631255	-0.0276469	0.00032526	0.000430768	0	0	0	
0.229667	0.0218021	0.0375784	0.000291194	0.00049959	0	0	0	
0.229833	0.0271343	0.0184582	0.000407416	0.000844525	0	0	0	
0.23	0.123788	0.197293	0.00172204	0.00239399	0	0	0	
0.230167	-0.0284529	-0.00946056	0.00275806	0.00375624	0	0	0	
0.230333	-0.0300681	-0.0209905	0.00275955	0.00356726	0	0	0	
0.2305	-0.0106844	-0.119682	0.00147292	0.00306186	0	0	0	
0.230667	0.0526833	0.216513	0.000563208	0.00327077	0	0	0	
0.230833	-0.0816061	-0.299247	0.000759961	0.00457144	0	0	0	
0.231	0.124988	0.439108	0.00108124	0.00534058	0	0	0	
0.231167	-0.125569	-0.329584	0.00301995	0.00729766	0	0	0	
0.231333	0.0279515	0.108202	0.00288423	0.00753239	0	0	0	
0.2315	-0.0160189	0.134856	0.00277977	0.00710048	0	0	0	
0.231667	0.00460475	-0.285569	0.000740729	0.00472875	0	0	0	
0.231833	-0.00407484	0.181015	0.000683271	0.00447527	0	0	0	
0.232	-0.00472813	0.00797014	0.000627497	0.00460101	0	0	0	
0.232167	-0.00300248	-0.129265	0.000589649	0.00499495	0	0	0	
0.232333	0.00720398	0.158577	0.000396487	0.00505498	0	0	0	
0.2325	0.00852913	-0.169161	0.000194238	0.00456032	0	0	0	
0.232667	-0.0120107	0.200943	0.000262024	0.00379647	0	0	0	
0.232833	-0.0192039	-0.1564	0.000478169	0.00346013	0	0	0	
0.233	0.0147515	0.0769648	0.000759818	0.00346425	0	0	0	
0.233167	0.00548052	0.00460928	0.000757182	0.00342895	0	0	0	
0.233333	-0.0124032	-0.0304821	0.000556605	0.00275334	0	0	0	
0.2335	0.00836923	-0.0120048	0.000312372	0.00166941	0	0	0	
0.233667	-0.00910854	0.0568383	0.000227889	0.000913243	0	0	0	
0.233833	0.0163259	-0.0493343	0.000215859	0.000680674	0	0	0	
0.234	-0.0387197	0.0161263	0.00035434	0.00095562	0	0	0	
0.234167	0.0218633	0.0172897	0.000562687	0.00117093	0	0	0	
0.234333	0.00509474	-0.0354789	0.000568394	0.0012377	0	0	0	
0.2345	-0.00208347	0.0497596	0.000404895	0.00109475	0	0	0	
0.234667	-0.00797451	-0.0512953	0.000154707	0.00100357	0	0	0	
0.234833	0.0106728	0.0101067	0.000153925	0.00113408	0	0	0	
0.235	-0.00762393	0.0365769	0.000178331	0.00141662	0	0	0	
0.235167	0.0116485	-0.075037	0.000232492	0.00140031	0	0	0	
0.235333	-0.00764986	0.0682521	0.000241603	0.00132044	0	0	0	
0.2355	0.000690975	-0.0468904	0.000191549	0.00123492	0	0	0	
0.235667	-0.00590464	0.00790438	0.000139715	0.00122066	0	0	0	
0.235833	0.0131334	0.020685	0.000144203	0.00113977	0	0	0	
0.236	-0.00782342	-0.0440586	0.000198844	0.0010411	0	0	0	
0.236167	0.0035628	0.0406391	0.000228683	0.00100993	0	0	0	
0.236333	-0.000551697	-0.0209072	0.000166065	0.000815807	0	0	0	
0.2365	-0.00397121	0.00113431	9.72523E-05	0.000601942	0	0	0	
0.236667	0.0030826	0.00581823	6.60243E-05	0.000400367	0	0	0	
0.236833	-0.00126785	-0.00698063	5.64533E-05	0.000261506	0	0	0	
0.237	0.0012187	-0.0025358	4.96214E-05	0.000286476	0	0	0	
0.237167	-0.00376052	0.0103101	5.58288E-05	0.00038431	0	0	0	
0.237333	-0.00154669	-0.0160245	6.72873E-05	0.000516382	0	0	0	
0.2375	0.00276466	0.0209201	8.02511E-05	0.000482724	0	0	0	
0.237667	0.00371339	-0.00947911	6.3466E-05	0.000363957	0	0	0	
0.237833	-0.00404678	0.0115484	7.31041E-05	0.000274605	0	0	0	
0.238	0.000317525	-0.0184271	7.30855E-05	0.000260757	0	0	0	
0.238167	-0.000376646	0.00789667	6.91648E-05	0.000276951	0	0	0	
0.238333	0.000282908	0.0015817	4.3743E-05	0.000289429	0	0	0	
0.2385	-0.00215749	-0.00910469	2.8071E-05	0.000246057	0	0	0	
0.238667	0.00282097	0.0113816	3.85133E-05	0.000217548	0	0	0	
0.238833	0.00108902	-0.0118213	5.59222E-05	0.000213675	0	0	0	
0.239	-0.00414042	0.00724758	7.95236E-05	0.000221145	0	0	0	
0.239167	0.000187239	-0.00339351	7.22365E-05	0.000275948	0	0	0	
0.239333	0.00212521	-0.00465917	5.33792E-05	0.000362517	0	0	0	
0.2395	-0.000526534	0.0163259	3.28815E-05	0.000421004	0	0	0	
0.239667	-0.00121857	-0.0230808	3.02374E-05	0.000420569	0	0	0	
0.239833	0.00262715	0.0144113	4.12021E-05	0.00035702	0	0	0	
0.24	-0.00227082	-0.0121613	6.03444E-05	0.000368314	0	0	0	
0.240167	-0.000456966	0.0028876	7.18706E-05	0.000408985	0	0	0	
0.240333	0.000852125	0.00616631	6.38389E-05	0.000465224	0	0	0	
0.2405	0.000292098	-0.0214368	3.8192E-05	0.000437502	0	0	0	
0.240667	-0.00230477	0.0250746	4.25552E-05	0.000408612	0	0	0	
0.240833	0.00133547	-0.0148178	8.83143E-05	0.000388494	0	0	0	
0.241	-0.000720064	-0.00259855	0.000135562	0.000369477	0	0	0	
0.241167	0.000899247	0.0133248	0.000147568	0.000306619	0	0	0	
0.241333	0.000335961	-0.0131438	0.000134414	0.000284833	0	0	0	
0.2415	-0.00211371	-0.000268174	0.000123757	0.000283446	0	0	0	
0.241667	0.00317889	-0.000535507	0.000122529	0.00027864	0	0	0	
0.241833	-0.0111841	0.0173744	0.000161374	0.000233924	0	0	0	
0.242	0.0128738	-0.0272728	0.000227339	0.00029566	0	0	0	
0.242167	-0.0110271	0.0191136	0.00026933	0.00039418	0	0	0	
0.242333	0.0133642	0.00167847	0.000280626	0.000402734	0	0	0	
0.2425	-0.00821549	-0.00287679	0.000260574	0.000283625	0	0	0	
0.242667	0.00733021	-0.00469224	0.00023495	0.00012936	0	0	0	
0.242833	-0.0161069	0.0230546	0.000220066	0.000158074	0	0	0	
0.243	0.0186123	-0.0279072	0.00025074	0.000313366	0	0	0	
0.243167	-0.0154758	0.0243579	0.000299663	0.000465892	0	0	0	
0.243333	0.0155303	-0.00511939	0.000324418	0.000450212	0	0	0	
0.2435	-0.0124722	-0.00412738	0.000301485	0.000428167	0	0	0	
0.243667	0.00560246	0.00177862	0.000250855	0.000286061	0	0	0	
0.243833	-0.000228535	0.0107209	0.000171651	0.000369154	0	0	0	
0.244	0.00312447	-0.00802951	0.000134467	0.000390355	0	0	0	
0.244167	-0.00770892	0.00109441	0.00017576	0.000422466	0	0	0	
0.244333	0.00725106	-2.12569E-05	0.000225368	0.000305522	0	0	0	
0.2445	-0.00828644	0.0217647	0.000220011	0.000274284	0	0	0	
0.244667	0.00696724	-0.0248754	0.000186931	0.000373222	0	0	0	
0.244833	-0.0111494	0.0170797	0.000177097	0.000444104	0	0	0	
0.245	0.0100841	-0.0129684	0.000190349	0.000401494	0	0	0	
0.245167	-0.00622334	0.01427	0.000180192	0.000317127	0	0	0	
0.245333	0.0097389	-0.00246494	0.000185103	0.000305194	0	0	0	
0.2455	-0.00905433	-0.00229291	0.000184799	0.000393811	0	0	0	
0.245667	0.00183193	0.0034201	0.000173201	0.000426736	0	0	0	
0.245833	-0.00273803	0.00805095	0.000116972	0.000373149	0	0	0	
0.246	0.000946411	-0.00408396	9.25634E-05	0.000269692	0	0	0	
0.246167	-0.00661551	-0.00189835	9.74555E-05	0.000193099	0	0	0	
0.246333	0.00988812	-0.00763137	0.000150697	0.000180507	0	0	0	
0.2465	-0.00168612	0.0149574	0.000167625	0.00016617	0	0	0	
0.246667	-0.00179519	-0.0171126	0.000144352	0.000249657	0	0	0	
0.246833	0.00402786	0.0166766	0.000108291	0.000325006	0	0	0	
0.247	-0.00524283	-0.00918299	8.50733E-05	0.000337987	0	0	0	
0.247167	0.00175078	0.00736221	0.000120586	0.000274503	0	0	0	
0.247333	-0.00166141	-0.00355339	0.000164865	0.000223641	0	0	0	
0.2475	0.0144066	0.00855556	0.000180424	0.000192359	0	0	0	
0.247667	-0.0193563	-0.0145066	0.000233177	0.000232964	0	0	0	
0.247833	0.0127617	0.00253647	0.00027752	0.000263956	0	0	0	
0.248	-0.0056194	0.0171881	0.000292126	0.000243205	0	0	0	
0.248167	0.00429813	-0.000971792	0.000242706	0.000237109	0	0	0	
0.248333	0.00180759	-0.00533189	0.000160672	0.000181517	0	0	0	
0.2485	-0.00273007	0.00911511	0.000116372	0.000196855	0	0	0	
0.248667	-0.0035685	-0.012137	0.000103412	0.000184674	0	0	0	
0.248833	0.00840123	0.0138186	0.000141408	0.000235733	0	0	0	
0.249	-0.00743031	-0.000493421	0.000197303	0.000232168	0	0	0	
0.249167	0.00330919	-0.00492303	0.000227894	0.000204728	0	0	0	
0.249333	-0.00396736	0.00769387	0.000246906	0.000137536	0	0	0	
0.2495	0.00975059	0.000959346	0.000270971	0.000117712	0	0	0	
0.249667	-0.0149107	0.00237309	0.000285175	9.18026E-05	0	0	0	
0.249833	0.0174957	-0.00936815	0.000287291	0.000108319	0	0	0	
0.25	-0.00764847	0.0153611	0.000278333	0.000149269	0	0	0	
0.250167	-0.015211	-0.00965558	0.000233981	0.00020901	0	0	0	
0.250333	0.00846707	-0.0133498	0.000288687	0.000324425	0	0	0	
0.2505	0.0415293	0.0949327	0.00071971	0.000672311	0	0	0	
0.250667	-0.051844	0.0816773	0.0014838	0.00145865	0	0	0	
0.250833	0.0392976	-0.00871485	0.00173698	0.00178212	0	0	0	
0.251	-0.0204284	0.0243106	0.00138329	0.00182646	0	0	0	
0.251167	-0.00605135	0.00935607	0.000648509	0.00128882	0	0	0	
0.251333	0.00022287	-0.0158645	0.000344318	0.0010226	0	0	0	
0.2515	-0.000735783	0.0229065	0.000339169	0.000797852	0	0	0	
0.251667	0.00581749	-0.0451357	0.000365377	0.000668165	0	0	0	
0.251833	-0.0211176	-0.00247859	0.000369612	0.000817639	0	0	0	
0.252	0.0257228	0.049237	0.000337383	0.000887595	0	0	0	
0.252167	-0.013177	-0.0205041	0.000378052	0.000866215	0	0	0	
0.252333	0.00500908	-3.69229E-05	0.000409398	0.000653669	0	0	0	
0.2525	0.00101265	-0.00284717	0.00038755	0.000452562	0	0	0	
0.252667	-0.000399668	0.0140625	0.000334026	0.000368749	0	0	0	
0.252833	-0.0107175	-0.0140851	0.000312406	0.000371012	0	0	0	
0.253	0.011145	0.0118636	0.000348803	0.000355547	0	0	0	
0.253167	-0.00579285	-0.00793277	0.000397501	0.00035847	0	0	0	
0.253333	0.00708487	0.00188417	0.000373367	0.00024499	0	0	0	
0.2535	-0.0124483	-0.0036982	0.000295543	0.000168683	0	0	0	
0.253667	0.0243757	0.00677488	0.000271947	0.000116566	0	0	0	
0.253833	-0.0353567	0.00258332	0.000410753	0.000113894	0	0	0	
0.254	0.0208549	-0.00340323	0.000527919	0.000145647	0	0	0	
0.254167	-0.0144657	-3.69218E-05	0.000534346	0.000218509	0	0	0	
0.254333	0.00809429	0.00658077	0.000381391	0.000299364	0	0	0	
0.2545	-0.00231123	-0.0131102	0.000247803	0.000299929	0	0	0	
0.254667	0.00423403	0.00871963	0.000172468	0.000265531	0	0	0	
0.254833	-0.00920275	0.00641305	0.000177421	0.000223798	0	0	0	
0.255	-0.001447	-0.00451044	0.000173829	0.000245337	0	0	0	
0.255167	-0.00119861	0.00281043	0.000186484	0.000188749	0	0	0	
0.255333	0.00134114	-0.00102921	0.000203217	0.000133889	0	0	0	
0.2555	0.00148768	0.00339623	0.00019617	9.31417E-05	0	0	0	
0.255667	0.000382417	0.000634059	0.000158785	0.000118377	0	0	0	
0.255833	-0.0066352	-0.0076668	9.32242E-05	0.000265807	0	0	0	
0.256	0.0142364	0.00940767	0.00013186	0.000474163	0	0	0	
0.256167	-0.0166446	-0.0175833	0.000204385	0.000649688	0	0	0	
0.256333	0.0168124	0.0138152	0.000280361	0.000662399	0	0	0	
0.2565	-0.00819428	-0.0155918	0.000296568	0.000515802	0	0	0	
0.256667	0.0026156	0.00792006	0.000250083	0.000354882	0	0	0	
0.256833	-0.014951	-0.00204855	0.000205296	0.000200025	0	0	0	
0.257	0.0208442	-0.00766418	0.000268127	0.000136903	0	0	0	
0.257167	0.00107248	0.0206853	0.00033982	0.0001552	0	0	0	
0.257333	-0.00735643	-0.0319141	0.00041129	0.000323315	0	0	0	
0.2575	0.0029108	0.0114038	0.00041665	0.000434727	0	0	0	
0.257667	0.000629623	-0.00543734	0.000394115	0.000422372	0	0	0	
0.257833	-0.00631225	0.00408333	0.000302347	0.000310234	0	0	0	
0.258	0.0127995	0.00263894	0.000234361	0.000340521	0	0	0	
0.258167	-0.00830646	-0.0071267	0.00024711	0.000485347	0	0	0	
0.258333	-0.00495359	0.0200438	0.000237179	0.000497388	0	0	0	
0.2585	0.0152265	-0.0323776	0.00020647	0.000505405	0	0	0	
0.258667	-0.00946602	0.00881528	0.000181643	0.000485059	0	0	0	
0.258833	-0.00041355	0.010389	0.000176991	0.000509393	0	0	0	
0.259	0.00262092	-0.0286799	0.000125544	0.000444582	0	0	0	
0.259167	0.000143412	0.0551223	6.38908E-05	0.000529141	0	0	0	
0.259333	0.00248712	-0.0408758	8.8594E-05	0.000747796	0	0	0	
0.2595	-0.00323518	-0.00154789	0.000112938	0.00106007	0	0	0	
0.259667	0.00206853	0.0175312	0.000117793	0.00122391	0	0	0	
0.259833	0.0003036	-0.00979548	0.00010268	0.00107536	0	0	0	
0.26	0.00418492	0.00756215	8.25637E-05	0.000758112	0	0	0	
0.260167	-0.00732561	-0.0385161	0.000109263	0.000592703	0	0	0	
0.260333	0.00920228	0.052549	0.000135068	0.000666146	0	0	0	
0.2605	-0.0125311	-0.0175872	0.000191469	0.000749769	0	0	0	
0.260667	0.00963042	-0.0169237	0.000211668	0.000565926	0	0	0	
0.260833	-0.00459337	0.0169828	0.000190069	0.00041857	0	0	0	
0.261	0.0024374	-0.0187838	0.000139919	0.00034233	0	0	0	
0.261167	0.000522912	0.0384367	7.37766E-05	0.000399594	0	0	0	
0.261333	-0.000779247	-0.0483064	4.65986E-05	0.000714347	0	0	0	
0.2615	-0.00194191	0.017402	3.5136E-05	0.00103152	0	0	0	
0.261667	0.000669877	0.00147611	4.50988E-05	0.00114141	0	0	0	
0.261833	-0.000822248	0.00643073	6.56043E-05	0.000826454	0	0	0	
0.262	0.000992625	-0.00203643	7.07917E-05	0.000450306	0	0	0	
0.262167	-0.00351099	-8.95136E-05	6.63576E-05	0.000254773	0	0	0	
0.262333	0.0120156	0.00189113	7.81009E-05	0.000189766	0	0	0	
0.2625	-0.021301	-0.0100089	0.000205904	0.000174499	0	0	0	
0.262667	0.0155273	-0.0202043	0.000345407	0.000229128	0	0	0	
0.262833	-0.00628027	0.0402313	0.000392262	0.000333797	0	0	0	
0.263	0.00140166	-0.0234165	0.000267126	0.000531569	0	0	0	
0.263167	-0.00308109	-0.00327897	0.000129408	0.000554458	0	0	0	
0.263333	0.00763521	0.00784719	7.3077E-05	0.00041416	0	0	0	
0.2635	-0.0123319	-0.00297691	0.00013344	0.000306983	0	0	0	
0.263667	0.0106727	-0.014995	0.000192651	0.000305661	0	0	0	
0.263833	-0.00698869	0.0232121	0.000218098	0.000419835	0	0	0	
0.264	0.000362231	-0.0142022	0.000159162	0.000445974	0	0	0	
0.264167	0.000231264	0.00377056	8.59617E-05	0.000329301	0	0	0	
0.264333	0.00336503	0.00450078	3.84584E-05	0.000231791	0	0	0	
0.2645	-0.00248573	-0.0140948	2.9339E-05	0.000150634	0	0	0	
0.264667	0.00100231	0.0034098	6.78498E-05	0.000217927	0	0	0	
0.264833	-0.000472586	0.00828486	8.9711E-05	0.000229324	0	0	0	
0.265	-0.000515231	-0.0164842	8.70063E-05	0.000243583	0	0	0	
0.265167	-0.00311643	0.0117582	6.49402E-05	0.000228691	0	0	0	
0.265333	0.0043262	0.0014325	5.96626E-05	0.00025265	0	0	0	
0.2655	-0.00548468	-0.0078094	8.02872E-05	0.000192865	0	0	0	
0.265667	0.0104596	0.00348871	0.000115939	0.000201762	0	0	0	
0.265833	-0.00667332	0.00631287	0.000147799	0.00026353	0	0	0	
0.266	0.00422378	-0.0212984	0.00015023	0.000333747	0	0	0	
0.266167	-0.00579357	0.0101097	0.000146721	0.00035697	0	0	0	
0.266333	0.00376923	-0.000217893	0.000117535	0.00024654	0	0	0	
0.2665	-0.00538732	-0.00135878	0.000116471	0.000147907	0	0	0	
0.266667	0.00752975	-0.0105824	0.000119397	7.6977E-05	0	0	0	
0.266833	-0.00428192	0.00284672	0.000153651	0.000150808	0	0	0	
0.267	0.00800718	-0.00288571	0.000165868	0.000267678	0	0	0	
0.267167	-0.00987507	-0.0151333	0.00017066	0.000271728	0	0	0	
0.267333	0.0038123	0.0128815	0.000145064	0.000266872	0	0	0	
0.2675	-0.000409331	-0.0127948	0.000117915	0.000235451	0	0	0	
0.267667	-0.00248126	0.00795576	8.18017E-05	0.000251635	0	0	0	
0.267833	0.00414756	-0.00763873	9.26807E-05	0.000241636	0	0	0	
0.268	0.00221153	-0.00184842	0.000114304	0.000321302	0	0	0	
0.268167	-0.00156995	0.00534228	0.00011719	0.00046655	0	0	0	
0.268333	-0.000955656	-0.0148789	7.18494E-05	0.000535536	0	0	0	
0.2685	-0.00023409	0.0150848	4.55262E-05	0.000452831	0	0	0	
0.268667	0.00030879	-0.00386583	2.77526E-05	0.000331729	0	0	0	
0.268833	6.85217E-05	-0.00175631	3.61828E-05	0.00024646	0	0	0	
0.269	0.00334603	0.0144971	5.71927E-05	0.000205683	0	0	0	
0.269167	-0.00039857	-0.00501356	7.04433E-05	0.000184854	0	0	0	
0.269333	0.00192859	0.00473738	6.45387E-05	0.000156362	0	0	0	
0.2695	-0.00268329	-0.00496765	4.68308E-05	0.000133269	0	0	0	
0.269667	0.00183105	0.00320006	4.2639E-05	0.000101689	0	0	0	
0.269833	0.00262681	0.00715565	4.60172E-05	8.55115E-05	0	0	0	
0.27	-0.00834828	-0.00266536	7.49163E-05	9.34563E-05	0	0	0	
0.270167	0.0130219	3.44898E-05	0.000137841	8.93498E-05	0	0	0	
0.270333	-0.00722361	-0.00140558	0.000191669	0.000121443	0	0	0	
0.2705	0.00572122	0.00678813	0.000210608	0.000132071	0	0	0	
0.270667	-0.00443372	-0.00403797	0.000181969	0.000143167	0	0	0	
0.270833	-0.00162535	0.00887856	0.000171895	0.000154443	0	0	0	
0.271	0.0263898	-0.0445352	0.000186979	0.000333833	0	0	0	
0.271167	-0.0482329	0.0568364	0.000397917	0.000752873	0	0	0	
0.271333	0.0196046	-0.0494941	0.000603159	0.00101274	0	0	0	
0.2715	0.00169574	0.0255983	0.000620091	0.000995926	0	0	0	
0.271667	0.00111911	-0.00870913	0.000407924	0.000662522	0	0	0	
0.271833	0.000586617	0.00299861	0.000160059	0.000372433	0	0	0	
0.272	0.00159315	-0.0130435	0.000114879	0.000246417	0	0	0	
0.272167	-0.00807187	0.0122601	0.000242396	0.000291418	0	0	0	
0.272333	-0.0128086	-0.00531631	0.000464806	0.000520761	0	0	0	
0.2725	0.0273107	0.0204486	0.000643892	0.000728424	0	0	0	
0.272667	-0.0153308	-0.038755	0.00062599	0.000753614	0	0	0	
0.272833	0.00342799	0.00302488	0.00048499	0.000605002	0	0	0	
0.273	-0.000964959	-0.00317826	0.000293678	0.000351035	0	0	0	
0.273167	5.788E-05	0.0511322	0.000140559	0.00038411	0	0	0	
0.273333	0.00456533	-0.0430076	7.36339E-05	0.000623763	0	0	0	
0.2735	-0.00086964	-0.0148984	9.25808E-05	0.000723738	0	0	0	
0.273667	-0.00135774	0.0176374	0.000110565	0.000570696	0	0	0	
0.273833	0.00052218	-0.0161924	9.85087E-05	0.000496185	0	0	0	
0.274	-0.00220792	-0.00188138	6.14441E-05	0.000565599	0	0	0	
0.274167	0.002602	0.00886766	4.63451E-05	0.000653541	0	0	0	
0.274333	-0.00543709	-0.00730617	8.27412E-05	0.000698025	0	0	0	
0.2745	0.00759165	0.00807911	0.000140476	0.000806016	0	0	0	
0.274667	-0.00818934	-0.0303972	0.000184733	0.000801263	0	0	0	
0.274833	0.00357505	0.0253217	0.000150655	0.000641118	0	0	0	
0.275	-0.00101197	-0.00957884	0.000123187	0.000430416	0	0	0	
0.275167	0.00102596	-0.0119365	9.27349E-05	0.000408855	0	0	0	
0.275333	-0.0119843	0.0342919	0.000124923	0.000348773	0	0	0	
0.2755	0.0061398	-0.0224195	0.000170383	0.000455	0	0	0	
0.275667	-0.00375764	0.0115001	0.000161755	0.000497983	0	0	0	
0.275833	0.00153938	-0.0167786	0.000133717	0.000541932	0	0	0	
0.276	-0.00665446	0.00804917	6.65549E-05	0.000613132	0	0	0	
0.276167	0.00637149	0.0155644	0.000100979	0.000707811	0	0	0	
0.276333	-0.00346743	-0.00843738	0.000111009	0.000624611	0	0	0	
0.2765	-0.00320153	-0.0182233	9.82201E-05	0.000577827	0	0	0	
0.276667	-0.00299306	0.0231744	8.51071E-05	0.000595422	0	0	0	
0.276833	0.00355618	-0.0181264	0.000103793	0.000704153	0	0	0	
0.277	-0.00687148	0.0268816	0.0001753	0.000573414	0	0	0	
0.277167	0.00178057	-0.0215316	0.000212408	0.000439064	0	0	0	
0.277333	-0.00238296	0.000488046	0.00017302	0.00035675	0	0	0	
0.2775	0.00819018	0.0164848	0.000115348	0.000333764	0	0	0	
0.277667	-0.00549609	-0.0373922	8.86784E-05	0.000361762	0	0	0	
0.277833	0.00446723	0.0187012	0.000127353	0.000473542	0	0	0	
0.278	-0.016318	0.00307506	0.000172094	0.000528741	0	0	0	
0.278167	0.0136889	-0.00529678	0.000276269	0.00047467	0	0	0	
0.278333	-0.00430078	0.00365824	0.000293923	0.000331182	0	0	0	
0.2785	-0.000152139	0.00241687	0.000240024	0.000230399	0	0	0	
0.278667	0.00675321	-0.0102726	0.000170708	0.00016871	0	0	0	
0.278833	-0.00368841	0.0194684	0.000197992	0.00018405	0	0	0	
0.279	-6.18333E-05	-0.0056347	0.000208275	0.000297074	0	0	0	
0.279167	-0.00229826	0.00187262	0.000144467	0.000470828	0	0	0	
0.279333	0.00520907	0.00781132	9.14773E-05	0.000540366	0	0	0	
0.2795	0.000949368	-0.00415076	0.000119793	0.00042284	0	0	0	
0.279667	-0.00997504	0.00988731	0.000154531	0.000230672	0	0	0	
0.279833	0.00220912	-0.00214817	0.00014008	0.000135229	0	0	0	
0.28	0.00852822	0.00106826	0.000178686	0.000147746	0	0	0	
0.280167	-0.00826004	0.0151625	0.000202293	0.000164369	0	0	0	
0.280333	0.00291308	-0.0110723	0.000199688	0.000215636	0	0	0	
0.2805	-0.00116574	0.000918243	0.000143346	0.000233347	0	0	0	
0.280667	7.86559E-05	-0.000441337	0.000103646	0.000214355	0	0	0	
0.280833	0.00084163	0.0105254	0.000124393	0.000294197	0	0	0	
0.281	0.00192444	-0.010829	0.000121972	0.000455373	0	0	0	
0.281167	0.000435904	0.020708	9.67122E-05	0.000478407	0	0	0	
0.281333	-0.00720377	-0.00361015	8.5427E-05	0.000400653	0	0	0	
0.2815	0.00376279	-0.006198	0.00010172	0.000249224	0	0	0	
0.281667	0.00289829	0.00598166	0.000125112	0.000233678	0	0	0	
0.281833	0.00143541	-0.0127957	0.000105612	0.000179495	0	0	0	
0.282	-0.004879	0.0288794	9.39143E-05	0.000283838	0	0	0	
0.282167	0.00264962	-0.0105307	8.03946E-05	0.000380296	0	0	0	
0.282333	-0.00718359	0.00151816	0.000109413	0.000502316	0	0	0	
0.2825	0.0104998	0.010002	0.000140252	0.000522681	0	0	0	
0.282667	-0.00608723	-0.0164014	0.0001845	0.000489503	0	0	0	
0.282833	0.00427183	0.00277813	0.000168478	0.000371666	0	0	0	
0.283	-0.00513838	0.00393916	0.000131231	0.000199725	0	0	0	
0.283167	0.00462355	-0.00600636	0.000110938	0.000108439	0	0	0	
0.283333	-0.0172975	-0.000389262	0.000160706	0.000113803	0	0	0	
0.2835	0.0175099	-0.00462697	0.000244087	0.000152812	0	0	0	
0.283667	-0.00539276	0.00618085	0.000270913	0.000163802	0	0	0	
0.283833	-4.95137E-05	-0.0187851	0.00020969	0.00018914	0	0	0	
0.284	-0.00383993	0.0115645	0.000121189	0.000229737	0	0	0	
0.284167	0.00847337	0.00114516	0.00015439	0.000386938	0	0	0	
0.284333	-0.0140892	-0.0196043	0.000262707	0.000521749	0	0	0	
0.2845	0.00716703	0.0340688	0.000348246	0.000683437	0	0	0	
0.284667	0.00817843	-0.0235617	0.000316546	0.000678895	0	0	0	
0.284833	-0.00582889	0.0103526	0.000249474	0.000553835	0	0	0	
0.285	0.00496072	-0.00371809	0.000176148	0.000424686	0	0	0	
0.285167	-0.00652699	-0.0190091	0.00015364	0.000441577	0	0	0	
0.285333	0.00382806	0.0253589	0.000151115	0.000546911	0	0	0	
0.2855	0.00604774	-0.0235409	0.000240783	0.000501289	0	0	0	
0.285667	-0.00420679	0.031083	0.000305663	0.000477785	0	0	0	
0.285833	0.000490852	-0.0239585	0.000274794	0.000476327	0	0	0	
0.286	-0.00483934	-0.00319359	0.000157556	0.000499123	0	0	0	
0.286167	0.0175317	0.0140891	0.000101117	0.000398211	0	0	0	
0.286333	-0.0115803	-0.0493047	0.000217574	0.00041976	0	0	0	
0.2865	-0.0131421	0.0385597	0.000249548	0.000638021	0	0	0	
0.286667	0.0227474	-0.0269314	0.000298545	0.000916617	0	0	0	
0.286833	-0.021059	-0.00557953	0.0003392	0.0013114	0	0	0	
0.287	0.00591431	0.0249285	0.000363871	0.00138231	0	0	0	
0.287167	-0.00638972	-0.0130969	0.000295893	0.00111315	0	0	0	
0.287333	0.00989837	-0.0185024	0.000174907	0.000685158	0	0	0	
0.2875	-0.00526063	0.0173411	0.000168457	0.000595193	0	0	0	
0.287667	0.00169326	-0.0537595	0.000141432	0.000784716	0	0	0	
0.287833	-0.00910517	0.0707665	0.000126816	0.000947443	0	0	0	
0.288	0.00461462	-0.0344	0.000106594	0.0010207	0	0	0	
0.288167	-4.09768E-05	0.00216897	0.000120162	0.000949156	0	0	0	
0.288333	-0.00131451	-0.0134946	8.95725E-05	0.000694231	0	0	0	
0.2885	0.00199954	0.0262508	5.20702E-05	0.000514283	0	0	0	
0.288667	-0.00234023	-0.00941517	4.58727E-05	0.000545242	0	0	0	
0.288833	-0.000425818	-0.000372564	4.5772E-05	0.000574546	0	0	0	
0.289	-0.000575131	0.00301962	4.10258E-05	0.000426166	0	0	0	
0.289167	0.00132602	0.00120579	2.93351E-05	0.000228743	0	0	0	
0.289333	6.82372E-05	-0.015622	2.10889E-05	0.000178077	0	0	0	
0.2895	-0.00105316	0.0483191	2.03116E-05	0.000377693	0	0	0	
0.289667	-0.00127721	-0.0454406	1.89858E-05	0.000666116	0	0	0	
0.289833	0.00244467	0.0262744	3.80024E-05	0.000787144	0	0	0	
0.29	0.00160919	-0.00311512	7.73611E-05	0.000627068	0	0	0	
0.290167	-0.0047612	-0.00414085	0.000110383	0.000329089	0	0	0	
0.290333	0.00651221	0.00361818	0.000119536	0.000168428	0	0	0	
0.2905	-0.00630918	-0.00683068	0.000114614	0.000180006	0	0	0	
0.290667	0.00440754	-0.0134894	0.000116394	0.000359045	0	0	0	
0.290833	-0.00278004	0.00982114	0.000109693	0.000480067	0	0	0	
0.291	0.00674393	0.0059336	0.000107966	0.000443669	0	0	0	
0.291167	-0.00657807	-0.0131109	0.000110038	0.0003047	0	0	0	
0.291333	0.00249786	-0.00275101	0.000106517	0.000225182	0	0	0	
0.2915	0.000871743	0.00396686	8.37944E-05	0.000188729	0	0	0	
0.291667	-0.00387354	0.0150053	5.74806E-05	0.00021029	0	0	0	
0.291833	0.00159221	-0.0153973	4.28632E-05	0.000279236	0	0	0	
0.292	0.00246147	-0.00380139	7.94196E-05	0.000306268	0	0	0	
0.292167	-0.00305238	0.0115109	0.000124192	0.000262552	0	0	0	
0.292333	0.00256609	-0.00619873	0.000141231	0.000200403	0	0	0	
0.2925	-0.000542042	-0.0100689	0.000102226	0.000182376	0	0	0	
0.292667	-0.00176266	0.00142392	4.56135E-05	0.000165442	0	0	0	
0.292833	0.000932839	0.0129564	4.26273E-05	0.000112644	0	0	0	
0.293	0.000990161	-0.00168777	7.97137E-05	0.000149113	0	0	0	
0.293167	-0.00298819	-0.00751206	0.000104103	0.000180331	0	0	0	
0.293333	0.0072599	0.0116525	0.000114337	0.000232074	0	0	0	
0.2935	-0.00473573	-0.00596868	0.000113651	0.000289411	0	0	0	
0.293667	0.00186836	-0.0133678	0.000114615	0.000289236	0	0	0	
0.293833	0.00132201	0.0138544	0.000111796	0.000285572	0	0	0	
0.294	-0.000974037	-0.0179724	0.000114517	0.000273626	0	0	0	
0.294167	-0.000293122	0.0229025	0.000126069	0.00038744	0	0	0	
0.294333	0.00520661	-0.0164275	0.000121866	0.000436599	0	0	0	
0.2945	-0.00674759	0.00897106	0.000118705	0.000456136	0	0	0	
0.294667	0.00334247	0.00555568	0.000111117	0.00036107	0	0	0	
0.294833	-0.000120845	0.00159527	0.000101894	0.000256656	0	0	0	
0.295	0.00291626	-0.00819717	8.66689E-05	0.000204645	0	0	0	
0.295167	-0.00627853	0.00564743	8.89522E-05	0.000200593	0	0	0	
0.295333	-0.000641166	-0.00362383	8.46881E-05	0.000228192	0	0	0	
0.2955	0.00490839	-0.000300742	8.44165E-05	0.000199549	0	0	0	
0.295667	-0.00500524	0.00212753	7.44248E-05	0.000184222	0	0	0	
0.295833	0.00236058	0.00154757	9.17679E-05	0.000151297	0	0	0	
0.296	0.000544921	0.00951463	7.31472E-05	0.000126449	0	0	0	
0.296167	-0.00750303	-0.00119937	7.82391E-05	9.80314E-05	0	0	0	
0.296333	0.00861458	-0.0101103	0.00010481	0.000140036	0	0	0	
0.2965	-0.00751416	0.00196029	0.000144745	0.000142313	0	0	0	
0.296667	0.0052094	0.00265225	0.00016078	0.0001333	0	0	0	
0.296833	-0.00246049	-0.00517497	0.000132048	0.000129078	0	0	0	
0.297	-0.00058904	0.0027051	9.11286E-05	0.00013099	0	0	0	
0.297167	0.000187033	4.99958E-05	8.01869E-05	0.000124522	0	0	0	
0.297333	0.00233918	0.000702927	0.000136854	8.49868E-05	0	0	0	
0.2975	0.000637499	-0.0159364	0.000216559	0.000123267	0	0	0	
0.297667	0.00134618	0.00952741	0.0002211	0.000209094	0	0	0	
0.297833	-0.000814265	-0.00610546	0.000147574	0.000262533	0	0	0	
0.298	-0.00409635	0.00434476	7.23256E-05	0.000207292	0	0	0	
0.298167	0.0128972	0.00745625	9.96541E-05	0.000166559	0	0	0	
0.298333	-0.0105772	-0.00124964	0.000155353	0.000203566	0	0	0	
0.2985	0.00477274	-0.0167951	0.00020415	0.000229787	0	0	0	
0.298667	0.00529831	0.0205038	0.000171855	0.000304643	0	0	0	
0.298833	-0.00340725	-0.00490577	0.00013382	0.000327223	0	0	0	
0.299	0.00322276	-0.0249175	9.90012E-05	0.000446611	0	0	0	
0.299167	-0.00580893	0.0117895	9.46888E-05	0.00044173	0	0	0	
0.299333	0.00472314	0.025623	0.000126349	0.000755954	0	0	0	
0.2995	0.0100334	-0.023122	0.000173711	0.00100903	0	0	0	
0.299667	-0.0143234	0.0133877	0.000222121	0.000999378	0	0	0	
0.299833	0.00611105	-1.33076E-05	0.000224567	0.00062803	0	0	0	
0.3	-0.00337434	0.00445265	0.000173771	0.000259502	0	0	0	
0.300167	0.0114289	0.0180961	0.000131596	0.000242638	0	0	0	
0.300333	0.00497157	-0.0445872	0.000208091	0.000346742	0	0	0	
0.3005	-0.050532	-0.0846677	0.000648487	0.00110641	0	0	0	
0.300667	0.0595785	-0.0159897	0.00138765	0.00226439	0	0	0	
0.300833	-0.0379374	-0.0626338	0.00166133	0.00259539	0	0	0	
0.301	0.0189926	0.0199522	0.00145771	0.00205294	0	0	0	
0.301167	0.00235705	-0.00654229	0.00084355	0.00101705	0	0	0	
0.301333	0.000360199	-0.0151807	0.00044866	0.00068759	0	0	0	
0.3015	-0.0121278	0.0123128	0.000298625	0.000721104	0	0	0	
0.301667	0.0249434	-0.0178401	0.000254392	0.000844644	0	0	0	
0.301833	-0.0047987	0.0430589	0.000335419	0.000940652	0	0	0	
0.302	-0.00146441	-0.0410241	0.000335255	0.000891636	0	0	0	
0.302167	-0.00588631	0.000296802	0.00026336	0.000833338	0	0	0	
0.302333	0.00523385	0.0159153	0.000221495	0.000847052	0	0	0	
0.3025	-0.00502658	-0.029873	0.000133073	0.000794323	0	0	0	
0.302667	0.00551782	0.0286457	0.000134739	0.000681711	0	0	0	
0.302833	0.00256909	-0.0209917	9.96566E-05	0.000567392	0	0	0	
0.303	-0.00432499	0.0232333	0.000102002	0.000511306	0	0	0	
0.303167	0.00200466	-0.0185053	9.26078E-05	0.000440461	0	0	0	
0.303333	0.000557096	0.000877051	9.79734E-05	0.00045845	0	0	0	
0.3035	-0.00435079	0.00597103	9.37944E-05	0.000390004	0	0	0	
0.303667	0.0100541	0.000684247	9.84928E-05	0.000300053	0	0	0	
0.303833	-0.00774066	0.00734331	0.000123951	0.000230726	0	0	0	
0.304	0.002188	-0.02373	0.000148211	0.000351591	0	0	0	
0.304167	-0.001054	0.0361557	0.000138203	0.000520909	0	0	0	
0.304333	0.000687685	-0.0280959	0.000128287	0.000581239	0	0	0	
0.3045	-0.00037356	0.0315843	0.00011546	0.000581144	0	0	0	
0.304667	-0.00293442	-0.0310041	0.000111613	0.000599447	0	0	0	
0.304833	-0.00142676	0.014581	0.00012951	0.000592431	0	0	0	
0.305	0.0112177	0.00655009	0.000130438	0.000495969	0	0	0	
0.305167	-0.00970997	-0.0056313	0.000173118	0.00032655	0	0	0	
0.305333	-0.000858469	-0.0069678	0.000159829	0.000201697	0	0	0	
0.3055	-0.0029234	0.00916662	0.000152065	0.000158465	0	0	0	
0.305667	0.00302688	0.0180105	0.000107721	0.000172636	0	0	0	
0.305833	-0.00327047	-0.0336425	7.43878E-05	0.000289632	0	0	0	
0.306	0.00552857	0.017938	8.41981E-05	0.000399086	0	0	0	
0.306167	-0.00267541	0.00243113	9.29961E-05	0.000470356	0	0	0	
0.306333	-0.00331242	-0.014665	9.02314E-05	0.000384725	0	0	0	
0.3065	0.000423979	0.00994122	8.4305E-05	0.000307639	0	0	0	
0.306667	0.00346208	0.00465933	7.43078E-05	0.000221425	0	0	0	
0.306833	-0.0019528	0.00183008	8.42393E-05	0.000158848	0	0	0	
0.307	0.00369765	-0.0112241	6.75094E-05	0.000118073	0	0	0	
0.307167	-0.00540909	-0.00236605	6.96925E-05	0.00011921	0	0	0	
0.307333	0.0010652	0.0117647	6.91144E-05	0.00016379	0	0	0	
0.3075	-0.00360177	-0.00917125	8.53912E-05	0.000169106	0	0	0	
0.307667	0.00546494	0.0034843	0.000101302	0.000177809	0	0	0	
0.307833	-0.0024283	-0.00410714	0.000104556	0.00014041	0	0	0	
0.308	0.00277655	-0.00133788	9.29212E-05	0.000103513	0	0	0	
0.308167	1.28741E-05	0.000757592	5.61081E-05	5.7856E-05	0	0	0	
0.308333	-0.000992245	-0.000815592	3.35609E-05	9.3142E-05	0	0	0	
0.3085	-0.0034407	5.13468E-05	4.17273E-05	0.000169607	0	0	0	
0.308667	0.00448067	0.00558312	7.85682E-05	0.000222527	0	0	0	
0.308833	-0.00251845	-0.0124315	0.000109911	0.000207985	0	0	0	
0.309	0.000960122	0.00580084	0.000121128	0.000176843	0	0	0	
0.309167	0.00176193	-0.00497066	0.000125154	0.000156861	0	0	0	
0.309333	0.00126647	0.00512375	0.000139107	0.000128445	0	0	0	
0.3095	-0.00363216	-0.00100161	0.00014993	9.67018E-05	0	0	0	
0.309667	0.00563657	0.00451287	0.000161674	7.41173E-05	0	0	0	
0.309833	-0.00523147	-0.00203789	0.000161141	9.29286E-05	0	0	0	
0.31	0.00790748	-0.00298462	0.000151391	0.000128709	0	0	0	
0.310167	-0.0106813	0.0048525	0.000151114	0.000211629	0	0	0	
0.310333	0.00863869	0.00103636	0.000166634	0.000272137	0	0	0	
0.3105	-0.00728575	-0.00640127	0.000181244	0.000290446	0	0	0	
0.310667	0.0042379	0.00551	0.000178849	0.000219084	0	0	0	
0.310833	-0.000528354	0.00368175	0.000163294	0.000164013	0	0	0	
0.311	0.00258907	-0.0103911	0.000120561	0.000150038	0	0	0	
0.311167	-0.00488827	0.0075008	8.5047E-05	0.000323115	0	0	0	
0.311333	0.00164591	-0.00449255	9.89114E-05	0.000489007	0	0	0	
0.3115	-0.00294187	0.00355511	0.000123021	0.00060509	0	0	0	
0.311667	0.00985994	0.0105413	0.000137733	0.000618122	0	0	0	
0.311833	-0.00986907	-0.0278616	0.000145477	0.00054701	0	0	0	
0.312	0.00107851	0.00777035	0.000206559	0.000485473	0	0	0	
0.312167	-0.00400031	0.02454	0.000208634	0.000430622	0	0	0	
0.312333	0.0129762	-0.0273888	0.000197082	0.000454215	0	0	0	
0.3125	-0.0115288	0.00788019	0.000178087	0.000496017	0	0	0	
0.312667	0.00343573	0.00434299	0.000193468	0.000399698	0	0	0	
0.312833	-0.00188371	0.00565519	0.000154788	0.000442631	0	0	0	
0.313	0.00715981	-0.00373275	0.000107155	0.000320806	0	0	0	
0.313167	-0.00650297	-0.00763795	9.51949E-05	0.000369502	0	0	0	
0.313333	0.00213349	0.000409179	0.000113005	0.000195098	0	0	0	
0.3135	-0.00129674	0.015454	0.000103566	0.000209096	0	0	0	
0.313667	0.00242168	0.00229371	8.02467E-05	0.000152194	0	0	0	
0.313833	-0.00379036	-0.0198437	6.7457E-05	0.000246033	0	0	0	
0.314	0.00463097	0.00812885	6.86956E-05	0.000253852	0	0	0	
0.314167	-0.00263471	0.0133583	8.14256E-05	0.000313177	0	0	0	
0.314333	-0.00157837	-0.0130386	0.000101062	0.000278997	0	0	0	
0.3145	0.000775516	0.00268785	0.000141052	0.000301635	0	0	0	
0.314667	0.00358222	0.00552498	0.000179371	0.000249895	0	0	0	
0.314833	-0.00335047	0.000331216	0.000189087	0.000177773	0	0	0	
0.315	0.00177753	-0.00948697	0.000145255	0.000144167	0	0	0	
0.315167	-0.00495099	0.00479826	9.50015E-05	0.000163016	0	0	0	
0.315333	0.00687137	-0.00515554	8.22988E-05	0.000189394	0	0	0	
0.3155	-0.00773103	0.012984	0.000144987	0.000180421	0	0	0	
0.315667	0.00839295	-0.0172105	0.000209218	0.000218137	0	0	0	
0.315833	-0.0101548	0.0191733	0.000233553	0.000277014	0	0	0	
0.316	0.0187561	-0.0169227	0.000250626	0.00035449	0	0	0	
0.316167	-0.0178369	0.00901467	0.000295065	0.000329763	0	0	0	
0.316333	0.0122223	-0.0163914	0.000323478	0.000305307	0	0	0	
0.3165	-0.00358669	0.0279069	0.00027793	0.000322178	0	0	0	
0.316667	0.00704481	-0.0134281	0.000178108	0.000384069	0	0	0	
0.316833	-0.0164207	-0.00820019	0.000163233	0.000479142	0	0	0	
0.317	0.0122953	0.00993738	0.000212638	0.000431579	0	0	0	
0.317167	-0.000539311	0.00363358	0.000262592	0.000314398	0	0	0	
0.317333	0.00150498	-0.00152741	0.000281456	0.000193764	0	0	0	
0.3175	-0.00742903	-0.00560116	0.000260345	0.000164484	0	0	0	
0.317667	0.0173546	-0.00320338	0.000265048	0.00021976	0	0	0	
0.317833	-0.0205359	0.0219521	0.000300687	0.000238737	0	0	0	
0.318	0.0170067	-0.0204347	0.000349034	0.000318355	0	0	0	
0.318167	-0.00962114	0.00811667	0.000343085	0.000356871	0	0	0	
0.318333	-0.00183138	-0.00193857	0.000282683	0.000328176	0	0	0	
0.3185	0.00351823	0.00328958	0.000235967	0.000187242	0	0	0	
0.318667	-0.00267557	-0.00771506	0.000167587	0.000124861	0	0	0	
0.318833	0.00137068	7.12885E-05	0.000207168	0.000154611	0	0	0	
0.319	0.0039786	0.00224564	0.000257819	0.000182743	0	0	0	
0.319167	-0.0142964	0.000721178	0.000333107	0.000126123	0	0	0	
0.319333	0.0128146	2.06196E-05	0.000302055	8.08181E-05	0	0	0	
0.3195	-0.0175043	-0.00628815	0.000276075	9.8775E-05	0	0	0	
0.319667	0.00346883	0.00492596	0.000256719	0.000137605	0	0	0	
0.319833	0.00668746	-0.00606819	0.000207974	0.000146807	0	0	0	
0.32	-0.00530832	-0.00459866	0.000167734	0.000146039	0	0	0	
0.320167	0.00117891	0.0117454	0.000135034	0.000173361	0	0	0	
0.320333	-0.00544845	-0.00913473	0.000133822	0.000257426	0	0	0	
0.3205	-0.00341978	0.00907294	0.000105077	0.000269803	0	0	0	
0.320667	0.00150998	-0.0128873	9.32056E-05	0.000260128	0	0	0	
0.320833	0.0101576	0.00274047	9.31159E-05	0.000218038	0	0	0	
0.321	-0.00548854	0.00858976	0.000142064	0.000202177	0	0	0	
0.321167	0.0124469	-0.0154508	0.000159121	0.000203882	0	0	0	
0.321333	-0.0197697	0.0189461	0.000240687	0.000233231	0	0	0	
