0	-0.0125223	-0.00662146	1.25223E-06	6.62146E-07	0	5	0	
0.000166667	0.0259955	-0.0280685	0.000125578	0.000343513	0	5	0	
0.000333333	-0.0103973	0.0487025	0.000444256	0.000662268	0	5	0	
0.0005	-0.03316	-0.0165099	0.00094886	0.000858802	0	5	0	
0.000666667	0.0418157	-0.0239519	0.00117563	0.00073172	0	5	0	
0.000833333	0.00367007	0.0290934	0.000988431	0.000565132	0	5	0	
0.001	-0.0351807	-0.0191383	0.000635627	0.000638471	0	5	0	
0.00116667	0.0212998	0.0158098	0.000586368	0.000766081	0	5	0	
0.00133333	-0.00416937	-0.0167996	0.00079632	0.000884489	0	5	0	
0.0015	0.0327142	0.0369844	0.000801918	0.000852168	0	5	0	
0.00166667	-0.0647077	-0.0235919	0.000775684	0.000805161	0	5	0	
0.00183333	0.033587	-0.0240788	0.000981936	0.000876716	0	5	0	
0.002	0.0269857	0.019721	0.00146274	0.000780568	0	5	0	
0.00216667	-0.00685812	0.0316072	0.00136753	0.000751886	0	5	0	
0.00233333	-0.0566087	-0.0309893	0.00101997	0.00059791	0	5	0	
0.0025	0.0503028	0.0056544	0.000750504	0.000612938	0	5	0	
0.00266667	0.00768537	-0.0204115	0.00107748	0.000531088	0	5	0	
0.00283333	0.0127743	0.0505145	0.00100911	0.000627685	0	5	0	
0.003	-0.0681979	-0.0283326	0.000908208	0.000779021	0	5	0	
0.00316667	0.0615535	-0.021755	0.00086377	0.00108811	0	5	0	
0.00333333	-0.000688948	0.0319265	0.0013133	0.00104231	0	5	0	
0.0035	-0.00727837	0.00107262	0.00135226	0.000856113	0	5	0	
0.00366667	-0.0160643	-0.016721	0.000953693	0.000491486	0	5	0	
0.00383333	0.0340775	0.00835443	0.000557174	0.000340939	0	5	0	
0.004	-0.0260697	0.0158298	0.000558477	0.000377235	0	5	0	
0.00416667	0.015555	-0.0161995	0.000857032	0.000370168	0	5	0	
0.00433333	-0.00558906	-0.000660672	0.000946197	0.000346442	0	5	0	
0.0045	0.0211762	0.0116586	0.000815878	0.000244517	0	5	0	
0.00466667	-0.0277468	-0.0060331	0.000665658	0.000171772	0	5	0	
0.00483333	0.0257593	0.00723763	0.000710013	0.000193805	0	5	0	
0.005	-0.0128835	0.00321703	0.000832758	0.000221646	0	5	0	
0.00516667	0.0210229	0.000852593	0.000863964	0.000280761	0	5	0	
0.00533333	-0.0228104	0.0045659	0.00076606	0.000331412	0	5	0	
0.0055	0.0249104	-0.00182893	0.000731797	0.000347042	0	5	0	
0.00566667	-0.0184773	-0.00982016	0.000765146	0.000292427	0	5	0	
0.00583333	0.0214073	0.0159284	0.000797365	0.000289246	0	5	0	
0.006	-0.0191794	-0.00381562	0.000757199	0.000450339	0	5	0	
0.00616667	0.0238963	-0.00181483	0.000735397	0.000632906	0	5	0	
0.00633333	-0.0229792	-0.0130647	0.000752186	0.000657172	0	5	0	
0.0065	0.0296664	0.0160561	0.000814806	0.000597013	0	5	0	
0.00666667	-0.0246448	-0.00108721	0.000862922	0.000537878	0	5	0	
0.00683333	0.0190246	0.0126177	0.000880107	0.000454378	0	5	0	
0.007	-0.0173204	-0.0278283	0.000849167	0.000395868	0	5	0	
0.00716667	0.0210429	0.0235658	0.000806225	0.00038462	0	5	0	
0.00733333	-0.0200177	-0.0294579	0.000781124	0.000511339	0	5	0	
0.0075	0.0211421	0.028894	0.000763772	0.000576118	0	5	0	
0.00766667	-0.0232449	-0.0185333	0.000731071	0.000558387	0	5	0	
0.00783333	0.0228161	0.0199494	0.000709164	0.000506892	0	5	0	
0.008	-0.0200647	-0.0155152	0.000730345	0.000442645	0	5	0	
0.00816667	0.0207236	0.00879736	0.000767707	0.000432258	0	5	0	
0.00833333	-0.0240779	-0.00967765	0.000782743	0.000392261	0	5	0	
0.0085	0.025202	0.0140172	0.000784659	0.0003385	0	5	0	
0.00866667	-0.0226531	-0.0160443	0.000784756	0.000304514	0	5	0	
0.00883333	0.0258277	0.014494	0.000800909	0.000315323	0	5	0	
0.009	-0.0256751	-0.00727005	0.00080665	0.000315455	0	5	0	
0.00916667	0.0249625	0.00382939	0.000815231	0.000275094	0	5	0	
0.00933333	-0.0244825	-0.00645534	0.000814759	0.000193866	0	5	0	
0.0095	0.0215007	0.0107953	0.000797954	0.000157952	0	5	0	
0.00966667	-0.0171482	-0.0114068	0.000771328	0.000169959	0	5	0	
0.00983333	0.0162294	0.00525486	0.000738672	0.000185431	0	5	0	
0.01	-0.0192104	-0.0016177	0.000707944	0.000206929	0	5	0	
0.0101667	0.0233901	0.000640184	0.000701307	0.000236799	0	5	0	
0.0103333	-0.0208293	-0.00407526	0.000718549	0.000263354	0	5	0	
0.0105	0.0243871	0.0151689	0.000727931	0.000277538	0	5	0	
0.0106667	-0.0227704	-0.0126441	0.000670997	0.000267587	0	5	0	
0.0108333	0.0228914	0.0116048	0.00061805	0.00031372	0	5	0	
0.011	-0.0225941	-0.00705837	0.000661355	0.000368703	0	5	0	
0.0111667	0.0260814	0.00126004	0.000759621	0.000398395	0	5	0	
0.0113333	-0.027115	0.00562766	0.000824755	0.000383014	0	5	0	
0.0115	0.0212	-0.00109816	0.000837852	0.000309517	0	5	0	
0.0116667	-0.00408561	0.00385851	0.000796268	0.000217804	0	5	0	
0.0118333	0.0110746	0.0118336	0.00072706	0.000152357	0	5	0	
0.012	-0.0221837	-0.0156031	0.000673393	0.000176595	0	5	0	
0.0121667	0.023322	0.0142831	0.000700656	0.000248169	0	5	0	
0.0123333	-0.0241281	-0.00865979	0.000749263	0.000336576	0	5	0	
0.0125	0.0281327	0.00685502	0.000767821	0.000386122	0	5	0	
0.0126667	-0.022166	-0.00393934	0.000751748	0.000399958	0	5	0	
0.0128333	0.0242058	0.00742187	0.000758222	0.000364535	0	5	0	
0.013	-0.0294176	-0.00279313	0.000751961	0.000291865	0	5	0	
0.0131667	0.0307469	0.00312142	0.000780464	0.000230495	0	5	0	
0.0133333	-0.0259443	-0.00440653	0.000813879	0.000161287	0	5	0	
0.0135	0.0231672	0.0071419	0.000848354	0.00011026	0	5	0	
0.0136667	-0.0187143	-0.00572862	0.000848213	0.000133468	0	5	0	
0.0138333	0.0189172	0.00422441	0.000836415	0.000221074	0	5	0	
0.014	-0.0203164	-0.00262933	0.000787213	0.000308073	0	5	0	
0.0141667	0.0280541	0.00978589	0.000753348	0.00033099	0	5	0	
0.0143333	-0.0256966	-0.00538329	0.000734012	0.000264579	0	5	0	
0.0145	0.0263345	0.00964971	0.000773208	0.000209209	0	5	0	
0.0146667	-0.0283782	-0.0124614	0.000805837	0.000170166	0	5	0	
0.0148333	0.0266387	0.0200019	0.000855513	0.000230986	0	5	0	
0.015	-0.0181662	-0.0183725	0.00085656	0.000286478	0	5	0	
0.0151667	0.0228114	0.0144062	0.000824233	0.000335724	0	5	0	
0.0153333	-0.0272246	-0.00250747	0.000750236	0.000273489	0	5	0	
0.0155	0.0275732	0.00283368	0.000742564	0.000204152	0	5	0	
0.0156667	-0.0244748	0.0032089	0.000777157	0.000142407	0	5	0	
0.0158333	0.0260335	-0.00469743	0.000821289	0.000138171	0	5	0	
0.016	-0.0257973	-0.0010505	0.000810944	0.000128618	0	5	0	
0.0161667	0.0233633	0.014765	0.000804095	0.000120403	0	5	0	
0.0163333	-0.0205321	-0.024095	0.000798244	0.000211281	0	5	0	
0.0165	0.0212982	0.0181332	0.000786205	0.000316385	0	5	0	
0.0166667	-0.0248684	-0.021749	0.000759987	0.000427722	0	5	0	
0.0168333	0.021798	0.0122716	0.000755605	0.000458537	0	5	0	
0.017	-0.0165171	0.000178955	0.000762459	0.00044959	0	5	0	
0.0171667	0.0202298	0.00207089	0.000743301	0.000340034	0	5	0	
0.0173333	-0.0256088	-0.00856184	0.000717167	0.000214492	0	5	0	
0.0175	0.0270917	0.00936138	0.000746557	0.000148376	0	5	0	
0.0176667	-0.0229435	-0.0113676	0.000803251	0.000164517	0	5	0	
0.0178333	0.0241028	0.00337162	0.000853587	0.000214036	0	5	0	
0.018	-0.0210187	0.000355578	0.000850483	0.000254644	0	5	0	
0.0181667	0.0169931	-0.00239978	0.000816047	0.000278358	0	5	0	
0.0183333	-0.0199502	0.00732162	0.000757967	0.000267796	0	5	0	
0.0185	0.0250248	0.00181792	0.000733022	0.000239605	0	5	0	
0.0186667	-0.022747	-0.00723059	0.000741284	0.000232656	0	5	0	
0.0188333	0.0238374	0.0125417	0.000770937	0.000316957	0	5	0	
0.019	-0.0218486	-0.0101798	0.000758143	0.000447534	0	5	0	
0.0191667	0.0216554	0.00526049	0.000749796	0.000526167	0	5	0	
0.0193333	-0.0228946	-0.00414738	0.000773692	0.000496186	0	5	0	
0.0195	0.0214861	0.0100654	0.000833801	0.000458044	0	5	0	
0.0196667	-0.0185333	-0.0124325	0.000852538	0.00049111	0	5	0	
0.0198333	0.0164833	0.0103677	0.000812841	0.000549169	0	5	0	
0.02	-0.015868	-0.00816961	0.000738684	0.000528845	0	5	0	
0.0201667	0.0181618	0.00563278	0.000684149	0.000422941	0	5	0	
0.0203333	-0.0258442	-0.0119551	0.00067336	0.000325371	0	5	0	
0.0205	0.0307385	0.0162164	0.000707318	0.000294131	0	5	0	
0.0206667	-0.0268735	-0.0193644	0.000770409	0.000326323	0	5	0	
0.0208333	0.0214461	0.0185297	0.000835087	0.000374407	0	5	0	
0.021	-0.0172424	-0.0112814	0.000860781	0.00039992	0	5	0	
0.0211667	0.020969	0.00632199	0.000862314	0.000432378	0	5	0	
0.0213333	-0.0202428	-0.00689471	0.000837603	0.000461679	0	5	0	
0.0215	0.0187175	0.00345192	0.000811912	0.000439512	0	5	0	
0.0216667	-0.0194269	-0.0130924	0.000766747	0.00035303	0	5	0	
0.0218333	0.0216823	0.0119133	0.000727835	0.000254441	0	5	0	
0.022	-0.0212828	-0.00313501	0.000717398	0.000278614	0	5	0	
0.0221667	0.0279149	-0.00042667	0.000744765	0.000348109	0	5	0	
0.0223333	-0.0221333	0.000884114	0.000765778	0.000310586	0	5	0	
0.0225	0.02252	0.00259514	0.000794177	0.000189544	0	5	0	
0.0226667	-0.0271161	-0.00764802	0.000773511	9.69471E-05	0	5	0	
0.0228333	0.0272798	0.018075	0.000759958	0.000197216	0	5	0	
0.023	-0.0140372	-0.0312194	0.000734927	0.000321922	0	5	0	
0.0231667	0.0125735	0.0271702	0.000761274	0.000483601	0	5	0	
0.0233333	-0.0226437	-0.0114321	0.000745403	0.000542414	0	5	0	
0.0235	0.0280223	5.66144E-05	0.000770327	0.000618716	0	5	0	
0.0236667	-0.013365	0.0139782	0.000797946	0.000680758	0	5	0	
0.0238333	0.00916047	-0.018366	0.000782536	0.000657384	0	5	0	
0.024	-0.0221627	0.00898364	0.000704243	0.000528309	0	5	0	
0.0241667	0.0256673	0.00837867	0.000717375	0.000304018	0	5	0	
0.0243333	-0.0256768	-0.0125535	0.000829015	0.000214677	0	5	0	
0.0245	0.0250787	0.00877128	0.000897884	0.00023259	0	5	0	
0.0246667	-0.0257709	-0.0133332	0.000862262	0.000344547	0	5	0	
0.0248333	0.0208757	0.00749905	0.000807794	0.000417114	0	5	0	
0.025	-0.0306125	-0.00930845	0.000798697	0.000422251	0	5	0	
0.0251667	0.0260617	0.00834756	0.000776543	0.00034266	0	5	0	
0.0253333	-0.0233171	-0.00755234	0.000791512	0.00026213	0	5	0	
0.0255	0.0234722	0.00190646	0.000775633	0.000207402	0	5	0	
0.0256667	-0.034408	0.000210893	0.000784807	0.000179478	0	5	0	
0.0258333	0.0342124	0.00893291	0.000803327	0.000159218	0	5	0	
0.026	-0.025352	-0.0090878	0.000886332	0.000190303	0	5	0	
0.0261667	0.0177324	-0.00633765	0.000909495	0.000268797	0	5	0	
0.0263333	-0.0208315	0.00228518	0.000865162	0.000294682	0	5	0	
0.0265	0.025152	0.00473889	0.000790212	0.000232847	0	5	0	
0.0266667	-0.0184135	-0.00568823	0.000726902	0.00021497	0	5	0	
0.0268333	0.0252135	0.008671	0.000613344	0.000298573	0	5	0	
0.027	-0.032395	-0.00825096	0.000554633	0.000338778	0	5	0	
0.0271667	0.0329067	0.0238039	0.000623168	0.00032501	0	5	0	
0.0273333	-0.026107	-0.0203221	0.000795915	0.000326003	0	5	0	
0.0275	0.0288778	0.00286802	0.000904481	0.000420028	0	5	0	
0.0276667	-0.0281716	-0.00218442	0.000882304	0.00041441	0	5	0	
0.0278333	0.0225562	0.0146281	0.000857152	0.00036925	0	5	0	
0.028	-0.0185439	-0.0031081	0.000854676	0.00046282	0	5	0	
0.0281667	0.0178182	-0.0216118	0.000845298	0.000665078	0	5	0	
0.0283333	-0.0271599	0.015322	0.000872074	0.00072305	0	5	0	
0.0285	0.0162747	-1.65794E-05	0.00091441	0.00053204	0	5	0	
0.0286667	-0.0143247	-0.00657099	0.00087709	0.00035062	0	5	0	
0.0288333	0.0206103	0.00509042	0.00070413	0.000334752	0	5	0	
0.029	-0.0301103	-0.022697	0.000538474	0.000433866	0	5	0	
0.0291667	0.0288579	0.0263949	0.000543441	0.000515723	0	5	0	
0.0293333	-0.04434	-0.0225012	0.000692499	0.00055282	0	5	0	
0.0295	0.0393336	0.0113432	0.000856739	0.000557691	0	5	0	
0.0296667	-0.0287207	-0.0135297	0.000948863	0.000460731	0	5	0	
0.0298333	0.0195912	0.0105428	0.0009066	0.000340768	0	5	0	
0.03	-0.0242588	-0.022694	0.000820261	0.000276698	0	5	0	
0.0301667	0.0188439	0.0178321	0.000761603	0.000352124	0	5	0	
0.0303333	-0.0118866	-0.000185474	0.000750576	0.000467796	0	5	0	
0.0305	0.0117106	-0.0153868	0.00069816	0.000558222	0	5	0	
0.0306667	-0.0126258	0.0199913	0.00062622	0.000514539	0	5	0	
0.0308333	0.0107361	-0.0199675	0.000560262	0.000455357	0	5	0	
0.031	-0.0244947	0.0145746	0.000543705	0.000387863	0	5	0	
0.0311667	0.0450061	-0.0232127	0.000641955	0.000389016	0	5	0	
0.0313333	-0.0384241	0.0289682	0.000777465	0.000422157	0	5	0	
0.0315	0.0197637	-0.0099951	0.000801096	0.000450372	0	5	0	
0.0316667	-0.0228103	-0.0060201	0.000691903	0.000402523	0	5	0	
0.0318333	0.0344855	-0.00469223	0.000674423	0.00035891	0	5	0	
0.032	-0.0392634	-0.00247756	0.000805441	0.000295034	0	5	0	
0.0321667	0.0390746	0.0100698	0.000979088	0.00026282	0	5	0	
0.0323333	-0.018105	-0.0133462	0.000904817	0.000214529	0	5	0	
0.0325	0.00235645	0.0183467	0.000720299	0.000280715	0	5	0	
0.0326667	-0.0179331	-0.0118382	0.000570174	0.000407646	0	5	0	
0.0328333	0.0307657	-0.00705507	0.000602389	0.000396696	0	5	0	
0.033	-0.0288763	0.0125115	0.000667217	0.000397513	0	5	0	
0.0331667	0.0311974	-0.00767401	0.000710271	0.000330406	0	5	0	
0.0333333	-0.0176171	-0.0314612	0.000669593	0.00036828	0	5	0	
0.0335	0.0142868	0.0688021	0.000670229	0.000551777	0	5	0	
0.0336667	-0.0272357	-0.0342349	0.000643361	0.00119711	0	5	0	
0.0338333	0.0271173	-0.0146948	0.000631483	0.00183766	0	5	0	
0.034	-0.0219098	0.00763919	0.000642533	0.0018139	0	5	0	
0.0341667	0.0291761	0.0283223	0.000718957	0.0012488	0	5	0	
0.0343333	-0.042406	-0.037289	0.00079877	0.000739646	0	5	0	
0.0345	0.0582569	0.0666117	0.000969087	0.000752131	0	5	0	
0.0346667	-0.044315	-0.062669	0.0011398	0.0010105	0	5	0	
0.0348333	0.0288074	0.0333639	0.00124008	0.00111024	0	5	0	
0.035	-0.042058	-0.028059	0.00127643	0.00103512	0	5	0	
0.0351667	0.0146491	0.0515545	0.00131752	0.000820974	0	5	0	
0.0353333	0.00218711	-0.021306	0.00122983	0.00074455	0	5	0	
0.0355	0.0370125	0.00837387	0.000980829	0.000618751	0	5	0	
0.0356667	-0.0764404	-0.0364503	0.000884338	0.000538688	0	5	0	
0.0358333	0.0789419	0.0474115	0.00105081	0.000540576	0	5	0	
0.036	-0.0717989	-0.0189041	0.00142002	0.000843345	0	5	0	
0.0361667	0.0658408	-0.0102868	0.00153691	0.00129894	0	5	0	
0.0363333	-0.0398959	0.0272157	0.00161433	0.00173649	0	5	0	
0.0365	-0.00104359	-0.033432	0.00159691	0.00183642	0	5	0	
0.0366667	0.0110014	0.0349874	0.00129771	0.00149568	0	5	0	
0.0368333	0.0271322	-0.0330103	0.000910894	0.00101537	0	5	0	
0.037	-0.058308	0.0111961	0.000612975	0.000666239	0	5	0	
0.0371667	0.0565039	0.0507722	0.000779194	0.000887881	0	5	0	
0.0373333	-0.0431561	-0.0969855	0.00102834	0.00110825	0	5	0	
0.0375	0.0413337	0.0570962	0.00112574	0.0015082	0	5	0	
0.0376667	-0.0265131	0.00682458	0.00103877	0.00148209	0	5	0	
0.0378333	0.013688	-0.00581265	0.000948619	0.00113655	0	5	0	
0.038	-0.0073546	-0.0234298	0.000881647	0.000641808	0	5	0	
0.0381667	0.0235391	0.0403742	0.000846866	0.000396279	0	5	0	
0.0383333	-0.0274297	-0.0220636	0.000768383	0.000641779	0	5	0	
0.0385	0.0333433	-0.00265252	0.000739617	0.000927564	0	5	0	
0.0386667	-0.0314053	0.010655	0.000731909	0.000931611	0	5	0	
0.0388333	0.027043	-0.00622701	0.00079612	0.000644239	0	5	0	
0.039	-0.0220574	-0.0122017	0.000819205	0.000322563	0	5	0	
0.0391667	0.0380691	0.0387078	0.000910352	0.000270158	0	5	0	
0.0393333	-0.0230497	-0.0605416	0.000962862	0.000514858	0	5	0	
0.0395	0.0077413	0.0369492	0.000969013	0.00083261	0	5	0	
0.0396667	-0.00851261	0.0168666	0.000749337	0.00115449	0	5	0	
0.0398333	0.0246343	-0.0328512	0.000523477	0.00113065	0	5	0	
0.04	-0.0224301	-0.00418906	0.000414778	0.000854098	0	5	0	
0.0401667	0.0195073	0.0156245	0.000513367	0.000452341	0	5	0	
0.0403333	-0.026664	-0.000735047	0.000623288	0.000414234	0	5	0	
0.0405	0.0312151	0.00473828	0.000703631	0.000439355	0	5	0	
0.0406667	-0.020791	-0.0225838	0.000775954	0.000445174	0	5	0	
0.0408333	0.00871955	0.0258885	0.000824991	0.000446987	0	5	0	
0.041	-0.0155951	-0.0157101	0.000771342	0.000600371	0	5	0	
0.0411667	0.0255129	0.0214717	0.000688855	0.000724531	0	5	0	
0.0413333	-0.022189	-0.0330003	0.000694383	0.000731637	0	5	0	
0.0415	0.0215786	0.02392	0.000768326	0.000754729	0	5	0	
0.0416667	-0.0289898	-0.00613674	0.000787696	0.000834263	0	5	0	
0.0418333	0.0312875	-0.00260919	0.000756676	0.000833585	0	5	0	
0.042	-0.0311887	0.0107488	0.000756555	0.000707934	0	5	0	
0.0421667	0.0293714	-0.00840671	0.000760999	0.000512373	0	5	0	
0.0423333	-0.0272774	-0.00722098	0.000754855	0.000312822	0	5	0	
0.0425	0.0245764	0.0267556	0.000752056	0.000248856	0	5	0	
0.0426667	-0.025042	-0.0355389	0.000777739	0.000355314	0	5	0	
0.0428333	0.0273768	0.017484	0.00079089	0.000619862	0	5	0	
0.043	-0.0272104	0.00350488	0.000775274	0.000851422	0	5	0	
0.0431667	0.0358313	-0.0102141	0.000763317	0.000918008	0	5	0	
0.0433333	-0.033761	0.0113409	0.000785444	0.000761869	0	5	0	
0.0435	0.031379	-0.00637225	0.000812464	0.000482236	0	5	0	
0.0436667	-0.0349179	-0.00847504	0.000857633	0.000264982	0	5	0	
0.0438333	0.0352324	0.0172174	0.000897532	0.000197387	0	5	0	
0.044	-0.0294296	-0.0198615	0.000906673	0.000265986	0	5	0	
0.0441667	0.0287569	0.0122276	0.000855011	0.000383625	0	5	0	
0.0443333	-0.0269503	-0.00320786	0.000786014	0.000449562	0	5	0	
0.0445	0.0232105	-0.00238806	0.000709675	0.0004193	0	5	0	
0.0446667	-0.0265416	-0.00403911	0.000676878	0.000332815	0	5	0	
0.0448333	0.0284883	0.00530957	0.000668364	0.000299611	0	5	0	
0.045	-0.0265414	-0.00651933	0.000702962	0.000329928	0	5	0	
0.0451667	0.0249384	0.00763182	0.000709816	0.000367796	0	5	0	
0.0453333	-0.0292315	-0.00667629	0.000701921	0.000393246	0	5	0	
0.0455	0.0313724	0.000838403	0.000716287	0.000400965	0	5	0	
0.0456667	-0.0326135	-0.000588827	0.000769688	0.000396762	0	5	0	
0.0458333	0.0378293	-0.0125757	0.000810848	0.000385644	0	5	0	
0.046	-0.0458835	0.00946617	0.000862637	0.000303326	0	5	0	
0.0461667	0.0378446	0.0268552	0.000944512	0.000404318	0	5	0	
0.0463333	-0.0198076	-0.0417336	0.00104044	0.000464016	0	5	0	
0.0465	0.0263584	0.00177185	0.00100519	0.000751783	0	5	0	
0.0466667	-0.038229	0.0279614	0.000880607	0.000826702	0	5	0	
0.0468333	0.0336462	-0.0126595	0.000779787	0.000746102	0	5	0	
0.047	-0.0248112	-0.00270909	0.000796186	0.000468577	0	5	0	
0.0471667	0.0315099	-0.00639502	0.000786054	0.000216858	0	5	0	
0.0473333	-0.0373516	0.00067173	0.000753742	0.000155466	0	5	0	
0.0475	0.0265615	0.0206579	0.000745719	0.000209592	0	5	0	
0.0476667	-0.0199546	-0.0201207	0.000729488	0.000280805	0	5	0	
0.0478333	0.0295435	0.00432995	0.000671969	0.000400622	0	5	0	
0.048	-0.0326351	0.00352925	0.000620348	0.000409923	0	5	0	
0.0481667	0.0284196	0.0046723	0.000673	0.000313505	0	5	0	
0.0483333	-0.0235952	-0.0253968	0.000759734	0.000252036	0	5	0	
0.0485	0.0194103	0.0226519	0.000818775	0.000291881	0	5	0	
0.0486667	-0.0122362	0.00784686	0.000778587	0.000570775	0	5	0	
0.0488333	0.0274329	-0.0220642	0.000724808	0.000656131	0	5	0	
0.049	-0.031807	0.00354786	0.000690253	0.000565928	0	5	0	
0.0491667	0.0243655	0.017775	0.000736993	0.000392825	0	5	0	
0.0493333	-0.0286966	-0.0219083	0.000804059	0.000317255	0	5	0	
0.0495	0.0375964	0.0112094	0.000861625	0.000397665	0	5	0	
0.0496667	-0.0272472	0.00188495	0.000853751	0.000431344	0	5	0	
0.0498333	0.0305715	0.000218355	0.000839346	0.000355692	0	5	0	
0.05	-0.0317208	-0.0140607	0.000817572	0.000248645	0	5	0	
0.0501667	0.0220052	0.0222381	0.000791807	0.000203962	0	5	0	
0.0503333	-0.0221016	-0.015453	0.00074311	0.000319791	0	5	0	
0.0505	0.0286998	0.00474741	0.000721774	0.000432542	0	5	0	
0.0506667	-0.0251476	0.00454708	0.000718084	0.000450811	0	5	0	
0.0508333	0.0263677	-0.000193166	0.00070482	0.000329683	0	5	0	
0.051	-0.0254263	-0.0214429	0.000678827	0.000244193	0	5	0	
0.0511667	0.0102283	0.0318759	0.0006863	0.000273546	0	5	0	
0.0513333	-0.00911827	0.00070218	0.000659657	0.000594603	0	5	0	
0.0515	0.0279238	-0.040411	0.000581477	0.000922758	0	5	0	
0.0516667	-0.0336185	0.0337141	0.000555063	0.000984377	0	5	0	
0.0518333	0.0257517	-0.00266763	0.000623649	0.000799504	0	5	0	
0.052	-0.0260633	-0.0142495	0.000690641	0.00049473	0	5	0	
0.0521667	0.0387549	0.0290543	0.000758126	0.000391888	0	5	0	
0.0523333	-0.0275467	-0.0515532	0.000867656	0.000472842	0	5	0	
0.0525	0.00711023	0.0432773	0.000987388	0.00073117	0	5	0	
0.0526667	-0.0161541	-0.00463761	0.000916906	0.00106376	0	5	0	
0.0528333	0.0376364	-0.0189313	0.000782414	0.00115993	0	5	0	
0.053	-0.025159	0.0125116	0.000730979	0.000922577	0	5	0	
0.0531667	2.68086E-05	0.0240981	0.000793901	0.000621106	0	5	0	
0.0533333	-0.00587465	-0.0821713	0.000635689	0.000604209	0	5	0	
0.0535	0.0616219	0.0736582	0.000613823	0.000983713	0	5	0	
0.0536667	-0.0712217	-0.000949611	0.000739332	0.00133824	0	5	0	
0.0538333	0.0173615	-0.0301473	0.00118163	0.00131121	0	5	0	
0.054	0.00627089	-0.015584	0.00117237	0.00104447	0	5	0	
0.0541667	0.0231858	0.0596697	0.000899838	0.000900309	0	5	0	
0.0543333	-0.0240026	-0.0716247	0.000554142	0.00100379	0	5	0	
0.0545	0.00203251	0.0799821	0.000393804	0.00131043	0	5	0	
0.0546667	-0.0294319	-0.0995618	0.000474847	0.00149393	0	5	0	
0.0548333	0.0909673	0.0841883	0.000780795	0.00168548	0	5	0	
0.055	-0.0814444	0.000990762	0.00118968	0.00179728	0	5	0	
0.0551667	0.00532408	-0.0535758	0.00167402	0.00159228	0	5	0	
0.0553333	0.0348404	0.0146206	0.00168973	0.00130292	0	5	0	
0.0555	-0.0163477	0.0220925	0.00133008	0.00109482	0	5	0	
0.0556667	-0.000957156	-0.023328	0.000733015	0.00109578	0	5	0	
0.0558333	0.00438452	0.03532	0.000342189	0.00112985	0	5	0	
0.056	-0.0269062	-0.0436567	0.000290728	0.000963167	0	5	0	
0.0561667	0.0549464	0.0314005	0.000463516	0.000847983	0	5	0	
0.0563333	-0.0542378	-0.0242741	0.000709572	0.000718215	0	5	0	
0.0565	0.0395846	0.0108351	0.000985457	0.000603702	0	5	0	
0.0566667	-0.0311946	-0.00412694	0.00104911	0.00051409	0	5	0	
0.0568333	0.0293832	0.00466379	0.00102376	0.000371011	0	5	0	
0.057	-0.0283429	-0.0163203	0.000899347	0.000266655	0	5	0	
0.0571667	0.0322228	0.0184018	0.000808111	0.000270394	0	5	0	
0.0573333	-0.0332554	-0.0118782	0.000743506	0.000316404	0	5	0	
0.0575	0.0245444	0.00736757	0.000760922	0.000351843	0	5	0	
0.0576667	-0.0238974	-0.00691583	0.000754788	0.000259209	0	5	0	
0.0578333	0.0387449	0.000731371	0.000735719	0.000172252	0	5	0	
0.058	-0.0445867	-0.00538926	0.000724794	9.87986E-05	0	5	0	
0.0581667	0.0453269	0.0139819	0.000787735	0.000133611	0	5	0	
0.0583333	-0.0248843	-0.0233836	0.000901915	0.000248477	0	5	0	
0.0585	0.016658	0.0275236	0.000906944	0.000383524	0	5	0	
0.0586667	-0.0231576	-0.000200191	0.000783124	0.000476754	0	5	0	
0.0588333	0.0111289	-0.016475	0.000608138	0.0004586	0	5	0	
0.059	0.00875172	0.00379246	0.000509263	0.000372049	0	5	0	
0.0591667	0.0172762	0.00124625	0.000419797	0.000273381	0	5	0	
0.0593333	-0.0402082	0.00213203	0.000430593	0.000206316	0	5	0	
0.0595	0.0394145	0.0144779	0.000533084	0.000256269	0	5	0	
0.0596667	-0.0306312	-0.0253025	0.000755124	0.000319677	0	5	0	
0.0598333	0.0346351	0.022174	0.000894698	0.000407736	0	5	0	
0.06	-0.0343804	-0.000186464	0.000924934	0.000477158	0	5	0	
0.0601667	0.0459227	-0.00912571	0.000964894	0.000502545	0	5	0	
0.0603333	-0.0323118	0.00382702	0.000957065	0.000407171	0	5	0	
0.0605	0.0195309	0.0110544	0.000899881	0.000257725	0	5	0	
0.0606667	-0.0234164	-0.00876605	0.000755427	0.000168809	0	5	0	
0.0608333	0.0393259	0.00915726	0.00068767	0.000181411	0	5	0	
0.061	-0.0319563	-0.0147617	0.000684035	0.000218142	0	5	0	
0.0611667	0.029675	0.0170292	0.000737643	0.000263443	0	5	0	
0.0613333	-0.0190133	-0.00750344	0.00067667	0.000305563	0	5	0	
0.0615	0.0239626	0.00672379	0.000592501	0.000338243	0	5	0	
0.0616667	-0.0333492	0.00139615	0.000546284	0.000289107	0	5	0	
0.0618333	0.0345996	0.000741143	0.000636893	0.000210337	0	5	0	
0.062	-0.0314427	-0.00648371	0.000763244	0.000148572	0	5	0	
0.0621667	0.0290808	0.00679102	0.000825619	0.000158409	0	5	0	
0.0623333	-0.0266694	-0.0119018	0.000792722	0.000211394	0	5	0	
0.0625	0.029032	0.0159107	0.000774984	0.000278296	0	5	0	
0.0626667	-0.027205	-0.00608507	0.00075468	0.000333393	0	5	0	
0.0628333	0.0313404	0.00753985	0.000777949	0.000369349	0	5	0	
0.063	-0.0426971	-0.0195666	0.000825348	0.000360121	0	5	0	
0.0631667	0.0331493	0.0222152	0.000886415	0.000402215	0	5	0	
0.0633333	-0.0264107	-0.0043266	0.000891777	0.000481298	0	5	0	
0.0635	0.027649	-0.0107635	0.000837806	0.000504428	0	5	0	
0.0636667	-0.0317407	0.0104953	0.000808655	0.000407189	0	5	0	
0.0638333	0.0343336	0.00169079	0.00083207	0.000424284	0	5	0	
0.064	-0.0424943	-0.00991465	0.000881609	0.00052452	0	5	0	
0.0641667	0.0356485	0.0104757	0.00090165	0.000604056	0	5	0	
0.0643333	-0.0279292	-0.00745319	0.000889137	0.000481236	0	5	0	
0.0645	0.0284173	0.00886694	0.000838875	0.000300781	0	5	0	
0.0646667	-0.0309138	-6.6626E-05	0.000775203	0.000269152	0	5	0	
0.0648333	0.0376633	-0.01386	0.000725042	0.000296527	0	5	0	
0.065	-0.0492575	0.0108513	0.000740046	0.000329337	0	5	0	
0.0651667	0.0460109	-0.00122693	0.000812962	0.000250427	0	5	0	
0.0653333	-0.0360744	-0.00346156	0.000861045	0.000193243	0	5	0	
0.0655	0.0294291	0.00540679	0.000898046	0.0002331	0	5	0	
0.0656667	-0.0161878	-0.000231761	0.000854177	0.000249005	0	5	0	
0.0658333	0.0162653	-0.000342043	0.000773671	0.000202022	0	5	0	
0.066	-0.0219493	-0.00092245	0.000621022	0.000149016	0	5	0	
0.0661667	0.0273779	0.00915714	0.000538467	0.000154537	0	5	0	
0.0663333	-0.0379635	-0.0111076	0.000613103	0.000193981	0	5	0	
0.0665	0.0444586	0.0114265	0.000837118	0.000205952	0	5	0	
0.0666667	-0.038555	-0.00980328	0.00101508	0.000197262	0	5	0	
0.0668333	0.0369007	0.014054	0.00107884	0.000225156	0	5	0	
0.067	-0.0155263	-0.0130674	0.000981711	0.00025934	0	5	0	
0.0671667	-0.00576557	0.0120918	0.000833817	0.000322159	0	5	0	
0.0673333	-0.0153851	0.000107172	0.000637798	0.000337589	0	5	0	
0.0675	0.0386896	-0.00498256	0.000555108	0.000234119	0	5	0	
0.0676667	-0.0450978	-0.00642651	0.000583575	0.00020697	0	5	0	
0.0678333	0.0390439	0.0139033	0.000743617	0.000191463	0	5	0	
0.068	-0.0286362	-0.0154374	0.000841102	0.000285728	0	5	0	
0.0681667	0.00845944	0.00959108	0.000824765	0.00026616	0	5	0	
0.0683333	-0.0253811	-0.0188292	0.000813962	0.00028577	0	5	0	
0.0685	0.0255624	0.0124866	0.000814045	0.000285315	0	5	0	
0.0686667	-0.02596	-0.00339739	0.000847785	0.000257916	0	5	0	
0.0688333	0.0290851	0.00787041	0.000817983	0.0002196	0	5	0	
0.069	-0.0351335	-0.0100351	0.000797987	0.00017588	0	5	0	
0.0691667	0.0192301	0.00496311	0.000818653	0.000184485	0	5	0	
0.0693333	-0.0202119	-0.00770378	0.00083337	0.000174635	0	5	0	
0.0695	0.0269897	0.00195853	0.000765489	0.000165657	0	5	0	
0.0696667	-0.0271523	-0.00547143	0.000658121	0.000134912	0	5	0	
0.0698333	0.0339295	0.019828	0.000632308	0.000167283	0	5	0	
0.07	-0.038946	-0.0236165	0.000694457	0.000244828	0	5	0	
0.0701667	0.0336006	0.0201002	0.000810715	0.000368683	0	5	0	
0.0703333	-0.025301	-0.00741713	0.000820799	0.000381758	0	5	0	
0.0705	0.0192211	0.00614822	0.000773424	0.000310694	0	5	0	
0.0706667	-0.0139142	-0.0133357	0.000662465	0.000263387	0	5	0	
0.0708333	0.0231823	0.0177276	0.000630018	0.000282269	0	5	0	
0.071	-0.0290716	-0.0183485	0.000634307	0.000357285	0	5	0	
0.0711667	0.0334471	0.0170605	0.00073087	0.000404867	0	5	0	
0.0713333	-0.0332176	-0.0224057	0.000769822	0.000429795	0	5	0	
0.0715	0.0321412	0.0220087	0.000826127	0.000432684	0	5	0	
0.0716667	-0.0268724	-0.0108758	0.00083433	0.000399138	0	5	0	
0.0718333	0.0316683	0.00316185	0.000898141	0.000369709	0	5	0	
0.072	-0.0277544	-0.00208348	0.000905674	0.000328478	0	5	0	
0.0721667	0.033759	-0.00496225	0.000909025	0.000267042	0	5	0	
0.0723333	-0.0335364	0.000925892	0.000830973	0.000197003	0	5	0	
0.0725	0.0334282	0.00444133	0.000810344	0.000134846	0	5	0	
0.0726667	-0.0350277	-0.00782582	0.000807164	0.000129346	0	5	0	
0.0728333	0.0465841	0.00855236	0.000892649	0.000154043	0	5	0	
0.073	-0.0375473	-0.00111288	0.000941548	0.000148077	0	5	0	
0.0731667	0.0345352	0.00992231	0.000970803	0.000164979	0	5	0	
0.0733333	-0.0317759	-0.00734114	0.000908784	0.000174926	0	5	0	
0.0735	0.0344799	0.0128958	0.000879223	0.000229415	0	5	0	
0.0736667	-0.0350034	-0.0149201	0.000860874	0.00027905	0	5	0	
0.0738333	0.0301923	0.00530228	0.00087961	0.000349309	0	5	0	
0.074	-0.0283667	0.00475977	0.000867325	0.000438562	0	5	0	
0.0741667	0.0277022	-0.00210046	0.000835035	0.000494381	0	5	0	
0.0743333	-0.030648	0.00874708	0.000792379	0.000496798	0	5	0	
0.0745	0.033727	-0.00304471	0.0007692	0.000446725	0	5	0	
0.0746667	-0.032768	-0.0066065	0.000761278	0.000337811	0	5	0	
0.0748333	0.030098	0.0122753	0.000775377	0.000271628	0	5	0	
0.075	-0.0374279	-0.0110516	0.000794526	0.000232041	0	5	0	
0.0751667	0.039639	0.0125867	0.000824992	0.000279591	0	5	0	
0.0753333	-0.0364697	-0.0190866	0.000852381	0.00034102	0	5	0	
0.0755	0.0302202	0.0149285	0.000854816	0.000416828	0	5	0	
0.0756667	-0.0308516	-0.00697773	0.000829548	0.000402108	0	5	0	
0.0758333	0.0332483	0.00655076	0.00080315	0.000324042	0	5	0	
0.076	-0.0293546	-0.00234989	0.000789545	0.000215481	0	5	0	
0.0761667	0.0292556	-0.000557522	0.000781045	0.000156612	0	5	0	
0.0763333	-0.0323299	-0.000277808	0.000743942	0.000126679	0	5	0	
0.0765	0.0325309	0.0161022	0.000711356	0.000204609	0	5	0	
0.0766667	-0.0336993	-0.0245114	0.000723572	0.000281782	0	5	0	
0.0768333	0.0322353	0.00746018	0.000760289	0.000399927	0	5	0	
0.077	-0.0325579	0.00264503	0.000785867	0.000551309	0	5	0	
0.0771667	0.0348166	0.00106543	0.000787943	0.000651802	0	5	0	
0.0773333	-0.0305776	-0.00656596	0.000787077	0.000621225	0	5	0	
0.0775	0.0257549	0.00371849	0.000756354	0.000414572	0	5	0	
0.0776667	-0.0292338	-0.00483623	0.000742401	0.000311574	0	5	0	
0.0778333	0.0271043	0.022355	0.000707418	0.000387661	0	5	0	
0.078	-0.0302505	-0.0442662	0.000700806	0.000504273	0	5	0	
0.0781667	0.0365195	0.0293395	0.000688091	0.00064375	0	5	0	
0.0783333	-0.0352135	-0.00849228	0.000744081	0.000595104	0	5	0	
0.0785	0.0322328	-0.00268683	0.000788891	0.000446132	0	5	0	
0.0786667	-0.0336582	0.00261932	0.000801763	0.000248254	0	5	0	
0.0788333	0.0323297	0.00236024	0.00077535	0.000117845	0	5	0	
0.079	-0.0240677	-0.00597599	0.000769858	0.000112619	0	5	0	
0.0791667	0.0292822	0.0115288	0.000748566	0.000127256	0	5	0	
0.0793333	-0.0284305	-0.0144526	0.000704794	0.000225612	0	5	0	
0.0795	0.0333208	0.0140071	0.000693374	0.000309141	0	5	0	
0.0796667	-0.0279614	-0.0122647	0.000716535	0.000343523	0	5	0	
0.0798333	0.0339414	0.0143019	0.000772829	0.000340871	0	5	0	
0.08	-0.0309416	-0.00745567	0.00077763	0.000312368	0	5	0	
0.0801667	0.0297974	0.00873082	0.000782854	0.000279045	0	5	0	
0.0803333	-0.0201718	-0.0104671	0.000737733	0.000232476	0	5	0	
0.0805	0.0327394	0.0270168	0.00070028	0.000264351	0	5	0	
0.0806667	-0.0638157	-0.0281563	0.000742879	0.000374148	0	5	0	
0.0808333	0.0916367	-0.0154473	0.00103748	0.000781266	0	5	0	
0.081	-0.0398389	0.0605435	0.00145891	0.00112381	0	5	0	
0.0811667	-0.028966	-0.029275	0.00188715	0.00119484	0	5	0	
0.0813333	0.0467191	-0.0113875	0.00182297	0.00115154	0	5	0	
0.0815	-0.017898	-0.0341169	0.00138474	0.00109305	0	5	0	
0.0816667	-0.0168383	0.0501433	0.000901024	0.00134873	0	5	0	
0.0818333	0.0491252	-0.00289167	0.000800765	0.00140925	0	5	0	
0.082	-0.0662813	-0.0465672	0.00101261	0.00110869	0	5	0	
0.0821667	0.0659477	0.0364559	0.00115888	0.0010652	0	5	0	
0.0823333	-0.0429	-0.0200877	0.00126953	0.000914191	0	5	0	
0.0825	0.0224232	0.0324204	0.00122314	0.000953599	0	5	0	
0.0826667	-0.0247494	-0.0238022	0.00101551	0.000891436	0	5	0	
0.0828333	0.0286728	-0.0401957	0.000787343	0.00142871	0	5	0	
0.083	-0.0145151	0.0527411	0.000783546	0.00195446	0	5	0	
0.0831667	0.00706703	-0.0114176	0.000929797	0.00170065	0	5	0	
0.0833333	-0.00232305	-0.0102384	0.000985952	0.00105592	0	5	0	
0.0835	-0.0146233	0.0514977	0.000928203	0.000721917	0	5	0	
0.0836667	0.0140408	-0.0800714	0.000721203	0.00117335	0	5	0	
0.0838333	0.0372349	0.0813074	0.000620793	0.00146058	0	5	0	
0.084	-0.0645601	-0.0433479	0.000622991	0.00151333	0	5	0	
0.0841667	0.0419331	0.0226494	0.000908088	0.0011138	0	5	0	
0.0843333	-0.0246632	-0.0224693	0.00105329	0.000731541	0	5	0	
0.0845	0.0310161	0.0335892	0.000974039	0.000541805	0	5	0	
0.0846667	-0.0416013	-0.0317851	0.000808634	0.000620521	0	5	0	
0.0848333	0.0386289	0.0187277	0.000769166	0.000716623	0	5	0	
0.085	-0.0311542	-0.00389476	0.000831979	0.000684659	0	5	0	
0.0851667	0.0290487	0.00476402	0.000826785	0.000539932	0	5	0	
0.0853333	-0.0331858	-0.0129413	0.00075728	0.000400198	0	5	0	
0.0855	0.0317462	0.0166367	0.000724239	0.000327907	0	5	0	
0.0856667	-0.0355056	-0.018997	0.000744648	0.000369791	0	5	0	
0.0858333	0.0332628	0.00730132	0.000786512	0.000465821	0	5	0	
0.086	-0.0294512	-0.00239521	0.000810374	0.000572324	0	5	0	
0.0861667	0.0267668	-0.00274582	0.000810202	0.00049474	0	5	0	
0.0863333	-0.0304566	-0.00343016	0.00078157	0.000329325	0	5	0	
0.0865	0.0311235	0.0123463	0.000736619	0.000174186	0	5	0	
0.0866667	-0.0323249	-0.0450974	0.00072802	0.000249275	0	5	0	
0.0868333	0.0369317	0.0806065	0.000730665	0.000621616	0	5	0	
0.087	-0.0395464	-0.0682602	0.000781689	0.00108291	0	5	0	
0.0871667	0.0353242	0.0354098	0.000845074	0.00125269	0	5	0	
0.0873333	-0.0301803	-0.0142026	0.000869647	0.000997401	0	5	0	
0.0875	0.0291155	-0.00149832	0.000816595	0.000535128	0	5	0	
0.0876667	-0.0321687	0.00159532	0.000767153	0.000219088	0	5	0	
0.0878333	0.0304594	0.00974702	0.000731834	0.000226198	0	5	0	
0.088	-0.0328681	-0.00383598	0.000743515	0.000484305	0	5	0	
0.0881667	0.0375974	0.00368628	0.00073751	0.000739789	0	5	0	
0.0883333	-0.0353263	0.00217439	0.000785271	0.000679587	0	5	0	
0.0885	0.0305779	-0.00788426	0.000811662	0.000450646	0	5	0	
0.0886667	-0.0321776	-0.00140681	0.000813304	0.000254379	0	5	0	
0.0888333	0.0336074	0.0086966	0.000763286	0.000269857	0	5	0	
0.089	-0.0313062	-0.0145325	0.000751468	0.000355166	0	5	0	
0.0891667	0.0303595	0.0135799	0.000744522	0.000404911	0	5	0	
0.0893333	-0.0311194	-0.0118174	0.000760723	0.000419358	0	5	0	
0.0895	0.0346478	0.0166342	0.00075077	0.000371916	0	5	0	
0.0896667	-0.0331744	-0.0418299	0.000754846	0.000419105	0	5	0	
0.0898333	0.0339097	0.0597852	0.000746918	0.000620564	0	5	0	
0.09	-0.0350378	-0.0502114	0.000774016	0.000900701	0	5	0	
0.0901667	0.0396292	0.033686	0.000806186	0.00101932	0	5	0	
0.0903333	-0.0359525	-0.0243311	0.000866098	0.000905681	0	5	0	
0.0905	0.028069	0.0126704	0.000864014	0.000652745	0	5	0	
0.0906667	-0.0255282	-0.00992504	0.000813284	0.000430768	0	5	0	
0.0908333	0.027945	0.0131502	0.000745309	0.000340683	0	5	0	
0.091	-0.0292957	-0.0109132	0.000716965	0.000423944	0	5	0	
0.0911667	0.0312812	0.0146342	0.00070637	0.000568833	0	5	0	
0.0913333	-0.0337053	-0.0124987	0.000693569	0.000613984	0	5	0	
0.0915	0.0391327	0.0119775	0.0007067	0.00049182	0	5	0	
0.0916667	-0.0403893	-0.0177328	0.000767703	0.000342128	0	5	0	
0.0918333	0.0357758	0.0162234	0.000844542	0.000318532	0	5	0	
0.092	-0.0356043	-0.00990951	0.000865325	0.000316211	0	5	0	
0.0921667	0.0288826	0.00698443	0.00082347	0.000342705	0	5	0	
0.0923333	-0.0269277	-0.00345466	0.000762531	0.000272829	0	5	0	
0.0925	0.0297148	0.00432625	0.000718525	0.000206515	0	5	0	
0.0926667	-0.0326364	-0.0128367	0.000715313	0.000156659	0	5	0	
0.0928333	0.0316837	0.0113061	0.000718783	0.000207034	0	5	0	
0.093	-0.0329579	-0.00207472	0.000740841	0.000330527	0	5	0	
0.0931667	0.0277388	-0.0122337	0.000733896	0.000358908	0	5	0	
0.0933333	-0.0280858	0.0120042	0.000731187	0.000320627	0	5	0	
0.0935	0.0318242	-0.00506777	0.000731747	0.000235038	0	5	0	
0.0936667	-0.0364916	-0.00479406	0.000755549	0.000198866	0	5	0	
0.0938333	0.0402238	0.0156081	0.000787724	0.000194023	0	5	0	
0.094	-0.0401889	-0.0170688	0.000831722	0.000234585	0	5	0	
0.0941667	0.0329565	0.00941271	0.000868577	0.000273621	0	5	0	
0.0943333	-0.0353387	-0.0115416	0.000889847	0.000285285	0	5	0	
0.0945	0.0347261	0.0126843	0.000866004	0.000310729	0	5	0	
0.0946667	-0.0289265	-0.0115691	0.000819065	0.000349876	0	5	0	
0.0948333	0.0312239	0.0117435	0.000758145	0.000352464	0	5	0	
0.095	-0.0354363	-0.00933643	0.000731073	0.000286147	0	5	0	
0.0951667	0.0388433	0.00552112	0.000754733	0.000232134	0	5	0	
0.0953333	-0.0403143	-0.00454333	0.000822801	0.00020855	0	5	0	
0.0955	0.0354846	0.00436188	0.000840437	0.000177263	0	5	0	
0.0956667	-0.0334209	-0.00598073	0.000838628	0.000160236	0	5	0	
0.0958333	0.0352207	0.00467406	0.000815	0.000149358	0	5	0	
0.096	-0.0360952	-0.00858559	0.00082694	0.000158819	0	5	0	
0.0961667	0.0362599	0.007968	0.000823158	0.000160762	0	5	0	
0.0963333	-0.0350225	-0.00757786	0.000833502	0.000151511	0	5	0	
0.0965	0.033359	0.00849987	0.000813801	0.00016837	0	5	0	
0.0966667	-0.0307698	-0.00926961	0.000793715	0.000185153	0	5	0	
0.0968333	0.0364676	0.010947	0.000772891	0.000210895	0	5	0	
0.097	-0.0305218	-0.012527	0.000754499	0.000228767	0	5	0	
0.0971667	0.0322753	0.0121744	0.000743959	0.000247639	0	5	0	
0.0973333	-0.0407615	-0.0178942	0.000765717	0.000263077	0	5	0	
0.0975	0.0328517	0.0198024	0.000803005	0.000319299	0	5	0	
0.0976667	-0.0253056	-0.012326	0.000814605	0.000382249	0	5	0	
0.0978333	0.0317555	-0.00191303	0.000753754	0.000416692	0	5	0	
0.098	-0.0277115	0.00452899	0.000675409	0.00029898	0	5	0	
0.0981667	0.0321125	0.0115616	0.000636608	0.000218593	0	5	0	
0.0983333	-0.0354139	-0.0182178	0.00068336	0.000199025	0	5	0	
0.0985	0.0310367	0.0202813	0.000721167	0.000303556	0	5	0	
0.0986667	-0.0322154	-0.0208443	0.000743355	0.000362141	0	5	0	
0.0988333	0.0313639	0.0227748	0.000717313	0.000397152	0	5	0	
0.099	-0.020449	-0.0137331	0.000670641	0.000388338	0	5	0	
0.0991667	0.0216736	0.00813897	0.000640677	0.00037575	0	5	0	
0.0993333	-0.0298073	-0.00274905	0.000608607	0.000282171	0	5	0	
0.0995	0.031615	0.00755805	0.000634942	0.000227621	0	5	0	
0.0996667	-0.0306358	-0.00819779	0.000671919	0.000180699	0	5	0	
0.0998333	0.0286866	0.00627901	0.000697603	0.000181189	0	5	0	
0.1	-0.032865	-0.00150525	0.000711719	0.000153342	0	5	0	
0.100167	0.0336325	0.00155493	0.000727902	0.00010386	0	5	0	
0.100333	-0.0325771	-0.00428751	0.000746653	6.51139E-05	0	5	0	
0.1005	0.0303744	0.00576947	0.000780936	8.95079E-05	0	5	0	
0.100667	-0.0302527	-0.00471247	0.000771779	0.000162695	0	5	0	
0.100833	0.030122	0.00625962	0.000751846	0.000244563	0	5	0	
0.101	-0.0332992	-0.0077585	0.000725451	0.00026954	0	5	0	
0.101167	0.0357609	0.00978491	0.000750263	0.000282237	0	5	0	
0.101333	-0.0377548	-0.0105603	0.000769995	0.000306214	0	5	0	
0.1015	0.0364808	0.0146524	0.000807383	0.000353349	0	5	0	
0.101667	-0.0374847	-0.0142612	0.000795793	0.000367858	0	5	0	
0.101833	0.0383054	0.0139432	0.000808677	0.000367964	0	5	0	
0.102	-0.0350175	-0.0144268	0.000806854	0.000362428	0	5	0	
0.102167	0.0323418	0.0086135	0.000821547	0.000343337	0	5	0	
0.102333	-0.0285106	-0.00120918	0.000792382	0.000321501	0	5	0	
0.1025	0.0384503	0.0013109	0.000772096	0.000280743	0	5	0	
0.102667	-0.0373751	0.00237141	0.000752705	0.000261748	0	5	0	
0.102833	0.0337814	0.00139528	0.000783397	0.000248679	0	5	0	
0.103	-0.0326785	-0.00740677	0.000782987	0.000237976	0	5	0	
0.103167	0.0392353	0.00935335	0.000791155	0.000241236	0	5	0	
0.103333	-0.0363126	-0.0109916	0.000815728	0.000296646	0	5	0	
0.1035	0.0403578	0.0140543	0.000854023	0.000385262	0	5	0	
0.103667	-0.0335019	-0.0100223	0.000855846	0.000458936	0	5	0	
0.103833	0.0341066	0.0146508	0.000824658	0.000497556	0	5	0	
0.104	-0.03476	-0.0163913	0.000796688	0.000517004	0	5	0	
0.104167	0.0352956	0.0101646	0.000798551	0.000514357	0	5	0	
0.104333	-0.0246037	-0.00338389	0.0007681	0.000445473	0	5	0	
0.1045	0.0321415	0.016106	0.000711777	0.000338753	0	5	0	
0.104667	-0.0506444	-0.0217701	0.00070888	0.00029712	0	5	0	
0.104833	0.0668414	-0.000625531	0.000851412	0.000472406	0	5	0	
0.105	-0.057094	0.0343704	0.00112677	0.000745913	0	5	0	
0.105167	0.0272414	-0.0345204	0.00133897	0.000882848	0	5	0	
0.105333	-0.0158427	0.0494214	0.00137001	0.000889845	0	5	0	
0.1055	0.00888648	-0.0616339	0.00130306	0.000914905	0	5	0	
0.105667	0.00387284	0.0319214	0.00109469	0.000951729	0	5	0	
0.105833	0.0217061	0.0133693	0.000798039	0.000871764	0	5	0	
0.106	-0.0617166	-0.0116915	0.000705281	0.000585508	0	5	0	
0.106167	0.0655641	0.0305995	0.000840134	0.000478782	0	5	0	
0.106333	-0.0570167	-0.0814746	0.00113086	0.000773528	0	5	0	
0.1065	0.0645443	0.149956	0.0012281	0.00136343	0	5	0	
0.106667	-0.0744342	-0.106891	0.00126044	0.00205327	0	5	0	
0.106833	0.0605414	0.0409103	0.00131528	0.00230628	0	5	0	
0.107	-0.0336396	-0.0103756	0.00130252	0.00210485	0	5	0	
0.107167	0.0296584	-0.0157819	0.00116075	0.00154554	0	5	0	
0.107333	-0.0269106	0.0607119	0.000932031	0.00100997	0	5	0	
0.1075	-0.00148822	-0.0452314	0.000758828	0.000977728	0	5	0	
0.107667	0.0090486	-0.00558878	0.00063948	0.00146942	0	5	0	
0.107833	0.0212526	0.0490116	0.000501041	0.00189424	0	5	0	
0.108	-0.0475379	-0.04599	0.000500573	0.00181706	0	5	0	
0.108167	0.0461664	0.0240423	0.000636687	0.0012205	0	5	0	
0.108333	-0.0316551	-0.0241935	0.000813663	0.000721536	0	5	0	
0.1085	0.0308046	0.0264533	0.00080882	0.00055004	0	5	0	
0.108667	-0.0410555	-0.029213	0.000749096	0.000510144	0	5	0	
0.108833	0.0436285	0.0224653	0.000759789	0.000525794	0	5	0	
0.109	-0.0367267	-0.0106431	0.000819739	0.000468181	0	5	0	
0.109167	0.0345869	0.00839181	0.000853189	0.000366986	0	5	0	
0.109333	-0.0366454	-0.0177843	0.00083337	0.000287599	0	5	0	
0.1095	0.0400189	0.0186009	0.000821621	0.000301766	0	5	0	
0.109667	-0.0392818	-0.00760736	0.000807777	0.000361948	0	5	0	
0.109833	0.0398569	-0.00231326	0.000838435	0.000380252	0	5	0	
0.11	-0.0378255	0.00486334	0.00084618	0.000250965	0	5	0	
0.110167	0.034691	0.0101612	0.00087263	0.000224933	0	5	0	
0.110333	-0.0339525	-0.0231515	0.000834061	0.000236863	0	5	0	
0.1105	0.0371289	0.0231993	0.000807546	0.000369896	0	5	0	
0.110667	-0.0341566	-0.0232873	0.000754904	0.000428522	0	5	0	
0.110833	0.0332857	0.0104657	0.000768979	0.000503036	0	5	0	
0.111	-0.0422704	0.0104355	0.00077386	0.000525143	0	5	0	
0.111167	0.0418708	-0.0113028	0.000813674	0.000445083	0	5	0	
0.111333	-0.0351536	0.00418067	0.000832002	0.000299859	0	5	0	
0.1115	0.0275891	0.00280037	0.000813501	0.000200032	0	5	0	
0.111667	-0.0292844	-0.0240938	0.000734034	0.000259294	0	5	0	
0.111833	0.0321857	0.0275369	0.000684831	0.000402344	0	5	0	
0.112	-0.0387014	-0.0108652	0.000686223	0.000448656	0	5	0	
0.112167	0.0366182	0.00452954	0.000738434	0.000413252	0	5	0	
0.112333	-0.040538	-0.00230011	0.00078667	0.000294765	0	5	0	
0.1125	0.036611	-0.000185973	0.000826247	0.00025144	0	5	0	
0.112667	-0.0326459	-0.0019604	0.000825934	0.000178552	0	5	0	
0.112833	0.0316165	0.0105172	0.000814684	0.000163188	0	5	0	
0.113	-0.029895	-0.00875053	0.000760586	0.000143747	0	5	0	
0.113167	0.0311641	0.0122394	0.000749616	0.000190963	0	5	0	
0.113333	-0.038064	-0.0127183	0.000731863	0.000229931	0	5	0	
0.1135	0.0341452	0.00764884	0.000757808	0.000266765	0	5	0	
0.113667	-0.0327278	-0.00689767	0.0007566	0.000253585	0	5	0	
0.113833	0.0328687	0.00958366	0.000741165	0.000225958	0	5	0	
0.114	-0.0337094	-0.00665735	0.000720383	0.000206572	0	5	0	
0.114167	0.0389667	0.00880724	0.00075323	0.000192582	0	5	0	
0.114333	-0.0377588	-0.00990222	0.000785514	0.000197594	0	5	0	
0.1145	0.036537	0.00878142	0.000817451	0.000200727	0	5	0	
0.114667	-0.0364921	-0.0127511	0.000806858	0.000217855	0	5	0	
0.114833	0.033294	0.0196723	0.000810658	0.000253107	0	5	0	
0.115	-0.03409	-0.0233178	0.000813892	0.000353303	0	5	0	
0.115167	0.0374853	0.0233887	0.000803294	0.000465547	0	5	0	
0.115333	-0.0371518	-0.021226	0.00078982	0.000554311	0	5	0	
0.1155	0.0390798	0.0136194	0.000797725	0.000537329	0	5	0	
0.115667	-0.0384176	-0.0123993	0.000814058	0.000457624	0	5	0	
0.115833	0.0376031	0.0163905	0.00082543	0.000362162	0	5	0	
0.116	-0.0357707	-0.0173387	0.000815745	0.000325142	0	5	0	
0.116167	0.0330977	0.0176283	0.000785686	0.000334392	0	5	0	
0.116333	-0.0318635	-0.021715	0.000745618	0.00037272	0	5	0	
0.1165	0.0380362	0.0171992	0.000721403	0.000375248	0	5	0	
0.116667	-0.0403725	-0.0130878	0.000735386	0.00035598	0	5	0	
0.116833	0.0366153	0.0116748	0.000775954	0.000309995	0	5	0	
0.117	-0.0355439	-0.0140501	0.000811203	0.000257688	0	5	0	
0.117167	0.0339334	0.0139305	0.00081918	0.000259561	0	5	0	
0.117333	-0.03226	-0.0118683	0.000797643	0.00026256	0	5	0	
0.1175	0.0315911	0.0147224	0.000765101	0.000297022	0	5	0	
0.117667	-0.0321491	-0.0140828	0.000739144	0.000311901	0	5	0	
0.117833	0.0351727	0.0126378	0.000742074	0.000331753	0	5	0	
0.118	-0.0399669	-0.0135091	0.00075819	0.000330276	0	5	0	
0.118167	0.0359204	0.0138338	0.000795653	0.000345153	0	5	0	
0.118333	-0.0343773	-0.0116911	0.000801833	0.000341474	0	5	0	
0.1185	0.0362709	0.0119916	0.000789809	0.000348544	0	5	0	
0.118667	-0.0380795	-0.0144586	0.000777598	0.000342034	0	5	0	
0.118833	0.0361283	0.0171391	0.000773762	0.000356008	0	5	0	
0.119	-0.0389108	-0.0144064	0.000780189	0.000354488	0	5	0	
0.119167	0.0400553	0.0145677	0.000800384	0.000337918	0	5	0	
0.119333	-0.0385896	-0.0169287	0.000819832	0.000318415	0	5	0	
0.1195	0.036736	0.0148795	0.000833014	0.000314965	0	5	0	
0.119667	-0.0342891	-0.0150126	0.000816841	0.000320217	0	5	0	
0.119833	0.0327136	0.0126249	0.000782124	0.000316045	0	5	0	
0.12	-0.0322004	-0.00721523	0.000739741	0.000271496	0	5	0	
0.120167	0.0338357	0.00988181	0.000722543	0.000236005	0	5	0	
0.120333	-0.0347952	-0.0116337	0.000720597	0.000223567	0	5	0	
0.1205	0.0365309	0.0133406	0.000751414	0.000271518	0	5	0	
0.120667	-0.035093	-0.0114472	0.000752977	0.000300118	0	5	0	
0.120833	0.0389866	0.0136389	0.000783113	0.000328389	0	5	0	
0.121	-0.0400696	-0.010732	0.000778691	0.000316194	0	5	0	
0.121167	0.0358794	0.0120486	0.000815625	0.000322196	0	5	0	
0.121333	-0.0350481	-0.0123933	0.000806376	0.000284511	0	5	0	
0.1215	0.035519	0.00935565	0.000812747	0.000268189	0	5	0	
0.121667	-0.0402265	-0.0107445	0.000799234	0.000228371	0	5	0	
0.121833	0.0342516	0.00959863	0.00081377	0.000232555	0	5	0	
0.122	-0.0357103	-0.00858526	0.000807384	0.000205038	0	5	0	
0.122167	0.0363587	0.0108792	0.000787476	0.000213007	0	5	0	
0.122333	-0.0395521	-0.0148542	0.00077758	0.000210102	0	5	0	
0.1225	0.0278945	0.0117448	0.00077403	0.000253175	0	5	0	
0.122667	-0.0341798	-0.0190635	0.000752973	0.000267008	0	5	0	
0.122833	0.0373441	0.0179946	0.000728988	0.000326065	0	5	0	
0.123	-0.0439312	-0.0138929	0.000764157	0.000448006	0	5	0	
0.123167	0.0353309	-0.0076397	0.000811181	0.00055862	0	5	0	
0.123333	-0.0419107	0.00676469	0.000852422	0.000526621	0	5	0	
0.1235	0.0387079	-0.0042736	0.000831941	0.000333383	0	5	0	
0.123667	-0.0365735	-0.00774457	0.00084853	0.00016906	0	5	0	
0.123833	0.0295827	0.0165887	0.000802296	0.00015073	0	5	0	
0.124	-0.0358852	-0.0310341	0.00076988	0.000292067	0	5	0	
0.124167	0.0366291	0.0191839	0.000723438	0.000416809	0	5	0	
0.124333	-0.0379964	-0.0186404	0.00075673	0.000496275	0	5	0	
0.1245	0.0369641	0.0136097	0.000765355	0.000517435	0	5	0	
0.124667	-0.0356327	-0.0155946	0.00078826	0.000518865	0	5	0	
0.124833	0.0332317	0.0177124	0.000760316	0.000486178	0	5	0	
0.125	-0.0362982	-0.0165795	0.000761599	0.000415458	0	5	0	
0.125167	0.0366421	0.00650778	0.000749791	0.000335745	0	5	0	
0.125333	-0.0313576	-0.00689799	0.000775437	0.000261626	0	5	0	
0.1255	0.0315623	0.011319	0.000763282	0.000219733	0	5	0	
0.125667	-0.03622	-0.014306	0.000744178	0.000234614	0	5	0	
0.125833	0.0368283	0.0159579	0.000725618	0.000283465	0	5	0	
0.126	-0.0331729	-0.0137428	0.000736905	0.000302745	0	5	0	
0.126167	0.0350912	0.00838418	0.000736971	0.000285423	0	5	0	
0.126333	-0.0337784	-0.00808032	0.000729741	0.000255224	0	5	0	
0.1265	0.0386925	0.014718	0.000742115	0.000256832	0	5	0	
0.126667	-0.0364144	-0.0119624	0.000759758	0.000278664	0	5	0	
0.126833	0.0351148	0.0130103	0.000792536	0.000302368	0	5	0	
0.127	-0.0366816	-0.0154987	0.000786535	0.000293686	0	5	0	
0.127167	0.0376028	0.0197052	0.000804019	0.000324254	0	5	0	
0.127333	-0.0328434	-0.020805	0.000777059	0.000389233	0	5	0	
0.1275	0.0376447	0.0176796	0.000785864	0.000467741	0	5	0	
0.127667	-0.0386677	-0.00939467	0.00077715	0.000462356	0	5	0	
0.127833	0.0391437	0.0114243	0.000813671	0.000408589	0	5	0	
0.128	-0.0374879	-0.0132977	0.000798459	0.000335138	0	5	0	
0.128167	0.0439815	0.0223402	0.000835714	0.000341468	0	5	0	
0.128333	-0.0423703	-0.0241729	0.000821228	0.000380265	0	5	0	
0.1285	0.0408468	0.0254058	0.000877966	0.000452219	0	5	0	
0.128667	-0.0358794	-0.0226754	0.000838752	0.000472411	0	5	0	
0.128833	0.0363999	0.0211053	0.000826752	0.000474955	0	5	0	
0.129	-0.032466	-0.0159434	0.000766127	0.000434881	0	5	0	
0.129167	0.0337914	0.0145092	0.000756264	0.000382628	0	5	0	
0.129333	-0.0366674	-0.0149015	0.000734035	0.000326475	0	5	0	
0.1295	0.0430498	0.0181765	0.000773006	0.000305363	0	5	0	
0.129667	-0.0407794	-0.0187183	0.000803224	0.000340892	0	5	0	
0.129833	0.0414724	0.0170008	0.000852686	0.00036214	0	5	0	
0.13	-0.0348833	-0.0143391	0.000851738	0.000367696	0	5	0	
0.130167	0.0345054	0.0142939	0.000821351	0.000323735	0	5	0	
0.130333	-0.0350253	-0.012128	0.000784841	0.000311276	0	5	0	
0.1305	0.0368741	0.00917606	0.000759908	0.000273528	0	5	0	
0.130667	-0.0382698	-0.0142805	0.000769142	0.000277326	0	5	0	
0.130833	0.0455166	0.0142807	0.000794332	0.000263752	0	5	0	
0.131	-0.0403142	-0.00904291	0.000831973	0.00027694	0	5	0	
0.131167	0.0399397	0.0135664	0.0008525	0.000251549	0	5	0	
0.131333	-0.03647	-0.0115658	0.000842801	0.000250226	0	5	0	
0.1315	0.0350521	0.00982266	0.000818414	0.000230363	0	5	0	
0.131667	-0.0364166	-0.0136812	0.000786823	0.000250548	0	5	0	
0.131833	0.0408714	0.00643562	0.000774416	0.000228233	0	5	0	
0.132	-0.04052	-0.00783607	0.000800916	0.000208078	0	5	0	
0.132167	0.0418984	0.0151563	0.000838515	0.000191735	0	5	0	
0.132333	-0.0354856	-0.0127506	0.000869072	0.000232496	0	5	0	
0.1325	0.036344	0.0124825	0.000831812	0.000280517	0	5	0	
0.132667	-0.0347179	-0.00929947	0.000776888	0.000292131	0	5	0	
0.132833	0.0321251	0.00517019	0.000743875	0.00023348	0	5	0	
0.133	-0.0343599	-0.0104729	0.000731242	0.000210985	0	5	0	
0.133167	0.0398232	0.0107175	0.000747549	0.000211485	0	5	0	
0.133333	-0.0428163	-0.0145018	0.00078077	0.000261186	0	5	0	
0.1335	0.043166	0.0156463	0.00080264	0.000298333	0	5	0	
0.133667	-0.0350277	-0.0110227	0.0008354	0.000311774	0	5	0	
0.133833	0.0343824	0.0258419	0.00082737	0.000331945	0	5	0	
0.134	-0.0447071	-0.0354889	0.000812565	0.000425513	0	5	0	
0.134167	0.0544497	0.021917	0.000844691	0.000521458	0	5	0	
0.134333	-0.0477535	-0.00519555	0.000911428	0.000526938	0	5	0	
0.1345	0.0453874	0.0259391	0.000989283	0.000479297	0	5	0	
0.134667	-0.0549649	-0.0655766	0.00101268	0.000633738	0	5	0	
0.134833	0.0426686	0.0988587	0.000985771	0.00109467	0	5	0	
0.135	-0.0166349	-0.0608284	0.000914297	0.00157179	0	5	0	
0.135167	0.00787945	0.0478004	0.000739288	0.00174569	0	5	0	
0.135333	-0.0192417	-0.029991	0.000555888	0.0016116	0	5	0	
0.1355	0.0319147	0.012524	0.000514166	0.00122945	0	5	0	
0.135667	-0.0405495	0.00151306	0.000622078	0.000822995	0	5	0	
0.135833	0.0466152	-0.0012438	0.000759779	0.000620307	0	5	0	
0.136	-0.0488447	0.0157497	0.000864716	0.000782129	0	5	0	
0.136167	0.0602577	-0.0233767	0.000972088	0.000885327	0	5	0	
0.136333	-0.0707873	0.05732	0.00113405	0.000868566	0	5	0	
0.1365	0.0657623	0.0261612	0.00127162	0.00103576	0	5	0	
0.136667	-0.0435612	-0.165123	0.00127067	0.00206298	0	5	0	
0.136833	0.0407361	0.227535	0.00120075	0.00307252	0	5	0	
0.137	-0.0242441	-0.15613	0.00100358	0.00372382	0	5	0	
0.137167	0.0221898	0.122018	0.000823185	0.00334796	0	5	0	
0.137333	-0.0406984	-0.112024	0.000802475	0.00287805	0	5	0	
0.1375	0.0534687	0.00330518	0.000957113	0.00206505	0	5	0	
0.137667	-0.052964	0.0763332	0.00113207	0.00149681	0	5	0	
0.137833	0.0665438	0.00501977	0.00121781	0.00173159	0	5	0	
0.138	-0.0609237	-0.048555	0.00117904	0.00226683	0	5	0	
0.138167	0.0361518	0.0337383	0.00116044	0.00255129	0	5	0	
0.138333	-0.00480963	-0.0401923	0.000931541	0.00205909	0	5	0	
0.1385	0.0120151	0.0317921	0.000663922	0.00154699	0	5	0	
0.138667	-0.0564771	-0.030751	0.000568548	0.00120475	0	5	0	
0.138833	0.067246	0.0449714	0.0007805	0.000930828	0	5	0	
0.139	-0.0415509	-0.0447871	0.00104634	0.000772151	0	5	0	
0.139167	0.0250651	0.0170851	0.0010438	0.000761898	0	5	0	
0.139333	-0.0314269	-0.0161926	0.000846129	0.000643475	0	5	0	
0.1395	0.0397898	0.0231993	0.000723995	0.000523121	0	5	0	
0.139667	-0.0313571	-0.0213135	0.000699139	0.000429708	0	5	0	
0.139833	0.0160381	0.0365338	0.000665466	0.000499986	0	5	0	
0.14	-0.0276006	-0.0495846	0.000574178	0.000599459	0	5	0	
0.140167	0.0304893	0.0267903	0.000551306	0.000751409	0	5	0	
0.140333	-0.0292609	-0.0221126	0.000584858	0.000743181	0	5	0	
0.1405	0.0257086	0.0227835	0.000600789	0.000641584	0	5	0	
0.140667	-0.0363438	-0.00720818	0.000599983	0.000449913	0	5	0	
0.140833	0.0346765	0.00331978	0.000633136	0.000308688	0	5	0	
0.141	-0.0375593	-0.0137587	0.000707801	0.000199872	0	5	0	
0.141167	0.0366736	0.00243375	0.000786443	0.000185937	0	5	0	
0.141333	-0.028644	0.00584657	0.000817892	0.000173251	0	5	0	
0.1415	0.0102781	0.0056029	0.000764127	0.000240943	0	5	0	
0.141667	-0.0207445	-0.0175361	0.000606341	0.000256158	0	5	0	
0.141833	0.0417275	0.0110641	0.000573983	0.000312364	0	5	0	
0.142	-0.050894	-0.00806073	0.000675261	0.000272507	0	5	0	
0.142167	0.0415236	0.0110417	0.000877931	0.000249022	0	5	0	
0.142333	-0.0486079	-0.0190972	0.000943319	0.000266995	0	5	0	
0.1425	0.063857	0.010142	0.0010061	0.000440741	0	5	0	
0.142667	-0.049043	0.0117947	0.00105865	0.000672046	0	5	0	
0.142833	0.0141053	-0.00771792	0.00106158	0.000631778	0	5	0	
0.143	-0.0169958	-0.0159256	0.000837213	0.000468249	0	5	0	
0.143167	0.0324357	0.00908809	0.000654254	0.000241716	0	5	0	
0.143333	-0.0302142	-0.0314979	0.00055537	0.000305874	0	5	0	
0.1435	0.0348698	0.0680678	0.000652614	0.000537057	0	5	0	
0.143667	-0.0707818	-0.0422908	0.000808551	0.000861016	0	5	0	
0.143833	0.0576797	-0.0237171	0.00100525	0.00123444	0	5	0	
0.144	-0.0017666	0.0226179	0.00115252	0.00102232	0	5	0	
0.144167	0.0037069	0.0147939	0.000872343	0.000918703	0	5	0	
0.144333	-0.0507319	-0.0170074	0.000686907	0.000534412	0	5	0	
0.1445	0.0536327	0.004033	0.000633092	0.000498929	0	5	0	
0.144667	-0.0377589	-0.0349672	0.000878041	0.000357408	0	5	0	
0.144833	0.0537858	0.0343533	0.000970687	0.000455179	0	5	0	
0.145	-0.0586337	0.0132652	0.000992793	0.000758345	0	5	0	
0.145167	0.0351121	-0.0397461	0.00108469	0.00083968	0	5	0	
0.145333	-0.0103508	0.0267718	0.00108843	0.000804218	0	5	0	
0.1455	0.00908096	-0.0140329	0.000855017	0.000608743	0	5	0	
0.145667	-0.0191495	-0.0102406	0.00056734	0.00059069	0	5	0	
0.145833	0.0396963	0.0226379	0.000453267	0.000549776	0	5	0	
0.146	-0.0445506	-0.00311579	0.000612611	0.000508624	0	5	0	
0.146167	0.021174	-0.00470584	0.000728127	0.000348114	0	5	0	
0.146333	-0.0172932	-0.0281287	0.000681348	0.000381248	0	5	0	
0.1465	0.0575146	0.0272734	0.000715455	0.000406859	0	5	0	
0.146667	-0.0689045	0.00706111	0.000860019	0.000558279	0	5	0	
0.146833	0.0422215	-0.0126476	0.00116358	0.00047476	0	5	0	
0.147	-0.019656	-0.00375652	0.00113676	0.000386242	0	5	0	
0.147167	0.0349125	0.00865484	0.000931206	0.000217028	0	5	0	
0.147333	-0.028928	-0.00685452	0.000693107	0.000189152	0	5	0	
0.1475	0.0181325	0.00574422	0.000619829	0.000185213	0	5	0	
0.147667	-0.0348563	0.00442846	0.000633347	0.0001667	0	5	0	
0.147833	0.0590681	-0.00974524	0.000714731	0.000169558	0	5	0	
0.148	-0.0456681	0.00094651	0.000847133	0.000120129	0	5	0	
0.148167	0.0415958	0.00232007	0.000940809	0.00012054	0	5	0	
0.148333	-0.0353446	0.0015864	0.000896077	0.000113811	0	5	0	
0.1485	0.038716	0.0122706	0.000840672	0.000240379	0	5	0	
0.148667	-0.0324292	-0.0180005	0.000794764	0.000362469	0	5	0	
0.148833	0.0136911	0.0193723	0.000691281	0.000451211	0	5	0	
0.149	-0.00596101	-0.0428231	0.000504597	0.000577799	0	5	0	
0.149167	0.0456087	0.0676152	0.000588262	0.000779003	0	5	0	
0.149333	-0.0884003	-0.0371182	0.000940948	0.000990358	0	5	0	
0.1495	0.0735129	-0.00784625	0.00136289	0.00114477	0	5	0	
0.149667	-0.0333781	0.0134273	0.00141022	0.000985138	0	5	0	
0.149833	0.0441528	-0.00827889	0.00117832	0.00074373	0	5	0	
0.15	-0.0606945	0.0203004	0.00100135	0.000445578	0	5	0	
0.150167	0.0381918	-0.00863379	0.000948749	0.000349281	0	5	0	
0.150333	-0.0272868	-0.00327542	0.000929373	0.000352821	0	5	0	
0.1505	0.0391917	0.000473307	0.000845249	0.000264087	0	5	0	
0.150667	-0.0361093	0.00705785	0.000759834	0.000187974	0	5	0	
0.150833	0.0189133	0.00602326	0.000733962	0.000129209	0	5	0	
0.151	-0.00230619	-0.0109566	0.00056731	0.000170777	0	5	0	
0.151167	0.0162363	0.0301229	0.000477384	0.000328987	0	5	0	
0.151333	-0.0641264	-0.0486939	0.000634535	0.000514453	0	5	0	
0.1515	0.0868753	0.0372999	0.00103951	0.00076481	0	5	0	
0.151667	-0.054835	-0.00331818	0.00133367	0.000930914	0	5	0	
0.151833	0.0348221	0.00396939	0.00129127	0.000893304	0	5	0	
0.152	-0.0395307	-0.0114063	0.00104296	0.000675591	0	5	0	
0.152167	0.04527	0.0198611	0.000889425	0.000442679	0	5	0	
0.152333	-0.0451071	-0.0155005	0.000857521	0.000402733	0	5	0	
0.1525	0.0387631	-0.0200777	0.000899753	0.00055084	0	5	0	
0.152667	-0.0190367	0.0369383	0.000844053	0.000588831	0	5	0	
0.152833	0.0214381	-0.00718831	0.000691403	0.000653329	0	5	0	
0.153	-0.039085	-0.00782034	0.000614558	0.000576574	0	5	0	
0.153167	0.0473315	0.00269568	0.000670648	0.000484478	0	5	0	
0.153333	-0.0428478	-0.0128789	0.000806839	0.000331975	0	5	0	
0.1535	0.0415056	0.0221902	0.000869681	0.000245293	0	5	0	
0.153667	-0.0395459	-0.0193554	0.000864399	0.00035972	0	5	0	
0.153833	0.0313501	0.0123177	0.000818971	0.000448002	0	5	0	
0.154	-0.0320537	-0.00732853	0.00076401	0.000449505	0	5	0	
0.154167	0.0411973	0.011544	0.000735846	0.000365489	0	5	0	
0.154333	-0.0439236	-0.0196728	0.000765055	0.000320661	0	5	0	
0.1545	0.042629	0.0188723	0.000828968	0.000344635	0	5	0	
0.154667	-0.0349722	-0.0167882	0.000848593	0.000397746	0	5	0	
0.154833	0.0314682	0.0130458	0.00080994	0.000389716	0	5	0	
0.155	-0.0396005	-0.00857559	0.000759883	0.000328466	0	5	0	
0.155167	0.0372	0.0110539	0.000742313	0.000250074	0	5	0	
0.155333	-0.0353834	-0.013872	0.000738685	0.000228969	0	5	0	
0.1555	0.0403938	0.00839078	0.000756533	0.000231988	0	5	0	
0.155667	-0.0445571	-0.0145477	0.000790693	0.000254206	0	5	0	
0.155833	0.0481873	0.0192848	0.000866096	0.00027848	0	5	0	
0.156	-0.0427785	-0.0150235	0.000898106	0.00031952	0	5	0	
0.156167	0.0321411	0.0127157	0.000859858	0.000324592	0	5	0	
0.156333	-0.0348274	-0.015645	0.000773536	0.000299479	0	5	0	
0.1565	0.0399375	0.0120597	0.000743127	0.000278737	0	5	0	
0.156667	-0.0392883	-0.0114013	0.000756529	0.000267644	0	5	0	
0.156833	0.038331	0.0117526	0.000790936	0.000254706	0	5	0	
0.157	-0.0426631	-0.0123394	0.000798026	0.000237225	0	5	0	
0.157167	0.0438154	0.00529643	0.000819329	0.000252511	0	5	0	
0.157333	-0.0418724	-0.00622217	0.000844982	0.000259003	0	5	0	
0.1575	0.0420365	0.00805491	0.000875984	0.000258725	0	5	0	
0.157667	-0.0407594	-0.00934329	0.000861896	0.000231519	0	5	0	
0.157833	0.0369844	0.00566651	0.000844634	0.000206912	0	5	0	
0.158	-0.035562	-0.0128152	0.000794116	0.000189348	0	5	0	
0.158167	0.0257463	0.0387259	0.000754897	0.000299257	0	5	0	
0.158333	-0.0254117	-0.0551479	0.000721549	0.000535614	0	5	0	
0.1585	0.0472402	0.0314133	0.000795258	0.000788662	0	5	0	
0.158667	-0.0651406	-0.00583126	0.000930756	0.000836601	0	5	0	
0.158833	0.0479793	-0.0021618	0.00105641	0.00057999	0	5	0	
0.159	-0.038881	-0.00270321	0.00103489	0.00035723	0	5	0	
0.159167	0.0333854	0.00850549	0.000923353	0.000259112	0	5	0	
0.159333	-0.0210129	-0.016295	0.000766491	0.000431148	0	5	0	
0.1595	0.0058534	0.0218691	0.00060424	0.000587332	0	5	0	
0.159667	-0.0263991	-0.0236867	0.000483159	0.000623131	0	5	0	
0.159833	0.0410979	0.00985619	0.000541787	0.000516153	0	5	0	
0.16	-0.0437189	-0.00397534	0.000687639	0.000327533	0	5	0	
0.160167	0.0338269	-0.000290218	0.000810357	0.000197851	0	5	0	
0.160333	-0.0425037	-0.00894499	0.000804219	0.000154901	0	5	0	
0.1605	0.0407976	0.0107198	0.000800453	0.000175714	0	5	0	
0.160667	-0.0432569	-0.00898454	0.000820347	0.000197549	0	5	0	
0.160833	0.0417873	0.0035144	0.000843435	0.00018378	0	5	0	
0.161	-0.0447395	-0.00196748	0.000862896	0.000160402	0	5	0	
0.161167	0.036473	-0.00769661	0.000845476	0.000138471	0	5	0	
0.161333	-0.047617	-0.00100279	0.000865177	0.000126047	0	5	0	
0.1615	0.0454278	0.0153694	0.000872996	0.000203291	0	5	0	
0.161667	-0.0449242	-0.0254381	0.000935662	0.000327116	0	5	0	
0.161833	0.0425825	0.0201534	0.000926558	0.000426269	0	5	0	
0.162	-0.0433251	-0.0143743	0.000914835	0.000415195	0	5	0	
0.162167	0.0381915	0.0117685	0.000862845	0.000358271	0	5	0	
0.162333	-0.0354435	-0.00954271	0.000828835	0.000300979	0	5	0	
0.1625	0.0145964	0.0130274	0.000720544	0.000295906	0	5	0	
0.162667	-0.0147748	-0.0185912	0.000560858	0.000374542	0	5	0	
0.162833	0.0289603	0.0252041	0.000471727	0.000495194	0	5	0	
0.163	-0.0363125	-0.03238	0.000492383	0.000556783	0	5	0	
0.163167	0.0365627	0.0128399	0.000627599	0.000535586	0	5	0	
0.163333	-0.0414922	0.0210077	0.000730424	0.000530351	0	5	0	
0.1635	0.0461398	-0.0244372	0.00081876	0.000510352	0	5	0	
0.163667	-0.0373107	0.0176484	0.000845776	0.000536793	0	5	0	
0.163833	0.052043	0.0227436	0.000911812	0.000587599	0	5	0	
0.164	-0.0816788	-0.0196403	0.0010266	0.000529165	0	5	0	
0.164167	0.0567656	-0.0353748	0.00124949	0.000741691	0	5	0	
0.164333	0.0276716	0.0770258	0.00151199	0.000815523	0	5	0	
0.1645	-0.0387928	-0.00296482	0.00126078	0.00128852	0	5	0	
0.164667	-0.0512162	-0.0506447	0.00136878	0.00147821	0	5	0	
0.164833	0.0990428	0.0331515	0.00126494	0.00139196	0	5	0	
0.165	-0.0562662	-0.00992292	0.00164958	0.00104394	0	5	0	
0.165167	0.057523	0.0391589	0.00145633	0.000714505	0	5	0	
0.165333	-0.100681	0.00431589	0.00144777	0.00108433	0	5	0	
0.1655	0.0785969	-0.0854391	0.0015695	0.0017197	0	5	0	
0.165667	-0.0152397	0.0985249	0.00181886	0.00209235	0	5	0	
0.165833	0.0171967	-0.030562	0.00156516	0.00186732	0	5	0	
0.166	-0.0514092	-0.0383014	0.00123518	0.00135549	0	5	0	
0.166167	0.075123	0.0955292	0.00112027	0.00112597	0	5	0	
0.166333	-0.0786303	-0.0727378	0.00144472	0.00138235	0	5	0	
0.1665	0.0542737	-0.000600922	0.00154178	0.00170695	0	5	0	
0.166667	-0.0335509	0.00436897	0.0012928	0.00160426	0	5	0	
0.166833	0.0612199	0.0218944	0.00109409	0.00113075	0	5	0	
0.167	-0.0668162	0.0100402	0.00109752	0.000741263	0	5	0	
0.167167	0.0196125	-0.00137908	0.00113067	0.000496587	0	5	0	
0.167333	0.00607461	-0.0394275	0.000877993	0.000650533	0	5	0	
0.1675	0.0296629	0.0542416	0.000707276	0.000691463	0	5	0	
0.167667	-0.0651935	-0.0420502	0.000712704	0.000936898	0	5	0	
0.167833	0.0563882	0.0224812	0.00098657	0.000939672	0	5	0	
0.168	-0.0391927	-0.00813274	0.00107823	0.000853633	0	5	0	
0.168167	0.0348979	0.0135385	0.000990459	0.000641774	0	5	0	
0.168333	-0.0398775	-0.0231064	0.000874276	0.000456345	0	5	0	
0.1685	0.0441971	0.0184785	0.000794097	0.000372	0	5	0	
0.168667	-0.040574	-0.0107072	0.000825421	0.000410119	0	5	0	
0.168833	0.0318985	0.00530787	0.000807692	0.000346562	0	5	0	
0.169	-0.0365584	-0.00683399	0.000775865	0.000271243	0	5	0	
0.169167	0.0405002	0.00664979	0.000753784	0.000191295	0	5	0	
0.169333	-0.0408735	-0.0156989	0.000788502	0.000207947	0	5	0	
0.1695	0.0425889	0.013061	0.000807398	0.000221683	0	5	0	
0.169667	-0.0426754	-0.00679864	0.000835194	0.000244601	0	5	0	
0.169833	0.0350119	0.0061928	0.000827171	0.000219878	0	5	0	
0.17	-0.0351772	0.00353439	0.000785	0.000165617	0	5	0	
0.170167	0.0342069	0.0141423	0.000739156	0.000244498	0	5	0	
0.170333	-0.0337265	-0.0538046	0.000700096	0.000422424	0	5	0	
0.1705	0.0412264	0.0424907	0.000744111	0.000685571	0	5	0	
0.170667	-0.0547443	-0.0130586	0.000840931	0.0007905	0	5	0	
0.170833	0.0489964	0.00984863	0.000936603	0.000700103	0	5	0	
0.171	-0.0361511	0.00135836	0.000943396	0.000517485	0	5	0	
0.171167	0.0304046	-0.015121	0.000854314	0.000359141	0	5	0	
0.171333	-0.0339371	0.00334793	0.000732522	0.000286699	0	5	0	
0.1715	0.0217552	0.0102636	0.000659749	0.000380748	0	5	0	
0.171667	-0.0300065	-0.0273715	0.000589209	0.000492466	0	5	0	
0.171833	0.0364816	0.0236379	0.000614284	0.00059167	0	5	0	
0.172	-0.0411999	-0.00964495	0.000680161	0.000496818	0	5	0	
0.172167	0.0383334	-0.00171471	0.000774751	0.000333031	0	5	0	
0.172333	-0.0500636	-0.00868832	0.000825177	0.000181447	0	5	0	
0.1725	0.036836	0.00838152	0.000847268	0.000145236	0	5	0	
0.172667	-0.0261582	-0.0158399	0.000799512	0.000212297	0	5	0	
0.172833	0.012364	0.0146171	0.000646253	0.000352011	0	5	0	
0.173	-0.00963107	-0.015894	0.000456504	0.00041857	0	5	0	
0.173167	0.0272471	0.0554013	0.000443832	0.000591532	0	5	0	
0.173333	-0.0932999	-0.0945667	0.000818644	0.000875392	0	5	0	
0.1735	0.119219	0.0586946	0.00141016	0.00133746	0	5	0	
0.173667	-0.0937705	-0.0103812	0.00187758	0.00169898	0	5	0	
0.173833	0.056802	-0.00766764	0.00190821	0.0016309	0	5	0	
0.174	-0.041934	0.0211208	0.00161097	0.00129474	0	5	0	
0.174167	0.00131064	-0.0276938	0.00124414	0.000779049	0	5	0	
0.174333	0.0280306	-0.0301096	0.000800799	0.000889183	0	5	0	
0.1745	0.00712317	0.111894	0.00095361	0.00142079	0	5	0	
0.174667	-0.0851689	-0.12138	0.0014228	0.00204315	0	5	0	
0.174833	0.0772584	0.0600318	0.00188485	0.00211898	0	5	0	
0.175	-0.0257778	-0.0418399	0.00166348	0.00163885	0	5	0	
0.175167	0.015309	0.0567632	0.00103431	0.00122659	0	5	0	
0.175333	-0.0435799	-0.0299206	0.000721242	0.000917138	0	5	0	
0.1755	0.0424293	0.00245126	0.000668743	0.000740536	0	5	0	
0.175667	-0.0286256	-0.00510454	0.000779192	0.000496044	0	5	0	
0.175833	0.0301829	0.0136867	0.000746409	0.000377739	0	5	0	
0.176	-0.0582032	-0.00634809	0.000780418	0.000287216	0	5	0	
0.176167	0.0497839	-0.00714307	0.000863134	0.000238061	0	5	0	
0.176333	-0.0206816	0.00411594	0.000926972	0.000208573	0	5	0	
0.1765	0.0173482	0.0229113	0.000775173	0.00035747	0	5	0	
0.176667	-0.0441757	-0.0232782	0.000670589	0.000487133	0	5	0	
0.176833	0.0495544	0.00664304	0.000727309	0.000492684	0	5	0	
0.177	-0.0409255	0.00414841	0.000862737	0.000401351	0	5	0	
0.177167	0.031034	0.000668668	0.000863366	0.000263223	0	5	0	
0.177333	-0.0372059	-0.0117557	0.000774562	0.000205782	0	5	0	
0.1775	0.0357888	0.00432513	0.000744015	0.00014344	0	5	0	
0.177667	-0.0385184	-0.00945121	0.000746594	0.000165507	0	5	0	
0.177833	0.0362652	0.0277551	0.000765808	0.000196462	0	5	0	
0.178	-0.0410884	-0.0992774	0.000742642	0.000590626	0	5	0	
0.178167	0.0377695	0.0725725	0.000760671	0.00128046	0	5	0	
0.178333	-0.0412139	-0.00685436	0.000759762	0.00157289	0	5	0	
0.1785	0.0361015	-0.00259506	0.000791175	0.00118887	0	5	0	
0.178667	-0.0379554	0.00906288	0.000772562	0.000486704	0	5	0	
0.178833	0.0322815	0.00146447	0.000737097	0.000168112	0	5	0	
0.179	-0.0381845	-0.0389374	0.00070065	0.000353268	0	5	0	
0.179167	0.0434802	0.00612731	0.000728917	0.000939389	0	5	0	
0.179333	-0.0419433	-0.003053	0.000776394	0.00141855	0	5	0	
0.1795	0.0305284	0.0233072	0.000796149	0.00138728	0	5	0	
0.179667	-0.0164869	-0.00699711	0.000689724	0.000881197	0	5	0	
0.179833	0.0377018	0.00849426	0.000570151	0.000406187	0	5	0	
0.18	-0.0292293	-0.00335229	0.00063239	0.000236324	0	5	0	
0.180167	0.0376338	0.00629056	0.000666211	0.000150692	0	5	0	
0.180333	-0.0450012	-0.00215105	0.000817225	0.000164232	0	5	0	
0.1805	0.0527779	-0.0162589	0.000806407	0.000310678	0	5	0	
0.180667	-0.0513624	0.00928636	0.000941792	0.00045832	0	5	0	
0.180833	0.0482003	-0.00581307	0.000969653	0.000468584	0	5	0	
0.181	-0.034154	-0.00263692	0.00103322	0.000300195	0	5	0	
0.181167	0.0688246	0.0151416	0.000990206	0.000191115	0	5	0	
0.181333	-0.119089	-0.0193815	0.00143892	0.00019978	0	5	0	
0.1815	0.23916	0.0287869	0.00244378	0.00036407	0	5	0	
0.181667	-0.218357	-0.0112444	0.00352502	0.000421315	0	5	0	
0.181833	0.131303	0.00117455	0.00376107	0.000381707	0	5	0	
0.182	-0.0133911	0.00482364	0.00337375	0.000221856	0	5	0	
0.182167	0.00366596	-0.0202082	0.00260085	0.000189079	0	5	0	
0.182333	0.0235501	0.0153414	0.00170835	0.000277868	0	5	0	
0.1825	-0.034285	0.00162512	0.00120733	0.00031795	0	5	0	
0.182667	0.0311298	0.00157099	0.0016184	0.000258757	0	5	0	
0.182833	0.0813745	0.00622239	0.00260905	0.000165139	0	5	0	
0.183	-0.129294	-0.00435006	0.00297566	0.00014725	0	5	0	
0.183167	0.127235	-7.89102E-05	0.00270936	0.000150524	0	5	0	
0.183333	-0.0667739	-0.00557811	0.00225678	0.000222174	0	5	0	
0.1835	0.0517147	0.0318379	0.0017838	0.000383729	0	5	0	
0.183667	-0.0717993	-0.00821115	0.00145164	0.000530796	0	5	0	
0.183833	0.0603402	-0.0121679	0.00120066	0.00047831	0	5	0	
0.184	-0.0361543	-0.00193102	0.00116971	0.000299662	0	5	0	
0.184167	0.0289218	-0.000693302	0.00103185	0.000142879	0	5	0	
0.184333	-0.0344632	0.00278335	0.00084125	9.1464E-05	0	5	0	
0.1845	0.0378063	0.00923885	0.000757512	0.000105206	0	5	0	
0.184667	-0.043893	0.00444913	0.000754483	0.000185512	0	5	0	
0.184833	0.0372754	-0.00682228	0.000788014	0.000267671	0	5	0	
0.185	-0.0394093	-0.0137898	0.000778986	0.000291726	0	5	0	
0.185167	0.0445046	0.00216637	0.000788847	0.000223099	0	5	0	
0.185333	-0.0443156	-0.00463166	0.000829013	0.000206339	0	5	0	
0.1855	0.0388725	0.0126662	0.000881424	0.000228595	0	5	0	
0.185667	-0.0404309	-0.0241766	0.000856028	0.000327316	0	5	0	
0.185833	0.0399633	0.0290145	0.000810024	0.000431074	0	5	0	
0.186	-0.0382142	-0.0199899	0.000770342	0.000490532	0	5	0	
0.186167	0.0518256	-0.0090488	0.000841527	0.000418533	0	5	0	
0.186333	-0.0467626	-0.00569696	0.000901531	0.000277589	0	5	0	
0.1865	0.0373166	0.0194974	0.000945013	0.000234309	0	5	0	
0.186667	-0.0339084	-0.0051736	0.000852688	0.000276559	0	5	0	
0.186833	0.0309177	0.0120202	0.000768042	0.000403349	0	5	0	
0.187	-0.053333	-0.0382668	0.000814595	0.000508455	0	5	0	
0.187167	0.103247	0.0349892	0.0011401	0.000671662	0	5	0	
0.187333	-0.08388	0.0016234	0.00148092	0.00111172	0	5	0	
0.1875	0.0308376	-0.0309906	0.00153004	0.00133997	0	5	0	
0.187667	-0.0194341	0.0098527	0.00116454	0.00115554	0	5	0	
0.187833	0.0445343	0.0219871	0.000993727	0.000672932	0	5	0	
0.188	-0.0776366	-0.0426946	0.0010531	0.000445482	0	5	0	
0.188167	0.0776315	0.118453	0.00137145	0.000860935	0	5	0	
0.188333	-0.0657658	-0.182931	0.00141483	0.00174845	0	5	0	
0.1885	0.0546745	0.132778	0.00134855	0.00249133	0	5	0	
0.188667	-0.0114108	-0.0389816	0.00123963	0.00282974	0	5	0	
0.188833	-0.0303625	0.00658286	0.000996538	0.00203054	0	5	0	
0.189	-0.00927692	-0.0441268	0.000930798	0.0014982	0	5	0	
0.189167	0.0744679	0.0548238	0.00112705	0.00106354	0	5	0	
0.189333	-0.090764	-0.0288666	0.00153107	0.001341	0	5	0	
0.1895	0.0825843	0.0451385	0.00175209	0.00159079	0	5	0	
0.189667	-0.0707399	-0.0659763	0.0016052	0.00173206	0	5	0	
0.189833	0.0472654	0.0204065	0.00144331	0.00156513	0	5	0	
0.19	-0.0300531	0.000706223	0.00114765	0.00100262	0	5	0	
0.190167	0.0337327	0.00848797	0.000931923	0.000584598	0	5	0	
0.190333	-0.045005	-0.0164158	0.000798719	0.000419654	0	5	0	
0.1905	0.0453431	0.025378	0.000844193	0.000473097	0	5	0	
0.190667	-0.0317095	-0.0159304	0.000844691	0.00046456	0	5	0	
0.190833	0.0209223	-0.00123139	0.000782708	0.000352041	0	5	0	
0.191	-0.0386304	-0.00703843	0.000703971	0.000231198	0	5	0	
0.191167	0.0461567	0.0186353	0.000763611	0.000215472	0	5	0	
0.191333	-0.0409234	-0.0177014	0.000817242	0.000297591	0	5	0	
0.1915	0.034537	0.00885094	0.000839816	0.000353697	0	5	0	
0.191667	-0.0347006	-0.00446142	0.000765344	0.00027367	0	5	0	
0.191833	0.038872	0.00400994	0.000725679	0.000177067	0	5	0	
0.192	-0.0373029	-0.0109278	0.000729464	0.000131555	0	5	0	
0.192167	0.0341831	0.0144992	0.000756002	0.000189745	0	5	0	
0.192333	-0.0412039	-0.0118714	0.000757305	0.000231173	0	5	0	
0.1925	0.0404173	0.0136057	0.000786124	0.000270776	0	5	0	
0.192667	-0.0375871	-0.019798	0.000788427	0.00028752	0	5	0	
0.192833	0.039422	0.0137086	0.000785127	0.00031746	0	5	0	
0.193	-0.0406886	-0.0141961	0.000780851	0.000309444	0	5	0	
0.193167	0.0382897	0.0137416	0.000800328	0.000288285	0	5	0	
0.193333	-0.033741	-0.010937	0.000787422	0.000262157	0	5	0	
0.1935	0.0326008	0.0101621	0.000743123	0.000277568	0	5	0	
0.193667	-0.038712	-0.00743401	0.00070928	0.000260947	0	5	0	
0.193833	0.0417977	-0.00078803	0.00074731	0.000193601	0	5	0	
0.194	-0.0447377	-0.00393209	0.000815509	0.000110909	0	5	0	
0.194167	0.0435622	0.0046289	0.000867086	9.58045E-05	0	5	0	
0.194333	-0.038283	-0.00767711	0.000866332	0.000126687	0	5	0	
0.1945	0.0355188	0.0116654	0.000810795	0.000225747	0	5	0	
0.194667	-0.0349875	-0.0276618	0.000762306	0.000360666	0	5	0	
0.194833	0.0361245	0.0380146	0.000740937	0.000532868	0	5	0	
0.195	-0.0432853	-0.0287967	0.000783143	0.000622386	0	5	0	
0.195167	0.0471302	0.00882639	0.000847582	0.000572459	0	5	0	
0.195333	-0.0341856	-0.00754767	0.000867047	0.000450836	0	5	0	
0.1955	0.0308402	-0.0111945	0.00079657	0.000310781	0	5	0	
0.195667	-0.0319183	0.0108252	0.000720974	0.000290758	0	5	0	
0.195833	0.0345519	0.0104505	0.0006896	0.000229896	0	5	0	
0.196	-0.0422212	-0.0169736	0.000765609	0.000274037	0	5	0	
0.196167	0.047603	0.0219016	0.0008482	0.000291079	0	5	0	
0.196333	-0.0389325	-0.0217694	0.000888592	0.000401163	0	5	0	
0.1965	0.040723	0.00669763	0.000875732	0.000398016	0	5	0	
0.196667	-0.0415457	-0.0115967	0.000852909	0.000352088	0	5	0	
0.196833	0.0331215	0.0276369	0.000802033	0.000371973	0	5	0	
0.197	-0.0303924	-0.0292176	0.000754203	0.000468591	0	5	0	
0.197167	0.0381357	0.0240566	0.000708227	0.000543762	0	5	0	
0.197333	-0.0415726	-0.0151855	0.000749703	0.000498773	0	5	0	
0.1975	0.0384439	0.0178329	0.000804353	0.000410079	0	5	0	
0.197667	-0.0394769	-0.0198522	0.000816234	0.000374764	0	5	0	
0.197833	0.0405526	0.0217726	0.000809904	0.000390398	0	5	0	
0.198	-0.0407937	-0.0218853	0.000806132	0.000409676	0	5	0	
0.198167	0.0406481	0.0146621	0.00082591	0.000395955	0	5	0	
0.198333	-0.0425011	-0.0120337	0.000834603	0.000344579	0	5	0	
0.1985	0.0399858	0.0167174	0.000838731	0.000322365	0	5	0	
0.198667	-0.0397829	-0.0169218	0.000829013	0.000339958	0	5	0	
0.198833	0.0461806	0.0190418	0.000852856	0.000401296	0	5	0	
0.199	-0.0476141	-0.0106599	0.000879803	0.000394046	0	5	0	
0.199167	0.0398586	-0.00339601	0.000890808	0.000310044	0	5	0	
0.199333	-0.0124664	0.0159558	0.00076332	0.000235787	0	5	0	
0.1995	-0.00792828	-0.00164552	0.000553227	0.00038024	0	5	0	
0.199667	0.0103007	-0.0136882	0.000371438	0.000720932	0	5	0	
0.199833	0.00141611	0.0239088	0.00043601	0.00112074	0	5	0	
0.2	-0.0204118	-0.0359977	0.000609437	0.00131102	0	5	0	
0.200167	0.0552593	0.030093	0.00076405	0.00116105	0	5	0	
0.200333	-0.0639134	-0.00173317	0.00089124	0.000783936	0	5	0	
0.2005	0.0535928	-0.00413648	0.00101616	0.000364054	0	5	0	
0.200667	-0.0513898	-0.005009	0.00109037	0.000181205	0	5	0	
0.200833	0.059605	-0.00483209	0.00107689	0.00017573	0	5	0	
0.201	-0.0586406	0.0296902	0.00106318	0.000464704	0	5	0	
0.201167	0.054295	-0.0480279	0.00113987	0.000755703	0	5	0	
0.201333	-0.0465594	0.0286773	0.00112991	0.000909892	0	5	0	
0.2015	0.0440307	-0.0140484	0.0010594	0.000738117	0	5	0	
0.201667	-0.0244742	0.013234	0.000877124	0.000445042	0	5	0	
0.201833	0.00521642	0.0235189	0.000685974	0.000497985	0	5	0	
0.202	-0.0210013	-0.0758464	0.000707518	0.0008038	0	5	0	
0.202167	0.056021	0.0703942	0.000944219	0.00118662	0	5	0	
0.202333	-0.0616018	-0.0441861	0.00119093	0.00127051	0	5	0	
0.2025	0.0441266	0.0409939	0.00120316	0.00112493	0	5	0	
0.202667	-0.0423012	-0.036251	0.00106086	0.000953047	0	5	0	
0.202833	0.0531139	0.0219108	0.00101497	0.000769103	0	5	0	
0.203	-0.0523186	-0.0164246	0.00101285	0.000603917	0	5	0	
0.203167	0.045905	0.00461556	0.00101824	0.000424985	0	5	0	
0.203333	-0.0389096	0.00118095	0.000939212	0.000252919	0	5	0	
0.2035	0.0329484	0.0129598	0.000831848	0.000220833	0	5	0	
0.203667	-0.0370546	-0.0217306	0.000761383	0.000272597	0	5	0	
0.203833	0.0394416	0.01121	0.000751368	0.0003507	0	5	0	
0.204	-0.0368948	-0.00740465	0.000765379	0.000306365	0	5	0	
0.204167	0.0340487	0.00720438	0.000751456	0.000206783	0	5	0	
0.204333	-0.0353946	-0.00872895	0.000738405	0.000165872	0	5	0	
0.2045	0.0388106	0.0122267	0.000726156	0.000201916	0	5	0	
0.204667	-0.0382881	-0.0131006	0.000760518	0.000259258	0	5	0	
0.204833	0.038516	0.00805889	0.00075022	0.000247048	0	5	0	
0.205	-0.0397988	-0.018207	0.000782602	0.000245281	0	5	0	
0.205167	0.0422256	0.0206988	0.000785895	0.000262317	0	5	0	
0.205333	-0.039446	-0.014195	0.00083097	0.000339507	0	5	0	
0.2055	0.0434015	0.0115983	0.000824345	0.00033069	0	5	0	
0.205667	-0.0405943	-0.0118865	0.000837451	0.000290765	0	5	0	
0.205833	0.0385428	0.00777706	0.000823161	0.000223995	0	5	0	
0.206	-0.0424378	-0.0131282	0.000828586	0.000220113	0	5	0	
0.206167	0.0352444	0.00708551	0.000803479	0.000258757	0	5	0	
0.206333	-0.034739	-0.00951875	0.000785465	0.000277881	0	5	0	
0.2065	0.0390175	0.014723	0.000766084	0.000324669	0	5	0	
0.206667	-0.0407673	-0.0240623	0.000787296	0.000386004	0	5	0	
0.206833	0.0360322	0.0207749	0.0007954	0.00048062	0	5	0	
0.207	-0.0415311	-0.0165998	0.000815187	0.000481899	0	5	0	
0.207167	0.0430932	0.00476345	0.000837566	0.000377044	0	5	0	
0.207333	-0.0406678	-0.00251836	0.000829788	0.000226462	0	5	0	
0.2075	0.0301863	0.0215857	0.000791709	0.00015959	0	5	0	
0.207667	-0.0341367	-0.0146385	0.00072801	0.000274428	0	5	0	
0.207833	0.0366836	-0.000575536	0.000733744	0.000387973	0	5	0	
0.208	-0.0369043	-0.000908877	0.000749962	0.000453945	0	5	0	
0.208167	0.0348526	0.000836492	0.000760874	0.000359648	0	5	0	
0.208333	-0.037437	-0.00840392	0.000745203	0.000243524	0	5	0	
0.2085	0.0357519	0.0140502	0.000751937	0.000187237	0	5	0	
0.208667	-0.0331771	-0.00340103	0.000757693	0.000249662	0	5	0	
0.208833	0.0388633	-0.000418991	0.000758129	0.00035152	0	5	0	
0.209	-0.0350965	-0.00189612	0.000747925	0.000361312	0	5	0	
0.209167	0.0379909	0.00627386	0.000756634	0.000218099	0	5	0	
0.209333	-0.0417539	-0.0147974	0.000771578	0.00017081	0	5	0	
0.2095	0.0347834	0.0177935	0.000785321	0.000213884	0	5	0	
0.209667	-0.0297047	-0.0183022	0.00075218	0.000341689	0	5	0	
0.209833	0.0361677	0.011314	0.000729684	0.000372979	0	5	0	
0.21	-0.0366272	-0.0109637	0.000739729	0.000332202	0	5	0	
0.210167	0.0409694	0.0141992	0.000773121	0.000275005	0	5	0	
0.210333	-0.0362638	-0.0123896	0.000801803	0.0002561	0	5	0	
0.2105	0.0367887	0.0106754	0.000785256	0.00026063	0	5	0	
0.210667	-0.0364817	-0.00607758	0.000778526	0.000278373	0	5	0	
0.210833	0.0371788	0.00804209	0.000776096	0.000299024	0	5	0	
0.211	-0.0343207	-0.0118714	0.000770317	0.00032876	0	5	0	
0.211167	0.0406856	0.0062329	0.000757519	0.000315796	0	5	0	
0.211333	-0.0334401	-0.00570469	0.000733691	0.000225697	0	5	0	
0.2115	0.0238752	0.0121524	0.00067882	0.000173987	0	5	0	
0.211667	-0.030693	-0.029988	0.000685037	0.000246479	0	5	0	
0.211833	0.0632528	0.0406234	0.000856121	0.000432765	0	5	0	
0.212	-0.0815855	-0.0209769	0.0011395	0.000687998	0	5	0	
0.212167	0.0639732	-0.00646517	0.00134147	0.000942707	0	5	0	
0.212333	-0.0375282	0.0285353	0.00125125	0.0010303	0	5	0	
0.2125	0.0151941	-0.0397036	0.00101957	0.000947059	0	5	0	
0.212667	0.0103295	0.0401449	0.000756625	0.000776154	0	5	0	
0.212833	-0.0219997	-0.00341608	0.000529566	0.000869718	0	5	0	
0.213	4.36992E-05	-0.0609139	0.000679446	0.00123879	0	5	0	
0.213167	0.0299246	0.121373	0.00112546	0.00171378	0	5	0	
0.213333	-0.070128	-0.112399	0.00163499	0.00200335	0	5	0	
0.2135	0.0784957	0.0469338	0.00172187	0.00204028	0	5	0	
0.213667	-0.0559746	0.00286335	0.00149021	0.001868	0	5	0	
0.213833	0.0383883	-0.00360436	0.00120352	0.00143292	0	5	0	
0.214	-0.0371866	0.0190385	0.000954939	0.000971949	0	5	0	
0.214167	0.0145971	-0.0301788	0.00071865	0.000546001	0	5	0	
0.214333	-0.00539612	-0.0036193	0.000509807	0.000662936	0	5	0	
0.2145	0.0164534	0.0306837	0.000400888	0.000854463	0	5	0	
0.214667	-0.0309311	-0.0242763	0.000439772	0.000937301	0	5	0	
0.214833	0.0286595	0.0183524	0.000543968	0.000732285	0	5	0	
0.215	-0.0286171	-0.0187189	0.000639374	0.000518459	0	5	0	
0.215167	0.0392714	0.0188646	0.000718898	0.000456746	0	5	0	
0.215333	-0.0440218	-0.0232127	0.000813808	0.000468213	0	5	0	
0.2155	0.0376212	0.0207836	0.000886121	0.000481929	0	5	0	
0.215667	-0.0410371	-0.00729821	0.000881243	0.000436372	0	5	0	
0.215833	0.0392264	0.00510562	0.000843863	0.00033972	0	5	0	
0.216	-0.0365021	-0.0160906	0.000828728	0.000294575	0	5	0	
0.216167	0.0439183	0.017315	0.000835472	0.000309621	0	5	0	
0.216333	-0.0420785	-0.0136054	0.000862207	0.000338545	0	5	0	
0.2165	0.036042	0.0111944	0.000859092	0.000297726	0	5	0	
0.216667	-0.0376152	-0.0065281	0.000825562	0.000233158	0	5	0	
0.216833	0.0354202	0.00421983	0.000794087	0.000179401	0	5	0	
0.217	-0.0381019	-0.0101446	0.000785409	0.000161921	0	5	0	
0.217167	0.0373198	0.00844276	0.000778662	0.000178402	0	5	0	
0.217333	-0.036835	-0.0138875	0.000781985	0.000216405	0	5	0	
0.2175	0.0344002	0.0188206	0.000785478	0.000267858	0	5	0	
0.217667	-0.0357717	-0.0123214	0.000777323	0.000303955	0	5	0	
0.217833	0.0366218	0.00431014	0.000767234	0.000288702	0	5	0	
0.218	-0.03937	-0.0102634	0.000764471	0.000222712	0	5	0	
0.218167	0.0332014	0.0123747	0.000768707	0.000231173	0	5	0	
0.218333	-0.0341941	-0.0191202	0.000786051	0.000324107	0	5	0	
0.2185	0.0418827	0.0200678	0.000809057	0.000409541	0	5	0	
0.218667	-0.0462909	-0.0130458	0.000863618	0.000399502	0	5	0	
0.218833	0.043017	0.0173851	0.000885276	0.000327909	0	5	0	
0.219	-0.0403385	-0.0253736	0.000878652	0.000325282	0	5	0	
0.219167	0.0353698	0.0135362	0.000825583	0.000358176	0	5	0	
0.219333	-0.0290814	-0.000590904	0.000766186	0.000317349	0	5	0	
0.2195	0.0331464	0.00597865	0.000714445	0.000243461	0	5	0	
0.219667	-0.0416485	-0.0180407	0.000763884	0.000226754	0	5	0	
0.219833	0.0409892	0.0218873	0.00082411	0.000304465	0	5	0	
0.22	-0.0363894	-0.0198611	0.000866413	0.000392828	0	5	0	
0.220167	0.0396056	0.0244419	0.000839513	0.000460197	0	5	0	
0.220333	-0.0431855	-0.0328896	0.000847393	0.000520189	0	5	0	
0.2205	0.0438384	0.020679	0.000863549	0.000529459	0	5	0	
0.220667	-0.0389499	-0.00378215	0.000870745	0.000443197	0	5	0	
0.220833	0.0382443	0.00149201	0.00082617	0.000279907	0	5	0	
0.221	-0.0355185	0.0059707	0.000775872	0.000139869	0	5	0	
0.221167	0.0185281	-0.00503706	0.000696312	0.00013854	0	5	0	
0.221333	-0.0191072	-0.0373499	0.000684077	0.000481558	0	5	0	
0.2215	0.066699	0.066395	0.000914178	0.000856586	0	5	0	
0.221667	-0.105535	-0.0520661	0.001333	0.00115592	0	5	0	
0.221833	0.0949379	0.0111498	0.00168616	0.00136257	0	5	0	
0.222	-0.0497871	0.00901191	0.00168239	0.00141682	0	5	0	
0.222167	0.0253999	-0.00118811	0.00131807	0.00130506	0	5	0	
0.222333	-0.0326541	0.0105086	0.00092993	0.000923948	0	5	0	
0.2225	0.0395852	-0.0178073	0.000693817	0.000585692	0	5	0	
0.222667	-0.0259564	-0.0117474	0.000666358	0.00043302	0	5	0	
0.222833	0.0242407	0.0504999	0.000719076	0.000535742	0	5	0	
0.223	-0.0300656	-0.0707151	0.000907617	0.000812705	0	5	0	
0.223167	0.0406259	0.0645177	0.00114012	0.00110712	0	5	0	
0.223333	-0.0569576	-0.0495822	0.00128539	0.00117393	0	5	0	
0.2235	0.0791639	0.0126038	0.00130116	0.00111278	0	5	0	
0.223667	-0.0757015	0.0155937	0.00134716	0.00105789	0	5	0	
0.223833	0.0604833	-0.0328526	0.00134075	0.000901863	0	5	0	
0.224	-0.026163	0.0283397	0.00119026	0.000746751	0	5	0	
0.224167	0.00510198	-0.0309059	0.000796172	0.0005828	0	5	0	
0.224333	-0.0104967	-0.0109794	0.000490856	0.000738851	0	5	0	
0.2245	0.0419181	0.0469492	0.000531176	0.00086657	0	5	0	
0.224667	-0.0632636	-0.0360633	0.000878469	0.000942004	0	5	0	
0.224833	0.0555554	-0.0112509	0.00112007	0.000901953	0	5	0	
0.225	-0.0309638	0.0140187	0.00108472	0.000761218	0	5	0	
0.225167	0.023674	-0.00764264	0.000774669	0.000559045	0	5	0	
0.225333	-0.0282216	0.00128789	0.000625047	0.000267647	0	5	0	
0.2255	0.0346659	0.00309858	0.00058778	0.000120316	0	5	0	
0.225667	-0.0484803	0.005854	0.000747628	0.000126043	0	5	0	
0.225833	0.0514156	-0.025032	0.000888735	0.000207967	0	5	0	
0.226	-0.0371814	0.0348553	0.000913985	0.00038032	0	5	0	
0.226167	0.0248411	-0.020512	0.000790711	0.000524428	0	5	0	
0.226333	-0.0301355	-0.00491662	0.000693151	0.000685094	0	5	0	
0.2265	0.0472312	0.0149083	0.000745896	0.000699381	0	5	0	
0.226667	-0.0390887	-0.011339	0.00085303	0.000576453	0	5	0	
0.226833	0.0293165	0.0157566	0.000868777	0.000425017	0	5	0	
0.227	-0.0473295	-0.019957	0.000830275	0.000318463	0	5	0	
0.227167	0.0523785	-0.000124321	0.000849138	0.00037555	0	5	0	
0.227333	-0.0278047	0.00273193	0.000863072	0.000363437	0	5	0	
0.2275	0.0175584	0.00832684	0.000739228	0.000300599	0	5	0	
0.227667	-0.0256903	-0.0105126	0.000683946	0.000222021	0	5	0	
0.227833	0.0365382	0.00247809	0.0006975	0.00017387	0	5	0	
0.228	-0.0403964	-0.00377492	0.000808221	0.000197513	0	5	0	
0.228167	0.0373566	0.00732529	0.000818681	0.00019789	0	5	0	
0.228333	-0.0333253	-0.0354837	0.000788863	0.000349534	0	5	0	
0.2285	0.0281718	0.0536736	0.00072169	0.000553714	0	5	0	
0.228667	-0.033273	-0.0226132	0.000700272	0.000826305	0	5	0	
0.228833	0.0403339	-0.0167623	0.00071197	0.00101526	0	5	0	
0.229	-0.0369559	0.00633696	0.000765675	0.000923721	0	5	0	
0.229167	0.0343575	0.00341868	0.000761342	0.000629292	0	5	0	
0.229333	-0.033389	-0.00113995	0.000744322	0.000270989	0	5	0	
0.2295	0.0316799	0.0328712	0.000718386	0.000327484	0	5	0	
0.229667	-0.0342834	-0.0655704	0.000757206	0.000588747	0	5	0	
0.229833	0.0448824	0.0559964	0.000834767	0.000929889	0	5	0	
0.23	-0.0402734	-0.0362935	0.000900469	0.00103361	0	5	0	
0.230167	0.0316523	0.0256322	0.000862652	0.000927764	0	5	0	
0.230333	-0.0314539	-0.0238126	0.000800931	0.00070513	0	5	0	
0.2305	0.0404064	0.0300404	0.000778328	0.000545239	0	5	0	
0.230667	-0.03376	-0.0192547	0.000793579	0.000478214	0	5	0	
0.230833	0.0337145	0.0099896	0.000789614	0.000454457	0	5	0	
0.231	-0.0403973	-0.00828662	0.000803701	0.000386489	0	5	0	
0.231167	0.0400221	0.00331386	0.000828595	0.000296346	0	5	0	
0.231333	-0.0284728	0.00135802	0.000806893	0.000180309	0	5	0	
0.2315	0.032958	0.00822712	0.000737815	0.000201769	0	5	0	
0.231667	-0.0343272	-0.0171691	0.000733561	0.000303504	0	5	0	
0.231833	0.0370157	0.0229183	0.00079167	0.000398627	0	5	0	
0.232	-0.035677	-0.013424	0.000857047	0.000386395	0	5	0	
0.232167	0.0385695	0.0127617	0.00087163	0.000317528	0	5	0	
0.232333	-0.0351827	-0.0122602	0.000843783	0.000267	0	5	0	
0.2325	0.0356581	0.00756823	0.000816081	0.000225809	0	5	0	
0.232667	-0.0339478	-0.00252597	0.000791907	0.000192377	0	5	0	
0.232833	0.0359727	0.00475709	0.000779638	0.000154273	0	5	0	
0.233	-0.0326485	-0.00495595	0.000758328	0.000115685	0	5	0	
0.233167	0.0382962	0.0121551	0.000751667	0.000112676	0	5	0	
0.233333	-0.0382088	-0.0164214	0.000772968	0.000166041	0	5	0	
0.2335	0.0365834	0.0196852	0.00080747	0.000264596	0	5	0	
0.233667	-0.0345067	-0.018787	0.000813574	0.000334206	0	5	0	
0.233833	0.0365495	0.0146912	0.000807122	0.000362527	0	5	0	
0.234	-0.0317051	-0.011553	0.000782686	0.0003337	0	5	0	
0.234167	0.0367265	0.0262308	0.000772252	0.000353289	0	5	0	
0.234333	-0.0416597	-0.0402209	0.000823833	0.00044492	0	5	0	
0.2345	0.0481785	0.0403641	0.000953216	0.000603292	0	5	0	
0.234667	-0.0501795	-0.0239872	0.00103591	0.000710903	0	5	0	
0.234833	0.0296219	0.0110709	0.000967483	0.00071283	0	5	0	
0.235	-0.00330561	0.00181138	0.000684796	0.000532775	0	5	0	
0.235167	0.0151764	0.0225182	0.000543248	0.000576775	0	5	0	
0.235333	-0.0412328	-0.0439381	0.000733578	0.000723094	0	5	0	
0.2355	0.050106	0.0337958	0.00102762	0.000906656	0	5	0	
0.235667	-0.0436165	-0.0301793	0.00113932	0.000831047	0	5	0	
0.235833	0.0591295	0.0295109	0.00106519	0.000664183	0	5	0	
0.236	-0.0779844	0.042379	0.00106815	0.000736064	0	5	0	
0.236167	0.0328588	-0.0836012	0.00113225	0.000934131	0	5	0	
0.236333	0.00544112	0.0394716	0.000889737	0.00123612	0	5	0	
0.2365	0.0234328	0.0103354	0.000787904	0.00138006	0	5	0	
0.236667	-0.0513127	-0.00387544	0.000781447	0.00106358	0	5	0	
0.236833	0.0332847	0.0100861	0.000953049	0.000642732	0	5	0	
0.237	-0.0382551	-0.0336751	0.000959164	0.000270756	0	5	0	
0.237167	0.043497	0.0196871	0.00100316	0.000477721	0	5	0	
0.237333	-0.0458657	0.00591639	0.00106734	0.000704505	0	5	0	
0.2375	0.0406417	-0.00611982	0.00106788	0.000692507	0	5	0	
0.237667	-0.04349	0.00553659	0.000953391	0.000439413	0	5	0	
0.237833	0.0379585	-0.00334726	0.00086697	0.000187688	0	5	0	
0.238	-0.0357126	-0.00645915	0.000806416	0.000136391	0	5	0	
0.238167	0.0302768	0.00257253	0.000745706	0.000117262	0	5	0	
0.238333	-0.0354425	-0.00428145	0.000723124	0.000103943	0	5	0	
0.2385	0.0381981	0.00986128	0.000763941	0.000155532	0	5	0	
0.238667	-0.0379176	-0.0151699	0.000826188	0.000229596	0	5	0	
0.238833	0.0382604	0.0155904	0.000852983	0.00032282	0	5	0	
0.239	-0.0347218	-0.0113444	0.000825719	0.000354676	0	5	0	
0.239167	0.0308815	0.00567694	0.000783906	0.000322207	0	5	0	
0.239333	-0.031299	-0.00569658	0.000759425	0.000283128	0	5	0	
0.2395	0.0348676	0.00972793	0.000802472	0.000274568	0	5	0	
0.239667	-0.0369023	-0.00757533	0.000841994	0.000279424	0	5	0	
0.239833	0.034433	0.00378628	0.000869996	0.000272377	0	5	0	
0.24	-0.0315342	-0.00751417	0.000824285	0.000265285	0	5	0	
0.240167	0.034264	0.0114896	0.000791673	0.000281669	0	5	0	
0.240333	-0.0348597	-0.0100617	0.000776378	0.000289196	0	5	0	
0.2405	0.0308301	0.0113517	0.00079045	0.000252522	0	5	0	
0.240667	-0.0337218	-0.00838649	0.00078759	0.000213407	0	5	0	
0.240833	0.0328348	0.00636797	0.000791299	0.000179994	0	5	0	
0.241	-0.0296427	-0.0121017	0.00077053	0.00018923	0	5	0	
0.241167	0.0317118	0.00753939	0.000747246	0.000199103	0	5	0	
0.241333	-0.0367622	-0.0068082	0.000769302	0.00022194	0	5	0	
0.2415	0.0368481	0.0103942	0.000828098	0.000247987	0	5	0	
0.241667	-0.0337946	-0.00571776	0.000840903	0.000256468	0	5	0	
0.241833	0.0281461	0.000590037	0.000779055	0.000208261	0	5	0	
0.242	-0.0357062	-0.00773154	0.000740941	0.000136885	0	5	0	
0.242167	0.0344031	0.00353051	0.000752282	0.000106049	0	5	0	
0.242333	-0.0285386	0.00121605	0.000789797	0.000108065	0	5	0	
0.2425	0.0398865	0.003353	0.00083537	0.000143778	0	5	0	
0.242667	-0.0453853	0.000165786	0.000887769	0.000151614	0	5	0	
0.242833	0.0187759	-0.0139268	0.000808727	0.000213058	0	5	0	
0.243	0.012653	-0.0153773	0.000596106	0.000506271	0	5	0	
0.243167	-0.00399028	0.0905144	0.000650912	0.00110143	0	5	0	
0.243333	-0.0399427	-0.118703	0.00110889	0.00174205	0	5	0	
0.2435	0.0709393	0.0906016	0.0016836	0.0019939	0	5	0	
0.243667	-0.0691253	-0.0409812	0.0018479	0.00183773	0	5	0	
0.243833	0.036592	-0.00800434	0.00150072	0.00145544	0	5	0	
0.244	-0.000636529	0.0368235	0.000966645	0.000987869	0	5	0	
0.244167	-0.0172283	-0.0297789	0.000509973	0.00081102	0	5	0	
0.244333	0.0265341	-0.0105078	0.000420248	0.00112511	0	5	0	
0.2445	-0.00558448	0.058723	0.000776552	0.00178234	0	5	0	
0.244667	-0.0486335	-0.0901339	0.0013728	0.00215174	0	5	0	
0.244833	0.082535	0.0757115	0.00172719	0.00197539	0	5	0	
0.245	-0.0715377	-0.0138166	0.00167259	0.00157803	0	5	0	
0.245167	0.0290541	-0.0427505	0.00133233	0.00122052	0	5	0	
0.245333	0.00777162	0.025156	0.000875494	0.000985749	0	5	0	
0.2455	0.00115398	0.0128756	0.000632505	0.00102835	0	5	0	
0.245667	-0.0214521	-0.019015	0.000663905	0.000956768	0	5	0	
0.245833	0.034061	0.0269451	0.000911659	0.000908297	0	5	0	
0.246	-0.0322995	-0.0430524	0.00106676	0.000736808	0	5	0	
0.246167	0.0387702	0.0432723	0.00108667	0.000754319	0	5	0	
0.246333	-0.0424472	-0.0208012	0.0010879	0.000746963	0	5	0	
0.2465	0.0375514	0.0125488	0.00101153	0.000585696	0	5	0	
0.246667	-0.0325939	-0.0166021	0.000900956	0.000394867	0	5	0	
0.246833	0.0409298	0.0229748	0.00084962	0.000327864	0	5	0	
0.247	-0.0379176	-0.0155127	0.000883104	0.000347102	0	5	0	
0.247167	0.036808	0.0150868	0.000908608	0.000355642	0	5	0	
0.247333	-0.0357984	-0.00931068	0.000895205	0.000342133	0	5	0	
0.2475	0.0335744	0.0199499	0.000869527	0.000382412	0	5	0	
0.247667	-0.0334617	-0.0325479	0.000852856	0.000480857	0	5	0	
0.247833	0.0327333	0.0298916	0.000862344	0.000575996	0	5	0	
0.248	-0.0283838	-0.0144325	0.0008321	0.000536744	0	5	0	
0.248167	0.024526	0.0108103	0.000784426	0.000443935	0	5	0	
0.248333	-0.0261539	-0.00408832	0.000748486	0.000352274	0	5	0	
0.2485	0.0329965	0.00408944	0.000783364	0.000351312	0	5	0	
0.248667	-0.0294473	-0.00627669	0.000819469	0.000408861	0	5	0	
0.248833	0.0297736	0.0144679	0.000811327	0.00043207	0	5	0	
0.249	-0.0282997	-0.0132048	0.000785234	0.000458386	0	5	0	
0.249167	0.0315667	0.015983	0.000762111	0.000454999	0	5	0	
0.249333	-0.0291033	-0.0113084	0.000758557	0.000431908	0	5	0	
0.2495	0.0343095	0.0122498	0.000785163	0.000367313	0	5	0	
0.249667	-0.0331316	-0.0188053	0.000849157	0.000331027	0	5	0	
0.249833	0.0298494	0.0205607	0.000860183	0.000362003	0	5	0	
0.25	-0.0252424	-0.0129987	0.000823926	0.000397897	0	5	0	
0.250167	0.033359	0.0127969	0.000791088	0.000379556	0	5	0	
0.250333	-0.032916	-0.0107557	0.000824148	0.000347834	0	5	0	
0.2505	0.0298531	0.0167804	0.000844306	0.000354952	0	5	0	
0.250667	-0.0260049	-0.0156058	0.000819201	0.000403463	0	5	0	
0.250833	0.0297111	0.00986616	0.000770702	0.000405345	0	5	0	
0.251	-0.03207	-0.00825291	0.000742142	0.000342895	0	5	0	
0.251167	0.0294564	0.0152212	0.000740837	0.000284244	0	5	0	
0.251333	-0.0270573	-0.0194707	0.000748141	0.00027486	0	5	0	
0.2515	0.0296636	0.0173102	0.000785015	0.000321222	0	5	0	
0.251667	-0.035887	-0.0112991	0.000807593	0.000313838	0	5	0	
0.251833	0.0352698	0.0118078	0.000841661	0.000286065	0	5	0	
0.252	-0.0451424	-0.0102197	0.000817921	0.000223401	0	5	0	
0.252167	0.0302441	-0.00197794	0.000845051	0.000184616	0	5	0	
0.252333	-0.0279892	-0.00273722	0.00080431	0.000143674	0	5	0	
0.2525	0.0247009	-0.00126307	0.000795765	0.000205546	0	5	0	
0.252667	-0.0289544	-0.00203587	0.000741201	0.000266844	0	5	0	
0.252833	0.0314576	0.00680935	0.000789624	0.000306442	0	5	0	
0.253	-0.0388623	-0.0152151	0.000829498	0.000251068	0	5	0	
0.253167	0.0249154	0.0150945	0.000901704	0.000241123	0	5	0	
0.253333	-0.0330544	-0.0174446	0.000872375	0.000269649	0	5	0	
0.2535	0.0304029	0.00686973	0.000868306	0.000274779	0	5	0	
0.253667	-0.0288943	-0.00694895	0.0007897	0.000224336	0	5	0	
0.253833	0.0284354	0.00792681	0.000773066	0.000160809	0	5	0	
0.254	-0.0278528	-0.0235552	0.000766177	0.000176101	0	5	0	
0.254167	0.0335206	0.0324012	0.000806033	0.000352766	0	5	0	
0.254333	-0.0400812	-0.0111838	0.000835634	0.000426008	0	5	0	
0.2545	0.0286745	-0.0313096	0.00078132	0.000470036	0	5	0	
0.254667	-0.0154265	0.0482044	0.000632298	0.000529331	0	5	0	
0.254833	0.00567106	0.00436153	0.000460736	0.000883441	0	5	0	
0.255	-0.0190409	-0.0493109	0.000592136	0.00118772	0	5	0	
0.255167	0.0334985	0.0359113	0.000890687	0.00124279	0	5	0	
0.255333	-0.0254051	-0.0249824	0.00112818	0.00101495	0	5	0	
0.2555	0.028942	0.0426407	0.00117837	0.000824131	0	5	0	
0.255667	-0.063901	-0.0189726	0.00124947	0.00068675	0	5	0	
0.255833	0.0515972	-0.0271326	0.00126589	0.000785413	0	5	0	
0.256	0.00403388	0.0217628	0.00100769	0.000683544	0	5	0	
0.256167	-0.0163396	0.0397741	0.000711445	0.00105599	0	5	0	
0.256333	-0.0216224	-0.054022	0.000799527	0.00115648	0	5	0	
0.2565	0.0248693	0.00552275	0.000910484	0.0011987	0	5	0	
0.256667	0.00126435	0.00644204	0.000811148	0.000759694	0	5	0	
0.256833	0.00629976	0.00659521	0.000558511	0.000621957	0	5	0	
0.257	-0.0200827	-0.00467863	0.000547212	0.000604489	0	5	0	
0.257167	0.00925506	-0.00758558	0.000613046	0.000618923	0	5	0	
0.257333	-0.0117994	0.000747556	0.000628894	0.000583481	0	5	0	
0.2575	0.0217942	0.00489477	0.000691483	0.000642949	0	5	0	
0.257667	-0.0164725	-0.00317318	0.000826582	0.000566611	0	5	0	
0.257833	0.0210776	-0.0136224	0.000917865	0.000407415	0	5	0	
0.258	-0.0371881	0.0143271	0.000912205	0.00044031	0	5	0	
0.258167	0.0264797	0.00619951	0.000851915	0.000577865	0	5	0	
0.258333	-0.00805366	-0.0218194	0.000798282	0.000680999	0	5	0	
0.2585	0.00311733	-0.0164049	0.000874737	0.000867439	0	5	0	
0.258667	-0.0147746	0.0132746	0.000984035	0.00119448	0	5	0	
0.258833	0.0101248	-0.039075	0.00104712	0.00117095	0	5	0	
0.259	-0.0605002	0.0757641	0.00101978	0.00111258	0	5	0	
0.259167	0.0668231	-0.0742765	0.00114115	0.00106302	0	5	0	
0.259333	0.00461724	0.0275764	0.00098787	0.00128764	0	5	0	
0.2595	-0.0415741	0.0168174	0.000783952	0.00130233	0	5	0	
0.259667	0.0217776	-0.0370593	0.000528109	0.000959727	0	5	0	
0.259833	-0.00442508	1.80185E-05	0.000628138	0.000690931	0	5	0	
0.26	-0.0359796	0.0319461	0.000935962	0.00052571	0	5	0	
0.260167	0.112197	-0.0223628	0.00159871	0.000907877	0	5	0	
0.260333	-0.115891	0.00609009	0.0023731	0.00122928	0	5	0	
0.2605	0.103556	0.00977233	0.0025986	0.00134548	0	5	0	
0.260667	-0.0556086	-0.0133013	0.00217305	0.00114674	0	5	0	
0.260833	0.0215708	0.00940455	0.00135532	0.000941884	0	5	0	
0.261	0.0117178	0.0141575	0.000816227	0.000846409	0	5	0	
0.261167	-0.0121598	-0.0238044	0.000420037	0.000768138	0	5	0	
0.261333	0.0128009	0.0227975	0.000553131	0.000636445	0	5	0	
0.2615	0.0208616	-0.00152659	0.000997231	0.000549021	0	5	0	
0.261667	-0.032271	-0.015601	0.00151506	0.000537293	0	5	0	
0.261833	0.0411804	0.0107688	0.00169299	0.00068477	0	5	0	
0.262	-0.0544116	-0.0161721	0.00156174	0.00067262	0	5	0	
0.262167	0.0712367	0.0168464	0.00146295	0.00057434	0	5	0	
0.262333	-0.075213	-0.0256584	0.00137808	0.000512548	0	5	0	
0.2625	0.0573691	0.0396726	0.00140859	0.000568331	0	5	0	
0.262667	-0.0398175	-0.0310488	0.00133664	0.000638345	0	5	0	
0.262833	0.0228411	0.015326	0.00118747	0.000581838	0	5	0	
0.263	0.00229951	-0.00871304	0.000888411	0.000516227	0	5	0	
0.263167	-0.0196277	0.0100794	0.000573833	0.000639142	0	5	0	
0.263333	0.027075	-0.0443975	0.000453799	0.00109707	0	5	0	
0.2635	0.00583341	0.101326	0.000700187	0.00172014	0	5	0	
0.263667	-0.0611732	-0.102301	0.00116467	0.00197858	0	5	0	
0.263833	0.0642618	0.00726374	0.00137066	0.00204152	0	5	0	
0.264	0.00022811	0.109193	0.00122417	0.00199559	0	5	0	
0.264167	-0.0329807	-0.117258	0.000887276	0.00206642	0	5	0	
0.264333	0.0362364	0.0596054	0.000767379	0.00227299	0	5	0	
0.2645	-0.00853331	-0.0165267	0.000958262	0.0023148	0	5	0	
0.264667	-0.0554858	-0.00871514	0.00141552	0.00224913	0	5	0	
0.264833	0.0992252	0.0305342	0.00184596	0.00187217	0	5	0	
0.265	-0.0557542	-0.0694233	0.00174804	0.00135249	0	5	0	
0.265167	0.00491697	0.00894609	0.00132483	0.00119981	0	5	0	
0.265333	0.00143375	0.0553616	0.000675341	0.00105071	0	5	0	
0.2655	-0.00948618	-0.0325569	0.000355332	0.0010933	0	5	0	
0.265667	0.0383395	-0.0230439	0.000240545	0.00117912	0	5	0	
0.265833	-0.00147705	0.0251958	0.000747747	0.00106172	0	5	0	
0.266	-0.0830251	-0.0191519	0.00145124	0.00102656	0	5	0	
0.266167	0.0719937	-0.0163483	0.00178995	0.000640972	0	5	0	
0.266333	0.00484588	0.00652808	0.00156102	0.000547118	0	5	0	
0.2665	-0.00566804	0.00998663	0.000936472	0.000416083	0	5	0	
0.266667	-0.0327053	0.00331831	0.000886262	0.000329446	0	5	0	
0.266833	0.0282849	-0.0269441	0.000821517	0.000327736	0	5	0	
0.267	-0.0131789	0.0105078	0.000832041	0.000365229	0	5	0	
0.267167	0.0116222	0.00256628	0.000613603	0.000410846	0	5	0	
0.267333	-0.016868	-0.00722906	0.000624025	0.000420149	0	5	0	
0.2675	0.0395982	0.0259782	0.000765185	0.000400536	0	5	0	
0.267667	-0.039249	-0.025783	0.000862041	0.000468066	0	5	0	
0.267833	0.0256669	-0.044846	0.00080353	0.00079488	0	5	0	
0.268	-0.0133025	0.0950886	0.000718545	0.00143918	0	5	0	
0.268167	0.024593	-0.106602	0.000714102	0.00188821	0	5	0	
0.268333	-0.0348707	0.0557415	0.000753878	0.00194317	0	5	0	
0.2685	0.0309354	-0.01757	0.000745867	0.0013915	0	5	0	
0.268667	-0.0131261	0.00851188	0.000612161	0.000872065	0	5	0	
0.268833	0.0124935	0.0238506	0.000543891	0.000517245	0	5	0	
0.269	-0.0133705	-0.0564514	0.000590535	0.000540204	0	5	0	
0.269167	0.0249599	0.0228863	0.000659752	0.00106157	0	5	0	
0.269333	-0.0299752	0.0130066	0.000712089	0.00150614	0	5	0	
0.2695	0.0289396	-0.0154434	0.000702399	0.00158987	0	5	0	
0.269667	-0.0266752	0.0104221	0.000705703	0.00114236	0	5	0	
0.269833	0.0249478	0.00178061	0.000707978	0.000651434	0	5	0	
0.27	-0.025103	-0.00135672	0.000706576	0.000496565	0	5	0	
0.270167	0.0259974	-0.01667	0.000718985	0.000541953	0	5	0	
0.270333	-0.0260207	0.0169017	0.000781116	0.000512273	0	5	0	
0.2705	0.0283183	-0.00586094	0.000819457	0.000431681	0	5	0	
0.270667	-0.0259817	-0.00393308	0.000799724	0.000275605	0	5	0	
0.270833	0.0213776	0.000769284	0.000711726	0.000195306	0	5	0	
0.271	-0.0255502	-0.00313723	0.000673517	0.000153205	0	5	0	
0.271167	0.0178078	0.0018594	0.000694823	0.000186609	0	5	0	
0.271333	-0.0150085	-0.00572156	0.000696651	0.000261272	0	5	0	
0.2715	0.0132211	0.00929765	0.000636155	0.000244899	0	5	0	
0.271667	-0.016019	-0.0167055	0.000602751	0.000280064	0	5	0	
0.271833	0.0217007	-0.00469591	0.000679261	0.00028917	0	5	0	
0.272	-0.0316499	0.00809813	0.000803807	0.000297941	0	5	0	
0.272167	0.0251888	-0.0128271	0.00086094	0.000251304	0	5	0	
0.272333	-0.0257657	-0.00110135	0.00084886	0.000258122	0	5	0	
0.2725	0.0336576	0.0179757	0.000812781	0.000317837	0	5	0	
0.272667	-0.0280776	-0.0248606	0.000799663	0.000374725	0	5	0	
0.272833	0.0188422	0.0147778	0.000746478	0.000384314	0	5	0	
0.273	-0.0204234	-0.0151228	0.000711875	0.00035163	0	5	0	
0.273167	0.0198445	0.00415377	0.000699187	0.000285293	0	5	0	
0.273333	-0.0153996	-0.000760101	0.000741893	0.000217508	0	5	0	
0.2735	0.0233328	0.00321151	0.000801086	0.000147628	0	5	0	
0.273667	-0.0321258	-0.00238248	0.000892003	0.000117918	0	5	0	
0.273833	0.0366808	0.0136108	0.000950199	0.000139744	0	5	0	
0.274	-0.0292753	-0.02153	0.000935065	0.000266724	0	5	0	
0.274167	0.0226554	0.0324803	0.000838854	0.000396257	0	5	0	
0.274333	-0.0201286	-0.0653326	0.000784718	0.000707671	0	5	0	
0.2745	0.0211162	0.0140968	0.000782883	0.000958393	0	5	0	
0.274667	-0.0276837	-0.0102593	0.000830393	0.000958273	0	5	0	
0.274833	0.0366741	-0.000924911	0.000866054	0.000654558	0	5	0	
0.275	-0.0340155	0.0179922	0.000884562	0.000353061	0	5	0	
0.275167	0.038992	-0.0191276	0.000890415	0.000312862	0	5	0	
0.275333	-0.0546222	0.00658086	0.000917296	0.000294115	0	5	0	
0.2755	0.0567855	-0.050007	0.000976705	0.000469235	0	5	0	
0.275667	-0.042443	0.0350472	0.00100874	0.000792244	0	5	0	
0.275833	0.0522239	-0.0317759	0.00101309	0.00113808	0	5	0	
0.276	-0.0476806	0.0188676	0.00102914	0.00130681	0	5	0	
0.276167	0.0263393	-0.000289808	0.000978187	0.00122727	0	5	0	
0.276333	-0.0274823	-0.0295894	0.00105482	0.00108515	0	5	0	
0.2765	0.0807888	0.0485242	0.00139648	0.00108997	0	5	0	
0.276667	-0.0706724	-0.0273911	0.00177753	0.00121955	0	5	0	
0.276833	0.0338151	0.0460832	0.00172566	0.00125506	0	5	0	
0.277	0.0147124	-0.0869252	0.00129262	0.00126458	0	5	0	
0.277167	0.0419815	0.0518858	0.000912091	0.00121378	0	5	0	
0.277333	-0.0148692	-0.0270609	0.000867249	0.00118691	0	5	0	
0.2775	0.0192816	0.0487409	0.000896967	0.00100465	0	5	0	
0.277667	-0.0238811	-0.0542983	0.00107301	0.000872702	0	5	0	
0.277833	0.041294	0.0261994	0.00114278	0.000844647	0	5	0	
0.278	-0.0156749	-0.0175377	0.00106237	0.000713874	0	5	0	
0.278167	0.0473201	0.0150803	0.000914596	0.000502031	0	5	0	
0.278333	-0.0114061	-0.0172783	0.000754676	0.00033919	0	5	0	
0.2785	0.0180838	0.00194606	0.00075621	0.000295367	0	5	0	
0.278667	-0.0183989	0.020463	0.000711609	0.000280309	0	5	0	
0.278833	0.019491	-0.0273323	0.000684744	0.000354581	0	5	0	
0.279	-0.0124793	0.00809868	0.000669771	0.000455548	0	5	0	
0.279167	0.0156196	0.016304	0.000699735	0.000645541	0	5	0	
0.279333	-0.0283365	-0.0172873	0.000840347	0.000727681	0	5	0	
0.2795	0.0311462	0.00795169	0.000957188	0.000733411	0	5	0	
0.279667	-0.0319655	-0.00507289	0.000944778	0.000576448	0	5	0	
0.279833	0.0266007	0.0116058	0.000849683	0.000395689	0	5	0	
0.28	-0.0132372	-0.0182556	0.000734274	0.00032187	0	5	0	
0.280167	0.00573565	0.0256261	0.00066906	0.000374588	0	5	0	
0.280333	-0.00948665	-0.0172043	0.000719086	0.000469007	0	5	0	
0.2805	0.0209392	0.0101734	0.000846903	0.000469708	0	5	0	
0.280667	-0.0282631	-0.00447482	0.000935908	0.000442753	0	5	0	
0.280833	0.0341419	-0.000962323	0.000893265	0.000448727	0	5	0	
0.281	-0.0280932	0.00132232	0.000804573	0.000485861	0	5	0	
0.281167	0.0199693	0.00781956	0.000736983	0.000462243	0	5	0	
0.281333	-0.0120015	4.61042E-05	0.000701415	0.000391029	0	5	0	
0.2815	0.0110732	-0.00315807	0.00066974	0.000335564	0	5	0	
0.281667	-0.0255707	0.00338996	0.00072244	0.000354828	0	5	0	
0.281833	0.0387505	0.000833878	0.000865839	0.000376776	0	5	0	
0.282	-0.0328637	-0.00735176	0.00100787	0.000330984	0	5	0	
0.282167	0.0171481	0.0138343	0.000986474	0.000231179	0	5	0	
0.282333	-0.0158734	-0.00853046	0.00084395	0.000210275	0	5	0	
0.2825	0.0142655	0.000270197	0.00072783	0.000213458	0	5	0	
0.282667	-0.0135649	-0.00229518	0.000733346	0.000275878	0	5	0	
0.282833	0.0110768	0.0102304	0.000814556	0.00033372	0	5	0	
0.283	-0.019976	-0.0161817	0.000870518	0.000444018	0	5	0	
0.283167	0.0247608	0.0142659	0.000883782	0.000448486	0	5	0	
0.283333	-0.0301359	-0.00688465	0.000835929	0.000370716	0	5	0	
0.2835	0.0170138	-0.010174	0.000737896	0.000318632	0	5	0	
0.283667	0.000753636	0.0166258	0.000634268	0.000288248	0	5	0	
0.283833	0.000626038	-0.00588675	0.00066658	0.000322627	0	5	0	
0.284	-0.0310839	-0.0115936	0.000892421	0.000354306	0	5	0	
0.284167	0.0681034	0.0226681	0.00121247	0.00038822	0	5	0	
0.284333	-0.0808313	0.00213119	0.0014292	0.000684198	0	5	0	
0.2845	0.0618759	-0.0532508	0.00141674	0.00101944	0	5	0	
0.284667	-0.0258674	0.0640366	0.00121849	0.00132761	0	5	0	
0.284833	-0.00238876	-0.0520703	0.000776526	0.00126028	0	5	0	
0.285	0.0134085	0.0189046	0.000514402	0.00107185	0	5	0	
0.285167	0.0054614	0.0393555	0.00070168	0.00099103	0	5	0	
0.285333	-0.0517951	-0.0851744	0.00144329	0.00105305	0	5	0	
0.2855	0.0854315	0.0717665	0.0020927	0.00126361	0	5	0	
0.285667	-0.0740905	-0.0174628	0.00219747	0.00166792	0	5	0	
0.285833	0.0362065	-0.0357939	0.00173012	0.00191442	0	5	0	
0.286	-0.00340092	0.0421422	0.00108273	0.00172653	0	5	0	
0.286167	-0.00858403	-0.0280464	0.000674631	0.0011661	0	5	0	
0.286333	0.00614172	0.00772774	0.000675024	0.000732673	0	5	0	
0.2865	0.00584082	0.0174027	0.000949492	0.000660231	0	5	0	
0.286667	-0.0231244	-0.0215732	0.00118293	0.000633142	0	5	0	
0.286833	0.023729	0.00960225	0.00119529	0.000503698	0	5	0	
0.287	-0.0213321	0.00344129	0.0010297	0.000321323	0	5	0	
0.287167	0.0169356	-0.0152947	0.000856311	0.000225308	0	5	0	
0.287333	-0.0184318	0.0124435	0.000751627	0.000225722	0	5	0	
0.2875	0.0205724	0.00163918	0.000749547	0.000228083	0	5	0	
0.287667	-0.0255895	-0.00428583	0.000796645	0.000185852	0	5	0	
0.287833	0.0254245	-0.00441433	0.000830468	0.000115119	0	5	0	
0.288	-0.0162044	0.00439187	0.000777585	0.000104313	0	5	0	
0.288167	0.0120824	-0.00170342	0.000720438	0.000153071	0	5	0	
0.288333	-0.021551	0.0044712	0.000744982	0.000174235	0	5	0	
0.2885	0.0178763	-0.0037962	0.000808408	0.000168342	0	5	0	
0.288667	-0.00674347	0.00122714	0.000793473	0.000190706	0	5	0	
0.288833	0.0101374	-0.00177696	0.000752535	0.00023154	0	5	0	
0.289	-0.0141539	-0.000722824	0.000778289	0.000238586	0	5	0	
0.289167	0.0158931	0.00726744	0.000846888	0.000201765	0	5	0	
0.289333	-0.0156675	-0.00808038	0.000873571	0.000169013	0	5	0	
0.2895	0.0113887	0.0101031	0.000882269	0.000170047	0	5	0	
0.289667	-0.0181309	-0.0158441	0.000921076	0.000231411	0	5	0	
0.289833	0.027617	0.015265	0.000945059	0.000304975	0	5	0	
0.29	-0.0255904	-0.00904856	0.000923104	0.00032372	0	5	0	
0.290167	0.0242284	0.00318963	0.000863792	0.000287812	0	5	0	
0.290333	-0.0177909	-0.00460243	0.000801082	0.000350278	0	5	0	
0.2905	0.00441747	0.0107969	0.000720837	0.000494257	0	5	0	
0.290667	-0.00375135	-0.00698305	0.000695849	0.000618829	0	5	0	
0.290833	0.0179345	0.0142786	0.000767583	0.000656519	0	5	0	
0.291	-0.0187259	-0.0104913	0.000874891	0.000635444	0	5	0	
0.291167	0.0174583	0.0340733	0.000944049	0.000553702	0	5	0	
0.291333	-0.0217203	-0.0110811	0.000974991	0.0005271	0	5	0	
0.2915	0.0233133	-0.000345348	0.000958543	0.000398589	0	5	0	
0.291667	-0.0118456	-0.00193554	0.000857212	0.000393885	0	5	0	
0.291833	0.00875012	0.00376521	0.00073087	0.00035223	0	5	0	
0.292	-0.0114766	0.00289375	0.000704928	0.000424917	0	5	0	
0.292167	0.0115979	0.0211361	0.000773274	0.000401779	0	5	0	
0.292333	-0.0137247	-0.00538165	0.000832591	0.000427	0	5	0	
0.2925	0.0118073	-0.00089679	0.000836897	0.000420257	0	5	0	
0.292667	-0.0167256	1.09011E-05	0.000822987	0.000472354	0	5	0	
0.292833	0.0151246	-0.00112557	0.000822321	0.000462425	0	5	0	
0.293	-0.0174409	-0.0109127	0.000797895	0.00050096	0	5	0	
0.293167	0.0139979	0.0161112	0.00078861	0.00051022	0	5	0	
0.293333	-0.0196349	-0.0177745	0.000810882	0.000482392	0	5	0	
0.2935	0.019226	0.0151728	0.000855827	0.000429217	0	5	0	
0.293667	-0.0180181	-0.00456289	0.000831248	0.000349562	0	5	0	
0.293833	0.0135327	-0.00532533	0.000777779	0.000241238	0	5	0	
0.294	-0.0157943	-0.0090125	0.000804005	0.000222464	0	5	0	
0.294167	0.0127733	0.0377905	0.00100911	0.000362877	0	5	0	
0.294333	-0.0198568	-0.0480478	0.00128274	0.000604248	0	5	0	
0.2945	0.0292822	0.0559072	0.00147271	0.000807677	0	5	0	
0.294667	-0.0337586	-0.0598552	0.00152419	0.000972794	0	5	0	
0.294833	0.0453019	0.0421868	0.00147298	0.00107815	0	5	0	
0.295	-0.0308198	0.00148608	0.00128201	0.00117859	0	5	0	
0.295167	-0.0211815	-0.0327274	0.000868151	0.000971754	0	5	0	
0.295333	0.0529553	-0.0111023	0.000657365	0.001042	0	5	0	
0.2955	-0.0242723	0.088875	0.000916684	0.00128888	0	5	0	
0.295667	-0.0150342	-0.0794123	0.00153675	0.00165707	0	5	0	
0.295833	0.0192638	0.0341696	0.00169363	0.00155738	0	5	0	
0.296	-0.0117449	-0.0363263	0.0014224	0.00111103	0	5	0	
0.296167	0.0310388	0.0314179	0.00112421	0.000785012	0	5	0	
0.296333	-0.0285719	0.0037323	0.00100084	0.00059598	0	5	0	
0.2965	-0.0159972	-0.00209302	0.000822668	0.000543514	0	5	0	
0.296667	0.0244192	-0.0397483	0.000711579	0.000798894	0	5	0	
0.296833	0.0135034	0.0537888	0.000964822	0.00100407	0	5	0	
0.297	-0.0373901	-0.0310413	0.00130621	0.00109091	0	5	0	
0.297167	0.0233242	0.0151105	0.00130475	0.000756784	0	5	0	
0.297333	-0.00685556	-0.00385313	0.000919706	0.000467758	0	5	0	
0.2975	-0.0023271	-0.00419053	0.00063842	0.00031146	0	5	0	
0.297667	-0.00120354	-0.00642471	0.000613928	0.000314999	0	5	0	
0.297833	0.00687909	0.00558395	0.000735854	0.000308658	0	5	0	
0.298	-0.00815476	0.00533117	0.000832069	0.000238294	0	5	0	
0.298167	0.0096757	-0.00159343	0.000880346	0.000165505	0	5	0	
0.298333	-0.0142667	-0.000606757	0.000908027	0.000242028	0	5	0	
0.2985	0.0128304	0.0031466	0.000883333	0.00037642	0	5	0	
0.298667	-0.0086182	-0.0131379	0.000801556	0.000425845	0	5	0	
0.298833	0.00779693	0.00813296	0.000735356	0.000365544	0	5	0	
0.299	-0.00561288	-0.00161683	0.000729059	0.000262761	0	5	0	
0.299167	0.00591681	0.0049853	0.00075979	0.000222731	0	5	0	
0.299333	-0.00685956	-0.00277685	0.000802141	0.000211804	0	5	0	
0.2995	0.0110435	0.00209734	0.000838588	0.000202738	0	5	0	
0.299667	-0.00975499	-0.00323891	0.000844019	0.000190021	0	5	0	
0.299833	0.00860174	0.00439251	0.000810227	0.000184954	0	5	0	
0.3	-0.0061789	-0.00247957	0.000773533	0.000189219	0	5	0	
0.300167	0.00728678	0.0036954	0.000768579	0.000176943	0	5	0	
0.300333	-0.00641046	-0.00420101	0.00079072	0.000156127	0	5	0	
0.3005	0.00931689	0.00748159	0.000815567	0.000156414	0	5	0	
0.300667	-0.00938365	-0.00953642	0.000841121	0.00018755	0	5	0	
0.300833	0.0111523	0.0111791	0.000829039	0.000195866	0	5	0	
0.301	-0.000972065	0.00165472	0.000777432	0.000221653	0	5	0	
0.301167	0.0104875	-0.0122689	0.000725545	0.000164522	0	5	0	
0.301333	-0.0133188	0.0185297	0.000700311	0.000310346	0	5	0	
0.3015	0.00734961	0.0065585	0.000648554	0.000338895	0	5	0	
0.301667	0.00349849	0.00273934	0.000589412	0.000344572	0	5	0	
0.301833	0.00568235	0.00114558	0.000630817	0.00017924	0	5	0	
0.302	-0.0180789	-0.0166085	0.000769125	0.000217397	0	5	0	
0.302167	0.0246751	0.0156421	0.000855006	0.000401174	0	5	0	
0.302333	-0.0264144	0.00442569	0.000869716	0.000442315	0	5	0	
0.3025	0.0235958	0.011729	0.000873028	0.000440454	0	5	0	
0.302667	-0.0144525	-0.006249	0.000875267	0.000306989	0	5	0	
0.302833	0.00660613	0.0170868	0.000795036	0.000315427	0	5	0	
0.303	-0.00598506	-0.0103184	0.000741108	0.000293329	0	5	0	
0.303167	0.00985308	-0.0145727	0.000809228	0.000280033	0	5	0	
0.303333	-0.0158053	0.0163128	0.00094451	0.000347589	0	5	0	
0.3035	0.00769637	0.0120124	0.00100068	0.000439867	0	5	0	
0.303667	-0.0090239	-0.0239483	0.000953595	0.000542837	0	5	0	
0.303833	0.0161977	0.0109477	0.000873521	0.000484282	0	5	0	
0.304	-0.00747306	0.0013324	0.000784252	0.000342992	0	5	0	
0.304167	-0.00156267	-0.00290655	0.000708284	0.000303866	0	5	0	
0.304333	0.000602533	0.00542643	0.000720923	0.000348804	0	5	0	
0.3045	0.0127372	-0.00559729	0.000817053	0.000408227	0	5	0	
0.304667	-0.0301665	-0.00342585	0.000930149	0.000379031	0	5	0	
0.304833	0.0364989	-0.00818283	0.000938438	0.000306115	0	5	0	
0.305	-0.0144379	0.0621524	0.000761324	0.00042377	0	5	0	
0.305167	-0.0306762	-0.0878366	0.000630692	0.00076858	0	5	0	
0.305333	0.0475101	0.0616102	0.000561214	0.00127384	0	5	0	
0.3055	-0.0367461	-0.026789	0.000763042	0.00148263	0	5	0	
0.305667	0.0176145	0.0136731	0.00100422	0.00136699	0	5	0	
0.305833	-0.0059185	0.0281283	0.00135461	0.0011474	0	5	0	
0.306	-0.0475431	-0.0561474	0.00175541	0.000991849	0	5	0	
0.306167	0.084065	0.046689	0.00201467	0.00105996	0	5	0	
0.306333	-0.0682016	0.0185356	0.00190997	0.0015064	0	5	0	
0.3065	0.0184926	-0.066717	0.00144242	0.00192701	0	5	0	
0.306667	0.00234574	0.0668375	0.000866071	0.00198944	0	5	0	
0.306833	-0.0203847	-0.0506597	0.000482099	0.00152804	0	5	0	
0.307	0.0295732	0.0531698	0.000324155	0.00112829	0	5	0	
0.307167	-0.0427805	-0.0255122	0.000474293	0.000958106	0	5	0	
0.307333	0.0278685	-0.0177506	0.000841141	0.000951444	0	5	0	
0.3075	0.00583877	0.0352398	0.00124521	0.000819375	0	5	0	
0.307667	-0.0209549	-0.0234272	0.00141765	0.000689787	0	5	0	
0.307833	0.0138997	0.00886627	0.00129662	0.000487662	0	5	0	
0.308	-0.0173749	-0.000550477	0.00103286	0.000377345	0	5	0	
0.308167	0.0125157	-0.00128886	0.000849975	0.000268118	0	5	0	
0.308333	-0.0059634	-0.00870687	0.000762573	0.000185555	0	5	0	
0.3085	0.00150191	0.00705428	0.000725333	0.000165177	0	5	0	
0.308667	0.00109648	0.00980311	0.000706228	0.000136066	0	5	0	
0.308833	0.00359105	-0.00994904	0.000727137	0.0002017	0	5	0	
0.309	-0.00574709	0.00308986	0.000767742	0.000297274	0	5	0	
0.309167	0.00143788	-0.000756249	0.000797287	0.000360814	0	5	0	
0.309333	-0.00480571	-0.00127253	0.000812822	0.00030856	0	5	0	
0.3095	0.00620322	0.0017712	0.000805677	0.000202635	0	5	0	
0.309667	-0.00161068	0.00176446	0.00076359	0.000146819	0	5	0	
0.309833	-0.00048147	-0.00767336	0.000727852	0.000142654	0	5	0	
0.31	0.00403268	0.0170911	0.00076075	0.000201068	0	5	0	
0.310167	0.00171662	-0.0123433	0.000838518	0.000300189	0	5	0	
0.310333	-0.00368702	0.00396537	0.000875316	0.000402887	0	5	0	
0.3105	0.00199224	-0.00186877	0.00084746	0.000419067	0	5	0	
0.310667	0.00061345	0.00901777	0.000812131	0.000407455	0	5	0	
0.310833	0.00144386	-0.00596858	0.00079176	0.00039971	0	5	0	
0.311	0.000950057	0.00813616	0.000768228	0.000387682	0	5	0	
0.311167	0.0043298	-0.00438515	0.000757939	0.000314042	0	5	0	
0.311333	-0.00279229	0.00275191	0.000780089	0.000240208	0	5	0	
0.3115	6.17619E-05	-0.00241055	0.000791119	0.000227752	0	5	0	
0.311667	0.00770633	0.00260437	0.000774052	0.000263075	0	5	0	
0.311833	-0.00194926	0.00426992	0.000777033	0.000248883	0	5	0	
0.312	-0.00756174	-0.00184507	0.000842569	0.000184011	0	5	0	
0.312167	0.0115819	0.00270158	0.000904199	0.000148419	0	5	0	
0.312333	-0.00594455	-0.00515268	0.000886733	0.000216393	0	5	0	
0.3125	0.00224761	0.00275472	0.00079468	0.00032192	0	5	0	
0.312667	-0.00106524	-4.18237E-05	0.00070507	0.000378882	0	5	0	
0.312833	-0.0044083	0.00301842	0.000653708	0.000373759	0	5	0	
0.313	0.00501971	-0.0126702	0.000666215	0.00036712	0	5	0	
0.313167	-0.0058475	0.00943423	0.000750051	0.000383864	0	5	0	
0.313333	0.000784979	-0.00545342	0.000855843	0.000376533	0	5	0	
0.3135	0.00227926	-0.00231315	0.000891755	0.000349242	0	5	0	
0.313667	-0.000183731	0.00759916	0.000849118	0.000317703	0	5	0	
0.313833	0.00272532	-0.00270042	0.000826707	0.000280629	0	5	0	
0.314	-0.00546689	-0.000785876	0.000834774	0.000256439	0	5	0	
0.314167	-0.000689819	-0.00766767	0.0007936	0.00025701	0	5	0	
0.314333	0.00129289	0.00505726	0.000714003	0.00030729	0	5	0	
0.3145	0.001277	0.00218748	0.000677507	0.000377	0	5	0	
0.314667	0.00792957	-0.00313127	0.000698151	0.00037622	0	5	0	
0.314833	-0.00646904	0.000188594	0.000754389	0.000276601	0	5	0	
0.315	-0.00256599	0.00181329	0.000847491	0.000168845	0	5	0	
0.315167	0.00868636	0.00690491	0.000900371	0.00014618	0	5	0	
0.315333	0.00461794	-0.012539	0.000833216	0.000183383	0	5	0	
0.3155	-0.00578669	0.00256949	0.000734678	0.000189501	0	5	0	
0.315667	0.00176824	0.0217382	0.000683828	0.000215443	0	5	0	
0.315833	-0.0170012	-0.0389502	0.000592306	0.000327358	0	5	0	
0.316	0.0315202	0.0235986	0.000541515	0.000562143	0	5	0	
0.316167	-0.0132882	0.0310849	0.000753839	0.000910142	0	5	0	
0.316333	-0.0168347	-0.0482864	0.00123019	0.00111718	0	5	0	
0.3165	0.0316983	0.0457216	0.0014854	0.00109892	0	5	0	
0.316667	-0.031123	-0.0315024	0.0013898	0.000912273	0	5	0	
0.316833	0.0333769	-0.0031496	0.00108498	0.000897507	0	5	0	
0.317	-0.0179811	0.0363293	0.000886129	0.00105772	0	5	0	
0.317167	-0.0123578	-0.024815	0.000760631	0.00101182	0	5	0	
0.317333	0.0218604	-0.0101479	0.000845168	0.000869627	0	5	0	
0.3175	-0.00485037	0.0696625	0.00113507	0.000787745	0	5	0	
0.317667	-0.0206782	-0.0770108	0.00152177	0.00101437	0	5	0	
0.317833	0.0266841	0.0379436	0.00157088	0.00125174	0	5	0	
0.318	0.0123774	-7.84813E-05	0.00121083	0.00121167	0	5	0	
0.318167	-0.0408237	0.0123595	0.000873651	0.000858954	0	5	0	
0.318333	0.0281631	-0.0186636	0.000890707	0.000565101	0	5	0	
0.3185	-0.0131663	0.00409401	0.00118341	0.000461529	0	5	0	
0.318667	0.00516855	-0.0180248	0.00136703	0.000758779	0	5	0	
0.318833	0.00800719	0.0459848	0.0013971	0.00098586	0	5	0	
0.319	-0.00887804	-0.0204104	0.00126689	0.00102796	0	5	0	
0.319167	-0.00142469	0.000756885	0.00102245	0.000726992	0	5	0	
0.319333	0.0045981	-0.00559515	0.000801419	0.000473327	0	5	0	
0.3195	-0.00516379	0.0201817	0.000739287	0.000447296	0	5	0	
0.319667	0.00355582	-0.0229918	0.000818581	0.00054358	0	5	0	
0.319833	-0.00273082	0.0206527	0.000905441	0.000536126	0	5	0	
0.32	-0.00175947	-0.000222425	0.000878349	0.000401562	0	5	0	
0.320167	-0.0120587	-0.00485662	0.000753956	0.000287375	0	5	0	
0.320333	0.013669	0.00779762	0.000687457	0.000221327	0	5	0	
0.3205	-0.00174195	-0.0186946	0.00078508	0.000235497	0	5	0	
0.320667	-0.00797197	0.024856	0.000900283	0.000354401	0	5	0	
0.320833	-0.00285059	-0.0074005	0.000878444	0.000484084	0	5	0	
0.321	-0.00525244	0.00367551	0.000772687	0.000577246	0	5	0	
0.321167	3.91135E-05	-0.00400835	0.000723524	0.000586121	0	5	0	
0.321333	0.00769446	0.00202414	0.000728744	0.00057391	0	5	0	
0.3215	-0.00819259	0.00420048	0.000728983	0.000573392	0	5	0	
0.321667	0.00447593	-0.00615064	0.000709312	0.000616924	0	5	0	
0.321833	-0.00473607	0.01097	0.000710226	0.000650973	0	5	0	
0.322	-0.00385415	-0.0109753	0.000757266	0.000600766	0	5	0	
0.322167	0.00377706	0.0170879	0.00082584	0.000464976	0	5	0	
0.322333	0.00666617	-0.00127025	0.000815963	0.000304591	0	5	0	
0.3225	-0.000433351	-0.0152995	0.000722948	0.000219874	0	5	0	
0.322667	0.00434499	0.0295625	0.000639689	0.000271739	0	5	0	
0.322833	-0.0072868	-0.0173447	0.000613877	0.000359877	0	5	0	
0.323	0.0141694	0.0132394	0.000665107	0.000430696	0	5	0	
0.323167	-0.0103879	0.00632225	0.000765355	0.000418667	0	5	0	
0.323333	0.00455626	-0.00396044	0.000877363	0.000465459	0	5	0	
0.3235	0.00486382	0.00266279	0.000916579	0.000480891	0	5	0	
0.323667	0.00260965	-0.00562989	0.000874962	0.00043575	0	5	0	
0.323833	0.00153773	0.0122787	0.000792277	0.000325574	0	5	0	
0.324	0.00147957	-0.00850706	0.000702081	0.000263653	0	5	0	
0.324167	-0.0102096	0.00479302	0.00061035	0.000214554	0	5	0	
0.324333	0.0166843	0.00789735	0.000597456	0.00017322	0	5	0	
0.3245	-0.0127259	-0.0107687	0.000698768	0.000146621	0	5	0	
0.324667	0.0104244	0.00745856	0.00081908	0.000211841	0	5	0	
0.324833	-0.0122908	-0.00832454	0.000843619	0.000293756	0	5	0	
0.325	0.00449134	-0.000303705	0.000831482	0.000401339	0	5	0	
0.325167	-0.000578709	0.0151311	0.000840308	0.000459119	0	5	0	
0.325333	0.00506393	-0.0116553	0.000805723	0.000425059	0	5	0	
0.3255	-0.0125959	-0.000827015	0.000733924	0.000299894	0	5	0	
0.325667	0.0103336	0.00227489	0.000715122	0.000142958	0	5	0	
0.325833	-0.00802215	-0.00919621	0.000771477	7.98461E-05	0	5	0	
0.326	0.00644036	0.0264087	0.000788858	0.000155757	0	5	0	
0.326167	-0.00877133	-0.0276609	0.000754702	0.000310776	0	5	0	
0.326333	0.00711828	0.0138722	0.000733127	0.000438896	0	5	0	
0.3265	-0.0108464	0.00246588	0.000761238	0.000438273	0	5	0	
0.326667	0.0115615	-0.0121238	0.00081123	0.000348643	0	5	0	
