0	0.00153919	-0.0028937	1.53919E-07	2.8937E-07	0	0	0	
0.000166667	-0.0133896	0.00911459	5.50957E-05	3.37662E-05	0	0	0	
0.000333333	0.0186577	-0.0105117	0.000165005	0.000108396	0	0	0	
0.0005	-0.0178664	0.0087173	0.000278964	0.000168873	0	0	0	
0.000666667	0.00747363	-0.00696236	0.000308841	0.000185818	0	0	0	
0.000833333	-0.00592087	0.00912051	0.000245714	0.000167115	0	0	0	
0.001	0.00827919	-0.0113744	0.000192599	0.000169556	0	0	0	
0.00116667	-0.0130286	0.0140539	0.000219503	0.000211836	0	0	0	
0.00133333	0.0174329	-0.0161936	0.000333713	0.000261356	0	0	0	
0.0015	-0.0224482	0.0160187	0.000430438	0.000284074	0	0	0	
0.00166667	0.0159822	-0.00759956	0.000470601	0.000288453	0	0	0	
0.00183333	-0.0152621	0.0072317	0.000400273	0.000216591	0	0	0	
0.002	0.00492773	-0.00857291	0.000331103	0.000198496	0	0	0	
0.00216667	-0.0061013	0.0106018	0.000271247	0.000205042	0	0	0	
0.00233333	0.0101983	-0.0160541	0.000313092	0.000281045	0	0	0	
0.0025	-0.0132925	0.0143568	0.000377403	0.000339556	0	0	0	
0.00266667	0.0202841	-0.0114997	0.000445906	0.000309806	0	0	0	
0.00283333	-0.0231333	0.0155865	0.000475643	0.000289658	0	0	0	
0.003	0.0121805	-0.0136221	0.00046441	0.000268118	0	0	0	
0.00316667	-0.01407	0.0103755	0.000402671	0.000287661	0	0	0	
0.00333333	0.015131	-0.00829623	0.000369482	0.000255534	0	0	0	
0.0035	-0.0144379	0.00855273	0.000353096	0.000242074	0	0	0	
0.00366667	0.0146097	-0.0176227	0.000342275	0.000218362	0	0	0	
0.00383333	-0.00912482	0.0216198	0.000331976	0.000317939	0	0	0	
0.004	0.0151329	-0.0184702	0.000348316	0.000335626	0	0	0	
0.00416667	-0.0203271	0.0156496	0.000429731	0.000387353	0	0	0	
0.00433333	0.0201447	-0.00957789	0.000482105	0.000298396	0	0	0	
0.0045	-0.0167656	0.00800921	0.000497301	0.000259065	0	0	0	
0.00466667	0.0198568	-0.00705121	0.000461013	0.000175586	0	0	0	
0.00483333	-0.0145562	0.00934475	0.00043976	0.000178469	0	0	0	
0.005	0.0195103	-0.0198287	0.000399051	0.000205075	0	0	0	
0.00516667	-0.0108557	0.017414	0.000402815	0.000315224	0	0	0	
0.00533333	0.00891888	-0.0136232	0.000346161	0.000334014	0	0	0	
0.0055	-0.00851239	0.0194769	0.000319144	0.000347357	0	0	0	
0.00566667	0.0129923	-0.0180422	0.000281495	0.000315351	0	0	0	
0.00583333	-0.0168491	0.0174577	0.0003326	0.000348453	0	0	0	
0.006	0.0241914	-0.0189544	0.000438861	0.000367013	0	0	0	
0.00616667	-0.0240278	0.0129096	0.00055534	0.000348602	0	0	0	
0.00633333	0.0255168	-0.0103169	0.000581553	0.00028576	0	0	0	
0.0065	-0.0226584	0.0173403	0.000541112	0.000259769	0	0	0	
0.00666667	0.0140398	-0.0143285	0.000447315	0.00027536	0	0	0	
0.00683333	-0.00482987	0.0136856	0.000351615	0.000308341	0	0	0	
0.007	0.00267588	-0.0135866	0.000312817	0.000297467	0	0	0	
0.00716667	-0.011553	0.011987	0.000391055	0.000257613	0	0	0	
0.00733333	0.0285419	-0.0178107	0.000523832	0.000259533	0	0	0	
0.0075	-0.0246075	0.0166752	0.000611824	0.000283239	0	0	0	
0.00766667	0.0233768	-0.013908	0.000576704	0.000321452	0	0	0	
0.00783333	-0.0223206	0.0117402	0.000533809	0.000304693	0	0	0	
0.008	0.0194856	-0.0160592	0.000473162	0.000288345	0	0	0	
0.00816667	-0.00939758	0.0158716	0.000419058	0.000286596	0	0	0	
0.00833333	0.0145063	-0.0167363	0.00039221	0.000304695	0	0	0	
0.0085	-0.0204241	0.0137363	0.000450985	0.000306452	0	0	0	
0.00866667	0.0202792	-0.0135414	0.000501046	0.000280953	0	0	0	
0.00883333	-0.0134601	0.0127284	0.000523831	0.000276683	0	0	0	
0.009	0.022341	-0.014215	0.000526762	0.000269984	0	0	0	
0.00916667	-0.0311589	0.0118563	0.000616487	0.000294828	0	0	0	
0.00933333	0.0278667	-0.0167173	0.000649489	0.000292388	0	0	0	
0.0095	-0.0224484	0.0236935	0.000606454	0.000334809	0	0	0	
0.00966667	0.0122697	-0.023743	0.000486587	0.000375275	0	0	0	
0.00983333	-0.0120309	0.0156686	0.000424396	0.000420363	0	0	0	
0.01	0.00785877	-0.00549501	0.000393683	0.000337974	0	0	0	
0.0101667	-0.00834042	0.00833918	0.000410321	0.000245946	0	0	0	
0.0103333	0.0195195	-0.0123587	0.000458081	0.000166018	0	0	0	
0.0105	-0.0303567	0.0118394	0.000553817	0.000200616	0	0	0	
0.0106667	0.0233151	-0.0154069	0.000618533	0.000253836	0	0	0	
0.0108333	-0.0111152	0.0227267	0.000566343	0.000345669	0	0	0	
0.011	0.00237274	-0.0281267	0.000413366	0.000413373	0	0	0	
0.0111667	-0.0116229	0.0222649	0.000332647	0.000468269	0	0	0	
0.0113333	0.0208525	-0.015645	0.00037238	0.00044569	0	0	0	
0.0115	-0.0149677	0.0188071	0.000458487	0.00039415	0	0	0	
0.0116667	0.0136438	-0.0188074	0.000461712	0.000359191	0	0	0	
0.0118333	-0.0217999	0.0141657	0.000444282	0.000339114	0	0	0	
0.012	0.0219739	-0.0179204	0.00041844	0.000339957	0	0	0	
0.0121667	-0.0111626	0.0122795	0.000391796	0.000313579	0	0	0	
0.0123333	0.0146594	-0.00987676	0.000336041	0.000268676	0	0	0	
0.0125	-0.0206438	0.00696945	0.000325953	0.00021779	0	0	0	
0.0126667	0.019982	-0.00524722	0.000351645	0.000175319	0	0	0	
0.0128333	-0.0113432	0.0131693	0.000377592	0.000202009	0	0	0	
0.013	0.0138462	-0.0217247	0.000413247	0.000255721	0	0	0	
0.0131667	-0.0172592	0.0203901	0.000456249	0.000342169	0	0	0	
0.0133333	0.0100817	-0.0171992	0.000441378	0.000356077	0	0	0	
0.0135	-0.00728367	0.0175445	0.000384925	0.00036393	0	0	0	
0.0136667	0.0251734	-0.0143171	0.000378554	0.000318064	0	0	0	
0.0138333	-0.0242762	0.0146092	0.000469212	0.000323815	0	0	0	
0.014	0.0132931	-0.0176697	0.000476619	0.000301113	0	0	0	
0.0141667	-0.013307	0.0176042	0.000389896	0.000319461	0	0	0	
0.0143333	0.0208268	-0.0180944	0.00031438	0.000322774	0	0	0	
0.0145	-0.0159878	0.0153027	0.00030369	0.000329642	0	0	0	
0.0146667	0.0126061	-0.0201155	0.000341461	0.000331811	0	0	0	
0.0148333	-0.00800529	0.0126488	0.000339364	0.000328755	0	0	0	
0.015	0.0192241	-0.0129814	0.000417295	0.000309239	0	0	0	
0.0151667	-0.0255447	0.00985917	0.000471955	0.000270642	0	0	0	
0.0153333	0.0233555	-0.0163466	0.000530128	0.000261946	0	0	0	
0.0155	-0.0167716	0.0108281	0.00049474	0.000275153	0	0	0	
0.0156667	0.0233664	-0.0217666	0.000460128	0.000292255	0	0	0	
0.0158333	-0.01373	0.0167028	0.000413974	0.000331798	0	0	0	
0.016	0.0102812	-0.0250821	0.000366157	0.00037103	0	0	0	
0.0161667	-0.0151994	0.0174737	0.000334314	0.000397612	0	0	0	
0.0163333	0.0199999	-0.0131552	0.000350603	0.000371224	0	0	0	
0.0165	-0.0186789	0.0156626	0.000375309	0.000338882	0	0	0	
0.0166667	0.014267	-0.0202575	0.000376542	0.00032012	0	0	0	
0.0168333	-0.012295	0.0174277	0.000394026	0.000341712	0	0	0	
0.017	0.0266781	-0.0229192	0.000492702	0.000366474	0	0	0	
0.0171667	-0.0275678	0.0181144	0.000574795	0.000395728	0	0	0	
0.0173333	0.0144408	-0.0196441	0.00055565	0.000375134	0	0	0	
0.0175	-0.0111221	0.0242094	0.000434214	0.000395919	0	0	0	
0.0176667	0.0123027	-0.0122649	0.000397177	0.000379233	0	0	0	
0.0178333	-0.0133364	0.0145752	0.000400519	0.000355185	0	0	0	
0.018	0.0167916	-0.0153762	0.000423048	0.000301976	0	0	0	
0.0181667	-0.0212314	0.0124617	0.000428363	0.000272307	0	0	0	
0.0183333	0.0248421	-0.0121425	0.000450269	0.000268458	0	0	0	
0.0185	-0.0186028	0.0129062	0.000458244	0.00025988	0	0	0	
0.0186667	0.0081639	-0.0138881	0.000396222	0.00025137	0	0	0	
0.0188333	-0.00485846	0.0177768	0.000273781	0.000264669	0	0	0	
0.019	0.0143915	-0.0220035	0.000282306	0.000309614	0	0	0	
0.0191667	-0.0227855	0.0240728	0.000364474	0.000374112	0	0	0	
0.0193333	0.0223034	-0.0168868	0.000498841	0.000406648	0	0	0	
0.0195	-0.0218464	0.0112637	0.000538094	0.000397479	0	0	0	
0.0196667	0.0236228	-0.00653953	0.000524809	0.000328291	0	0	0	
0.0198333	-0.0177994	0.00972878	0.000496033	0.000261185	0	0	0	
0.02	0.0163216	-0.0145499	0.000448431	0.000228051	0	0	0	
0.0201667	-0.0165985	0.0144213	0.000388314	0.000243384	0	0	0	
0.0203333	0.0117193	-0.0142115	0.000350134	0.000268964	0	0	0	
0.0205	-0.015876	0.0185962	0.000323215	0.000292259	0	0	0	
0.0206667	0.0159923	-0.0110848	0.00031928	0.000286667	0	0	0	
0.0208333	-0.0127408	0.0163447	0.000305923	0.000303747	0	0	0	
0.021	0.0133498	-0.0193397	0.000309848	0.000323319	0	0	0	
0.0211667	-0.0214981	0.0181864	0.00032469	0.000357074	0	0	0	
0.0213333	0.0138957	-0.0159021	0.000333931	0.00035232	0	0	0	
0.0215	-0.010096	0.0173096	0.000312677	0.000331497	0	0	0	
0.0216667	0.0155056	-0.0154861	0.00030058	0.00030995	0	0	0	
0.0218333	-0.0228109	0.0142981	0.000361999	0.000315855	0	0	0	
0.022	0.0226508	-0.0145445	0.000416694	0.000293358	0	0	0	
0.0221667	-0.017889	0.0186552	0.000430374	0.000309104	0	0	0	
0.0223333	0.0152901	-0.0194597	0.000364583	0.000328483	0	0	0	
0.0225	-0.0191481	0.0146641	0.000350556	0.000373994	0	0	0	
0.0226667	0.017698	-0.00816696	0.000348194	0.000316471	0	0	0	
0.0228333	-0.0181281	0.0132601	0.000371632	0.00026946	0	0	0	
0.023	0.0177741	-0.0173555	0.000351893	0.000218308	0	0	0	
0.0231667	-0.0191428	0.0232762	0.000368289	0.000304696	0	0	0	
0.0233333	0.0264137	-0.017471	0.000389935	0.00036673	0	0	0	
0.0235	-0.0275536	0.0161573	0.000451036	0.000388363	0	0	0	
0.0236667	0.021131	-0.0315167	0.000480043	0.000368569	0	0	0	
0.0238333	-0.0221629	0.0345428	0.000469355	0.000509476	0	0	0	
0.024	0.0242386	0.00614726	0.000443543	0.000497469	0	0	0	
0.0241667	-0.0204526	0.00702331	0.000441887	0.000416858	0	0	0	
0.0243333	0.0143983	-0.0162095	0.000424289	0.000205951	0	0	0	
0.0245	-0.0153044	0.0187368	0.000397245	0.000225711	0	0	0	
0.0246667	0.0225053	-0.0217524	0.000391533	0.000336976	0	0	0	
0.0248333	-0.0226961	0.0209761	0.000402238	0.00044272	0	0	0	
0.025	0.0184799	-0.00146833	0.000416537	0.000407941	0	0	0	
0.0251667	-0.0140739	0.0130771	0.000381414	0.000361904	0	0	0	
0.0253333	0.0135056	-0.00881138	0.000328489	0.000279605	0	0	0	
0.0255	-0.0203816	0.0207893	0.000341332	0.000312754	0	0	0	
0.0256667	0.028106	-0.0249586	0.000442409	0.000364365	0	0	0	
0.0258333	-0.0354678	0.0225951	0.000593934	0.000419024	0	0	0	
0.026	0.0316566	-0.0163868	0.000696106	0.000448029	0	0	0	
0.0261667	-0.0375239	0.0122713	0.000701278	0.00041447	0	0	0	
0.0263333	0.0216034	-0.00385642	0.000642292	0.000330514	0	0	0	
0.0265	-0.0113465	0.0111987	0.000528409	0.000260146	0	0	0	
0.0266667	0.00632937	-0.0124028	0.000423978	0.000208514	0	0	0	
0.0268333	-0.0173702	0.0189328	0.000362557	0.0002349	0	0	0	
0.027	0.0146011	-0.0191899	0.000353893	0.00029128	0	0	0	
0.0271667	-0.0171865	0.0190178	0.000340617	0.00035356	0	0	0	
0.0273333	0.0157954	-0.0108651	0.000344965	0.000360446	0	0	0	
0.0275	-0.0229281	0.014313	0.000363561	0.000347597	0	0	0	
0.0276667	0.0207529	-0.00904866	0.000384483	0.000294995	0	0	0	
0.0278333	-0.0196216	0.0161875	0.000393032	0.000305055	0	0	0	
0.028	0.0166067	-0.0182601	0.000384094	0.000303847	0	0	0	
0.0281667	-0.0114238	0.0194542	0.000354055	0.000343029	0	0	0	
0.0283333	0.0189893	-0.00748503	0.000356373	0.000316741	0	0	0	
0.0285	-0.0238509	0.0109158	0.000387142	0.000293881	0	0	0	
0.0286667	0.0165781	-0.0143163	0.000421808	0.000257155	0	0	0	
0.0288333	-0.015059	0.0194667	0.000404259	0.00027632	0	0	0	
0.029	0.0240771	-0.0180998	0.000377857	0.000312316	0	0	0	
0.0291667	-0.0251717	0.0181429	0.000399296	0.00033862	0	0	0	
0.0293333	0.0171385	-0.015232	0.000412033	0.000329355	0	0	0	
0.0295	-0.0171426	0.0214367	0.000418988	0.000366438	0	0	0	
0.0296667	0.0227616	-0.0151625	0.000401387	0.000385993	0	0	0	
0.0298333	-0.0217822	0.0128948	0.000402108	0.000381328	0	0	0	
0.03	0.0173381	-0.0169747	0.00040374	0.000336017	0	0	0	
0.0301667	-0.0117256	0.0133654	0.000347208	0.000288953	0	0	0	
0.0303333	0.0129813	-0.012171	0.000317109	0.000299654	0	0	0	
0.0305	-0.0209956	0.0166322	0.00031174	0.000305362	0	0	0	
0.0306667	0.019478	-0.0154541	0.000336738	0.000311177	0	0	0	
0.0308333	-0.0139707	0.0152638	0.000361248	0.000313504	0	0	0	
0.031	0.0221208	-0.01783	0.000338194	0.000301238	0	0	0	
0.0311667	-0.0250625	0.0139748	0.00038003	0.000308532	0	0	0	
0.0313333	0.0213693	-0.0171998	0.000420677	0.000325121	0	0	0	
0.0315	-0.0179129	0.0164125	0.000434172	0.000343121	0	0	0	
0.0316667	0.0229618	-0.012813	0.000417399	0.000341877	0	0	0	
0.0318333	-0.0270717	0.0147375	0.00042422	0.000327219	0	0	0	
0.032	0.0224731	-0.0157032	0.000447351	0.000309295	0	0	0	
0.0321667	-0.0194848	0.0139951	0.000456188	0.000301949	0	0	0	
0.0323333	0.015845	-0.0134012	0.000412853	0.000306766	0	0	0	
0.0325	-0.019958	0.0141047	0.000385594	0.000301448	0	0	0	
0.0326667	0.0254842	-0.0146434	0.000410383	0.000303198	0	0	0	
0.0328333	-0.03398	0.0173233	0.000495482	0.00030951	0	0	0	
0.033	0.0384737	-0.0134372	0.000605352	0.000307003	0	0	0	
0.0331667	-0.0311136	0.0123968	0.000642327	0.000291644	0	0	0	
0.0333333	0.0142453	-0.0120493	0.000592812	0.000278313	0	0	0	
0.0335	-0.0118428	0.0173024	0.000456668	0.000281864	0	0	0	
0.0336667	0.00610629	-0.0158747	0.000321872	0.000328802	0	0	0	
0.0338333	-0.0103225	0.0196046	0.000230504	0.000355586	0	0	0	
0.034	0.0163101	-0.0161759	0.000273063	0.000370539	0	0	0	
0.0341667	-0.0213167	0.0160237	0.000367156	0.000346106	0	0	0	
0.0343333	0.0220055	-0.017662	0.000448982	0.000328082	0	0	0	
0.0345	-0.0234976	0.0222086	0.000436567	0.000340952	0	0	0	
0.0346667	0.0204299	-0.0190844	0.000414658	0.000387817	0	0	0	
0.0348333	-0.0216926	0.0191537	0.000411371	0.000393594	0	0	0	
0.035	0.0160073	-0.0101926	0.000415864	0.000360873	0	0	0	
0.0351667	-0.0187889	0.00419794	0.000393703	0.00025898	0	0	0	
0.0353333	0.0222846	-0.0105581	0.000370942	0.000203546	0	0	0	
0.0355	-0.0178473	0.0154084	0.000365221	0.000204823	0	0	0	
0.0356667	0.0151427	-0.0127423	0.000359466	0.00024913	0	0	0	
0.0358333	-0.0178494	0.0191013	0.000348087	0.000296858	0	0	0	
0.036	0.0113807	-0.0168171	0.00033974	0.000338929	0	0	0	
0.0361667	-0.0109391	0.0159594	0.000312728	0.000347913	0	0	0	
0.0363333	0.0200763	-0.0198177	0.000331562	0.000385006	0	0	0	
0.0365	-0.0307833	0.0193858	0.000397123	0.000386208	0	0	0	
0.0366667	0.0318636	-0.0182804	0.000499471	0.000422901	0	0	0	
0.0368333	-0.0221312	0.0196449	0.00054833	0.00040068	0	0	0	
0.037	0.0154615	-0.0158602	0.000504951	0.000386232	0	0	0	
0.0371667	-0.0187605	0.0126859	0.000423206	0.000313894	0	0	0	
0.0373333	0.0276647	-0.013757	0.000415024	0.000318264	0	0	0	
0.0375	-0.0276183	0.0131408	0.000434635	0.00025677	0	0	0	
0.0376667	0.0180916	-0.0167789	0.000486281	0.000295102	0	0	0	
0.0378333	-0.018141	0.0124986	0.000455059	0.000271225	0	0	0	
0.038	0.0157929	-0.00990792	0.000413207	0.000324796	0	0	0	
0.0381667	-0.0126504	0.00872411	0.000379055	0.000325334	0	0	0	
0.0383333	0.0225446	-0.00963412	0.000400365	0.000313703	0	0	0	
0.0385	-0.0381891	0.00961954	0.000485282	0.000245358	0	0	0	
0.0386667	0.0411677	-0.0191689	0.000610763	0.000259264	0	0	0	
0.0388333	-0.0255056	0.0174501	0.000672513	0.000285402	0	0	0	
0.039	0.00889991	-0.0218951	0.000612683	0.000379061	0	0	0	
0.0391667	-0.00714905	0.0206056	0.00041839	0.000393091	0	0	0	
0.0393333	0.0127149	-0.0194628	0.000272952	0.000406255	0	0	0	
0.0395	-0.0225273	0.0153074	0.000252535	0.000382959	0	0	0	
0.0396667	0.0306802	-0.0137332	0.000364249	0.000356763	0	0	0	
0.0398333	-0.0274554	0.0111439	0.000469009	0.000300265	0	0	0	
0.04	0.0214704	-0.0141374	0.000508535	0.000265181	0	0	0	
0.0401667	-0.0153193	0.00635496	0.000464514	0.000235126	0	0	0	
0.0403333	0.0156466	-0.00600673	0.000403531	0.000247556	0	0	0	
0.0405	-0.0124863	0.00760932	0.000342284	0.000230209	0	0	0	
0.0406667	0.0145361	-0.0105146	0.000311762	0.000222582	0	0	0	
0.0408333	-0.0199525	0.0114751	0.000320525	0.000234622	0	0	0	
0.041	0.0231816	-0.0093472	0.000361531	0.000261075	0	0	0	
0.0411667	-0.0209558	0.0129393	0.000412473	0.000293366	0	0	0	
0.0413333	0.0176555	-0.0163583	0.000395596	0.000299683	0	0	0	
0.0415	-0.0165249	0.0177099	0.000371825	0.000323619	0	0	0	
0.0416667	0.0178069	-0.0148921	0.000333362	0.000340294	0	0	0	
0.0418333	-0.0154199	0.0142715	0.000329104	0.000348152	0	0	0	
0.042	0.0121669	-0.0121599	0.000306613	0.000314241	0	0	0	
0.0421667	-0.0178004	0.0153751	0.000306763	0.000312948	0	0	0	
0.0423333	0.0194708	-0.00906671	0.000318342	0.0002924	0	0	0	
0.0425	-0.0148781	0.00964602	0.000354631	0.00029049	0	0	0	
0.0426667	0.0178367	-0.0122285	0.000376175	0.000264801	0	0	0	
0.0428333	-0.0301435	0.00726853	0.000440535	0.000259077	0	0	0	
0.043	0.040958	-0.00624682	0.000534577	0.000256693	0	0	0	
0.0431667	-0.0406126	0.0083896	0.000663032	0.000262307	0	0	0	
0.0433333	0.0265206	-0.00829026	0.000705778	0.000264469	0	0	0	
0.0435	-0.0104089	0.00899737	0.000632156	0.000264747	0	0	0	
0.0436667	-0.00472944	-0.0115289	0.000434825	0.000256141	0	0	0	
0.0438333	-0.0018723	0.0118129	0.000292021	0.000273256	0	0	0	
0.044	0.0252582	-0.0122613	0.000348935	0.000305208	0	0	0	
0.0441667	-0.039048	0.0106994	0.000528042	0.000331895	0	0	0	
0.0443333	0.0372302	-0.0114675	0.00068269	0.000330853	0	0	0	
0.0445	-0.0350292	0.00969322	0.000689751	0.000309465	0	0	0	
0.0446667	0.0225263	-0.0125728	0.000655618	0.000303046	0	0	0	
0.0448333	-0.00856776	0.0149884	0.000566833	0.000312825	0	0	0	
0.045	0.00753576	-0.0159896	0.000425109	0.000350794	0	0	0	
0.0451667	-0.0152833	0.0093436	0.000286201	0.000341212	0	0	0	
0.0453333	0.018669	-0.0107122	0.0002503	0.000325252	0	0	0	
0.0455	-0.0212715	0.0119592	0.000300719	0.000287426	0	0	0	
0.0456667	0.0319185	-0.013311	0.000446086	0.0002992	0	0	0	
0.0458333	-0.0347582	0.0134951	0.000539994	0.000301809	0	0	0	
0.046	0.0226321	-0.012312	0.000613198	0.000315315	0	0	0	
0.0461667	-0.0148563	0.0076295	0.000558407	0.000300627	0	0	0	
0.0463333	0.0259905	-0.011289	0.00049185	0.000301494	0	0	0	
0.0465	-0.0205683	0.00952538	0.000446197	0.0002744	0	0	0	
0.0466667	0.0104817	-0.0127816	0.000410945	0.000261154	0	0	0	
0.0468333	-0.0128499	0.0104083	0.000351665	0.000241399	0	0	0	
0.047	0.0279241	-0.00783709	0.000345532	0.000234748	0	0	0	
0.0471667	-0.0336485	0.00982001	0.000423424	0.000233388	0	0	0	
0.0473333	0.0216068	-0.012373	0.000520623	0.000247967	0	0	0	
0.0475	-0.00950294	0.0100913	0.000487345	0.000290574	0	0	0	
0.0476667	0.0156835	-0.0114855	0.000371131	0.00032883	0	0	0	
0.0478333	-0.0186127	0.0107732	0.000293644	0.000338964	0	0	0	
0.048	0.0161992	-0.00904569	0.000293495	0.000319734	0	0	0	
0.0481667	-0.0201667	0.0129091	0.000326054	0.000293321	0	0	0	
0.0483333	0.0206609	-0.0155045	0.000357724	0.000292964	0	0	0	
0.0485	-0.0187126	0.0169114	0.000374035	0.000313566	0	0	0	
0.0486667	0.01741	-0.0198435	0.000391742	0.000361595	0	0	0	
0.0488333	-0.0175822	0.0142251	0.000370781	0.000378472	0	0	0	
0.049	0.0185737	-0.00533133	0.000380855	0.000371418	0	0	0	
0.0491667	-0.0176234	0.00379802	0.000378919	0.000334004	0	0	0	
0.0493333	0.020667	-0.00471461	0.000414782	0.000284887	0	0	0	
0.0495	-0.0278912	0.00992092	0.000435748	0.000232634	0	0	0	
0.0496667	0.0241268	-0.0165139	0.000476265	0.000237158	0	0	0	
0.0498333	-0.0146984	0.0139896	0.000464851	0.000290142	0	0	0	
0.05	0.0129241	-0.00960579	0.000404269	0.000337866	0	0	0	
0.0501667	-0.0238234	0.0125752	0.000352995	0.000342455	0	0	0	
0.0503333	0.0367175	-0.0110853	0.000410054	0.000332961	0	0	0	
0.0505	-0.0352554	0.00552359	0.00053752	0.000302415	0	0	0	
0.0506667	0.0315508	-0.0100605	0.000629204	0.000259268	0	0	0	
0.0508333	-0.02856	0.0109389	0.000621041	0.000209866	0	0	0	
0.051	0.0201218	-0.00754531	0.000612583	0.00022228	0	0	0	
0.0511667	-0.0107944	0.00952931	0.000594977	0.000282891	0	0	0	
0.0513333	0.002361	-0.00391065	0.000473657	0.000335949	0	0	0	
0.0515	-0.0111999	0.00367785	0.000373899	0.000352905	0	0	0	
0.0516667	0.0249851	-0.00730124	0.000351328	0.000305115	0	0	0	
0.0518333	-0.0339194	0.0120262	0.000460446	0.000248023	0	0	0	
0.052	0.0367402	-0.013277	0.000581649	0.000237473	0	0	0	
0.0521667	-0.0197148	0.0155106	0.000643614	0.000302933	0	0	0	
0.0523333	-0.00560213	-0.00903825	0.000623102	0.000376491	0	0	0	
0.0525	0.000928492	0.00883334	0.000411691	0.000400005	0	0	0	
0.0526667	0.0194458	-0.0052619	0.00025321	0.000389127	0	0	0	
0.0528333	-0.0265664	0.00368131	0.000241619	0.0003817	0	0	0	
0.053	0.0263083	0.00114918	0.000395616	0.000303214	0	0	0	
0.0531667	-0.0237905	0.0100452	0.000478874	0.000193164	0	0	0	
0.0533333	0.0165507	-0.0178623	0.000489945	0.000175744	0	0	0	
0.0535	-0.0128343	0.0130002	0.000421453	0.000269058	0	0	0	
0.0536667	0.0165696	-0.0170132	0.000376485	0.000396675	0	0	0	
0.0538333	-0.0226775	0.0176032	0.00035756	0.000431788	0	0	0	
0.054	0.0296716	-0.00668966	0.000405271	0.000404489	0	0	0	
0.0541667	-0.0253926	-0.00150092	0.000463662	0.000359311	0	0	0	
0.0543333	0.0164993	-0.00546213	0.00049351	0.000304611	0	0	0	
0.0545	-0.0132309	0.00435202	0.000438376	0.000261757	0	0	0	
0.0546667	0.0156465	-0.0112022	0.000383332	0.000252459	0	0	0	
0.0548333	-0.0166724	0.00898122	0.00031792	0.000265696	0	0	0	
0.055	0.0211514	-0.0109062	0.000342568	0.000310368	0	0	0	
0.0551667	-0.0217278	0.00895031	0.000362237	0.000334728	0	0	0	
0.0553333	0.0229207	-0.00744626	0.000411214	0.000348469	0	0	0	
0.0555	-0.0267734	0.0137317	0.000435963	0.000356099	0	0	0	
0.0556667	0.0235824	-0.0111028	0.000458658	0.000337524	0	0	0	
0.0558333	-0.0236573	0.0103959	0.000471213	0.000324229	0	0	0	
0.056	0.0264634	-0.0112353	0.000472298	0.000306213	0	0	0	
0.0561667	-0.0221427	0.0160793	0.00046964	0.000318152	0	0	0	
0.0563333	0.014577	-0.0102065	0.000430502	0.000304333	0	0	0	
0.0565	-0.0193671	0.0128823	0.000389891	0.000331624	0	0	0	
0.0566667	0.0197712	-0.00373514	0.000372903	0.000329375	0	0	0	
0.0568333	-0.0226978	0.00646257	0.000394181	0.000323877	0	0	0	
0.057	0.0161839	-0.00858156	0.000394094	0.000273883	0	0	0	
0.0571667	-0.0117761	0.0140759	0.000358132	0.000248438	0	0	0	
0.0573333	0.0163073	-0.011855	0.000309044	0.000241085	0	0	0	
0.0575	-0.0293796	0.0138449	0.000332067	0.000263863	0	0	0	
0.0576667	0.0324377	-0.0137101	0.000435071	0.000290764	0	0	0	
0.0578333	-0.0227955	0.00880136	0.000534238	0.000314269	0	0	0	
0.058	0.014968	-0.00364076	0.000563884	0.000305817	0	0	0	
0.0581667	-0.0139985	0.00585966	0.000505024	0.000276357	0	0	0	
0.0583333	0.00972416	-0.0123135	0.000408263	0.000280285	0	0	0	
0.0585	-0.0138183	0.0059661	0.000319119	0.000284838	0	0	0	
0.0586667	0.0271383	-0.00762248	0.000303139	0.000297681	0	0	0	
0.0588333	-0.036365	0.00934854	0.000396927	0.000307954	0	0	0	
0.059	0.0395361	-0.00798362	0.000572691	0.000342211	0	0	0	
0.0591667	-0.0400103	0.0101146	0.000710492	0.000379604	0	0	0	
0.0593333	0.0311404	-0.0156162	0.000762919	0.000398977	0	0	0	
0.0595	-0.0153326	0.0125804	0.000695388	0.000374507	0	0	0	
0.0596667	0.00871349	-0.0094957	0.000547601	0.000350168	0	0	0	
0.0598333	-0.0161546	0.00652075	0.00037359	0.000339704	0	0	0	
0.06	0.0224323	-0.00629773	0.000336815	0.000344155	0	0	0	
0.0601667	-0.0227469	0.00942248	0.000354904	0.000322624	0	0	0	
0.0603333	0.0208527	-0.00858418	0.000436782	0.000297843	0	0	0	
0.0605	-0.031075	0.00847241	0.000460857	0.000297228	0	0	0	
0.0606667	0.0335886	-0.00516913	0.000517776	0.000318902	0	0	0	
0.0608333	-0.0209584	0.00849062	0.000561442	0.000345121	0	0	0	
0.061	0.0193395	-0.0108243	0.000576027	0.000382065	0	0	0	
0.0611667	-0.0172438	0.00437588	0.00053486	0.000399759	0	0	0	
0.0613333	0.0114605	-0.00600466	0.000486586	0.000403826	0	0	0	
0.0615	-0.0158938	0.0107862	0.000411434	0.000386143	0	0	0	
0.0616667	0.0214914	-0.0105966	0.00037592	0.000366893	0	0	0	
0.0618333	-0.0242938	0.0142617	0.000376191	0.000359125	0	0	0	
0.062	0.0236924	-0.0138018	0.000417461	0.000361857	0	0	0	
0.0621667	-0.0182393	0.00969758	0.000458134	0.000378011	0	0	0	
0.0623333	0.0137935	-0.00937803	0.000476986	0.000380936	0	0	0	
0.0625	-0.00577116	0.00732298	0.00041483	0.000361238	0	0	0	
0.0626667	0.0102124	-0.00281271	0.000322678	0.000321931	0	0	0	
0.0628333	-0.0206118	0.00247944	0.000262515	0.000263456	0	0	0	
0.063	0.0299668	-0.00566484	0.000327102	0.000203054	0	0	0	
0.0631667	-0.0273851	0.0126188	0.000481022	0.000197647	0	0	0	
0.0633333	0.0186136	-0.00902452	0.000589977	0.000205407	0	0	0	
0.0635	-0.00972821	0.0100787	0.000581652	0.000262788	0	0	0	
0.0636667	0.0140029	-0.00388976	0.000490882	0.000304024	0	0	0	
0.0638333	-0.0202443	0.00584702	0.000398152	0.000369564	0	0	0	
0.064	0.0251109	-0.00600784	0.000407004	0.000403156	0	0	0	
0.0641667	-0.0215369	0.0091865	0.000457917	0.000404537	0	0	0	
0.0643333	0.0161756	-0.00831067	0.00048746	0.000372305	0	0	0	
0.0645	-0.0113124	0.00832618	0.000463429	0.000334349	0	0	0	
0.0646667	0.0154644	-0.0116483	0.000409485	0.000307919	0	0	0	
0.0648333	-0.0144134	0.0185545	0.000360116	0.000300696	0	0	0	
0.065	0.0214558	-0.021403	0.000343637	0.000343545	0	0	0	
0.0651667	-0.022413	0.013351	0.000367567	0.000367137	0	0	0	
0.0653333	0.0228248	-0.0110933	0.000458634	0.000397191	0	0	0	
0.0655	-0.0162779	0.00599779	0.000537769	0.000346469	0	0	0	
0.0656667	0.0112588	-0.00482493	0.000557071	0.00030301	0	0	0	
0.0658333	-0.00581436	0.00302696	0.000452705	0.000241193	0	0	0	
0.066	0.0233022	0.000964667	0.000356083	0.000215077	0	0	0	
0.0661667	-0.024243	0.000327818	0.00036478	0.000203264	0	0	0	
0.0663333	0.0180867	-0.0119401	0.000451973	0.000218187	0	0	0	
0.0665	-0.0151033	0.0117683	0.000467788	0.000255869	0	0	0	
0.0666667	0.025937	-0.00801182	0.000421999	0.000316595	0	0	0	
0.0668333	-0.0223534	0.0113398	0.000410697	0.000354122	0	0	0	
0.067	0.0161487	-0.0111166	0.000460901	0.000325752	0	0	0	
0.0671667	-0.0118349	0.0174061	0.000462192	0.000320387	0	0	0	
0.0673333	0.0103293	-0.0122045	0.000392045	0.000347577	0	0	0	
0.0675	-0.00715151	0.00894902	0.000316784	0.00040543	0	0	0	
0.0676667	0.00706143	-0.00685563	0.000253822	0.000367518	0	0	0	
0.0678333	-0.0139871	0.0152671	0.000244419	0.000331802	0	0	0	
0.068	0.0161657	-0.000543577	0.000239757	0.000280754	0	0	0	
0.0681667	-0.0211692	0.000592531	0.000310707	0.000252761	0	0	0	
0.0683333	0.0155133	-0.00443356	0.000372957	0.000168454	0	0	0	
0.0685	-0.0181964	0.0109115	0.000418283	0.000161602	0	0	0	
0.0686667	0.0160435	-0.00182312	0.00039537	0.000179812	0	0	0	
0.0688333	-0.0154673	0.010555	0.000391129	0.000230316	0	0	0	
0.069	0.00969657	-0.00330116	0.000343824	0.000199769	0	0	0	
0.0691667	-0.0180977	0.00497604	0.000325014	0.000209668	0	0	0	
0.0693333	0.0140418	-0.00217901	0.00032184	0.000228542	0	0	0	
0.0695	0.00744	0.00240564	0.000394565	0.000246244	0	0	0	
0.0696667	-0.0160558	-0.00396106	0.00039337	0.000210062	0	0	0	
0.0698333	-0.00288895	0.00860509	0.000306007	0.000183033	0	0	0	
0.07	0.0177632	-0.00200538	0.000203325	0.000204363	0	0	0	
0.0701667	-0.021629	0.00707165	0.000253938	0.000266071	0	0	0	
0.0703333	0.0222026	-0.00486882	0.00038049	0.000294936	0	0	0	
0.0705	-0.0253279	0.0038229	0.00050547	0.000320096	0	0	0	
0.0706667	0.0233066	0.0023194	0.000574485	0.000325774	0	0	0	
0.0708333	-0.0118029	0.000557309	0.000701782	0.000318102	0	0	0	
0.071	0.00861054	0.00237397	0.000753297	0.000283878	0	0	0	
0.0711667	-0.0161521	0.00484085	0.000674632	0.000260149	0	0	0	
0.0713333	0.0142881	-7.49969E-05	0.00051363	0.000248927	0	0	0	
0.0715	-0.00467763	0.00923214	0.000415804	0.000262845	0	0	0	
0.0716667	0.00129266	-0.00601402	0.000320138	0.000263121	0	0	0	
0.0718333	-0.0181281	0.00962033	0.000250281	0.000319474	0	0	0	
0.072	0.0281445	-0.00456089	0.000260791	0.000370705	0	0	0	
0.0721667	-0.028409	0.00582281	0.000394872	0.000428322	0	0	0	
0.0723333	0.0269764	0.000721697	0.000526598	0.000445403	0	0	0	
0.0725	-0.0209442	0.00249303	0.000596345	0.000446001	0	0	0	
0.0726667	0.0108441	0.000338223	0.000627079	0.000395964	0	0	0	
0.0728333	-0.00754651	0.00710003	0.000605495	0.000325005	0	0	0	
0.073	0.00522457	-0.00871719	0.000509249	0.000281356	0	0	0	
0.0731667	-0.0107981	0.0134955	0.000415051	0.000310089	0	0	0	
0.0733333	0.0116929	-0.0101956	0.000372906	0.000354747	0	0	0	
0.0735	-0.00849543	0.00738225	0.000392974	0.000387196	0	0	0	
0.0736667	0.0143967	-0.00540308	0.000385757	0.000401844	0	0	0	
0.0738333	-0.0193655	0.00130144	0.000368029	0.000410963	0	0	0	
0.074	0.0191275	-0.00600556	0.000358896	0.000409196	0	0	0	
0.0741667	-0.0203511	0.00531756	0.000402336	0.000369553	0	0	0	
0.0743333	0.021899	-0.00668606	0.0004276	0.000320823	0	0	0	
0.0745	-0.0242969	0.00319293	0.000461784	0.000278801	0	0	0	
0.0746667	0.0177805	-0.00922076	0.000486518	0.000285698	0	0	0	
0.0748333	-0.00517897	0.00742555	0.000515965	0.000307608	0	0	0	
0.075	0.00418208	-0.0123261	0.000483367	0.000343791	0	0	0	
0.0751667	-0.000902101	0.000721125	0.000420259	0.000358003	0	0	0	
0.0753333	-0.00349269	-0.00177369	0.000356681	0.000376133	0	0	0	
0.0755	-0.00228317	-5.01636E-05	0.000300804	0.000372931	0	0	0	
0.0756667	0.0122752	-0.00371048	0.000254378	0.000367155	0	0	0	
0.0758333	-0.0234776	0.00347432	0.000281231	0.000338796	0	0	0	
0.076	0.020626	-0.000206243	0.000375322	0.00029816	0	0	0	
0.0761667	-0.02174	0.00350756	0.000478252	0.000276209	0	0	0	
0.0763333	0.0228153	-0.0033062	0.000525221	0.000301038	0	0	0	
0.0765	-0.0171625	0.00645739	0.000549949	0.000374214	0	0	0	
0.0766667	0.00990403	-0.00515295	0.000544505	0.000420624	0	0	0	
0.0768333	-0.0142988	0.00129105	0.0004755	0.000408592	0	0	0	
0.077	0.0162481	0.00514123	0.000407531	0.000365211	0	0	0	
0.0771667	-0.0182053	0.000977364	0.00039299	0.000321622	0	0	0	
0.0773333	0.0103387	0.00119387	0.000401799	0.000293944	0	0	0	
0.0775	-0.00671171	-0.00786011	0.000374494	0.000335661	0	0	0	
0.0776667	0.00739366	0.00267582	0.000293864	0.000460402	0	0	0	
0.0778333	-0.0126681	0.0116799	0.000251217	0.000606874	0	0	0	
0.078	0.0167035	-0.00108876	0.000297546	0.000672144	0	0	0	
0.0781667	-0.0112633	-0.0180741	0.000375682	0.000648735	0	0	0	
0.0783333	0.00848439	0.00564787	0.000427003	0.000493286	0	0	0	
0.0785	-0.0129272	0.00547106	0.00043792	0.000652299	0	0	0	
0.0786667	0.0127131	-0.0661262	0.000426856	0.000787784	0	0	0	
0.0788333	-0.00973372	0.047914	0.000390506	0.00101379	0	0	0	
0.079	0.0195711	0.0089784	0.000355668	0.000919546	0	0	0	
0.0791667	-0.0232358	-0.0278402	0.000385687	0.000980074	0	0	0	
0.0793333	0.012307	0.031216	0.000463266	0.000850005	0	0	0	
0.0795	-0.015116	-0.00232514	0.000472684	0.00096959	0	0	0	
0.0796667	0.0599094	-0.0190737	0.00052686	0.00105888	0	0	0	
0.0798333	-0.0656525	-0.0519251	0.000801169	0.00129208	0	0	0	
0.08	-0.12807	0.0288275	0.00205272	0.00142305	0	0	0	
0.0801667	0.245602	-0.00151746	0.00470848	0.00189295	0	0	0	
0.0803333	-0.179555	0.140963	0.00720107	0.00233158	0	0	0	
0.0805	0.0913711	-0.328337	0.00747662	0.0033376	0	0	0	
0.0806667	-0.0955236	0.163444	0.00507029	0.00393249	0	0	0	
0.0808333	0.0129819	-0.0962868	0.00275762	0.004461	0	0	0	
0.081	0.165348	-0.0754398	0.00201409	0.00390106	0	0	0	
0.0811667	-0.24691	0.220498	0.00317014	0.00317183	0	0	0	
0.0813333	0.30574	-0.16863	0.00528666	0.00306796	0	0	0	
0.0815	-0.141884	-0.0434886	0.00642117	0.00312074	0	0	0	
0.0816667	-0.011737	0.010861	0.00571497	0.00382456	0	0	0	
0.0818333	-0.0846414	-0.112028	0.00342189	0.00348456	0	0	0	
0.082	0.207825	0.127755	0.00266988	0.00346055	0	0	0	
0.0821667	-0.0533231	-0.0482965	0.00247979	0.00243935	0	0	0	
0.0823333	-0.0150393	0.0348454	0.00290389	0.00207965	0	0	0	
0.0825	0.0524599	-0.0553176	0.00257268	0.00172305	0	0	0	
0.0826667	-0.0509886	0.0364871	0.00274354	0.00159991	0	0	0	
0.0828333	0.0788676	-0.0262099	0.00248991	0.00124532	0	0	0	
0.083	-0.0453397	0.0229775	0.00184622	0.000786155	0	0	0	
0.0831667	0.0697637	-0.0128323	0.00151102	0.000593175	0	0	0	
0.0833333	-0.0538959	0.0230127	0.00141608	0.000464858	0	0	0	
0.0835	0.015905	-0.00105692	0.00144981	0.000382023	0	0	0	
0.0836667	0.0359975	-0.00594896	0.00115526	0.000397716	0	0	0	
0.0838333	-0.030094	-0.0159684	0.000829629	0.000555263	0	0	0	
0.084	0.0548533	-0.00417715	0.000994897	0.000587892	0	0	0	
0.0841667	0.04821	0.010239	0.00126212	0.000459476	0	0	0	
0.0843333	-0.0227827	-0.00424868	0.00173375	0.000372119	0	0	0	
0.0845	-0.0279085	-0.00728353	0.00180721	0.000456163	0	0	0	
0.0846667	0.00818798	0.000750866	0.00160043	0.000543929	0	0	0	
0.0848333	0.027826	0.0178069	0.00106549	0.000443832	0	0	0	
0.085	0.00654514	-0.0438453	0.000611806	0.000558991	0	0	0	
0.0851667	-0.0139994	0.0408479	0.000427405	0.000619411	0	0	0	
0.0853333	0.00356947	-0.0224191	0.000372564	0.00079362	0	0	0	
0.0855	-0.0320611	-0.000319646	0.000351296	0.000685959	0	0	0	
0.0856667	0.00835201	0.0130735	0.000386512	0.000631829	0	0	0	
0.0858333	0.0231213	-0.0113333	0.000419788	0.000495162	0	0	0	
0.086	-0.00996517	0.0136506	0.000458205	0.000392985	0	0	0	
0.0861667	-0.00850724	-0.0234321	0.000337704	0.000549543	0	0	0	
0.0863333	0.0025478	-0.00625599	0.000264423	0.000623457	0	0	0	
0.0865	-0.0197477	0.0150642	0.000272103	0.000540766	0	0	0	
0.0866667	0.0151967	-0.00454346	0.000428539	0.000320751	0	0	0	
0.0868333	-0.00515556	-0.00404151	0.000462396	0.00028508	0	0	0	
0.087	0.0108892	0.00172437	0.000383688	0.000332986	0	0	0	
0.0871667	-0.00913939	0.00775769	0.000232555	0.000314018	0	0	0	
0.0873333	0.0177376	-0.00389651	0.000255931	0.000302366	0	0	0	
0.0875	-0.0212178	0.000602646	0.000310671	0.00036179	0	0	0	
0.0876667	0.0237861	0.00519314	0.000422816	0.000391285	0	0	0	
0.0878333	-0.0223979	-0.00455014	0.000492728	0.000338742	0	0	0	
0.088	0.0149534	0.000413164	0.000521433	0.000250913	0	0	0	
0.0881667	0.000143338	0.00373136	0.000522864	0.000244534	0	0	0	
0.0883333	-0.00537176	0.00185975	0.000473938	0.000298969	0	0	0	
0.0885	0.00169613	0.00175463	0.000323542	0.000344643	0	0	0	
0.0886667	0.0135891	0.00354445	0.000199524	0.00034135	0	0	0	
0.0888333	-0.0190416	-0.0102164	0.000178353	0.000330997	0	0	0	
0.089	0.0195698	0.0098161	0.00028091	0.000331914	0	0	0	
0.0891667	-0.0161187	-0.00372633	0.000360608	0.000315332	0	0	0	
0.0893333	0.00949298	0.00321962	0.000438626	0.000278049	0	0	0	
0.0895	0.000681632	-0.000408097	0.000519655	0.000268224	0	0	0	
0.0896667	-0.00108002	0.000567235	0.00055001	0.000293201	0	0	0	
0.0898333	-0.00394444	0.000554101	0.00044902	0.000332478	0	0	0	
0.09	0.0127576	0.00162214	0.000327362	0.000344804	0	0	0	
0.0901667	-0.0106858	-0.00507364	0.000297416	0.000355422	0	0	0	
0.0903333	0.0106277	0.00984342	0.00040977	0.000363359	0	0	0	
0.0905	-0.0199298	-0.000629576	0.000525078	0.00032744	0	0	0	
0.0906667	0.0276823	-0.0260236	0.000596692	0.000289973	0	0	0	
0.0908333	-0.0115293	0.0192376	0.000543277	0.000398881	0	0	0	
0.091	0.0230128	-0.00206906	0.000494518	0.000462212	0	0	0	
0.0911667	-0.0223232	-0.00127435	0.000460511	0.00055293	0	0	0	
0.0913333	0.0177937	-0.000534501	0.000545233	0.000440622	0	0	0	
0.0915	-0.00566017	0.00720716	0.000591922	0.000468724	0	0	0	
0.0916667	0.00708094	0.0105774	0.000494688	0.000463873	0	0	0	
0.0918333	-0.00583362	-0.0206924	0.000317494	0.000388149	0	0	0	
0.092	0.0170987	0.00679765	0.000232106	0.000395809	0	0	0	
0.0921667	-0.00951813	0.0103658	0.000285872	0.000275321	0	0	0	
0.0923333	0.0182132	-0.0102193	0.000382263	0.000328205	0	0	0	
0.0925	-0.0168208	0.0112664	0.000473756	0.000268184	0	0	0	
0.0926667	0.00780758	0.00245573	0.000644772	0.000300505	0	0	0	
0.0928333	0.0128511	0.00883292	0.000750379	0.000324101	0	0	0	
0.093	0.00187912	-0.00395105	0.000576797	0.000400539	0	0	0	
0.0931667	-0.0375487	-0.0241386	0.000422169	0.000559713	0	0	0	
0.0933333	0.00460154	0.0370099	0.000367016	0.000677178	0	0	0	
0.0935	0.0317889	0.00158003	0.000473546	0.000606462	0	0	0	
0.0936667	-0.0265157	-0.00600016	0.000496146	0.000414672	0	0	0	
0.0938333	0.0119238	0.00667555	0.000486498	0.000215294	0	0	0	
0.094	0.0035955	-0.0173855	0.000529764	0.000230094	0	0	0	
0.0941667	-0.0104111	0.0167754	0.000530018	0.000368275	0	0	0	
0.0943333	-0.00608058	0.00984556	0.000392341	0.000584446	0	0	0	
0.0945	0.00429356	-0.0262855	0.000421495	0.000818311	0	0	0	
0.0946667	-0.0273862	0.121779	0.000663588	0.00113858	0	0	0	
0.0948333	0.0435187	-0.0626334	0.00102833	0.00160563	0	0	0	
0.095	-0.0156617	0.0931016	0.000979562	0.00177395	0	0	0	
0.0951667	0.036544	0.0179075	0.000952721	0.00161203	0	0	0	
0.0953333	-0.0301965	-0.0105946	0.00113568	0.00117389	0	0	0	
0.0955	0.0102205	0.0249778	0.00152197	0.000836694	0	0	0	
0.0956667	0.00564153	-0.0166147	0.00139828	0.000670692	0	0	0	
0.0958333	0.0255163	0.0674272	0.000950161	0.00104668	0	0	0	
0.096	-0.0690999	0.0111614	0.000727275	0.00143556	0	0	0	
0.0961667	0.0962699	0.046744	0.00101318	0.00184866	0	0	0	
0.0963333	-0.0468486	0.0288168	0.00140664	0.0014631	0	0	0	
0.0965	0.0317047	-0.0675734	0.00137811	0.00115074	0	0	0	
0.0966667	-0.00988185	0.0319634	0.0010553	0.000914147	0	0	0	
0.0968333	0.0115885	0.0035509	0.000686438	0.000723775	0	0	0	
0.097	-0.0143167	0.00125264	0.000631998	0.00051219	0	0	0	
0.0971667	0.0106487	-0.0043678	0.000740785	0.000266179	0	0	0	
0.0973333	0.00233334	-0.00221423	0.00082509	0.000244519	0	0	0	
0.0975	0.00770993	0.00699297	0.000636012	0.000243479	0	0	0	
0.0976667	-0.00181216	-0.0128293	0.000367216	0.00023505	0	0	0	
0.0978333	-0.0071013	0.00797809	0.000159398	0.000323097	0	0	0	
0.098	0.00326676	0.00509264	0.000265296	0.00032034	0	0	0	
0.0981667	0.00915602	0.000403535	0.000366629	0.00025952	0	0	0	
0.0983333	-0.00604211	0.00425767	0.000383237	0.000158003	0	0	0	
0.0985	-0.00691642	-0.00187385	0.000282677	0.000164447	0	0	0	
0.0986667	0.0231053	0.00919651	0.000199477	0.000210474	0	0	0	
0.0988333	-0.0222681	-0.00554409	0.000305825	0.000299459	0	0	0	
0.099	0.0132201	0.00471569	0.000461119	0.000369126	0	0	0	
0.0991667	0.000427803	-0.00722185	0.000601292	0.000405895	0	0	0	
0.0993333	-0.00888328	0.00983547	0.000617045	0.000382818	0	0	0	
0.0995	0.00157683	-0.00448108	0.000529483	0.000337389	0	0	0	
0.0996667	0.00201515	0.00363834	0.000403142	0.000294912	0	0	0	
0.0998333	-0.00181813	-0.000652617	0.000343535	0.000276303	0	0	0	
0.1	0.00356763	-0.000307695	0.000325503	0.000264322	0	0	0	
0.100167	-0.0109895	-0.00400233	0.000328427	0.000252653	0	0	0	
0.100333	0.0113594	0.00538994	0.000390718	0.000246064	0	0	0	
0.1005	-0.00191535	-0.00448223	0.000541493	0.000273388	0	0	0	
0.100667	-0.00573961	0.00292824	0.000635784	0.000314156	0	0	0	
0.100833	-0.00576983	-0.00455715	0.000576001	0.000346247	0	0	0	
0.101	0.00540287	0.0104051	0.000475275	0.000367726	0	0	0	
0.101167	0.00284755	-0.0120933	0.000471852	0.000382602	0	0	0	
0.101333	-0.00402319	0.00589986	0.000490876	0.000377434	0	0	0	
0.1015	-0.00611246	-0.000806374	0.000408332	0.000353634	0	0	0	
0.101667	0.008509	0.00260748	0.000279327	0.000345638	0	0	0	
0.101833	-0.0142725	-0.0037789	0.000251847	0.000343994	0	0	0	
0.102	0.00727181	0.00872855	0.000325537	0.000331746	0	0	0	
0.102167	-0.00838824	-0.00768646	0.000412083	0.000319042	0	0	0	
0.102333	0.00868714	0.00146607	0.000458747	0.000282517	0	0	0	
0.1025	-0.00441457	0.00327466	0.000512008	0.000234513	0	0	0	
0.102667	-0.00670978	0.00401699	0.000572759	0.000205116	0	0	0	
0.102833	-0.000730112	0.0119358	0.000597722	0.000257004	0	0	0	
0.103	-0.00640551	-0.00175772	0.000562074	0.000292372	0	0	0	
0.103167	0.000878269	0.00645447	0.000479264	0.000279901	0	0	0	
0.103333	0.00666966	-0.0053082	0.000380157	0.000293727	0	0	0	
0.1035	-0.00753707	-0.00588976	0.000327823	0.0003612	0	0	0	
0.103667	0.00872273	0.00763201	0.000338541	0.000394809	0	0	0	
0.103833	-0.0142939	0.00235929	0.000396652	0.000319784	0	0	0	
0.104	0.0121806	0.0123747	0.000461191	0.00021424	0	0	0	
0.104167	-0.00401025	-0.00640198	0.000535133	0.000210204	0	0	0	
0.104333	-0.00640904	-0.000487856	0.000598729	0.000163727	0	0	0	
0.1045	0.0108223	-0.00264839	0.000577731	0.000134316	0	0	0	
0.104667	-0.00474834	0.00528274	0.000472215	9.07223E-05	0	0	0	
0.104833	-0.00139527	-0.0112243	0.000329416	0.000169409	0	0	0	
0.105	0.0103615	0.00836592	0.000281577	0.000268398	0	0	0	
0.105167	-0.00245791	-0.00647627	0.000284631	0.00028981	0	0	0	
0.105333	0.00297106	0.00357347	0.000335541	0.000251955	0	0	0	
0.1055	-0.0018655	-0.0113327	0.000375613	0.000227046	0	0	0	
0.105667	-0.00283816	0.0137005	0.000469755	0.000296846	0	0	0	
0.105833	0.00812037	-0.0110832	0.000563667	0.000374365	0	0	0	
0.106	-0.00348923	0.00592311	0.000568774	0.000385631	0	0	0	
0.106167	0.00126922	-0.00962923	0.000485355	0.00033402	0	0	0	
0.106333	-0.00228272	0.0102492	0.000446756	0.000307803	0	0	0	
0.1065	0.00788786	-0.0116287	0.000478833	0.000322322	0	0	0	
0.106667	-0.000861431	0.0069915	0.000463455	0.00035609	0	0	0	
0.106833	-0.0125949	-0.0054055	0.000363771	0.000358985	0	0	0	
0.107	0.0135872	0.00999408	0.000297764	0.000341923	0	0	0	
0.107167	-0.0121678	-0.0107863	0.000335676	0.00032235	0	0	0	
0.107333	0.00796788	0.006951	0.00041859	0.000302764	0	0	0	
0.1075	0.000368237	-0.00642768	0.000485845	0.000284992	0	0	0	
0.107667	-0.0111495	0.00565669	0.000541186	0.000260033	0	0	0	
0.107833	0.0156818	-0.00233362	0.000550889	0.000246461	0	0	0	
0.108	-0.0158533	0.00832141	0.000489793	0.000245973	0	0	0	
0.108167	0.00619561	-0.00839954	0.000378755	0.000266109	0	0	0	
0.108333	-0.00204542	0.0069427	0.00028652	0.000286147	0	0	0	
0.1085	0.00540008	-0.0128827	0.00028908	0.000306398	0	0	0	
0.108667	-0.00503488	0.0133808	0.000341647	0.000322218	0	0	0	
0.108833	0.00127186	-0.00544923	0.000411709	0.00030929	0	0	0	
0.109	-0.00295694	0.00706847	0.000470147	0.000280018	0	0	0	
0.109167	0.00292199	-0.0120709	0.000497135	0.00028834	0	0	0	
0.109333	0.00372946	0.0130237	0.000464561	0.000335069	0	0	0	
0.1095	-0.00367843	-0.0105312	0.000431142	0.000349631	0	0	0	
0.109667	-0.00645235	0.00423926	0.000479739	0.00028739	0	0	0	
0.109833	0.00971482	-0.00542555	0.000528786	0.000205198	0	0	0	
0.11	0.003118	0.00946083	0.000436437	0.000203915	0	0	0	
0.110167	-0.0105384	-0.00421797	0.00027707	0.000231958	0	0	0	
0.110333	0.00647395	0.00395008	0.000211605	0.000248333	0	0	0	
0.1105	-0.00115245	-0.00770998	0.00029083	0.000245142	0	0	0	
0.110667	-0.00762334	0.0160045	0.000416222	0.000261249	0	0	0	
0.110833	0.0201452	-0.023011	0.000538892	0.000331193	0	0	0	
0.111	-0.0279342	0.0213413	0.00061301	0.000430238	0	0	0	
0.111167	0.0262073	-0.0146379	0.000610882	0.000483878	0	0	0	
0.111333	-0.00981134	0.016994	0.000501761	0.000463861	0	0	0	
0.1115	-0.00439077	-0.0178605	0.000344998	0.000423763	0	0	0	
0.111667	0.0123613	0.0131824	0.000293079	0.000379766	0	0	0	
0.111833	-0.00510311	-0.00889832	0.000423022	0.000344112	0	0	0	
0.112	-0.00913552	0.00218958	0.000683691	0.000311119	0	0	0	
0.112167	0.0179846	-0.00493916	0.000804276	0.000341389	0	0	0	
0.112333	-0.00941535	0.00764248	0.000747236	0.000402392	0	0	0	
0.1125	0.0154665	-0.0150952	0.000598881	0.000419052	0	0	0	
0.112667	-0.0145003	0.00865507	0.000506606	0.000387486	0	0	0	
0.112833	0.00722271	-0.0110866	0.000393776	0.000322239	0	0	0	
0.113	0.00425072	0.0103623	0.000259026	0.000280135	0	0	0	
0.113167	0.00531324	-0.0127127	0.000226637	0.000254991	0	0	0	
0.113333	-0.0122522	0.0208539	0.000362193	0.000313982	0	0	0	
0.1135	0.00756394	-0.019591	0.000506447	0.000384377	0	0	0	
0.113667	0.00773136	0.0132564	0.000528291	0.000413735	0	0	0	
0.113833	0.0032989	-0.0159801	0.000552109	0.000359987	0	0	0	
0.114	-0.0209459	0.00832821	0.000668226	0.000290755	0	0	0	
0.114167	0.0352684	-0.0142582	0.000698592	0.000252941	0	0	0	
0.114333	-0.00806417	0.0136059	0.000622745	0.000290792	0	0	0	
0.1145	0.00676037	-0.000439439	0.00039143	0.000318279	0	0	0	
0.114667	-0.00754132	0.002404	0.000240127	0.000328077	0	0	0	
0.114833	-0.0771742	-0.0159349	0.000830959	0.000310994	0	0	0	
0.115	0.322844	0.0175599	0.00221342	0.000295848	0	0	0	
0.115167	-0.357022	-0.0077175	0.00455597	0.000310629	0	0	0	
0.115333	-0.0267	-0.00427059	0.0052171	0.000263225	0	0	0	
0.1155	0.233109	-0.0178079	0.00616433	0.0003092	0	0	0	
0.115667	-0.257827	0.0267823	0.0060825	0.000357932	0	0	0	
0.115833	0.215207	-0.0216883	0.00579863	0.000454369	0	0	0	
0.116	-0.0804682	0.0101083	0.00487638	0.000417977	0	0	0	
0.116167	-0.0868884	-0.00804361	0.00483389	0.000346323	0	0	0	
0.116333	0.162069	0.00815124	0.00564873	0.000218972	0	0	0	
0.1165	-0.260897	-0.0119316	0.00519857	0.000190583	0	0	0	
0.116667	0.138773	0.00832005	0.00477624	0.000210981	0	0	0	
0.116833	0.0372564	-0.044352	0.00376683	0.000336832	0	0	0	
0.117	0.00335042	0.0490583	0.00323793	0.00057349	0	0	0	
0.117167	-0.145493	-0.032746	0.00241348	0.000765021	0	0	0	
0.117333	0.14504	0.0166456	0.00247511	0.000766603	0	0	0	
0.1175	0.0037399	-0.00147908	0.00251394	0.000527931	0	0	0	
0.117667	-0.099383	-0.00049971	0.00194884	0.000273106	0	0	0	
0.117833	0.180245	-0.02149	0.00185655	0.000192967	0	0	0	
0.118	-0.112047	0.00903902	0.00221732	0.000334291	0	0	0	
0.118167	-0.0104775	-0.0114485	0.00277152	0.000502698	0	0	0	
0.118333	0.060443	0.0230649	0.00264869	0.00057969	0	0	0	
0.1185	-0.0111491	-0.0236443	0.0019523	0.000510239	0	0	0	
0.118667	0.000176408	0.0282901	0.00128848	0.000460334	0	0	0	
0.118833	0.0287995	-0.0201612	0.000834182	0.000445582	0	0	0	
0.119	-0.0380039	0.0103009	0.000832549	0.00041014	0	0	0	
0.119167	0.00537546	-0.00761348	0.000797672	0.000310449	0	0	0	
0.119333	0.00747631	0.0181745	0.000751777	0.000286843	0	0	0	
0.1195	-0.00535579	-0.0242224	0.000596442	0.000350147	0	0	0	
0.119667	0.00472873	0.0193875	0.000539807	0.000482372	0	0	0	
0.119833	0.0462263	-0.00862515	0.000599546	0.000492866	0	0	0	
0.12	-0.0922643	0.0125492	0.000973695	0.000429568	0	0	0	
0.120167	0.0485752	-0.0189995	0.00146548	0.00031341	0	0	0	
0.120333	0.023476	0.0285099	0.00179078	0.000322842	0	0	0	
0.1205	-0.0362071	-0.0240846	0.00159823	0.000412692	0	0	0	
0.120667	0.0588205	0.00703129	0.00114688	0.000449267	0	0	0	
0.120833	-0.0435214	0.0133293	0.000859865	0.000453365	0	0	0	
0.121	-0.0178131	0.0245995	0.00113765	0.000442132	0	0	0	
0.121167	0.0849681	-0.0435908	0.0016585	0.000631582	0	0	0	
0.121333	-0.0954476	0.0433637	0.00192369	0.000815716	0	0	0	
0.1215	0.0446311	-0.030349	0.00183983	0.000892719	0	0	0	
0.121667	-0.0318839	0.0118254	0.00130927	0.000705756	0	0	0	
0.121833	0.0538838	0.00906972	0.000909101	0.000446352	0	0	0	
0.122	-0.0307105	0.0217951	0.000852401	0.000320488	0	0	0	
0.122167	-0.00297137	-0.00847263	0.000693522	0.000383105	0	0	0	
0.122333	-0.0106559	0.00309818	0.000583319	0.000429632	0	0	0	
0.1225	0.00896042	0.0163612	0.000452599	0.0003368	0	0	0	
0.122667	-0.0164725	-0.0301854	0.000650449	0.000396041	0	0	0	
0.122833	0.0177002	0.0220939	0.000875363	0.000400424	0	0	0	
0.123	-0.0183057	-0.0118253	0.00101687	0.000607445	0	0	0	
0.123167	0.0363045	-0.00677389	0.00108872	0.000700539	0	0	0	
0.123333	-0.0535036	0.0308225	0.00106551	0.000839886	0	0	0	
0.1235	0.0327792	-0.0437461	0.000952021	0.000825691	0	0	0	
0.123667	0.0105699	0.0668775	0.000730191	0.00080085	0	0	0	
0.123833	-0.0254374	-0.0596639	0.000543214	0.00111958	0	0	0	
0.124	-0.00152873	0.00677307	0.00057533	0.00106722	0	0	0	
0.124167	0.0189386	0.0167616	0.000551664	0.000886929	0	0	0	
0.124333	0.0240541	0.00709636	0.000528783	0.000369659	0	0	0	
0.1245	-0.068382	-0.021737	0.000554282	0.000327319	0	0	0	
0.124667	0.0309769	0.0137642	0.000997375	0.000377162	0	0	0	
0.124833	0.0296982	-0.00384928	0.00152901	0.000486873	0	0	0	
0.125	-0.0553794	0.0042595	0.00158819	0.000572471	0	0	0	
0.125167	0.0278847	-0.0108644	0.00127298	0.000575842	0	0	0	
0.125333	-0.00177911	0.00871022	0.000726461	0.000474676	0	0	0	
0.1255	-0.00944472	0.00549655	0.00043596	0.000290742	0	0	0	
0.125667	0.00797862	0.00228447	0.000356905	0.000266139	0	0	0	
0.125833	-0.0284705	-0.0245229	0.000487972	0.000408137	0	0	0	
0.126	0.0150231	0.032054	0.000532211	0.000566471	0	0	0	
0.126167	0.0189776	-0.0219435	0.000723466	0.000587037	0	0	0	
0.126333	-0.021793	0.0244648	0.00078601	0.000528533	0	0	0	
0.1265	0.00400053	-0.0186002	0.000790181	0.000463005	0	0	0	
0.126667	0.0129801	0.0193714	0.000488981	0.000493114	0	0	0	
0.126833	-0.00692741	-0.0244681	0.000366741	0.000519748	0	0	0	
0.127	-0.0394752	-0.0133766	0.000618715	0.000567453	0	0	0	
0.127167	0.0505379	-0.0157771	0.00088834	0.00056315	0	0	0	
0.127333	-0.0052292	-0.00512139	0.000933847	0.000556329	0	0	0	
0.1275	-0.0295895	0.0154914	0.000674863	0.000467374	0	0	0	
0.127667	0.00679113	0.00167652	0.00060668	0.00033532	0	0	0	
0.127833	0.00639271	-0.0211895	0.000545799	0.000320057	0	0	0	
0.128	0.00248615	0.00506536	0.00051836	0.000426914	0	0	0	
0.128167	0.0292096	-0.0142122	0.000703117	0.000425825	0	0	0	
0.128333	-0.0433579	0.0225554	0.00104404	0.000415957	0	0	0	
0.1285	-0.0190879	-0.0358377	0.00109128	0.000485006	0	0	0	
0.128667	0.13465	0.0256936	0.0012796	0.000697828	0	0	0	
0.128833	-0.0553314	-0.0426745	0.00134951	0.000961056	0	0	0	
0.129	-0.00163875	0.0175255	0.00166995	0.000970859	0	0	0	
0.129167	0.0503689	0.020554	0.001492	0.00081272	0	0	0	
0.129333	-0.0681183	-0.00507814	0.00131772	0.000582701	0	0	0	
0.1295	0.0356021	-0.017284	0.00120122	0.000447178	0	0	0	
0.129667	0.0419167	0.0256038	0.00138986	0.000515945	0	0	0	
0.129833	0.00826065	-0.0417093	0.00169628	0.000567347	0	0	0	
0.13	0.0273391	0.0159602	0.00173623	0.000706737	0	0	0	
0.130167	-0.0305283	-0.0143976	0.00123308	0.000701078	0	0	0	
0.130333	0.00197267	0.00954353	0.00105367	0.000616735	0	0	0	
0.1305	0.0233575	-0.026969	0.00132444	0.000447221	0	0	0	
0.130667	-0.0477256	0.0262409	0.00163128	0.000509813	0	0	0	
0.130833	0.0469125	-0.0193284	0.00139934	0.000544493	0	0	0	
0.131	-0.0195275	0.0211204	0.000971124	0.000488157	0	0	0	
0.131167	-0.000406721	-0.0256384	0.000628015	0.000474851	0	0	0	
0.131333	-0.0162494	0.0185427	0.000563968	0.000475284	0	0	0	
0.1315	0.0326181	-0.00169068	0.000568875	0.000465284	0	0	0	
0.131667	-0.0255479	0.00509164	0.000673033	0.000249835	0	0	0	
0.131833	0.0117996	-0.0371884	0.000573377	0.00027617	0	0	0	
0.132	0.0106304	0.0706932	0.000423646	0.000510715	0	0	0	
0.132167	-0.0289867	-0.0649044	0.000331927	0.00109476	0	0	0	
0.132333	0.0291209	0.0813972	0.000408038	0.00145524	0	0	0	
0.1325	-0.00829109	-0.0368688	0.000705858	0.00172976	0	0	0	
0.132667	-0.0234783	0.0222186	0.00103139	0.00129206	0	0	0	
0.132833	0.0324711	-0.00996533	0.00108143	0.00146315	0	0	0	
0.133	-0.0136224	-0.0528673	0.000821624	0.00151937	0	0	0	
0.133167	0.00744365	-0.00492408	0.000478483	0.00158621	0	0	0	
0.133333	0.00162682	0.239187	0.000257566	0.00197521	0	0	0	
0.1335	-0.0110547	-0.203838	0.000270965	0.00354055	0	0	0	
0.133667	-0.00893525	0.17092	0.000432827	0.00436483	0	0	0	
0.133833	0.0216694	-0.140951	0.000654833	0.00458513	0	0	0	
0.134	-0.0138097	0.0878415	0.000691842	0.00421195	0	0	0	
0.134167	0.0148915	0.00107699	0.000546053	0.00400747	0	0	0	
0.134333	-0.0155513	-0.0177881	0.000421883	0.00299086	0	0	0	
0.1345	-0.00972558	0.129469	0.000307357	0.00268197	0	0	0	
0.134667	0.0128782	-0.0244682	0.000278441	0.00339758	0	0	0	
0.134833	0.0204528	-0.142273	0.000464829	0.0040422	0	0	0	
0.135	-0.0450857	0.202869	0.000756059	0.00380619	0	0	0	
0.135167	0.0260939	-0.0557573	0.000873845	0.00298253	0	0	0	
0.135333	-0.00482044	0.00595003	0.000673028	0.00229011	0	0	0	
0.1355	0.0106491	-0.0213696	0.000512153	0.00114716	0	0	0	
0.135667	-0.0244249	0.0537622	0.000509525	0.000732597	0	0	0	
0.135833	0.0105613	-0.0490589	0.000497685	0.000762152	0	0	0	
0.136	0.015032	0.0218808	0.000367219	0.000920651	0	0	0	
0.136167	-0.0113629	-0.00314288	0.000326653	0.000836026	0	0	0	
0.136333	-0.0103484	0.00266106	0.000505318	0.000556378	0	0	0	
0.1365	0.0218678	-0.0220761	0.000682491	0.000385618	0	0	0	
0.136667	-0.0171734	0.0233679	0.000678622	0.000292007	0	0	0	
0.136833	0.016278	-0.00383616	0.000549415	0.000368629	0	0	0	
0.137	-0.0237456	-0.00751596	0.000541842	0.000308904	0	0	0	
0.137167	0.0308098	-0.0125516	0.00059213	0.000254491	0	0	0	
0.137333	-0.0148673	0.0200403	0.000546773	0.000303589	0	0	0	
0.1375	-0.000181387	-0.0449556	0.000413639	0.000478903	0	0	0	
0.137667	0.000530543	-0.00752608	0.000297443	0.000606183	0	0	0	
0.137833	0.00448547	-0.000337308	0.000405985	0.000712222	0	0	0	
0.138	-0.0271411	-0.00521964	0.000551867	0.000673003	0	0	0	
0.138167	0.0414088	-0.000868595	0.000682355	0.000487788	0	0	0	
0.138333	-0.023703	0.0046543	0.000659031	0.0003878	0	0	0	
0.1385	0.0102306	-0.0664343	0.000568549	0.000414761	0	0	0	
0.138667	-0.00527283	0.0516812	0.00039518	0.000829283	0	0	0	
0.138833	0.000706178	-0.0651301	0.000234676	0.00109404	0	0	0	
0.139	-0.000600973	0.0172395	0.000117679	0.00129393	0	0	0	
0.139167	0.0120317	-0.00809738	0.000224062	0.00101571	0	0	0	
0.139333	-0.0385567	-0.0103992	0.000472167	0.000679694	0	0	0	
0.1395	0.0473867	-0.0186199	0.000741084	0.000364426	0	0	0	
0.139667	-0.0306372	0.0280621	0.000844509	0.000463107	0	0	0	
0.139833	0.0188212	-0.0403461	0.000693102	0.000599067	0	0	0	
0.14	-0.019806	0.0322621	0.000529497	0.000742953	0	0	0	
0.140167	0.0113483	-0.023238	0.000360613	0.000677705	0	0	0	
0.140333	-0.00459275	0.00424287	0.000314063	0.000577679	0	0	0	
0.1405	0.0107695	-0.0121832	0.000334061	0.000400902	0	0	0	
0.140667	-0.0232849	0.00509962	0.00043307	0.000291526	0	0	0	
0.140833	0.0205706	-0.00581691	0.000511802	0.000182878	0	0	0	
0.141	-0.0226685	0.0162514	0.000488694	0.000183848	0	0	0	
0.141167	0.00927977	-0.0236739	0.000395348	0.000223589	0	0	0	
0.141333	0.00462685	0.0192798	0.000293625	0.000350021	0	0	0	
0.1415	0.00120781	-0.0173809	0.000273355	0.000419565	0	0	0	
0.141667	-0.0165759	0.0177761	0.000304619	0.00039579	0	0	0	
0.141833	0.0145489	-0.0256056	0.000363871	0.000429244	0	0	0	
0.142	-0.0120091	0.0173124	0.000340805	0.000416348	0	0	0	
0.142167	0.0212654	-0.0254989	0.000349266	0.000463813	0	0	0	
0.142333	-0.0160185	0.0195488	0.000370515	0.000432997	0	0	0	
0.1425	-0.00256559	-0.0221879	0.000356889	0.000437999	0	0	0	
0.142667	-0.00116728	0.0129891	0.00024682	0.000372987	0	0	0	
0.142833	0.0199402	-0.00917571	0.000230005	0.000329852	0	0	0	
0.143	-0.019192	-0.00772827	0.000301738	0.000258021	0	0	0	
0.143167	0.0128672	-0.014475	0.00039356	0.000233009	0	0	0	
0.143333	-0.0120709	0.0292024	0.000421591	0.000244444	0	0	0	
0.1435	0.0284237	-0.0439369	0.000472149	0.000440395	0	0	0	
0.143667	-0.0212596	0.0203518	0.000507958	0.000550561	0	0	0	
0.143833	0.0110476	-0.0140291	0.000464501	0.000561068	0	0	0	
0.144	-0.0120467	0.0113069	0.00035251	0.000419028	0	0	0	
0.144167	0.0168653	-0.0186504	0.000317481	0.000284365	0	0	0	
0.144333	-0.00857207	0.0155411	0.000276213	0.000313073	0	0	0	
0.1445	0.00750772	0.00883174	0.000274284	0.000264657	0	0	0	
0.144667	-0.0161623	-0.0495119	0.000284331	0.000500621	0	0	0	
0.144833	0.0197011	0.00345843	0.000317793	0.000507335	0	0	0	
0.145	-0.0118265	0.0235456	0.000339307	0.000561086	0	0	0	
0.145167	0.0144147	-0.0218142	0.000313659	0.000403276	0	0	0	
0.145333	-0.0239305	0.0208581	0.000334871	0.000418509	0	0	0	
0.1455	0.0161133	-0.0150582	0.000376271	0.000396548	0	0	0	
0.145667	-0.0108593	-0.00123791	0.000355881	0.000545883	0	0	0	
0.145833	0.00801338	-0.0104535	0.000321431	0.000703229	0	0	0	
0.146	-0.0112975	0.00673485	0.00029166	0.000766376	0	0	0	
0.146167	0.0183158	-0.00755045	0.000364223	0.000562358	0	0	0	
0.146333	-0.0364067	0.0143516	0.000495111	0.000314604	0	0	0	
0.1465	0.042696	-0.0158869	0.000663271	0.000246749	0	0	0	
0.146667	-0.0394689	0.0156133	0.000730869	0.000285489	0	0	0	
0.146833	0.0168578	-0.0101223	0.000718851	0.000300898	0	0	0	
0.147	0.00199697	0.0124643	0.000509702	0.000290415	0	0	0	
0.147167	0.00302827	-0.0155445	0.000330641	0.000272571	0	0	0	
0.147333	-0.00659103	0.0132141	0.00019201	0.000267124	0	0	0	
0.1475	0.000926281	-0.00985078	0.000174274	0.000262983	0	0	0	
0.147667	-0.0113094	0.0141452	0.00027986	0.000255748	0	0	0	
0.147833	0.0312582	-0.0101472	0.000521115	0.000248361	0	0	0	
0.148	-0.0358031	0.0192812	0.000757703	0.000264893	0	0	0	
0.148167	0.0261419	-0.0250771	0.000803213	0.000335541	0	0	0	
0.148333	-0.0196783	0.0330645	0.000655444	0.000422828	0	0	0	
0.1485	0.0254711	-0.0176355	0.000475324	0.000503282	0	0	0	
0.148667	-0.0122503	0.0132942	0.000413102	0.000516059	0	0	0	
0.148833	0.00111432	-0.00966402	0.000332899	0.000453674	0	0	0	
0.149	-0.0025839	0.0149874	0.000410989	0.000380866	0	0	0	
0.149167	0.00204452	-0.0129319	0.000548845	0.000360258	0	0	0	
0.149333	-0.0225475	0.0191886	0.000672532	0.000359283	0	0	0	
0.1495	0.0348524	-0.014781	0.000656117	0.000405516	0	0	0	
0.149667	-0.0268709	0.0162989	0.000584211	0.0003717	0	0	0	
0.149833	0.00752861	-0.0144572	0.00052372	0.000351234	0	0	0	
0.15	0.0118432	0.0113619	0.000412625	0.000300645	0	0	0	
0.150167	-0.00437848	-0.0104944	0.000322669	0.000285834	0	0	0	
0.150333	-0.022878	0.00721589	0.000345329	0.000246242	0	0	0	
0.1505	0.0340231	-0.00519165	0.000490997	0.000200004	0	0	0	
0.150667	-0.0251435	0.000531303	0.00056807	0.000119652	0	0	0	
0.150833	0.0154446	-0.00914057	0.000531986	0.000108429	0	0	0	
0.151	-0.0035311	0.0181922	0.000384698	0.000152842	0	0	0	
0.151167	0.0102722	-0.0257452	0.000275583	0.000282366	0	0	0	
0.151333	-0.0215327	0.0185164	0.000269779	0.000390818	0	0	0	
0.1515	0.0206345	-0.012336	0.000340232	0.000397803	0	0	0	
0.151667	-0.00746339	0.00423465	0.000357736	0.000312817	0	0	0	
0.151833	0.00650331	-0.0126412	0.000281395	0.000278389	0	0	0	
0.152	-0.0110975	0.0115767	0.000224119	0.000237923	0	0	0	
0.152167	0.0156342	-0.0173873	0.000210372	0.000300243	0	0	0	
0.152333	-0.0232609	0.0163491	0.000297007	0.000293514	0	0	0	
0.1525	0.0293691	-0.0150782	0.000409416	0.00033264	0	0	0	
0.152667	-0.0264886	0.00559247	0.000485858	0.000255196	0	0	0	
0.152833	0.00910591	-0.0147948	0.000486154	0.000244825	0	0	0	
0.153	-0.00214174	0.00965864	0.000392157	0.000210382	0	0	0	
0.153167	0.0063275	-0.0171089	0.000271884	0.000280454	0	0	0	
0.153333	-0.00644052	0.0140172	0.000201442	0.000268591	0	0	0	
0.1535	0.00374476	-0.0227076	0.000215764	0.000333825	0	0	0	
0.153667	-0.0375673	0.0264559	0.000477712	0.000365001	0	0	0	
0.153833	0.104524	-0.0324473	0.000849416	0.000471029	0	0	0	
0.154	-0.167927	0.0619303	0.00162403	0.00086018	0	0	0	
0.154167	0.151396	-0.0479847	0.00295997	0.00147141	0	0	0	
0.154333	-0.00613549	-0.0192861	0.00318147	0.00152597	0	0	0	
0.1545	0.0100194	0.0180769	0.00287662	0.00113498	0	0	0	
0.154667	-0.0184756	-0.00718862	0.00178149	0.000457921	0	0	0	
0.154833	0.0384649	-0.0125446	0.00152445	0.000254411	0	0	0	
0.155	-0.0991486	0.0292483	0.00154962	0.000286432	0	0	0	
0.155167	0.193876	-0.0855885	0.00214982	0.000932404	0	0	0	
0.155333	-0.0508464	0.0293111	0.00237637	0.00128897	0	0	0	
0.1555	0.0592205	-0.0310267	0.00221771	0.00129221	0	0	0	
0.155667	-0.0514644	0.037708	0.00141605	0.000825032	0	0	0	
0.155833	0.0671573	-0.0259472	0.00131231	0.000664514	0	0	0	
0.156	-0.108966	0.0190544	0.00164259	0.000739828	0	0	0	
0.156167	0.121511	-0.00510473	0.00201283	0.000687217	0	0	0	
0.156333	-0.0941645	-0.00270301	0.00210265	0.000662116	0	0	0	
0.1565	0.0615777	0.0145902	0.00187574	0.000498404	0	0	0	
0.156667	-0.0406916	0.00695301	0.00161182	0.00035671	0	0	0	
0.156833	-0.000270437	-0.0194088	0.00135833	0.000250832	0	0	0	
0.157	0.0120099	0.0280216	0.00105795	0.000333217	0	0	0	
0.157167	-0.114969	-0.0120949	0.00105275	0.000573883	0	0	0	
0.157333	-0.00221079	-0.0128533	0.00135697	0.000945409	0	0	0	
0.1575	0.0804494	0.0101038	0.00183147	0.00122233	0	0	0	
0.157667	-0.036909	-0.00646391	0.00189081	0.00110647	0	0	0	
0.157833	0.0240021	-0.00708126	0.00151323	0.000678871	0	0	0	
0.158	-0.0366705	0.0214364	0.00104784	0.000359709	0	0	0	
0.158167	-0.00757382	-0.0333132	0.000647709	0.000315057	0	0	0	
0.158333	-0.107714	0.0540615	0.0010719	0.000710033	0	0	0	
0.1585	0.0558256	-0.0482053	0.00148976	0.000928465	0	0	0	
0.158667	-0.0639403	0.0343609	0.00240172	0.00133742	0	0	0	
0.158833	0.00782423	-0.00695244	0.0018627	0.00110749	0	0	0	
0.159	-0.00476665	0.00207413	0.00131107	0.000860887	0	0	0	
0.159167	0.0164435	-0.00586728	0.000364395	0.000360722	0	0	0	
0.159333	-0.0397777	0.0150668	0.000373323	0.00024907	0	0	0	
0.1595	0.0535596	-0.0196581	0.000512564	0.00028784	0	0	0	
0.159667	-0.033729	0.0133144	0.000997638	0.000454401	0	0	0	
0.159833	0.0369704	-0.0152687	0.00104985	0.000413267	0	0	0	
0.16	-0.0431261	0.0224433	0.00116919	0.000415616	0	0	0	
0.160167	0.0436715	-0.0209832	0.00101482	0.000358173	0	0	0	
0.160333	-0.0467424	0.021466	0.00109211	0.000478546	0	0	0	
0.1605	0.0300946	-0.0024835	0.00101092	0.000492923	0	0	0	
0.160667	-0.0372406	0.00329453	0.000940679	0.000403184	0	0	0	
0.160833	0.00895348	0.00164936	0.000809822	0.000314569	0	0	0	
0.161	0.000248099	0.0164809	0.000590689	0.000252335	0	0	0	
0.161167	-0.00700044	-0.01818	0.00034172	0.000288852	0	0	0	
0.161333	-0.00394798	0.0262864	0.000267347	0.000307548	0	0	0	
0.1615	0.00134946	-0.0254428	0.000317205	0.000402707	0	0	0	
0.161667	-0.0131458	0.0310649	0.00038107	0.000470659	0	0	0	
0.161833	0.014896	-0.0240948	0.000460514	0.000539748	0	0	0	
0.162	-0.0211773	0.0146005	0.000499491	0.000492515	0	0	0	
0.162167	0.0287546	-0.00890717	0.000508136	0.000422878	0	0	0	
0.162333	-0.028475	0.0111424	0.000481299	0.000336786	0	0	0	
0.1625	0.0209936	-0.0142461	0.000497092	0.000324239	0	0	0	
0.162667	-0.0272082	0.0112134	0.000476506	0.000317891	0	0	0	
0.162833	0.0198131	-0.00423301	0.000467009	0.000283071	0	0	0	
0.163	-0.0218093	0.00402299	0.00044522	0.000193476	0	0	0	
0.163167	0.0252075	-0.00917164	0.000482065	0.000141827	0	0	0	
0.163333	-0.0237312	0.0155785	0.000492642	0.000155519	0	0	0	
0.1635	0.0193575	-0.0205981	0.000478198	0.000269442	0	0	0	
0.163667	-0.0265672	0.0236818	0.000443459	0.000351386	0	0	0	
0.163833	0.0256308	-0.0226621	0.00046851	0.00044982	0	0	0	
0.164	-0.0318108	0.00938395	0.000488967	0.000431219	0	0	0	
0.164167	-0.00149948	-0.000505119	0.000576926	0.000420119	0	0	0	
0.164333	-0.0147422	-0.00865715	0.000875968	0.000324244	0	0	0	
0.1645	-0.0200638	0.000493918	0.00113209	0.000226473	0	0	0	
0.164667	0.0121753	0.0124535	0.000988738	0.000145638	0	0	0	
0.164833	0.0215163	-0.0175161	0.000761876	0.000161763	0	0	0	
0.165	-0.0526318	0.0159698	0.000578321	0.000233661	0	0	0	
0.165167	0.0467598	-0.0197808	0.000808366	0.000352128	0	0	0	
0.165333	-0.0747916	0.00750219	0.00106483	0.000377691	0	0	0	
0.1655	0.0418038	-0.0110565	0.00123571	0.000424106	0	0	0	
0.165667	-0.018316	0.0141955	0.00117288	0.000379829	0	0	0	
0.165833	0.00250022	-0.0164854	0.000768292	0.000362031	0	0	0	
0.166	-0.0173038	0.0201965	0.000422988	0.000352452	0	0	0	
0.166167	0.0375189	-0.0189726	0.00034898	0.000406662	0	0	0	
0.166333	-0.0255717	0.00617482	0.000444624	0.000386019	0	0	0	
0.1665	-0.00134951	-0.00699315	0.000571173	0.00033424	0	0	0	
0.166667	0.0202611	0.00208793	0.000451222	0.000192959	0	0	0	
0.166833	0.0118421	-0.00677761	0.000414183	0.00014203	0	0	0	
0.167	-0.0418403	0.0132996	0.000396131	0.000107318	0	0	0	
0.167167	0.0353637	-0.0209386	0.000604979	0.000213859	0	0	0	
0.167333	-0.0135183	0.013795	0.000617514	0.000280508	0	0	0	
0.1675	0.00350384	-0.0121774	0.000495799	0.00034139	0	0	0	
0.167667	-0.00458657	0.00740481	0.000282076	0.00026494	0	0	0	
0.167833	0.009173	-0.0125889	0.00013831	0.000252656	0	0	0	
0.168	-0.0103552	0.0117114	0.000159446	0.00026477	0	0	0	
0.168167	0.0204236	-0.00404198	0.000228854	0.000302327	0	0	0	
0.168333	-0.0195191	0.003474	0.000311092	0.00025264	0	0	0	
0.1685	0.00448382	-0.00853579	0.000359401	0.00018512	0	0	0	
0.168667	0.00113278	0.0111	0.000333187	0.000138253	0	0	0	
0.168833	0.00332488	-0.010062	0.000233544	0.000187812	0	0	0	
0.169	-0.0184999	0.0124672	0.00020052	0.000235979	0	0	0	
0.169167	0.0193537	-0.011561	0.000273445	0.000273071	0	0	0	
0.169333	-0.00697799	0.00931255	0.000466597	0.000288881	0	0	0	
0.1695	-0.000976579	-0.0017656	0.000558925	0.000284885	0	0	0	
0.169667	-0.00542758	-0.0024027	0.000495193	0.000263972	0	0	0	
0.169833	0.0123581	-0.00188435	0.000360524	0.000196829	0	0	0	
0.17	-0.0163436	0.0138747	0.000275975	0.000179956	0	0	0	
0.170167	0.0214118	-0.0159057	0.000284986	0.000199814	0	0	0	
0.170333	-0.030928	0.0196288	0.000390313	0.000302481	0	0	0	
0.1705	0.0312664	-0.0237082	0.000520969	0.000347908	0	0	0	
0.170667	-0.0270461	0.0287981	0.000659258	0.000441722	0	0	0	
0.170833	0.0196099	-0.0271077	0.000655967	0.000514136	0	0	0	
0.171	-0.0185769	0.0207619	0.000564499	0.000596642	0	0	0	
0.171167	0.0159423	-0.0188451	0.000430751	0.000537216	0	0	0	
0.171333	-0.0208232	0.0195359	0.0003927	0.000474021	0	0	0	
0.1715	0.0273604	-0.0245657	0.00038697	0.000395341	0	0	0	
0.171667	-0.0385326	0.0241967	0.00048948	0.00045323	0	0	0	
0.171833	0.0260013	-0.0196666	0.0005631	0.000470983	0	0	0	
0.172	-0.00851338	0.008739	0.000609376	0.000431532	0	0	0	
0.172167	-0.00229858	-0.01036	0.000453751	0.000302308	0	0	0	
0.172333	-0.0182625	0.0109919	0.000311945	0.000226667	0	0	0	
0.1725	0.0245412	-0.0217816	0.000266296	0.000238935	0	0	0	
0.172667	-0.0306308	0.0340688	0.000395934	0.000375642	0	0	0	
0.172833	0.028663	-0.0315722	0.000512928	0.000519046	0	0	0	
0.173	-0.034875	0.0141078	0.000575941	0.0005346	0	0	0	
0.173167	0.0312628	-0.0139791	0.000591853	0.000503384	0	0	0	
0.173333	-0.0220225	0.0173044	0.000592222	0.000432528	0	0	0	
0.1735	0.0154234	-0.0181569	0.000512583	0.000462151	0	0	0	
0.173667	-0.0247226	0.0206355	0.000434045	0.000447867	0	0	0	
0.173833	0.0263994	-0.0124693	0.000410266	0.000406867	0	0	0	
0.174	-0.0124419	0.00966749	0.000427447	0.00031415	0	0	0	
0.174167	0.00981918	-0.0233077	0.000379232	0.000289344	0	0	0	
0.174333	-0.0196074	0.0222808	0.000342567	0.000320565	0	0	0	
0.1745	0.0322129	-0.0157729	0.000372912	0.000432756	0	0	0	
0.174667	-0.0302935	0.0077125	0.000489915	0.000423706	0	0	0	
0.174833	0.0285815	-0.00486417	0.00055578	0.000325694	0	0	0	
0.175	-0.0291218	0.00862507	0.000580242	0.000202336	0	0	0	
0.175167	0.0273954	-0.012334	0.000577692	0.000187714	0	0	0	
0.175333	-0.010083	0.0129605	0.000567528	0.000240833	0	0	0	
0.1755	0.00368409	-0.0142575	0.000453036	0.000305054	0	0	0	
0.175667	-0.0214723	0.0135429	0.00037997	0.000318515	0	0	0	
0.175833	0.0390752	-0.0128821	0.000425646	0.000336248	0	0	0	
0.176	-0.0392125	0.00965577	0.000594952	0.000354377	0	0	0	
0.176167	0.0262821	-0.00750138	0.00068022	0.000357515	0	0	0	
0.176333	-0.0239652	0.011463	0.000607575	0.000347241	0	0	0	
0.1765	0.0150674	-0.00346609	0.000486304	0.000323082	0	0	0	
0.176667	-0.00442824	0.00328888	0.0003894	0.000319111	0	0	0	
0.176833	-0.00311281	-0.00254189	0.000277188	0.000277323	0	0	0	
0.177	-0.0150265	0.0112262	0.000341528	0.000251167	0	0	0	
0.177167	0.030464	-0.00860128	0.000412013	0.000220865	0	0	0	
0.177333	-0.0296313	0.0148981	0.000536296	0.000266728	0	0	0	
0.1775	0.0110139	-0.0111903	0.000524049	0.00029987	0	0	0	
0.177667	-0.00398497	0.0156361	0.000450779	0.00034337	0	0	0	
0.177833	0.00903711	-0.0130177	0.000330967	0.00036453	0	0	0	
0.178	-0.0158767	0.0202356	0.000246921	0.000413368	0	0	0	
0.178167	0.0259944	-0.0218237	0.000288818	0.000450644	0	0	0	
0.178333	-0.0224531	0.0337852	0.000397452	0.000580045	0	0	0	
0.1785	0.0148301	-0.00856048	0.000445217	0.000660027	0	0	0	
0.178667	-0.0173254	0.000376083	0.000424775	0.000624292	0	0	0	
0.178833	0.0177899	-0.00676709	0.000369682	0.0004313	0	0	0	
0.179	-0.0122767	0.00736729	0.000335513	0.000255861	0	0	0	
0.179167	0.0269727	-0.012919	0.000334736	0.000200716	0	0	0	
0.179333	-0.0217668	0.025599	0.000375724	0.000262218	0	0	0	
0.1795	0.0188719	-0.0154544	0.000435168	0.000359392	0	0	0	
0.179667	-0.01046	0.00872401	0.000444824	0.000364316	0	0	0	
0.179833	0.0107598	-0.00847543	0.000374329	0.00035866	0	0	0	
0.18	-0.0222212	0.00855386	0.000322223	0.000327803	0	0	0	
0.180167	0.0331372	-0.00959755	0.000351926	0.000381952	0	0	0	
0.180333	-0.0304342	0.00922397	0.000494684	0.000378469	0	0	0	
0.1805	0.0339575	-0.0102111	0.000599208	0.000395494	0	0	0	
0.180667	-0.0272167	0.00885847	0.000632554	0.000414754	0	0	0	
0.180833	0.0223017	-0.00773698	0.000596632	0.000416056	0	0	0	
0.181	-0.0240752	0.00745893	0.000542443	0.000395775	0	0	0	
0.181167	0.0166688	-0.00147323	0.000467257	0.000350526	0	0	0	
0.181333	-0.0139526	0.00516938	0.000423561	0.000305403	0	0	0	
0.1815	0.00143943	-0.0103812	0.000354408	0.000282675	0	0	0	
0.181667	-0.000634845	0.0112604	0.000250425	0.000288043	0	0	0	
0.181833	0.0123959	-0.013762	0.000161867	0.000303533	0	0	0	
0.182	-0.0159146	0.0148771	0.000159779	0.000308452	0	0	0	
0.182167	0.0117445	-0.0100406	0.000235494	0.000321475	0	0	0	
0.182333	-0.0235233	0.00668446	0.000300961	0.000351518	0	0	0	
0.1825	0.0252537	-0.00923653	0.000367262	0.000372514	0	0	0	
0.182667	-0.0201955	0.0128016	0.000469022	0.000371064	0	0	0	
0.182833	0.0108589	-0.00933021	0.000515555	0.000359291	0	0	0	
0.183	-0.0170053	0.00749444	0.000485911	0.000345598	0	0	0	
0.183167	0.0304595	-0.00897912	0.000432864	0.000330335	0	0	0	
0.183333	-0.0239029	0.00759754	0.000481452	0.000321019	0	0	0	
0.1835	0.0144272	-0.0051634	0.000564962	0.000320391	0	0	0	
0.183667	-0.00804171	0.00148196	0.000553654	0.000309722	0	0	0	
0.183833	0.00683102	-0.00501959	0.000421701	0.000268874	0	0	0	
0.184	-0.00845536	0.00802041	0.000278839	0.000228899	0	0	0	
0.184167	0.0091188	-0.00914137	0.000212595	0.000214082	0	0	0	
0.184333	-0.0121913	0.0113678	0.000228236	0.000242974	0	0	0	
0.1845	0.0217816	-0.00916555	0.000251862	0.000235931	0	0	0	
0.184667	-0.0221779	0.00547126	0.000316887	0.000248804	0	0	0	
0.184833	0.0198659	-0.00439717	0.00038005	0.000269803	0	0	0	
0.185	-0.0132002	0.000913511	0.000409635	0.000320497	0	0	0	
0.185167	0.0157783	-0.00502612	0.000415023	0.000343572	0	0	0	
0.185333	-0.0191722	0.00631096	0.00040185	0.000327944	0	0	0	
0.1855	0.0179797	-0.0044855	0.000446712	0.000303822	0	0	0	
0.185667	-0.016695	0.00680605	0.000460777	0.000317695	0	0	0	
0.185833	0.0173547	-0.0075113	0.000445608	0.000364776	0	0	0	
0.186	-0.0110211	0.00196074	0.000365404	0.000411247	0	0	0	
0.186167	0.0101965	-0.0046339	0.00036534	0.000396563	0	0	0	
0.186333	-0.0071694	0.00520487	0.000373863	0.0003182	0	0	0	
0.1865	9.772E-05	-0.00590236	0.000371705	0.000242669	0	0	0	
0.186667	-0.00146877	0.00827148	0.000241102	0.000214263	0	0	0	
0.186833	0.0202595	-0.0126319	0.000243129	0.000245943	0	0	0	
0.187	-0.0422216	0.00633133	0.000360134	0.000290824	0	0	0	
0.187167	0.055132	-0.00825985	0.000653536	0.000359037	0	0	0	
0.187333	-0.0392303	0.0007271	0.000877189	0.000377242	0	0	0	
0.1875	0.0136569	0.00327189	0.00100107	0.000348971	0	0	0	
0.187667	-0.00625707	0.000406377	0.000902553	0.000275457	0	0	0	
0.187833	0.0128052	-0.000759571	0.000673517	0.000253845	0	0	0	
0.188	-0.186963	0.0573892	0.000978661	0.000398422	0	0	0	
0.188167	0.0714334	-0.0213944	0.00194297	0.000755373	0	0	0	
0.188333	-0.0475805	0.0152137	0.00209315	0.000741426	0	0	0	
0.1885	0.0604158	-0.00674838	0.0017775	0.000679671	0	0	0	
0.188667	-0.0646266	-0.00119477	0.000998507	0.000399824	0	0	0	
0.188833	0.0467622	-0.00302916	0.00114596	0.000414798	0	0	0	
0.189	-0.0140939	-0.0108082	0.00118873	0.00034237	0	0	0	
0.189167	0.0110998	0.00574719	0.00109493	0.000305355	0	0	0	
0.189333	-0.024494	-0.00418931	0.00085504	0.000303805	0	0	0	
0.1895	0.0198769	0.00273995	0.000693615	0.000269341	0	0	0	
0.189667	-0.00272473	0.00101293	0.000574648	0.000168502	0	0	0	
0.189833	-0.00369466	-0.00543586	0.000495025	9.17284E-05	0	0	0	
0.19	-0.00564981	0.00672841	0.000318036	7.47398E-05	0	0	0	
0.190167	0.0201889	-0.00667751	0.000215507	0.000152951	0	0	0	
0.190333	-0.0102555	0.00349233	0.000224674	0.000251756	0	0	0	
0.1905	0.00341425	-0.00346514	0.000337945	0.000337138	0	0	0	
0.190667	-0.00641852	0.000222955	0.00031844	0.0003342	0	0	0	
0.190833	0.0134454	0.00249675	0.000278337	0.000267214	0	0	0	
0.191	-0.0113585	-0.000208037	0.000255617	0.000179649	0	0	0	
0.191167	0.0147031	-0.00420392	0.000335882	0.000137269	0	0	0	
0.191333	-0.0165976	0.00700948	0.000392316	0.000175205	0	0	0	
0.1915	0.0110615	-0.00435978	0.000423245	0.000268291	0	0	0	
0.191667	-0.0125798	0.00238243	0.000381693	0.000344063	0	0	0	
0.191833	0.00689071	0.000604479	0.000339004	0.000321381	0	0	0	
0.192	-0.00288997	0.00228451	0.000228567	0.000211686	0	0	0	
0.192167	0.0155001	-0.00274536	0.000186204	0.000116656	0	0	0	
0.192333	-0.0292953	0.00561873	0.000223453	8.43687E-05	0	0	0	
0.1925	0.016359	-0.012088	0.000377195	0.000163925	0	0	0	
0.192667	-0.0054071	0.0124496	0.000572421	0.000241435	0	0	0	
0.192833	-0.0112128	-0.0081069	0.000617646	0.000318493	0	0	0	
0.193	0.00491652	-0.000583713	0.000499841	0.000294881	0	0	0	
0.193167	0.016651	0.00100918	0.000290571	0.000222192	0	0	0	
0.193333	-0.0304716	0.00448587	0.000277301	0.000118328	0	0	0	
0.1935	0.0241852	-0.0179822	0.000400759	0.000129981	0	0	0	
0.193667	-0.0189098	0.011811	0.000539431	0.000188578	0	0	0	
0.193833	0.00922522	-0.00410629	0.000510283	0.000279183	0	0	0	
0.194	-0.00986394	-0.00280198	0.000395592	0.000268924	0	0	0	
0.194167	0.0175118	-0.000737857	0.000304203	0.000221544	0	0	0	
0.194333	-0.0188963	0.0013906	0.000294015	0.000138636	0	0	0	
0.1945	0.00394032	-0.00419637	0.000351675	8.43551E-05	0	0	0	
0.194667	0.0139757	0.00872904	0.00041858	9.58078E-05	0	0	0	
0.194833	-0.0153888	-0.0101751	0.000388275	0.000164501	0	0	0	
0.195	0.00176054	0.00382886	0.000344902	0.000246146	0	0	0	
0.195167	0.0188221	0.00259051	0.000259087	0.000279448	0	0	0	
0.195333	-0.0175914	-0.0034021	0.000298189	0.000225995	0	0	0	
0.1955	0.0105341	-0.000453812	0.000470233	0.000139435	0	0	0	
0.195667	-0.0091158	0.00765812	0.000647237	0.000109764	0	0	0	
0.195833	0.000878422	-0.00299155	0.000664908	0.000183966	0	0	0	
0.196	-0.00402556	0.00154302	0.000524933	0.000264556	0	0	0	
0.196167	0.0109358	0.000519791	0.000362185	0.000264481	0	0	0	
0.196333	-0.0203338	0.000307771	0.000315742	0.000218469	0	0	0	
0.1965	0.0297037	0.00372871	0.000358053	0.000196434	0	0	0	
0.196667	-0.0295957	0.00183811	0.000526569	0.000219916	0	0	0	
0.196833	0.00435929	-0.00339661	0.000607395	0.000252793	0	0	0	
0.197	-0.00947678	0.00436499	0.000541306	0.00029536	0	0	0	
0.197167	0.00865718	0.00291551	0.000332131	0.000311908	0	0	0	
0.197333	-0.00764634	-3.87645E-05	0.000234386	0.000270973	0	0	0	
0.1975	0.00255085	-0.00209121	0.000270103	0.00018751	0	0	0	
0.197667	-0.00990651	0.00613855	0.000310861	0.000182006	0	0	0	
0.197833	0.0169994	0.000413932	0.00031779	0.000273844	0	0	0	
0.198	-0.018723	0.00268084	0.000345571	0.000377594	0	0	0	
0.198167	-0.00132881	-0.00238115	0.000495837	0.000375091	0	0	0	
0.198333	0.00107769	0.00267632	0.000586984	0.000287932	0	0	0	
0.1985	0.00945781	-0.00271174	0.000506682	0.0001947	0	0	0	
0.198667	-0.00945304	0.00523079	0.000369921	0.000159602	0	0	0	
0.198833	0.00868234	-0.00502806	0.000342233	0.000203705	0	0	0	
0.199	-0.0023567	0.00566432	0.000384637	0.000299988	0	0	0	
0.199167	0.00960906	0.00104784	0.000364162	0.000346974	0	0	0	
0.199333	-0.0131567	-0.00251945	0.000334781	0.000297706	0	0	0	
0.1995	0.0043306	0.000955267	0.000376243	0.000183338	0	0	0	
0.199667	-0.00295875	0.000842731	0.00042383	0.000112211	0	0	0	
0.199833	0.0122911	-0.00709655	0.000381909	0.000130169	0	0	0	
0.2	-0.0111555	0.00552587	0.000312934	0.000205695	0	0	0	
0.200167	0.0114665	-0.00635559	0.000349468	0.000309404	0	0	0	
0.200333	-0.00444639	0.00334235	0.000429942	0.000370891	0	0	0	
0.2005	0.00630042	0.00126306	0.000449264	0.000357032	0	0	0	
0.200667	-0.0123868	-0.00116986	0.000372493	0.000279937	0	0	0	
0.200833	0.0111241	0.000189864	0.000306536	0.000207164	0	0	0	
0.201	-0.0108183	-0.000416211	0.000259625	0.00020322	0	0	0	
0.201167	0.0170151	-0.000562389	0.000301481	0.000247435	0	0	0	
0.201333	-0.00820288	-0.00105497	0.000371687	0.000271039	0	0	0	
0.2015	-0.000608737	0.000559912	0.000476781	0.00023084	0	0	0	
0.201667	-0.00197752	-0.000549162	0.000425956	0.000159534	0	0	0	
0.201833	0.00295609	9.85243E-06	0.000292192	0.000131815	0	0	0	
0.202	-0.0050157	-0.00213112	0.000198569	0.000180376	0	0	0	
0.202167	0.00909235	0.00157552	0.000219895	0.000262797	0	0	0	
0.202333	-0.0156844	-0.000653129	0.000294877	0.00032776	0	0	0	
0.2025	0.0153084	-0.00180278	0.000376446	0.000350095	0	0	0	
0.202667	-0.0098637	-0.00125024	0.000431661	0.000323574	0	0	0	
0.202833	0.00588003	-0.00167258	0.000437251	0.000265132	0	0	0	
0.203	-0.0108797	0.00500056	0.000385757	0.000211205	0	0	0	
0.203167	0.0160748	-0.00119615	0.000351346	0.000199091	0	0	0	
0.203333	-0.0228774	-0.00265052	0.000390183	0.000228813	0	0	0	
0.2035	0.0214847	0.00318179	0.000444257	0.000243072	0	0	0	
0.203667	-0.0161942	-0.00211351	0.000470479	0.000212355	0	0	0	
0.203833	0.0141637	-0.00182295	0.000419748	0.000145332	0	0	0	
0.204	-0.0217231	0.00315815	0.000383412	9.77958E-05	0	0	0	
0.204167	0.0310707	-0.00205259	0.00039543	0.000111421	0	0	0	
0.204333	-0.0243655	-0.0006018	0.000486877	0.00019855	0	0	0	
0.2045	0.0135692	0.00249017	0.000584892	0.000316193	0	0	0	
0.204667	-0.00266913	-0.00347851	0.00064709	0.000382563	0	0	0	
0.204833	0.00102397	0.00413231	0.000581887	0.000343447	0	0	0	
0.205	-0.00897717	-0.0022922	0.000441937	0.000246173	0	0	0	
0.205167	0.0172925	-0.00804768	0.000367203	0.00019382	0	0	0	
0.205333	-0.0142566	0.00410952	0.000478527	0.00022479	0	0	0	
0.2055	0.00474919	-0.000252681	0.000625483	0.000314344	0	0	0	
0.205667	-0.00984263	-0.00259367	0.000598461	0.000371391	0	0	0	
0.205833	0.0169613	0.00660056	0.000446623	0.000334523	0	0	0	
0.206	-0.023037	-0.00231187	0.00036126	0.00022998	0	0	0	
0.206167	0.0245221	-0.00252525	0.000399499	0.000115306	0	0	0	
0.206333	-0.0293281	0.00145894	0.000490251	7.0042E-05	0	0	0	
0.2065	0.0183808	-0.00614881	0.00054648	7.17754E-05	0	0	0	
0.206667	-0.00126113	0.0079753	0.000590323	0.000128976	0	0	0	
0.206833	-0.00906473	-0.000759678	0.000600476	0.000174782	0	0	0	
0.207	0.0044255	-0.000532039	0.000471721	0.000198786	0	0	0	
0.207167	0.0061652	0.00229938	0.000310406	0.000181644	0	0	0	
0.207333	-0.0159733	-0.00193813	0.00018296	0.000185956	0	0	0	
0.2075	0.00787964	0.0085277	0.000237626	0.000217621	0	0	0	
0.207667	-0.00545984	-0.0113986	0.000373315	0.000289812	0	0	0	
0.207833	0.00608757	0.00960519	0.000481055	0.00032348	0	0	0	
0.208	0.00163646	-0.00753349	0.000534694	0.000298087	0	0	0	
0.208167	-0.0117816	0.00281321	0.000524508	0.000201886	0	0	0	
0.208333	0.00802597	-0.000896084	0.000443858	0.000120532	0	0	0	
0.2085	0.000942361	0.00129111	0.000287632	0.00011665	0	0	0	
0.208667	-0.0146649	-0.000469706	0.000220351	0.000189016	0	0	0	
0.208833	0.00659794	0.00142196	0.000277066	0.000262966	0	0	0	
0.209	-0.00175682	-0.00139994	0.000398929	0.000283496	0	0	0	
0.209167	0.00336978	0.00375321	0.000412695	0.00025675	0	0	0	
0.209333	-0.00401959	-0.00298015	0.000392514	0.000216779	0	0	0	
0.2095	0.000125201	-0.00172642	0.000397237	0.000180422	0	0	0	
0.209667	-0.00553776	-0.00554699	0.000429769	0.000207362	0	0	0	
0.209833	0.0032299	0.0139441	0.000439221	0.000335701	0	0	0	
0.21	0.00717813	-0.0120489	0.000442098	0.00047173	0	0	0	
0.210167	-0.00798668	0.00536803	0.000446515	0.000460244	0	0	0	
0.210333	-0.00397479	0.00434797	0.000395913	0.000304174	0	0	0	
0.2105	0.0131422	-0.00168848	0.000325436	0.000156316	0	0	0	
0.210667	-0.0226279	-0.00224713	0.000321266	0.000156181	0	0	0	
0.210833	0.017952	-0.00373494	0.000438366	0.000239635	0	0	0	
0.211	-0.00819569	-0.00964806	0.000541076	0.000271216	0	0	0	
0.211167	0.00432903	0.00877895	0.000610564	0.000320096	0	0	0	
0.211333	-0.00221281	0.000719842	0.000565056	0.000305211	0	0	0	
0.2115	-0.000377592	0.00502032	0.000440236	0.000307689	0	0	0	
0.211667	-0.00269464	-0.0141646	0.000243442	0.000247059	0	0	0	
0.211833	0.00686053	0.022075	0.000130106	0.000301632	0	0	0	
0.212	-0.00498523	-0.0340847	0.000136202	0.000445092	0	0	0	
0.212167	-0.00278792	0.0212273	0.000196622	0.00063218	0	0	0	
0.212333	-0.00261316	0.00122419	0.000257028	0.000580053	0	0	0	
0.2125	-0.00726496	-0.00760477	0.000330848	0.000406075	0	0	0	
0.212667	0.0105515	0.00400511	0.000398158	0.000187139	0	0	0	
0.212833	0.000839334	0.000971431	0.000421013	0.00024862	0	0	0	
0.213	-0.0012697	-0.00440091	0.000385838	0.000443295	0	0	0	
0.213167	0.00165637	0.00515813	0.000365999	0.000591866	0	0	0	
0.213333	-0.0050344	-0.00294613	0.000416956	0.000556158	0	0	0	
0.2135	-0.00451466	0.000127604	0.000496078	0.000383999	0	0	0	
0.213667	0.00409725	-0.000815785	0.000477679	0.000213225	0	0	0	
0.213833	0.0122212	-0.00445404	0.000345757	0.000131202	0	0	0	
0.214	-0.0172874	0.0060656	0.000273769	0.000147585	0	0	0	
0.214167	0.0190278	-0.00461434	0.000333818	0.000223215	0	0	0	
0.214333	-0.0102739	-0.00392149	0.000467426	0.00030297	0	0	0	
0.2145	0.0138181	0.00358765	0.000551185	0.000324174	0	0	0	
0.214667	0.00131853	-0.00758956	0.000556965	0.000262651	0	0	0	
0.214833	-0.00922264	0.00154713	0.000506444	0.000169274	0	0	0	
0.215	0.00212059	-0.00687057	0.000335697	9.6911E-05	0	0	0	
0.215167	0.020421	0.00336851	0.000239056	0.00012065	0	0	0	
0.215333	-0.0245801	-0.00510322	0.000240618	0.000188531	0	0	0	
0.2155	0.0170466	0.00280082	0.00041782	0.000267954	0	0	0	
0.215667	0.00250454	-0.00416565	0.000522862	0.000267379	0	0	0	
0.215833	-0.00451331	0.0051965	0.000508526	0.000212422	0	0	0	
0.216	0.000155528	-0.0105302	0.000366944	0.000178346	0	0	0	
0.216167	0.00314155	0.00659813	0.00023197	0.000224354	0	0	0	
0.216333	-0.00469806	0.00358772	0.000179696	0.000265143	0	0	0	
0.2165	-0.00205807	0.00186445	0.000232915	0.000285376	0	0	0	
0.216667	0.00440055	0.0005052	0.000335334	0.000281549	0	0	0	
0.216833	-0.00417562	0.00811907	0.000377563	0.000256448	0	0	0	
0.217	-0.00482163	-0.00350931	0.000357234	0.000219281	0	0	0	
0.217167	-0.00613555	0.00575597	0.000352139	0.000157814	0	0	0	
0.217333	0.00577006	-0.00773734	0.000414155	0.000179874	0	0	0	
0.2175	0.00192305	0.00437687	0.000467189	0.000201777	0	0	0	
0.217667	-0.0150361	-0.00810883	0.00053103	0.000193594	0	0	0	
0.217833	0.00839661	0.00334917	0.000632339	0.000176781	0	0	0	
0.218	0.00260554	0.000630708	0.000723237	0.000156287	0	0	0	
0.218167	0.000539407	-0.00401653	0.000648032	0.000183055	0	0	0	
0.218333	-0.0136746	0.00602738	0.000494041	0.000202449	0	0	0	
0.2185	0.0198126	-0.00289353	0.000434912	0.00028304	0	0	0	
0.218667	-0.0215525	-0.0135458	0.000510489	0.000427159	0	0	0	
0.218833	0.0146781	0.00776045	0.000570291	0.000562373	0	0	0	
0.219	0.000452185	-0.00790477	0.000535409	0.000529781	0	0	0	
0.219167	0.00136535	0.00425435	0.000430066	0.000353436	0	0	0	
0.219333	-0.00836384	-0.00309712	0.000319126	0.000159327	0	0	0	
0.2195	0.0116427	0.00686883	0.000304795	0.000103997	0	0	0	
0.219667	0.0120598	-0.00279927	0.000402531	0.000141583	0	0	0	
0.219833	-0.0169508	0.000753402	0.000513318	0.000221281	0	0	0	
0.22	0.00648946	-5.32135E-05	0.000421701	0.000275414	0	0	0	
0.220167	0.00288372	0.00521996	0.000281681	0.000275685	0	0	0	
0.220333	-0.000413673	-0.00379057	0.000117808	0.000235128	0	0	0	
0.2205	0.00335863	0.00963738	9.68209E-05	0.000208059	0	0	0	
0.220667	-0.0130266	-0.00686138	0.000102736	0.000257792	0	0	0	
0.220833	0.0188851	0.00578163	0.000211319	0.000328426	0	0	0	
0.221	-0.000444992	-0.000739979	0.000464559	0.000365522	0	0	0	
0.221167	-0.0252401	0.00652948	0.000675217	0.000305921	0	0	0	
0.221333	0.0256684	-0.00701429	0.000745314	0.000226719	0	0	0	
0.2215	-0.0212894	0.00916494	0.000642048	0.000171408	0	0	0	
0.221667	0.0200095	-0.00972688	0.000522346	0.000208134	0	0	0	
0.221833	-0.0162112	0.00699625	0.000464867	0.000256945	0	0	0	
0.222	-0.00672938	-0.00543357	0.000352768	0.000293642	0	0	0	
0.222167	0.012626	0.00499155	0.000270681	0.000248909	0	0	0	
0.222333	-0.0171437	-0.00444535	0.000267589	0.000189657	0	0	0	
0.2225	-0.00685433	0.00321088	0.000425711	0.000144207	0	0	0	
0.222667	0.021322	-0.0051216	0.000522565	0.000159622	0	0	0	
0.222833	-0.0159605	0.00327119	0.000500744	0.000227105	0	0	0	
0.223	0.00507433	-0.00463363	0.000355633	0.000322486	0	0	0	
0.223167	0.0135144	0.0077652	0.00023883	0.000375107	0	0	0	
0.223333	-0.0207008	-0.00703676	0.000225598	0.000332113	0	0	0	
0.2235	0.00790445	0.00480804	0.000284843	0.00022728	0	0	0	
0.223667	0.0125918	-0.00396183	0.000413963	0.000156598	0	0	0	
0.223833	-0.0205559	0.00324431	0.000515906	0.000168976	0	0	0	
0.224	0.0099648	0.00534194	0.000502369	0.000235999	0	0	0	
0.224167	0.017993	0.00246935	0.000389726	0.0002884	0	0	0	
0.224333	-0.0281009	-0.00182395	0.000347853	0.000302959	0	0	0	
0.2245	0.022605	0.00501298	0.000400059	0.000266528	0	0	0	
0.224667	-0.00454144	-0.00567022	0.000564909	0.000231444	0	0	0	
0.224833	-0.0128985	0.00645091	0.00060733	0.000210833	0	0	0	
0.225	0.019509	-0.00660614	0.000532826	0.000230791	0	0	0	
0.225167	-0.00759961	0.00765628	0.000407561	0.000261291	0	0	0	
0.225333	-0.0183314	-0.00492797	0.000365918	0.000274393	0	0	0	
0.2255	0.0227774	0.00148276	0.000405829	0.000242596	0	0	0	
0.225667	-0.013161	-0.00357155	0.000421753	0.000191094	0	0	0	
0.225833	-0.0027402	0.00779621	0.000401953	0.000183122	0	0	0	
0.226	0.0119737	-0.00827693	0.00040045	0.000250269	0	0	0	
0.226167	-0.0187567	0.000489838	0.000395465	0.000332253	0	0	0	
0.226333	0.00812668	-0.00464461	0.000370791	0.00033448	0	0	0	
0.2265	0.00370414	0.00329394	0.000260872	0.000266594	0	0	0	
0.226667	-0.0198913	-0.00112756	0.000216983	0.00017751	0	0	0	
0.226833	0.0187683	0.00350569	0.000250869	0.000131224	0	0	0	
0.227	0.00387744	-0.00265506	0.000536929	0.000145252	0	0	0	
0.227167	-0.0204021	0.00521868	0.000810049	0.000199305	0	0	0	
0.227333	0.0306783	-0.0129298	0.000929539	0.000260859	0	0	0	
0.2275	-0.0286067	0.0125719	0.000833129	0.000296934	0	0	0	
0.227667	0.0204278	-0.00415087	0.00064233	0.000282516	0	0	0	
0.227833	-0.00593788	0.00516274	0.000461324	0.000219001	0	0	0	
0.228	-0.0204858	-0.00908922	0.000311672	0.000189614	0	0	0	
0.228167	0.0305294	0.00331723	0.000312459	0.000225861	0	0	0	
0.228333	0.00232226	-0.00460424	0.000496884	0.000320033	0	0	0	
0.2285	-0.0179531	0.00403169	0.00080352	0.000371737	0	0	0	
0.228667	0.0136401	-0.00255456	0.000957265	0.000342208	0	0	0	
0.228833	-0.00863295	0.00375519	0.000863138	0.000241908	0	0	0	
0.229	0.00189687	-0.00338141	0.000641511	0.00015412	0	0	0	
0.229167	-0.0114821	0.00146588	0.000493172	0.000142371	0	0	0	
0.229333	0.0204955	-0.00573895	0.000496303	0.000189989	0	0	0	
0.2295	-0.0068052	0.00449239	0.000509229	0.000220511	0	0	0	
0.229667	0.0016436	0.000527711	0.000453739	0.000205397	0	0	0	
0.229833	-0.00387824	0.00213078	0.000393593	0.000173728	0	0	0	
0.23	0.00411932	-0.0011703	0.000360489	0.000155855	0	0	0	
0.230167	-0.00827479	0.0023098	0.000371177	0.000157618	0	0	0	
0.230333	0.00820788	-0.00712044	0.000438183	0.000187627	0	0	0	
0.2305	-0.0171697	0.00300354	0.000529776	0.000246083	0	0	0	
0.230667	0.0249398	-0.00293882	0.000592811	0.000279355	0	0	0	
0.230833	-0.010802	0.00252544	0.000526186	0.000243883	0	0	0	
0.231	-0.00112841	6.18359E-05	0.000350654	0.000140578	0	0	0	
0.231167	-0.004983	-0.00281719	0.000250987	6.43938E-05	0	0	0	
0.231333	0.00259505	-0.00819681	0.000253709	6.89375E-05	0	0	0	
0.2315	-0.00663781	0.00920874	0.000327346	0.000170185	0	0	0	
0.231667	0.0039608	-0.00650372	0.000352414	0.000280832	0	0	0	
0.231833	-0.0161064	0.0158776	0.000315322	0.000348413	0	0	0	
0.232	0.0104312	-0.00727102	0.000285145	0.000363989	0	0	0	
0.232167	-0.014816	0.0101763	0.000271258	0.000319855	0	0	0	
0.232333	0.0019555	-0.0121953	0.000257839	0.000280462	0	0	0	
0.2325	0.00860117	0.0109595	0.000214016	0.00022734	0	0	0	
0.232667	0.000159667	-0.0104712	0.000190796	0.000213542	0	0	0	
0.232833	-0.0118465	0.0106677	0.000322696	0.000201714	0	0	0	
0.233	0.0125543	0.00730813	0.000521928	0.000202516	0	0	0	
0.233167	-0.0194156	-0.00198637	0.000621698	0.000184895	0	0	0	
0.233333	0.004987	0.00265737	0.000550759	0.000177929	0	0	0	
0.2335	0.00282169	0.0147417	0.000380733	0.000166427	0	0	0	
0.233667	-0.00369475	-0.0277415	0.000286122	0.000242984	0	0	0	
0.233833	0.0132672	0.0303232	0.000291429	0.000390824	0	0	0	
0.234	-0.0134176	-0.0220934	0.000427962	0.000498412	0	0	0	
0.234167	-0.00528535	0.00837557	0.000599262	0.000449815	0	0	0	
0.234333	0.0176035	-0.00123786	0.000697685	0.000280285	0	0	0	
0.2345	-0.0174118	0.00901145	0.000631952	0.000144489	0	0	0	
0.234667	0.00120588	-0.0154142	0.000433	0.000175045	0	0	0	
0.234833	0.01002	0.0351719	0.000219423	0.000325986	0	0	0	
0.235	-0.00502314	-0.0316594	0.00018831	0.000553702	0	0	0	
0.235167	-0.00114852	0.0189858	0.000296083	0.000627497	0	0	0	
0.235333	0.00362114	-0.0132834	0.000423174	0.000545333	0	0	0	
0.2355	-0.00687977	0.0108751	0.000517076	0.000360861	0	0	0	
0.235667	0.0279181	-0.0115565	0.000587898	0.000248493	0	0	0	
0.235833	-0.0321707	0.00967769	0.000686892	0.000233494	0	0	0	
0.236	0.0265394	-0.00532229	0.000634168	0.000230676	0	0	0	
0.236167	-0.0189062	0.00353214	0.000542185	0.000213575	0	0	0	
0.236333	0.0109027	-0.00173815	0.000415857	0.000184487	0	0	0	
0.2365	-0.00933743	0.00233347	0.000445073	0.000178051	0	0	0	
0.236667	0.0232613	-0.00813861	0.000571161	0.000197006	0	0	0	
0.236833	-0.0279099	0.00695531	0.000708002	0.000221035	0	0	0	
0.237	0.0178811	-0.017124	0.000739434	0.000221857	0	0	0	
0.237167	-0.0173582	0.0169369	0.000669028	0.000262001	0	0	0	
0.237333	0.0161966	-0.011984	0.00058934	0.000280747	0	0	0	
0.2375	-0.0054057	0.00606279	0.000490077	0.000267544	0	0	0	
0.237667	0.00321505	-0.00403948	0.000393808	0.000192729	0	0	0	
0.237833	-0.0172678	0.00243744	0.000324224	0.000118533	0	0	0	
0.238	0.194832	-0.0629571	0.000734061	0.000164387	0	0	0	
0.238167	-0.0760743	0.0213035	0.00180427	0.000631094	0	0	0	
0.238333	0.0469879	-0.0173778	0.00197565	0.000799441	0	0	0	
0.2385	-0.0482735	0.0162407	0.00173723	0.000814236	0	0	0	
0.238667	0.047796	-0.00786453	0.000885522	0.000389723	0	0	0	
0.238833	-0.0424706	0.011179	0.000944331	0.000280789	0	0	0	
0.239	0.017779	0.00391107	0.000883641	0.000219296	0	0	0	
0.239167	-0.0113797	-0.00488107	0.000818391	0.000207741	0	0	0	
0.239333	-5.13863E-05	0.00153852	0.000590983	0.000200025	0	0	0	
0.2395	0.00307149	0.00303997	0.000403539	0.000224088	0	0	0	
0.239667	0.00732897	-0.0107386	0.000321148	0.000213109	0	0	0	
0.239833	-0.0223204	0.0141692	0.000424563	0.000226864	0	0	0	
0.24	0.0222465	-0.0104096	0.000589347	0.000246139	0	0	0	
0.240167	-0.00989275	0.00740216	0.000567207	0.000264737	0	0	0	
0.240333	0.00567633	-0.0128019	0.000464443	0.000252342	0	0	0	
0.2405	-0.00254809	0.0163631	0.000402311	0.000264664	0	0	0	
0.240667	0.00118562	-0.0217431	0.000417293	0.000314571	0	0	0	
0.240833	-0.00317198	0.0193327	0.000521058	0.000370282	0	0	0	
0.241	0.0120356	-0.0176015	0.000669374	0.000379456	0	0	0	
0.241167	-0.0208457	0.0176484	0.000784399	0.000367646	0	0	0	
0.241333	0.0175393	-0.0253124	0.000738547	0.000376741	0	0	0	
0.2415	-0.00433979	0.0199353	0.000551311	0.000411542	0	0	0	
0.241667	-0.000117505	-0.0159318	0.00039078	0.000409535	0	0	0	
0.241833	-0.00855038	0.0143042	0.000424176	0.000363984	0	0	0	
0.242	0.0100737	-0.0180575	0.000509466	0.000331257	0	0	0	
0.242167	-0.00141932	0.016729	0.00048444	0.000344441	0	0	0	
0.242333	-0.00716753	-0.0125519	0.000358205	0.000366802	0	0	0	
0.2425	-0.00984574	0.00764395	0.000324685	0.00037115	0	0	0	
0.242667	0.0144608	-0.0191316	0.000435978	0.00041865	0	0	0	
0.242833	-0.0128267	0.0152925	0.000539976	0.000458821	0	0	0	
0.243	0.0127885	-0.0203224	0.000583995	0.000461102	0	0	0	
0.243167	-0.0175599	0.0186433	0.000578953	0.000423669	0	0	0	
0.243333	0.0129195	-0.0218406	0.000527802	0.000388553	0	0	0	
0.2435	-0.00196117	0.0166148	0.000404772	0.000392846	0	0	0	
0.243667	-0.00498672	-0.0049786	0.000340129	0.000337837	0	0	0	
0.243833	-0.00137018	-0.0093847	0.000467844	0.000289647	0	0	0	
0.244	0.0176369	-0.0137478	0.00067077	0.000232596	0	0	0	
0.244167	-0.0197617	0.0177882	0.000733752	0.000277354	0	0	0	
0.244333	0.0123657	-0.0182177	0.00060678	0.000320726	0	0	0	
0.2445	-0.00949338	0.00693815	0.000435318	0.000338138	0	0	0	
0.244667	0.0125573	-0.00752736	0.000345912	0.000258344	0	0	0	
0.244833	0.000221689	0.00782799	0.000302047	0.000200481	0	0	0	
0.245	0.0041342	-0.01356	0.000303574	0.000174021	0	0	0	
0.245167	-0.0118902	0.00959366	0.000379213	0.00021212	0	0	0	
0.245333	0.0174529	-0.013718	0.000464113	0.000251088	0	0	0	
0.2455	-0.00754408	0.013072	0.000470482	0.000301057	0	0	0	
0.245667	0.00176865	-0.0202172	0.000397384	0.000319205	0	0	0	
0.245833	-0.00479275	0.0121624	0.000411412	0.000321385	0	0	0	
0.246	0.0177315	-0.011538	0.000516678	0.000280709	0	0	0	
0.246167	-0.0195874	0.0129283	0.000575567	0.000275522	0	0	0	
0.246333	0.00663423	-0.0121569	0.000468503	0.00025175	0	0	0	
0.2465	0.0165228	0.00769039	0.000290951	0.000245676	0	0	0	
0.246667	0.0778857	-0.0283847	0.000712956	0.00026876	0	0	0	
0.246833	0.237365	-0.00889802	0.00294931	0.000486216	0	0	0	
0.247	0.00153359	-0.075988	0.00387503	0.000644007	0	0	0	
0.247167	0.0303895	0.0990362	0.00432169	0.00111412	0	0	0	
0.247333	-0.0285559	-0.061143	0.00316375	0.00132949	0	0	0	
0.2475	-0.00117743	0.0808659	0.00348772	0.00164827	0	0	0	
0.247667	0.00143768	-0.0489385	0.00374358	0.00140917	0	0	0	
0.247833	0.330061	-0.02838	0.00451317	0.00124563	0	0	0	
0.248	0.0930914	-0.027762	0.00413888	0.00109111	0	0	0	
0.248167	0.0370744	-0.0185139	0.00331676	0.000941365	0	0	0	
0.248333	-0.0772436	0.0418882	0.00176196	0.00105411	0	0	0	
0.2485	0.123417	0.0237483	0.00167309	0.00120691	0	0	0	
0.248667	-0.185851	-0.037611	0.00235148	0.00155572	0	0	0	
0.248833	0.168558	0.0728501	0.00295306	0.00159289	0	0	0	
0.249	-0.11918	-0.0784071	0.00338495	0.00155819	0	0	0	
0.249167	0.0404675	0.0544498	0.00357618	0.00140346	0	0	0	
0.249333	0.0248284	-0.0360454	0.00373166	0.00123451	0	0	0	
0.2495	-0.0697301	0.0151735	0.00328683	0.000978358	0	0	0	
0.249667	0.074377	-0.00489564	0.00259375	0.000719754	0	0	0	
0.249833	-0.063858	0.0106899	0.0019685	0.000481113	0	0	0	
0.25	0.0260943	-0.0184713	0.00141363	0.000359688	0	0	0	
0.250167	0.00820382	0.0212949	0.000887622	0.000405301	0	0	0	
0.250333	-0.0157799	-0.0274115	0.00043281	0.000481857	0	0	0	
0.2505	0.011111	0.0266083	0.000362999	0.000517803	0	0	0	
0.250667	0.00345362	-0.0213006	0.000509981	0.000493955	0	0	0	
0.250833	-0.0198452	0.019905	0.000738924	0.000455672	0	0	0	
0.251	0.0420465	-0.018494	0.00082865	0.000411412	0	0	0	
0.251167	-0.0446213	0.0117134	0.000854222	0.0003812	0	0	0	
0.251333	0.0273575	-0.0101105	0.000795564	0.000354575	0	0	0	
0.2515	-0.00104795	0.0160458	0.000604959	0.000344226	0	0	0	
0.251667	-0.00980715	-0.0194904	0.000393792	0.000343792	0	0	0	
0.251833	0.00523076	0.017742	0.000398217	0.000358985	0	0	0	
0.252	0.0169815	-0.020386	0.0006556	0.000360137	0	0	0	
0.252167	-0.0307989	0.0195323	0.000958124	0.000368608	0	0	0	
0.252333	0.0366895	-0.0154548	0.00105305	0.0003435	0	0	0	
0.2525	-0.0295773	0.0176944	0.000929094	0.000337662	0	0	0	
0.252667	0.00794138	-0.0117463	0.000666405	0.00031122	0	0	0	
0.252833	0.0055737	0.00910798	0.000375724	0.00028824	0	0	0	
0.253	-0.00399477	-0.0134258	0.000279227	0.000259302	0	0	0	
0.253167	-0.00651171	0.0153847	0.000394209	0.00026362	0	0	0	
0.253333	0.0249269	-0.0146003	0.00065386	0.000304582	0	0	0	
0.2535	-0.0462251	0.0186466	0.000817125	0.000349715	0	0	0	
0.253667	0.0344026	-0.0107776	0.000820194	0.000351365	0	0	0	
0.253833	0.000426925	0.00591545	0.000680224	0.000298912	0	0	0	
0.254	-0.0140378	-0.0104178	0.000447406	0.000231696	0	0	0	
0.254167	0.00115354	0.0109707	0.000373658	0.000187117	0	0	0	
0.254333	0.0190297	-0.0139071	0.000475689	0.000213393	0	0	0	
0.2545	-0.0322658	0.0134519	0.000659158	0.000254248	0	0	0	
0.254667	0.0303534	-0.0116507	0.00072479	0.000274281	0	0	0	
0.254833	-0.023953	0.0116556	0.000649182	0.000272177	0	0	0	
0.255	0.0168307	-0.0148212	0.000532399	0.000257189	0	0	0	
0.255167	-0.00205026	0.0106763	0.000368017	0.000255024	0	0	0	
0.255333	0.00134041	-0.0184182	0.000255655	0.000268322	0	0	0	
0.2555	-0.0106202	0.0147187	0.00032547	0.000297288	0	0	0	
0.255667	0.0209938	-0.0118051	0.000490423	0.000281405	0	0	0	
0.255833	-0.0174875	0.00920261	0.000598084	0.000249838	0	0	0	
0.256	0.015906	-0.00901691	0.000519958	0.000197703	0	0	0	
0.256167	-0.0187924	0.0114729	0.000428809	0.000208816	0	0	0	
0.256333	0.026124	-0.017467	0.000430631	0.000239234	0	0	0	
0.2565	-0.0171011	0.0132218	0.000456611	0.000307002	0	0	0	
0.256667	0.00193078	-0.0176787	0.00039256	0.000307163	0	0	0	
0.256833	0.0103026	0.0183382	0.000243681	0.000330958	0	0	0	
0.257	0.00745927	-0.0259416	0.000238027	0.000349921	0	0	0	
0.257167	-0.0241274	0.0225979	0.000379273	0.000427312	0	0	0	
0.257333	0.0343491	-0.0140287	0.000608025	0.00040898	0	0	0	
0.2575	-0.0363333	0.00721338	0.000721361	0.000337357	0	0	0	
0.257667	0.0417375	-0.00915178	0.000744327	0.000227305	0	0	0	
0.257833	-0.020061	0.00940351	0.000685369	0.000195642	0	0	0	
0.258	0.00179566	-0.01072	0.000561466	0.000189354	0	0	0	
0.258167	-0.00100945	0.0174642	0.00036634	0.00025445	0	0	0	
0.258333	0.0104457	-0.0199661	0.000337015	0.000318937	0	0	0	
0.2585	-0.0220428	0.0219619	0.000441579	0.00038775	0	0	0	
0.258667	0.0372442	-0.0215907	0.000611992	0.0004073	0	0	0	
0.258833	-0.0272392	0.0180367	0.000655018	0.000395988	0	0	0	
0.259	0.0215529	-0.010051	0.000584157	0.000343315	0	0	0	
0.259167	-0.022295	0.0197181	0.000531623	0.000331887	0	0	0	
0.259333	0.019747	-0.0122958	0.000490255	0.000311602	0	0	0	
0.2595	-0.0257311	0.0143384	0.000530715	0.000309099	0	0	0	
0.259667	0.0299767	-0.015683	0.000556305	0.000285754	0	0	0	
0.259833	-0.0158337	0.0119778	0.000566584	0.000276183	0	0	0	
0.26	0.0119314	-0.00819902	0.000494475	0.000255357	0	0	0	
0.260167	-0.0154773	0.0170796	0.000460046	0.000246656	0	0	0	
0.260333	0.0167995	-0.013029	0.000463354	0.000265424	0	0	0	
0.2605	-0.0199402	0.0192614	0.000491218	0.00031853	0	0	0	
0.260667	0.0161189	-0.0194061	0.000448167	0.000363935	0	0	0	
0.260833	-0.00227181	0.020757	0.000335224	0.000386156	0	0	0	
0.261	0.00444871	-0.0191794	0.000235423	0.000386831	0	0	0	
0.261167	-0.0163986	0.0231052	0.000255943	0.000389185	0	0	0	
0.261333	0.0231841	-0.0147952	0.000378796	0.000371247	0	0	0	
0.2615	-0.0270526	0.0143791	0.000523191	0.000350169	0	0	0	
0.261667	0.0269992	-0.00957668	0.000581123	0.000295998	0	0	0	
0.261833	-0.0231689	0.0147907	0.000551002	0.000253336	0	0	0	
0.262	0.019204	-0.0105267	0.000477527	0.000239955	0	0	0	
0.262167	-0.0170166	0.0117389	0.000430299	0.000234255	0	0	0	
0.262333	0.0115932	-0.0137567	0.000365982	0.00023694	0	0	0	
0.2625	-0.00386555	0.0162882	0.000310047	0.000270287	0	0	0	
0.262667	0.0100954	-0.0131306	0.000257944	0.000287626	0	0	0	
0.262833	-0.0184831	0.0148481	0.000304641	0.000303454	0	0	0	
0.263	0.0206556	-0.0123678	0.000388532	0.000291836	0	0	0	
0.263167	-0.0157204	0.0120446	0.000450055	0.000277365	0	0	0	
0.263333	0.0271983	-0.0146267	0.000464682	0.000260709	0	0	0	
0.2635	-0.0365725	0.0145308	0.000551009	0.00026429	0	0	0	
0.263667	0.0395769	-0.0136184	0.00062105	0.000260194	0	0	0	
0.263833	-0.0276946	0.0153769	0.000688232	0.000283752	0	0	0	
0.264	0.0116269	-0.0117385	0.000582063	0.000261228	0	0	0	
0.264167	0.00043467	0.00821138	0.000402643	0.000236128	0	0	0	
0.264333	0.0125013	-0.0161458	0.000275002	0.00022345	0	0	0	
0.2645	-0.0176427	0.0165387	0.000308822	0.00025059	0	0	0	
0.264667	0.0177146	-0.0102577	0.000422568	0.000279001	0	0	0	
0.264833	-0.0260347	0.0145386	0.000491442	0.000275116	0	0	0	
0.265	0.0262104	-0.0090059	0.000513209	0.00025878	0	0	0	
0.265167	-0.0273404	0.0103818	0.000528818	0.00023365	0	0	0	
0.265333	0.0245688	-0.018856	0.000523744	0.000242111	0	0	0	
0.2655	-0.00894579	0.0166559	0.000465999	0.000275389	0	0	0	
0.265667	0.00900706	-0.0186809	0.00038641	0.000313379	0	0	0	
0.265833	-0.0139309	0.0150577	0.000377275	0.000340047	0	0	0	
0.266	0.0233448	-0.00682987	0.000425881	0.000281221	0	0	0	
0.266167	-0.0270641	0.0101297	0.00051385	0.000241029	0	0	0	
0.266333	0.0180044	-0.012232	0.000529808	0.00019685	0	0	0	
0.2665	-0.0258239	0.0118921	0.000587793	0.00022293	0	0	0	
0.266667	0.0567996	-0.0110462	0.000607869	0.000228899	0	0	0	
0.266833	-0.217985	0.0736694	0.00136968	0.000428753	0	0	0	
0.267	0.0501345	-0.00453103	0.00219928	0.000721909	0	0	0	
0.267167	-0.0375997	0.0172054	0.00226581	0.000735221	0	0	0	
0.267333	0.039714	-0.018779	0.00158986	0.000611385	0	0	0	
0.2675	-0.0465482	0.0105527	0.000868609	0.000321331	0	0	0	
0.267667	0.042069	-0.0128034	0.00103975	0.000348389	0	0	0	
0.267833	-0.0607379	0.00607133	0.00104663	0.000233462	0	0	0	
0.268	0.0369082	0.00193905	0.00103269	0.00017531	0	0	0	
0.268167	-0.0276547	-0.003603	0.000868764	0.000117245	0	0	0	
0.268333	0.0158408	0.000353111	0.000766621	0.000104888	0	0	0	
0.2685	-0.0129832	0.00096659	0.00052565	7.63552E-05	0	0	0	
0.268667	0.0167068	-0.00670327	0.000370812	6.81564E-05	0	0	0	
0.268833	-0.011119	0.0138657	0.000323277	0.000104589	0	0	0	
0.269	0.00709571	-0.0165683	0.000335042	0.000197054	0	0	0	
0.269167	0.0055771	0.0155621	0.000316887	0.000255882	0	0	0	
0.269333	-0.0151056	-0.00893713	0.000395416	0.000277604	0	0	0	
0.2695	-0.00686405	0.00935084	0.000596051	0.000263779	0	0	0	
0.269667	0.0317181	-0.00321712	0.000812466	0.000231513	0	0	0	
0.269833	-0.0469685	0.0060553	0.000871622	0.000182087	0	0	0	
0.27	0.0361686	-0.00899473	0.000819392	0.00013249	0	0	0	
0.270167	-0.0104721	0.0144748	0.000712958	0.000153554	0	0	0	
0.270333	-0.00835636	-0.01383	0.000737672	0.000229186	0	0	0	
0.2705	0.0233056	0.0120829	0.000741453	0.000286386	0	0	0	
0.270667	-0.00975193	-0.00877311	0.000597641	0.000269819	0	0	0	
0.270833	-0.0223178	0.00779353	0.000574094	0.000217944	0	0	0	
0.271	0.0399157	-0.00288342	0.00060623	0.000174574	0	0	0	
0.271167	-0.0371683	0.0112196	0.000806337	0.000186498	0	0	0	
0.271333	0.0248891	-0.0105844	0.000719961	0.000207686	0	0	0	
0.2715	-0.0125176	0.0136809	0.000564762	0.000239863	0	0	0	
0.271667	0.0126173	-0.00995374	0.000379274	0.000230546	0	0	0	
0.271833	-0.0154498	0.00445912	0.000363303	0.00021585	0	0	0	
0.272	0.0312645	-0.00393769	0.00038877	0.000159355	0	0	0	
0.272167	-0.0321422	0.0124674	0.000504587	0.000156856	0	0	0	
0.272333	0.0142896	-0.0111546	0.000526884	0.000177735	0	0	0	
0.2725	-0.0110247	0.0203601	0.000473278	0.000250282	0	0	0	
0.272667	0.00290271	-0.0200048	0.000341766	0.000327796	0	0	0	
0.272833	-0.00339152	0.0154301	0.000218112	0.000370351	0	0	0	
0.273	0.0146462	-0.00981339	0.000177262	0.000347945	0	0	0	
0.273167	-0.0248436	0.0136687	0.000271498	0.000307639	0	0	0	
0.273333	0.0277432	-0.0149872	0.000438815	0.000297811	0	0	0	
0.2735	-0.025686	0.0173633	0.000502239	0.000304551	0	0	0	
0.273667	0.0186594	-0.0125693	0.000496815	0.000340404	0	0	0	
0.273833	-0.0198981	0.0081766	0.000405391	0.000313792	0	0	0	
0.274	0.0209223	-0.0101632	0.000403847	0.000278242	0	0	0	
0.274167	-0.0187011	0.0129256	0.000384039	0.000208831	0	0	0	
0.274333	0.0121946	-0.0131158	0.000349917	0.00020814	0	0	0	
0.2745	-0.00131157	0.0141784	0.000275827	0.000233294	0	0	0	
0.274667	0.00165863	-0.0156765	0.000162562	0.000291483	0	0	0	
0.274833	-0.0105468	0.00857997	0.000124765	0.000259958	0	0	0	
0.275	0.00852082	-0.00339919	0.000168387	0.000218865	0	0	0	
0.275167	-0.0166197	0.006715	0.000243779	0.000123649	0	0	0	
0.275333	0.0238662	-0.0158679	0.000313962	0.000129926	0	0	0	
0.2755	-0.0289941	0.0207454	0.000395534	0.000228414	0	0	0	
0.275667	0.022882	-0.0149263	0.000480374	0.000341745	0	0	0	
0.275833	-0.0254049	0.0128004	0.000516339	0.000406393	0	0	0	
0.276	0.0133491	-0.0042377	0.000478111	0.000336422	0	0	0	
0.276167	-0.0179934	0.00361914	0.000392426	0.000214114	0	0	0	
0.276333	0.0206927	-0.00752836	0.000362698	0.000127122	0	0	0	
0.2765	-0.0282525	0.0145967	0.00040433	0.000137398	0	0	0	
0.276667	0.0205029	-0.01619	0.000486196	0.00020186	0	0	0	
0.276833	-0.0227193	0.0195676	0.000487759	0.00030065	0	0	0	
0.277	0.0150872	-0.00403921	0.000455324	0.000321472	0	0	0	
0.277167	-0.0179677	0.00135495	0.000380552	0.000256893	0	0	0	
0.277333	0.0235328	-0.00890736	0.000382936	0.000151868	0	0	0	
0.2775	-0.022686	0.0139887	0.000399642	0.000130126	0	0	0	
0.277667	0.022412	-0.0146466	0.000413773	0.000194777	0	0	0	
0.277833	-0.0143416	0.0114417	0.000409473	0.000282841	0	0	0	
0.278	0.00936458	-0.00186222	0.000340439	0.000259478	0	0	0	
0.278167	-0.00750408	0.000220311	0.000303333	0.000183857	0	0	0	
0.278333	0.0174868	-0.00345269	0.000295388	7.72608E-05	0	0	0	
0.2785	-0.0223981	0.00533643	0.000365293	6.13984E-05	0	0	0	
0.278667	0.0289027	-0.0105304	0.00043369	8.92413E-05	0	0	0	
0.278833	-0.0215557	0.0154848	0.000480195	0.000155627	0	0	0	
0.279	0.021073	-0.0161448	0.000462324	0.00024352	0	0	0	
0.279167	-0.0168414	0.00894573	0.000440764	0.000334782	0	0	0	
0.279333	0.0157739	-0.00228591	0.000390642	0.000330246	0	0	0	
0.2795	-0.0167885	0.00465784	0.000347015	0.000231577	0	0	0	
0.279667	0.01764	-0.0117244	0.000313513	0.000148407	0	0	0	
0.279833	-0.0202139	0.0165806	0.000331987	0.000157338	0	0	0	
0.28	0.0178245	-0.0179102	0.000371845	0.000259587	0	0	0	
0.280167	-0.0122597	0.0170136	0.000378646	0.000324955	0	0	0	
0.280333	0.0123676	-0.00787319	0.000341612	0.000338879	0	0	0	
0.2805	-0.0177333	0.00223922	0.000284535	0.000235764	0	0	0	
0.280667	0.0161708	-0.00288146	0.000287575	0.000146725	0	0	0	
0.280833	-0.0187401	0.0113975	0.000323247	9.17142E-05	0	0	0	
0.281	0.0157603	-0.013837	0.000354389	0.0001689	0	0	0	
0.281167	-0.0176282	0.0134268	0.000358678	0.000223006	0	0	0	
0.281333	0.0188265	-0.0115492	0.000363131	0.000271509	0	0	0	
0.2815	-0.0208568	0.0045331	0.000361669	0.00022507	0	0	0	
0.281667	0.0214185	-0.00705398	0.000383492	0.00020549	0	0	0	
0.281833	-0.0174551	0.0119958	0.000380893	0.000179325	0	0	0	
0.282	0.0177398	-0.0080967	0.000362963	0.000202707	0	0	0	
0.282167	-0.0246729	0.00783198	0.000379231	0.000224989	0	0	0	
0.282333	0.0214621	-0.0109174	0.00038806	0.000244652	0	0	0	
0.2825	-0.0091566	0.00690857	0.000416738	0.000225757	0	0	0	
0.282667	0.00351959	-0.00802255	0.00034101	0.000190612	0	0	0	
0.282833	-0.0137753	0.0114564	0.000261543	0.000162056	0	0	0	
0.283	0.0227054	-0.0173218	0.000279002	0.000204771	0	0	0	
0.283167	-0.0286684	0.0210729	0.000393928	0.00027774	0	0	0	
0.283333	0.0363351	-0.012701	0.000526636	0.000322823	0	0	0	
0.2835	-0.0406378	0.00711365	0.000640143	0.000312348	0	0	0	
0.283667	0.0339234	-0.00414677	0.000682863	0.000235258	0	0	0	
0.283833	-0.0274373	0.00630399	0.000708745	0.00017101	0	0	0	
0.284	0.00750653	-0.00763974	0.000581107	0.000121314	0	0	0	
0.284167	-0.000168202	0.0146163	0.000473584	0.00015203	0	0	0	
0.284333	-0.00199083	-0.0222932	0.000299302	0.000228712	0	0	0	
0.2845	-0.0057926	0.018484	0.000216599	0.000331578	0	0	0	
0.284667	0.00797553	-0.00761825	0.00021486	0.000358597	0	0	0	
0.284833	-0.0222373	-0.000674059	0.000333301	0.000290365	0	0	0	
0.285	0.031494	-0.0023916	0.000478618	0.000162835	0	0	0	
0.285167	-0.0389144	0.0127706	0.000572571	0.000121759	0	0	0	
0.285333	0.0249721	-0.0201266	0.000613098	0.000189457	0	0	0	
0.2855	-0.0223799	0.0203112	0.00056984	0.000297862	0	0	0	
0.285667	0.0178764	-0.0138414	0.000495675	0.000354788	0	0	0	
0.285833	-0.0214686	0.00671304	0.000432572	0.00031009	0	0	0	
0.286	0.0160974	-0.00626465	0.000423551	0.000250292	0	0	0	
0.286167	-0.0198361	0.00987353	0.000388878	0.000199447	0	0	0	
0.286333	0.0125671	-0.0128507	0.000360066	0.000229044	0	0	0	
0.2865	-0.0105474	0.00639627	0.000286792	0.000272456	0	0	0	
0.286667	0.0113777	0.0047009	0.000260108	0.000367309	0	0	0	
0.286833	-0.0191616	-0.00239197	0.000264511	0.000419598	0	0	0	
0.287	0.0224311	-0.00325822	0.000332383	0.000381612	0	0	0	
0.287167	-0.0184841	0.0118796	0.000401608	0.00027706	0	0	0	
0.287333	0.0206463	-0.0211454	0.000428403	0.000236735	0	0	0	
0.2875	-0.0148273	0.020914	0.000439541	0.000310512	0	0	0	
0.287667	0.0176924	-0.0285447	0.000389211	0.000492636	0	0	0	
0.287833	-0.0214877	0.027773	0.000380165	0.000606598	0	0	0	
0.288	0.0171498	-0.0173563	0.000349756	0.00063493	0	0	0	
0.288167	-7.46869E-05	0.00585815	0.00032997	0.000495325	0	0	0	
0.288333	0.00462641	-0.00976222	0.000221791	0.000321568	0	0	0	
0.2885	-0.00284654	0.00850403	0.000181464	0.000216149	0	0	0	
0.288667	0.0157128	-0.0184205	0.000151815	0.000256048	0	0	0	
0.288833	-0.0200268	-0.00234179	0.000242135	0.000295726	0	0	0	
0.289	0.0155089	-0.00475255	0.00028838	0.000294703	0	0	0	
0.289167	-0.0146222	0.00395275	0.000356303	0.000197564	0	0	0	
0.289333	0.0194955	-0.0104088	0.000340218	0.00014866	0	0	0	
0.2895	-0.0176518	0.0126056	0.000312413	0.000154582	0	0	0	
0.289667	0.0168071	-0.0223114	0.000344748	0.000250181	0	0	0	
0.289833	-0.0147612	0.0144352	0.00036029	0.000364326	0	0	0	
0.29	0.0101648	-0.00927839	0.000358183	0.000429986	0	0	0	
0.290167	-0.00658697	-0.000505612	0.000297796	0.000377195	0	0	0	
0.290333	0.00565548	0.00159184	0.000260607	0.000275796	0	0	0	
0.2905	-0.00871868	0.00468619	0.00026447	0.000181822	0	0	0	
0.290667	0.0123921	-0.0112839	0.000278233	0.000159414	0	0	0	
0.290833	-0.0223465	0.0204175	0.000283684	0.0002085	0	0	0	
0.291	0.012972	-0.0136627	0.000291576	0.000264503	0	0	0	
0.291167	-0.00711276	0.0128842	0.000260843	0.000325794	0	0	0	
0.291333	0.0056794	-0.00496879	0.000206759	0.000325639	0	0	0	
0.2915	-0.0122944	0.00716638	0.000173119	0.000303289	0	0	0	
0.291667	0.0232447	-0.0124223	0.000209379	0.00025507	0	0	0	
0.291833	-0.0202357	0.0135354	0.000325903	0.000226827	0	0	0	
0.292	0.00564435	-0.0100784	0.000377548	0.000253341	0	0	0	
0.292167	-0.000549371	0.00723533	0.000308674	0.000246057	0	0	0	
0.292333	0.0136586	-0.00562058	0.000212476	0.000216332	0	0	0	
0.2925	-0.0264274	0.00465886	0.00022458	0.000163145	0	0	0	
0.292667	0.0230615	-0.00289102	0.000344529	0.000136393	0	0	0	
0.292833	-0.0120263	0.00497951	0.000409584	0.000106103	0	0	0	
0.293	0.0126339	-0.0145024	0.000361404	0.0001331	0	0	0	
0.293167	-0.0182017	0.0115217	0.000333192	0.000158682	0	0	0	
0.293333	0.0252143	-0.00808104	0.000405391	0.000241672	0	0	0	
0.2935	-0.0334075	0.0021346	0.000494318	0.000215369	0	0	0	
0.293667	0.0321138	-0.00273423	0.000573597	0.000175938	0	0	0	
0.293833	-0.0252535	0.00473202	0.000563243	0.000122038	0	0	0	
0.294	0.0178122	-0.00602192	0.000555044	0.000141145	0	0	0	
0.294167	-0.0100189	0.00817129	0.000491544	0.000187842	0	0	0	
0.294333	0.00618604	-0.00621741	0.000443843	0.00020661	0	0	0	
0.2945	-0.00606381	0.000802878	0.000351709	0.000154881	0	0	0	
0.294667	0.0140758	-0.00257381	0.000291489	0.000109676	0	0	0	
0.294833	-0.0242481	0.0066962	0.000279208	9.47714E-05	0	0	0	
0.295	0.026587	-0.00803933	0.000378316	0.000147345	0	0	0	
0.295167	-0.0278048	0.0108751	0.000448133	0.000212087	0	0	0	
0.295333	0.0255968	-0.00809885	0.000501282	0.000249319	0	0	0	
0.2955	-0.0224512	0.00342888	0.000488137	0.000219696	0	0	0	
0.295667	0.0275105	-0.00522064	0.000499592	0.000171013	0	0	0	
0.295833	-0.0242509	0.00801716	0.000488217	0.000138121	0	0	0	
0.296	0.0149319	-0.00899231	0.000466831	0.00015681	0	0	0	
0.296167	-0.0212031	0.0100327	0.000410885	0.000199769	0	0	0	
0.296333	0.0223358	-0.0108633	0.000370126	0.000244045	0	0	0	
0.2965	-0.0146176	0.00581781	0.000377764	0.000258361	0	0	0	
0.296667	0.0100732	-0.00481828	0.000379754	0.000209383	0	0	0	
0.296833	-0.00212553	0.0036133	0.000298051	0.000142696	0	0	0	
0.297	0.00658192	-0.00489785	0.000187493	0.000106268	0	0	0	
0.297167	-0.0105283	0.00699478	0.000122385	0.000128752	0	0	0	
0.297333	0.0165284	-0.0107126	0.000165738	0.000175244	0	0	0	
0.2975	-0.0094074	0.00653571	0.000244387	0.000204396	0	0	0	
0.297667	0.0101497	-0.00657127	0.000325851	0.000206886	0	0	0	
0.297833	-0.00878041	0.00328867	0.000306682	0.000179565	0	0	0	
0.298	0.0214067	-0.00427637	0.000290688	0.000148206	0	0	0	
0.298167	-0.0207797	0.0046639	0.000282913	0.00013175	0	0	0	
0.298333	0.0225359	-0.00895197	0.000420149	0.000170696	0	0	0	
0.2985	-0.00757629	0.00251109	0.000496431	0.000215749	0	0	0	
0.298667	0.00694665	-0.00851516	0.000503531	0.000256984	0	0	0	
0.298833	-0.00296462	0.00330474	0.000328929	0.000223055	0	0	0	
0.299	0.0103618	-0.00182421	0.000205961	0.000188198	0	0	0	
0.299167	-0.0216383	0.00330131	0.000170308	0.000146943	0	0	0	
0.299333	0.0414987	-0.0121424	0.000356116	0.000174891	0	0	0	
0.2995	-0.0364345	0.0102364	0.000556702	0.000227568	0	0	0	
0.299667	0.0247915	-0.00842206	0.000738776	0.000295034	0	0	0	
0.299833	-0.00625219	0.00188766	0.000679922	0.000286861	0	0	0	
0.3	0.00717597	-0.00482168	0.000495985	0.00024133	0	0	0	
0.300167	-0.01817	0.00502685	0.000301217	0.000172843	0	0	0	
0.300333	0.0260617	-0.00794352	0.00029562	0.000163381	0	0	0	
0.3005	-0.0273577	0.0112202	0.000412145	0.000204895	0	0	0	
0.300667	0.0277056	-0.00981491	0.000504448	0.000274601	0	0	0	
0.300833	-0.0205193	0.000386877	0.000506038	0.000308802	0	0	0	
0.301	0.010909	-0.000167696	0.000433812	0.00027789	0	0	0	
0.301167	-0.00355099	0.0045281	0.000378718	0.000185734	0	0	0	
0.301333	0.00679699	-0.0120766	0.000312024	0.000135105	0	0	0	
0.3015	-0.0100919	0.0271415	0.000272534	0.000211128	0	0	0	
0.301667	0.0210088	-0.0232924	0.000239856	0.000368731	0	0	0	
0.301833	-0.0225087	0.0106277	0.000331856	0.000475057	0	0	0	
0.302	-0.00360487	-0.00544321	0.000486869	0.000410746	0	0	0	
0.302167	0.017254	0.00358024	0.000587489	0.000285133	0	0	0	
0.302333	-0.00679084	0.00212539	0.000506176	0.000167579	0	0	0	
0.3025	0.000683418	0.00445786	0.000327666	0.000130092	0	0	0	
0.302667	0.0112552	-0.00440628	0.000227197	0.000110348	0	0	0	
0.302833	-0.0301708	0.0108368	0.000298609	0.000132456	0	0	0	
0.303	0.0357273	-0.00947576	0.000430823	0.000171669	0	0	0	
0.303167	-0.0259082	0.00426681	0.000592381	0.000213335	0	0	0	
0.303333	0.00883186	-0.00170309	0.000706909	0.000194145	0	0	0	
0.3035	0.00040594	0.00746877	0.000760409	0.000166173	0	0	0	
0.303667	0.00324355	-0.0119103	0.000639536	0.000183772	0	0	0	
0.303833	-0.0111601	0.0148398	0.000433325	0.000309268	0	0	0	
0.304	0.0193879	-0.00831868	0.000301843	0.000429296	0	0	0	
0.304167	-0.0221493	0.00482886	0.000351417	0.000442271	0	0	0	
0.304333	0.00666244	-0.00299399	0.000394578	0.000325631	0	0	0	
0.3045	-0.00616554	0.0026255	0.000387256	0.000194632	0	0	0	
0.304667	0.0167058	-0.00363443	0.000294183	0.000147174	0	0	0	
0.304833	-0.0233056	0.0131099	0.000315721	0.000210623	0	0	0	
0.305	0.0269287	-0.014967	0.000384841	0.000314963	0	0	0	
0.305167	-0.026613	0.0103102	0.000476375	0.000356295	0	0	0	
0.305333	0.0171303	-0.00237847	0.000476448	0.000297709	0	0	0	
0.3055	-0.0209147	0.000426189	0.000429524	0.000197225	0	0	0	
0.305667	0.0184999	-0.00189105	0.000388695	0.000126914	0	0	0	
0.305833	-0.00247867	0.0118731	0.000463916	0.000114267	0	0	0	
0.306	0.00725588	-0.0194055	0.000641828	0.000188886	0	0	0	
0.306167	0.00253287	0.00746049	0.000719307	0.000237215	0	0	0	
0.306333	-0.00827322	-0.00285852	0.000590069	0.00024816	0	0	0	
0.3065	0.00894474	0.00350076	0.000354675	0.000190566	0	0	0	
0.306667	0.00851229	-0.00195107	0.000245574	0.000164083	0	0	0	
0.306833	-0.0302423	-0.000170109	0.000272483	0.000178551	0	0	0	
0.307	0.0539669	0.00352856	0.000599758	0.000206124	0	0	0	
0.307167	-0.0316148	-0.0136806	0.000885465	0.000236826	0	0	0	
0.307333	0.0188463	0.0151406	0.000988409	0.000259105	0	0	0	
0.3075	-0.0174359	-0.00796671	0.000775679	0.000248969	0	0	0	
0.307667	0.0176512	0.00154978	0.000552729	0.000191479	0	0	0	
0.307833	-0.0266414	0.00521841	0.000522785	0.000118269	0	0	0	
0.308	0.0351264	-0.0106196	0.000600399	9.3364E-05	0	0	0	
0.308167	-0.0197137	0.0133619	0.000718872	0.000145634	0	0	0	
0.308333	-0.00509588	-9.19954E-05	0.000720635	0.000197468	0	0	0	
0.3085	0.00442786	-0.00134242	0.00051424	0.000275235	0	0	0	
0.308667	0.0164665	0.00533046	0.000338242	0.000305095	0	0	0	
0.308833	-0.0351401	0.00133425	0.00032357	0.000276188	0	0	0	
0.309	0.03466	-0.00983926	0.000486911	0.000199709	0	0	0	
0.309167	-0.0288012	0.0096667	0.000670755	0.000145023	0	0	0	
0.309333	0.0132559	-0.0100281	0.000756287	0.000186286	0	0	0	
0.3095	-0.0110212	0.0116989	0.000687745	0.000265396	0	0	0	
0.309667	0.00919028	-0.00403197	0.000476006	0.000320239	0	0	0	
0.309833	-0.00753551	0.000798887	0.000295081	0.000298918	0	0	0	
0.31	0.0138472	-0.000423653	0.000215332	0.000183225	0	0	0	
0.310167	-0.0157002	0.000844899	0.000221566	9.5814E-05	0	0	0	
0.310333	0.0141913	-0.0106239	0.000245526	9.25158E-05	0	0	0	
0.3105	-0.0176669	0.0100157	0.000282887	0.000143512	0	0	0	
0.310667	0.00902097	-0.00711308	0.000296292	0.000206736	0	0	0	
0.310833	-0.0128783	0.00340933	0.000292573	0.000195093	0	0	0	
0.311	0.0101257	-0.00521117	0.00035868	0.000178015	0	0	0	
0.311167	0.00418171	0.00405795	0.000423506	0.000147196	0	0	0	
0.311333	-0.00276228	-0.00787126	0.000405362	0.000190215	0	0	0	
0.3115	-0.00557684	0.00784451	0.000265556	0.000242778	0	0	0	
0.311667	0.00668745	-0.00734499	0.000136285	0.000306908	0	0	0	
0.311833	-0.0166198	0.00270653	0.000187583	0.000309055	0	0	0	
0.312	0.0154048	-0.00205521	0.000297352	0.000248823	0	0	0	
0.312167	-0.0158523	0.00670336	0.000370589	0.000156601	0	0	0	
0.312333	0.0110076	-0.0132771	0.000389793	0.000141379	0	0	0	
0.3125	0.000416058	0.0201299	0.000425231	0.000252844	0	0	0	
0.312667	0.00866871	-0.00834316	0.000407675	0.000367691	0	0	0	
0.312833	-0.0280001	0.0105155	0.000406998	0.000422869	0	0	0	
0.313	0.015816	-0.00458457	0.000382594	0.000354291	0	0	0	
0.313167	0.00500424	0.0014806	0.000421546	0.000279096	0	0	0	
0.313333	-0.000943498	0.00239543	0.000309224	0.000186513	0	0	0	
0.3135	-0.0206142	0.00590397	0.000246032	0.000125758	0	0	0	
0.313667	0.02253	-0.00848696	0.000247117	0.000109806	0	0	0	
0.313833	-0.0255373	0.00832335	0.000372536	0.000141197	0	0	0	
0.314	0.0193387	-0.0031657	0.000440326	0.000179275	0	0	0	
0.314167	-0.0166182	0.00275143	0.000446345	0.000168597	0	0	0	
0.314333	0.0144757	-0.00266354	0.000422975	0.000133092	0	0	0	
0.3145	-0.00596792	-0.000928531	0.000384276	0.000154497	0	0	0	
0.314667	0.00816951	0.00408592	0.000325814	0.000250862	0	0	0	
0.314833	-0.0242545	-0.00456203	0.000288003	0.000349032	0	0	0	
0.315	0.0274374	-0.000274584	0.000361452	0.000341515	0	0	0	
0.315167	-0.0262015	-0.00113425	0.000442515	0.00023121	0	0	0	
0.315333	0.024961	0.00165098	0.000526442	0.000121144	0	0	0	
0.3155	-0.0128756	-0.0012703	0.000536581	9.0039E-05	0	0	0	
0.315667	-0.000419891	-0.00922202	0.000574618	0.000165775	0	0	0	
0.315833	-0.00459411	0.0129438	0.000515718	0.000288993	0	0	0	
0.316	0.00129514	-0.00914643	0.000391641	0.000382564	0	0	0	
0.316167	-0.0110649	-0.000622531	0.000322743	0.000379353	0	0	0	
0.316333	0.0255033	-0.000174569	0.000330471	0.000290469	0	0	0	
0.3165	-0.0215947	0.0054748	0.000402382	0.000201462	0	0	0	
0.316667	0.00153279	-0.00689698	0.000402636	0.000187313	0	0	0	
0.316833	0.165838	-0.0513598	0.000829573	0.000265961	0	0	0	
0.317	-0.0290074	-0.0290852	0.00153361	0.000528033	0	0	0	
0.317167	0.00697637	0.0175687	0.00157545	0.000657647	0	0	0	
0.317333	-0.00430017	0.00773261	0.0011145	0.000570727	0	0	0	
0.3175	0.00702563	0.00201344	0.000500444	0.000327884	0	0	0	
0.317667	0.00487444	-0.00676432	0.000629933	0.000183046	0	0	0	
0.317833	0.0201569	0.017271	0.00066154	0.000282942	0	0	0	
0.318	-0.0205824	-0.0111793	0.000616461	0.000335025	0	0	0	
0.318167	0.000231676	0.00586902	0.00052308	0.000339887	0	0	0	
0.318333	0.0215488	0.00479595	0.000587523	0.000239841	0	0	0	
0.3185	-0.0408867	0.010374	0.000583469	0.000214362	0	0	0	
0.318667	0.0237846	-0.00879812	0.00056788	0.000276628	0	0	0	
0.318833	-0.0188472	0.00528492	0.00056339	0.000330971	0	0	0	
0.319	0.0143516	-0.00550089	0.000517162	0.000292953	0	0	0	
0.319167	-0.00752747	0.00871267	0.000450395	0.000218975	0	0	0	
0.319333	0.00970066	-0.00653979	0.000358888	0.00021445	0	0	0	
0.3195	-0.0186043	0.00374904	0.000298986	0.000316762	0	0	0	
0.319667	0.0192143	-0.0066477	0.00032017	0.000419513	0	0	0	
0.319833	-0.00995699	0.0020064	0.000334655	0.000414355	0	0	0	
0.32	0.00414044	0.000195757	0.000370147	0.000323074	0	0	0	
0.320167	-0.00743959	0.00323683	0.0002887	0.000255121	0	0	0	
0.320333	0.0222578	-0.00132788	0.000279148	0.000270488	0	0	0	
0.3205	-0.020288	0.00767228	0.000345197	0.000309728	0	0	0	
0.320667	0.00981364	-0.00733348	0.000479247	0.000307616	0	0	0	
0.320833	0.00484582	0.00447268	0.000501404	0.000286058	0	0	0	
0.321	-0.00255827	-0.00225705	0.000393605	0.000276918	0	0	0	
0.321167	-0.0114124	0.00671644	0.00029239	0.000280042	0	0	0	
0.321333	0.0177368	-0.00417699	0.000318918	0.000280429	0	0	0	
0.3215	-0.0112934	0.00565202	0.000379018	0.000297776	0	0	0	
0.321667	0.00788255	0.00261396	0.000366575	0.000316712	0	0	0	
0.321833	-0.0041189	0.00182014	0.000332985	0.000338718	0	0	0	
0.322	0.00226848	-0.00296581	0.000388634	0.00031092	0	0	0	
0.322167	-0.0118263	0.000145984	0.000481762	0.000268038	0	0	0	
0.322333	0.0150713	0.000109166	0.000489767	0.000228705	0	0	0	
0.3225	-0.0133182	0.00515158	0.00043241	0.000213771	0	0	0	
0.322667	0.00689341	-0.00575397	0.000467377	0.00024602	0	0	0	
0.322833	-0.00584672	0.00750984	0.000556707	0.000316565	0	0	0	
0.323	0.0132157	-0.00092568	0.000579534	0.000363561	0	0	0	
0.323167	-0.0185534	-0.00459924	0.000518746	0.000363909	0	0	0	
0.323333	0.0166335	0.00347445	0.000469236	0.000340258	0	0	0	
0.3235	-0.0167318	-0.00223378	0.000469854	0.000322843	0	0	0	
0.323667	0.0301098	0.000674634	0.000505028	0.000307419	0	0	0	
0.323833	-0.0318109	0.0024861	0.000559898	0.000286504	0	0	0	
0.324	0.0179021	-0.00152817	0.000652827	0.000279358	0	0	0	
0.324167	-0.00030562	0.0058259	0.000706173	0.000296028	0	0	0	
