0	-0.00221523	0.000573299	2.21523E-07	5.73299E-08	0	0	0	
0.000166667	0.0060167	-0.00263272	4.11736E-05	1.10018E-05	0	0	0	
0.000333333	0.00130833	0.00195702	7.53018E-05	2.71981E-05	0	0	0	
0.0005	0.00216921	-0.00295664	0.00010615	4.34444E-05	0	0	0	
0.000666667	0.00147375	0.00177246	8.02793E-05	4.69584E-05	0	0	0	
0.000833333	0.0050469	-0.00295641	6.79295E-05	4.53165E-05	0	0	0	
0.001	-0.00219226	0.00172708	6.46587E-05	4.3677E-05	0	0	0	
0.00116667	0.0102244	-0.00252495	9.36783E-05	4.68535E-05	0	0	0	
0.00133333	-0.000813688	0.000197813	0.000127823	4.7368E-05	0	0	0	
0.0015	0.00886794	-0.00359658	0.000139948	4.85861E-05	0	0	0	
0.00166667	0.00265362	0.000778672	0.000134473	5.454E-05	0	0	0	
0.00183333	0.00850904	-0.00398294	0.000112018	5.48842E-05	0	0	0	
0.002	-0.00233178	0.0022486	0.000123553	6.69292E-05	0	0	0	
0.00216667	0.00902749	-0.0052286	0.000131686	6.89554E-05	0	0	0	
0.00233333	0.0021355	0.0028614	0.000143648	8.04904E-05	0	0	0	
0.0025	0.0101193	-0.00366204	0.000125185	7.74734E-05	0	0	0	
0.00266667	-0.00134223	0.00094374	0.000123758	7.67121E-05	0	0	0	
0.00283333	0.00631545	-0.00337244	0.000139647	6.68529E-05	0	0	0	
0.003	0.00125568	0.00222352	0.000143005	6.6049E-05	0	0	0	
0.00316667	0.0131573	-0.00551589	0.000136717	7.1374E-05	0	0	0	
0.00333333	-0.0016678	0.00246774	0.000134641	8.6644E-05	0	0	0	
0.0035	0.00657318	-0.00293053	0.000154552	8.15094E-05	0	0	0	
0.00366667	0.0015552	0.00069303	0.000151379	6.56898E-05	0	0	0	
0.00383333	0.0111177	-0.00280469	0.000127495	4.16636E-05	0	0	0	
0.004	-0.00121512	0.00193641	0.000126466	3.97698E-05	0	0	0	
0.00416667	0.0095014	-0.00475407	0.000137366	5.24881E-05	0	0	0	
0.00433333	0.000476697	0.00188842	0.000148587	7.44946E-05	0	0	0	
0.0045	0.00844145	-0.00418589	0.000120383	7.58544E-05	0	0	0	
0.00466667	-0.000859124	0.00269786	0.000122081	7.39978E-05	0	0	0	
0.00483333	0.0107454	-0.00511848	0.000115018	6.92899E-05	0	0	0	
0.005	-0.000887622	0.00261172	0.000140863	8.15369E-05	0	0	0	
0.00516667	0.00771317	-0.00395596	0.000143878	7.69914E-05	0	0	0	
0.00533333	0.00161725	0.00101028	0.000143223	7.92429E-05	0	0	0	
0.0055	0.0103105	-0.00419967	0.000121431	6.77661E-05	0	0	0	
0.00566667	-0.00182137	0.00284214	0.00012424	7.55197E-05	0	0	0	
0.00583333	0.00779787	-0.00415126	0.000135452	7.14014E-05	0	0	0	
0.006	-0.00256465	0.00174614	0.000156313	7.67457E-05	0	0	0	
0.00616667	0.0111724	-0.00364186	0.000150435	6.62575E-05	0	0	0	
0.00633333	0.00802035	0.000891119	0.000159087	6.5921E-05	0	0	0	
0.0065	-0.000154738	-0.00331429	0.000140683	5.6395E-05	0	0	0	
0.00666667	-0.00879348	0.00209429	0.000235353	6.48523E-05	0	0	0	
0.00683333	0.0345221	-0.00413064	0.000300117	6.52385E-05	0	0	0	
0.007	-0.0145762	0.00253184	0.000431564	7.78176E-05	0	0	0	
0.00716667	-0.00202952	-0.00414084	0.000487295	7.49336E-05	0	0	0	
0.00733333	0.0163396	0.00228205	0.000425373	7.52469E-05	0	0	0	
0.0075	0.00800554	-0.00374737	0.000330192	6.72702E-05	0	0	0	
0.00766667	0.00219216	0.00116887	0.000179181	6.4171E-05	0	0	0	
0.00783333	-0.000231373	-0.00320515	0.000153037	5.63763E-05	0	0	0	
0.008	-0.00565146	0.00117345	0.000199134	5.59232E-05	0	0	0	
0.00816667	0.0343854	-0.00326736	0.000284276	5.57424E-05	0	0	0	
0.00833333	-0.00737618	0.00216723	0.000397	6.31789E-05	0	0	0	
0.0085	-0.00915364	-0.00468599	0.000486713	6.77018E-05	0	0	0	
0.00866667	0.00947464	0.00240441	0.00041122	7.90325E-05	0	0	0	
0.00883333	0.0207121	-0.00559121	0.000373603	8.13899E-05	0	0	0	
0.009	-0.00324426	0.0021158	0.000252741	8.78779E-05	0	0	0	
0.00916667	0.00471602	-0.0044908	0.00027124	7.72934E-05	0	0	0	
0.00933333	-0.00137007	0.00288041	0.000206482	7.7019E-05	0	0	0	
0.0095	0.0103561	-0.00533535	0.000165592	7.33125E-05	0	0	0	
0.00966667	0.0026263	0.00238836	0.000133001	8.32155E-05	0	0	0	
0.00983333	0.0135243	-0.00504515	0.00012466	7.99565E-05	0	0	0	
0.01	-0.00419163	0.00207052	0.000155496	8.29773E-05	0	0	0	
0.0101667	0.00696056	-0.00416101	0.000184993	6.95523E-05	0	0	0	
0.0103333	0.00218049	0.00283893	0.000185546	7.49161E-05	0	0	0	
0.0105	0.00704923	-0.00443782	0.000140843	6.88037E-05	0	0	0	
0.0106667	0.00681695	0.00213039	0.000105892	8.01889E-05	0	0	0	
0.0108333	0.00648085	-0.00368388	0.000102297	7.62412E-05	0	0	0	
0.011	-0.00819692	0.00178765	0.000166605	7.73827E-05	0	0	0	
0.0111667	0.0175621	-0.00444054	0.000198867	7.21412E-05	0	0	0	
0.0113333	-0.00276434	0.00278584	0.000250177	7.58397E-05	0	0	0	
0.0115	0.00724554	-0.00445224	0.00022771	7.45267E-05	0	0	0	
0.0116667	0.00789604	0.00269512	0.000222127	7.97089E-05	0	0	0	
0.0118333	-0.00368894	-0.00410323	0.000202377	7.60172E-05	0	0	0	
0.012	0.00680154	0.00237805	0.000206463	7.43574E-05	0	0	0	
0.0121667	0.016971	-0.00444715	0.000253874	7.3093E-05	0	0	0	
0.0123333	-0.0131167	0.000988668	0.000299429	7.16688E-05	0	0	0	
0.0125	0.014297	-0.0036776	0.000326615	6.61898E-05	0	0	0	
0.0126667	0.00383377	0.00192124	0.00029194	6.72172E-05	0	0	0	
0.0128333	0.00385667	-0.00430715	0.000229495	6.98703E-05	0	0	0	
0.013	0.00733084	0.00251212	0.000159201	8.42919E-05	0	0	0	
0.0131667	0.00265399	-0.00429869	0.000129937	7.79475E-05	0	0	0	
0.0133333	-0.000957212	0.00202231	0.000130876	7.54808E-05	0	0	0	
0.0135	0.0157902	-0.0050939	0.000138083	6.73204E-05	0	0	0	
0.0136667	-0.00198424	0.0018235	0.00015956	7.2532E-05	0	0	0	
0.0138333	0.00889943	-0.00367757	0.000159517	6.60402E-05	0	0	0	
0.014	-0.000630309	0.00138769	0.000165732	6.70988E-05	0	0	0	
0.0141667	0.00724253	-0.00406169	0.000150165	5.8972E-05	0	0	0	
0.0143333	0.000256232	0.00299431	0.000139965	7.09743E-05	0	0	0	
0.0145	0.0134718	-0.00495279	0.000139543	7.37823E-05	0	0	0	
0.0146667	-0.00155425	0.00228448	0.000145094	8.24489E-05	0	0	0	
0.0148333	0.00562817	-0.00422284	0.000160723	7.79737E-05	0	0	0	
0.015	0.00109106	0.00151601	0.000152047	8.05162E-05	0	0	0	
0.0151667	0.0135419	-0.00330877	0.000129485	7.14831E-05	0	0	0	
0.0153333	-0.0035159	0.00200934	0.000142527	7.21346E-05	0	0	0	
0.0155	0.00822954	-0.00363897	0.0001601	6.47921E-05	0	0	0	
0.0156667	-1.02927E-05	0.00226412	0.000167488	7.45347E-05	0	0	0	
0.0158333	0.0121337	-0.00426432	0.000135401	7.28276E-05	0	0	0	
0.016	-0.00164509	0.00155394	0.000136646	7.53946E-05	0	0	0	
0.0161667	0.00628056	-0.00413319	0.000151078	6.42615E-05	0	0	0	
0.0163333	0.00261551	0.00234014	0.000149639	6.80739E-05	0	0	0	
0.0165	0.00986723	-0.00316211	0.000125622	6.42229E-05	0	0	0	
0.0166667	-0.000585351	0.00202999	0.000115306	7.13081E-05	0	0	0	
0.0168333	0.00575851	-0.00478236	0.000124406	6.28285E-05	0	0	0	
0.017	0.00026297	0.00215708	0.00013446	6.99434E-05	0	0	0	
0.0171667	0.0117917	-0.00503616	0.000121271	6.88827E-05	0	0	0	
0.0173333	-0.000879659	0.0012726	0.000130777	7.85185E-05	0	0	0	
0.0175	0.00851803	-0.00297693	0.000130298	6.48225E-05	0	0	0	
0.0176667	-0.000572924	0.00137252	0.000138781	6.20444E-05	0	0	0	
0.0178333	0.00780594	-0.0026972	0.000135609	5.05894E-05	0	0	0	
0.018	0.00174441	0.000838034	0.000136389	6.18826E-05	0	0	0	
0.0181667	0.0077497	-0.00409811	0.000123331	6.21516E-05	0	0	0	
0.0183333	-0.00136621	0.0011434	0.000124661	7.4478E-05	0	0	0	
0.0185	0.0107864	-0.00389961	0.000123502	6.47583E-05	0	0	0	
0.0186667	-0.000338634	0.00181449	0.000144322	6.48711E-05	0	0	0	
0.0188333	0.00988398	-0.0039669	0.000135684	5.76979E-05	0	0	0	
0.019	-0.00131818	0.00131273	0.000146771	6.50353E-05	0	0	0	
0.0191667	0.007725	-0.00452001	0.000140963	5.95412E-05	0	0	0	
0.0193333	0.000379242	0.00209938	0.00014155	6.34609E-05	0	0	0	
0.0195	0.0112765	-0.00412676	0.000125235	6.08057E-05	0	0	0	
0.0196667	-0.000937318	0.00199404	0.000134615	6.69592E-05	0	0	0	
0.0198333	0.00977945	-0.00424963	0.000137466	6.47027E-05	0	0	0	
0.02	-0.00146676	0.00133906	0.000154774	6.60916E-05	0	0	0	
0.0201667	0.0081068	-0.00377758	0.000146507	6.16869E-05	0	0	0	
0.0203333	0.002245	0.00208447	0.000143071	6.96335E-05	0	0	0	
0.0205	0.0103883	-0.00433873	0.000124375	7.22024E-05	0	0	0	
0.0206667	-0.0012696	0.00215946	0.000135603	8.21506E-05	0	0	0	
0.0208333	0.0100573	-0.00451911	0.000133234	7.16128E-05	0	0	0	
0.021	-0.00221321	0.00206929	0.000155682	7.40062E-05	0	0	0	
0.0211667	0.00839904	-0.00406836	0.000150283	6.95181E-05	0	0	0	
0.0213333	0.00587757	0.00192464	0.000152297	7.36506E-05	0	0	0	
0.0215	0.00714111	-0.00402307	0.00013043	6.61682E-05	0	0	0	
0.0216667	-0.00855395	0.00264445	0.000161315	7.3245E-05	0	0	0	
0.0218333	0.0230121	-0.00486708	0.000205172	7.38169E-05	0	0	0	
0.022	-0.00654285	0.00252564	0.000301065	8.37439E-05	0	0	0	
0.0221667	-0.00378697	-0.00516968	0.000401052	8.01071E-05	0	0	0	
0.0223333	0.0274009	0.0019672	0.000419862	8.01475E-05	0	0	0	
0.0225	-0.00564923	-0.00379384	0.000413139	7.1639E-05	0	0	0	
0.0226667	-0.0127184	0.00213012	0.000423108	7.02536E-05	0	0	0	
0.0228333	0.0245346	-0.00380086	0.000405243	6.69389E-05	0	0	0	
0.023	0.000303987	0.00152669	0.000383645	7.32979E-05	0	0	0	
0.0231667	0.0134867	-0.00432	0.000227372	6.83606E-05	0	0	0	
0.0233333	-0.0133663	0.00291435	0.00023785	7.50931E-05	0	0	0	
0.0235	-0.00110845	-0.00448859	0.000327405	7.53576E-05	0	0	0	
0.0236667	0.0277637	0.00207142	0.000444197	8.45921E-05	0	0	0	
0.0238333	0.00936019	-0.00498797	0.000495485	8.01068E-05	0	0	0	
0.024	-0.0209275	0.00290245	0.000464903	8.21473E-05	0	0	0	
0.0241667	0.00862142	-0.00463731	0.000465735	7.66199E-05	0	0	0	
0.0243333	0.0140019	0.00204343	0.000431942	7.83548E-05	0	0	0	
0.0245	0.0105962	-0.00283879	0.000342511	6.53952E-05	0	0	0	
0.0246667	-0.00355453	0.00100285	0.000251347	5.99712E-05	0	0	0	
0.0248333	0.00304915	-0.00414003	0.000208644	5.13319E-05	0	0	0	
0.025	0.00166453	0.00311134	0.000163546	6.51684E-05	0	0	0	
0.0251667	0.0106309	-0.00434455	0.000143825	7.50028E-05	0	0	0	
0.0253333	0.00612583	0.001419	0.000134639	8.32107E-05	0	0	0	
0.0255	0.00737489	-0.00418857	0.000142296	7.26729E-05	0	0	0	
0.0256667	-0.00697167	0.00218781	0.000173837	6.96798E-05	0	0	0	
0.0258333	0.00974009	-0.00526168	0.000187848	6.81983E-05	0	0	0	
0.026	0.00553564	0.00284491	0.000219461	8.08678E-05	0	0	0	
0.0261667	0.0099211	-0.00413323	0.000179663	7.82355E-05	0	0	0	
0.0263333	-0.00713114	0.00213982	0.000175389	7.56118E-05	0	0	0	
0.0265	0.010623	-0.00369718	0.00018177	6.31751E-05	0	0	0	
0.0266667	0.00314362	0.0011933	0.000198439	6.20508E-05	0	0	0	
0.0268333	0.00603763	-0.00420056	0.000170348	5.97687E-05	0	0	0	
0.027	-0.000485119	0.00169279	0.00013703	6.77451E-05	0	0	0	
0.0271667	0.00968362	-0.00450089	0.000128643	6.40683E-05	0	0	0	
0.0273333	0.00314656	0.00166139	0.000131003	7.21188E-05	0	0	0	
0.0275	0.00156557	-0.00353989	0.000119566	6.55375E-05	0	0	0	
0.0276667	0.00153321	0.00242869	0.000137488	7.81113E-05	0	0	0	
0.0278333	0.0176612	-0.00471519	0.00015064	7.61328E-05	0	0	0	
0.028	-0.00947521	0.00335711	0.000221255	8.58369E-05	0	0	0	
0.0281667	0.00766915	-0.00511183	0.000259099	8.13678E-05	0	0	0	
0.0283333	0.00457624	0.00168592	0.000247859	8.56366E-05	0	0	0	
0.0285	0.00802157	-0.00391267	0.000184584	7.12925E-05	0	0	0	
0.0286667	0.00165154	0.00106075	0.000124678	6.98578E-05	0	0	0	
0.0288333	0.00124895	-0.00445805	0.000137966	6.00458E-05	0	0	0	
0.029	0.00129086	0.00263067	0.000137253	7.50857E-05	0	0	0	
0.0291667	0.0148085	-0.00439522	0.000134851	7.53829E-05	0	0	0	
0.0293333	-0.00245319	0.00171515	0.00014566	8.04998E-05	0	0	0	
0.0295	0.00291526	-0.00365111	0.000168503	6.81104E-05	0	0	0	
0.0296667	0.00327562	0.000608547	0.000160992	6.77115E-05	0	0	0	
0.0298333	0.00995476	-0.00399473	0.000121029	6.24293E-05	0	0	0	
0.03	-0.00536549	0.00149688	0.000128702	7.43634E-05	0	0	0	
0.0301667	0.0113633	-0.00481281	0.000162329	7.01671E-05	0	0	0	
0.0303333	0.000759064	0.00244516	0.000184657	8.15072E-05	0	0	0	
0.0305	0.00474709	-0.00403452	0.000157508	7.52204E-05	0	0	0	
0.0306667	0.00192009	0.00208366	0.00012691	8.3655E-05	0	0	0	
0.0308333	0.0100695	-0.00421007	0.000100268	7.2E-05	0	0	0	
0.031	-0.00388207	0.00232754	0.000125435	7.37374E-05	0	0	0	
0.0311667	0.00549825	-0.00419215	0.000146199	6.57228E-05	0	0	0	
0.0313333	0.00625026	0.00181395	0.000154162	7.12023E-05	0	0	0	
0.0315	0.00644517	-0.00281126	0.000144096	5.84524E-05	0	0	0	
0.0316667	-0.00311741	0.00161413	0.000159979	5.99677E-05	0	0	0	
0.0318333	0.00982007	-0.00285791	0.00016423	4.7033E-05	0	0	0	
0.032	-0.0013249	0.000687586	0.000164731	5.44732E-05	0	0	0	
0.0321667	0.0125936	-0.00318846	0.000131999	4.65384E-05	0	0	0	
0.0323333	-0.00947701	0.00217615	0.000196896	5.62701E-05	0	0	0	
0.0325	0.0246012	-0.00450947	0.000231288	5.70018E-05	0	0	0	
0.0326667	-0.0191109	0.00263973	0.00034956	6.86771E-05	0	0	0	
0.0328333	0.0223664	-0.00361142	0.000370812	6.35571E-05	0	0	0	
0.033	-0.00913085	0.00183119	0.000403983	6.43062E-05	0	0	0	
0.0331667	0.0121384	-0.00453518	0.00030938	5.95056E-05	0	0	0	
0.0333333	0.00151788	0.00274757	0.000256855	7.08998E-05	0	0	0	
0.0335	0.00810727	-0.00481216	0.000200821	7.51026E-05	0	0	0	
0.0336667	-0.00475168	0.00258625	0.000257908	7.93449E-05	0	0	0	
0.0338333	0.00928692	-0.00375399	0.000247749	7.372E-05	0	0	0	
0.034	0.00341417	0.00180292	0.000247656	7.16329E-05	0	0	0	
0.0341667	0.00545243	-0.00359915	0.000187196	6.59448E-05	0	0	0	
0.0343333	0.00103952	0.00170301	0.00019952	6.92954E-05	0	0	0	
0.0345	0.0108822	-0.00403526	0.000191774	6.67658E-05	0	0	0	
0.0346667	-0.0106844	0.00143737	0.000247522	7.1225E-05	0	0	0	
0.0348333	0.0219071	-0.00314406	0.000245049	6.1692E-05	0	0	0	
0.035	-0.00680093	0.000924157	0.000297302	5.72534E-05	0	0	0	
0.0351667	0.00574477	-0.00288997	0.000286436	4.3188E-05	0	0	0	
0.0353333	0.00375174	0.00191603	0.000251986	4.60239E-05	0	0	0	
0.0355	0.00592987	-0.00419015	0.000190509	5.23569E-05	0	0	0	
0.0356667	0.00544116	0.00148122	0.00012695	6.60911E-05	0	0	0	
0.0358333	0.00487751	-0.00395373	0.000118881	6.59516E-05	0	0	0	
0.036	-0.00338411	0.00197241	0.000135408	6.14911E-05	0	0	0	
0.0361667	0.0104941	-0.00531438	0.000128329	6.17497E-05	0	0	0	
0.0363333	0.00112975	0.00265208	0.000140201	7.53799E-05	0	0	0	
0.0365	0.00742063	-0.00399312	0.000138374	7.75079E-05	0	0	0	
0.0366667	0.00399624	0.00145651	0.000166578	7.70852E-05	0	0	0	
0.0368333	0.00212155	-0.00368146	0.000177169	6.08863E-05	0	0	0	
0.037	0.00396297	0.00255333	0.000140187	6.73332E-05	0	0	0	
0.0371667	0.00247932	-0.00470683	0.0001243	6.92232E-05	0	0	0	
0.0373333	0.00278129	0.00258664	0.000108914	8.38734E-05	0	0	0	
0.0375	0.0230412	-0.00335454	0.000202349	7.44679E-05	0	0	0	
0.0376667	-0.0270506	0.00145649	0.000331162	6.69634E-05	0	0	0	
0.0378333	0.0188518	-0.0035903	0.000498111	5.27454E-05	0	0	0	
0.038	0.0160289	0.00145648	0.000644551	5.53412E-05	0	0	0	
0.0381667	-0.0139027	-0.00265261	0.000595613	5.02411E-05	0	0	0	
0.0383333	0.00293377	0.00120089	0.000513986	5.45083E-05	0	0	0	
0.0385	0.0146962	-0.00367002	0.000301843	4.74539E-05	0	0	0	
0.0386667	0.00778289	0.00271478	0.000276671	5.83425E-05	0	0	0	
0.0388333	0.00199148	-0.00571765	0.000191864	6.86102E-05	0	0	0	
0.039	-0.0178319	0.00214306	0.000286047	8.55925E-05	0	0	0	
0.0391667	0.0216089	-0.00406509	0.000284723	8.28265E-05	0	0	0	
0.0393333	0.0161719	0.00157331	0.000441558	7.66564E-05	0	0	0	
0.0395	-0.0042	-0.00419146	0.000363852	5.87836E-05	0	0	0	
0.0396667	-0.0207873	0.00336557	0.000482109	6.99193E-05	0	0	0	
0.0398333	0.0299719	-0.00514723	0.000414633	7.2403E-05	0	0	0	
0.04	0.0106757	0.000965102	0.000559825	8.68844E-05	0	0	0	
0.0401667	-0.00838267	-0.00314132	0.000450417	6.70438E-05	0	0	0	
0.0403333	0.000785974	0.000191679	0.000379681	5.63887E-05	0	0	0	
0.0405	0.00957362	-0.00268451	0.00019591	3.94269E-05	0	0	0	
0.0406667	0.00163641	0.00229894	0.000133513	5.53908E-05	0	0	0	
0.0408333	0.00773664	-0.00370368	0.00012196	6.42377E-05	0	0	0	
0.041	0.00458651	0.00290917	0.000142582	8.05766E-05	0	0	0	
0.0411667	0.00280145	-0.00485781	0.000145885	7.61453E-05	0	0	0	
0.0413333	-0.000987789	0.00244121	0.000139083	7.52551E-05	0	0	0	
0.0415	0.0148361	-0.00309339	0.000130744	6.61212E-05	0	0	0	
0.0416667	-0.00521384	0.000212341	0.000167158	6.29292E-05	0	0	0	
0.0418333	0.0119192	-0.00226758	0.000192443	5.25246E-05	0	0	0	
0.042	-0.000504406	0.00236871	0.000216021	5.50643E-05	0	0	0	
0.0421667	0.00640646	-0.00423952	0.000202783	5.88665E-05	0	0	0	
0.0423333	0.000311746	0.00224535	0.000178174	6.74917E-05	0	0	0	
0.0425	0.0103405	-0.00363469	0.000157563	6.55705E-05	0	0	0	
0.0426667	-0.000739799	0.00136366	0.000145526	6.47995E-05	0	0	0	
0.0428333	0.00993936	-0.00393503	0.000144738	5.57111E-05	0	0	0	
0.043	0.00147521	0.00260461	0.000154715	6.38586E-05	0	0	0	
0.0431667	-0.00311948	-0.00409417	0.000166343	6.623E-05	0	0	0	
0.0433333	0.00827588	0.00186974	0.000173111	7.71077E-05	0	0	0	
0.0435	0.0166295	-0.00494957	0.000205804	7.1425E-05	0	0	0	
0.0436667	-0.0139321	0.00194501	0.000246074	7.17702E-05	0	0	0	
0.0438333	0.012023	-0.0041617	0.000324618	6.41161E-05	0	0	0	
0.044	0.00638498	0.00244672	0.000339501	7.07081E-05	0	0	0	
0.0441667	0.0023245	-0.00400753	0.000281497	6.43825E-05	0	0	0	
0.0443333	0.000159831	0.000997082	0.000180619	6.90768E-05	0	0	0	
0.0445	0.00697396	-0.00431317	0.000124246	5.86069E-05	0	0	0	
0.0446667	-0.00113724	0.00236308	0.000124298	6.80275E-05	0	0	0	
0.0448333	0.016414	-0.00476842	0.000140224	7.00827E-05	0	0	0	
0.045	-0.0100647	0.00301711	0.000195603	8.635E-05	0	0	0	
0.0451667	0.0118475	-0.0043922	0.000228699	7.81867E-05	0	0	0	
0.0453333	0.00354033	0.00215354	0.000266591	7.96869E-05	0	0	0	
0.0455	0.0029469	-0.00414361	0.000211613	6.49945E-05	0	0	0	
0.0456667	-0.000258944	0.00274293	0.000168865	7.11192E-05	0	0	0	
0.0458333	0.00975087	-0.00544099	0.000115043	6.90813E-05	0	0	0	
0.046	0.00114843	0.00280216	0.000114224	8.02647E-05	0	0	0	
0.0461667	0.00437973	-0.00377332	0.000105636	7.10575E-05	0	0	0	
0.0463333	-0.000908266	0.002841	0.00013195	7.10427E-05	0	0	0	
0.0465	0.0161648	-0.00382322	0.000125547	6.30336E-05	0	0	0	
0.0466667	-0.0101939	0.00146681	0.00019452	6.61917E-05	0	0	0	
0.0468333	0.0121531	-0.00404548	0.000226141	6.28752E-05	0	0	0	
0.047	2.83193E-05	0.00229416	0.000246301	7.27511E-05	0	0	0	
0.0471667	0.00816744	-0.00522279	0.000197509	7.34017E-05	0	0	0	
0.0473333	-0.00023687	0.00312157	0.000163935	8.69386E-05	0	0	0	
0.0475	0.00493052	-0.0043733	0.00014745	7.75409E-05	0	0	0	
0.0476667	0.00322129	0.00149942	0.000128726	8.04839E-05	0	0	0	
0.0478333	0.00752336	-0.00357993	0.000108566	6.22338E-05	0	0	0	
0.048	-0.00397608	0.00137308	0.000131526	6.05522E-05	0	0	0	
0.0481667	0.0158936	-0.00413629	0.000142434	5.36424E-05	0	0	0	
0.0483333	-0.0090676	0.000807595	0.000209955	6.38053E-05	0	0	0	
0.0485	0.0122542	-0.00259004	0.000223325	5.24883E-05	0	0	0	
0.0486667	0.000188069	0.00119529	0.000245642	5.43172E-05	0	0	0	
0.0488333	0.0056422	-0.0034613	0.000189469	4.29088E-05	0	0	0	
0.049	0.000469356	0.00141198	0.00014878	5.59642E-05	0	0	0	
0.0491667	0.00640922	-0.00524083	0.000106672	5.96751E-05	0	0	0	
0.0493333	0.000878448	0.00226824	0.000108994	7.30457E-05	0	0	0	
0.0495	0.00889854	-0.00437927	9.49481E-05	7.15424E-05	0	0	0	
0.0496667	-0.00172654	0.00283932	0.000122276	7.03315E-05	0	0	0	
0.0498333	0.00584712	-0.00391314	0.000121225	6.66863E-05	0	0	0	
0.05	-0.000129142	0.00185564	0.000136805	6.83801E-05	0	0	0	
0.0501667	0.0110304	-0.00411506	0.000113671	6.65657E-05	0	0	0	
0.0503333	-0.00628467	0.0020162	0.000143543	6.90145E-05	0	0	0	
0.0505	0.0122173	-0.00461265	0.0001831	6.61078E-05	0	0	0	
0.0506667	0.000110156	0.00287316	0.000222139	7.65395E-05	0	0	0	
0.0508333	0.00214588	-0.00531187	0.000217793	7.82628E-05	0	0	0	
0.051	0.00667481	0.00227313	0.000167496	8.98276E-05	0	0	0	
0.0511667	0.00473033	-0.00489792	0.000143784	7.82879E-05	0	0	0	
0.0513333	-0.00358092	0.00279094	0.000147874	7.76299E-05	0	0	0	
0.0515	0.0137806	-0.00389878	0.000150505	6.81162E-05	0	0	0	
0.0516667	-0.00815181	0.00135784	0.000197305	7.35308E-05	0	0	0	
0.0518333	0.014837	-0.0036042	0.000189688	6.47472E-05	0	0	0	
0.052	-0.000483142	0.0016094	0.000228841	7.05279E-05	0	0	0	
0.0521667	0.00152363	-0.00355512	0.000197739	6.28688E-05	0	0	0	
0.0523333	0.00544162	0.00159351	0.000161062	7.0026E-05	0	0	0	
0.0525	0.00765374	-0.00397873	0.000120816	5.95919E-05	0	0	0	
0.0526667	-0.00669226	0.00215109	0.000134965	6.58923E-05	0	0	0	
0.0528333	0.0118162	-0.0032503	0.000167532	5.90954E-05	0	0	0	
0.053	0.00756995	0.000884434	0.00024339	5.76037E-05	0	0	0	
0.0531667	-0.00863566	-0.00346813	0.000248469	4.95231E-05	0	0	0	
0.0533333	0.00508216	0.00232648	0.00029547	4.91602E-05	0	0	0	
0.0535	0.0244201	-0.00393849	0.000353524	5.32686E-05	0	0	0	
0.0536667	-0.0214244	0.0014414	0.000425817	6.36745E-05	0	0	0	
0.0538333	0.0100235	-0.00421716	0.000479935	6.46998E-05	0	0	0	
0.054	0.010036	0.00222034	0.000411946	7.06708E-05	0	0	0	
0.0541667	0.0109535	-0.00442924	0.000311678	6.7223E-05	0	0	0	
0.0543333	-0.00453969	0.00244536	0.000217286	7.43238E-05	0	0	0	
0.0545	-0.00771325	-0.00421429	0.00024842	7.14511E-05	0	0	0	
0.0546667	0.00960827	0.0023156	0.00025033	7.31217E-05	0	0	0	
0.0548333	0.0294787	-0.00454854	0.000397317	6.9735E-05	0	0	0	
0.055	-0.0172045	0.00216984	0.000416819	7.12567E-05	0	0	0	
0.0551667	-0.00802907	-0.00351701	0.000594508	6.41279E-05	0	0	0	
0.0553333	0.0136886	0.000962003	0.000416042	5.80936E-05	0	0	0	
0.0555	0.0197806	-0.00273216	0.000413873	4.91624E-05	0	0	0	
0.0556667	-0.00845319	0.00125946	0.000283959	5.22497E-05	0	0	0	
0.0558333	0.00459421	-0.00389687	0.000327648	5.44194E-05	0	0	0	
0.056	-0.000952231	0.00337536	0.000223421	6.66181E-05	0	0	0	
0.0561667	0.0068046	-0.00460711	0.000168003	7.21223E-05	0	0	0	
0.0563333	0.00559525	0.0026712	0.000135409	8.2358E-05	0	0	0	
0.0565	0.00994087	-0.00380025	0.000134581	7.50837E-05	0	0	0	
0.0566667	-0.00315536	0.001833	0.000150218	6.97912E-05	0	0	0	
0.0568333	0.00384012	-0.00480601	0.000166388	6.13838E-05	0	0	0	
0.057	0.000319241	0.00299987	0.000166829	7.23797E-05	0	0	0	
0.0571667	0.0154426	-0.00355636	0.000139828	7.32139E-05	0	0	0	
0.0573333	-0.00251578	0.00135712	0.00015493	7.24673E-05	0	0	0	
0.0575	0.00545706	-0.00346223	0.000182637	5.34336E-05	0	0	0	
0.0576667	0.00166507	0.00227341	0.000189615	5.39528E-05	0	0	0	
0.0578333	0.00506822	-0.0035015	0.000162048	5.222E-05	0	0	0	
0.058	0.00147859	0.00159187	0.000130498	6.41318E-05	0	0	0	
0.0581667	0.00927164	-0.003706	0.000126166	6.1007E-05	0	0	0	
0.0583333	0.00500176	0.00250945	0.00012815	6.4281E-05	0	0	0	
0.0585	0.000932984	-0.00492331	0.000125767	6.4036E-05	0	0	0	
0.0586667	-0.00209706	0.0027281	0.000166629	7.42996E-05	0	0	0	
0.0588333	0.0166929	-0.00392091	0.000173631	7.56147E-05	0	0	0	
0.059	-0.00628189	0.00166257	0.000227074	7.64524E-05	0	0	0	
0.0591667	0.0090386	-0.00332058	0.000217797	6.57242E-05	0	0	0	
0.0593333	-0.000183316	0.00176372	0.000210863	6.1307E-05	0	0	0	
0.0595	0.00921796	-0.00342331	0.00016826	5.52583E-05	0	0	0	
0.0596667	0.00774841	0.00167763	0.000177255	6.28074E-05	0	0	0	
0.0598333	-0.00247511	-0.00296601	0.000198133	6.20671E-05	0	0	0	
0.06	-0.00296246	0.000957719	0.000205419	6.18211E-05	0	0	0	
0.0601667	0.0153395	-0.00377844	0.000165398	5.21205E-05	0	0	0	
0.0603333	0.00223418	0.00270711	0.000160638	5.56895E-05	0	0	0	
0.0605	0.00571355	-0.004602	0.00014728	6.12773E-05	0	0	0	
0.0606667	-0.00247296	0.00274698	0.000165992	7.42203E-05	0	0	0	
0.0608333	0.0074034	-0.00344909	0.000143295	7.19928E-05	0	0	0	
0.061	0.000922047	0.00290038	0.000148555	7.34844E-05	0	0	0	
0.0611667	0.0123001	-0.00377198	0.000122069	6.71663E-05	0	0	0	
0.0613333	-0.00604318	0.00272002	0.000153878	7.21359E-05	0	0	0	
0.0615	0.0065822	-0.00391355	0.00018894	6.95016E-05	0	0	0	
0.0616667	0.00664221	0.00198614	0.00020998	7.06284E-05	0	0	0	
0.0618333	0.00480121	-0.00382564	0.000169616	6.49836E-05	0	0	0	
0.062	-0.0041724	0.00149807	0.000154347	6.58807E-05	0	0	0	
0.0621667	0.011885	-0.00218664	0.000142031	5.26209E-05	0	0	0	
0.0623333	-0.00121132	0.00158348	0.00016932	4.99926E-05	0	0	0	
0.0625	0.0106627	-0.00380313	0.000133906	4.54021E-05	0	0	0	
0.0626667	-0.00559984	0.00276197	0.000165545	5.82326E-05	0	0	0	
0.0628333	0.00833511	-0.0050178	0.000173529	6.97163E-05	0	0	0	
0.063	0.00548357	0.00176824	0.000215602	7.69799E-05	0	0	0	
0.0631667	0.00191442	-0.00359732	0.000191954	6.71595E-05	0	0	0	
0.0633333	0.00171435	0.00151076	0.000158662	6.1137E-05	0	0	0	
0.0635	0.0100837	-0.00325954	0.000115911	4.98128E-05	0	0	0	
0.0636667	-0.00296673	0.00208779	0.000132388	5.64298E-05	0	0	0	
0.0638333	0.00621282	-0.00407538	0.00013921	5.51841E-05	0	0	0	
0.064	-0.000530246	0.00220852	0.000161317	6.41906E-05	0	0	0	
0.0641667	0.0150368	-0.00386518	0.000131438	6.44843E-05	0	0	0	
0.0643333	-0.00357953	0.0013632	0.000161994	6.31687E-05	0	0	0	
0.0645	0.00379237	-0.00298083	0.000183408	5.57525E-05	0	0	0	
0.0646667	-0.000337592	0.00230774	0.000195499	5.40871E-05	0	0	0	
0.0648333	0.0131044	-0.00404381	0.000152191	5.47165E-05	0	0	0	
0.065	-0.00162833	0.00313271	0.000144539	6.61768E-05	0	0	0	
0.0651667	0.00527837	-0.00385634	0.000150414	7.33072E-05	0	0	0	
0.0653333	0.00079402	0.00264708	0.000165569	7.63787E-05	0	0	0	
0.0655	0.0107281	-0.00412303	0.000128529	6.94494E-05	0	0	0	
0.0656667	-0.0017806	0.00242286	0.000142033	6.975E-05	0	0	0	
0.0658333	0.00659814	-0.00405121	0.000124887	6.57993E-05	0	0	0	
0.066	-0.00151265	0.00313423	0.000148026	7.13393E-05	0	0	0	
0.0661667	0.0102107	-0.00261775	0.000122388	6.41137E-05	0	0	0	
0.0663333	0.00174716	0.00152951	0.00014868	6.18585E-05	0	0	0	
0.0665	0.00754234	-0.00388097	0.000130751	5.48578E-05	0	0	0	
0.0666667	-0.00284302	0.00220441	0.00015463	5.79577E-05	0	0	0	
0.0668333	0.01055	-0.00330834	0.000133504	5.63537E-05	0	0	0	
0.067	-0.00471763	0.00164825	0.000174769	5.60792E-05	0	0	0	
0.0671667	0.0143523	-0.00145967	0.00016463	4.41896E-05	0	0	0	
0.0673333	-0.00391864	0.00176199	0.000210329	4.2829E-05	0	0	0	
0.0675	0.00720323	-0.00400465	0.000214436	4.27932E-05	0	0	0	
0.0676667	0.00822067	0.00199212	0.00024263	5.60063E-05	0	0	0	
0.0678333	-0.00701601	-0.00325825	0.000235854	6.05218E-05	0	0	0	
0.068	0.0054467	0.00339428	0.000262819	6.57564E-05	0	0	0	
0.0681667	0.0221764	-0.00413954	0.000374801	7.01483E-05	0	0	0	
0.0683333	-0.0238606	0.00294259	0.000478521	7.68657E-05	0	0	0	
0.0685	0.0152475	-0.00442227	0.000527434	7.62259E-05	0	0	0	
0.0686667	0.00911308	0.00240815	0.000495237	7.11188E-05	0	0	0	
0.0688333	0.00287084	-0.00363271	0.00036509	6.60743E-05	0	0	0	
0.069	-0.000345873	0.00128419	0.00023836	6.22994E-05	0	0	0	
0.0691667	-0.0121019	-0.00251767	0.000193849	5.17699E-05	0	0	0	
0.0693333	0.0182695	0.00176741	0.000227207	5.09559E-05	0	0	0	
0.0695	0.0237302	-0.0041017	0.00040872	5.00891E-05	0	0	0	
0.0696667	-0.0213907	0.00283994	0.00044519	6.18339E-05	0	0	0	
0.0698333	-0.0020531	-0.0048528	0.000555848	6.64914E-05	0	0	0	
0.07	0.00919308	0.00235883	0.000370949	7.60175E-05	0	0	0	
0.0701667	0.0171953	-0.00395802	0.000313139	7.20177E-05	0	0	0	
0.0703333	-0.00297785	0.00160927	0.000202312	7.26645E-05	0	0	0	
0.0705	0.00428436	-0.0032434	0.000239833	5.95346E-05	0	0	0	
0.0706667	-0.00307641	0.00191883	0.000195383	6.21985E-05	0	0	0	
0.0708333	0.0050521	-0.0040632	0.000168374	5.9713E-05	0	0	0	
0.071	0.00603333	0.00298889	0.000150402	7.07765E-05	0	0	0	
0.0711667	0.0106888	-0.00349477	0.000139515	7.00589E-05	0	0	0	
0.0713333	-0.00244209	0.00230515	0.000149457	6.70338E-05	0	0	0	
0.0715	0.000404482	-0.00446657	0.000171523	6.22509E-05	0	0	0	
0.0716667	0.00111524	0.00207135	0.000166193	6.54962E-05	0	0	0	
0.0718333	0.0143469	-0.00321814	0.000138229	6.42611E-05	0	0	0	
0.072	-0.00268391	0.00275453	0.000149658	6.22885E-05	0	0	0	
0.0721667	0.0103988	-0.00397957	0.000155592	5.99045E-05	0	0	0	
0.0723333	-0.00785904	0.00228249	0.000199599	6.49858E-05	0	0	0	
0.0725	0.00699035	-0.00318822	0.000206522	6.29666E-05	0	0	0	
0.0726667	0.0037841	0.00209261	0.000212162	6.36814E-05	0	0	0	
0.0728333	0.011353	-0.00342164	0.000169431	5.76362E-05	0	0	0	
0.073	0.00341473	0.00302207	0.000145623	6.38402E-05	0	0	0	
0.0731667	-0.00854664	-0.00388547	0.000196878	6.42213E-05	0	0	0	
0.0733333	0.00616165	0.00238292	0.000214532	7.21101E-05	0	0	0	
0.0735	0.0166215	-0.00466193	0.000252338	6.99857E-05	0	0	0	
0.0736667	-0.00689943	0.00368468	0.000247832	8.09327E-05	0	0	0	
0.0738333	0.00812322	-0.00384676	0.000259529	7.77956E-05	0	0	0	
0.074	-0.00344515	0.00216034	0.000225961	8.23879E-05	0	0	0	
0.0741667	0.01322	-0.00345678	0.000196003	6.66287E-05	0	0	0	
0.0743333	0.00234899	0.00228281	0.000244458	6.46565E-05	0	0	0	
0.0745	0.000374364	-0.00369693	0.000259549	5.85034E-05	0	0	0	
0.0746667	-0.00153646	0.0017088	0.000238146	6.25468E-05	0	0	0	
0.0748333	0.0123286	-0.0029221	0.000152339	5.89306E-05	0	0	0	
0.075	-0.000137344	0.00113354	0.000139049	6.11371E-05	0	0	0	
0.0751667	0.00573383	-0.00323832	0.000136261	5.15251E-05	0	0	0	
0.0753333	-0.00181113	0.00196796	0.000159638	5.4915E-05	0	0	0	
0.0755	0.00853387	-0.004104	0.000123388	5.01356E-05	0	0	0	
0.0756667	-0.00154858	0.00245697	0.000148438	6.27527E-05	0	0	0	
0.0758333	0.0141457	-0.00379688	0.000128539	6.1351E-05	0	0	0	
0.076	-0.00943022	0.00154784	0.000195623	6.52691E-05	0	0	0	
0.0761667	0.00924983	-0.00279162	0.000203983	5.19629E-05	0	0	0	
0.0763333	0.00226424	0.00196761	0.000229128	5.26788E-05	0	0	0	
0.0765	0.00581497	-0.00399692	0.000161757	5.00938E-05	0	0	0	
0.0766667	-0.00215317	0.00289335	0.000140567	6.50434E-05	0	0	0	
0.0768333	0.0079558	-0.00401141	0.000123023	6.49436E-05	0	0	0	
0.077	0.00158125	0.00270905	0.000142318	7.10819E-05	0	0	0	
0.0771667	0.0085031	-0.00309542	0.000117552	5.87747E-05	0	0	0	
0.0773333	-0.00580669	0.00206215	0.000148454	6.21605E-05	0	0	0	
0.0775	0.00899752	-0.00357964	0.000151387	5.26188E-05	0	0	0	
0.0776667	0.00213561	0.00248344	0.000175754	5.88186E-05	0	0	0	
0.0778333	0.00759611	-0.00374201	0.000130134	5.68035E-05	0	0	0	
0.078	-0.00318999	0.00211299	0.000135643	6.35404E-05	0	0	0	
0.0781667	0.00862008	-0.00343612	0.000143504	5.72056E-05	0	0	0	
0.0783333	0.000354067	0.00195002	0.000178049	5.98743E-05	0	0	0	
0.0785	0.00645685	-0.00428955	0.000155845	5.66909E-05	0	0	0	
0.0786667	-0.000518479	0.00374137	0.000145071	7.17112E-05	0	0	0	
0.0788333	0.00772295	-0.00360685	0.000117914	7.18084E-05	0	0	0	
0.079	-0.000135573	0.00230889	0.000132926	7.16197E-05	0	0	0	
0.0791667	0.00789378	-0.00291964	0.000127016	5.61241E-05	0	0	0	
0.0793333	-0.00452814	0.0021186	0.000160707	5.45418E-05	0	0	0	
0.0795	0.0130134	-0.00405755	0.00015389	5.5087E-05	0	0	0	
0.0796667	-0.00199638	0.00274631	0.000185065	6.73607E-05	0	0	0	
0.0798333	0.00746104	-0.00327254	0.000150437	6.66515E-05	0	0	0	
0.08	-0.00536006	0.00295627	0.000175202	7.06378E-05	0	0	0	
0.0801667	0.0128398	-0.00342757	0.000147681	6.34508E-05	0	0	0	
0.0803333	-5.54357E-05	0.00272204	0.000176952	6.78656E-05	0	0	0	
0.0805	0.00420558	-0.00407089	0.000158324	6.50964E-05	0	0	0	
0.0806667	0.00268625	0.00153998	0.000152965	6.74104E-05	0	0	0	
0.0808333	0.00763308	-0.00281671	0.000121442	5.84922E-05	0	0	0	
0.081	-0.00666277	0.00236745	0.000147232	5.79951E-05	0	0	0	
0.0811667	0.0142636	-0.00422924	0.000153577	5.4005E-05	0	0	0	
0.0813333	-0.00208228	0.00193137	0.000200273	6.50505E-05	0	0	0	
0.0815	0.00676779	-0.00340103	0.000193298	6.08569E-05	0	0	0	
0.0816667	0.00201535	0.00158498	0.000196685	6.17475E-05	0	0	0	
0.0818333	0.00350146	-0.00285711	0.000153119	4.74812E-05	0	0	0	
0.082	-0.00430697	0.0021195	0.000143392	5.0796E-05	0	0	0	
0.0821667	0.0183555	-0.00413655	0.00013404	5.16406E-05	0	0	0	
0.0823333	-0.0041147	0.000851439	0.000215702	6.2617E-05	0	0	0	
0.0825	-0.00942904	-0.0031992	0.000326238	5.32772E-05	0	0	0	
0.0826667	0.0147177	0.00269279	0.000325866	5.69162E-05	0	0	0	
0.0828333	0.0181953	-0.00346766	0.000400211	5.33366E-05	0	0	0	
0.083	-0.0255188	0.00234567	0.000411511	6.71296E-05	0	0	0	
0.0831667	0.0167438	-0.00407837	0.00050362	6.1985E-05	0	0	0	
0.0833333	-0.00123391	0.00156964	0.000416932	6.36076E-05	0	0	0	
0.0835	0.0162135	-0.00298273	0.000276501	5.30883E-05	0	0	0	
0.0836667	-0.00685363	0.00197408	0.000241179	5.37937E-05	0	0	0	
0.0838333	-0.0117815	-0.00233917	0.000310494	4.50664E-05	0	0	0	
0.084	0.0208726	0.00202175	0.00033552	4.96742E-05	0	0	0	
0.0841667	0.0185009	-0.00416805	0.000465289	5.24717E-05	0	0	0	
0.0843333	-0.0224467	0.00228352	0.000453698	6.41846E-05	0	0	0	
0.0845	0.00173747	-0.00378574	0.000561808	6.40288E-05	0	0	0	
0.0846667	0.0111063	0.00310203	0.000407164	6.70919E-05	0	0	0	
0.0848333	0.0151779	-0.00399867	0.000330656	6.57423E-05	0	0	0	
0.085	-0.00736673	0.00274249	0.000249087	7.32411E-05	0	0	0	
0.0851667	0.00165209	-0.00410366	0.000278688	7.25438E-05	0	0	0	
0.0853333	0.00124793	0.00205968	0.000232077	7.07428E-05	0	0	0	
0.0855	0.00742151	-0.00336414	0.000168956	6.2045E-05	0	0	0	
0.0856667	0.00136886	0.00224654	0.00011658	6.08946E-05	0	0	0	
0.0858333	0.0119003	-0.00362429	0.00011275	6.02526E-05	0	0	0	
0.086	-0.0093987	0.00344222	0.000174263	7.09702E-05	0	0	0	
0.0861667	0.00552966	-0.00501856	0.000207625	7.36148E-05	0	0	0	
0.0863333	0.00221713	0.00307684	0.000221503	8.1098E-05	0	0	0	
0.0865	0.0111486	-0.0037387	0.000167451	7.64895E-05	0	0	0	
0.0866667	-0.00525679	0.00233984	0.000160559	7.24906E-05	0	0	0	
0.0868333	0.00897422	-0.00331454	0.000166643	6.15288E-05	0	0	0	
0.087	-0.00415849	0.00128571	0.000199539	5.69221E-05	0	0	0	
0.0871667	0.00717542	-0.00208049	0.000174906	4.58515E-05	0	0	0	
0.0873333	0.00295961	0.00139849	0.000174992	4.36783E-05	0	0	0	
0.0875	0.00301174	-0.00349408	0.000140992	4.28831E-05	0	0	0	
0.0876667	0.000432897	0.00182186	0.000130342	5.48651E-05	0	0	0	
0.0878333	0.0124736	-0.00381576	0.000123112	5.52595E-05	0	0	0	
0.088	-0.0174062	0.00355612	0.000210997	6.65238E-05	0	0	0	
0.0881667	0.0190719	-0.0047833	0.000283504	6.9396E-05	0	0	0	
0.0883333	0.00465688	0.00239155	0.000382205	7.6582E-05	0	0	0	
0.0885	-0.00489685	-0.00333313	0.000339473	6.91989E-05	0	0	0	
0.0886667	0.000598861	0.0010934	0.000268108	6.03671E-05	0	0	0	
0.0888333	0.0106993	-0.00292935	0.000173337	5.56045E-05	0	0	0	
0.089	-0.00373393	0.00123066	0.000162431	5.27612E-05	0	0	0	
0.0891667	0.0109347	-0.00153541	0.000144728	5.26497E-05	0	0	0	
0.0893333	-0.00783262	0.000611039	0.000182372	5.35539E-05	0	0	0	
0.0895	0.00962755	-0.00404878	0.000183819	4.89289E-05	0	0	0	
0.0896667	0.00612227	0.0030659	0.000246206	6.07309E-05	0	0	0	
0.0898333	0.000509656	-0.00375541	0.000198412	6.46954E-05	0	0	0	
0.09	-0.00412441	0.00205089	0.000193216	6.71001E-05	0	0	0	
0.0901667	0.0138352	-0.00333572	0.000137756	5.85842E-05	0	0	0	
0.0903333	-0.00285991	0.000303861	0.000174387	5.32843E-05	0	0	0	
0.0905	0.00648819	-0.0020793	0.000164378	4.42465E-05	0	0	0	
0.0906667	0.000358632	0.00137989	0.000183881	4.66365E-05	0	0	0	
0.0908333	0.00532531	-0.00380264	0.000128389	4.46808E-05	0	0	0	
0.091	-0.00376933	0.00317402	0.000133888	6.19755E-05	0	0	0	
0.0911667	0.0115998	-0.0034658	0.000118627	5.8969E-05	0	0	0	
0.0913333	-0.000458848	0.00157271	0.000168904	6.52936E-05	0	0	0	
0.0915	0.000554207	-0.00322385	0.000169823	5.28172E-05	0	0	0	
0.0916667	0.00512146	0.0016293	0.000163427	5.04229E-05	0	0	0	
0.0918333	0.00604037	-0.00292458	0.000129491	4.31683E-05	0	0	0	
0.092	-0.00406089	0.0022588	0.00012802	5.12384E-05	0	0	0	
0.0921667	0.0091692	-0.00335337	0.000137588	5.21052E-05	0	0	0	
0.0923333	-0.00274301	0.00237455	0.000166686	6.10209E-05	0	0	0	
0.0925	0.00860983	-0.00359312	0.00013614	6.02029E-05	0	0	0	
0.0926667	-0.00181976	0.00243292	0.000155921	6.7353E-05	0	0	0	
0.0928333	0.00485141	-0.00388389	0.000136265	6.28804E-05	0	0	0	
0.093	0.0018938	0.00242326	0.000146283	6.63626E-05	0	0	0	
0.0931667	0.00754662	-0.00397177	0.000115068	6.29249E-05	0	0	0	
0.0933333	-0.00448888	0.00220612	0.000136418	6.75675E-05	0	0	0	
0.0935	0.00962355	-0.00448193	0.000131943	6.68299E-05	0	0	0	
0.0936667	-0.00133384	0.00183401	0.000167896	7.07274E-05	0	0	0	
0.0938333	0.00663425	-0.00382961	0.000129552	6.38583E-05	0	0	0	
0.094	-0.00177284	0.00159535	0.000146626	6.03704E-05	0	0	0	
0.0941667	0.00567775	-0.00302126	0.000134797	5.1083E-05	0	0	0	
0.0943333	0.000315893	0.00158788	0.000155261	5.4896E-05	0	0	0	
0.0945	0.00710623	-0.00372065	0.000125429	5.32603E-05	0	0	0	
0.0946667	-0.000200665	0.00208932	0.000127799	6.30286E-05	0	0	0	
0.0948333	0.00752444	-0.00438338	0.000107614	6.00812E-05	0	0	0	
0.095	-0.00730801	0.00207499	0.000160887	6.72536E-05	0	0	0	
0.0951667	0.0134392	-0.0028689	0.000156307	5.85385E-05	0	0	0	
0.0953333	-0.00413236	0.00157943	0.000210379	5.96505E-05	0	0	0	
0.0955	0.00782948	-0.00316805	0.000185229	4.85047E-05	0	0	0	
0.0956667	-0.00109292	0.00177874	0.000197687	5.35884E-05	0	0	0	
0.0958333	0.00334161	-0.00304845	0.000167827	4.83756E-05	0	0	0	
0.096	0.00155179	0.00190793	0.000157236	5.43037E-05	0	0	0	
0.0961667	0.0102415	-0.00243663	0.000126219	4.61398E-05	0	0	0	
0.0963333	-0.00621925	0.00124518	0.000151427	4.96393E-05	0	0	0	
0.0965	0.00744667	-0.00389193	0.000164053	4.77515E-05	0	0	0	
0.0966667	-0.0017268	0.00269566	0.000193316	5.76706E-05	0	0	0	
0.0968333	0.00839207	-0.0039206	0.00015205	6.2072E-05	0	0	0	
0.097	-0.00156277	0.00205492	0.00016272	6.42151E-05	0	0	0	
0.0971667	0.00543476	-0.00320887	0.000132018	5.95101E-05	0	0	0	
0.0973333	-0.00364233	0.00150178	0.000156501	5.66999E-05	0	0	0	
0.0975	0.0111652	-0.00384686	0.000123459	5.19617E-05	0	0	0	
0.0976667	-0.00073308	0.00261188	0.000167566	5.7255E-05	0	0	0	
0.0978333	0.00322148	-0.00429873	0.000165907	5.97429E-05	0	0	0	
0.098	-0.00117221	0.00158268	0.000181492	6.80427E-05	0	0	0	
0.0981667	0.0096673	-0.00299703	0.000130827	5.69167E-05	0	0	0	
0.0983333	-0.00178729	0.000417873	0.000131656	5.42717E-05	0	0	0	
0.0985	0.00676087	-0.00360844	0.000120077	4.61714E-05	0	0	0	
0.0986667	-0.0070077	0.00339811	0.000166825	6.0516E-05	0	0	0	
0.0988333	0.0157965	-0.0036748	0.000184902	6.10972E-05	0	0	0	
0.099	0.00122537	0.00199936	0.000290885	6.67849E-05	0	0	0	
0.0991667	-0.011628	-0.00324512	0.000348313	5.72536E-05	0	0	0	
0.0993333	0.0107807	0.00127487	0.000343803	5.79064E-05	0	0	0	
0.0995	0.0226315	-0.00359349	0.000392308	5.28053E-05	0	0	0	
0.0996667	-0.0298819	0.00206336	0.000451637	5.94366E-05	0	0	0	
0.0998333	0.0102479	-0.00304817	0.000578872	5.63425E-05	0	0	0	
0.1	0.0145736	0.00319676	0.000553961	6.46829E-05	0	0	0	
0.100167	0.00502051	-0.00362419	0.000437172	6.27941E-05	0	0	0	
0.100333	-0.0119127	0.00238034	0.000330866	7.10672E-05	0	0	0	
0.1005	-0.00182465	-0.00346224	0.000290533	6.40868E-05	0	0	0	
0.100667	0.0129634	0.0020069	0.000260372	6.5002E-05	0	0	0	
0.100833	0.0215994	-0.00290178	0.000362361	5.38439E-05	0	0	0	
0.101	-0.0260219	0.000490468	0.000402685	5.3412E-05	0	0	0	
0.101167	-0.00250859	-0.00251651	0.000614339	3.64194E-05	0	0	0	
0.101333	0.0217363	0.00239133	0.000544368	4.412E-05	0	0	0	
0.1015	0.00778082	-0.00306156	0.000506316	4.3277E-05	0	0	0	
0.101667	-0.0141087	0.00279924	0.000364883	5.78294E-05	0	0	0	
0.101833	0.0100228	-0.00351462	0.000319605	5.42012E-05	0	0	0	
0.102	0.000259768	0.00258887	0.000256135	6.08774E-05	0	0	0	
0.102167	0.0048998	-0.0048213	0.000184258	6.31781E-05	0	0	0	
0.102333	-0.00308819	0.0031739	0.000158843	7.70485E-05	0	0	0	
0.1025	0.0134633	-0.00331112	0.000123684	7.55208E-05	0	0	0	
0.102667	-0.00446634	0.00312446	0.000170687	7.16722E-05	0	0	0	
0.102833	-6.00211E-05	-0.00300035	0.000193049	6.11855E-05	0	0	0	
0.103	0.00219994	0.0015213	0.000194972	5.91736E-05	0	0	0	
0.103167	0.00904897	-0.00327765	0.000142721	5.41188E-05	0	0	0	
0.103333	-0.00350264	0.00223235	0.000130289	6.0345E-05	0	0	0	
0.1035	0.00832308	-0.00382515	0.000126105	6.16202E-05	0	0	0	
0.103667	-0.00458415	0.0034556	0.000162664	7.05222E-05	0	0	0	
0.103833	0.00802945	-0.00377916	0.000139091	6.53673E-05	0	0	0	
0.104	-0.00133588	0.00218872	0.000175762	6.73762E-05	0	0	0	
0.104167	0.00462071	-0.00289498	0.000134707	6.03534E-05	0	0	0	
0.104333	0.00176584	0.000790301	0.000131046	5.68212E-05	0	0	0	
0.1045	0.00763487	-0.0025723	9.5145E-05	4.43118E-05	0	0	0	
0.104667	-0.0116822	0.00186547	0.000166772	4.96381E-05	0	0	0	
0.104833	0.0151578	-0.00393318	0.000189215	4.8903E-05	0	0	0	
0.105	0.00137605	0.00325831	0.000245206	6.58369E-05	0	0	0	
0.105167	-0.00239001	-0.0040341	0.000209473	6.74321E-05	0	0	0	
0.105333	-0.000256872	0.00222726	0.000182096	7.43734E-05	0	0	0	
0.1055	0.0157555	-0.00280102	0.000157719	5.93313E-05	0	0	0	
0.105667	-0.00763539	0.00133862	0.000195539	5.62148E-05	0	0	0	
0.105833	0.00308934	-0.00312894	0.000220282	4.48765E-05	0	0	0	
0.106	-0.000280393	0.00225652	0.000199846	5.30813E-05	0	0	0	
0.106167	0.00835037	-0.00383165	0.000129173	5.02351E-05	0	0	0	
0.106333	0.00340621	0.00249633	0.000131701	6.02172E-05	0	0	0	
0.1065	0.000108565	-0.00353986	0.000133168	5.82436E-05	0	0	0	
0.106667	-0.00301949	0.00210324	0.000161715	6.27114E-05	0	0	0	
0.106833	0.0139815	-0.00293396	0.00013458	5.41568E-05	0	0	0	
0.107	-0.00571559	0.00209135	0.000182332	5.48779E-05	0	0	0	
0.107167	0.00673086	-0.00350034	0.000180389	5.22347E-05	0	0	0	
0.107333	-0.00231085	0.0035417	0.000208455	6.34928E-05	0	0	0	
0.1075	0.00868524	-0.00451789	0.00014683	7.16876E-05	0	0	0	
0.107667	-0.00624875	0.00317234	0.000162472	8.10584E-05	0	0	0	
0.107833	0.0085114	-0.00473328	0.000150393	7.9341E-05	0	0	0	
0.108	0.000910384	0.00360486	0.000183369	8.05777E-05	0	0	0	
0.108167	0.00117548	-0.00481633	0.000161123	8.0896E-05	0	0	0	
0.108333	0.000739485	0.00272938	0.000147779	8.14111E-05	0	0	0	
0.1085	0.00897966	-0.00321903	0.000124766	6.98362E-05	0	0	0	
0.108667	-0.00774573	0.00242011	0.000153937	6.72997E-05	0	0	0	
0.108833	0.00622544	-0.00423178	0.000176798	6.20096E-05	0	0	0	
0.109	0.00193699	0.0030025	0.000196799	7.51265E-05	0	0	0	
0.109167	0.00415383	-0.00468259	0.000146825	7.2182E-05	0	0	0	
0.109333	-0.00238466	0.00248281	0.000136418	7.58238E-05	0	0	0	
0.1095	0.00660272	-0.00312349	0.000109412	6.39867E-05	0	0	0	
0.109667	-0.00242634	0.0016225	0.000137878	6.15398E-05	0	0	0	
0.109833	0.00640467	-0.00297441	0.000116252	5.30582E-05	0	0	0	
0.11	-0.00150417	0.00252683	0.000144352	5.8198E-05	0	0	0	
0.110167	0.00517131	-0.00458417	0.000137036	5.68683E-05	0	0	0	
0.110333	-0.000493511	0.00272514	0.000166226	7.13962E-05	0	0	0	
0.1105	0.00569163	-0.00410005	0.000147106	6.82765E-05	0	0	0	
0.110667	-0.00216552	0.00328862	0.000152401	7.51399E-05	0	0	0	
0.110833	0.005166	-0.00422476	0.000134718	6.90306E-05	0	0	0	
0.111	-0.00109144	0.00235264	0.000155047	7.2902E-05	0	0	0	
0.111167	0.00751584	-0.00323762	0.000130067	6.1928E-05	0	0	0	
0.111333	-0.00365969	0.00128279	0.000156739	6.09722E-05	0	0	0	
0.1115	0.00543873	-0.00322423	0.000129789	4.74319E-05	0	0	0	
0.111667	-0.00282759	0.0026691	0.000154787	5.32566E-05	0	0	0	
0.111833	0.00970403	-0.00465832	0.000111001	5.53583E-05	0	0	0	
0.112	-0.00430776	0.00240938	0.000156248	7.25388E-05	0	0	0	
0.112167	0.00383205	-0.00239746	0.000155495	6.45073E-05	0	0	0	
0.112333	0.00263087	0.00217737	0.000174579	5.99477E-05	0	0	0	
0.1125	0.00267504	-0.0033677	0.000133499	4.63401E-05	0	0	0	
0.112667	0.000266298	0.00352937	0.000113215	6.29683E-05	0	0	0	
0.112833	0.00105353	-0.00416167	0.000111778	6.55888E-05	0	0	0	
0.113	0.00402813	0.0016607	0.000109937	7.62195E-05	0	0	0	
0.113167	0.00268367	-0.00353267	0.000110128	6.0746E-05	0	0	0	
0.113333	-0.0020467	0.00228318	0.000115982	6.41283E-05	0	0	0	
0.1135	0.00621552	-0.00212688	0.000113236	5.16068E-05	0	0	0	
0.113667	-0.0010968	0.00281341	0.000134339	5.96319E-05	0	0	0	
0.113833	0.00569566	-0.00393871	0.00012876	5.15289E-05	0	0	0	
0.114	-0.0049563	0.00322264	0.000163899	7.07419E-05	0	0	0	
0.114167	0.00843854	-0.00458772	0.000159546	6.85835E-05	0	0	0	
0.114333	-0.000265837	0.00311299	0.000185854	8.0493E-05	0	0	0	
0.1145	0.000739494	-0.00321541	0.000176407	6.70826E-05	0	0	0	
0.114667	0.00041205	0.00180882	0.000157157	6.33424E-05	0	0	0	
0.114833	0.00844282	-0.00342645	0.000113288	4.89593E-05	0	0	0	
0.115	-0.0048811	0.00157178	0.000127574	5.51957E-05	0	0	0	
0.115167	0.0081826	-0.00318868	0.000131654	4.93135E-05	0	0	0	
0.115333	-0.00422689	0.00209802	0.000173333	5.61078E-05	0	0	0	
0.1155	0.0028315	-0.00370987	0.000172639	4.93142E-05	0	0	0	
0.115667	0.00937205	0.00304069	0.000205629	6.03212E-05	0	0	0	
0.115833	-0.00179709	-0.00425068	0.00019477	6.22268E-05	0	0	0	
0.116	-0.00919683	0.00249727	0.000233028	7.05225E-05	0	0	0	
0.116167	0.029742	-0.00368514	0.000272091	6.50841E-05	0	0	0	
0.116333	-0.0205151	0.00215488	0.000401045	6.43258E-05	0	0	0	
0.1165	-0.000528044	-0.00365883	0.000510689	5.72879E-05	0	0	0	
0.116667	0.0142323	0.00153047	0.000507358	6.29737E-05	0	0	0	
0.116833	0.00832264	-0.00271842	0.000387013	5.18504E-05	0	0	0	
0.117	-0.00527263	0.00248108	0.000238792	5.58064E-05	0	0	0	
0.117167	-0.00718006	-0.00371416	0.000225336	5.15946E-05	0	0	0	
0.117333	-0.000770914	0.00337472	0.000263861	6.6546E-05	0	0	0	
0.1175	0.0320407	-0.00354854	0.000368508	6.632E-05	0	0	0	
0.117667	-0.012763	0.00117722	0.000444527	6.53505E-05	0	0	0	
0.117833	-0.0130933	-0.00305726	0.000563243	5.3179E-05	0	0	0	
0.118	0.00557673	0.00162019	0.000429489	5.11914E-05	0	0	0	
0.118167	0.0181424	-0.00345606	0.000370141	4.93646E-05	0	0	0	
0.118333	-0.00531736	0.00170066	0.000249798	5.23937E-05	0	0	0	
0.1185	0.000534787	-0.00284181	0.000308805	5.0042E-05	0	0	0	
0.118667	7.15213E-07	0.0012086	0.000237799	5.02927E-05	0	0	0	
0.118833	0.0047078	-0.00261685	0.00016191	4.71584E-05	0	0	0	
0.119	-0.00430893	0.000956143	0.00012067	4.54401E-05	0	0	0	
0.119167	0.0114792	-0.0033591	0.000117741	4.23498E-05	0	0	0	
0.119333	-0.000186689	0.00337806	0.000168308	5.33017E-05	0	0	0	
0.1195	0.000292436	-0.00473532	0.000158557	6.42903E-05	0	0	0	
0.119667	-0.00440365	0.00293469	0.000178957	7.97494E-05	0	0	0	
0.119833	0.0121007	-0.00361305	0.000131413	7.2548E-05	0	0	0	
0.12	-9.75302E-05	0.0025686	0.000161972	7.14311E-05	0	0	0	
0.120167	0.00163486	-0.0029225	0.000163573	5.96764E-05	0	0	0	
0.120333	-0.00107588	0.0021733	0.000178135	6.23469E-05	0	0	0	
0.1205	0.00604093	-0.00383748	0.000125809	5.39103E-05	0	0	0	
0.120667	-0.00116853	0.00311983	0.000123075	5.90713E-05	0	0	0	
0.120833	0.00574682	-0.00313846	0.000110024	5.60361E-05	0	0	0	
0.121	-0.000635591	0.0023822	0.000137147	6.02821E-05	0	0	0	
0.121167	0.00897459	-0.00301982	0.000103407	5.3192E-05	0	0	0	
0.121333	-0.0120064	0.00276467	0.000185476	5.71342E-05	0	0	0	
0.1215	0.0143241	-0.00425728	0.000182473	5.58535E-05	0	0	0	
0.121667	-0.00172263	0.0023845	0.000254512	6.57692E-05	0	0	0	
0.121833	0.000702978	-0.00357475	0.000221424	6.21404E-05	0	0	0	
0.122	0.000857472	0.00203871	0.000209685	6.3319E-05	0	0	0	
0.122167	0.00464477	-0.00251368	0.000146479	5.50759E-05	0	0	0	
0.122333	0.00429541	0.00193925	0.00011513	5.56711E-05	0	0	0	
0.1225	-0.000411275	-0.0039843	0.000117077	4.9199E-05	0	0	0	
0.122667	-0.00993188	0.00313327	0.000166962	6.24607E-05	0	0	0	
0.122833	0.0163932	-0.00425494	0.000178416	6.28291E-05	0	0	0	
0.123	0.000212637	0.0019507	0.00024748	7.39437E-05	0	0	0	
0.123167	0.000742024	-0.00269522	0.000226053	5.90883E-05	0	0	0	
0.123333	-0.00226578	0.00223039	0.000216375	5.93429E-05	0	0	0	
0.1235	0.00642537	-0.00341929	0.000134178	4.76977E-05	0	0	0	
0.123667	-0.00353971	0.00272733	0.000139256	5.70947E-05	0	0	0	
0.123833	0.00935373	-0.00447016	0.00012154	5.85103E-05	0	0	0	
0.124	-0.00406312	0.00310302	0.000169923	7.6526E-05	0	0	0	
0.124167	0.00628983	-0.00435287	0.000152508	7.46824E-05	0	0	0	
0.124333	-0.00548239	0.00286089	0.000193158	7.97191E-05	0	0	0	
0.1245	0.00864233	-0.00350664	0.000164793	6.36503E-05	0	0	0	
0.124667	-0.00248485	0.00250439	0.000195634	6.5049E-05	0	0	0	
0.124833	0.00386875	-0.00340449	0.000166324	5.62455E-05	0	0	0	
0.125	-0.00109658	0.00289139	0.000170579	6.4676E-05	0	0	0	
0.125167	0.00547326	-0.00292059	0.000122501	5.51087E-05	0	0	0	
0.125333	-0.00466288	0.00136294	0.000146754	5.61499E-05	0	0	0	
0.1255	0.00960681	-0.00347221	0.000125878	4.80724E-05	0	0	0	
0.125667	-0.0049372	0.00252099	0.000176717	6.20868E-05	0	0	0	
0.125833	0.00636886	-0.0031604	0.000150766	5.83189E-05	0	0	0	
0.126	-0.00287572	0.00283707	0.000186608	6.4027E-05	0	0	0	
0.126167	0.00413847	-0.00304432	0.000156956	5.51593E-05	0	0	0	
0.126333	0.0012761	0.00121106	0.000166222	5.77626E-05	0	0	0	
0.1265	0.00395957	-0.00320278	0.000130073	4.90869E-05	0	0	0	
0.126667	-0.0048674	0.00299385	0.000143736	5.40339E-05	0	0	0	
0.126833	0.0100073	-0.00486218	0.000126851	5.65628E-05	0	0	0	
0.127	-0.00195685	0.00431936	0.000173968	7.78192E-05	0	0	0	
0.127167	0.00238337	-0.00429207	0.000156072	8.19818E-05	0	0	0	
0.127333	-0.00381153	0.00306015	0.000180622	8.78244E-05	0	0	0	
0.1275	0.00952644	-0.00391465	0.000128302	7.16692E-05	0	0	0	
0.127667	-0.00288206	0.00201048	0.000157407	6.8753E-05	0	0	0	
0.127833	0.00486587	-0.00360834	0.000146414	6.03928E-05	0	0	0	
0.128	-0.00331403	0.002225	0.000182333	6.41726E-05	0	0	0	
0.128167	0.00566761	-0.003057	0.000150217	5.4288E-05	0	0	0	
0.128333	0.000925544	0.00164234	0.000160079	5.45813E-05	0	0	0	
0.1285	0.00404483	-0.00206646	0.000127565	4.19859E-05	0	0	0	
0.128667	-0.00640582	0.00201573	0.000149892	4.53401E-05	0	0	0	
0.128833	0.00807625	-0.00469554	0.000138493	4.8855E-05	0	0	0	
0.129	-0.000405223	0.00327152	0.000179947	6.92596E-05	0	0	0	
0.129167	0.00353491	-0.00395917	0.000149259	7.25737E-05	0	0	0	
0.129333	-0.00322688	0.00244339	0.000161013	7.72648E-05	0	0	0	
0.1295	0.00545706	-0.00383177	0.000125189	6.4808E-05	0	0	0	
0.129667	-0.00114901	0.00281314	0.000151242	6.75257E-05	0	0	0	
0.129833	0.00564442	-0.00486605	0.00011682	6.69932E-05	0	0	0	
0.13	-0.00493587	0.00396129	0.000145819	8.03201E-05	0	0	0	
0.130167	0.00656661	-0.00366223	0.000131708	7.52603E-05	0	0	0	
0.130333	-0.00129244	0.00185678	0.00017432	7.17876E-05	0	0	0	
0.1305	0.00510397	-0.00358994	0.000154423	5.75512E-05	0	0	0	
0.130667	-0.00244387	0.00267248	0.00016898	6.31686E-05	0	0	0	
0.130833	0.00304252	-0.0040985	0.000134935	6.15515E-05	0	0	0	
0.131	0.000941022	0.00299463	0.000131644	7.05235E-05	0	0	0	
0.131167	0.00461601	-0.00401989	0.000104058	6.40762E-05	0	0	0	
0.131333	-0.00364942	0.00221945	0.000134137	7.08289E-05	0	0	0	
0.1315	0.00322943	-0.00364883	0.000138822	6.00126E-05	0	0	0	
0.131667	0.00183779	0.0028903	0.000150078	6.7392E-05	0	0	0	
0.131833	0.0111476	-0.00344852	0.000146793	5.3815E-05	0	0	0	
0.132	-0.0208319	0.0027712	0.000231571	6.4569E-05	0	0	0	
0.132167	0.0171871	-0.00313101	0.000319442	5.23552E-05	0	0	0	
0.132333	0.00831988	0.00202513	0.00048958	5.95789E-05	0	0	0	
0.1325	-0.0171184	-0.00357227	0.000528137	5.0294E-05	0	0	0	
0.132667	0.00430882	0.00280062	0.000442145	6.35659E-05	0	0	0	
0.132833	0.0122595	-0.00349057	0.000291715	6.48242E-05	0	0	0	
0.133	0.000268734	0.00296329	0.000192685	7.52738E-05	0	0	0	
0.133167	-0.00253775	-0.00346437	0.000190344	6.43755E-05	0	0	0	
0.133333	-0.0189485	0.00302822	0.00022686	6.90098E-05	0	0	0	
0.1335	0.0282523	-0.00441804	0.000273277	6.22245E-05	0	0	0	
0.133667	0.00575127	0.00333111	0.000474733	7.54536E-05	0	0	0	
0.133833	-0.0104974	-0.00497213	0.000453579	7.44168E-05	0	0	0	
0.134	-0.0172788	0.0030362	0.000496675	8.12417E-05	0	0	0	
0.134167	0.0180487	-0.0027954	0.000322115	6.69464E-05	0	0	0	
0.134333	0.00690331	0.00212573	0.000406252	6.36001E-05	0	0	0	
0.1345	-0.0034786	-0.00342449	0.000305107	4.78059E-05	0	0	0	
0.134667	-0.00714855	0.00287752	0.000288376	6.20921E-05	0	0	0	
0.134833	0.00590805	-0.00448945	0.000156195	5.89092E-05	0	0	0	
0.135	-0.00461602	0.00325033	0.000164817	7.30746E-05	0	0	0	
0.135167	0.0105725	-0.00357498	0.000139725	6.60772E-05	0	0	0	
0.135333	-0.000388731	0.0022768	0.000184019	7.16374E-05	0	0	0	
0.1355	-0.00203707	-0.0029357	0.00017361	6.53275E-05	0	0	0	
0.135667	-0.0062215	0.00176088	0.000193879	6.72111E-05	0	0	0	
0.135833	0.00946541	-0.00309119	0.00014842	5.13593E-05	0	0	0	
0.136	0.00149729	0.00347859	0.000171405	5.75808E-05	0	0	0	
0.136167	0.00169904	-0.00444517	0.000158795	5.7986E-05	0	0	0	
0.136333	-0.00409087	0.00345663	0.000168068	7.54357E-05	0	0	0	
0.1365	0.00506955	-0.00398078	0.000116391	7.11627E-05	0	0	0	
0.136667	0.000262262	0.00333809	0.000129511	7.65657E-05	0	0	0	
0.136833	0.00701155	-0.00349513	0.000102563	6.8127E-05	0	0	0	
0.137	-0.00911356	0.00248065	0.000158419	7.03951E-05	0	0	0	
0.137167	0.01237	-0.00422199	0.000173278	6.19033E-05	0	0	0	
0.137333	-0.00344233	0.00206478	0.000255744	6.97016E-05	0	0	0	
0.1375	-0.00405557	-0.00294647	0.000296031	6.08665E-05	0	0	0	
0.137667	0.00909571	0.00309535	0.000312586	6.66019E-05	0	0	0	
0.137833	0.000987746	-0.00394561	0.00025239	5.65223E-05	0	0	0	
0.138	-0.00732014	0.00266032	0.000195375	6.58237E-05	0	0	0	
0.138167	0.00826253	-0.0038121	0.000149523	6.31984E-05	0	0	0	
0.138333	0.00139737	0.00197371	0.000164288	7.32691E-05	0	0	0	
0.1385	0.00958277	-0.00358374	0.000126284	6.41497E-05	0	0	0	
0.138667	-0.0140546	0.00211111	0.000197931	6.44007E-05	0	0	0	
0.138833	0.0040898	-0.00429478	0.000234406	5.43484E-05	0	0	0	
0.139	0.00403487	0.00366126	0.000266363	7.15437E-05	0	0	0	
0.139167	0.00945408	-0.00583126	0.000195996	7.70198E-05	0	0	0	
0.139333	-0.0104084	0.00361408	0.000190132	9.41624E-05	0	0	0	
0.1395	0.00294002	-0.00349488	0.000237384	8.14689E-05	0	0	0	
0.139667	0.00694401	0.00135974	0.000287087	7.14026E-05	0	0	0	
0.139833	-0.00313061	-0.00312333	0.000258042	4.99728E-05	0	0	0	
0.14	-0.00132904	0.00270667	0.000183762	5.44092E-05	0	0	0	
0.140167	0.0074656	-0.00384777	0.000118487	5.67306E-05	0	0	0	
0.140333	-0.00449697	0.00128656	0.000126329	6.4986E-05	0	0	0	
0.1405	0.00497333	-0.00275516	0.000129083	5.39165E-05	0	0	0	
0.140667	-0.00478918	0.00213555	0.000173217	5.37911E-05	0	0	0	
0.140833	0.00760946	-0.00308256	0.000129222	4.74691E-05	0	0	0	
0.141	-0.000369887	0.00304992	0.000157312	6.42434E-05	0	0	0	
0.141167	0.000175479	-0.00387135	0.000136806	6.12544E-05	0	0	0	
0.141333	-0.00183474	0.00281991	0.000153648	7.22804E-05	0	0	0	
0.1415	0.00942065	-0.00376872	0.000110186	6.11744E-05	0	0	0	
0.141667	-0.00555504	0.00221831	0.000144936	6.14297E-05	0	0	0	
0.141833	0.00369964	-0.00434115	0.000151114	5.96371E-05	0	0	0	
0.142	-0.000375462	0.00293852	0.000180161	6.80485E-05	0	0	0	
0.142167	0.00536429	-0.00342289	0.000135485	6.95437E-05	0	0	0	
0.142333	0.000299424	0.00127107	0.000142957	6.48488E-05	0	0	0	
0.1425	-0.00145108	-0.00254148	0.000140392	5.20393E-05	0	0	0	
0.142667	-3.78721E-05	0.00237495	0.000142323	5.13046E-05	0	0	0	
0.142833	0.00938433	-0.00508528	0.000116586	5.88378E-05	0	0	0	
0.143	-0.00660903	0.0029629	0.000150654	7.24631E-05	0	0	0	
0.143167	0.00513115	-0.0039639	0.000178997	7.50609E-05	0	0	0	
0.143333	-0.000283333	0.00323835	0.00020876	7.77439E-05	0	0	0	
0.1435	0.00458946	-0.00432196	0.000159389	7.26867E-05	0	0	0	
0.143667	-0.0037489	0.00329239	0.000154456	7.93009E-05	0	0	0	
0.143833	0.00356848	-0.00425338	0.00013791	7.7711E-05	0	0	0	
0.144	0.00126142	0.00291971	0.000156203	7.99892E-05	0	0	0	
0.144167	0.0060288	-0.00375157	0.000122604	6.63779E-05	0	0	0	
0.144333	-0.00627158	0.0036679	0.000151726	7.17916E-05	0	0	0	
0.1445	0.00591396	-0.00263542	0.000147589	6.22047E-05	0	0	0	
0.144667	-0.00133123	0.00279052	0.00018396	7.03018E-05	0	0	0	
0.144833	0.00631973	-0.00391905	0.000127802	6.20358E-05	0	0	0	
0.145	-0.00526934	0.00240556	0.000150055	6.96423E-05	0	0	0	
0.145167	0.00520965	-0.00425695	0.00013917	6.42638E-05	0	0	0	
0.145333	-2.51817E-06	0.00309821	0.000177753	7.10062E-05	0	0	0	
0.1455	0.00512838	-0.00347971	0.000138032	6.74041E-05	0	0	0	
0.145667	-0.00416886	0.00327678	0.000153268	7.52548E-05	0	0	0	
0.145833	0.00356287	-0.00422564	0.000128502	6.74944E-05	0	0	0	
0.146	0.000696365	0.00276774	0.000144403	7.37942E-05	0	0	0	
0.146167	0.00301022	-0.00464809	0.000106918	6.73E-05	0	0	0	
0.146333	-0.00339018	0.00302979	0.000131829	7.46388E-05	0	0	0	
0.1465	0.00725264	-0.00492919	0.000106155	7.16355E-05	0	0	0	
0.146667	-0.00530386	0.00263618	0.000150786	8.10595E-05	0	0	0	
0.146833	0.00621814	-0.00311667	0.000135458	6.61231E-05	0	0	0	
0.147	-0.00237101	0.00207777	0.000184572	6.56677E-05	0	0	0	
0.147167	0.00274327	-0.00351529	0.000145528	5.12442E-05	0	0	0	
0.147333	-0.00198546	0.00246287	0.00015682	6.15725E-05	0	0	0	
0.1475	0.00363829	-0.00449465	0.00011435	5.86463E-05	0	0	0	
0.147667	-0.002597	0.0029057	0.000131944	7.3317E-05	0	0	0	
0.147833	0.0083895	-0.00411957	9.86124E-05	6.80879E-05	0	0	0	
0.148	-0.00787185	0.0021015	0.000158945	7.307E-05	0	0	0	
0.148167	0.0070284	-0.00299564	0.000150491	6.13073E-05	0	0	0	
0.148333	-0.000901194	0.0019986	0.000206109	6.17261E-05	0	0	0	
0.1485	-0.00518856	-0.00376663	0.000191467	5.37865E-05	0	0	0	
0.148667	0.00531512	0.00318357	0.000172221	6.3112E-05	0	0	0	
0.148833	0.0161063	-0.00424323	0.000232945	6.57342E-05	0	0	0	
0.149	-0.029789	0.00213067	0.000343647	7.32086E-05	0	0	0	
0.149167	0.0171988	-0.00399158	0.00049168	6.69044E-05	0	0	0	
0.149333	0.0182024	0.00296583	0.000621194	7.12617E-05	0	0	0	
0.1495	-0.0238395	-0.00283769	0.000614599	6.42039E-05	0	0	0	
0.149667	0.0010832	0.00275951	0.000574208	6.65919E-05	0	0	0	
0.149833	0.0125988	-0.00411439	0.000413313	6.14246E-05	0	0	0	
0.15	-0.00131455	0.0033427	0.000316789	7.1808E-05	0	0	0	
0.150167	0.00393568	-0.00461665	0.000204626	6.87386E-05	0	0	0	
0.150333	-0.0241841	0.00273939	0.000230232	7.7697E-05	0	0	0	
0.1505	0.0193049	-0.00229347	0.000301198	6.41515E-05	0	0	0	
0.150667	0.0183543	0.00169682	0.000582695	6.2117E-05	0	0	0	
0.150833	-0.0194961	-0.00285046	0.000594424	4.44342E-05	0	0	0	
0.151	-0.0156125	0.00231185	0.000636706	5.28127E-05	0	0	0	
0.151167	0.0199616	-0.00363548	0.000401798	5.16817E-05	0	0	0	
0.151333	0.00289167	0.00316205	0.000421588	6.72597E-05	0	0	0	
0.1515	0.000348945	-0.00471228	0.000266396	6.66744E-05	0	0	0	
0.151667	-0.0067914	0.00235822	0.000254539	7.40373E-05	0	0	0	
0.151833	0.00248724	-0.00300485	0.000149172	6.2515E-05	0	0	0	
0.152	-0.00374493	0.00108555	0.000167844	6.15437E-05	0	0	0	
0.152167	0.0121765	-0.00277344	0.000139722	4.6797E-05	0	0	0	
0.152333	0.000960882	0.00260161	0.000183433	5.11064E-05	0	0	0	
0.1525	-0.00422638	-0.00342458	0.000183018	4.50162E-05	0	0	0	
0.152667	-0.00849525	0.00150047	0.000223386	5.68741E-05	0	0	0	
0.152833	0.0115296	-0.00304398	0.000160633	5.03934E-05	0	0	0	
0.153	0.00281682	0.00190035	0.000208319	5.79078E-05	0	0	0	
0.153167	-0.000131599	-0.0039764	0.000184764	5.04873E-05	0	0	0	
0.153333	-0.00650461	0.00308	0.000205201	6.5306E-05	0	0	0	
0.1535	0.00837977	-0.00283922	0.000137187	5.63674E-05	0	0	0	
0.153667	-0.00279802	0.00297157	0.000163851	6.76505E-05	0	0	0	
0.153833	0.00551197	-0.00373484	0.000132189	5.40605E-05	0	0	0	
0.154	-0.006769	0.00250695	0.000170699	6.44602E-05	0	0	0	
0.154167	0.00513828	-0.00405499	0.000152742	5.48692E-05	0	0	0	
0.154333	0.00482227	0.00286187	0.000205181	6.77477E-05	0	0	0	
0.1545	-0.0065341	-0.0037655	0.000198065	5.99988E-05	0	0	0	
0.154667	-0.000588234	0.00272467	0.000215694	7.22783E-05	0	0	0	
0.154833	0.0168096	-0.00303403	0.000218499	5.78563E-05	0	0	0	
0.155	-0.013512	0.00199274	0.00027894	6.3623E-05	0	0	0	
0.155167	-0.000118027	-0.00295725	0.000335212	4.56386E-05	0	0	0	
0.155333	0.00646914	0.00206408	0.000328929	5.4085E-05	0	0	0	
0.1555	0.00329844	-0.00227968	0.000245678	4.48381E-05	0	0	0	
0.155667	-0.00541466	0.00250895	0.00017651	5.86058E-05	0	0	0	
0.155833	4.35663E-05	-0.00415071	0.000171833	5.12695E-05	0	0	0	
0.156	-0.000405577	0.00315521	0.000172814	6.81708E-05	0	0	0	
0.156167	0.0123764	-0.00362339	0.000163685	6.06845E-05	0	0	0	
0.156333	-0.011088	0.00183422	0.000199739	6.97567E-05	0	0	0	
0.1565	0.00210999	-0.00293787	0.000249972	5.75437E-05	0	0	0	
0.156667	0.00247663	0.0022993	0.000252749	6.30201E-05	0	0	0	
0.156833	0.00305981	-0.00329809	0.000178502	5.16391E-05	0	0	0	
0.157	-0.0045594	0.00281588	0.000141908	5.96205E-05	0	0	0	
0.157167	0.00710282	-0.00383034	0.000119965	5.91697E-05	0	0	0	
0.157333	-0.00340106	0.00302837	0.000159446	7.36292E-05	0	0	0	
0.1575	0.00034608	-0.00361351	0.000151815	7.00987E-05	0	0	0	
0.157667	-0.000875587	0.00162291	0.000160583	7.07189E-05	0	0	0	
0.157833	0.0109794	-0.00320595	0.00011978	5.72455E-05	0	0	0	
0.158	-0.00946898	0.003336	0.000166998	6.33425E-05	0	0	0	
0.158167	0.00273586	-0.0045523	0.000209539	6.02964E-05	0	0	0	
0.158333	0.00169944	0.00391752	0.000225918	7.8179E-05	0	0	0	
0.1585	0.00824674	-0.00256633	0.000158185	6.95189E-05	0	0	0	
0.158667	-0.0104116	0.00221285	0.000168649	6.90273E-05	0	0	0	
0.158833	0.00455239	-0.00329095	0.000185977	5.47049E-05	0	0	0	
0.159	0.00149233	0.00293899	0.000208729	5.77246E-05	0	0	0	
0.159167	0.0036663	-0.00376032	0.00014862	5.6423E-05	0	0	0	
0.159333	-0.00216344	0.00327253	0.000136709	6.69365E-05	0	0	0	
0.1595	0.00149861	-0.00372939	0.000125143	6.45872E-05	0	0	0	
0.159667	-0.00285772	0.00357853	0.000146055	7.0716E-05	0	0	0	
0.159833	0.00666576	-0.00413018	0.000111245	6.49272E-05	0	0	0	
0.16	-0.00294488	0.00353029	0.000134362	6.96148E-05	0	0	0	
0.160167	0.00495722	-0.00378256	0.000115184	6.66842E-05	0	0	0	
0.160333	-0.0045841	0.00220302	0.000161832	6.62946E-05	0	0	0	
0.1605	0.00497282	-0.00354829	0.000141869	5.87423E-05	0	0	0	
0.160667	-0.00180819	0.0021408	0.000176943	5.91015E-05	0	0	0	
0.160833	0.00266888	-0.00235078	0.000143113	4.93285E-05	0	0	0	
0.161	-0.00234192	0.0017884	0.000149952	4.91924E-05	0	0	0	
0.161167	0.00397369	-0.00351246	0.000107393	4.51454E-05	0	0	0	
0.161333	-0.00177916	0.00149864	0.000130762	5.47692E-05	0	0	0	
0.1615	0.00408523	-0.00414206	0.000109801	5.53638E-05	0	0	0	
0.161667	-0.00429945	0.00408632	0.000151106	6.84705E-05	0	0	0	
0.161833	0.00457869	-0.0053758	0.000140174	7.39307E-05	0	0	0	
0.162	-0.00196715	0.00380366	0.000167474	8.80026E-05	0	0	0	
0.162167	0.0038068	-0.00418295	0.000130859	8.47211E-05	0	0	0	
0.162333	-0.00266741	0.00191854	0.000146988	8.09743E-05	0	0	0	
0.1625	0.00269745	-0.00299351	0.00012728	6.70686E-05	0	0	0	
0.162667	-0.00343458	0.00153277	0.00015665	6.07651E-05	0	0	0	
0.162833	0.00631125	-0.00364859	0.000125764	5.28839E-05	0	0	0	
0.163	-0.00434779	0.00244982	0.000159996	5.96584E-05	0	0	0	
0.163167	0.00545064	-0.00318222	0.000137605	5.3483E-05	0	0	0	
0.163333	-0.00205031	0.00228962	0.000168769	6.03043E-05	0	0	0	
0.1635	0.00209121	-0.00283942	0.000140353	5.19379E-05	0	0	0	
0.163667	-0.00169342	0.00128561	0.000157968	5.61845E-05	0	0	0	
0.163833	0.0026062	-0.00337607	0.000123788	4.64991E-05	0	0	0	
0.164	-0.00227533	0.00199499	0.000134614	5.27068E-05	0	0	0	
0.164167	0.00455114	-0.00238588	0.000101705	4.50899E-05	0	0	0	
0.164333	-0.0045143	0.00197198	0.000139066	5.28658E-05	0	0	0	
0.1645	0.00469577	-0.00326299	0.000126396	4.824E-05	0	0	0	
0.164667	-0.00187731	0.00124705	0.000168193	5.72237E-05	0	0	0	
0.164833	0.00353481	-0.00312249	0.000131853	4.93283E-05	0	0	0	
0.165	-0.00336089	0.00222479	0.000151215	5.34438E-05	0	0	0	
0.165167	0.00366231	-0.00367617	0.000127953	5.27227E-05	0	0	0	
0.165333	-0.00251836	0.00242142	0.000161845	6.09073E-05	0	0	0	
0.1655	0.00354277	-0.00381616	0.00013608	6.01462E-05	0	0	0	
0.165667	0.000372158	0.00216113	0.000149189	6.11108E-05	0	0	0	
0.165833	0.00285609	-0.00406859	0.000119366	5.98699E-05	0	0	0	
0.166	-0.00813527	0.00323437	0.000154771	6.67844E-05	0	0	0	
0.166167	0.0142678	-0.00394661	0.000157524	6.86969E-05	0	0	0	
0.166333	-0.00364083	0.00249188	0.00025842	6.94924E-05	0	0	0	
0.1665	-0.0109329	-0.0044414	0.000340479	6.5226E-05	0	0	0	
0.166667	0.0173029	0.00232717	0.000336165	6.71641E-05	0	0	0	
0.166833	0.00567091	-0.00343994	0.000363366	5.99713E-05	0	0	0	
0.167	-0.0285429	0.00348502	0.000401213	6.35676E-05	0	0	0	
0.167167	0.022148	-0.00402889	0.000471939	5.92875E-05	0	0	0	
0.167333	0.00266297	0.00286407	0.000493063	6.88172E-05	0	0	0	
0.1675	0.00137837	-0.00359791	0.000342204	6.14468E-05	0	0	0	
0.167667	-0.0103147	0.00227298	0.000289455	6.55773E-05	0	0	0	
0.167833	-0.00574453	-0.00248247	0.000255035	5.76617E-05	0	0	0	
0.168	0.0208884	0.00157788	0.000318669	5.769E-05	0	0	0	
0.168167	0.0078683	-0.00253703	0.000431117	4.46001E-05	0	0	0	
0.168333	-0.0277651	0.00248253	0.000440205	5.16271E-05	0	0	0	
0.1685	5.21459E-05	-0.00434069	0.00052996	5.09937E-05	0	0	0	
0.168667	0.0189883	0.00446669	0.000488588	7.48275E-05	0	0	0	
0.168833	0.00722571	-0.00413218	0.000440281	7.84013E-05	0	0	0	
0.169	-0.0157906	0.00178238	0.000352485	8.2388E-05	0	0	0	
0.169167	0.00537851	-0.00265219	0.00030429	6.15132E-05	0	0	0	
0.169333	-0.00287536	0.00198805	0.000265402	5.52928E-05	0	0	0	
0.1695	0.00454339	-0.00400903	0.000188122	5.06447E-05	0	0	0	
0.169667	0.00218746	0.00316017	0.000161335	6.52579E-05	0	0	0	
0.169833	0.00246278	-0.00320312	0.000123039	6.25784E-05	0	0	0	
0.17	-0.00805214	0.00125945	0.00016257	6.41164E-05	0	0	0	
0.170167	0.00604328	-0.00219817	0.000143832	4.68432E-05	0	0	0	
0.170333	0.00127331	0.00167389	0.000172176	4.95227E-05	0	0	0	
0.1705	0.0042124	-0.00319986	0.00013115	4.64665E-05	0	0	0	
0.170667	-0.00473761	0.00175085	0.000146053	5.72962E-05	0	0	0	
0.170833	0.00558831	-0.00390439	0.000121611	5.26775E-05	0	0	0	
0.171	-0.00432719	0.00323564	0.00015953	6.57895E-05	0	0	0	
0.171167	0.00474337	-0.00288551	0.000136062	6.15346E-05	0	0	0	
0.171333	-0.00140488	0.00259482	0.000163383	7.12298E-05	0	0	0	
0.1715	0.00240856	-0.00441397	0.000138639	5.98727E-05	0	0	0	
0.171667	0.00431637	0.00324378	0.000147553	7.36887E-05	0	0	0	
0.171833	-0.00281016	-0.00444631	0.000139971	7.30909E-05	0	0	0	
0.172	-0.00448444	0.00211427	0.000172454	7.81826E-05	0	0	0	
0.172167	0.0143511	-0.00241443	0.000177008	5.87709E-05	0	0	0	
0.172333	-0.00730996	0.00154321	0.000228037	5.50255E-05	0	0	0	
0.1725	-0.000885481	-0.00334761	0.000256433	4.58796E-05	0	0	0	
0.172667	0.000692376	0.00258707	0.00024262	5.86492E-05	0	0	0	
0.172833	0.00816402	-0.00289721	0.000164736	5.34367E-05	0	0	0	
0.173	-7.97505E-05	0.00134028	0.000137195	5.41654E-05	0	0	0	
0.173167	-0.00593259	-0.00341247	0.000175752	4.7318E-05	0	0	0	
0.173333	-0.00302957	0.00255589	0.000191547	5.78309E-05	0	0	0	
0.1735	0.0125915	-0.00399172	0.000144444	6.07316E-05	0	0	0	
0.173667	-0.00126671	0.00239459	0.000163667	7.0979E-05	0	0	0	
0.173833	-0.00249526	-0.00263395	0.000170605	5.94505E-05	0	0	0	
0.174	-0.00609265	0.00204284	0.000198206	6.07731E-05	0	0	0	
0.174167	0.0109767	-0.00427698	0.000125336	5.44423E-05	0	0	0	
0.174333	-0.00427771	0.00333985	0.000164855	6.91257E-05	0	0	0	
0.1745	0.00451571	-0.00376086	0.000163353	7.10044E-05	0	0	0	
0.174667	-0.00374229	0.00252444	0.000208033	7.43172E-05	0	0	0	
0.174833	0.00185972	-0.00292494	0.000163594	5.93975E-05	0	0	0	
0.175	0.000306568	0.00189997	0.00015632	5.94521E-05	0	0	0	
0.175167	0.00316491	-0.0030697	0.000116967	5.00037E-05	0	0	0	
0.175333	-0.00381695	0.00220921	0.000129932	5.5157E-05	0	0	0	
0.1755	0.00662776	-0.00284627	0.000111314	5.07053E-05	0	0	0	
0.175667	-0.00510857	0.00170271	0.000154579	5.25544E-05	0	0	0	
0.175833	0.00609181	-0.00232857	0.000119186	4.25208E-05	0	0	0	
0.176	-0.00574158	0.00168802	0.000161849	4.5591E-05	0	0	0	
0.176167	0.00622123	-0.00386765	0.000141065	4.32967E-05	0	0	0	
0.176333	-0.00283221	0.00352918	0.000192873	6.28292E-05	0	0	0	
0.1765	0.00433196	-0.00466583	0.000159651	6.95022E-05	0	0	0	
0.176667	-0.00169138	0.00211332	0.000168907	7.95679E-05	0	0	0	
0.176833	0.00092828	-0.00252955	0.000123158	6.18964E-05	0	0	0	
0.177	-0.00401283	0.000919354	0.000137753	5.41171E-05	0	0	0	
0.177167	0.00889358	-0.00268481	9.73909E-05	3.73597E-05	0	0	0	
0.177333	-0.00523793	0.00293283	0.000151676	5.03264E-05	0	0	0	
0.1775	0.00351896	-0.00428215	0.000148734	4.84394E-05	0	0	0	
0.177667	-0.00278327	0.00294667	0.000189309	6.88251E-05	0	0	0	
0.177833	0.00386105	-0.00228226	0.000138434	5.82891E-05	0	0	0	
0.178	-0.00137466	0.00123411	0.000145993	6.04665E-05	0	0	0	
0.178167	0.000721622	-0.00371098	0.000128073	5.1609E-05	0	0	0	
0.178333	-0.000173741	0.00260558	0.000140264	6.28911E-05	0	0	0	
0.1785	0.00711886	-0.0035263	0.00010974	5.95488E-05	0	0	0	
0.178667	-0.00899744	0.00279641	0.000149985	6.62765E-05	0	0	0	
0.178833	0.00701447	-0.00340831	0.000164281	5.90365E-05	0	0	0	
0.179	-0.00326353	0.00371131	0.000212305	6.98907E-05	0	0	0	
0.179167	0.00591143	-0.00417267	0.000165221	6.52274E-05	0	0	0	
0.179333	-0.00490951	0.00321235	0.000181115	7.43841E-05	0	0	0	
0.1795	0.00486313	-0.00370114	0.000155329	6.90176E-05	0	0	0	
0.179667	-0.00222068	0.00174797	0.000181033	6.94451E-05	0	0	0	
0.179833	0.00381308	-0.00330648	0.00013192	5.78712E-05	0	0	0	
0.18	-0.00374966	0.00224169	0.000143639	6.05758E-05	0	0	0	
0.180167	0.00575865	-0.00303746	0.000112344	5.30428E-05	0	0	0	
0.180333	-0.0033438	0.00324421	0.000153724	5.7985E-05	0	0	0	
0.1805	0.00310978	-0.00285982	0.000129827	5.15466E-05	0	0	0	
0.180667	-0.00232717	0.00194137	0.000153742	5.37325E-05	0	0	0	
0.180833	0.00678305	-0.00313966	0.00010702	5.05702E-05	0	0	0	
0.181	-0.00512506	0.00151812	0.00014255	5.33524E-05	0	0	0	
0.181167	0.00531945	-0.00303449	0.00012376	5.40412E-05	0	0	0	
0.181333	-0.00605007	0.00209873	0.000173154	5.53063E-05	0	0	0	
0.1815	0.00727343	-0.00282152	0.000146734	4.80213E-05	0	0	0	
0.181667	-0.00243668	0.00268159	0.000187687	5.44719E-05	0	0	0	
0.181833	0.00254479	-0.00357604	0.000155221	5.35861E-05	0	0	0	
0.182	-0.00303442	0.00242918	0.00016311	6.32237E-05	0	0	0	
0.182167	0.00296133	-0.00447414	0.000115267	5.94796E-05	0	0	0	
0.182333	0.000308351	0.0030499	0.000126105	7.08436E-05	0	0	0	
0.1825	0.00496019	-0.0032708	9.97305E-05	6.83423E-05	0	0	0	
0.182667	-0.0139931	0.00215999	0.000163433	6.87075E-05	0	0	0	
0.182833	0.0148487	-0.00325239	0.000191138	5.52794E-05	0	0	0	
0.183	0.000444798	0.00299781	0.000322695	5.80968E-05	0	0	0	
0.183167	-0.0164591	-0.00364408	0.000386505	5.73589E-05	0	0	0	
0.183333	0.015039	0.00131558	0.000362965	6.40261E-05	0	0	0	
0.1835	0.00636197	-0.00172099	0.00037232	4.98109E-05	0	0	0	
0.183667	-0.0210682	0.00255264	0.00035625	4.57326E-05	0	0	0	
0.183833	0.0118967	-0.00356767	0.000403105	4.45403E-05	0	0	0	
0.184	-0.000246356	0.00303415	0.000351138	6.11203E-05	0	0	0	
0.184167	0.00864044	-0.00384278	0.00023237	6.33361E-05	0	0	0	
0.184333	-0.00905137	0.00178588	0.000227989	6.52476E-05	0	0	0	
0.1845	-0.0145881	-0.00229306	0.000302334	5.63253E-05	0	0	0	
0.184667	0.0186736	0.00210536	0.0003628	5.67822E-05	0	0	0	
0.184833	0.0135195	-0.00257252	0.000439396	4.69062E-05	0	0	0	
0.185	-0.0213365	0.00251663	0.000386025	4.99218E-05	0	0	0	
0.185167	-0.0040547	-0.0037116	0.000481061	4.53395E-05	0	0	0	
0.185333	0.00778121	0.00279387	0.000368928	5.55941E-05	0	0	0	
0.1855	0.0114085	-0.00395289	0.000312788	6.15775E-05	0	0	0	
0.185667	-0.00749102	0.00264789	0.000227388	7.34492E-05	0	0	0	
0.185833	-0.000123303	-0.00238078	0.000253701	6.77029E-05	0	0	0	
0.186	-0.00446992	0.000895622	0.000226089	5.81503E-05	0	0	0	
0.186167	0.00392537	-0.00320115	0.000164551	4.53586E-05	0	0	0	
0.186333	0.00404889	0.00316462	0.000134852	5.35367E-05	0	0	0	
0.1865	0.00457554	-0.00440096	0.000121567	6.00314E-05	0	0	0	
0.186667	-0.0116876	0.00317975	0.000178488	7.43159E-05	0	0	0	
0.186833	0.00566994	-0.00353248	0.000196606	6.74532E-05	0	0	0	
0.187	0.000344145	0.002287	0.000227765	6.83565E-05	0	0	0	
0.187167	0.0040438	-0.00270722	0.000165744	5.64886E-05	0	0	0	
0.187333	-0.004162	0.00103648	0.000152532	5.40324E-05	0	0	0	
0.1875	0.00160923	-0.00261148	0.000139761	4.18602E-05	0	0	0	
0.187667	-0.00162402	0.00144914	0.000165557	4.74373E-05	0	0	0	
0.187833	0.00442086	-0.00307798	0.000127645	4.11895E-05	0	0	0	
0.188	-0.00400187	0.00235949	0.000132405	5.22907E-05	0	0	0	
0.188167	0.00394122	-0.00303672	0.00012721	4.47681E-05	0	0	0	
0.188333	0.00112044	0.00241619	0.0001752	5.73098E-05	0	0	0	
0.1885	-0.00607493	-0.00392475	0.000174291	5.48334E-05	0	0	0	
0.188667	0.00116238	0.00206209	0.000158434	6.68729E-05	0	0	0	
0.188833	0.010273	-0.00331441	0.000142865	6.07908E-05	0	0	0	
0.189	-0.0113391	0.00178442	0.000180911	6.36567E-05	0	0	0	
0.189167	0.00629585	-0.00373826	0.00023629	5.4563E-05	0	0	0	
0.189333	-0.00334781	0.00263377	0.000262309	6.22206E-05	0	0	0	
0.1895	0.00530786	-0.00343982	0.000197443	5.79517E-05	0	0	0	
0.189667	-0.00108603	0.00222794	0.000187151	6.63842E-05	0	0	0	
0.189833	-0.00364814	-0.00403989	0.000182583	5.82678E-05	0	0	0	
0.19	-0.00193983	0.00265929	0.000187413	6.73119E-05	0	0	0	
0.190167	0.0091962	-0.00444655	0.000135687	6.42209E-05	0	0	0	
0.190333	-0.00394929	0.0025664	0.000142106	7.45468E-05	0	0	0	
0.1905	-0.00128322	-0.00353914	0.000178437	6.48556E-05	0	0	0	
0.190667	-0.000531129	0.00285352	0.000197028	6.87494E-05	0	0	0	
0.190833	0.0049047	-0.00268038	0.000138975	5.58321E-05	0	0	0	
0.191	-0.00420461	0.0021867	0.000128827	5.75037E-05	0	0	0	
0.191167	0.00450784	-0.00400581	0.000121812	5.22696E-05	0	0	0	
0.191333	-0.00507626	0.00270739	0.000165983	6.46541E-05	0	0	0	
0.1915	0.00573806	-0.00432649	0.000140095	6.69666E-05	0	0	0	
0.191667	-0.00494168	0.00340213	0.000178096	7.4593E-05	0	0	0	
0.191833	0.006108	-0.00327057	0.000138839	6.86102E-05	0	0	0	
0.192	-0.00438979	0.00293808	0.000170526	7.04774E-05	0	0	0	
0.192167	0.00353751	-0.00435026	0.000148522	6.65631E-05	0	0	0	
0.192333	-0.00171367	0.00311542	0.000175978	7.55506E-05	0	0	0	
0.1925	0.00233775	-0.0052709	0.000136227	7.23214E-05	0	0	0	
0.192667	-0.00366729	0.00380009	0.000143797	8.19936E-05	0	0	0	
0.192833	0.00419321	-0.00321253	0.000126345	7.73619E-05	0	0	0	
0.193	-0.0015021	0.00159446	0.000154968	7.61705E-05	0	0	0	
0.193167	0.00174534	-0.00370617	0.000127983	5.66891E-05	0	0	0	
0.193333	-0.00158634	0.00328131	0.000132819	6.17074E-05	0	0	0	
0.1935	0.00378446	-0.00339251	9.17242E-05	5.94518E-05	0	0	0	
0.193667	-0.00800503	0.00182808	0.000131539	6.70544E-05	0	0	0	
0.193833	0.00900845	-0.0026233	0.00013068	5.20237E-05	0	0	0	
0.194	-0.000924459	0.00165124	0.00019182	5.01618E-05	0	0	0	
0.194167	-0.00125447	-0.00299356	0.000171369	4.06817E-05	0	0	0	
0.194333	-0.00404307	0.00208711	0.000171962	4.72786E-05	0	0	0	
0.1945	0.00626577	-0.00264218	0.000115081	4.61205E-05	0	0	0	
0.194667	-0.00184899	0.0019326	0.000127044	5.36853E-05	0	0	0	
0.194833	0.00306439	-0.00256157	0.000110408	4.67594E-05	0	0	0	
0.195	-0.00532816	0.00188168	0.000146005	5.30606E-05	0	0	0	
0.195167	0.00394834	-0.00202765	0.000122954	4.18729E-05	0	0	0	
0.195333	-0.00059591	0.00287028	0.000153428	4.94477E-05	0	0	0	
0.1955	0.00220965	-0.00369047	0.000120863	5.06978E-05	0	0	0	
0.195667	-0.00440231	0.00233195	0.000133718	6.57096E-05	0	0	0	
0.195833	0.00585556	-0.00358634	0.000109746	6.10975E-05	0	0	0	
0.196	-0.00290872	0.0024562	0.000151303	6.40609E-05	0	0	0	
0.196167	0.0019863	-0.00288336	0.000147057	5.80298E-05	0	0	0	
0.196333	-0.00107812	0.00383303	0.000166724	6.83454E-05	0	0	0	
0.1965	0.00353339	-0.00396833	0.00012697	6.67081E-05	0	0	0	
0.196667	-0.00549083	0.00303549	0.000144906	7.35721E-05	0	0	0	
0.196833	0.00549928	-0.00425332	0.00011981	7.03189E-05	0	0	0	
0.197	-0.00366957	0.00216235	0.000156643	7.42307E-05	0	0	0	
0.197167	0.00398644	-0.00317622	0.000122606	6.50519E-05	0	0	0	
0.197333	-0.00383786	0.00241343	0.000157297	6.1527E-05	0	0	0	
0.1975	0.00416224	-0.00276325	0.000124776	4.88452E-05	0	0	0	
0.197667	-0.00153315	0.00267736	0.000149906	5.60513E-05	0	0	0	
0.197833	0.00170433	-0.00398425	0.000120645	5.31998E-05	0	0	0	
0.198	-0.00284741	0.00299532	0.000138585	6.95732E-05	0	0	0	
0.198167	0.00275771	-0.00436136	0.000112828	6.51737E-05	0	0	0	
0.198333	-0.00089561	0.00333967	0.000133661	7.67029E-05	0	0	0	
0.1985	0.00378175	-0.00468742	0.000109111	6.92085E-05	0	0	0	
0.198667	-0.00775575	0.00222825	0.000147402	7.40514E-05	0	0	0	
0.198833	0.00850378	-0.00335583	0.000137627	6.29006E-05	0	0	0	
0.199	-0.0018331	0.00222655	0.000190129	6.82544E-05	0	0	0	
0.199167	-0.00439718	-0.0035758	0.000189173	6.07174E-05	0	0	0	
0.199333	0.00917478	0.0021728	0.000179114	6.74472E-05	0	0	0	
0.1995	-0.000732867	-0.00268657	0.000166512	5.29381E-05	0	0	0	
0.199667	-0.0168795	0.00155484	0.000220972	5.60001E-05	0	0	0	
0.199833	0.029366	-0.00443784	0.000295263	4.95577E-05	0	0	0	
0.2	-0.00974883	0.00231392	0.00042501	6.23391E-05	0	0	0	
0.200167	-0.0218655	-0.00185164	0.000561248	5.51576E-05	0	0	0	
0.200333	0.0175546	0.00145038	0.000550066	4.82136E-05	0	0	0	
0.2005	0.0113232	-0.00375724	0.000492546	4.15904E-05	0	0	0	
0.200667	-0.00985362	0.00238755	0.000321431	5.3391E-05	0	0	0	
0.200833	-0.00607473	-0.00412725	0.000335993	6.24649E-05	0	0	0	
0.201	-0.00608952	0.00246122	0.000289829	6.46395E-05	0	0	0	
0.201167	0.02825	-0.00277624	0.000306138	6.06251E-05	0	0	0	
0.201333	-0.00486655	0.00190515	0.000411607	6.08287E-05	0	0	0	
0.2015	-0.0218526	-0.00371247	0.000528603	6.31123E-05	0	0	0	
0.201667	-0.00157222	0.00166816	0.000546164	6.58981E-05	0	0	0	
0.201833	0.0242833	-0.00394287	0.000455682	6.2699E-05	0	0	0	
0.202	-0.00654431	0.00290689	0.000391301	6.63656E-05	0	0	0	
0.202167	-0.00151839	-0.00564616	0.000370157	7.00901E-05	0	0	0	
0.202333	-0.00414286	0.00408752	0.000291879	8.57193E-05	0	0	0	
0.2025	0.00235441	-0.0044854	0.000180034	8.61451E-05	0	0	0	
0.202667	-0.00347738	0.00236407	0.000130967	8.74813E-05	0	0	0	
0.202833	0.0119193	-0.00325184	0.000106416	7.39209E-05	0	0	0	
0.203	-0.00229001	0.0014503	0.000187052	6.61913E-05	0	0	0	
0.203167	-0.00838395	-0.00361719	0.000238626	5.66957E-05	0	0	0	
0.203333	-0.00206074	0.00126482	0.000256033	5.77551E-05	0	0	0	
0.2035	0.0107661	-0.00311191	0.000179206	5.31372E-05	0	0	0	
0.203667	-0.00128571	0.00244368	0.000161672	5.76469E-05	0	0	0	
0.203833	1.0763E-05	-0.00360287	0.000176442	5.4691E-05	0	0	0	
0.204	-0.00656036	0.00251486	0.000198847	6.35653E-05	0	0	0	
0.204167	0.00802107	-0.00406605	0.000144786	5.91938E-05	0	0	0	
0.204333	-0.00298951	0.00360199	0.000169365	7.24151E-05	0	0	0	
0.2045	0.00169925	-0.00372714	0.000167522	7.33091E-05	0	0	0	
0.204667	-0.0031287	0.00180692	0.000193112	7.49994E-05	0	0	0	
0.204833	0.0071013	-0.00365598	0.000138339	5.89073E-05	0	0	0	
0.205	-0.00156482	0.00292882	0.000161793	6.01845E-05	0	0	0	
0.205167	-0.0104365	-0.00420503	0.000223144	6.36862E-05	0	0	0	
0.205333	0.00956338	0.00320053	0.000242346	7.98456E-05	0	0	0	
0.2055	0.00968304	-0.00292228	0.000266195	7.18668E-05	0	0	0	
0.205667	-0.0195525	0.00105268	0.000271736	6.54266E-05	0	0	0	
0.205833	0.00682074	-0.0034755	0.000342005	4.71012E-05	0	0	0	
0.206	0.00558569	0.00244504	0.000373944	5.39338E-05	0	0	0	
0.206167	0.0011275	-0.00333505	0.000297813	5.19235E-05	0	0	0	
0.206333	-0.00775493	0.00202997	0.000247384	5.8658E-05	0	0	0	
0.2065	-0.0026282	-0.00302189	0.000201298	4.99223E-05	0	0	0	
0.206667	0.00383909	0.00147358	0.000184269	5.50797E-05	0	0	0	
0.206833	0.0116577	-0.00351481	0.00018749	5.04081E-05	0	0	0	
0.207	-0.0145698	0.00242827	0.000209192	5.75728E-05	0	0	0	
0.207167	0.00289366	-0.00317855	0.000293838	5.62808E-05	0	0	0	
0.207333	0.00373497	0.00266856	0.0003086	6.61625E-05	0	0	0	
0.2075	-0.000377543	-0.003903	0.000245033	6.30211E-05	0	0	0	
0.207667	-0.00202728	0.002669	0.000174402	7.11481E-05	0	0	0	
0.207833	0.00429933	-0.00386376	0.000110631	6.81514E-05	0	0	0	
0.208	-0.00468338	0.00258483	0.000126447	7.25581E-05	0	0	0	
0.208167	0.00288381	-0.00307358	0.000124807	6.02702E-05	0	0	0	
0.208333	-0.000683551	0.00264549	0.000156517	6.00293E-05	0	0	0	
0.2085	0.00506265	-0.00387734	0.000116711	5.38093E-05	0	0	0	
0.208667	-0.00756221	0.00351902	0.000146151	7.01009E-05	0	0	0	
0.208833	0.00444885	-0.00407979	0.000158867	6.88549E-05	0	0	0	
0.209	-0.000469122	0.0025244	0.000214125	7.6081E-05	0	0	0	
0.209167	0.00187173	-0.00269323	0.000183753	6.07849E-05	0	0	0	
0.209333	-0.00360159	0.00300481	0.000174821	6.48836E-05	0	0	0	
0.2095	0.00490446	-0.00299129	0.000122451	5.65739E-05	0	0	0	
0.209667	-0.00413814	0.00314589	0.000149236	6.38594E-05	0	0	0	
0.209833	0.00512021	-0.00352289	0.00013305	5.90234E-05	0	0	0	
0.21	-0.0045395	0.00186878	0.000180299	6.45367E-05	0	0	0	
0.210167	0.00315521	-0.00300857	0.000150192	5.84411E-05	0	0	0	
0.210333	-0.00244666	0.0016146	0.000168967	5.95968E-05	0	0	0	
0.2105	0.00451316	-0.00275315	0.000117978	5.22195E-05	0	0	0	
0.210667	-0.00253615	0.00302256	0.000138372	6.22735E-05	0	0	0	
0.210833	0.00225542	-0.00340837	0.000108583	5.96284E-05	0	0	0	
0.211	-0.00343605	0.00213685	0.000138598	6.58147E-05	0	0	0	
0.211167	0.00434861	-0.00345093	0.000107012	5.28613E-05	0	0	0	
0.211333	-0.00219271	0.00241135	0.000142747	5.99994E-05	0	0	0	
0.2115	0.00281766	-0.00467156	0.000124162	5.75382E-05	0	0	0	
0.211667	-0.00432428	0.00354924	0.00015749	7.7388E-05	0	0	0	
0.211833	0.00360252	-0.00319928	0.000137798	6.97706E-05	0	0	0	
0.212	-0.000178933	0.00187562	0.00015981	7.19743E-05	0	0	0	
0.212167	0.00155537	-0.0021655	0.000129779	5.41121E-05	0	0	0	
0.212333	-0.00553176	0.00154996	0.000144709	5.5251E-05	0	0	0	
0.2125	0.00548553	-0.00267707	0.000112643	4.37064E-05	0	0	0	
0.212667	-0.00273804	0.00321656	0.000147042	5.20456E-05	0	0	0	
0.212833	0.00321112	-0.00431238	0.000116586	5.4265E-05	0	0	0	
0.213	-0.00382955	0.0031686	0.000148406	7.48481E-05	0	0	0	
0.213167	0.00319421	-0.00481202	0.000120118	7.19421E-05	0	0	0	
0.213333	-0.0010114	0.00254658	0.000149888	7.8185E-05	0	0	0	
0.2135	0.00252886	-0.00320242	0.00012716	6.73369E-05	0	0	0	
0.213667	-0.00373409	0.0029917	0.000148245	7.12192E-05	0	0	0	
0.213833	0.00428956	-0.00310866	0.000116281	6.32719E-05	0	0	0	
0.214	-0.00387051	0.00152468	0.000143381	6.71586E-05	0	0	0	
0.214167	0.00543376	-0.00310578	0.00011742	5.17506E-05	0	0	0	
0.214333	-0.00439402	0.0016619	0.000161856	5.21038E-05	0	0	0	
0.2145	0.00362907	-0.00310478	0.000138923	4.26522E-05	0	0	0	
0.214667	-0.00178286	0.00317765	0.000163557	5.65628E-05	0	0	0	
0.214833	0.00230776	-0.00419792	0.000120028	6.10209E-05	0	0	0	
0.215	-0.00305848	0.00303949	0.000131998	7.53247E-05	0	0	0	
0.215167	0.00442088	-0.0029581	9.85039E-05	6.81894E-05	0	0	0	
0.215333	-0.00329324	0.00218537	0.000134078	6.83206E-05	0	0	0	
0.2155	0.00414696	-0.00184127	0.000119908	5.42872E-05	0	0	0	
0.215667	-0.00402397	0.00204644	0.000160646	5.76995E-05	0	0	0	
0.215833	0.00404181	-0.00303654	0.000134525	4.87437E-05	0	0	0	
0.216	0.000317832	0.00354919	0.000152641	6.03816E-05	0	0	0	
0.216167	-0.00402307	-0.00415557	0.00014192	6.14157E-05	0	0	0	
0.216333	0.00120251	0.00400344	0.000141949	7.74536E-05	0	0	0	
0.2165	0.0138477	-0.00343827	0.000198711	7.13377E-05	0	0	0	
0.216667	-0.0246528	0.00287478	0.000294599	8.05061E-05	0	0	0	
0.216833	0.0133725	-0.00246531	0.000417468	6.92296E-05	0	0	0	
0.217	0.0162466	0.00223081	0.000579389	6.72601E-05	0	0	0	
0.217167	-0.0287247	-0.00391809	0.000621108	5.43189E-05	0	0	0	
0.217333	0.00610053	0.00341948	0.000596243	6.51273E-05	0	0	0	
0.2175	0.0152135	-0.00383986	0.00046009	6.6131E-05	0	0	0	
0.217667	-0.00340841	0.00296852	0.000363414	7.47937E-05	0	0	0	
0.217833	-0.00115259	-0.00402437	0.000280331	6.62033E-05	0	0	0	
0.218	-0.0216872	0.00271311	0.000260585	7.20536E-05	0	0	0	
0.218167	0.0206476	-0.00465282	0.000279751	6.93842E-05	0	0	0	
0.218333	0.0158696	0.00244101	0.000520149	7.87441E-05	0	0	0	
0.2185	-0.01871	-0.00323385	0.000537266	6.68664E-05	0	0	0	
0.218667	-0.0173188	0.00218878	0.000632973	6.46038E-05	0	0	0	
0.218833	0.0241063	-0.0036354	0.000423107	5.23652E-05	0	0	0	
0.219	0.00352344	0.00242651	0.00048758	6.33074E-05	0	0	0	
0.219167	-0.00771865	-0.00336984	0.000359956	5.81674E-05	0	0	0	
0.219333	-0.00254623	0.00257031	0.000316008	6.10846E-05	0	0	0	
0.2195	0.0033095	-0.0046744	0.000146403	5.74491E-05	0	0	0	
0.219667	-0.00579907	0.00298517	0.000131214	7.11644E-05	0	0	0	
0.219833	0.0106873	-0.00382751	0.000115879	6.71194E-05	0	0	0	
0.22	-0.00107182	0.00339373	0.000176285	7.4129E-05	0	0	0	
0.220167	-0.00323475	-0.00367767	0.000175498	6.33159E-05	0	0	0	
0.220333	-0.00452682	0.00242895	0.000194508	7.11404E-05	0	0	0	
0.2205	0.00765403	-0.00347979	0.0001398	6.20739E-05	0	0	0	
0.220667	-0.00102059	0.00251873	0.000154657	6.87272E-05	0	0	0	
0.220833	0.00159561	-0.00334152	0.000141542	6.00751E-05	0	0	0	
0.221	-0.00455621	0.00216187	0.000161036	6.44827E-05	0	0	0	
0.221167	0.00377169	-0.00326657	0.000126823	5.34875E-05	0	0	0	
0.221333	-0.00405147	0.00268992	0.000161	6.54119E-05	0	0	0	
0.2215	0.00621528	-0.00313483	0.00014766	5.5698E-05	0	0	0	
0.221667	-0.00387506	0.00270572	0.000180143	6.37271E-05	0	0	0	
0.221833	0.00314377	-0.00301713	0.000169382	4.99394E-05	0	0	0	
0.222	0.00170963	0.0016336	0.000208007	5.77494E-05	0	0	0	
0.222167	-0.00981343	-0.00192739	0.000227571	4.11998E-05	0	0	0	
0.222333	0.00349753	0.0010895	0.000198664	4.26707E-05	0	0	0	
0.2225	0.0110474	-0.00246858	0.000203049	3.25258E-05	0	0	0	
0.222667	-0.0153362	0.00277568	0.000215972	4.73937E-05	0	0	0	
0.222833	0.00702335	-0.00359647	0.000282446	5.12375E-05	0	0	0	
0.223	-0.000968512	0.00239887	0.000290424	6.55582E-05	0	0	0	
0.223167	0.00282563	-0.00334162	0.000239793	5.9088E-05	0	0	0	
0.223333	-0.00117013	0.00199567	0.000237611	6.31234E-05	0	0	0	
0.2235	-0.00554884	-0.00326335	0.000219452	5.30993E-05	0	0	0	
0.223667	-0.000241999	0.00318704	0.000195489	6.31685E-05	0	0	0	
0.223833	0.0114137	-0.0038368	0.000175381	5.71848E-05	0	0	0	
0.224	-0.00830776	0.00274091	0.000198455	6.8708E-05	0	0	0	
0.224167	-0.0007046	-0.00354415	0.000261649	6.05626E-05	0	0	0	
0.224333	8.61337E-05	0.00225188	0.000244502	6.6497E-05	0	0	0	
0.2245	0.00502596	-0.00366465	0.000169275	5.11715E-05	0	0	0	
0.224667	-0.00590175	0.00233115	0.000136915	5.93008E-05	0	0	0	
0.224833	0.0042045	-0.00300122	0.000122715	5.15227E-05	0	0	0	
0.225	-0.00288281	0.00263178	0.000168251	6.52839E-05	0	0	0	
0.225167	0.00189593	-0.00288771	0.000144785	5.38627E-05	0	0	0	
0.225333	-0.00170107	0.00196213	0.000163484	5.92791E-05	0	0	0	
0.2255	0.00202706	-0.00279623	0.000120649	4.59298E-05	0	0	0	
0.225667	-0.00337332	0.00164144	0.000129608	5.6009E-05	0	0	0	
0.225833	0.0058332	-0.00305962	9.48773E-05	4.9806E-05	0	0	0	
0.226	-0.00570396	0.00150996	0.000141877	5.73836E-05	0	0	0	
0.226167	0.0023586	-0.00208259	0.000133212	4.19539E-05	0	0	0	
0.226333	-0.00230114	0.00148245	0.000166508	4.28687E-05	0	0	0	
0.2265	0.00446635	-0.00400633	0.000115735	3.8156E-05	0	0	0	
0.226667	-0.00362721	0.0030169	0.000132189	5.72938E-05	0	0	0	
0.226833	0.00368974	-0.00264922	0.000110786	5.62479E-05	0	0	0	
0.227	-0.00370648	0.00170015	0.000150985	5.96323E-05	0	0	0	
0.227167	0.00431816	-0.0036473	0.000130941	4.62658E-05	0	0	0	
0.227333	-0.00340385	0.00329587	0.000165126	5.65345E-05	0	0	0	
0.2275	0.00289958	-0.0048136	0.000140424	6.18691E-05	0	0	0	
0.227667	-0.00160482	0.0026765	0.000154853	8.04689E-05	0	0	0	
0.227833	0.00316884	-0.0022525	0.000109868	6.67627E-05	0	0	0	
0.228	-0.00466911	0.0022371	0.000131044	6.50597E-05	0	0	0	
0.228167	0.00516909	-0.00289932	0.000106152	5.11783E-05	0	0	0	
0.228333	-0.00208309	0.0017355	0.00014585	5.67685E-05	0	0	0	
0.2285	0.0026263	-0.00292288	0.000115206	4.56746E-05	0	0	0	
0.228667	-0.00347399	0.00279603	0.000140009	5.2508E-05	0	0	0	
0.228833	0.00393189	-0.00392606	0.000104142	5.15355E-05	0	0	0	
0.229	-0.00230096	0.00249779	0.000134706	6.97976E-05	0	0	0	
0.229167	0.00181462	-0.0034563	0.000125128	6.08312E-05	0	0	0	
0.229333	-0.00161385	0.00318522	0.000154687	6.8825E-05	0	0	0	
0.2295	0.00312456	-0.0042275	0.000128524	5.84541E-05	0	0	0	
0.229667	-0.00240662	0.00362662	0.00014164	7.24797E-05	0	0	0	
0.229833	0.00133721	-0.00362916	0.000121478	6.99556E-05	0	0	0	
0.23	-0.00292938	0.0019375	0.000141078	7.64477E-05	0	0	0	
0.230167	0.00528837	-0.00313948	0.000104251	5.68183E-05	0	0	0	
0.230333	-0.00410969	0.00223203	0.00013925	5.90783E-05	0	0	0	
0.2305	0.003028	-0.00305396	0.000120045	4.61779E-05	0	0	0	
0.230667	-0.00337358	0.00305873	0.000158776	6.11312E-05	0	0	0	
0.230833	0.00217086	-0.00406902	0.000121647	5.67947E-05	0	0	0	
0.231	-0.00206742	0.00265559	0.000141288	7.20002E-05	0	0	0	
0.231167	0.00317512	-0.00319176	0.000104874	5.85002E-05	0	0	0	
0.231333	-0.00243182	0.00223809	0.00012615	6.19532E-05	0	0	0	
0.2315	0.00144264	-0.00339977	0.000116966	4.94946E-05	0	0	0	
0.231667	-0.00100908	0.00335466	0.000143066	6.4661E-05	0	0	0	
0.231833	0.00220197	-0.00285438	0.000119232	5.82054E-05	0	0	0	
0.232	-0.0027778	0.00246242	0.000129846	6.36472E-05	0	0	0	
0.232167	0.0045349	-0.00292024	0.000101317	5.11046E-05	0	0	0	
0.232333	-0.00493902	0.00200433	0.000135587	5.37673E-05	0	0	0	
0.2325	0.00581703	-0.00370473	0.000126641	5.00633E-05	0	0	0	
0.232667	-0.00220163	0.00235275	0.00017709	6.20914E-05	0	0	0	
0.232833	-0.000602597	-0.0019017	0.000168851	5.1939E-05	0	0	0	
0.233	0.00206382	0.00205402	0.000164172	5.04663E-05	0	0	0	
0.233167	-0.00209416	-0.00298527	0.000136621	4.05161E-05	0	0	0	
0.233333	-0.00162544	0.00231146	0.000120886	5.13628E-05	0	0	0	
0.2335	0.0149096	-0.00390725	0.000161023	5.4445E-05	0	0	0	
0.233667	-0.0211699	0.00326054	0.000251503	6.79667E-05	0	0	0	
0.233833	0.00694687	-0.00264723	0.000377132	6.39197E-05	0	0	0	
0.234	0.0172578	0.00245825	0.000527577	6.65134E-05	0	0	0	
0.234167	-0.0206146	-0.00316506	0.000534484	5.24451E-05	0	0	0	
0.234333	-0.00486188	0.00213454	0.000517308	5.66228E-05	0	0	0	
0.2345	0.0198939	-0.0036244	0.000382007	5.11895E-05	0	0	0	
0.234667	-0.00470637	0.00247944	0.00036537	6.33901E-05	0	0	0	
0.234833	-0.000161619	-0.00209535	0.000301212	5.38489E-05	0	0	0	
0.235	-0.0163685	0.0025114	0.000297502	5.67181E-05	0	0	0	
0.235167	0.011732	-0.00215717	0.000276789	3.90931E-05	0	0	0	
0.235333	0.0146262	0.00195217	0.000414901	4.6118E-05	0	0	0	
0.2355	-0.0127283	-0.00329692	0.000428002	4.08295E-05	0	0	0	
0.235667	-0.0183467	0.00293067	0.000510934	5.82852E-05	0	0	0	
0.235833	0.0188972	-0.00315658	0.000362948	5.67567E-05	0	0	0	
0.236	0.00209253	0.00293665	0.000426036	7.03846E-05	0	0	0	
0.236167	0.00046357	-0.00236366	0.000268431	5.36284E-05	0	0	0	
0.236333	-0.00996821	0.00260136	0.000282448	5.98737E-05	0	0	0	
0.2365	0.0079206	-0.00399787	0.000140986	5.20806E-05	0	0	0	
0.236667	-0.00879262	0.00232683	0.000204728	6.66877E-05	0	0	0	
0.236833	0.00121938	-0.00286237	0.000218269	6.16449E-05	0	0	0	
0.237	0.00810815	0.00256403	0.000298991	6.36345E-05	0	0	0	
0.237167	-0.00162	-0.00360246	0.000257488	5.07508E-05	0	0	0	
0.237333	-0.00468517	0.00301627	0.000214106	6.0362E-05	0	0	0	
0.2375	0.000744931	-0.00375502	0.0001419	5.72117E-05	0	0	0	
0.237667	-0.00739869	0.0029621	0.000153978	6.94283E-05	0	0	0	
0.237833	0.0178095	-0.00389231	0.000143617	6.24238E-05	0	0	0	
0.238	-0.00913097	0.00268	0.000248336	7.02074E-05	0	0	0	
0.238167	-0.00191611	-0.00349848	0.000312522	6.14858E-05	0	0	0	
0.238333	-0.00447838	0.00276883	0.000317799	6.678E-05	0	0	0	
0.2385	0.00301328	-0.00359291	0.000224116	5.99029E-05	0	0	0	
0.238667	0.00777089	0.00308487	0.000206577	7.03955E-05	0	0	0	
0.238833	-0.00403811	-0.00349872	0.000219841	6.43222E-05	0	0	0	
0.239	-0.00893639	0.00225012	0.000234196	7.07968E-05	0	0	0	
0.239167	0.00753359	-0.00280482	0.000179032	5.75957E-05	0	0	0	
0.239333	-0.00233277	0.00250843	0.00019247	6.06151E-05	0	0	0	
0.2395	0.00633633	-0.00386163	0.000153322	5.3522E-05	0	0	0	
0.239667	-0.00979085	0.00186104	0.00017879	6.61567E-05	0	0	0	
0.239833	0.00693723	-0.00327768	0.000183628	5.69384E-05	0	0	0	
0.24	-0.00286044	0.00224719	0.00026385	6.12901E-05	0	0	0	
0.240167	0.00286536	-0.00414684	0.000235544	4.84553E-05	0	0	0	
0.240333	-0.00459049	0.00321205	0.000213356	6.7122E-05	0	0	0	
0.2405	0.00273574	-0.00352096	0.000151194	6.47659E-05	0	0	0	
0.240667	0.000924239	0.00187971	0.000149998	7.44403E-05	0	0	0	
0.240833	0.00128791	-0.00316412	0.000122711	5.88792E-05	0	0	0	
0.241	-0.00408384	0.00207889	0.00013958	5.92063E-05	0	0	0	
0.241167	0.00426132	-0.0030663	0.000122586	4.91962E-05	0	0	0	
0.241333	-0.00198848	0.00268997	0.00014619	6.02341E-05	0	0	0	
0.2415	0.00246072	-0.00348092	0.00012137	5.87603E-05	0	0	0	
0.241667	-0.00350924	0.00300017	0.000142798	7.23017E-05	0	0	0	
0.241833	0.00388907	-0.00457483	0.000110853	6.48155E-05	0	0	0	
0.242	-0.00604021	0.00339915	0.000152632	7.77741E-05	0	0	0	
0.242167	0.00664625	-0.00418118	0.00012326	6.97509E-05	0	0	0	
0.242333	-0.00133752	0.00306227	0.000161022	8.15726E-05	0	0	0	
0.2425	0.000861622	-0.00298316	0.000127622	6.5378E-05	0	0	0	
0.242667	-0.00451139	0.00311807	0.000154749	6.95941E-05	0	0	0	
0.242833	0.0055122	-0.00397484	0.000108074	5.5027E-05	0	0	0	
0.243	-0.00158533	0.00232686	0.000134028	6.8795E-05	0	0	0	
0.243167	-0.000869949	-0.00301962	0.000123223	5.5193E-05	0	0	0	
0.243333	-0.000605663	0.00212577	0.000138795	6.27426E-05	0	0	0	
0.2435	0.00472679	-0.00239071	9.89278E-05	4.1992E-05	0	0	0	
0.243667	-0.00585301	0.00274855	0.000124441	5.7183E-05	0	0	0	
0.243833	0.00632255	-0.00316846	0.000116331	4.91959E-05	0	0	0	
0.244	-0.00558711	0.0026505	0.00016909	6.26961E-05	0	0	0	
0.244167	0.00286054	-0.00348024	0.000154718	5.33915E-05	0	0	0	
0.244333	-0.00305001	0.00196074	0.000186412	5.91187E-05	0	0	0	
0.2445	0.00721498	-0.00254337	0.000129975	4.83949E-05	0	0	0	
0.244667	-0.00629549	0.00213867	0.000154526	5.19142E-05	0	0	0	
0.244833	0.00331541	-0.00377851	0.000148198	4.46034E-05	0	0	0	
0.245	-0.00139482	0.00228153	0.000189487	5.80094E-05	0	0	0	
0.245167	0.00108236	-0.00242041	0.000138187	5.33317E-05	0	0	0	
0.245333	-0.00403443	0.00144667	0.000138072	5.39953E-05	0	0	0	
0.2455	0.0084292	-0.0028726	9.85795E-05	4.24164E-05	0	0	0	
0.245667	-0.00747237	0.0017515	0.000155969	4.67014E-05	0	0	0	
0.245833	0.00571083	-0.00267241	0.000149224	4.50666E-05	0	0	0	
0.246	-0.00500826	0.00175272	0.000197838	5.25713E-05	0	0	0	
0.246167	0.00460064	-0.00389678	0.000140566	4.88751E-05	0	0	0	
0.246333	-0.00183511	0.00294887	0.000156192	5.88654E-05	0	0	0	
0.2465	-0.000436079	-0.00298353	0.000132906	5.36162E-05	0	0	0	
0.246667	0.000664265	0.00283536	0.000146904	6.4005E-05	0	0	0	
0.246833	0.00199228	-0.00350813	0.000116515	5.66106E-05	0	0	0	
0.247	-0.00369324	0.00271424	0.000119057	6.66875E-05	0	0	0	
0.247167	0.000714852	-0.00380622	0.000109083	5.79312E-05	0	0	0	
0.247333	-0.00124485	0.00349393	0.000123507	6.90015E-05	0	0	0	
0.2475	0.0117172	-0.00351964	0.000110011	6.57089E-05	0	0	0	
0.247667	-0.018814	0.00278733	0.000204902	7.48382E-05	0	0	0	
0.247833	0.0150369	-0.00249577	0.000271237	6.01136E-05	0	0	0	
0.248	0.000387445	0.0021417	0.000361751	5.89008E-05	0	0	0	
0.248167	-0.0130398	-0.00333626	0.000364759	5.05932E-05	0	0	0	
0.248333	0.0152977	0.002812	0.00034621	6.02412E-05	0	0	0	
0.2485	-0.00173217	-0.00291943	0.000303827	5.29134E-05	0	0	0	
0.248667	-0.0177966	0.00259699	0.000337725	5.73887E-05	0	0	0	
0.248833	0.0252173	-0.0037627	0.00037528	5.51675E-05	0	0	0	
0.249	-0.0175106	0.00296077	0.000448138	6.7126E-05	0	0	0	
0.249167	0.0115316	-0.00350185	0.000419379	6.6648E-05	0	0	0	
0.249333	-0.00371963	0.00248716	0.000462869	7.12353E-05	0	0	0	
0.2495	-0.0113277	-0.00443815	0.000492159	6.15103E-05	0	0	0	
0.249667	0.0250074	0.003804	0.000483364	7.0384E-05	0	0	0	
0.249833	-0.0182461	-0.0037106	0.000475058	6.80538E-05	0	0	0	
0.25	-0.0153129	0.001993	0.000543635	7.68281E-05	0	0	0	
0.250167	0.0454402	-0.00189563	0.000652711	5.90964E-05	0	0	0	
0.250333	-0.0342484	0.00222627	0.000762066	5.45299E-05	0	0	0	
0.2505	-0.00658777	-0.00347885	0.000859277	4.21415E-05	0	0	0	
0.250667	0.0196046	0.00335629	0.000790557	5.72962E-05	0	0	0	
0.250833	0.00538512	-0.00362587	0.000617234	6.10298E-05	0	0	0	
0.251	-0.0109687	0.00255656	0.000343521	7.65161E-05	0	0	0	
0.251167	-0.0088623	-0.0027137	0.000300597	6.31147E-05	0	0	0	
0.251333	-0.00406223	0.00287613	0.000279039	6.34373E-05	0	0	0	
0.2515	0.0332255	-0.00343644	0.000366375	5.42874E-05	0	0	0	
0.251667	-0.0124689	0.00423562	0.0004347	7.02992E-05	0	0	0	
0.251833	-0.0214523	-0.00399284	0.000593403	7.04665E-05	0	0	0	
0.252	0.00458709	0.00298176	0.000504903	7.90275E-05	0	0	0	
0.252167	0.0192478	-0.00242127	0.000455981	6.40581E-05	0	0	0	
0.252333	-0.00813001	0.0017477	0.000336621	5.99776E-05	0	0	0	
0.2525	0.00475405	-0.00280642	0.000307332	4.85342E-05	0	0	0	
0.252667	-0.0112769	0.0027323	0.000247998	5.79775E-05	0	0	0	
0.252833	-0.00217916	-0.00330048	0.000237197	5.49274E-05	0	0	0	
0.253	0.00873726	0.00347268	0.000250308	6.60358E-05	0	0	0	
0.253167	0.00812532	-0.00362714	0.000257096	6.04323E-05	0	0	0	
0.253333	-0.0109366	0.00291275	0.000236838	6.81082E-05	0	0	0	
0.2535	-0.000311813	-0.00411373	0.000272693	6.58972E-05	0	0	0	
0.253667	-0.00186066	0.0039476	0.000228036	7.86845E-05	0	0	0	
0.253833	0.00825442	-0.00394595	0.000162466	7.79718E-05	0	0	0	
0.254	-0.00241563	0.00271588	0.000145756	7.94823E-05	0	0	0	
0.254167	-0.000259984	-0.00309346	0.00014532	6.27899E-05	0	0	0	
0.254333	-0.00169662	0.00304351	0.00016431	6.37058E-05	0	0	0	
0.2545	0.00288598	-0.00454545	0.000107824	6.19882E-05	0	0	0	
0.254667	-0.00650728	0.00344006	0.000124958	7.62669E-05	0	0	0	
0.254833	0.00794778	-0.00368064	0.000114155	7.55981E-05	0	0	0	
0.255	-0.00285727	0.0027715	0.000169488	7.41383E-05	0	0	0	
0.255167	0.0056315	-0.00275146	0.000133765	6.04554E-05	0	0	0	
0.255333	-0.0121062	0.00180483	0.000195161	5.83681E-05	0	0	0	
0.2555	0.00884654	-0.00358405	0.000184111	5.03779E-05	0	0	0	
0.255667	-0.000229391	0.00226033	0.000249861	5.9663E-05	0	0	0	
0.255833	-0.00347915	-0.0033896	0.000226871	5.47463E-05	0	0	0	
0.256	-0.000945587	0.00413931	0.000188404	6.55282E-05	0	0	0	
0.256167	0.01107	-0.00367104	0.000127687	6.17117E-05	0	0	0	
0.256333	-0.00616883	0.00324218	0.000150122	7.44112E-05	0	0	0	
0.2565	-0.00265473	-0.00415592	0.000186219	7.27177E-05	0	0	0	
0.256667	-0.00380787	0.00256857	0.00019065	8.08064E-05	0	0	0	
0.256833	0.0109732	-0.0037216	0.000131299	7.25763E-05	0	0	0	
0.257	0.00210632	0.00244748	0.000178364	7.23457E-05	0	0	0	
0.257167	-0.00255993	-0.00220289	0.000191522	5.63061E-05	0	0	0	
0.257333	-0.0112993	0.002991	0.000238173	5.55686E-05	0	0	0	
0.2575	0.0131516	-0.00400935	0.000177983	5.19479E-05	0	0	0	
0.257667	-0.00042407	0.00282623	0.000235564	6.68224E-05	0	0	0	
0.257833	0.0028349	-0.00431477	0.000195756	6.63271E-05	0	0	0	
0.258	-0.00582356	0.0036202	0.00020761	7.52835E-05	0	0	0	
0.258167	-0.00190042	-0.00345112	0.000186674	6.71918E-05	0	0	0	
0.258333	0.00183464	0.00297044	0.000185525	7.10173E-05	0	0	0	
0.2585	0.00906034	-0.00413639	0.000169355	6.54099E-05	0	0	0	
0.258667	-0.00746891	0.00306588	0.000165316	7.26362E-05	0	0	0	
0.258833	-0.000678644	-0.00297147	0.000217461	6.28017E-05	0	0	0	
0.259	-0.0010716	0.00285072	0.000215361	6.381E-05	0	0	0	
0.259167	0.00729674	-0.00252991	0.000151858	5.27351E-05	0	0	0	
0.259333	-0.00416592	0.0017658	0.000136727	5.80652E-05	0	0	0	
0.2595	-0.00138399	-0.00267533	0.00015053	4.59394E-05	0	0	0	
0.259667	-0.000259892	0.00191261	0.000165088	5.05344E-05	0	0	0	
0.259833	0.00449888	-0.00330409	0.000115318	4.62419E-05	0	0	0	
0.26	-0.00446753	0.00383805	0.000119371	5.99529E-05	0	0	0	
0.260167	0.00574427	-0.00359261	0.00011015	6.03192E-05	0	0	0	
0.260333	-0.00433091	0.00127777	0.000157897	6.63467E-05	0	0	0	
0.2605	0.00036267	-0.00210697	0.000163417	5.50854E-05	0	0	0	
0.260667	0.000694108	0.000506698	0.000184353	4.85534E-05	0	0	0	
0.260833	0.0027563	-0.00208122	0.000143549	3.62792E-05	0	0	0	
0.261	-0.00147179	0.00267949	0.000130936	4.19478E-05	0	0	0	
0.261167	0.00115329	-0.00344063	0.000119708	4.08425E-05	0	0	0	
0.261333	-0.00456673	0.00252141	0.000142743	5.84818E-05	0	0	0	
0.2615	0.0045728	-0.00466712	0.000114545	6.05661E-05	0	0	0	
0.261667	-0.000462617	0.00335395	0.000144226	7.65666E-05	0	0	0	
0.261833	1.92844E-05	-0.00447843	0.000136889	7.48414E-05	0	0	0	
0.262	-0.00107574	0.00314254	0.000154673	8.43232E-05	0	0	0	
0.262167	0.00405027	-0.00327515	0.000117762	7.18549E-05	0	0	0	
0.262333	-0.00609891	0.00296275	0.000137647	7.58362E-05	0	0	0	
0.2625	0.00639504	-0.0034822	0.000135846	6.57457E-05	0	0	0	
0.262667	-0.0021943	0.00252544	0.000190499	7.12067E-05	0	0	0	
0.262833	0.00245858	-0.00362756	0.000173026	5.92198E-05	0	0	0	
0.263	-0.00783722	0.00272833	0.000198945	6.16866E-05	0	0	0	
0.263167	0.00706988	-0.0038156	0.000186265	5.85422E-05	0	0	0	
0.263333	0.00299079	0.0033557	0.0002425	6.84357E-05	0	0	0	
0.2635	-0.00125965	-0.00413168	0.00022736	6.65088E-05	0	0	0	
0.263667	-0.00467223	0.00280847	0.00020758	7.03261E-05	0	0	0	
0.263833	0.00281965	-0.00304874	0.000136077	6.10702E-05	0	0	0	
0.264	-0.000948925	0.00183003	0.000135138	5.82284E-05	0	0	0	
0.264167	0.0100041	-0.00253422	0.000123535	5.03361E-05	0	0	0	
0.264333	-0.0121928	0.00219745	0.000189363	5.00801E-05	0	0	0	
0.2645	0.00690734	-0.00413014	0.000215129	4.92953E-05	0	0	0	
0.264667	-0.00440421	0.00280277	0.000261463	5.79122E-05	0	0	0	
0.264833	-0.000518957	-0.00393487	0.000240828	6.05409E-05	0	0	0	
0.265	0.0159928	0.00333594	0.000271865	7.28591E-05	0	0	0	
0.265167	-0.0113004	-0.00358547	0.000297396	7.12645E-05	0	0	0	
0.265333	-0.01915	0.00210957	0.000421332	7.65264E-05	0	0	0	
0.2655	0.0360804	-0.00324779	0.00044725	5.80033E-05	0	0	0	
0.265667	-0.00893704	0.00260143	0.000580202	6.09064E-05	0	0	0	
0.265833	-0.0209114	-0.00377251	0.000659249	5.33066E-05	0	0	0	
0.266	0.0142145	0.00278358	0.000606597	6.59195E-05	0	0	0	
0.266167	0.0108461	-0.00374723	0.000470096	5.7262E-05	0	0	0	
0.266333	-0.00578277	0.00171627	0.000276469	6.45896E-05	0	0	0	
0.2665	-0.0129521	-0.00260701	0.000312901	5.07005E-05	0	0	0	
0.266667	-0.00535044	0.00195486	0.000332052	5.71292E-05	0	0	0	
0.266833	0.0381299	-0.00301908	0.000410745	4.39572E-05	0	0	0	
0.267	-0.0134545	0.00162182	0.000526502	5.44657E-05	0	0	0	
0.267167	-0.0244766	-0.00240522	0.000677905	4.21389E-05	0	0	0	
0.267333	0.0052366	0.00304071	0.00060907	5.22778E-05	0	0	0	
0.2675	0.0249761	-0.0037156	0.000548115	4.89145E-05	0	0	0	
0.267667	-0.0103081	0.002183	0.000424423	6.33378E-05	0	0	0	
0.267833	-0.00692348	-0.00274738	0.000480469	5.84858E-05	0	0	0	
0.268	0.00188256	0.00147494	0.000326955	6.24698E-05	0	0	0	
0.268167	0.00378787	-0.00286498	0.000205319	5.05641E-05	0	0	0	
0.268333	-0.00296794	0.00345919	0.000107972	5.9016E-05	0	0	0	
0.2685	0.00868048	-0.00335231	0.000105227	5.86765E-05	0	0	0	
0.268667	-0.0052555	0.00184673	0.000160939	6.76148E-05	0	0	0	
0.268833	-0.00174039	-0.00378737	0.000178369	5.9417E-05	0	0	0	
0.269	-0.00221153	0.00282705	0.000199741	6.46425E-05	0	0	0	
0.269167	0.0104128	-0.00356403	0.000135911	6.16945E-05	0	0	0	
0.269333	-0.00366109	0.00348387	0.000149657	7.28175E-05	0	0	0	
0.2695	0.000292544	-0.00425528	0.000171008	6.91887E-05	0	0	0	
0.269667	-0.00171696	0.00259733	0.000194424	7.78679E-05	0	0	0	
0.269833	0.00331857	-0.00386161	0.000135703	7.40787E-05	0	0	0	
0.27	-0.000791685	0.00214359	0.000125645	7.78393E-05	0	0	0	
0.270167	0.00280815	-0.00290823	0.000107078	6.28879E-05	0	0	0	
0.270333	-0.00534168	0.00233467	0.00013627	6.09456E-05	0	0	0	
0.2705	0.00943738	-0.00292198	0.000112533	4.91395E-05	0	0	0	
0.270667	-0.00346334	0.00274609	0.000177094	5.8365E-05	0	0	0	
0.270833	-0.004493	-0.00355234	0.000233967	5.50249E-05	0	0	0	
0.271	0.00420711	0.00262238	0.000250389	6.11339E-05	0	0	0	
0.271167	0.00193882	-0.00343873	0.000198941	5.51962E-05	0	0	0	
0.271333	-0.00481083	0.00313233	0.000137311	6.54039E-05	0	0	0	
0.2715	0.0059805	-0.00344587	0.00012716	6.46056E-05	0	0	0	
0.271667	-0.00470095	0.00254212	0.000165594	6.9725E-05	0	0	0	
0.271833	0.00471076	-0.00442253	0.000174804	6.52866E-05	0	0	0	
0.272	-0.0049485	0.0037923	0.000217081	6.94892E-05	0	0	0	
0.272167	0.00115864	-0.00406859	0.0001856	7.1103E-05	0	0	0	
0.272333	3.74668E-05	0.00335714	0.000166269	7.74068E-05	0	0	0	
0.2725	0.00597774	-0.00216741	0.000114584	6.63193E-05	0	0	0	
0.272667	-0.00676119	0.00194025	0.000142417	6.11387E-05	0	0	0	
0.272833	0.00418807	-0.0042761	0.000157671	5.34149E-05	0	0	0	
0.273	-0.000443009	0.0033242	0.00019008	6.77528E-05	0	0	0	
0.273167	0.00142044	-0.00339356	0.000148821	6.97345E-05	0	0	0	
0.273333	-0.00376216	0.00266894	0.000141973	7.20548E-05	0	0	0	
0.2735	0.00696757	-0.00340248	0.000109212	5.95109E-05	0	0	0	
0.273667	-0.0036525	0.00299284	0.000152914	6.81609E-05	0	0	0	
0.273833	-0.00112273	-0.00463515	0.000162902	6.64316E-05	0	0	0	
0.274	0.00140504	0.0030959	0.000171252	8.21032E-05	0	0	0	
0.274167	0.00471046	-0.00340877	0.000119438	7.16533E-05	0	0	0	
0.274333	-0.0062637	0.00265389	0.000126845	7.74985E-05	0	0	0	
0.2745	0.00754605	-0.00300147	0.000122564	6.04062E-05	0	0	0	
0.274667	-0.00503559	0.00219855	0.000174978	6.5838E-05	0	0	0	
0.274833	0.00248563	-0.00404348	0.000154502	5.68992E-05	0	0	0	
0.275	-0.0029736	0.00151583	0.000183343	6.7741E-05	0	0	0	
0.275167	0.00269111	-0.00247639	0.000138513	5.41458E-05	0	0	0	
0.275333	0.000358498	0.00214001	0.00013974	5.63198E-05	0	0	0	
0.2755	0.0025998	-0.00351263	0.000109427	4.54916E-05	0	0	0	
0.275667	-0.00446515	0.00260438	0.000126828	5.97574E-05	0	0	0	
0.275833	0.00364161	-0.00344591	0.000133239	5.97962E-05	0	0	0	
0.276	-0.000928862	0.00230354	0.000168526	6.61984E-05	0	0	0	
0.276167	-0.000558176	-0.00215977	0.000146519	5.63243E-05	0	0	0	
0.276333	0.0119994	0.00176669	0.000120661	5.34323E-05	0	0	0	
0.2765	-0.0260739	-0.003139	0.000217774	4.71668E-05	0	0	0	
0.276667	0.018786	0.00269112	0.000363591	5.76725E-05	0	0	0	
0.276833	0.00804013	-0.00435047	0.000565216	6.01598E-05	0	0	0	
0.277	-0.0270741	0.00297379	0.000638026	6.94318E-05	0	0	0	
0.277167	0.0348144	-0.00266256	0.00061074	6.23863E-05	0	0	0	
0.277333	-0.01547	0.00244327	0.000597216	6.20766E-05	0	0	0	
0.2775	-0.0129154	-0.00418838	0.000701205	5.73369E-05	0	0	0	
0.277667	0.0317214	0.00299358	0.000907188	7.05329E-05	0	0	0	
0.277833	-0.0368413	-0.00474781	0.000967491	7.1023E-05	0	0	0	
0.278	0.0304529	0.00340205	0.00079319	8.22958E-05	0	0	0	
0.278167	-0.00383809	-0.00357754	0.000631426	7.27772E-05	0	0	0	
0.278333	-0.0189857	0.000969516	0.00058265	7.28206E-05	0	0	0	
0.2785	0.0285228	-0.00316892	0.000572783	5.08929E-05	0	0	0	
0.278667	-0.0182844	0.00213824	0.000557763	5.42786E-05	0	0	0	
0.278833	0.00523284	-0.0047779	0.000445468	4.68925E-05	0	0	0	
0.279	0.00122508	0.00342607	0.000373532	7.03167E-05	0	0	0	
0.279167	-0.00487596	-0.00358883	0.000249694	6.32348E-05	0	0	0	
0.279333	-0.00268196	0.0020812	0.000173769	7.25453E-05	0	0	0	
0.2795	0.0168266	-0.00351786	0.000150637	5.92661E-05	0	0	0	
0.279667	-0.00970335	0.00246579	0.000229181	6.82775E-05	0	0	0	
0.279833	-0.0114624	-0.00408968	0.000365601	6.53732E-05	0	0	0	
0.28	0.0150523	0.00228924	0.000371269	7.59284E-05	0	0	0	
0.280167	0.000530532	-0.00310475	0.000348998	6.42544E-05	0	0	0	
0.280333	-0.0149475	0.00282891	0.00026531	6.50803E-05	0	0	0	
0.2805	0.0115009	-0.0039913	0.000263021	5.5899E-05	0	0	0	
0.280667	-0.000153975	0.00191637	0.000250568	6.3514E-05	0	0	0	
0.280833	0.00223027	-0.00346908	0.00018525	5.68314E-05	0	0	0	
0.281	-0.0103093	0.00217315	0.000194182	6.0639E-05	0	0	0	
0.281167	-0.00359658	-0.00236405	0.000224648	5.03252E-05	0	0	0	
0.281333	0.015453	0.00228736	0.000300697	5.81209E-05	0	0	0	
0.2815	0.00496856	-0.00376431	0.000344341	5.39431E-05	0	0	0	
0.281667	-0.021029	0.00275948	0.000338752	6.78983E-05	0	0	0	
0.281833	0.00225181	-0.00417775	0.000369034	6.7953E-05	0	0	0	
0.282	0.00799104	0.00361952	0.000353647	7.86246E-05	0	0	0	
0.282167	0.00609243	-0.00280444	0.000297063	7.42016E-05	0	0	0	
0.282333	-0.00823457	0.00233462	0.000237956	7.55297E-05	0	0	0	
0.2825	0.000733392	-0.00403993	0.000196204	6.18768E-05	0	0	0	
0.282667	-0.00422423	0.00296499	0.000181938	6.88811E-05	0	0	0	
0.282833	0.00505176	-0.00479963	0.000142805	6.58278E-05	0	0	0	
0.283	0.00425134	0.00354647	0.000173555	8.34902E-05	0	0	0	
0.283167	-0.00345661	-0.00345516	0.000172568	7.6043E-05	0	0	0	
0.283333	-0.00407285	0.003002	0.000196426	8.26432E-05	0	0	0	
0.2835	0.00871516	-0.00407341	0.000134471	6.92474E-05	0	0	0	
0.283667	-0.0070488	0.0017941	0.000170287	7.19485E-05	0	0	0	
0.283833	0.00532745	-0.00373396	0.000155408	5.81486E-05	0	0	0	
0.284	-0.00485167	0.00300258	0.000201643	6.42142E-05	0	0	0	
0.284167	0.00487309	-0.00416516	0.000156407	5.91137E-05	0	0	0	
0.284333	-0.00195652	0.00261999	0.000172749	7.48414E-05	0	0	0	
0.2845	-0.000873886	-0.00266219	0.000164265	6.07702E-05	0	0	0	
0.284667	-0.00034792	0.00101665	0.000163914	5.74954E-05	0	0	0	
0.284833	0.0071796	-0.0040593	0.000123007	4.30303E-05	0	0	0	
0.285	-0.00479787	0.00322203	0.000132855	5.81819E-05	0	0	0	
0.285167	-0.00613226	-0.00389287	0.000167352	6.57018E-05	0	0	0	
0.285333	0.0079861	0.00188184	0.000167885	7.50734E-05	0	0	0	
0.2855	0.00598525	-0.00342886	0.000168815	6.16719E-05	0	0	0	
0.285667	-0.0161756	0.00289373	0.000201342	6.20013E-05	0	0	0	
0.285833	0.0107489	-0.00496546	0.000240853	6.23265E-05	0	0	0	
0.286	-0.00447353	0.00247011	0.000259144	7.74105E-05	0	0	0	
0.286167	0.0063967	-0.00452778	0.000197728	7.44021E-05	0	0	0	
0.286333	-0.00251789	0.00280369	0.000228633	7.51123E-05	0	0	0	
0.2865	-0.00602194	-0.00388214	0.000261706	6.48209E-05	0	0	0	
0.286667	0.0044663	0.0019745	0.000247377	6.58565E-05	0	0	0	
0.286833	0.00360356	-0.00345391	0.000210662	5.79131E-05	0	0	0	
0.287	-0.00552225	0.00121714	0.000144903	5.76747E-05	0	0	0	
0.287167	0.00378286	-0.00387293	0.000142186	5.56519E-05	0	0	0	
0.287333	-0.00371032	0.00177093	0.000143529	5.97907E-05	0	0	0	
0.2875	0.005967	-0.00306969	0.000107785	5.348E-05	0	0	0	
0.287667	-0.0049702	0.00248727	0.000150435	5.56817E-05	0	0	0	
0.287833	0.00133652	-0.00353604	0.000145456	5.02335E-05	0	0	0	
0.288	0.000472139	0.00197461	0.000169167	6.28521E-05	0	0	0	
0.288167	0.00328473	-0.00386287	0.000127945	6.02521E-05	0	0	0	
0.288333	-0.00535368	0.00188387	0.000137187	6.83944E-05	0	0	0	
0.2885	0.00535686	-0.00291215	0.000130531	5.09213E-05	0	0	0	
0.288667	-0.00579597	0.00308338	0.000173587	5.32332E-05	0	0	0	
0.288833	0.0053809	-0.00408278	0.000157377	5.1182E-05	0	0	0	
0.289	0.000564065	0.00294985	0.000187716	7.21653E-05	0	0	0	
0.289167	-0.000936655	-0.00320443	0.000156917	6.68054E-05	0	0	0	
0.289333	-0.00769889	0.00110959	0.000170599	6.45597E-05	0	0	0	
0.2895	0.00774249	-0.0023327	0.000130467	4.50475E-05	0	0	0	
0.289667	0.00110153	0.0025093	0.000160902	5.22938E-05	0	0	0	
0.289833	0.000108955	-0.00267287	0.000136354	4.5784E-05	0	0	0	
0.29	-0.00517322	0.00138913	0.000162595	5.21523E-05	0	0	0	
0.290167	0.0048316	-0.00286764	0.000107455	4.11489E-05	0	0	0	
0.290333	-0.00348168	0.00186036	0.000131484	4.74482E-05	0	0	0	
0.2905	0.00764344	-0.0026666	9.46098E-05	4.63966E-05	0	0	0	
0.290667	-0.00455571	0.0025761	0.000153886	5.89047E-05	0	0	0	
0.290833	-0.00392977	-0.00306418	0.000169756	5.30863E-05	0	0	0	
0.291	0.00590517	0.00239517	0.000174086	6.20737E-05	0	0	0	
0.291167	0.00311511	-0.00409365	0.000161813	5.84303E-05	0	0	0	
0.291333	-0.00721143	0.00327901	0.000159967	7.54409E-05	0	0	0	
0.2915	0.00516796	-0.00373805	0.000156399	7.64203E-05	0	0	0	
0.291667	-0.00863878	0.0036074	0.000182502	8.37788E-05	0	0	0	
0.291833	0.0219571	-0.00399095	0.000187678	7.36754E-05	0	0	0	
0.292	-0.016328	0.00313925	0.000326049	7.70242E-05	0	0	0	
0.292167	-0.00475864	-0.00451847	0.000420239	7.03763E-05	0	0	0	
0.292333	0.013676	0.00425647	0.000472602	8.3317E-05	0	0	0	
0.2925	-0.0133439	-0.00415129	0.000422197	7.96215E-05	0	0	0	
0.292667	0.0123638	0.00236218	0.000302885	8.35469E-05	0	0	0	
0.292833	0.000368135	-0.00365766	0.000273461	6.45663E-05	0	0	0	
0.293	-0.0120328	0.00314634	0.000281121	6.67231E-05	0	0	0	
0.293167	0.0152268	-0.00375117	0.000296258	6.06766E-05	0	0	0	
0.293333	-0.0212156	0.00349879	0.000332495	7.3641E-05	0	0	0	
0.2935	0.019669	-0.0029981	0.000350656	6.46569E-05	0	0	0	
0.293667	0.00670768	0.00262291	0.000499219	6.55141E-05	0	0	0	
0.293833	-0.0256105	-0.00375963	0.000540566	5.7377E-05	0	0	0	
0.294	0.00875636	0.00340738	0.00051747	6.61434E-05	0	0	0	
0.294167	0.0164338	-0.00388332	0.000476659	6.29603E-05	0	0	0	
0.294333	-0.0184821	0.00229961	0.000427255	6.82042E-05	0	0	0	
0.2945	0.00599348	-0.00227302	0.000442862	5.28309E-05	0	0	0	
0.294667	0.000858139	0.0026897	0.000342639	5.58067E-05	0	0	0	
0.294833	0.0054034	-0.00345904	0.000248406	5.10452E-05	0	0	0	
0.295	-0.00474907	0.0024866	0.000206994	6.26146E-05	0	0	0	
0.295167	-0.0110003	-0.0030003	0.00026903	5.52068E-05	0	0	0	
0.295333	0.0108667	0.00220735	0.000300546	5.77225E-05	0	0	0	
0.2955	0.0116084	-0.00386041	0.000323176	5.23758E-05	0	0	0	
0.295667	-0.0158443	0.00320118	0.000282925	6.91002E-05	0	0	0	
0.295833	-0.00172482	-0.0037833	0.000359782	6.89206E-05	0	0	0	
0.296	0.00235185	0.00162245	0.000293258	7.28149E-05	0	0	0	
0.296167	0.00954627	-0.00279108	0.000233103	5.34558E-05	0	0	0	
0.296333	-0.00879417	0.00345604	0.000183708	5.52981E-05	0	0	0	
0.2965	0.00519178	-0.00538718	0.000204635	6.18272E-05	0	0	0	
0.296667	-0.0063715	0.00318619	0.000231167	8.39615E-05	0	0	0	
0.296833	0.000415212	-0.00386469	0.000216097	8.10176E-05	0	0	0	
0.297	0.00213695	0.00157385	0.000197464	7.60934E-05	0	0	0	
0.297167	0.00719173	-0.0030706	0.000152495	6.36039E-05	0	0	0	
0.297333	-0.00785148	0.00186719	0.000154265	6.49399E-05	0	0	0	
0.2975	0.00194474	-0.00346071	0.00016373	5.95767E-05	0	0	0	
0.297667	-0.00655136	0.00185513	0.000196028	6.52644E-05	0	0	0	
0.297833	0.00737156	-0.00369536	0.00014744	5.48168E-05	0	0	0	
0.298	-0.000438473	0.00254473	0.000169655	6.31621E-05	0	0	0	
0.298167	0.0019348	-0.00435994	0.000134338	5.64767E-05	0	0	0	
0.298333	-0.00616649	0.00370018	0.000158374	7.80906E-05	0	0	0	
0.2985	0.00301246	-0.00522897	0.000131574	7.79044E-05	0	0	0	
0.298667	-0.00174282	0.00260386	0.000163565	9.0577E-05	0	0	0	
0.298833	0.00422572	-0.00322944	0.000131604	7.11889E-05	0	0	0	
0.299	-0.00157354	0.00178357	0.000144012	6.93299E-05	0	0	0	
0.299167	-0.00054178	-0.00327848	0.000110182	4.91609E-05	0	0	0	
0.299333	-0.00834983	0.00337132	0.000157837	6.45502E-05	0	0	0	
0.2995	0.0142268	-0.00377766	0.000149135	6.14486E-05	0	0	0	
0.299667	-0.00740568	0.00301676	0.000235258	7.5969E-05	0	0	0	
0.299833	-0.0054926	-0.00400863	0.000279152	6.52068E-05	0	0	0	
0.3	0.00450212	0.00355603	0.000250902	7.73996E-05	0	0	0	
0.300167	0.0066223	-0.00361111	0.000182047	7.21004E-05	0	0	0	
0.300333	-0.00427593	0.00210034	0.000134939	7.95507E-05	0	0	0	
0.3005	-0.00106089	-0.00250022	0.000167123	5.91217E-05	0	0	0	
0.300667	-0.00500562	0.00354429	0.000171106	6.03606E-05	0	0	0	
0.300833	0.00641714	-0.0052669	0.000140043	5.93007E-05	0	0	0	
0.301	0.00193234	0.0033912	0.000177288	7.93314E-05	0	0	0	
0.301167	-0.000327249	-0.003029	0.000179307	7.69975E-05	0	0	0	
0.301333	-0.00734781	0.00124117	0.000206418	6.90548E-05	0	0	0	
0.3015	0.0137975	-0.00216475	0.000150398	4.28772E-05	0	0	0	
0.301667	-0.0215561	0.00288112	0.000246854	4.51626E-05	0	0	0	
0.301833	0.0161144	-0.0042219	0.000292841	4.80948E-05	0	0	0	
0.302	0.00135417	0.00293591	0.000394107	7.05794E-05	0	0	0	
0.302167	-0.010737	-0.003749	0.000358599	6.89218E-05	0	0	0	
0.302333	0.00763031	0.00254816	0.000276634	6.88992E-05	0	0	0	
0.3025	0.00453807	-0.00305344	0.00021671	5.98315E-05	0	0	0	
0.302667	-0.0141997	0.00232	0.000215395	6.52627E-05	0	0	0	
0.302833	0.0123208	-0.00334754	0.000264692	6.05286E-05	0	0	0	
0.303	-0.00890741	0.00312221	0.000270747	6.98328E-05	0	0	0	
0.303167	0.00731891	-0.00362997	0.000234148	6.38381E-05	0	0	0	
0.303333	-0.00156258	0.00224058	0.000241178	7.09553E-05	0	0	0	
0.3035	-0.00289946	-0.00350545	0.00025159	6.22117E-05	0	0	0	
0.303667	0.00571304	0.00267205	0.000213949	6.8493E-05	0	0	0	
0.303833	0.00522275	-0.00401223	0.000176229	6.20263E-05	0	0	0	
0.304	-0.0109247	0.00399908	0.000165131	7.54001E-05	0	0	0	
0.304167	0.00663306	-0.00474727	0.000185233	7.44862E-05	0	0	0	
0.304333	-0.0012301	0.0028757	0.000207337	8.44089E-05	0	0	0	
0.3045	0.00051526	-0.00355321	0.00017125	6.88891E-05	0	0	0	
0.304667	0.000222512	0.00276443	0.000155303	6.93674E-05	0	0	0	
0.304833	0.00526572	-0.00369006	0.000113196	6.10643E-05	0	0	0	
0.305	-0.00580131	0.00272157	0.000137472	6.97518E-05	0	0	0	
0.305167	0.00452517	-0.00327388	0.000130672	6.01704E-05	0	0	0	
0.305333	-0.00627095	0.00185827	0.000174031	6.04748E-05	0	0	0	
0.3055	0.00522681	-0.00311343	0.000143059	5.33489E-05	0	0	0	
0.305667	-0.00298645	0.00259101	0.000184547	6.17874E-05	0	0	0	
0.305833	0.00665289	-0.00409276	0.000136542	6.01027E-05	0	0	0	
0.306	-0.0048086	0.0032717	0.000169529	6.84564E-05	0	0	0	
0.306167	-0.0023748	-0.00376105	0.000146068	6.43139E-05	0	0	0	
0.306333	0.0011957	0.00255376	0.000151059	7.12946E-05	0	0	0	
0.3065	0.00743374	-0.00390624	0.000110803	6.156E-05	0	0	0	
0.306667	-0.00856916	0.0025155	0.000145941	6.84025E-05	0	0	0	
0.306833	0.002818	-0.00324239	0.000172478	5.82189E-05	0	0	0	
0.307	-0.00194218	0.00282883	0.000193511	6.17965E-05	0	0	0	
0.307167	-0.00022557	-0.0043433	0.000151005	5.32566E-05	0	0	0	
0.307333	0.00142393	0.00265174	0.000141793	6.39298E-05	0	0	0	
0.3075	0.00508843	-0.00292099	0.000116433	6.16543E-05	0	0	0	
0.307667	-0.00445575	0.00196901	0.000142229	6.79756E-05	0	0	0	
0.307833	-0.00328977	-0.00269691	0.000159608	5.36727E-05	0	0	0	
0.308	-0.00656635	0.00260297	0.000186086	5.54054E-05	0	0	0	
0.308167	0.0208256	-0.00391089	0.000195896	4.90928E-05	0	0	0	
0.308333	-0.0119512	0.00297236	0.000287757	6.85322E-05	0	0	0	
0.3085	-0.00949115	-0.00442232	0.000403284	7.01548E-05	0	0	0	
0.308667	0.0122972	0.00318276	0.000382877	8.1559E-05	0	0	0	
0.308833	-0.00245324	-0.00304001	0.000315506	7.10353E-05	0	0	0	
0.309	-0.0103003	0.00206823	0.000270481	6.89932E-05	0	0	0	
0.309167	0.0174323	-0.00259483	0.000284422	5.35912E-05	0	0	0	
0.309333	-0.00480626	0.00192733	0.000314633	5.48137E-05	0	0	0	
0.3095	0.000943714	-0.00381369	0.000212237	5.18592E-05	0	0	0	
0.309667	-0.0181163	0.00257234	0.000224518	6.61744E-05	0	0	0	
0.309833	0.000674002	-0.00398879	0.000286022	6.37576E-05	0	0	0	
0.31	0.0307417	0.00314171	0.000454302	7.26828E-05	0	0	0	
0.310167	-0.00154795	-0.00432678	0.000546985	6.39905E-05	0	0	0	
0.310333	-0.0284523	0.00364751	0.00058253	7.60981E-05	0	0	0	
0.3105	0.00858476	-0.00328556	0.000511312	7.17384E-05	0	0	0	
0.310667	0.00319911	0.00221479	0.000454277	7.55723E-05	0	0	0	
0.310833	0.00631498	-0.00319432	0.00027155	6.26873E-05	0	0	0	
0.311	0.00601547	0.00287704	0.00021209	6.17054E-05	0	0	0	
0.311167	-0.00949131	-0.003411	0.000179941	5.57872E-05	0	0	0	
0.311333	-0.00517423	0.00335129	0.000233634	6.37798E-05	0	0	0	
0.3115	0.00896045	-0.00426316	0.000195782	6.52423E-05	0	0	0	
0.311667	0.000615453	0.003792	0.000177093	8.05815E-05	0	0	0	
0.311833	0.00838517	-0.00395139	0.000123409	7.6159E-05	0	0	0	
0.312	-0.00926224	0.0033702	0.000193693	8.0517E-05	0	0	0	
0.312167	0.000175926	-0.00360126	0.000238825	7.01289E-05	0	0	0	
0.312333	0.00260406	0.00255754	0.000257955	7.21271E-05	0	0	0	
0.3125	0.00414602	-0.00354268	0.000198186	6.6295E-05	0	0	0	
0.312667	-0.00593857	0.00180436	0.000150332	6.46381E-05	0	0	0	
0.312833	0.00717633	-0.00308081	0.000140111	5.76852E-05	0	0	0	
0.313	-0.00169269	0.0026813	0.000181446	5.83226E-05	0	0	0	
0.313167	0.0023482	-0.0033462	0.000155839	5.2978E-05	0	0	0	
0.313333	-0.00517094	0.00258047	0.000181152	6.1658E-05	0	0	0	
0.3135	0.00223197	-0.00382306	0.000129522	5.77228E-05	0	0	0	
0.313667	-0.0043764	0.00278106	0.000147219	6.69152E-05	0	0	0	
0.313833	0.0113604	-0.00391576	0.000108139	6.16164E-05	0	0	0	
0.314	-0.00755396	0.00318149	0.000186071	6.91759E-05	0	0	0	
0.314167	0.00323659	-0.00364295	0.000269992	6.4499E-05	0	0	0	
0.314333	-0.000394998	0.00252884	0.000331359	7.22493E-05	0	0	0	
0.3145	-0.00508864	-0.00276414	0.000291173	5.8724E-05	0	0	0	
0.314667	0.00935678	0.00233088	0.000174718	6.066E-05	0	0	0	
0.314833	0.00440884	-0.00303246	0.000169173	4.87611E-05	0	0	0	
0.315	-0.0167863	0.00205225	0.00020593	5.96653E-05	0	0	0	
0.315167	0.0138315	-0.00272946	0.000273177	5.09813E-05	0	0	0	
0.315333	-0.0121215	0.00180278	0.000321062	5.8171E-05	0	0	0	
0.3155	0.00890662	-0.00266086	0.00027196	4.59334E-05	0	0	0	
0.315667	0.00492285	0.00197151	0.000304258	5.36541E-05	0	0	0	
0.315833	-0.00374831	-0.00280573	0.000257081	4.75035E-05	0	0	0	
0.316	-0.00685621	0.00196676	0.000263614	5.6145E-05	0	0	0	
0.316167	0.00641555	-0.00353697	0.000166806	5.08319E-05	0	0	0	
0.316333	-0.00126208	0.00316745	0.000147622	6.57607E-05	0	0	0	
0.3165	0.0013515	-0.00323102	0.000128796	6.21071E-05	0	0	0	
0.316667	-0.00218388	0.00319633	0.000155014	7.40357E-05	0	0	0	
0.316833	0.00367274	-0.003509	0.000119746	5.9818E-05	0	0	0	
0.317	-0.00445252	0.00324403	0.00014369	7.01667E-05	0	0	0	
0.317167	0.00432912	-0.00377219	0.00015172	6.79704E-05	0	0	0	
0.317333	-0.00294469	0.00168079	0.000187908	7.32449E-05	0	0	0	
0.3175	0.004126	-0.00182673	0.000158538	5.45776E-05	0	0	0	
0.317667	0.000952645	0.00267957	0.000158348	5.0359E-05	0	0	0	
0.317833	0.00044177	-0.00352108	0.000128534	4.28679E-05	0	0	0	
0.318	-0.00913879	0.00364773	0.000158784	6.38345E-05	0	0	0	
0.318167	0.00714371	-0.00430093	0.000142072	6.83801E-05	0	0	0	
0.318333	-0.00118305	0.00326092	0.000172621	8.06451E-05	0	0	0	
0.3185	0.00463127	-0.00387581	0.000137415	7.40174E-05	0	0	0	
