0	-0.00511068	0.00133637	5.11068E-07	1.33637E-07	0	0	0	
0.000166667	0.0209964	-0.00445091	5.62198E-05	1.54062E-05	0	0	0	
0.000333333	-0.0445252	0.00670931	0.000341365	7.86135E-05	0	0	0	
0.0005	0.0274503	0.00440078	0.000722022	0.00019647	0	0	0	
0.000666667	0.00471264	-0.0158797	0.00089958	0.000282431	0	0	0	
0.000833333	0.00881847	0.0117075	0.00064364	0.000301907	0	0	0	
0.001	-0.0277413	0.00287881	0.000422512	0.000336389	0	0	0	
0.00116667	0.0204529	-0.0126384	0.000324265	0.000339124	0	0	0	
0.00133333	-0.0388804	0.0126271	0.000496351	0.000326281	0	0	0	
0.0015	0.0658726	-0.0109708	0.000681209	0.000265224	0	0	0	
0.00166667	-0.0639662	0.00306692	0.000914721	0.000252407	0	0	0	
0.00183333	0.0332247	0.00668758	0.00111058	0.000319206	0	0	0	
0.002	0.0122559	-0.0202167	0.00101126	0.000337836	0	0	0	
0.00216667	0.00264608	0.0174562	0.000754436	0.000361886	0	0	0	
0.00233333	-0.0304909	-0.000738245	0.000604741	0.000388897	0	0	0	
0.0025	0.0235221	-0.0127493	0.00051401	0.000404613	0	0	0	
0.00266667	-0.016556	0.0104619	0.000542285	0.000352661	0	0	0	
0.00283333	0.034398	-0.0020813	0.000474461	0.000286816	0	0	0	
0.003	-0.025049	-0.00275644	0.000526448	0.000227763	0	0	0	
0.00316667	0.0137411	0.00659702	0.000558037	0.000199156	0	0	0	
0.00333333	0.00747826	-0.0115023	0.000459425	0.000154987	0	0	0	
0.0035	0.00119011	0.00955906	0.000424513	0.000163545	0	0	0	
0.00366667	-0.0252498	0.0021392	0.00047492	0.000230165	0	0	0	
0.00383333	0.0260444	-0.0106053	0.000547136	0.000251053	0	0	0	
0.004	-0.00822567	0.0072214	0.000524293	0.000228196	0	0	0	
0.00416667	-0.00276022	0.00214908	0.000425305	0.00021074	0	0	0	
0.00433333	0.00728417	-0.0075719	0.00029867	0.000197729	0	0	0	
0.0045	-0.00399838	0.00665137	0.000248957	0.000185396	0	0	0	
0.00466667	-0.0110217	-0.00343151	0.00029471	0.000139782	0	0	0	
0.00483333	0.0186366	0.00244034	0.000370932	0.000101717	0	0	0	
0.005	-0.0080529	-0.00375271	0.000365326	8.1873E-05	0	0	0	
0.00516667	0.00263003	0.0019852	0.000260203	6.62117E-05	0	0	0	
0.00533333	-0.00555501	0.00225887	0.000194386	7.06479E-05	0	0	0	
0.0055	-0.000230585	-0.00247068	0.000135354	6.44463E-05	0	0	0	
0.00566667	-0.00200047	-0.000561104	8.7384E-05	5.83139E-05	0	0	0	
0.00583333	0.0161992	0.00145559	0.00014183	3.57797E-05	0	0	0	
0.006	-0.017599	-0.000256164	0.000208093	3.03878E-05	0	0	0	
0.00616667	0.00441487	8.15643E-05	0.000297445	1.63143E-05	0	0	0	
0.00633333	-0.00208967	0.000318459	0.000260284	1.69051E-05	0	0	0	
0.0065	0.00453227	0.000353698	0.000192575	1.87326E-05	0	0	0	
0.00666667	-0.00300248	-0.00351575	0.000114739	3.66415E-05	0	0	0	
0.00683333	0.00863232	0.00647249	0.000116728	6.02761E-05	0	0	0	
0.007	-0.0140596	-0.0054954	0.000154911	9.08385E-05	0	0	0	
0.00716667	0.00543061	0.000129491	0.000194375	0.000119743	0	0	0	
0.00733333	0.000836773	0.00507238	0.000190163	0.000135471	0	0	0	
0.0075	0.00238839	-0.00416659	0.000137113	0.000119012	0	0	0	
0.00766667	0.00026955	-0.00149362	7.77948E-05	0.000115501	0	0	0	
0.00783333	0.00424374	0.00417086	5.34658E-05	0.000103583	0	0	0	
0.008	-0.00804218	-0.00328159	8.8303E-05	0.000100503	0	0	0	
0.00816667	0.00515241	0.0029654	0.000123976	7.40421E-05	0	0	0	
0.00833333	-0.0063969	-0.000932865	0.000134262	6.29954E-05	0	0	0	
0.0085	0.011083	-0.0031708	0.000131296	7.06597E-05	0	0	0	
0.00866667	-0.00567095	0.0017526	0.000151693	6.59067E-05	0	0	0	
0.00883333	0.00130396	0.00311674	0.000190899	7.91652E-05	0	0	0	
0.009	-0.000519998	-0.00362514	0.000182524	6.92465E-05	0	0	0	
0.00916667	0.00128154	0.00084477	0.000135858	8.04039E-05	0	0	0	
0.00933333	-0.00623001	0.000800225	8.427E-05	6.95986E-05	0	0	0	
0.0095	0.0128258	-0.00242441	0.000107878	7.02837E-05	0	0	0	
0.00966667	-0.0124767	0.00281854	0.000167046	5.97455E-05	0	0	0	
0.00983333	0.00743042	0.000384598	0.000232335	6.12666E-05	0	0	0	
0.01	-0.00647815	-0.00417316	0.000227703	7.30701E-05	0	0	0	
0.0101667	0.00964126	0.00475667	0.000206656	8.36814E-05	0	0	0	
0.0103333	-0.00699668	-0.00402098	0.00017496	8.79245E-05	0	0	0	
0.0105	0.00742473	0.00216331	0.000164544	8.86053E-05	0	0	0	
0.0106667	-0.00950287	0.000635481	0.000166458	8.70482E-05	0	0	0	
0.0108333	0.010928	-0.000963831	0.000178662	6.3775E-05	0	0	0	
0.011	-0.00321653	-0.00160571	0.000203708	4.30823E-05	0	0	0	
0.0111667	-0.00228011	0.00306643	0.000193374	3.58021E-05	0	0	0	
0.0113333	-0.0048351	-0.0027343	0.000164403	4.56708E-05	0	0	0	
0.0115	0.0204713	0.00135575	0.000185602	5.27028E-05	0	0	0	
0.0116667	-0.0240714	3.21726E-06	0.000274021	4.72528E-05	0	0	0	
0.0118333	0.00915319	0.000292395	0.00038244	3.47597E-05	0	0	0	
0.012	-0.000477625	-0.00305034	0.000396443	3.19115E-05	0	0	0	
0.0121667	-0.00086405	0.00416104	0.000307768	4.31262E-05	0	0	0	
0.0123333	0.00206419	-0.00234903	0.000186462	6.21278E-05	0	0	0	
0.0125	-0.000241067	0.00038778	0.000108125	6.39198E-05	0	0	0	
0.0126667	-0.0154554	-0.000995456	0.000161279	4.74977E-05	0	0	0	
0.0128333	0.0189485	0.00263468	0.000238879	3.88505E-05	0	0	0	
0.013	-0.0123688	-0.0040384	0.000311897	4.23195E-05	0	0	0	
0.0131667	0.00801675	0.00500228	0.000298178	6.35107E-05	0	0	0	
0.0133333	-0.00693378	-0.00407758	0.000248184	8.14136E-05	0	0	0	
0.0135	0.000857201	0.000656376	0.000219458	9.45037E-05	0	0	0	
0.0136667	0.00297208	0.00206851	0.000197227	9.5187E-05	0	0	0	
0.0138333	0.00449586	-0.00088293	0.000163005	7.00227E-05	0	0	0	
0.014	-0.0116549	-0.00357009	0.000147525	5.55082E-05	0	0	0	
0.0141667	0.01099	0.00699105	0.000158061	6.18958E-05	0	0	0	
0.0143333	-0.0110484	-0.0036476	0.000210729	8.78583E-05	0	0	0	
0.0145	0.0147	0.000734065	0.000235284	9.65413E-05	0	0	0	
0.0146667	-0.0156191	-0.000461482	0.000264321	7.08883E-05	0	0	0	
0.0148333	0.00970098	0.00211436	0.00028694	4.53274E-05	0	0	0	
0.015	-0.0057214	-0.00314285	0.000273072	3.33208E-05	0	0	0	
0.0151667	0.00510512	0.00404039	0.000229913	4.88213E-05	0	0	0	
0.0153333	-0.00445807	-0.00209299	0.000178391	6.45988E-05	0	0	0	
0.0155	0.00418578	0.00293042	0.000154775	6.26225E-05	0	0	0	
0.0156667	-0.0134189	-0.00343027	0.00018304	5.92183E-05	0	0	0	
0.0158333	0.0163025	0.00345055	0.000232608	6.14822E-05	0	0	0	
0.016	-0.00993959	-0.00290742	0.000270838	8.47724E-05	0	0	0	
0.0161667	0.00698233	-4.8388E-05	0.000252665	0.00010946	0	0	0	
0.0163333	-0.00701189	0.00303012	0.000201783	0.000120253	0	0	0	
0.0165	0.00176241	-0.00293691	0.000149003	9.87882E-05	0	0	0	
0.0166667	0.00280224	-0.00175159	9.81872E-05	7.97565E-05	0	0	0	
0.0168333	0.0064683	0.00428231	0.000105162	6.62627E-05	0	0	0	
0.017	-0.0178466	-0.00398576	0.000177725	7.57483E-05	0	0	0	
0.0171667	0.0245648	0.00296122	0.000284354	7.21148E-05	0	0	0	
0.0173333	-0.0178441	-0.00571437	0.000383318	7.61562E-05	0	0	0	
0.0175	0.0105018	0.00608705	0.000405055	8.71226E-05	0	0	0	
0.0176667	-0.0121927	-0.00248487	0.000386026	0.000108615	0	0	0	
0.0178333	0.00510905	-6.17208E-05	0.000366841	0.000121618	0	0	0	
0.018	0.0127755	0.00321224	0.000382838	0.000104952	0	0	0	
0.0181667	-0.00506151	-0.0059335	0.000339125	9.34179E-05	0	0	0	
0.0183333	-0.0156731	0.00618228	0.000344408	8.62481E-05	0	0	0	
0.0185	0.0225065	0.000701284	0.000325026	0.000149274	0	0	0	
0.0186667	-0.0125823	-0.0110857	0.000385239	0.000211038	0	0	0	
0.0188333	0.00840488	0.0147224	0.000324666	0.000251693	0	0	0	
0.019	-0.0180027	-0.00553489	0.000286025	0.000260602	0	0	0	
0.0191667	0.0128572	-0.00552084	0.000257085	0.000278877	0	0	0	
0.0193333	0.00502366	0.00740298	0.000280388	0.000286459	0	0	0	
0.0195	0.00241975	-0.00671514	0.00030426	0.000231372	0	0	0	
0.0196667	-0.0219287	0.000986573	0.000430133	0.000158175	0	0	0	
0.0198333	0.0110387	0.00261453	0.00040925	0.000124448	0	0	0	
0.02	0.0161307	-0.00854055	0.000519558	0.000142253	0	0	0	
0.0201667	-0.0138764	0.0115515	0.000378765	0.000175674	0	0	0	
0.0203333	-0.00531388	-0.00977401	0.000446821	0.000185068	0	0	0	
0.0205	-0.00206528	0.00480226	0.00026754	0.000198833	0	0	0	
0.0206667	0.0125965	0.00261424	0.000229063	0.000182896	0	0	0	
0.0208333	0.006662	-0.00567606	0.000208377	0.000147684	0	0	0	
0.021	-0.0240626	0.00385093	0.00024955	0.000120699	0	0	0	
0.0211667	0.00607684	0.00160282	0.000407517	0.000117	0	0	0	
0.0213333	0.0159824	-0.00476625	0.000461889	0.000144384	0	0	0	
0.0215	-0.00967668	0.00784353	0.000453344	0.000136832	0	0	0	
0.0216667	-0.0179024	-0.00317119	0.000423672	0.000132095	0	0	0	
0.0218333	0.027926	-0.00534439	0.000382601	0.000151568	0	0	0	
0.022	-0.0138678	0.00934706	0.000455421	0.000154282	0	0	0	
0.0221667	0.00344109	0.00112538	0.000403004	0.000179728	0	0	0	
0.0223333	-0.00603901	-0.0100915	0.000315332	0.000207182	0	0	0	
0.0225	0.00824568	0.0163478	0.000220531	0.000254288	0	0	0	
0.0226667	-0.00635628	-0.0140377	0.000146711	0.000273829	0	0	0	
0.0228333	0.00292215	0.00185102	0.00012739	0.000306594	0	0	0	
0.023	0.00251223	0.0157285	9.53796E-05	0.000386318	0	0	0	
0.0231667	-0.00885647	-0.0170138	0.00011336	0.000403112	0	0	0	
0.0233333	-0.00622614	0.00674131	0.00012414	0.000374438	0	0	0	
0.0235	0.00576512	0.00587132	0.000148478	0.0003274	0	0	0	
0.0236667	-0.0111671	-0.0116368	0.000159208	0.00030053	0	0	0	
0.0238333	0.0137697	0.0135344	0.000196184	0.000275198	0	0	0	
0.024	0.000928072	-0.0143872	0.000239384	0.000246666	0	0	0	
0.0241667	-0.0174858	0.00694411	0.000282729	0.000285758	0	0	0	
0.0243333	0.00331771	0.00705066	0.000298849	0.000364634	0	0	0	
0.0245	0.00481027	-0.0172736	0.000270113	0.000371823	0	0	0	
0.0246667	-0.0133052	0.0063346	0.000189615	0.000328921	0	0	0	
0.0248333	0.0233373	0.00888511	0.000238814	0.000291001	0	0	0	
0.025	-0.0114706	-0.0101382	0.000318459	0.000253652	0	0	0	
0.0251667	-0.0036894	0.0033488	0.0004166	0.000232746	0	0	0	
0.0253333	0.00248959	-0.00139499	0.000300137	0.000158941	0	0	0	
0.0255	0.0121139	0.000261401	0.000262426	0.000134757	0	0	0	
0.0256667	-0.0183799	0.00205507	0.000213303	0.000116677	0	0	0	
0.0258333	0.0197619	-0.00160795	0.000342796	8.59E-05	0	0	0	
0.026	-0.0074849	-0.00104269	0.000351391	6.04423E-05	0	0	0	
0.0261667	0.0110223	-0.000980225	0.000368735	4.33231E-05	0	0	0	
0.0263333	-0.0169034	0.00171285	0.000331706	4.55698E-05	0	0	0	
0.0265	0.0165283	0.00473096	0.000333242	7.03239E-05	0	0	0	
0.0266667	-0.0102832	-0.00971685	0.000322768	9.17413E-05	0	0	0	
0.0268333	0.00523429	0.00606167	0.000257623	0.000132492	0	0	0	
0.027	-0.00357707	-0.00338069	0.000176835	0.000151294	0	0	0	
0.0271667	-0.000179965	0.00126882	0.000106741	0.000164222	0	0	0	
0.0273333	0.0030124	0.00555469	6.36966E-05	0.000178193	0	0	0	
0.0275	0.00656958	-0.00927114	9.51064E-05	0.000172382	0	0	0	
0.0276667	-0.0145451	0.00132771	0.000142298	0.000177412	0	0	0	
0.0278333	0.0119147	0.00986407	0.000214516	0.000208286	0	0	0	
0.028	-0.010529	-0.0114579	0.00023829	0.000238924	0	0	0	
0.0281667	0.013314	0.00716041	0.000244992	0.000229949	0	0	0	
0.0283333	-0.0315122	-0.00311049	0.000323229	0.000168464	0	0	0	
0.0285	0.0152387	0.00313326	0.000440101	0.000111795	0	0	0	
0.0286667	-0.0182457	-0.00452758	0.00047539	8.05073E-05	0	0	0	
0.0288333	0.0168894	0.00150683	0.000418093	7.00583E-05	0	0	0	
0.029	-0.0122873	0.00491404	0.000312848	8.31542E-05	0	0	0	
0.0291667	0.0075006	-0.00577525	0.000272954	9.02057E-05	0	0	0	
0.0293333	-0.0226225	0.00114527	0.000255684	0.000115582	0	0	0	
0.0295	0.0318278	0.00388641	0.000402923	0.000142194	0	0	0	
0.0296667	-0.0216602	-0.0058812	0.000460082	0.000152289	0	0	0	
0.0298333	0.00969171	0.00489665	0.000475263	0.000132738	0	0	0	
0.03	-0.0073906	-0.00353287	0.000285252	9.79659E-05	0	0	0	
0.0301667	0.0136306	0.00353853	0.00024088	8.05051E-05	0	0	0	
0.0303333	-0.0175922	-0.00272945	0.00022844	6.92873E-05	0	0	0	
0.0305	0.0112958	0.00202794	0.000273819	6.36916E-05	0	0	0	
0.0306667	-0.00610897	-0.00214264	0.000252855	5.73365E-05	0	0	0	
0.0308333	0.0160333	0.00163733	0.000243461	4.9336E-05	0	0	0	
0.031	-0.0253681	0.000181633	0.000278347	3.76704E-05	0	0	0	
0.0311667	0.0161813	9.47781E-05	0.000354292	2.21361E-05	0	0	0	
0.0313333	0.00651435	-0.00245037	0.000440581	2.02381E-05	0	0	0	
0.0315	-0.00995054	0.0036501	0.000363975	3.26345E-05	0	0	0	
0.0316667	-0.0109825	-0.00220624	0.000361808	5.07407E-05	0	0	0	
0.0318333	0.0176042	0.000630404	0.000297162	5.06007E-05	0	0	0	
0.032	0.000354055	-0.00147604	0.000314511	3.94498E-05	0	0	0	
0.0321667	-0.000332752	0.000637398	0.000182191	3.02128E-05	0	0	0	
0.0323333	-0.0171776	-0.000868984	0.000212162	2.34343E-05	0	0	0	
0.0325	0.0203071	-0.0017687	0.000237077	2.06884E-05	0	0	0	
0.0326667	-0.00386669	0.00188854	0.000374176	2.25956E-05	0	0	0	
0.0328333	-0.00146495	-0.00310259	0.000305339	4.03349E-05	0	0	0	
0.033	-0.0097111	0.000106946	0.000266404	6.09951E-05	0	0	0	
0.0331667	0.0109659	0.00235965	0.000180486	8.49156E-05	0	0	0	
0.0333333	-0.0017329	-0.00628599	0.000184127	9.10169E-05	0	0	0	
0.0335	-0.00110158	0.00620305	0.00014025	0.000107191	0	0	0	
0.0336667	-0.0117765	-4.32447E-05	0.000129492	0.0001396	0	0	0	
0.0338333	0.0107966	-0.00806299	0.000129774	0.000186338	0	0	0	
0.034	-0.00740817	0.00988927	0.000183106	0.000200666	0	0	0	
0.0341667	0.00966185	-0.00214802	0.000195846	0.000188425	0	0	0	
0.0343333	-0.00832811	-0.00723589	0.00018519	0.000197133	0	0	0	
0.0345	0.000573336	0.0125548	0.000160421	0.000205566	0	0	0	
0.0346667	-0.00359545	-0.00775956	0.000126598	0.000214726	0	0	0	
0.0348333	0.00632993	-0.000818975	0.000112828	0.00020428	0	0	0	
0.035	-0.0108532	0.00612306	0.000126466	0.000192727	0	0	0	
0.0351667	0.0145456	-0.00616645	0.000176664	0.000161341	0	0	0	
0.0353333	-0.0109903	0.00137701	0.000219871	0.000132166	0	0	0	
0.0355	0.00731802	0.00609444	0.000225317	0.000142799	0	0	0	
0.0356667	-0.0111683	-0.0105524	0.000213616	0.000165644	0	0	0	
0.0358333	0.010508	0.00701507	0.000199371	0.000176927	0	0	0	
0.036	0.00390036	0.00011357	0.000226229	0.000186161	0	0	0	
0.0361667	-0.0056833	-0.00392081	0.000196361	0.000183554	0	0	0	
0.0363333	-0.00827017	0.00240115	0.000215578	0.000147747	0	0	0	
0.0365	0.0174228	0.000411392	0.000221034	8.93645E-05	0	0	0	
0.0366667	-0.0145177	-0.00145516	0.000289221	5.64273E-05	0	0	0	
0.0368333	0.00854484	0.0032716	0.000270239	5.78969E-05	0	0	0	
0.037	-0.00754696	-0.0048523	0.000230547	6.83242E-05	0	0	0	
0.0371667	0.00738991	0.00471936	0.000187654	7.66252E-05	0	0	0	
0.0373333	-0.002265	-0.00327791	0.00017107	8.37071E-05	0	0	0	
0.0375	0.000171692	0.00202826	0.000131359	7.79019E-05	0	0	0	
0.0376667	-0.0103927	-0.000621246	0.000143488	5.83358E-05	0	0	0	
0.0378333	0.0196883	4.87902E-05	0.000197686	3.19385E-05	0	0	0	
0.038	-0.0152832	-0.00114274	0.000281679	2.19533E-05	0	0	0	
0.0381667	0.00667665	0.00443982	0.000289099	3.91537E-05	0	0	0	
0.0383333	-0.00578307	-0.00699032	0.000217719	7.45834E-05	0	0	0	
0.0385	0.012047	0.00581245	0.000180836	0.000103838	0	0	0	
0.0386667	-0.0115782	-0.0014949	0.000171145	0.000111484	0	0	0	
0.0388333	0.0036101	-0.000354826	0.000192345	9.0652E-05	0	0	0	
0.039	-0.00298707	-0.00110639	0.000153332	5.50688E-05	0	0	0	
0.0391667	0.00921752	0.00269306	0.000129433	3.22458E-05	0	0	0	
0.0393333	-0.00796636	-0.00142395	0.000120366	3.23922E-05	0	0	0	
0.0395	0.00652281	-5.10178E-05	0.000149024	4.25216E-05	0	0	0	
0.0396667	-0.0106185	-2.03746E-05	0.000161788	3.47651E-05	0	0	0	
0.0398333	0.0134945	0.00184557	0.000184157	3.7882E-05	0	0	0	
0.04	-0.0033838	-0.00467638	0.000211706	5.00805E-05	0	0	0	
0.0401667	0.00367803	0.00598446	0.000194937	7.72283E-05	0	0	0	
0.0403333	-0.0174199	-0.00457337	0.000204385	0.00010038	0	0	0	
0.0405	0.0204535	0.00037574	0.000235939	0.000122832	0	0	0	
0.0406667	-0.00762842	0.00248274	0.000327578	0.000122613	0	0	0	
0.0408333	-0.00139594	-0.000861111	0.000334883	8.76838E-05	0	0	0	
0.041	-0.00483958	-0.00352662	0.000244433	6.4845E-05	0	0	0	
0.0411667	0.0101692	0.00579613	0.000159662	6.27172E-05	0	0	0	
0.0413333	-0.0077165	-0.00504448	0.000127481	9.17614E-05	0	0	0	
0.0415	0.00584026	0.00100964	0.000160661	0.0001066	0	0	0	
0.0416667	-0.00686178	0.0020148	0.000156913	0.000104415	0	0	0	
0.0418333	0.010356	-0.000500391	0.000156024	7.43228E-05	0	0	0	
0.042	-0.0129934	-0.00365457	0.000169379	5.98385E-05	0	0	0	
0.0421667	0.00888659	0.0057857	0.000203919	6.24721E-05	0	0	0	
0.0423333	-0.00441583	-0.00326459	0.000211928	8.76218E-05	0	0	0	
0.0425	0.00557174	-0.00118336	0.000180705	9.85442E-05	0	0	0	
0.0426667	-0.0101174	0.00236072	0.000159502	8.10828E-05	0	0	0	
0.0428333	0.0128366	0.00273313	0.00016389	8.64303E-05	0	0	0	
0.043	-0.0118107	-0.00819813	0.000209083	9.9553E-05	0	0	0	
0.0431667	0.00859403	0.00843091	0.000235053	0.000137007	0	0	0	
0.0433333	-0.0082535	-0.00250194	0.000235558	0.000155971	0	0	0	
0.0435	0.00792773	-0.00150384	0.000204014	0.000155455	0	0	0	
0.0436667	-0.0113952	0.00294667	0.000188968	0.000136197	0	0	0	
0.0438333	0.0139734	-0.00270119	0.000201986	9.77674E-05	0	0	0	
0.044	-0.0176296	0.00147485	0.000248561	6.90422E-05	0	0	0	
0.0441667	0.0140748	0.00435476	0.00028996	8.11571E-05	0	0	0	
0.0443333	-0.00583133	-0.00781402	0.000285277	0.000103211	0	0	0	
0.0445	0.000282457	0.00538599	0.000216568	0.000121397	0	0	0	
0.0446667	-0.00898193	-0.00194126	0.00016022	0.000119308	0	0	0	
0.0448333	0.0136481	0.000649722	0.000171726	0.000108664	0	0	0	
0.045	-0.0101414	-0.00015555	0.000214357	7.85691E-05	0	0	0	
0.0451667	0.00554696	0.00204194	0.000212515	4.65934E-05	0	0	0	
0.0453333	-0.0101858	-0.00227102	0.00018717	2.9901E-05	0	0	0	
0.0455	0.0146029	0.00213184	0.000194595	3.61142E-05	0	0	0	
0.0456667	-0.00962945	-0.00279246	0.000226062	5.13251E-05	0	0	0	
0.0458333	0.00532747	0.000633352	0.000219209	6.9617E-05	0	0	0	
0.046	-0.0124103	-0.000167517	0.000202268	7.66501E-05	0	0	0	
0.0461667	0.0135953	0.00444276	0.000198931	7.39936E-05	0	0	0	
0.0463333	-0.00276314	-0.00261966	0.00023993	8.39438E-05	0	0	0	
0.0465	-0.00470396	-0.00525492	0.00024871	0.000132173	0	0	0	
0.0466667	-0.00965994	0.00531804	0.000212038	0.00014583	0	0	0	
0.0468333	0.0156577	0.000725639	0.000190815	0.000150864	0	0	0	
0.047	-0.00201871	-0.00534563	0.00020802	0.000110044	0	0	0	
0.0471667	-0.00259951	0.00526952	0.00019428	0.000109229	0	0	0	
0.0473333	-0.0133804	-0.0066167	0.000201128	0.000103031	0	0	0	
0.0475	0.0234676	0.00670604	0.000225263	0.000113226	0	0	0	
0.0476667	-0.0229611	-0.00565287	0.000370852	0.00012146	0	0	0	
0.0478333	0.0148796	0.00710698	0.000442007	0.000125561	0	0	0	
0.048	-0.0129481	-0.0110241	0.000444035	0.000139794	0	0	0	
0.0481667	0.0103965	0.00370787	0.000384471	0.000211639	0	0	0	
0.0483333	0.0027909	0.0132634	0.00037863	0.00030344	0	0	0	
0.0485	-0.0099825	-0.0175921	0.000361977	0.000347514	0	0	0	
0.0486667	-0.00507881	0.0117265	0.000290834	0.000331693	0	0	0	
0.0488333	0.0212141	-0.00195297	0.000246254	0.000326877	0	0	0	
0.049	-0.0279468	-0.0120593	0.000306988	0.000386722	0	0	0	
0.0491667	0.0247462	0.0240405	0.000422488	0.000429931	0	0	0	
0.0493333	-0.0162936	-0.0196508	0.000491904	0.000425563	0	0	0	
0.0495	0.00106484	0.00553795	0.000507483	0.000408773	0	0	0	
0.0496667	0.00395006	0.00734574	0.000412122	0.000413403	0	0	0	
0.0498333	0.000685742	-0.0102847	0.000292336	0.000373482	0	0	0	
0.05	-0.00584612	0.00741396	0.000181437	0.000291415	0	0	0	
0.0501667	0.0103471	-0.00686556	0.000209397	0.000186772	0	0	0	
0.0503333	-0.0206414	0.00702626	0.000260405	0.000141146	0	0	0	
0.0505	0.0184056	2.78953E-05	0.000323035	0.000149508	0	0	0	
0.0506667	-0.00483346	-0.0105694	0.000318325	0.000190177	0	0	0	
0.0508333	0.00373539	0.0128634	0.000234255	0.000216527	0	0	0	
0.051	-0.00385646	-0.00392785	0.000143931	0.000232532	0	0	0	
0.0511667	-0.0022273	-0.00283748	0.000110494	0.000228095	0	0	0	
0.0513333	-0.00513325	0.00273921	0.000102944	0.000175261	0	0	0	
0.0515	0.0108063	0.00422824	0.000119367	0.00014837	0	0	0	
0.0516667	-0.00262507	-0.0123271	0.000122251	0.000123806	0	0	0	
0.0518333	0.00425881	0.0100576	0.000128349	0.00018506	0	0	0	
0.052	-0.0123909	-0.000684184	0.000125095	0.000222897	0	0	0	
0.0521667	0.00844412	-0.00576101	0.000149303	0.000249684	0	0	0	
0.0523333	-0.00153278	0.00890506	0.000174203	0.00022282	0	0	0	
0.0525	0.0118495	-0.00741208	0.000176036	0.000179292	0	0	0	
0.0526667	-0.0159415	-0.00193289	0.000185081	0.000187901	0	0	0	
0.0528333	0.0110873	0.0135187	0.000222807	0.00023284	0	0	0	
0.053	-0.00866702	-0.01405	0.000264047	0.000262782	0	0	0	
0.0531667	0.00601232	0.0077482	0.000266679	0.000257678	0	0	0	
0.0533333	-0.00378784	-0.000169163	0.000237469	0.000235853	0	0	0	
0.0535	0.0103586	-0.0023237	0.000191703	0.000203435	0	0	0	
0.0536667	-0.0129174	0.00262893	0.000175702	0.00014805	0	0	0	
0.0538333	0.00592014	-0.00131843	0.000184588	8.67595E-05	0	0	0	
0.054	-0.00573966	-0.000869987	0.000189389	4.7914E-05	0	0	0	
0.0541667	0.0106829	0.00264429	0.000169097	3.22932E-05	0	0	0	
0.0543333	-0.00755678	-0.00281524	0.000168453	3.99744E-05	0	0	0	
0.0545	-0.00422651	0.00499597	0.000185805	5.61177E-05	0	0	0	
0.0546667	-0.0030762	-0.00574258	0.000188782	7.79279E-05	0	0	0	
0.0548333	0.0230748	0.00156435	0.000252173	8.99655E-05	0	0	0	
0.055	-0.0192207	0.00353201	0.000308694	9.26754E-05	0	0	0	
0.0551667	0.00344888	-0.00182253	0.000454449	7.76571E-05	0	0	0	
0.0553333	0.0013616	-0.00206516	0.00040634	8.76277E-05	0	0	0	
0.0555	0.00621942	0.004616	0.000320313	8.56548E-05	0	0	0	
0.0556667	-0.00425495	-0.00406857	0.000149684	9.62315E-05	0	0	0	
0.0558333	0.00184738	0.00427446	0.000106615	8.05594E-05	0	0	0	
0.056	-0.0132415	-0.00246841	0.00013458	7.53216E-05	0	0	0	
0.0561667	0.0254962	-0.00146772	0.00021081	8.53676E-05	0	0	0	
0.0563333	-0.0103654	0.00430748	0.000326714	8.77306E-05	0	0	0	
0.0565	-0.00243259	-0.00178813	0.000352814	8.65233E-05	0	0	0	
0.0566667	-0.00666397	-0.00214624	0.000292603	6.67978E-05	0	0	0	
0.0568333	0.0155111	0.00245462	0.000214947	5.61103E-05	0	0	0	
0.057	-0.0104964	-0.00246143	0.000210031	5.43075E-05	0	0	0	
0.0571667	0.00810634	0.00299128	0.000240863	5.67706E-05	0	0	0	
0.0573333	-0.0094491	-0.00368376	0.000239389	6.6851E-05	0	0	0	
0.0575	0.00397639	0.00403739	0.000223762	7.3509E-05	0	0	0	
0.0576667	-0.000210554	-0.00418412	0.000165012	7.56029E-05	0	0	0	
0.0578333	0.00736879	0.00278654	0.000161486	8.41629E-05	0	0	0	
0.058	-0.012234	0.00030548	0.000154033	9.31486E-05	0	0	0	
0.0581667	0.0122621	-0.000975286	0.000211004	9.09374E-05	0	0	0	
0.0583333	-0.0173623	2.99953E-05	0.000235847	6.27886E-05	0	0	0	
0.0585	0.0152503	0.000978323	0.000273053	3.10954E-05	0	0	0	
0.0586667	-0.0047413	-0.00142918	0.000267206	1.89792E-05	0	0	0	
0.0588333	-0.000410852	0.000745444	0.00023051	2.18454E-05	0	0	0	
0.059	0.00112477	-0.00025195	0.000156532	2.52705E-05	0	0	0	
0.0591667	0.00423429	0.00105892	0.000131799	2.0277E-05	0	0	0	
0.0593333	-0.0212279	-0.000391076	0.000249539	2.96503E-05	0	0	0	
0.0595	0.0258725	-0.000264725	0.000430569	6.23834E-05	0	0	0	
0.0596667	-0.016952	-0.00189513	0.000502713	8.80632E-05	0	0	0	
0.0598333	0.000850213	0.00454446	0.00043141	9.53538E-05	0	0	0	
0.06	0.00130517	-0.00351118	0.000232693	9.207E-05	0	0	0	
0.0601667	0.00669043	-0.000228162	0.000167287	0.000105705	0	0	0	
0.0603333	-0.00505108	0.00069147	0.000118739	0.000102	0	0	0	
0.0605	-0.00208345	0.00387994	0.000185523	8.18257E-05	0	0	0	
0.0606667	-0.0105785	-0.00575951	0.000241044	7.7028E-05	0	0	0	
0.0608333	0.0124923	0.00448128	0.000253219	9.63288E-05	0	0	0	
0.061	0.00462389	-0.00430665	0.000283543	0.00011286	0	0	0	
0.0611667	-0.00446796	0.00280541	0.000210246	9.88882E-05	0	0	0	
0.0613333	-0.0143035	0.00231499	0.000231567	9.84524E-05	0	0	0	
0.0615	0.017876	-0.00493606	0.000207891	8.83314E-05	0	0	0	
0.0616667	1.56892E-05	-0.00156181	0.000302527	0.000112978	0	0	0	
0.0618333	-0.00210812	0.0102529	0.000272599	0.000138153	0	0	0	
0.062	-0.00379704	-0.0130786	0.000265232	0.000183955	0	0	0	
0.0621667	0.00179721	0.0105662	0.000224716	0.000214861	0	0	0	
0.0623333	0.00279338	-0.00632442	0.000209793	0.000232278	0	0	0	
0.0625	0.00826126	-0.00168769	0.000155044	0.000247454	0	0	0	
0.0626667	-0.0122282	0.00490146	0.000144404	0.000214269	0	0	0	
0.0628333	0.00516694	-0.00127596	0.00018671	0.00015521	0	0	0	
0.063	0.00277895	-0.00359825	0.000248263	0.000134162	0	0	0	
0.0631667	-0.00894459	0.00637424	0.000209563	0.000130874	0	0	0	
0.0633333	0.0132697	-0.00485633	0.000217354	0.000145784	0	0	0	
0.0635	-0.0056307	0.00915056	0.000235826	0.000143833	0	0	0	
0.0636667	-0.00508631	-0.011978	0.000237068	0.000160927	0	0	0	
0.0638333	0.00377027	0.00734601	0.000166431	0.000193767	0	0	0	
0.064	-0.00387901	0.00256432	9.33001E-05	0.000218048	0	0	0	
0.0641667	0.013631	-0.00603556	0.000124781	0.000213794	0	0	0	
0.0643333	-0.019322	0.00689433	0.000206054	0.000178957	0	0	0	
0.0645	0.014107	-0.00506311	0.000306443	0.000132395	0	0	0	
0.0646667	-0.00754432	0.000527111	0.000360985	0.000132082	0	0	0	
0.0648333	0.00127816	0.00848824	0.000346815	0.000168001	0	0	0	
0.065	0.00693559	-0.0135968	0.000294334	0.000194084	0	0	0	
0.0651667	0.0106199	0.0029556	0.000298273	0.000229308	0	0	0	
0.0653333	-0.0679061	0.0208715	0.000615179	0.000312032	0	0	0	
0.0655	0.0466341	-0.02683	0.00098241	0.000404881	0	0	0	
0.0656667	-0.0321464	0.0105198	0.00111627	0.000438891	0	0	0	
0.0658333	0.017869	0.00883601	0.000912151	0.000373939	0	0	0	
0.066	-0.022177	-0.0130859	0.000647029	0.000284539	0	0	0	
0.0661667	0.00118792	0.0104526	0.000453903	0.000238228	0	0	0	
0.0663333	0.00376232	-0.00296535	0.000355235	0.00022259	0	0	0	
0.0665	0.00210931	-0.00752833	0.000562493	0.000286705	0	0	0	
0.0666667	-0.0186805	0.0119113	0.000750276	0.000333528	0	0	0	
0.0668333	-0.00875565	-0.00513159	0.000766015	0.000309608	0	0	0	
0.067	0.00543158	-0.00527315	0.000531591	0.000237005	0	0	0	
0.0671667	0.0134004	0.00933843	0.000442036	0.000177861	0	0	0	
0.0673333	-0.0187743	-0.00672934	0.00042865	0.000172025	0	0	0	
0.0675	0.0221082	-0.000244622	0.000400988	0.000144567	0	0	0	
0.0676667	-0.0209002	0.00132706	0.00037663	8.23802E-05	0	0	0	
0.0678333	0.0050641	0.00298688	0.000416539	6.91802E-05	0	0	0	
0.068	0.00315732	-0.00569716	0.000386825	6.64795E-05	0	0	0	
0.0681667	0.00477921	0.00293133	0.000281969	9.49614E-05	0	0	0	
0.0683333	-0.0153303	0.000234468	0.000244824	9.93788E-05	0	0	0	
0.0685	0.0178068	-0.000630565	0.000251583	8.42399E-05	0	0	0	
0.0686667	-0.00854792	-0.0019821	0.000294844	6.36728E-05	0	0	0	
0.0688333	0.00807265	0.00345041	0.000248544	4.28983E-05	0	0	0	
0.069	-0.0181176	-0.00221918	0.000244457	5.15102E-05	0	0	0	
0.0691667	0.0237388	-0.000316669	0.000286831	6.0694E-05	0	0	0	
0.0693333	-0.0132988	-0.000194032	0.000361022	4.84351E-05	0	0	0	
0.0695	0.00840848	0.00136438	0.000362752	3.26723E-05	0	0	0	
0.0696667	-0.0128528	-0.000151666	0.00031334	1.81232E-05	0	0	0	
0.0698333	0.0105961	-0.00047859	0.000260188	1.58802E-05	0	0	0	
0.07	0.00253737	-0.00274811	0.000244043	3.04841E-05	0	0	0	
0.0701667	-0.00354524	0.00622349	0.000181387	5.30147E-05	0	0	0	
0.0703333	-0.00995298	-0.00554967	0.000189224	8.796E-05	0	0	0	
0.0705	0.0213563	0.00134977	0.000220218	0.000109754	0	0	0	
0.0706667	-0.0187833	0.00224008	0.000324299	0.000117924	0	0	0	
0.0708333	0.00918673	-0.00228474	0.000336846	9.88454E-05	0	0	0	
0.071	-0.00801554	-0.000605225	0.000287457	7.17413E-05	0	0	0	
0.0711667	0.0114782	0.00363522	0.000227528	5.05292E-05	0	0	0	
0.0713333	-0.00840889	-0.00276758	0.000195039	5.18718E-05	0	0	0	
0.0715	0.0010348	0.00146473	0.000177968	5.42191E-05	0	0	0	
0.0716667	-0.0113877	-0.00185392	0.000170801	4.81041E-05	0	0	0	
0.0718333	0.0238129	0.00146882	0.000210871	3.88116E-05	0	0	0	
0.072	-0.0115927	4.52977E-05	0.000296659	2.91937E-05	0	0	0	
0.0721667	-0.00508572	0.00175285	0.000374868	3.00284E-05	0	0	0	
0.0723333	-0.00333246	-0.00421934	0.000295293	4.11628E-05	0	0	0	
0.0725	0.0181049	0.0028311	0.000270076	5.63508E-05	0	0	0	
0.0726667	-0.0128767	-0.00021828	0.000231415	6.13081E-05	0	0	0	
0.0728333	0.00381543	0.00286522	0.000270201	5.54486E-05	0	0	0	
0.073	-0.0135266	-0.00599777	0.000225178	5.91672E-05	0	0	0	
0.0731667	0.0142344	0.00516158	0.000217636	8.94096E-05	0	0	0	
0.0733333	-0.00515199	0.00179699	0.000254886	0.000122434	0	0	0	
0.0735	0.00276918	-0.00261069	0.000238279	0.000114388	0	0	0	
0.0736667	-0.00711842	-0.000128933	0.000197948	8.33232E-05	0	0	0	
0.0738333	0.00423579	0.00140149	0.000127989	5.15932E-05	0	0	0	
0.074	-0.0100705	-0.00292781	0.000138566	5.21947E-05	0	0	0	
0.0741667	0.0218403	0.00635189	0.000200255	6.81296E-05	0	0	0	
0.0743333	-0.0130988	-0.00698683	0.000282022	9.73328E-05	0	0	0	
0.0745	-0.000341263	0.00398473	0.00031796	0.000114547	0	0	0	
0.0746667	-0.0112971	-0.000425237	0.000271234	0.000119395	0	0	0	
0.0748333	0.0220642	7.70056E-05	0.000255109	8.65923E-05	0	0	0	
0.075	-0.00580058	-0.0023276	0.000278792	5.94994E-05	0	0	0	
0.0751667	7.15294E-05	0.001982	0.000278454	3.84484E-05	0	0	0	
0.0753333	-0.00921281	-0.00174511	0.000244692	4.609E-05	0	0	0	
0.0755	0.0135586	0.00233166	0.000193964	5.58495E-05	0	0	0	
0.0756667	-0.00260024	-0.00162971	0.00022047	6.06305E-05	0	0	0	
0.0758333	0.000328482	-0.0010064	0.000168165	6.52124E-05	0	0	0	
0.076	-0.0142894	0.00222485	0.00023312	5.95795E-05	0	0	0	
0.0761667	0.0207685	-0.00178957	0.00027267	5.63417E-05	0	0	0	
0.0763333	-0.0113155	-0.00265266	0.0003564	6.222E-05	0	0	0	
0.0765	0.000820082	0.00852239	0.000337739	9.30934E-05	0	0	0	
0.0766667	0.00336525	-0.00753127	0.000277908	0.000122284	0	0	0	
0.0768333	-0.00264787	-0.00128904	0.00020817	0.000164197	0	0	0	
0.077	-0.00605963	0.00718922	0.000129732	0.000173359	0	0	0	
0.0771667	0.0147889	-0.00260972	0.000158157	0.000159939	0	0	0	
0.0773333	-0.0152759	-0.00293024	0.000224755	0.000128033	0	0	0	
0.0775	0.0164914	0.00444659	0.000292744	9.96698E-05	0	0	0	
0.0776667	-0.00787384	-0.00662967	0.000325228	0.000106615	0	0	0	
0.0778333	-0.0070021	0.00851605	0.00038557	0.000106977	0	0	0	
0.078	0.00928518	-0.00371948	0.000387596	0.000137376	0	0	0	
0.0781667	-0.00382084	-0.00289034	0.000301884	0.000162743	0	0	0	
0.0783333	-0.00493688	0.00489873	0.000219678	0.000153684	0	0	0	
0.0785	0.0111115	-0.00535001	0.000174679	0.000128272	0	0	0	
0.0786667	-0.0154239	0.00276119	0.00022054	0.000112795	0	0	0	
0.0788333	0.0174955	0.00449603	0.000240448	0.000172037	0	0	0	
0.079	-0.0153936	-0.0123603	0.000292932	0.00022805	0	0	0	
0.0791667	0.00525628	0.0128327	0.000319624	0.000250176	0	0	0	
0.0793333	0.000940449	-0.00993038	0.000315163	0.000238027	0	0	0	
0.0795	0.00517379	0.00494746	0.000239665	0.000228324	0	0	0	
0.0796667	-0.00743012	6.1344E-05	0.000179886	0.000242881	0	0	0	
0.0798333	0.00454122	-0.00737074	0.000126682	0.000254658	0	0	0	
0.08	-0.00419515	0.0125361	0.000123341	0.000254158	0	0	0	
0.0801667	0.00873427	-0.00916301	0.000126671	0.000227957	0	0	0	
0.0803333	-0.0116155	0.000194633	0.000141267	0.000218152	0	0	0	
0.0805	0.0028308	0.00881565	0.000188387	0.000232306	0	0	0	
0.0806667	0.00303563	-0.0146606	0.000175409	0.000250261	0	0	0	
0.0808333	0.00907261	0.0146105	0.000179068	0.000257193	0	0	0	
0.081	-0.0178076	-0.00724834	0.000188409	0.000260454	0	0	0	
0.0811667	0.00964523	-0.00331769	0.000239054	0.00030172	0	0	0	
0.0813333	0.000192102	0.0129298	0.0002621	0.000302803	0	0	0	
0.0815	0.00403366	-0.00695347	0.000193634	0.000267361	0	0	0	
0.0816667	-0.011606	-0.0108121	0.000151718	0.000267224	0	0	0	
0.0818333	0.00842532	0.0172415	0.000141886	0.000266959	0	0	0	
0.082	-0.000238652	-0.00615752	0.000201073	0.000311992	0	0	0	
0.0821667	-0.00352402	-0.00712947	0.000187706	0.000310049	0	0	0	
0.0823333	0.000696511	0.00945199	0.000131322	0.000281024	0	0	0	
0.0825	0.0021456	-0.0068985	8.51802E-05	0.00022545	0	0	0	
0.0826667	-0.00537744	0.000927144	8.31046E-05	0.000173237	0	0	0	
0.0828333	0.0113652	0.00995111	0.00012922	0.000225351	0	0	0	
0.083	-0.0207539	-0.0176315	0.00019224	0.000275666	0	0	0	
0.0831667	0.0188776	0.0114078	0.000276208	0.000299146	0	0	0	
0.0833333	-0.00520262	-0.00261617	0.000383018	0.000281017	0	0	0	
0.0835	-0.00831589	-0.00172601	0.000408694	0.000250367	0	0	0	
0.0836667	0.00134292	0.000962691	0.000319054	0.000194326	0	0	0	
0.0838333	0.00426845	-0.00137416	0.000162551	0.000112052	0	0	0	
0.084	0.00187837	0.000719836	7.91632E-05	5.03268E-05	0	0	0	
0.0841667	-0.00403548	0.000826549	6.58326E-05	3.06117E-05	0	0	0	
0.0843333	-0.0116894	-0.00372328	0.00017467	4.3537E-05	0	0	0	
0.0845	0.0270625	0.00659591	0.000290904	7.55432E-05	0	0	0	
0.0846667	-0.0313701	-0.00834342	0.0004393	0.000108451	0	0	0	
0.0848333	0.0253877	0.00727092	0.000542092	0.000133037	0	0	0	
0.085	-0.0354959	-0.00426985	0.000669684	0.000144156	0	0	0	
0.0851667	-0.00153111	-0.000428041	0.000616441	0.000147472	0	0	0	
0.0853333	0.00372383	0.000879282	0.000412632	0.000129858	0	0	0	
0.0855	-0.00374417	0.00152654	0.000180836	9.22223E-05	0	0	0	
0.0856667	-0.00642432	-0.00135574	0.000151248	5.66883E-05	0	0	0	
0.0858333	0.019435	-0.00255407	0.000249512	5.1904E-05	0	0	0	
0.086	-0.0349496	0.00405941	0.000367558	5.88679E-05	0	0	0	
0.0861667	0.0135335	-0.000343442	0.000523374	8.56398E-05	0	0	0	
0.0863333	-0.0132722	-0.00500443	0.000455724	0.000106255	0	0	0	
0.0865	0.00661838	0.00981932	0.000343048	0.000140902	0	0	0	
0.0866667	-0.000453315	-0.0122246	0.000192219	0.000169681	0	0	0	
0.0868333	-0.0012146	0.0105914	0.000197971	0.000192151	0	0	0	
0.087	-0.00627013	-0.00435418	0.000167399	0.000224793	0	0	0	
0.0871667	0.0089647	-0.00616978	0.000133362	0.00025483	0	0	0	
0.0873333	-0.0101229	0.0121378	0.000144462	0.000256738	0	0	0	
0.0875	0.0169185	-0.00815611	0.000211705	0.000230841	0	0	0	
0.0876667	-0.0194843	-0.00126649	0.000263772	0.000220514	0	0	0	
0.0878333	0.0109361	0.00714912	0.000317138	0.000223846	0	0	0	
0.088	-0.00869832	-0.00627034	0.000297186	0.000205121	0	0	0	
0.0881667	0.0129974	0.00366326	0.00026088	0.000147912	0	0	0	
0.0883333	-0.011793	-0.00357066	0.000221384	9.41513E-05	0	0	0	
0.0885	0.0118882	0.00443939	0.000227467	7.96943E-05	0	0	0	
0.0886667	-0.00922163	-0.00297328	0.000222899	7.64326E-05	0	0	0	
0.0888333	0.00833048	0.000665101	0.000224189	8.21022E-05	0	0	0	
0.089	-0.00771486	0.000896807	0.000204858	8.03938E-05	0	0	0	
0.0891667	0.0109715	-0.00208744	0.000196413	5.96074E-05	0	0	0	
0.0893333	-0.00905594	-0.000240756	0.000192148	4.78824E-05	0	0	0	
0.0895	0.00170119	0.00182849	0.000193749	5.09311E-05	0	0	0	
0.0896667	-0.000320432	-0.00404804	0.000147567	7.13686E-05	0	0	0	
0.0898333	0.010776	0.00634618	0.000149522	8.63828E-05	0	0	0	
0.09	-0.0158092	-0.00573144	0.000194088	0.000101203	0	0	0	
0.0901667	0.0122486	1.35515E-05	0.000267701	0.000152514	0	0	0	
0.0903333	-0.00395	0.00853592	0.000272992	0.000205799	0	0	0	
0.0905	0.00647413	-0.0102944	0.000210956	0.000217085	0	0	0	
0.0906667	-0.009411	0.00343272	0.000173	0.000199052	0	0	0	
0.0908333	0.000518589	0.00496351	0.000154664	0.000181369	0	0	0	
0.091	0.00580176	-0.00794542	0.000128356	0.000167957	0	0	0	
0.0911667	0.0172085	0.00629398	0.000221359	0.00015633	0	0	0	
0.0913333	-0.0168662	-0.00174989	0.000320355	0.000133077	0	0	0	
0.0915	0.00981998	0.000424549	0.000385439	0.000110311	0	0	0	
0.0916667	0.000850913	-0.00136672	0.000301111	6.65644E-05	0	0	0	
0.0918333	0.0151151	0.000334641	0.000201191	4.06562E-05	0	0	0	
0.092	-0.0182733	0.0020774	0.000207914	5.24401E-05	0	0	0	
0.0921667	-0.00105578	-0.00308787	0.000273913	6.36434E-05	0	0	0	
0.0923333	0.0209789	0.00304106	0.000262158	6.51898E-05	0	0	0	
0.0925	-0.00501225	-0.00348021	0.000388388	5.77612E-05	0	0	0	
0.0926667	-0.0178468	0.00190701	0.000397329	6.86989E-05	0	0	0	
0.0928333	0.0118322	0.00329593	0.000466949	8.98141E-05	0	0	0	
0.093	-0.00313347	-0.0060708	0.000345527	9.93178E-05	0	0	0	
0.0931667	0.0107169	0.00292987	0.00026481	0.000105033	0	0	0	
0.0933333	-0.00987334	0.00272546	0.000208488	0.000102894	0	0	0	
0.0935	-0.00352952	-0.00326218	0.000196047	8.75234E-05	0	0	0	
0.0936667	-0.00439065	-0.00155801	0.000183357	8.73097E-05	0	0	0	
0.0938333	0.0146841	0.00564106	0.000190147	7.62031E-05	0	0	0	
0.094	-0.0104573	-0.00433257	0.000214924	9.21625E-05	0	0	0	
0.0941667	-0.0010009	0.000736663	0.000254625	9.75703E-05	0	0	0	
0.0943333	-0.00139144	0.00174147	0.000197792	9.51878E-05	0	0	0	
0.0945	0.00523226	-0.000430712	0.00013309	6.96121E-05	0	0	0	
0.0946667	-0.0056767	-0.00175896	9.05525E-05	4.76854E-05	0	0	0	
0.0948333	0.00707378	0.00205698	0.000128897	3.38866E-05	0	0	0	
0.095	-0.0117087	-0.000691152	0.000150535	3.88285E-05	0	0	0	
0.0951667	0.0128819	0.000797628	0.000201622	2.89944E-05	0	0	0	
0.0953333	-0.0143162	-0.00221951	0.00024174	3.66323E-05	0	0	0	
0.0955	0.0176393	0.00370507	0.000272726	5.27232E-05	0	0	0	
0.0956667	-0.00928608	-0.00523281	0.000301218	7.71541E-05	0	0	0	
0.0958333	-0.00168418	0.00649573	0.000307371	9.284E-05	0	0	0	
0.096	-0.00455231	-0.00454783	0.000238377	0.000104715	0	0	0	
0.0961667	0.0150318	-8.49153E-05	0.000209231	0.000116877	0	0	0	
0.0963333	-0.0123347	0.00238101	0.000189993	0.000106454	0	0	0	
0.0965	0.00400818	0.00107913	0.000219996	8.7113E-05	0	0	0	
0.0966667	-0.00263214	-0.00589994	0.000170279	7.50547E-05	0	0	0	
0.0968333	0.00130522	0.0053084	0.000107917	8.50516E-05	0	0	0	
0.097	-0.00212398	0.00148896	6.88412E-05	0.000113804	0	0	0	
0.0971667	0.00276586	-0.00588426	8.69399E-05	0.000108843	0	0	0	
0.0973333	-0.0163029	0.001475	0.000194917	0.000120256	0	0	0	
0.0975	0.0345635	0.00784342	0.000345348	0.000152885	0	0	0	
0.0976667	-0.0270461	-0.0127398	0.000489049	0.00019763	0	0	0	
0.0978333	-0.00350421	0.00974043	0.000633608	0.000221085	0	0	0	
0.098	0.0146675	-0.00149004	0.000636494	0.000217463	0	0	0	
0.0981667	-0.00420272	-0.00517326	0.000493114	0.000210585	0	0	0	
0.0983333	-0.00732129	0.00487362	0.000300147	0.000167972	0	0	0	
0.0985	0.0062187	0.00142532	0.000184576	0.000133167	0	0	0	
0.0986667	-0.00905674	-0.00631735	0.000204044	9.72563E-05	0	0	0	
0.0988333	0.016034	0.00265113	0.000207546	0.000106167	0	0	0	
0.099	-0.0142845	0.00230053	0.000259177	0.000118041	0	0	0	
0.0991667	8.76337E-05	-0.00526272	0.00028222	0.000121778	0	0	0	
0.0993333	-0.00508051	0.00563416	0.00022537	0.000119452	0	0	0	
0.0995	0.00954569	-0.000438286	0.000199322	0.000111144	0	0	0	
0.0996667	-0.00258562	-0.00926013	0.000143371	0.000138976	0	0	0	
0.0998333	0.00294868	0.011794	0.000139601	0.000166158	0	0	0	
0.1	-0.0129383	-0.00546405	0.000117989	0.000203515	0	0	0	
0.100167	0.00822331	-0.00474877	0.000146753	0.000240873	0	0	0	
0.100333	-0.00354007	0.00881575	0.000163087	0.000237959	0	0	0	
0.1005	0.0132864	-0.00557251	0.000206484	0.000197109	0	0	0	
0.100667	-0.0211194	0.000159762	0.00024955	0.000135393	0	0	0	
0.100833	0.0063323	0.00394958	0.000321225	0.000124484	0	0	0	
0.101	0.00481303	-0.00804788	0.000306251	0.000126584	0	0	0	
0.101167	0.00249555	0.00774218	0.000225038	0.000135789	0	0	0	
0.101333	-0.00702347	-0.00297334	0.00014479	0.000147101	0	0	0	
0.1015	0.00193203	-0.00392912	0.000100231	0.000171936	0	0	0	
0.101667	0.000211492	0.00716304	8.41607E-05	0.000172422	0	0	0	
0.101833	0.00810333	-0.0033592	0.000146646	0.000147923	0	0	0	
0.102	-0.0200368	-0.00348102	0.000215364	0.000136765	0	0	0	
0.102167	0.0217277	0.00799341	0.000330815	0.000131303	0	0	0	
0.102333	-0.00868686	-0.00463664	0.000370831	0.000142287	0	0	0	
0.1025	0.00305718	-0.000619007	0.000342353	0.000124074	0	0	0	
0.102667	-0.00389941	-0.00190839	0.000246729	9.20832E-05	0	0	0	
0.102833	-0.000146387	0.00802256	0.000156354	8.46883E-05	0	0	0	
0.103	0.00215706	-0.00654775	0.0001038	8.9695E-05	0	0	0	
0.103167	0.00881129	-0.00154698	0.000123483	0.000163395	0	0	0	
0.103333	-0.0167613	0.00861999	0.000187015	0.000191601	0	0	0	
0.1035	0.0193185	-0.00671781	0.000263506	0.000189757	0	0	0	
0.103667	-0.0187901	-0.000490823	0.000333007	0.000169055	0	0	0	
0.103833	0.0141233	0.00741977	0.000340427	0.000168406	0	0	0	
0.104	-0.00946267	-0.010292	0.000336099	0.000180682	0	0	0	
0.104167	0.0088507	0.00861402	0.000288121	0.000180206	0	0	0	
0.104333	-0.00449304	-0.00216354	0.000243041	0.000184123	0	0	0	
0.1045	-0.00570275	-0.00225315	0.000225355	0.00018163	0	0	0	
0.104667	0.00175649	0.00138445	0.000167921	0.000131233	0	0	0	
0.104833	0.016378	0.00253498	0.000230947	8.0406E-05	0	0	0	
0.105	-0.023951	-0.00303092	0.000285927	4.48516E-05	0	0	0	
0.105167	0.0155218	-4.73157E-05	0.000388427	5.4773E-05	0	0	0	
0.105333	-0.0110461	0.000641727	0.000349014	4.06813E-05	0	0	0	
0.1055	0.0174555	0.00167579	0.000297189	5.07613E-05	0	0	0	
0.105667	-0.0169388	-0.00645449	0.000294796	7.39452E-05	0	0	0	
0.105833	0.00837019	0.00932607	0.000340324	0.000119558	0	0	0	
0.106	-0.000782527	-0.00545529	0.000373077	0.000144068	0	0	0	
0.106167	-0.00133321	-0.00248113	0.000309796	0.000173463	0	0	0	
0.106333	-0.00371362	0.00658188	0.000193699	0.000165329	0	0	0	
0.1065	0.00314741	-0.000983291	9.94009E-05	0.000147987	0	0	0	
0.106667	-0.0021904	-0.00561681	6.87459E-05	0.000124834	0	0	0	
0.106833	0.0117296	0.00539384	0.000126152	0.000116546	0	0	0	
0.107	-0.0202312	0.000482176	0.000212769	0.000117491	0	0	0	
0.107167	0.0171205	-0.00251279	0.000303786	8.54599E-05	0	0	0	
0.107333	-0.0135246	-0.000953186	0.000327519	8.00122E-05	0	0	0	
0.1075	0.0128539	0.00643962	0.000306472	8.53639E-05	0	0	0	
0.107667	-0.00918542	-0.00843737	0.000281404	0.000110688	0	0	0	
0.107833	0.00479021	0.0045099	0.000246686	0.000137365	0	0	0	
0.108	-0.00704981	0.000891717	0.000198087	0.000154144	0	0	0	
0.108167	0.00566074	-0.00311302	0.000152403	0.000141909	0	0	0	
0.108333	0.00215946	0.000700128	0.000147517	9.9677E-05	0	0	0	
0.1085	0.00157397	0.000873029	0.000117569	4.80055E-05	0	0	0	
0.108667	-0.00824666	-0.000716125	0.000116922	2.25272E-05	0	0	0	
0.108833	0.00416355	0.00123667	9.713E-05	2.21267E-05	0	0	0	
0.109	-0.00406786	-0.00198213	0.000121582	3.15103E-05	0	0	0	
0.109167	0.0176242	0.00186578	0.000174159	4.4986E-05	0	0	0	
0.109333	-0.0239669	-0.00478724	0.000258496	6.29753E-05	0	0	0	
0.1095	0.0125753	0.0103525	0.000371765	9.99251E-05	0	0	0	
0.109667	-0.000860665	-0.0100596	0.000414222	0.000142592	0	0	0	
0.109833	-0.000758652	0.00176119	0.000344694	0.000183847	0	0	0	
0.11	-0.00132755	0.0058486	0.000206349	0.000203934	0	0	0	
0.110167	0.00675852	-0.00915275	8.65297E-05	0.000190784	0	0	0	
0.110333	-0.0126631	0.00837261	8.97805E-05	0.000178155	0	0	0	
0.1105	0.014691	-0.00209269	0.00018346	0.000174898	0	0	0	
0.110667	-0.0121504	-0.00534176	0.000269581	0.000213597	0	0	0	
0.110833	0.00981786	0.00985885	0.000287498	0.000219585	0	0	0	
0.111	-0.010912	-0.0083111	0.000240158	0.000203581	0	0	0	
0.111167	0.0192594	-7.09722E-05	0.000226855	0.000177024	0	0	0	
0.111333	-0.0290201	0.00602234	0.000310158	0.000154766	0	0	0	
0.1115	0.0288062	-0.00271667	0.000527035	0.000126513	0	0	0	
0.111667	0.00507754	0.00144421	0.000647019	9.32732E-05	0	0	0	
0.111833	-0.00643517	-0.00278768	0.000516156	7.20124E-05	0	0	0	
0.112	-0.0139102	0.00209007	0.00036364	6.19852E-05	0	0	0	
0.112167	0.0205887	0.00388052	0.00026891	7.93886E-05	0	0	0	
0.112333	-0.0188789	-0.00217966	0.000358256	8.34343E-05	0	0	0	
0.1125	0.0324842	-0.00170529	0.000389234	8.37394E-05	0	0	0	
0.112667	-0.0221947	-0.00226175	0.000460187	6.18021E-05	0	0	0	
0.112833	0.00540586	0.0105221	0.000508605	7.06532E-05	0	0	0	
0.113	-0.00419062	-0.00219763	0.00043009	0.000139139	0	0	0	
0.113167	0.0103878	-0.00983908	0.000345502	0.000233216	0	0	0	
0.113333	-0.00826254	0.00967504	0.000239386	0.00025873	0	0	0	
0.1135	0.00637116	-0.00325957	0.000214616	0.000240297	0	0	0	
0.113667	-0.00858835	-0.006877	0.000168497	0.000199136	0	0	0	
0.113833	0.00650201	0.0114989	0.000166617	0.000211862	0	0	0	
0.114	-0.0094131	-0.0119941	0.000188065	0.000221949	0	0	0	
0.114167	0.009242	0.0082573	0.000197618	0.000204648	0	0	0	
0.114333	-0.00576506	-0.00508488	0.000181019	0.000215801	0	0	0	
0.1145	0.00249979	-0.00333006	0.000180945	0.000209927	0	0	0	
0.114667	-0.00717432	0.0049548	0.000154658	0.000191351	0	0	0	
0.114833	0.00960063	-0.00207878	0.000159411	0.000130309	0	0	0	
0.115	-0.00196179	-0.0029137	0.000150371	9.90062E-05	0	0	0	
0.115167	0.00462391	0.00345642	0.000149659	8.0299E-05	0	0	0	
0.115333	-0.0221375	0.0019082	0.000231667	8.37917E-05	0	0	0	
0.1155	0.0204325	-0.000964506	0.000290962	6.33219E-05	0	0	0	
0.115667	-0.00128174	-0.0113914	0.000417424	0.000132418	0	0	0	
0.115833	-0.0159384	0.0151984	0.000366499	0.000204239	0	0	0	
0.116	0.00452978	-0.0128632	0.000339484	0.000284979	0	0	0	
0.116167	0.00840234	-0.0037354	0.000221792	0.000297148	0	0	0	
0.116333	-0.00810637	0.00887499	0.000201934	0.000265058	0	0	0	
0.1165	0.0131787	-0.0059904	0.000187851	0.000204788	0	0	0	
0.116667	-0.0182139	0.00363735	0.000224959	0.000156699	0	0	0	
0.116833	-0.00369179	0.00684876	0.000338426	0.000204276	0	0	0	
0.117	0.0211664	-0.0208811	0.000437034	0.000282486	0	0	0	
0.117167	0.00235666	0.0185596	0.000398655	0.000356555	0	0	0	
0.117333	-0.021868	0.000544119	0.000358713	0.000379786	0	0	0	
0.1175	0.0222964	-0.0103969	0.000320801	0.000390189	0	0	0	
0.117667	-0.0179032	0.0100685	0.00039574	0.000318755	0	0	0	
0.117833	0.0146773	-0.00168649	0.000378917	0.000246989	0	0	0	
0.118	-0.00562846	-0.00608313	0.000374384	0.000190869	0	0	0	
0.118167	-0.000127628	0.007878	0.000325751	0.000187871	0	0	0	
0.118333	-0.00514667	-0.00521398	0.000240396	0.000163303	0	0	0	
0.1185	0.0107723	0.003418	0.000152855	0.00011845	0	0	0	
0.118667	-0.00662483	-0.0047601	0.000143224	9.23605E-05	0	0	0	
0.118833	0.00235193	0.00431229	0.000145784	9.12913E-05	0	0	0	
0.119	-0.00631619	-0.000569628	0.000167342	0.000118127	0	0	0	
0.119167	0.0181391	-0.00537638	0.000227	0.000150021	0	0	0	
0.119333	-0.0248675	0.00864496	0.00032301	0.000156781	0	0	0	
0.1195	0.0179799	-0.00434494	0.000388459	0.000155032	0	0	0	
0.119667	-0.00538206	-0.00637422	0.000410084	0.000183838	0	0	0	
0.119833	-0.00034555	0.013154	0.000384938	0.000225229	0	0	0	
0.12	0.011339	-0.0132228	0.000298197	0.00024742	0	0	0	
0.120167	-0.00879587	0.00879531	0.000217411	0.000239867	0	0	0	
0.120333	-0.00773738	0.000843209	0.000215474	0.000237138	0	0	0	
0.1205	0.0202155	-0.00872653	0.000258598	0.000237462	0	0	0	
0.120667	-0.0137642	0.00585475	0.000310394	0.000198812	0	0	0	
0.120833	0.00175148	0.00579699	0.000330333	0.000214882	0	0	0	
0.121	0.0139978	-0.0110678	0.000313621	0.000224015	0	0	0	
0.121167	-0.00500987	0.00913456	0.00025656	0.000242228	0	0	0	
0.121333	-0.0136379	0.000433044	0.000240538	0.00018714	0	0	0	
0.1215	0.0203524	-0.00181138	0.000269511	0.000128413	0	0	0	
0.121667	-0.00732806	0.000720049	0.000320174	8.62646E-05	0	0	0	
0.121833	-0.00254109	0.00475139	0.000324101	9.20723E-05	0	0	0	
0.122	0.0079946	-0.00957111	0.000287784	0.000125163	0	0	0	
0.122167	-0.00423453	0.00899828	0.00021697	0.000160522	0	0	0	
0.122333	-0.0100197	-0.00240732	0.000232934	0.000169566	0	0	0	
0.1225	0.0185721	-0.00432031	0.000257744	0.000163912	0	0	0	
0.122667	-0.00634294	0.00412641	0.000333767	0.00013187	0	0	0	
0.122833	-0.00283333	-0.000282961	0.000318852	0.000111222	0	0	0	
0.123	-0.00221762	-0.00318666	0.000238692	0.000100201	0	0	0	
0.123167	0.0103496	0.00496789	0.000172636	0.000114832	0	0	0	
0.123333	-0.00700763	-0.00620276	0.000119338	0.000110113	0	0	0	
0.1235	0.0100901	0.0038818	0.000157879	0.00010348	0	0	0	
0.123667	-0.00737857	-0.00101547	0.000169176	0.000101406	0	0	0	
0.123833	0.00242624	0.00238845	0.00015218	8.5083E-05	0	0	0	
0.124	-0.00134466	-0.0046765	0.000155293	7.36895E-05	0	0	0	
0.124167	0.0055068	0.00324121	0.000175258	7.52644E-05	0	0	0	
0.124333	-0.0118729	0.00202753	0.000196571	9.20222E-05	0	0	0	
0.1245	0.0160216	-0.00161273	0.000225782	8.15235E-05	0	0	0	
0.124667	-0.0116936	-0.00252329	0.000239236	6.94871E-05	0	0	0	
0.124833	0.00738129	0.0042448	0.000254126	5.97456E-05	0	0	0	
0.125	-0.00623308	-0.00326809	0.000233477	7.6336E-05	0	0	0	
0.125167	0.00940036	0.00191222	0.000237124	9.02439E-05	0	0	0	
0.125333	-0.0019614	-0.00349213	0.000223649	0.000110622	0	0	0	
0.1255	0.0111642	0.0046683	0.000210144	9.94114E-05	0	0	0	
0.125667	-0.0193446	-0.00296891	0.000227495	0.000109264	0	0	0	
0.125833	0.0173954	-0.00210013	0.000277776	0.000111348	0	0	0	
0.126	-0.0180658	0.00165018	0.000333016	0.000107772	0	0	0	
0.126167	0.0230627	0.000952559	0.000344179	8.64765E-05	0	0	0	
0.126333	-0.0162424	-0.00152902	0.000381971	5.25618E-05	0	0	0	
0.1265	0.00990581	0.00153127	0.000348635	6.58164E-05	0	0	0	
0.126667	-0.00751194	-0.00148024	0.000285125	7.32263E-05	0	0	0	
0.126833	0.00552188	0.00160741	0.000188281	8.35979E-05	0	0	0	
0.127	-0.0124364	0.000349714	0.000177177	7.54454E-05	0	0	0	
0.127167	0.0117369	-3.22538E-05	0.000191846	5.07014E-05	0	0	0	
0.127333	-0.00217293	-0.00238575	0.000192041	4.73459E-05	0	0	0	
0.1275	0.00278781	0.00541923	0.000150806	6.00993E-05	0	0	0	
0.127667	-0.0159367	-0.00462111	0.000138557	8.01462E-05	0	0	0	
0.127833	0.0172931	0.00172739	0.00019031	8.87964E-05	0	0	0	
0.128	-0.00639248	-0.000992436	0.000275535	7.50664E-05	0	0	0	
0.128167	-0.00421709	0.00339485	0.000285743	6.16073E-05	0	0	0	
0.128333	-0.000762831	-0.00347659	0.000202193	5.67667E-05	0	0	0	
0.1285	0.014282	-0.000246381	0.000181053	6.71502E-05	0	0	0	
0.128667	-0.0196993	0.00247756	0.000225011	5.82744E-05	0	0	0	
0.128833	0.0150506	0.00192583	0.000309363	6.39393E-05	0	0	0	
0.129	-0.00870768	-0.00179908	0.000386377	6.65767E-05	0	0	0	
0.129167	-0.00453234	0.00375659	0.000402821	8.10779E-05	0	0	0	
0.129333	0.00370592	-0.00695058	0.000328282	8.95361E-05	0	0	0	
0.1295	0.00990255	0.00487188	0.000256067	9.51973E-05	0	0	0	
0.129667	-0.018255	0.00208585	0.000231617	0.000120495	0	0	0	
0.129833	0.0135184	-0.00370917	0.000272431	0.000106328	0	0	0	
0.13	-0.0195145	-0.000148467	0.000324673	9.38622E-05	0	0	0	
0.130167	0.00527476	0.00216953	0.000340724	7.36401E-05	0	0	0	
0.130333	0.00640137	-0.00543557	0.000342436	7.63283E-05	0	0	0	
0.1305	0.000286102	0.00348973	0.000260122	7.9262E-05	0	0	0	
0.130667	-0.0168988	-0.000665062	0.00026429	7.41869E-05	0	0	0	
0.130833	0.020591	-0.000265808	0.000299942	5.57867E-05	0	0	0	
0.131	-0.014895	-0.00108172	0.000366913	4.40638E-05	0	0	0	
0.131167	0.0094967	0.00334978	0.000355192	4.92467E-05	0	0	0	
0.131333	-0.00339116	-0.00530434	0.00034158	7.62109E-05	0	0	0	
0.1315	-0.000662891	0.0077006	0.000266536	0.000100778	0	0	0	
0.131667	-0.00627188	-0.00617401	0.000194636	0.000119154	0	0	0	
0.131833	0.0138568	0.000970362	0.000182912	0.000139123	0	0	0	
0.132	-0.0147641	0.00467298	0.000215728	0.000142454	0	0	0	
0.132167	0.0128005	-0.00493256	0.000261731	0.000128963	0	0	0	
0.132333	-0.00650658	-0.0016904	0.00024414	0.000130684	0	0	0	
0.1325	0.00526705	0.00779682	0.000208436	0.000146383	0	0	0	
0.132667	-0.00987543	-0.0088842	0.000173762	0.000162776	0	0	0	
0.132833	0.0123005	0.00536576	0.000180587	0.000161534	0	0	0	
0.133	-0.00806229	0.000523673	0.000198829	0.000158352	0	0	0	
0.133167	0.00391853	-0.00560547	0.00019525	0.000149361	0	0	0	
0.133333	-0.00208529	0.00443602	0.000137809	0.00011975	0	0	0	
0.1335	0.00216884	0.000318828	9.99903E-05	0.000117311	0	0	0	
0.133667	-0.00294138	-0.00574136	6.71458E-05	0.000144555	0	0	0	
0.133833	0.0101703	0.00914901	9.38108E-05	0.000176954	0	0	0	
0.134	-0.0128597	-0.0087297	0.000135705	0.000177934	0	0	0	
0.134167	0.00682264	0.00493324	0.000179931	0.000161655	0	0	0	
0.134333	-0.00839044	0.000701354	0.00018027	0.000155686	0	0	0	
0.1345	0.0140858	-0.00260173	0.000181958	0.000121498	0	0	0	
0.134667	-0.00628759	-0.000286393	0.000204192	8.72549E-05	0	0	0	
0.134833	-9.05549E-05	0.000603945	0.000229192	4.51767E-05	0	0	0	
0.135	-0.00401892	0.000889789	0.000180582	2.89596E-05	0	0	0	
0.135167	0.0110689	-0.000816205	0.000158915	2.24031E-05	0	0	0	
0.135333	-0.00872864	-0.00253014	0.000147969	3.67493E-05	0	0	0	
0.1355	0.00688995	0.00504914	0.000173535	6.53372E-05	0	0	0	
0.135667	-0.0102811	-0.00518421	0.000165061	8.75819E-05	0	0	0	
0.135833	0.0143359	0.00201379	0.000183691	8.92945E-05	0	0	0	
0.136	-0.00755204	-0.000421493	0.000223784	7.01863E-05	0	0	0	
0.136167	0.00107091	0.00164093	0.000232455	4.56954E-05	0	0	0	
0.136333	-0.00804031	-0.00159078	0.000192447	3.27461E-05	0	0	0	
0.1365	0.0141404	-0.000828062	0.000174047	3.74167E-05	0	0	0	
0.136667	-0.00926996	-8.66244E-05	0.000191777	3.29942E-05	0	0	0	
0.136833	0.00147258	0.00323533	0.00022257	3.31478E-05	0	0	0	
0.137	-0.00437374	-0.00231532	0.000178041	3.23895E-05	0	0	0	
0.137167	0.0136628	0.000326926	0.000167447	5.05153E-05	0	0	0	
0.137333	-0.0193703	-0.000106797	0.000195492	4.30003E-05	0	0	0	
0.1375	0.0191649	0.0020157	0.000294344	4.15167E-05	0	0	0	
0.137667	-0.0110313	-0.00557756	0.000356036	5.34383E-05	0	0	0	
0.137833	-0.00356035	0.0110332	0.0004006	9.72933E-05	0	0	0	
0.138	0.0121431	-0.00733373	0.000360055	0.000142537	0	0	0	
0.138167	0.00206411	-0.00216186	0.000285956	0.000201639	0	0	0	
0.138333	-0.0172096	0.00887776	0.000301887	0.000242648	0	0	0	
0.1385	0.0224828	-0.0049757	0.000398295	0.000226819	0	0	0	
0.138667	-0.0149178	0.00157483	0.000448891	0.000163948	0	0	0	
0.138833	0.00897371	0.00446203	0.000357324	9.52814E-05	0	0	0	
0.139	-0.00531149	-0.00785647	0.000239	0.000101029	0	0	0	
0.139167	0.00114774	0.00782599	0.000179495	0.000114863	0	0	0	
0.139333	-0.00500506	-0.00669616	0.000148925	0.000172294	0	0	0	
0.1395	0.00502332	0.000359965	0.000141854	0.000243496	0	0	0	
0.139667	0.0069073	0.00558567	0.000123084	0.000276935	0	0	0	
0.139833	-0.00209057	-0.00119282	0.00011437	0.000218481	0	0	0	
0.14	-0.00878403	-0.00319161	8.56235E-05	0.000120983	0	0	0	
0.140167	0.00763876	0.00230727	0.000114743	6.98013E-05	0	0	0	
0.140333	-0.00423319	-0.00296282	0.000151549	6.17895E-05	0	0	0	
0.1405	0.0104608	0.00354291	0.000175533	7.23243E-05	0	0	0	
0.140667	-0.0127203	-0.000227688	0.000191092	7.6815E-05	0	0	0	
0.140833	0.00793779	0.000193568	0.000214264	8.25216E-05	0	0	0	
0.141	-0.0120169	0.000500206	0.000228922	5.66014E-05	0	0	0	
0.141167	0.0178585	-0.000205116	0.000248808	2.96615E-05	0	0	0	
0.141333	-0.0170948	-0.00303697	0.000280728	2.74947E-05	0	0	0	
0.1415	0.0119871	0.00553632	0.000328128	4.63242E-05	0	0	0	
0.141667	-0.00495947	-0.00254716	0.000341116	7.30854E-05	0	0	0	
0.141833	0.000829823	-0.000105138	0.000290522	9.83236E-05	0	0	0	
0.142	-0.0099429	0.00106403	0.000232322	9.42005E-05	0	0	0	
0.142167	0.0227854	-0.000865038	0.000230252	7.15138E-05	0	0	0	
0.142333	-0.0140342	-0.00111211	0.000287516	4.73166E-05	0	0	0	
0.1425	-0.00268146	0.00417999	0.000360322	4.75876E-05	0	0	0	
0.142667	0.00157487	-0.00598383	0.000266741	7.51162E-05	0	0	0	
0.142833	0.00903899	0.00798836	0.000216641	9.73433E-05	0	0	0	
0.143	-0.0170953	-0.00726388	0.000160369	0.000136028	0	0	0	
0.143167	0.0114159	0.000922553	0.000254248	0.000185763	0	0	0	
0.143333	-0.00739753	0.00769905	0.000262152	0.000222465	0	0	0	
0.1435	0.0159851	-0.00766946	0.000275031	0.000204661	0	0	0	
0.143667	-0.0120673	-0.0022868	0.000279246	0.0001812	0	0	0	
0.143833	-0.00702485	0.00992353	0.000405146	0.000171492	0	0	0	
0.144	0.0089302	-0.0106142	0.000424728	0.00018303	0	0	0	
0.144167	0.013334	0.00650792	0.00041549	0.000192662	0	0	0	
0.144333	-0.0221296	0.00016161	0.000333998	0.000183447	0	0	0	
0.1445	0.00698011	-0.00123605	0.000333577	0.000151339	0	0	0	
0.144667	0.0014636	-0.00167998	0.000285071	9.53535E-05	0	0	0	
0.144833	0.0139229	-0.000855224	0.000204496	5.72025E-05	0	0	0	
0.145	-0.0164679	0.00500099	0.000197753	5.02012E-05	0	0	0	
0.145167	0.00757612	-0.000424011	0.000225899	6.6122E-05	0	0	0	
0.145333	-0.0108974	-0.00413436	0.000242345	8.60254E-05	0	0	0	
0.1455	0.0110315	0.00534166	0.000214401	9.63744E-05	0	0	0	
0.145667	-0.00703313	-0.00423986	0.000204178	9.88295E-05	0	0	0	
0.145833	0.0155303	0.00204727	0.000221741	8.41719E-05	0	0	0	
0.146	-0.00902137	0.00163692	0.000264737	8.86555E-05	0	0	0	
0.146167	0.00548719	-0.00750431	0.000247931	0.000100816	0	0	0	
0.146333	0.00685146	0.00948321	0.000239381	0.000123303	0	0	0	
0.1465	0.00169335	-1.2085E-05	0.00016961	0.000181753	0	0	0	
0.146667	-0.0132452	-0.0143492	0.000207143	0.000262949	0	0	0	
0.146833	0.00876181	0.0182812	0.000200929	0.000310549	0	0	0	
0.147	0.00479346	-0.00619656	0.000206831	0.000333854	0	0	0	
0.147167	0.00931379	-0.00753299	0.000203047	0.000346466	0	0	0	
0.147333	-0.0167081	0.0119248	0.000222659	0.000329952	0	0	0	
0.1475	0.00832059	-0.00707447	0.000282642	0.000271888	0	0	0	
0.147667	0.00199962	0.00127755	0.000275948	0.000189892	0	0	0	
0.147833	0.00362903	0.00427033	0.000217153	0.000169303	0	0	0	
0.148	-0.0129091	-0.00803521	0.000158589	0.000168394	0	0	0	
0.148167	0.00783279	0.00913286	0.000154117	0.000163362	0	0	0	
0.148333	-0.00229666	-0.00634142	0.000177244	0.000156863	0	0	0	
0.1485	0.00940405	0.00146554	0.000173432	0.000147486	0	0	0	
0.148667	-0.0132003	0.00173909	0.000172773	0.000134142	0	0	0	
0.148833	0.0075927	-0.00223634	0.000183363	0.00010203	0	0	0	
0.149	-0.0064982	0.00168901	0.000198099	6.66558E-05	0	0	0	
0.149167	0.0112714	-0.000519702	0.000176284	4.24341E-05	0	0	0	
0.149333	-0.014708	-0.0013396	0.000194923	4.59136E-05	0	0	0	
0.1495	0.00840011	0.00423595	0.000233105	6.38999E-05	0	0	0	
0.149667	-0.00300028	-0.00404935	0.000237322	7.42273E-05	0	0	0	
0.149833	0.004739	-0.00115238	0.000182387	9.29701E-05	0	0	0	
0.15	-0.00905557	0.00630435	0.000124261	0.000106426	0	0	0	
0.150167	0.00751755	-0.00394964	0.000118923	0.000113177	0	0	0	
0.150333	-0.00829658	-0.00348728	0.000146757	0.000126853	0	0	0	
0.1505	0.00904965	0.00771748	0.000158241	0.000129851	0	0	0	
0.150667	-0.009605	-0.00572292	0.000169457	0.000139627	0	0	0	
0.150833	0.0054689	0.000474882	0.000168175	0.00011864	0	0	0	
0.151	-0.00387204	0.000928337	0.000166872	9.64231E-05	0	0	0	
0.151167	0.00199546	-0.000296182	0.000133385	6.41808E-05	0	0	0	
0.151333	-0.0101912	-0.00132459	0.000164525	3.85296E-05	0	0	0	
0.1515	0.0140699	0.00199513	0.00017221	3.21503E-05	0	0	0	
0.151667	-0.00837055	-0.00132415	0.000230326	3.74011E-05	0	0	0	
0.151833	0.00211531	-0.00290671	0.000201966	5.49308E-05	0	0	0	
0.152	-0.0171958	0.00815246	0.000260595	8.24609E-05	0	0	0	
0.152167	0.0170159	-0.00345653	0.000296775	0.000107837	0	0	0	
0.152333	-0.00969406	-0.0106914	0.000313378	0.000189014	0	0	0	
0.1525	0.0100755	0.0190676	0.000246654	0.000253276	0	0	0	
0.152667	-0.0160384	-0.0145636	0.000215663	0.000315595	0	0	0	
0.152833	-0.00277865	0.00458676	0.000249864	0.000317797	0	0	0	
0.153	0.0106132	0.00227943	0.000252409	0.000309705	0	0	0	
0.153167	0.00534285	-0.00549184	0.000279032	0.000296938	0	0	0	
0.153333	-0.017018	0.00998326	0.000287074	0.000250992	0	0	0	
0.1535	0.0138588	-0.0113351	0.000329419	0.000216231	0	0	0	
0.153667	-0.00662389	0.000755626	0.000275023	0.000229694	0	0	0	
0.153833	0.00522386	0.0136572	0.000205529	0.000285946	0	0	0	
0.154	-0.00373406	-0.0202023	0.000136216	0.000323989	0	0	0	
0.154167	0.00934603	0.0124698	0.000106189	0.00033577	0	0	0	
0.154333	-0.0102067	-0.00068797	0.000134458	0.000340369	0	0	0	
0.1545	0.00474431	-0.00521995	0.000197391	0.000319127	0	0	0	
0.154667	-0.00341295	0.00366767	0.000199072	0.000240681	0	0	0	
0.154833	0.00835352	-0.000100261	0.000171572	0.000124304	0	0	0	
0.155	-0.00511334	-0.00466518	0.000128629	5.89401E-05	0	0	0	
0.155167	0.00663579	0.00551834	0.000129881	6.28103E-05	0	0	0	
0.155333	-0.0168394	-0.00468641	0.000159489	8.3145E-05	0	0	0	
0.1555	0.0115694	0.00162468	0.000226432	9.33924E-05	0	0	0	
0.155667	0.00628476	-0.00122512	0.000314496	6.43842E-05	0	0	0	
0.155833	-0.00693237	0.00535199	0.000266336	6.29574E-05	0	0	0	
0.156	-0.00759155	-0.0064422	0.000293937	6.94683E-05	0	0	0	
0.156167	0.0221888	0.00188131	0.000278317	0.000100723	0	0	0	
0.156333	-0.0188869	0.00395556	0.000383681	0.00010855	0	0	0	
0.1565	0.00524777	-0.00141612	0.000387514	9.57119E-05	0	0	0	
0.156667	0.00357561	-0.00622034	0.000354428	0.000116766	0	0	0	
0.156833	0.00266875	0.012198	0.000235	0.000144204	0	0	0	
0.157	-0.00564766	-0.010566	0.000124435	0.000193653	0	0	0	
0.157167	0.00700168	0.00306287	8.49081E-05	0.000213302	0	0	0	
0.157333	-0.017495	0.00486052	0.00015742	0.000225278	0	0	0	
0.1575	0.0205436	-0.00691539	0.000241914	0.00019141	0	0	0	
0.157667	-0.00646164	0.00204116	0.00032104	0.000154913	0	0	0	
0.157833	-0.0038969	0.00534766	0.00032825	0.000148414	0	0	0	
0.158	-0.00537354	-0.00947093	0.000249512	0.000171037	0	0	0	
0.158167	0.0165622	0.00877229	0.00020636	0.000180892	0	0	0	
0.158333	-0.0109522	-0.0058442	0.000198869	0.000160746	0	0	0	
0.1585	0.00293315	0.00305554	0.00024889	0.00013878	0	0	0	
0.158667	0.000443607	2.43929E-05	0.00021581	0.000111693	0	0	0	
0.158833	0.00250791	-0.00137987	0.000151693	8.69725E-05	0	0	0	
0.159	-0.006611	0.00130504	9.72533E-05	5.90399E-05	0	0	0	
0.159167	0.01391	0.000911597	0.000129569	4.44521E-05	0	0	0	
0.159333	-0.0177181	-0.00280523	0.000218615	3.95278E-05	0	0	0	
0.1595	0.0152026	0.00285547	0.000283867	4.83092E-05	0	0	0	
0.159667	-0.00720767	-0.0022816	0.000302902	5.16835E-05	0	0	0	
0.159833	-0.000439797	0.00308191	0.000254839	5.08481E-05	0	0	0	
0.16	-0.000342093	-0.0043794	0.000160925	5.62649E-05	0	0	0	
0.160167	0.00691636	0.00359076	9.76732E-05	6.54502E-05	0	0	0	
0.160333	-0.00719635	-0.0012381	8.669E-05	7.05394E-05	0	0	0	
0.1605	0.00693031	-0.000774389	0.000127357	6.78777E-05	0	0	0	
0.160667	-0.00876894	0.000843551	0.000148732	5.52094E-05	0	0	0	
0.160833	0.0158028	0.000141359	0.000183206	3.6056E-05	0	0	0	
0.161	-0.018004	-0.00242904	0.000239066	3.0722E-05	0	0	0	
0.161167	0.0100522	0.00395621	0.000291905	4.07673E-05	0	0	0	
0.161333	0.00286008	-0.0028856	0.000315615	5.78368E-05	0	0	0	
0.1615	-0.00220084	0.000897957	0.000241371	6.26156E-05	0	0	0	
0.161667	-0.00677975	-0.00047952	0.000183828	5.70434E-05	0	0	0	
0.161833	0.010031	0.00199219	0.000135537	4.82678E-05	0	0	0	
0.162	-0.00746307	-0.00349737	0.000169606	4.65358E-05	0	0	0	
0.162167	0.0115749	0.0026105	0.000193491	5.14618E-05	0	0	0	
0.162333	-0.0190863	-0.00057199	0.000229737	6.26357E-05	0	0	0	
0.1625	0.0106875	-8.11906E-05	0.00026931	5.73224E-05	0	0	0	
0.162667	0.00153355	-0.00111058	0.000309765	4.02952E-05	0	0	0	
0.162833	0.00379458	0.00196353	0.000233197	2.8549E-05	0	0	0	
0.163	-0.0162694	-0.00265868	0.000209186	3.01754E-05	0	0	0	
0.163167	0.0124367	0.0027191	0.000187704	4.18021E-05	0	0	0	
0.163333	0.000445562	-0.00162525	0.000250789	4.82869E-05	0	0	0	
0.1635	0.00174803	0.000291964	0.000192764	4.49106E-05	0	0	0	
0.163667	-0.00941987	-0.00201386	0.000144855	3.66494E-05	0	0	0	
0.163833	0.00887145	0.00580092	0.000116749	4.847E-05	0	0	0	
0.164	-0.00301353	-0.00724482	0.000145877	7.57036E-05	0	0	0	
0.164167	0.00542035	0.00252205	0.000133382	0.000123773	0	0	0	
0.164333	-0.0152384	0.00314542	0.00015728	0.000155665	0	0	0	
0.1645	0.0182929	-0.00440592	0.00020894	0.000143053	0	0	0	
0.164667	-0.00704524	0.00165215	0.000288645	0.000108787	0	0	0	
0.164833	0.00451958	0.000945663	0.000267913	7.90187E-05	0	0	0	
0.165	-0.0205836	-0.006745	0.000244784	0.000104939	0	0	0	
0.165167	0.0356238	0.0158943	0.000364185	0.000169498	0	0	0	
0.165333	-0.0138751	-0.0168487	0.000590613	0.000240254	0	0	0	
0.1655	0.000224026	0.00724406	0.000635857	0.000271513	0	0	0	
0.165667	-0.0115431	0.000184198	0.00045922	0.000241894	0	0	0	
0.165833	0.00486467	0.00326673	0.000231868	0.000164991	0	0	0	
0.166	-0.00508489	-0.00389689	0.000160195	0.000104397	0	0	0	
0.166167	0.0342897	0.002151	0.00024505	7.13798E-05	0	0	0	
0.166333	-0.0471365	0.000198167	0.000466017	6.76265E-05	0	0	0	
0.1665	0.0143887	0.00144352	0.000600475	9.26262E-05	0	0	0	
0.166667	0.00157323	-0.00246627	0.000607622	0.000105172	0	0	0	
0.166833	0.000336875	0.00588189	0.00034188	0.000110046	0	0	0	
0.167	-0.00742051	-0.00559684	0.000186195	0.00010609	0	0	0	
0.167167	0.00388997	0.00661365	7.79143E-05	0.000105767	0	0	0	
0.167333	-0.0134253	-0.00417135	0.000115513	0.000114479	0	0	0	
0.1675	0.0199982	4.94756E-05	0.000196827	0.000105626	0	0	0	
0.167667	-0.0054909	0.00188527	0.000300972	8.25029E-05	0	0	0	
0.167833	-0.00530299	0.00132821	0.000372017	7.77941E-05	0	0	0	
0.168	-0.00372585	-0.00741787	0.000283598	9.28473E-05	0	0	0	
0.168167	0.0125248	0.0092756	0.00020251	0.000130743	0	0	0	
0.168333	-0.010067	-0.00615009	0.000156553	0.00015155	0	0	0	
0.1685	0.00285043	0.000643464	0.000206217	0.000161606	0	0	0	
0.168667	-0.00354882	0.00353937	0.000178766	0.000156014	0	0	0	
0.168833	0.0136511	-0.00430199	0.000178257	0.000126901	0	0	0	
0.169	-0.0132803	0.00224987	0.000189937	9.257E-05	0	0	0	
0.169167	0.00835473	-0.000575915	0.000226086	7.45305E-05	0	0	0	
0.169333	-0.0139271	-0.00187133	0.000228815	8.75263E-05	0	0	0	
0.1695	0.0192843	0.00703246	0.000251672	0.000103541	0	0	0	
0.169667	-0.0138097	-0.00891848	0.000280599	0.000124556	0	0	0	
0.169833	0.00806756	0.00675896	0.000299632	0.000143309	0	0	0	
0.17	0.000580701	-0.00109571	0.000246675	0.000166679	0	0	0	
0.170167	-0.00144402	-0.00324675	0.000161529	0.000174574	0	0	0	
0.170333	-0.00535579	0.00435002	0.000114766	0.000150238	0	0	0	
0.1705	0.00718025	-0.00102685	0.000122034	0.000105712	0	0	0	
0.170667	-0.00864751	-0.00321923	0.000185195	9.50838E-05	0	0	0	
0.170833	0.0175499	0.00738487	0.000232095	0.000111541	0	0	0	
0.171	-0.0187193	-0.00796465	0.000277099	0.000136514	0	0	0	
0.171167	0.00964906	0.00303194	0.000315773	0.000134252	0	0	0	
0.171333	0.00109255	0.00203107	0.000343258	0.000123007	0	0	0	
0.1715	-0.00405909	-0.000806222	0.000289918	8.38372E-05	0	0	0	
0.171667	-0.00340515	-0.00373407	0.00021722	8.71763E-05	0	0	0	
0.171833	0.0153856	0.0085069	0.000184998	0.000100339	0	0	0	
0.172	-0.0202112	-0.00681328	0.000235971	0.000139856	0	0	0	
0.172167	0.0129192	0.00200472	0.000308805	0.000140997	0	0	0	
0.172333	-0.00639932	0.00202251	0.000304527	0.000135734	0	0	0	
0.1725	0.00936086	-0.00225945	0.000258697	0.000117393	0	0	0	
0.172667	-0.00787069	0.00239436	0.000203812	7.87765E-05	0	0	0	
0.172833	0.00340524	0.000459786	0.000166355	7.08989E-05	0	0	0	
0.173	-0.00529532	-0.0053972	0.000146619	9.54131E-05	0	0	0	
0.173167	0.0140176	0.00870486	0.000169008	0.000135083	0	0	0	
0.173333	-0.0147509	-0.008508	0.000198167	0.000152392	0	0	0	
0.1735	0.00580224	0.00510285	0.00026606	0.000153301	0	0	0	
0.173667	0.000517704	-0.00147112	0.000249653	0.000141832	0	0	0	
0.173833	0.00488508	-0.000148555	0.000191727	0.000111455	0	0	0	
0.174	-0.00980332	0.000667857	0.000130111	6.22738E-05	0	0	0	
0.174167	0.0047378	0.00101093	0.000123663	4.02498E-05	0	0	0	
0.174333	-0.000739001	-0.00380514	0.000161772	4.40678E-05	0	0	0	
0.1745	0.00695592	0.00498593	0.000155534	6.74494E-05	0	0	0	
0.174667	-0.0141781	-0.00277768	0.000166439	7.76795E-05	0	0	0	
0.174833	0.013519	-5.97995E-05	0.000197725	6.77883E-05	0	0	0	
0.175	-0.00684448	0.000552041	0.000241961	4.44756E-05	0	0	0	
0.175167	0.00632477	0.000232075	0.000236076	3.26048E-05	0	0	0	
0.175333	-0.00521996	-0.00214227	0.000207365	2.91944E-05	0	0	0	
0.1755	0.00191139	0.00348914	0.000172505	4.26229E-05	0	0	0	
0.175667	-0.00448363	-0.0030433	0.000135039	5.09614E-05	0	0	0	
0.175833	0.011319	-0.000544321	0.000127281	5.98584E-05	0	0	0	
0.176	-0.00913879	0.00278111	0.000146011	5.2786E-05	0	0	0	
0.176167	0.00680249	0.000699071	0.00017585	6.21922E-05	0	0	0	
0.176333	-0.008577	-0.00676153	0.000173456	7.97907E-05	0	0	0	
0.1765	0.0078514	0.00648921	0.00016679	0.000107878	0	0	0	
0.176667	-0.00402978	-0.00365828	0.00015927	0.000125289	0	0	0	
0.176833	0.00730327	0.000438216	0.000143917	0.000134182	0	0	0	
0.177	-0.0108736	0.00337598	0.000138306	0.00013777	0	0	0	
0.177167	0.00644096	-0.00462631	0.000158263	0.000112745	0	0	0	
0.177333	-0.00516636	-2.47267E-05	0.000170213	0.000101625	0	0	0	
0.1775	0.00585714	0.00598453	0.000158895	0.000103946	0	0	0	
0.177667	-0.00620275	-0.00555479	0.000135364	0.000113029	0	0	0	
0.177833	0.0117219	0.000882938	0.000155381	0.000129374	0	0	0	
0.178	-0.0227809	0.00074707	0.000213542	0.000108397	0	0	0	
0.178167	0.0185026	0.00133176	0.000321369	8.47932E-05	0	0	0	
0.178333	-0.00195194	0.00186719	0.000414269	7.73059E-05	0	0	0	
0.1785	0.000239044	-0.00778123	0.000372275	0.000103019	0	0	0	
0.178667	-0.0149559	0.00526513	0.000270382	0.000135444	0	0	0	
0.178833	0.0121777	0.00376747	0.000202161	0.000155261	0	0	0	
0.179	-0.00725679	-0.00444999	0.000206834	0.000151171	0	0	0	
0.179167	0.0225998	0.00478922	0.000249992	0.000139017	0	0	0	
0.179333	-0.0300916	-0.0106272	0.000318585	0.000121458	0	0	0	
0.1795	0.0127087	0.00907248	0.000437158	0.000142131	0	0	0	
0.179667	-0.00326415	0.00273262	0.000469177	0.000218072	0	0	0	
0.179833	0.0129245	-0.01248	0.000372388	0.000269907	0	0	0	
0.18	-0.0118494	0.0124734	0.000264214	0.000272508	0	0	0	
0.180167	0.00463501	-0.00249542	0.000205371	0.000251245	0	0	0	
0.180333	-0.00944356	-0.00707773	0.000195928	0.000239439	0	0	0	
0.1805	0.0185606	0.00830129	0.000214967	0.000225735	0	0	0	
0.180667	-0.018111	-0.00445916	0.000262366	0.000180639	0	0	0	
0.180833	0.0109276	-0.000330215	0.000308832	0.000137445	0	0	0	
0.181	-0.00396681	0.00270566	0.000284291	0.000116353	0	0	0	
0.181167	0.00349627	-0.00199781	0.000202095	8.87677E-05	0	0	0	
0.181333	-0.0049849	-0.00293317	0.000134541	8.15913E-05	0	0	0	
0.1815	0.00711785	0.00770761	0.000103373	9.33884E-05	0	0	0	
0.181667	-0.015159	-0.00549534	0.000131938	0.00012353	0	0	0	
0.181833	0.0288074	-0.00190955	0.000255998	0.000170328	0	0	0	
0.182	-0.0322691	0.00827722	0.000428382	0.00018791	0	0	0	
0.182167	0.0167204	-0.0046099	0.000510411	0.00018992	0	0	0	
0.182333	0.00248291	-0.00490141	0.000404789	0.000131492	0	0	0	
0.1825	-0.00571817	0.00778911	0.000242769	0.000116541	0	0	0	
0.182667	-0.00203973	-0.00963018	0.000124513	0.000121738	0	0	0	
0.182833	0.0143206	0.00683919	0.000168511	0.000166255	0	0	0	
0.183	-0.0164439	0.00369026	0.00028139	0.000221225	0	0	0	
0.183167	0.00538716	-0.00957795	0.00037819	0.000243618	0	0	0	
0.183333	-0.00452964	0.000389097	0.000359775	0.000197342	0	0	0	
0.1835	0.0102678	0.00783468	0.000240342	0.000165798	0	0	0	
0.183667	-0.0133583	-0.00951281	0.000224139	0.000158973	0	0	0	
0.183833	0.00474065	0.00735233	0.000245413	0.00018182	0	0	0	
0.184	-0.00153332	-0.00279455	0.000229266	0.000159692	0	0	0	
0.184167	0.00219734	0.00119032	0.000146925	0.000129434	0	0	0	
0.184333	-0.0027711	0.000381309	7.94314E-05	0.000112342	0	0	0	
0.1845	0.00813204	-0.00217672	0.000109342	8.14988E-05	0	0	0	
0.184667	-0.0153062	0.00154935	0.000162797	5.78646E-05	0	0	0	
0.184833	0.015696	-0.000124124	0.000223409	3.77944E-05	0	0	0	
0.185	-0.00732515	0.000963476	0.000247627	3.17924E-05	0	0	0	
0.185167	0.00426452	-0.00146466	0.000232805	3.05604E-05	0	0	0	
0.185333	-0.00440385	-0.00165396	0.000186684	5.22129E-05	0	0	0	
0.1855	0.00775099	0.00428727	0.000157542	7.76546E-05	0	0	0	
0.185667	-0.0108556	-0.00658214	0.000144852	0.00010003	0	0	0	
0.185833	0.0116729	0.00631719	0.000171412	0.000113621	0	0	0	
0.186	-0.013095	-0.00180599	0.000205344	0.000138101	0	0	0	
0.186167	0.0102582	-0.00361054	0.000230552	0.000171786	0	0	0	
0.186333	-0.00371939	0.007167	0.000243739	0.000170295	0	0	0	
0.1865	0.00295276	-0.00729027	0.000196145	0.000151893	0	0	0	
0.186667	-0.00899066	0.00111685	0.000174889	0.000141849	0	0	0	
0.186833	0.0144152	0.00488405	0.000165572	0.00016701	0	0	0	
0.187	-0.0109877	-0.00885284	0.000213839	0.000172552	0	0	0	
0.187167	0.0101858	0.00944102	0.000228541	0.000171718	0	0	0	
0.187333	-0.0123171	-0.00594089	0.000226042	0.000162163	0	0	0	
0.1875	0.0100971	0.000784293	0.000216772	0.000167246	0	0	0	
0.187667	-0.010687	0.00374346	0.00021794	0.000160842	0	0	0	
0.187833	0.0159526	-0.00426299	0.000230329	0.000127453	0	0	0	
0.188	-0.0155396	0.000859903	0.00025137	9.79183E-05	0	0	0	
0.188167	0.00628007	0.00368166	0.000259174	8.27288E-05	0	0	0	
0.188333	0.000887725	-0.00523325	0.000234191	8.73814E-05	0	0	0	
0.1885	-0.000955961	0.00374537	0.00014646	9.00178E-05	0	0	0	
0.188667	-0.00423621	-0.00158427	0.000123184	8.05805E-05	0	0	0	
0.188833	0.00795171	0.000366165	0.000114501	6.58628E-05	0	0	0	
0.189	-0.0100924	-0.00104827	0.000179595	5.06371E-05	0	0	0	
0.189167	0.0153105	0.00473214	0.00022053	5.77665E-05	0	0	0	
0.189333	-0.0182219	-0.00649772	0.000264552	7.42058E-05	0	0	0	
0.1895	0.00539683	0.00292814	0.000318363	0.000106828	0	0	0	
0.189667	0.00534431	0.000761747	0.000305856	0.000123962	0	0	0	
0.189833	0.00104915	-0.00144239	0.000249043	0.000112195	0	0	0	
0.19	-0.0105333	0.00074086	0.000193988	7.33962E-05	0	0	0	
0.190167	0.0136775	-0.000246901	0.000191691	3.63069E-05	0	0	0	
0.190333	-0.0127507	-0.00156719	0.000224384	4.28091E-05	0	0	0	
0.1905	0.0106357	0.00434052	0.000240153	6.57972E-05	0	0	0	
0.190667	-0.00322367	-0.00442168	0.000222019	7.9971E-05	0	0	0	
0.190833	0.0067021	0.000834985	0.000181782	8.06917E-05	0	0	0	
0.191	-0.00437267	-0.00291127	0.000132488	6.63821E-05	0	0	0	
0.191167	-0.0113236	0.0103076	0.000141753	8.13304E-05	0	0	0	
0.191333	0.0108371	-0.00874035	0.000187009	0.000123058	0	0	0	
0.1915	0.0114553	-0.00491788	0.000254129	0.000206978	0	0	0	
0.191667	-0.0185354	0.0116964	0.000270192	0.00022176	0	0	0	
0.191833	0.00378246	-0.00358816	0.000306186	0.000222763	0	0	0	
0.192	0.0017924	-0.00558859	0.000259839	0.000212966	0	0	0	
0.192167	0.0090811	0.0108885	0.00021329	0.000221226	0	0	0	
0.192333	-0.00624316	-0.0129968	0.000160503	0.000226277	0	0	0	
0.1925	-0.00149482	0.00938174	0.000244042	0.000207775	0	0	0	
0.192667	0.00196764	0.00132182	0.000226424	0.000223265	0	0	0	
0.192833	0.0147373	-0.00846235	0.000258374	0.000220691	0	0	0	
0.193	-0.020257	0.00661095	0.000221516	0.000192312	0	0	0	
0.193167	0.00381175	0.00188179	0.000325926	0.000161601	0	0	0	
0.193333	0.00691195	-0.00608691	0.000309963	0.000126464	0	0	0	
0.1935	0.00454887	0.00301154	0.000263978	0.000112385	0	0	0	
0.193667	-0.0153541	0.00115502	0.000219598	9.96751E-05	0	0	0	
0.193833	0.0105548	-0.00079806	0.000221805	6.81536E-05	0	0	0	
0.194	-0.00270407	-0.00367565	0.00022071	6.76539E-05	0	0	0	
0.194167	0.00493215	0.00564517	0.000167384	6.47871E-05	0	0	0	
0.194333	-0.00939039	-0.00471313	0.000133768	8.97995E-05	0	0	0	
0.1945	0.0046669	0.00340325	0.000121143	9.35148E-05	0	0	0	
0.194667	-0.00665236	-0.000668644	0.000134665	9.75796E-05	0	0	0	
0.194833	0.0188735	-0.00458572	0.000193277	0.000107826	0	0	0	
0.195	-0.0117186	0.00950213	0.000237828	0.000118125	0	0	0	
0.195167	0.0135839	-0.00285825	0.000390485	0.000138522	0	0	0	
0.195333	-0.00972499	0.000865568	0.000453209	0.000163361	0	0	0	
0.1955	0.00599769	0.00432255	0.00042815	0.000155728	0	0	0	
0.195667	-0.00124676	-0.00794774	0.000243224	0.000142888	0	0	0	
0.195833	0.00372622	0.00531941	0.000102443	0.000116616	0	0	0	
0.196	-0.00652238	0.00261033	8.67042E-05	0.000132803	0	0	0	
0.196167	0.014754	-0.00708094	0.000133278	0.000152069	0	0	0	
0.196333	-0.0281155	0.00911992	0.00027872	0.000157598	0	0	0	
0.1965	0.0215377	-0.00459731	0.000394793	0.000157923	0	0	0	
0.196667	-0.00652244	-0.00258714	0.000420322	0.000116666	0	0	0	
0.196833	0.00596956	0.00307084	0.000299154	0.000106454	0	0	0	
0.197	-0.0151733	-0.00452078	0.000204254	8.41801E-05	0	0	0	
0.197167	0.00873162	0.00509191	0.000202823	9.0578E-05	0	0	0	
0.197333	0.00395483	-0.00250909	0.000248954	8.44161E-05	0	0	0	
0.1975	0.00411043	-0.000161557	0.000201198	8.52941E-05	0	0	0	
0.197667	-0.014356	0.000853701	0.000209626	7.27567E-05	0	0	0	
0.197833	0.00680204	0.00143034	0.000170963	4.91795E-05	0	0	0	
0.198	0.000814857	-0.00325446	0.000189538	3.70148E-05	0	0	0	
0.198167	0.00482437	0.00224043	0.000121452	3.97391E-05	0	0	0	
0.198333	-0.0129395	-0.000853415	0.000119695	4.47094E-05	0	0	0	
0.1985	0.00958009	0.000702528	0.000158804	3.47362E-05	0	0	0	
0.198667	-0.009802	-0.00135175	0.000207912	2.10777E-05	0	0	0	
0.198833	0.00835901	0.00145781	0.000213966	2.55955E-05	0	0	0	
0.199	-0.00566412	0.000271672	0.000187463	3.67895E-05	0	0	0	
0.199167	0.0061519	-0.000764483	0.000150844	3.3027E-05	0	0	0	
0.199333	-0.0129593	-0.00144819	0.000154248	4.45117E-05	0	0	0	
0.1995	0.0124354	0.00475419	0.000178531	5.10336E-05	0	0	0	
0.199667	-0.00753936	-0.00336571	0.000220417	7.43468E-05	0	0	0	
0.199833	0.00612609	0.00117992	0.000220535	6.87992E-05	0	0	0	
0.2	-0.00653483	-0.000295638	0.000185514	5.80781E-05	0	0	0	
0.200167	0.00555638	-0.00035497	0.000142129	3.70598E-05	0	0	0	
0.200333	-0.00725271	-0.000496147	0.000124764	2.23701E-05	0	0	0	
0.2005	0.00949921	0.00209087	0.000143363	1.56578E-05	0	0	0	
0.200667	-0.0149143	-0.000368769	0.000191965	2.21503E-05	0	0	0	
0.200833	0.0151209	-0.00166011	0.000238934	2.38723E-05	0	0	0	
0.201	-0.00644734	0.000577966	0.00026656	2.4473E-05	0	0	0	
0.201167	-0.000718877	0.000244841	0.000219041	2.3379E-05	0	0	0	
0.201333	-0.00650113	-0.00232695	0.000156589	2.83559E-05	0	0	0	
0.2015	0.0129391	0.00520064	0.000137063	4.47354E-05	0	0	0	
0.201667	-0.0147257	-0.00468605	0.000192389	6.82267E-05	0	0	0	
0.201833	0.0162617	0.00170447	0.000249833	8.2761E-05	0	0	0	
0.202	-0.0181742	-0.00217609	0.000286204	7.98337E-05	0	0	0	
0.202167	0.0177423	0.00476822	0.000325803	7.20618E-05	0	0	0	
0.202333	-0.00650661	-0.00555119	0.000354743	8.01959E-05	0	0	0	
0.2025	-0.00864312	0.00427697	0.000356685	0.000100416	0	0	0	
0.202667	0.00181758	-0.00119008	0.000271691	0.000111144	0	0	0	
0.202833	0.020455	-0.00197345	0.000304781	0.000104785	0	0	0	
0.203	-0.0245299	0.00155852	0.000344245	7.32563E-05	0	0	0	
0.203167	0.013428	0.00228407	0.000429809	7.19402E-05	0	0	0	
0.203333	-0.0148634	-0.00570647	0.000367895	9.72251E-05	0	0	0	
0.2035	0.0217734	0.00921253	0.000336832	0.000143594	0	0	0	
0.203667	-0.0121762	-0.00979811	0.000345414	0.00016864	0	0	0	
0.203833	-0.00211166	0.00824066	0.000390879	0.000168493	0	0	0	
0.204	-0.000555637	-0.00653944	0.000285696	0.000175277	0	0	0	
0.204167	0.00940967	0.00287117	0.00018817	0.000183462	0	0	0	
0.204333	-0.00447539	0.00358453	0.000108504	0.000203274	0	0	0	
0.2045	-0.00277886	-0.00815886	0.000140076	0.000209726	0	0	0	
0.204667	-0.00914619	0.00841071	0.000197551	0.000196326	0	0	0	
0.204833	0.0269792	-0.00565171	0.000273621	0.000167875	0	0	0	
0.205	-0.0132279	-0.00290238	0.000364186	0.000159473	0	0	0	
0.205167	-0.00104536	0.00900987	0.000392206	0.000165321	0	0	0	
0.205333	-0.00867329	-0.00908625	0.000293889	0.000174873	0	0	0	
0.2055	0.00994978	0.00565972	0.000237578	0.000162215	0	0	0	
0.205667	0.0102316	-0.00299988	0.000258372	0.000153229	0	0	0	
0.205833	-0.004204	0.00130923	0.000266797	0.000138609	0	0	0	
0.206	-0.0200155	-0.00214558	0.000315244	0.000111459	0	0	0	
0.206167	0.0177068	0.00321419	0.000280358	7.95817E-05	0	0	0	
0.206333	-0.00400816	-0.000274611	0.000353807	7.75422E-05	0	0	0	
0.2065	0.0117687	-0.00445217	0.000288877	0.000107739	0	0	0	
0.206667	-0.0160021	0.00435702	0.00026162	0.000112954	0	0	0	
0.206833	0.00542858	-0.000166035	0.000236958	0.000107412	0	0	0	
0.207	-0.00284977	-0.00281256	0.000232539	8.66808E-05	0	0	0	
0.207167	0.00896733	0.00321676	0.000195425	8.50204E-05	0	0	0	
0.207333	-0.00901906	-0.0047808	0.000165906	7.60803E-05	0	0	0	
0.2075	0.0122715	0.00308036	0.000176548	7.10019E-05	0	0	0	
0.207667	-0.0126693	-0.00088703	0.000204428	6.75909E-05	0	0	0	
0.207833	0.00866429	0.00158446	0.000219664	5.92987E-05	0	0	0	
0.208	-0.00333968	-0.00687053	0.000202841	7.02354E-05	0	0	0	
0.208167	0.00911283	0.0122556	0.000177611	0.000107155	0	0	0	
0.208333	-0.0124683	-0.0124605	0.000190817	0.000174251	0	0	0	
0.2085	0.00608023	0.00330433	0.00024678	0.000242062	0	0	0	
0.208667	0.000294608	0.00910477	0.000247438	0.000308434	0	0	0	
0.208833	0.0106866	-0.0125536	0.000230002	0.000303309	0	0	0	
0.209	-0.0191547	0.00479183	0.00023201	0.000260109	0	0	0	
0.209167	0.0109314	0.00460743	0.000281232	0.000215551	0	0	0	
0.209333	-0.00736973	-0.0089279	0.000308002	0.000204126	0	0	0	
0.2095	0.0140922	0.00994108	0.000273209	0.000207172	0	0	0	
0.209667	-0.0129567	-0.0100175	0.000259854	0.000187835	0	0	0	
0.209833	0.000541773	0.00799443	0.000239591	0.000189651	0	0	0	
0.21	0.00336486	-0.00460337	0.000180972	0.000214963	0	0	0	
0.210167	0.0102059	-0.00427784	0.000170316	0.000231102	0	0	0	
0.210333	-0.0113396	0.00509476	0.000162948	0.000203596	0	0	0	
0.2105	0.00406963	-0.00258467	0.000237546	0.000141446	0	0	0	
0.210667	-0.00479175	9.62376E-05	0.000214489	0.000100029	0	0	0	
0.210833	0.00760296	0.00230784	0.000184525	7.95393E-05	0	0	0	
0.211	-0.00389358	-0.00691096	0.000133298	8.45188E-05	0	0	0	
0.211167	0.00652652	0.00610471	0.000117262	9.7907E-05	0	0	0	
0.211333	-0.00791244	-0.00420018	0.000140781	0.000107748	0	0	0	
0.2115	0.00504915	0.000415171	0.000149139	0.000108871	0	0	0	
0.211667	-0.00900038	0.00239323	0.000166567	8.10553E-05	0	0	0	
0.211833	0.0096324	-0.000771976	0.000160301	6.18522E-05	0	0	0	
0.212	-0.00756796	-0.00123467	0.000168932	4.15205E-05	0	0	0	
0.212167	0.00854808	0.00282339	0.000165239	3.98948E-05	0	0	0	
0.212333	-0.0105638	-0.00314143	0.000172876	4.7629E-05	0	0	0	
0.2125	0.00709146	0.00189268	0.000185197	5.19826E-05	0	0	0	
0.212667	-0.0012019	-0.00196709	0.0001774	4.70582E-05	0	0	0	
0.212833	0.00517168	0.00237033	0.000139719	4.37486E-05	0	0	0	
0.213	-0.0132461	-0.00216336	0.000134959	4.15914E-05	0	0	0	
0.213167	0.0152685	0.00243118	0.00017841	4.38706E-05	0	0	0	
0.213333	-0.0121632	-0.00362273	0.000241951	4.85618E-05	0	0	0	
0.2135	0.00950886	0.00358389	0.000257473	5.63064E-05	0	0	0	
0.213667	-0.00558924	-0.00239504	0.000237245	6.2675E-05	0	0	0	
0.213833	0.00288212	0.00293998	0.000194403	6.25688E-05	0	0	0	
0.214	-0.00639207	-0.00569548	0.000147157	6.90089E-05	0	0	0	
0.214167	0.0120499	0.0053046	0.00015289	8.21538E-05	0	0	0	
0.214333	-0.0124184	0.00190078	0.000177226	0.000105276	0	0	0	
0.2145	0.00465134	-0.00222266	0.000203452	9.3748E-05	0	0	0	
0.214667	-0.0106236	-0.00173055	0.000183126	8.93388E-05	0	0	0	
0.214833	0.0206855	0.00426501	0.000215916	6.7504E-05	0	0	0	
0.215	-0.0201291	-0.00163675	0.000278067	7.12635E-05	0	0	0	
0.215167	0.00658274	0.0019996	0.000357437	6.27284E-05	0	0	0	
0.215333	0.000386044	-0.00628738	0.000342979	8.25663E-05	0	0	0	
0.2155	-0.000952594	0.00683846	0.000241949	9.83237E-05	0	0	0	
0.215667	-0.00448652	-0.00327505	0.000138393	0.000113377	0	0	0	
0.215833	0.00873846	0.00435231	0.000115031	9.7768E-05	0	0	0	
0.216	-0.0171961	-0.00885577	0.00018069	0.000105135	0	0	0	
0.216167	0.0170922	0.00899945	0.000266979	0.000123894	0	0	0	
0.216333	-0.0117499	0.000364479	0.000278941	0.000184176	0	0	0	
0.2165	0.0103178	-0.0079245	0.000280376	0.000208736	0	0	0	
0.216667	-0.00508313	0.00359963	0.000243381	0.000191083	0	0	0	
0.216833	0.0123559	0.00390371	0.000266689	0.000202751	0	0	0	
0.217	-0.0137668	-0.0104629	0.000307601	0.000193117	0	0	0	
0.217167	0.00432178	0.00894564	0.000303283	0.00021965	0	0	0	
0.217333	-0.00260538	-0.00190544	0.000220053	0.000215431	0	0	0	
0.2175	0.0146444	-0.00503215	0.000142364	0.00024537	0	0	0	
0.217667	-0.0117021	0.0081285	0.0001605	0.000225489	0	0	0	
0.217833	0.00781985	-0.00524997	0.000264262	0.0001907	0	0	0	
0.218	-0.0173287	-0.00510594	0.000327653	0.000188161	0	0	0	
0.218167	0.0143915	0.015632	0.00033321	0.000218465	0	0	0	
0.218333	-0.00523862	-0.0152751	0.000278848	0.000254276	0	0	0	
0.2185	0.00525724	0.0057404	0.000208434	0.000288781	0	0	0	
0.218667	-0.015865	0.00645496	0.000206524	0.000333215	0	0	0	
0.218833	0.0156247	-0.00803521	0.000231465	0.000302477	0	0	0	
0.219	-0.00681389	0.00210755	0.000278717	0.000207557	0	0	0	
0.219167	0.0122531	0.000451156	0.000246633	0.000106786	0	0	0	
0.219333	-0.018453	0.00143069	0.000251856	4.97479E-05	0	0	0	
0.2195	0.0129954	-0.00279717	0.0002666	3.59692E-05	0	0	0	
0.219667	-0.00477114	0.000619174	0.000276433	4.00337E-05	0	0	0	
0.219833	0.00195699	0.00455393	0.000213025	7.32125E-05	0	0	0	
0.22	0.00244107	-0.00877811	0.000126754	0.000108991	0	0	0	
0.220167	0.00094472	0.00876012	0.000109008	0.000138077	0	0	0	
0.220333	-0.013804	-0.00449208	0.000191888	0.000156082	0	0	0	
0.2205	0.0207715	-0.00264164	0.000287433	0.000183766	0	0	0	
0.220667	-0.0107207	0.00857789	0.000330209	0.000194182	0	0	0	
0.220833	0.00168727	-0.00844687	0.000304082	0.000184738	0	0	0	
0.221	-0.00469841	-0.000469703	0.000234022	0.000212186	0	0	0	
0.221167	0.0137298	0.012927	0.000202007	0.000270688	0	0	0	
0.221333	-0.0164469	-0.0159042	0.00019746	0.000312247	0	0	0	
0.2215	0.00857872	0.00915859	0.000261151	0.000297101	0	0	0	
0.221667	-0.00326204	0.000804147	0.000253238	0.000272575	0	0	0	
0.221833	0.00621072	-0.00733733	0.000198568	0.000246429	0	0	0	
0.222	-0.00623005	0.00806611	0.000133706	0.000200604	0	0	0	
0.222167	0.0112005	-0.00405085	0.000146555	0.000158652	0	0	0	
0.222333	-0.0207778	-0.00272147	0.000212497	0.000167424	0	0	0	
0.2225	0.017662	0.00905758	0.000298098	0.000187862	0	0	0	
0.222667	-0.00406057	-0.0103504	0.000361905	0.000190691	0	0	0	
0.222833	-0.00224514	0.00604398	0.000338387	0.000177387	0	0	0	
0.223	0.000628239	-0.00168738	0.000219398	0.000157826	0	0	0	
0.223167	0.00528944	0.000815893	0.000151478	0.000120103	0	0	0	
0.223333	-0.0180369	-0.00183046	0.000182194	7.7997E-05	0	0	0	
0.2235	0.023733	0.000993479	0.000309069	5.60464E-05	0	0	0	
0.223667	-0.0172801	0.000142545	0.000375596	5.10363E-05	0	0	0	
0.223833	0.00546631	0.00109527	0.000386416	4.0591E-05	0	0	0	
0.224	-0.000781336	-0.00163109	0.000314522	3.10534E-05	0	0	0	
0.224167	-0.000994114	0.00258951	0.000196216	3.34054E-05	0	0	0	
0.224333	-0.00915777	-0.00496177	0.000148519	4.93766E-05	0	0	0	
0.2245	0.0179686	0.00505852	0.000177367	7.08832E-05	0	0	0	
0.224667	-0.0123289	-0.0031389	0.000252053	8.90791E-05	0	0	0	
0.224833	0.00595775	0.000975662	0.00029019	9.90238E-05	0	0	0	
0.225	-0.0002559	0.0010929	0.000266236	9.31537E-05	0	0	0	
0.225167	0.000371668	-0.0027237	0.000202234	7.42974E-05	0	0	0	
0.225333	-0.00263145	0.00133111	0.000104363	5.99019E-05	0	0	0	
0.2255	0.0077829	0.00379531	8.86762E-05	7.0189E-05	0	0	0	
0.225667	-0.0142824	-0.00744361	0.000140147	9.37075E-05	0	0	0	
0.225833	0.0200741	0.00586426	0.000230174	0.000117827	0	0	0	
0.226	-0.0127096	-0.00058486	0.000286164	0.000125292	0	0	0	
0.226167	0.00482154	-0.00273454	0.000297196	0.000116634	0	0	0	
0.226333	-0.000267989	0.000737958	0.000239475	8.42398E-05	0	0	0	
0.2265	0.00535802	0.00227829	0.000157969	5.14888E-05	0	0	0	
0.226667	-0.0102288	-0.00299694	0.000115278	3.78839E-05	0	0	0	
0.226833	0.0119127	0.00283954	0.000145451	4.90043E-05	0	0	0	
0.227	-0.00734934	-0.00273898	0.000195634	5.58577E-05	0	0	0	
0.227167	0.00533543	0.00141972	0.000195349	5.26078E-05	0	0	0	
0.227333	-0.00788548	5.92768E-05	0.000170824	4.22817E-05	0	0	0	
0.2275	0.00691947	-0.000491339	0.000142495	2.41898E-05	0	0	0	
0.227667	-0.00287245	-0.00258387	0.000149108	3.29854E-05	0	0	0	
0.227833	0.00461249	0.00695577	0.000136922	6.8859E-05	0	0	0	
0.228	-0.0126421	-0.00797114	0.000160784	0.000118777	0	0	0	
0.228167	0.016421	0.00690957	0.000193946	0.000142128	0	0	0	
0.228333	-0.0105196	-0.00557657	0.000251225	0.000134484	0	0	0	
0.2285	0.000538138	0.00346171	0.000260518	0.000127813	0	0	0	
0.228667	-0.00734634	0.00393029	0.000221317	0.000152406	0	0	0	
0.228833	0.0156568	-0.0101854	0.000214927	0.000175171	0	0	0	
0.229	-0.00909318	0.00841263	0.000218416	0.000193322	0	0	0	
0.229167	0.005771	0.00262784	0.00024181	0.000244975	0	0	0	
0.229333	-0.00935088	-0.0135085	0.000211011	0.000287794	0	0	0	
0.2295	0.00821045	0.0135516	0.000189249	0.000302527	0	0	0	
0.229667	-0.0088515	-0.00456041	0.000183199	0.000261467	0	0	0	
0.229833	0.018684	-0.0047418	0.000219023	0.00025665	0	0	0	
0.23	-0.0119513	0.00837537	0.000249991	0.000239262	0	0	0	
0.230167	-0.00164252	-0.00557272	0.000292316	0.000203597	0	0	0	
0.230333	0.000567345	-0.00445364	0.00021339	0.000166	0	0	0	
0.2305	0.00494333	0.00919027	0.00015975	0.000154618	0	0	0	
0.230667	-0.0109579	-0.00596573	0.000115924	0.000159994	0	0	0	
0.230833	0.00577467	-0.000321936	0.000204773	0.000161122	0	0	0	
0.231	0.00432621	-0.00018712	0.000413913	0.000132775	0	0	0	
0.231167	0.0231134	0.00983949	0.000748133	0.000111162	0	0	0	
0.231333	-0.0097381	-0.0161901	0.00086377	0.000128746	0	0	0	
0.2315	0.000627054	0.0106509	0.000740014	0.000226419	0	0	0	
0.231667	-0.000775909	0.00418677	0.000454779	0.000363052	0	0	0	
0.231833	0.0122573	-0.0165589	0.000292563	0.000417437	0	0	0	
0.232	-0.0256863	0.0147607	0.000267198	0.000382272	0	0	0	
0.232167	0.0687663	0.00148951	0.000565391	0.000356733	0	0	0	
0.232333	-0.00786877	-0.021897	0.000771094	0.000384218	0	0	0	
0.2325	0.0114241	0.0284738	0.000770662	0.000451128	0	0	0	
0.232667	-0.0255432	-0.0181707	0.000513488	0.000474767	0	0	0	
0.232833	0.0186078	-0.000325226	0.000392626	0.000485562	0	0	0	
0.233	0.0029545	0.00940574	0.000468567	0.000451943	0	0	0	
0.233167	-0.00578853	-0.00560611	0.000378572	0.000330534	0	0	0	
0.233333	-0.00542197	-0.00455715	0.000286984	0.000201095	0	0	0	
0.2335	0.00373946	0.00759049	0.00014258	0.000121382	0	0	0	
0.233667	0.00847312	-0.00420329	0.000151666	0.000127572	0	0	0	
0.233833	-0.00125413	-0.000921066	0.000156171	0.0001269	0	0	0	
0.234	-0.0193195	0.00294841	0.000239418	0.000105036	0	0	0	
0.234167	0.015339	0.000465498	0.000269768	8.00297E-05	0	0	0	
0.234333	-0.00131434	-0.00544715	0.000300932	7.52152E-05	0	0	0	
0.2345	0.00703961	0.00676075	0.000211394	0.000100339	0	0	0	
0.234667	-0.0154834	-0.00539898	0.000176867	0.000114371	0	0	0	
0.234833	0.0086856	0.00289681	0.000201139	0.000108487	0	0	0	
0.235	-0.000912689	-0.00204022	0.000273448	8.58651E-05	0	0	0	
0.235167	0.00461423	0.00376161	0.000242231	6.49912E-05	0	0	0	
0.235333	-0.007271	-0.00355901	0.000167968	5.76254E-05	0	0	0	
0.2355	0.00582051	0.0010624	0.000115015	7.25963E-05	0	0	0	
0.235667	-0.00833347	0.00109618	0.00013817	8.34105E-05	0	0	0	
0.235833	0.0152543	-0.00123674	0.000189181	6.37847E-05	0	0	0	
0.236	-0.0191832	4.56275E-05	0.000244306	5.19616E-05	0	0	0	
0.236167	0.0132743	0.00204907	0.000312786	3.35215E-05	0	0	0	
0.236333	-0.000156965	-0.00275681	0.000341922	4.6092E-05	0	0	0	
0.2365	-0.00541736	0.00404804	0.000304897	5.15777E-05	0	0	0	
0.236667	0.00030154	-0.00628553	0.000222693	8.09417E-05	0	0	0	
0.236833	0.0109206	0.00604125	0.000205502	0.000101742	0	0	0	
0.237	-0.0181502	-0.00426087	0.000231086	0.00010933	0	0	0	
0.237167	0.0150255	0.00187744	0.000295098	0.000112695	0	0	0	
0.237333	-0.00915532	0.000841135	0.000293071	0.000109018	0	0	0	
0.2375	0.00294447	-0.00170179	0.000287554	8.36577E-05	0	0	0	
0.237667	0.00494043	-3.50044E-05	0.000253457	6.58312E-05	0	0	0	
0.237833	-0.00166375	0.00299542	0.000178811	6.95178E-05	0	0	0	
0.238	-0.0136783	-0.00575718	0.000195788	9.6953E-05	0	0	0	
0.238167	0.0192768	0.00597622	0.000221847	0.000108223	0	0	0	
0.238333	-0.0122572	-0.00323162	0.000305652	0.000102387	0	0	0	
0.2385	0.00583392	0.000834788	0.000288957	9.70175E-05	0	0	0	
0.238667	-0.0047255	0.00097879	0.000241935	8.78127E-05	0	0	0	
0.238833	0.00174997	-0.00190425	0.000164406	6.96927E-05	0	0	0	
0.239	-0.00600378	0.000430702	0.000106771	5.13838E-05	0	0	0	
0.239167	0.0120842	0.00330005	0.000119549	5.61071E-05	0	0	0	
0.239333	-0.0160274	-0.00569114	0.000175309	7.50762E-05	0	0	0	
0.2395	0.00941506	0.00532882	0.000242062	9.62246E-05	0	0	0	
0.239667	-0.00161111	-0.00295291	0.000249472	0.000101711	0	0	0	
0.239833	-0.00368	0.000518071	0.000198635	0.000101732	0	0	0	
0.24	0.00215004	0.00234658	0.000131737	9.65967E-05	0	0	0	
0.240167	0.00870898	-0.00432433	0.000145302	7.71181E-05	0	0	0	
0.240333	-0.0194289	0.00185192	0.000241415	7.60838E-05	0	0	0	
0.2405	0.0218215	0.00195077	0.000340794	0.000107409	0	0	0	
0.240667	-0.0055433	-0.00695168	0.000395499	0.000147399	0	0	0	
0.240833	-0.00671596	0.00892699	0.000379528	0.000166788	0	0	0	
0.241	0.00466914	-0.00653972	0.00028327	0.000154643	0	0	0	
0.241167	0.00743173	0.000205546	0.000219215	0.000161339	0	0	0	
0.241333	-0.0186421	0.00558605	0.000212023	0.000174777	0	0	0	
0.2415	0.0276504	-0.0023264	0.000326604	0.000155698	0	0	0	
0.241667	-0.0238519	-0.00190976	0.000407899	9.9729E-05	0	0	0	
0.241833	0.0100047	0.000585616	0.00044367	7.31259E-05	0	0	0	
0.242	-0.00417842	0.00483961	0.000381381	0.000103282	0	0	0	
0.242167	0.00549225	-0.00487988	0.000259707	0.000123823	0	0	0	
0.242333	-0.00664671	0.00162771	0.000167161	0.000114214	0	0	0	
0.2425	0.0107511	0.0028483	0.000157295	8.56525E-05	0	0	0	
0.242667	-0.016745	-0.00692076	0.000232205	0.000113002	0	0	0	
0.242833	0.0158996	0.0141635	0.000286736	0.000153609	0	0	0	
0.243	-0.0080076	-0.0156492	0.000281271	0.000218772	0	0	0	
0.243167	0.0115849	0.00490678	0.000235098	0.000276204	0	0	0	
0.243333	-0.017117	0.00769922	0.000223481	0.000323727	0	0	0	
0.2435	0.0116281	-0.00925598	0.000255026	0.000295869	0	0	0	
0.243667	-0.000825769	0.0030373	0.000285989	0.000220787	0	0	0	
0.243833	-0.000793901	0.00332696	0.000208327	0.000153399	0	0	0	
0.244	-0.00753718	-0.00586148	0.000170595	0.000120374	0	0	0	
0.244167	0.0131969	0.00493743	0.000134011	0.000115807	0	0	0	
0.244333	-0.0102812	-0.00345094	0.000204404	9.24232E-05	0	0	0	
0.2445	0.00594851	0.00257422	0.000224411	7.95287E-05	0	0	0	
0.244667	-0.00613231	-0.00133023	0.000224508	6.35095E-05	0	0	0	
0.244833	0.00678897	0.00106577	0.000196566	4.75092E-05	0	0	0	
0.245	-0.0027369	-0.00249429	0.000186501	4.4639E-05	0	0	0	
0.245167	-0.00261463	0.00574974	0.000177636	5.57882E-05	0	0	0	
0.245333	-0.00395468	-0.00538699	0.000163135	7.93126E-05	0	0	0	
0.2455	0.0151674	0.000734944	0.000178375	0.000102304	0	0	0	
0.245667	-0.0176522	0.00495182	0.000221949	0.000120704	0	0	0	
0.245833	0.0116563	-0.00803724	0.000311209	0.000126345	0	0	0	
0.246	-0.00899285	0.00289824	0.000314053	0.00013193	0	0	0	
0.246167	0.0126661	0.00456873	0.000292054	0.000152654	0	0	0	
0.246333	-0.00702957	-0.00933858	0.000242683	0.000166415	0	0	0	
0.2465	-0.00350272	0.00872086	0.000222339	0.000174667	0	0	0	
0.246667	-0.00425009	-0.00280102	0.000163451	0.000173401	0	0	0	
0.246833	0.0164863	-0.00363997	0.000146272	0.000184932	0	0	0	
0.247	-0.0109098	0.00531119	0.000171459	0.000176126	0	0	0	
0.247167	0.00197136	-0.0051435	0.000213667	0.000139009	0	0	0	
0.247333	-0.00931762	0.00311678	0.000190361	0.00010978	0	0	0	
0.2475	0.0122272	0.00343227	0.000161917	0.000130521	0	0	0	
0.247667	-0.0091911	-0.0094493	0.000187249	0.000172567	0	0	0	
0.247833	0.00876415	0.0103981	0.000229253	0.000197509	0	0	0	
0.248	-0.0112582	-0.00677611	0.000239158	0.000185744	0	0	0	
0.248167	0.00598108	0.00462587	0.000225999	0.000161104	0	0	0	
0.248333	-0.00508849	-0.00220441	0.000197415	0.000140884	0	0	0	
0.2485	0.00731353	-0.00218036	0.000168747	0.000123044	0	0	0	
0.248667	-0.00792803	0.00477041	0.000157653	9.78709E-05	0	0	0	
0.248833	0.00706835	-0.000388352	0.000160965	9.0132E-05	0	0	0	
0.249	-0.0113918	-0.0054149	0.000185465	0.000105393	0	0	0	
0.249167	0.0194069	0.00759917	0.000228474	0.000128099	0	0	0	
0.249333	-0.0170428	-0.00467937	0.000278173	0.000134605	0	0	0	
0.2495	0.014116	0.00013668	0.000317731	0.000104625	0	0	0	
0.249667	-0.00807083	-0.000517332	0.00032799	6.87753E-05	0	0	0	
0.249833	0.000435474	0.00475546	0.00032716	6.22711E-05	0	0	0	
0.25	0.00062987	-0.00753742	0.000234574	7.97906E-05	0	0	0	
0.250167	0.00957529	0.00445992	0.000191179	0.000110123	0	0	0	
0.250333	-0.0140436	7.37963E-05	0.000160083	0.000118844	0	0	0	
0.2505	0.012129	-0.00347123	0.000220488	0.000110855	0	0	0	
0.250667	-0.015777	0.0042512	0.000244588	9.86594E-05	0	0	0	
0.250833	0.0148604	-0.0026675	0.000277625	7.87138E-05	0	0	0	
0.251	0.00321064	-0.00213256	0.000322816	8.19675E-05	0	0	0	
0.251167	-0.0040495	0.00609378	0.000252449	9.50654E-05	0	0	0	
0.251333	-0.0150598	-0.00607318	0.000255233	0.000109545	0	0	0	
0.2515	0.0196094	0.0016925	0.00023491	0.000111702	0	0	0	
0.251667	-0.00945412	0.00058464	0.000328129	0.000109754	0	0	0	
0.251833	0.00585641	-0.000919159	0.00028534	9.85331E-05	0	0	0	
0.252	-0.00512847	0.00115937	0.000224145	8.12007E-05	0	0	0	
0.252167	0.00132583	-0.00285541	0.000159838	5.58088E-05	0	0	0	
0.252333	-0.000893916	-0.000883347	0.000107301	5.73985E-05	0	0	0	
0.2525	0.00515093	0.00420986	0.000101615	7.65759E-05	0	0	0	
0.252667	-0.00954515	-0.00689689	9.82102E-05	9.85298E-05	0	0	0	
0.252833	0.0122282	0.00712143	0.00014448	0.000117192	0	0	0	
0.253	-0.0130621	-0.00637699	0.00018668	0.000123016	0	0	0	
0.253167	0.0043639	0.00299302	0.000230473	0.000134947	0	0	0	
0.253333	0.00113382	0.000591371	0.000218568	0.000143174	0	0	0	
0.2535	0.00797986	-0.00386339	0.000181261	0.000130705	0	0	0	
0.253667	-0.0137496	0.00278743	0.000159226	0.00010448	0	0	0	
0.253833	0.00721592	-0.00102829	0.00017705	7.28627E-05	0	0	0	
0.254	-0.0177263	-0.00309402	0.000216085	8.41585E-05	0	0	0	
0.254167	0.0246619	0.0121021	0.000300935	0.000132246	0	0	0	
0.254333	-0.0145778	-0.0155237	0.000348791	0.000189103	0	0	0	
0.2545	0.0055515	0.00609778	0.000335014	0.000278344	0	0	0	
0.254667	-0.0126186	0.0113425	0.000238164	0.000378598	0	0	0	
0.254833	0.0099893	-0.0158046	0.000191581	0.0004004	0	0	0	
0.255	-0.00311668	0.0100096	0.000205364	0.000350546	0	0	0	
0.255167	0.00858046	0.00171775	0.000211749	0.000293871	0	0	0	
0.255333	-0.013075	-0.0140934	0.000284353	0.000315323	0	0	0	
0.2555	0.0139445	0.0225481	0.000292746	0.000345017	0	0	0	
0.255667	-0.00437276	-0.017231	0.000292817	0.000368636	0	0	0	
0.255833	0.00142025	0.00112971	0.000187567	0.000404936	0	0	0	
0.256	-0.00801066	0.0122083	0.000129194	0.000423554	0	0	0	
0.256167	0.0130478	-0.0123209	0.000132296	0.000365415	0	0	0	
0.256333	-0.010504	0.005026	0.000175181	0.000269048	0	0	0	
0.2565	0.0100368	5.67099E-05	0.000209416	0.00019245	0	0	0	
0.256667	-0.00968681	-0.00221504	0.00020944	0.000140937	0	0	0	
0.256833	0.00655892	0.00242065	0.000188159	9.61701E-05	0	0	0	
0.257	-0.00151688	-0.00261296	0.000186601	5.78961E-05	0	0	0	
0.257167	-0.000181713	0.00393182	0.000152503	5.19132E-05	0	0	0	
0.257333	-0.00848296	-0.00369889	0.000139817	6.09125E-05	0	0	0	
0.2575	0.0142099	0.00224073	0.000145278	7.17826E-05	0	0	0	
0.257667	-0.00379356	-0.00189103	0.000205864	8.17637E-05	0	0	0	
0.257833	-0.005779	0.000933888	0.000231085	7.58721E-05	0	0	0	
0.258	-0.00154436	6.14846E-05	0.000205819	6.45396E-05	0	0	0	
0.258167	0.0155026	-0.00180869	0.000189597	5.61977E-05	0	0	0	
0.258333	-0.0195754	0.00468999	0.000220969	5.80631E-05	0	0	0	
0.2585	0.0136772	-0.0041464	0.000300538	7.12983E-05	0	0	0	
0.258667	-0.00563402	-0.00216053	0.000334057	0.000101462	0	0	0	
0.258833	0.000346101	0.00740918	0.000311302	0.000134893	0	0	0	
0.259	0.0041396	-0.00744992	0.000234673	0.000147079	0	0	0	
0.259167	-0.00365267	0.00217412	0.000151169	0.000146558	0	0	0	
0.259333	-0.0117226	0.0040411	0.000169117	0.000146997	0	0	0	
0.2595	0.0243365	-0.00607896	0.000249168	0.000144258	0	0	0	
0.259667	-0.0205795	0.00404829	0.000362365	0.000122338	0	0	0	
0.259833	0.0124182	0.000302963	0.000393163	0.000107068	0	0	0	
0.26	-0.00433586	-0.00467053	0.000373739	0.000111017	0	0	0	
0.260167	-0.00858654	0.00493284	0.00035289	0.000108703	0	0	0	
0.260333	0.0165808	0.000200508	0.000337019	0.000107815	0	0	0	
0.2605	-0.00898054	-0.00648607	0.000297709	0.000102586	0	0	0	
0.260667	-0.00691903	0.00462999	0.000259866	0.000111977	0	0	0	
0.260833	0.0184953	0.00367011	0.000224515	0.000135812	0	0	0	
0.261	-0.0170712	-0.00809582	0.000277871	0.000137775	0	0	0	
0.261167	0.00511254	0.00433669	0.000317128	0.000155539	0	0	0	
0.261333	0.000592961	0.00370355	0.000341566	0.00017673	0	0	0	
0.2615	-1.8575E-05	-0.00927276	0.000280193	0.000203603	0	0	0	
0.261667	-0.0038365	0.00789649	0.000191336	0.000199126	0	0	0	
0.261833	0.0142015	-0.00134413	0.000154621	0.00016346	0	0	0	
0.262	-0.0172709	-0.00605282	0.000204784	0.000155405	0	0	0	
0.262167	0.00892166	0.00983544	0.000276552	0.000154074	0	0	0	
0.262333	-0.0044752	-0.00734932	0.00028188	0.000164772	0	0	0	
0.2625	0.00393356	0.001008	0.000212244	0.00017854	0	0	0	
0.262667	-0.0043785	0.00400399	0.000136736	0.000196802	0	0	0	
0.262833	0.00644978	-0.00554351	9.94478E-05	0.000169113	0	0	0	
0.263	-0.00941526	0.00141918	0.000117769	0.000130912	0	0	0	
0.263167	0.00443239	0.00481621	0.000139857	0.000116688	0	0	0	
0.263333	-0.00490559	-0.00685145	0.000134137	0.000121452	0	0	0	
0.2635	0.0123991	0.00334258	0.000131352	0.000123842	0	0	0	
0.263667	-0.0125069	-0.000638254	0.000164122	0.000103824	0	0	0	
0.263833	0.005977	0.0010408	0.000208565	7.86993E-05	0	0	0	
0.264	-0.0086512	-0.00192966	0.000207634	5.26002E-05	0	0	0	
0.264167	0.00902145	0.000284536	0.000183209	3.07942E-05	0	0	0	
0.264333	-0.00522033	0.00104281	0.000169215	2.60762E-05	0	0	0	
0.2645	0.00640158	0.00127789	0.000155299	3.32829E-05	0	0	0	
0.264667	-0.014074	-0.00550616	0.000158994	5.29037E-05	0	0	0	
0.264833	0.0132195	0.00582144	0.000184984	8.05695E-05	0	0	0	
0.265	-0.00389851	-0.00399012	0.000251337	9.76025E-05	0	0	0	
0.265167	-0.002774	0.00138923	0.000272862	8.9222E-05	0	0	0	
0.265333	-0.00373651	-0.00160985	0.000233874	6.60983E-05	0	0	0	
0.2655	0.00748518	0.00175779	0.000169948	4.77939E-05	0	0	0	
0.265667	-0.0128821	-0.00133258	0.000151487	4.26864E-05	0	0	0	
0.265833	0.0176119	0.00128149	0.00020381	5.45485E-05	0	0	0	
0.266	-0.0130291	-0.00419126	0.000284089	7.79696E-05	0	0	0	
0.266167	0.00926084	0.0064541	0.000322719	0.000103728	0	0	0	
0.266333	-0.0113593	-0.00384223	0.000328607	0.000109311	0	0	0	
0.2665	0.005805	0.00149143	0.000311846	0.000100513	0	0	0	
0.266667	-0.00266393	-0.000435725	0.000249895	6.80243E-05	0	0	0	
0.266833	0.0160792	0.0003175	0.000234947	4.09988E-05	0	0	0	
0.267	-0.0230098	0.000428141	0.000258652	2.14612E-05	0	0	0	
0.267167	6.15187E-05	-0.00181487	0.000345503	3.33288E-05	0	0	0	
0.267333	0.0124525	0.00346198	0.000323942	5.97156E-05	0	0	0	
0.2675	0.00855371	-0.000897321	0.000307135	6.69385E-05	0	0	0	
0.267667	-0.0179367	-0.00849397	0.000266996	0.000138459	0	0	0	
0.267833	0.00486033	0.0162852	0.000304802	0.000213719	0	0	0	
0.268	-0.00578143	-0.0138627	0.000237258	0.000284265	0	0	0	
0.268167	0.0196347	0.00577112	0.00023793	0.000284203	0	0	0	
0.268333	-0.00776615	-0.00203185	0.000236318	0.000270938	0	0	0	
0.2685	-0.00939354	-0.00329677	0.000363458	0.000265545	0	0	0	
0.268667	0.00334132	0.0106494	0.000314934	0.000224825	0	0	0	
0.268833	0.013038	-0.00843457	0.000289583	0.000203454	0	0	0	
0.269	-0.0115581	-0.0040265	0.000193342	0.000228072	0	0	0	
0.269167	0.00415881	0.0113794	0.000208023	0.000264062	0	0	0	
0.269333	-0.00786138	-0.0120517	0.000183048	0.00026006	0	0	0	
0.2695	0.0152589	0.00617425	0.000183764	0.000227365	0	0	0	
0.269667	-0.0169946	7.32276E-05	0.000228801	0.000197034	0	0	0	
0.269833	0.0131821	-0.00130795	0.000298925	0.000162689	0	0	0	
0.27	-0.00408801	0.000431664	0.000319859	9.73442E-05	0	0	0	
0.270167	0.00408457	1.44545E-05	0.00026357	4.36409E-05	0	0	0	
0.270333	-0.00935853	0.00165737	0.000188873	2.04237E-05	0	0	0	
0.2705	0.0107707	-0.00222809	0.00016006	2.22587E-05	0	0	0	
0.270667	-0.0035619	-0.000179549	0.000176579	5.68722E-05	0	0	0	
0.270833	0.0116735	0.00665087	0.000174005	9.62271E-05	0	0	0	
0.271	-0.0228781	-0.00677925	0.000216628	0.00012619	0	0	0	
0.271167	0.0220938	0.00263059	0.000303777	0.000129699	0	0	0	
0.271333	-0.00785442	0.000370273	0.000368147	0.000127102	0	0	0	
0.2715	0.00239331	-0.00236298	0.000323971	0.000112461	0	0	0	
0.271667	-0.00351497	0.00465399	0.00020331	9.57055E-05	0	0	0	
0.271833	0.00684886	-0.00382597	0.000119249	8.04564E-05	0	0	0	
0.272	-0.0121667	0.00127224	0.000119304	7.19124E-05	0	0	0	
0.272167	0.0220644	-0.000744828	0.000212015	5.91973E-05	0	0	0	
0.272333	-0.0199332	0.000370555	0.000313442	3.36939E-05	0	0	0	
0.2725	0.00308867	0.00350985	0.000415294	5.09263E-05	0	0	0	
0.272667	0.00578349	-0.00842074	0.000469802	9.61381E-05	0	0	0	
0.272833	0.00277096	0.00737985	0.000359867	0.000137223	0	0	0	
0.273	-0.0104843	-0.00200436	0.000240949	0.000158163	0	0	0	
0.273167	0.00545753	-0.0014462	0.000144449	0.000148206	0	0	0	
0.273333	-0.00543549	0.00356121	0.000176471	0.000135982	0	0	0	
0.2735	0.0210763	-0.00514909	0.000206414	0.000107975	0	0	0	
0.273667	-0.0271477	0.00472604	0.000297849	9.37211E-05	0	0	0	
0.273833	0.00772107	0.000153925	0.000420475	0.00010313	0	0	0	
0.274	-0.00271698	-0.00349889	0.000418086	9.69365E-05	0	0	0	
0.274167	0.0078281	0.00278801	0.000282562	8.4142E-05	0	0	0	
0.274333	-0.0111933	-0.000311678	0.000168991	6.09229E-05	0	0	0	
0.2745	0.0101691	0.00030067	0.000159913	4.11267E-05	0	0	0	
0.274667	-0.00933874	-0.00346631	0.000189653	3.52196E-05	0	0	0	
0.274833	0.0128421	0.00461673	0.000205784	4.37486E-05	0	0	0	
0.275	-0.0143132	-0.00117874	0.000211449	8.88951E-05	0	0	0	
0.275167	0.00525143	-0.0036263	0.00022764	0.000122493	0	0	0	
0.275333	-0.0016865	0.00793824	0.000181063	0.00013491	0	0	0	
0.2755	0.0283828	-0.00782104	0.000215034	0.000142363	0	0	0	
0.275667	-0.111141	-0.00164325	0.0006181	0.000302092	0	0	0	
0.275833	0.134366	-0.0170351	0.00128311	0.00060799	0	0	0	
0.276	-0.0371123	-0.00800011	0.00179047	0.000756286	0	0	0	
0.276167	0.00356554	0.00674129	0.00155662	0.000590616	0	0	0	
0.276333	-0.00703086	-0.00221311	0.000948575	0.000297621	0	0	0	
0.2765	0.013338	-0.00391335	0.00041059	0.00014964	0	0	0	
0.276667	-0.0507488	0.0131164	0.00036001	0.000151365	0	0	0	
0.276833	0.0432333	-0.0320966	0.000862513	0.000240596	0	0	0	
0.277	-0.0837194	0.0205607	0.00157449	0.000460446	0	0	0	
0.277167	0.0499742	-0.00183677	0.00171334	0.000464152	0	0	0	
0.277333	-0.0232089	-0.00192569	0.00137679	0.000340258	0	0	0	
0.2775	0.00722736	0.00252065	0.0008172	8.18902E-05	0	0	0	
0.277667	-0.000561891	-0.00709491	0.000578722	6.87428E-05	0	0	0	
0.277833	0.00623763	0.0135688	0.00036964	0.000119741	0	0	0	
0.278	-0.00526052	-0.014989	0.000229997	0.000189914	0	0	0	
0.278167	0.00329133	0.00791918	0.000237211	0.000240189	0	0	0	
0.278333	-0.00930825	0.00350829	0.000275426	0.000253701	0	0	0	
0.2785	0.00800976	-0.00838619	0.000293599	0.000208975	0	0	0	
0.278667	0.00556155	0.00163672	0.000295313	0.000168728	0	0	0	
0.278833	-0.0431304	0.0157957	0.000394739	0.000124823	0	0	0	
0.279	0.0187576	-0.0215577	0.000867822	0.000275434	0	0	0	
0.279167	-0.04135	0.0336609	0.000959816	0.000435085	0	0	0	
0.279333	-0.0102908	-0.0105034	0.000965525	0.000507642	0	0	0	
0.2795	-0.000348536	0.00539668	0.000525815	0.000382957	0	0	0	
0.279667	0.0147068	-0.00298992	0.000475535	0.000223612	0	0	0	
0.279833	-0.0259527	0.00408367	0.000411128	0.00014896	0	0	0	
0.28	0.0744318	-0.0173265	0.000784743	0.000201208	0	0	0	
0.280167	-0.0100331	0.00495303	0.00095352	0.000206038	0	0	0	
0.280333	-0.0184723	0.0063982	0.00110535	0.00027271	0	0	0	
0.2805	0.0107568	0.00207549	0.000691437	0.000236232	0	0	0	
0.280667	-0.00626503	-0.00509143	0.00042629	0.000234321	0	0	0	
0.280833	-0.00423736	0.00392323	0.000219713	0.000161728	0	0	0	
0.281	-0.00315163	-0.00354928	0.000136434	9.57512E-05	0	0	0	
0.281167	0.0200821	0.00294531	0.000189386	8.27239E-05	0	0	0	
0.281333	-0.0385113	0.00452838	0.000379114	0.000123005	0	0	0	
0.2815	-0.000745545	0.0013391	0.000434581	0.00016954	0	0	0	
0.281667	-0.00264257	-0.00329379	0.00039894	0.00016233	0	0	0	
0.281833	0.0168612	0.0038213	0.000247444	0.000120346	0	0	0	
0.282	-0.0112006	-0.00149732	0.000271394	8.69618E-05	0	0	0	
0.282167	-0.00190475	0.000528646	0.000313713	8.91716E-05	0	0	0	
0.282333	-0.0117469	0.00219688	0.000259287	8.06132E-05	0	0	0	
0.2825	-0.0128318	0.00574918	0.000357755	9.02491E-05	0	0	0	
0.282667	0.00782756	-0.00486112	0.000306224	9.47805E-05	0	0	0	
0.282833	0.00604642	0.00496642	0.00033374	0.000105326	0	0	0	
0.283	-0.0220931	-0.00416384	0.000267128	9.4925E-05	0	0	0	
0.283167	0.0173125	-0.000211128	0.000326729	0.000102805	0	0	0	
0.283333	-0.000175087	0.00671435	0.00038345	0.000129302	0	0	0	
0.2835	-0.00117945	-0.0101653	0.000293552	0.000145197	0	0	0	
0.283667	0.00128726	0.00285395	0.000176952	0.000156724	0	0	0	
0.283833	-0.00116092	0.00540527	5.10141E-05	0.000172347	0	0	0	
0.284	-0.0058022	-0.00905633	6.39454E-05	0.000187661	0	0	0	
0.284167	0.0128576	0.0097783	0.000134008	0.000187765	0	0	0	
0.284333	-0.013316	-0.00636275	0.000202077	0.000183413	0	0	0	
0.2845	0.0166649	-0.00258959	0.000250477	0.000220176	0	0	0	
0.284667	-0.010424	0.00906638	0.000321711	0.000246181	0	0	0	
0.284833	-0.00619323	-0.0063034	0.000428757	0.000223218	0	0	0	
0.285	0.0149503	0.00400272	0.000430332	0.000161493	0	0	0	
0.285167	-0.000976138	-0.00112944	0.000340057	0.00013082	0	0	0	
0.285333	-0.0145247	-0.00700001	0.000244445	0.000168967	0	0	0	
0.2855	0.0170991	0.0157663	0.000236383	0.000213918	0	0	0	
0.285667	-0.0079554	-0.0121078	0.000302701	0.000251833	0	0	0	
0.285833	0.0104837	0.000456398	0.000294256	0.000278719	0	0	0	
0.286	-0.0129748	0.00674237	0.000276444	0.000277675	0	0	0	
0.286167	0.00406752	-0.0090138	0.000282441	0.000236887	0	0	0	
0.286333	0.00406779	0.00849402	0.000286012	0.000183094	0	0	0	
0.2865	0.0118659	-0.00119398	0.000279304	0.000178309	0	0	0	
0.286667	-0.0245391	-0.0104207	0.000260209	0.000236898	0	0	0	
0.286833	0.013926	0.0155678	0.000328554	0.000264415	0	0	0	
0.287	0.00013765	-0.00959864	0.000382557	0.000273733	0	0	0	
0.287167	0.00487426	-0.00095706	0.000301383	0.000271153	0	0	0	
0.287333	-0.00857618	0.00648471	0.00021432	0.000269096	0	0	0	
0.2875	0.0112061	-0.00607735	0.00014651	0.000231216	0	0	0	
0.287667	-0.00785929	0.00222241	0.000186276	0.000151028	0	0	0	
0.287833	0.00477491	0.0011828	0.000175993	9.65695E-05	0	0	0	
0.288	-0.00566773	-0.00414166	0.000161709	7.03472E-05	0	0	0	
0.288167	0.0114858	0.00344479	0.000153522	7.17741E-05	0	0	0	
0.288333	-0.0134206	-0.00216839	0.000179809	6.26555E-05	0	0	0	
0.2885	0.00882138	0.00329816	0.000208014	5.83939E-05	0	0	0	
0.288667	-0.0047695	-0.00455281	0.000213581	6.11656E-05	0	0	0	
0.288833	0.00507347	0.0021858	0.000173365	7.05535E-05	0	0	0	
0.289	-0.010756	6.38533E-05	0.000157137	7.68767E-05	0	0	0	
0.289167	0.0123988	-0.000343849	0.000166812	5.8431E-05	0	0	0	
0.289333	-0.0081254	-0.00060613	0.000202566	3.6624E-05	0	0	0	
0.2895	0.00295499	0.00199722	0.000199894	2.20297E-05	0	0	0	
0.289667	-0.0049507	-0.00267255	0.000156504	3.00848E-05	0	0	0	
0.289833	0.010307	0.00373735	0.000129145	4.31818E-05	0	0	0	
0.29	-0.0120863	-0.00202226	0.000143893	6.12635E-05	0	0	0	
0.290167	0.00934983	-0.00315839	0.00018783	9.34118E-05	0	0	0	
0.290333	-0.00769009	0.00470062	0.000200781	9.90425E-05	0	0	0	
0.2905	0.0063881	0.0016328	0.000202801	0.000117711	0	0	0	
0.290667	-0.00260275	-0.00745588	0.000190238	0.00012487	0	0	0	
0.290833	0.00321815	0.00706632	0.000163056	0.000139779	0	0	0	
0.291	-0.00768803	-0.00524559	0.000129587	0.000138771	0	0	0	
0.291167	0.0143173	0.00217185	0.000135476	0.000125336	0	0	0	
0.291333	-0.0120186	0.00188961	0.000201186	0.000132425	0	0	0	
0.2915	0.00650191	-0.00413396	0.000258998	0.000117073	0	0	0	
0.291667	-0.00310899	0.00145854	0.000262482	9.39836E-05	0	0	0	
0.291833	0.00256122	0.00149119	0.00020035	8.14105E-05	0	0	0	
0.292	-0.00578178	-0.00451266	0.000146901	7.55159E-05	0	0	0	
0.292167	0.0129185	0.00363956	0.000134114	8.31605E-05	0	0	0	
0.292333	-0.014913	-0.00371946	0.000190056	7.04821E-05	0	0	0	
0.2925	0.00768723	0.00455942	0.000237382	7.39814E-05	0	0	0	
0.292667	-0.00393151	-0.00306569	0.000246391	7.69318E-05	0	0	0	
0.292833	0.00297726	0.000271497	0.000185911	8.77461E-05	0	0	0	
0.293	-0.00186138	0.00134599	0.000119757	8.22065E-05	0	0	0	
0.293167	-0.000423226	0.000355919	7.01923E-05	6.22608E-05	0	0	0	
0.293333	-0.00455236	-0.00452743	7.59052E-05	5.96288E-05	0	0	0	
0.2935	0.0167075	0.00630286	0.00012908	7.32594E-05	0	0	0	
0.293667	-0.0140971	-0.00325803	0.000222528	9.56446E-05	0	0	0	
0.293833	-0.00893033	-0.00210763	0.000341862	0.000100182	0	0	0	
0.294	0.0115079	0.00309443	0.000344103	8.21032E-05	0	0	0	
0.294167	0.00229537	-6.83523E-06	0.000329939	7.27474E-05	0	0	0	
0.294333	-0.0141386	-0.00559033	0.000253944	6.78431E-05	0	0	0	
0.2945	0.00701454	0.0113096	0.000241761	0.000103991	0	0	0	
0.294667	-0.0116914	-0.0116689	0.000208416	0.000155579	0	0	0	
0.294833	0.00794279	0.00319914	0.000194658	0.00023122	0	0	0	
0.295	-0.00352149	0.00979288	0.000222924	0.000305816	0	0	0	
0.295167	-0.00762229	-0.0144551	0.000271067	0.000315967	0	0	0	
0.295333	-0.00113954	0.00796765	0.000236794	0.000283675	0	0	0	
0.2955	0.0166106	0.00379067	0.000246312	0.00024565	0	0	0	
0.295667	-0.0114809	-0.0126499	0.000206537	0.000265142	0	0	0	
0.295833	-0.0027554	0.0198036	0.000265732	0.000300718	0	0	0	
0.296	-0.00143992	-0.016922	0.000176907	0.00032188	0	0	0	
0.296167	0.0101651	0.00550157	0.000150167	0.00033841	0	0	0	
0.296333	-0.00895061	0.00604335	0.00012619	0.000358586	0	0	0	
0.2965	0.00750428	-0.0115602	0.000172101	0.000330426	0	0	0	
0.296667	-0.0104078	0.0104692	0.000184764	0.00027246	0	0	0	
0.296833	0.0110595	-0.00274633	0.000187242	0.000214844	0	0	0	
0.297	-0.00274015	-0.00506687	0.000180564	0.000216374	0	0	0	
0.297167	3.53643E-05	0.00897632	0.000147003	0.000220992	0	0	0	
0.297333	-0.00793003	-0.00933309	9.84746E-05	0.000207802	0	0	0	
0.2975	0.0151188	0.00688292	0.000115946	0.000173601	0	0	0	
0.297667	-0.00866279	-0.00343008	0.000184362	0.000146031	0	0	0	
0.297833	-0.00138049	0.000235366	0.00024357	0.000128354	0	0	0	
0.298	0.000373541	0.000851638	0.000194966	0.000107481	0	0	0	
0.298167	0.0117869	-0.0017606	0.000188169	8.77591E-05	0	0	0	
0.298333	-0.0174218	0.00355752	0.000192667	6.7138E-05	0	0	0	
0.2985	0.0117279	-0.00423206	0.000292768	6.21205E-05	0	0	0	
0.298667	-0.00665932	-0.000971409	0.000315575	9.81249E-05	0	0	0	
0.298833	0.00747337	0.0095663	0.000304085	0.00015337	0	0	0	
0.299	-0.0107808	-0.0153482	0.000263835	0.000204518	0	0	0	
0.299167	0.00385223	0.0116102	0.000218746	0.000238162	0	0	0	
0.299333	-0.00169724	-0.00223993	0.000170851	0.000280853	0	0	0	
0.2995	0.0137617	-0.00755538	0.000172113	0.000320955	0	0	0	
0.299667	-0.0260011	0.0105236	0.000232797	0.00029298	0	0	0	
0.299833	0.0181179	-0.00392774	0.000359317	0.000232974	0	0	0	
0.3	-0.00731017	-0.0072162	0.000409526	0.000205822	0	0	0	
0.300167	0.00620545	0.0135292	0.000342195	0.000225609	0	0	0	
0.300333	-0.00838007	-0.0138201	0.000233361	0.000246967	0	0	0	
0.3005	7.13072E-05	0.00722865	0.000129476	0.000253195	0	0	0	
0.300667	-0.00475278	0.00353248	0.000114728	0.000281837	0	0	0	
0.300833	0.0169726	-0.00589104	0.000237054	0.000284942	0	0	0	
0.301	-0.0294207	0.00507218	0.000359162	0.000219057	0	0	0	
0.301167	0.0291964	0.00310546	0.000517545	0.000139255	0	0	0	
0.301333	-0.0134278	-0.00584898	0.000483489	8.99706E-05	0	0	0	
0.3015	0.00835307	0.000731049	0.000415337	0.000115243	0	0	0	
0.301667	0.000478594	0.00220864	0.000287917	0.000139759	0	0	0	
0.301833	-0.00757613	0.00235738	0.00017871	0.000126577	0	0	0	
0.302	-0.00460571	-0.00405327	0.000201233	0.000103796	0	0	0	
0.302167	0.0288461	0.00515811	0.000269591	7.01852E-05	0	0	0	
0.302333	-0.0221942	-0.00699326	0.000421401	0.000104357	0	0	0	
0.3025	0.0129671	0.00317171	0.000432001	0.000124306	0	0	0	
0.302667	-0.00284592	0.00026184	0.000396158	0.000166374	0	0	0	
0.302833	-0.000208105	-0.00453919	0.000284254	0.000158922	0	0	0	
0.303	-0.00305047	0.00370152	0.000182072	0.000133244	0	0	0	
0.303167	0.0121205	0.00341359	0.000136815	0.000127415	0	0	0	
0.303333	-0.0181492	-0.00807161	0.000169062	0.000127635	0	0	0	
0.3035	0.0211143	0.00628605	0.000270461	0.000146548	0	0	0	
0.303667	-0.0141034	-0.000949353	0.000345067	0.000149924	0	0	0	
0.303833	0.0034933	-0.00287409	0.00038184	0.000156485	0	0	0	
0.304	-0.000456772	0.00312928	0.000349261	0.000133718	0	0	0	
0.304167	0.00564158	-0.000399339	0.000249894	8.95425E-05	0	0	0	
0.304333	-0.00919816	-0.00205384	0.000162568	6.02199E-05	0	0	0	
0.3045	0.0102847	0.00390826	0.00014647	5.82378E-05	0	0	0	
0.304667	-0.0115757	-0.00482991	0.000184466	6.87195E-05	0	0	0	
0.304833	0.0125998	0.00302079	0.000213502	7.87385E-05	0	0	0	
0.305	-0.0131804	0.000746416	0.000246541	9.64279E-05	0	0	0	
0.305167	0.00865828	-0.0023966	0.000275101	8.99767E-05	0	0	0	
0.305333	-0.00253272	-1.30947E-05	0.000284792	6.44851E-05	0	0	0	
0.3055	0.00456474	0.00218024	0.000225466	3.78725E-05	0	0	0	
0.305667	-0.00715029	-0.00194258	0.00016386	3.10001E-05	0	0	0	
0.305833	0.00441215	0.00236667	0.000126174	3.98786E-05	0	0	0	
0.306	-0.00555099	-0.00453563	0.000124891	5.20279E-05	0	0	0	
0.306167	0.0125327	0.00357759	0.000140716	6.54961E-05	0	0	0	
0.306333	-0.0155486	0.00188193	0.000192532	0.000103015	0	0	0	
0.3065	0.0025739	-0.0061805	0.00026771	0.000123637	0	0	0	
0.306667	0.00367094	0.00325946	0.000275971	0.000125194	0	0	0	
0.306833	0.00649331	0.00251058	0.000234069	0.000121771	0	0	0	
0.307	-0.0190929	-0.00519286	0.00021281	0.000113392	0	0	0	
0.307167	0.0141148	0.00437549	0.00025716	0.000111681	0	0	0	
0.307333	-0.00156653	-0.00387262	0.000332392	9.38001E-05	0	0	0	
0.3075	0.00235084	0.00245756	0.000287569	0.000102326	0	0	0	
0.307667	-0.00717459	-7.06358E-05	0.00021022	0.000126226	0	0	0	
0.307833	-0.000198029	-0.00247521	0.000152164	0.000132441	0	0	0	
0.308	0.00546035	0.00342154	0.000138336	0.000113036	0	0	0	
0.308167	0.00889495	-0.00414214	0.000188121	8.39626E-05	0	0	0	
0.308333	-0.0143408	0.00119212	0.000184718	7.13603E-05	0	0	0	
0.3085	0.0030936	0.00420547	0.00026123	9.10485E-05	0	0	0	
0.308667	0.00116897	-0.00880258	0.000232098	0.00011714	0	0	0	
0.308833	0.00975221	0.00941323	0.00020128	0.000145757	0	0	0	
0.309	-0.0109945	-0.00574893	0.000154323	0.000160208	0	0	0	
0.309167	0.00413172	-0.000911976	0.00017823	0.000182725	0	0	0	
0.309333	-0.00274759	0.00615942	0.000166526	0.000194847	0	0	0	
0.3095	0.00711224	-0.00660507	0.000142481	0.000177493	0	0	0	
0.309667	-0.0059864	0.000936644	0.000102638	0.000141744	0	0	0	
0.309833	0.00660056	0.00403532	0.000116919	0.000120876	0	0	0	
0.31	-0.0120416	-0.00478877	0.000137066	0.000114084	0	0	0	
0.310167	0.0123062	0.0056451	0.000187797	0.00011343	0	0	0	
0.310333	0.0121654	-0.0113048	0.000247864	0.000118006	0	0	0	
0.3105	-0.132595	0.0317379	0.000708991	0.000245014	0	0	0	
0.310667	0.0316706	-0.00825444	0.00148753	0.000376058	0	0	0	
0.310833	-0.00836716	0.000967413	0.00147674	0.000356448	0	0	0	
0.311	-0.0164819	0.00142262	0.00110098	0.000204981	0	0	0	
0.311167	0.0227721	-0.00170301	0.000348349	5.01681E-05	0	0	0	
0.311333	-0.0471887	0.00744321	0.000499362	5.81205E-05	0	0	0	
0.3115	0.00223178	0.00634214	0.000475755	7.9375E-05	0	0	0	
0.311667	-0.00194884	-0.0098869	0.000402665	0.000117904	0	0	0	
0.311833	0.0146523	0.00644758	0.000243788	0.00013827	0	0	0	
0.312	-0.00526038	-0.00131412	0.000226766	0.000168221	0	0	0	
0.312167	-0.000620732	-0.00107308	0.000260573	0.000153935	0	0	0	
0.312333	-0.00286353	0.000712847	0.000202062	0.000105271	0	0	0	
0.3125	0.0049765	0.00117137	0.000144009	4.86401E-05	0	0	0	
0.312667	0.000121267	-0.00203913	9.79131E-05	3.32268E-05	0	0	0	
0.312833	0.0130722	0.00339062	0.000110563	5.04118E-05	0	0	0	
0.313	-0.0172589	-0.00460665	0.000162444	7.63011E-05	0	0	0	
0.313167	0.013665	0.00263756	0.000233111	7.8717E-05	0	0	0	
0.313333	-0.0114101	-0.000806585	0.000281767	6.30211E-05	0	0	0	
0.3135	0.0124958	0.00175225	0.000263272	4.55585E-05	0	0	0	
0.313667	-0.0100901	-0.00234692	0.000248183	4.76446E-05	0	0	0	
0.313833	0.0125737	-0.000840204	0.000234589	7.60564E-05	0	0	0	
0.314	-0.0115648	0.00363777	0.000221241	0.000102412	0	0	0	
0.314167	0.00027794	-0.00337672	0.000261816	9.74785E-05	0	0	0	
0.314333	0.00530701	-7.99144E-05	0.000281024	8.30008E-05	0	0	0	
0.3145	0.0039262	0.00340601	0.000246359	6.08034E-05	0	0	0	
0.314667	-0.0106039	-0.00412626	0.000181657	6.58417E-05	0	0	0	
0.314833	0.00644372	0.00218329	0.000134449	7.19989E-05	0	0	0	
0.315	-0.00454339	-0.00186864	0.000163696	0.000101238	0	0	0	
0.315167	0.00067955	-0.00152404	0.000154898	0.000116429	0	0	0	
0.315333	0.00222309	0.00204896	0.000165869	0.000105523	0	0	0	
0.3155	0.000735475	-0.000553151	0.00011271	6.59685E-05	0	0	0	
0.315667	-0.0126539	-0.0019624	0.000121593	4.57978E-05	0	0	0	
0.315833	0.0182925	0.00491618	0.000159019	4.41079E-05	0	0	0	
0.316	-0.0146545	-0.00523121	0.000284842	7.01339E-05	0	0	0	
0.316167	-0.00404417	0.00210067	0.000360982	8.45972E-05	0	0	0	
0.316333	0.00760862	-0.000874869	0.000346928	0.000102138	0	0	0	
0.3165	0.00297907	-0.00105849	0.000242816	9.4528E-05	0	0	0	
0.316667	-0.0154641	0.00118361	0.000177782	6.83365E-05	0	0	0	
0.316833	0.0178991	0.000726097	0.000199578	4.25975E-05	0	0	0	
0.317	-0.0150758	-0.0027399	0.000290634	2.95124E-05	0	0	0	
0.317167	0.0060562	0.0023873	0.000327303	4.47865E-05	0	0	0	
0.317333	-0.000227707	-0.000423057	0.000301557	5.94191E-05	0	0	0	
0.3175	0.00315966	-0.0017819	0.000213933	5.89734E-05	0	0	0	
0.317667	-0.00702205	0.000183963	0.000141368	4.6959E-05	0	0	0	
0.317833	0.00950055	0.00064047	0.00013814	2.29406E-05	0	0	0	
0.318	-0.0182743	0.00174911	0.00020122	2.71229E-05	0	0	0	
0.318167	0.0183923	0.0018516	0.000287027	3.54689E-05	0	0	0	
0.318333	0.000472012	-0.00258535	0.000349394	4.86006E-05	0	0	0	
0.3185	-0.0147327	0.00186381	0.000316159	5.78426E-05	0	0	0	
0.318667	-0.00746689	0.00152731	0.000314134	6.97084E-05	0	0	0	
0.318833	0.0231829	-0.0017636	0.000289508	7.36776E-05	0	0	0	
0.319	-0.00848415	0.00226238	0.00034234	6.14088E-05	0	0	0	
0.319167	-0.00422365	-0.00147122	0.000312696	4.40826E-05	0	0	0	
