0	-0.00132922	-0.000529545	1.32922E-07	5.29545E-08	0	5	0	
0.000166667	-0.000958443	0.000866396	1.99503E-05	9.37439E-06	0	5	0	
0.000333333	0.00287989	0.00103695	7.97672E-05	2.38371E-05	0	5	0	
0.0005	-0.0142066	-0.000315266	0.0001426	4.13086E-05	0	5	0	
0.000666667	0.00924814	0.00103005	0.000195705	4.68863E-05	0	5	0	
0.000833333	0.000770799	7.79971E-05	0.000250023	4.78624E-05	0	5	0	
0.001	-0.00963713	0.0014023	0.000297054	4.44173E-05	0	5	0	
0.00116667	0.00684353	0.000219196	0.000279894	4.34431E-05	0	5	0	
0.00133333	-0.0100497	0.000649072	0.000241144	3.96542E-05	0	5	0	
0.0015	0.00122597	0.00257217	0.000208231	4.8565E-05	0	5	0	
0.00166667	0.00128488	-0.000114583	0.000255584	5.82173E-05	0	5	0	
0.00183333	-0.0163332	0.00317599	0.000269256	7.45208E-05	0	5	0	
0.002	0.0135635	-0.00160138	0.000282663	7.455E-05	0	5	0	
0.00216667	-0.00233071	0.00296429	0.000309491	7.94924E-05	0	5	0	
0.00233333	-0.0213022	-0.000934572	0.000354135	8.26852E-05	0	5	0	
0.0025	0.0255107	0.00251955	0.000406574	9.34332E-05	0	5	0	
0.00266667	-0.0132536	-0.000405975	0.000442849	8.74012E-05	0	5	0	
0.00283333	-0.0121021	0.004219	0.000509918	8.44123E-05	0	5	0	
0.003	0.0199595	-0.00130584	0.00052447	7.21424E-05	0	5	0	
0.00316667	-0.0207342	0.00255164	0.000468867	6.84039E-05	0	5	0	
0.00333333	0.00883171	-0.00106848	0.000391937	5.93326E-05	0	5	0	
0.0035	-0.00039802	0.00265987	0.000370559	6.70285E-05	0	5	0	
0.00366667	-0.0107662	-0.000556504	0.000382844	7.71197E-05	0	5	0	
0.00383333	0.0145913	0.00290375	0.000356716	8.87456E-05	0	5	0	
0.004	-0.0141091	0.000857698	0.000306627	7.57896E-05	0	5	0	
0.00416667	0.00329155	0.00223471	0.000280598	6.77913E-05	0	5	0	
0.00433333	0.0058533	-0.00120296	0.000248748	6.02079E-05	0	5	0	
0.0045	-0.00490168	0.00312552	0.000203337	7.6748E-05	0	5	0	
0.00466667	-0.00284054	-0.000550214	0.000131578	8.31826E-05	0	5	0	
0.00483333	-0.00636967	0.00284663	0.000110964	8.86704E-05	0	5	0	
0.005	0.00638824	0.000858347	0.000133387	7.39567E-05	0	5	0	
0.00516667	-0.00529763	0.00213436	0.000137384	6.75123E-05	0	5	0	
0.00533333	0.00214849	-0.0013175	0.000150462	5.89252E-05	0	5	0	
0.0055	-0.00232715	0.00236115	0.000156132	6.46895E-05	0	5	0	
0.00566667	0.00193011	-0.000703131	0.000171369	6.42753E-05	0	5	0	
0.00583333	-0.00342187	0.00289023	0.000152151	6.91346E-05	0	5	0	
0.006	-0.00116764	-0.000506597	0.000125817	6.899E-05	0	5	0	
0.00616667	-0.00869225	0.0023229	0.000114134	7.97989E-05	0	5	0	
0.00633333	0.00572121	-9.36597E-05	0.000122976	8.23574E-05	0	5	0	
0.0065	-0.00708006	0.00154912	0.000122099	8.49085E-05	0	5	0	
0.00666667	0.00296228	-0.00121129	0.000128311	7.83828E-05	0	5	0	
0.00683333	0.000879199	0.00283369	0.000105586	7.5545E-05	0	5	0	
0.007	-0.00123985	-0.0012342	8.7636E-05	6.99593E-05	0	5	0	
0.00716667	0.00484406	0.00346918	0.000110554	7.38071E-05	0	5	0	
0.00733333	-0.0187629	-0.00180299	0.00016709	7.66933E-05	0	5	0	
0.0075	0.0137012	0.00297566	0.000243176	8.71046E-05	0	5	0	
0.00766667	-0.00308833	-0.000486718	0.000296622	8.30557E-05	0	5	0	
0.00783333	-0.0074566	0.00190257	0.000281914	7.55423E-05	0	5	0	
0.008	0.00382306	-0.000694831	0.000231891	5.77762E-05	0	5	0	
0.00816667	-0.00869294	0.0031016	0.000145239	5.5838E-05	0	5	0	
0.00833333	0.00871165	-0.000552685	0.000148332	5.31349E-05	0	5	0	
0.0085	0.000103888	0.00250324	0.000209169	6.43029E-05	0	5	0	
0.00866667	-0.00877248	0.000211713	0.000274155	6.45355E-05	0	5	0	
0.00883333	0.00334371	0.00280779	0.000238301	7.72708E-05	0	5	0	
0.009	-0.00961546	-0.000719627	0.00019564	7.84189E-05	0	5	0	
0.00916667	-0.000131073	0.00199073	0.000142278	8.26311E-05	0	5	0	
0.00933333	-0.000111146	7.48282E-05	0.000116962	7.57983E-05	0	5	0	
0.0095	-0.00121207	0.00298959	5.36431E-05	7.96606E-05	0	5	0	
0.00966667	-0.00186493	-0.00138117	2.4258E-05	7.84005E-05	0	5	0	
0.00983333	0.000775664	0.00327485	2.51377E-05	8.59526E-05	0	5	0	
0.01	-0.00544316	-0.000645816	4.56235E-05	7.73519E-05	0	5	0	
0.0101667	0.00181311	0.00266947	6.35381E-05	7.71461E-05	0	5	0	
0.0103333	-0.0023629	2.51104E-05	6.38582E-05	6.64007E-05	0	5	0	
0.0105	-0.000146982	0.00190848	4.67775E-05	6.99578E-05	0	5	0	
0.0106667	-0.00197253	-0.000792587	2.93016E-05	6.60642E-05	0	5	0	
0.0108333	1.30469E-06	0.0026263	3.66024E-05	7.04968E-05	0	5	0	
0.011	-0.00125939	-0.00102455	4.72325E-05	6.80157E-05	0	5	0	
0.0111667	0.00207071	0.00294547	6.06714E-05	7.58379E-05	0	5	0	
0.0113333	-0.00172022	0.000202485	6.38723E-05	7.61542E-05	0	5	0	
0.0115	-0.00192563	0.00184691	5.62516E-05	7.85823E-05	0	5	0	
0.0116667	-0.000445925	-0.000792357	3.88674E-05	6.92323E-05	0	5	0	
0.0118333	-0.00106185	0.00281144	4.91422E-05	7.1564E-05	0	5	0	
0.012	-0.00178165	-0.000307765	8.23652E-05	7.20961E-05	0	5	0	
0.0121667	0.00523345	0.00144321	0.000106383	7.63213E-05	0	5	0	
0.0123333	-0.00684654	-0.000445342	0.000117009	6.4834E-05	0	5	0	
0.0125	0.00374494	0.00189346	0.000104993	5.57851E-05	0	5	0	
0.0126667	-0.00371783	-0.000705831	0.000102586	4.8431E-05	0	5	0	
0.0128333	0.000564391	0.00298315	8.96111E-05	6.03395E-05	0	5	0	
0.013	-0.000338961	-0.00100373	9.44832E-05	7.04235E-05	0	5	0	
0.0131667	0.00495056	0.0027174	9.74292E-05	8.47439E-05	0	5	0	
0.0133333	-0.00277846	0.000336041	0.00010335	8.16618E-05	0	5	0	
0.0135	-0.00294647	0.00201013	8.97144E-05	8.07673E-05	0	5	0	
0.0136667	-0.00337311	-0.000404588	0.000102852	6.94054E-05	0	5	0	
0.0138333	0.0113792	0.00403538	0.00011431	7.56873E-05	0	5	0	
0.014	-0.00474747	-0.00121561	0.000165998	7.67175E-05	0	5	0	
0.0141667	-0.0143131	0.00285764	0.000260389	9.11232E-05	0	5	0	
0.0143333	0.0215867	-0.000434569	0.000357236	8.56499E-05	0	5	0	
0.0145	-0.0210294	0.00384634	0.000399719	8.82202E-05	0	5	0	
0.0146667	0.00972471	-0.00109	0.000389332	7.29678E-05	0	5	0	
0.0148333	0.00453528	0.00332419	0.000374904	7.30871E-05	0	5	0	
0.015	-0.0174811	-0.00051499	0.000409073	6.05321E-05	0	5	0	
0.0151667	0.0177403	0.00371434	0.000421161	6.59811E-05	0	5	0	
0.0153333	-0.0176652	-0.00222168	0.000399222	6.07655E-05	0	5	0	
0.0155	0.000465762	0.00354983	0.000417608	6.96896E-05	0	5	0	
0.0156667	0.0118948	-0.000745541	0.000423554	5.9911E-05	0	5	0	
0.0158333	-0.0091125	0.00351855	0.000396104	6.45405E-05	0	5	0	
0.016	5.39381E-05	-0.000710392	0.000245652	6.006E-05	0	5	0	
0.0161667	-0.00505454	0.0024285	0.000135374	7.20929E-05	0	5	0	
0.0163333	-0.000610929	9.06341E-05	8.2261E-05	6.89413E-05	0	5	0	
0.0165	-0.000797268	0.0014608	9.37043E-05	6.90792E-05	0	5	0	
0.0166667	-0.000617013	0.000872314	9.07596E-05	6.09987E-05	0	5	0	
0.0168333	0.00544574	0.00286141	8.16296E-05	6.4867E-05	0	5	0	
0.017	-0.00851562	0.000320996	0.000108634	5.57361E-05	0	5	0	
0.0171667	-0.00373927	0.00270292	0.000105976	5.47438E-05	0	5	0	
0.0173333	-1.75976E-05	-0.0005575	0.000111586	4.79429E-05	0	5	0	
0.0175	-0.0057523	0.00266102	8.65091E-05	6.6214E-05	0	5	0	
0.0176667	0.0015808	-0.000708727	9.70842E-05	7.70496E-05	0	5	0	
0.0178333	0.00369375	0.00214046	0.000116891	8.88442E-05	0	5	0	
0.018	-0.00992461	0.00158238	0.000142157	8.04464E-05	0	5	0	
0.0181667	0.00634548	0.002498	0.000147181	7.42968E-05	0	5	0	
0.0183333	-0.00897891	-0.000566466	0.000168324	5.8915E-05	0	5	0	
0.0185	0.00035252	0.0032219	0.000171596	6.60623E-05	0	5	0	
0.0186667	-0.00280332	-0.0013172	0.000204795	7.13981E-05	0	5	0	
0.0188333	-0.0048371	0.00234241	0.000224421	8.50584E-05	0	5	0	
0.019	0.00492496	-0.000149514	0.000214449	8.18008E-05	0	5	0	
0.0191667	-0.00476106	0.00294272	0.000172897	8.47637E-05	0	5	0	
0.0193333	0.000352458	-0.000361159	0.000143119	7.91769E-05	0	5	0	
0.0195	0.000264653	0.00279332	0.000140901	7.94813E-05	0	5	0	
0.0196667	-0.0102874	-0.00153251	0.000161569	7.03933E-05	0	5	0	
0.0198333	0.0103548	0.00315223	0.000197972	7.41841E-05	0	5	0	
0.02	-0.0105408	-0.000317809	0.00020249	7.10193E-05	0	5	0	
0.0201667	0.00265257	0.00294358	0.000183441	7.69768E-05	0	5	0	
0.0203333	-0.00426891	-0.000903077	0.000132895	7.14629E-05	0	5	0	
0.0205	0.00106111	0.00206503	0.000113949	7.40886E-05	0	5	0	
0.0206667	-0.000906582	-0.00011308	0.00012724	7.07495E-05	0	5	0	
0.0208333	-0.00859565	0.00213865	0.000136537	7.3454E-05	0	5	0	
0.021	0.00306328	-0.000807178	0.000151089	6.37062E-05	0	5	0	
0.0211667	-0.00284918	0.00280687	0.000116471	6.12439E-05	0	5	0	
0.0213333	-0.0027029	-0.000379087	9.16088E-05	5.61787E-05	0	5	0	
0.0215	-0.00211969	0.0027446	7.08739E-05	6.64773E-05	0	5	0	
0.0216667	-0.00399876	-0.00135158	7.29645E-05	6.80963E-05	0	5	0	
0.0218333	0.0031805	0.00339765	8.54675E-05	8.1067E-05	0	5	0	
0.022	-0.00771975	-0.000390132	9.12635E-05	8.03442E-05	0	5	0	
0.0221667	0.000839501	0.00112553	0.000113361	8.30349E-05	0	5	0	
0.0223333	0.00723767	-0.000526108	9.64128E-05	7.43318E-05	0	5	0	
0.0225	-0.0122996	0.00247165	0.000128871	7.5293E-05	0	5	0	
0.0226667	0.00014119	-0.00022853	0.000150909	6.96335E-05	0	5	0	
0.0228333	0.0129868	0.00284844	0.000188881	7.3732E-05	0	5	0	
0.023	-0.0110098	-0.000750564	0.000235578	6.94969E-05	0	5	0	
0.0231667	0.00122893	0.00338089	0.000237413	7.91112E-05	0	5	0	
0.0233333	-0.00118587	-0.0016562	0.000187884	7.61737E-05	0	5	0	
0.0235	0.0018529	0.00373779	0.000127851	8.70295E-05	0	5	0	
0.0236667	-0.00217603	-0.001948	0.000147572	8.53718E-05	0	5	0	
0.0238333	0.00602997	0.00302754	0.000219207	9.2786E-05	0	5	0	
0.024	0.00359217	-0.000928551	0.000195709	8.53063E-05	0	5	0	
0.0241667	-0.0123311	0.00316195	0.000186998	8.4513E-05	0	5	0	
0.0243333	0.0084163	-0.00140946	0.000216387	7.03106E-05	0	5	0	
0.0245	-0.0084781	0.00411179	0.000250941	7.39102E-05	0	5	0	
0.0246667	0.00246169	-0.00214784	0.000212315	6.97528E-05	0	5	0	
0.0248333	0.00770718	0.00343449	0.000195253	7.78411E-05	0	5	0	
0.025	-0.02182	-0.000612936	0.000232376	6.89305E-05	0	5	0	
0.0251667	0.0238561	0.00278404	0.000334045	7.13793E-05	0	5	0	
0.0253333	-0.0090433	-0.00053375	0.000431981	6.27769E-05	0	5	0	
0.0255	-0.0149281	0.00297738	0.000586234	6.827E-05	0	5	0	
0.0256667	0.0251652	-0.00171268	0.000627165	6.24115E-05	0	5	0	
0.0258333	-0.026955	0.00312303	0.000600409	7.29312E-05	0	5	0	
0.026	0.00366594	0.000224589	0.000500053	6.89096E-05	0	5	0	
0.0261667	0.0109982	0.00235705	0.000515733	7.30818E-05	0	5	0	
0.0263333	-0.0274442	-5.97716E-05	0.000527036	6.11794E-05	0	5	0	
0.0265	0.0321323	0.00301367	0.000535797	6.26862E-05	0	5	0	
0.0266667	-0.0242927	-0.00173928	0.000583652	5.72389E-05	0	5	0	
0.0268333	-0.00861837	0.00406321	0.00071267	7.26369E-05	0	5	0	
0.027	0.0253861	-0.00155877	0.000784882	7.50912E-05	0	5	0	
0.0271667	-0.0318385	0.00263892	0.00070228	8.63383E-05	0	5	0	
0.0273333	0.0134937	5.77952E-05	0.00055944	7.55675E-05	0	5	0	
0.0275	-0.00587435	0.00233976	0.000468785	6.99809E-05	0	5	0	
0.0276667	-0.00901667	-0.00126118	0.000387707	5.42061E-05	0	5	0	
0.0278333	0.0135355	0.00359923	0.000300713	6.00501E-05	0	5	0	
0.028	-0.00763378	-0.00152198	0.00023383	5.7889E-05	0	5	0	
0.0281667	-0.0078785	0.00331372	0.000228045	7.06213E-05	0	5	0	
0.0283333	0.0101573	-0.000691369	0.000229459	6.39884E-05	0	5	0	
0.0285	-0.0114331	0.00237672	0.000229382	7.12186E-05	0	5	0	
0.0286667	-0.00596681	-0.000605571	0.000280126	6.26155E-05	0	5	0	
0.0288333	0.0127607	0.00251971	0.000321171	6.71809E-05	0	5	0	
0.029	-0.00369642	-0.000744283	0.000320189	5.84074E-05	0	5	0	
0.0291667	-0.00601328	0.00289575	0.000244032	6.08184E-05	0	5	0	
0.0293333	-0.00443307	-9.57348E-05	0.000204743	4.9167E-05	0	5	0	
0.0295	0.0107811	0.00178951	0.000201584	5.43126E-05	0	5	0	
0.0296667	-0.00729008	-0.000278247	0.000220821	5.31535E-05	0	5	0	
0.0298333	-0.00656559	0.00379896	0.000195151	6.82811E-05	0	5	0	
0.03	-0.00406197	-0.00176594	0.000166215	6.90308E-05	0	5	0	
0.0301667	0.00305351	0.00251411	0.000132785	7.706E-05	0	5	0	
0.0303333	0.00142648	0.000821692	0.000111722	7.41015E-05	0	5	0	
0.0305	-0.00595036	0.00177945	9.39009E-05	7.73315E-05	0	5	0	
0.0306667	0.0109364	-0.000565316	0.000108823	6.70883E-05	0	5	0	
0.0308333	-0.0201682	0.00363765	0.000193868	6.83272E-05	0	5	0	
0.031	0.0154981	-0.00107266	0.000293593	5.98605E-05	0	5	0	
0.0311667	-0.0125608	0.00283929	0.000421957	6.27048E-05	0	5	0	
0.0313333	-0.00611158	-0.000827252	0.000541268	5.33133E-05	0	5	0	
0.0315	0.0304605	0.00341445	0.000598496	6.78333E-05	0	5	0	
0.0316667	-0.0388033	-0.000106862	0.000616655	7.15469E-05	0	5	0	
0.0318333	0.012423	0.0022864	0.000626475	8.13965E-05	0	5	0	
0.032	0.0188121	0.000309171	0.000714432	7.11399E-05	0	5	0	
0.0321667	-0.0238709	0.00167713	0.000719715	6.87951E-05	0	5	0	
0.0323333	0.00995262	-0.000865435	0.000592138	5.97331E-05	0	5	0	
0.0325	-0.00314829	0.00351136	0.000347296	6.62738E-05	0	5	0	
0.0326667	0.000304821	-0.000788098	0.000192062	6.61293E-05	0	5	0	
0.0328333	-0.00483062	0.00143905	0.000153033	7.07419E-05	0	5	0	
0.033	-0.00118763	0.000248509	0.000176916	6.26831E-05	0	5	0	
0.0331667	0.0143503	0.00310078	0.000183791	6.7445E-05	0	5	0	
0.0333333	-0.021053	-0.0019835	0.000213564	6.65667E-05	0	5	0	
0.0335	0.0279513	0.00285756	0.000329226	7.13335E-05	0	5	0	
0.0336667	-0.0159837	-0.000995913	0.000504808	6.31165E-05	0	5	0	
0.0338333	-0.0118277	0.00206577	0.000694149	6.73744E-05	0	5	0	
0.034	0.0228346	0.000228414	0.000800555	7.01831E-05	0	5	0	
0.0341667	-0.0335507	0.00283502	0.000730504	8.39747E-05	0	5	0	
0.0343333	0.0210145	-0.00104447	0.000624832	8.01181E-05	0	5	0	
0.0345	0.0138606	0.00195667	0.000575663	7.52247E-05	0	5	0	
0.0346667	-0.0312661	-0.00137771	0.000668705	6.53686E-05	0	5	0	
0.0348333	0.0199578	0.00336297	0.000672926	7.45692E-05	0	5	0	
0.035	-0.0180703	-5.87731E-05	0.000560326	7.41971E-05	0	5	0	
0.0351667	-0.00348123	0.00282784	0.000412839	8.43141E-05	0	5	0	
0.0353333	0.0116183	-0.00105955	0.000383374	7.92285E-05	0	5	0	
0.0355	-0.0229269	0.0034335	0.000440867	8.76098E-05	0	5	0	
0.0356667	0.0212421	-0.00090523	0.000445649	7.41597E-05	0	5	0	
0.0358333	-0.0236932	0.00311493	0.000468751	7.32593E-05	0	5	0	
0.036	0.0103824	-0.00131565	0.000461316	6.21365E-05	0	5	0	
0.0361667	0.00229171	0.00410951	0.000435467	7.51239E-05	0	5	0	
0.0363333	-0.0191885	-0.000624046	0.000356573	6.82411E-05	0	5	0	
0.0365	0.0277408	0.00342275	0.000339532	7.77622E-05	0	5	0	
0.0366667	-0.0252916	-0.0011089	0.000442957	6.72932E-05	0	5	0	
0.0368333	-0.00735243	0.00401412	0.000601133	8.09203E-05	0	5	0	
0.037	0.0325814	-0.00164345	0.000705301	7.60213E-05	0	5	0	
0.0371667	-0.0427973	0.00299989	0.000720676	8.1563E-05	0	5	0	
0.0373333	0.0392888	-9.75457E-05	0.000754641	7.17787E-05	0	5	0	
0.0375	-0.0104438	0.00351787	0.000758443	8.03405E-05	0	5	0	
0.0376667	-0.0143672	-0.00160284	0.000806883	7.61819E-05	0	5	0	
0.0378333	0.0242296	0.00358797	0.000730596	8.12572E-05	0	5	0	
0.038	-0.0256338	-0.000937429	0.000631435	6.31602E-05	0	5	0	
0.0381667	0.00195487	0.00293841	0.000520278	6.24749E-05	0	5	0	
0.0383333	0.0176322	-0.0015606	0.000541575	5.52452E-05	0	5	0	
0.0385	-0.0136544	0.00307427	0.000583791	6.90556E-05	0	5	0	
0.0386667	0.00648623	-0.000995481	0.000480993	6.71525E-05	0	5	0	
0.0388333	-0.00406521	0.00282119	0.00030099	7.34441E-05	0	5	0	
0.039	0.00316697	-0.00113666	0.000134054	6.23593E-05	0	5	0	
0.0391667	-0.000459415	0.00452931	0.000158044	7.01891E-05	0	5	0	
0.0393333	0.00257808	-0.00255363	0.000125627	6.81109E-05	0	5	0	
0.0395	-0.0032781	0.0026117	0.000114292	8.67197E-05	0	5	0	
0.0396667	0.008745	0.00122551	8.51519E-05	8.68668E-05	0	5	0	
0.0398333	-0.0229769	-0.00792058	0.000203274	9.63728E-05	0	5	0	
0.04	0.0051295	0.00199358	0.000280144	8.85416E-05	0	5	0	
0.0401667	0.00104731	0.0039185	0.000272458	7.65996E-05	0	5	0	
0.0403333	0.00285542	-0.0019263	0.000170233	5.63593E-05	0	5	0	
0.0405	0.00430133	0.00398699	0.000101216	5.72486E-05	0	5	0	
0.0406667	-0.00333555	-0.00144294	0.000100199	6.67071E-05	0	5	0	
0.0408333	-0.0151346	-0.00392139	0.000151119	9.41629E-05	0	5	0	
0.041	-0.00577425	-0.00116302	0.000240086	0.000124378	0	5	0	
0.0411667	0.00492711	0.00249928	0.000318503	0.000137307	0	5	0	
0.0413333	-0.0180278	-0.00120971	0.000325069	0.000111661	0	5	0	
0.0415	0.035138	0.00426121	0.000393363	7.89807E-05	0	5	0	
0.0416667	-0.0246734	-0.00230082	0.000529735	6.30006E-05	0	5	0	
0.0418333	-0.0138097	0.00270291	0.000518689	7.74898E-05	0	5	0	
0.042	0.00667615	0.00116974	0.000413172	7.08073E-05	0	5	0	
0.0421667	-0.0168283	0.00173835	0.000261812	6.75989E-05	0	5	0	
0.0423333	0.00684058	-0.00210904	0.000330227	5.53309E-05	0	5	0	
0.0425	0.0404494	0.00280467	0.000454488	6.05221E-05	0	5	0	
0.0426667	-0.02669	-0.000650366	0.000685163	5.57938E-05	0	5	0	
0.0428333	0.00654789	0.00276753	0.00063852	6.03423E-05	0	5	0	
0.043	-0.0213089	-0.00157861	0.00054536	4.9704E-05	0	5	0	
0.0431667	0.0199334	0.00502609	0.000386035	6.6722E-05	0	5	0	
0.0433333	-0.0187841	-0.00250295	0.000362064	7.05669E-05	0	5	0	
0.0435	0.0327231	0.00297812	0.000452246	8.73909E-05	0	5	0	
0.0436667	-0.016349	-0.00125935	0.000446592	7.50979E-05	0	5	0	
0.0438333	0.0226616	0.00373115	0.000475045	7.85167E-05	0	5	0	
0.044	-0.0084808	-0.00181869	0.000404609	7.04999E-05	0	5	0	
0.0441667	0.00408961	0.00292232	0.000299363	7.8691E-05	0	5	0	
0.0443333	-0.00344416	0.000100461	0.00026273	6.06771E-05	0	5	0	
0.0445	0.00206388	0.00327084	0.000257295	6.06094E-05	0	5	0	
0.0446667	-0.00898957	-0.00158236	0.000317304	4.93291E-05	0	5	0	
0.0448333	0.0194542	0.00378482	0.000355015	6.72591E-05	0	5	0	
0.045	-0.0185386	-0.00209634	0.00036515	6.6106E-05	0	5	0	
0.0451667	0.00686435	0.00272989	0.000321091	7.58608E-05	0	5	0	
0.0453333	-0.00378206	-0.000755216	0.000294945	6.21678E-05	0	5	0	
0.0455	-0.00973228	0.00285569	0.0002671	6.34997E-05	0	5	0	
0.0456667	0.00301407	-0.0019164	0.000276501	5.42512E-05	0	5	0	
0.0458333	-0.00189292	0.0036146	0.000203471	6.61856E-05	0	5	0	
0.046	-0.00396452	-0.00205746	0.000155966	5.92123E-05	0	5	0	
0.0461667	0.00560811	0.00279221	0.000126337	6.42259E-05	0	5	0	
0.0463333	-0.0177373	-0.00144768	0.00017152	5.14732E-05	0	5	0	
0.0465	0.0113922	0.00253376	0.00023462	6.0466E-05	0	5	0	
0.0466667	-0.00736832	-0.00102581	0.000277495	5.52029E-05	0	5	0	
0.0468333	-0.00281535	0.00210251	0.000271746	6.39016E-05	0	5	0	
0.047	0.00727134	-0.00112429	0.00019839	5.7E-05	0	5	0	
0.0471667	-0.0108724	0.0020012	0.000166447	6.43419E-05	0	5	0	
0.0473333	-0.000303081	-0.000821346	0.000184397	5.62393E-05	0	5	0	
0.0475	0.0130153	0.00426536	0.000288442	6.56172E-05	0	5	0	
0.0476667	-0.0254771	-0.00286505	0.000385115	6.15395E-05	0	5	0	
0.0478333	0.021498	0.00431592	0.000429391	7.94433E-05	0	5	0	
0.048	-0.00725755	-0.00258569	0.000434536	7.8005E-05	0	5	0	
0.0481667	-0.0143628	0.00386917	0.000450042	9.31548E-05	0	5	0	
0.0483333	0.0187378	-0.00105205	0.000460816	8.26084E-05	0	5	0	
0.0485	-0.0221088	0.00316138	0.000425599	8.52351E-05	0	5	0	
0.0486667	0.0116057	-0.000817219	0.000402963	6.64576E-05	0	5	0	
0.0488333	0.0036428	0.0023445	0.000460825	6.6797E-05	0	5	0	
0.049	-0.0186603	-0.00146619	0.000500298	5.56626E-05	0	5	0	
0.0491667	0.012672	0.00279759	0.000437664	6.22107E-05	0	5	0	
0.0493333	-0.00375789	-0.00116212	0.000355206	4.91129E-05	0	5	0	
0.0495	0.000369322	0.00468702	0.000269816	5.88024E-05	0	5	0	
0.0496667	-0.00275939	-0.00245364	0.00020982	5.59333E-05	0	5	0	
0.0498333	0.00693362	0.00480219	0.00012957	8.05407E-05	0	5	0	
0.05	-0.0143195	-0.00260055	0.000134468	7.94847E-05	0	5	0	
0.0501667	0.00880449	0.00263817	0.000203048	9.08586E-05	0	5	0	
0.0503333	-0.007867	-0.00113227	0.000260106	7.80377E-05	0	5	0	
0.0505	0.00661571	0.00263634	0.000254097	7.58165E-05	0	5	0	
0.0506667	0.000855859	-0.00119371	0.000206014	5.63206E-05	0	5	0	
0.0508333	-0.00340234	0.004114	0.000143681	6.57878E-05	0	5	0	
0.051	-0.00267964	-0.001162	9.6334E-05	6.79464E-05	0	5	0	
0.0511667	0.00721024	0.00137807	0.000125904	8.36616E-05	0	5	0	
0.0513333	-0.00789731	0.000125636	0.000168538	7.26908E-05	0	5	0	
0.0515	0.00357405	0.00200254	0.000182416	6.67167E-05	0	5	0	
0.0516667	-0.00578402	-0.000716961	0.000139717	5.13385E-05	0	5	0	
0.0518333	0.000280422	0.00281544	9.57586E-05	5.41213E-05	0	5	0	
0.052	0.00551807	-0.00184987	7.03984E-05	4.84039E-05	0	5	0	
0.0521667	-0.00127808	0.00362456	0.000101526	6.39429E-05	0	5	0	
0.0523333	-0.00921122	-0.00195049	0.000209911	6.7125E-05	0	5	0	
0.0525	0.0150991	0.0030884	0.000302962	8.49447E-05	0	5	0	
0.0526667	-0.015511	-0.000338294	0.000340389	7.41516E-05	0	5	0	
0.0528333	0.00709703	0.00257221	0.00028592	7.02767E-05	0	5	0	
0.053	-0.00113999	-0.00234446	0.000253711	6.17453E-05	0	5	0	
0.0531667	-0.0134464	0.00237112	0.000234703	7.2235E-05	0	5	0	
0.0533333	0.0139647	-0.000941104	0.000234092	6.94372E-05	0	5	0	
0.0535	-0.00790105	0.0036782	0.000267077	7.15642E-05	0	5	0	
0.0536667	-0.00630264	-0.00179947	0.000322561	6.14142E-05	0	5	0	
0.0538333	0.00810471	0.00326746	0.000318365	6.87599E-05	0	5	0	
0.054	-0.00818477	-0.00102279	0.000264054	6.22214E-05	0	5	0	
0.0541667	-0.00267036	0.00185497	0.000158756	6.8492E-05	0	5	0	
0.0543333	-0.00256019	-0.0013423	0.000112054	6.70448E-05	0	5	0	
0.0545	0.000561315	0.00263316	8.20242E-05	7.87015E-05	0	5	0	
0.0546667	-0.00394588	-0.000186642	8.54807E-05	7.30708E-05	0	5	0	
0.0548333	0.00104924	0.00203679	8.21891E-05	6.54328E-05	0	5	0	
0.055	-0.00390184	-0.00149362	8.05637E-05	4.56702E-05	0	5	0	
0.0551667	0.00039569	0.0040789	7.97806E-05	5.39934E-05	0	5	0	
0.0553333	-0.00746663	-0.00303153	8.50218E-05	6.71169E-05	0	5	0	
0.0555	0.00293085	0.00339107	9.54335E-05	9.27803E-05	0	5	0	
0.0556667	-0.00378789	-0.00210474	9.42678E-05	9.28121E-05	0	5	0	
0.0558333	-0.000705418	0.00304154	8.22535E-05	9.62195E-05	0	5	0	
0.056	0.000817076	-0.00178873	5.67438E-05	8.35257E-05	0	5	0	
0.0561667	-0.00325151	0.00378631	6.00872E-05	8.83373E-05	0	5	0	
0.0563333	-0.00791591	-0.00369913	6.95287E-05	8.10478E-05	0	5	0	
0.0565	0.0175584	0.00705429	0.000143973	0.000100628	0	5	0	
0.0566667	-0.00879826	-0.00281701	0.000199842	0.000102437	0	5	0	
0.0568333	0.000675459	0.003303	0.000206857	0.000110597	0	5	0	
0.057	0.000871218	-0.00232855	0.000129112	9.2084E-05	0	5	0	
0.0571667	-0.00435149	0.00430016	7.06831E-05	9.56812E-05	0	5	0	
0.0573333	-0.00126269	-0.00250047	5.03381E-05	8.05399E-05	0	5	0	
0.0575	0.00734064	0.00538169	9.11684E-05	8.77859E-05	0	5	0	
0.0576667	-0.00616483	-0.00233272	0.000159526	7.59597E-05	0	5	0	
0.0578333	0.00928722	0.00460039	0.000217748	8.48366E-05	0	5	0	
0.058	-0.00175662	-0.0030445	0.000206983	7.7313E-05	0	5	0	
0.0581667	-0.0158684	0.00410197	0.000179737	8.43011E-05	0	5	0	
0.0583333	0.0185878	-0.00238411	0.000219493	7.44515E-05	0	5	0	
0.0585	-0.0145192	0.00392619	0.000302424	7.95809E-05	0	5	0	
0.0586667	-0.00304569	-0.00203469	0.000403805	6.4967E-05	0	5	0	
0.0588333	0.0156949	0.00346675	0.000457585	7.38392E-05	0	5	0	
0.059	-0.0240285	-0.00169022	0.000477494	6.1381E-05	0	5	0	
0.0591667	0.013202	0.00264453	0.000417232	6.66702E-05	0	5	0	
0.0593333	-0.00817676	-0.00150012	0.000350954	5.53323E-05	0	5	0	
0.0595	-0.00297089	0.00371044	0.000359065	6.59377E-05	0	5	0	
0.0596667	0.0111104	-0.00201942	0.000376786	6.14458E-05	0	5	0	
0.0598333	-0.026271	0.00422709	0.000380681	7.99781E-05	0	5	0	
0.06	0.0143273	-0.00105479	0.000389716	7.46967E-05	0	5	0	
0.0601667	0.00115973	0.00171408	0.000414811	7.90124E-05	0	5	0	
0.0603333	-0.00620192	-0.00156442	0.00041205	6.28994E-05	0	5	0	
0.0605	0.00383846	0.00360564	0.00028746	6.76683E-05	0	5	0	
0.0606667	-0.0023343	-0.00189645	0.000161932	6.01808E-05	0	5	0	
0.0608333	-0.00380807	0.00472649	7.62562E-05	6.94142E-05	0	5	0	
0.061	-0.00105796	-0.00304752	7.0671E-05	6.40654E-05	0	5	0	
0.0611667	0.00328747	0.00377629	6.85679E-05	8.19931E-05	0	5	0	
0.0613333	-0.000971508	-0.00234475	7.74327E-05	7.98761E-05	0	5	0	
0.0615	0.00314174	0.00279097	9.39048E-05	8.53212E-05	0	5	0	
0.0616667	-0.0142955	-0.00222002	0.000126779	7.499E-05	0	5	0	
0.0618333	0.0103253	0.0034936	0.000179027	7.88104E-05	0	5	0	
0.062	-0.00120539	-0.00136033	0.000181177	6.4809E-05	0	5	0	
0.0621667	-0.00444538	0.00218156	0.000144669	6.03301E-05	0	5	0	
0.0623333	-0.0031929	-0.00172573	8.57857E-05	4.66745E-05	0	5	0	
0.0625	0.00219101	0.00455989	7.14607E-05	6.71027E-05	0	5	0	
0.0626667	-0.00427997	-0.00321258	7.80528E-05	7.8542E-05	0	5	0	
0.0628333	-0.00116407	0.00325296	7.73556E-05	9.22132E-05	0	5	0	
0.063	0.0088687	-0.00101051	9.28205E-05	7.39637E-05	0	5	0	
0.0631667	-0.0176907	0.00253443	0.000151441	6.75059E-05	0	5	0	
0.0633333	0.0109278	-0.00204111	0.000217965	5.68755E-05	0	5	0	
0.0635	-0.00185913	0.0036182	0.000268224	6.9378E-05	0	5	0	
0.0636667	-0.00295668	-0.00232814	0.000266489	6.71683E-05	0	5	0	
0.0638333	0.00501475	0.00269289	0.000250149	7.50175E-05	0	5	0	
0.064	-0.00584926	-0.0019568	0.000203549	7.38743E-05	0	5	0	
0.0641667	0.00414524	0.000262354	0.000150497	8.12234E-05	0	5	0	
0.0643333	0.0144777	1.31386E-05	0.000277152	7.93037E-05	0	5	0	
0.0645	-0.014319	0.00208321	0.000373643	7.54032E-05	0	5	0	
0.0646667	0.0081869	-0.00324249	0.000421364	6.73681E-05	0	5	0	
0.0648333	-0.00536244	0.00455142	0.00025775	7.1853E-05	0	5	0	
0.065	0.0064119	-0.00337458	0.000170359	7.58669E-05	0	5	0	
0.0651667	-0.00493614	0.00368206	0.000137148	9.23554E-05	0	5	0	
0.0653333	0.00634358	-0.00436449	0.00022533	9.6943E-05	0	5	0	
0.0655	0.00698546	0.00383213	0.000270913	0.0001128	0	5	0	
0.0656667	-0.00902126	-0.00108345	0.000285362	9.5524E-05	0	5	0	
0.0658333	0.00606618	0.00270307	0.000223984	8.1703E-05	0	5	0	
0.066	-0.00315015	-0.00244641	0.000149901	5.52422E-05	0	5	0	
0.0661667	0.000181303	0.00358221	0.00010273	6.35316E-05	0	5	0	
0.0663333	-0.000539225	-0.00159749	6.5476E-05	6.35843E-05	0	5	0	
0.0665	-0.00321749	0.00395125	4.96944E-05	7.82277E-05	0	5	0	
0.0666667	0.00314575	-0.00184001	6.06255E-05	6.82078E-05	0	5	0	
0.0668333	-0.00436165	0.003523	9.01431E-05	7.44612E-05	0	5	0	
0.067	-0.000931007	-0.00212479	9.8593E-05	6.09702E-05	0	5	0	
0.0671667	-0.000221546	0.00344429	7.55743E-05	7.16435E-05	0	5	0	
0.0673333	0.000282485	-0.00190159	3.71933E-05	6.39192E-05	0	5	0	
0.0675	-0.00435667	0.00340915	6.0702E-05	7.61976E-05	0	5	0	
0.0676667	-0.00108862	-0.00140673	8.63639E-05	6.33804E-05	0	5	0	
0.0678333	0.000285131	0.00248774	8.05522E-05	6.56534E-05	0	5	0	
0.068	-0.00226993	-0.00204212	4.95536E-05	4.8858E-05	0	5	0	
0.0681667	0.00182233	0.00293403	4.53103E-05	5.85467E-05	0	5	0	
0.0683333	-0.00282095	-0.00214159	5.13589E-05	5.59359E-05	0	5	0	
0.0685	-0.00288085	0.00314155	7.4616E-05	7.0232E-05	0	5	0	
0.0686667	0.00560355	-0.00184901	7.46063E-05	6.07364E-05	0	5	0	
0.0688333	-0.0015929	0.00253829	0.000131098	6.48475E-05	0	5	0	
0.069	-0.0127974	-0.00214421	0.000211356	5.41201E-05	0	5	0	
0.0691667	0.0210052	0.00329767	0.000281709	6.61379E-05	0	5	0	
0.0693333	-0.0127323	-0.00248564	0.000350863	6.05112E-05	0	5	0	
0.0695	-0.00818724	0.00333436	0.000437271	6.90535E-05	0	5	0	
0.0696667	0.0227748	-0.00192406	0.000491367	5.75298E-05	0	5	0	
0.0698333	-0.023675	0.00276758	0.000506128	6.63661E-05	0	5	0	
0.07	0.0074212	-0.0017941	0.000458864	6.25742E-05	0	5	0	
0.0701667	0.00252895	0.00241055	0.000474113	7.16395E-05	0	5	0	
0.0703333	-0.0115528	-0.00125735	0.000469329	5.76816E-05	0	5	0	
0.0705	0.0206437	0.00262533	0.000431197	5.83351E-05	0	5	0	
0.0706667	-0.0189557	-0.00178736	0.000392326	4.78853E-05	0	5	0	
0.0708333	-0.00377128	0.00318179	0.000407698	6.22266E-05	0	5	0	
0.071	0.0135244	-0.00305454	0.000425722	5.9917E-05	0	5	0	
0.0711667	-0.0123307	0.00313484	0.00038229	7.60537E-05	0	5	0	
0.0713333	8.77018E-05	-0.00162283	0.000260549	7.098E-05	0	5	0	
0.0715	-0.00195426	0.00227157	0.000144507	7.53666E-05	0	5	0	
0.0716667	0.00810446	-0.00112412	9.74739E-05	5.75354E-05	0	5	0	
0.0718333	-0.00562571	0.00288765	0.00011408	5.68283E-05	0	5	0	
0.072	-0.00753623	-0.00358613	0.000150376	4.79191E-05	0	5	0	
0.0721667	0.00222172	0.00563241	0.000163169	6.91073E-05	0	5	0	
0.0723333	-0.00158509	-0.00574021	0.000116964	7.97991E-05	0	5	0	
0.0725	0.000785872	-0.00392748	8.29033E-05	0.000148996	0	5	0	
0.0726667	0.0207029	-0.024261	0.000198593	0.000338755	0	5	0	
0.0728333	-7.06228E-05	0.00516533	0.000246247	0.000420873	0	5	0	
0.073	-0.00807517	0.000623494	0.000257656	0.000378908	0	5	0	
0.0731667	0.000728965	0.00126725	0.000127211	0.000167922	0	5	0	
0.0733333	0.00713055	-0.00279987	9.53421E-05	6.64721E-05	0	5	0	
0.0735	-0.00804135	0.00949999	0.000113785	6.45067E-05	0	5	0	
0.0736667	0.0269903	-0.0406081	0.000171839	0.000216217	0	5	0	
0.0738333	0.0149311	0.00857291	0.000242964	0.000363381	0	5	0	
0.074	-0.0247193	-0.00421787	0.000321664	0.000352013	0	5	0	
0.0741667	0.0128159	0.00216154	0.000347596	0.000222488	0	5	0	
0.0743333	0.0100235	-0.00148341	0.000391669	8.48302E-05	0	5	0	
0.0745	-0.0144045	0.00466721	0.000397018	8.617E-05	0	5	0	
0.0746667	0.013915	-0.00453615	0.000330746	8.09667E-05	0	5	0	
0.0748333	-0.0223652	0.00510594	0.000356062	0.000107259	0	5	0	
0.075	0.00729685	-0.00204523	0.000375996	0.000107713	0	5	0	
0.0751667	0.0103575	0.00296164	0.000460187	0.000108269	0	5	0	
0.0753333	-0.0204636	-0.00247844	0.00040291	7.88382E-05	0	5	0	
0.0755	0.00938107	0.0039878	0.000318973	8.06729E-05	0	5	0	
0.0756667	0.00154357	-0.00114586	0.00026371	6.97111E-05	0	5	0	
0.0758333	-0.0113539	0.00192853	0.000229757	7.54414E-05	0	5	0	
0.076	-0.00152974	-0.00180148	0.000234156	5.72217E-05	0	5	0	
0.0761667	0.00663987	0.00411041	0.000203724	6.53426E-05	0	5	0	
0.0763333	-0.00391697	-0.0018681	0.000167842	5.71472E-05	0	5	0	
0.0765	-0.00205298	0.00386735	0.000123212	7.34607E-05	0	5	0	
0.0766667	0.00804561	-0.00176006	9.58005E-05	6.14002E-05	0	5	0	
0.0768333	-0.00313477	0.0041737	9.89595E-05	7.40115E-05	0	5	0	
0.077	-0.00511076	-0.00284596	0.000116959	6.63929E-05	0	5	0	
0.0771667	0.0024822	0.00412576	0.000139426	8.43933E-05	0	5	0	
0.0773333	-0.00258703	-0.0021099	0.000103134	7.26971E-05	0	5	0	
0.0775	0.00951225	0.00327766	9.75511E-05	7.4047E-05	0	5	0	
0.0776667	-0.00383504	-0.00206915	0.000104583	5.4563E-05	0	5	0	
0.0778333	-0.000482169	0.00356771	0.000130071	6.51334E-05	0	5	0	
0.078	0.00426238	-0.00257658	0.000123317	5.92065E-05	0	5	0	
0.0781667	-0.00512436	0.00422293	0.000111336	8.07409E-05	0	5	0	
0.0783333	-0.00375355	-0.00187888	0.000139004	7.41974E-05	0	5	0	
0.0785	0.0068028	0.00272882	0.000156872	8.40675E-05	0	5	0	
0.0786667	-0.00721503	-0.00205296	0.000164421	6.77738E-05	0	5	0	
0.0788333	0.00350169	0.00291285	0.000130263	7.49883E-05	0	5	0	
0.079	-0.00484567	-0.00215361	0.000110229	5.8399E-05	0	5	0	
0.0791667	-0.00101872	0.0038239	8.19799E-05	6.80042E-05	0	5	0	
0.0793333	4.15664E-05	-0.00240497	8.04763E-05	5.68421E-05	0	5	0	
0.0795	-0.00369849	0.00346287	0.000105752	7.39291E-05	0	5	0	
0.0796667	-0.00783229	-0.00132086	0.000141885	5.85171E-05	0	5	0	
0.0798333	0.00603104	0.00347088	0.000161457	6.45064E-05	0	5	0	
0.08	0.00831787	-0.00323665	0.00026017	4.94802E-05	0	5	0	
0.0801667	-0.0311413	0.00464606	0.000373799	6.94421E-05	0	5	0	
0.0803333	0.030672	-0.00336049	0.000505425	7.25993E-05	0	5	0	
0.0805	-0.0133601	0.0037636	0.000560863	9.18549E-05	0	5	0	
0.0806667	-0.00909665	0.000133694	0.000583068	8.98891E-05	0	5	0	
0.0808333	0.0156504	-0.000280532	0.000532005	8.37284E-05	0	5	0	
0.081	-0.0222955	-0.00648158	0.000448802	9.501E-05	0	5	0	
0.0811667	0.0172564	0.0370641	0.000361051	0.000186797	0	5	0	
0.0813333	-0.0240981	-0.00176889	0.000381662	0.000409721	0	5	0	
0.0815	-0.0172684	0.0118176	0.00039771	0.000483213	0	5	0	
0.0816667	0.0105173	0.00222427	0.000389148	0.000482832	0	5	0	
0.0818333	-0.0053643	-0.00148461	0.000312069	0.00028423	0	5	0	
0.082	0.00143195	0.00193761	0.000184422	0.000176161	0	5	0	
0.0821667	-0.0170854	0.000841254	0.000170269	9.17912E-05	0	5	0	
0.0823333	0.0191575	0.0247318	0.000206387	0.000217005	0	5	0	
0.0825	-0.0425082	0.0247243	0.000456765	0.000351188	0	5	0	
0.0826667	0.00701451	-0.0144077	0.00050688	0.000429947	0	5	0	
0.0828333	0.00353161	0.00615546	0.000482499	0.000335831	0	5	0	
0.083	-0.00544361	-9.59497E-05	0.000256475	0.000237673	0	5	0	
0.0831667	-0.00605019	0.00232533	0.000156887	0.000136936	0	5	0	
0.0833333	0.00259866	-0.00602851	0.000106746	8.78188E-05	0	5	0	
0.0835	0.00104485	0.00720847	9.99992E-05	8.60883E-05	0	5	0	
0.0836667	-0.00194715	-0.00391919	0.000110419	0.000109395	0	5	0	
0.0838333	-0.00155555	0.00246082	9.77292E-05	0.000119353	0	5	0	
0.084	0.00190767	-0.00199859	6.99566E-05	9.14466E-05	0	5	0	
0.0841667	-0.00448556	0.00345811	5.5441E-05	7.79329E-05	0	5	0	
0.0843333	-0.00151832	-0.00305222	6.77483E-05	6.40046E-05	0	5	0	
0.0845	0.00780121	0.00269047	0.000102694	7.62248E-05	0	5	0	
0.0846667	-0.00898819	-0.00219299	0.000132234	6.984E-05	0	5	0	
0.0848333	0.0051931	0.00325671	0.000160926	7.60088E-05	0	5	0	
0.085	0.00647687	-0.00212152	0.000177804	6.14318E-05	0	5	0	
0.0851667	-0.0128175	0.00397137	0.000188572	7.11357E-05	0	5	0	
0.0853333	0.00768231	-0.00314697	0.000193916	6.26623E-05	0	5	0	
0.0855	-0.0055435	0.00401265	0.00019105	8.37534E-05	0	5	0	
0.0856667	0.00147523	-0.00250393	0.000206782	7.36951E-05	0	5	0	
0.0858333	0.00841828	0.00352227	0.000223554	8.13661E-05	0	5	0	
0.086	-0.00351394	-0.00302957	0.000227743	6.36012E-05	0	5	0	
0.0861667	-0.00378912	0.00430709	0.000186846	7.75134E-05	0	5	0	
0.0863333	0.00257636	-0.00186715	0.000180307	6.7516E-05	0	5	0	
0.0865	-0.00589222	0.00311477	0.000153448	7.66663E-05	0	5	0	
0.0866667	0.00388755	-0.0025183	0.00013276	5.86134E-05	0	5	0	
0.0868333	0.000128218	0.00367002	8.56575E-05	6.96145E-05	0	5	0	
0.087	0.00139096	-0.0014761	7.09199E-05	6.34511E-05	0	5	0	
0.0871667	-0.00318561	0.00241765	8.14848E-05	7.42831E-05	0	5	0	
0.0873333	-3.6898E-05	-0.00152774	7.11362E-05	5.69887E-05	0	5	0	
0.0875	-0.00498351	0.00261163	7.88531E-05	5.6908E-05	0	5	0	
0.0876667	0.00337066	-0.00287498	7.2179E-05	4.93038E-05	0	5	0	
0.0878333	0.00058429	0.00372427	7.09107E-05	6.8157E-05	0	5	0	
0.088	-0.000209363	-0.00212046	6.5814E-05	6.42749E-05	0	5	0	
0.0881667	-0.0037563	0.00296732	7.56042E-05	7.40992E-05	0	5	0	
0.0883333	0.000387434	-0.00206842	7.74413E-05	6.24077E-05	0	5	0	
0.0885	0.00114114	0.00177559	6.84708E-05	6.79627E-05	0	5	0	
0.0886667	-0.00423332	-0.0029984	5.85067E-05	5.7086E-05	0	5	0	
0.0888333	-0.00560855	0.00461424	0.000105329	7.26712E-05	0	5	0	
0.089	0.0194842	-0.00818721	0.000294552	9.02545E-05	0	5	0	
0.0891667	-0.00980554	0.0075161	0.000419501	0.000141331	0	5	0	
0.0893333	0.00552416	-0.00165957	0.000392012	0.000166436	0	5	0	
0.0895	0.0118947	-0.0176404	0.000285197	0.00021968	0	5	0	
0.0896667	-0.00175479	0.00918997	0.000292063	0.000381093	0	5	0	
0.0898333	0.00835031	-0.0041801	0.000333941	0.000390847	0	5	0	
0.09	-0.00335952	-0.0031654	0.000300802	0.000316002	0	5	0	
0.0901667	0.0199726	0.00644365	0.000399438	0.000149896	0	5	0	
0.0903333	0.0144785	-0.00808129	0.000400452	0.000172146	0	5	0	
0.0905	-0.0294226	0.00855905	0.000509007	0.000205028	0	5	0	
0.0906667	0.0300551	-0.0297155	0.000399516	0.000281391	0	5	0	
0.0908333	-0.00527392	0.0122557	0.000475939	0.00038418	0	5	0	
0.091	-0.0184604	-0.00190386	0.000516181	0.000414429	0	5	0	
0.0911667	0.0238645	0.000275749	0.000502231	0.000303624	0	5	0	
0.0913333	-0.00205426	-0.00156411	0.000473536	0.000116472	0	5	0	
0.0915	-0.0245739	-0.000801266	0.000482882	8.757E-05	0	5	0	
0.0916667	0.031325	-0.00265861	0.000592179	0.000113388	0	5	0	
0.0918333	-0.0268887	-0.0122057	0.000645484	0.00019395	0	5	0	
0.092	0.0192861	0.00153187	0.000553485	0.000276732	0	5	0	
0.0921667	-0.038827	-0.00244838	0.000494738	0.000271025	0	5	0	
0.0923333	-0.00652298	0.000909658	0.000470147	0.000208651	0	5	0	
0.0925	0.0082456	-0.000456271	0.000394358	8.336E-05	0	5	0	
0.0926667	0.0117339	-0.00421583	0.00040196	7.92892E-05	0	5	0	
0.0928333	0.0213765	0.0095094	0.000591408	0.000190808	0	5.3125	0	
0.093	-0.00320792	-0.0405325	0.000790186	0.00029346	0	5	0	
0.0931667	0.0202275	0.0253104	0.000821939	0.000463398	0	5	0	
0.0933333	-0.0740775	-0.00381846	0.000788422	0.000725567	0	5	0	
0.0935	0.0286119	-0.0176602	0.000971837	0.0010699	0	7.5	0	
0.0936667	0.0481977	0.0606515	0.000972683	0.00109725	0	5	0	
0.0938333	0.0135228	-0.0206757	0.000957672	0.000928856	0	5	0	
0.094	0.000384508	-0.0100438	0.000908059	0.000653882	0	5	0	
0.0941667	-0.00651018	0.020558	0.000922122	0.000569965	0	5	0	
0.0943333	-0.00940666	-0.0297736	0.000697551	0.000427931	0	5	0	
0.0945	0.0198891	0.0461043	0.000530987	0.000638488	0	5	0	
0.0946667	0.0243318	0.0123685	0.00041129	0.000742553	0	5	0	
0.0948333	-0.00173544	-0.00342204	0.0006502	0.000947229	0	5	0	
0.095	0.023628	0.010461	0.000500939	0.000608856	0	5	0	
0.0951667	-0.0186521	-0.00230363	0.000562595	0.000473864	0	5	0	
0.0953333	0.00719115	-0.00826696	0.000355098	0.000248728	0	5	0	
0.0955	-0.01022	0.00446339	0.000376721	0.000256985	0	5	0	
0.0956667	0.00611698	0.0045391	0.000306902	0.000220184	0	5	0	
0.0958333	0.00639172	-0.00546884	0.000339274	0.000188643	0	5	0	
0.096	-0.0113425	-0.00199023	0.000363316	0.000160021	0	5	0	
0.0961667	0.00933693	0.00783205	0.000326617	0.000111775	0	5	0	
0.0963333	-0.00408838	-0.004633	0.000231556	0.000107737	0	5	0	
0.0965	-0.00818514	0.00170521	0.000184627	0.000114138	0	5	0	
0.0966667	0.0223529	-0.000535101	0.000199927	9.20912E-05	0	5	0	
0.0968333	-0.0142905	0.00250711	0.000283408	7.76732E-05	0	5	0	
0.097	-0.000316906	-0.00431312	0.000356903	5.735E-05	0	5	0	
0.0971667	0.0069378	0.00424491	0.000395342	7.32407E-05	0	5	0	
0.0973333	-0.00264323	-0.00259422	0.000322836	7.88249E-05	0	5	0	
0.0975	-0.00299795	0.00298142	0.000189168	9.15588E-05	0	5	0	
0.0976667	0.00672502	-0.0033731	9.03178E-05	7.63996E-05	0	5	0	
0.0978333	-0.0026365	0.00343389	8.35957E-05	8.54052E-05	0	5	0	
0.098	0.00387603	-0.00242669	0.000104409	6.76024E-05	0	5	0	
0.0981667	-0.00646295	0.00190515	0.000133468	6.99915E-05	0	5	0	
0.0983333	0.00277316	-0.00232191	0.000132178	5.10623E-05	0	5	0	
0.0985	-0.00233277	0.00416158	0.000151862	6.40583E-05	0	5	0	
0.0986667	-0.00546629	-0.0032933	0.000136354	5.74631E-05	0	5	0	
0.0988333	0.0034911	0.0035999	0.00014026	7.59353E-05	0	5	0	
0.099	-0.00355208	-0.00214667	0.000112294	6.14653E-05	0	5	0	
0.0991667	0.000992263	0.00234208	9.48918E-05	6.90358E-05	0	5	0	
0.0993333	-0.000368822	-0.00223774	7.0379E-05	5.34924E-05	0	5	0	
0.0995	0.000374919	0.00281596	5.72917E-05	6.26024E-05	0	5	0	
0.0996667	-0.00385485	-0.00149485	5.52369E-05	4.84187E-05	0	5	0	
0.0998333	-0.00188568	0.00273934	5.48728E-05	5.84852E-05	0	5	0	
0.1	-0.00210256	-0.00176303	5.66841E-05	5.0665E-05	0	5	0	
0.100167	-0.00178091	0.00166324	5.16858E-05	5.7237E-05	0	5	0	
0.100333	2.96131E-05	-0.00237233	4.0548E-05	4.13144E-05	0	5	0	
0.1005	-0.00170806	0.00279056	5.88914E-05	4.76939E-05	0	5	0	
0.100667	0.00203824	-0.00291127	9.43216E-05	4.67174E-05	0	5	0	
0.100833	-0.00146604	0.00387581	0.000133826	6.91375E-05	0	5	0	
0.101	-0.00712664	-0.00392359	0.000130244	7.43711E-05	0	5	0	
0.101167	0.00646934	0.00247558	0.000112905	8.92789E-05	0	5	0	
0.101333	-0.00424829	-0.00240867	0.000110655	8.20046E-05	0	5	0	
0.1015	-0.00357818	0.00319284	0.000102798	8.49609E-05	0	5	0	
0.101667	0.00520462	-0.00260836	8.78194E-05	6.69043E-05	0	5	0	
0.101833	-0.00458052	0.00341926	8.32762E-05	6.7559E-05	0	5	0	
0.102	-0.0103499	-0.0047854	0.000150887	6.37856E-05	0	5	0	
0.102167	0.0203909	0.00401585	0.000253894	8.62758E-05	0	5	0	
0.102333	-0.0202915	-0.00405439	0.000333823	8.33505E-05	0	5	0	
0.1025	0.0043601	0.00355987	0.000409177	9.01682E-05	0	5	0	
0.102667	0.0118872	-0.00145385	0.000489108	6.91815E-05	0	5	0	
0.102833	-0.0251408	0.00257864	0.000502657	7.11978E-05	0	5	0	
0.103	0.0213287	-0.00248191	0.000471727	5.2124E-05	0	5	0	
0.103167	-0.00899732	0.00276609	0.000425957	5.68643E-05	0	5	0	
0.103333	-0.00667854	-0.00400509	0.000500792	5.10264E-05	0	5	0	
0.1035	0.0202184	0.00277356	0.000564688	6.74384E-05	0	5	0	
0.103667	-0.0214833	-0.00299075	0.000537108	6.72744E-05	0	5	0	
0.103833	0.0106884	0.00338387	0.000440057	7.80281E-05	0	5	0	
0.104	0.00375596	-0.00224746	0.000357609	6.39701E-05	0	5	0	
0.104167	-0.00534567	0.0027589	0.000282649	6.81283E-05	0	5	0	
0.104333	0.00249564	-0.00395726	0.000178345	5.97289E-05	0	5	0	
0.1045	-0.00257607	0.00419117	0.000102128	8.02861E-05	0	5	0	
0.104667	0.0041495	-0.00414611	9.32555E-05	7.88456E-05	0	5	0	
0.104833	-0.0049416	0.00277729	0.000120879	8.69555E-05	0	5	0	
0.105	0.00594387	-0.00130127	0.000111532	6.68352E-05	0	5	0	
0.105167	-0.00278962	0.00160506	0.000105622	6.17738E-05	0	5	0	
0.105333	0.000348264	-0.00302194	0.000105234	4.60405E-05	0	5	0	
0.1055	0.000480259	0.00399076	0.000104952	5.79498E-05	0	5	0	
0.105667	-0.000222152	-0.00329394	7.79414E-05	5.71618E-05	0	5	0	
0.105833	0.000336947	0.00308486	4.81858E-05	7.14865E-05	0	5	0	
0.106	-0.00255356	-0.00201114	3.60839E-05	6.31497E-05	0	5	0	
0.106167	0.00401226	0.0025372	3.8467E-05	7.05249E-05	0	5	0	
0.106333	0.00158237	-0.0029226	5.92167E-05	5.93791E-05	0	5	0	
0.1065	-0.00644395	0.00322884	8.0317E-05	6.44125E-05	0	5	0	
0.106667	0.00569345	-0.0038121	9.58347E-05	5.9176E-05	0	5	0	
0.106833	0.00338067	0.00364631	0.000155338	7.14829E-05	0	5	0	
0.107	-0.0172679	-0.00308409	0.000233271	6.7758E-05	0	5	0	
0.107167	0.0187295	0.00363251	0.000314275	7.85773E-05	0	5	0	
0.107333	-0.0114038	-0.00398786	0.000326862	7.1766E-05	0	5	0	
0.1075	0.00204901	0.00320606	0.000269905	7.89646E-05	0	5	0	
0.107667	0.00569185	-0.00246965	0.00022501	6.78055E-05	0	5	0	
0.107833	-0.0130428	0.00167568	0.0002076	6.75577E-05	0	5	0	
0.108	0.00919045	-0.00222077	0.000203848	5.2441E-05	0	5	0	
0.108167	-0.00250693	0.00313353	0.000260376	6.06408E-05	0	5	0	
0.108333	-0.00806786	-0.00323326	0.000316706	5.35173E-05	0	5	0	
0.1085	0.00722192	0.00283448	0.000343713	6.58257E-05	0	5	0	
0.108667	-0.0025349	-0.00397316	0.000251866	5.83585E-05	0	5	0	
0.108833	0.000734668	0.00294592	0.000131185	7.13379E-05	0	5	0	
0.109	-0.002768	-0.00313975	7.92719E-05	6.68788E-05	0	5	0	
0.109167	-7.40422E-06	0.0034779	5.74228E-05	8.16466E-05	0	5	0	
0.109333	0.00100291	-0.00344558	4.45237E-05	7.72552E-05	0	5	0	
0.1095	-0.00247738	0.00220666	4.33826E-05	8.28073E-05	0	5	0	
0.109667	0.000117522	-0.00260136	7.38281E-05	6.78114E-05	0	5	0	
0.109833	0.00259859	0.00134467	8.67693E-05	6.47018E-05	0	5	0	
0.11	-0.00124816	-0.00355939	8.57557E-05	5.48908E-05	0	5	0	
0.110167	-0.0013943	0.00315946	7.98597E-05	6.52013E-05	0	5	0	
0.110333	0.00166869	-0.00371317	7.04636E-05	6.08225E-05	0	5	0	
0.1105	-0.00445166	0.00308183	7.85245E-05	7.08207E-05	0	5	0	
0.110667	0.00294539	-0.00321938	7.38698E-05	5.78212E-05	0	5	0	
0.110833	-0.000868725	0.00297887	9.17325E-05	7.06338E-05	0	5	0	
0.111	-0.000919397	-0.0028849	8.20311E-05	6.71781E-05	0	5	0	
0.111167	0.00310177	0.00209238	6.44458E-05	7.37259E-05	0	5	0	
0.111333	-0.00189497	-0.00237814	5.91456E-05	5.38017E-05	0	5	0	
0.1115	-0.00338692	0.00236189	5.36119E-05	5.19262E-05	0	5	0	
0.111667	0.00168093	-0.00186294	5.89209E-05	4.63367E-05	0	5	0	
0.111833	-0.000482529	0.0013713	4.48936E-05	5.30253E-05	0	5	0	
0.112	-0.000304346	-0.00248746	4.44564E-05	4.33085E-05	0	5	0	
0.112167	0.00129191	0.00368534	3.99894E-05	5.32715E-05	0	5	0	
0.112333	-0.00156602	-0.00369723	4.39681E-05	5.57794E-05	0	5	0	
0.1125	0.000177883	0.00320968	3.19527E-05	7.30876E-05	0	5	0	
0.112667	0.00158722	-0.00333698	2.57555E-05	6.66386E-05	0	5	0	
0.112833	-0.000703718	0.00303349	2.79151E-05	7.60522E-05	0	5	0	
0.113	-0.000640793	-0.00284531	3.21201E-05	6.8942E-05	0	5	0	
0.113167	-0.00307258	0.00394793	4.98158E-05	8.03923E-05	0	5	0	
0.113333	0.000490283	-0.00335099	7.11919E-05	7.17751E-05	0	5	0	
0.1135	0.00468748	0.00341485	0.000119892	7.38136E-05	0	5	0	
0.113667	-0.0102038	-0.00276621	0.000155268	5.95841E-05	0	5	0	
0.113833	0.0119746	0.00229511	0.000201675	6.37503E-05	0	5	0	
0.114	-0.00205981	-0.00136232	0.000332179	4.89662E-05	0	5	0	
0.114167	-0.0231713	0.0025535	0.000467004	4.96389E-05	0	5	0	
0.114333	0.0313279	-0.00312599	0.000537568	4.17088E-05	0	5	0	
0.1145	-0.0181759	0.00248884	0.000535216	5.22675E-05	0	5	0	
0.114667	0.000639611	-0.00316907	0.00054051	5.24124E-05	0	5	0	
0.114833	0.0144048	0.00240937	0.000560856	5.85104E-05	0	5	0	
0.115	-0.0291926	-0.00278407	0.000542538	5.54062E-05	0	5	0	
0.115167	0.0243165	0.00349235	0.000498837	6.38046E-05	0	5	0	
0.115333	-0.00779947	-0.00357073	0.000451766	6.59798E-05	0	5	0	
0.1155	-0.00917085	0.0016819	0.000459011	7.26716E-05	0	5	0	
0.115667	0.0194647	-0.0030289	0.000408783	6.27198E-05	0	5	0	
0.115833	-0.00985362	0.00282215	0.000385491	6.19182E-05	0	5	0	
0.116	0.00103235	-0.00326514	0.00026223	6.02273E-05	0	5	0	
0.116167	-0.0063625	0.00303391	0.000201161	7.00921E-05	0	5	0	
0.116333	0.00751695	-0.00381786	0.000139508	6.63518E-05	0	5	0	
0.1165	-0.000416285	0.00301956	0.0001306	7.26196E-05	0	5	0	
0.116667	-0.00261729	-0.00374919	0.000131728	6.33945E-05	0	5	0	
0.116833	0.00217821	0.00349446	0.000113402	7.26425E-05	0	5	0	
0.117	0.00157967	-0.00324059	8.24863E-05	6.86747E-05	0	5	0	
0.117167	-0.00382902	0.00218796	6.52035E-05	7.56783E-05	0	5	0	
0.117333	0.00431971	-0.00271736	6.15427E-05	6.16268E-05	0	5	0	
0.1175	0.00028318	0.00288094	7.09921E-05	6.26141E-05	0	5	0	
0.117667	-0.000861753	-0.00324596	7.21115E-05	5.54791E-05	0	5	0	
0.117833	-0.000528439	0.00260576	7.44006E-05	6.38114E-05	0	5	0	
0.118	0.000160112	-0.00366813	6.8297E-05	5.68248E-05	0	5	0	
0.118167	-0.00312967	0.00340793	5.77706E-05	6.71502E-05	0	5	0	
0.118333	0.00393534	-0.00395137	6.55886E-05	7.07572E-05	0	5	0	
0.1185	0.00709674	0.0027464	0.000113948	8.46915E-05	0	5	0	
0.118667	-0.0129335	-0.00214713	0.000165261	7.40648E-05	0	5	0	
0.118833	0.00773176	0.00175552	0.000213529	6.56771E-05	0	5	0	
0.119	0.00156357	-0.00306804	0.000245804	4.66426E-05	0	5	0	
0.119167	-0.00641092	0.00369345	0.000218349	5.66169E-05	0	5	0	
0.119333	0.00853807	-0.00466136	0.000182567	6.29442E-05	0	5	0	
0.1195	-0.00855129	0.00344805	0.000143625	8.42287E-05	0	5	0	
0.119667	0.00310339	-0.00334703	0.000167714	7.69956E-05	0	5	0	
0.119833	0.0102487	0.00265771	0.000242895	7.91553E-05	0	5	0	
0.12	-0.0140763	-0.00283089	0.000290974	6.0876E-05	0	5	0	
0.120167	0.00624175	0.00299765	0.000273264	6.34549E-05	0	5	0	
0.120333	0.00244352	-0.00391204	0.00019451	5.65143E-05	0	5	0	
0.1205	-0.00244491	0.00329909	0.000115403	7.04652E-05	0	5	0	
0.120667	0.0021929	-0.00367132	8.0367E-05	7.20985E-05	0	5	0	
0.120833	-0.000728446	0.00232631	5.73861E-05	7.52883E-05	0	5	0	
0.121	0.00343829	-0.00225448	5.12805E-05	5.94023E-05	0	5	0	
0.121167	-0.0026952	0.00199821	7.8625E-05	5.30909E-05	0	5	0	
0.121333	0.000727522	-0.00350805	9.18603E-05	4.61993E-05	0	5	0	
0.1215	0.00159136	0.00345219	8.74546E-05	6.14437E-05	0	5	0	
0.121667	-0.00229263	-0.00448003	7.37098E-05	6.65799E-05	0	5	0	
0.121833	0.00244947	0.00340489	6.62585E-05	7.97562E-05	0	5	0	
0.122	-0.000504539	-0.00318221	6.83731E-05	7.12522E-05	0	5	0	
0.122167	-0.00357364	0.00222868	5.97251E-05	7.20343E-05	0	5	0	
0.122333	0.00493576	-0.00291275	5.54335E-05	5.79182E-05	0	5	0	
0.1225	-0.00524688	0.00270575	8.01848E-05	6.0461E-05	0	5	0	
0.122667	0.0047246	-0.00379738	8.86264E-05	5.56931E-05	0	5	0	
0.122833	-0.00280697	0.00270162	0.000115423	6.88342E-05	0	5	0	
0.123	-0.00513935	-0.00317663	0.000118305	6.02376E-05	0	5	0	
0.123167	0.0100321	0.00269773	0.00015723	6.82836E-05	0	5	0	
0.123333	-0.00246219	-0.00245486	0.000168774	5.45484E-05	0	5	0	
0.1235	-0.00218479	0.00216822	0.000147626	6.03973E-05	0	5	0	
0.123667	0.00282656	-0.00336385	0.000111164	5.05169E-05	0	5	0	
0.123833	-0.00254726	0.00220564	7.12207E-05	6.02661E-05	0	5	0	
0.124	0.00309036	-0.00317961	7.55458E-05	5.55502E-05	0	5	0	
0.124167	-0.00248957	0.0022691	8.35175E-05	6.27021E-05	0	5	0	
0.124333	0.00683099	-0.00223167	0.000124352	4.93198E-05	0	5	0	
0.1245	-0.00345957	0.00334097	0.000150611	5.49959E-05	0	5	0	
0.124667	-0.00172444	-0.00478037	0.000126742	5.17605E-05	0	5	0	
0.124833	0.00327286	0.00403941	8.08631E-05	7.63435E-05	0	5	0	
0.125	0.00119141	-0.00394035	4.69532E-05	7.88318E-05	0	5	0	
0.125167	-0.00792463	0.00283484	0.000101788	8.4296E-05	0	5	0	
0.125333	0.0156811	-0.00282714	0.000157154	6.64303E-05	0	5	0	
0.1255	-0.00971839	0.00261624	0.000248445	6.84136E-05	0	5	0	
0.125667	-0.010307	-0.00359136	0.000372046	5.84708E-05	0	5	0	
0.125833	0.0212294	0.0024682	0.000476197	6.76021E-05	0	5	0	
0.126	-0.0173922	-0.00316671	0.000480424	6.06996E-05	0	5	0	
0.126167	0.0116954	0.00268684	0.000393665	6.85829E-05	0	5	0	
0.126333	-0.0016463	-0.00335899	0.000342588	5.99756E-05	0	5	0	
0.1265	-0.00906417	0.00314773	0.000363718	6.77777E-05	0	5	0	
0.126667	0.01998	-0.00290683	0.000368339	5.92417E-05	0	5	0	
0.126833	-0.0182245	0.00335271	0.000375416	6.79801E-05	0	5	0	
0.127	0.00434659	-0.00440323	0.000387389	6.62501E-05	0	5	0	
0.127167	0.0123461	0.00320104	0.000389544	8.07346E-05	0	5	0	
0.127333	-0.0084069	-0.0038529	0.000339529	7.39634E-05	0	5	0	
0.1275	0.00327581	0.00267017	0.000212654	7.49355E-05	0	5	0	
0.127667	-0.0034392	-0.002555	0.000137908	6.45025E-05	0	5	0	
0.127833	0.0036793	0.0033005	0.000101432	7.27229E-05	0	5	0	
0.128	0.000575653	-0.00313573	0.000120207	6.58101E-05	0	5	0	
0.128167	-0.000157744	0.0027102	0.000110104	6.88285E-05	0	5	0	
0.128333	-0.00192086	-0.00417923	9.4887E-05	5.91004E-05	0	5	0	
0.1285	0.001012	0.00263531	7.93112E-05	7.00648E-05	0	5	0	
0.128667	-0.000471342	-0.00376164	9.18018E-05	6.85688E-05	0	5	0	
0.128833	0.000189294	0.00236953	0.000112258	7.95054E-05	0	5	0	
0.129	0.00312402	-0.00281787	0.000116561	6.63025E-05	0	5	0	
0.129167	-0.00294282	0.0024552	0.000116437	6.91161E-05	0	5	0	
0.129333	0.00158258	-0.00372407	8.50271E-05	5.49325E-05	0	5	0	
0.1295	-0.00391974	0.00389313	9.67136E-05	6.8008E-05	0	5	0	
0.129667	0.00258143	-0.00491772	9.30408E-05	7.18179E-05	0	5	0	
0.129833	-0.00279136	0.00294928	0.000112711	9.0134E-05	0	5	0	
0.13	0.00813141	-0.00305678	0.000111147	8.02929E-05	0	5	0	
0.130167	-0.0122294	0.00235921	0.000164528	7.8195E-05	0	5	0	
0.130333	0.0162459	-0.00220902	0.00020598	5.29092E-05	0	5	0	
0.1305	-0.0128383	0.00237616	0.000266983	5.34515E-05	0	5	0	
0.130667	0.00358266	-0.00305824	0.000242208	4.3299E-05	0	5	0	
0.130833	0.00168311	0.00248532	0.000246124	6.1906E-05	0	5	0	
0.131	-0.00916914	-0.00219206	0.000218789	5.9667E-05	0	5	0	
0.131167	0.0152104	0.00225293	0.000215849	6.8088E-05	0	5	0	
0.131333	-0.0111467	-0.00294169	0.000263201	5.76301E-05	0	5	0	
0.1315	-0.00171552	0.00296425	0.000329227	6.5323E-05	0	5	0	
0.131667	0.00840981	-0.0038231	0.000358835	6.02015E-05	0	5	0	
0.131833	-0.00822523	0.00437883	0.000279501	7.82986E-05	0	5	0	
0.132	0.00542827	-0.00456575	0.000202797	7.75528E-05	0	5	0	
0.132167	-0.000478908	0.00320741	0.000163383	8.74994E-05	0	5	0	
0.132333	-0.00500729	-0.00332696	0.000146505	7.44826E-05	0	5	0	
0.1325	0.00738192	0.00173428	0.000123182	7.25072E-05	0	5	0	
0.132667	-0.000471708	-0.00226037	0.00011606	5.31146E-05	0	5	0	
0.132833	-0.00117459	0.00305794	0.00010402	5.57441E-05	0	5	0	
0.133	0.000219716	-0.00388275	8.03819E-05	5.1353E-05	0	5	0	
0.133167	0.00510676	0.00164001	5.82187E-05	6.46234E-05	0	5	0	
0.133333	-0.00512556	-0.00385037	7.88774E-05	5.78341E-05	0	5	0	
0.1335	0.00461672	0.00291279	8.61033E-05	6.68047E-05	0	5	0	
0.133667	-0.000132818	-0.00287813	9.38138E-05	6.09779E-05	0	5	0	
0.133833	-0.00150625	0.00227035	7.91848E-05	6.60669E-05	0	5	0	
0.134	0.00323973	-0.00305139	6.67509E-05	5.4704E-05	0	5	0	
0.134167	-0.00240312	0.00155323	5.83798E-05	5.5508E-05	0	5	0	
0.134333	0.00417041	-0.00371484	8.23578E-05	4.92186E-05	0	5	0	
0.1345	-0.00026831	0.00303313	0.000110383	6.12898E-05	0	5	0	
0.134667	-0.00145033	-0.00396241	0.000116145	6.21502E-05	0	5	0	
0.134833	0.00177198	0.00255887	0.000102857	7.42698E-05	0	5	0	
0.135	-0.00234794	-0.00385692	8.88155E-05	6.49653E-05	0	5	0	
0.135167	0.00198589	0.00244593	6.88436E-05	6.89777E-05	0	5	0	
0.135333	0.000374576	-0.00344844	4.90183E-05	5.88081E-05	0	5	0	
0.1355	0.00125619	0.002813	3.05814E-05	6.52717E-05	0	5	0	
0.135667	-0.00129238	-0.00400439	4.07196E-05	6.06407E-05	0	5	0	
0.135833	-0.00056695	0.00233683	3.27422E-05	7.01374E-05	0	5	0	
0.136	0.001894	-0.00343033	4.23023E-05	5.84242E-05	0	5	0	
0.136167	0.00372675	0.00266323	6.96358E-05	6.54853E-05	0	5	0	
0.136333	-0.00748274	-0.00378893	0.000128833	5.29653E-05	0	5	0	
0.1365	0.00744344	0.00350576	0.000146088	6.66115E-05	0	5	0	
0.136667	0.00588544	-0.00405659	0.000232497	6.37182E-05	0	5	0	
0.136833	-0.0191084	0.00277178	0.000329329	7.58818E-05	0	5	0	
0.137	0.0211951	-0.00308942	0.000400995	6.78073E-05	0	5	0	
0.137167	-0.00806187	0.00185731	0.00042044	6.63591E-05	0	5	0	
0.137333	-0.00643749	-0.00311998	0.000453745	5.482E-05	0	5	0	
0.1375	0.0181722	0.00324775	0.000494444	6.19282E-05	0	5	0	
0.137667	-0.0217676	-0.00462316	0.00047045	6.35612E-05	0	5	0	
0.137833	0.0200084	0.00355735	0.00040178	8.02112E-05	0	5	0	
0.138	-0.00398363	-0.00416999	0.000405334	7.82359E-05	0	5	0	
0.138167	-0.0155123	0.00304098	0.000423798	8.46283E-05	0	5	0	
0.138333	0.0189825	-0.00432986	0.00038682	7.2139E-05	0	5	0	
0.1385	-0.00799521	0.00375028	0.000357534	7.90142E-05	0	5	0	
0.138667	8.30236E-06	-0.00382729	0.000313765	7.14947E-05	0	5	0	
0.138833	0.00163537	0.00331947	0.000250146	7.90992E-05	0	5	0	
0.139	0.00186905	-0.00455946	0.000142432	7.16633E-05	0	5	0	
0.139167	-0.00539307	0.00273979	7.24066E-05	7.97352E-05	0	5	0	
0.139333	0.00316562	-0.00300301	7.25468E-05	6.49241E-05	0	5	0	
0.1395	0.000253557	0.00228487	7.38969E-05	6.54191E-05	0	5	0	
0.139667	0.000518961	-0.00303408	5.09543E-05	5.03725E-05	0	5	0	
0.139833	-0.00109803	0.00153213	5.01034E-05	5.68171E-05	0	5	0	
0.14	-0.00056182	-0.00258154	5.58253E-05	4.54557E-05	0	5	0	
0.140167	-0.000552003	0.00225707	5.66503E-05	5.10722E-05	0	5	0	
0.140333	0.000702299	-0.00406001	3.50774E-05	4.73773E-05	0	5	0	
0.1405	0.0033587	0.00210725	3.48128E-05	6.38998E-05	0	5	0	
0.140667	0.00121102	-0.00329625	3.87487E-05	5.34072E-05	0	5	0	
0.140833	0.000844256	0.00232091	4.84242E-05	6.10403E-05	0	5	0	
0.141	-0.00485087	-0.00344473	6.14152E-05	4.9913E-05	0	5	0	
0.141167	0.00747018	0.00232206	9.19809E-05	6.57701E-05	0	5	0	
0.141333	-0.00890486	-0.00312683	0.000126338	6.17808E-05	0	5	0	
0.1415	0.0102704	0.00224431	0.000201065	6.65867E-05	0	5	0	
0.141667	0.00198739	-0.00378551	0.000264237	6.00125E-05	0	5	0	
0.141833	-0.00218062	0.0029386	0.000280894	6.85651E-05	0	5	0	
0.142	0.00744368	-0.00425609	0.000190593	6.55839E-05	0	5	0	
0.142167	-0.0043542	0.00330133	0.000127884	7.5733E-05	0	5	0	
0.142333	-0.00113734	-0.0040737	0.00016343	6.7514E-05	0	5	0	
0.1425	0.0147061	0.00354295	0.000264545	7.66862E-05	0	5	0	
0.142667	-0.0136849	-0.0031972	0.000334876	6.91647E-05	0	5	0	
0.142833	0.00961924	0.00215905	0.000289633	7.00567E-05	0	5	0	
0.143	0.00138296	-0.00284272	0.000220542	5.23216E-05	0	5	0	
0.143167	-0.00111914	0.00163713	0.000147718	5.32151E-05	0	5	0	
0.143333	0.00489419	-0.00318543	0.000115544	4.10055E-05	0	5	0	
0.1435	-0.00495625	0.00368647	0.000102239	5.6154E-05	0	5	0	
0.143667	0.0045309	-0.00307675	8.54001E-05	5.28491E-05	0	5	0	
0.143833	-0.00176351	0.00263716	9.54411E-05	6.37492E-05	0	5	0	
0.144	0.00182735	-0.00401771	6.70031E-05	6.05514E-05	0	5	0	
0.144167	0.000568664	0.00228691	4.95669E-05	6.78024E-05	0	5	0	
0.144333	0.00248303	-0.00359236	5.18083E-05	6.54907E-05	0	5	0	
0.1445	0.000509051	0.00332552	7.49529E-05	6.99132E-05	0	5	0	
0.144667	-0.00261988	-0.00330166	7.97026E-05	6.35277E-05	0	5	0	
0.144833	-0.000198825	0.00330348	8.05635E-05	6.8957E-05	0	5	0	
0.145	0.0047256	-0.00454766	6.84419E-05	6.76888E-05	0	5	0	
0.145167	-0.00190299	0.00228514	7.51905E-05	7.56264E-05	0	5	0	
0.145333	0.00522417	-0.00338887	6.84333E-05	6.77534E-05	0	5	0	
0.1455	-0.00137287	0.00166079	8.21956E-05	6.30458E-05	0	5	0	
0.145667	0.00378923	-0.00262076	7.49822E-05	4.9266E-05	0	5	0	
0.145833	0.000440795	0.0016339	6.69125E-05	5.29366E-05	0	5	0	
0.146	0.00133681	-0.00305275	5.24401E-05	4.46094E-05	0	5	0	
0.146167	0.00273207	0.00196401	5.52771E-05	5.11466E-05	0	5	0	
0.146333	-0.00101336	-0.00413126	6.26546E-05	4.98892E-05	0	5	0	
0.1465	0.000175837	0.00360691	6.3793E-05	6.71462E-05	0	5	0	
0.146667	-0.000484427	-0.00433293	8.47572E-05	6.73179E-05	0	5	0	
0.146833	0.00150815	0.0022047	0.000111031	7.6007E-05	0	5	0	
0.147	0.00615505	-0.00334236	0.000132119	5.78034E-05	0	5	0	
0.147167	-0.00764867	0.00299951	0.000142641	6.48079E-05	0	5	0	
0.147333	0.00587228	-0.00416002	0.000150665	5.85929E-05	0	5	0	
0.1475	0.0030861	0.002587	0.000174229	7.19826E-05	0	5	0	
0.147667	-0.00992007	-0.00257933	0.000178174	5.81964E-05	0	5	0	
0.147833	-0.000792432	0.00239179	0.000182334	6.17998E-05	0	5	0	
0.148	0.0192701	-0.00346189	0.000227072	5.08773E-05	0	5	0	
0.148167	-0.0224612	0.00329516	0.00030429	6.67667E-05	0	5	0	
0.148333	0.0168516	-0.00456011	0.000405006	6.4821E-05	0	5	0	
0.1485	0.00789842	0.00426105	0.000487279	8.00505E-05	0	5	0	
0.148667	-0.0176011	-0.00417526	0.000498642	7.28445E-05	0	5	0	
0.148833	0.0179048	0.00227504	0.000417262	7.98111E-05	0	5	0	
0.149	-0.0103973	-0.00366926	0.000346233	6.65258E-05	0	5	0	
0.149167	-0.000917736	0.00261903	0.000337802	7.15718E-05	0	5	0	
0.149333	0.0187591	-0.00334198	0.000386921	5.82357E-05	0	5	0	
0.1495	-0.0172239	0.00321649	0.00040423	6.58055E-05	0	5	0	
0.149667	0.0117636	-0.0035882	0.000359849	5.76098E-05	0	5	0	
0.149833	0.00246128	0.00216928	0.000328593	6.64221E-05	0	5	0	
0.15	-0.00162001	-0.00439587	0.000249379	6.44549E-05	0	5	0	
0.150167	0.00087021	0.00245061	0.000175393	7.35199E-05	0	5	0	
0.150333	0.00141689	-0.00374014	9.32852E-05	6.77184E-05	0	5	0	
0.1505	0.00013138	0.00273547	7.34879E-05	6.90882E-05	0	5	0	
0.150667	-0.00286569	-0.00366884	8.14107E-05	5.76048E-05	0	5	0	
0.150833	0.0028385	0.00264257	7.76914E-05	6.37376E-05	0	5	0	
0.151	0.00380741	-0.00379131	5.41509E-05	6.09134E-05	0	5	0	
0.151167	-0.000722714	0.00251632	5.50244E-05	7.27132E-05	0	5	0	
0.151333	0.0043331	-0.00376338	8.08076E-05	6.61263E-05	0	5	0	
0.1515	-0.001477	0.00228469	0.000129274	6.89375E-05	0	5	0	
0.151667	-0.00420466	-0.00336548	0.000151706	5.59355E-05	0	5	0	
0.151833	0.00306551	0.00240557	0.000135101	6.07189E-05	0	5	0	
0.152	0.000785556	-0.00505416	8.66085E-05	5.76233E-05	0	5	0	
0.152167	-0.0018097	0.00254882	5.84582E-05	7.03453E-05	0	5	0	
0.152333	0.00162493	-0.00348367	3.96354E-05	6.88785E-05	0	5	0	
0.1525	0.000120911	0.00183173	4.34902E-05	7.13565E-05	0	5	0	
0.152667	0.00661642	-0.00210924	8.81596E-05	5.3119E-05	0	5	0	
0.152833	-0.0175752	0.00169163	0.000182729	4.91364E-05	0	5	0	
0.153	0.01943	-0.004278	0.000270192	4.35463E-05	0	5	0	
0.153167	-0.00996937	0.00280545	0.000310737	6.62188E-05	0	5	0	
0.153333	0.00284509	-0.00528811	0.000300083	7.25902E-05	0	5	0	
0.1535	0.0038987	0.00379664	0.000283279	8.95684E-05	0	5	0	
0.153667	-0.0111348	-0.00399804	0.000257651	7.85876E-05	0	5	0	
0.153833	0.0137	0.00215656	0.000238294	7.73652E-05	0	5	0	
0.154	-0.00538175	-0.00428974	0.000256368	6.62641E-05	0	5	0	
0.154167	-0.00340158	0.00232262	0.000283138	7.2865E-05	0	5	0	
0.154333	0.00937721	-0.00320161	0.000256609	6.73097E-05	0	5	0	
0.1545	-0.0065584	0.00170118	0.000210238	6.4539E-05	0	5	0	
0.154667	0.00475599	-0.00307069	0.000137181	4.86489E-05	0	5	0	
0.154833	-0.000600785	0.00233471	0.000123399	5.44593E-05	0	5	0	
0.155	0.00193596	-0.00493023	7.90569E-05	5.24165E-05	0	5	0	
0.155167	-0.00511388	0.00412715	8.15566E-05	7.66757E-05	0	5	0	
0.155333	0.00677088	-0.00410674	7.88329E-05	7.87932E-05	0	5	0	
0.1555	-0.00132621	0.00248304	8.8345E-05	8.47325E-05	0	5	0	
0.155667	-0.000103255	-0.00341836	8.32755E-05	6.4787E-05	0	5	0	
0.155833	0.000352769	0.00259022	8.12637E-05	7.06735E-05	0	5	0	
0.156	-0.00187261	-0.00313659	6.75098E-05	5.7348E-05	0	5	0	
0.156167	0.00497893	0.00341362	6.19763E-05	6.61394E-05	0	5	0	
0.156333	-0.00254259	-0.00479675	7.14749E-05	6.20337E-05	0	5	0	
0.1565	0.00189358	0.00335864	7.92652E-05	8.0828E-05	0	5	0	
0.156667	0.00031807	-0.0036839	8.22297E-05	7.36436E-05	0	5	0	
0.156833	-0.00263499	0.00258588	5.67851E-05	7.74505E-05	0	5	0	
0.157	0.000383904	-0.00352226	4.61128E-05	6.0214E-05	0	5	0	
0.157167	-0.000484596	0.00254681	3.03193E-05	6.97632E-05	0	5	0	
0.157333	0.00431213	-0.00494256	3.21184E-05	6.29841E-05	0	5	0	
0.1575	-0.000393929	0.00265364	4.68152E-05	7.83834E-05	0	5	0	
0.157667	0.000428894	-0.00370899	5.80085E-05	6.89398E-05	0	5	0	
0.157833	0.00131476	0.0015749	7.99612E-05	6.99228E-05	0	5	0	
0.158	-0.00171563	-0.00259247	8.40518E-05	5.73257E-05	0	5	0	
0.158167	0.00284358	0.00155516	7.23507E-05	5.67301E-05	0	5	0	
0.158333	0.000314388	-0.00434377	6.18043E-05	5.18518E-05	0	5	0	
0.1585	0.00235412	0.00272194	5.40431E-05	6.42398E-05	0	5	0	
0.158667	0.000714034	-0.00511839	6.96281E-05	6.70623E-05	0	5	0	
0.158833	0.00436258	0.00379004	6.8843E-05	8.38805E-05	0	5	0	
0.159	-0.00462393	-0.00533523	7.9707E-05	8.15373E-05	0	5	0	
0.159167	-0.000399079	0.00387059	0.000129551	9.44708E-05	0	5	0	
0.159333	0.0143709	-0.00495163	0.000241259	8.38949E-05	0	5	0	
0.1595	-0.0240498	0.0036725	0.000356691	8.97768E-05	0	5	0	
0.159667	0.0246836	-0.00511447	0.000423881	7.99982E-05	0	5	0	
0.159833	-0.00681478	0.00307991	0.000461618	8.81124E-05	0	5	0	
0.16	-0.0088897	-0.00410085	0.000500731	7.65066E-05	0	5	0	
0.160167	0.019182	0.00192579	0.000485995	8.11511E-05	0	5	0	
0.160333	-0.0213135	-0.0038881	0.000437099	6.01619E-05	0	5	0	
0.1605	0.0116211	0.00361258	0.000382191	6.95993E-05	0	5	0	
0.160667	0.00564664	-0.0044014	0.000431734	6.38303E-05	0	5	0	
0.160833	-0.0162891	0.00397799	0.000442956	8.22816E-05	0	5	0	
0.161	0.0151784	-0.00464004	0.00039364	7.72629E-05	0	5	0	
0.161167	-0.00481743	0.00168965	0.000297898	8.1111E-05	0	5	0	
0.161333	0.00294213	-0.00389233	0.000213717	6.44524E-05	0	5	0	
0.1615	-0.00366887	0.00352181	0.000167643	7.03814E-05	0	5	0	
0.161667	0.00406888	-0.00402293	0.000109154	6.52841E-05	0	5	0	
0.161833	-0.00307712	0.00235303	9.86172E-05	7.68633E-05	0	5	0	
0.162	-0.00189023	-0.00381874	9.38398E-05	6.36234E-05	0	5	0	
0.162167	0.00392612	0.00227388	9.72741E-05	7.07471E-05	0	5	0	
0.162333	-0.00126299	-0.0040806	6.89577E-05	6.34757E-05	0	5	0	
0.1625	0.00166575	0.00348571	7.00839E-05	7.48999E-05	0	5	0	
0.162667	0.00316122	-0.00353011	7.59393E-05	6.36927E-05	0	5	0	
0.162833	-0.00261905	0.00225387	8.10483E-05	6.8566E-05	0	5	0	
0.163	0.00192548	-0.00435623	7.27302E-05	5.76289E-05	0	5	0	
0.163167	-4.70469E-05	0.00304026	6.77542E-05	7.37151E-05	0	5	0	
0.163333	0.000217606	-0.00407303	7.09024E-05	6.58472E-05	0	5	0	
0.1635	0.00219922	0.00339722	7.4688E-05	7.73366E-05	0	5	0	
0.163667	-0.00155919	-0.0044021	9.14028E-05	6.63152E-05	0	5	0	
0.163833	0.00594158	0.00352418	9.89232E-05	7.99429E-05	0	5	0	
0.164	-0.000531717	-0.00450239	0.000113433	7.67281E-05	0	5	0	
0.164167	-0.00430233	0.00250919	0.000184569	7.99616E-05	0	5	0	
0.164333	0.012853	-0.00430053	0.000249348	6.78049E-05	0	5	0	
0.1645	-0.0138942	0.00327227	0.000295302	7.50407E-05	0	5	0	
0.164667	0.00990417	-0.00476867	0.000252052	7.20685E-05	0	5	0	
0.164833	-0.00219537	0.0030929	0.000233766	8.9126E-05	0	5	0	
0.165	-0.0107489	-0.00450309	0.000257074	7.59033E-05	0	5	0	
0.165167	0.0231578	0.00332885	0.00028908	8.03442E-05	0	5	0	
0.165333	-0.0154113	-0.00528914	0.00033853	7.22955E-05	0	5	0	
0.1655	0.00191806	0.00327154	0.000362403	8.62858E-05	0	5	0	
0.165667	0.00749387	-0.00417291	0.000373088	7.96947E-05	0	5	0	
0.165833	-0.00698197	0.00237848	0.000311568	8.19146E-05	0	5	0	
0.166	0.00649189	-0.00236693	0.00021058	5.74473E-05	0	5	0	
0.166167	-0.000338897	0.00315064	0.000145309	6.21576E-05	0	5	0	
0.166333	-0.000576196	-0.00466398	0.000130393	5.57447E-05	0	5	0	
0.1665	0.00489328	0.00254847	0.000120859	7.68927E-05	0	5	0	
0.166667	-0.00139496	-0.00275729	9.97181E-05	6.69376E-05	0	5	0	
0.166833	0.00176259	0.00251331	8.06257E-05	6.58816E-05	0	5	0	
0.167	0.00396849	-0.00305417	7.60153E-05	5.1935E-05	0	5	0	
0.167167	0.00199087	0.00177517	8.21939E-05	5.65289E-05	0	5	0	
0.167333	-0.00106848	-0.00285476	8.35521E-05	4.77632E-05	0	5	0	
0.1675	0.00232415	0.00216701	6.90608E-05	5.39523E-05	0	5	0	
0.167667	0.000106296	-0.00378017	5.16605E-05	4.87025E-05	0	5	0	
0.167833	0.00243382	0.0025134	4.33778E-05	6.27293E-05	0	5	0	
0.168	0.00239843	-0.00379869	5.70657E-05	5.74998E-05	0	5	0	
0.168167	-0.000406505	0.0020719	5.76359E-05	6.32948E-05	0	5	0	
0.168333	0.000732591	-0.00450017	6.37305E-05	5.96561E-05	0	5	0	
0.1685	0.00485406	0.00318571	5.90868E-05	7.12866E-05	0	5	0	
0.168667	-0.00145609	-0.00388182	6.96744E-05	7.19437E-05	0	5	0	
0.168833	0.00402069	0.00196898	7.05436E-05	7.56012E-05	0	5	0	
0.169	0.00239041	-0.0038055	7.90706E-05	6.18445E-05	0	5	0	
0.169167	-0.00290255	0.00305863	7.94176E-05	6.68838E-05	0	5	0	
0.169333	0.00266153	-0.00438504	7.61154E-05	6.32963E-05	0	5	0	
0.1695	0.000552178	0.00292795	8.14901E-05	7.47916E-05	0	5	0	
0.169667	0.00158362	-0.00386876	7.37561E-05	6.90464E-05	0	5	0	
0.169833	-0.0031224	0.00214115	7.13124E-05	7.00683E-05	0	5	0	
0.17	0.00604637	-0.00322068	7.24022E-05	5.94861E-05	0	5	0	
0.170167	0.00187729	0.00275418	0.000105895	6.30835E-05	0	5	0	
0.170333	-0.0122729	-0.00411047	0.0001537	5.83117E-05	0	5	0	
0.1705	0.0147083	0.00242844	0.000189432	6.91551E-05	0	5	0	
0.170667	-0.00183339	-0.00456895	0.000282767	6.58764E-05	0	5	0	
0.170833	-0.0191158	0.0031261	0.000411649	7.60955E-05	0	5	0	
0.171	0.025665	-0.00366264	0.000506202	6.74477E-05	0	5	0	
0.171167	-0.0159225	0.00254973	0.00048721	6.96036E-05	0	5	0	
0.171333	0.0010231	-0.00344483	0.000449763	5.91173E-05	0	5	0	
0.1715	0.00969865	0.00191483	0.000445087	6.11549E-05	0	5	0	
0.171667	-0.0187459	-0.00401646	0.000433225	5.5711E-05	0	5	0	
0.171833	0.0169444	0.00293444	0.000372803	6.65945E-05	0	5	0	
0.172	-0.00763382	-0.00439166	0.000325774	6.60182E-05	0	5	0	
0.172167	-0.00306072	0.00321561	0.000339532	7.77178E-05	0	5	0	
0.172333	0.0131402	-0.00379305	0.000286858	7.00889E-05	0	5	0	
0.1725	-0.00554911	0.00236096	0.000255769	7.39393E-05	0	5	0	
0.172667	-0.0033818	-0.00455512	0.000171685	6.59168E-05	0	5	0	
0.172833	4.93615E-05	0.00243302	0.000142544	7.23139E-05	0	5	0	
0.173	0.00725377	-0.00340342	9.68844E-05	6.59242E-05	0	5	0	
0.173167	-0.00333818	0.00219969	8.54016E-05	6.7178E-05	0	5	0	
0.173333	0.00429884	-0.00390335	0.00011494	5.72143E-05	0	5	0	
0.1735	-0.00156566	0.00197517	0.000129394	6.26484E-05	0	5	0	
0.173667	-0.00169521	-0.00388208	0.000118042	5.67062E-05	0	5	0	
0.173833	0.00314182	0.00200704	8.20384E-05	6.06705E-05	0	5	0	
0.174	0.00148028	-0.00336512	5.05133E-05	5.54447E-05	0	5	0	
0.174167	0.0022128	0.00199178	4.84895E-05	5.78483E-05	0	5	0	
0.174333	9.62041E-05	-0.00421032	7.76067E-05	5.69902E-05	0	5	0	
0.1745	0.00257603	0.00260911	8.28571E-05	6.6124E-05	0	5	0	
0.174667	-0.000266983	-0.00391349	8.07407E-05	6.64012E-05	0	5	0	
0.174833	-0.000989679	0.00331711	6.07213E-05	7.19532E-05	0	5	0	
0.175	0.00230637	-0.0045754	6.65082E-05	6.92839E-05	0	5	0	
0.175167	0.00531931	0.00321505	0.000132902	7.99314E-05	0	5	0	
0.175333	-0.00230384	-0.00424437	0.000188536	7.3215E-05	0	5	0	
0.1755	0.00802682	0.00301296	0.0001873	7.71181E-05	0	5	0	
0.175667	-0.00507317	-0.00389713	0.000161559	6.70846E-05	0	5	0	
0.175833	0.00645601	0.0033456	0.00013277	7.19656E-05	0	5	0	
0.176	0.00884551	-0.00422506	0.000167125	6.75235E-05	0	5	0	
0.176167	0.00280639	0.00295217	0.000153008	7.48175E-05	0	5	0	
0.176333	-0.0178682	-0.00423276	0.000210291	6.94401E-05	0	5	0	
0.1765	0.00663429	0.00328008	0.000254351	7.37084E-05	0	5	0	
0.176667	-0.00412038	-0.00536182	0.000271704	7.14343E-05	0	5	0	
0.176833	-0.0177224	0.003712	0.000206656	8.59612E-05	0	5	0	
0.177	0.0181003	-0.0050142	0.000271484	8.23044E-05	0	5	0	
0.177167	0.00861991	0.00307097	0.000265549	8.82613E-05	0	5	0	
0.177333	-0.00893668	-0.00424142	0.000296936	7.59167E-05	0	5	0	
0.1775	-0.0109907	0.00277888	0.000211864	7.98956E-05	0	5	0	
0.177667	-0.00653507	-0.00482419	0.000210674	7.18162E-05	0	5	0	
0.177833	-0.00149343	0.00237589	0.000168637	7.67206E-05	0	5	0	
0.178	0.00754622	-0.00441228	0.00016561	6.8168E-05	0	5	0	
0.178167	0.00218141	0.00247503	0.000144542	7.41807E-05	0	5	0	
0.178333	-0.00843172	-0.00433877	0.000167465	6.56325E-05	0	5	0	
0.1785	0.00759216	0.0027996	0.00015669	7.57814E-05	0	5	0	
0.178667	0.00342054	-0.00494725	0.000149806	6.7679E-05	0	5	0	
0.178833	-0.000554067	0.0028163	0.000117146	7.73606E-05	0	5	0	
0.179	0.00191405	-0.00458716	6.72438E-05	6.87796E-05	0	5	0	
0.179167	-0.000780676	0.00235832	6.22476E-05	7.58482E-05	0	5	0	
0.179333	-0.00254075	-0.00549356	8.08888E-05	7.19579E-05	0	5	0	
0.1795	0.0204719	0.0027498	0.000132428	8.26374E-05	0	5	0	
0.179667	-0.00966719	-0.00466123	0.00026468	7.62705E-05	0	5	0	
0.179833	0.0114146	0.00221029	0.000317402	7.72633E-05	0	5	0	
0.18	0.00495258	-0.00428987	0.000293794	6.46552E-05	0	5	0	
0.180167	5.06021E-05	0.00264413	0.000166205	7.06389E-05	0	5	0	
0.180333	-0.000752867	-0.00531874	9.0695E-05	6.77154E-05	0	5	0	
0.1805	-0.00218543	0.00235754	6.78882E-05	8.07207E-05	0	5	0	
0.180667	0.00673265	-0.00518057	0.000156957	7.66863E-05	0	5	0	
0.180833	0.00777301	0.00335345	0.000290951	8.65202E-05	0	5	0	
0.181	-0.00120724	-0.00586353	0.000364869	8.05313E-05	0	5	0	
0.181167	0.00636235	0.00313874	0.000271619	9.28693E-05	0	5	0	
0.181333	-0.00104479	-0.00364738	0.000150213	8.28159E-05	0	5	0	
0.1815	-0.00861656	0.00200171	8.57738E-05	7.76275E-05	0	5	0	
0.181667	0.0139197	-0.00456974	0.000134374	6.45399E-05	0	5	0	
0.181833	-0.00106607	0.00313078	0.000233189	7.20845E-05	0	5	0	
0.182	-0.0142338	-0.00475051	0.000358583	7.3247E-05	0	5	0	
0.182167	0.0168533	0.00184504	0.000381259	8.35815E-05	0	5	0	
0.182333	-0.00837602	-0.00321879	0.000346183	6.90878E-05	0	5	0	
0.1825	-0.000685858	0.00297205	0.000299781	7.19642E-05	0	5	0	
0.182667	0.00546691	-0.00576016	0.000327341	6.2714E-05	0	5	0	
0.182833	-0.0175752	0.00469094	0.000362019	8.38292E-05	0	5	0	
0.183	0.0168307	-0.00582427	0.00034144	9.15889E-05	0	5	0	
0.183167	-0.0105097	0.00297228	0.000338021	9.94232E-05	0	5	0	
0.183333	-0.00631905	-0.00357101	0.000341884	8.17844E-05	0	5	0	
0.1835	0.0147541	0.00193929	0.000318121	7.16682E-05	0	5	0	
0.183667	-0.0110763	-0.00323921	0.000289722	5.21417E-05	0	5	0	
0.183833	-0.00199481	0.00165489	0.000225785	5.86118E-05	0	5	0	
0.184	-0.0013914	-0.0036443	0.000191169	5.55861E-05	0	5	0	
0.184167	-0.00941339	0.00267443	0.000153617	7.38289E-05	0	5	0	
0.184333	0.00254078	-0.00413538	0.00011622	6.71525E-05	0	5	0	
0.1845	0.0063551	0.00301261	0.000106282	7.4349E-05	0	5	0	
0.184667	-0.0134082	-0.00485478	0.000135011	6.87064E-05	0	5	0	
0.184833	0.0118461	0.00231676	0.000175847	7.78517E-05	0	5	0	
0.185	0.00210588	-0.00398959	0.000252881	7.1385E-05	0	5	0	
0.185167	-0.0178196	0.00225998	0.000283038	7.0549E-05	0	5	0	
0.185333	0.0123902	-0.00357394	0.000338819	6.28528E-05	0	5	0	
0.1855	-0.00216089	0.00208402	0.000296122	6.34659E-05	0	5	0	
0.185667	0.0029713	-0.00494522	0.000218883	6.15225E-05	0	5	0	
0.185833	0.00143513	0.00296412	0.000166656	7.41931E-05	0	5	0	
0.186	-0.0136547	-0.00491979	0.00017797	7.68791E-05	0	5	0	
0.186167	0.0135772	0.00238974	0.000246861	8.31143E-05	0	5	0	
0.186333	0.00755127	-0.00464052	0.00030416	7.32477E-05	0	5	0	
0.1865	-0.0154868	0.00318207	0.000339479	7.68561E-05	0	5	0	
0.186667	0.0090739	-0.00554833	0.000412464	7.49064E-05	0	5	0	
0.186833	0.0512282	0.0036978	0.000603867	8.94556E-05	0	5	0	
0.187	-0.142588	-0.00549789	0.00133259	8.77623E-05	0	5	0	
0.187167	0.0145894	0.00284957	0.00189689	9.20598E-05	0	5	0	
0.187333	0.0062019	-0.00452316	0.00172956	8.0511E-05	0	5	0	
0.1875	0.010907	0.00182237	0.00106696	7.68768E-05	0	5	0	
0.187667	0.0138229	-0.00317684	0.000503803	6.22553E-05	0	5	0	
0.187833	-0.0252349	0.0011821	0.000466807	5.89485E-05	0	5	0	
0.188	0.00618713	-0.00368571	0.000663945	5.08128E-05	0	5	0	
0.188167	-0.0970687	0.00285282	0.00134119	6.21121E-05	0	5	0	
0.188333	0.0182978	-0.00542185	0.0017164	6.41578E-05	0	5	0	
0.1885	0.0243501	0.00339528	0.00146695	8.31732E-05	0	5	0	
0.188667	-0.00356404	-0.00508399	0.000767714	8.24304E-05	0	5	0	
0.188833	0.00220943	0.00239033	0.00035042	8.46879E-05	0	5	0	
0.189	-0.0085891	-0.00412927	0.000262319	7.38065E-05	0	5	0	
0.189167	0.0164344	0.00247986	0.000208035	7.33897E-05	0	5	0	
0.189333	-0.00804066	-0.00429092	0.000226733	6.77737E-05	0	5	0	
0.1895	-0.00243543	0.00142949	0.000235891	7.27653E-05	0	5	0	
0.189667	0.0123519	-0.0035894	0.000188401	6.06247E-05	0	5	0	
0.189833	-0.00217889	0.00285203	0.000143504	6.47929E-05	0	5	0	
0.19	-0.00312935	-0.00468169	0.000137016	6.09546E-05	0	5	0	
0.190167	0.00686322	0.00255167	0.000122646	7.49754E-05	0	5	0	
0.190333	-0.000949036	-0.00352195	0.000109491	6.75295E-05	0	5	0	
0.1905	-0.00296555	0.00165631	0.000114635	6.70659E-05	0	5	0	
0.190667	0.00293132	-0.0041863	0.000118199	5.32397E-05	0	5	0	
0.190833	0.00148651	0.00299713	0.000107685	6.14368E-05	0	5	0	
0.191	-0.003508	-0.00427401	8.89045E-05	6.06306E-05	0	5	0	
0.191167	0.0020971	0.00207098	6.61114E-05	6.92866E-05	0	5	0	
0.191333	0.00350172	-0.00365493	6.15739E-05	5.97774E-05	0	5	0	
0.1915	-0.000670127	0.00300433	6.65656E-05	6.63324E-05	0	5	0	
0.191667	0.00233237	-0.00605212	6.15207E-05	6.92322E-05	0	5	0	
0.191833	-0.00270922	0.0047601	6.59304E-05	9.18129E-05	0	5	0	
0.192	0.00549357	-0.00594182	7.76548E-05	9.48521E-05	0	5	0	
0.192167	3.70398E-06	0.00288272	8.79289E-05	0.00010124	0	5	0	
0.192333	-0.00482269	-0.00438805	0.000126734	8.63961E-05	0	5	0	
0.1925	0.0165914	0.00213172	0.000168418	8.21523E-05	0	5	0	
0.192667	-0.012382	-0.00496627	0.000233321	7.06574E-05	0	5	0	
0.192833	-0.00266219	0.00294801	0.000296179	8.08684E-05	0	5	0	
0.193	0.0176367	-0.00476057	0.000365444	7.85641E-05	0	5	0	
0.193167	-0.0154353	0.00260101	0.000388656	9.22248E-05	0	5	0	
0.193333	0.0124173	-0.00532985	0.000348526	7.82898E-05	0	5	0	
0.1935	-0.00453534	0.00340991	0.000329933	8.87151E-05	0	5	0	
0.193667	-0.00727089	-0.00554497	0.000367339	7.83112E-05	0	5	0	
0.193833	0.0181752	0.00343817	0.000412544	9.5585E-05	0	5	0	
0.194	-0.0177304	-0.00399276	0.000389749	7.83319E-05	0	5	0	
0.194167	0.0058342	0.00137554	0.000354961	7.89622E-05	0	5	0	
0.194333	0.00438942	-0.0046181	0.000321838	5.78565E-05	0	5	0	
0.1945	-0.00433404	0.0026833	0.000244239	7.01145E-05	0	5	0	
0.194667	0.00175803	-0.00478488	0.000158448	6.72389E-05	0	5	0	
0.194833	-0.000370636	0.00262999	6.70839E-05	7.91173E-05	0	5	0	
0.195	0.00467027	-0.0037804	5.23175E-05	6.47943E-05	0	5	0	
0.195167	-0.00461039	0.0028558	6.26344E-05	7.11343E-05	0	5	0	
0.195333	0.0022887	-0.00562805	8.03446E-05	7.07583E-05	0	5	0	
0.1955	0.00297296	0.00254609	0.000108397	8.81245E-05	0	5	0	
0.195667	-0.00158674	-0.0052343	0.000117256	8.49002E-05	0	5	0	
0.195833	0.0018254	0.00281125	0.000120069	8.62354E-05	0	5	0	
0.196	0.00340806	-0.00484256	0.000103089	7.61298E-05	0	5	0	
0.196167	0.000950842	0.00271956	7.05312E-05	7.80671E-05	0	5	0	
0.196333	0.00127749	-0.00395914	5.53408E-05	7.10113E-05	0	5	0	
0.1965	0.000265205	0.00228606	4.85124E-05	7.64765E-05	0	5	0	
0.196667	0.00400493	-0.00561124	6.37626E-05	7.06958E-05	0	5	0	
0.196833	-0.00422991	0.00309015	8.80092E-05	8.24099E-05	0	5	0	
0.197	0.0028431	-0.00484717	0.000100539	7.55554E-05	0	5	0	
0.197167	0.00749028	0.00238715	0.000102414	8.26343E-05	0	5	0	
0.197333	-0.00530234	-0.0035933	0.000114086	6.73034E-05	0	5	0	
0.1975	0.00418492	0.0024	0.00012391	7.16945E-05	0	5	0	
0.197667	0.00361531	-0.00397229	0.000155378	6.10679E-05	0	5	0	
0.197833	-0.0063144	0.00234131	0.000160646	7.28855E-05	0	5	0	
0.198	0.0103334	-0.00498627	0.000163838	6.89669E-05	0	5	0	
0.198167	-0.00487813	0.00229463	0.000145804	8.0049E-05	0	5	0	
0.198333	0.000331332	-0.00438664	0.000165515	6.96224E-05	0	5	0	
0.1985	0.00813384	0.00244511	0.000200214	7.74377E-05	0	5	0	
0.198667	-0.00784247	-0.00364583	0.000207272	6.65721E-05	0	5	0	
0.198833	0.00520893	0.00221915	0.000176583	7.13179E-05	0	5	0	
0.199	0.00115939	-0.00394436	0.000142924	6.00423E-05	0	5	0	
0.199167	0.00138244	0.00193311	0.000122572	6.29219E-05	0	5	0	
0.199333	0.000498923	-0.00519153	8.94766E-05	6.14417E-05	0	5	0	
0.1995	0.00161493	0.00254483	5.7205E-05	7.44796E-05	0	5	0	
0.199667	-0.0014195	-0.0037339	4.85047E-05	7.07624E-05	0	5	0	
0.199833	0.00320626	0.00198191	5.75902E-05	7.12313E-05	0	5	0	
0.2	0.00148805	-0.00499574	6.60424E-05	6.09165E-05	0	5	0	
0.200167	-0.00141603	0.00270894	5.63797E-05	7.56766E-05	0	5	0	
0.200333	0.0033492	-0.0049925	4.71092E-05	7.63058E-05	0	5	0	
0.2005	-0.00187119	0.00235016	5.50703E-05	8.18713E-05	0	5	0	
0.200667	0.00592796	-0.0041693	8.48228E-05	7.08561E-05	0	5	0	
0.200833	-0.00331907	0.00187807	0.000119445	7.24566E-05	0	5	0	
0.201	0.00333823	-0.00507856	0.00011502	6.72481E-05	0	5	0	
0.201167	0.00025062	0.00195071	9.4511E-05	7.61181E-05	0	5	0	
0.201333	0.00133183	-0.0045076	6.49415E-05	7.20793E-05	0	5	0	
0.2015	-0.000761598	0.00172916	4.83232E-05	7.65399E-05	0	5	0	
0.201667	0.00264317	-0.00502952	4.77752E-05	6.80919E-05	0	5	0	
0.201833	0.00204362	0.00253365	6.14754E-05	7.61919E-05	0	5	0	
0.202	-0.0021465	-0.00537434	8.21467E-05	7.15975E-05	0	5	0	
0.202167	0.00495244	0.00275734	7.45799E-05	8.04705E-05	0	5	0	
0.202333	-0.00317194	-0.00426924	7.66302E-05	7.29085E-05	0	5	0	
0.2025	0.00188463	0.00166824	7.53481E-05	7.53429E-05	0	5	0	
0.202667	0.00719284	-0.00461758	8.52858E-05	6.41335E-05	0	5	0	
0.202833	-0.0105052	0.00258602	0.000108864	7.10003E-05	0	5	0	
0.203	0.00505257	-0.00420598	0.000205241	6.4216E-05	0	5	0	
0.203167	0.0156674	0.00294146	0.00034499	7.31658E-05	0	5	0	
0.203333	-0.0206718	-0.00453385	0.00042279	6.63997E-05	0	5	0	
0.2035	0.0131096	0.00199846	0.000406901	7.62069E-05	0	5	0	
0.203667	0.00461593	-0.0037028	0.000363855	6.36147E-05	0	5	0	
0.203833	-0.0103045	0.00168765	0.000314975	6.11935E-05	0	5	0	
0.204	0.0152632	-0.00316643	0.000277683	4.88214E-05	0	5	0	
0.204167	-0.013884	0.0023964	0.000252052	5.35792E-05	0	5	0	
0.204333	0.00759159	-0.0036222	0.000290072	5.36151E-05	0	5	0	
0.2045	0.00830098	0.00151048	0.00037913	6.18309E-05	0	5	0	
0.204667	-0.0136316	-0.00514387	0.000386764	6.21531E-05	0	5	0	
0.204833	0.00940891	0.0024903	0.00033239	7.24784E-05	0	5	0	
0.205	0.002519	-0.00429299	0.000238614	7.15523E-05	0	5	0	
0.205167	-0.00286549	0.00206317	0.000163207	7.64687E-05	0	5	0	
0.205333	0.00165483	-0.00450746	0.000117185	6.52594E-05	0	5	0	
0.2055	-0.000293239	0.00345667	7.898E-05	7.29971E-05	0	5	0	
0.205667	0.000573889	-0.00647994	5.73918E-05	7.59674E-05	0	5	0	
0.205833	0.000887665	0.00305085	4.22232E-05	9.76924E-05	0	5	0	
0.206	0.00433149	-0.00464292	3.05608E-05	8.99863E-05	0	5	0	
0.206167	-0.00151528	0.00161148	4.87022E-05	8.72213E-05	0	5	0	
0.206333	0.00429716	-0.00324678	5.61262E-05	5.84993E-05	0	5	0	
0.2065	-0.00265739	0.00192106	6.91604E-05	5.78762E-05	0	5	0	
0.206667	0.00472859	-0.00426585	7.05345E-05	5.07185E-05	0	5	0	
0.206833	0.00173111	0.00156122	8.91996E-05	6.90488E-05	0	5	0	
0.207	-0.00180002	-0.00348029	8.38244E-05	6.02517E-05	0	5	0	
0.207167	0.0034541	0.00232972	8.15649E-05	6.42209E-05	0	5	0	
0.207333	0.00318307	-0.00354305	8.22183E-05	5.1391E-05	0	5	0	
0.2075	-0.00445428	0.00204848	9.43771E-05	6.09586E-05	0	5	0	
0.207667	0.00666849	-0.00483337	0.000105713	5.96911E-05	0	5	0	
0.207833	0.00401086	0.00315322	0.000111359	7.57548E-05	0	5	0	
0.208	-0.00886956	-0.00476799	0.000125747	7.55333E-05	0	5	0	
0.208167	0.00815971	0.00375652	0.000138924	8.6889E-05	0	5	0	
0.208333	0.00102181	-0.00514928	0.000145668	8.06417E-05	0	5	0	
0.2085	-0.00174938	0.00303389	0.000152054	8.82568E-05	0	5	0	
0.208667	0.00619826	-0.00510296	0.000143986	8.07399E-05	0	5	0	
0.208833	-0.000463173	0.00286789	0.000121918	8.5683E-05	0	5	0	
0.209	-0.00277242	-0.00378129	0.00012315	7.47255E-05	0	5	0	
0.209167	0.0128375	0.00231169	0.000165115	7.55736E-05	0	5	0	
0.209333	-0.0121681	-0.00420476	0.000253277	6.48103E-05	0	5	0	
0.2095	0.00310403	0.0024617	0.000237124	7.29803E-05	0	5	0	
0.209667	0.000786017	-0.00501979	0.000173323	7.12023E-05	0	5	0	
0.209833	-0.00065778	0.00378993	7.58277E-05	8.12918E-05	0	5	0	
0.21	0.00492547	-0.00565381	5.45729E-05	8.18969E-05	0	5	0	
0.210167	-0.00329744	0.00263029	7.20017E-05	8.81633E-05	0	5	0	
0.210333	0.00200174	-0.00586484	0.00011792	8.32702E-05	0	5	0	
0.2105	-0.00336386	0.00356112	0.000172476	8.8353E-05	0	5	0	
0.210667	-0.00276939	-0.00524944	0.000162779	8.4006E-05	0	5	0	
0.210833	0.0045398	0.00318165	0.000126336	8.82676E-05	0	5	0	
0.211	-0.000293262	-0.00469356	6.57902E-05	8.32252E-05	0	5	0	
0.211167	0.00177603	0.00216057	4.6693E-05	8.51724E-05	0	5	0	
0.211333	0.000129998	-0.00507869	3.68798E-05	7.82607E-05	0	5	0	
0.2115	-0.00286887	0.00213585	3.54186E-05	7.90866E-05	0	5	0	
0.211667	0.00861935	-0.00514537	6.831E-05	7.25426E-05	0	5	0	
0.211833	-0.00834303	0.00340376	0.000101332	8.1961E-05	0	5	0	
0.212	0.00828519	-0.00531862	0.000150039	7.98582E-05	0	5	0	
0.212167	-0.00343753	0.00279494	0.000160214	8.92653E-05	0	5	0	
0.212333	0.00218271	-0.00439136	0.000167175	7.67718E-05	0	5	0	
0.2125	0.00394547	0.00275735	0.00014571	7.47516E-05	0	5	0	
0.212667	-0.00163047	-0.00583049	0.000110557	7.06133E-05	0	5	0	
0.212833	0.0022403	0.00316824	9.11939E-05	8.26574E-05	0	5	0	
0.213	0.00354414	-0.00449462	0.000101673	7.8897E-05	0	5	0	
0.213167	-0.00442876	0.00219015	0.000122903	8.13541E-05	0	5	0	
0.213333	0.00431209	-0.00448207	0.00011344	6.6489E-05	0	5	0	
0.2135	0.000572113	0.00262841	9.10935E-05	7.51243E-05	0	5	0	
0.213667	0.00106892	-0.00425511	7.66531E-05	6.75034E-05	0	5	0	
0.213833	0.00130026	0.00229514	6.07464E-05	7.93019E-05	0	5	0	
0.214	0.00728982	-0.00445956	6.14277E-05	7.07951E-05	0	5	0	
0.214167	-0.0103019	0.00308161	9.78506E-05	8.25353E-05	0	5	0	
0.214333	0.00638537	-0.00489937	0.000172221	7.42796E-05	0	5	0	
0.2145	0.0113549	0.00235142	0.000298035	8.26428E-05	0	5	0	
0.214667	-0.0213709	-0.00400481	0.000371519	7.08669E-05	0	5	0	
0.214833	0.0158266	0.00129148	0.000400705	7.08025E-05	0	5	0	
0.215	0.00485048	-0.00339091	0.0004097	5.3552E-05	0	5	0	
0.215167	-0.0138813	0.00213968	0.000415081	5.77784E-05	0	5	0	
0.215333	0.0183952	-0.00496649	0.000394107	5.51251E-05	0	5	0	
0.2155	-0.0154144	0.00364404	0.000336223	7.82676E-05	0	5	0	
0.215667	0.00981884	-0.00495261	0.000305617	8.01045E-05	0	5	0	
0.215833	0.00709114	0.00212644	0.000353976	8.50654E-05	0	5	0	
0.216	-0.0121914	-0.00350546	0.000360728	7.0868E-05	0	5	0	
0.216167	0.0105961	0.00187322	0.00031159	6.63287E-05	0	5	0	
0.216333	0.00304533	-0.00445262	0.000244797	5.96593E-05	0	5	0	
0.2165	-0.00301507	0.00324148	0.000178094	7.2503E-05	0	5	0	
0.216667	-0.00158612	-0.00457788	0.000141311	7.08559E-05	0	5	0	
0.216833	0.0074217	0.00310142	9.03872E-05	8.1293E-05	0	5	0	
0.217	0.000402132	-0.00428465	7.04465E-05	7.6341E-05	0	5	0	
0.217167	-0.00236052	0.0031778	9.08417E-05	8.08424E-05	0	5	0	
0.217333	0.00793237	-0.0051911	9.1169E-05	7.74029E-05	0	5	0	
0.2175	-0.00366208	0.00264389	0.000112353	8.32181E-05	0	5	0	
0.217667	0.00110432	-0.00415681	7.90913E-05	7.6783E-05	0	5	0	
0.217833	0.00158364	0.00187768	6.50771E-05	8.08664E-05	0	5	0	
0.218	0.00204662	-0.00441356	3.36476E-05	6.61044E-05	0	5	0	
0.218167	-0.000959144	0.00248712	4.46883E-05	7.55116E-05	0	5	0	
0.218333	0.0050163	-0.00476057	4.96895E-05	6.83838E-05	0	5	0	
0.2185	-0.000187142	0.00199709	6.07309E-05	8.04313E-05	0	5	0	
0.218667	0.000300512	-0.00397445	4.58348E-05	6.77248E-05	0	5	0	
0.218833	0.00203467	0.00169996	3.98023E-05	7.16086E-05	0	5	0	
0.219	4.02047E-05	-0.00439321	3.55331E-05	5.84035E-05	0	5	0	
0.219167	0.00640842	0.00208372	6.39512E-05	7.20682E-05	0	5	0	
0.219333	-0.00915842	-0.00589032	0.000102426	7.19704E-05	0	5	0	
0.2195	0.00843787	0.00329778	0.000151415	8.89306E-05	0	5	0	
0.219667	0.00438624	-0.00438395	0.000169965	8.37417E-05	0	5	0	
0.219833	-0.00310852	0.00188632	0.000150506	8.29874E-05	0	5	0	
0.22	0.00144083	-0.00417701	0.00010274	6.65599E-05	0	5	0	
0.220167	0.0018926	0.00145938	7.82727E-05	6.75389E-05	0	5	0	
0.220333	-0.00318859	-0.00458749	9.60347E-05	6.13665E-05	0	5	0	
0.2205	0.00746647	0.00238636	0.000134948	7.23727E-05	0	5	0	
0.220667	-0.00272307	-0.00386549	0.000155731	6.76775E-05	0	5	0	
0.220833	0.00226017	0.00216519	0.000128527	7.59131E-05	0	5	0	
0.221	0.00132247	-0.00426585	8.5944E-05	6.61519E-05	0	5	0	
0.221167	0.00206773	0.001823	5.03538E-05	7.26147E-05	0	5	0	
0.221333	-0.00214258	-0.00423726	7.29298E-05	6.38493E-05	0	5	0	
0.2215	0.00580549	0.00243944	8.63971E-05	7.07932E-05	0	5	0	
0.221667	-0.00337737	-0.00390917	0.00010922	6.14139E-05	0	5	0	
0.221833	0.00153675	0.00116415	8.35688E-05	7.06247E-05	0	5	0	
0.222	0.00399736	-0.00303381	6.70908E-05	5.4388E-05	0	5	0	
0.222167	-0.000627269	0.00212422	4.71946E-05	5.79305E-05	0	5	0	
0.222333	0.0037571	-0.00506232	5.882E-05	5.55364E-05	0	5	0	
0.2225	-0.00189342	0.00241134	7.85115E-05	7.25599E-05	0	5	0	
0.222667	0.00178834	-0.00388145	7.9808E-05	7.07203E-05	0	5	0	
0.222833	-0.00262263	0.00131325	6.85285E-05	6.85659E-05	0	5	0	
0.223	0.00489424	-0.00447485	6.80282E-05	5.86353E-05	0	5	0	
0.223167	4.97229E-05	0.00363428	6.65149E-05	7.06283E-05	0	5	0	
0.223333	0.0013872	-0.00463494	6.76404E-05	7.5427E-05	0	5	0	
0.2235	-0.000411105	0.00213453	4.94778E-05	8.29061E-05	0	5	0	
0.223667	-0.00093582	-0.00430467	4.92457E-05	7.12808E-05	0	5	0	
0.223833	0.00151264	0.00140421	4.91474E-05	7.08341E-05	0	5	0	
0.224	0.00407408	-0.00344146	4.95597E-05	6.10996E-05	0	5	0	
0.224167	-0.00319315	0.00177772	6.19621E-05	6.41459E-05	0	5	0	
0.224333	0.00375041	-0.00328427	6.61573E-05	5.63998E-05	0	5	0	
0.2245	0.000156839	0.00303754	5.94807E-05	6.40023E-05	0	5	0	
0.224667	0.00134574	-0.00485767	5.12884E-05	6.69342E-05	0	5	0	
0.224833	0.000825401	0.00170006	4.18532E-05	7.37616E-05	0	5	0	
0.225	0.00357643	-0.00417123	4.44698E-05	6.95728E-05	0	5	0	
0.225167	-1.7518E-05	0.00286224	4.92284E-05	7.14818E-05	0	5	0	
0.225333	0.000359246	-0.00413701	4.24252E-05	7.04921E-05	0	5	0	
0.2255	0.00188128	0.00296153	4.22602E-05	7.48375E-05	0	5	0	
0.225667	0.00187807	-0.00461441	3.64397E-05	7.02493E-05	0	5	0	
0.225833	0.0012989	0.00268477	4.33723E-05	7.19679E-05	0	5	0	
0.226	0.00259822	-0.00481809	4.22483E-05	7.55828E-05	0	5	0	
0.226167	0.00152431	0.00240466	3.72119E-05	7.99387E-05	0	5	0	
0.226333	0.00327177	-0.00336983	3.6608E-05	6.89479E-05	0	5	0	
0.2265	-0.00714582	0.00246013	5.94343E-05	6.07032E-05	0	5	0	
0.226667	0.00875509	-0.0046769	0.000121827	5.7348E-05	0	5	0	
0.226833	0.00463782	0.0024899	0.000271203	7.26311E-05	0	5	0	
0.227	-0.0153812	-0.00435493	0.000397669	7.63278E-05	0	5	0	
0.227167	0.021535	0.00307331	0.000423188	7.57347E-05	0	5	0	
0.227333	-0.0087718	-0.00401004	0.000385342	6.59599E-05	0	5	0	
0.2275	-0.00425292	0.00193943	0.000361471	6.41903E-05	0	5	0	
0.227667	0.0176528	-0.00383594	0.000370363	6.271E-05	0	5	0	
0.227833	-0.0196803	0.00154426	0.000365026	6.37082E-05	0	5	0	
0.228	0.0171461	-0.00330781	0.000348737	5.80038E-05	0	5	0	
0.228167	-0.00142335	0.00227532	0.000377425	5.76108E-05	0	5	0	
0.228333	-0.00901101	-0.00410047	0.000400468	5.7993E-05	0	5	0	
0.2285	0.0134323	0.00259297	0.00036007	6.61464E-05	0	5	0	
0.228667	-0.0088523	-0.0040579	0.000286463	6.96852E-05	0	5	0	
0.228833	0.00325267	0.00186766	0.000213727	6.75476E-05	0	5	0	
0.229	0.00660104	-0.00343933	0.000158224	6.36465E-05	0	5	0	
0.229167	-0.000440792	0.00211735	0.000122116	6.18022E-05	0	5	0	
0.229333	-0.00346416	-0.00418436	6.51839E-05	6.53662E-05	0	5	0	
0.2295	0.00607602	0.00156393	8.12638E-05	6.67534E-05	0	5	0	
0.229667	0.00175213	-0.0033053	7.34047E-05	5.93423E-05	0	5	0	
0.229833	-0.0046788	0.00172179	8.26467E-05	6.06741E-05	0	5	0	
0.23	0.00357623	-0.00331343	7.59933E-05	5.45098E-05	0	5	0	
0.230167	0.00628233	0.00112331	8.93033E-05	5.95691E-05	0	5	0	
0.230333	-0.00349667	-0.00278514	0.000104646	4.7105E-05	0	5	0	
0.2305	0.00101493	0.00193252	0.000103435	5.04722E-05	0	5	0	
0.230667	0.00170314	-0.00391364	0.000109631	4.87246E-05	0	5	0	
0.230833	0.00333176	0.00174033	8.83427E-05	5.71169E-05	0	5	0	
0.231	-0.00313094	-0.00295862	8.52481E-05	4.90332E-05	0	5	0	
0.231167	0.00249059	0.00246408	7.62636E-05	5.3417E-05	0	5	0	
0.231333	0.00518507	-0.00479815	8.97573E-05	5.52709E-05	0	5	0	
0.2315	4.56267E-06	0.00258151	0.00012391	7.32619E-05	0	5	0	
0.231667	-0.00895801	-0.00410184	0.000163966	6.77816E-05	0	5	0	
0.231833	0.0105425	0.00270268	0.00019795	7.22726E-05	0	5	0	
0.232	-0.00199142	-0.00476485	0.000173538	6.70229E-05	0	5	0	
0.232167	-0.00119425	0.00242308	0.000138091	7.89902E-05	0	5	0	
0.232333	0.00801625	-0.00456324	0.000102004	7.48378E-05	0	5	0	
0.2325	-0.00655522	0.00197763	0.000112712	7.96845E-05	0	5	0	
0.232667	0.00722934	-0.00466938	0.000132311	6.84964E-05	0	5	0	
0.232833	-0.00120016	0.00278707	0.000191675	7.58311E-05	0	5	0	
0.233	-0.00403917	-0.00533989	0.000209646	7.04745E-05	0	5	0	
0.233167	0.00481292	0.00199181	0.000175829	8.36488E-05	0	5	0	
0.233333	0.00075243	-0.00495119	0.000115371	7.4543E-05	0	5	0	
0.2335	5.10658E-05	0.00231652	7.24955E-05	8.22935E-05	0	5	0	
0.233667	0.00521224	-0.00472586	6.63637E-05	7.21447E-05	0	5	0	
0.233833	-0.00193278	0.00328968	6.69509E-05	8.09154E-05	0	5	0	
0.234	0.000555071	-0.00535668	5.21286E-05	7.67542E-05	0	5	0	
0.234167	0.00405101	0.00150607	6.0875E-05	8.59666E-05	0	5	0	
0.234333	-0.00108255	-0.00420924	6.62619E-05	7.39924E-05	0	5	0	
0.2345	0.00111535	0.00131116	6.67343E-05	7.22069E-05	0	5	0	
0.234667	0.00561283	-0.00221418	6.1449E-05	5.09232E-05	0	5	0	
0.234833	-0.00130461	0.00212931	5.80422E-05	5.26649E-05	0	5	0	
0.235	0.00215842	-0.00457109	5.8238E-05	5.27449E-05	0	5	0	
0.235167	0.00157141	0.00199578	5.21193E-05	7.17942E-05	0	5	0	
0.235333	0.00291099	-0.00478693	5.62496E-05	7.58611E-05	0	5	0	
0.2355	0.000449602	0.00247506	7.59061E-05	7.62359E-05	0	5	0	
0.235667	0.00288663	-0.00386544	7.99075E-05	6.56656E-05	0	5	0	
0.235833	-0.00155747	0.00263624	7.79674E-05	6.76399E-05	0	5	0	
0.236	0.00135427	-0.00443822	6.02374E-05	6.70826E-05	0	5	0	
0.236167	0.000401691	0.00205472	4.99845E-05	7.47679E-05	0	5	0	
0.236333	0.00409286	-0.00415191	4.08736E-05	6.78957E-05	0	5	0	
0.2365	-0.00137518	0.00271113	5.22014E-05	6.91385E-05	0	5	0	
0.236667	0.00415574	-0.00491513	6.55781E-05	7.03786E-05	0	5	0	
0.236833	-0.000774064	0.00245604	6.50867E-05	8.11656E-05	0	5	0	
0.237	0.00324273	-0.00525267	6.74431E-05	8.05568E-05	0	5	0	
0.237167	-0.0012346	0.00253228	7.5555E-05	8.14204E-05	0	5	0	
0.237333	0.000487932	-0.00437942	7.89529E-05	7.3215E-05	0	5	0	
0.2375	0.00497514	0.00203677	7.31718E-05	7.03785E-05	0	5	0	
0.237667	0.0077339	-0.00371336	7.31706E-05	6.4416E-05	0	5	0	
0.237833	-0.00823169	0.000825106	0.000108963	6.41642E-05	0	5	0	
0.238	0.0102496	-0.00468658	0.000149224	5.99287E-05	0	5	0	
0.238167	-0.00457458	0.00267587	0.000169112	7.09075E-05	0	5	0	
0.238333	0.00287638	-0.00539832	0.000155766	7.72302E-05	0	5	0	
0.2385	0.00313536	0.00187015	0.00013706	8.99983E-05	0	5	0	
0.238667	0.00146665	-0.00459384	0.000116182	7.74231E-05	0	5	0	
0.238833	0.00258021	0.00225129	0.000127322	7.49268E-05	0	5	0	
0.239	0.00948683	-0.00435071	0.000168163	6.39007E-05	0	5	0	
0.239167	-0.00660461	0.00168829	0.00019303	7.01719E-05	0	5	0	
0.239333	-0.00318149	-0.00421761	0.000200188	6.48631E-05	0	5	0	
0.2395	0.0158915	0.00160781	0.000184812	7.14722E-05	0	5	0	
0.239667	-0.0112295	-0.00440225	0.000218826	6.17336E-05	0	5	0	
0.239833	0.00402205	0.00178671	0.000316702	6.97953E-05	0	5	0	
0.24	0.0119353	-0.00427103	0.000385126	6.29026E-05	0	5	0	
0.240167	-0.0134231	0.00306084	0.000380689	7.4385E-05	0	5	0	
0.240333	0.0120051	-0.00555945	0.000312304	7.46997E-05	0	5	0	
0.2405	5.02285E-05	0.00317313	0.000309617	8.86401E-05	0	5	0	
0.240667	-0.0113843	-0.00415965	0.000379307	8.66965E-05	0	5	0	
0.240833	0.022042	0.00214835	0.000398128	8.33998E-05	0	5	0	
0.241	-0.0128742	-0.00545707	0.00037527	7.58483E-05	0	5	0	
0.241167	-0.00205802	0.00200068	0.000317962	7.90214E-05	0	5	0	
0.241333	0.0105974	-0.00369682	0.000266605	7.27937E-05	0	5	0	
0.2415	-0.00476706	0.00150273	0.000201999	7.3589E-05	0	5	0	
0.241667	-0.00223117	-0.00249868	0.000151567	6.19357E-05	0	5	0	
0.241833	0.003021	0.00236208	0.000108906	6.2795E-05	0	5	0	
0.242	0.00496508	-0.00461709	7.95364E-05	5.92008E-05	0	5	0	
0.242167	-0.00486273	0.00221247	7.35215E-05	6.83127E-05	0	5	0	
0.242333	0.00720536	-0.00411305	9.38218E-05	6.61534E-05	0	5	0	
0.2425	-0.00319497	0.00242332	0.000120961	6.78484E-05	0	5	0	
0.242667	0.000960875	-0.00410358	0.000110634	6.34132E-05	0	5	0	
0.242833	0.00199468	0.00254331	9.8999E-05	6.91401E-05	0	5	0	
0.243	0.000929992	-0.00416948	7.22911E-05	6.56498E-05	0	5	0	
0.243167	-9.38235E-07	0.00226204	5.77006E-05	6.95156E-05	0	5	0	
0.243333	0.00206204	-0.00433456	3.79142E-05	6.65622E-05	0	5	0	
0.2435	0.000926992	0.00266951	4.16555E-05	7.07182E-05	0	5	0	
0.243667	0.00267479	-0.00484624	5.09032E-05	7.19838E-05	0	5	0	
0.243833	-0.00192713	0.00191629	6.50416E-05	7.26129E-05	0	5	0	
0.244	0.0028761	-0.00442642	7.42987E-05	7.07107E-05	0	5	0	
0.244167	0.00313351	0.00182192	8.78126E-05	6.66248E-05	0	5	0	
0.244333	0.000385413	-0.00373384	9.28486E-05	6.53169E-05	0	5	0	
0.2445	-0.00466979	0.00165693	0.000164763	6.3036E-05	0	5	0	
0.244667	0.0128743	-0.00457574	0.000222118	6.22704E-05	0	5	0	
0.244833	-0.00837638	0.00378417	0.000267187	7.30663E-05	0	5	0	
0.245	0.00608032	-0.00547466	0.000208316	8.41795E-05	0	5	0	
0.245167	0.000617676	0.00284958	0.000152807	9.21953E-05	0	5	0	
0.245333	-0.00328571	-0.00503006	0.000145779	9.04763E-05	0	5	0	
0.2455	0.0139616	0.00323152	0.000148541	8.77787E-05	0	5	0	
0.245667	-0.00917053	-0.00413902	0.000190817	8.07629E-05	0	5	0	
0.245833	0.00141653	0.00236296	0.000193844	8.16005E-05	0	5	0	
0.246	0.00540072	-0.00393076	0.000188355	7.49006E-05	0	5	0	
0.246167	-0.00184834	0.00227264	0.000133134	7.42705E-05	0	5	0	
0.246333	0.00460743	-0.00471124	8.61577E-05	6.87168E-05	0	5	0	
0.2465	-0.0039563	0.00193795	8.27613E-05	7.35281E-05	0	5	0	
0.246667	0.00846894	-0.00391427	9.26719E-05	6.73958E-05	0	5	0	
0.246833	-0.00540158	0.00202737	0.000117557	6.96906E-05	0	5	0	
0.247	0.00460669	-0.00430305	0.000114279	6.20508E-05	0	5	0	
0.247167	-0.00127865	0.00238222	0.000101054	7.30018E-05	0	5	0	
0.247333	0.00133818	-0.00626875	7.36367E-05	7.55248E-05	0	5	0	
0.2475	0.00344598	0.00320561	5.10756E-05	9.41959E-05	0	5	0	
0.247667	0.00285987	-0.00466468	4.5976E-05	9.14666E-05	0	5	0	
0.247833	-0.00191855	0.0022669	5.16621E-05	8.89366E-05	0	5	0	
0.248	0.00285952	-0.0041744	6.56996E-05	7.0294E-05	0	5	0	
0.248167	0.00166962	0.00269495	9.66508E-05	7.28043E-05	0	5	0	
0.248333	-0.000159831	-0.00555314	0.000107073	7.48742E-05	0	5	0	
0.2485	0.00143766	0.00168175	9.86333E-05	8.58352E-05	0	5	0	
0.248667	0.00297402	-0.00402228	8.20144E-05	7.74515E-05	0	5	0	
0.248833	-0.000424522	0.00236052	6.9527E-05	7.66693E-05	0	5	0	
0.249	0.00203058	-0.00458644	6.07772E-05	6.75121E-05	0	5	0	
0.249167	-0.00259125	0.00264268	4.79913E-05	7.76647E-05	0	5	0	
0.249333	0.00506363	-0.0054841	6.89224E-05	7.7487E-05	0	5	0	
0.2495	-0.0030225	0.00301089	8.86533E-05	8.82105E-05	0	5	0	
0.249667	0.00713158	-0.00492579	0.000104379	8.56177E-05	0	5	0	
0.249833	-0.00530403	0.0022524	0.000105433	8.6618E-05	0	5	0	
0.25	0.00424781	-0.00492226	0.000108456	7.48067E-05	0	5	0	
0.250167	-0.00168182	0.00212483	0.000104359	7.64477E-05	0	5	0	
0.250333	0.00487634	-0.00534924	9.84906E-05	7.45312E-05	0	5	0	
0.2505	-7.02703E-05	0.00316412	7.88493E-05	8.92703E-05	0	5	0	
0.250667	0.00224304	-0.00476356	6.40947E-05	8.7441E-05	0	5	0	
0.250833	-0.000470291	0.00267596	3.91988E-05	8.81801E-05	0	5	0	
0.251	0.00142154	-0.00481705	3.92545E-05	7.75851E-05	0	5	0	
0.251167	0.00127163	0.000901095	4.23831E-05	7.79542E-05	0	5	0	
0.251333	0.00391837	-0.00472912	4.71691E-05	7.06536E-05	0	5	0	
0.2515	0.000846496	0.00283317	6.72161E-05	7.50655E-05	0	5	0	
0.251667	0.00337572	-0.00477396	6.29034E-05	7.46272E-05	0	5	0	
0.251833	0.0024155	0.00233124	5.83786E-05	8.72617E-05	0	5	0	
0.252	-0.00183723	-0.0048026	3.69081E-05	8.2727E-05	0	5	0	
0.252167	0.0010765	0.00131958	8.7389E-05	8.39674E-05	0	5	0	
0.252333	0.0135562	-0.00380114	0.000193304	6.76681E-05	0	5	0	
0.2525	-0.0193625	0.00265368	0.000291508	6.86348E-05	0	5	0	
0.252667	0.0140888	-0.00447184	0.000353469	6.75065E-05	0	5	0	
0.252833	0.00631111	0.00294505	0.000414261	8.30248E-05	0	5	0	
0.253	-0.0148131	-0.0042162	0.000451431	8.06996E-05	0	5	0	
0.253167	0.0185167	0.00178387	0.000421112	7.85019E-05	0	5	0	
0.253333	-0.011447	-0.00431674	0.00034024	6.52952E-05	0	5	0	
0.2535	0.00278112	0.00259918	0.000327127	6.93521E-05	0	5	0	
0.253667	0.0154643	-0.00334531	0.000390381	6.79663E-05	0	5	0	
0.253833	-0.0206874	0.00172675	0.000420245	7.77762E-05	0	5	0	
0.254	0.0144997	-0.00323018	0.00039724	7.09866E-05	0	5	0	
0.254167	0.000210625	0.0022637	0.00035352	6.9265E-05	0	5	0	
0.254333	-0.00283883	-0.00401257	0.000271462	6.33805E-05	0	5	0	
0.2545	0.00166989	0.00192803	0.000187671	6.68057E-05	0	5	0	
0.254667	0.00480219	-0.00320639	9.08593E-05	6.13662E-05	0	5	0	
0.254833	0.000695659	0.00189565	5.75433E-05	5.85335E-05	0	5	0	
0.255	0.000253491	-0.00412643	3.58088E-05	5.41135E-05	0	5	0	
0.255167	0.000950794	0.00226994	2.99355E-05	5.93238E-05	0	5	0	
0.255333	0.00271285	-0.005439	2.78549E-05	7.06635E-05	0	5	0	
0.2555	-0.00224921	0.00261119	4.1623E-05	7.97002E-05	0	5	0	
0.255667	0.00531943	-0.00498026	5.78014E-05	8.25868E-05	0	5	0	
0.255833	0.00304751	0.00318467	6.52733E-05	8.00104E-05	0	5	0	
0.256	-0.00224685	-0.00549094	8.14134E-05	7.94559E-05	0	5	0	
0.256167	0.00449711	0.00379696	7.0844E-05	8.74297E-05	0	5	0	
0.256333	0.00284912	-0.00524666	7.4303E-05	8.93293E-05	0	5	0	
0.2565	-0.00291192	0.0020487	7.12139E-05	8.84427E-05	0	5	0	
0.256667	0.00178539	-0.0037902	6.91202E-05	7.55323E-05	0	5	0	
0.256833	-0.000238499	0.00193859	6.01421E-05	6.64152E-05	0	5	0	
0.257	0.0122824	-0.00404456	6.97514E-05	6.26166E-05	0	5	0	
0.257167	-0.0124429	0.00199897	0.00013333	7.40227E-05	0	5	0	
0.257333	0.0105034	-0.00345913	0.000206052	7.25551E-05	0	5	0	
0.2575	0.00223456	0.00253897	0.000245326	7.19426E-05	0	5	0	
0.257667	-0.00441429	-0.00406586	0.000212505	6.39731E-05	0	5	0	
0.257833	0.00626932	0.00221846	0.000157236	6.93148E-05	0	5	0	
0.258	-0.0078224	-0.00363618	0.000121437	6.57371E-05	0	5	0	
0.258167	0.00746944	0.00127414	0.00016324	6.38147E-05	0	5	0	
0.258333	0.00574195	-0.00344172	0.000247713	5.36534E-05	0	5	0	
0.2585	-0.00793153	0.00229477	0.00029228	5.30561E-05	0	5	0	
0.258667	0.00876389	-0.0031655	0.000248446	5.44497E-05	0	5	0	
0.258833	0.000751017	0.00189802	0.000183254	5.99495E-05	0	5	0	
0.259	-0.00318024	-0.00396331	0.00014505	6.21715E-05	0	5	0	
0.259167	0.00337151	0.00304296	0.000137484	7.04964E-05	0	5	0	
0.259333	-0.000181366	-0.00477437	0.000109447	7.71189E-05	0	5	0	
0.2595	0.00374064	0.00302501	7.47185E-05	8.5745E-05	0	5	0	
0.259667	-0.00064911	-0.00361027	6.67312E-05	7.87077E-05	0	5	0	
0.259833	0.000579501	0.00204593	5.99782E-05	7.05362E-05	0	5	0	
0.26	0.00309923	-0.00348757	5.95267E-05	6.17064E-05	0	5	0	
0.260167	-0.00298686	0.00106311	5.30951E-05	6.31083E-05	0	5	0	
0.260333	0.00695408	-0.00353219	7.37996E-05	6.43269E-05	0	5	0	
0.2605	-0.00111522	0.00263517	8.63304E-05	7.34244E-05	0	5	0	
0.260667	0.00177395	-0.00377561	8.34132E-05	6.95905E-05	0	5	0	
0.260833	-0.000919183	0.00254983	5.88073E-05	7.41874E-05	0	5	0	
0.261	0.0012687	-0.00428421	4.44381E-05	6.6489E-05	0	5	0	
0.261167	0.000818077	0.00115086	3.15001E-05	7.36471E-05	0	5	0	
0.261333	0.00559553	-0.00359441	3.83438E-05	6.5954E-05	0	5	0	
0.2615	-0.000734925	0.00235154	6.34458E-05	6.93738E-05	0	5	0	
0.261667	0.00540196	-0.00354073	6.84654E-05	6.17904E-05	0	5	0	
0.261833	-0.00290188	0.00288133	8.2833E-05	6.92278E-05	0	5	0	
0.262	0.00329165	-0.00357627	6.81061E-05	6.66386E-05	0	5	0	
0.262167	-0.00121619	0.000647812	7.05378E-05	6.9132E-05	0	5	0	
0.262333	0.00309271	-0.00311567	5.52161E-05	5.72241E-05	0	5	0	
0.2625	0.00129123	0.00298066	4.70696E-05	5.6418E-05	0	5	0	
0.262667	0.0021543	-0.00489188	5.18636E-05	6.29314E-05	0	5	0	
0.262833	0.00196153	0.0028484	4.59198E-05	7.79234E-05	0	5	0	
0.263	-0.00211567	-0.00451331	4.90739E-05	7.93978E-05	0	5	0	
0.263167	0.00414142	0.0011828	5.57695E-05	7.53299E-05	0	5	0	
0.263333	-0.00140703	-0.00332406	5.8203E-05	6.2354E-05	0	5	0	
0.2635	0.00241808	0.00284432	7.0649E-05	6.48585E-05	0	5	0	
0.263667	0.00463025	-0.00405233	6.57429E-05	6.37813E-05	0	5	0	
0.263833	-0.00293837	0.00188807	8.12463E-05	7.44028E-05	0	5	0	
0.264	0.00928541	-0.00443138	8.48122E-05	6.62728E-05	0	5	0	
0.264167	-0.00730237	0.00193885	0.000119326	7.15958E-05	0	5	0	
0.264333	-0.00144312	-0.00368849	0.000207346	6.49661E-05	0	5	0	
0.2645	0.0226515	0.00322007	0.000336337	7.25241E-05	0	5	0	
0.264667	-0.0255735	-0.00413158	0.000431968	6.66161E-05	0	5	0	
0.264833	0.0180481	0.00269124	0.000475441	7.46316E-05	0	5	0	
0.265	0.00483645	-0.00447679	0.000505041	7.25366E-05	0	5	0	
0.265167	-0.0158126	0.00294307	0.000505729	7.8385E-05	0	5	0	
0.265333	0.0238763	-0.00408917	0.000457876	7.61422E-05	0	5	0	
0.2655	-0.0204749	0.00274766	0.000403517	7.97721E-05	0	5	0	
0.265667	0.0130737	-0.00388793	0.000443978	7.32801E-05	0	5	0	
0.265833	0.0130684	0.0010185	0.000543524	7.11106E-05	0	5	0	
0.266	-0.0210406	-0.00262835	0.000559563	5.76191E-05	0	5	0	
0.266167	0.0138852	0.00235789	0.000464783	5.66334E-05	0	5	0	
0.266333	0.00373785	-0.00406267	0.000351477	5.90934E-05	0	5	0	
0.2665	-0.00520646	0.00165761	0.000251027	6.95559E-05	0	5	0	
0.266667	0.00836561	-0.00376255	0.00020106	6.39529E-05	0	5	0	
0.266833	-0.00302277	0.00252648	0.000148907	6.59028E-05	0	5	0	
0.267	0.00714745	-0.00408188	0.000121049	6.39521E-05	0	5	0	
0.267167	-0.00212916	0.00178015	0.000101732	7.15687E-05	0	5	0	
0.267333	0.00413658	-0.00347763	8.96587E-05	6.77333E-05	0	5	0	
0.2675	-0.0010159	0.00199669	8.6455E-05	6.73702E-05	0	5	0	
0.267667	0.00575734	-0.00357283	8.72553E-05	5.92054E-05	0	5	0	
0.267833	-0.000701185	0.00211967	8.50145E-05	6.20772E-05	0	5	0	
0.268	0.00268574	-0.00338059	7.61349E-05	5.8858E-05	0	5	0	
0.268167	0.00028469	0.00112033	5.81378E-05	6.40629E-05	0	5	0	
0.268333	0.00537809	-0.00449991	5.11871E-05	6.17214E-05	0	5	0	
0.2685	-0.00171362	0.00254528	6.63154E-05	6.82978E-05	0	5	0	
0.268667	0.00225281	-0.00383568	6.989E-05	7.0502E-05	0	5	0	
0.268833	0.00119575	0.00164464	5.75152E-05	7.00606E-05	0	5	0	
0.269	0.00174428	-0.00314889	5.44848E-05	6.07223E-05	0	5	0	
0.269167	0.00620272	0.00211075	6.68698E-05	6.11983E-05	0	5	0	
0.269333	-0.00419393	-0.00396904	8.36094E-05	6.14587E-05	0	5	0	
0.2695	0.00406093	0.00195285	0.000118027	7.33803E-05	0	5	0	
0.269667	0.00504115	-0.00390521	0.000158513	7.13678E-05	0	5	0	
0.269833	-0.0060665	0.00136323	0.000186424	6.96492E-05	0	5	0	
0.27	0.00994939	-0.00420599	0.000174659	6.13779E-05	0	5	0	
0.270167	-0.00362275	0.00237909	0.000145222	6.84187E-05	0	5	0	
0.270333	-0.00015556	-0.00383614	0.000186303	6.86077E-05	0	5	0	
0.2705	0.0124181	0.00243956	0.00025199	7.34191E-05	0	5	0	
0.270667	-0.0110373	-0.00316843	0.000293265	6.36301E-05	0	5	0	
0.270833	0.00805389	0.00216218	0.000262362	6.10761E-05	0	5	0	
0.271	0.00234474	-0.00472854	0.000204856	5.93993E-05	0	5	0	
0.271167	-0.0042852	0.0010955	0.000165655	6.55293E-05	0	5	0	
0.271333	0.00746142	-0.00315601	0.000132138	6.18846E-05	0	5	0	
0.2715	-0.00590808	0.00253453	0.000114154	6.13778E-05	0	5	0	
0.271667	0.00643328	-0.00471991	0.000118991	6.30151E-05	0	5	0	
0.271833	0.000210914	0.00279264	0.000111152	7.35916E-05	0	5	0	
0.272	0.00125948	-0.00444486	8.89557E-05	7.87194E-05	0	5	0	
0.272167	0.000451045	0.00177259	5.7414E-05	8.07803E-05	0	5	0	
0.272333	0.00326572	-0.00373	4.41106E-05	7.72151E-05	0	5	0	
0.2725	-0.00316115	0.00192901	4.21545E-05	6.94544E-05	0	5	0	
0.272667	0.00256241	-0.00404992	5.69291E-05	6.54571E-05	0	5	0	
0.272833	0.00127721	0.00166353	5.17436E-05	7.12959E-05	0	5	0	
0.273	6.07324E-05	-0.00415608	4.64367E-05	7.60673E-05	0	5	0	
0.273167	0.000417066	0.00236913	2.56702E-05	7.96497E-05	0	5	0	
0.273333	0.00108713	-0.00403928	2.78607E-05	7.5431E-05	0	5	0	
0.2735	0.000202166	0.00240233	2.52166E-05	7.12357E-05	0	5	0	
0.273667	0.00315281	-0.00472957	3.12466E-05	6.77605E-05	0	5	0	
0.273833	-0.00177908	0.00191971	3.97411E-05	7.08057E-05	0	5	0	
0.274	0.00364184	-0.00300023	5.4274E-05	7.07109E-05	0	5	0	
0.274167	-0.00182466	0.00190921	5.6953E-05	6.66797E-05	0	5	0	
0.274333	0.00287253	-0.00298387	5.89601E-05	5.97305E-05	0	5	0	
0.2745	-0.000125924	0.00201962	4.89292E-05	6.09328E-05	0	5	0	
0.274667	0.000478774	-0.0046017	4.23653E-05	6.17388E-05	0	5	0	
0.274833	0.00229143	0.00241214	4.06664E-05	7.45572E-05	0	5	0	
0.275	0.00264389	-0.00330252	4.23931E-05	7.35595E-05	0	5	0	
0.275167	-0.000598916	0.0021827	4.42976E-05	7.15048E-05	0	5	0	
0.275333	0.00177894	-0.002827	3.60751E-05	5.59891E-05	0	5	0	
0.2755	0.00288672	0.00197178	3.50664E-05	5.22787E-05	0	5	0	
0.275667	-0.00225458	-0.00413919	4.24005E-05	5.523E-05	0	5	0	
0.275833	0.00212189	0.00255489	5.46478E-05	6.69007E-05	0	5	0	
0.276	0.00443564	-0.00456334	6.98765E-05	7.55037E-05	0	5	0	
0.276167	-0.00659116	0.00323913	8.22799E-05	8.24508E-05	0	5	0	
0.276333	0.00241717	-0.00426159	0.000120935	8.2755E-05	0	5	0	
0.2765	0.0143519	0.00194748	0.000214708	8.52188E-05	0	5	0	
0.276667	-0.0175631	-0.00387082	0.000299629	7.99389E-05	0	5	0	
0.276833	0.0128727	0.00145379	0.000340978	7.54497E-05	0	5	0	
0.277	0.00312147	-0.0041814	0.000377498	7.09186E-05	0	5	0	
0.277167	-0.0116215	0.00206658	0.000377706	7.39276E-05	0	5	0	
0.277333	0.0167784	-0.00356811	0.000355093	7.09359E-05	0	5	0	
0.2775	-0.0131434	0.00066626	0.000295252	6.74171E-05	0	5	0	
0.277667	0.00859265	-0.00352707	0.000305613	5.60668E-05	0	5	0	
0.277833	0.00665499	0.00233686	0.00034831	5.83883E-05	0	5	0	
0.278	-0.0119327	-0.0046931	0.00032742	6.19798E-05	0	5	0	
0.278167	0.00894636	0.00211701	0.000267066	7.09973E-05	0	5	0	
0.278333	0.0024679	-0.00307805	0.000176146	6.51635E-05	0	5	0	
0.2785	0.00155465	0.00113438	0.000111914	6.20986E-05	0	5	0	
0.278667	-0.00346091	-0.00341594	7.32161E-05	5.36475E-05	0	5	0	
0.278833	0.00308289	0.00212632	6.59172E-05	5.80796E-05	0	5	0	
0.279	0.00367534	-0.00403234	9.91539E-05	6.12618E-05	0	5	0	
0.279167	-0.00267339	0.00236161	0.000112219	7.4915E-05	0	5	0	
0.279333	0.00689315	-0.00401793	0.000114601	7.8075E-05	0	5	0	
0.2795	-0.000811774	0.00340942	0.000100134	7.9919E-05	0	5	0	
0.279667	0.00218341	-0.00556401	8.84808E-05	8.02206E-05	0	5	0	
0.279833	0.00388823	0.0038221	8.0927E-05	8.2148E-05	0	5	0	
0.28	-0.00187859	-0.00435599	6.91051E-05	8.52365E-05	0	5	0	
0.280167	3.9656E-07	0.00120704	4.98185E-05	7.59465E-05	0	5	0	
0.280333	0.00152816	-0.00302226	3.98386E-05	6.56386E-05	0	5	0	
0.2805	0.00487436	0.0018049	3.4039E-05	5.84771E-05	0	5	0	
0.280667	-0.0013432	-0.00498406	5.15024E-05	6.76592E-05	0	5	0	
0.280833	-5.47018E-05	0.00272964	5.91369E-05	8.41285E-05	0	5	0	
0.281	0.00120304	-0.00394703	5.81232E-05	9.04647E-05	0	5	0	
0.281167	0.00357481	0.000984362	7.56517E-05	8.5111E-05	0	5	0	
0.281333	-0.00633631	-0.00314698	8.51605E-05	6.87147E-05	0	5	0	
0.2815	0.0070275	0.00147553	0.000163003	6.98159E-05	0	5	0	
0.281667	0.000641036	-0.00412759	0.000230359	7.22144E-05	0	5	0	
0.281833	-0.00384369	0.00216367	0.000273375	8.19444E-05	0	5	0	
0.282	0.00642999	-0.00462918	0.000214223	7.65492E-05	0	5	0	
0.282167	-0.00480988	0.00195227	0.000137886	7.33069E-05	0	5	0	
0.282333	-0.000116029	-0.0041082	0.00013392	6.62701E-05	0	5	0	
0.2825	0.0145686	0.00114627	0.000168938	6.70347E-05	0	5	0	
0.282667	-0.0164193	-0.00322044	0.000242851	5.8695E-05	0	5	0	
0.282833	0.00925355	0.00177088	0.000258852	5.86297E-05	0	5	0	
0.283	0.00333429	-0.00393839	0.000246239	5.71571E-05	0	5	0	
0.283167	-0.00383479	0.00195338	0.000175383	6.8165E-05	0	5	0	
0.283333	0.00338351	-0.00380529	0.000117458	7.0856E-05	0	5	0	
0.2835	-0.000161435	0.00239624	7.5157E-05	7.42537E-05	0	5	0	
0.283667	0.00218871	-0.00464129	4.26768E-05	7.05423E-05	0	5	0	
0.283833	-0.00418778	0.00317039	3.67E-05	7.61227E-05	0	5	0	
0.284	0.00767829	-0.00432727	7.683E-05	7.95649E-05	0	5	0	
0.284167	0.00147789	0.00229935	9.51816E-05	7.80232E-05	0	5	0	
0.284333	-0.000643813	-0.00448748	0.000100004	7.65343E-05	0	5	0	
0.2845	0.00319702	0.00213908	6.12309E-05	7.40036E-05	0	5	0	
0.284667	0.00320006	-0.0040506	5.09559E-05	7.57069E-05	0	5	0	
0.284833	-0.00111522	0.00249471	5.59906E-05	7.48663E-05	0	5	0	
0.285	0.00390017	-0.0047593	7.5152E-05	7.52359E-05	0	5	0	
0.285167	-0.00174056	0.0024192	9.59836E-05	7.4873E-05	0	5	0	
0.285333	0.00580635	-0.00424051	9.18308E-05	7.22594E-05	0	5	0	
0.2855	0.000551275	0.00163274	7.85999E-05	6.61274E-05	0	5	0	
0.285667	0.00314383	-0.00374612	6.55606E-05	6.28921E-05	0	5	0	
0.285833	0.00179566	0.00156695	5.50275E-05	6.40177E-05	0	5	0	
0.286	-0.00145162	-0.00544741	4.92033E-05	7.3273E-05	0	5	0	
0.286167	0.00240099	0.00368064	4.16292E-05	9.0804E-05	0	5	0	
0.286333	-0.00206157	-0.0066922	3.93588E-05	0.000100884	0	5	0	
0.2865	0.00429595	0.00395722	5.74329E-05	0.000104279	0	5	0	
0.286667	0.00135818	-0.00444653	6.11244E-05	9.78991E-05	0	5	0	
0.286833	-0.000206147	0.00152391	6.08411E-05	8.56001E-05	0	5	0	
0.287	0.0037851	-0.00420585	4.9462E-05	7.45665E-05	0	5	0	
0.287167	-0.00174212	0.002025	4.37109E-05	6.84056E-05	0	5	0	
0.287333	0.00256516	-0.00383371	5.11536E-05	7.12309E-05	0	5	0	
0.2875	-0.000849229	0.00170363	6.52407E-05	7.32161E-05	0	5	0	
0.287667	0.00102279	-0.0042106	9.57056E-05	7.36294E-05	0	5	0	
0.287833	0.000649222	0.00205414	8.2747E-05	7.60565E-05	0	5	0	
0.288	0.00793533	-0.00390588	8.87576E-05	7.37466E-05	0	5	0	
0.288167	-0.0128205	0.00217941	0.000119063	7.31228E-05	0	5	0	
0.288333	0.0158382	-0.00432781	0.000199192	7.12071E-05	0	5	0	
0.2885	-0.00662776	0.00311319	0.000306812	7.68085E-05	0	5	0	
0.288667	-0.0111087	-0.00481035	0.000404624	8.18461E-05	0	5	0	
0.288833	0.022531	0.00232421	0.000438843	8.18388E-05	0	5	0	
0.289	-0.0139557	-0.00361196	0.000398743	7.62476E-05	0	5	0	
0.289167	0.000823859	0.00222163	0.000358426	6.91843E-05	0	5	0	
0.289333	0.0144609	-0.00506794	0.000384933	7.27091E-05	0	5	0	
0.2895	-0.0224498	0.00257872	0.000424309	8.07022E-05	0	5	0	
0.289667	0.0221886	-0.00330916	0.000421709	8.09933E-05	0	5	0	
0.289833	-0.00760477	0.00126927	0.00040965	7.18017E-05	0	5	0	
0.29	0.000327293	-0.00375535	0.000414031	6.22924E-05	0	5	0	
0.290167	0.00630445	0.00183006	0.000346769	6.32755E-05	0	5	0	
0.290333	0.000150399	-0.00400918	0.000240505	6.66135E-05	0	5	0	
0.2905	0.00129998	0.00215797	0.00012273	7.72118E-05	0	5	0	
0.290667	0.00139951	-0.00339672	7.92942E-05	8.13486E-05	0	5	0	
0.290833	0.000642292	0.00206204	6.85737E-05	8.40627E-05	0	5	0	
0.291	0.00343193	-0.00506036	5.38358E-05	7.71548E-05	0	5	0	
0.291167	-4.34212E-05	0.00230915	6.71165E-05	7.85487E-05	0	5	0	
0.291333	0.00693226	-0.00348986	7.21621E-05	7.34871E-05	0	5	0	
0.2915	-0.00121229	0.00136444	7.3652E-05	7.32413E-05	0	5	0	
0.291667	0.00162438	-0.00312323	8.03668E-05	6.46463E-05	0	5	0	
0.291833	0.00593763	0.00148613	7.74486E-05	6.70046E-05	0	5	0	
0.292	-0.00150406	-0.00330587	8.53313E-05	6.11713E-05	0	5	0	
0.292167	-0.00100408	0.00147335	8.52074E-05	5.99525E-05	0	5	0	
0.292333	0.00984314	-0.00352503	0.0001044	5.7851E-05	0	5	0	
0.2925	-0.00453132	0.00196763	0.000128174	6.50076E-05	0	5	0	
0.292667	0.00773324	-0.00247149	0.00013544	6.69174E-05	0	5	0	
0.292833	-0.00293524	0.00139987	0.000124946	6.58819E-05	0	5	0	
0.293	0.00448419	-0.00427674	0.000115416	6.22613E-05	0	5	0	
0.293167	0.0060024	0.0029926	0.000149321	6.66473E-05	0	5	0	
0.293333	-0.0147638	-0.00474088	0.000205602	7.52725E-05	0	5	0	
0.2935	0.0146588	0.0024359	0.000251454	7.88717E-05	0	5	0	
0.293667	-0.000922914	-0.00392716	0.000249414	7.76616E-05	0	5	0	
0.293833	-0.0043444	0.00254229	0.000242887	7.1319E-05	0	5	0	
0.294	0.0119426	-0.00442694	0.000214527	7.17134E-05	0	5	0	
0.294167	-0.0160304	0.0024685	0.000232077	6.91109E-05	0	5	0	
0.294333	0.0128684	-0.00316146	0.000252034	7.04394E-05	0	5	0	
0.2945	-0.00214512	0.00214457	0.000334018	6.84011E-05	0	5	0	
0.294667	-0.00813541	-0.00433646	0.000362456	7.32917E-05	0	5	0	
0.294833	0.00886	0.00258116	0.000326878	7.74968E-05	0	5	0	
0.295	0.000348339	-0.00515734	0.000215879	8.35607E-05	0	5	0	
0.295167	0.00225776	0.00347207	0.000155844	8.77807E-05	0	5	0	
0.295333	0.00332556	-0.00337218	0.000152304	8.92741E-05	0	5	0	
0.2955	-0.00236809	0.00186864	0.000153616	8.17975E-05	0	5	0	
0.295667	0.00125549	-0.00407946	0.000108999	7.32941E-05	0	5	0	
0.295833	0.000598969	0.0018154	9.73695E-05	6.85742E-05	0	5	0	
0.296	0.00408847	-0.00381281	0.000113791	7.11827E-05	0	5	0	
0.296167	0.00269365	0.00109589	0.000113294	7.49428E-05	0	5	0	
0.296333	-0.000119583	-0.0034433	7.99526E-05	7.24851E-05	0	5	0	
0.2965	0.00134126	0.0019351	4.4648E-05	7.23437E-05	0	5	0	
0.296667	0.0076072	-0.00424501	5.0339E-05	7.20002E-05	0	5	0	
0.296833	-0.0107234	0.00198145	9.43953E-05	7.95407E-05	0	5	0	
0.297	0.0144336	-0.0047142	0.000168733	7.74555E-05	0	5	0	
0.297167	-0.00400121	0.00135069	0.000230436	7.57593E-05	0	5	0	
0.297333	0.00367317	-0.00316029	0.000296142	6.49857E-05	0	5	0	
0.2975	0.00256632	0.000182053	0.000302395	6.07418E-05	0	5	0	
0.297667	-0.00289863	-0.00278089	0.000236883	5.00486E-05	0	5	0	
0.297833	0.00235814	0.00027548	0.000176929	4.94635E-05	0	5	0	
0.298	0.0068285	-0.00270557	0.000175189	4.36868E-05	0	5	0	
0.298167	-0.00992851	0.00194438	0.000224431	5.18004E-05	0	5	0	
0.298333	0.0180693	-0.00437653	0.000262227	5.72584E-05	0	5	0	
0.2985	-0.00455226	0.00141217	0.000245095	6.92541E-05	0	5	0	
0.298667	0.00255293	-0.00441456	0.000196666	6.7558E-05	0	5	0	
0.298833	0.000714782	0.00228472	0.00010446	7.51149E-05	0	5	0	
0.299	0.000553892	-0.00524713	3.5667E-05	7.9071E-05	0	5	0	
0.299167	-0.000714047	0.00374606	2.33371E-05	9.29478E-05	0	5	0	
0.299333	0.00406995	-0.00517928	4.39898E-05	9.33233E-05	0	5	0	
0.2995	0.0055621	0.00212249	6.47841E-05	9.05551E-05	0	5	0	
0.299667	0.00287017	-0.00350052	7.9446E-05	7.64431E-05	0	5	0	
0.299833	-0.00988633	0.000416504	0.000121837	6.59841E-05	0	5	0	
0.3	0.0208381	-0.00280315	0.000183201	5.83796E-05	0	5	0	
0.300167	-0.0127092	0.00143459	0.000292802	6.82048E-05	0	5	0	
0.300333	-0.00589303	-0.00445899	0.000433107	7.24793E-05	0	5	0	
0.3005	0.0272583	0.00337936	0.000521024	8.64403E-05	0	5	0	
0.300667	-0.0225043	-0.00484419	0.000537522	8.7893E-05	0	5	0	
0.300833	0.0148243	0.0027163	0.00047136	9.29923E-05	0	5	0	
0.301	0.00332899	-0.0041656	0.000474402	8.55188E-05	0	5	0	
0.301167	-0.0171472	0.00200587	0.000511226	8.14725E-05	0	5	0	
0.301333	0.0287369	-0.00379842	0.000515985	7.3282E-05	0	5	0	
0.3015	-0.0200645	0.00141159	0.000483494	7.6967E-05	0	5	0	
0.301667	0.0061356	-0.00322491	0.000457914	7.27703E-05	0	5	0	
0.301833	0.00897267	0.00147471	0.000440315	7.55904E-05	0	5	0	
0.302	-0.00845261	-0.00415327	0.000372686	6.81275E-05	0	5	0	
0.302167	0.00833713	0.0022727	0.000257948	7.80701E-05	0	5	0	
0.302333	-0.00557955	-0.00416958	0.000165234	8.10128E-05	0	5	0	
0.3025	0.00482567	0.00156586	0.000126642	8.73748E-05	0	5	0	
0.302667	0.0025171	-0.00478306	0.000104411	7.85674E-05	0	5	0	
0.302833	-0.00270829	0.00233524	8.41089E-05	7.86064E-05	0	5	0	
0.303	0.00325119	-0.00381241	6.61653E-05	7.06464E-05	0	5	0	
0.303167	0.00185875	0.00122518	5.67117E-05	6.59013E-05	0	5	0	
0.303333	-1.62599E-05	-0.00324313	4.96659E-05	5.70154E-05	0	5	0	
0.3035	0.00251032	0.00119954	3.57642E-05	6.03891E-05	0	5	0	
0.303667	0.00492332	-0.00457831	4.04095E-05	6.30531E-05	0	5	0	
0.303833	-0.00414707	0.00235193	7.29347E-05	7.46837E-05	0	5	0	
0.304	0.00631277	-0.00430622	8.83137E-05	7.67245E-05	0	5	0	
0.304167	-0.000585288	0.00248567	0.000100123	8.34384E-05	0	5	0	
0.304333	0.0013422	-0.0037545	8.60602E-05	8.11821E-05	0	5	0	
0.3045	0.00051625	0.0010811	7.05388E-05	8.33186E-05	0	5	0	
0.304667	0.00742785	-0.00453552	6.28572E-05	7.84987E-05	0	5	0	
0.304833	-0.00107945	0.00254846	9.7275E-05	8.27649E-05	0	5	0	
0.305	-0.00858365	-0.00457702	0.000202853	8.46443E-05	0	5	0	
0.305167	0.0137129	0.00115578	0.000265267	8.93101E-05	0	5	0	
0.305333	-0.00246837	-0.00272963	0.000245033	7.08514E-05	0	5	0	
0.3055	-0.00270836	0.000280305	0.000198444	5.55657E-05	0	5	0	
0.305667	0.00939243	-0.00376095	0.00017936	4.60758E-05	0	5	0	
0.305833	-0.0143464	0.002407	0.000205075	6.10553E-05	0	5	0	
0.306	0.0174374	-0.00465211	0.000240003	7.64136E-05	0	5	0	
0.306167	-0.00891388	0.0025478	0.000289896	8.82902E-05	0	5	0	
0.306333	0.0012465	-0.00471582	0.000336607	8.45607E-05	0	5	0	
0.3065	0.00756119	0.00156759	0.000287917	7.84694E-05	0	5	0	
0.306667	-0.00425919	-0.00321938	0.000206237	6.90627E-05	0	5	0	
0.306833	0.00165745	0.00130462	0.000117383	6.5341E-05	0	5	0	
0.307	0.0036687	-0.00330318	8.04134E-05	6.45361E-05	0	5	0	
0.307167	-0.000901522	0.00150766	6.90756E-05	6.71033E-05	0	5	0	
0.307333	0.002641	-0.00355486	5.65415E-05	6.60481E-05	0	5	0	
0.3075	-0.000584903	0.00121518	5.5067E-05	6.73907E-05	0	5	0	
0.307667	0.00108719	-0.00213777	4.14728E-05	5.85132E-05	0	5	0	
0.307833	-0.00103113	0.00177011	4.50299E-05	5.47207E-05	0	5	0	
0.308	0.0042115	-0.00418489	6.27439E-05	5.48857E-05	0	5	0	
0.308167	0.000428828	0.00256498	6.7938E-05	6.41595E-05	0	5	0	
0.308333	-0.000117143	-0.00382874	4.95218E-05	7.1755E-05	0	5	0	
0.3085	-0.000291196	0.00166857	2.11453E-05	7.13303E-05	0	5	0	
0.308667	0.00291953	-0.00272416	2.40872E-05	6.54547E-05	0	5	0	
0.308833	-0.00186453	0.00152176	3.34858E-05	6.02271E-05	0	5	0	
0.309	0.00351887	-0.00390422	5.88655E-05	5.91117E-05	0	5	0	
0.309167	0.00101422	0.0021743	5.56725E-05	6.6135E-05	0	5	0	
0.309333	-0.000373615	-0.0033968	5.08951E-05	7.29552E-05	0	5	0	
0.3095	0.000557312	0.00205844	3.06049E-05	7.58349E-05	0	5	0	
0.309667	0.00228283	-0.00314804	2.87698E-05	7.59028E-05	0	5	0	
0.309833	0.000816351	0.000758829	2.94134E-05	7.39277E-05	0	5	0	
0.31	0.00321889	-0.00439212	3.81313E-05	7.17564E-05	0	5	0	
0.310167	-0.000301781	0.00266136	3.84375E-05	7.82055E-05	0	5	0	
0.310333	0.00231647	-0.0041608	5.27894E-05	8.19682E-05	0	5	0	
0.3105	0.0026586	0.00216173	5.94292E-05	8.48412E-05	0	5	0	
0.310667	-0.000548306	-0.00361583	6.34394E-05	7.63924E-05	0	5	0	
0.310833	0.000495639	0.000436129	6.21924E-05	7.0044E-05	0	5	0	
0.311	0.00754746	-0.00275707	6.14719E-05	5.93694E-05	0	5	0	
0.311167	-0.00351314	0.0017371	7.86097E-05	5.90337E-05	0	5	0	
0.311333	-0.00409844	-0.00346116	0.0001323	6.59289E-05	0	5	0	
0.3115	0.0148694	0.00234606	0.000165267	8.45691E-05	0	5	0	
0.311667	-0.00590484	-0.00442664	0.000232698	9.24894E-05	0	5	0	
0.311833	-0.00719331	0.0028264	0.000333924	9.55218E-05	0	5	0	
0.312	0.0232916	-0.00446367	0.000416456	8.90365E-05	0	5	0	
0.312167	-0.0215931	0.00193926	0.000450335	8.12552E-05	0	5	0	
0.312333	0.0148826	-0.00161828	0.000410581	7.25113E-05	0	5	0	
0.3125	0.00100332	0.000377711	0.000436916	6.35003E-05	0	5	0	
0.312667	-0.0179412	-0.00305821	0.000470064	5.89994E-05	0	5	0	
0.312833	0.0258194	0.00157641	0.000476288	6.17999E-05	0	5	0	
0.313	-0.0137999	-0.00384713	0.000427731	6.96462E-05	0	5	0	
0.313167	-0.0036732	0.00118083	0.000418601	7.96812E-05	0	5	0	
0.313333	0.0177144	-0.00307702	0.000406321	7.41092E-05	0	5	0	
0.3135	-0.0102559	0.00235491	0.000379478	6.98956E-05	0	5	0	
0.313667	0.00572143	-0.00381885	0.000273845	6.6531E-05	0	5	0	
0.313833	-0.00499121	0.00199418	0.000188022	6.97148E-05	0	5	0	
0.314	0.00662894	-0.00388092	0.000151968	7.46369E-05	0	5	0	
0.314167	-0.00261655	0.00128295	0.000120361	7.31948E-05	0	5	0	
0.314333	0.0039777	-0.00384556	0.000109038	6.62498E-05	0	5	0	
0.3145	0.00270327	0.00162906	7.39302E-05	5.99263E-05	0	5	0	
0.314667	0.00275692	-0.00267046	7.10454E-05	5.64627E-05	0	5	0	
0.314833	-0.00290708	0.00188051	5.4092E-05	6.42394E-05	0	5	0	
0.315	0.00530696	-0.00398884	6.77513E-05	7.21251E-05	0	5	0	
0.315167	-0.00193788	0.00213657	6.80907E-05	8.04728E-05	0	5	0	
0.315333	0.00403454	-0.0043657	9.02631E-05	8.06136E-05	0	5	0	
0.3155	0.0010835	0.00231641	7.10771E-05	7.66904E-05	0	5	0	
0.315667	0.00144249	-0.00326939	6.42625E-05	7.29851E-05	0	5	0	
0.315833	-0.00168008	0.0014646	4.05131E-05	6.83325E-05	0	5	0	
0.316	0.00310371	-0.00363129	4.8136E-05	6.43282E-05	0	5	0	
0.316167	0.0029318	0.00240839	5.26625E-05	6.8801E-05	0	5	0	
0.316333	-0.000525458	-0.00439862	7.24934E-05	7.52128E-05	0	5	0	
0.3165	-0.00256189	0.00284111	0.00015024	7.93884E-05	0	5	0	
0.316667	0.00915551	-0.00366056	0.000229984	7.59972E-05	0	5	0	
0.316833	-0.00756229	0.00199309	0.000253232	6.60725E-05	0	5	0	
0.317	0.00841501	-0.00287195	0.000207563	6.19452E-05	0	5	0	
0.317167	-0.00172609	0.00171994	0.000159	5.891E-05	0	5	0	
0.317333	-0.00057552	-0.00315026	0.000198485	6.74578E-05	0	5	0	
0.3175	0.0120056	0.001765	0.000220708	7.30472E-05	0	5	0	
0.317667	-0.0115863	-0.00312446	0.000238124	7.05363E-05	0	5	0	
0.317833	0.00782833	0.00271427	0.000239794	6.46748E-05	0	5	0	
0.318	0.00273103	-0.00373443	0.000228301	6.52665E-05	0	5	0	
0.318167	-0.00364777	0.00300836	0.000196156	6.82512E-05	0	5	0	
