0	0.0178416	-0.00185318	1.78416E-06	1.85318E-07	0	0	0	
0.000166667	-0.00661691	0.00384295	0.000164415	3.10339E-05	0	0	0	
0.000333333	-0.0383348	0.00475663	0.000476734	5.56286E-05	0	0	0	
0.0005	0.0371586	-0.00561439	0.000689645	9.0031E-05	0	0	0	
0.000666667	0.0145575	-0.00160956	0.000883945	0.000118871	0	0	0	
0.000833333	-0.0141954	0.00432802	0.000660227	0.000140233	0	0	0	
0.001	-0.0240445	3.9533E-05	0.000630084	0.0001247	0	0	0	
0.00116667	-0.00593541	-0.00168365	0.000469674	7.48141E-05	0	0	0	
0.00133333	0.0496697	-0.000420239	0.000677029	7.44162E-05	0	0	0	
0.0015	-0.0085256	0.0167118	0.000735957	0.000109557	0	0	0	
0.00166667	-0.0441351	-0.0140501	0.000882505	0.000209111	0	0	0	
0.00183333	0.0162139	0.00400318	0.000773634	0.000241852	0	0	0	
0.002	0.0189119	0.00497927	0.000756183	0.000246601	0	0	0	
0.00216667	0.0054445	-0.0113279	0.000525048	0.000237037	0	0	0	
0.00233333	-0.0337946	0.0141891	0.000506716	0.000280561	0	0	0	
0.0025	0.0272082	-0.00497508	0.000474379	0.000351342	0	0	0	
0.00266667	-0.00442842	0.00182024	0.000560322	0.000417851	0	0	0	
0.00283333	-0.0137274	0.000243607	0.00050876	0.000433797	0	0	0	
0.003	0.00978275	0.00589996	0.000387867	0.000353531	0	0	0	
0.00316667	0.00516818	-0.0178435	0.000275723	0.000283044	0	0	0	
0.00333333	-0.00452683	0.0248146	0.000206824	0.000287958	0	0	0	
0.0035	-0.0026235	-0.0211691	0.000151031	0.00038669	0	0	0	
0.00366667	-0.00703624	0.00907351	9.33673E-05	0.000397757	0	0	0	
0.00383333	0.0154464	0.00312495	0.000111776	0.000379893	0	0	0	
0.004	-0.00404548	-0.00731757	0.000214558	0.00032265	0	0	0	
0.00416667	-0.010288	0.004612	0.000347356	0.00024317	0	0	0	
0.00433333	0.00577806	0.00648665	0.000359292	0.000166774	0	0	0	
0.0045	0.00645573	-0.0140727	0.000268413	0.000162351	0	0	0	
0.00466667	-0.0151368	0.0171398	0.000176263	0.000237635	0	0	0	
0.00483333	0.0166169	-0.0165309	0.000198336	0.000295394	0	0	0	
0.005	-0.0124711	0.0124521	0.000290283	0.000306041	0	0	0	
0.00516667	0.0025681	-0.00657108	0.000314761	0.000307139	0	0	0	
0.00533333	-0.00585624	0.00210693	0.000255251	0.000306628	0	0	0	
0.0055	0.0161709	0.00571563	0.000231714	0.000289524	0	0	0	
0.00566667	-0.00601894	-0.00406469	0.000216416	0.000218541	0	0	0	
0.00583333	-0.00788681	0.000732522	0.000255685	0.000169744	0	0	0	
0.006	-0.015891	0.0113141	0.000359435	0.000165179	0	0	0	
0.00616667	0.0386861	-0.0170639	0.000550422	0.000208835	0	0	0	
0.00633333	-0.00830339	0.0147892	0.000629278	0.00025547	0	0	0	
0.0065	-0.0278463	-0.0106253	0.000733374	0.000294007	0	0	0	
0.00666667	0.0148593	0.00303212	0.000587187	0.000318491	0	0	0	
0.00683333	0.0105501	0.00314177	0.000575534	0.000278047	0	0	0	
0.007	-0.00631603	0.00397425	0.000326309	0.000191766	0	0	0	
0.00716667	-0.00498087	-0.00636265	0.000227281	0.00012447	0	0	0	
0.00733333	-0.0107554	0.0117352	0.000159842	0.000127553	0	0	0	
0.0075	0.0271562	-0.0113794	0.000210809	0.000175378	0	0	0	
0.00766667	-0.0112165	0.00224437	0.000384976	0.000215695	0	0	0	
0.00783333	-0.0130932	-0.00340386	0.000481721	0.000205615	0	0	0	
0.008	0.00796591	0.00830284	0.000437311	0.00015757	0	0	0	
0.00816667	0.0130427	-0.0113689	0.000402911	0.000154917	0	0	0	
0.00833333	-0.0204794	0.0119646	0.000334384	0.000180576	0	0	0	
0.0085	0.0139103	-0.00459199	0.000382976	0.000245818	0	0	0	
0.00866667	-0.00835914	-0.000972533	0.000311799	0.000263662	0	0	0	
0.00883333	0.00436392	0.000213329	0.00025784	0.00022559	0	0	0	
0.009	0.00073815	0.00136509	0.000179305	0.000153476	0	0	0	
0.00916667	0.00364166	-0.0117309	0.000114841	0.000132605	0	0	0	
0.00933333	-0.0141174	0.018021	0.000147093	0.000182116	0	0	0	
0.0095	0.0182793	-0.0151484	0.000212539	0.000256863	0	0	0	
0.00966667	-0.0133359	0.00908345	0.00028904	0.00030491	0	0	0	
0.00983333	0.00664417	-0.00379915	0.000275476	0.000325001	0	0	0	
0.01	-0.00693089	-0.00357702	0.000221403	0.000303231	0	0	0	
0.0101667	0.0117373	0.00188877	0.000170695	0.00020291	0	0	0	
0.0103333	-0.00381925	0.00445609	0.000163567	0.000134358	0	0	0	
0.0105	-0.00680465	-0.00955877	0.000148629	0.000127483	0	0	0	
0.0106667	-0.00157872	0.0152346	0.000199632	0.000193017	0	0	0	
0.0108333	0.0155418	-0.0160882	0.00029746	0.000245101	0	0	0	
0.011	-0.0166584	0.00791456	0.0003741	0.000278001	0	0	0	
0.0111667	0.011324	-0.00466021	0.000358664	0.000290769	0	0	0	
0.0113333	-0.00847051	0.00265796	0.000261015	0.000259875	0	0	0	
0.0115	0.00710772	-0.00112885	0.000207113	0.000195164	0	0	0	
0.0116667	0.00157831	0.00373788	0.000139561	0.000121946	0	0	0	
0.0118333	-0.00732809	-0.00957041	0.000109033	9.40571E-05	0	0	0	
0.012	-0.00262904	0.0142656	0.000171901	0.000129857	0	0	0	
0.0121667	0.013424	-0.0121306	0.000269746	0.000201527	0	0	0	
0.0123333	-0.00885092	0.00553369	0.000287417	0.000242276	0	0	0	
0.0125	-0.00244814	-0.00158639	0.00027903	0.000218123	0	0	0	
0.0126667	0.0115459	0.00479014	0.000254592	0.000157854	0	0	0	
0.0128333	-0.0137954	-0.0138213	0.000281689	0.000135305	0	0	0	
0.013	0.00631444	0.0170504	0.000249992	0.000180623	0	0	0	
0.0131667	0.000545143	-0.0174391	0.000219282	0.000267391	0	0	0	
0.0133333	-0.00295875	0.0123867	0.000230335	0.00032353	0	0	0	
0.0135	0.00394243	-0.00359549	0.000258336	0.000343702	0	0	0	
0.0136667	-0.00167246	-0.00201846	0.000296769	0.00030715	0	0	0	
0.0138333	-0.000245808	0.000828475	0.000260715	0.000202241	0	0	0	
0.014	-0.00519918	0.00820837	0.000176856	0.000154283	0	0	0	
0.0141667	0.0120554	-0.018312	0.000135596	0.000167194	0	0	0	
0.0143333	-0.0198019	0.0186045	0.000196492	0.000270508	0	0	0	
0.0145	0.0264482	-0.0125318	0.000317948	0.00031841	0	0	0	
0.0146667	-0.0197131	0.00581656	0.00041251	0.000325298	0	0	0	
0.0148333	0.000127989	-0.00278706	0.000446056	0.000287871	0	0	0	
0.015	0.0131813	0.00602936	0.000365147	0.000223841	0	0	0	
0.0151667	-0.00805466	-0.00777662	0.000291038	0.000163899	0	0	0	
0.0153333	-0.00534811	0.0112224	0.000259438	0.00015638	0	0	0	
0.0155	0.0069637	-0.0137821	0.000285223	0.000191181	0	0	0	
0.0156667	0.00682156	0.0111179	0.00022921	0.000249596	0	0	0	
0.0158333	-0.0107886	-0.00572668	0.000168997	0.000292169	0	0	0	
0.016	-0.00806727	0.00297976	0.000192617	0.000286236	0	0	0	
0.0161667	0.00956745	-0.00419591	0.00024359	0.00022495	0	0	0	
0.0163333	0.0205161	0.00847496	0.000444007	0.000167795	0	0	0	
0.0165	-0.0203559	-0.00871931	0.000451548	0.000149377	0	0	0	
0.0166667	-0.0207319	0.00943471	0.000584106	0.000169066	0	0	0	
0.0168333	0.0241694	-0.0136246	0.000460079	0.000192361	0	0	0	
0.017	0.0226078	0.0126941	0.000687648	0.000218339	0	0	0	
0.0171667	-0.0247541	-0.00962692	0.000621728	0.000248738	0	0	0	
0.0173333	-0.0317744	0.0104407	0.000784949	0.000242911	0	0	0	
0.0175	0.0384373	-0.0136408	0.000644048	0.000233912	0	0	0	
0.0176667	0.020347	0.0131809	0.000849514	0.000233507	0	0	0	
0.0178333	-0.0250769	-0.00681578	0.000666027	0.000260242	0	0	0	
0.018	-0.0368747	0.00244684	0.000845271	0.000265777	0	0	0	
0.0181667	0.0437501	0.0037486	0.000718639	0.000225458	0	0	0	
0.0183333	0.0159077	-0.00136567	0.00110648	0.000156437	0	0	0	
0.0185	-0.0336804	-0.00564123	0.000933789	9.58569E-05	0	0	0	
0.0186667	-0.0112964	0.00396504	0.000951135	0.000103803	0	0	0	
0.0188333	0.0377696	0.00382815	0.000612203	0.000186547	0	0	0	
0.019	-0.0207991	-0.00970308	0.000663453	0.000269064	0	0	0	
0.0191667	-0.0050882	0.0023272	0.000816111	0.000294357	0	0	0	
0.0193333	0.0234522	0.00806338	0.000896764	0.000263603	0	0	0	
0.0195	-0.0118098	-0.0106332	0.000790867	0.000246646	0	0	0	
0.0196667	-0.0207889	0.0160484	0.000708065	0.000255608	0	0	0	
0.0198333	0.0216825	-0.0208461	0.000625784	0.000293308	0	0	0	
0.02	-0.0218501	0.0142663	0.00058383	0.000369399	0	0	0	
0.0201667	0.061863	-0.00946668	0.000539909	0.000449303	0	0	0	
0.0203333	-0.0616174	0.00604846	0.000779599	0.000428756	0	0	0	
0.0205	-0.0175844	-0.00881247	0.00120694	0.00032634	0	0	0	
0.0206667	0.0723965	0.0169744	0.00138702	0.000239233	0	0	0	
0.0208333	-0.0353934	-0.0121546	0.00131938	0.000237038	0	0	0	
0.021	-0.0323624	0.0103263	0.00122497	0.000259897	0	0	0	
0.0211667	0.0449404	-0.00728228	0.00102986	0.000246712	0	0	0	
0.0213333	-0.0164228	0.006494	0.000899679	0.000214968	0	0	0	
0.0215	0.00285428	-0.0081148	0.000526271	0.000192228	0	0	0	
0.0216667	-0.00960247	0.0085381	0.000320709	0.000169427	0	0	0	
0.0218333	0.00934512	-0.00579701	0.000237098	0.000158394	0	0	0	
0.022	-0.000667941	0.0102067	0.000278935	0.000145943	0	0	0	
0.0221667	-0.00285794	-0.0108856	0.000287182	0.000158958	0	0	0	
0.0223333	-0.00707848	0.0125536	0.000195	0.000189309	0	0	0	
0.0225	0.0226175	-0.00862171	0.000168238	0.000220738	0	0	0	
0.0226667	-0.00703607	0.000958178	0.000301108	0.000207696	0	0	0	
0.0228333	-0.0299215	-0.000621485	0.000549961	0.000142692	0	0	0	
0.023	0.0170873	0.005217	0.00064531	0.000101678	0	0	0	
0.0231667	0.0435232	-0.011828	0.000945664	0.000120664	0	0	0	
0.0233333	-0.0558867	0.0142824	0.000957024	0.00018027	0	0	0	
0.0235	0.0161414	-0.0101491	0.00110106	0.000237922	0	0	0	
0.0236667	-0.00461591	0.00471225	0.000757325	0.000240694	0	0	0	
0.0238333	0.015926	-0.00247385	0.000531317	0.000197043	0	0	0	
0.024	0.00523263	0.00610009	0.000378954	0.0001443	0	0	0	
0.0241667	-0.0290129	-0.0129067	0.000395885	0.000129794	0	0	0	
0.0243333	0.00605181	0.0142842	0.000496758	0.00017545	0	0	0	
0.0245	0.02801	-0.0157496	0.000567218	0.000241047	0	0	0	
0.0246667	-0.0213637	0.0108412	0.000555958	0.00027965	0	0	0	
0.0248333	-0.00664036	-0.00125748	0.000553564	0.000269551	0	0	0	
0.025	0.0132014	0.00517376	0.000422111	0.000201347	0	0	0	
0.0251667	0.00587078	-0.0120844	0.000358984	0.000165873	0	0	0	
0.0253333	-0.0238419	0.0123579	0.000339384	0.000187856	0	0	0	
0.0255	0.019174	-0.0137887	0.000351782	0.000235258	0	0	0	
0.0256667	-0.00210561	0.00891891	0.000413328	0.000258322	0	0	0	
0.0258333	-0.000286165	-0.00374878	0.000307098	0.000235187	0	0	0	
0.026	-0.0101859	0.00389342	0.000242809	0.000176849	0	0	0	
0.0261667	0.0189291	-0.00605948	0.000195358	0.000137169	0	0	0	
0.0263333	-0.0182495	0.0101169	0.000278469	0.000141814	0	0	0	
0.0265	0.0112099	-0.0157757	0.000310194	0.000200483	0	0	0	
0.0266667	-0.00211295	0.0152999	0.000301885	0.000248088	0	0	0	
0.0268333	-0.00258558	-0.0125845	0.0002529	0.000270278	0	0	0	
0.027	0.0023095	0.0087912	0.000190239	0.000257052	0	0	0	
0.0271667	0.00100728	-0.0090006	0.000120347	0.000229515	0	0	0	
0.0273333	-0.000816963	0.00652801	8.04265E-05	0.000183816	0	0	0	
0.0275	-0.000616721	-0.00743941	6.88296E-05	0.00016791	0	0	0	
0.0276667	-0.00173682	0.00795075	5.6449E-05	0.000139627	0	0	0	
0.0278333	0.00568264	-0.0105113	5.35702E-05	0.000162173	0	0	0	
0.028	-0.00890458	0.0152082	8.6682E-05	0.000190623	0	0	0	
0.0281667	0.0158613	-0.0133116	0.000149778	0.000236075	0	0	0	
0.0283333	-0.0181099	0.00751471	0.000239657	0.000245302	0	0	0	
0.0285	0.00307757	-0.0110194	0.0003268	0.000219572	0	0	0	
0.0286667	0.0064384	0.0127828	0.000322124	0.000222488	0	0	0	
0.0288333	0.0063458	-0.0168413	0.000280675	0.000251828	0	0	0	
0.029	-0.0188722	0.0172477	0.000208129	0.000290004	0	0	0	
0.0291667	0.00918286	-0.00899468	0.000284613	0.000292447	0	0	0	
0.0293333	0.00513391	0.00429328	0.000332927	0.000250563	0	0	0	
0.0295	-0.0075048	-0.00417566	0.000299149	0.00018628	0	0	0	
0.0296667	0.00988157	0.00242355	0.000215791	0.000141295	0	0	0	
0.0298333	-0.00743189	-0.00811312	0.000154529	0.000141838	0	0	0	
0.03	-0.00796589	0.0136047	0.000200314	0.000182648	0	0	0	
0.0301667	0.0184986	-0.0136765	0.000264774	0.000227836	0	0	0	
0.0303333	-0.0152267	0.00850655	0.00030247	0.000237579	0	0	0	
0.0305	0.00604189	-0.00527347	0.000331393	0.000208972	0	0	0	
0.0306667	0.00332584	0.00241987	0.000353539	0.000160762	0	0	0	
0.0308333	0.000494238	-0.00698186	0.00031746	0.000134569	0	0	0	
0.031	-0.0097875	0.0131257	0.000288414	0.000151152	0	0	0	
0.0311667	0.0104223	-0.014454	0.000263643	0.000203048	0	0	0	
0.0313333	-0.00791961	0.0123568	0.000257049	0.000241274	0	0	0	
0.0315	0.00944787	-0.00929858	0.000236143	0.000247442	0	0	0	
0.0316667	-0.0123165	0.00544001	0.000192605	0.000207071	0	0	0	
0.0318333	0.0111306	-0.00433273	0.000227335	0.000159826	0	0	0	
0.032	-0.00511666	0.00665207	0.00023158	0.000137211	0	0	0	
0.0321667	0.00143382	-0.0112991	0.000171022	0.000159758	0	0	0	
0.0323333	0.00147653	0.016439	9.23598E-05	0.000210674	0	0	0	
0.0325	0.00162479	-0.0153381	6.33265E-05	0.000256488	0	0	0	
0.0326667	-0.0115379	0.0100741	9.95407E-05	0.000270438	0	0	0	
0.0328333	0.0149716	-0.00455938	0.000171869	0.000244821	0	0	0	
0.033	-0.00287389	0.00204758	0.000229734	0.000188942	0	0	0	
0.0331667	-0.0108173	-0.00172127	0.000285953	0.00011907	0	0	0	
0.0333333	0.00132338	0.0059093	0.000278323	9.73926E-05	0	0	0	
0.0335	0.0193866	-0.0121007	0.00032617	0.000148446	0	0	0	
0.0336667	-0.0074086	0.0165345	0.000333448	0.000245468	0	0	0	
0.0338333	-0.0202054	-0.0154314	0.00043053	0.000301875	0	0	0	
0.034	-0.00128207	0.0105138	0.000469052	0.000292515	0	0	0	
0.0341667	0.0453811	-0.00706663	0.000669674	0.000245566	0	0	0	
0.0343333	-0.025865	0.0129742	0.000706962	0.000225181	0	0	0	
0.0345	-0.0266563	-0.0150346	0.000897536	0.000218492	0	0	0	
0.0346667	0.00770912	0.00972044	0.000675534	0.000239239	0	0	0	
0.0348333	0.0452356	-0.010476	0.000766572	0.000226083	0	0	0	
0.035	-0.0128481	0.00723353	0.000638691	0.00020735	0	0	0	
0.0351667	-0.0470785	0.000667396	0.000920736	0.000155249	0	0	0	
0.0353333	0.00718438	0.00240955	0.000861534	0.00010315	0	0	0	
0.0355	0.0579525	-0.00884263	0.00104177	0.000107293	0	0	0	
0.0356667	-0.0318459	0.0160587	0.000928235	0.00016968	0	0	0	
0.0358333	-0.0172308	-0.0164982	0.00100547	0.000244598	0	0	0	
0.036	0.00926026	0.0110115	0.00065964	0.000276024	0	0	0	
0.0361667	0.00785283	-0.00558941	0.000482575	0.000252364	0	0	0	
0.0363333	0.00174621	0.00828178	0.00018535	0.000209229	0	0	0	
0.0365	-0.00768247	-0.0162933	0.000148452	0.000225309	0	0	0	
0.0366667	-0.00243269	0.0264989	0.000183951	0.000297794	0	0	0	
0.0368333	0.0188598	-0.0280301	0.000296305	0.000412964	0	0	0	
0.037	-0.0293479	0.0174699	0.000415896	0.000475754	0	0	0	
0.0371667	0.0217624	-0.000672781	0.000452838	0.000453254	0	0	0	
0.0373333	0.00246832	-0.00882863	0.000486309	0.000353392	0	0	0	
0.0375	-0.0187056	0.0083093	0.000419847	0.000255499	0	0	0	
0.0376667	0.00516058	0.00758282	0.000377395	0.000277394	0	0	0	
0.0378333	0.0213971	-0.0220422	0.000427521	0.000366369	0	0	0	
0.038	-0.0271508	0.0246399	0.000511094	0.000451291	0	0	0	
0.0381667	0.00765696	-0.0162165	0.000502167	0.000422536	0	0	0	
0.0383333	0.00643419	0.00511418	0.000372599	0.000361958	0	0	0	
0.0385	-0.00873429	-0.00426275	0.000246939	0.000257777	0	0	0	
0.0386667	0.0132152	0.00746232	0.000215007	0.000169443	0	0	0	
0.0388333	-0.0179346	-0.00924947	0.000212468	0.000156416	0	0	0	
0.039	0.00383556	0.0164039	0.000319218	0.000189963	0	0	0	
0.0391667	0.0179162	-0.0137913	0.000466415	0.000246346	0	0	0	
0.0393333	-0.0346729	0.00693595	0.000575582	0.00024957	0	0	0	
0.0395	0.0335581	-0.00332355	0.000623086	0.000187559	0	0	0	
0.0396667	-0.00293547	0.00103466	0.000629669	0.00015087	0	0	0	
0.0398333	-0.0159503	-0.0111069	0.000558025	0.000179395	0	0	0	
0.04	-0.0123537	0.019752	0.000517829	0.000294997	0	0	0	
0.0401667	0.0296136	-0.0189672	0.000411817	0.00037333	0	0	0	
0.0403333	0.00184236	0.0123177	0.000511415	0.000367297	0	0	0	
0.0405	-0.0163019	-0.00241242	0.000427897	0.000283428	0	0	0	
0.0406667	-0.012266	-0.000174119	0.000570879	0.000183608	0	0	0	
0.0408333	0.022939	-0.00163471	0.000533816	0.000108201	0	0	0	
0.041	-0.00219829	0.00256217	0.000545948	0.000106247	0	0	0	
0.0411667	0.00265167	-0.0100185	0.000313218	0.000161485	0	0	0	
0.0413333	-0.0237831	0.0146966	0.000313557	0.00022066	0	0	0	
0.0415	0.0201439	-0.0116711	0.000350094	0.00025304	0	0	0	
0.0416667	0.00471106	0.00512861	0.000465556	0.000228294	0	0	0	
0.0418333	-0.0120275	-0.000352728	0.000356204	0.000158869	0	0	0	
0.042	0.000140017	0.00633296	0.000311825	0.000144197	0	0	0	
0.0421667	0.0108188	-0.0147172	0.000274862	0.000207012	0	0	0	
0.0423333	-0.0110038	0.0184658	0.000255312	0.000311993	0	0	0	
0.0425	0.00552811	-0.0211576	0.000245136	0.000373341	0	0	0	
0.0426667	-0.00518675	0.0173115	0.000172329	0.000370642	0	0	0	
0.0428333	0.0130531	-0.00867629	0.000185677	0.000345638	0	0	0	
0.043	-0.0144356	0.0011995	0.0001918	0.000262931	0	0	0	
0.0431667	0.00987475	0.00167032	0.000258222	0.000157976	0	0	0	
0.0433333	-0.0021609	0.00341497	0.000272407	0.000117648	0	0	0	
0.0435	-0.00452851	-0.00882799	0.000209071	0.000155271	0	0	0	
0.0436667	0.000531536	0.0130822	0.000179119	0.000241178	0	0	0	
0.0438333	0.0114608	-0.011692	0.000186719	0.000266613	0	0	0	
0.044	-0.0161936	0.00795362	0.000256944	0.000237692	0	0	0	
0.0441667	0.0119074	-0.00514614	0.000272967	0.000187155	0	0	0	
0.0443333	-0.00929735	0.0045555	0.000252722	0.000131927	0	0	0	
0.0445	0.00793567	-0.00263535	0.000223533	0.00012281	0	0	0	
0.0446667	-0.00318253	0.0105501	0.000168257	0.000149018	0	0	0	
0.0448333	0.000735038	-0.0148004	0.000131082	0.000203882	0	0	0	
0.045	-0.00946067	0.0109195	0.000204105	0.000234474	0	0	0	
0.0451667	0.0146596	-0.00746202	0.000294201	0.00023419	0	0	0	
0.0453333	-0.00727792	0.00103124	0.000318845	0.00019171	0	0	0	
0.0455	-0.000259419	0.00392765	0.000216896	0.000136755	0	0	0	
0.0456667	0.00021737	0.00468861	0.000110809	0.000129758	0	0	0	
0.0458333	-0.000797181	-0.0102215	9.19201E-05	0.000183348	0	0	0	
0.046	0.00111258	0.0128436	0.000107983	0.000268837	0	0	0	
0.0461667	0.00412417	-0.0172776	0.000162875	0.000297551	0	0	0	
0.0463333	-0.0104368	0.0105469	0.000218688	0.000275284	0	0	0	
0.0465	0.00942859	-0.00286658	0.000239758	0.000237371	0	0	0	
0.0466667	-0.00196464	0.00344075	0.000201398	0.000175411	0	0	0	
0.0468333	0.00407733	-0.00245439	0.000126681	0.000137259	0	0	0	
0.047	-0.00919447	0.00566429	0.000104094	0.000119831	0	0	0	
0.0471667	0.00196326	-0.00708662	0.000112394	0.000134725	0	0	0	
0.0473333	0.00492141	0.00469895	0.00011636	0.000146395	0	0	0	
0.0475	0.00310238	-0.00618036	0.0001511	0.000147565	0	0	0	
0.0476667	-0.00818335	0.0079962	0.000164899	0.000162311	0	0	0	
0.0478333	0.000914459	-0.00753725	0.000171939	0.000183158	0	0	0	
0.048	-0.000630333	0.0112111	0.000101717	0.000202273	0	0	0	
0.0481667	0.00931188	-0.0142274	9.54355E-05	0.000224301	0	0	0	
0.0483333	-0.0118372	0.0110561	0.000130656	0.000236645	0	0	0	
0.0485	0.00764731	-0.00664332	0.000181972	0.000220264	0	0	0	
0.0486667	-0.00351874	0.00618028	0.000172601	0.000181301	0	0	0	
0.0488333	0.00247291	-0.00614884	0.000131681	0.000147205	0	0	0	
0.049	-0.0145075	0.00590631	0.000157213	0.000131486	0	0	0	
0.0491667	0.0201097	-0.00336045	0.000222557	0.000120308	0	0	0	
0.0493333	-0.00056766	-0.000508793	0.000295139	9.16655E-05	0	0	0	
0.0495	-0.0154413	-0.00123748	0.000282413	9.56817E-05	0	0	0	
0.0496667	0.000580316	0.00731186	0.000311136	0.000131395	0	0	0	
0.0498333	0.0180297	-0.00859712	0.000437324	0.000189073	0	0	0	
0.05	-0.0205468	0.0123596	0.000537697	0.000221366	0	0	0	
0.0501667	0.0113472	-0.0150702	0.000493944	0.000234508	0	0	0	
0.0503333	0.00286174	0.0113289	0.000337748	0.000231838	0	0	0	
0.0505	-0.00992036	-0.00571376	0.000238811	0.000216862	0	0	0	
0.0506667	-0.00606469	0.00845236	0.000192411	0.000180569	0	0	0	
0.0508333	0.0100182	-0.0102122	0.000172226	0.000174799	0	0	0	
0.051	0.021712	0.00798799	0.00025135	0.000176575	0	0	0	
0.0511667	-0.0193866	-0.00228131	0.000344927	0.000174235	0	0	0	
0.0513333	-0.0392938	-0.00131156	0.00068234	0.000123611	0	0	0	
0.0515	0.0403165	-0.0017481	0.000751947	0.000110322	0	0	0	
0.0516667	0.0269544	0.00423372	0.0010111	0.000135955	0	0	0	
0.0518333	-0.0176957	-0.00825495	0.000762461	0.0002226	0	0	0	
0.052	-0.0525426	0.0190027	0.00104323	0.000306431	0	0	0	
0.0521667	0.0408468	-0.0220964	0.000901462	0.000365184	0	0	0	
0.0523333	0.0195481	0.0143148	0.00111222	0.000378319	0	0	0	
0.0525	-0.0142021	-0.00759417	0.000699708	0.000331076	0	0	0	
0.0526667	-0.0154298	-0.00163444	0.000636676	0.000261131	0	0	0	
0.0528333	0.00709539	0.0044553	0.000357214	0.000158958	0	0	0	
0.053	0.00402677	-0.000462324	0.000322777	0.000129818	0	0	0	
0.0531667	0.00533338	-0.00337066	0.000232772	0.000168435	0	0	0	
0.0533333	-0.00507401	0.00940819	0.000267179	0.000255916	0	0	0	
0.0535	0.00240691	-0.0175021	0.000283422	0.000293189	0	0	0	
0.0536667	-0.00713104	0.0152735	0.000237817	0.000291482	0	0	0	
0.0538333	0.00454931	-0.0066483	0.000167936	0.00026865	0	0	0	
0.054	-0.00284675	0.00190369	0.00013535	0.00021586	0	0	0	
0.0541667	0.00776951	0.00173084	0.000147547	0.000140127	0	0	0	
0.0543333	-0.00455687	0.00340324	0.000145487	0.000127365	0	0	0	
0.0545	-0.0016148	-0.0130987	0.000146456	0.000169576	0	0	0	
0.0546667	-0.000487764	0.0144309	8.12993E-05	0.000246927	0	0	0	
0.0548333	0.00558994	-0.00852939	5.91635E-05	0.000257043	0	0	0	
0.055	-0.00529141	0.00502909	8.53568E-05	0.00021838	0	0	0	
0.0551667	-0.000966197	-0.00108331	0.000152295	0.000157349	0	0	0	
0.0553333	0.00567983	0.00514494	0.00016316	0.000165661	0	0	0	
0.0555	-0.000897474	-0.0142218	0.000182087	0.000245565	0	0	0	
0.0556667	-0.0139537	0.0210453	0.000302239	0.000344122	0	0	0	
0.0558333	0.0334712	-0.0159627	0.000526935	0.000367367	0	0	0	
0.056	-0.0419806	0.00585421	0.00068896	0.000331796	0	0	0	
0.0561667	0.0231784	0.00352451	0.000697853	0.000268782	0	0	0	
0.0563333	0.0158744	-0.00613386	0.000704886	0.000188	0	0	0	
0.0565	-0.0243412	-7.52601E-05	0.000565028	0.000214037	0	0	0	
0.0566667	-0.0130174	0.0156121	0.000647887	0.000325412	0	0	0	
0.0568333	0.0240875	-0.0257668	0.000561653	0.000459485	0	0	0	
0.057	0.0203589	0.0199129	0.000641649	0.000483021	0	0	0	
0.0571667	-0.0258701	-0.00977432	0.000494505	0.0004027	0	0	0	
0.0573333	-0.0218862	0.00108402	0.00062072	0.000281859	0	0	0	
0.0575	0.0173645	0.000909165	0.000547996	0.00018966	0	0	0	
0.0576667	0.0233289	0.00369534	0.000577546	0.000175747	0	0	0	
0.0578333	0.00324595	-0.0123851	0.000512765	0.000245305	0	0	0	
0.058	-0.0488258	0.0137427	0.000700105	0.000308179	0	0	0	
0.0581667	0.0240159	-0.00786138	0.000784641	0.000283651	0	0	0	
0.0583333	0.0195627	0.000553829	0.000903853	0.000214026	0	0	0	
0.0585	-0.0213636	-0.00665101	0.000700322	0.000174712	0	0	0	
0.0586667	0.000131051	0.0167837	0.000660558	0.000240135	0	0	0	
0.0588333	0.0233517	-0.0221678	0.0005198	0.000342595	0	0	0	
0.059	-0.033056	0.0163225	0.00059376	0.000387335	0	0	0	
0.0591667	0.0148177	-0.00526954	0.000545243	0.000333025	0	0	0	
0.0593333	0.00145756	-0.00165005	0.00040517	0.000218226	0	0	0	
0.0595	0.00370867	0.00231346	0.000306687	0.00014772	0	0	0	
0.0596667	-0.00239849	0.00178592	0.000167485	0.000177035	0	0	0	
0.0598333	-0.0126252	-0.00987576	0.000139522	0.000279043	0	0	0	
0.06	0.00858679	0.0147025	0.000215098	0.000359352	0	0	0	
0.0601667	0.0161402	-0.0166753	0.000475456	0.000359788	0	0	0	
0.0603333	-0.0257551	0.0116319	0.000621667	0.000311885	0	0	0	
0.0605	0.0127864	-0.00341263	0.000582102	0.000243158	0	0	0	
0.0606667	-6.34489E-05	0.000452213	0.00038174	0.000151795	0	0	0	
0.0608333	-0.00567178	-0.00278674	0.000224245	0.000110776	0	0	0	
0.061	0.0107559	0.00675552	0.000165813	0.000119647	0	0	0	
0.0611667	-0.0120194	-0.00933273	0.000155613	0.000190526	0	0	0	
0.0613333	0.00112701	0.00992018	0.000217713	0.000233664	0	0	0	
0.0615	0.0121698	-0.00918696	0.000308454	0.000241147	0	0	0	
0.0616667	-0.0168173	0.0067765	0.00038494	0.000211193	0	0	0	
0.0618333	0.0130381	-0.00529646	0.000389972	0.000178242	0	0	0	
0.062	-0.00320781	0.00428494	0.000313184	0.000141109	0	0	0	
0.0621667	-0.00232676	-0.00102642	0.000196032	0.000129669	0	0	0	
0.0623333	-0.0105229	0.00162879	0.000197008	0.000118813	0	0	0	
0.0625	0.0145716	-0.00222629	0.000241512	0.000123747	0	0	0	
0.0626667	0.00974285	0.000846032	0.000280418	0.000149367	0	0	0	
0.0628333	-0.021707	-0.00561602	0.000284792	0.000224402	0	0	0	
0.063	-0.00423141	0.0155064	0.000356715	0.000321207	0	0	0	
0.0631667	0.0278639	-0.0212745	0.000502711	0.000375506	0	0	0	
0.0633333	-0.0185002	0.0153761	0.000546791	0.000370775	0	0	0	
0.0635	0.000593972	-0.000763141	0.000429796	0.000354695	0	0	0	
0.0636667	0.00356486	-0.0117143	0.000237918	0.000325706	0	0	0	
0.0638333	-0.00624731	0.0156286	0.000143501	0.000293419	0	0	0	
0.064	0.0111363	-0.0064359	0.000130956	0.000284482	0	0	0	
0.0641667	-0.00793623	-0.00840951	0.000207129	0.000354947	0	0	0	
0.0643333	-0.00808048	0.0159535	0.000339342	0.000430436	0	0	0	
0.0645	0.0210252	-0.0180082	0.000411531	0.000432864	0	0	0	
0.0646667	-0.0174053	0.0101055	0.000428711	0.000343368	0	0	0	
0.0648333	-0.00136891	-0.00320378	0.000395682	0.000253294	0	0	0	
0.065	0.00566486	0.00752914	0.000324931	0.000185923	0	0	0	
0.0651667	0.00567904	-0.00953882	0.000285947	0.000197243	0	0	0	
0.0653333	-0.0100909	0.0102986	0.000201105	0.000216484	0	0	0	
0.0655	0.00428317	-0.00977027	0.000196973	0.000218337	0	0	0	
0.0656667	-0.00785348	-0.000426797	0.000187272	0.000169312	0	0	0	
0.0658333	0.0144543	0.00433604	0.000208397	9.76596E-05	0	0	0	
0.066	-0.00601746	-0.00032864	0.000231997	0.000101013	0	0	0	
0.0661667	-0.00907008	-0.00357767	0.000213097	0.000170841	0	0	0	
0.0663333	0.00889553	0.0118971	0.000228546	0.00028115	0	0	0	
0.0665	0.005195	-0.014457	0.000324173	0.000327535	0	0	0	
0.0666667	-0.0122221	0.0103562	0.000375932	0.000306555	0	0	0	
0.0668333	0.0052424	-0.00626738	0.000331734	0.000234814	0	0	0	
0.067	0.00624756	0.00448783	0.000233324	0.000164726	0	0	0	
0.0671667	0.00163098	-0.00344123	0.000227193	0.000127582	0	0	0	
0.0673333	-0.0243936	0.00621633	0.00034812	0.000156608	0	0	0	
0.0675	0.0167212	-0.0125226	0.000413299	0.000220364	0	0	0	
0.0676667	0.0271938	0.012351	0.000631774	0.000258328	0	0	0	
0.0678333	-0.0277447	-0.00708645	0.000601189	0.000240696	0	0	0	
0.068	-0.0245635	0.00211892	0.000805435	0.000177997	0	0	0	
0.0681667	0.0260916	-0.00274132	0.000626036	0.000136021	0	0	0	
0.0683333	0.0311809	0.00222026	0.000786835	0.000134745	0	0	0	
0.0685	-0.0227174	-0.00454885	0.00062322	0.000170924	0	0	0	
0.0686667	-0.0436961	0.00535931	0.000974809	0.000233398	0	0	0	
0.0688333	0.0417125	-0.0105324	0.000908556	0.000293544	0	0	0	
0.069	0.00953684	0.0116758	0.00102561	0.000321835	0	0	0	
0.0691667	-0.00923623	-0.00690425	0.00057855	0.000276139	0	0	0	
0.0693333	-0.0103323	0.00252996	0.00047104	0.000204332	0	0	0	
0.0695	-0.0120572	-0.00239268	0.00024926	0.00015426	0	0	0	
0.0696667	0.0241399	3.16114E-05	0.000310081	0.000172818	0	0	0	
0.0698333	0.00144757	-0.00340483	0.000409826	0.000211198	0	0	0	
0.07	-0.0154614	0.00518213	0.000508412	0.000236169	0	0	0	
0.0701667	0.00852332	-0.00457036	0.000482767	0.000222354	0	0	0	
0.0703333	-0.00983738	0.00620922	0.000307294	0.000203098	0	0	0	
0.0705	0.00876881	-0.00581738	0.000190059	0.000176036	0	0	0	
0.0706667	0.00197339	0.00128418	0.000187491	0.000147799	0	0	0	
0.0708333	-0.00781739	-0.00174336	0.000186334	0.000110157	0	0	0	
0.071	0.00526131	0.00293333	0.000174585	0.000118318	0	0	0	
0.0711667	0.000343951	-0.00400069	0.000132027	0.000157678	0	0	0	
0.0713333	-0.00412045	0.00550637	0.000128009	0.000212943	0	0	0	
0.0715	0.000766189	-0.00722997	0.000122746	0.000223696	0	0	0	
0.0716667	0.00238532	0.00393898	0.000127459	0.000212563	0	0	0	
0.0718333	0.00709732	-0.00289904	0.000162027	0.000187561	0	0	0	
0.072	-0.018793	0.0033946	0.000220376	0.000185627	0	0	0	
0.0721667	0.01111	-0.00133476	0.000282991	0.000189154	0	0	0	
0.0723333	0.00956365	0.0042433	0.000241628	0.000207415	0	0	0	
0.0725	-0.0103577	-0.00823316	0.000234744	0.000223927	0	0	0	
0.0726667	-0.00900781	0.00806508	0.000267695	0.000248206	0	0	0	
0.0728333	0.0127784	-0.00930716	0.00027578	0.000233956	0	0	0	
0.073	-0.00050101	0.00442359	0.000281014	0.000204356	0	0	0	
0.0731667	0.00839965	-0.00536854	0.000248798	0.000170452	0	0	0	
0.0733333	-0.0286381	0.0116705	0.000366731	0.000178804	0	0	0	
0.0735	0.00672465	-0.00946179	0.000477717	0.000201796	0	0	0	
0.0736667	0.0313822	0.00496426	0.000684724	0.000206697	0	0	0	
0.0738333	-0.00362051	-0.0043273	0.000661967	0.00017178	0	0	0	
0.074	-0.0424727	0.00225119	0.000789046	0.000138753	0	0	0	
0.0741667	0.0144201	-0.0010378	0.00064806	9.78233E-05	0	0	0	
0.0743333	0.0236946	-0.00156253	0.00062951	0.00010858	0	0	0	
0.0745	0.00981828	-0.00112806	0.000533385	0.000183871	0	0	0	
0.0746667	-0.0396016	0.00910411	0.000603044	0.000299309	0	0	0	
0.0748333	0.00536197	-0.0137473	0.000619653	0.000365538	0	0	0	
0.075	0.0198793	0.0146443	0.000467444	0.000341258	0	0	0	
0.0751667	0.000415748	-0.0107411	0.000401098	0.000289993	0	0	0	
0.0753333	-0.0145647	0.00593951	0.000365322	0.000234348	0	0	0	
0.0755	0.0037284	-0.000831567	0.000361497	0.000172537	0	0	0	
0.0756667	0.00701898	-0.00102513	0.000246153	0.000129011	0	0	0	
0.0758333	-0.00542286	-0.0019254	0.000205298	0.000147419	0	0	0	
0.076	-0.0076153	0.00560028	0.000255591	0.00020189	0	0	0	
0.0761667	0.0145779	-0.00445356	0.00030296	0.000243874	0	0	0	
0.0763333	-0.00745401	0.00383994	0.000290741	0.000246868	0	0	0	
0.0765	-0.000579049	-0.00403104	0.000211961	0.000248281	0	0	0	
0.0766667	-2.59878E-06	0.00608921	0.000161757	0.000258054	0	0	0	
0.0768333	0.00533376	-0.00864735	0.000231871	0.000272878	0	0	0	
0.077	-0.0099663	0.00870365	0.000316324	0.000269387	0	0	0	
0.0771667	0.0130495	-0.00668333	0.000393495	0.000244512	0	0	0	
0.0773333	-0.0129357	0.00343472	0.000348968	0.000194563	0	0	0	
0.0775	0.00571613	0.00114236	0.000290231	0.000146738	0	0	0	
0.0776667	0.00535801	-0.00182612	0.000227896	0.000122588	0	0	0	
0.0778333	-0.00861149	0.000352524	0.000194882	0.000157318	0	0	0	
0.078	0.00681895	0.000355902	0.000191521	0.000224968	0	0	0	
0.0781667	-0.009464	-0.00349462	0.000179271	0.000282303	0	0	0	
0.0783333	0.00648016	0.00439066	0.000208255	0.000299189	0	0	0	
0.0785	0.00781355	-0.00597685	0.000278214	0.000288681	0	0	0	
0.0786667	-0.0136051	0.00873608	0.00036604	0.000279501	0	0	0	
0.0788333	0.0107407	-0.0120256	0.000413451	0.000271394	0	0	0	
0.079	-0.0145842	0.00626057	0.000366921	0.000251097	0	0	0	
0.0791667	0.0173422	-0.00138976	0.000316615	0.000183867	0	0	0	
0.0793333	-0.0049755	-0.00192894	0.00029874	0.000115367	0	0	0	
0.0795	-0.0104042	0.0023658	0.000271499	9.79141E-05	0	0	0	
0.0796667	0.0137937	-0.00116873	0.000257218	0.00014239	0	0	0	
0.0798333	-0.0103687	-0.00326281	0.000224236	0.000205367	0	0	0	
0.08	0.00635482	0.00444633	0.000209352	0.000246073	0	0	0	
0.0801667	0.000179082	-0.00510629	0.000206812	0.000262888	0	0	0	
0.0803333	-0.00398703	0.00637666	0.000215823	0.000257973	0	0	0	
0.0805	0.00475013	-0.00661003	0.000217617	0.000243706	0	0	0	
0.0806667	-0.00998724	0.00962182	0.000190616	0.00023813	0	0	0	
0.0808333	0.0158179	-0.0111039	0.000204052	0.000236117	0	0	0	
0.081	-0.0183759	0.00627173	0.000266664	0.000211328	0	0	0	
0.0811667	0.0154704	0.000205312	0.00031385	0.000149474	0	0	0	
0.0813333	-0.0050783	-0.00456191	0.000324459	9.72254E-05	0	0	0	
0.0815	-0.00374203	0.00648775	0.000298469	0.000118093	0	0	0	
0.0816667	0.00736289	-0.000206844	0.00022515	0.000214247	0	0	0	
0.0818333	-0.0114889	-0.00535836	0.000194867	0.000319341	0	0	0	
0.082	0.00740001	0.00807325	0.000192911	0.00035003	0	0	0	
0.0821667	0.00323457	-0.0104475	0.000239516	0.000324848	0	0	0	
0.0823333	-0.00791286	0.00975468	0.00024034	0.000276935	0	0	0	
0.0825	0.00990887	-0.00569071	0.000248428	0.000222146	0	0	0	
0.0826667	-0.011515	0.00216053	0.000236506	0.000154103	0	0	0	
0.0828333	0.00375592	0.000501237	0.000234792	8.64305E-05	0	0	0	
0.083	-0.00116717	-0.000450066	0.000196193	8.90196E-05	0	0	0	
0.0831667	0.00667519	-0.00285689	0.000174773	0.000145899	0	0	0	
0.0833333	-0.00626125	0.00524285	0.000173636	0.000211516	0	0	0	
0.0835	0.00760452	-0.0052227	0.000209264	0.000233825	0	0	0	
0.0836667	-0.0173986	0.00759672	0.000256999	0.000229595	0	0	0	
0.0838333	0.00809636	-0.00714484	0.000273431	0.000216917	0	0	0	
0.084	0.009156	-0.000127261	0.000223717	0.000177584	0	0	0	
0.0841667	0.00715756	0.00373091	0.000345655	0.000116007	0	0	0	
0.0843333	-0.03223	-0.00236442	0.000479925	0.000111735	0	0	0	
0.0845	0.00672643	-0.00376287	0.000588984	0.000167904	0	0	0	
0.0846667	0.0357628	0.00575224	0.000633546	0.000213649	0	0	0	
0.0848333	-0.0163145	-0.000204378	0.000607778	0.000186747	0	0	0	
0.085	-0.028612	0.000564948	0.000813487	0.000132673	0	0	0	
0.0851667	0.00784943	-0.0025516	0.000652433	0.000113742	0	0	0	
0.0853333	0.0312582	-0.00364872	0.000635063	0.000114196	0	0	0	
0.0855	0.0086218	0.00438857	0.000566545	0.000132012	0	0	0	
0.0856667	-0.0546403	-0.00366301	0.000811846	0.000188719	0	0	0	
0.0858333	0.00381109	0.00595306	0.000919986	0.00025954	0	0	0	
0.086	0.0544723	-0.00263623	0.000963329	0.000274056	0	0	0	
0.0861667	-0.0131767	-0.00304787	0.000934442	0.000194474	0	0	0	
0.0863333	-0.0382868	0.00371927	0.00103137	0.000122478	0	0	0	
0.0865	0.0139287	-0.0024939	0.00083945	8.04154E-05	0	0	0	
0.0866667	0.0162667	0.000410926	0.000702836	0.000110842	0	0	0	
0.0868333	-0.000176391	0.00162504	0.000394547	0.000114516	0	0	0	
0.087	-0.0142908	-0.00488621	0.000369212	0.000122183	0	0	0	
0.0871667	0.00358076	0.000985395	0.000250246	9.0042E-05	0	0	0	
0.0873333	0.0106492	0.00359345	0.000235648	0.000102203	0	0	0	
0.0875	-0.0119413	-0.00116948	0.000189666	0.000158825	0	0	0	
0.0876667	0.000183088	0.000427436	0.000227987	0.000257394	0	0	0	
0.0878333	0.00818426	-0.00309539	0.00027701	0.000326331	0	0	0	
0.088	-0.00653128	0.00420631	0.000305856	0.000311621	0	0	0	
0.0881667	0.00218098	-0.00438171	0.000266784	0.000226693	0	0	0	
0.0883333	-0.00329094	-0.000632702	0.000161665	0.000121679	0	0	0	
0.0885	0.00379804	0.00499309	9.83685E-05	7.89779E-05	0	0	0	
0.0886667	0.0012978	-0.00318691	6.42263E-05	0.000131949	0	0	0	
0.0888333	-0.00720128	-0.00156969	8.3383E-05	0.000221903	0	0	0	
0.089	0.00637207	0.00447262	0.000106201	0.000277025	0	0	0	
0.0891667	0.00119045	-0.00464193	0.000153369	0.000256734	0	0	0	
0.0893333	-0.00640852	-0.000533047	0.000146626	0.000186913	0	0	0	
0.0895	0.00756236	0.00214533	0.000148035	0.000123729	0	0	0	
0.0896667	-0.00835296	-0.0015614	0.000147942	0.000117506	0	0	0	
0.0898333	-0.00461544	-0.000701599	0.000193226	0.000159582	0	0	0	
0.09	0.0200787	0.00497849	0.000209696	0.000205727	0	0	0	
0.0901667	0.00452338	-0.00626422	0.000313269	0.000197144	0	0	0	
0.0903333	-0.0200332	0.000528289	0.000373271	0.000148095	0	0	0	
0.0905	-0.0185497	0.0021505	0.000428119	9.65213E-05	0	0	0	
0.0906667	0.0250654	-0.00546077	0.000419031	8.17227E-05	0	0	0	
0.0908333	0.0336318	0.003907	0.000724181	0.000117926	0	0	0	
0.091	-0.0468452	0.000907496	0.000820281	0.000171531	0	0	0	
0.0911667	-0.0132269	-0.00035901	0.00103041	0.000184278	0	0	0	
0.0913333	0.035489	-0.001014	0.000747323	0.000157998	0	0	0	
0.0915	-0.00310595	-0.00263963	0.000731302	0.000134037	0	0	0	
0.0916667	0.00454193	0.00342434	0.000400064	0.000141388	0	0	0	
0.0918333	-0.0319238	-0.0026926	0.000382888	0.000157244	0	0	0	
0.092	0.0131667	0.003479	0.000379576	0.000162916	0	0	0	
0.0921667	0.0233485	-0.00517693	0.000665385	0.000164274	0	0	0	
0.0923333	-0.021	0.00501891	0.000655752	0.000145024	0	0	0	
0.0925	-0.00882446	-0.000132223	0.000623269	0.000107732	0	0	0	
0.0926667	0.02414	-0.00422186	0.000411213	7.69277E-05	0	0	0	
0.0928333	-0.00972745	0.00278177	0.000423485	9.0391E-05	0	0	0	
0.093	-0.00866965	-0.00176517	0.000379475	0.0001185	0	0	0	
0.0931667	0.00346952	0.00350712	0.000325909	0.000143897	0	0	0	
0.0933333	0.0164118	-0.00125408	0.000314192	0.000175388	0	0	0	
0.0935	-0.0128989	-0.00578434	0.000281037	0.000221746	0	0	0	
0.0936667	-0.01332	0.00624478	0.000399877	0.000231191	0	0	0	
0.0938333	0.0184246	-0.00355807	0.000357676	0.000191764	0	0	0	
0.094	0.00216174	-0.00455005	0.000434968	0.000127599	0	0	0	
0.0941667	-0.0147228	0.00937424	0.000382072	0.000112845	0	0	0	
0.0943333	0.00356287	-0.00406298	0.000360188	0.000157809	0	0	0	
0.0945	0.00661488	-0.00227178	0.000286812	0.000227965	0	0	0	
0.0946667	-0.00499228	0.00351255	0.000234095	0.000283481	0	0	0	
0.0948333	0.00827749	-0.00805724	0.000246596	0.00028592	0	0	0	
0.095	-0.019923	0.00343503	0.000264284	0.000239664	0	0	0	
0.0951667	0.0195965	0.00328912	0.000333736	0.000157496	0	0	0	
0.0953333	-0.00506505	-0.00713522	0.000333462	0.000116548	0	0	0	
0.0955	-0.00992006	0.00528956	0.000259775	0.00014663	0	0	0	
0.0956667	0.0130926	-5.5782E-06	0.000198947	0.000242732	0	0	0	
0.0958333	-0.00201155	-0.00354995	0.00026996	0.000293977	0	0	0	
0.096	-0.00477491	0.00147082	0.000372487	0.000261041	0	0	0	
0.0961667	-0.0034767	0.00110257	0.000373479	0.000169189	0	0	0	
0.0963333	0.00934434	-0.00612383	0.000291694	0.000125166	0	0	0	
0.0965	-0.00186346	0.00427579	0.000224163	0.000149992	0	0	0	
0.0966667	-0.0106127	-0.00029133	0.000289561	0.00021182	0	0	0	
0.0968333	0.0139645	0.000605391	0.000346781	0.000232869	0	0	0	
0.097	-0.00368342	0.000837122	0.000309339	0.000210245	0	0	0	
0.0971667	-0.0076256	0.000289613	0.000210501	0.000166184	0	0	0	
0.0973333	0.00533744	-0.00425395	0.000133655	0.00014274	0	0	0	
0.0975	-0.00197994	0.00395689	0.000158056	0.000157311	0	0	0	
0.0976667	0.00302196	-0.00203757	0.000178761	0.000202434	0	0	0	
0.0978333	0.000188755	-0.00143864	0.000218522	0.000247377	0	0	0	
0.098	-0.00362524	0.00350583	0.000252731	0.000258366	0	0	0	
0.0981667	0.00148536	-0.00107517	0.000253529	0.000227812	0	0	0	
0.0983333	0.00264165	0.000567774	0.000196344	0.000178974	0	0	0	
0.0985	-0.00246014	0.000704539	0.000114894	0.000138768	0	0	0	
0.0986667	0.00104983	-0.00781144	7.28903E-05	0.000127705	0	0	0	
0.0988333	-0.00681388	0.00904615	7.89683E-05	0.000143205	0	0	0	
0.099	0.0174358	-0.00838932	0.000134049	0.000203192	0	0	0	
0.0991667	-0.0181563	0.00361846	0.000265338	0.000285403	0	0	0	
0.0993333	0.00344524	0.0062418	0.000407333	0.000361215	0	0	0	
0.0995	0.0146507	-0.00993323	0.000473518	0.00037582	0	0	0	
0.0996667	-0.0187445	0.00875145	0.000411202	0.000327491	0	0	0	
0.0998333	0.00874808	-0.00342734	0.000350387	0.000218642	0	0	0	
0.1	0.00409201	-0.00642083	0.000324138	0.000137369	0	0	0	
0.100167	-0.0136389	0.0100561	0.00036673	0.000107154	0	0	0	
0.100333	0.0174114	-0.00948143	0.0003712	0.000169933	0	0	0	
0.1005	-0.00842035	0.00316141	0.000333752	0.000256032	0	0	0	
0.100667	-0.00694846	0.00448224	0.000354526	0.000322171	0	0	0	
0.100833	0.0191823	-0.00394264	0.000392003	0.000306439	0	0	0	
0.101	-0.0255731	0.00136248	0.000435063	0.000226349	0	0	0	
0.101167	0.0133407	0.000489407	0.000459595	0.000137518	0	0	0	
0.101333	0.0165536	-0.00451285	0.000515842	0.000102462	0	0	0	
0.1015	-0.0141281	0.00635633	0.000490354	0.000125422	0	0	0	
0.101667	-0.0226412	-0.000339765	0.000606021	0.000179918	0	0	0	
0.101833	0.0231713	-0.00616815	0.000534847	0.000224857	0	0	0	
0.102	0.0205612	0.00570208	0.000655735	0.0002085	0	0	0	
0.102167	-0.0186641	0.00225968	0.000474778	0.000148253	0	0	0	
0.102333	-0.0338933	-0.00750061	0.000702191	0.000110243	0	0	0	
0.1025	0.0253588	0.00543006	0.000653836	0.000137492	0	0	0	
0.102667	0.0401048	-0.0037313	0.000810574	0.000182815	0	0	0	
0.102833	-0.0248776	0.000865618	0.000721194	0.000210715	0	0	0	
0.103	-0.0460393	0.00449439	0.00106033	0.000248707	0	0	0	
0.103167	0.0315135	-0.00424838	0.00100049	0.00028145	0	0	0	
0.103333	0.0327814	0.00208087	0.00114866	0.000251438	0	0	0	
0.1035	-0.03185	-0.00188285	0.000811104	0.000152225	0	0	0	
0.103667	-0.00413505	-0.00266985	0.000893654	6.68962E-05	0	0	0	
0.103833	0.00523631	0.00563582	0.000512798	4.37823E-05	0	0	0	
0.104	0.0065471	-0.00759291	0.000425514	8.61518E-05	0	0	0	
0.104167	-0.0055406	0.00961846	0.00018079	0.000147885	0	0	0	
0.104333	0.00373563	-0.00661144	0.000228586	0.000204946	0	0	0	
0.1045	-0.000507028	0.00185927	0.000204924	0.000251696	0	0	0	
0.104667	-0.00548732	0.00143874	0.00019759	0.000282633	0	0	0	
0.104833	0.00553924	-0.00326212	0.000146578	0.000279743	0	0	0	
0.105	-0.00361828	-0.000274593	0.0001442	0.000225093	0	0	0	
0.105167	0.00706205	0.00492657	0.000193009	0.000159596	0	0	0	
0.105333	-0.0013039	-0.00525775	0.000197767	0.000129544	0	0	0	
0.1055	-0.00918993	0.00644986	0.000173531	0.000144077	0	0	0	
0.105667	0.0129401	-0.00731794	0.000147926	0.00017121	0	0	0	
0.105833	-0.00728906	0.0054759	0.0002273	0.000196386	0	0	0	
0.106	0.00389392	-0.00566225	0.000344198	0.000216376	0	0	0	
0.106167	-0.00427849	0.00205773	0.000386614	0.000212194	0	0	0	
0.106333	0.00355188	2.20464E-05	0.000326952	0.000184378	0	0	0	
0.1065	-0.00256335	0.00236368	0.000203791	0.000144429	0	0	0	
0.106667	0.00755721	-0.00426564	0.000129375	0.000132976	0	0	0	
0.106833	-0.00365504	0.00599886	0.000111422	0.000151429	0	0	0	
0.107	-0.00988082	-0.00357972	0.000175072	0.000171561	0	0	0	
0.107167	-0.00505751	0.00147499	0.000223475	0.000186681	0	0	0	
0.107333	0.0292417	-7.59186E-05	0.000326255	0.000204088	0	0	0	
0.1075	0.00207388	-0.00445314	0.000444783	0.000229118	0	0	0	
0.107667	-0.0340389	0.00420317	0.000575034	0.000225857	0	0	0	
0.107833	-0.0379795	-0.00355839	0.000818692	0.000177775	0	0	0	
0.108	0.0939803	0.00265898	0.000981732	0.000136671	0	0	0	
0.108167	0.0178088	0.013313	0.00166712	0.000134366	0	0	0	
0.108333	-0.108909	-0.0190937	0.00202432	0.000186315	0	0	0	
0.1085	-0.0200255	0.00769685	0.00233434	0.000297419	0	0	0	
0.108667	0.132171	0.0106543	0.00223076	0.000437318	0	0	0	
0.108833	-0.042719	-0.0206475	0.0020531	0.000472302	0	0	0	
0.109	-0.0456466	0.00531677	0.00194948	0.000414943	0	0	0	
0.109167	0.0118944	0.0188326	0.00132736	0.000351767	0	0	0	
0.109333	0.00903864	-0.0241026	0.000901332	0.000358769	0	0	0	
0.1095	0.00437585	0.022026	0.000397761	0.000447736	0	0	0	
0.109667	0.0208653	-0.00330735	0.000692433	0.000551058	0	0	0	
0.109833	-0.0546125	-0.0208886	0.0010519	0.000693441	0	0	0	
0.11	0.0487047	0.0293649	0.00124357	0.000699016	0	0	0	
0.110167	-0.0209254	-0.0187113	0.00116103	0.000605019	0	0	0	
0.110333	-0.0301614	-0.00556964	0.00119333	0.000537583	0	0	0	
0.1105	0.0777348	0.0308199	0.00139019	0.000511173	0	0	0	
0.110667	-0.0410868	-0.0286141	0.00139527	0.000539395	0	0	0	
0.110833	-0.0462142	0.0110181	0.00150968	0.000533236	0	0	0	
0.111	0.0626765	0.00461311	0.00135367	0.000558667	0	0	0	
0.111167	-0.00193266	-0.00791097	0.00142344	0.000474904	0	0	0	
0.111333	-0.038501	-0.00139757	0.00114697	0.000302962	0	0	0	
0.1115	0.0196648	0.00955847	0.000991475	0.000138819	0	0	0	
0.111667	0.0186663	-0.00710708	0.000784127	0.00011591	0	0	0	
0.111833	-0.0376629	0.00274853	0.000611447	0.000173894	0	0	0	
0.112	0.022621	0.00118299	0.000668663	0.000221745	0	0	0	
0.112167	0.0118615	0.000507525	0.000742586	0.000198779	0	0	0	
0.112333	-0.0183059	-0.00510726	0.00070277	0.000146895	0	0	0	
0.1125	-0.00367489	0.00768398	0.00057146	0.000116187	0	0	0	
0.112667	0.00897823	-0.00965311	0.000281824	0.000149003	0	0	0	
0.112833	0.00404485	0.00524337	0.00021067	0.000217341	0	0	0	
0.113	-0.00155195	-0.00169246	0.000156243	0.000271856	0	0	0	
0.113167	-0.0161731	0.00240021	0.000185539	0.000270632	0	0	0	
0.113333	0.0210163	-0.00112233	0.000202268	0.000235462	0	0	0	
0.1135	-0.0131497	0.000949633	0.0003444	0.000193047	0	0	0	
0.113667	0.00445701	-0.00314625	0.000416159	0.000174946	0	0	0	
0.113833	0.0018267	0.000535422	0.000394799	0.000172162	0	0	0	
0.114	-0.00743329	-0.0005072	0.000295704	0.000169735	0	0	0	
0.114167	0.00752811	0.00149308	0.000231423	0.00015445	0	0	0	
0.114333	-0.0014678	-0.00282261	0.000192215	0.000122881	0	0	0	
0.1145	-0.00788942	0.00993228	0.000160372	0.0001153	0	0	0	
0.114667	0.01174	-0.0129346	0.000164012	0.000135469	0	0	0	
0.114833	-0.00972011	0.0129402	0.000173443	0.000213037	0	0	0	
0.115	0.00592609	-0.010234	0.000217421	0.000288608	0	0	0	
0.115167	-0.00511369	0.00162424	0.000248075	0.000343257	0	0	0	
0.115333	0.00622275	0.00230127	0.000292894	0.000340043	0	0	0	
0.1155	-0.00193231	-0.00178741	0.000284568	0.0002772	0	0	0	
0.115667	-0.0050504	-0.00198561	0.000209384	0.000181418	0	0	0	
0.115833	0.00372557	0.00702938	0.000134267	0.00011756	0	0	0	
0.116	0.00508007	-0.00761464	8.43554E-05	0.000107474	0	0	0	
0.116167	-0.00570157	0.00532066	0.000110319	0.000156989	0	0	0	
0.116333	-0.000924567	-0.00268559	0.000186045	0.000211925	0	0	0	
0.1165	0.00174832	-0.00139577	0.000244404	0.000242312	0	0	0	
0.116667	-0.00217145	-0.00227515	0.000247825	0.000208028	0	0	0	
0.116833	0.00514839	0.00695575	0.000198175	0.000143272	0	0	0	
0.117	0.00555689	-0.0119655	0.000138713	0.000119844	0	0	0	
0.117167	-0.0190516	0.0143207	0.000155319	0.000174139	0	0	0	
0.117333	0.0102086	-0.00973507	0.000239388	0.000263799	0	0	0	
0.1175	0.00440096	0.000814896	0.00035399	0.000330619	0	0	0	
0.117667	-0.000250851	0.00391164	0.0002876	0.000327253	0	0	0	
0.117833	-0.00834608	-0.00182305	0.000186645	0.000257673	0	0	0	
0.118	-0.00371353	-0.000391499	0.000181834	0.000152028	0	0	0	
0.118167	0.0249779	0.00295851	0.000338771	7.95658E-05	0	0	0	
0.118333	-0.0197334	-0.00577751	0.000435688	6.30286E-05	0	0	0	
0.1185	-0.01143	0.00847787	0.000536359	9.753E-05	0	0	0	
0.118667	0.0196126	-0.0154786	0.000443931	0.000161604	0	0	0	
0.118833	0.00734933	0.0129975	0.000530556	0.000262	0	0	0	
0.119	-0.0148481	-0.00238676	0.000419693	0.000364755	0	0	0	
0.119167	-0.0184833	-0.00182001	0.000463753	0.000403018	0	0	0	
0.119333	0.0191591	0.0024535	0.000398822	0.000340033	0	0	0	
0.1195	0.0444379	-0.00063479	0.0007764	0.000248289	0	0	0	
0.119667	-0.0613579	0.000634093	0.000960751	0.000192672	0	0	0	
0.119833	-0.0149475	0.00113718	0.00131895	0.000145094	0	0	0	
0.12	0.0372734	-0.0117835	0.000997292	0.000131035	0	0	0	
0.120167	0.0312304	0.0129919	0.00135187	0.000151493	0	0	0	
0.120333	-0.0458982	-0.00617421	0.00123326	0.000215408	0	0	0	
0.1205	-0.0390047	0.00783099	0.00147276	0.000232397	0	0	0	
0.120667	0.0595283	-0.00850653	0.001078	0.000211701	0	0	0	
0.120833	0.0297306	0.0054649	0.00137948	0.000218177	0	0	0	
0.121	-0.0688094	-0.00246775	0.00144375	0.000278827	0	0	0	
0.121167	-0.011062	-0.00385916	0.00146643	0.000306285	0	0	0	
0.121333	0.0553548	-0.000281838	0.00107857	0.000226863	0	0	0	
0.1215	-0.0154106	0.0116021	0.000814301	0.000155681	0	0	0	
0.121667	-0.00409768	-0.0141675	0.000618177	0.000153406	0	0	0	
0.121833	-0.0448219	0.00337534	0.000490496	0.00023425	0	0	0	
0.122	0.0703831	0.00211057	0.000642941	0.000315216	0	0	0	
0.122167	0.0137353	-0.004228	0.001364	0.000346036	0	0	0	
0.122333	-0.107389	0.00338508	0.00203078	0.000359284	0	0	0	
0.1225	0.0877094	-0.00448904	0.00219558	0.000300025	0	0	0	
0.122667	0.00214664	-0.00161997	0.00210967	0.000225212	0	0	0	
0.122833	-0.0431994	0.00453278	0.00172375	0.000167364	0	0	0	
0.123	0.0413802	-0.00864908	0.00144602	0.000171142	0	0	0	
0.123167	-0.0517994	0.0147188	0.00104133	0.000218654	0	0	0	
0.123333	0.0653518	-0.0153821	0.000925727	0.000268031	0	0	0	
0.1235	-0.0327318	0.0159494	0.00105515	0.00029609	0	0	0	
0.123667	-0.0347454	-0.0115314	0.00133552	0.000318919	0	0	0	
0.123833	0.0710749	0.00733894	0.00147504	0.000354671	0	0	0	
0.124	-0.0453199	0.000286301	0.0014361	0.00037366	0	0	0	
0.124167	0.00804458	-0.00473735	0.0011011	0.000343127	0	0	0	
0.124333	0.00315325	0.00584981	0.000825559	0.000255876	0	0	0	
0.1245	-0.00909134	0.000949515	0.000560469	0.000167368	0	0	0	
0.124667	0.0157823	-0.0045872	0.000380251	0.000120933	0	0	0	
0.124833	-0.0293694	0.00554298	0.000298928	0.000127895	0	0	0	
0.125	0.0257194	-0.00461087	0.000423466	0.000134832	0	0	0	
0.125167	0.00321773	0.012601	0.000686187	0.000174728	0	0	0	
0.125333	-0.0358459	-0.019443	0.000845712	0.000220428	0	0	0	
0.1255	0.02425	0.0194274	0.000820789	0.000317887	0	0	0	
0.125667	0.00708145	-0.0114168	0.000664247	0.000398592	0	0	0	
0.125833	-0.0111788	-0.00206207	0.000434927	0.00042476	0	0	0	
0.126	-0.00527087	0.00407315	0.000370467	0.00036458	0	0	0	
0.126167	0.00133586	0.00251948	0.000186892	0.000234982	0	0	0	
0.126333	0.0212797	-0.0111758	0.00027971	0.000169505	0	0	0	
0.1265	-0.027881	0.0193198	0.000303447	0.000187556	0	0	0	
0.126667	0.00363895	-0.0151147	0.000506661	0.000279418	0	0	0	
0.126833	0.00395025	-0.00217374	0.000487895	0.000335136	0	0	0	
0.127	0.00710995	0.00948052	0.000406445	0.000326729	0	0	0	
0.127167	0.00534117	-0.00573919	0.000361807	0.000251854	0	0	0	
0.127333	-0.0280157	-0.00764139	0.000392071	0.000219001	0	0	0	
0.1275	0.0120244	0.0213953	0.000481397	0.000210544	0	0	0	
0.127667	0.0196143	-0.017566	0.000523076	0.000301181	0	0	0	
0.127833	-0.0203854	0.00209028	0.000470476	0.000429982	0	0	0	
0.128	-0.00128402	0.0113526	0.000514534	0.000547475	0	0	0	
0.128167	0.00622234	-0.0134043	0.000406344	0.000533603	0	0	0	
0.128333	-0.00136811	0.00230506	0.000322832	0.000356661	0	0	0	
0.1285	0.00230325	0.00718492	0.000153887	0.00021739	0	0	0	
0.128667	0.00555565	-0.0172341	8.08958E-05	0.000177649	0	0	0	
0.128833	-0.0225211	0.0208962	0.000151573	0.000273975	0	0	0	
0.129	0.0230591	-0.00999709	0.000268687	0.000366853	0	0	0	
0.129167	-0.000709579	-0.000387732	0.000461682	0.000439747	0	0	0	
0.129333	-0.0193866	0.00137863	0.000582537	0.000388822	0	0	0	
0.1295	0.0188532	-0.000995375	0.000559782	0.00024271	0	0	0	
0.129667	-0.00610577	-0.00534056	0.000435481	0.000106037	0	0	0	
0.129833	-0.00562825	0.00851073	0.000312467	8.01536E-05	0	0	0	
0.13	0.0141122	-0.00511825	0.000267956	0.000144298	0	0	0	
0.130167	-0.0182002	0.00362589	0.000265875	0.00020311	0	0	0	
0.130333	0.0101607	-0.00234723	0.000306039	0.000218388	0	0	0	
0.1305	0.00396087	0.000155841	0.000383302	0.000200091	0	0	0	
0.130667	-0.00447597	-0.00178617	0.000378527	0.000166446	0	0	0	
0.130833	0.000143697	0.0057138	0.000299062	0.000143928	0	0	0	
0.131	-0.00418119	-0.00740173	0.000234376	0.00014787	0	0	0	
0.131167	0.0099427	0.00699007	0.000214198	0.000173769	0	0	0	
0.131333	-0.00499588	-0.00452161	0.000207903	0.00020642	0	0	0	
0.1315	-0.000146416	0.00111345	0.000147788	0.000218122	0	0	0	
0.131667	0.00403378	-0.00239004	0.000112753	0.000193253	0	0	0	
0.131833	-0.00727362	0.00805529	9.96347E-05	0.000149518	0	0	0	
0.132	0.00578509	-0.0138094	0.000155912	0.000146945	0	0	0	
0.132167	0.00464857	0.0144969	0.000286798	0.000197452	0	0	0	
0.132333	-0.00399254	-0.0132584	0.000375875	0.000282324	0	0	0	
0.1325	-0.00474613	0.00261639	0.00034946	0.000339402	0	0	0	
0.132667	0.00230275	0.00256423	0.000275922	0.000350095	0	0	0	
0.132833	0.00702547	-0.00296861	0.000280422	0.000281805	0	0	0	
0.133	-0.00210785	-0.00108324	0.000301923	0.000169082	0	0	0	
0.133167	-0.00499185	0.0106579	0.000260639	0.000114453	0	0	0	
0.133333	0.00362549	-0.0175839	0.000201558	0.000139493	0	0	0	
0.1335	-0.00724615	0.0156535	0.000165567	0.000233828	0	0	0	
0.133667	0.0216185	-0.0129759	0.000202896	0.000301649	0	0	0	
0.133833	-0.0253725	0.00509536	0.000284544	0.000337042	0	0	0	
0.134	0.0159713	0.000978406	0.000413815	0.00031118	0	0	0	
0.134167	-0.00144871	0.00329014	0.000484426	0.000227286	0	0	0	
0.134333	-0.00594872	-0.00565753	0.000446189	0.000142714	0	0	0	
0.1345	-0.00708972	0.00707972	0.000318423	0.000111726	0	0	0	
0.134667	0.0243701	-0.00375838	0.000294451	0.000130612	0	0	0	
0.134833	-0.0148537	0.00016568	0.000294731	0.000146323	0	0	0	
0.135	-0.00628929	-0.00420992	0.00034634	0.000120715	0	0	0	
0.135167	0.00042856	0.00756752	0.000252838	9.91507E-05	0	0	0	
0.135333	0.0182188	-0.00905846	0.000264965	0.000118644	0	0	0	
0.1355	-0.0191933	0.0120801	0.000292105	0.000158974	0	0	0	
0.135667	0.00837096	-0.0119332	0.000340586	0.000208496	0	0	0	
0.135833	-0.0102503	0.0113366	0.000278559	0.000242117	0	0	0	
0.136	0.0204667	-0.00430986	0.000257932	0.000268623	0	0	0	
0.136167	-0.0114022	-0.00210836	0.000298793	0.000249809	0	0	0	
0.136333	-0.0166779	-0.00246502	0.000444566	0.000178748	0	0	0	
0.1365	0.0123292	0.00300396	0.000421234	0.000110677	0	0	0	
0.136667	0.0309293	9.97609E-05	0.000597077	8.22287E-05	0	0	0	
0.136833	-0.0404215	0.00383592	0.000583759	7.15818E-05	0	0	0	
0.137	-0.011308	-0.0111761	0.000874164	9.35385E-05	0	0	0	
0.137167	0.0452736	0.0150481	0.000840776	0.000148849	0	0	0	
0.137333	-0.00559302	-0.00841152	0.000891765	0.000225102	0	0	0	
0.1375	-0.0386018	0.00362739	0.000819764	0.000260082	0	0	0	
0.137667	0.00630558	-0.00314774	0.000760458	0.000239688	0	0	0	
0.137833	0.0368156	0.000148631	0.00080168	0.000217208	0	0	0	
0.138	0.00803544	-0.00317093	0.000755659	0.000174076	0	0	0	
0.138167	-0.0578518	0.0117134	0.000809093	0.000157098	0	0	0	
0.138333	0.00699084	-0.0135186	0.00094919	0.000169563	0	0	0	
0.1385	0.0456089	0.0150891	0.00120298	0.000229094	0	0	0	
0.138667	-0.0021467	-0.0111694	0.00105363	0.00028996	0	0	0	
0.138833	-0.036625	-0.000218225	0.000791515	0.000328722	0	0	0	
0.139	0.000225743	0.002287	0.000545774	0.000303257	0	0	0	
0.139167	0.0213642	0.00342848	0.000599836	0.000200706	0	0	0	
0.139333	0.0211551	-0.00793063	0.000652043	0.000134238	0	0	0	
0.1395	-0.0521327	0.0116533	0.000635624	0.000122363	0	0	0	
0.139667	0.0310761	-0.00908096	0.00075554	0.000168993	0	0	0	
0.139833	0.00355994	0.0107241	0.000832681	0.0001906	0	0	0	
0.14	-0.01813	-0.0129736	0.000776991	0.000224747	0	0	0	
0.140167	0.0102133	0.00564376	0.000563618	0.00025996	0	0	0	
0.140333	0.00868772	-0.0021473	0.000354162	0.000256489	0	0	0	
0.1405	-0.0131867	0.0042426	0.000237178	0.000211357	0	0	0	
0.140667	-0.0032653	-0.00401369	0.000262658	0.000162179	0	0	0	
0.140833	0.0122643	0.00726213	0.00022778	0.00014675	0	0	0	
0.141	0.00693175	-0.00721822	0.000281326	0.000151379	0	0	0	
0.141167	-0.0268889	0.00625369	0.000300739	0.000165636	0	0	0	
0.141333	0.0217741	-0.00215722	0.00040328	0.000165265	0	0	0	
0.1415	-0.0118912	-0.00161385	0.000421155	0.000172198	0	0	0	
0.141667	0.00935388	-0.0020014	0.000369396	0.000135624	0	0	0	
0.141833	0.000124994	0.0090021	0.000259986	0.000120472	0	0	0	
0.142	-0.00718943	-0.0133609	0.000189155	0.00014022	0	0	0	
0.142167	-0.00557202	0.018588	0.000181478	0.000214165	0	0	0	
0.142333	0.0106114	-0.0133943	0.000236342	0.000289654	0	0	0	
0.1425	-0.00156302	0.0067807	0.00020238	0.000360257	0	0	0	
0.142667	0.00507218	-0.00202674	0.000156331	0.000403949	0	0	0	
0.142833	-0.00723986	-0.00455782	0.000104562	0.000380194	0	0	0	
0.143	-0.018067	0.00421659	0.000267209	0.000277249	0	0	0	
0.143167	0.0310368	0.00323042	0.00037216	0.00016021	0	0	0	
0.143333	0.00374534	-0.00820698	0.000657933	0.000103743	0	0	0	
0.1435	-0.0287597	0.0135191	0.000653245	0.000137132	0	0	0	
0.143667	0.00803875	-0.0112313	0.00073353	0.000207672	0	0	0	
0.143833	0.00532797	0.00496406	0.000540858	0.000261273	0	0	0	
0.144	0.00771173	-0.00810042	0.000405072	0.000248294	0	0	0	
0.144167	0.00250557	0.0100564	0.00028183	0.000222944	0	0	0	
0.144333	-0.0272526	-0.011044	0.000351594	0.000228265	0	0	0	
0.1445	0.0210525	0.00914544	0.000433794	0.000249077	0	0	0	
0.144667	0.00788823	-0.00850457	0.000505099	0.000250542	0	0	0	
0.144833	-0.019646	0.0110616	0.000388597	0.000231161	0	0	0	
0.145	0.0124677	-0.00791607	0.000348716	0.000222024	0	0	0	
0.145167	-0.00497293	0.00447511	0.000307758	0.000219052	0	0	0	
0.145333	0.00421726	-0.00740977	0.000309309	0.000191986	0	0	0	
0.1455	-0.0119141	0.00611593	0.00026924	0.000157353	0	0	0	
0.145667	0.0170985	-0.005346	0.000247207	0.000150444	0	0	0	
0.145833	9.89674E-05	0.00408177	0.000330182	0.000162082	0	0	0	
0.146	-0.0130656	-0.00390675	0.000424969	0.000164898	0	0	0	
0.146167	-0.00256032	0.0101787	0.000393717	0.000146832	0	0	0	
0.146333	0.0192762	-0.0127604	0.0003188	0.000152153	0	0	0	
0.1465	-0.00927053	0.0144688	0.000251116	0.000198286	0	0	0	
0.146667	0.00478588	-0.0143125	0.000239012	0.000258354	0	0	0	
0.146833	-0.0182808	0.00673164	0.000209498	0.000296226	0	0	0	
0.147	0.0214829	-0.00168827	0.000248051	0.00029019	0	0	0	
0.147167	-0.00488958	-0.00152481	0.000321101	0.000238271	0	0	0	
0.147333	-0.00168276	-0.000253266	0.000302338	0.000139966	0	0	0	
0.1475	-0.00421457	0.00798135	0.000192888	8.58032E-05	0	0	0	
0.147667	0.00861814	-0.0125141	0.000120359	9.65483E-05	0	0	0	
0.147833	-0.0146915	0.0126076	0.000134389	0.000176284	0	0	0	
0.148	0.0210363	-0.0112468	0.000229704	0.000226239	0	0	0	
0.148167	-0.00897248	0.00499315	0.000315691	0.000242971	0	0	0	
0.148333	-0.00313567	-0.00236632	0.000333563	0.000226479	0	0	0	
0.1485	-0.00397473	0.00393394	0.000244926	0.000194771	0	0	0	
0.148667	0.0105436	-0.00331467	0.000176485	0.000151982	0	0	0	
0.148833	-0.00791309	0.00277983	0.000139829	0.00011144	0	0	0	
0.149	0.0119006	-0.00818083	0.000186044	9.46361E-05	0	0	0	
0.149167	-0.0198131	0.0090325	0.000237119	0.00011142	0	0	0	
0.149333	0.0190494	-0.00957251	0.000291954	0.000160778	0	0	0	
0.1495	-0.00773658	0.0082737	0.000384436	0.000197423	0	0	0	
0.149667	-0.00445324	-0.00461677	0.000431643	0.000196445	0	0	0	
0.149833	0.00825558	0.00822275	0.000370251	0.000173505	0	0	0	
0.15	-0.00261552	-0.011909	0.00027235	0.000160182	0	0	0	
0.150167	-0.00211961	0.00920533	0.000157148	0.000183506	0	0	0	
0.150333	0.0048579	-0.0118809	0.000128717	0.000221914	0	0	0	
0.1505	-0.015805	0.0111964	0.000138865	0.000246766	0	0	0	
0.150667	0.0239613	-0.0030961	0.00022343	0.000250973	0	0	0	
0.150833	-0.0128268	0.00510337	0.000318454	0.000226091	0	0	0	
0.151	-0.00355381	-0.00487967	0.000392942	0.000171992	0	0	0	
0.151167	0.00718001	0.00768071	0.000360432	0.000152993	0	0	0	
0.151333	0.00216018	-0.0130941	0.000274916	0.000148425	0	0	0	
0.1515	-0.0125298	0.0115385	0.000185623	0.000192687	0	0	0	
0.151667	0.00778842	-0.0075392	0.000159133	0.000221803	0	0	0	
0.151833	0.00337672	0.00854239	0.000176322	0.000223899	0	0	0	
0.152	0.00411126	-0.0070445	0.000149869	0.000204455	0	0	0	
0.152167	-0.0155854	0.0086363	0.00014593	0.000182803	0	0	0	
0.152333	0.00355446	-0.0102456	0.000193888	0.000178951	0	0	0	
0.1525	0.0124194	0.00905371	0.000265454	0.000196129	0	0	0	
0.152667	-0.00257618	-0.00904863	0.000273131	0.000200892	0	0	0	
0.152833	-0.0141659	0.00849737	0.000278423	0.00020289	0	0	0	
0.153	0.00970769	-0.0092885	0.000262699	0.000205993	0	0	0	
0.153167	0.000553829	0.010797	0.000255834	0.000210787	0	0	0	
0.153333	-0.00172572	-0.0090371	0.000171705	0.000221018	0	0	0	
0.1535	0.00196717	0.00657232	0.00010193	0.000212402	0	0	0	
0.153667	-0.00311976	-0.00928402	5.32685E-05	0.00019201	0	0	0	
0.153833	-0.000293376	0.0122876	5.69469E-05	0.000191732	0	0	0	
0.154	0.00948396	-0.0119477	8.60879E-05	0.000208401	0	0	0	
0.154167	-0.0219953	0.00674034	0.000157542	0.0002415	0	0	0	
0.154333	0.0128655	-0.00312686	0.000301032	0.000216023	0	0	0	
0.1545	0.024666	0.00757969	0.000610879	0.000171545	0	0	0	
0.154667	-0.0402698	-0.00992183	0.000737907	0.000143081	0	0	0	
0.154833	-0.00993956	0.00641458	0.000911757	0.000147351	0	0	0	
0.155	0.058119	-0.00989739	0.000893218	0.000159199	0	0	0	
0.155167	-0.0222393	0.0180198	0.000960531	0.000192121	0	0	0	
0.155333	-0.030968	-0.0120051	0.00094929	0.000231875	0	0	0	
0.1555	-0.00495577	0.00280767	0.000796744	0.000255592	0	0	0	
0.155667	0.0440683	-0.00386771	0.00072028	0.000193656	0	0	0	
0.155833	0.0152831	0.006995	0.000779927	0.000151901	0	0	0	
0.156	-0.0621671	-0.00893967	0.000903575	0.000133349	0	0	0	
0.156167	-0.00683976	0.0109404	0.00115121	0.000168725	0	0	0	
0.156333	0.0624533	-0.00680408	0.00115956	0.000176409	0	0	0	
0.1565	-0.0178599	0.00522279	0.00119066	0.000176922	0	0	0	
0.156667	-0.0187568	-0.00367416	0.00103787	0.00015396	0	0	0	
0.156833	-0.0147408	0.00239846	0.000807878	0.000127491	0	0	0	
0.157	0.0347322	-0.00356642	0.000626528	0.000102369	0	0	0	
0.157167	-0.0104108	0.0117088	0.000561551	0.000103684	0	0	0	
0.157333	-0.00664635	-0.0147618	0.00060075	0.000155995	0	0	0	
0.1575	0.00322586	0.0134211	0.000462307	0.000221325	0	0	0	
0.157667	0.00566752	-0.00761147	0.000337538	0.000245511	0	0	0	
0.157833	-0.0145526	0.00496162	0.000269593	0.00020972	0	0	0	
0.158	0.017494	-0.00379013	0.000378763	0.000155208	0	0	0	
0.158167	-0.015407	0.00376056	0.000365231	0.000116657	0	0	0	
0.158333	0.00887153	-0.00336868	0.000303896	9.47801E-05	0	0	0	
0.1585	0.000932319	0.00715052	0.000245713	0.000105809	0	0	0	
0.158667	0.000631173	-0.0158812	0.000190351	0.000154905	0	0	0	
0.158833	-0.00475981	0.0211156	0.00015378	0.00025525	0	0	0	
0.159	-0.00576498	-0.0202546	0.000157065	0.000339622	0	0	0	
0.159167	0.00866852	0.012031	0.000178296	0.000374843	0	0	0	
0.159333	0.0124601	-0.00391504	0.000205909	0.000353024	0	0	0	
0.1595	-0.0354031	0.00137436	0.000277433	0.000275486	0	0	0	
0.159667	0.0326515	-0.0019683	0.000442978	0.00017419	0	0	0	
0.159833	-0.00875997	0.00667494	0.000646626	0.000124017	0	0	0	
0.16	-0.0108411	-0.0130893	0.000720936	0.000131149	0	0	0	
0.160167	0.00304791	0.0110502	0.000512396	0.000185897	0	0	0	
0.160333	0.0130882	-0.00749469	0.000362557	0.000212979	0	0	0	
0.1605	0.00415653	-0.00535309	0.000189036	0.000230923	0	0	0	
0.160667	-0.0208375	0.00299079	0.00024312	0.000221139	0	0	0	
0.160833	-0.0121894	0.00934574	0.000410068	0.000197028	0	0	0	
0.161	0.0476321	-0.0213988	0.000658793	0.000227423	0	0	0	
0.161167	-0.0144496	0.0210797	0.000795652	0.000313454	0	0	0	
0.161333	-0.0191292	-0.0174232	0.000765777	0.000401042	0	0	0	
0.1615	-0.00359634	0.00739775	0.000527181	0.00043533	0	0	0	
0.161667	0.0148867	-0.00919811	0.000369858	0.000442018	0	0	0	
0.161833	0.0219002	-0.00135488	0.000410022	0.000380487	0	0	0	
0.162	-0.0247958	0.00171372	0.000515223	0.000244214	0	0	0	
0.162167	-0.00599097	0.00878361	0.000638923	0.000160487	0	0	0	
0.162333	0.0105227	-0.0180392	0.00043067	0.000155571	0	0	0	
0.1625	0.00375927	0.0172046	0.000306165	0.000254262	0	0	0	
0.162667	0.00521002	-0.016466	0.000189943	0.000298414	0	0	0	
0.162833	-0.0219263	0.0108556	0.000198439	0.000311824	0	0	0	
0.163	0.0252795	-0.00651909	0.000313366	0.00027829	0	0	0	
0.163167	-0.015562	0.00503668	0.000385709	0.000238421	0	0	0	
0.163333	9.68909E-05	-0.00242736	0.000423431	0.000189678	0	0	0	
0.1635	0.0173678	0.00163913	0.000433572	0.000145546	0	0	0	
0.163667	-0.016541	-0.0096773	0.000392631	0.000118151	0	0	0	
0.163833	-0.00425898	0.0152317	0.000416415	0.000171077	0	0	0	
0.164	0.0258974	-0.0175827	0.000431851	0.000249075	0	0	0	
0.164167	-0.0260919	0.00844327	0.000487005	0.000287325	0	0	0	
0.164333	0.0135313	0.00212393	0.000477121	0.000249349	0	0	0	
0.1645	-0.00769963	0.00497711	0.00037861	0.00016931	0	0	0	
0.164667	0.00782224	-0.00755433	0.000278425	0.000114398	0	0	0	
0.164833	0.00829732	-0.00587081	0.000191767	9.65258E-05	0	0	0	
0.165	-0.00171273	-0.0216671	0.00022259	0.000286471	0	0	0	
0.165167	-0.0945531	0.11904	0.000761329	0.000806804	0	0	0	
0.165333	0.16662	-0.100659	0.00137659	0.00156895	0	0	0	
0.1655	-0.182707	-0.0746342	0.00395364	0.0051569	0	0	0	
0.165667	0.235023	-0.113917	0.00773262	0.00999724	0	0	0	
0.165833	0.0487452	-0.142186	0.00909866	0.0118579	0	0	0	
0.166	-0.0390206	0.0957071	0.0068079	0.0086629	0	0	0	
0.166167	0.0192091	-0.0136712	0.00261014	0.00416783	0	0	0	
0.166333	0.0376088	-0.0990013	0.00101341	0.0025884	0	0	0	
0.1665	-0.318713	0.378867	0.00179201	0.00310901	0	0	0	
0.166667	0.614908	-0.858778	0.00534453	0.00691765	0	0	0	
0.166833	-0.198797	0.343407	0.00736732	0.00979489	0	0	0	
0.167	0.0737038	-0.0596418	0.00693676	0.00998395	0	0	0	
0.167167	-0.0383159	-0.0620385	0.00362022	0.00614711	0	0	0	
0.167333	0.0442424	0.0330377	0.00144624	0.0025445	0	0	0	
0.1675	-0.0116512	-0.0153912	0.00111484	0.00147031	0	0	0	
0.167667	-0.0241594	0.0423024	0.00131176	0.000997648	0	0	0	
0.167833	0.0236771	-0.0343997	0.00145565	0.00100018	0	0	0	
0.168	-0.0052885	-0.00167897	0.00111867	0.000974295	0	0	0	
0.168167	-0.0189732	0.0515397	0.000742225	0.00101245	0	0	0	
0.168333	0.0380743	-0.0510668	0.000566071	0.00095728	0	0	0	
0.1685	-0.0378251	0.0210554	0.00070415	0.00105059	0	0	0	
0.168667	-0.134129	-0.111673	0.000799237	0.00111179	0	0	0	
0.168833	0.21334	-0.123558	0.00190335	0.00202768	0	0	0	
0.169	-0.170703	0.172733	0.00338656	0.00331991	0	0	0	
0.169167	0.0484692	-0.0142752	0.00355731	0.00385152	0	0	0	
0.169333	-0.00131905	-0.0637784	0.00241132	0.00309003	0	0	0	
0.1695	0.0022254	0.0466958	0.000764618	0.00183776	0	0	0	
0.169667	-0.0547509	0.013364	0.000444687	0.00116835	0	0	0	
0.169833	-0.0298942	-0.244318	0.00104768	0.00182871	0	0	0	
0.17	-0.0411371	0.111671	0.00213978	0.00307529	0	0	0	
0.170167	-0.00547308	-0.0282505	0.00334151	0.00334055	0	0	0	
0.170333	-0.0577544	-0.0157375	0.00284424	0.0024187	0	0	0	
0.1705	-0.0608379	0.023194	0.00226289	0.000941972	0	0	0	
0.170667	0.086156	-0.0196963	0.00130575	0.000479755	0	0	0	
0.170833	0.0351083	0.00515691	0.0018868	0.000375777	0	0	0	
0.171	-0.0761462	0.0114251	0.0018092	0.000326717	0	0	0	
0.171167	-0.0359654	0.0309875	0.00183889	0.000488803	0	0	0	
0.171333	0.0646284	-0.000808828	0.00129414	0.000835816	0	0	0	
0.1715	-0.0489986	0.0241905	0.00117218	0.000940655	0	0	0	
0.171667	0.0216383	-0.0188787	0.00102705	0.000758773	0	0	0	
0.171833	0.0157872	-0.00543411	0.000901753	0.000518829	0	0	0	
0.172	-0.0167299	0.0211209	0.000637524	0.000458454	0	0	0	
0.172167	-0.0428502	-0.00523765	0.000551829	0.000457502	0	0	0	
0.172333	-0.0251567	0.0321185	0.000574677	0.000701348	0	0	0	
0.1725	0.0490959	0.0212327	0.000665989	0.000764106	0	0	0	
0.172667	0.0367966	-0.026366	0.00113851	0.000764364	0	0	0	
0.172833	-0.130916	0.0227689	0.00153295	0.00050822	0	0	0	
0.173	0.03724	-0.0137088	0.00211705	0.000490751	0	0	0	
0.173167	0.10031	-0.0013591	0.00240354	0.000505123	0	0	0	
0.173333	-0.0399402	0.00729649	0.00222216	0.000419538	0	0	0	
0.1735	-0.0878451	-0.0024444	0.00235211	0.000291399	0	0	0	
0.173667	0.0543225	-0.00367698	0.00176505	0.000186062	0	0	0	
0.173833	0.0419219	0.010433	0.00194987	0.00015917	0	0	0	
0.174	-0.0214479	-0.013312	0.00120383	0.000200704	0	0	0	
0.174167	-0.0448712	0.0115131	0.00123363	0.000229189	0	0	0	
0.174333	0.0331547	-0.00290425	0.000794963	0.000235339	0	0	0	
0.1745	0.0166501	-0.000267046	0.000984907	0.000212341	0	0	0	
0.174667	-0.0264917	0.00206651	0.000731945	0.000156305	0	0	0	
0.174833	0.00843963	0.00414318	0.000641594	0.000160032	0	0	0	
0.175	0.0091087	-0.0150756	0.000446909	0.000218299	0	0	0	
0.175167	-0.0139058	0.0218545	0.000400731	0.000330252	0	0	0	
0.175333	0.00860262	-0.0209024	0.000374833	0.000369375	0	0	0	
0.1755	-0.0129455	0.0137976	0.000330708	0.00038049	0	0	0	
0.175667	0.0241163	-0.00313106	0.000323909	0.00036724	0	0	0	
0.175833	-0.0183533	-0.00204948	0.000365906	0.000312349	0	0	0	
0.176	0.00578622	0.00135941	0.000401505	0.000197691	0	0	0	
0.176167	0.00118715	0.00534339	0.000363224	0.000127781	0	0	0	
0.176333	-0.00375728	-0.0116624	0.000245399	0.000117762	0	0	0	
0.1765	-0.000254518	0.0110887	0.000117982	0.000174867	0	0	0	
0.176667	0.00856748	-0.0103985	7.84602E-05	0.000210761	0	0	0	
0.176833	-0.00405081	0.00815531	0.000101657	0.000199343	0	0	0	
0.177	-0.00393802	-0.00492645	0.000108442	0.000186367	0	0	0	
0.177167	0.00257854	0.0127785	0.000125203	0.000173807	0	0	0	
0.177333	0.00710878	-0.0188519	0.000146744	0.000220431	0	0	0	
0.1775	-0.0208352	0.0142141	0.000225767	0.000270891	0	0	0	
0.177667	0.0241118	-0.00921779	0.000309247	0.000287364	0	0	0	
0.177833	0.000546285	-2.53207E-05	0.000387706	0.000256375	0	0	0	
0.178	-0.0122388	0.00301888	0.000329742	0.000160641	0	0	0	
0.178167	-0.0261216	0.007468	0.000449794	0.000159936	0	0	0	
0.178333	0.0478303	-0.0168658	0.000533807	0.000203048	0	0	0	
0.1785	-0.00158861	0.0148495	0.000788816	0.000301499	0	0	0	
0.178667	-0.0263888	-0.0111494	0.000717666	0.000297741	0	0	0	
0.178833	-0.0118448	0.00377887	0.000713113	0.00023787	0	0	0	
0.179	0.0236304	-0.00246851	0.000541412	0.000165839	0	0	0	
0.179167	0.0121545	0.00458242	0.000520383	0.000118544	0	0	0	
0.179333	-0.00835917	-0.00784358	0.000379567	0.000140726	0	0	0	
0.1795	-0.0242341	0.0130155	0.000480456	0.000189379	0	0	0	
0.179667	0.018835	-0.0126459	0.000436416	0.000224289	0	0	0	
0.179833	-0.000955784	0.00379025	0.000508089	0.000212873	0	0	0	
0.18	0.000510041	-0.0012203	0.000341294	0.000167657	0	0	0	
0.180167	0.00396417	0.00546991	0.000280455	0.000145329	0	0	0	
0.180333	-0.00234144	-0.00999732	0.000149638	0.000174212	0	0	0	
0.1805	-0.0163886	0.0153082	0.00014798	0.000231248	0	0	0	
0.180667	0.0157844	-0.0154594	0.000205104	0.000268628	0	0	0	
0.180833	0.00357056	0.00595632	0.000356632	0.000246534	0	0	0	
0.181	0.00194404	-0.00648869	0.000316469	0.000204729	0	0	0	
0.181167	-0.0248062	0.0100369	0.000330157	0.00015855	0	0	0	
0.181333	0.0242662	-0.0074321	0.000294586	0.000150414	0	0	0	
0.1815	-0.00574599	0.00885273	0.000470275	0.000159918	0	0	0	
0.181667	0.000336151	-0.00888429	0.000438828	0.000160921	0	0	0	
0.181833	-0.00910818	0.00295858	0.000357492	0.000144641	0	0	0	
0.182	0.0130678	-0.00655974	0.000264659	0.000119505	0	0	0	
0.182167	-0.0107025	0.00898153	0.000247269	0.000121577	0	0	0	
0.182333	0.0133843	-0.00914383	0.000251319	0.000154634	0	0	0	
0.1825	-0.0150007	0.0113869	0.000239595	0.000172624	0	0	0	
0.182667	0.00484484	-0.00698709	0.000240773	0.000178016	0	0	0	
0.182833	-0.00163468	0.00752497	0.000223225	0.000165981	0	0	0	
0.183	0.0153842	-0.0105003	0.000237171	0.000154687	0	0	0	
0.183167	-0.0188718	0.00429531	0.000255622	0.000154662	0	0	0	
0.183333	0.0010212	-0.00216105	0.000365813	0.000126758	0	0	0	
0.1835	0.00902187	0.00533917	0.000341281	0.000128708	0	0	0	
0.183667	-0.00307368	-0.0115678	0.000302071	0.000181696	0	0	0	
0.183833	-0.00607733	0.0205127	0.000207367	0.000268266	0	0	0	
0.184	0.0148182	-0.0192871	0.000207461	0.000332555	0	0	0	
0.184167	-0.0260012	0.0132565	0.000297617	0.00033918	0	0	0	
0.184333	0.0304266	-0.0102538	0.000405499	0.000302506	0	0	0	
0.1845	-0.0161877	0.00185423	0.000486999	0.000240355	0	0	0	
0.184667	-0.00235561	0.000888017	0.000497992	0.000155109	0	0	0	
0.184833	0.00466356	0.00389587	0.000386215	0.000135627	0	0	0	
0.185	0.00493695	-0.00972933	0.000299272	0.000194502	0	0	0	
0.185167	-0.0167691	0.0154456	0.000262862	0.000280927	0	0	0	
0.185333	0.0222944	-0.0125707	0.000331093	0.000297511	0	0	0	
0.1855	-0.0168984	0.00719874	0.000378887	0.000256883	0	0	0	
0.185667	0.00718376	-0.00882154	0.000330394	0.000206538	0	0	0	
0.185833	-0.00672241	0.0090708	0.000247095	0.000189725	0	0	0	
0.186	0.0157472	-0.00678089	0.000194292	0.000185053	0	0	0	
0.186167	-0.0187362	0.00671623	0.000233413	0.00017003	0	0	0	
0.186333	0.00699932	-0.00519107	0.000281452	0.000157379	0	0	0	
0.1865	-0.000709875	0.00966028	0.000245308	0.000166811	0	0	0	
0.186667	0.00785197	-0.0128737	0.000184619	0.000206224	0	0	0	
0.186833	-0.013376	0.0105273	0.000154973	0.000234462	0	0	0	
0.187	0.0168719	-0.00824508	0.000228576	0.000229201	0	0	0	
0.187167	-0.02667	0.00488601	0.000344784	0.000186557	0	0	0	
0.187333	0.0220085	0.000828403	0.000425242	0.000133364	0	0	0	
0.1875	0.00396197	0.00212803	0.000470433	8.14749E-05	0	0	0	
0.187667	-0.0134192	-0.00726165	0.000383028	0.000109194	0	0	0	
0.187833	-0.00836554	0.0142526	0.00039267	0.000184987	0	0	0	
0.188	0.024487	-0.014619	0.000450089	0.000257977	0	0	0	
0.188167	-0.0205162	0.0116808	0.000523898	0.000266689	0	0	0	
0.188333	0.0101306	-0.00834853	0.000459238	0.00024458	0	0	0	
0.1885	-0.0063112	0.00377802	0.000295602	0.000212395	0	0	0	
0.188667	0.00972366	-0.000348141	0.000182309	0.000150285	0	0	0	
0.188833	-0.00651517	0.00389449	0.000164132	0.000108695	0	0	0	
0.189	-0.0200708	-0.00799958	0.000273225	0.000103803	0	0	0	
0.189167	0.0278296	0.00630716	0.000359179	0.000134517	0	0	0	
0.189333	0.0175787	-0.000933431	0.000631084	0.000120786	0	0	0	
0.1895	-0.0461328	0.00315714	0.000700714	8.10257E-05	0	0	0	
0.189667	-0.00438848	-0.00797947	0.000939593	7.35261E-05	0	0	0	
0.189833	0.0378755	0.00926901	0.000857589	0.000123083	0	0	0	
0.19	0.0179869	-0.0134245	0.000965065	0.000199133	0	0	0	
0.190167	-0.0475439	0.0158761	0.000817737	0.000263228	0	0	0	
0.190333	-0.00701154	-0.0115333	0.000909804	0.000275108	0	0	0	
0.1905	0.0186156	0.00528341	0.000707387	0.000281119	0	0	0	
0.190667	0.0354837	-0.00173939	0.000752349	0.000242177	0	0	0	
0.190833	-0.0306601	0.00240255	0.000593873	0.000177841	0	0	0	
0.191	-0.0207137	-0.00317018	0.000767587	0.000141092	0	0	0	
0.191167	0.013684	0.0107038	0.000594654	0.000151649	0	0	0	
0.191333	0.0266989	-0.014276	0.000688334	0.000200555	0	0	0	
0.1915	-0.0259166	0.00977133	0.000542049	0.000210159	0	0	0	
0.191667	0.00646517	-0.0086189	0.000573944	0.000221807	0	0	0	
0.191833	-0.00522762	0.00639214	0.000330725	0.000195434	0	0	0	
0.192	0.0126623	-0.00368888	0.00023294	0.000173173	0	0	0	
0.192167	-0.0115653	0.0115333	0.00017932	0.000150134	0	0	0	
0.192333	0.0014886	-0.012967	0.000202858	0.000173166	0	0	0	
0.1925	0.00708081	0.00742432	0.000207504	0.000194684	0	0	0	
0.192667	0.000598274	-0.00739118	0.000153469	0.000188743	0	0	0	
0.192833	-0.0114481	0.00272722	0.000136719	0.000142456	0	0	0	
0.193	0.00797399	-0.000520493	0.000140078	0.000118946	0	0	0	
0.193167	-0.00487788	0.00868487	0.000177549	0.000142622	0	0	0	
0.193333	0.0142641	-0.0122147	0.000227842	0.000222136	0	0	0	
0.1935	-0.0184415	0.0152667	0.000260114	0.000271878	0	0	0	
0.193667	0.00844355	-0.010546	0.000308428	0.000267566	0	0	0	
0.193833	0.00403841	0.000502363	0.000300488	0.000226085	0	0	0	
0.194	-0.00283915	0.00305005	0.000235396	0.000146308	0	0	0	
0.194167	-0.0118924	-0.000243817	0.00023097	0.000123749	0	0	0	
0.194333	0.0125613	-0.00905982	0.000211206	0.000152921	0	0	0	
0.1945	-0.00224181	0.018997	0.000247192	0.000242091	0	0	0	
0.194667	0.0144603	-0.0172225	0.000209516	0.000315041	0	0	0	
0.194833	-0.0253416	0.0184706	0.000268151	0.000345299	0	0	0	
0.195	0.00102091	-0.00925921	0.000305596	0.000346857	0	0	0	
0.195167	0.00961303	-0.00435903	0.000291964	0.000334713	0	0	0	
0.195333	0.0244948	0.00623494	0.000406784	0.000271334	0	0	0	
0.1955	-0.0354611	-0.00456765	0.000472805	0.000226185	0	0	0	
0.195667	0.00295999	-0.00496324	0.000641612	0.000227262	0	0	0	
0.195833	0.00760497	0.0177907	0.000421237	0.000295844	0	0	0	
0.196	0.00960376	-0.0195399	0.000425993	0.000373026	0	0	0	
0.196167	-7.42628E-05	0.0162098	0.000225464	0.000373827	0	0	0	
0.196333	-0.0108939	-0.00761739	0.000293853	0.000323229	0	0	0	
0.1965	-0.00722414	0.00344331	0.000225465	0.000229682	0	0	0	
0.196667	0.0199968	-0.00758412	0.000345077	0.000153469	0	0	0	
0.196833	-0.0123669	0.0110615	0.000337506	0.000154738	0	0	0	
0.197	0.0137274	-0.0142864	0.000318831	0.000202043	0	0	0	
0.197167	-0.0131673	0.0103639	0.000278142	0.000226547	0	0	0	
0.197333	0.000182031	-0.00187869	0.000248322	0.000202066	0	0	0	
0.1975	0.000519978	0.00158727	0.000203582	0.000124968	0	0	0	
0.197667	0.0164932	-0.00711764	0.000223075	0.000111543	0	0	0	
0.197833	-0.0167647	0.00665052	0.000262978	0.000127195	0	0	0	
0.198	-0.00265307	-0.00580481	0.000312184	0.000163358	0	0	0	
0.198167	0.00989994	0.00640896	0.000239424	0.000182099	0	0	0	
0.198333	0.0119672	-0.0180132	0.000332288	0.000236246	0	0	0	
0.1985	-0.02956	0.0206211	0.000378833	0.000294483	0	0	0	
0.198667	-0.00361004	0.0192586	0.000540274	0.000466378	0	0	0	
0.198833	0.0698063	-0.086871	0.000555698	0.000580793	0	0	0	
0.199	-0.201833	0.19947	0.00163244	0.00196843	0	0	0	
0.199167	0.0320013	-0.0206445	0.00223378	0.00246037	0	0	0	
0.199333	-0.0155819	-0.0328349	0.00214722	0.00293312	0	0	0	
0.1995	0.0159584	0.0226011	0.00104374	0.00171812	0	0	0	
0.199667	-0.00899489	-0.00441087	0.000395158	0.00109188	0	0	0	
0.199833	-0.0405784	-0.00424814	0.000527574	0.000674851	0	0	0	
0.2	0.0346404	-0.0483349	0.000883848	0.000785732	0	0	0	
0.200167	-0.0355604	0.0647715	0.00107639	0.00101175	0	0	0	
0.200333	0.03953	-0.028009	0.00105004	0.00108411	0	0	0	
0.2005	-0.0164651	-0.00890956	0.000783154	0.00111612	0	0	0	
0.200667	-0.0144771	0.0215255	0.000614172	0.000945598	0	0	0	
0.200833	0.0183588	-0.000992477	0.000479295	0.000716442	0	0	0	
0.201	0.00296937	-0.031579	0.000422636	0.000488839	0	0	0	
0.201167	-0.0142745	0.0403155	0.000373536	0.000537886	0	0	0	
0.201333	0.00775785	-0.020168	0.00033685	0.000600331	0	0	0	
0.2015	0.000571915	0.00678173	0.000268435	0.0006409	0	0	0	
0.201667	-0.00693453	0.0114936	0.000184784	0.000564009	0	0	0	
0.201833	0.0101623	-0.00893292	0.00017757	0.000427076	0	0	0	
0.202	-0.00613711	-0.0124891	0.000175228	0.000334542	0	0	0	
0.202167	-0.00338339	0.027626	0.000295311	0.000392869	0	0	0	
0.202333	0.0186912	-0.0282863	0.000421134	0.000513357	0	0	0	
0.2025	-0.0211928	0.0185011	0.000467864	0.00051693	0	0	0	
0.202667	0.0066326	-0.000515946	0.000394997	0.000435165	0	0	0	
0.202833	0.00363129	-0.0078913	0.000302743	0.000320421	0	0	0	
0.203	-0.00454032	0.00662238	0.000219272	0.000216636	0	0	0	
0.203167	0.0027881	-0.00068444	0.00013988	0.000212336	0	0	0	
0.203333	0.00238707	-0.0097099	0.000107837	0.000295322	0	0	0	
0.2035	-0.0087758	0.0139665	0.000118304	0.000365862	0	0	0	
0.203667	0.0131473	-0.0117955	0.000167209	0.000348726	0	0	0	
0.203833	-0.00739019	0.00415996	0.000193028	0.000248606	0	0	0	
0.204	0.00438016	-0.000670443	0.000179492	0.000149519	0	0	0	
0.204167	-0.00958935	0.00411143	0.000155697	9.13014E-05	0	0	0	
0.204333	0.00862538	-0.0115929	0.000149843	0.00010074	0	0	0	
0.2045	0.00108115	0.0117198	0.000150533	0.000177209	0	0	0	
0.204667	-0.000971635	-0.0140451	0.000237629	0.000233478	0	0	0	
0.204833	-0.00993892	0.00575612	0.000367524	0.000227547	0	0	0	
0.205	0.0103185	0.00350249	0.000424436	0.000181453	0	0	0	
0.205167	0.000252523	-0.00634716	0.000326719	0.00012241	0	0	0	
0.205333	-0.00161067	0.00183971	0.000217742	0.000157913	0	0	0	
0.2055	-0.00839871	0.00507012	0.000307932	0.000288732	0	0	0	
0.205667	0.0143126	-0.0194112	0.000417455	0.000446623	0	0	0	
0.205833	-0.00521221	0.0188607	0.000430011	0.000511593	0	0	0	
0.206	0.00141077	-0.0112615	0.000303341	0.000427946	0	0	0	
0.206167	-0.00497665	0.00300217	0.000207111	0.000295264	0	0	0	
0.206333	0.00446722	0.00224706	0.000134432	0.000168238	0	0	0	
0.2065	0.00864624	-0.00153719	0.000165626	0.000102588	0	0	0	
0.206667	-0.0173889	0.000569057	0.000196511	9.6538E-05	0	0	0	
0.206833	-0.00872952	-0.00417824	0.000422887	0.000116837	0	0	0	
0.207	0.026221	0.00292656	0.000571238	0.00013176	0	0	0	
0.207167	-0.00137317	-0.000564427	0.000563555	0.000122503	0	0	0	
0.207333	-0.000613908	-0.00239275	0.000359269	0.000128036	0	0	0	
0.2075	-0.051596	0.00998091	0.000584517	0.00016274	0	0	0	
0.207667	0.0770741	-0.0150928	0.00103264	0.000238724	0	0	0	
0.207833	-0.0563661	0.0232316	0.00136068	0.00033655	0	0	0	
0.208	0.0133493	-0.0265828	0.00128212	0.000393244	0	0	0	
0.208167	-0.00920484	0.011096	0.000988794	0.000400445	0	0	0	
0.208333	-0.0187779	0.00121963	0.000813113	0.000319303	0	0	0	
0.2085	0.0840008	-0.00105245	0.000687199	0.000191531	0	0	0	
0.208667	-0.11137	0.00148773	0.00127327	0.000134539	0	0	0	
0.208833	-0.00144801	-0.000756007	0.00200093	0.000149052	0	0	0	
0.209	0.0806027	-0.00139567	0.00250589	0.000237043	0	0	0	
0.209167	-0.0634808	0.00172105	0.00215873	0.000270074	0	0	0	
0.209333	0.0149421	-0.00479468	0.00145799	0.000252757	0	0	0	
0.2095	0.00309177	0.00500256	0.000820275	0.000194929	0	0	0	
0.209667	-0.0213164	-0.00401189	0.000569843	0.000142739	0	0	0	
0.209833	0.0229516	0.00311494	0.00059072	0.00013591	0	0	0	
0.21	-0.000501004	-0.00737576	0.000547392	0.000159436	0	0	0	
0.210167	-0.0195595	0.00719227	0.000427295	0.000184159	0	0	0	
0.210333	0.0248407	-0.00580846	0.000353128	0.00017142	0	0	0	
0.2105	-0.000804969	0.00246674	0.000421801	0.000136546	0	0	0	
0.210667	-0.00628476	0.000885545	0.000364482	7.87686E-05	0	0	0	
0.210833	0.00054372	-0.00220869	0.000264724	7.84856E-05	0	0	0	
0.211	0.010371	-0.000422282	0.00021165	0.000136626	0	0	0	
0.211167	-0.00460529	0.00205125	0.000343164	0.000217877	0	0	0	
0.211333	0.0150972	-0.00559224	0.000461431	0.000250344	0	0	0	
0.2115	-0.011428	0.0062351	0.000509768	0.000218651	0	0	0	
0.211667	0.00418597	-0.00581454	0.000408222	0.000164891	0	0	0	
0.211833	-0.0104423	0.00534843	0.000324415	0.000123524	0	0	0	
0.212	0.0178957	-0.00285137	0.000352612	0.000108441	0	0	0	
0.212167	-0.0025495	0.00351096	0.000372244	0.000109392	0	0	0	
0.212333	-0.0107238	-0.00439371	0.000347524	0.00012878	0	0	0	
0.2125	0.0153529	0.00356674	0.000257248	0.000137074	0	0	0	
0.212667	-0.00511879	-0.00252891	0.000265573	0.000121754	0	0	0	
0.212833	-0.00336099	0.00200223	0.000271121	8.91572E-05	0	0	0	
0.213	0.00735959	-0.00483501	0.000266769	9.07061E-05	0	0	0	
0.213167	-0.00340411	0.00875638	0.000229979	0.000140845	0	0	0	
0.213333	-0.00911967	-0.00927404	0.000183835	0.000208557	0	0	0	
0.2135	0.014211	0.00944238	0.000209342	0.000246214	0	0	0	
0.213667	-0.0123425	-0.00626816	0.000245175	0.000220519	0	0	0	
0.213833	0.0108724	0.000450046	0.000263929	0.000159843	0	0	0	
0.214	0.0264496	0.00471231	0.000411317	9.9777E-05	0	0	0	
0.214167	-0.045824	0.000713665	0.000673937	8.70393E-05	0	0	0	
0.214333	0.0219465	-0.00501863	0.000792637	0.000138526	0	0	0	
0.2145	0.0103385	0.00754715	0.000819709	0.000177985	0	0	0	
0.214667	-0.00879631	-0.00404633	0.000662049	0.000182578	0	0	0	
0.214833	0.00904862	0.00548674	0.000543738	0.000132873	0	0	0	
0.215	-0.0141525	-0.00798978	0.000326044	0.000105669	0	0	0	
0.215167	0.0162083	0.0129663	0.000361396	0.00015136	0	0	0	
0.215333	0.0130793	-0.00739941	0.000599579	0.000195977	0	0	0	
0.2155	-0.0300949	0.00427311	0.000700181	0.000194658	0	0	0	
0.215667	0.0184068	-6.82064E-05	0.000626744	0.000125344	0	0	0	
0.215833	0.00110688	-0.00199959	0.000434241	5.64549E-05	0	0	0	
0.216	-0.00846675	-0.000384917	0.00030768	6.18157E-05	0	0	0	
0.216167	0.00114675	0.011767	0.000231913	0.000133861	0	0	0	
0.216333	0.00964935	-0.0190633	0.000280199	0.000254965	0	0	0	
0.2165	-0.0229136	0.019593	0.00039651	0.000338649	0	0	0	
0.216667	0.0212448	-0.0137729	0.000453664	0.000361857	0	0	0	
0.216833	-0.0093704	0.00517149	0.000389956	0.000299259	0	0	0	
0.217	0.000125781	0.000847368	0.000268148	0.000203861	0	0	0	
0.217167	-0.00264204	0.000593256	0.000155951	0.00010114	0	0	0	
0.217333	0.00846663	-0.00521329	9.12736E-05	6.02925E-05	0	0	0	
0.2175	-0.000688611	0.00281947	0.000108175	8.70786E-05	0	0	0	
0.217667	-0.0069957	-0.0035728	0.000115703	0.000134521	0	0	0	
0.217833	0.00500257	0.00462644	0.000123171	0.000180287	0	0	0	
0.218	-0.0022807	-0.00540677	0.000134565	0.000181989	0	0	0	
0.218167	-0.00128446	0.00613285	0.000161123	0.000167975	0	0	0	
0.218333	0.011403	-0.00701229	0.000177757	0.00013709	0	0	0	
0.2185	-0.0151716	0.00421005	0.00019907	0.000120695	0	0	0	
0.218667	0.00804772	0.00100274	0.000217521	9.85267E-05	0	0	0	
0.218833	0.00414865	-0.0016105	0.000234737	6.79354E-05	0	0	0	
0.219	-0.00927368	0.00223605	0.000213986	6.24059E-05	0	0	0	
0.219167	0.00559928	0.00185096	0.000177781	9.28624E-05	0	0	0	
0.219333	0.00328522	-0.00573154	0.000146264	0.000126616	0	0	0	
0.2195	-0.00981661	0.00807074	0.000142793	0.000130124	0	0	0	
0.219667	0.00711585	-0.00524308	0.000151087	0.00012893	0	0	0	
0.219833	-0.00363907	0.0034005	0.000164068	0.000115248	0	0	0	
0.22	0.00333614	0.00106673	0.000155534	9.77196E-05	0	0	0	
0.220167	-0.00392068	0.000670634	0.000138823	7.15233E-05	0	0	0	
0.220333	0.0061444	-0.00237654	0.00013476	6.66272E-05	0	0	0	
0.2205	-0.00334223	0.00431273	0.000123478	7.67219E-05	0	0	0	
0.220667	0.00464911	-0.00431871	0.000109309	0.000103318	0	0	0	
0.220833	-0.0117781	0.00569384	0.000120824	0.000124014	0	0	0	
0.221	0.0126309	-0.0052848	0.000186212	0.000137694	0	0	0	
0.221167	-0.00260611	0.00348941	0.000231015	0.000116073	0	0	0	
0.221333	-0.0015734	-0.00182375	0.000176858	8.85032E-05	0	0	0	
0.2215	0.000186082	0.00046151	9.58751E-05	5.56316E-05	0	0	0	
0.221667	0.0042703	-0.00020233	9.57081E-05	4.48744E-05	0	0	0	
0.221833	-0.00527753	-0.00042916	0.000164961	6.68121E-05	0	0	0	
0.222	0.00895372	-0.00624917	0.000220585	0.000113367	0	0	0	
0.222167	-0.00591839	0.00684709	0.000248717	0.000160379	0	0	0	
0.222333	0.00494249	-0.00457073	0.000220867	0.00016208	0	0	0	
0.2225	-0.00065123	0.0015053	0.000160968	0.000122297	0	0	0	
0.222667	-0.00368069	-0.00121531	8.31835E-05	6.76993E-05	0	0	0	
0.222833	0.000875593	0.00246685	0.000116896	5.7202E-05	0	0	0	
0.223	0.00603356	-0.00608225	0.000209029	8.13854E-05	0	0	0	
0.223167	-0.000623592	0.0049017	0.000257458	0.000134599	0	0	0	
0.223333	-0.00125528	-0.00365478	0.000189609	0.000148389	0	0	0	
0.2235	-0.00177284	0.00255462	9.18534E-05	0.000127465	0	0	0	
0.223667	0.00180633	-0.00105868	4.80557E-05	7.77043E-05	0	0	0	
0.223833	0.00217135	0.00378094	4.42401E-05	5.75028E-05	0	0	0	
0.224	-0.00145529	-0.00416617	6.66643E-05	8.58811E-05	0	0	0	
0.224167	-0.0025322	0.00512349	0.000109851	0.000125929	0	0	0	
0.224333	0.00685821	-0.00542954	0.000135078	0.000144165	0	0	0	
0.2245	-0.00194755	0.00310297	0.000129903	0.000125695	0	0	0	
0.224667	0.000522641	-0.00139612	8.59813E-05	8.79133E-05	0	0	0	
0.224833	-0.00882531	0.00165213	0.000100753	6.32245E-05	0	0	0	
0.225	0.00793676	-0.00337771	0.000151877	7.43731E-05	0	0	0	
0.225167	0.00249696	0.00460706	0.000161759	0.000119016	0	0	0	
0.225333	-0.00424224	-0.00565947	0.000129138	0.00016336	0	0	0	
0.2255	0.00227557	0.00447526	9.5679E-05	0.000171268	0	0	0	
0.225667	0.000707542	-0.00292761	0.000109774	0.000134231	0	0	0	
0.225833	-0.000812428	0.000522038	0.000107834	8.33132E-05	0	0	0	
0.226	0.00130018	-0.0022125	7.10777E-05	4.82108E-05	0	0	0	
0.226167	0.00167378	0.00455603	5.15689E-05	7.02715E-05	0	0	0	
0.226333	0.000771175	-0.00496832	8.45978E-05	0.000120106	0	0	0	
0.2265	-0.000654889	0.0041516	0.000123216	0.000151184	0	0	0	
0.226667	-0.00222778	-0.00272979	0.000131629	0.000133055	0	0	0	
0.226833	-0.00834739	0.0035929	0.000173729	9.36703E-05	0	0	0	
0.227	0.041474	-0.00412741	0.00028116	7.20841E-05	0	0	0	
0.227167	-0.044623	0.00316147	0.000544021	7.77987E-05	0	0	0	
0.227333	0.0102463	0.00349611	0.000698561	7.61837E-05	0	0	0	
0.2275	0.0149908	-0.00217602	0.000720354	8.69989E-05	0	0	0	
0.227667	-0.0106739	2.81818E-05	0.000499989	8.97049E-05	0	0	0	
0.227833	0.000884672	-2.51076E-05	0.000305844	8.92112E-05	0	0	0	
0.228	0.00029457	-0.00283306	0.000139497	9.67257E-05	0	0	0	
0.228167	2.65616E-05	0.0147848	8.78291E-05	0.000145353	0	0	0	
0.228333	0.00475774	-0.0173016	0.000176698	0.000244809	0	0	0	
0.2285	-0.0324697	0.00881768	0.000448613	0.000280321	0	0	0	
0.228667	0.0510662	0.00173579	0.000682986	0.000264634	0	0	0	
0.228833	-0.022038	-0.00401458	0.000786152	0.000166523	0	0	0	
0.229	-0.00270301	-0.00131401	0.000666751	0.00011894	0	0	0	
0.229167	-0.0433559	0.00387921	0.00052627	7.22727E-05	0	0	0	
0.229333	0.0909755	-0.00428212	0.000835391	0.000101533	0	0	0	
0.2295	-0.0627212	0.00584563	0.00112799	0.000124558	0	0	0	
0.229667	0.0107098	-0.00922256	0.00154939	0.000159607	0	0	0	
0.229833	0.027637	-0.00114199	0.00151785	0.000224078	0	0	0	
0.23	-0.0170227	0.00877824	0.00123337	0.000243874	0	0	0	
0.230167	0.00362334	-0.00112939	0.000767065	0.000249877	0	0	0	
0.230333	-0.0478584	-0.0114955	0.000436463	0.000264495	0	0	0	
0.2305	0.0364952	0.0147855	0.000821104	0.000301806	0	0	0	
0.230667	0.0664626	-0.0159622	0.00160311	0.000320735	0	0	0	
0.230833	-0.107338	0.0147203	0.00203032	0.000279093	0	0	0	
0.231	0.0477021	-0.00598458	0.00197046	0.00023165	0	0	0	
0.231167	-0.000363663	0.00170286	0.00138599	0.000175451	0	0	0	
0.231333	0.014555	-0.00683312	0.00081656	0.00013023	0	0	0	
0.2315	-0.0302807	0.0128448	0.000491652	0.000142449	0	0	0	
0.231667	-0.00242066	-0.0103747	0.000471389	0.000191941	0	0	0	
0.231833	0.0117212	0.00414436	0.000666269	0.000196437	0	0	0	
0.232	-0.0160895	0.00141885	0.000684676	0.000144918	0	0	0	
0.232167	0.0158573	-0.00255031	0.000532577	9.01077E-05	0	0	0	
0.232333	0.00129468	-0.000247878	0.000429861	8.70916E-05	0	0	0	
0.2325	-0.0247163	0.00680709	0.00050201	0.000141003	0	0	0	
0.232667	0.0238645	-0.0116215	0.000643995	0.00019988	0	0	0	
0.232833	-0.0270848	0.00726695	0.000665684	0.000221531	0	0	0	
0.233	0.0171419	-0.00310928	0.000588054	0.000185905	0	0	0	
0.233167	-0.0123869	-0.000374871	0.000474596	0.000113099	0	0	0	
0.233333	0.00246942	0.000777023	0.000348302	6.63179E-05	0	0	0	
0.2335	0.00339769	0.00308105	0.000174942	6.24456E-05	0	0	0	
0.233667	-0.000135219	-0.0111813	0.000152203	0.000125554	0	0	0	
0.233833	-0.00353633	0.00896013	0.000235645	0.000210686	0	0	0	
0.234	-0.00468574	-0.0119646	0.000309438	0.000251237	0	0	0	
0.234167	0.0112183	0.00555104	0.000290664	0.000228367	0	0	0	
0.234333	-0.0123398	0.000745722	0.000252124	0.000155905	0	0	0	
0.2345	-0.00193374	-0.0026356	0.000312369	8.39708E-05	0	0	0	
0.234667	0.0324431	-0.000293219	0.000494934	8.31913E-05	0	0	0	
0.234833	-0.0181013	-0.00475127	0.000568457	0.000135505	0	0	0	
0.235	-0.0280948	-0.000904931	0.000618866	0.000220251	0	0	0	
0.235167	0.0434949	0.000191771	0.000545954	0.000273668	0	0	0	
0.235333	-0.0161277	-0.00382973	0.000783024	0.000257869	0	0	0	
0.2355	-0.00472944	0.00164353	0.000789263	0.000180213	0	0	0	
0.235667	-0.00104052	0.00436336	0.000649987	9.30258E-05	0	0	0	
0.235833	-0.011633	-0.00725377	0.000441508	9.27676E-05	0	0	0	
0.236	0.0239026	-0.00161087	0.000354232	0.000157628	0	0	0	
0.236167	0.0161629	0.00139752	0.000555288	0.000181933	0	0	0	
0.236333	-0.0553251	-0.00160197	0.000714881	0.000123836	0	0	0	
0.2365	0.0284807	0.000719333	0.000839155	5.07362E-05	0	0	0	
0.236667	-0.000932748	0.00178236	0.000726744	2.57861E-05	0	0	0	
0.236833	-0.00955812	-0.00545416	0.000487999	4.3228E-05	0	0	0	
0.237	0.00678772	0.00414106	0.000312298	7.18451E-05	0	0	0	
0.237167	-0.00198143	-0.00122853	0.000207887	0.000129914	0	0	0	
0.237333	-0.00508248	-0.00273613	0.000124406	0.000191222	0	0	0	
0.2375	-0.00117193	0.00297422	0.000111179	0.000212418	0	0	0	
0.237667	0.00747621	-0.00360062	0.000122329	0.000169599	0	0	0	
0.237833	-0.00719642	0.00329111	0.000142138	9.95445E-05	0	0	0	
0.238	0.00640592	-0.00391214	0.000141861	8.05967E-05	0	0	0	
0.238167	-0.000700765	0.000504598	0.00013063	9.56695E-05	0	0	0	
0.238333	-0.00369633	-0.00441003	0.000108144	0.000123559	0	0	0	
0.2385	0.00784447	0.00502316	0.000104972	0.000127774	0	0	0	
0.238667	-0.00399307	-0.00296912	0.000105996	0.000109486	0	0	0	
0.238833	0.00349887	0.000546421	0.000110407	7.59335E-05	0	0	0	
0.239	0.000705068	-0.000937528	8.45464E-05	6.11124E-05	0	0	0	
0.239167	-0.00685466	0.00132822	0.000101505	9.71112E-05	0	0	0	
0.239333	0.00752585	-0.00667119	0.000128859	0.000153609	0	0	0	
0.2395	-0.00080714	0.00604037	0.000174397	0.000194169	0	0	0	
0.239667	-0.000420603	-0.00374658	0.000205543	0.000169047	0	0	0	
0.239833	-0.00219044	0.000383696	0.000183742	0.000113368	0	0	0	
0.24	0.00390333	0.00147511	0.000142867	5.3828E-05	0	0	0	
0.240167	-0.00200838	-0.000138521	9.98365E-05	4.91893E-05	0	0	0	
0.240333	-0.000418373	-0.00284285	9.55736E-05	0.000101406	0	0	0	
0.2405	-0.0156091	0.00544903	0.000158123	0.000170605	0	0	0	
0.240667	0.0232886	-0.00571013	0.000250026	0.000199195	0	0	0	
0.240833	-0.0105646	0.00281556	0.000323469	0.000164918	0	0	0	
0.241	-0.00355415	-0.000941358	0.000303922	0.000104299	0	0	0	
0.241167	0.00857594	0.00295879	0.000196323	7.03867E-05	0	0	0	
0.241333	-0.00704384	-0.00672319	0.000211255	9.07329E-05	0	0	0	
0.2415	-0.0111239	0.00655206	0.000305975	0.000136036	0	0	0	
0.241667	0.0160856	-0.003502	0.000411646	0.000148136	0	0	0	
0.241833	-0.00744138	-0.00120112	0.000370573	0.000107989	0	0	0	
0.242	0.00200986	0.00301544	0.000234401	5.93481E-05	0	0	0	
0.242167	0.000737182	7.67672E-05	0.000119466	4.88909E-05	0	0	0	
0.242333	-0.00789178	-0.00745184	9.92937E-05	8.90347E-05	0	0	0	
0.2425	0.0122534	0.00422134	0.000135528	0.000160776	0	0	0	
0.242667	-0.00458625	-0.00737518	0.000195614	0.00019521	0	0	0	
0.242833	-0.00716635	0.00485655	0.000265141	0.000189281	0	0	0	
0.243	0.00881424	-0.0015961	0.000263219	0.000123656	0	0	0	
0.243167	-0.00371278	-0.000226613	0.000224136	7.34293E-05	0	0	0	
0.243333	-0.000463231	-0.00373244	0.000144579	6.86141E-05	0	0	0	
0.2435	0.00213849	0.00410111	0.000111161	0.000131487	0	0	0	
0.243667	0.00104719	-0.0080583	9.8025E-05	0.000203575	0	0	0	
0.243833	-0.0123197	0.00797552	0.000162264	0.000226694	0	0	0	
0.244	0.0104119	-0.0028407	0.000242658	0.000178968	0	0	0	
0.244167	-0.000594235	-0.00185624	0.000243486	0.000114699	0	0	0	
0.244333	-0.0017279	0.00440286	0.000159484	7.08461E-05	0	0	0	
0.2445	-0.0119054	-0.0054127	0.000198287	9.61322E-05	0	0	0	
0.244667	0.00786714	-0.0020422	0.000300598	0.000177784	0	0	0	
0.244833	0.00964186	0.00593798	0.000317982	0.000263534	0	0	0	
0.245	-0.026341	-0.00621327	0.000310626	0.00028487	0	0	0	
0.245167	0.0101209	0.00456692	0.000332012	0.000216461	0	0	0	
0.245333	0.0036016	0.000201165	0.000401247	0.000130456	0	0	0	
0.2455	-0.0183444	-0.0026956	0.000365262	5.69578E-05	0	0	0	
0.245667	0.00750247	0.00283018	0.000341423	9.12631E-05	0	0	0	
0.245833	0.00747766	-0.00147517	0.000261429	0.000175839	0	0	0	
0.246	-0.00816671	-0.00459949	0.000215537	0.000276491	0	0	0	
0.246167	0.000683435	0.00478569	0.000117996	0.000284331	0	0	0	
0.246333	-0.00420979	-0.00298292	0.000103189	0.000207363	0	0	0	
0.2465	0.00445122	-0.000926901	9.56361E-05	0.000110741	0	0	0	
0.246667	0.0080623	0.00459772	0.000322789	6.20464E-05	0	0	0	
0.246833	-0.0230454	-0.00582109	0.000529313	9.32971E-05	0	0	0	
0.247	0.00966275	-2.62258E-05	0.000609016	0.000153738	0	0	0	
0.247167	0.0217811	0.00298779	0.000550245	0.000201376	0	0	0	
0.247333	-0.0167724	-0.00158078	0.000435233	0.000178273	0	0	0	
0.2475	-0.00366797	-0.00151064	0.000454622	0.000118207	0	0	0	
0.247667	-0.00137628	-0.0032753	0.000323443	8.71246E-05	0	0	0	
0.247833	0.017482	0.000852272	0.000342047	0.000147886	0	0	0	
0.248	-0.0393714	-0.00601045	0.000371419	0.000243405	0	0	0	
0.248167	0.0267736	0.0042856	0.000571983	0.000301105	0	0	0	
0.248333	-0.00193057	0.005496	0.000825369	0.00026842	0	0	0	
0.2485	0.00850221	-0.00673141	0.000795219	0.000230894	0	0	0	
0.248667	-0.0146925	-0.0243134	0.000709541	0.000373288	0	0	0	
0.248833	-0.0530041	0.0865533	0.00107545	0.000633702	0	0	0	
0.249	0.274908	-0.204468	0.00206867	0.00202287	0	0	0	
0.249167	-0.0767955	0.0248802	0.00291815	0.00248163	0	0	0	
0.249333	-0.0392655	0.0403054	0.00288133	0.00290179	0	0	0	
0.2495	0.0158589	-0.0203068	0.00185302	0.0017154	0	0	0	
0.249667	0.0359382	0.00330877	0.00105139	0.00108	0	0	0	
0.249833	0.0734725	-0.000420757	0.000738625	0.000588802	0	0	0	
0.25	-0.106968	0.0526218	0.00153512	0.000647257	0	0	0	
0.250167	0.0709068	-0.0572697	0.00181539	0.000884832	0	0	0	
0.250333	-0.0253274	0.0195902	0.00177902	0.00108644	0	0	0	
0.2505	0.00382439	0.0344117	0.00119209	0.00126107	0	0	0	
0.250667	0.0210575	-0.0459278	0.00102857	0.00123487	0	0	0	
0.250833	-0.0382432	0.01806	0.000951425	0.00102064	0	0	0	
0.251	0.0209735	0.0198711	0.000794882	0.000790934	0	0	0	
0.251167	-0.000436619	-0.0345683	0.000563682	0.000662848	0	0	0	
0.251333	-0.00382578	0.0152548	0.00029452	0.000646315	0	0	0	
0.2515	0.00193542	0.0107874	0.000229937	0.000686216	0	0	0	
0.251667	0.0051883	-0.0280787	0.000253579	0.000789629	0	0	0	
0.251833	-0.0142369	0.0285283	0.000330144	0.000732088	0	0	0	
0.252	0.0151926	-0.00691012	0.000321807	0.000539716	0	0	0	
0.252167	-0.00521313	-0.0132939	0.000319875	0.000421069	0	0	0	
0.252333	-0.0144967	0.0191729	0.000326304	0.000351146	0	0	0	
0.2525	0.0260055	-0.0131582	0.000365159	0.00039752	0	0	0	
0.252667	-0.0172154	-0.00960232	0.000391823	0.000491534	0	0	0	
0.252833	0.00459707	0.0219883	0.000402599	0.000584978	0	0	0	
0.253	0.00710151	-0.0203969	0.000354866	0.0005632	0	0	0	
0.253167	-0.0156716	0.0122499	0.000285174	0.000437039	0	0	0	
0.253333	0.00749264	2.3036E-05	0.000255284	0.000325247	0	0	0	
0.2535	0.00345461	-0.00396997	0.000193181	0.000192141	0	0	0	
0.253667	0.00771869	-0.00231102	0.000152236	0.000143032	0	0	0	
0.253833	-0.00689766	-0.00160288	0.000146953	0.00010615	0	0	0	
0.254	-0.0218756	0.00563617	0.000306943	0.000115703	0	0	0	
0.254167	0.0168226	-0.00646546	0.000386226	0.000122959	0	0	0	
0.254333	0.028544	-0.00118866	0.000698425	0.000168803	0	0	0	
0.2545	-0.0306726	0.00161051	0.000695351	0.00021523	0	0	0	
0.254667	-0.0100791	0.00146907	0.000822139	0.000215485	0	0	0	
0.254833	0.0166993	-3.41548E-05	0.000530387	0.000225309	0	0	0	
0.255	0.0083304	-0.00787857	0.000526864	0.000264133	0	0	0	
0.255167	-0.0103887	0.00700298	0.000353424	0.000285818	0	0	0	
0.255333	0.000206029	-0.00575247	0.000293977	0.000226859	0	0	0	
0.2555	-0.00621228	-0.00217181	0.000189564	0.000137077	0	0	0	
0.255667	0.0145617	0.00555325	0.00018854	9.11558E-05	0	0	0	
0.255833	-0.00683019	-0.00525415	0.000226369	0.000132489	0	0	0	
0.256	-0.0097813	-0.000137055	0.000185017	0.00020122	0	0	0	
0.256167	0.0136571	0.00334775	0.000219653	0.000247152	0	0	0	
0.256333	0.00708716	-0.0076179	0.000391397	0.000227776	0	0	0	
0.2565	-0.0247488	0.00366219	0.000562487	0.000174304	0	0	0	
0.256667	0.0127968	0.00403097	0.000544837	0.000123358	0	0	0	
0.256833	0.0106973	-0.00881735	0.000430027	0.000104085	0	0	0	
0.257	-0.0183032	0.00873335	0.000311253	0.000131465	0	0	0	
0.257167	0.0148038	-0.00543921	0.000331251	0.00020588	0	0	0	
0.257333	-0.00685826	-0.00195357	0.000336232	0.000298891	0	0	0	
0.2575	-0.00753659	0.00804681	0.000412568	0.00035849	0	0	0	
0.257667	0.0159213	-0.0116189	0.000399546	0.000339817	0	0	0	
0.257833	-0.0107476	0.00769129	0.000345459	0.000260758	0	0	0	
0.258	0.00675085	0.00175981	0.000247054	0.000162061	0	0	0	
0.258167	-0.00373262	-0.00466941	0.000175774	9.25345E-05	0	0	0	
0.258333	-0.0046516	0.0064553	0.000117345	8.81113E-05	0	0	0	
0.2585	0.0142931	-0.00705025	0.000117822	0.000134473	0	0	0	
0.258667	-0.0207101	0.00191532	0.000185955	0.000207733	0	0	0	
0.258833	0.0162897	0.00325418	0.000324071	0.000272361	0	0	0	
0.259	-0.00471802	-0.00845805	0.000441652	0.000317354	0	0	0	
0.259167	-0.0029147	0.0138086	0.000492101	0.000316376	0	0	0	
0.259333	0.00482242	-0.00847329	0.000430572	0.00025849	0	0	0	
0.2595	-0.00443811	-0.000790311	0.000282032	0.000195398	0	0	0	
0.259667	0.00165285	0.00757637	0.000176845	0.000155775	0	0	0	
0.259833	0.0087719	-0.0107073	0.000185341	0.000155828	0	0	0	
0.26	-0.0223	0.0091773	0.000260114	0.000184342	0	0	0	
0.260167	0.0186499	-0.00103679	0.000339671	0.000251292	0	0	0	
0.260333	0.000760853	-0.0071604	0.000400578	0.000305198	0	0	0	
0.2605	-0.0106509	0.007605	0.000381391	0.000285123	0	0	0	
0.260667	-0.00226702	0.00151661	0.000343292	0.000202633	0	0	0	
0.260833	0.0201729	-0.0096769	0.000288391	0.000133155	0	0	0	
0.261	-0.014165	0.00479014	0.000321434	0.000167688	0	0	0	
0.261167	-0.00890773	0.00597581	0.000393149	0.000245672	0	0	0	
0.261333	0.00142037	-4.16402E-05	0.000305802	0.000228439	0	0	0	
0.2615	0.0343464	-0.0243827	0.000335263	0.000192052	0	0	0	
0.261667	-0.216381	0.0470649	0.000800577	0.000548283	0	0	0	
0.261833	0.135835	-0.130898	0.00313037	0.00238125	0	0	0	
0.262	-0.0724554	-0.0163407	0.0034869	0.00263251	0	0	0	
0.262167	0.00701368	0.091627	0.00359874	0.00253597	0	0	0	
0.262333	0.106148	-0.0853987	0.0022245	0.00127224	0	0	0	
0.2625	-0.180349	0.061523	0.00256917	0.00144103	0	0	0	
0.262667	0.0630487	0.0205012	0.00281647	0.00163893	0	0	0	
0.262833	-0.0941531	-0.0753603	0.00369775	0.0024599	0	0	0	
0.263	-0.0750479	0.0417386	0.00433452	0.0030566	0	0	0	
0.263167	0.142384	-0.0676899	0.00408787	0.00287934	0	0	0	
0.263333	-0.150151	0.0581142	0.00308113	0.00248052	0	0	0	
0.2635	0.0581642	0.0668807	0.00293021	0.00261196	0	0	0	
0.263667	0.10054	-0.134416	0.0042821	0.00323674	0	0	0	
0.263833	-0.172596	0.114005	0.00515972	0.00295575	0	0	0	
0.264	0.128834	-0.0479451	0.00458861	0.00254839	0	0	0	
0.264167	-0.0316442	-0.0665525	0.00354211	0.00264852	0	0	0	
0.264333	-0.0887852	0.157882	0.00303317	0.00277169	0	0	0	
0.2645	0.178804	-0.13936	0.00325339	0.00283204	0	0	0	
0.264667	-0.170198	0.0356414	0.00323457	0.00285368	0	0	0	
0.264833	0.0388314	0.0949328	0.00335031	0.00328132	0	0	0	
0.265	0.119034	-0.153111	0.00392633	0.00326795	0	0	0	
0.265167	-0.155427	0.0849785	0.00383404	0.00291078	0	0	0	
0.265333	0.0543904	0.0451136	0.00324083	0.00275811	0	0	0	
0.2655	0.0451499	-0.140264	0.00252003	0.00284987	0	0	0	
0.265667	-0.0669003	0.139457	0.00204441	0.00286108	0	0	0	
0.265833	0.0701324	-0.0423214	0.00168967	0.00269206	0	0	0	
0.266	-0.067867	-0.0723108	0.00131735	0.00290067	0	0	0	
0.266167	0.00595747	0.122332	0.00147289	0.00287079	0	0	0	
0.266333	0.0743952	-0.0809518	0.00170168	0.00251322	0	0	0	
0.2665	-0.0527919	-0.0041664	0.00159778	0.002105	0	0	0	
0.266667	-0.0389577	0.0635499	0.00154359	0.00193728	0	0	0	
0.266833	0.0376848	-0.0708547	0.00112751	0.00172622	0	0	0	
0.267	0.0599105	0.0329496	0.00139472	0.00137126	0	0	0	
0.267167	-0.0662803	0.00689958	0.00117949	0.00118455	0	0	0	
0.267333	-0.0358055	-0.0153519	0.00167375	0.00106344	0	0	0	
0.2675	0.0684238	0.00292042	0.00139306	0.000781355	0	0	0	
0.267667	0.000391095	0.0145833	0.00151095	0.000434922	0	0	0	
0.267833	-0.0278202	-0.0152506	0.00109269	0.000286114	0	0	0	
0.268	-0.0124479	-0.00642836	0.000913601	0.000393121	0	0	0	
0.268167	0.0202211	0.0184222	0.000537409	0.000548815	0	0	0	
0.268333	0.0216863	-0.0152707	0.000540865	0.000554377	0	0	0	
0.2685	-0.0285347	-1.16738E-05	0.000526637	0.000414088	0	0	0	
0.268667	-0.0069835	0.016628	0.000643327	0.000309763	0	0	0	
0.268833	0.0233033	-0.0204688	0.000485062	0.000283238	0	0	0	
0.269	-0.0031978	0.0101683	0.000455087	0.000338914	0	0	0	
0.269167	-0.012502	0.00458607	0.000379158	0.000451415	0	0	0	
0.269333	0.00614693	-0.023842	0.000329652	0.000586471	0	0	0	
0.2695	-0.00645072	0.0247467	0.000290912	0.000618635	0	0	0	
0.269667	0.0229985	-0.00717435	0.00029506	0.000509651	0	0	0	
0.269833	-0.0201233	-0.0142177	0.00035058	0.000447774	0	0	0	
0.27	-0.00458882	0.0284346	0.000449908	0.00043907	0	0	0	
0.270167	0.015801	-0.0257411	0.000408922	0.000498237	0	0	0	
0.270333	-0.00815097	0.00485828	0.000361575	0.000564901	0	0	0	
0.2705	0.00371671	0.0123018	0.000268421	0.000658996	0	0	0	
0.270667	0.00217674	-0.0163427	0.000287885	0.000620782	0	0	0	
0.270833	-0.00998419	0.0066166	0.000328699	0.000435608	0	0	0	
0.271	0.00514719	0.00987411	0.000296938	0.000260301	0	0	0	
0.271167	0.0135703	-0.0128173	0.000222656	0.000189815	0	0	0	
0.271333	-0.0165406	0.00421308	0.000228962	0.000255558	0	0	0	
0.2715	-0.0130707	0.00230144	0.000504389	0.000319704	0	0	0	
0.271667	0.0388316	-0.00231417	0.000718653	0.000315312	0	0	0	
0.271833	-0.00571142	-0.00770466	0.000806838	0.000224688	0	0	0	
0.272	-0.0367243	0.0158189	0.000749445	0.000181345	0	0	0	
0.272167	0.0155437	-0.00441941	0.000672273	0.000274049	0	0	0	
0.272333	0.00779357	-0.00924318	0.000633079	0.000452286	0	0	0	
0.2725	0.0244057	0.017557	0.000472872	0.000525868	0	0	0	
0.272667	-0.0278866	-0.0150912	0.000457634	0.000460296	0	0	0	
0.272833	-0.0273379	-0.00312066	0.000659089	0.000342277	0	0	0	
0.273	0.034093	0.021	0.000721695	0.000295358	0	0	0	
0.273167	0.0198194	-0.0270725	0.000865417	0.000354118	0	0	0	
0.273333	-0.028671	0.0198936	0.000606575	0.000449309	0	0	0	
0.2735	-0.0115933	-0.000911232	0.000754032	0.00056786	0	0	0	
0.273667	0.0195359	-0.0107934	0.000596379	0.000589274	0	0	0	
0.273833	0.00397967	0.00268454	0.00056879	0.000460971	0	0	0	
0.274	-0.0132057	0.00446047	0.000289046	0.000252769	0	0	0	
0.274167	0.00968081	-0.00871812	0.00026534	0.000139293	0	0	0	
0.274333	-0.00467686	0.00259667	0.000287974	0.000178961	0	0	0	
0.2745	-0.00401477	0.0044899	0.000340299	0.000270623	0	0	0	
0.274667	0.00294768	-0.00571776	0.00025804	0.000299068	0	0	0	
0.274833	0.00434194	0.00339148	0.000176054	0.000244491	0	0	0	
0.275	-0.00379098	0.00159112	9.93908E-05	0.000138867	0	0	0	
0.275167	0.00239597	-0.00902415	7.61674E-05	9.44252E-05	0	0	0	
0.275333	-0.0106823	0.00626631	8.78699E-05	0.000125757	0	0	0	
0.2755	0.011114	-0.000567054	0.000125633	0.000225805	0	0	0	
0.275667	0.000109941	-0.00452954	0.000230404	0.000288466	0	0	0	
0.275833	-0.0126843	0.0070555	0.000291875	0.000273945	0	0	0	
0.276	0.0107522	-0.00196118	0.00030211	0.000201154	0	0	0	
0.276167	0.00040251	-0.0026311	0.000214688	0.00010787	0	0	0	
0.276333	-0.00510339	0.00748415	0.00015247	8.67762E-05	0	0	0	
0.2765	0.0119059	-0.00974668	0.000143461	0.000114881	0	0	0	
0.276667	-0.0218022	0.00273075	0.000206166	0.000210288	0	0	0	
0.276833	0.0232931	0.00365946	0.000342718	0.000292062	0	0	0	
0.277	0.000359884	-0.00715026	0.000440117	0.000319941	0	0	0	
0.277167	-0.0243092	0.0052429	0.000468864	0.000251161	0	0	0	
0.277333	0.0156223	0.00254548	0.000429494	0.000155155	0	0	0	
0.2775	0.00188807	-0.00891389	0.000323947	9.40544E-05	0	0	0	
0.277667	-0.0156995	0.0102351	0.000328506	0.000126035	0	0	0	
0.277833	0.0256529	-0.0101276	0.000358338	0.000205273	0	0	0	
0.278	-0.0180226	0.000481484	0.000440218	0.000295924	0	0	0	
0.278167	0.00218272	0.00527237	0.000436898	0.000351139	0	0	0	
0.278333	-0.00382296	-0.0074723	0.000440861	0.000340413	0	0	0	
0.2785	-0.00087015	0.00700259	0.000366247	0.000268741	0	0	0	
0.278667	0.00646397	0.0035731	0.000294658	0.000171491	0	0	0	
0.278833	-0.00482193	-0.00880487	0.00021495	0.000104727	0	0	0	
0.279	-0.00225702	0.00803623	0.000235389	0.000121082	0	0	0	
0.279167	0.00147205	-0.00825487	0.000192051	0.00017689	0	0	0	
0.279333	8.26147E-05	0.00201453	0.000171993	0.000242572	0	0	0	
0.2795	-0.00376239	-0.000129346	0.000156786	0.000266046	0	0	0	
0.279667	0.00750597	0.00270693	0.000173274	0.000251654	0	0	0	
0.279833	-0.00743952	0.00133662	0.000157799	0.00019138	0	0	0	
0.28	-0.00142704	0.00281353	0.000124804	0.000120114	0	0	0	
0.280167	0.0104771	-0.00917519	0.00014526	7.62526E-05	0	0	0	
0.280333	-0.0141872	0.0116358	0.000212598	0.000113655	0	0	0	
0.2805	0.0114163	-0.0108605	0.000315831	0.000203708	0	0	0	
0.280667	-0.000547575	0.00500521	0.000394328	0.000301424	0	0	0	
0.280833	-0.0185497	0.00185317	0.000412789	0.00034425	0	0	0	
0.281	0.0217975	-0.000505777	0.000401401	0.000323313	0	0	0	
0.281167	0.00177674	0.00159756	0.000378136	0.000264392	0	0	0	
0.281333	-0.0143897	-0.00219344	0.000288813	0.00018771	0	0	0	
0.2815	-0.000788173	-0.00323153	0.000232405	0.000123435	0	0	0	
0.281667	0.00476973	0.00875375	0.000158172	0.000104866	0	0	0	
0.281833	0.0128972	-0.0121759	0.000199443	0.00016351	0	0	0	
0.282	-0.00815829	0.00627312	0.000255657	0.000256062	0	0	0	
0.282167	-0.0189936	0.00403941	0.000528266	0.000312973	0	0	0	
0.282333	0.0254985	-0.00194653	0.000585817	0.000254122	0	0	0	
0.2825	-0.00276474	-0.0063662	0.000605727	0.000157444	0	0	0	
0.282667	-0.0105633	0.00931835	0.000375978	0.00011552	0	0	0	
0.282833	-0.000124642	-0.00819868	0.000357417	0.000165245	0	0	0	
0.283	-0.000393261	0.00392186	0.000280425	0.000225635	0	0	0	
0.283167	0.0331628	-0.00869449	0.000343349	0.000229812	0	0	0	
0.283333	-0.043637	0.0215399	0.000427851	0.000238071	0	0	0	
0.2835	-0.0175307	0.00682834	0.000887963	0.000465571	0	0	0	
0.283667	0.160287	-0.149924	0.00155125	0.00126398	0	0	0	
0.283833	0.01942	0.085327	0.00240593	0.0023197	0	0	0	
0.284	-0.033983	-0.0909297	0.00223274	0.00274992	0	0	0	
0.284167	0.0206753	0.0258982	0.00162692	0.00235836	0	0	0	
0.284333	0.026064	0.00215625	0.000720547	0.0013974	0	0	0	
0.2845	0.00125154	0.0226187	0.000563127	0.000701502	0	0	0	
0.284667	-0.00245582	-0.0142113	0.00077926	0.000514489	0	0	0	
0.284833	-0.0380964	-0.0070152	0.000810729	0.000649403	0	0	0	
0.285	0.0568741	0.0457327	0.0008847	0.00100609	0	0	0	
0.285167	-0.0423285	-0.0588635	0.00103151	0.00103876	0	0	0	
0.285333	-0.0139982	0.020238	0.00142694	0.000974368	0	0	0	
0.2855	0.00837302	0.0153803	0.00120155	0.00082686	0	0	0	
0.285667	0.0419213	-0.0296645	0.000939248	0.000626479	0	0	0	
0.285833	-0.0331364	0.0206464	0.000611053	0.000595286	0	0	0	
0.286	-0.012684	0.00625245	0.000698613	0.00055026	0	0	0	
0.286167	-0.00679705	-0.0171395	0.000503246	0.000513424	0	0	0	
0.286333	0.0230604	0.0103155	0.000482766	0.000391242	0	0	0	
0.2865	-0.0200881	0.00119195	0.000499865	0.000281899	0	0	0	
0.286667	-0.00501785	-0.0107452	0.000542099	0.000272864	0	0	0	
0.286833	0.0338485	0.0119371	0.000566524	0.000231286	0	0	0	
0.287	-0.0284188	0.00240845	0.000595948	0.000217603	0	0	0	
0.287167	-0.00132947	-0.0164003	0.000613959	0.000220216	0	0	0	
0.287333	0.0225487	0.0191427	0.000417861	0.000283472	0	0	0	
0.2875	-0.00138082	-0.00987943	0.000392104	0.000298419	0	0	0	
0.287667	-0.00114693	-0.00239432	0.000261547	0.000325551	0	0	0	
0.287833	-0.0238681	0.0134466	0.000249838	0.000279488	0	0	0	
0.288	0.0274294	-0.0170189	0.000315233	0.000303931	0	0	0	
0.288167	0.00369165	0.00774839	0.000422587	0.000271456	0	0	0	
0.288333	-0.00104869	0.0037125	0.000406852	0.000258692	0	0	0	
0.2885	-5.07949E-05	-0.00829663	0.000245649	0.000207491	0	0	0	
0.288667	0.000473367	0.0073172	0.000164855	0.000187286	0	0	0	
0.288833	-0.00180971	-0.00345507	0.000162499	0.000159613	0	0	0	
0.289	0.00894887	-0.00124675	0.000201746	0.00013612	0	0	0	
0.289167	-0.00603707	-0.0013977	0.000247349	0.000118717	0	0	0	
0.289333	-0.00310661	0.00715428	0.000224808	0.000104957	0	0	0	
0.2895	0.0154985	-0.00931985	0.000189175	0.000115892	0	0	0	
0.289667	-0.0150047	0.00359606	0.000197573	0.000136439	0	0	0	
0.289833	0.00166001	0.00129268	0.000276143	0.000150726	0	0	0	
0.29	0.0239383	-0.00400932	0.00035384	0.000115887	0	0	0	
0.290167	-0.0246432	-0.00180307	0.000403076	8.8761E-05	0	0	0	
0.290333	-0.0157597	0.00649342	0.000589423	6.6421E-05	0	0	0	
0.2905	0.063503	-0.00937717	0.000695533	0.000103684	0	0	0	
0.290667	-0.0276653	0.00571391	0.000912973	0.000152432	0	0	0	
0.290833	-0.0121952	0.000358745	0.000938053	0.000195164	0	0	0	
0.291	0.00105459	-0.00304383	0.000746493	0.000176995	0	0	0	
0.291167	0.000628979	0.0014348	0.000464447	0.000139359	0	0	0	
0.291333	0.0243001	0.000854883	0.000392846	8.17287E-05	0	0	0	
0.2915	0.0012537	-0.00991158	0.000440032	9.0818E-05	0	0	0	
0.291667	-0.0353442	0.0149435	0.00070915	0.000119569	0	0	0	
0.291833	0.0394454	-0.00651014	0.000751505	0.000193358	0	0	0	
0.292	-0.0104938	7.8051E-06	0.000808248	0.00019544	0	0	0	
0.292167	-0.00522074	-0.000256424	0.000570761	0.000153478	0	0	0	
0.292333	-0.00337804	0.00440434	0.000312452	9.88343E-05	0	0	0	
0.2925	0.00852337	-0.00762561	0.000181986	8.88615E-05	0	0	0	
0.292667	-0.00465558	0.00736674	0.000107486	0.000114993	0	0	0	
0.292833	-0.00162447	-0.00460577	0.000108675	0.000147534	0	0	0	
0.293	0.00348861	0.000219618	9.4923E-05	0.000138813	0	0	0	
0.293167	0.00200192	-0.000708582	6.97957E-05	0.000103036	0	0	0	
0.293333	-0.00773472	0.00793783	7.26861E-05	7.75786E-05	0	0	0	
0.2935	0.0044227	-0.013438	0.000113309	0.000103531	0	0	0	
0.293667	-0.00144755	0.00885257	0.000180059	0.000167336	0	0	0	
0.293833	-0.0015365	-0.00420112	0.000206696	0.000211149	0	0	0	
0.294	0.00088881	-8.2986E-05	0.000172187	0.000192502	0	0	0	
0.294167	0.00054015	8.63559E-05	9.63109E-05	0.000134472	0	0	0	
0.294333	-0.00493726	0.000880409	5.72864E-05	6.96153E-05	0	0	0	
0.2945	0.0115871	-0.000565536	8.01741E-05	4.61088E-05	0	0	0	
0.294667	-0.0127274	0.00177107	0.000179482	6.60718E-05	0	0	0	
0.294833	0.000162332	-0.00208172	0.000269028	9.28285E-05	0	0	0	
0.295	0.00101309	0.00133588	0.000238037	9.7074E-05	0	0	0	
0.295167	0.00486525	-0.00216156	0.000154517	7.53311E-05	0	0	0	
0.295333	-0.00232756	0.00364098	8.12521E-05	5.50866E-05	0	0	0	
0.2955	-0.00612828	-0.00452199	0.000129518	5.97899E-05	0	0	0	
0.295667	0.000255225	0.00835902	0.000116248	0.000116449	0	0	0	
0.295833	0.0105137	-0.00330273	0.000159392	0.000171431	0	0	0	
0.296	-0.0113795	-5.16113E-05	0.00015727	0.000203394	0	0	0	
0.296167	0.00150232	0.000225177	0.000231553	0.000157677	0	0	0	
0.296333	0.000540201	0.00176007	0.000202078	9.17526E-05	0	0	0	
0.2965	0.00395922	-0.00489722	0.000157124	5.3246E-05	0	0	0	
0.296667	-0.00268632	0.00872262	0.00013507	7.00428E-05	0	0	0	
0.296833	-0.00169632	-0.0075988	0.000205167	0.000126685	0	0	0	
0.297	0.00356989	0.00590385	0.000259176	0.00017646	0	0	0	
0.297167	0.0016818	-0.00311469	0.000207569	0.000191752	0	0	0	
0.297333	-0.00445419	-0.000147915	0.000110808	0.000156551	0	0	0	
0.2975	0.00506698	-0.000322223	7.34535E-05	9.48755E-05	0	0	0	
0.297667	-0.00864114	0.00106414	9.72677E-05	4.81192E-05	0	0	0	
0.297833	0.014829	-7.27157E-06	0.000150416	3.94572E-05	0	0	0	
0.298	-0.00852975	0.00209791	0.000199561	3.93795E-05	0	0	0	
0.298167	-6.89066E-05	-0.00313595	0.000253853	4.95582E-05	0	0	0	
0.298333	0.00302154	0.00373997	0.000214485	6.21183E-05	0	0	0	
0.2985	0.00627383	-0.00660114	0.000188308	8.33787E-05	0	0	0	
0.298667	-0.00800994	0.00798134	0.000129862	0.000105533	0	0	0	
0.298833	0.000611565	-0.00751353	0.000197505	0.000150631	0	0	0	
0.299	0.00283679	0.00569728	0.000212814	0.000223716	0	0	0	
0.299167	0.0108094	0.00235024	0.00020876	0.00028037	0	0	0	
0.299333	-0.0195175	-0.00241647	0.000224422	0.000266234	0	0	0	
0.2995	0.00633544	0.00186537	0.000259002	0.00017934	0	0	0	
0.299667	4.39569E-05	0.00152616	0.000270385	9.66763E-05	0	0	0	
0.299833	-0.00588496	-0.00522865	0.000199885	5.29349E-05	0	0	0	
0.3	0.00457329	0.00933512	0.000159935	8.3194E-05	0	0	0	
0.300167	0.0119732	-0.00722355	0.000161498	0.000130007	0	0	0	
0.300333	-0.0250795	0.00994952	0.000282075	0.000191668	0	0	0	
0.3005	0.0183697	-0.00392349	0.000355472	0.000215501	0	0	0	
0.300667	-0.00397776	0.000304935	0.000390283	0.000192331	0	0	0	
0.300833	-0.0059326	-0.00255292	0.000323591	0.000129707	0	0	0	
0.301	0.0075591	0.00855713	0.000250538	9.54038E-05	0	0	0	
0.301167	-0.00690356	-0.0101973	0.000209747	0.000135058	0	0	0	
0.301333	0.00624246	0.00939248	0.000172775	0.000197219	0	0	0	
0.3015	0.00131591	-0.00568466	0.000138981	0.000244969	0	0	0	
0.301667	-0.0107199	0.00162469	0.000139713	0.000206295	0	0	0	
0.301833	0.0101165	-0.00124605	0.000161923	0.000144634	0	0	0	
0.302	0.0262787	0.0027162	0.000387303	7.72846E-05	0	0	0	
0.302167	-0.0409617	-0.00813729	0.000577713	7.50845E-05	0	0	0	
0.302333	-0.0203077	0.00963949	0.000720186	0.000100661	0	0	0	
0.3025	0.0735589	-0.0122933	0.000792595	0.000172899	0	0	0	
0.302667	-0.041975	0.0065623	0.00104658	0.00019547	0	0	0	
0.302833	-0.00613563	-0.0033436	0.0011914	0.000190834	0	0	0	
0.303	-0.0228859	0.00423335	0.000922156	0.000136696	0	0	0	
0.303167	0.059509	-0.00918939	0.00080738	0.000149608	0	0	0	
0.303333	0.0167156	0.00481726	0.00113246	0.000193744	0	0	0	
0.3035	-0.0336575	-0.00597448	0.00125038	0.000217978	0	0	0	
0.303667	-0.0404419	0.00743476	0.00162138	0.00018194	0	0	0	
0.303833	0.0668942	-0.00431781	0.00153076	0.000133206	0	0	0	
0.304	-0.0276401	0.00670302	0.00160283	0.000106308	0	0	0	
0.304167	0.0241832	-0.0204763	0.00104669	0.000139727	0	0	0	
0.304333	-0.0329666	0.0192217	0.000706679	0.000241963	0	0	0	
0.3045	0.0206118	-0.00931866	0.000640858	0.000306461	0	0	0	
0.304667	0.0266578	0.00178086	0.000697458	0.000289814	0	0	0	
0.304833	-0.0349469	-0.000271224	0.000685384	0.000168598	0	0	0	
0.305	0.0055046	0.00292127	0.000614829	8.40074E-05	0	0	0	
0.305167	0.0224071	-0.00681029	0.000476647	5.85847E-05	0	0	0	
0.305333	-0.0291299	0.00841827	0.000488198	9.72405E-05	0	0	0	
0.3055	-0.0051597	-0.00313682	0.000743801	0.000150729	0	0	0	
0.305667	0.00375966	0.000542496	0.000755878	0.000194775	0	0	0	
0.305833	0.0247839	-0.00018983	0.000623831	0.000169412	0	0	0	
0.306	-0.0230738	0.00136364	0.000426976	0.000108861	0	0	0	
0.306167	0.0156745	-0.0050112	0.000417429	5.48353E-05	0	0	0	
0.306333	-0.031099	0.0103794	0.000410581	7.20973E-05	0	0	0	
0.3065	0.0267532	-0.0175689	0.000449006	0.00016309	0	0	0	
0.306667	-0.0106308	0.0109906	0.000459296	0.000249289	0	0	0	
0.306833	0.00262602	-0.00228358	0.000380279	0.000300047	0	0	0	
0.307	-0.00095367	-0.00126919	0.00018098	0.000274152	0	0	0	
0.307167	-0.0035254	0.000379265	9.00984E-05	0.00018251	0	0	0	
0.307333	0.00621078	0.00636011	6.40333E-05	0.000107983	0	0	0	
0.3075	0.0012183	-0.0152568	0.000203224	9.77011E-05	0	0	0	
0.307667	-0.0212786	0.0122882	0.00038023	0.000185784	0	0	0	
0.307833	0.0256887	-0.00847542	0.000473608	0.000242081	0	0	0	
0.308	-0.017914	0.00831828	0.000527501	0.00022977	0	0	0	
0.308167	0.00897385	-0.00582721	0.000461022	0.000173229	0	0	0	
0.308333	0.00256554	0.00549353	0.000446914	0.000127963	0	0	0	
0.3085	-0.0508857	-0.00464429	0.000437354	0.000115535	0	0	0	
0.308667	0.0607219	0.00530858	0.000677342	0.000116117	0	0	0	
0.308833	-0.00140012	-0.00153053	0.00097292	0.000131676	0	0	0	
0.309	-0.062607	-0.00100575	0.00116315	0.000137195	0	0	0	
0.309167	0.0446633	0.00360219	0.0011226	0.000105256	0	0	0	
0.309333	-0.00985308	0.00121192	0.000916824	8.90627E-05	0	0	0	
0.3095	0.00333704	-0.007433	0.000614157	7.81841E-05	0	0	0	
0.309667	-0.0051055	0.0109302	0.000555667	0.000120706	0	0	0	
0.309833	-0.0187284	-0.0112463	0.000794106	0.000205505	0	0	0	
0.31	0.00938019	0.00219564	0.000845228	0.000269602	0	0	0	
0.310167	0.0204681	0.000808619	0.000784235	0.000279984	0	0	0	
0.310333	-0.0227312	-0.000717051	0.000537572	0.000185141	0	0	0	
0.3105	0.00489605	-0.00109091	0.000478264	9.4781E-05	0	0	0	
0.310667	-0.00154611	0.00252701	0.000323928	3.82253E-05	0	0	0	
0.310833	0.0124245	-0.00967018	0.000211694	5.25097E-05	0	0	0	
0.311	-0.0169342	0.0112096	0.000258483	0.000116572	0	0	0	
0.311167	0.0114942	-0.0106497	0.000308663	0.000203161	0	0	0	
0.311333	-0.00294642	0.00366514	0.000283738	0.000251835	0	0	0	
0.3115	0.000124636	-0.000665719	0.000167932	0.000229553	0	0	0	
0.311667	0.00099249	0.000671441	6.34391E-05	0.000154311	0	0	0	
0.311833	-0.00431346	-0.00144788	4.09247E-05	0.000100158	0	0	0	
0.312	0.00191065	0.0021507	5.1765E-05	9.32094E-05	0	0	0	
0.312167	0.00338876	-0.00417769	0.000119168	0.00010578	0	0	0	
0.312333	-0.0048051	0.00567263	0.000169631	0.000117599	0	0	0	
0.3125	0.00462196	-0.00353465	0.000205094	0.000112746	0	0	0	
0.312667	-0.0136608	0.00362297	0.000210064	0.000102376	0	0	0	
0.312833	0.0242694	-0.00428939	0.000235416	8.77592E-05	0	0	0	
0.313	-0.0140343	0.00431182	0.000377905	0.000102091	0	0	0	
0.313167	-0.0158963	-0.00293454	0.000538006	0.000129014	0	0	0	
0.313333	0.0253789	0.00111286	0.000585208	0.00013066	0	0	0	
0.3135	-0.012503	-0.00127252	0.00050453	9.68076E-05	0	0	0	
0.313667	0.0023657	0.00500135	0.000350994	6.99496E-05	0	0	0	
0.313833	0.00567518	-0.0082282	0.000294532	8.00122E-05	0	0	0	
0.314	-0.0179263	0.0120845	0.000260759	0.000135713	0	0	0	
0.314167	0.0190754	-0.0104851	0.000293601	0.000236387	0	0	0	
0.314333	-0.00647771	-0.000696212	0.000312616	0.00031585	0	0	0	
0.3145	-0.00339626	0.00318419	0.000333157	0.000335964	0	0	0	
0.314667	0.00673247	-0.00256056	0.000272048	0.0002439	0	0	0	
0.314833	-0.00546209	-0.00117738	0.000197151	0.000144443	0	0	0	
0.315	-0.00266193	0.00805734	0.00012662	9.3652E-05	0	0	0	
0.315167	0.0114136	-0.015504	0.000114655	0.000137543	0	0	0	
0.315333	-0.00874892	0.0152723	0.000139225	0.000203026	0	0	0	
0.3155	-0.00307771	-0.00871562	0.000183732	0.000250056	0	0	0	
0.315667	0.0033227	0.00438293	0.000194951	0.000228266	0	0	0	
0.315833	0.000911941	-0.00514126	0.000155355	0.000172823	0	0	0	
0.316	-0.00306941	0.00937297	9.75663E-05	0.000130907	0	0	0	
0.316167	0.00256743	-0.0123451	5.74416E-05	0.000139576	0	0	0	
0.316333	-0.00370603	0.0149814	6.47711E-05	0.000246277	0	0	0	
0.3165	0.00773889	-0.00152884	9.22887E-05	0.000331422	0	0	0	
0.316667	-0.0134622	-0.0050581	0.000133669	0.000364413	0	0	0	
0.316833	0.00734741	0.00568281	0.000189052	0.000261752	0	0	0	
0.317	-0.00134337	0.00218985	0.000181863	0.000182311	0	0	0	
0.317167	-0.00217727	-0.0119469	0.000151727	0.000145127	0	0	0	
0.317333	0.0116934	0.0236114	0.000173397	0.000223055	0	0	0	
0.3175	-0.0161794	-0.0151466	0.000243457	0.000307155	0	0	0	
0.317667	0.00479924	0.00828626	0.000310113	0.000358922	0	0	0	
0.317833	0.00904983	-0.000992436	0.000352134	0.000307633	0	0	0	
0.318	-0.00552601	0.00063716	0.000292668	0.000191935	0	0	0	
0.318167	0.00446425	-0.00531987	0.000223671	9.9838E-05	0	0	0	
0.318333	-0.0258786	0.0114497	0.000157243	8.122E-05	0	0	0	
0.3185	0.0408503	-0.0154326	0.000333451	0.000162543	0	0	0	
0.318667	-0.0109103	0.0093555	0.00056739	0.000241881	0	0	0	
0.318833	-0.0175236	-0.00295091	0.000771355	0.000283795	0	0	0	
0.319	0.0144544	0.000275378	0.000650213	0.000238664	0	0	0	
0.319167	0.0175618	-0.00311422	0.000555601	0.00015617	0	0	0	
0.319333	-0.0392393	0.00792933	0.000418326	0.000103211	0	0	0	
0.3195	0.0323317	-0.0153036	0.000704696	0.000141104	0	0	0	
0.319667	0.011939	0.00635328	0.000852164	0.000200903	0	0	0	
0.319833	-0.00227998	-0.00324133	0.00077063	0.000232504	0	0	0	
0.32	-0.00414828	0.00124696	0.000445988	0.000190214	0	0	0	
0.320167	-0.012462	-0.000915264	0.000203805	0.000137737	0	0	0	
0.320333	-0.0123236	0.00452736	0.000308342	9.3791E-05	0	0	0	
0.3205	0.10676	-0.0103837	0.000724009	8.98479E-05	0	0	0	
0.320667	-0.102765	0.0104348	0.00125217	0.000132294	0	0	0	
0.320833	0.0139563	-0.0173879	0.00165556	0.000199012	0	0	0	
0.321	0.0391795	0.018649	0.00150307	0.000262742	0	0	0	
0.321167	-0.00856994	-0.0117826	0.00108607	0.000323269	0	0	0	
0.321333	-0.00919445	0.00399005	0.000652466	0.000322642	0	0	0	
0.3215	0.00868053	-0.00244867	0.00038924	0.000262988	0	0	0	
0.321667	-0.0249787	0.0041911	0.00038492	0.000183786	0	0	0	
