0	0.00337257	-0.00372292	3.37257E-07	3.72292E-07	0	0	0	
0.000166667	-0.014247	0.0158041	8.21183E-05	5.23064E-05	0	0	0	
0.000333333	0.0078501	-0.0127903	0.000151593	0.00014732	0	0	0	
0.0005	0.00933936	0.00725982	0.000199419	0.00022911	0	0	0	
0.000666667	-0.0138131	-0.000972027	0.000200363	0.00025397	0	0	0	
0.000833333	-0.00208342	-0.00306582	0.000313477	0.000181105	0	0	0	
0.001	0.0164424	-0.00304485	0.000465458	0.000146937	0	0	0	
0.00116667	-0.0162436	0.0204001	0.000536678	0.000164686	0	0	0	
0.00133333	0.00736444	-0.0202169	0.000476113	0.000288634	0	0	0	
0.0015	-0.00912195	0.0112937	0.000377595	0.000337238	0	0	0	
0.00166667	0.00371507	0.00417431	0.000273725	0.000362281	0	0	0	
0.00183333	0.00863768	-0.0172774	0.000178712	0.000298629	0	0	0	
0.002	-0.0109231	0.0197305	0.000207763	0.000321692	0	0	0	
0.00216667	-0.000428614	-0.00658523	0.000391633	0.000380301	0	0	0	
0.00233333	0.00705317	-0.0131911	0.000580955	0.000550261	0	0	0	
0.0025	-0.00296385	0.0238996	0.00060368	0.000641615	0	0	0	
0.00266667	-0.000764876	-0.0226753	0.000510875	0.000602789	0	0	0	
0.00283333	0.00322284	0.0126947	0.000452426	0.000472545	0	0	0	
0.003	-0.00446778	0.00246403	0.000468153	0.000368555	0	0	0	
0.00316667	0.00125554	-0.00927312	0.000509167	0.00031127	0	0	0	
0.00333333	0.00224198	0.00869083	0.00052785	0.000246388	0	0	0	
0.0035	0.00076679	-0.00867198	0.000518041	0.000186887	0	0	0	
0.00366667	-0.00127116	0.0147654	0.000506927	0.000177489	0	0	0	
0.00383333	-0.00311424	-0.00781459	0.000516813	0.000273643	0	0	0	
0.004	0.00689476	-0.0578042	0.000535186	0.00069744	0	0	0	
0.00416667	0.00326784	0.00371573	0.000533474	0.00127839	0	0	0	
0.00433333	-0.00703308	-0.0223302	0.000516974	0.00137818	0	0	0	
0.0045	0.0040942	0.0125029	0.000521528	0.00105352	0	0	0	
0.00466667	-0.00177668	0.0061634	0.00054075	0.000456782	0	0	0	
0.00483333	-0.00203154	-0.0186203	0.000554439	0.000277135	0	0	0	
0.005	0.00220434	0.031473	0.000553477	0.000294524	0	0	0	
0.00516667	0.0106937	-0.108727	0.000542727	0.000866046	0	0	0	
0.00533333	-0.00420353	0.0313382	0.000506232	0.0011098	0	0	0	
0.0055	-3.13407E-05	0.00218563	0.000474334	0.00115948	0	0	0	
0.00566667	-0.000811327	-0.00206815	0.000460086	0.000629093	0	0	0	
0.00583333	-0.000960692	-0.000137772	0.000482902	0.000338244	0	0	0	
0.006	0.00369281	-0.000844053	0.00052481	0.000159946	0	0	0	
0.00616667	-0.00895436	-0.00818135	0.000536043	0.000109148	0	0	0	
0.00633333	-0.00880157	0.0566559	0.000439982	0.000296873	0	0	0	
0.0065	0.0261274	-0.0843011	0.000417677	0.000706695	0	0	0	
0.00666667	-0.0251221	0.017941	0.000374076	0.00131778	0	0	0	
0.00683333	0.0076575	0.0949483	0.000608967	0.00212953	0	0	0	
0.007	0.0105392	-0.153311	0.000785779	0.00258503	0	0	0	
0.00716667	-0.0158399	0.124838	0.000891879	0.00274436	0	0	0	
0.00733333	0.0109833	-0.04244	0.000747525	0.00257389	0	0	0	
0.0075	-0.0200504	-0.0525156	0.000495542	0.00275106	0	0	0	
0.00766667	0.0155742	0.134445	0.000416009	0.00291226	0	0	0	
0.00783333	0.0081153	-0.160688	0.00031083	0.0028919	0	0	0	
0.008	-0.0156342	0.0870989	0.000336802	0.00288306	0	0	0	
0.00816667	0.0044236	0.0272927	0.0003915	0.00322461	0	0	0	
0.00833333	0.0097593	-0.0981071	0.000571104	0.00337777	0	0	0	
0.0085	-0.00839634	0.0994602	0.000617008	0.00292793	0	0	0	
0.00866667	-0.000429545	-0.0600741	0.000514438	0.00209435	0	0	0	
0.00883333	-0.000339588	0.0215229	0.00041464	0.00154917	0	0	0	
0.009	0.00287112	0.0095702	0.000419252	0.00135312	0	0	0	
0.00916667	-0.00530118	-0.0327637	0.000452418	0.00120453	0	0	0	
0.00933333	0.00229055	0.0424455	0.000452777	0.00099459	0	0	0	
0.0095	0.000221532	-0.0268195	0.000447523	0.000810406	0	0	0	
0.00966667	-6.58388E-05	0.00539257	0.000480205	0.000764429	0	0	0	
0.00983333	-0.00430672	0.0169508	0.0005338	0.000790043	0	0	0	
0.01	0.010032	-0.0337366	0.000593043	0.00072752	0	0	0	
0.0101667	-0.0159588	0.0245017	0.00062838	0.000613631	0	0	0	
0.0103333	0.00755996	0.00708268	0.000612461	0.000531955	0	0	0	
0.0105	-0.000868775	-0.0326734	0.000541442	0.000501655	0	0	0	
0.0106667	-0.000788007	0.0284359	0.00052188	0.000513751	0	0	0	
0.0108333	-0.00437537	-0.00981959	0.000553235	0.000541229	0	0	0	
0.011	0.00461002	-0.0118773	0.00058371	0.000570408	0	0	0	
0.0111667	-0.00427202	0.0151115	0.000556763	0.000538069	0	0	0	
0.0113333	0.0025156	-0.00998931	0.00052091	0.000467146	0	0	0	
0.0115	-0.00299145	0.00614604	0.000498196	0.000362974	0	0	0	
0.0116667	0.000584121	-0.00419517	0.000441982	0.000235072	0	0	0	
0.0118333	0.00194025	-0.00862542	0.000364693	0.000180656	0	0	0	
0.012	-0.00131198	0.0178412	0.000344052	0.000220969	0	0	0	
0.0121667	-0.000837857	-0.0114058	0.000413161	0.000269119	0	0	0	
0.0123333	0.00367582	-0.00548551	0.000526604	0.000317694	0	0	0	
0.0125	-0.013523	0.0301945	0.000627079	0.00030282	0	0	0	
0.0126667	0.0125288	-0.0284669	0.00062541	0.00046592	0	0	0	
0.0128333	0.00624866	0.0145702	0.00048166	0.000547854	0	0	0	
0.013	-0.015719	0.0062268	0.000381582	0.000642174	0	0	0	
0.0131667	-0.00945942	-0.0272228	0.000564094	0.000590799	0	0	0	
0.0133333	0.0269803	0.0358389	0.000862585	0.000588615	0	0	0	
0.0135	-0.00150976	-0.0208331	0.000828909	0.000588321	0	0	0	
0.0136667	-0.032794	-0.0242196	0.000566049	0.00092827	0	0	0	
0.0138333	0.0130684	0.0832112	0.000446835	0.00133273	0	0	0	
0.014	0.0132186	-0.0878741	0.000694864	0.00160712	0	0	0	
0.0141667	0.00267011	0.0436368	0.000768703	0.00157332	0	0	0	
0.0143333	-0.0238062	0.00545505	0.000720294	0.00149335	0	0	0	
0.0145	-0.0230345	-0.0104723	0.000793446	0.00139426	0	0	0	
0.0146667	0.0549821	0.0107972	0.0010339	0.00109398	0	0	0	
0.0148333	-0.0233363	-0.00576061	0.00104847	0.000704799	0	0	0	
0.015	-0.027726	0.0129846	0.000837651	0.000389641	0	0	0	
0.0151667	0.0248265	0.0125754	0.000653437	0.000460892	0	0	0	
0.0153333	0.00576474	-0.0359738	0.00081326	0.00062422	0	0	0	
0.0155	-0.0114047	0.0455209	0.000820275	0.000819676	0	0	0	
0.0156667	-0.0110646	-0.0267941	0.000780666	0.000782627	0	0	0	
0.0158333	0.00440962	0.033476	0.000695222	0.000669425	0	0	0	
0.016	0.0127167	-0.0297783	0.000800764	0.000673073	0	0	0	
0.0161667	-0.0114236	0.0159602	0.000848739	0.000554678	0	0	0	
0.0163333	0.00339967	0.00626092	0.000709528	0.00050918	0	0	0	
0.0165	-0.00131433	-0.0140164	0.000544856	0.00030611	0	0	0	
0.0166667	0.00604987	0.00282293	0.000525667	0.000346423	0	0	0	
0.0168333	-0.00704061	0.0122872	0.000569525	0.000356142	0	0	0	
0.017	0.00400009	-0.010061	0.000545628	0.00038512	0	0	0	
0.0171667	-0.00307542	-0.000735372	0.000476537	0.000304608	0	0	0	
0.0173333	0.00600532	0.0087244	0.000468388	0.00022224	0	0	0	
0.0175	-0.00763914	-0.0102806	0.000512907	0.00020978	0	0	0	
0.0176667	0.00302569	-0.00367578	0.000530568	0.000248671	0	0	0	
0.0178333	-0.00293576	0.0127457	0.000498914	0.000272755	0	0	0	
0.018	0.00402673	-0.00824673	0.000462292	0.000269832	0	0	0	
0.0181667	-0.00496718	-0.000395602	0.000439906	0.000213183	0	0	0	
0.0183333	0.00166217	0.00243703	0.000441409	0.000156842	0	0	0	
0.0185	-0.00310773	-0.00568615	0.000471712	0.000117326	0	0	0	
0.0186667	0.00634824	0.00562394	0.000515491	0.000119578	0	0	0	
0.0188333	-0.00712007	-0.00423826	0.00052068	0.000165384	0	0	0	
0.019	0.00223958	-0.000611993	0.00047846	0.000237986	0	0	0	
0.0191667	-0.000973198	0.00478577	0.000442688	0.000260383	0	0	0	
0.0193333	0.00391554	-0.0072916	0.000465895	0.000232456	0	0	0	
0.0195	-0.0067084	0.0041139	0.00050746	0.000183748	0	0	0	
0.0196667	0.00739676	9.5408E-05	0.000514047	0.000134483	0	0	0	
0.0198333	-0.00706912	0.000974499	0.000485905	9.32147E-05	0	0	0	
0.02	0.00529676	-0.00260849	0.000466529	6.84174E-05	0	0	0	
0.0201667	-0.00282325	0.00109001	0.000459778	4.60732E-05	0	0	0	
0.0203333	0.00237703	0.00131436	0.000455216	4.89588E-05	0	0	0	
0.0205	-0.00305734	-0.00726691	0.000469035	5.75668E-05	0	0	0	
0.0206667	0.00746764	0.00766537	0.000507149	0.000103546	0	0	0	
0.0208333	-0.00923496	-0.00511305	0.000538028	0.000179561	0	0	0	
0.021	0.00799186	-0.00349073	0.000531542	0.000266215	0	0	0	
0.0211667	-0.00589782	0.00708026	0.000505291	0.000308223	0	0	0	
0.0213333	0.00463405	-0.00851511	0.000491908	0.000288076	0	0	0	
0.0215	-0.00398397	0.00629055	0.000494583	0.000223495	0	0	0	
0.0216667	0.00453365	-0.00314061	0.000495372	0.000167748	0	0	0	
0.0218333	-0.00251388	-0.00594596	0.000482532	0.00014281	0	0	0	
0.022	0.00510264	0.00906993	0.000472029	0.000145848	0	0	0	
0.0221667	-0.0060465	-0.00619707	0.000485247	0.000143808	0	0	0	
0.0223333	0.00388884	0.00620102	0.000494692	0.000162446	0	0	0	
0.0225	-0.000367225	0.00124296	0.000479639	0.000192836	0	0	0	
0.0226667	0.00206021	-0.00800116	0.000467213	0.000211448	0	0	0	
0.0228333	-0.00575412	0.00658025	0.0004766	0.000190316	0	0	0	
0.023	0.00998096	-0.00113497	0.000477924	0.000127649	0	0	0	
0.0231667	-0.004278	0.00236725	0.000453951	8.61624E-05	0	0	0	
0.0233333	-0.00103434	0.00200444	0.000430019	5.04881E-05	0	0	0	
0.0235	-0.00295937	-0.00316685	0.000472507	4.37826E-05	0	0	0	
0.0236667	0.0109133	-0.00265484	0.000554752	7.12503E-05	0	0	0	
0.0238333	-0.0142578	0.00755659	0.000601133	0.000147854	0	0	0	
0.024	0.00893495	-0.0127494	0.000542051	0.000238338	0	0	0	
0.0241667	-0.00146497	0.0182177	0.00042149	0.000301001	0	0	0	
0.0243333	-0.00155447	-0.0178916	0.000360233	0.000323153	0	0	0	
0.0245	0.000249946	0.0122573	0.000393579	0.00031573	0	0	0	
0.0246667	0.0013333	-0.00136279	0.00047666	0.000265414	0	0	0	
0.0248333	-0.00623866	-0.00974814	0.000545919	0.00018584	0	0	0	
0.025	0.0105996	0.0113379	0.000573438	0.000152782	0	0	0	
0.0251667	-0.0130706	-0.00959781	0.000548456	0.000214017	0	0	0	
0.0253333	0.00623924	0.00260462	0.000473525	0.000339122	0	0	0	
0.0255	0.000713035	0.00435337	0.000382887	0.000450671	0	0	0	
0.0256667	-0.00143621	-0.0105844	0.000364837	0.000478916	0	0	0	
0.0258333	-0.00578671	0.0109502	0.000436754	0.000424176	0	0	0	
0.026	0.00979508	-0.00949064	0.000530936	0.000325858	0	0	0	
0.0261667	-0.00807727	0.00660943	0.000546988	0.000227052	0	0	0	
0.0263333	0.00533205	-0.00290277	0.000495742	0.000155943	0	0	0	
0.0265	-0.00619697	-0.00198431	0.000452556	0.00011749	0	0	0	
0.0266667	0.00476438	0.00793816	0.000438997	9.69532E-05	0	0	0	
0.0268333	-0.00560849	-0.00891378	0.000445614	0.000120513	0	0	0	
0.027	0.00662739	0.00534421	0.00048087	0.000143717	0	0	0	
0.0271667	-0.00954497	-0.00338001	0.000523415	0.000183246	0	0	0	
0.0273333	0.0091088	0.000257273	0.000532629	0.000182885	0	0	0	
0.0275	-0.00727184	-0.000196922	0.000495505	0.000189353	0	0	0	
0.0276667	0.0061912	-0.00134587	0.000461003	0.000196864	0	0	0	
0.0278333	-0.00498433	0.00242995	0.00045725	0.000195297	0	0	0	
0.028	0.00294806	-0.00188154	0.000473915	0.000161983	0	0	0	
0.0281667	-0.00554084	0.00325462	0.000495714	0.000123972	0	0	0	
0.0283333	0.00633896	-0.00437369	0.000506014	0.000114952	0	0	0	
0.0285	-0.00516535	-0.00209136	0.00049074	0.000117919	0	0	0	
0.0286667	0.00220043	0.00354366	0.000471413	0.000114499	0	0	0	
0.0288333	-0.00525164	-0.0031205	0.000477868	9.37269E-05	0	0	0	
0.029	0.00735178	0.00183351	0.000495388	9.25638E-05	0	0	0	
0.0291667	-0.00394731	0.000553318	0.000484555	0.00012217	0	0	0	
0.0293333	0.0021021	0.00217738	0.000460257	0.000169445	0	0	0	
0.0295	-0.00767361	-0.00356506	0.000472667	0.000199397	0	0	0	
0.0296667	0.0105613	0.00314406	0.000503354	0.000196302	0	0	0	
0.0298333	-0.005078	-0.000499093	0.000505162	0.000173434	0	0	0	
0.03	0.00181994	0.00279913	0.000482699	0.000166542	0	0	0	
0.0301667	-0.00674861	-0.00169768	0.000487342	0.000168522	0	0	0	
0.0303333	0.00818493	0.00766467	0.000496933	0.000182964	0	0	0	
0.0305	-0.00642441	-0.00355636	0.000465566	0.000191259	0	0	0	
0.0306667	0.00248048	-0.00542798	0.000411208	0.000237271	0	0	0	
0.0308333	0.000600882	0.016927	0.000418229	0.000272958	0	0	0	
0.031	0.00052808	-0.0402539	0.000512892	0.000350228	0	0	0	
0.0311667	-0.0061243	0.0105989	0.000605634	0.000447874	0	0	0	
0.0313333	0.00621538	0.00638383	0.000617759	0.000474132	0	0	0	
0.0315	-0.00815473	-0.00961217	0.000564655	0.000397675	0	0	0	
0.0316667	0.00816392	0.00781159	0.00051233	0.000242243	0	0	0	
0.0318333	-0.00644801	-0.00430929	0.00047869	0.000228951	0	0	0	
0.032	0.000495327	-0.0166921	0.000455795	0.000342868	0	0	0	
0.0321667	-0.00117253	0.0060113	0.0004476	0.000584967	0	0	0	
0.0323333	0.00400396	-0.0185724	0.000462148	0.00063773	0	0	0	
0.0325	-0.00640922	0.012311	0.000475621	0.000557061	0	0	0	
0.0326667	0.00774014	-0.00224759	0.00047395	0.000318587	0	0	0	
0.0328333	-0.00947796	-0.00360077	0.000475343	0.000174656	0	0	0	
0.033	0.00908676	0.00589942	0.000491071	0.000118018	0	0	0	
0.0331667	-0.00781578	-0.00349034	0.000497213	0.000113643	0	0	0	
0.0333333	0.0073402	0.00508105	0.000468202	0.000145226	0	0	0	
0.0335	-0.00669409	-0.00519548	0.000423914	0.000150028	0	0	0	
0.0336667	0.00480649	0.00393832	0.000410971	0.000154477	0	0	0	
0.0338333	-0.00211716	-0.00215091	0.000445372	0.000147173	0	0	0	
0.034	0.0033941	0.00234855	0.000510495	0.000134837	0	0	0	
0.0341667	-0.0109477	-0.000557852	0.000573329	0.000114392	0	0	0	
0.0343333	0.0166052	0.000651672	0.000595274	0.000100815	0	0	0	
0.0345	-0.0146863	0.00375649	0.000560543	9.54098E-05	0	0	0	
0.0346667	0.00726608	-0.0044885	0.000491871	9.6046E-05	0	0	0	
0.0348333	-0.00474052	0.00209379	0.000437927	8.04904E-05	0	0	0	
0.035	0.00436131	-0.000633506	0.000412617	6.47816E-05	0	0	0	
0.0351667	-0.00307661	-0.00501778	0.000400235	5.38742E-05	0	0	0	
0.0353333	0.00630733	0.00742905	0.000419303	7.35414E-05	0	0	0	
0.0355	-0.0120323	-0.0056869	0.000477262	0.000118943	0	0	0	
0.0356667	0.0112944	0.00239216	0.00053001	0.000178837	0	0	0	
0.0358333	-0.00760771	0.00123801	0.000524484	0.00023492	0	0	0	
0.036	0.0069813	-0.00507931	0.000493991	0.000259947	0	0	0	
0.0361667	-0.0118609	0.00374181	0.000490467	0.00023965	0	0	0	
0.0363333	0.0102824	0.000145127	0.000489327	0.000189605	0	0	0	
0.0365	-0.00157942	0.0051425	0.000450639	0.000169112	0	0	0	
0.0366667	0.00340373	-0.00772731	0.000434223	0.000172089	0	0	0	
0.0368333	-0.0102713	0.00464998	0.000481537	0.000167795	0	0	0	
0.037	0.00709423	0.00136115	0.000531763	0.000114785	0	0	0	
0.0371667	-0.00662824	-0.00176283	0.000522646	6.73275E-05	0	0	0	
0.0373333	0.00920991	0.00579863	0.00050181	4.97511E-05	0	0	0	
0.0375	-0.00884551	-0.00682092	0.000499251	6.97053E-05	0	0	0	
0.0376667	0.00819164	0.00444662	0.000480157	0.00012441	0	0	0	
0.0378333	-0.0076904	-0.0029251	0.000433988	0.000177702	0	0	0	
0.038	0.00602965	0.00245053	0.000412634	0.000216339	0	0	0	
0.0381667	-0.00850978	0.00279349	0.000443036	0.000244504	0	0	0	
0.0383333	0.0105197	-0.009147	0.000484666	0.000264878	0	0	0	
0.0385	-0.00721805	0.00763853	0.000495434	0.000245858	0	0	0	
0.0386667	0.00657314	-0.00563436	0.000483544	0.000188165	0	0	0	
0.0388333	-0.0100889	0.00138605	0.00049716	0.000121426	0	0	0	
0.039	0.0118864	0.00571868	0.000530366	0.00011575	0	0	0	
0.0391667	-0.00860234	-0.0140198	0.000536123	0.000158163	0	0	0	
0.0393333	0.00723144	0.01505	0.000494146	0.000216174	0	0	0	
0.0395	-0.00812834	-0.00977628	0.000473939	0.000278595	0	0	0	
0.0396667	0.0108458	-0.00177288	0.000491462	0.000324872	0	0	0	
0.0398333	-0.00630704	0.00588045	0.000495809	0.000344801	0	0	0	
0.04	0.00615525	-0.0072101	0.000453793	0.000308408	0	0	0	
0.0401667	-0.0078465	0.00864043	0.000445196	0.000232993	0	0	0	
0.0403333	0.0111612	-0.00415507	0.000488429	0.000172104	0	0	0	
0.0405	-0.0106279	0.00205568	0.000530511	0.000111888	0	0	0	
0.0406667	0.00691114	-0.00400159	0.000504033	8.56799E-05	0	0	0	
0.0408333	-0.00389192	-0.0011065	0.000441168	6.59745E-05	0	0	0	
0.041	0.00783425	0.00666377	0.000408273	9.62556E-05	0	0	0	
0.0411667	-0.00580456	-0.0126722	0.000433097	0.000134556	0	0	0	
0.0413333	0.00707503	0.0143801	0.000485677	0.000184291	0	0	0	
0.0415	-0.00965256	-0.00952211	0.000534289	0.000228131	0	0	0	
0.0416667	0.00943468	0.00144613	0.000538902	0.000256719	0	0	0	
0.0418333	-0.00921281	0.00367264	0.00049862	0.000288373	0	0	0	
0.042	0.00820378	-0.00737986	0.000448546	0.000284914	0	0	0	
0.0421667	-0.00797649	0.00809467	0.00043383	0.000247945	0	0	0	
0.0423333	0.00634145	-0.00558927	0.0004693	0.000187845	0	0	0	
0.0425	-0.00800645	0.000685988	0.000518811	0.000125111	0	0	0	
0.0426667	0.00860993	-0.00194563	0.000530249	8.11299E-05	0	0	0	
0.0428333	-0.00312946	-0.00131475	0.000482865	5.70778E-05	0	0	0	
0.043	0.000788273	0.00885583	0.000470248	7.47729E-05	0	0	0	
0.0431667	-0.0121437	-0.00872292	0.000565778	0.000147659	0	0	0	
0.0433333	0.0175325	0.00905077	0.000566255	0.0003195	0	0	0	
0.0435	-0.0212166	0.021083	0.000594346	0.000448804	0	0	0	
0.0436667	-0.00523453	-0.0234768	0.000422472	0.000492627	0	0	0	
0.0438333	0.00171148	0.00742763	0.000441128	0.000430749	0	0	0	
0.044	0.00636353	0.00619858	0.000457873	0.000394468	0	0	0	
0.0441667	-0.00141283	-0.0169144	0.000524352	0.000396947	0	0	0	
0.0443333	0.0116486	0.0332205	0.000554444	0.000413588	0	0	0	
0.0445	-0.0491836	-0.0143938	0.000628691	0.000444329	0	0	0	
0.0446667	0.0347941	-0.000139494	0.000825205	0.000512161	0	0	0	
0.0448333	-0.0117048	0.0184197	0.000799703	0.000594872	0	0	0	
0.045	-0.00553689	-0.0277012	0.000566881	0.00060257	0	0	0	
0.0451667	0.00116426	0.0244203	0.000387149	0.000550706	0	0	0	
0.0453333	0.022172	-0.00326898	0.000524472	0.000555272	0	0	0	
0.0455	-0.0230125	0.00252119	0.000737228	0.000706906	0	0	0	
0.0456667	0.0140106	0.00618141	0.000729191	0.00064863	0	0	0	
0.0458333	-0.00481043	-0.00535792	0.000555268	0.0004435	0	0	0	
0.046	0.0117284	0.00442128	0.000450601	0.000152036	0	0	0	
0.0461667	-0.0172828	0.00853417	0.000498308	8.91456E-05	0	0	0	
0.0463333	0.00814838	-0.0147959	0.000558418	0.000153672	0	0	0	
0.0465	0.00717589	0.0368739	0.000534623	0.000440239	0	0	0	
0.0466667	0.000328923	-0.0136554	0.000498887	0.000549285	0	0	0	
0.0468333	-0.00867296	0.00359402	0.000536561	0.000506635	0	0	0	
0.047	0.0103664	0.0025109	0.000583635	0.000226812	0	0	0	
0.0471667	-0.0082028	0.00598806	0.000582997	0.000116508	0	0	0	
0.0473333	0.00587528	0.00474482	0.000550031	0.000120139	0	0	0	
0.0475	-0.00939476	-0.00562973	0.000539182	0.000119955	0	0	0	
0.0476667	0.00821257	0.0076011	0.000540667	0.000158538	0	0	0	
0.0478333	-0.0080267	0.0011065	0.000524844	0.00021472	0	0	0	
0.048	0.0083377	-0.0102761	0.000507832	0.000293779	0	0	0	
0.0481667	-0.0094364	0.00842293	0.000506845	0.000297135	0	0	0	
0.0483333	0.0120457	-0.0023487	0.000534782	0.000212005	0	0	0	
0.0485	-0.0154733	-0.000541288	0.000533857	0.000115275	0	0	0	
0.0486667	0.00485058	0.00652986	0.000451544	6.71084E-05	0	0	0	
0.0488333	0.00710077	-0.0143955	0.000321495	0.000108362	0	0	0	
0.049	-0.00149021	0.00771808	0.000318908	0.000172224	0	0	0	
0.0491667	-0.00859509	-0.00129888	0.000460013	0.000275111	0	0	0	
0.0493333	0.0125173	-0.0114089	0.000589074	0.000325363	0	0	0	
0.0495	-0.014547	0.0101734	0.00059351	0.000339189	0	0	0	
0.0496667	0.0183301	-0.00507486	0.000552756	0.000265695	0	0	0	
0.0498333	-0.0166568	-0.00220839	0.000525288	0.000163151	0	0	0	
0.05	0.00768669	0.00496142	0.000462567	0.00010999	0	0	0	
0.0501667	-0.000546083	-0.0102944	0.000362365	0.000100907	0	0	0	
0.0503333	0.00514362	0.00862128	0.000369476	0.000154559	0	0	0	
0.0505	-0.0136527	-0.000233005	0.000460846	0.00022235	0	0	0	
0.0506667	0.011846	-0.00695039	0.000551924	0.000313392	0	0	0	
0.0508333	-0.0104515	0.0072407	0.000543884	0.000340984	0	0	0	
0.051	0.0062093	-0.00506143	0.000500014	0.000300368	0	0	0	
0.0511667	-0.00623205	0.0108942	0.000462299	0.000256991	0	0	0	
0.0513333	0.00864492	-0.0121531	0.00047667	0.000242934	0	0	0	
0.0515	-0.0110055	0.00882839	0.000509919	0.00023531	0	0	0	
0.0516667	0.00891293	0.00416024	0.000530833	0.000197613	0	0	0	
0.0518333	-0.00843787	-0.0128991	0.000522253	0.000173235	0	0	0	
0.052	0.00951381	0.018112	0.000518909	0.000201661	0	0	0	
0.0521667	-0.00995124	-0.0148283	0.000509181	0.000277054	0	0	0	
0.0523333	0.00672033	0.00338284	0.000480895	0.000387283	0	0	0	
0.0525	-0.00502247	0.00915708	0.000445186	0.000486146	0	0	0	
0.0526667	0.0087825	-0.0152904	0.00044773	0.000507635	0	0	0	
0.0528333	-0.00935361	0.0107031	0.000479681	0.000423337	0	0	0	
0.053	0.0073031	-0.00327535	0.000495641	0.000270503	0	0	0	
0.0531667	-0.00539945	-8.88853E-05	0.0004813	0.000163768	0	0	0	
0.0533333	0.00761225	0.00209542	0.000476036	0.000104239	0	0	0	
0.0535	-0.0131063	-0.00556406	0.000503649	9.88685E-05	0	0	0	
0.0536667	0.0147544	0.006386	0.000529176	9.10218E-05	0	0	0	
0.0538333	-0.00995779	-0.00868074	0.000514066	0.000114604	0	0	0	
0.054	0.00768121	0.0120346	0.000481251	0.000158814	0	0	0	
0.0541667	-0.0107324	-0.0129565	0.00046906	0.000212458	0	0	0	
0.0543333	0.00749448	0.0094473	0.000468281	0.000263778	0	0	0	
0.0545	-0.00775704	0.00361763	0.000462726	0.000287627	0	0	0	
0.0546667	0.0113213	-0.00841022	0.000487232	0.000291045	0	0	0	
0.0548333	-0.0124454	0.00721259	0.000537711	0.000250983	0	0	0	
0.055	0.0117873	-0.00312083	0.000574292	0.000176657	0	0	0	
0.0551667	-0.00945561	-0.000332001	0.000559736	0.000126863	0	0	0	
0.0553333	0.00924434	0.00462498	0.000525189	0.000128636	0	0	0	
0.0555	-0.00765867	-0.00417056	0.000508102	0.000137358	0	0	0	
0.0556667	0.00851457	0.00329014	0.000504283	0.00015961	0	0	0	
0.0558333	-0.00859425	0.00349117	0.000500204	0.000206113	0	0	0	
0.056	0.00766157	-0.00815728	0.000482096	0.000271256	0	0	0	
0.0561667	-0.00725938	0.00719669	0.000458669	0.000280084	0	0	0	
0.0563333	0.0120267	-0.00545507	0.000453868	0.000204778	0	0	0	
0.0565	-0.00981787	-0.00221501	0.000479638	0.000142942	0	0	0	
0.0566667	0.0133189	0.0110403	0.000496885	0.000113491	0	0	0	
0.0568333	-0.0132813	-0.0137312	0.000504139	0.00016106	0	0	0	
0.057	0.0149737	0.00377049	0.000496171	0.000236322	0	0	0	
0.0571667	-0.0145261	0.00291362	0.000504083	0.00032433	0	0	0	
0.0573333	0.00986365	-0.00835886	0.000499063	0.0003229	0	0	0	
0.0575	-0.00563614	0.00459115	0.000493908	0.000259388	0	0	0	
0.0576667	0.00812856	-0.00070087	0.000501346	0.000165367	0	0	0	
0.0578333	-0.00804029	-0.00045481	0.000531177	0.00010224	0	0	0	
0.058	0.0134717	0.00121685	0.000561933	5.61078E-05	0	0	0	
0.0581667	-0.0144285	-0.00842596	0.000579854	6.1307E-05	0	0	0	
0.0583333	0.0101635	0.00679445	0.000551083	0.000115534	0	0	0	
0.0585	-0.00835386	-0.00207441	0.000494158	0.000185264	0	0	0	
0.0586667	0.00779101	-0.0011825	0.000462096	0.000186412	0	0	0	
0.0588333	-0.00840411	-3.18739E-05	0.000471506	0.000131249	0	0	0	
0.059	0.00788652	6.83054E-05	0.000487699	8.33688E-05	0	0	0	
0.0591667	-0.0097826	-0.00184768	0.000485612	9.33311E-05	0	0	0	
0.0593333	0.0137475	0.000482883	0.000501719	0.000130362	0	0	0	
0.0595	-0.0121175	-0.00576471	0.000520695	0.000165736	0	0	0	
0.0596667	0.00401231	0.000465753	0.000481677	0.000172802	0	0	0	
0.0598333	-0.00172509	0.00306118	0.000405624	0.000186061	0	0	0	
0.06	0.00651879	-0.0044305	0.000396267	0.00018516	0	0	0	
0.0601667	-0.0120854	0.00109317	0.000463633	0.000166447	0	0	0	
0.0603333	0.0118472	0.00315284	0.000535655	0.00011647	0	0	0	
0.0605	-0.00962127	-0.00712213	0.000546077	8.58097E-05	0	0	0	
0.0606667	0.0145128	0.00416596	0.000522829	9.01396E-05	0	0	0	
0.0608333	-0.0158765	-0.00129085	0.0005093	9.24031E-05	0	0	0	
0.061	0.0122994	0.00287388	0.000488375	9.47622E-05	0	0	0	
0.0611667	-0.00824633	0.000700657	0.000465322	0.000103944	0	0	0	
0.0613333	0.00617225	-0.00250315	0.000446017	0.000135828	0	0	0	
0.0615	-0.00672024	-0.00401604	0.000448269	0.000138769	0	0	0	
0.0616667	0.00300386	0.0300121	0.000438822	0.000196516	0	0	0	
0.0618333	0.00518658	-0.0358196	0.000386909	0.000365272	0	0	0	
0.062	0.00365757	0.00116501	0.000348027	0.000727699	0	0	0	
0.0621667	-0.00669303	0.0424605	0.000420927	0.00111397	0	0	0	
0.0623333	0.0158305	-0.0630173	0.000566894	0.00126538	0	0	0	
0.0625	-0.0178684	0.0466775	0.00066858	0.00118558	0	0	0	
0.0626667	0.0162728	-0.0127342	0.000618235	0.00108217	0	0	0	
0.0628333	-0.0119942	-0.0322444	0.000468254	0.00120093	0	0	0	
0.063	0.0138277	0.0666692	0.000364637	0.00130365	0	0	0	
0.0631667	-0.00528982	-0.0676465	0.000356383	0.00132027	0	0	0	
0.0633333	0.00820136	0.0253743	0.000441543	0.00126776	0	0	0	
0.0635	-0.0108345	0.00184952	0.000542671	0.00130764	0	0	0	
0.0636667	0.0170867	-0.0435831	0.000599985	0.00112417	0	0	0	
0.0638333	-0.0138956	0.0300895	0.000587153	0.000879223	0	0	0	
0.064	0.010374	-0.0189372	0.000504772	0.00056644	0	0	0	
0.0641667	-0.00982464	0.00874729	0.00043446	0.00045064	0	0	0	
0.0643333	0.00697075	-0.00416473	0.000416909	0.000339313	0	0	0	
0.0645	-0.00591895	-0.000215584	0.000452274	0.00028246	0	0	0	
0.0646667	0.0101239	-0.0135083	0.000515235	0.000329028	0	0	0	
0.0648333	-0.010559	-0.00532275	0.000568904	0.000370435	0	0	0	
0.065	0.0111597	0.0109339	0.000588593	0.000322408	0	0	0	
0.0651667	-0.0118047	-0.00697189	0.000565528	0.00025613	0	0	0	
0.0653333	0.0108345	-0.00231794	0.000525937	0.000246706	0	0	0	
0.0655	-0.00903057	0.00625555	0.000496989	0.000281717	0	0	0	
0.0656667	0.00723991	-0.00541713	0.000482449	0.000249214	0	0	0	
0.0658333	-0.00787722	0.0129764	0.000475881	0.000199292	0	0	0	
0.066	0.0105074	-0.0108831	0.000482635	0.000208959	0	0	0	
0.0661667	-0.0126342	0.00201229	0.000497585	0.000191742	0	0	0	
0.0663333	0.0129918	0.0087369	0.000502609	0.000192807	0	0	0	
0.0665	-0.00989533	-0.0125205	0.000479668	0.000173981	0	0	0	
0.0666667	0.00645381	0.0140352	0.000425883	0.000214225	0	0	0	
0.0668333	-0.00771345	-0.00334811	0.000382835	0.000241152	0	0	0	
0.067	0.0103934	-0.00381155	0.000402604	0.00030751	0	0	0	
0.0671667	-0.0131608	0.00888752	0.000472418	0.000341717	0	0	0	
0.0673333	0.0130569	-0.00826912	0.000520486	0.000316098	0	0	0	
0.0675	-0.0108536	0.00922042	0.000503183	0.000238016	0	0	0	
0.0676667	0.010175	-0.0040217	0.000454752	0.000171576	0	0	0	
0.0678333	-0.00982872	0.00162633	0.000437762	0.000166004	0	0	0	
0.068	0.00684747	0.00423385	0.000454758	0.000140672	0	0	0	
0.0681667	-0.0115481	-0.00297	0.00049191	0.000112432	0	0	0	
0.0683333	0.0144322	0.00469821	0.000530157	8.81842E-05	0	0	0	
0.0685	-0.0122638	-0.00288693	0.000538263	0.000100402	0	0	0	
0.0686667	0.00982003	-0.0022012	0.000504704	0.000133249	0	0	0	
0.0688333	-0.0108391	0.00636949	0.000457216	0.000172743	0	0	0	
0.069	0.0088672	-0.0122151	0.000449474	0.000206684	0	0	0	
0.0691667	-0.0122784	0.0124111	0.000478603	0.000231737	0	0	0	
0.0693333	0.0108767	-0.00661505	0.000505026	0.000211852	0	0	0	
0.0695	-0.00486664	0.00123137	0.00047753	0.000162208	0	0	0	
0.0696667	0.00595814	-0.00421181	0.000439889	0.000106651	0	0	0	
0.0698333	-0.0102426	0.00274656	0.00045185	8.9035E-05	0	0	0	
0.07	0.0117605	-0.0031497	0.000516591	0.000105113	0	0	0	
0.0701667	-0.0115556	0.00320417	0.000561958	0.000133439	0	0	0	
0.0703333	0.0107134	-0.00194435	0.000535562	0.000128704	0	0	0	
0.0705	-0.0103994	-0.00184298	0.000465914	0.000106213	0	0	0	
0.0706667	0.0109899	0.00300794	0.000409455	9.03412E-05	0	0	0	
0.0708333	-0.00778642	0.00257281	0.00039723	9.48408E-05	0	0	0	
0.071	0.00879578	-0.00167192	0.00041901	0.000105684	0	0	0	
0.0711667	-0.00973863	0.0036299	0.00046704	8.65353E-05	0	0	0	
0.0713333	0.0112573	-0.00154992	0.000505471	7.7789E-05	0	0	0	
0.0715	-0.0144932	0.00213643	0.000525294	6.89057E-05	0	0	0	
0.0716667	0.0128696	0.00024796	0.000512895	7.46091E-05	0	0	0	
0.0718333	-0.00908639	0.00151176	0.000483212	7.97482E-05	0	0	0	
0.072	0.0100783	-0.00251658	0.000473813	0.000117455	0	0	0	
0.0721667	-0.0127205	0.00383481	0.000495192	0.000158827	0	0	0	
0.0723333	0.0128811	0.0018067	0.000510079	0.000161047	0	0	0	
0.0725	-0.0100576	-0.00404647	0.000486247	0.000125162	0	0	0	
0.0726667	0.00790226	0.00471083	0.00044982	0.000104065	0	0	0	
0.0728333	-0.00965337	-0.00299241	0.000450497	0.000142221	0	0	0	
0.073	0.0128786	6.53329E-06	0.000482473	0.000184336	0	0	0	
0.0731667	-0.0151057	0.000599963	0.000516281	0.000184595	0	0	0	
0.0733333	0.0159058	0.000766711	0.000534938	0.000129211	0	0	0	
0.0735	-0.0131893	-2.02214E-05	0.000517026	7.60043E-05	0	0	0	
0.0736667	0.00901699	0.00807745	0.000454043	5.24482E-05	0	0	0	
0.0738333	-0.00973043	-0.0108781	0.000404378	0.000115891	0	0	0	
0.074	0.0115667	0.00338332	0.000424758	0.000216452	0	0	0	
0.0741667	-0.0099276	0.00353246	0.000476644	0.000310955	0	0	0	
0.0743333	0.00923094	-0.00560354	0.000498363	0.000293135	0	0	0	
0.0745	-0.0137068	0.0076954	0.000499045	0.00021656	0	0	0	
0.0746667	0.0171305	4.0117E-05	0.000517613	0.000132765	0	0	0	
0.0748333	-0.0150479	-0.00555707	0.000534138	0.000125473	0	0	0	
0.075	0.00821113	0.00726874	0.000507256	0.000140831	0	0	0	
0.0751667	-0.00670287	-0.00721156	0.000460216	0.000154085	0	0	0	
0.0753333	0.0101866	0.00114424	0.000453912	0.000154187	0	0	0	
0.0755	-0.0178776	0.00651984	0.000523929	0.000169468	0	0	0	
0.0756667	0.026221	-0.0100995	0.000636508	0.000216174	0	0	0	
0.0758333	-0.0235508	0.00417441	0.000686178	0.000233809	0	0	0	
0.076	0.0128587	0.00293734	0.000592375	0.000179642	0	0	0	
0.0761667	-0.00740956	-0.00968329	0.000435159	0.000144223	0	0	0	
0.0763333	0.00723514	0.0159442	0.000357564	0.000144126	0	0	0	
0.0765	-0.00883973	-0.0156562	0.000387421	0.000238698	0	0	0	
0.0766667	0.00740297	0.00502805	0.000468377	0.000321448	0	0	0	
0.0768333	-0.0108965	0.00253499	0.000576173	0.000396403	0	0	0	
0.077	0.0202127	-0.0143508	0.000684672	0.000387199	0	0	0	
0.0771667	-0.0225226	0.0171825	0.000712525	0.000345513	0	0	0	
0.0773333	0.0129885	-0.0112258	0.000619566	0.000292342	0	0	0	
0.0775	-0.0120987	-0.000377099	0.000497203	0.000326889	0	0	0	
0.0776667	0.0160899	0.00901049	0.000487164	0.000375315	0	0	0	
0.0778333	-0.0151203	-0.0135406	0.000536693	0.000360922	0	0	0	
0.078	0.010626	0.0114054	0.000549122	0.00030038	0	0	0	
0.0781667	-0.00918468	-0.00980204	0.000489395	0.000253932	0	0	0	
0.0783333	0.00936817	-0.000780766	0.000450356	0.000271649	0	0	0	
0.0785	-0.0114876	0.00887731	0.000473303	0.000304285	0	0	0	
0.0786667	0.0118661	-0.00908036	0.000524254	0.000264024	0	0	0	
0.0788333	-0.0190143	-0.0217806	0.000572446	0.00027165	0	0	0	
0.079	0.0211741	-0.0105831	0.000640722	0.000501374	0	0	0	
0.0791667	-0.019304	-0.00904802	0.000658719	0.000564699	0	0	0	
0.0793333	0.0116848	0.00652929	0.000597025	0.000526662	0	0	0	
0.0795	-0.00964213	-0.0041879	0.00047469	0.000296366	0	0	0	
0.0796667	0.00628396	-0.00526425	0.000389077	0.000282719	0	0	0	
0.0798333	-0.00702261	0.0100438	0.000385126	0.00029645	0	0	0	
0.08	0.0057856	-0.0587049	0.000487613	0.000351158	0	0	0	
0.0801667	-0.0103515	0.0250783	0.000603776	0.000577715	0	0	0	
0.0803333	0.012106	-0.00531566	0.000635058	0.000613136	0	0	0	
0.0805	-0.0132188	-0.0101881	0.000556248	0.000565131	0	0	0	
0.0806667	0.0133551	0.0107897	0.000474625	0.000298	0	0	0	
0.0808333	-0.0125547	-0.00655285	0.000456626	0.000235657	0	0	0	
0.081	0.0109451	0.00498534	0.000478779	0.00016754	0	0	0	
0.0811667	-0.0146179	-0.00621083	0.000498521	0.000154063	0	0	0	
0.0813333	0.017946	-0.00185052	0.000513914	0.000173712	0	0	0	
0.0815	-0.0170739	0.00473647	0.000499242	0.00018425	0	0	0	
0.0816667	0.012214	0.0011153	0.000473423	0.00014481	0	0	0	
0.0818333	-0.00637426	-0.00128588	0.000446885	9.75874E-05	0	0	0	
0.082	0.00347094	-0.0217365	0.000443644	0.000226053	0	0	0	
0.0821667	-0.0150125	-0.00574245	0.000430711	0.000503994	0	0	0	
0.0823333	0.010424	-0.00751172	0.000443654	0.000577673	0	0	0	
0.0825	-0.0102295	0.00373486	0.000445698	0.000448514	0	0	0	
0.0826667	0.00823416	0.000645226	0.000459686	0.000178024	0	0	0	
0.0828333	-0.011292	-0.00662951	0.000456346	9.92264E-05	0	0	0	
0.083	0.0186952	0.0184706	0.000484628	0.000128018	0	0	0	
0.0831667	-0.0312489	-0.0591822	0.000521029	0.000389017	0	0	0	
0.0833333	0.0132853	0.0115122	0.000548905	0.000498245	0	0	0	
0.0835	-0.010459	-0.0013237	0.00050927	0.000473707	0	0	0	
0.0836667	0.0128861	8.5565E-05	0.000476775	0.000218467	0	0	0	
0.0838333	-0.0120903	0.00225376	0.000442685	0.000111556	0	0	0	
0.084	0.0103385	-0.00273297	0.00046384	0.000102929	0	0	0	
0.0841667	-0.0111175	0.00582335	0.000500803	0.000130447	0	0	0	
0.0843333	0.0139397	-0.00304732	0.000535739	0.000147079	0	0	0	
0.0845	-0.0130203	-0.000725525	0.000540201	0.000104662	0	0	0	
0.0846667	0.0100442	0.00733486	0.000507183	8.01303E-05	0	0	0	
0.0848333	-0.00980888	-0.00878798	0.00047133	0.000127355	0	0	0	
0.085	0.0138835	0.0026497	0.000459156	0.000254407	0	0	0	
0.0851667	-0.0141384	0.00798105	0.000477954	0.000375479	0	0	0	
0.0853333	0.0122542	-0.0156866	0.000520132	0.000413194	0	0	0	
0.0855	-0.00983921	0.0134273	0.000552224	0.000373001	0	0	0	
0.0856667	0.0119935	-0.00445921	0.000544351	0.000282718	0	0	0	
0.0858333	-0.0143613	-0.0082424	0.000512231	0.000240457	0	0	0	
0.086	0.014941	0.0133579	0.000498914	0.000216345	0	0	0	
0.0861667	-0.0136395	-0.0115517	0.000504758	0.000239858	0	0	0	
0.0863333	0.0123897	0.00578947	0.000513726	0.000285601	0	0	0	
0.0865	-0.00998808	0.000861393	0.000503497	0.000355157	0	0	0	
0.0866667	0.0130722	-0.00966814	0.000490826	0.000388274	0	0	0	
0.0868333	-0.0127275	0.0104332	0.000487474	0.000350474	0	0	0	
0.087	0.012309	-0.00858676	0.000477368	0.000272785	0	0	0	
0.0871667	-0.0101143	0.00126423	0.00045498	0.000182793	0	0	0	
0.0873333	0.00804876	0.00212639	0.000441706	0.00010757	0	0	0	
0.0875	-0.00725498	-0.00570807	0.000475113	7.31316E-05	0	0	0	
0.0876667	0.0135313	0.00136057	0.000534436	9.66709E-05	0	0	0	
0.0878333	-0.0173644	0.000382458	0.000566746	0.000148786	0	0	0	
0.088	0.015185	-0.000347666	0.000544195	0.000172491	0	0	0	
0.0881667	-0.0123194	7.88377E-05	0.000501024	0.000149479	0	0	0	
0.0883333	0.0100513	0.00101325	0.000487545	9.31226E-05	0	0	0	
0.0885	-0.00984469	-0.00572433	0.000486199	6.30158E-05	0	0	0	
0.0886667	0.0110969	0.00689288	0.000476735	7.84724E-05	0	0	0	
0.0888333	-0.0123954	-0.00502974	0.000463893	0.000131387	0	0	0	
0.089	0.012449	0.00264084	0.000468639	0.000185094	0	0	0	
0.0891667	-0.0148777	0.00450407	0.000466948	0.000196842	0	0	0	
0.0893333	0.00947221	-0.00473532	0.000449846	0.000167367	0	0	0	
0.0895	-0.0102337	0.00397492	0.000444487	0.000117092	0	0	0	
0.0896667	0.0146333	-0.000262403	0.000493145	7.06433E-05	0	0	0	
0.0898333	-0.0165956	0.000546059	0.000539905	4.09187E-05	0	0	0	
0.09	0.0142279	0.00108552	0.000561136	3.1551E-05	0	0	0	
0.0901667	-0.0202001	0.00236785	0.000546756	4.91978E-05	0	0	0	
0.0903333	0.0147481	-0.00190184	0.000540102	6.555E-05	0	0	0	
0.0905	-0.00897002	-0.000175766	0.000493102	5.35312E-05	0	0	0	
0.0906667	0.0059985	0.00295139	0.000453182	3.92365E-05	0	0	0	
0.0908333	-0.0104411	-0.000738245	0.000439248	3.8654E-05	0	0	0	
0.091	0.00978325	0.000711626	0.000482641	8.04435E-05	0	0	0	
0.0911667	-0.0119335	-0.00027845	0.000502347	0.000124621	0	0	0	
0.0913333	0.0134803	-0.00291633	0.000498411	0.000149674	0	0	0	
0.0915	-0.0148402	0.00604923	0.000484612	0.000143957	0	0	0	
0.0916667	0.0157562	-0.00381616	0.000476501	0.000119299	0	0	0	
0.0918333	-0.0132112	0.000664783	0.00045537	9.26763E-05	0	0	0	
0.092	0.0131661	0.000910328	0.000442032	7.42672E-05	0	0	0	
0.0921667	-0.0164706	-0.00254798	0.000460787	5.42188E-05	0	0	0	
0.0923333	0.0143952	-0.000140949	0.000485544	6.57211E-05	0	0	0	
0.0925	-0.0116037	0.0047558	0.00048822	8.44564E-05	0	0	0	
0.0926667	0.0142257	-0.00213796	0.000475704	0.00011137	0	0	0	
0.0928333	-0.0121568	-0.000335578	0.000479811	9.92033E-05	0	0	0	
0.093	0.0137515	0.000520505	0.000492198	8.50787E-05	0	0	0	
0.0931667	-0.0153948	-0.00151688	0.000520169	9.64175E-05	0	0	0	
0.0933333	0.0147091	0.000606953	0.000539367	0.000155703	0	0	0	
0.0935	-0.0171083	0.00477	0.000532888	0.000235515	0	0	0	
0.0936667	0.0148311	-0.00791253	0.000496827	0.000284652	0	0	0	
0.0938333	-0.00740072	0.0072723	0.000456226	0.000243652	0	0	0	
0.094	0.00969554	0.000602565	0.000456778	0.000182057	0	0	0	
0.0941667	-0.0150488	-0.00579475	0.000487251	0.00011915	0	0	0	
0.0943333	0.0168099	0.00340778	0.000525902	0.000108514	0	0	0	
0.0945	-0.0174293	-0.002753	0.000543903	9.99586E-05	0	0	0	
0.0946667	0.0168024	0.00271242	0.000532523	9.24634E-05	0	0	0	
0.0948333	-0.0106564	8.27961E-05	0.000497378	9.6944E-05	0	0	0	
0.095	0.00759762	-0.00519703	0.000461961	9.97986E-05	0	0	0	
0.0951667	-0.0116882	0.00168651	0.000462593	9.78619E-05	0	0	0	
0.0953333	0.0164244	0.00102314	0.000496681	8.07098E-05	0	0	0	
0.0955	-0.0160539	-0.00025121	0.000541009	9.76128E-05	0	0	0	
0.0956667	0.0180496	-0.00783157	0.000556241	0.000156168	0	0	0	
0.0958333	-0.0143397	0.00786918	0.000565575	0.000221001	0	0	0	
0.096	0.0108212	-0.00785344	0.000557332	0.000238838	0	0	0	
0.0961667	-0.00833664	0.0056789	0.000548108	0.000246606	0	0	0	
0.0963333	0.0127052	-0.00976743	0.000540313	0.000250311	0	0	0	
0.0965	-0.0167142	0.00654736	0.000564125	0.000239789	0	0	0	
0.0966667	0.0156153	-0.00510919	0.000585982	0.000182229	0	0	0	
0.0968333	-0.0134074	-0.0041393	0.000571614	0.000122121	0	0	0	
0.097	0.013023	0.00799932	0.000526747	9.6429E-05	0	0	0	
0.0971667	-0.0131332	-0.00933866	0.000474794	0.000129279	0	0	0	
0.0973333	0.0154632	0.00348642	0.000426816	0.000209166	0	0	0	
0.0975	-0.0079337	0.000678793	0.000379859	0.000283283	0	0	0	
0.0976667	0.00224828	-0.00636823	0.000352153	0.000309422	0	0	0	
0.0978333	-0.00822516	0.00918075	0.000406106	0.000276342	0	0	0	
0.098	0.0155409	-0.00860131	0.00049784	0.000223044	0	0	0	
0.0981667	-0.0142545	-0.00115476	0.000557378	0.00015362	0	0	0	
0.0983333	0.0146531	0.00451918	0.000559547	0.000104262	0	0	0	
0.0985	-0.0156459	-0.00160002	0.000577314	0.000100909	0	0	0	
0.0986667	0.0186829	-0.00272117	0.000595676	0.000139065	0	0	0	
0.0988333	-0.00321207	0.00207916	0.000553056	0.000171589	0	0	0	
0.099	0.00233024	-0.00230235	0.000490832	0.000175494	0	0	0	
0.0991667	-0.0180114	0.00740108	0.000566513	0.000183471	0	0	0	
0.0993333	0.0279807	-0.00378492	0.000718938	0.000164189	0	0	0	
0.0995	-0.0108934	-0.0130738	0.000788664	0.000144236	0	0	0	
0.0996667	0.00940856	0.0223227	0.000580586	0.0002356	0	0	0	
0.0998333	0.0144411	-0.000374081	0.000340013	0.000523931	0	0	0	
0.1	0.0100453	-0.015946	0.000321827	0.00079396	0	0	0	
0.100167	-0.114285	0.036694	0.000975156	0.000748707	0	0	0	
0.100333	0.0966351	-0.0197053	0.00194949	0.000740694	0	0	0	
0.1005	-0.0308166	-0.0132842	0.00211704	0.000819759	0	0	0	
0.100667	-0.0270852	0.0663393	0.00160542	0.00118745	0	0	0	
0.100833	0.0143462	-0.0849857	0.000755826	0.00130681	0	0	0	
0.101	0.00429055	0.0271683	0.000673221	0.00144369	0	0	0	
0.101167	0.00392859	0.0706031	0.000687121	0.00196405	0	0	0	
0.101333	-0.0570903	-0.20195	0.00100942	0.00259229	0	0	0	
0.1015	-0.0204646	0.344971	0.00122924	0.00382513	0	0	0	
0.101667	0.011459	-0.162738	0.00131348	0.00421741	0	0	0	
0.101833	0.0170918	0.0426454	0.00095932	0.00430736	0	0	0	
0.102	-0.0111143	0.0351581	0.000521216	0.00327397	0	0	0	
0.102167	-0.0084738	-0.0529539	0.000410579	0.00227231	0	0	0	
0.102333	0.0541744	0.0404828	0.000628809	0.00138703	0	0	0	
0.1025	-0.0871309	0.07729	0.00108086	0.00163052	0	0	0	
0.102667	0.0310575	-0.0185281	0.00129413	0.00261496	0	0	0	
0.102833	0.0134266	0.0648919	0.00111921	0.00318813	0	0	0	
0.103	-0.00077739	-0.0442342	0.000707865	0.00272286	0	0	0	
0.103167	-0.017944	0.0762647	0.00049259	0.00180427	0	0	0	
0.103333	0.0357063	-0.0437432	0.000484118	0.00172219	0	0	0	
0.1035	-0.0183946	0.0562602	0.000542545	0.00150429	0	0	0	
0.103667	0.00186427	-0.0330305	0.000473232	0.00134361	0	0	0	
0.103833	-0.0148846	-0.0050963	0.000517319	0.000926638	0	0	0	
0.104	0.0306854	0.0361179	0.000588979	0.000883783	0	0	0	
0.104167	-0.0265428	-0.0422463	0.000702829	0.000799602	0	0	0	
0.104333	0.016921	0.0389714	0.000655163	0.000866434	0	0	0	
0.1045	-0.00931354	-0.00220726	0.000600303	0.00106807	0	0	0	
0.104667	0.0104399	-0.023738	0.000572006	0.0011403	0	0	0	
0.104833	-0.0127326	0.02825	0.000572236	0.000926703	0	0	0	
0.105	0.0168702	-0.0165222	0.000563552	0.000599339	0	0	0	
0.105167	-0.0234661	-0.00203029	0.000625399	0.000488636	0	0	0	
0.105333	0.025933	0.0243474	0.000711113	0.000468141	0	0	0	
0.1055	-0.0170007	-0.028623	0.000675001	0.00051217	0	0	0	
0.105667	0.00301926	0.0223548	0.000472243	0.00049786	0	0	0	
0.105833	-0.00616085	-0.00926146	0.00026154	0.000491678	0	0	0	
0.106	0.0128041	-0.00654716	0.00020874	0.000519138	0	0	0	
0.106167	-0.00198378	0.0160259	0.000263128	0.000522511	0	0	0	
0.106333	0.00173649	-0.0148326	0.000397732	0.000473522	0	0	0	
0.1065	-0.0204899	0.0118362	0.000574598	0.000366175	0	0	0	
0.106667	0.0235953	-0.00670222	0.000684143	0.000261626	0	0	0	
0.106833	-0.015235	0.0051554	0.000654617	0.000179712	0	0	0	
0.107	0.0186769	0.00043434	0.000545042	0.000124994	0	0	0	
0.107167	-0.0187533	-0.00259362	0.000512741	9.02302E-05	0	0	0	
0.107333	0.0198823	0.00332971	0.000496875	0.000100602	0	0	0	
0.1075	-0.00558343	-0.00192196	0.000479863	0.000113503	0	0	0	
0.107667	0.000707598	0.00594674	0.000419973	0.000126869	0	0	0	
0.107833	-0.0128625	-0.00562306	0.000428246	0.000127825	0	0	0	
0.108	0.0211875	0.00230556	0.000445389	0.000150773	0	0	0	
0.108167	-0.0157446	0.00334867	0.000468409	0.000170539	0	0	0	
0.108333	0.0120326	-0.00508862	0.000436836	0.000147926	0	0	0	
0.1085	-0.0130478	0.000694882	0.000414484	0.000113077	0	0	0	
0.108667	0.0111061	0.000909296	0.000399654	6.03214E-05	0	0	0	
0.108833	-0.011726	0.00210354	0.000382704	7.79897E-05	0	0	0	
0.109	-0.0001098	0.00262091	0.000369408	8.06814E-05	0	0	0	
0.109167	-0.00707342	-0.00750711	0.000433228	0.000117448	0	0	0	
0.109333	0.0162605	0.000179796	0.000554421	0.000139707	0	0	0	
0.1095	-0.0220391	0.00555095	0.000601971	0.000186924	0	0	0	
0.109667	0.0123472	-0.0035935	0.000540863	0.000178346	0	0	0	
0.109833	-0.0125934	-0.00497544	0.000482835	0.000134902	0	0	0	
0.11	0.0199465	0.00780323	0.000498281	0.000109974	0	0	0	
0.110167	-0.0210329	0.000754006	0.000503327	0.000142933	0	0	0	
0.110333	0.00715731	-0.00334327	0.000446924	0.000185549	0	0	0	
0.1105	-0.00110196	0.00288616	0.000311384	0.000149313	0	0	0	
0.110667	0.00516643	0.00273707	0.000275792	0.00011317	0	0	0	
0.110833	-0.00677637	-0.00712439	0.000347429	8.59615E-05	0	0	0	
0.111	0.0105802	0.00234742	0.000487506	9.79087E-05	0	0	0	
0.111167	-0.00967405	-0.00201669	0.000563973	0.000108451	0	0	0	
0.111333	0.0120592	0.00499777	0.000560872	0.000128703	0	0	0	
0.1115	-0.0108594	0.00216597	0.000518908	0.000173992	0	0	0	
0.111667	0.0154994	-0.0112528	0.000458423	0.000213732	0	0	0	
0.111833	-0.00913668	0.0109333	0.000426674	0.000224562	0	0	0	
0.112	0.0112364	-0.00660795	0.000409634	0.000207694	0	0	0	
0.112167	-0.0157813	-0.0019073	0.000419088	0.000185816	0	0	0	
0.112333	0.0189043	0.00396373	0.000423332	0.000191665	0	0	0	
0.1125	-0.0118954	-0.00812861	0.000421557	0.000188608	0	0	0	
0.112667	0.0171861	0.00838594	0.000430289	0.000163393	0	0	0	
0.112833	-0.00480325	-0.00941136	0.000471493	0.000153896	0	0	0	
0.113	0.0160999	0.00419763	0.00050795	0.000188185	0	0	0	
0.113167	-0.0192674	0.0113388	0.000547098	0.000270984	0	0	0	
0.113333	0.011369	-0.0150481	0.000529917	0.000320215	0	0	0	
0.1135	-0.00580394	0.00557087	0.000507163	0.000298934	0	0	0	
0.113667	0.0099112	-0.00273419	0.000501058	0.000222425	0	0	0	
0.113833	-0.00789472	0.00966812	0.000520349	0.0001765	0	0	0	
0.114	0.0135212	-0.00720897	0.000515847	0.000165367	0	0	0	
0.114167	-0.0110843	0.00337387	0.00048459	0.000180569	0	0	0	
0.114333	0.0132631	0.00451687	0.000442774	0.000161079	0	0	0	
0.1145	-0.0187431	-0.00792854	0.000436363	0.000146951	0	0	0	
0.114667	0.0111468	0.00963529	0.000426128	0.00015163	0	0	0	
0.114833	-0.00838147	-0.00997823	0.000430942	0.00016217	0	0	0	
0.115	0.0148947	0.00735107	0.000489052	0.000182353	0	0	0	
0.115167	-0.0187816	0.00478324	0.00052979	0.00023545	0	0	0	
0.115333	0.0178503	-0.00914937	0.000524529	0.000297436	0	0	0	
0.1155	-0.0159181	0.00331089	0.000471401	0.000300177	0	0	0	
0.115667	0.0159669	0.00262894	0.000429506	0.000203147	0	0	0	
0.115833	-0.01139	0.000230412	0.000385173	0.00010068	0	0	0	
0.116	0.00814596	-0.00253159	0.000329626	8.54121E-05	0	0	0	
0.116167	-0.00944307	-0.00224144	0.000318376	0.000120673	0	0	0	
0.116333	0.0180244	0.00361424	0.000420356	0.000161512	0	0	0	
0.1165	-0.0217136	0.000501847	0.000567204	0.000179317	0	0	0	
0.116667	0.0237213	-0.00315868	0.000650206	0.000167417	0	0	0	
0.116833	-0.0279942	0.00271011	0.000662537	0.000127871	0	0	0	
0.117	0.0268927	-0.00130224	0.000653573	8.11188E-05	0	0	0	
0.117167	-0.0223186	0.000933172	0.000630444	8.52243E-05	0	0	0	
0.117333	0.0127359	-0.00557626	0.000561924	0.00011053	0	0	0	
0.1175	-0.00439219	0.00346316	0.000489726	0.000130347	0	0	0	
0.117667	0.00868499	0.00068375	0.000493745	9.83492E-05	0	0	0	
0.117833	-0.0207744	-0.000194576	0.000551312	7.18771E-05	0	0	0	
0.118	0.0161043	-0.000409817	0.000591514	5.59635E-05	0	0	0	
0.118167	-0.0197936	-0.00640688	0.000539904	7.69404E-05	0	0	0	
0.118333	0.016174	0.00562465	0.000492346	0.000124009	0	0	0	
0.1185	-0.00669264	0.00228162	0.000433541	0.000188179	0	0	0	
0.118667	0.00404659	-0.00509236	0.000434516	0.000207961	0	0	0	
0.118833	-0.012634	-0.0021643	0.000505533	0.000191483	0	0	0	
0.119	0.0231523	0.00477601	0.000637532	0.000174655	0	0	0	
0.119167	-0.0290947	-0.00167114	0.000712542	0.000134244	0	0	0	
0.119333	0.0209031	-0.00243454	0.000692685	9.464E-05	0	0	0	
0.1195	-0.0178734	0.0002271	0.000603043	5.61952E-05	0	0	0	
0.119667	0.0125798	-0.00210008	0.000532981	5.77797E-05	0	0	0	
0.119833	-0.00212581	0.00706383	0.000423175	8.0258E-05	0	0	0	
0.12	0.00227615	-0.0102611	0.000366169	0.000105668	0	0	0	
0.120167	-0.0142204	0.00275215	0.000413585	0.000140338	0	0	0	
0.120333	0.0208315	0.00100333	0.000540864	0.000127372	0	0	0	
0.1205	-0.0205042	0.00344628	0.000622511	0.000138626	0	0	0	
0.120667	0.0140426	-0.011219	0.000580501	0.000178759	0	0	0	
0.120833	-0.0097	0.00961558	0.000480307	0.000257328	0	0	0	
0.121	0.0141762	-0.00508283	0.000427178	0.000233179	0	0	0	
0.121167	-0.0177508	0.00184385	0.000463077	0.000165242	0	0	0	
0.121333	0.0164845	-0.00113326	0.000508893	7.50808E-05	0	0	0	
0.1215	-0.010783	-0.00336746	0.000525256	4.39482E-05	0	0	0	
0.121667	0.0107786	0.00812335	0.000501864	7.3374E-05	0	0	0	
0.121833	-0.0155428	-0.00766526	0.000497526	0.000141982	0	0	0	
0.122	0.0174653	0.00228944	0.000494334	0.000203501	0	0	0	
0.122167	-0.0120612	0.00166051	0.000482248	0.000218683	0	0	0	
0.122333	0.0119818	-0.0032553	0.000464506	0.000206878	0	0	0	
0.1225	-0.0093874	0.00078277	0.000479487	0.000202718	0	0	0	
0.122667	0.0124772	-0.0053196	0.000498825	0.000203839	0	0	0	
0.122833	-0.00894743	0.00805718	0.000515297	0.000190303	0	0	0	
0.123	0.016861	-0.00462325	0.00050329	0.000164488	0	0	0	
0.123167	-0.0185375	-0.00677691	0.000503401	0.000122304	0	0	0	
0.123333	0.0132836	0.0100245	0.00049657	0.000144651	0	0	0	
0.1235	-0.0108305	-0.00240546	0.000496801	0.00022077	0	0	0	
0.123667	0.0170395	-0.00491762	0.00050199	0.000322671	0	0	0	
0.123833	-0.0119607	0.0118487	0.000493144	0.000361771	0	0	0	
0.124	0.0101327	-0.0159906	0.000447117	0.000345714	0	0	0	
0.124167	-0.0114412	0.0104017	0.000411541	0.000293617	0	0	0	
0.124333	0.0172688	0.00586465	0.000431959	0.000261327	0	0	0	
0.1245	-0.0153953	-0.0170619	0.000476877	0.000233069	0	0	0	
0.124667	0.0106289	0.0147073	0.000468762	0.000258251	0	0	0	
0.124833	-0.00942058	-0.00114095	0.000443954	0.00028289	0	0	0	
0.125	0.0146982	-0.00419422	0.000460356	0.000311279	0	0	0	
0.125167	-0.0221256	0.00415547	0.000483207	0.000287186	0	0	0	
0.125333	0.0165364	0.000169228	0.000493645	0.000233413	0	0	0	
0.1255	-0.0160014	0.00261566	0.000475599	0.000159108	0	0	0	
0.125667	0.0183311	-0.000264474	0.000529698	0.000112997	0	0	0	
0.125833	-0.020499	0.000627897	0.000576875	9.65698E-05	0	0	0	
0.126	0.0175158	-0.000321523	0.000600113	9.99568E-05	0	0	0	
0.126167	-0.0175397	-0.000599297	0.000554953	0.000102394	0	0	0	
0.126333	0.0171035	0.00156323	0.000519787	0.000109073	0	0	0	
0.1265	-0.0211618	0.000708919	0.000502331	9.47882E-05	0	0	0	
0.126667	0.0162967	0.00494277	0.000513102	8.1322E-05	0	0	0	
0.126833	-0.0129021	-0.00330681	0.000486983	6.99539E-05	0	0	0	
0.127	0.0142323	-0.00126763	0.000483697	6.92603E-05	0	0	0	
0.127167	-0.0205687	-0.00621335	0.000497623	7.95505E-05	0	0	0	
0.127333	0.0221424	0.0112769	0.0005466	0.000109251	0	0	0	
0.1275	-0.0175252	-0.00566801	0.000562281	0.000145867	0	0	0	
0.127667	0.0165224	-0.00232025	0.000553843	0.000167423	0	0	0	
0.127833	-0.0172934	0.00534951	0.000557076	0.000166953	0	0	0	
0.128	0.018065	-0.00641908	0.000561979	0.000188339	0	0	0	
0.128167	-0.0175054	0.0056785	0.000561461	0.000212837	0	0	0	
0.128333	0.0158002	-0.00696397	0.000566526	0.000191057	0	0	0	
0.1285	-0.0192509	0.00385435	0.000587527	0.000150863	0	0	0	
0.128667	0.0188633	-0.00188003	0.000597574	0.000128669	0	0	0	
0.128833	-0.0142034	-0.00250885	0.000549722	0.000130316	0	0	0	
0.129	0.0126872	0.0033639	0.000485492	0.000107187	0	0	0	
0.129167	-0.0158175	-0.00426319	0.000457539	0.000111458	0	0	0	
0.129333	0.0147238	-0.00554399	0.00047224	0.000164916	0	0	0	
0.1295	-0.00740242	0.0187067	0.000486146	0.000243885	0	0	0	
0.129667	-0.00438692	-0.0579192	0.000529703	0.000370962	0	0	0	
0.129833	-0.00927173	0.0116665	0.000597314	0.000655406	0	0	0	
0.13	0.0163216	-0.0015806	0.000633326	0.000645471	0	0	0	
0.130167	-0.0174787	-0.00712838	0.000591302	0.000480947	0	0	0	
0.130333	0.0205329	0.007181	0.000535795	0.000152145	0	0	0	
0.1305	-0.0145837	-0.00281307	0.000511424	0.000142185	0	0	0	
0.130667	0.00957008	-0.0250748	0.000477344	0.000306929	0	0	0	
0.130833	-0.0149407	0.00332878	0.000392957	0.000657876	0	0	0	
0.131	0.014764	-0.0209555	0.000377249	0.0007397	0	0	0	
0.131167	-0.013162	-0.00169278	0.000415765	0.000652282	0	0	0	
0.131333	0.0129594	0.0150567	0.000482402	0.000351597	0	0	0	
0.1315	-0.0107725	-0.00986112	0.000455709	0.0002785	0	0	0	
0.131667	0.0144033	-0.000738573	0.000408754	0.000317858	0	0	0	
0.131833	-0.0128923	0.00639397	0.000418376	0.000368263	0	0	0	
0.132	0.0151748	-0.017473	0.000486436	0.000431691	0	0	0	
0.132167	-0.0135119	0.0229281	0.000540422	0.000417207	0	0	0	
0.132333	0.0154555	-0.0134353	0.000536818	0.000400017	0	0	0	
0.1325	-0.0212937	-0.00714279	0.000518223	0.000425183	0	0	0	
0.132667	0.0196257	0.0228448	0.000514222	0.000430916	0	0	0	
0.132833	-0.0142747	-0.0234487	0.000503315	0.000433663	0	0	0	
0.133	0.0154179	0.010601	0.000519115	0.000411379	0	0	0	
0.133167	-0.021275	0.0030794	0.000555128	0.000451402	0	0	0	
0.133333	0.0152492	-0.0099197	0.000573433	0.000472351	0	0	0	
0.1335	-0.0092982	0.0105472	0.000511729	0.000440013	0	0	0	
0.133667	0.0109309	-0.00650278	0.000449608	0.000326445	0	0	0	
0.133833	-0.021327	0.00559983	0.000431905	0.000211033	0	0	0	
0.134	0.0167284	-0.00364242	0.000475112	0.000131687	0	0	0	
0.134167	-0.00916088	-0.00123046	0.000473436	9.69722E-05	0	0	0	
0.134333	0.0120271	0.00347141	0.000474093	8.50954E-05	0	0	0	
0.1345	-0.0180124	-0.00379676	0.000475902	8.97451E-05	0	0	0	
0.134667	0.0172417	0.00114853	0.000492625	0.000114842	0	0	0	
0.134833	-0.015322	0.000108861	0.000481287	0.000134512	0	0	0	
0.135	0.0154791	0.0049676	0.000476515	0.000144656	0	0	0	
0.135167	-0.0186364	-0.0094188	0.000486091	0.00016978	0	0	0	
0.135333	0.0169698	0.0024223	0.00048923	0.000234356	0	0	0	
0.1355	-0.00242036	0.0280552	0.000443504	0.000378534	0	0	0	
0.135667	-0.0100599	-0.00371712	0.00043959	0.000761038	0	0	0	
0.135833	-0.003678	0.0254857	0.000471757	0.00083144	0	0	0	
0.136	0.0243043	-0.0101258	0.000613247	0.000731422	0	0	0	
0.136167	-0.024953	0.00344498	0.000707678	0.000372467	0	0	0	
0.136333	0.0211694	0.00600381	0.000723242	0.000229918	0	0	0	
0.1365	-0.01297	-0.00908757	0.000597046	0.00017125	0	0	0	
0.136667	0.000389009	0.0231792	0.000370498	0.000267233	0	0	0	
0.136833	-0.00482677	-0.000772575	0.000289899	0.000573237	0	0	0	
0.137	0.00661714	-0.0013004	0.000236864	0.000683209	0	0	0	
0.137167	-0.00793867	0.00786593	0.000378153	0.000607996	0	0	0	
0.137333	0.0182225	-0.00544846	0.000454048	0.000347407	0	0	0	
0.1375	-0.0205324	0.00679226	0.000558977	0.000267082	0	0	0	
0.137667	0.0165085	-0.0103343	0.000542211	0.000224835	0	0	0	
0.137833	-0.0100843	0.00917535	0.000487064	0.000227556	0	0	0	
0.138	0.0214072	-0.0142151	0.000493596	0.000228284	0	0	0	
0.138167	-0.044227	0.0114745	0.000645	0.000238159	0	0	0	
0.138333	0.0371483	0.00395695	0.000838091	0.000209705	0	0	0	
0.1385	-0.0185933	-0.0262225	0.000790697	0.000261887	0	0	0	
0.138667	0.00772978	0.030927	0.000571786	0.000364581	0	0	0	
0.138833	-0.0146679	-0.028802	0.000362869	0.000485823	0	0	0	
0.139	0.0135264	0.016761	0.00037271	0.000601414	0	0	0	
0.139167	-0.0113506	0.00401633	0.000470538	0.00069777	0	0	0	
0.139333	0.0117903	-0.0236282	0.000619578	0.000780873	0	0	0	
0.1395	-0.0285579	0.0355614	0.000715227	0.000719642	0	0	0	
0.139667	0.0305342	-0.0331948	0.000763467	0.00068238	0	0	0	
0.139833	-0.0258496	0.00681856	0.000694709	0.00068453	0	0	0	
0.14	0.0194113	0.0209202	0.000629405	0.000754245	0	0	0	
0.140167	-0.0160365	-0.0298539	0.000565184	0.00070267	0	0	0	
0.140333	0.01728	0.0252351	0.000543634	0.000590246	0	0	0	
0.1405	-0.0213017	-0.0101014	0.000552365	0.000530251	0	0	0	
0.140667	0.0128331	-0.00705835	0.000560758	0.000527224	0	0	0	
0.140833	-0.0121307	0.0284929	0.000538716	0.000464114	0	0	0	
0.141	0.0172926	-0.0144961	0.000547938	0.000486462	0	0	0	
0.141167	-0.0191664	0.00668937	0.000589311	0.000372474	0	0	0	
0.141333	0.0187632	-0.003344	0.000601246	0.000312575	0	0	0	
0.1415	-0.0123437	0.00430969	0.000521791	0.000137392	0	0	0	
0.141667	0.00476672	-0.00683586	0.000423196	0.000132756	0	0	0	
0.141833	-0.00886982	0.0122171	0.000403787	0.000196048	0	0	0	
0.142	0.0151462	-0.00187498	0.000460948	0.000346944	0	0	0	
0.142167	-0.0150436	0.00745722	0.000544661	0.000348771	0	0	0	
0.142333	0.0217808	-0.00479548	0.000593225	0.000295764	0	0	0	
0.1425	-0.0209644	-0.00112685	0.000603843	0.000166503	0	0	0	
0.142667	0.0154973	0.00626066	0.000555747	0.000110154	0	0	0	
0.142833	-0.00939128	-0.00687124	0.000480702	0.000140198	0	0	0	
0.143	0.00614787	-0.00128306	0.000404503	0.000205987	0	0	0	
0.143167	-0.0106148	0.0123776	0.000367437	0.000337403	0	0	0	
0.143333	0.0110309	-0.020056	0.000388392	0.000412003	0	0	0	
0.1435	-0.0145046	0.0151694	0.00042825	0.000419145	0	0	0	
0.143667	0.0125997	-0.00502618	0.000463849	0.000323327	0	0	0	
0.143833	-0.0141743	-0.0114714	0.000460995	0.000242322	0	0	0	
0.144	0.0154162	0.0224413	0.000442775	0.000229917	0	0	0	
0.144167	-0.019575	-0.0200371	0.000422898	0.000318042	0	0	0	
0.144333	0.0142799	0.00669661	0.000451776	0.000395811	0	0	0	
0.1445	-0.0220906	0.000409098	0.000507317	0.000395788	0	0	0	
0.144667	0.0277583	-0.00157229	0.000598494	0.000301791	0	0	0	
0.144833	-0.0222419	0.00638173	0.00059161	0.000233873	0	0	0	
0.145	0.012469	-0.0277286	0.00050205	0.000326648	0	0	0	
0.145167	-0.0116074	0.0209708	0.000418161	0.000501799	0	0	0	
0.145333	0.00602126	-0.0157956	0.000389455	0.000510144	0	0	0	
0.1455	-0.0142757	-0.00276931	0.000473768	0.000387286	0	0	0	
0.145667	0.0166793	0.0124894	0.000508032	0.000221767	0	0	0	
0.145833	-0.0186912	-0.0174992	0.000536339	0.00025943	0	0	0	
0.146	0.0353854	0.0196993	0.000531541	0.000370703	0	0	0	
0.146167	-0.0406419	-0.0238855	0.00064021	0.000625606	0	0	0	
0.146333	0.0203638	-0.00743393	0.000679438	0.000728858	0	0	0	
0.1465	-0.0142441	0.0123523	0.000636516	0.000700588	0	0	0	
0.146667	0.0125365	-0.0125193	0.000472263	0.000580762	0	0	0	
0.146833	-0.0234829	-0.0178967	0.000423592	0.000604001	0	0	0	
0.147	0.0232763	0.00789525	0.000472038	0.000525841	0	0	0	
0.147167	-0.017041	-0.00806399	0.000509058	0.000401026	0	0	0	
0.147333	0.0154955	0.00276512	0.000500027	0.000239932	0	0	0	
0.1475	-0.0186767	-0.0040388	0.000482665	0.000248451	0	0	0	
0.147667	0.0218986	0.0252287	0.000490063	0.000322712	0	0	0	
0.147833	-0.0197517	-0.0365632	0.000490451	0.000570942	0	0	0	
0.148	0.0116158	0.00591023	0.000446585	0.000555769	0	0	0	
0.148167	-0.0103204	0.00152921	0.000407735	0.000529166	0	0	0	
0.148333	0.0145794	-0.00395553	0.000418431	0.000275556	0	0	0	
0.1485	-0.018325	-0.0019627	0.000489312	0.000224539	0	0	0	
0.148667	0.0243227	0.0124013	0.000563825	0.000162006	0	0	0	
0.148833	-0.0273111	0.00141133	0.000583079	0.000149547	0	0	0	
0.149	0.0194781	0.000133931	0.000551253	0.000207316	0	0	0	
0.149167	-0.0130734	0.00378786	0.000488232	0.000217718	0	0	0	
0.149333	0.0170518	0.000638366	0.000451577	0.000168031	0	0	0	
0.1495	-0.0173221	-0.00442462	0.000451962	0.000102992	0	0	0	
0.149667	0.0178845	0.00290191	0.000476257	0.000107779	0	0	0	
0.149833	-0.0199668	-0.00155434	0.00047935	0.000193074	0	0	0	
0.15	0.0132091	0.00197946	0.000474941	0.000253343	0	0	0	
0.150167	-0.014682	0.000557435	0.000453668	0.000246243	0	0	0	
0.150333	0.0174056	-0.00696628	0.000477265	0.000214563	0	0	0	
0.1505	-0.011773	0.0110573	0.000502165	0.00021292	0	0	0	
0.150667	0.0124663	-0.00660381	0.000540555	0.00021885	0	0	0	
0.150833	-0.0202226	-0.00146682	0.000555901	0.00016545	0	0	0	
0.151	0.0224006	0.00385271	0.000562141	0.000100487	0	0	0	
0.151167	-0.020414	-0.00258714	0.000541715	5.22763E-05	0	0	0	
0.151333	0.0141488	0.00587038	0.000500932	8.39461E-05	0	0	0	
0.1515	-0.00936379	-0.00290662	0.000451454	0.000162871	0	0	0	
0.151667	0.01922	-0.00591213	0.000448804	0.000277531	0	0	0	
0.151833	-0.0170732	0.0102057	0.000484559	0.000343071	0	0	0	
0.152	0.0142772	-0.00322831	0.000472066	0.000314992	0	0	0	
0.152167	-0.0169685	-0.0013887	0.000446167	0.00020645	0	0	0	
0.152333	0.0162705	0.00326787	0.000431685	0.00014112	0	0	0	
0.1525	-0.0129158	0.00222792	0.000474765	0.000134497	0	0	0	
0.152667	0.0174604	-0.00657668	0.000535933	0.000161377	0	0	0	
0.152833	-0.0162174	0.00590482	0.000567263	0.00016496	0	0	0	
0.153	0.0356059	-0.00691436	0.000495204	0.000140505	0	0	0	
0.153167	-0.0268952	0.000894785	0.000529453	0.000111566	0	0	0	
0.153333	0.0101463	0.00630654	0.000469262	8.84775E-05	0	0	0	
0.1535	-0.00864306	-0.00514386	0.000471997	8.26811E-05	0	0	0	
0.153667	0.0136989	0.00241301	0.000396809	0.000138154	0	0	0	
0.153833	-0.0176397	0.00367628	0.000446236	0.000208182	0	0	0	
0.154	0.0298223	-0.00706964	0.000538227	0.000253531	0	0	0	
0.154167	-0.02994	0.00399024	0.00066247	0.000250971	0	0	0	
0.154333	0.0284816	-0.00667942	0.000694572	0.000212944	0	0	0	
0.1545	-0.0233188	0.00976266	0.000672774	0.000208256	0	0	0	
0.154667	0.0172306	-0.00454239	0.000559372	0.000179576	0	0	0	
0.154833	-0.011429	0.00130628	0.000489791	0.000127971	0	0	0	
0.155	0.00853984	-0.00365049	0.000430568	9.48911E-05	0	0	0	
0.155167	-0.0096147	0.00759447	0.000365001	0.000122621	0	0	0	
0.155333	0.0177235	-0.00472644	0.000402569	0.000135756	0	0	0	
0.1555	-0.0329705	-0.0220583	0.000595353	0.0002504	0	0	0	
0.155667	0.0278296	-0.0251324	0.000817421	0.000447964	0	0	0	
0.155833	-0.022244	-0.0072576	0.000809989	0.000518157	0	0	0	
0.156	0.0201637	0.0061459	0.000635407	0.00040044	0	0	0	
0.156167	-0.0140175	-0.00299249	0.00043318	0.000183275	0	0	0	
0.156333	0.00611304	-0.00308538	0.000358306	0.00018664	0	0	0	
0.1565	-0.00543683	0.0158369	0.000378226	0.000267123	0	0	0	
0.156667	-0.000724792	-0.0605366	0.00046465	0.00043767	0	0	0	
0.156833	-0.0193496	-0.00263103	0.000560057	0.000566233	0	0	0	
0.157	0.0350661	0.0103284	0.000612021	0.000514674	0	0	0	
0.157167	-0.0222968	-0.00809722	0.00061627	0.000363234	0	0	0	
0.157333	0.0115325	-0.0382318	0.000531044	0.000417206	0	0	0	
0.1575	-0.00348069	0.0495133	0.000425691	0.000602845	0	0	0	
0.157667	0.00465142	0.196705	0.000334532	0.00211368	0	0	0	
0.157833	-0.0312956	-0.739851	0.00035647	0.00452162	0	0	0	
0.158	0.192454	1.33067	0.00075217	0.012757	0	0	0	
0.158167	-0.0336649	-0.448648	0.00134615	0.0157435	0	0	0	
0.158333	0.0233666	0.155436	0.00137586	0.015557	0	0	0	
0.1585	-0.015297	-0.0145719	0.0010062	0.00766122	0	0	0	
0.158667	0.00366907	0.0153183	0.000331905	0.00399493	0	0	0	
0.158833	-0.0310113	-0.116009	0.000289431	0.00397254	0	0	0	
0.159	0.061808	0.46322	0.000440778	0.00950672	0	0	0	
0.159167	0.0346559	-0.0944292	0.00119893	0.0160644	0	0	0	
0.159333	0.0139559	0.385738	0.00137505	0.0175803	0	0	0	
0.1595	-0.0293526	-0.158281	0.00130344	0.013728	0	0	0	
0.159667	0.0268496	0.0535962	0.000707639	0.00757285	0	0	0	
0.159833	-0.0287346	-0.069311	0.000585199	0.00547956	0	0	0	
0.16	0.0337449	0.18128	0.000582514	0.00556738	0	0	0	
0.160167	-0.0267615	-0.218688	0.000563139	0.00647853	0	0	0	
0.160333	0.0142004	0.129207	0.000514003	0.00635099	0	0	0	
0.1605	0.00140332	-0.0599045	0.000381291	0.00549894	0	0	0	
0.160667	0.00324239	0.0689557	0.000308837	0.00509215	0	0	0	
0.160833	-0.0139254	-0.0948185	0.000302646	0.00542721	0	0	0	
0.161	0.0188871	0.109219	0.0003812	0.00609648	0	0	0	
0.161167	-0.0339906	0.0259321	0.000464578	0.00569019	0	0	0	
0.161333	0.00702073	-0.0478499	0.000614088	0.00449005	0	0	0	
0.1615	-0.0195355	-0.0252643	0.000665927	0.00387404	0	0	0	
0.161667	0.0172657	-0.125309	0.00061065	0.00284693	0	0	0	
0.161833	-0.0217106	0.106663	0.000494265	0.00319087	0	0	0	
0.162	0.0250655	-0.0748513	0.000477038	0.00303804	0	0	0	
0.162167	-0.0316466	0.0831057	0.000523237	0.0038653	0	0	0	
0.162333	0.0157552	0.230651	0.000583447	0.00332085	0	0	0	
0.1625	-0.0164813	-0.352843	0.000610605	0.00478879	0	0	0	
0.162667	0.0134227	0.133087	0.000650325	0.00482475	0	0	0	
0.162833	-0.0203095	-0.0374355	0.000643658	0.00467602	0	0	0	
0.163	0.0200576	-0.00597257	0.000628149	0.00211678	0	0	0	
0.163167	-0.0104982	-0.00449272	0.000553476	0.000951168	0	0	0	
0.163333	0.0105552	0.0236016	0.00049229	0.000584119	0	0	0	
0.1635	-0.0394486	-0.0764506	0.000585083	0.000519639	0	0	0	
0.163667	-0.00097669	0.0104942	0.000850953	0.000674181	0	0	0	
0.163833	-0.0330557	-0.0189274	0.00103424	0.000582361	0	0	0	
0.164	0.0545745	0.0308789	0.00108007	0.00046874	0	0	0	
0.164167	-0.0426067	-0.0267529	0.000993799	0.000572326	0	0	0	
0.164333	0.00254108	-0.0147501	0.000789403	0.000946209	0	0	0	
0.1645	0.0114691	0.0505539	0.000484952	0.00114444	0	0	0	
0.164667	-0.0299868	-0.0984942	0.000501605	0.00132107	0	0	0	
0.164833	-0.00745414	0.0405646	0.000495418	0.00120563	0	0	0	
0.165	0.0132457	-0.0102082	0.00069719	0.0010577	0	0	0	
0.165167	-0.0317497	-0.0243887	0.000712451	0.000729915	0	0	0	
0.165333	0.0338659	0.0330594	0.000910797	0.000558527	0	0	0	
0.1655	-0.0304324	-0.0141748	0.000889748	0.00050696	0	0	0	
0.165667	0.0169488	0.00555669	0.000692246	0.000430887	0	0	0	
0.165833	-0.0127701	-0.00706111	0.000535465	0.000298129	0	0	0	
0.166	0.0199657	0.0145356	0.000516954	0.00022669	0	0	0	
0.166167	-0.0242005	-0.0140852	0.000544479	0.000203547	0	0	0	
0.166333	0.0201421	0.00709477	0.000551613	0.000282093	0	0	0	
0.1665	-0.0148822	0.00491334	0.000520032	0.000377873	0	0	0	
0.166667	0.0152739	-0.00598501	0.000522863	0.000423723	0	0	0	
0.166833	-0.0262473	0.00725272	0.000577022	0.000383598	0	0	0	
0.167	0.0299068	-0.0107296	0.000640623	0.000319527	0	0	0	
0.167167	-0.0209387	0.0131132	0.000625613	0.00029441	0	0	0	
0.167333	0.0154952	-0.0123305	0.000524193	0.000287959	0	0	0	
0.1675	-0.0105259	0.00957796	0.000397935	0.000263869	0	0	0	
0.167667	0.0133434	-0.00154765	0.000357009	0.000180708	0	0	0	
0.167833	-0.0220735	-0.00234603	0.000413842	0.000131446	0	0	0	
0.168	0.02155	0.00570721	0.000501455	9.7879E-05	0	0	0	
0.168167	-0.0186246	-0.00793319	0.000540365	0.000110944	0	0	0	
0.168333	0.0206848	0.007646	0.000520893	0.000129774	0	0	0	
0.1685	-0.0228896	-0.00602008	0.000502339	0.000155717	0	0	0	
0.168667	0.0179119	0.00360073	0.000496994	0.000209381	0	0	0	
0.168833	-0.0215535	0.00362539	0.000515152	0.000252751	0	0	0	
0.169	0.0237948	-0.00962255	0.000535561	0.000279446	0	0	0	
0.169167	-0.024276	0.00988455	0.000551088	0.000274906	0	0	0	
0.169333	0.0216855	-0.00740972	0.000536501	0.00022899	0	0	0	
0.1695	-0.0209624	0.00644663	0.000513838	0.000185007	0	0	0	
0.169667	0.0131937	-0.00213254	0.000481213	0.000126777	0	0	0	
0.169833	-0.0153113	-0.00111937	0.000449372	8.56128E-05	0	0	0	
0.17	0.0161161	0.00508789	0.000441924	5.81034E-05	0	0	0	
0.170167	-0.024101	-0.00575495	0.000471326	6.91548E-05	0	0	0	
0.170333	0.0242819	0.00514218	0.000559528	9.28165E-05	0	0	0	
0.1705	-0.01772	-0.00541636	0.000584372	0.000118512	0	0	0	
0.170667	0.0112123	0.00111452	0.000547387	0.00013679	0	0	0	
0.170833	-0.0173613	0.00548959	0.000480569	0.000162758	0	0	0	
0.171	0.0206314	-0.00728446	0.000473157	0.000160643	0	0	0	
0.171167	-0.0199268	0.00586054	0.000495005	0.000144561	0	0	0	
0.171333	0.0197541	-0.00397301	0.000498721	0.000118517	0	0	0	
0.1715	-0.0203691	0.00446129	0.000484042	0.000112476	0	0	0	
0.171667	0.0190398	-0.00465348	0.000478251	0.000129419	0	0	0	
0.171833	-0.0190258	0.00966999	0.000465613	0.000168731	0	0	0	
0.172	0.0145679	-0.0145485	0.000453606	0.000224516	0	0	0	
0.172167	-0.0181696	0.0111883	0.0004528	0.000250145	0	0	0	
0.172333	0.0197376	-0.00308166	0.000478364	0.000215332	0	0	0	
0.1725	-0.0198761	-0.00150756	0.000504348	0.000182972	0	0	0	
0.172667	0.0240459	0.00834185	0.000504121	0.000152761	0	0	0	
0.172833	-0.0225307	-0.00857768	0.000502228	0.000163482	0	0	0	
0.173	0.0158903	0.00381915	0.000473382	0.000197827	0	0	0	
0.173167	-0.0143651	0.00302347	0.00047859	0.000264411	0	0	0	
0.173333	0.0160758	-0.00993376	0.000491456	0.000308201	0	0	0	
0.1735	-0.0232249	0.0129943	0.000523737	0.00028593	0	0	0	
0.173667	0.0273971	-0.00770591	0.00055655	0.000234537	0	0	0	
0.173833	-0.0234394	0.00266194	0.000580445	0.000167664	0	0	0	
0.174	0.0217006	0.00222702	0.000562569	0.000127017	0	0	0	
0.174167	-0.015571	-0.00461851	0.000544828	8.96073E-05	0	0	0	
0.174333	0.0160687	0.00469171	0.000509083	9.5069E-05	0	0	0	
0.1745	-0.0167183	-0.000174801	0.000508443	0.000149289	0	0	0	
0.174667	0.0141484	-0.00767203	0.00047561	0.000219278	0	0	0	
0.174833	-0.0166599	0.0112154	0.000460469	0.000255448	0	0	0	
0.175	0.020804	-0.00841806	0.000463739	0.000234815	0	0	0	
0.175167	-0.0138613	0.0070655	0.000481434	0.000183883	0	0	0	
0.175333	0.0128222	-0.00154246	0.00048518	0.000134316	0	0	0	
0.1755	-0.0189445	-0.00357255	0.000506152	7.81951E-05	0	0	0	
0.175667	0.0226172	0.00597233	0.000522564	6.77444E-05	0	0	0	
0.175833	-0.0207002	-0.00637618	0.000520422	0.000104473	0	0	0	
0.176	0.020631	0.0058275	0.000499711	0.000155728	0	0	0	
0.176167	-0.015679	-0.00431471	0.000498978	0.000183677	0	0	0	
0.176333	0.0126721	0.00402016	0.000496353	0.000191787	0	0	0	
0.1765	-0.0116601	-0.00598704	0.000481668	0.000198543	0	0	0	
0.176667	0.0198948	0.00469322	0.00046762	0.000203775	0	0	0	
0.176833	-0.0254986	0.00408764	0.000517247	0.000208703	0	0	0	
0.177	0.0213962	-0.00849	0.000563211	0.000205611	0	0	0	
0.177167	-0.0111096	0.00336137	0.000556162	0.000166544	0	0	0	
0.177333	0.0137802	0.000155276	0.000476042	0.000137082	0	0	0	
0.1775	-0.0182533	-0.00431683	0.000437946	0.000109936	0	0	0	
0.177667	0.0199923	0.00108872	0.000452548	0.000113179	0	0	0	
0.177833	-0.0220685	-0.00123284	0.000528053	8.76936E-05	0	0	0	
0.178	0.0193221	0.0040829	0.000555694	7.01446E-05	0	0	0	
0.178167	-0.0199921	-0.00213728	0.000559892	8.21478E-05	0	0	0	
0.178333	0.0202886	-0.00645086	0.000545375	0.000138195	0	0	0	
0.1785	-0.0147246	0.00387867	0.000534591	0.000195424	0	0	0	
0.178667	0.0146737	-0.00470053	0.000493643	0.000195382	0	0	0	
0.178833	-0.0179194	0.0028857	0.000482753	0.000175314	0	0	0	
0.179	0.0176709	-0.00471325	0.000493981	0.00015991	0	0	0	
0.179167	-0.012423	0.00486124	0.000516655	0.000177739	0	0	0	
0.179333	0.0111675	-0.00381588	0.000474602	0.000159988	0	0	0	
0.1795	-0.0160561	-0.00325523	0.000422536	0.000113016	0	0	0	
0.179667	0.0228936	0.00516064	0.000419837	7.7144E-05	0	0	0	
0.179833	-0.0187594	-0.00448059	0.00045924	8.02212E-05	0	0	0	
0.18	0.0165475	0.00339984	0.000466645	0.000118072	0	0	0	
0.180167	-0.0166898	-0.00338033	0.000461642	0.000152724	0	0	0	
0.180333	0.0208499	-0.00300127	0.000444733	0.000187978	0	0	0	
0.1805	-0.0173547	0.00712799	0.000467908	0.000232973	0	0	0	
0.180667	0.0115613	-0.011569	0.000463899	0.000268194	0	0	0	
0.180833	-0.014406	0.00990018	0.000449863	0.000262657	0	0	0	
0.181	0.0174554	-0.00280334	0.000446125	0.000205532	0	0	0	
0.181167	-0.0153714	-0.00169832	0.000473977	0.000127472	0	0	0	
0.181333	0.0128483	0.00339305	0.000496491	8.26116E-05	0	0	0	
0.1815	-0.013823	-0.00714754	0.000482192	6.85928E-05	0	0	0	
0.181667	0.0194681	0.00635565	0.00045427	0.000104688	0	0	0	
0.181833	-0.0210114	-0.00128878	0.000453122	0.00017375	0	0	0	
0.182	0.0191219	-0.00386729	0.000451161	0.000241214	0	0	0	
0.182167	-0.0201516	0.00610752	0.000455516	0.000243952	0	0	0	
0.182333	0.023005	-0.00487227	0.000447864	0.000196415	0	0	0	
0.1825	-0.0198337	0.00297151	0.000453984	0.000142745	0	0	0	
0.182667	0.007365	-0.00180558	0.000412224	0.000133231	0	0	0	
0.182833	-0.000769695	-0.00188599	0.000390829	0.000149377	0	0	0	
0.183	0.0146073	-0.00176739	0.000406116	0.000173128	0	0	0	
0.183167	-0.0215102	0.00464197	0.000468279	0.00017507	0	0	0	
0.183333	0.018427	-0.00187691	0.000507675	0.000156094	0	0	0	
0.1835	-0.0154731	-0.00269676	0.000502396	0.000142463	0	0	0	
0.183667	0.0156267	-0.000606999	0.000486401	0.000176914	0	0	0	
0.183833	-0.0130933	0.00127839	0.000449075	0.000226531	0	0	0	
0.184	0.0134499	-0.00584643	0.0003874	0.000230607	0	0	0	
0.184167	-0.0175931	0.00691331	0.000385897	0.000187423	0	0	0	
0.184333	0.0264295	-0.00657876	0.000465786	0.000139697	0	0	0	
0.1845	-0.0271776	0.00248956	0.000577133	0.000123987	0	0	0	
0.184667	0.0223782	0.00257674	0.000590103	9.35922E-05	0	0	0	
0.184833	-0.0161461	-0.0076713	0.000513776	7.57848E-05	0	0	0	
0.185	0.0184656	0.00772467	0.000447076	0.000106605	0	0	0	
0.185167	-0.0177343	0.000601079	0.000424333	0.000165119	0	0	0	
0.185333	0.0141621	-0.0039488	0.00043499	0.000203727	0	0	0	
0.1855	-0.0165749	0.00437342	0.000453169	0.000206298	0	0	0	
0.185667	0.0174512	-0.00505356	0.000491871	0.000224979	0	0	0	
0.185833	-0.0189161	0.0064223	0.000516994	0.000222749	0	0	0	
0.186	0.0163063	-0.000189192	0.000506487	0.000176603	0	0	0	
0.186167	-0.014267	-0.00430292	0.000465909	0.000138098	0	0	0	
0.186333	0.0207423	0.00366739	0.000465097	9.28004E-05	0	0	0	
0.1865	-0.021374	-0.00153921	0.000511264	0.000114882	0	0	0	
0.186667	0.0184713	-0.00261896	0.000547475	0.000138224	0	0	0	
0.186833	-0.0223323	0.00844313	0.000556827	0.000184986	0	0	0	
0.187	0.0265076	-0.00881626	0.000543419	0.000181504	0	0	0	
0.187167	-0.0247336	0.00395677	0.000541233	0.00015241	0	0	0	
0.187333	0.0198613	-2.52067E-05	0.000523544	0.000113881	0	0	0	
0.1875	-0.0164153	-0.0044036	0.000527274	7.71474E-05	0	0	0	
0.187667	0.0225292	0.00385794	0.000526068	8.41709E-05	0	0	0	
0.187833	-0.0188496	0.00202543	0.000543561	0.00015604	0	0	0	
0.188	0.0177152	-0.00871003	0.000523001	0.000234217	0	0	0	
0.188167	-0.0142941	0.00574265	0.000519088	0.000242333	0	0	0	
0.188333	0.0170151	-0.00283185	0.000519696	0.000176657	0	0	0	
0.1885	-0.0169218	0.00509849	0.000562782	0.000119964	0	0	0	
0.188667	0.0209381	-0.0018556	0.000566149	8.56147E-05	0	0	0	
0.188833	-0.0191127	-0.00206152	0.00056432	7.80501E-05	0	0	0	
0.189	0.0143218	-0.000979761	0.000504996	8.53351E-05	0	0	0	
0.189167	-0.0114365	-0.000766533	0.000483694	9.10249E-05	0	0	0	
0.189333	0.0197931	0.000606661	0.000487615	8.09177E-05	0	0	0	
0.1895	-0.0187772	-0.00217346	0.000536879	6.97398E-05	0	0	0	
0.189667	0.0189489	0.00401698	0.000514924	8.73637E-05	0	0	0	
0.189833	-0.0226251	-0.0032718	0.000491588	0.000120452	0	0	0	
0.19	0.0179356	0.00250464	0.000432559	0.00013304	0	0	0	
0.190167	-0.0126219	-0.00139874	0.000417893	0.000141138	0	0	0	
0.190333	0.011294	-0.00639282	0.000377205	0.000165988	0	0	0	
0.1905	-0.0108163	0.00359697	0.000389185	0.000192686	0	0	0	
0.190667	0.0240908	-0.00460379	0.000418933	0.000170373	0	0	0	
0.190833	-0.0281698	0.00747342	0.000504548	0.000125943	0	0	0	
0.191	0.0231089	-0.00658955	0.000546399	0.000120001	0	0	0	
0.191167	-0.023232	-0.00251227	0.000582367	0.000127738	0	0	0	
0.191333	0.0193018	0.00580182	0.000533721	0.000123843	0	0	0	
0.1915	-0.00914709	0.0140139	0.000462037	0.000213106	0	0	0	
0.191667	0.00334032	-0.0650232	0.00044695	0.000412988	0	0	0	
0.191833	0.0942202	0.174698	0.00102167	0.00134293	0	0	0	
0.192	0.018176	0.018002	0.00114627	0.00167261	0	0	0	
0.192167	-0.0168526	-0.153072	0.00118745	0.00192948	0	0	0	
0.192333	0.0135512	0.0879807	0.000681081	0.00182174	0	0	0	
0.1925	-0.0129079	-0.0479234	0.000609708	0.00169789	0	0	0	
0.192667	0.0175103	0.142137	0.000576702	0.00174048	0	0	0	
0.192833	-0.0190138	-0.110209	0.000625226	0.00163992	0	0	0	
0.193	0.0333206	0.0365993	0.000686177	0.00183467	0	0	0	
0.193167	-0.0284081	-0.0044304	0.000699913	0.0016799	0	0	0	
0.193333	0.0148964	-0.000995727	0.000567877	0.00128462	0	0	0	
0.1935	-0.00775486	0.00429131	0.000405626	0.000897072	0	0	0	
0.193667	0.00468079	-0.0015398	0.000293937	0.000629207	0	0	0	
0.193833	-0.015743	0.0251186	0.000256435	0.000595689	0	0	0	
0.194	0.0275402	-0.0775591	0.000354959	0.000822644	0	0	0	
0.194167	-0.0302694	0.0433689	0.000502845	0.00107697	0	0	0	
0.194333	0.0222422	-0.0105122	0.000608168	0.000956907	0	0	0	
0.1945	-0.0105429	-0.00544755	0.000555524	0.00070942	0	0	0	
0.194667	0.00589685	0.0038885	0.000399327	0.000389495	0	0	0	
0.194833	-0.0152055	0.00189821	0.000293278	0.000249584	0	0	0	
0.195	0.0215409	0.00465901	0.000355208	0.000258846	0	0	0	
0.195167	-0.0268741	-0.0201047	0.000467746	0.000438001	0	0	0	
0.195333	0.0172771	-0.00076295	0.000525503	0.000554384	0	0	0	
0.1955	-0.00553074	0.00335072	0.000423864	0.00052337	0	0	0	
0.195667	0.00364345	-0.005152	0.000283491	0.000346362	0	0	0	
0.195833	-0.00650271	0.00428659	0.000192085	0.000225641	0	0	0	
0.196	0.0148855	0.00608917	0.000223666	0.000186396	0	0	0	
0.196167	-0.0220439	-0.0294035	0.000338761	0.000354254	0	0	0	
0.196333	0.0252617	-0.00209155	0.000445208	0.000382225	0	0	0	
0.1965	-0.0172065	0.00382485	0.000465839	0.000342071	0	0	0	
0.196667	0.0062107	-0.00368588	0.000380908	0.000154386	0	0	0	
0.196833	-0.00426236	-0.00432896	0.000258903	9.02683E-05	0	0	0	
0.197	0.0154588	0.00718448	0.000207001	9.7393E-05	0	0	0	
0.197167	-0.0209329	-0.0073532	0.000263927	0.000225856	0	0	0	
0.197333	0.0193683	-0.0311905	0.000363436	0.000393694	0	0	0	
0.1975	-0.0180686	0.0188228	0.000454039	0.000550307	0	0	0	
0.197667	0.011369	-0.0039777	0.000477934	0.000469649	0	0	0	
0.197833	-0.00842629	-0.00221017	0.000404405	0.000312032	0	0	0	
0.198	0.00741007	-0.000774028	0.000287866	0.00014895	0	0	0	
0.198167	-0.0145885	-0.00124316	0.000223944	0.00011466	0	0	0	
0.198333	0.013252	-0.0111611	0.000278085	0.000131832	0	0	0	
0.1985	-0.0121676	-0.00394534	0.000341793	0.000154279	0	0	0	
0.198667	0.00612826	0.00153722	0.000353557	0.000126577	0	0	0	
0.198833	-0.00571771	-0.0024291	0.000298606	9.92042E-05	0	0	0	
0.199	0.00640046	-4.62782E-05	0.000246755	5.23017E-05	0	0	0	
0.199167	-0.00991005	-0.0139895	0.000215505	8.31563E-05	0	0	0	
0.199333	0.0157857	0.0258647	0.00024741	0.000159278	0	0	0	
0.1995	-0.0207823	-0.048482	0.000311541	0.000408634	0	0	0	
0.199667	0.0177752	0.0109146	0.000381889	0.000635479	0	0	0	
0.199833	-0.00924682	0.00528488	0.000385415	0.000769841	0	0	0	
0.2	0.00620765	-0.00844903	0.000310942	0.00058712	0	0	0	
0.200167	-0.00593895	0.00459123	0.000217899	0.000352516	0	0	0	
0.200333	0.0160848	-0.00742009	0.000177513	0.000172066	0	0	0	
0.2005	-0.0184457	-0.0263028	0.000262648	0.000227561	0	0	0	
0.200667	0.0190275	0.007963	0.000368247	0.000362534	0	0	0	
0.200833	-0.015344	-0.0013768	0.00042578	0.000342769	0	0	0	
0.201	0.0106008	-0.000688698	0.000367369	0.000214294	0	0	0	
0.201167	-0.00526645	0.000625538	0.000270197	4.69425E-05	0	0	0	
0.201333	0.00998354	-0.0011911	0.000201598	3.62354E-05	0	0	0	
0.2015	-0.0184064	-0.0122838	0.000259377	0.000101802	0	0	0	
0.201667	0.02281	-0.00237166	0.000381199	0.000158632	0	0	0	
0.201833	-0.0249542	0.00329375	0.000501857	0.000195324	0	0	0	
0.202	0.0172879	0.000787276	0.00051008	0.000135131	0	0	0	
0.202167	-0.00800799	0.00316378	0.000414279	8.80833E-05	0	0	0	
0.202333	0.00529551	-0.00703906	0.000285678	7.06826E-05	0	0	0	
0.2025	-0.0111307	0.00305597	0.000226308	9.57346E-05	0	0	0	
0.202667	0.016109	0.0100485	0.00029884	0.000159412	0	0	0	
0.202833	-0.0241642	-0.0170219	0.000431778	0.000336625	0	0	0	
0.203	0.0206818	-0.00361544	0.000515615	0.000329492	0	0	0	
0.203167	-0.0122316	0.0139912	0.000466885	0.00034622	0	0	0	
0.203333	0.00717034	-0.00806212	0.000349195	0.000187784	0	0	0	
0.2035	-0.0101466	-0.013931	0.00024135	0.000294526	0	0	0	
0.203667	0.0184834	0.0409841	0.000263451	0.000375747	0	0	0	
0.203833	-0.0223497	-0.0457774	0.000363795	0.000564047	0	0	0	
0.204	0.024277	0.0300874	0.000485442	0.000816371	0	0	0	
0.204167	-0.0136816	0.00178684	0.000510666	0.000847674	0	0	0	
0.204333	0.00897431	0.000426359	0.000425371	0.00063518	0	0	0	
0.2045	-0.00757256	-0.0365773	0.000299716	0.000412289	0	0	0	
0.204667	0.0126528	0.00364577	0.000234109	0.0004853	0	0	0	
0.204833	-0.0126482	0.172217	0.000299735	0.00141814	0	0	0	
0.205	0.0214202	-0.369927	0.00041275	0.00433759	0	0	0	
0.205167	-0.0133677	0.146888	0.000484776	0.00554358	0	0	0	
0.205333	0.00965198	0.0257924	0.000423729	0.00543988	0	0	0	
0.2055	-0.00987164	-0.157165	0.000322271	0.00313421	0	0	0	
0.205667	0.0153024	0.0355059	0.000249199	0.00279941	0	0	0	
0.205833	-0.0215107	0.48426	0.000302027	0.00587064	0	0	0	
0.206	0.0235809	-0.289347	0.000394115	0.0110359	0	0	0	
0.206167	-0.017649	0.208567	0.00046255	0.0121617	0	0	0	
0.206333	0.0110839	-0.0482027	0.000437643	0.00906659	0	0	0	
0.2065	-0.00890454	-0.0340579	0.000344319	0.00397135	0	0	0	
0.206667	0.00803756	0.120316	0.000250943	0.0024462	0	0	0	
0.206833	-0.0115834	-0.293804	0.000208592	0.0026135	0	0	0	
0.207	0.0133166	0.891551	0.000250606	0.00597848	0	0	0	
0.207167	-0.0125353	-0.405482	0.000317033	0.0102815	0	0	0	
0.207333	0.00873725	-0.00363383	0.000353028	0.0113432	0	0	0	
0.2075	-0.00655359	0.0763591	0.000319679	0.00786741	0	0	0	
0.207667	0.00879801	-0.0102709	0.000268141	0.00303927	0	0	0	
0.207833	-0.0125438	-0.00972178	0.000236592	0.00102851	0	0	0	
0.208	0.0183362	-0.0613077	0.000267725	0.000570598	0	0	0	
0.208167	-0.0123023	0.132633	0.000326085	0.000892735	0	0	0	
0.208333	0.0160297	-0.0670126	0.000389604	0.00158323	0	0	0	
0.2085	-0.0165229	-0.0243356	0.000424221	0.00186029	0	0	0	
0.208667	0.0108787	0.0278035	0.00039475	0.00154213	0	0	0	
0.208833	-0.00943098	0.0129355	0.000322843	0.00094629	0	0	0	
0.209	0.0139382	-0.008194	0.00023953	0.000502991	0	0	0	
0.209167	-0.0193986	-0.0821729	0.00025202	0.000533247	0	0	0	
0.209333	0.0271438	0.44366	0.00034468	0.00310288	0	0	0	
0.2095	-0.0147578	-0.129662	0.000410526	0.00448018	0	0	0	
0.209667	0.00139296	-0.00579745	0.000342679	0.00492444	0	0	0	
0.209833	-0.0032547	0.0384334	0.00022796	0.00257037	0	0	0	
0.21	0.0172047	-0.0491936	0.000193798	0.00132624	0	0	0	
0.210167	-0.047263	0.0126916	0.000356856	0.000886356	0	0	0	
0.210333	0.0311635	0.290559	0.000566765	0.00189492	0	0	0	
0.2105	-0.0237014	0.0289261	0.000672992	0.00415397	0	0	0	
0.210667	0.024069	0.0756032	0.000642464	0.00498558	0	0	0	
0.210833	-0.00813783	-0.0284381	0.000479147	0.0038562	0	0	0	
0.211	0.00497186	-0.0298856	0.000327567	0.00165563	0	0	0	
0.211167	-0.0246993	0.00583162	0.000325717	0.000719648	0	0	0	
0.211333	0.0279714	-0.0281224	0.000544599	0.00139309	0	0	0	
0.2115	-0.0367825	-0.0634674	0.000731612	0.00201602	0	0	0	
0.211667	0.0269997	0.0770501	0.000773786	0.00227012	0	0	0	
0.211833	-0.00917558	-0.0180717	0.000571298	0.00184038	0	0	0	
0.212	0.0072743	-0.0489945	0.000393773	0.0012283	0	0	0	
0.212167	-0.00743513	-0.0295405	0.000242303	0.00131904	0	0	0	
0.212333	0.0141838	0.301639	0.000230507	0.00189087	0	0	0	
0.2125	-0.0158788	-0.504715	0.000328773	0.00551621	0	0	0	
0.212667	0.0186776	0.176905	0.000443249	0.00678741	0	0	0	
0.212833	-0.017504	0.00323591	0.000501369	0.00669085	0	0	0	
0.213	0.00939291	-0.0511881	0.000440844	0.0031515	0	0	0	
0.213167	-0.00699432	-0.00359915	0.000327405	0.0016141	0	0	0	
0.213333	0.0199181	0.0474337	0.000288884	0.000851155	0	0	0	
0.2135	-0.0237764	-0.0342947	0.000380812	0.000820503	0	0	0	
0.213667	0.0258559	-0.017238	0.000492365	0.0010574	0	0	0	
0.213833	-0.021178	0.0365526	0.000522106	0.00114839	0	0	0	
0.214	0.0123718	-0.0192604	0.000441227	0.000960953	0	0	0	
0.214167	-0.00802067	-0.000948709	0.000325736	0.000632371	0	0	0	
0.214333	0.0100861	0.00414164	0.000247484	0.00039117	0	0	0	
0.2145	-0.0178157	-0.00558631	0.000248267	0.000236188	0	0	0	
0.214667	0.0180469	0.00126954	0.000332529	0.000211519	0	0	0	
0.214833	-0.0177161	-0.0132731	0.000426261	0.000236433	0	0	0	
0.215	0.0185221	7.09706E-05	0.00047142	0.000241684	0	0	0	
0.215167	-0.0104096	0.00475604	0.000421736	0.000186052	0	0	0	
0.215333	0.00933331	-0.0012352	0.000335667	0.000148342	0	0	0	
0.2155	-0.0188474	-0.014009	0.00030102	0.000147578	0	0	0	
0.215667	0.0192565	0.0148607	0.000376165	0.000181959	0	0	0	
0.215833	-0.023536	-0.00180318	0.000494091	0.000244041	0	0	0	
0.216	0.02671	-0.00300362	0.000540619	0.000273577	0	0	0	
0.216167	-0.0150363	-0.00108626	0.000496619	0.000199417	0	0	0	
0.216333	0.00470028	0.00133424	0.000357916	0.000147226	0	0	0	
0.2165	-0.00627094	0.00432158	0.00024456	0.000155715	0	0	0	
0.216667	0.0149665	-0.00699087	0.000225904	0.000136459	0	0	0	
0.216833	-0.0166415	0.0536156	0.000331893	0.000530262	0	0	0	
0.217	0.0232289	-0.00423816	0.000434436	0.000653282	0	0	0	
0.217167	-0.0210492	-0.0189352	0.00047978	0.000795039	0	0	0	
0.217333	0.0107139	0.00750232	0.000420833	0.000446714	0	0	0	
0.2175	-0.00537189	0.0241546	0.000318164	0.000440418	0	0	0	
0.217667	0.00319697	-0.014184	0.000207439	0.00044378	0	0	0	
0.217833	-0.00792213	-0.182506	0.000217891	0.00133886	0	0	0	
0.218	0.0219603	0.027175	0.000333797	0.00277155	0	0	0	
0.218167	-0.0231783	-0.0621243	0.000472512	0.00316353	0	0	0	
0.218333	0.0144963	0.0245778	0.000498239	0.002465	0	0	0	
0.2185	-0.00628748	0.00671637	0.000390473	0.00109365	0	0	0	
0.218667	0.00511784	-0.00431748	0.000241855	0.000560916	0	0	0	
0.218833	-0.0182329	-0.00298378	0.000182122	0.000365599	0	0	0	
0.219	0.0196991	-0.019208	0.000268715	0.00022185	0	0	0	
0.219167	-0.0158801	0.00435655	0.000373938	0.000298761	0	0	0	
0.219333	0.0156136	0.00880241	0.000426544	0.000246639	0	0	0	
0.2195	-0.0114893	-0.00485624	0.000380742	0.00020561	0	0	0	
0.219667	0.010356	-0.0189835	0.000303999	0.000244375	0	0	0	
0.219833	-0.0177404	0.0195693	0.0002683	0.000336894	0	0	0	
0.22	0.0202768	0.113682	0.000334573	0.00095172	0	0	0	
0.220167	-0.0204249	0.0085244	0.000436536	0.00198034	0	0	0	
0.220333	0.017826	0.0271825	0.000502567	0.00230582	0	0	0	
0.2205	-0.00730027	-0.01268	0.000428275	0.00174209	0	0	0	
0.220667	0.00705684	-0.00276225	0.000313186	0.000719229	0	0	0	
0.220833	-0.00762269	0.000694817	0.000231245	0.000272142	0	0	0	
0.221	0.0118822	0.00501232	0.000255012	0.000187364	0	0	0	
0.221167	-0.0170144	-0.0131582	0.000361365	0.000169879	0	0	0	
0.221333	0.020961	0.00966437	0.000456272	0.000366437	0	0	0	
0.2215	-0.0142868	-0.0053308	0.000463412	0.000435004	0	0	0	
0.221667	0.0091902	0.00628749	0.000381009	0.000361676	0	0	0	
0.221833	-0.00637355	-0.00198087	0.000275534	0.000180591	0	0	0	
0.222	0.0127823	0.00338938	0.000238987	0.000100502	0	0	0	
0.222167	-0.0169688	0.0198734	0.000319283	0.00018607	0	0	0	
0.222333	0.0242526	0.0107499	0.000423904	0.000263254	0	0	0	
0.2225	-0.0210451	-0.00374286	0.000494472	0.000291572	0	0	0	
0.222667	0.0102362	0.00226345	0.000432243	0.000238664	0	0	0	
0.222833	-0.00575084	-0.000149183	0.000309149	0.000181622	0	0	0	
0.223	0.00588693	-0.00203848	0.000203531	0.000175253	0	0	0	
0.223167	-0.00913978	0.0295329	0.000189108	0.000207429	0	0	0	
0.223333	0.0179799	-0.0193187	0.000264488	0.000407751	0	0	0	
0.2235	-0.0244029	0.0215181	0.000402165	0.000473939	0	0	0	
0.223667	0.0205507	-0.00690916	0.000492866	0.00043764	0	0	0	
0.223833	-0.0106423	-0.00344542	0.000475418	0.000225262	0	0	0	
0.224	0.00633531	0.0060925	0.000348117	0.000150922	0	0	0	
0.224167	-0.00594949	-0.00520374	0.000225616	9.84097E-05	0	0	0	
0.224333	0.0105323	0.030413	0.000175535	0.000261177	0	0	0	
0.2245	-0.0120566	0.0115132	0.000221597	0.000353875	0	0	0	
0.224667	0.0169754	-0.00610127	0.000323082	0.000448045	0	0	0	
0.224833	-0.0146607	-0.00172471	0.000425506	0.000285359	0	0	0	
0.225	0.01299	0.00505168	0.000420711	0.000180849	0	0	0	
0.225167	-0.0108213	-0.00294356	0.000340777	9.14345E-05	0	0	0	
0.225333	0.0184912	-0.00221554	0.000265635	0.000131414	0	0	0	
0.2255	-0.0166155	0.0265814	0.000293308	0.000163134	0	0	0	
0.225667	0.0124475	-0.00839179	0.000369084	0.000265524	0	0	0	
0.225833	-0.00989166	-0.00307571	0.000416636	0.000239945	0	0	0	
0.226	0.00534208	0.00204944	0.000377472	0.000215619	0	0	0	
0.226167	-0.00396763	0.00135442	0.000296814	9.75071E-05	0	0	0	
0.226333	0.0128558	0.00229039	0.00025208	6.53972E-05	0	0	0	
0.2265	-0.0146122	-0.0260889	0.00029686	0.000114881	0	0	0	
0.226667	0.0116132	-0.00529089	0.000359579	0.000204177	0	0	0	
0.226833	-0.0207793	0.00522241	0.000424313	0.000206517	0	0	0	
0.227	0.0209176	-0.000140695	0.000476208	0.000196761	0	0	0	
0.227167	-0.00870592	-0.00107444	0.000443737	0.000138998	0	0	0	
0.227333	0.00244702	-0.00444188	0.000323737	0.000145667	0	0	0	
0.2275	-0.00939634	0.00995752	0.000263865	0.000128758	0	0	0	
0.227667	0.0187025	0.00237593	0.000380944	0.000215426	0	0	0	
0.227833	-0.0178739	-0.00926123	0.000528319	0.000399207	0	0	0	
0.228	0.00974081	0.00492967	0.000531759	0.000449026	0	0	0	
0.228167	-0.00487484	0.00236	0.000411548	0.000340079	0	0	0	
0.228333	0.00745921	-0.00921807	0.000283377	0.000184857	0	0	0	
0.2285	-0.00385311	0.0170102	0.000207496	0.000158545	0	0	0	
0.228667	0.00453595	-0.00329184	0.000226187	0.000276812	0	0	0	
0.228833	-0.0132569	0.0161968	0.000355589	0.000455412	0	0	0	
0.229	0.0248103	0.000990333	0.000480266	0.000476146	0	0	0	
0.229167	-0.0221559	0.00145476	0.000539465	0.000356297	0	0	0	
0.229333	0.00711691	-0.0022662	0.000446311	0.000147688	0	0	0	
0.2295	-0.00320177	-0.0019125	0.000320412	0.000111363	0	0	0	
0.229667	0.0114779	0.0151152	0.000272713	0.00015294	0	0	0	
0.229833	-0.0142058	-0.0261576	0.000361457	0.000260189	0	0	0	
0.23	0.0174278	0.00275273	0.000462901	0.000265636	0	0	0	
0.230167	-0.0197484	0.00421657	0.000496132	0.000265084	0	0	0	
0.230333	0.00916834	-0.0095777	0.000438985	0.000161362	0	0	0	
0.2305	-0.00795337	0.0108884	0.000339683	0.000158951	0	0	0	
0.230667	0.0077524	-0.00335777	0.000242827	0.000157815	0	0	0	
0.230833	-0.0139141	-0.00778635	0.000226428	0.000239538	0	0	0	
0.231	0.012602	-0.000876574	0.000308771	0.000247934	0	0	0	
0.231167	-0.0197061	-0.00426016	0.000399221	0.000228075	0	0	0	
0.231333	0.0140203	-0.009085	0.000440386	0.000180408	0	0	0	
0.2315	-0.0108966	0.00671589	0.000380701	0.000169298	0	0	0	
0.231667	0.00528215	-0.00151834	0.000295523	0.000154824	0	0	0	
0.231833	-0.0105652	-0.00853347	0.000230412	0.000129501	0	0	0	
0.232	0.0180997	0.0187051	0.000314238	0.000251678	0	0	0	
0.232167	-0.0258345	-0.0157012	0.000465959	0.000322597	0	0	0	
0.232333	0.0276725	0.00130772	0.000586171	0.000346966	0	0	0	
0.2325	-0.0181638	-0.000657852	0.000554604	0.000206811	0	0	0	
0.232667	0.00488379	0.00802739	0.000418366	0.000140389	0	0	0	
0.232833	-0.00805966	-0.0141762	0.000260886	0.000157281	0	0	0	
0.233	0.020082	0.00193332	0.000260953	0.000359267	0	0	0	
0.233167	-0.0143517	0.0213376	0.000362929	0.000597287	0	0	0	
0.233333	0.023858	-0.0262489	0.000530863	0.000704453	0	0	0	
0.2335	-0.0342407	0.00687896	0.000621753	0.000567784	0	0	0	
0.233667	0.0243849	0.00381196	0.000619496	0.000381296	0	0	0	
0.233833	-0.00746981	-0.00945485	0.00050261	0.000273455	0	0	0	
0.234	0.00464979	0.0165234	0.000328307	0.000247867	0	0	0	
0.234167	-0.00190226	-0.028856	0.000262906	0.000347909	0	0	0	
0.234333	0.0198845	-0.0101711	0.000315365	0.000459968	0	0	0	
0.2345	-0.0251498	0.0250623	0.000461949	0.000521324	0	0	0	
0.234667	0.0118408	-0.0194125	0.000513435	0.000486401	0	0	0	
0.234833	-0.00812235	0.00771869	0.000449685	0.000436596	0	0	0	
0.235	0.00728426	0.00367724	0.000321508	0.000377817	0	0	0	
0.235167	-0.0050234	-0.0318582	0.000254911	0.000314912	0	0	0	
0.235333	0.0126911	0.0272514	0.000309129	0.000464207	0	0	0	
0.2355	-0.0273859	-0.0056885	0.000433738	0.000454067	0	0	0	
0.235667	0.0238404	-0.00656258	0.000548076	0.000474548	0	0	0	
0.235833	-0.0139413	0.00907574	0.000531311	0.00028889	0	0	0	
0.236	0.00737258	-0.00734418	0.000399197	0.000279961	0	0	0	
0.236167	-0.0100678	0.00534263	0.000259907	0.000207083	0	0	0	
0.236333	0.0142611	-0.01871	0.00025185	0.000226796	0	0	0	
0.2365	-0.0187771	0.00523642	0.000313366	0.000263393	0	0	0	
0.236667	0.0107691	0.00547884	0.000373418	0.000276772	0	0	0	
0.236833	-0.00440309	-0.00415548	0.000380282	0.000176555	0	0	0	
0.237	0.00731263	0.00205739	0.000330488	9.77266E-05	0	0	0	
0.237167	-0.00491338	0.0109462	0.000257097	0.000119195	0	0	0	
0.237333	0.00831914	-0.0220775	0.000244599	0.000263565	0	0	0	
0.2375	-0.0132677	0.00178451	0.000329356	0.00035364	0	0	0	
0.237667	0.0229539	-0.0125814	0.000416953	0.000529905	0	0	0	
0.237833	-0.0222086	-0.00216993	0.00046892	0.000537388	0	0	0	
0.238	0.012183	0.0125103	0.000421347	0.000473185	0	0	0	
0.238167	-0.00732319	-0.00131942	0.000335033	0.00029868	0	0	0	
0.238333	0.0087841	-0.0252765	0.000243651	0.000277153	0	0	0	
0.2385	-0.0131493	0.048512	0.000246425	0.000472471	0	0	0	
0.238667	0.027059	-0.0464787	0.0003226	0.00069579	0	0	0	
0.238833	-0.025272	0.0128395	0.000449318	0.000699942	0	0	0	
0.239	0.0112551	0.00527696	0.000456142	0.000490638	0	0	0	
0.239167	-0.00584165	-0.0117197	0.000375882	0.000256262	0	0	0	
0.239333	0.00850243	0.0035946	0.000238554	0.000187774	0	0	0	
0.2395	-0.0241284	0.028131	0.000225507	0.000505278	0	0	0	
0.239667	0.0237125	-0.00625132	0.000338193	0.000914154	0	0	0	
0.239833	-0.0183954	0.0284159	0.000441053	0.00100444	0	0	0	
0.24	0.0099349	-0.00809401	0.00043898	0.000850841	0	0	0	
0.240167	-0.00694509	-0.0426456	0.000346276	0.00067052	0	0	0	
0.240333	0.0168428	0.021092	0.000291827	0.000747068	0	0	0	
0.2405	-0.0265384	0.183125	0.000312838	0.00175764	0	0	0	
0.240667	-0.0152588	-0.295741	0.000392459	0.00346406	0	0	0	
0.240833	0.0620646	0.414749	0.000471359	0.00540259	0	0	0	
0.241	-0.176013	-0.0756951	0.00148754	0.00571097	0	0	0	
0.241167	0.0821682	-0.0415584	0.00262563	0.00674424	0	0	0	
0.241333	0.00606116	0.214817	0.00321985	0.00663509	0	0	0	
0.2415	-0.0280621	-0.0259989	0.00242815	0.00599509	0	0	0	
0.241667	0.0691072	-0.18229	0.00137021	0.00493109	0	0	0	
0.241833	-0.124133	0.208094	0.00159685	0.00585351	0	0	0	
0.242	-0.129789	-0.28331	0.00177865	0.00687347	0	0	0	
0.242167	0.104304	0.439295	0.00277556	0.00791456	0	0	0	
0.242333	-0.0507311	-0.190285	0.00241306	0.00697387	0	0	0	
0.2425	0.00818635	0.114826	0.00200713	0.00592513	0	0	0	
0.242667	0.0217832	-0.148544	0.000887062	0.00370058	0	0	0	
0.242833	-0.00187604	0.102919	0.000288206	0.00250446	0	0	0	
0.243	-0.00948143	0.000225693	0.000205248	0.00217053	0	0	0	
0.243167	0.0111414	-0.023464	0.000277236	0.00167374	0	0	0	
0.243333	0.0163919	0.00905727	0.000570579	0.000934268	0	0	0	
0.2435	-0.0258345	-0.00554232	0.000805907	0.000520182	0	0	0	
0.243667	0.0213909	-0.0103863	0.000791284	0.000297382	0	0	0	
0.243833	-0.0137459	0.0123464	0.000593814	0.00029542	0	0	0	
0.244	0.016791	0.0198404	0.000450241	0.000312724	0	0	0	
0.244167	-0.0177356	-0.0870721	0.000447406	0.000687755	0	0	0	
0.244333	0.0219321	0.0573789	0.000447083	0.0011761	0	0	0	
0.2445	-0.0115656	0.00868187	0.00047333	0.00192152	0	0	0	
0.244667	0.0171398	-0.083715	0.00042765	0.00223182	0	0	0	
0.244833	-0.0187274	0.0793049	0.000456484	0.00208869	0	0	0	
0.245	0.0237143	-0.0271167	0.000464278	0.00159898	0	0	0	
0.245167	-0.0250443	-0.0568899	0.000530369	0.0013474	0	0	0	
0.245333	0.0237789	0.0794129	0.000538913	0.00156957	0	0	0	
0.2455	-0.0212564	-0.104903	0.000525502	0.00177994	0	0	0	
0.245667	0.0217949	0.067462	0.000450153	0.00183066	0	0	0	
0.245833	-0.0101554	-0.013274	0.000394702	0.00176616	0	0	0	
0.246	0.012378	-0.0350708	0.000373633	0.00173388	0	0	0	
0.246167	-0.0204959	0.0495256	0.000454166	0.0015101	0	0	0	
0.246333	0.0252133	-0.0236359	0.000553385	0.00108351	0	0	0	
0.2465	-0.028404	0.00203828	0.000621059	0.000661633	0	0	0	
0.246667	0.0309834	-0.00338038	0.000621879	0.00035776	0	0	0	
0.246833	-0.0272748	0.00973704	0.000602317	0.000207511	0	0	0	
0.247	0.0138959	-0.00701027	0.000534399	0.000142799	0	0	0	
0.247167	-0.0059995	-0.0139323	0.000436436	0.000241714	0	0	0	
0.247333	0.0161571	0.0220956	0.000431985	0.00030064	0	0	0	
0.2475	-0.027856	-0.0057046	0.000516897	0.000452464	0	0	0	
0.247667	0.0251477	-0.0226068	0.000621838	0.000598495	0	0	0	
0.247833	-0.0220121	0.0291762	0.000624231	0.000685627	0	0	0	
0.248	0.0271288	-0.0222338	0.000624646	0.000614469	0	0	0	
0.248167	-0.0251896	-0.00439986	0.000596815	0.000565644	0	0	0	
0.248333	0.00989297	0.023613	0.000513538	0.000596446	0	0	0	
0.2485	-0.0102286	-0.0285007	0.000392846	0.00064916	0	0	0	
0.248667	0.0170578	0.027878	0.000385114	0.000610198	0	0	0	
0.248833	-0.0176198	-0.021119	0.000433509	0.000542745	0	0	0	
0.249	0.011616	-0.00310234	0.000451814	0.0005718	0	0	0	
0.249167	-0.0132611	0.0203065	0.000391422	0.000588487	0	0	0	
0.249333	0.0204824	-0.0260364	0.000397272	0.000561794	0	0	0	
0.2495	-0.0290874	0.0157966	0.000473911	0.000477553	0	0	0	
0.249667	0.027822	-0.00725844	0.00055192	0.000413499	0	0	0	
0.249833	-0.018927	-0.0264616	0.000531173	0.000453654	0	0	0	
0.25	0.024274	0.034467	0.000446744	0.000605742	0	0	0	
0.250167	-0.0298646	-0.0202892	0.000467964	0.00059566	0	0	0	
0.250333	0.0214854	-0.00366018	0.000516108	0.000692783	0	0	0	
0.2505	-0.0263437	0.0245272	0.000600913	0.000632069	0	0	0	
0.250667	0.0296822	-0.0307323	0.000595743	0.000703087	0	0	0	
0.250833	-0.0134595	0.0414668	0.000528503	0.000625062	0	0	0	
0.251	-0.0158365	-0.0469957	0.000387915	0.000781234	0	0	0	
0.251167	-0.0136473	-0.175847	0.00088242	0.00204422	0	0	0	
0.251333	-0.131167	-0.0958158	0.00312537	0.00412845	0	0	0	
0.2515	-0.0227126	-0.0458579	0.003694	0.00448308	0	0	0	
0.251667	0.0740664	0.0511423	0.00353302	0.00325818	0	0	0	
0.251833	-0.0757236	-0.0161944	0.00159899	0.00133617	0	0	0	
0.252	0.0477803	-0.0176076	0.00136507	0.00107821	0	0	0	
0.252167	0.0248709	0.102113	0.00122399	0.00139177	0	0	0	
0.252333	-0.108489	-0.41052	0.00240971	0.00337226	0	0	0	
0.2525	0.0104304	0.140785	0.0031622	0.00436684	0	0	0	
0.252667	-0.0160125	-0.0708362	0.00282109	0.00423663	0	0	0	
0.252833	-0.0238216	0.0285241	0.00152553	0.00226429	0	0	0	
0.253	0.038134	0.00586593	0.000713354	0.00108058	0	0	0	
0.253167	-0.0340198	-0.0327135	0.00098958	0.000973572	0	0	0	
0.253333	0.0303657	0.0576952	0.000977518	0.000973358	0	0	0	
0.2535	-0.0253448	-0.0503848	0.000907297	0.00101121	0	0	0	
0.253667	0.0214732	0.038666	0.000709538	0.00104148	0	0	0	
0.253833	-0.00682273	-0.0113068	0.000461099	0.00116669	0	0	0	
0.254	0.0158224	-0.0275338	0.000282569	0.00125744	0	0	0	
0.254167	-0.0187312	0.0470011	0.000290668	0.00118897	0	0	0	
0.254333	0.024228	-0.0234665	0.00038037	0.000894474	0	0	0	
0.2545	-0.0317563	0.0052943	0.000514796	0.000676167	0	0	0	
0.254667	0.0435532	0.00360588	0.000609125	0.000583232	0	0	0	
0.254833	-0.0356248	-0.00510543	0.000679673	0.000496359	0	0	0	
0.255	0.0304925	-0.000709207	0.000740138	0.000410496	0	0	0	
0.255167	-0.0179556	0.00318371	0.000677256	0.000374054	0	0	0	
0.255333	0.025134	0.00689758	0.000624361	0.000340899	0	0	0	
0.2555	-0.0294342	-0.00297887	0.000560512	0.000240754	0	0	0	
0.255667	0.0198037	-0.00145249	0.000539364	0.000234086	0	0	0	
0.255833	-0.0153881	0.0117601	0.000486321	0.00037597	0	0	0	
0.256	0.0240088	-0.0216795	0.000468825	0.000620232	0	0	0	
0.256167	-0.0275261	0.0247502	0.000550049	0.000741554	0	0	0	
0.256333	0.0311207	-0.0223205	0.000622934	0.00070913	0	0	0	
0.2565	-0.0270492	0.0156368	0.000625468	0.000584977	0	0	0	
0.256667	0.0259455	-0.00253561	0.000554847	0.000425779	0	0	0	
0.256833	-0.0208413	-0.00276289	0.000525342	0.000318882	0	0	0	
0.257	0.0156021	-0.00243079	0.000484658	0.000252136	0	0	0	
0.257167	-0.0190536	-0.00533146	0.000515108	0.000201382	0	0	0	
0.257333	0.0290778	0.0123733	0.000558199	0.000204512	0	0	0	
0.2575	-0.0274036	-0.0181965	0.000607346	0.000215844	0	0	0	
0.257667	0.0219985	0.0174479	0.000586725	0.000282884	0	0	0	
0.257833	-0.0171052	-0.00876845	0.000525986	0.000345843	0	0	0	
0.258	0.0189392	-0.00525976	0.000450636	0.000428574	0	0	0	
0.258167	-0.0145659	0.0111276	0.000414039	0.000465782	0	0	0	
0.258333	0.00559484	-0.0431478	0.000403751	0.000510785	0	0	0	
0.2585	-0.020803	-0.00369355	0.000425744	0.000481786	0	0	0	
0.258667	0.0249956	-7.75169E-05	0.00049526	0.000360136	0	0	0	
0.258833	-0.0264449	0.00635363	0.000547678	0.000235385	0	0	0	
0.259	0.0269743	-0.0102006	0.000575559	0.000151872	0	0	0	
0.259167	-0.0228709	0.00749633	0.000552564	0.000184887	0	0	0	
0.259333	0.0118758	-0.0221521	0.000507345	0.000224	0	0	0	
0.2595	-0.0180966	-0.0152669	0.000429254	0.000357067	0	0	0	
0.259667	0.0165137	-0.000126783	0.000394943	0.000401882	0	0	0	
0.259833	-0.0186583	-0.00920283	0.00040829	0.00041415	0	0	0	
0.26	0.0192036	0.0119826	0.000484464	0.000308635	0	0	0	
0.260167	-0.0217069	-0.00754839	0.000511486	0.000270468	0	0	0	
0.260333	0.0218042	-0.0058517	0.000530671	0.000279677	0	0	0	
0.2605	-0.0231477	0.0130879	0.000518265	0.000295834	0	0	0	
0.260667	0.0210002	-0.0116125	0.000501112	0.000325674	0	0	0	
0.260833	-0.0165684	0.0055693	0.000469793	0.000254763	0	0	0	
0.261	0.0167769	-0.00806306	0.000461534	0.000205892	0	0	0	
0.261167	-0.018109	0.0103233	0.000456345	0.000197208	0	0	0	
0.261333	0.0191371	-0.00855123	0.000468977	0.000204074	0	0	0	
0.2615	-0.0201246	0.00275995	0.00047524	0.000189945	0	0	0	
0.261667	0.0154504	-0.00504816	0.000472707	0.000156452	0	0	0	
0.261833	-0.0123531	0.00675806	0.000437189	0.000150345	0	0	0	
0.262	0.0154865	-0.00168134	0.000410254	0.000129687	0	0	0	
0.262167	-0.019675	-0.00730808	0.00042251	0.000123141	0	0	0	
0.262333	0.0188942	0.00814102	0.000462924	0.000109003	0	0	0	
0.2625	-0.0182224	-0.00703463	0.00046872	0.00015089	0	0	0	
0.262667	0.0205733	0.00409473	0.000450763	0.000161779	0	0	0	
0.262833	-0.0201345	-0.00130243	0.000426282	0.000193706	0	0	0	
0.263	0.00981512	-0.00265702	0.000395985	0.000231703	0	0	0	
0.263167	-0.00836107	0.00570134	0.000338771	0.000260826	0	0	0	
0.263333	0.0184207	-0.00860723	0.000344098	0.000264679	0	0	0	
0.2635	-0.0234108	0.0130471	0.000412261	0.000255308	0	0	0	
0.263667	0.0297609	-0.0165928	0.000525962	0.000259129	0	0	0	
0.263833	-0.0255773	0.008931	0.000580151	0.000276788	0	0	0	
0.264	0.0208097	0.00421036	0.000559809	0.000273855	0	0	0	
0.264167	-0.0203737	-0.00543744	0.000480849	0.000220012	0	0	0	
0.264333	0.014765	-0.00884652	0.000394508	0.000225588	0	0	0	
0.2645	-0.0168729	-0.0213965	0.000366914	0.000374205	0	0	0	
0.264667	0.0196815	-0.00324758	0.000411239	0.000409376	0	0	0	
0.264833	-0.0246994	0.00488984	0.000492174	0.000383741	0	0	0	
0.265	0.0232184	-0.00771748	0.000546797	0.000237868	0	0	0	
0.265167	-0.0201816	0.0125703	0.000541683	0.00025639	0	0	0	
0.265333	0.0227926	-0.00535567	0.000518394	0.000270285	0	0	0	
0.2655	-0.0306773	-0.0263079	0.000527489	0.000322564	0	0	0	
0.265667	0.0230364	-0.0209018	0.000544919	0.000383533	0	0	0	
0.265833	-0.0230538	0.0108607	0.00055872	0.000367401	0	0	0	
0.266	0.0252844	-0.0016794	0.000565141	0.000279852	0	0	0	
0.266167	-0.020424	-0.0072033	0.000565959	0.000178409	0	0	0	
0.266333	0.0162251	0.0141888	0.000515803	0.00016952	0	0	0	
0.2665	-0.0178286	-0.0115621	0.00043822	0.000226841	0	0	0	
0.266667	0.0165598	0.000540255	0.000401971	0.000313501	0	0	0	
0.266833	-0.0187313	0.0106333	0.000440773	0.000383398	0	0	0	
0.267	0.0225554	-0.0151395	0.000512024	0.000371426	0	0	0	
0.267167	-0.0221877	0.0117852	0.000543863	0.000323402	0	0	0	
0.267333	0.0188682	-0.00963667	0.000511623	0.000257886	0	0	0	
0.2675	-0.0204748	0.00553131	0.000465909	0.00020164	0	0	0	
0.267667	0.0193086	-0.00105366	0.000461684	0.00017729	0	0	0	
0.267833	-0.0191756	-0.00609042	0.000475411	0.000162713	0	0	0	
0.268	0.0182146	0.00500165	0.000475816	0.000142002	0	0	0	
0.268167	-0.024597	-0.00219181	0.000477648	0.000141486	0	0	0	
0.268333	0.0244941	-0.00162377	0.000526148	0.000163388	0	0	0	
0.2685	-0.0197455	0.00470765	0.00053081	0.000206059	0	0	0	
0.268667	0.0184137	-0.00807082	0.000493406	0.000206817	0	0	0	
0.268833	-0.0198699	0.0109341	0.000443407	0.000200123	0	0	0	
0.269	0.0198957	-0.00911942	0.000461231	0.000187312	0	0	0	
0.269167	-0.0181524	0.00129437	0.000501075	0.000156683	0	0	0	
0.269333	0.0245359	0.00173986	0.000536885	0.000102103	0	0	0	
0.2695	-0.0247314	-0.00118595	0.000566294	6.29672E-05	0	0	0	
0.269667	0.0237383	-0.00271615	0.000554489	8.13212E-05	0	0	0	
0.269833	-0.0167295	0.00879913	0.000490692	0.000109627	0	0	0	
0.27	0.0115093	0.0258849	0.000393729	0.000250287	0	0	0	
0.270167	-0.0075907	-0.0610156	0.000339351	0.000421904	0	0	0	
0.270333	0.0209436	-0.0584754	0.000395747	0.00130232	0	0	0	
0.2705	-0.0863514	0.427211	0.000626009	0.00298189	0	0	0	
0.270667	0.0106873	-0.207789	0.00145947	0.0050406	0	0	0	
0.270833	-0.0260531	0.299299	0.00155189	0.00706508	0	0	0	
0.271	0.0273889	-0.0452102	0.00138469	0.00668922	0	0	0	
0.271167	-0.00971627	-0.0364229	0.000551541	0.00473036	0	0	0	
0.271333	0.00820331	-0.0793257	0.000347755	0.002622	0	0	0	
0.2715	-0.00752229	0.157466	0.000247261	0.00227042	0	0	0	
0.271667	0.0216071	-0.0677802	0.000259919	0.00229825	0	0	0	
0.271833	-0.0250365	-0.0751992	0.000343675	0.00261255	0	0	0	
0.272	0.0101019	0.0745795	0.000397003	0.00218474	0	0	0	
0.272167	-0.00755177	-0.0146043	0.000329485	0.00215419	0	0	0	
0.272333	0.00764001	-0.0367949	0.000234081	0.00128755	0	0	0	
0.2725	-0.00939888	0.0141511	0.000180425	0.000791484	0	0	0	
0.272667	0.0151466	0.055711	0.000239866	0.000963828	0	0	0	
0.272833	-0.0233541	-0.0673261	0.000341935	0.00116238	0	0	0	
0.273	0.0280128	0.0394534	0.000460502	0.00140699	0	0	0	
0.273167	-0.0178793	0.00811477	0.000491142	0.00133787	0	0	0	
0.273333	0.00884885	-0.0137983	0.000407353	0.000961204	0	0	0	
0.2735	-0.00529386	-0.00269342	0.000270324	0.000601294	0	0	0	
0.273667	0.0114891	0.0109404	0.000188184	0.000200778	0	0	0	
0.273833	-0.0157934	0.0105901	0.000227231	0.000248321	0	0	0	
0.274	0.0191158	-0.0109722	0.000324506	0.00037043	0	0	0	
0.274167	-0.0157833	0.0143706	0.000410065	0.00042437	0	0	0	
0.274333	0.0135957	-0.00159704	0.000405231	0.000402347	0	0	0	
0.2745	-0.0118417	-0.00692178	0.000350244	0.000327366	0	0	0	
0.274667	0.0149602	0.023834	0.000293891	0.000370919	0	0	0	
0.274833	-0.0206946	0.0199668	0.000318762	0.000379812	0	0	0	
0.275	0.0197287	-0.178749	0.00036575	0.00121868	0	0	0	
0.275167	-0.0170122	0.00555217	0.000395622	0.00245732	0	0	0	
0.275333	0.00965343	-0.0465658	0.000363876	0.00286667	0	0	0	
0.2755	-0.00601622	0.0133328	0.000282248	0.00205177	0	0	0	
0.275667	0.00451696	0.0251402	0.000216824	0.00087433	0	0	0	
0.275833	-0.00973531	0.0283538	0.000206348	0.000599664	0	0	0	
0.276	0.0143918	-0.0323345	0.000301663	0.00219754	0	0	0	
0.276167	-0.0300175	-0.120541	0.000429471	0.00424957	0	0	0	
0.276333	0.0236473	-0.01196	0.000534389	0.00459804	0	0	0	
0.2765	-0.0164124	0.00124979	0.000510439	0.00288989	0	0	0	
0.276667	0.00808824	0.0256249	0.000399858	0.000821551	0	0	0	
0.276833	-0.00405197	-0.0195539	0.000242364	0.000387417	0	0	0	
0.277	0.0065317	-0.0620011	0.00020557	0.00120362	0	0	0	
0.277167	-0.019574	0.167826	0.000306132	0.00241229	0	0	0	
0.277333	0.0271412	-0.0653307	0.000465795	0.00348085	0	0	0	
0.2775	-0.0207639	0.0422859	0.000556539	0.00294117	0	0	0	
0.277667	0.0122641	-0.00584259	0.000486744	0.00177181	0	0	0	
0.277833	-0.00706208	-0.00373964	0.000349448	0.000551995	0	0	0	
0.278	0.00163109	-0.00519142	0.000194808	0.000292637	0	0	0	
0.278167	-0.00323136	0.0158179	0.000132863	0.000316054	0	0	0	
0.278333	0.0146589	0.0157427	0.00017007	0.00069064	0	0	0	
0.2785	-0.0160965	-0.0343758	0.000315432	0.000868928	0	0	0	
0.278667	0.0139745	0.0164113	0.000410754	0.000796923	0	0	0	
0.278833	-0.0110994	0.0144972	0.000396981	0.000585888	0	0	0	
0.279	0.0087426	-0.0243721	0.000285234	0.000463901	0	0	0	
0.279167	-0.0178381	-0.0221713	0.000252341	0.00072032	0	0	0	
0.279333	0.0258222	-0.00568875	0.000330068	0.0012693	0	0	0	
0.2795	-0.0268261	-0.00836553	0.000461693	0.0016856	0	0	0	
0.279667	0.0151178	0.00890555	0.000504018	0.00138436	0	0	0	
0.279833	-0.00739025	0.00147298	0.000403277	0.000704874	0	0	0	
0.28	0.00545188	-0.0143026	0.000260134	0.00026079	0	0	0	
0.280167	-0.0105626	0.0245777	0.000188632	0.000263984	0	0	0	
0.280333	0.0155535	-0.0218706	0.000255323	0.000431124	0	0	0	
0.2805	-0.0233524	-0.0194133	0.000357719	0.000595709	0	0	0	
0.280667	0.0215946	0.0148147	0.000446042	0.00057118	0	0	0	
0.280833	-0.0130576	0.0209846	0.00042391	0.000563973	0	0	0	
0.281	0.00882404	-0.0447617	0.000350056	0.000492121	0	0	0	
0.281167	-0.00763602	-0.0428437	0.000248369	0.00102187	0	0	0	
0.281333	0.0154297	0.30232	0.000230263	0.00186398	0	0	0	
0.2815	-0.0200062	-0.491943	0.000300075	0.00535564	0	0	0	
0.281667	0.0232665	0.169979	0.000418891	0.00634233	0	0	0	
0.281833	-0.0130056	0.0210823	0.00046973	0.00635519	0	0	0	
0.282	0.00763267	-0.0669669	0.000388519	0.00319578	0	0	0	
0.282167	-0.00537988	0.0179595	0.000256448	0.00192828	0	0	0	
0.282333	0.0137655	0.0877599	0.000205809	0.00152516	0	0	0	
0.2825	-0.0196464	-0.212683	0.000281931	0.00192225	0	0	0	
0.282667	0.0245165	0.524258	0.000379318	0.00418381	0	0	0	
0.282833	-0.0122787	-0.136484	0.000404645	0.00566078	0	0	0	
0.283	0.00709012	-0.0318431	0.000327275	0.00590121	0	0	0	
0.283167	-0.00688147	0.0757887	0.000244676	0.0036928	0	0	0	
0.283333	0.0103936	0.00745121	0.000210685	0.00212119	0	0	0	
0.2835	-0.0227563	-0.27692	0.000262597	0.00211757	0	0	0	
0.283667	0.0280587	0.782956	0.000385453	0.00569477	0	0	0	
0.283833	-0.0230991	-0.229775	0.000469649	0.0091829	0	0	0	
0.284	0.0103423	0.0654402	0.000455727	0.00869877	0	0	0	
0.284167	-0.00374368	0.0145878	0.00031589	0.00526275	0	0	0	
0.284333	0.00513359	-0.0163391	0.000201894	0.00129974	0	0	0	
0.2845	-0.0145311	-0.00302235	0.000193603	0.00077741	0	0	0	
0.284667	0.0198898	-0.0211875	0.000309104	0.000411547	0	0	0	
0.284833	-0.0221912	0.00724637	0.000410482	0.000548399	0	0	0	
0.285	0.0184645	-0.0080392	0.000466657	0.000652235	0	0	0	
0.285167	-0.011726	0.0154227	0.000418011	0.000647349	0	0	0	
0.285333	0.00666624	-0.0157382	0.00032106	0.000511003	0	0	0	
0.2855	-0.00763058	-0.0630158	0.000228642	0.000810552	0	0	0	
0.285667	0.0163671	0.178526	0.000232632	0.0012474	0	0	0	
0.285833	-0.0168365	-0.514198	0.000358537	0.00438107	0	0	0	
0.286	0.0233191	0.137254	0.000470542	0.00580841	0	0	0	
0.286167	-0.0223533	0.0392262	0.000510912	0.00638126	0	0	0	
0.286333	0.013075	-0.0518218	0.000439925	0.00347449	0	0	0	
0.2865	-0.00799225	-0.00232335	0.000341164	0.0017614	0	0	0	
0.286667	0.0118232	0.0114652	0.000265481	0.00068236	0	0	0	
0.286833	-0.0148788	0.015867	0.00026986	0.000653238	0	0	0	
0.287	0.015379	0.00431299	0.000305114	0.000916793	0	0	0	
0.287167	-0.018951	0.0124644	0.000370422	0.00107423	0	0	0	
0.287333	0.0145464	-0.0211232	0.000417843	0.000852839	0	0	0	
0.2875	-0.0110248	0.00903653	0.000405256	0.000532183	0	0	0	
0.287667	0.00821179	0.0624791	0.000320361	0.000778881	0	0	0	
0.287833	-0.0128158	-0.173132	0.000245143	0.00126346	0	0	0	
0.288	0.0141901	0.605519	0.000314634	0.00438017	0	0	0	
0.288167	-0.0216266	-0.170808	0.000462221	0.00623619	0	0	0	
0.288333	0.0255147	-0.030749	0.000579744	0.00686159	0	0	0	
0.2885	-0.0180748	0.0483048	0.000552925	0.00389318	0	0	0	
0.288667	0.0108568	0.0294107	0.00042969	0.0018822	0	0	0	
0.288833	-0.0196767	-0.0532295	0.000331566	0.000905161	0	0	0	
0.289	0.0200043	0.0562347	0.000378713	0.00154205	0	0	0	
0.289167	-0.0149572	0.113854	0.000399075	0.00197419	0	0	0	
0.289333	0.0118093	-0.0944866	0.000398412	0.00264201	0	0	0	
0.2895	-0.0102251	-0.00398121	0.000361536	0.00227189	0	0	0	
0.289667	0.0124168	0.0294053	0.000391008	0.00179397	0	0	0	
0.289833	-0.0103883	-0.0165604	0.000374357	0.00104092	0	0	0	
0.29	0.0105113	-0.0128793	0.000324977	0.000599511	0	0	0	
0.290167	-0.020425	0.150534	0.000332212	0.000729905	0	0	0	
0.290333	0.0319328	-0.093529	0.000450379	0.002102	0	0	0	
0.2905	-0.0194139	-0.00278927	0.000541496	0.00216097	0	0	0	
0.290667	0.00770698	0.00200918	0.000475659	0.00185902	0	0	0	
0.290833	-0.00759721	-0.00380507	0.000314714	0.000457804	0	0	0	
0.291	0.0139354	0.0632698	0.000206486	0.000541162	0	0	0	
0.291167	-0.0194528	-0.0713775	0.000284538	0.000872603	0	0	0	
0.291333	0.0273229	0.288047	0.000419323	0.00308465	0	0	0	
0.2915	-0.0240571	-0.12693	0.000537576	0.00590752	0	0	0	
0.291667	0.0145381	-0.104075	0.00051387	0.00666639	0	0	0	
0.291833	-0.0116403	0.0642862	0.000411882	0.00484151	0	0	0	
0.292	0.00751039	0.0430631	0.000286034	0.00230191	0	0	0	
0.292167	-0.0115152	-0.0738093	0.000215336	0.00148474	0	0	0	
0.292333	0.0216613	0.0431745	0.000252673	0.0017013	0	0	0	
0.2925	-0.0231178	0.0526429	0.000359813	0.00200709	0	0	0	
0.292667	0.0184206	-0.0555253	0.000449919	0.00205301	0	0	0	
0.292833	-0.0123555	0.00578057	0.00043544	0.00156668	0	0	0	
0.293	0.00962594	0.0223206	0.000338466	0.000844459	0	0	0	
0.293167	-0.0136826	0.000520059	0.000270227	0.000528983	0	0	0	
0.293333	0.0186522	-0.0504185	0.000295443	0.000527212	0	0	0	
0.2935	-0.0214946	0.0645285	0.000355909	0.0007649	0	0	0	
0.293667	0.00779676	-0.0552365	0.000392638	0.0010774	0	0	0	
0.293833	-0.0132087	-0.0381241	0.000394523	0.00126507	0	0	0	
0.294	0.00541799	0.00812454	0.000314523	0.000996435	0	0	0	
0.294167	-0.00460973	-0.00853865	0.000236326	0.000607597	0	0	0	
0.294333	0.0161009	0.0918672	0.000145958	0.000405837	0	0	0	
0.2945	-0.0138922	-0.0508963	0.000176147	0.000920368	0	0	0	
0.294667	0.0162806	0.0245564	0.000257631	0.00109918	0	0	0	
0.294833	-0.0401373	-0.0849025	0.000387065	0.00134945	0	0	0	
0.295	0.014396	0.00685774	0.000499171	0.000959533	0	0	0	
0.295167	-0.0130519	0.00360515	0.000462656	0.000746295	0	0	0	
0.295333	0.0113885	0.00705609	0.000376221	0.000367615	0	0	0	
0.2955	-0.0104045	0.0665098	0.000283814	0.000604019	0	0	0	
0.295667	0.0183065	-0.0123185	0.000317308	0.00101566	0	0	0	
0.295833	-0.0136235	0.0103953	0.000351757	0.00102002	0	0	0	
0.296	-0.00533731	-0.0177518	0.000298641	0.000762485	0	0	0	
0.296167	-0.000905697	0.013613	0.000206709	0.000445918	0	0	0	
0.296333	0.00515228	0.0106568	0.000139285	0.00048171	0	0	0	
0.2965	-0.0119234	-0.0255207	0.000113181	0.000329215	0	0	0	
0.296667	0.0179558	0.0391869	0.000202439	0.000609727	0	0	0	
0.296833	-0.0222401	0.0166577	0.000313914	0.000943261	0	0	0	
0.297	0.0182675	-0.0185528	0.000422503	0.0010802	0	0	0	
0.297167	-0.0110336	0.0135865	0.000395356	0.000767565	0	0	0	
0.297333	0.0106695	-0.0109534	0.000305211	0.000387129	0	0	0	
0.2975	-0.0183558	0.00396847	0.000279848	0.000249034	0	0	0	
0.297667	0.0270516	0.00364977	0.000421714	0.000359339	0	0	0	
0.297833	-0.0293278	-0.0436561	0.000582533	0.000413241	0	0	0	
0.298	0.0310985	0.0233656	0.000664438	0.000527426	0	0	0	
0.298167	-0.018849	-0.00408469	0.000585411	0.000445369	0	0	0	
0.298333	0.00639731	-0.00447951	0.000428643	0.000412091	0	0	0	
0.2985	-0.00384739	0.00707843	0.00028924	0.000239993	0	0	0	
0.298667	0.00643236	0.00505398	0.000286823	0.000226649	0	0	0	
0.298833	-0.0163174	0.023899	0.000394879	0.000375904	0	0	0	
0.299	0.0226349	-0.0115278	0.000524764	0.000628726	0	0	0	
0.299167	-0.0244552	0.00838416	0.000599371	0.000708452	0	0	0	
0.299333	0.0110713	-0.0136817	0.000627779	0.000636799	0	0	0	
0.2995	-0.0117888	0.0141454	0.000564012	0.000436495	0	0	0	
0.299667	0.0175221	0.0223708	0.000430636	0.000521837	0	0	0	
0.299833	-0.0291204	-0.0493215	0.000383181	0.00073042	0	0	0	
0.3	0.0244087	0.0564743	0.000437965	0.000865074	0	0	0	
0.300167	-0.0119918	-0.0500967	0.00048241	0.00105889	0	0	0	
0.300333	-0.0062591	0.0117881	0.000402119	0.00114422	0	0	0	
0.3005	-0.000274737	0.0295636	0.000264113	0.00126016	0	0	0	
0.300667	0.0102163	-0.0276702	0.000189396	0.000976271	0	0	0	
0.300833	-0.0193841	0.00250368	0.000215971	0.000735546	0	0	0	
0.301	0.0211365	0.026129	0.000317718	0.000657141	0	0	0	
0.301167	-0.0196475	-0.0328522	0.000431336	0.000724603	0	0	0	
0.301333	0.0186095	0.03271	0.0004895	0.000716393	0	0	0	
0.3015	-0.0139976	-0.0216383	0.000467657	0.000626431	0	0	0	
0.301667	0.0124593	0.00652412	0.000386589	0.000480185	0	0	0	
0.301833	-0.0167195	-0.00251765	0.000301219	0.000320062	0	0	0	
0.302	0.032222	0.0248678	0.000355749	0.000263578	0	0	0	
0.302167	-0.0247921	-0.0169305	0.000450704	0.000454742	0	0	0	
0.302333	0.0114493	-0.0115122	0.000492332	0.000617093	0	0	0	
0.3025	-0.00578651	0.0105068	0.000390206	0.000612537	0	0	0	
0.302667	0.00788591	-0.00544522	0.000252579	0.000385238	0	0	0	
0.302833	-0.00691351	0.00123884	0.000188882	0.000186867	0	0	0	
0.303	0.0135564	-0.0178172	0.000189155	0.00014707	0	0	0	
0.303167	-0.0167831	0.0602957	0.000266286	0.000376645	0	0	0	
0.303333	0.0243733	-0.0880445	0.000357911	0.0010258	0	0	0	
0.3035	-0.0198006	0.024669	0.000426371	0.00125174	0	0	0	
0.303667	0.00735825	0.0121026	0.000391245	0.00107316	0	0	0	
0.303833	-0.00523677	-0.0127372	0.000294833	0.000481141	0	0	0	
0.304	0.0173032	-0.0273669	0.000254179	0.000408693	0	0	0	
0.304167	-0.00658724	0.101544	0.000382626	0.00100156	0	0	0	
0.304333	0.0244532	-0.0479052	0.000556032	0.00172067	0	0	0	
0.3045	-0.0274888	0.0137509	0.000666981	0.00176109	0	0	0	
0.304667	0.0209048	0.000371747	0.000616153	0.00116004	0	0	0	
0.304833	-0.0013759	-0.0136907	0.000446717	0.000400914	0	0	0	
0.305	0.000141761	0.0019861	0.000259874	0.000235114	0	0	0	
0.305167	0.0141308	0.0190059	0.000218494	0.000454066	0	0	0	
0.305333	0.00549163	0.0199155	0.000270166	0.000895556	0	0	0	
0.3055	-0.00237519	0.0648045	0.000320604	0.00113732	0	0	0	
0.305667	0.0115409	-0.0250716	0.000340342	0.00113349	0	0	0	
0.305833	-0.0041654	-0.0219503	0.000448102	0.00100112	0	0	0	
0.306	0.0094956	0.0206376	0.000466046	0.000790787	0	0	0	
0.306167	0.00205558	0.0217246	0.000381918	0.000699743	0	0	0	
0.306333	-0.0029241	-0.044045	0.00032604	0.000536046	0	0	0	
0.3065	-0.000628729	0.0854572	0.000491172	0.00110674	0	0	0	
0.306667	0.009612	-0.0619424	0.000660318	0.00137956	0	0	0	
0.306833	-0.00516867	0.0242165	0.000689999	0.00144702	0	0	0	
0.307	0.0134114	-0.00418803	0.00055702	0.000825199	0	0	0	
0.307167	-0.0120956	0.0110237	0.000395819	0.000426912	0	0	0	
0.307333	-0.00467704	-0.04259	0.000342658	0.000398924	0	0	0	
0.3075	0.00919672	0.0993885	0.00042737	0.000869064	0	0	0	
0.307667	-0.0145998	-0.0449344	0.000485994	0.00126642	0	0	0	
0.307833	0.00535058	-0.00328814	0.000441726	0.0011765	0	0	0	
0.308	0.0034892	0.0138266	0.000444437	0.000695861	0	0	0	
0.308167	-0.0200165	-0.00648798	0.000479881	0.000279496	0	0	0	
0.308333	0.0257224	-0.0139677	0.000536265	0.000281307	0	0	0	
0.3085	-0.0448387	0.0145987	0.000557697	0.000308387	0	0	0	
0.308667	0.0299092	-0.00248534	0.00065502	0.000569493	0	0	0	
0.308833	-0.0234763	0.0127837	0.000710565	0.000798372	0	0	0	
0.309	0.0215188	-0.0218255	0.000667947	0.000929746	0	0	0	
0.309167	-0.0210221	0.00472513	0.000541162	0.000718325	0	0	0	
0.309333	0.0114819	-0.0242597	0.000434007	0.0005186	0	0	0	
0.3095	0.00307246	0.0679829	0.000289576	0.000541553	0	0	0	
0.309667	0.000386429	-0.104164	0.000168024	0.000981759	0	0	0	
0.309833	-0.0141823	0.0804716	0.000135541	0.00142372	0	0	0	
0.31	0.0152685	-0.0335739	0.000226997	0.0015423	0	0	0	
0.310167	-0.0130994	0.0453951	0.000363653	0.00152236	0	0	0	
0.310333	0.0149562	-0.0109279	0.000415264	0.00124353	0	0	0	
0.3105	-0.0144592	0.00586728	0.000365828	0.00109554	0	0	0	
0.310667	0.0230506	-0.000101055	0.000329904	0.00100411	0	0	0	
0.310833	-0.0299126	0.00434206	0.000385717	0.00125857	0	0	0	
0.311	0.038322	-0.00370186	0.000585338	0.00144555	0	0	0	
0.311167	-0.0318249	0.0517078	0.000713457	0.00126224	0	0	0	
0.311333	0.0146997	-0.0258751	0.000688308	0.000965355	0	0	0	
0.3115	-0.00412221	0.0369757	0.00044742	0.000736256	0	0	0	
0.311667	-0.00345893	-0.0566545	0.00022384	0.000703059	0	0	0	
0.311833	-0.00258795	0.0436184	0.000140596	0.000905205	0	0	0	
0.312	0.0101186	-0.0995691	0.00024044	0.0016259	0	0	0	
0.312167	-0.0291072	0.0169666	0.000461238	0.00190729	0	0	0	
0.312333	0.021256	0.00950204	0.000657871	0.0014852	0	0	0	
0.3125	-0.0118631	0.00975178	0.000632637	0.000716707	0	0	0	
0.312667	0.00739522	-0.016205	0.000471583	0.000273573	0	0	0	
0.312833	-0.012392	0.00756538	0.000383859	0.000452788	0	0	0	
0.313	0.0109642	-0.0270477	0.000501426	0.000817321	0	0	0	
0.313167	-0.0204306	-0.0139942	0.000632936	0.00102083	0	0	0	
0.313333	0.0189448	0.027467	0.000653175	0.000931503	0	0	0	
0.3135	-0.017477	-0.0119185	0.000532187	0.000560633	0	0	0	
0.313667	0.00401775	-0.00217268	0.000383565	0.000397875	0	0	0	
0.313833	0.00297901	0.0259759	0.000204343	0.000309084	0	0	0	
0.314	0.000673098	-0.0343559	0.000147219	0.00040938	0	0	0	
0.314167	-0.0172213	0.00271284	0.000170399	0.000464431	0	0	0	
0.314333	0.0239668	-0.00245613	0.000324468	0.000463874	0	0	0	
0.3145	-0.020096	-0.000144199	0.000458696	0.000310353	0	0	0	
0.314667	0.0138903	0.011032	0.000482656	0.000192601	0	0	0	
0.314833	-0.00803917	0.00126365	0.00038511	0.00019217	0	0	0	
0.315	0.00427121	-0.0592394	0.000266993	0.000358094	0	0	0	
0.315167	-0.0175954	0.084034	0.000290645	0.000943672	0	0	0	
0.315333	0.0220935	-0.0384995	0.000420661	0.00119698	0	0	0	
0.3155	-0.0215777	0.0103976	0.000515344	0.00114715	0	0	0	
0.315667	0.0102448	0.00425231	0.00047771	0.000617062	0	0	0	
0.315833	-0.00889533	-0.0039942	0.000340105	0.000312644	0	0	0	
0.316	0.0147014	-0.00443595	0.000258748	0.000230553	0	0	0	
0.316167	-0.0214686	0.0194012	0.000301124	0.000402315	0	0	0	
0.316333	0.0215508	0.0184043	0.000366459	0.000702082	0	0	0	
0.3165	-0.0256956	0.000599212	0.000431138	0.000670572	0	0	0	
0.316667	0.0132547	0.0118341	0.000424463	0.000426165	0	0	0	
0.316833	-0.0120253	-0.0169452	0.000373148	0.00019983	0	0	0	
0.317	0.00799489	0.00267082	0.000281175	0.000263427	0	0	0	
0.317167	-0.0050037	0.0515993	0.000208218	0.00056756	0	0	0	
0.317333	0.0104979	-0.0754961	0.000213316	0.00109111	0	0	0	
0.3175	-0.0274452	0.0729203	0.000306405	0.00150253	0	0	0	
0.317667	0.0220069	-0.0376226	0.00044014	0.00146663	0	0	0	
0.317833	-0.0106655	0.00407094	0.000464631	0.00108724	0	0	0	
0.318	0.00522812	0.00978754	0.000372024	0.000660352	0	0	0	
0.318167	-0.0105509	-0.0140708	0.000264958	0.000420369	0	0	0	
0.318333	0.0174287	0.0230974	0.00028066	0.000426524	0	0	0	
0.3185	-0.0197974	-0.0480441	0.000333966	0.000898361	0	0	0	
0.318667	0.0159884	-0.000534743	0.000377157	0.00137974	0	0	0	
0.318833	-0.00997156	0.025808	0.000370334	0.00137763	0	0	0	
0.319	0.0104563	-0.0176637	0.000343019	0.000905065	0	0	0	
0.319167	-0.0115888	-0.00435721	0.000288632	0.000490121	0	0	0	
0.319333	0.0115902	0.0294382	0.000235973	0.000378987	0	0	0	
0.3195	-0.0126099	-0.117513	0.000231138	0.000652397	0	0	0	
0.319667	0.0163829	0.0726849	0.000278483	0.00137778	0	0	0	
0.319833	-0.0195458	-0.0159571	0.000342374	0.0015084	0	0	0	
0.32	0.0116746	-0.00726682	0.000355942	0.00128745	0	0	0	
0.320167	-0.00990148	0.0067131	0.000301445	0.000494329	0	0	0	
0.320333	0.0114353	0.0129846	0.000240504	0.000275984	0	0	0	
0.3205	0.035921	-0.0277657	0.000257423	0.000217912	0	0	0	
0.320667	0.04457	-0.0214741	0.000827573	0.000602059	0	0	0	
0.320833	-0.0306753	-0.0559049	0.00116457	0.0011104	0	0	0	
0.321	0.0118185	0.0718905	0.00123494	0.00211443	0	0	0	
0.321167	-0.0177655	-0.0251989	0.000719168	0.00250972	0	0	0	
0.321333	0.0156071	0.0623393	0.000453448	0.00246082	0	0	0	
0.3215	-0.0157413	-0.129088	0.000433698	0.00244304	0	0	0	
0.321667	0.00924674	0.0907374	0.000535049	0.00257941	0	0	0	
0.321833	-0.00101201	-0.0396016	0.000624874	0.00240014	0	0	0	
0.322	0.0233483	0.0229823	0.000629451	0.00170048	0	0	0	
0.322167	-0.0321085	-0.016934	0.00061861	0.000928358	0	0	0	
0.322333	0.0320419	0.0432646	0.000614823	0.000859206	0	0	0	
0.3225	-0.0246134	-0.0408657	0.000628656	0.000631287	0	0	0	
0.322667	0.0287875	0.0263074	0.000597301	0.000722914	0	0	0	
0.322833	-0.015388	0.00622597	0.000535738	0.000828304	0	0	0	
0.323	0.023335	-0.00330836	0.00047526	0.000888393	0	0	0	
0.323167	-0.0236284	0.0164792	0.00044937	0.000708555	0	0	0	
0.323333	0.0238871	-0.0126777	0.000461369	0.00041901	0	0	0	
0.3235	-0.0197771	0.0242816	0.000495898	0.000437311	0	0	0	
0.323667	0.021653	-0.00929544	0.000510404	0.00042955	0	0	0	
0.323833	-0.0202706	0.00311076	0.000540783	0.000433015	0	0	0	
0.324	0.0227669	0.00259673	0.000569883	0.000265345	0	0	0	
0.324167	-0.0234563	-0.00886892	0.000562915	0.000193414	0	0	0	
