0	-0.00312326	-0.00411773	3.12326E-07	4.11773E-07	0	0	0	
0.000166667	0.012307	0.0156734	5.77036E-05	5.82529E-05	0	0	0	
0.000333333	-0.0123285	-0.0102767	0.00012882	0.0001495	0	0	0	
0.0005	0.00715839	0.00139571	0.000223161	0.0001836	0	0	0	
0.000666667	-0.00252564	0.00240784	0.000281302	0.000139382	0	0	0	
0.000833333	0.00343045	-0.00199837	0.000319262	6.07086E-05	0	0	0	
0.001	-0.00851705	-0.00252231	0.000316741	5.29896E-05	0	0	0	
0.00116667	0.0102236	0.00683145	0.000278231	8.84855E-05	0	0	0	
0.00133333	-0.0114135	0.00285425	0.000231608	0.00016183	0	0	0	
0.0015	0.0201162	-0.00425259	0.000239095	0.000221961	0	0	0	
0.00166667	-0.0248119	0.00820612	0.000310742	0.000222132	0	0	0	
0.00183333	0.0241915	-0.0088786	0.000418284	0.000192534	0	0	0	
0.002	-0.0219234	-0.00394713	0.000488436	0.000135999	0	0	0	
0.00216667	0.0175733	0.0121543	0.000476291	0.000177625	0	0	0	
0.00233333	-0.0184277	-0.00651936	0.000410123	0.000198145	0	0	0	
0.0025	0.02504	-0.00367458	0.000378999	0.000212064	0	0	0	
0.00266667	-0.0221585	0.00592454	0.000400126	0.000199823	0	0	0	
0.00283333	0.0173797	-0.000793864	0.000422654	0.000168534	0	0	0	
0.003	-0.0206888	0.00177373	0.000404133	0.000142913	0	0	0	
0.00316667	0.0220657	-0.00270003	0.000390146	0.000118103	0	0	0	
0.00333333	-0.0152848	0.00120395	0.000382168	0.000134592	0	0	0	
0.0035	0.0154439	0.00295178	0.000364318	0.000159664	0	0	0	
0.00366667	-0.0217467	-0.00834674	0.000339184	0.000147026	0	0	0	
0.00383333	0.0332213	0.00315434	0.00039162	0.000130792	0	0	0	
0.004	-0.0385485	0.00693656	0.000524378	0.000122375	0	0	0	
0.00416667	0.0264974	-0.00542147	0.000648441	0.000128866	0	0	0	
0.00433333	0.000113116	-2.69491E-05	0.000658632	0.000156344	0	0	0	
0.0045	0.00222866	-0.00841312	0.000537705	0.000333797	0	0	0	
0.00466667	-0.0162774	0.0257064	0.000383285	0.000535523	0	0	0	
0.00483333	0.0268719	-0.0245326	0.000359516	0.000587302	0	0	0	
0.005	-0.0275874	0.011088	0.000420289	0.00061228	0	0	0	
0.00516667	0.0299867	0.00812202	0.000511446	0.000619119	0	0	0	
0.00533333	-0.0299997	-0.023425	0.000539227	0.000602305	0	0	0	
0.0055	0.0304648	0.0293247	0.000568075	0.000543228	0	0	0	
0.00566667	-0.017188	-0.0248017	0.000609129	0.00048127	0	0	0	
0.00583333	0.0100435	0.00470102	0.000526804	0.00055239	0	0	0	
0.006	-0.0155164	0.0297887	0.000404546	0.000542735	0	0	0	
0.00616667	0.0214192	-0.0354325	0.000306015	0.000556299	0	0	0	
0.00633333	-0.0173226	0.0132143	0.000332543	0.000547045	0	0	0	
0.0065	0.0131741	0.0111933	0.000344173	0.000495541	0	0	0	
0.00666667	-0.0174396	-0.00923604	0.000324016	0.000351193	0	0	0	
0.00683333	0.0223619	-0.000207949	0.000328716	0.000216815	0	0	0	
0.007	-0.0196938	0.0021446	0.000363735	0.000125137	0	0	0	
0.00716667	0.0165727	-0.00765855	0.000408786	0.000107757	0	0	0	
0.00733333	-0.0102391	0.00501584	0.000407041	0.000125514	0	0	0	
0.0075	-0.00655294	-0.00197506	0.000411231	0.000113724	0	0	0	
0.00766667	0.00208509	0.0203221	0.000510184	0.000152581	0	0	0	
0.00783333	0.0165269	-0.0180946	0.000612158	0.000299706	0	0	0	
0.008	-0.0143808	-0.0189879	0.000607579	0.000407824	0	0	0	
0.00816667	0.0274352	0.0214696	0.000536733	0.000469473	0	0	0	
0.00833333	-0.030572	-0.00484625	0.000501721	0.000379306	0	0	0	
0.0085	0.0291618	-0.0176408	0.000565427	0.00032832	0	0	0	
0.00866667	-0.0362768	0.0184768	0.000611878	0.00031163	0	0	0	
0.00883333	0.046114	0.00468273	0.000859732	0.00029148	0	0	0	
0.009	-0.0223613	-0.025057	0.000862588	0.000379803	0	0	0	
0.00916667	0.021142	0.0146908	0.000792442	0.000440328	0	0	0	
0.00933333	-0.0135624	0.00105862	0.000469809	0.00046858	0	0	0	
0.0095	0.0166329	-0.0106368	0.000351987	0.000383643	0	0	0	
0.00966667	-0.0231737	0.00210355	0.000348462	0.000288241	0	0	0	
0.00983333	0.0154885	0.00415554	0.000368931	0.000208125	0	0	0	
0.01	-0.0115885	-0.00101225	0.000416831	0.000215502	0	0	0	
0.0101667	0.0121616	0.00680158	0.000395432	0.000140409	0	0	0	
0.0103333	-0.0163723	-0.00895129	0.000372934	0.000176819	0	0	0	
0.0105	0.0237477	0.0104741	0.000402561	0.000195082	0	0	0	
0.0106667	-0.0240397	-0.000212735	0.000451054	0.000252045	0	0	0	
0.0108333	0.0193954	-0.0095212	0.000465688	0.000215338	0	0	0	
0.011	-0.0249373	0.0104507	0.000463516	0.00019396	0	0	0	
0.0111667	0.0243703	0.000520719	0.000458957	0.000211154	0	0	0	
0.0113333	-0.0210455	-0.0113992	0.000468339	0.000267936	0	0	0	
0.0115	0.0218205	0.0122002	0.000454018	0.000293131	0	0	0	
0.0116667	-0.0247332	-0.00475003	0.000442522	0.000259322	0	0	0	
0.0118333	0.0222148	0.0019356	0.000446115	0.00018414	0	0	0	
0.012	-0.0184235	-0.00535022	0.000439054	0.00010169	0	0	0	
0.0121667	0.012545	0.00524086	0.000379136	7.81154E-05	0	0	0	
0.0123333	-0.0131961	-0.00211807	0.000319018	9.11925E-05	0	0	0	
0.0125	0.0211634	-0.00467709	0.00032303	9.95031E-05	0	0	0	
0.0126667	-0.0212331	-0.0011159	0.000382686	0.000113474	0	0	0	
0.0128333	0.0157099	0.00254379	0.000407921	0.000138832	0	0	0	
0.013	-0.0149774	-0.00841036	0.000367453	0.000160248	0	0	0	
0.0131667	0.0164204	0.0149148	0.000326745	0.000189424	0	0	0	
0.0133333	-0.0201226	-0.0161354	0.000350948	0.000240694	0	0	0	
0.0135	0.0269999	0.00579559	0.000441402	0.000249979	0	0	0	
0.0136667	-0.0199348	0.0020276	0.000491238	0.000261625	0	0	0	
0.0138333	0.0115309	-0.0108211	0.000444217	0.000221893	0	0	0	
0.014	-0.0138811	0.0114109	0.000338178	0.000244378	0	0	0	
0.0141667	0.0181959	-0.00782682	0.000287315	0.000201371	0	0	0	
0.0143333	-0.0219625	0.00301472	0.000343526	0.000224937	0	0	0	
0.0145	0.0216913	0.00445425	0.000420871	0.00027769	0	0	0	
0.0146667	-0.0166619	-0.00794563	0.000432316	0.000343195	0	0	0	
0.0148333	0.0147476	0.0111061	0.000383787	0.000314067	0	0	0	
0.015	-0.0178182	-0.0146159	0.000340165	0.000260618	0	0	0	
0.0151667	0.0225935	0.00709655	0.00035871	0.000225035	0	0	0	
0.0153333	-0.0242903	0.000806841	0.000429467	0.000186855	0	0	0	
0.0155	0.0202663	0.000507207	0.000467535	0.00013899	0	0	0	
0.0156667	-0.0200097	-0.000198439	0.000452277	9.77559E-05	0	0	0	
0.0158333	0.0198953	0.00305557	0.000409896	8.99639E-05	0	0	0	
0.016	-0.0170081	-0.0011243	0.000378723	7.61235E-05	0	0	0	
0.0161667	0.0192009	0.000502196	0.000374157	0.000112651	0	0	0	
0.0163333	-0.0203117	-0.00350719	0.000389425	0.000185305	0	0	0	
0.0165	0.0150501	0.00641637	0.000384319	0.000204872	0	0	0	
0.0166667	-0.013996	-0.00558902	0.000351534	0.000168481	0	0	0	
0.0168333	0.017334	0.00503731	0.000323317	0.000113688	0	0	0	
0.017	-0.0172477	0.00070794	0.000337361	9.13687E-05	0	0	0	
0.0171667	0.0178174	-0.00925791	0.000363107	8.86428E-05	0	0	0	
0.0173333	-0.0162026	0.00677712	0.000361907	0.000113911	0	0	0	
0.0175	0.0160949	0.00362016	0.000338825	0.000145702	0	0	0	
0.0176667	-0.0197976	-0.0131652	0.000360624	0.000182254	0	0	0	
0.0178333	0.0279166	0.0106725	0.000440078	0.000212066	0	0	0	
0.018	-0.0248849	-0.0084979	0.000534957	0.000211299	0	0	0	
0.0181667	0.0156605	0.00135984	0.000529525	0.000176673	0	0	0	
0.0183333	-0.00985209	-0.00107224	0.000440625	0.000143877	0	0	0	
0.0185	0.0165337	-0.00360079	0.000375592	0.000150676	0	0	0	
0.0186667	-0.0209487	0.00108655	0.00038718	0.00012749	0	0	0	
0.0188333	0.0267937	-0.00187363	0.000447605	0.000136015	0	0	0	
0.019	-0.0249408	-0.00734906	0.000486443	0.000148392	0	0	0	
0.0191667	0.0198365	0.00973644	0.000464009	0.000185932	0	0	0	
0.0193333	-0.0193418	-0.00868081	0.000471287	0.000183787	0	0	0	
0.0195	0.020868	0.00912022	0.000488131	0.000194684	0	0	0	
0.0196667	-0.0150745	-0.000976218	0.000499004	0.000232925	0	0	0	
0.0198333	0.0123064	-0.0169102	0.000408426	0.000223695	0	0	0	
0.02	-0.0156721	0.00969324	0.000306438	0.000263252	0	0	0	
0.0201667	0.0202752	0.017742	0.00029861	0.000359759	0	0	0	
0.0203333	-0.0241689	-0.0244028	0.00037282	0.000449358	0	0	0	
0.0205	0.0202471	0.0163224	0.000433842	0.000465544	0	0	0	
0.0206667	-0.0130498	0.00279833	0.000411099	0.000399507	0	0	0	
0.0208333	0.0129473	-0.0153071	0.000356539	0.00035077	0	0	0	
0.021	-0.0176232	0.0205945	0.000338942	0.000339414	0	0	0	
0.0211667	0.0162222	-0.00289309	0.000357302	0.000286034	0	0	0	
0.0213333	-0.0165437	-0.0132347	0.000365579	0.000262633	0	0	0	
0.0215	0.0120322	0.0171164	0.000330435	0.000232505	0	0	0	
0.0216667	-0.0123013	0.00575451	0.00030616	0.000296176	0	0	0	
0.0218333	0.0161438	-0.0153743	0.00032254	0.000312219	0	0	0	
0.022	-0.017329	0.00531303	0.000356986	0.000336993	0	0	0	
0.0221667	0.0155212	0.015388	0.000376073	0.000361738	0	0	0	
0.0223333	-0.0166377	-0.0125448	0.000367378	0.000364145	0	0	0	
0.0225	0.0158144	-0.00246236	0.000350562	0.0002875	0	0	0	
0.0226667	-0.0166873	-0.00214639	0.000338878	0.000203476	0	0	0	
0.0228333	0.0170363	0.00225999	0.000337551	0.000135314	0	0	0	
0.023	-0.0197248	0.0144619	0.000338494	0.000172653	0	0	0	
0.0231667	0.0221881	-0.0102938	0.000393559	0.000191907	0	0	0	
0.0233333	-0.0149432	-0.0224105	0.000452379	0.000379793	0	0	0	
0.0235	0.0158745	0.0250666	0.000488057	0.000406724	0	0	0	
0.0236667	-0.0163068	0.0158737	0.000450233	0.000708906	0	0	0	
0.0238333	0.0180914	-0.0602873	0.000370273	0.000907159	0	0	0	
0.024	-0.0129357	0.0524518	0.000355077	0.00114466	0	0	0	
0.0241667	0.0146694	-0.0228035	0.000363288	0.00101421	0	0	0	
0.0243333	-0.0285071	0.00568953	0.000407726	0.000781077	0	0	0	
0.0245	0.0305771	-0.00781272	0.000472644	0.000598552	0	0	0	
0.0246667	-0.0142798	-0.00335153	0.000474693	0.000495578	0	0	0	
0.0248333	0.0154448	0.0180631	0.000441556	0.000403406	0	0	0	
0.025	-0.0174794	-0.0254224	0.000393469	0.000385303	0	0	0	
0.0251667	0.013113	0.0223089	0.00037987	0.000440944	0	0	0	
0.0253333	-0.0146766	-0.00572476	0.000371457	0.000531231	0	0	0	
0.0255	0.0132927	-0.0119902	0.000300048	0.000487533	0	0	0	
0.0256667	-0.00573234	-0.00325026	0.000270878	0.000353234	0	0	0	
0.0258333	0.0138546	-0.00543066	0.000253636	0.000343605	0	0	0	
0.026	-0.0302331	0.043675	0.000330348	0.000478981	0	0	0	
0.0261667	0.0245093	-0.0599815	0.000411032	0.000720637	0	0	0	
0.0263333	-0.00598782	0.0241962	0.000437488	0.00100577	0	0	0	
0.0265	-3.6119E-05	0.0125121	0.000347768	0.00111807	0	0	0	
0.0266667	-0.00919858	-0.0107544	0.000210167	0.000887531	0	0	0	
0.0268333	0.0193367	-0.00328733	0.000192611	0.000510743	0	0	0	
0.027	-0.0171406	-0.00782228	0.000280199	0.00031442	0	0	0	
0.0271667	0.0078204	0.0133988	0.000369727	0.000263731	0	0	0	
0.0273333	-0.0125355	0.0178727	0.000360237	0.000449016	0	0	0	
0.0275	0.0155143	-0.0289213	0.000296571	0.000629324	0	0	0	
0.0276667	-0.0108058	0.0309525	0.00027656	0.000762709	0	0	0	
0.0278333	0.0107952	-0.0175749	0.000378907	0.000667812	0	0	0	
0.028	-0.0128349	0.00440535	0.000429665	0.000426211	0	0	0	
0.0281667	0.0127959	-0.00363694	0.000413648	0.000270208	0	0	0	
0.0283333	-0.0171564	0.0130605	0.000327696	0.000179918	0	0	0	
0.0285	0.0120659	0.00993477	0.000294009	0.000161621	0	0	0	
0.0286667	-0.00560458	-0.0196028	0.000321193	0.000268343	0	0	0	
0.0288333	0.014206	0.0221325	0.000342821	0.000307238	0	0	0	
0.029	-0.0222	-0.0124464	0.000376063	0.000415197	0	0	0	
0.0291667	0.0210757	-0.0100076	0.000414046	0.00046129	0	0	0	
0.0293333	-0.0172458	0.0146159	0.000448405	0.00045499	0	0	0	
0.0295	0.0122149	-0.0038308	0.000442012	0.000338096	0	0	0	
0.0296667	-0.0149752	0.00397052	0.000412995	0.000222259	0	0	0	
0.0298333	0.0279496	-0.0125206	0.000420995	0.000200216	0	0	0	
0.03	-0.0289074	0.0107411	0.000479652	0.000206518	0	0	0	
0.0301667	0.0146105	0.00339815	0.000497953	0.000318303	0	0	0	
0.0303333	-0.00154096	-0.0225917	0.000406876	0.000322629	0	0	0	
0.0305	0.00976131	0.0192135	0.000292153	0.000423829	0	0	0	
0.0306667	-0.0219585	-0.00911682	0.000298241	0.000402976	0	0	0	
0.0308333	0.0165386	0.00510466	0.000383838	0.00039438	0	0	0	
0.031	-0.00119723	-0.012116	0.000387361	0.000339736	0	0	0	
0.0311667	0.00120743	0.0129609	0.000310853	0.000254104	0	0	0	
0.0313333	-0.0176849	-0.00833332	0.000275121	0.00028678	0	0	0	
0.0315	0.0296915	0.00567417	0.000391293	0.0002636	0	0	0	
0.0316667	-0.0223015	-0.00750367	0.00051679	0.000270964	0	0	0	
0.0318333	0.0152829	0.00271068	0.000538555	0.00024153	0	0	0	
0.032	-0.0192299	0.00712975	0.000483588	0.000209464	0	0	0	
0.0321667	0.0260945	-0.0124616	0.000456372	0.000295948	0	0	0	
0.0323333	-0.0289535	0.0115061	0.000515582	0.000276451	0	0	0	
0.0325	0.0188518	0.0026803	0.000545276	0.000334766	0	0	0	
0.0326667	-0.0066771	-0.00972117	0.000462874	0.000315307	0	0	0	
0.0328333	0.0140387	0.0072211	0.000395744	0.000284357	0	0	0	
0.033	-0.0201176	-0.00617211	0.000381685	0.000269765	0	0	0	
0.0331667	0.0130618	0.00890402	0.000416675	0.000224533	0	0	0	
0.0333333	-0.0064514	-0.00655722	0.000339101	0.000272445	0	0	0	
0.0335	0.00712821	0.00870639	0.000243498	0.000214749	0	0	0	
0.0336667	-0.016557	0.000951422	0.000225768	0.000168836	0	0	0	
0.0338333	0.03301	-0.00878501	0.000377506	0.000160472	0	0	0	
0.034	-0.027621	-0.00248791	0.0005377	0.000139118	0	0	0	
0.0341667	0.00943693	0.0100826	0.000553675	0.000193453	0	0	0	
0.0343333	-0.00778952	-0.00665139	0.000452295	0.00018386	0	0	0	
0.0345	0.0227334	0.00107649	0.000383856	0.000236419	0	0	0	
0.0346667	-0.0295671	0.0046538	0.000466042	0.00023015	0	0	0	
0.0348333	0.0185592	0.00456082	0.000530068	0.000200848	0	0	0	
0.035	-0.00364791	-0.00992005	0.000429608	0.000185925	0	0	0	
0.0351667	0.00553663	0.00161695	0.000315922	0.000141877	0	0	0	
0.0353333	-0.0218579	0.00490623	0.000315379	0.000146122	0	0	0	
0.0355	0.0304427	-0.000346202	0.000483162	0.000102055	0	0	0	
0.0356667	-0.0204063	-0.00938711	0.000579315	0.000121479	0	0	0	
0.0358333	0.00872455	0.0146118	0.000491899	0.000203119	0	0	0	
0.036	-0.00991106	-0.00260284	0.000373034	0.000260165	0	0	0	
0.0361667	0.0155651	-0.000423417	0.000352111	0.000201217	0	0	0	
0.0363333	-0.0235198	-0.0032983	0.000463409	9.06459E-05	0	0	0	
0.0365	0.0256716	0.0120621	0.000552267	7.05641E-05	0	0	0	
0.0366667	-0.0160102	-0.0141186	0.000533235	0.000152796	0	0	0	
0.0368333	0.0107629	0.00408123	0.000428501	0.000212255	0	0	0	
0.037	-0.0163297	5.58148E-05	0.000365552	0.000181327	0	0	0	
0.0371667	0.0187249	0.00683936	0.000392942	0.000124086	0	0	0	
0.0373333	-0.0186409	-0.0076623	0.000485497	0.000103589	0	0	0	
0.0375	0.0167087	0.00694368	0.000510204	0.000132224	0	0	0	
0.0376667	-0.016196	0.00392442	0.000461625	0.000123605	0	0	0	
0.0378333	0.0184119	-0.00484256	0.000393939	0.000125133	0	0	0	
0.038	-0.0263091	-0.00623888	0.000405542	0.000164631	0	0	0	
0.0381667	0.0237039	0.016481	0.000476752	0.000227354	0	0	0	
0.0383333	-0.0097988	-0.0170576	0.000544907	0.000283428	0	0	0	
0.0385	0.00433869	0.00258251	0.000539898	0.000299502	0	0	0	
0.0386667	-0.00715277	0.0127511	0.000434097	0.00037122	0	0	0	
0.0388333	0.0117673	-0.0187682	0.000321698	0.000408102	0	0	0	
0.039	-0.0160199	0.00965337	0.000254253	0.000386175	0	0	0	
0.0391667	0.016421	0.00991614	0.000322294	0.000421882	0	0	0	
0.0393333	-0.0139967	-0.0214998	0.000427266	0.000421648	0	0	0	
0.0395	0.0169129	0.010261	0.000486159	0.000420542	0	0	0	
0.0396667	-0.0112704	-0.0094368	0.000455599	0.000338389	0	0	0	
0.0398333	0.00872347	0.00573412	0.000429338	0.000259637	0	0	0	
0.04	-0.0106801	-0.003118	0.000415079	0.000209908	0	0	0	
0.0401667	0.013566	-0.00222594	0.000397848	0.000163745	0	0	0	
0.0403333	-0.0137715	0.00629008	0.000366592	0.000139953	0	0	0	
0.0405	0.0154305	0.000814953	0.000393119	0.000135106	0	0	0	
0.0406667	-0.01021	-0.0122908	0.000427807	0.000105034	0	0	0	
0.0408333	0.0139606	-0.000532469	0.000418325	0.000121075	0	0	0	
0.041	-0.0186512	0.00996005	0.000378065	0.000147671	0	0	0	
0.0411667	0.013674	-0.00510104	0.000366815	0.000149156	0	0	0	
0.0413333	-0.0132921	0.0051883	0.000421764	0.000178078	0	0	0	
0.0415	0.0155092	0.00389652	0.000445341	0.00014545	0	0	0	
0.0416667	-0.0119077	-0.0051636	0.000424938	0.000143628	0	0	0	
0.0418333	0.0135024	-0.000590635	0.000368744	8.67671E-05	0	0	0	
0.042	-0.0154905	-0.00232234	0.000352847	8.24337E-05	0	0	0	
0.0421667	0.0111105	-0.00162612	0.000350199	6.30166E-05	0	0	0	
0.0423333	-0.0103055	0.00359295	0.000364463	7.95027E-05	0	0	0	
0.0425	0.0123383	0.00127168	0.000359268	0.000120335	0	0	0	
0.0426667	-0.0164497	0.000786184	0.000384678	0.000124318	0	0	0	
0.0428333	0.0181542	0.00387358	0.000414182	9.45955E-05	0	0	0	
0.043	-0.0103944	-0.00228688	0.000404509	7.03888E-05	0	0	0	
0.0431667	0.00787568	-0.00347119	0.000378054	7.04309E-05	0	0	0	
0.0433333	-0.0153009	0.000191641	0.000377636	9.24458E-05	0	0	0	
0.0435	0.0185989	0.000305645	0.00041405	7.50781E-05	0	0	0	
0.0436667	-0.015166	0.00324469	0.000426074	6.99411E-05	0	0	0	
0.0438333	0.00942743	-0.00316042	0.000367827	6.50271E-05	0	0	0	
0.044	-0.00962489	0.0074616	0.000310645	9.6216E-05	0	0	0	
0.0441667	0.0182197	0.00713934	0.000331635	0.000154563	0	0	0	
0.0443333	-0.0193407	-0.013108	0.000408214	0.000184015	0	0	0	
0.0445	0.0124196	-0.000232363	0.000431553	0.000207524	0	0	0	
0.0446667	-0.0104122	0.00759177	0.000379463	0.000168242	0	0	0	
0.0448333	0.0114832	-0.000284885	0.00030645	0.000166543	0	0	0	
0.045	-0.0146434	0.00441449	0.000319833	0.000137779	0	0	0	
0.0451667	0.0171788	-0.00577782	0.000379705	0.000148228	0	0	0	
0.0453333	-0.0132911	0.00103852	0.000406752	0.000134584	0	0	0	
0.0455	0.00800698	0.0132921	0.000369931	0.000198251	0	0	0	
0.0456667	-0.00845114	-0.00969312	0.00036627	0.000206598	0	0	0	
0.0458333	0.0121944	-0.00579775	0.000401566	0.000287387	0	0	0	
0.046	-0.0120829	0.0089243	0.000439003	0.000285994	0	0	0	
0.0461667	0.00901445	-0.00159328	0.000402027	0.000291103	0	0	0	
0.0463333	-0.00709447	-8.31719E-05	0.000342628	0.000215027	0	0	0	
0.0465	0.0102844	-0.00340288	0.00032947	0.000167855	0	0	0	
0.0466667	-0.0170899	0.00524055	0.000386577	0.000131634	0	0	0	
0.0468333	0.0144225	0.0084843	0.000444768	0.000124181	0	0	0	
0.047	-0.0117035	-0.00834151	0.000454053	0.000104387	0	0	0	
0.0471667	0.00905596	0.00605342	0.000407371	0.000155316	0	0	0	
0.0473333	-0.0151476	-0.00680267	0.000390585	0.000189245	0	0	0	
0.0475	0.0188484	0.00517978	0.000417947	0.0002064	0	0	0	
0.0476667	-0.0135575	-0.00315621	0.000449764	0.000183074	0	0	0	
0.0478333	0.010149	-0.000418922	0.000469364	0.000114337	0	0	0	
0.048	-0.020192	-0.000462442	0.000504011	7.49435E-05	0	0	0	
0.0481667	0.0190717	0.0143777	0.000544009	7.31889E-05	0	0	0	
0.0483333	-0.0120846	-0.0130232	0.000526323	0.000161233	0	0	0	
0.0485	0.0107871	0.00659052	0.000447187	0.0002191	0	0	0	
0.0486667	-0.0162489	-0.00301734	0.000398742	0.000206552	0	0	0	
0.0488333	0.0205008	0.00084707	0.000440449	0.000137475	0	0	0	
0.049	-0.0191092	-0.00477468	0.000508057	0.000106798	0	0	0	
0.0491667	0.0141978	0.000371546	0.000499668	0.000106932	0	0	0	
0.0493333	-0.00852968	0.00221103	0.000393783	9.25216E-05	0	0	0	
0.0495	0.0146334	-0.00393	0.000313076	7.81845E-05	0	0	0	
0.0496667	-0.0191197	-0.00324408	0.0003225	6.29748E-05	0	0	0	
0.0498333	0.016004	0.00617054	0.000384514	9.70166E-05	0	0	0	
0.05	-0.0121264	-0.00507475	0.000404001	0.000111626	0	0	0	
0.0501667	0.0130332	0.00215073	0.000371772	0.00012802	0	0	0	
0.0503333	-0.0118089	-0.00587996	0.000342734	0.000105764	0	0	0	
0.0505	0.0132215	0.00540778	0.00035092	9.24856E-05	0	0	0	
0.0506667	-0.0113455	-0.00740622	0.000363808	0.000113613	0	0	0	
0.0508333	0.0121119	0.00292431	0.000385244	0.000131722	0	0	0	
0.051	-0.0149722	0.00108359	0.000408093	0.000125306	0	0	0	
0.0511667	0.0171441	-0.00270008	0.000443213	9.05817E-05	0	0	0	
0.0513333	-0.0150287	-0.00112966	0.000450439	6.67304E-05	0	0	0	
0.0515	0.0120688	0.00207853	0.000410634	5.42829E-05	0	0	0	
0.0516667	-0.00930167	0.000610984	0.000332812	7.77453E-05	0	0	0	
0.0518333	0.0130773	-0.00110763	0.000316832	0.00010907	0	0	0	
0.052	-0.0183893	-0.00201787	0.000362609	0.000131663	0	0	0	
0.0521667	0.0240686	0.00450945	0.00046214	9.98123E-05	0	0	0	
0.0523333	-0.0165201	-0.0131128	0.000494399	0.000123761	0	0	0	
0.0525	0.00457287	0.00117861	0.000395423	0.000148464	0	0	0	
0.0526667	-0.00451288	0.00768567	0.000295363	0.000176859	0	0	0	
0.0528333	0.0141027	-0.00422116	0.000295539	0.000152663	0	0	0	
0.053	-0.0199793	-0.00486167	0.000423526	0.000110477	0	0	0	
0.0531667	0.0185284	0.011592	0.000510069	0.000117777	0	0	0	
0.0533333	-0.00447702	-0.01296	0.000437273	0.000172038	0	0	0	
0.0535	0.00116689	-0.00459524	0.000335854	0.000218261	0	0	0	
0.0536667	-0.0113181	0.00896562	0.000318076	0.000229266	0	0	0	
0.0538333	0.0191129	-0.00589315	0.00041408	0.000180088	0	0	0	
0.054	-0.0195894	-0.00670148	0.000488973	0.000148265	0	0	0	
0.0541667	0.0164703	0.0104162	0.00048159	0.000162362	0	0	0	
0.0543333	-0.0135588	-0.00331764	0.000441315	0.000193572	0	0	0	
0.0545	0.0155281	-0.00649961	0.000426736	0.000204132	0	0	0	
0.0546667	-0.0163339	0.00744392	0.000426573	0.000195094	0	0	0	
0.0548333	0.0135769	0.000687719	0.000417943	0.000168058	0	0	0	
0.055	-0.00973908	-0.00864597	0.000380585	0.000176511	0	0	0	
0.0551667	0.0114319	0.0025022	0.000345962	0.000152536	0	0	0	
0.0553333	-0.0107757	2.13817E-05	0.000324171	0.000104075	0	0	0	
0.0555	0.00900346	-0.00119808	0.000322623	8.97055E-05	0	0	0	
0.0556667	-0.0104668	-0.000831601	0.000331147	0.000103171	0	0	0	
0.0558333	0.0131909	0.00195566	0.000356389	0.000130867	0	0	0	
0.056	-0.0123124	0.000745356	0.000377811	0.000130837	0	0	0	
0.0561667	0.0078358	0.00321116	0.000373173	0.000162865	0	0	0	
0.0563333	-0.00894666	-0.00699934	0.000368425	0.000215481	0	0	0	
0.0565	0.0163897	0.0110822	0.000408657	0.000232994	0	0	0	
0.0566667	-0.0202152	-0.0109832	0.000486612	0.000222123	0	0	0	
0.0568333	0.0143631	0.000240559	0.00052063	0.000198024	0	0	0	
0.057	-0.00529943	0.0106622	0.00044828	0.000224831	0	0	0	
0.0571667	0.00408341	-0.0186201	0.000342003	0.000236003	0	0	0	
0.0573333	-0.0162789	0.0129709	0.000299139	0.000293317	0	0	0	
0.0575	0.0240583	0.00653485	0.000382101	0.00032424	0	0	0	
0.0576667	-0.0184969	-0.0158395	0.000495561	0.000299457	0	0	0	
0.0578333	0.00605616	0.0120917	0.000531817	0.000269649	0	0	0	
0.058	-0.00182985	-0.00270867	0.000463184	0.000256834	0	0	0	
0.0581667	0.00990532	-0.0114161	0.000363823	0.000313076	0	0	0	
0.0583333	-0.015182	0.019296	0.000319375	0.000329056	0	0	0	
0.0585	0.0183343	-0.013001	0.000340762	0.000330692	0	0	0	
0.0586667	-0.0196828	-0.00768535	0.000398115	0.00038066	0	0	0	
0.0588333	0.0144102	0.0233749	0.000429624	0.000421398	0	0	0	
0.059	-0.00961073	-0.0153655	0.000429159	0.000427626	0	0	0	
0.0591667	0.006795	0.00176595	0.000403499	0.000358253	0	0	0	
0.0593333	-0.00490189	0.00826079	0.000363215	0.000287486	0	0	0	
0.0595	0.0110901	-0.0111163	0.000331082	0.000253033	0	0	0	
0.0596667	-0.0133073	0.00410767	0.000320267	0.000196672	0	0	0	
0.0598333	0.00954151	0.00533572	0.000344322	0.000162268	0	0	0	
0.06	-0.00813135	-0.00871529	0.000376221	0.000152646	0	0	0	
0.0601667	0.00736246	0.00709154	0.000384677	0.000144641	0	0	0	
0.0603333	-0.00520207	-0.000841145	0.00036968	0.000156396	0	0	0	
0.0605	0.00966253	-0.00115298	0.00035483	0.000131838	0	0	0	
0.0606667	-0.013459	-0.00182777	0.000375685	0.00010706	0	0	0	
0.0608333	0.0134762	0.00427388	0.000433753	8.39019E-05	0	0	0	
0.061	-0.00883522	-0.00769598	0.000448662	9.47778E-05	0	0	0	
0.0611667	0.00948539	0.00473745	0.000407595	0.000128688	0	0	0	
0.0613333	-0.0140964	0.00126249	0.000373793	0.000117708	0	0	0	
0.0615	0.0150551	0.00292128	0.000399807	8.49668E-05	0	0	0	
0.0616667	-0.0122841	-0.00416357	0.000436393	6.82024E-05	0	0	0	
0.0618333	0.00989885	0.00412598	0.000424165	7.06514E-05	0	0	0	
0.062	-0.0068904	0.00139011	0.000368046	0.000101139	0	0	0	
0.0621667	0.00844017	-0.00910024	0.000328219	0.000121218	0	0	0	
0.0623333	-0.0126194	0.0128388	0.000325994	0.000166366	0	0	0	
0.0625	0.00787008	-0.00103205	0.000321651	0.000157985	0	0	0	
0.0626667	-0.00467463	-0.00321224	0.000299984	0.000181402	0	0	0	
0.0628333	0.00474956	0.00896126	0.000291475	0.000174947	0	0	0	
0.063	-0.00664624	-0.00533057	0.000324956	0.000176012	0	0	0	
0.0631667	0.00768125	-0.0008997	0.000361032	0.000161047	0	0	0	
0.0633333	-0.00638775	0.00582171	0.000343807	0.000142588	0	0	0	
0.0635	0.0077433	-0.00278384	0.000311929	0.00014189	0	0	0	
0.0636667	-0.0140954	-0.0025313	0.00033198	0.000164322	0	0	0	
0.0638333	0.0137061	0.00486606	0.000386008	0.000165401	0	0	0	
0.064	-0.0107153	0.00202593	0.000404055	0.00014006	0	0	0	
0.0641667	0.005962	-0.00253274	0.000361262	0.000116539	0	0	0	
0.0643333	-0.00013008	0.00578552	0.000329553	0.000131325	0	0	0	
0.0645	0.00807727	-0.0140436	0.00034848	0.000188656	0	0	0	
0.0646667	-0.0153386	0.0121659	0.000385394	0.00020411	0	0	0	
0.0648333	0.00885171	-0.00701636	0.000367031	0.000236021	0	0	0	
0.065	-0.00207355	0.000916532	0.000323792	0.000282354	0	0	0	
0.0651667	0.00153487	0.0108358	0.000303523	0.000285009	0	0	0	
0.0653333	-0.00705445	-0.00898803	0.000328896	0.000263162	0	0	0	
0.0655	0.0180942	-0.00550043	0.000389642	0.000253429	0	0	0	
0.0656667	-0.0142361	0.00432641	0.000415167	0.000232173	0	0	0	
0.0658333	0.00757408	-0.000731206	0.000427419	0.00020462	0	0	0	
0.066	-0.00582887	0.00253339	0.000430784	0.000121195	0	0	0	
0.0661667	0.00812396	-0.000556101	0.000424571	0.000105307	0	0	0	
0.0663333	-0.0118465	-0.00557909	0.000412897	8.26188E-05	0	0	0	
0.0665	0.0111417	0.00954667	0.00039411	0.000122895	0	0	0	
0.0666667	-0.00664976	-0.00600828	0.000376713	0.000133323	0	0	0	
0.0668333	0.0101912	-0.000550628	0.000360578	0.000128925	0	0	0	
0.067	-0.00768006	-0.0018249	0.0003457	7.06209E-05	0	0	0	
0.0671667	0.00657564	0.0121902	0.00037787	6.43407E-05	0	0	0	
0.0673333	-0.0120289	-0.0102082	0.000423252	0.000126139	0	0	0	
0.0675	0.0166468	0.00343518	0.000456592	0.000169501	0	0	0	
0.0676667	-0.0159682	0.0027664	0.000468291	0.000144234	0	0	0	
0.0678333	0.00866742	0.000834264	0.000463388	8.6859E-05	0	0	0	
0.068	-0.00351188	-0.00433299	0.000453313	5.89458E-05	0	0	0	
0.0681667	0.0056988	0.00852131	0.000431366	8.94058E-05	0	0	0	
0.0683333	-0.0126394	-0.00807086	0.000431536	0.000131623	0	0	0	
0.0685	0.0182937	0.00597769	0.000453674	0.000149115	0	0	0	
0.0686667	-0.0153406	-0.00422362	0.000457791	0.000136176	0	0	0	
0.0688333	0.00728714	0.00117374	0.000405345	9.51581E-05	0	0	0	
0.069	-0.00614939	0.000467137	0.000363126	6.29921E-05	0	0	0	
0.0691667	0.00439476	0.00504206	0.000361799	4.95456E-05	0	0	0	
0.0693333	-0.00824182	-0.00595015	0.000400959	6.68345E-05	0	0	0	
0.0695	0.0142412	0.00325147	0.000422748	8.01323E-05	0	0	0	
0.0696667	-0.00762005	-0.0072905	0.000402476	0.000109102	0	0	0	
0.0698333	0.0036594	0.00364592	0.000377889	0.000106464	0	0	0	
0.07	-0.00781457	-0.00895739	0.000376325	0.000122789	0	0	0	
0.0701667	0.00843447	0.00692477	0.000416698	0.000133378	0	0	0	
0.0703333	-0.008597	-0.00135907	0.000441425	0.000159942	0	0	0	
0.0705	0.00901781	-0.00214712	0.000405853	0.000162934	0	0	0	
0.0706667	-0.00636369	0.00115627	0.000355689	0.000111887	0	0	0	
0.0708333	0.010184	-0.00491172	0.000364004	8.50658E-05	0	0	0	
0.071	-0.015032	0.000401449	0.000415682	8.60644E-05	0	0	0	
0.0711667	0.0141387	0.00548379	0.000464158	0.000165101	0	0	0	
0.0713333	-0.00596598	-0.0194755	0.000458585	0.000195975	0	0	0	
0.0715	-0.000921793	0.0106051	0.000411534	0.000267339	0	0	0	
0.0716667	-0.00243054	0.0113522	0.000358664	0.000326112	0	0	0	
0.0718333	0.0116983	-0.0215691	0.000358916	0.000373033	0	0	0	
0.072	-0.0102109	0.00716839	0.000387739	0.00034298	0	0	0	
0.0721667	0.00706691	0.00154868	0.00040006	0.000280788	0	0	0	
0.0723333	-0.00324547	-0.0089283	0.000365428	0.000214825	0	0	0	
0.0725	0.0040019	0.00569474	0.000343703	0.000191372	0	0	0	
0.0726667	-0.00639872	-0.00512013	0.000352589	0.000133699	0	0	0	
0.0728333	0.0084383	-0.00227009	0.000375448	0.000147336	0	0	0	
0.073	-0.00624462	0.00766676	0.000374622	0.000168788	0	0	0	
0.0731667	0.00692286	-0.00979123	0.000364501	0.000186566	0	0	0	
0.0733333	-0.00599836	-0.00196256	0.000365177	0.000212551	0	0	0	
0.0735	0.00378758	0.00709584	0.000382211	0.000186846	0	0	0	
0.0736667	-0.00255945	-0.0001943	0.000381081	0.00017892	0	0	0	
0.0738333	0.00542887	-0.00457787	0.000356749	0.000145411	0	0	0	
0.074	-0.00971609	0.00165834	0.000354933	9.98265E-05	0	0	0	
0.0741667	0.0127999	-0.000430339	0.000397072	0.000108442	0	0	0	
0.0743333	-0.0111528	-0.00252194	0.000432314	7.50188E-05	0	0	0	
0.0745	0.00479253	0.00263758	0.000418525	9.25256E-05	0	0	0	
0.0746667	-0.00108963	-0.000927616	0.000414612	8.17012E-05	0	0	0	
0.0748333	0.00357324	-0.00547795	0.000433121	0.000130994	0	0	0	
0.075	-0.0055653	0.0129707	0.000444668	0.000160804	0	0	0	
0.0751667	0.00380749	-0.0192787	0.000393377	0.000257881	0	0	0	
0.0753333	-0.000390002	-0.000197521	0.000302914	0.000381968	0	0	0	
0.0755	0.00172521	0.019555	0.000236996	0.00050078	0	0	0	
0.0756667	-0.00969092	-0.0188146	0.00025588	0.000472113	0	0	0	
0.0758333	0.0121579	0.00781216	0.000360454	0.000385257	0	0	0	
0.076	-0.00222766	0.00287702	0.000466714	0.000260143	0	0	0	
0.0761667	-0.0014291	-0.0183624	0.000508848	0.000224953	0	0	0	
0.0763333	-0.0061124	0.0221853	0.000458433	0.000251403	0	0	0	
0.0765	0.013527	-0.011021	0.000398671	0.000319543	0	0	0	
0.0766667	-0.0152706	-0.0130194	0.000381012	0.0004329	0	0	0	
0.0768333	0.00716929	0.0299174	0.000425223	0.00046456	0	0	0	
0.077	0.00201059	-0.0128459	0.000487858	0.000467851	0	0	0	
0.0771667	0.00664839	-0.0137804	0.000509918	0.000501665	0	0	0	
0.0773333	-0.0123905	0.0207047	0.000490657	0.00053466	0	0	0	
0.0775	0.00451888	-0.0124498	0.000425102	0.000472482	0	0	0	
0.0776667	-0.000617283	0.0240783	0.00039116	0.000464358	0	0	0	
0.0778333	0.00422599	-0.00654059	0.00038724	0.000406103	0	0	0	
0.078	-0.00971448	0.0118237	0.000429793	0.000479754	0	0	0	
0.0781667	0.0114317	-0.0103186	0.000467675	0.000355721	0	0	0	
0.0783333	-0.00229653	0.0204814	0.000482738	0.000318519	0	0	0	
0.0785	0.000608174	-0.00832925	0.000483925	0.00028311	0	0	0	
0.0786667	-0.00830672	-0.000691145	0.000454281	0.000321862	0	0	0	
0.0788333	0.0121282	0.0147495	0.000432807	0.000292298	0	0	0	
0.079	-0.0110853	-0.00396205	0.000426543	0.000282871	0	0	0	
0.0791667	0.00396296	0.011589	0.000421181	0.000313214	0	0	0	
0.0793333	-0.00411547	-0.00409493	0.000404566	0.000395472	0	0	0	
0.0795	0.0133421	0.00235394	0.000397724	0.000485265	0	0	0	
0.0796667	-0.0117368	0.0114522	0.000442825	0.000404784	0	0	0	
0.0798333	0.00299393	-0.0156312	0.000514658	0.000371261	0	0	0	
0.08	-0.00361561	0.00217915	0.000514391	0.0002691	0	0	0	
0.0801667	0.00344106	0.00736783	0.000402117	0.000246258	0	0	0	
0.0803333	0.000524611	0.00125073	0.000276223	0.000173346	0	0	0	
0.0805	-0.00467277	-0.0157998	0.000268732	0.00018166	0	0	0	
0.0806667	0.00446594	0.0132782	0.000369237	0.000280204	0	0	0	
0.0808333	0.0011363	-0.00384174	0.000448363	0.000315255	0	0	0	
0.081	-0.0104379	-0.0093163	0.000442125	0.000286167	0	0	0	
0.0811667	0.00551787	0.0174607	0.000387073	0.000241246	0	0	0	
0.0813333	0.00238158	-0.00998916	0.000379451	0.000297402	0	0	0	
0.0815	-0.000262727	-0.0042786	0.000423059	0.00030392	0	0	0	
0.0816667	-0.000949938	0.00122031	0.000463693	0.000301728	0	0	0	
0.0818333	0.00724093	-0.00435529	0.000457181	0.00028502	0	0	0	
0.082	-0.0141918	-0.0125397	0.000433324	0.000314116	0	0	0	
0.0821667	0.00542947	0.0036159	0.00041047	0.000307857	0	0	0	
0.0823333	0.00305341	0.00657607	0.000403952	0.000280111	0	0	0	
0.0825	0.00172892	-0.00534039	0.000371807	0.000317987	0	0	0	
0.0826667	-0.00365832	-0.0105436	0.00035747	0.000270111	0	0	0	
0.0828333	0.00214648	0.0109377	0.000367531	0.000279317	0	0	0	
0.083	-0.00533764	-0.0034653	0.000370667	0.000239715	0	0	0	
0.0831667	0.00737753	-0.0083177	0.000349506	0.000235681	0	0	0	
0.0833333	-0.00833628	0.0209234	0.000363849	0.000251585	0	0	0	
0.0835	0.00866322	-0.0201493	0.00045881	0.000336167	0	0	0	
0.0836667	-0.00617223	-0.00903986	0.000548358	0.000353865	0	0	0	
0.0838333	0.00629755	0.0247979	0.000526471	0.000343889	0	0	0	
0.084	-0.00820251	-0.0160642	0.000430543	0.000319232	0	0	0	
0.0841667	0.00362615	-0.0041763	0.000371891	0.000324677	0	0	0	
0.0843333	-0.00271803	0.0124367	0.000386684	0.000291218	0	0	0	
0.0845	0.00520058	0.00239992	0.00041647	0.000195512	0	0	0	
0.0846667	-0.00337943	-0.0182376	0.000416928	0.000220223	0	0	0	
0.0848333	0.000899972	0.0181408	0.000360013	0.000263111	0	0	0	
0.085	-0.00218425	-0.0122612	0.000259025	0.000306876	0	0	0	
0.0851667	0.00206554	-0.000569856	0.000197948	0.000289289	0	0	0	
0.0853333	-0.0101746	0.00947934	0.000286517	0.000260538	0	0	0	
0.0855	0.0106031	-0.00812121	0.000450345	0.000278158	0	0	0	
0.0856667	-0.00218542	-0.00610028	0.000512063	0.000292736	0	0	0	
0.0858333	-0.000812109	0.0140015	0.000450024	0.000265365	0	0	0	
0.086	-0.00193633	-0.014639	0.000420511	0.000243811	0	0	0	
0.0861667	0.00937318	0.00122025	0.000506938	0.000220028	0	0	0	
0.0863333	-0.0179211	0.0131655	0.000594584	0.000191036	0	0	0	
0.0865	0.0109625	-0.022221	0.000579761	0.000234832	0	0	0	
0.0866667	0.00515358	0.0089761	0.000557021	0.000273379	0	0	0	
0.0868333	-0.0069653	-0.00455705	0.000559057	0.000274496	0	0	0	
0.087	-0.00462243	-0.00081191	0.000503707	0.000153398	0	0	0	
0.0871667	0.0159803	0.00117946	0.000397072	6.47621E-05	0	0	0	
0.0873333	-0.00790812	-0.00352727	0.000285705	4.31505E-05	0	0	0	
0.0875	-0.000782467	0.00199591	0.000329608	6.39345E-05	0	0	0	
0.0876667	-0.00503013	0.00319195	0.000437978	0.000136471	0	0	0	
0.0878333	0.0165282	-0.0154383	0.000525904	0.000234858	0	0	0	
0.088	-0.0128651	0.00882095	0.00051146	0.000322349	0	0	0	
0.0881667	-0.00279163	-0.0189783	0.000369711	0.000320558	0	0	0	
0.0883333	0.00275703	0.0179778	0.000267944	0.000348815	0	0	0	
0.0885	0.00855304	-0.00815224	0.000259414	0.000364484	0	0	0	
0.0886667	-0.0219436	-0.00238192	0.000422935	0.000332528	0	0	0	
0.0888333	0.0181697	0.00487393	0.000550045	0.000309268	0	0	0	
0.089	-0.00319049	-0.00866109	0.000520983	0.00032165	0	0	0	
0.0891667	-0.00905294	-0.0019679	0.00036388	0.000362136	0	0	0	
0.0893333	0.00460608	0.0095251	0.000298066	0.000276837	0	0	0	
0.0895	0.00388642	-0.0111528	0.000367773	0.00021319	0	0	0	
0.0896667	-0.010225	-0.000402345	0.000468362	0.00017186	0	0	0	
0.0898333	0.00774352	0.00203229	0.000432989	0.000177447	0	0	0	
0.09	-0.00662408	0.000420738	0.000335177	0.00012455	0	0	0	
0.0901667	0.00105272	0.00242428	0.000236547	0.000114959	0	0	0	
0.0903333	0.000228871	0.0120948	0.000217567	0.000146677	0	0	0	
0.0905	0.00174757	-0.0106636	0.000238173	0.00020101	0	0	0	
0.0906667	0.00289701	0.0050183	0.000270259	0.000208154	0	0	0	
0.0908333	-0.00860689	-0.0115699	0.000288435	0.000192357	0	0	0	
0.091	0.00488842	0.00720863	0.000308327	0.000188402	0	0	0	
0.0911667	-0.00293185	0.0080079	0.000326206	0.000186896	0	0	0	
0.0913333	0.00054731	-0.00935708	0.000350661	0.000198053	0	0	0	
0.0915	-0.00638062	0.00168253	0.000387485	0.000172816	0	0	0	
0.0916667	0.00818948	0.00543754	0.000457138	0.000155182	0	0	0	
0.0918333	-0.00210635	-0.00680417	0.000511792	0.000134585	0	0	0	
0.092	-0.00761469	-0.00651229	0.000524079	0.000106175	0	0	0	
0.0921667	0.0110599	0.00629469	0.000512361	0.000150957	0	0	0	
0.0923333	-0.0059393	-0.0027611	0.000499205	0.000143453	0	0	0	
0.0925	0.0091837	-0.00248855	0.000519847	0.00013162	0	0	0	
0.0926667	-0.0144184	5.11204E-05	0.000539406	0.000112903	0	0	0	
0.0928333	0.00691263	-0.0030712	0.000504289	0.000135133	0	0	0	
0.093	0.00185158	0.00331861	0.000397254	0.00015495	0	0	0	
0.0931667	-0.000310259	-0.0120292	0.000266177	0.000154773	0	0	0	
0.0933333	-0.00654393	0.00711662	0.000200242	0.00016316	0	0	0	
0.0935	0.0137525	0.00538666	0.00022689	0.0001974	0	0	0	
0.0936667	0.00170582	-0.0144617	0.000228486	0.000224361	0	0	0	
0.0938333	-0.0186364	0.0100884	0.000247829	0.00023576	0	0	0	
0.094	0.0188422	0.00328837	0.000288247	0.000300184	0	0	0	
0.0941667	-0.0166999	-0.0044618	0.000350695	0.000325912	0	0	0	
0.0943333	0.0128828	-0.00428166	0.000395455	0.000275992	0	0	0	
0.0945	-0.00974981	0.0191301	0.000380919	0.000270968	0	0	0	
0.0946667	0.0141917	-0.0260023	0.000427125	0.000400003	0	0	0	
0.0948333	-0.0169524	0.0301815	0.000532113	0.000526059	0	0	0	
0.095	0.00968086	-0.025473	0.000644801	0.000602756	0	0	0	
0.0951667	-0.00469761	0.0151177	0.000665759	0.000571558	0	0	0	
0.0953333	0.0017503	-0.00296979	0.00062923	0.000497255	0	0	0	
0.0955	0.00307742	-0.000183587	0.000632183	0.000357042	0	0	0	
0.0956667	-0.00544242	0.0158395	0.000670576	0.000232919	0	0	0	
0.0958333	0.00714328	-0.0128805	0.000650408	0.000253676	0	0	0	
0.096	-0.00983185	-0.00963315	0.000573358	0.000230655	0	0	0	
0.0961667	0.0124563	0.0113351	0.000503425	0.000276844	0	0	0	
0.0963333	-0.0129255	-0.000508622	0.000445802	0.000240804	0	0	0	
0.0965	0.0135938	0.00303223	0.000408198	0.000215584	0	0	0	
0.0966667	-0.0055467	-0.00749145	0.000404594	0.000141865	0	0	0	
0.0968333	0.00108825	0.0209273	0.000441345	0.000159608	0	0	0	
0.097	0.000363275	-0.0326564	0.000439394	0.000312328	0	0	0	
0.0971667	-0.00536348	0.0226145	0.000426127	0.000483189	0	0	0	
0.0973333	0.0135593	0.00075552	0.00042972	0.000500606	0	0	0	
0.0975	-0.00602874	0.00472133	0.000353205	0.000399573	0	0	0	
0.0976667	-0.0907062	-0.0133035	0.0005622	0.000242695	0	0	0	
0.0978333	-0.0530602	0.0284893	0.00149138	0.000289115	0	0	0	
0.098	-0.0359508	0.0432303	0.00184465	0.000427201	0	0	0	
0.0981667	0.0448776	-0.088078	0.00181447	0.000899661	0	0	0	
0.0983333	-0.0097902	0.0636675	0.000954655	0.00123127	0	0	0	
0.0985	0.00473658	-0.0642632	0.0013541	0.00143044	0	0	0	
0.0986667	-0.0448504	0.0291931	0.0022044	0.00134206	0	0	0	
0.0988333	-0.0999268	0.053356	0.00232599	0.00119764	0	0	0	
0.099	0.087599	-0.012074	0.00228834	0.00101075	0	0	0	
0.0991667	0.0295342	0.00380708	0.00139225	0.00085839	0	0	0	
0.0993333	-0.0714306	-0.000347838	0.0014905	0.00112869	0	0	0	
0.0995	0.155079	-0.0818085	0.0013046	0.00137802	0	0	0	
0.0996667	-0.154942	0.0657129	0.00242557	0.00158748	0	0	0	
0.0998333	0.0185296	0.036966	0.00227212	0.0016992	0	0	0	
0.1	0.148319	-0.0715459	0.00226113	0.00212246	0	0	0	
0.100167	-0.0880204	0.128534	0.00168876	0.00256915	0	0	0	
0.100333	0.0172916	-0.060899	0.00182991	0.00224796	0	0	0	
0.1005	-0.0116302	-0.0117435	0.00142428	0.00190238	0	0	0	
0.100667	0.011747	0.0873648	0.000800032	0.00169307	0	0	0	
0.100833	-0.00594915	-0.112029	0.000536457	0.00189493	0	0	0	
0.101	-0.0231322	0.0670096	0.00095567	0.00194805	0	0	0	
0.101167	-0.0355194	0.00532948	0.00142067	0.00182405	0	0	0	
0.101333	0.0115727	0.0245788	0.00175656	0.00178505	0	0	0	
0.1015	0.0111843	-0.00953803	0.00144951	0.00138633	0	0	0	
0.101667	-0.0343837	-0.00386916	0.00107816	0.000828964	0	0	0	
0.101833	-0.0156372	0.0126315	0.000802861	0.000356453	0	0	0	
0.102	-0.00294999	-0.0179345	0.000867827	0.000269391	0	0	0	
0.102167	-0.0295619	0.0123061	0.000780096	0.000310753	0	0	0	
0.102333	0.00335667	0.00552788	0.000804652	0.000316304	0	0	0	
0.1025	0.0136053	-0.0073965	0.000911922	0.000335828	0	0	0	
0.102667	0.0417288	-0.00906952	0.00143163	0.000298916	0	0	0	
0.102833	-0.0350593	0.033671	0.00190052	0.000336567	0	0	0	
0.103	0.0293327	-0.0824688	0.00184012	0.000576328	0	0	0	
0.103167	-0.00469498	0.0511563	0.00124569	0.00103316	0	0	0	
0.103333	-0.018384	0.0105539	0.000608929	0.00123432	0	0	0	
0.1035	0.00833553	-0.0277449	0.000410845	0.0010773	0	0	0	
0.103667	-0.0209652	0.0331653	0.000491087	0.000694474	0	0	0	
0.103833	0.061173	-0.0266268	0.00101294	0.000687139	0	0	0	
0.104	-0.000183692	-0.0383735	0.00113756	0.000902992	0	0	0	
0.104167	-0.00607701	0.0292661	0.00107396	0.00129682	0	0	0	
0.104333	-0.00928345	-0.0172434	0.000614954	0.00119829	0	0	0	
0.1045	-0.0320486	0.0169856	0.000678138	0.000909582	0	0	0	
0.104667	0.00742486	0.022944	0.000744401	0.000477503	0	0	0	
0.104833	-0.00496476	-0.0252909	0.00077653	0.000436872	0	0	0	
0.105	0.0246893	-0.00230941	0.000713505	0.000416168	0	0	0	
0.105167	-0.0104235	0.0108495	0.000874633	0.000428319	0	0	0	
0.105333	0.0103022	-0.00343173	0.000886375	0.000268909	0	0	0	
0.1055	-0.0483205	-0.00832371	0.000794865	0.000249251	0	0	0	
0.105667	0.00132242	0.0266145	0.00071006	0.00027095	0	0	0	
0.105833	0.00412791	-0.00694905	0.000685416	0.000402569	0	0	0	
0.106	0.0102607	-0.0162366	0.000592571	0.000383738	0	0	0	
0.106167	-0.00217289	0.00650265	0.000400476	0.00034998	0	0	0	
0.106333	-0.00330621	-0.000177283	0.00026336	0.000216669	0	0	0	
0.1065	0.00446644	-0.0105435	0.000156075	0.000174213	0	0	0	
0.106667	0.00126576	0.00189041	9.95214E-05	0.000123573	0	0	0	
0.106833	-0.0167494	0.00780163	0.00017412	0.000182507	0	0	0	
0.107	0.00788133	-0.0148185	0.000331697	0.000191136	0	0	0	
0.107167	-0.00348849	0.0146481	0.000437034	0.00026916	0	0	0	
0.107333	0.0110422	-0.0207322	0.000475879	0.000298623	0	0	0	
0.1075	-0.0108508	-0.00664033	0.000502231	0.000369766	0	0	0	
0.107667	0.0176281	0.00306952	0.000548731	0.000309936	0	0	0	
0.107833	-0.0126227	-0.00198617	0.000560236	0.000233692	0	0	0	
0.108	0.0022419	-0.00364967	0.000470247	0.000156109	0	0	0	
0.108167	-0.00870622	0.0150298	0.000424201	0.000196902	0	0	0	
0.108333	0.00537942	-0.00177296	0.000491522	0.000279319	0	0	0	
0.1085	0.0149163	-0.0146345	0.000625878	0.000340518	0	0	0	
0.108667	-0.010806	0.00814811	0.000703804	0.000349682	0	0	0	
0.108833	0.0061272	-0.00679899	0.000701867	0.000309231	0	0	0	
0.109	-0.0020265	-0.0119687	0.000646305	0.000249605	0	0	0	
0.109167	-0.00560515	0.00772741	0.000556653	0.00020822	0	0	0	
0.109333	-0.000431545	0.00355819	0.000466593	0.000171363	0	0	0	
0.1095	0.00667313	-0.0116915	0.000413589	0.00019103	0	0	0	
0.109667	0.00383746	0.00988257	0.000384784	0.000178766	0	0	0	
0.109833	0.00709259	-0.00668849	0.000361732	0.000197766	0	0	0	
0.11	-0.0142992	0.00770285	0.000362673	0.000204571	0	0	0	
0.110167	-0.0182244	-0.0153942	0.000333766	0.000195482	0	0	0	
0.110333	0.00810338	0.0280462	0.000390074	0.000285277	0	0	0	
0.1105	0.00128064	-0.0207163	0.000396652	0.000382327	0	0	0	
0.110667	0.00444959	0.00291427	0.000461738	0.000408424	0	0	0	
0.110833	-0.00827322	0.0107786	0.000417082	0.000309558	0	0	0	
0.111	0.0149136	-0.0166825	0.000342267	0.000215858	0	0	0	
0.111167	-0.0320361	0.025104	0.000383544	0.000355597	0	0	0	
0.111333	0.0138605	-0.00641558	0.00050036	0.000443569	0	0	0	
0.1115	-0.0134592	0.00309053	0.000607269	0.000416892	0	0	0	
0.111667	0.0168571	0.00223902	0.000585385	0.00023198	0	0	0	
0.111833	-0.0099867	-0.00458089	0.000490416	0.000110818	0	0	0	
0.112	0.00967788	-0.00679312	0.000459491	9.32998E-05	0	0	0	
0.112167	-0.005674	0.0195165	0.000522049	0.000188083	0	0	0	
0.112333	-0.00977385	-0.00316526	0.00062523	0.000318318	0	0	0	
0.1125	0.00574616	-0.0156717	0.000657003	0.000427583	0	0	0	
0.112667	0.0100904	0.0165936	0.000584973	0.000458497	0	0	0	
0.112833	0.00206892	-0.00621492	0.00054693	0.000432424	0	0	0	
0.113	-0.00878706	0.000540848	0.000568909	0.000329213	0	0	0	
0.113167	-0.00320349	0.0123988	0.000570869	0.000211184	0	0	0	
0.113333	0.000709571	-0.00231563	0.000486106	0.000163802	0	0	0	
0.1135	-0.00585452	-0.0122432	0.000363634	0.000166055	0	0	0	
0.113667	0.0101849	0.0207566	0.000306758	0.000283744	0	0	0	
0.113833	0.00442485	-0.00990241	0.000320415	0.000383139	0	0	0	
0.114	-0.00773593	0.00420383	0.000380917	0.000385213	0	0	0	
0.114167	-0.00781197	0.00244645	0.000402438	0.000278185	0	0	0	
0.114333	0.00326949	-0.000207778	0.000410441	0.000173135	0	0	0	
0.1145	0.00314638	0.00873314	0.00042705	0.000148824	0	0	0	
0.114667	-0.00513372	-0.00867109	0.00045216	0.000171316	0	0	0	
0.114833	0.000824429	0.0117184	0.000392497	0.000252363	0	0	0	
0.115	-0.00471875	0.00316544	0.00032566	0.000305926	0	0	0	
0.115167	0.00301823	-0.0197896	0.000332107	0.000321152	0	0	0	
0.115333	0.00731925	0.00909698	0.000413851	0.000305638	0	0	0	
0.1155	-0.00697256	0.00329766	0.000447615	0.000297558	0	0	0	
0.115667	6.12785E-05	-0.00544438	0.000374109	0.000287071	0	0	0	
0.115833	-0.00371746	0.00711677	0.000269251	0.000230607	0	0	0	
0.116	0.00921682	-0.00843353	0.000238294	0.000239976	0	0	0	
0.116167	-0.00564612	5.39621E-05	0.000291522	0.000187025	0	0	0	
0.116333	0.00564261	0.00285461	0.000367987	0.000157775	0	0	0	
0.1165	-0.00612253	0.00247382	0.000420353	0.000108451	0	0	0	
0.116667	0.00359034	-0.00867785	0.000423188	0.000121928	0	0	0	
0.116833	-0.00281588	0.00442146	0.000398139	0.00012896	0	0	0	
0.117	0.00291229	-0.00348538	0.000371107	0.000143634	0	0	0	
0.117167	-0.00204297	-0.000127761	0.000364453	0.00011199	0	0	0	
0.117333	0.00312406	0.00118073	0.00037288	7.38277E-05	0	0	0	
0.1175	-0.000577278	-0.00161263	0.000369182	4.68979E-05	0	0	0	
0.117667	0.000785573	-0.000936785	0.000351714	5.70582E-05	0	0	0	
0.117833	-0.00792817	-0.00277102	0.000364432	0.000119355	0	0	0	
0.118	0.010951	-0.000508311	0.000419743	0.000196503	0	0	0	
0.118167	-0.0127364	0.0147063	0.00045431	0.000227231	0	0	0	
0.118333	0.00656535	-0.0197043	0.000429937	0.000262265	0	0	0	
0.1185	-0.00396092	0.00941951	0.000355344	0.000259845	0	0	0	
0.118667	0.00875728	-0.00245041	0.000313041	0.000245276	0	0	0	
0.118833	-0.00708444	-0.00442165	0.000318796	0.00014767	0	0	0	
0.119	-0.00173393	0.00274535	0.000356563	8.58344E-05	0	0	0	
0.119167	-0.00255671	0.00158812	0.000407839	0.000102681	0	0	0	
0.119333	-0.00260246	0.00811774	0.000448864	0.000177103	0	0	0	
0.1195	0.00794794	-0.00558115	0.0004779	0.000214756	0	0	0	
0.119667	0.00274885	0.00328157	0.000446102	0.000203388	0	0	0	
0.119833	-0.0101113	-0.00370538	0.000365295	0.00018697	0	0	0	
0.12	-0.00172138	0.0045638	0.000295486	0.000149533	0	0	0	
0.120167	-0.00202373	-0.00553372	0.00027932	0.000172906	0	0	0	
0.120333	0.0060438	0.00601851	0.000285228	0.000163552	0	0	0	
0.1205	-9.44873E-06	-0.0048608	0.000216259	0.000181674	0	0	0	
0.120667	0.00777678	-0.00442485	0.00013549	0.000142049	0	0	0	
0.120833	-0.0137139	0.0106092	0.000184281	0.000139175	0	0	0	
0.121	0.011737	-0.000363861	0.000303275	0.000179355	0	0	0	
0.121167	-0.0144084	-0.00973797	0.00036117	0.000262056	0	0	0	
0.121333	0.00463231	0.0170199	0.000324014	0.000313984	0	0	0	
0.1215	-0.00520449	-0.0156854	0.000318242	0.000362492	0	0	0	
0.121667	0.00972444	0.00943268	0.000417345	0.000337723	0	0	0	
0.121833	-0.00828254	-0.0075282	0.000443049	0.000278035	0	0	0	
0.122	0.0130779	-0.00160231	0.000354431	0.000183941	0	0	0	
0.122167	-0.003561	-0.00206807	0.000277972	0.000153589	0	0	0	
0.122333	-0.0194312	0.00562202	0.000290035	0.000179368	0	0	0	
0.1225	0.0077049	0.00568539	0.000360512	0.000241067	0	0	0	
0.122667	0.00253251	0.00226556	0.000342895	0.000272614	0	0	0	
0.122833	-0.0082671	-0.00940126	0.00034645	0.000239684	0	0	0	
0.123	0.0257317	-0.00283237	0.000370042	0.000172182	0	0	0	
0.123167	-0.0224358	0.0065403	0.000484668	0.00012063	0	0	0	
0.123333	0.0046037	-0.00517944	0.000441284	0.000116605	0	0	0	
0.1235	-0.0159106	0.00803721	0.000353436	0.000175452	0	0	0	
0.123667	0.0234185	-9.86864E-05	0.000325598	0.000215796	0	0	0	
0.123833	-0.0083616	-0.000117429	0.000382352	0.000209786	0	0	0	
0.124	0.0123056	-0.00627325	0.00046572	0.000142959	0	0	0	
0.124167	-0.0143819	0.000596513	0.000466576	0.00010769	0	0	0	
0.124333	0.000164812	0.00599887	0.000461331	0.00010782	0	0	0	
0.1245	-0.00508602	-0.00254945	0.000432504	0.000140946	0	0	0	
0.124667	0.0193488	-0.00192686	0.000419362	0.000148951	0	0	0	
0.124833	-0.0128761	0.00967556	0.000480746	0.000166428	0	0	0	
0.125	0.00759901	-0.0145845	0.000501634	0.000196408	0	0	0	
0.125167	-0.00622753	0.00726332	0.000429774	0.000214839	0	0	0	
0.125333	0.00136272	0.00379044	0.000314682	0.000245628	0	0	0	
0.1255	-0.00781623	-0.00666565	0.000307041	0.000255528	0	0	0	
0.125667	0.0156969	0.00349554	0.000404915	0.000258206	0	0	0	
0.125833	-0.0139433	-0.00314308	0.000529209	0.000190163	0	0	0	
0.126	0.0119477	0.0012686	0.000590337	0.000162971	0	0	0	
0.126167	-0.0129775	0.0038209	0.00054947	0.000215223	0	0	0	
0.126333	0.00783473	-0.00981836	0.000429589	0.000266539	0	0	0	
0.1265	-0.0039456	0.00788158	0.000307239	0.000249008	0	0	0	
0.126667	0.00503042	-0.001774	0.000272407	0.000173058	0	0	0	
0.126833	-0.0098261	0.00517841	0.000333238	0.000168929	0	0	0	
0.127	0.00775301	-0.00244772	0.000432451	0.000177565	0	0	0	
0.127167	-0.00280868	-0.00310628	0.000470902	0.000192428	0	0	0	
0.127333	0.00659134	-0.00279401	0.000435737	0.000203724	0	0	0	
0.1275	-0.00826442	-0.000335191	0.000366131	0.000200807	0	0	0	
0.127667	0.0106904	-0.0100939	0.000323575	0.000198397	0	0	0	
0.127833	-0.00839539	0.00995618	0.000352893	0.0001972	0	0	0	
0.128	0.00101643	0.0010717	0.000423356	0.000173966	0	0	0	
0.128167	0.00638835	-0.0048805	0.000453798	0.000143529	0	0	0	
0.128333	0.000784613	-0.00414736	0.000392897	8.85671E-05	0	0	0	
0.1285	-0.0119221	0.00635966	0.000302302	9.30646E-05	0	0	0	
0.128667	0.0190528	-0.000781639	0.000295117	0.000106268	0	0	0	
0.128833	-0.00871606	-0.0116777	0.000342896	0.000127586	0	0	0	
0.129	-0.00102915	0.00725229	0.000353858	0.000172531	0	0	0	
0.129167	-0.00236243	0.00282198	0.000275644	0.000182191	0	0	0	
0.129333	0.010047	-0.00390495	0.000195007	0.000190106	0	0	0	
0.1295	-0.0178611	0.00546662	0.000225242	0.000135144	0	0	0	
0.129667	0.0168212	-0.0033119	0.000342447	0.000115023	0	0	0	
0.129833	-0.00933537	0.00724311	0.000455369	0.000105382	0	0	0	
0.13	0.00867084	-0.0140605	0.000494131	0.000168999	0	0	0	
0.130167	-0.0148787	0.0123091	0.000447141	0.000245102	0	0	0	
0.130333	0.0129009	-0.000136578	0.000404299	0.000246728	0	0	0	
0.1305	-0.0117783	-0.00505927	0.000393225	0.000173418	0	0	0	
0.130667	0.0109301	0.00111319	0.000428194	9.29753E-05	0	0	0	
0.130833	-0.0100027	0.00131049	0.000434653	5.83842E-05	0	0	0	
0.131	0.00798623	-0.00570662	0.000408051	6.74342E-05	0	0	0	
0.131167	-0.00287807	-0.00370746	0.000350156	7.86133E-05	0	0	0	
0.131333	-0.000874316	0.00158848	0.000289035	0.000120767	0	0	0	
0.1315	-0.000446894	0.00257473	0.000286986	0.000129876	0	0	0	
0.131667	0.00815043	-0.00249113	0.000387681	0.00013791	0	0	0	
0.131833	-0.0166634	-0.0112558	0.000534941	0.00016993	0	0	0	
0.132	0.0156497	0.0118181	0.000596615	0.000218789	0	0	0	
0.132167	-0.01371	0.00622253	0.000512434	0.000322039	0	0	0	
0.132333	0.0121105	-0.0142485	0.00037249	0.000294174	0	0	0	
0.1325	-0.00156265	-0.00546112	0.000257261	0.000340696	0	0	0	
0.132667	-0.00636592	0.00689031	0.000209762	0.000320383	0	0	0	
0.132833	-0.00130856	0.00156003	0.000270621	0.000306036	0	0	0	
0.133	0.00970229	0.0160901	0.000391676	0.000241469	0	0	0	
0.133167	-0.0129912	-0.0201457	0.000478122	0.000256866	0	0	0	
0.133333	0.0128411	0.0187432	0.000455854	0.000341009	0	0	0	
0.1335	-0.00576664	0.0104535	0.000376637	0.000400396	0	0	0	
0.133667	0.00635903	-0.0263212	0.000333558	0.00036725	0	0	0	
0.133833	-0.0130271	0.00905711	0.000410584	0.000522402	0	0	0	
0.134	0.00187497	0.0271818	0.000566658	0.000701636	0	0	0	
0.134167	0.0112333	-0.0223129	0.000635177	0.000763122	0	0	0	
0.134333	0.0108952	0.00672259	0.000489676	0.000617253	0	0	0	
0.1345	-0.0188539	0.0116878	0.000357231	0.000418212	0	0	0	
0.134667	0.010436	-0.0239879	0.000330905	0.000358289	0	0	0	
0.134833	0.00581404	0.0294743	0.000392217	0.00042248	0	0	0	
0.135	-0.0167198	-0.0249156	0.000398705	0.000537375	0	0	0	
0.135167	0.00331034	0.00569571	0.000355425	0.000629171	0	0	0	
0.135333	0.0241742	0.0143453	0.000351812	0.00058317	0	0	0	
0.1355	-0.0143921	-0.0190137	0.00039083	0.000474796	0	0	0	
0.135667	-0.000577576	-0.000656994	0.000431508	0.000321951	0	0	0	
0.135833	-6.85056E-05	0.0130367	0.000455169	0.000236586	0	0	0	
0.136	0.00691286	-0.00973717	0.000373513	0.000184576	0	0	0	
0.136167	-0.0196511	0.00390779	0.000330346	0.000198333	0	0	0	
0.136333	0.0188809	0.000694111	0.000383099	0.000169502	0	0	0	
0.1365	-0.0129984	-0.000986371	0.000471965	0.000173729	0	0	0	
0.136667	0.0149419	-0.0134714	0.000507939	0.000202111	0	0	0	
0.136833	-0.0171141	0.0161879	0.00044382	0.000250355	0	0	0	
0.137	0.016857	-0.00719002	0.000371266	0.000262717	0	0	0	
0.137167	-0.0222091	0.00759648	0.000357901	0.000266753	0	0	0	
0.137333	0.0108831	-0.012635	0.000396157	0.000249049	0	0	0	
0.1375	-0.00566282	0.0145865	0.000446116	0.000271843	0	0	0	
0.137667	0.0176468	-0.00562652	0.000503503	0.000243991	0	0	0	
0.137833	-0.0135507	-0.0217104	0.000547877	0.000329339	0	0	0	
0.138	0.0142326	0.0268277	0.000543533	0.000361797	0	0	0	
0.138167	-0.0156678	0.0140021	0.000523534	0.000577848	0	0	0	
0.138333	0.00740565	-0.044323	0.000528831	0.000845492	0	0	0	
0.1385	-0.00447171	0.0365822	0.000555812	0.00107714	0	0	0	
0.138667	0.0101244	-0.0177158	0.000535554	0.000923517	0	0	0	
0.138833	-0.00426218	0.00159446	0.000470456	0.000627623	0	0	0	
0.139	0.00958734	0.00687901	0.00040817	0.000385518	0	0	0	
0.139167	-0.0124434	-0.00266484	0.000395635	0.00029552	0	0	0	
0.139333	0.00925907	0.0188615	0.000387715	0.000307381	0	0	0	
0.1395	-0.00614984	-0.0171107	0.000349089	0.000395313	0	0	0	
0.139667	0.00811323	-0.0045425	0.000287853	0.000498726	0	0	0	
0.139833	-0.0137682	0.00832023	0.000279604	0.000403159	0	0	0	
0.14	0.0169108	0.00761979	0.000351384	0.000291749	0	0	0	
0.140167	-0.0145986	-0.0149661	0.000405077	0.0002122	0	0	0	
0.140333	0.0140229	0.00597005	0.000402769	0.000312591	0	0	0	
0.1405	-0.0187298	0.0175015	0.000409041	0.000364343	0	0	0	
0.140667	0.0177605	-0.0136646	0.000431213	0.000387847	0	0	0	
0.140833	-0.0126723	0.00118251	0.00041129	0.000367573	0	0	0	
0.141	0.0153321	0.00407468	0.000356965	0.000340964	0	0	0	
0.141167	-0.0183001	-0.00327151	0.000357065	0.000295892	0	0	0	
0.141333	0.0180418	0.000833614	0.000397645	0.00019267	0	0	0	
0.1415	-0.0191372	0.00487782	0.000444167	8.18463E-05	0	0	0	
0.141667	0.0141092	-0.00216718	0.000448585	7.7644E-05	0	0	0	
0.141833	-0.018114	0.00428541	0.000428513	9.12379E-05	0	0	0	
0.142	0.0218201	-0.00475133	0.000434427	0.000112934	0	0	0	
0.142167	-0.0232447	0.00155158	0.000458183	0.000116591	0	0	0	
0.142333	0.0149525	0.00213425	0.000500529	0.000115574	0	0	0	
0.1425	-0.015858	0.00367995	0.000510732	9.6014E-05	0	0	0	
0.142667	0.00647643	0.00318233	0.00049378	6.77916E-05	0	0	0	
0.142833	-0.0118751	-0.00603499	0.00043043	9.53901E-05	0	0	0	
0.143	0.0154041	0.014271	0.000397312	0.000117161	0	0	0	
0.143167	-0.0168457	-0.00975429	0.000393124	0.000213074	0	0	0	
0.143333	0.00846376	0.000103618	0.000436732	0.000265883	0	0	0	
0.1435	-0.00589639	0.00424307	0.000420939	0.000270221	0	0	0	
0.143667	0.00779106	0.00285646	0.000357014	0.000186567	0	0	0	
0.143833	-0.0166679	0.00193701	0.00028862	0.00014063	0	0	0	
0.144	0.0160807	-0.000462696	0.000293713	0.000142036	0	0	0	
0.144167	-0.0118252	-0.00869714	0.000340027	0.000145003	0	0	0	
0.144333	0.00901327	0.00316686	0.000390495	0.000121173	0	0	0	
0.1445	-0.00159689	0.00348638	0.000340368	0.000107347	0	0	0	
0.144667	0.00515186	-0.00115372	0.000286202	0.000100418	0	0	0	
0.144833	-0.0156245	-0.00335181	0.000369251	8.48307E-05	0	0	0	
0.145	0.0271686	-0.00670802	0.00051108	9.87357E-05	0	0	0	
0.145167	-0.0214597	0.0121389	0.000567148	0.000138937	0	0	0	
0.145333	0.00328301	-0.00605676	0.000447861	0.000188466	0	0	0	
0.1455	-0.0140778	-0.00365293	0.000325561	0.000238298	0	0	0	
0.145667	0.0529786	0.00583969	0.000379127	0.00033129	0	0	0	
0.145833	-0.0475085	-0.0399956	0.000683412	0.000502436	0	0	0	
0.146	-0.0944004	0.0389995	0.00155602	0.000683472	0	0	0	
0.146167	0.247295	-0.0495908	0.00235655	0.000855345	0	0	0	
0.146333	-0.200893	0.0297842	0.00394693	0.000974826	0	0	0	
0.1465	0.100058	0.00154644	0.00682406	0.00113168	0	0	0	
0.146667	0.003224	-0.0545155	0.00885826	0.00149964	0	0	0	
0.146833	-0.0940035	0.0800321	0.00784387	0.00167224	0	0	0	
0.147	0.100883	-0.050509	0.00455415	0.00172044	0	0	0	
0.147167	-0.0319467	-0.026243	0.00223211	0.00169274	0	0	0	
0.147333	-0.184151	0.0157138	0.00281403	0.00161102	0	0	0	
0.1475	0.460348	-0.0377748	0.00439504	0.00145924	0	0	0	
0.147667	-0.36023	0.0886261	0.00649954	0.0011453	0	0	0	
0.147833	0.0439967	-0.05695	0.00608778	0.00123247	0	0	0	
0.148	0.0662319	-0.0563144	0.0043822	0.00134558	0	0	0	
0.148167	-0.0310083	0.103776	0.00186352	0.00148095	0	0	0	
0.148333	-0.0299574	-0.0600379	0.00095966	0.00153806	0	0	0	
0.1485	0.0497128	-0.00980956	0.000860399	0.00130687	0	0	0	
0.148667	-0.0124831	0.0126206	0.00126744	0.000887934	0	0	0	
0.148833	-0.0190649	-0.0196105	0.00171058	0.000435755	0	0	0	
0.149	0.0279046	-0.0281468	0.00176354	0.000361698	0	0	0	
0.149167	0.0105289	0.0722838	0.00132106	0.000611378	0	0	0	
0.149333	-0.00716888	-0.109957	0.000953834	0.00120196	0	0	0	
0.1495	0.000680237	0.0486223	0.00100593	0.00149865	0	0	0	
0.149667	0.0433182	-0.0352797	0.00107263	0.00154339	0	0	0	
0.149833	-0.0157883	0.00810198	0.000940647	0.00121149	0	0	0	
0.15	-0.0073539	0.0134067	0.000722444	0.00114549	0	0	0	
0.150167	0.034354	-0.00879303	0.000514796	0.000829879	0	0	0	
0.150333	0.0155337	-0.0365146	0.000464698	0.000865044	0	0	0	
0.1505	-0.0108268	0.0202345	0.000375712	0.000977634	0	0	0	
0.150667	0.0329157	-0.0155419	0.000423373	0.00107557	0	0	0	
0.150833	-0.0416111	-0.0293541	0.000569071	0.000792026	0	0	0	
0.151	0.0629828	0.00672618	0.000800338	0.000414534	0	0	0	
0.151167	-0.0227587	0.0196628	0.000917838	0.000408608	0	0	0	
0.151333	-0.00777682	0.0322186	0.000711134	0.00051514	0	0	0	
0.1515	-0.00575411	-0.0133409	0.000529542	0.000616142	0	0	0	
0.151667	0.0233215	-0.00237032	0.000383646	0.000599087	0	0	0	
0.151833	-0.0200376	-0.00713582	0.000462629	0.000579703	0	0	0	
0.152	0.0145411	0.00358302	0.000441571	0.000645829	0	0	0	
0.152167	-0.0167264	0.000815704	0.000386955	0.000703912	0	0	0	
0.152333	0.0228608	-0.0263279	0.000375809	0.000888684	0	0	0	
0.1525	-0.0350266	0.0428388	0.000413534	0.00083243	0	0	0	
0.152667	0.038413	-0.00155399	0.000585793	0.000930141	0	0	0	
0.152833	-0.027192	-0.000368897	0.000664213	0.000785686	0	0	0	
0.153	0.0237399	0.0137547	0.000730009	0.000709476	0	0	0	
0.153167	-0.0419962	-0.0466986	0.000716717	0.000621065	0	0	0	
0.153333	0.0376293	0.0311965	0.000761383	0.00055799	0	0	0	
0.1535	-0.0311332	0.00701493	0.00073833	0.000592593	0	0	0	
0.153667	0.0322139	-0.0463779	0.000759215	0.000614483	0	0	0	
0.153833	-0.0223046	0.0281044	0.000618633	0.000786642	0	0	0	
0.154	-0.00146994	0.00117997	0.000546827	0.00133695	0	0	0	
0.154167	0.0119095	0.00836014	0.000329154	0.00155534	0	0	0	
0.154333	0.0131599	-0.0178938	0.000389581	0.00140125	0	0	0	
0.1545	-0.0418158	0.0142447	0.000528953	0.00109403	0	0	0	
0.154667	0.0419748	-0.00714964	0.000826504	0.000726434	0	0	0	
0.154833	-0.0329068	-0.0134423	0.000829927	0.00088507	0	0	0	
0.155	0.0232705	-0.0300934	0.000748668	0.0010123	0	0	0	
0.155167	0.0024748	0.0496969	0.000569145	0.00141448	0	0	0	
0.155333	0.00386473	-0.0386998	0.000568	0.00136774	0	0	0	
0.1555	-0.0174035	0.00404433	0.000553639	0.00114787	0	0	0	
0.155667	0.0138385	-0.00679483	0.00060299	0.00089877	0	0	0	
0.155833	-0.00943208	0.028807	0.000562345	0.000758562	0	0	0	
0.156	0.00408425	-0.0635705	0.000471498	0.000693109	0	0	0	
0.156167	0.00139522	0.0415198	0.000339398	0.000850405	0	0	0	
0.156333	0.00498274	-0.00517748	0.000215905	0.000808673	0	0	0	
0.1565	-0.0092542	-0.0612808	0.00016464	0.000827829	0	0	0	
0.156667	0.00679874	0.0770782	0.000176268	0.00102379	0	0	0	
0.156833	-0.00859038	-0.0600866	0.000199363	0.00133023	0	0	0	
0.157	0.0100395	0.0525123	0.000197031	0.00143664	0	0	0	
0.157167	-0.0156785	-0.0366282	0.000211158	0.00116523	0	0	0	
0.157333	0.020835	0.0162568	0.000309876	0.000869188	0	0	0	
0.1575	-0.029758	0.00710617	0.000421909	0.000590085	0	0	0	
0.157667	0.0345145	-0.00950943	0.00050784	0.000523882	0	0	0	
0.157833	-0.0300018	-0.0174372	0.000580901	0.000697738	0	0	0	
0.158	0.023639	0.0489457	0.000578907	0.000950134	0	0	0	
0.158167	-0.0164522	-0.0431209	0.000552627	0.00101321	0	0	0	
0.158333	0.027464	0.00770678	0.000521055	0.00087527	0	0	0	
0.1585	-0.0449596	0.0388467	0.00062609	0.000736359	0	0	0	
0.158667	0.0448589	-0.0221149	0.00073511	0.000646138	0	0	0	
0.158833	-0.0276549	-0.00916844	0.000795163	0.000510816	0	0	0	
0.159	0.0031646	0.0161975	0.00061648	0.000449069	0	0	0	
0.159167	0.00186019	-0.0040867	0.000407613	0.000408823	0	0	0	
0.159333	0.0174268	0.00471371	0.000273115	0.000401057	0	0	0	
0.1595	-0.0165464	0.00964794	0.000379196	0.000323236	0	0	0	
0.159667	0.0209272	-0.0294801	0.00055872	0.000281504	0	0	0	
0.159833	-0.029785	0.0313811	0.000690237	0.000401695	0	0	0	
0.16	0.0267275	-0.0192246	0.000692814	0.000635305	0	0	0	
0.160167	-0.0176823	-0.0117941	0.000609693	0.000906385	0	0	0	
0.160333	0.0316092	0.0398995	0.000505801	0.000998114	0	0	0	
0.1605	-0.0165887	-0.0396994	0.000505933	0.000921572	0	0	0	
0.160667	0.0189237	-0.00688807	0.000439158	0.000677375	0	0	0	
0.160833	-0.0114259	0.0281124	0.000439083	0.000579863	0	0	0	
0.161	0.00742619	-0.0397265	0.00027824	0.00053988	0	0	0	
0.161167	-0.00884606	0.0262415	0.000247925	0.00059704	0	0	0	
0.161333	0.0220706	-0.00949125	0.000218102	0.000564554	0	0	0	
0.1615	-0.00682538	-0.00395328	0.000312591	0.000476906	0	0	0	
0.161667	0.0289118	-0.0194493	0.00031973	0.000405561	0	0	0	
0.161833	-0.0312986	0.0197629	0.000458533	0.000431137	0	0	0	
0.162	0.0199604	0.0019331	0.000436733	0.000374005	0	0	0	
0.162167	-0.025827	-0.00154403	0.000586731	0.000302267	0	0	0	
0.162333	0.0261196	0.0113309	0.000549688	0.000163292	0	0	0	
0.1625	-0.0419076	0.00480721	0.000668964	0.000154869	0	0	0	
0.162667	0.0415835	-0.0259701	0.000713524	0.00020252	0	0	0	
0.162833	-0.0274797	0.0178586	0.000812538	0.000377208	0	0	0	
0.163	0.0324215	-0.00929628	0.000885597	0.000454273	0	0	0	
0.163167	-0.0258517	0.0353761	0.000940109	0.000481593	0	0	0	
0.163333	-0.000971397	-0.0241098	0.00072398	0.000487773	0	0	0	
0.1635	-0.01271	0.00803198	0.000527887	0.000453373	0	0	0	
0.163667	0.00941113	-0.0131618	0.000261711	0.000439754	0	0	0	
0.163833	-0.0273531	0.0128995	0.000342035	0.000358894	0	0	0	
0.164	-0.00374497	-0.00352023	0.000378941	0.00045078	0	0	0	
0.164167	-0.0105493	-0.00111825	0.000491353	0.000447374	0	0	0	
0.164333	0.0112441	0.00497787	0.000538323	0.000400706	0	0	0	
0.1645	-0.0149152	0.0127069	0.000495044	0.00030672	0	0	0	
0.164667	0.0589577	-0.0279048	0.000587789	0.000365404	0	0	0	
0.164833	-0.0375797	-0.00407438	0.000820657	0.000482979	0	0	0	
0.165	-0.00944058	0.027474	0.000973415	0.000616307	0	0	0	
0.165167	-0.00514441	-0.00787748	0.000819435	0.000598134	0	0	0	
0.165333	-0.00179143	-0.0201338	0.000510629	0.000484259	0	0	0	
0.1655	-0.00392775	0.0152476	0.00034344	0.000404359	0	0	0	
0.165667	0.022951	0.0145717	0.000382566	0.000299389	0	0	0	
0.165833	0.011319	-0.0280559	0.000384597	0.000368571	0	0	0	
0.166	0.00759482	0.00891404	0.000379218	0.000376387	0	0	0	
0.166167	-0.0183934	0.0312768	0.000353568	0.000424092	0	0	0	
0.166333	0.0332659	-0.0210503	0.000349294	0.000445422	0	0	0	
0.1665	-0.0472589	0.00193019	0.000521683	0.000416929	0	0	0	
0.166667	0.0404124	0.00852447	0.000723642	0.00035762	0	0	0	
0.166833	-0.0131293	0.00514541	0.000769572	0.000321256	0	0	0	
0.167	0.0236551	-0.0296626	0.000657304	0.000331996	0	0	0	
0.167167	-0.0280151	0.0277325	0.000538573	0.000445174	0	0	0	
0.167333	0.0184857	-0.0154659	0.000484153	0.000436348	0	0	0	
0.1675	-0.0216983	0.0205526	0.000492056	0.000560379	0	0	0	
0.167667	0.0182594	-0.00202785	0.000537396	0.000692268	0	0	0	
0.167833	-0.00863623	-0.017027	0.000609899	0.000798856	0	0	0	
0.168	0.028224	0.0219452	0.000555513	0.000690015	0	0	0	
0.168167	-0.022656	-0.0195357	0.000490658	0.000542494	0	0	0	
0.168333	0.0194989	-0.00533534	0.00040605	0.000422608	0	0	0	
0.1685	-0.017279	0.00385288	0.000463568	0.000369258	0	0	0	
0.168667	0.016462	-0.0234577	0.000434353	0.000351677	0	0	0	
0.168833	-0.0309471	0.031646	0.000437466	0.000501294	0	0	0	
0.169	0.0256583	-0.0216539	0.00048979	0.00067219	0	0	0	
0.169167	-0.0163851	-0.000150622	0.00050293	0.000631348	0	0	0	
0.169333	0.0208825	0.0200108	0.000530045	0.000444144	0	0	0	
0.1695	-0.0151147	-0.0409939	0.00044436	0.000410088	0	0	0	
0.169667	0.00111946	0.0216721	0.000320999	0.000590704	0	0	0	
0.169833	-0.00360175	-0.0154042	0.000199644	0.000701619	0	0	0	
0.17	0.0144044	0.0126929	0.000185297	0.000800931	0	0	0	
0.170167	-0.0192109	0.0236683	0.0002663	0.00104365	0	0	0	
0.170333	0.0135827	-0.0236381	0.0003274	0.00135912	0	0	0	
0.1705	-0.00538645	0.0124298	0.00029708	0.00139177	0	0	0	
0.170667	0.00544297	0.0049412	0.000216168	0.000997745	0	0	0	
0.170833	-0.0214682	0.0203809	0.00021386	0.000569565	0	0	0	
0.171	0.0253468	-0.04672	0.000272861	0.00039513	0	0	0	
0.171167	-0.0289915	0.0678511	0.000421675	0.000689587	0	0	0	
0.171333	0.020813	-0.0341762	0.000531267	0.00098167	0	0	0	
0.1715	-0.0105734	-0.0153711	0.000555216	0.000986585	0	0	0	
0.171667	0.013225	0.0329915	0.000435662	0.000881352	0	0	0	
0.171833	-0.0158473	-0.00549657	0.000342897	0.000720346	0	0	0	
0.172	0.0215372	-0.010221	0.000351963	0.000566912	0	0	0	
0.172167	-0.0395224	-0.00653478	0.000557124	0.00053875	0	0	0	
0.172333	0.0424149	0.00666123	0.000765637	0.000654025	0	0	0	
0.1725	-0.0307995	-0.00369284	0.000814894	0.000735938	0	0	0	
0.172667	0.0016816	-0.021573	0.000834178	0.000519533	0	0	0	
0.172833	-0.0973709	0.0150355	0.00131117	0.000334911	0	0	0	
0.173	0.0578735	0.0147788	0.00177613	0.000319538	0	0	0	
0.173167	-0.00433612	-0.00155682	0.00166713	0.000350494	0	0	0	
0.173333	0.0142894	-0.0202619	0.00106583	0.000299726	0	0	0	
0.1735	-0.0281906	0.00237999	0.000764513	0.000412657	0	0	0	
0.173667	0.0511805	0.00585302	0.000880329	0.000366372	0	0	0	
0.173833	-0.161264	0.00562593	0.00141372	0.000542278	0	0	0	
0.174	0.064303	0.00618687	0.00226192	0.000548939	0	0	0	
0.174167	0.0340587	0.00711839	0.00299414	0.000769456	0	0	0	
0.174333	-0.0231743	-0.0486317	0.0029415	0.00102988	0	0	0	
0.1745	0.0307179	0.0520815	0.00201661	0.00132402	0	0	0	
0.174667	0.00338664	-0.00430133	0.00115165	0.00123212	0	0	0	
0.174833	-0.0381273	-0.0346351	0.000713615	0.00077612	0	0	0	
0.175	-0.036843	0.0514668	0.000624766	0.000580515	0	0	0	
0.175167	0.110533	0.00190552	0.000995796	0.000617369	0	0	0	
0.175333	-0.0639417	-0.0564546	0.00149347	0.000778806	0	0	0	
0.1755	0.00799514	0.0483388	0.0015349	0.000925423	0	0	0	
0.175667	0.0387449	-0.0250139	0.00115515	0.000991079	0	0	0	
0.175833	-0.0461493	0.0134486	0.000740267	0.000890033	0	0	0	
0.176	0.00789545	0.0246044	0.000662086	0.000676092	0	0	0	
0.176167	0.0070428	-0.0122324	0.000536883	0.000574333	0	0	0	
0.176333	0.0164403	-0.000605988	0.000314117	0.000508748	0	0	0	
0.1765	-0.0322595	-0.00101256	0.000314211	0.000399604	0	0	0	
0.176667	0.0316116	-0.012422	0.000490043	0.000312672	0	0	0	
0.176833	-0.00641017	0.0174916	0.000510975	0.000324877	0	0	0	
0.177	0.0102086	-0.00892492	0.00040634	0.000274077	0	0	0	
0.177167	-0.0224221	-0.0150509	0.000372012	0.000330377	0	0	0	
0.177333	0.0247839	0.0466505	0.000465678	0.000467912	0	0	0	
0.1775	-0.0195442	-0.0757094	0.000567467	0.00077263	0	0	0	
0.177667	0.0145338	0.0273374	0.000512585	0.000954997	0	0	0	
0.177833	-0.0113882	0.0323534	0.000366837	0.00101839	0	0	0	
0.178	0.0320041	-0.064533	0.000368015	0.000928747	0	0	0	
0.178167	-0.0303382	0.034712	0.000491695	0.000923906	0	0	0	
0.178333	0.0203751	0.0152135	0.000624435	0.000958011	0	0	0	
0.1785	-0.00607779	-0.0535357	0.000640557	0.000979048	0	0	0	
0.178667	0.0128701	0.042758	0.000545522	0.000978835	0	0	0	
0.178833	-0.0193369	-0.0311414	0.000492583	0.000873277	0	0	0	
0.179	0.0250126	-0.00010896	0.000443569	0.000812844	0	0	0	
0.179167	-0.0137833	0.0372583	0.000432039	0.000764064	0	0	0	
0.179333	0.00754745	-0.0362167	0.000365427	0.000819206	0	0	0	
0.1795	-0.00780154	0.0159042	0.000270359	0.000685122	0	0	0	
0.179667	0.0206485	0.0118394	0.000220789	0.000625975	0	0	0	
0.179833	-0.0266993	-0.0361585	0.000304264	0.000538028	0	0	0	
0.18	0.0151994	0.0148567	0.000372554	0.000615546	0	0	0	
0.180167	-0.0133299	0.0184947	0.000403318	0.000500993	0	0	0	
0.180333	0.0212088	0.00819394	0.000393974	0.000451048	0	0	0	
0.1805	-0.022196	-0.0130124	0.000421456	0.000354025	0	0	0	
0.180667	0.0210021	-0.0139886	0.000442053	0.000348651	0	0	0	
0.180833	-0.0304153	0.0457644	0.000470115	0.000389905	0	0	0	
0.181	0.0297062	-0.0642595	0.00054327	0.000688415	0	0	0	
0.181167	-0.0292448	0.0233829	0.000639962	0.00110739	0	0	0	
0.181333	0.0151092	0.0411099	0.000559488	0.0013756	0	0	0	
0.1815	-0.0616913	-0.0453727	0.00070178	0.00132754	0	0	0	
0.181667	0.0460649	0.0443226	0.000846607	0.00105347	0	0	0	
0.181833	-0.0144909	-0.0505646	0.0010107	0.000932224	0	0	0	
0.182	0.0110837	0.0295041	0.000802462	0.000873678	0	0	0	
0.182167	-0.00756335	0.000346466	0.000508658	0.000800601	0	0	0	
0.182333	0.0166365	-0.0295226	0.000283413	0.000715645	0	0	0	
0.1825	-0.0740391	0.0369775	0.000498689	0.000731968	0	0	0	
0.182667	0.0343448	0.0193131	0.000895701	0.000772358	0	0	0	
0.182833	-0.00270925	-0.0663128	0.00099584	0.000910679	0	0	0	
0.183	0.0082741	0.0154064	0.000773578	0.00103866	0	0	0	
0.183167	-0.0105435	0.0745323	0.000433155	0.00127904	0	0	0	
0.183333	0.00837872	-0.0674389	0.000355132	0.00145795	0	0	0	
0.1835	-0.0156385	-0.00484864	0.000324027	0.00124497	0	0	0	
0.183667	0.00839759	0.0774747	0.000264547	0.00113508	0	0	0	
0.183833	-0.0172285	-0.0571907	0.000294239	0.00113483	0	0	0	
0.184	0.0368086	-0.0309651	0.000426756	0.00121999	0	0	0	
0.184167	-0.0235388	0.0481948	0.000574956	0.00127066	0	0	0	
0.184333	0.0307438	-0.00534305	0.00074582	0.000904241	0	0	0	
0.1845	-0.0227365	-0.00448422	0.000749341	0.000604383	0	0	0	
0.184667	0.0228915	0.0177877	0.000653158	0.000335012	0	0	0	
0.184833	-0.0638216	-0.029698	0.000693347	0.000375029	0	0	0	
0.185	0.0586875	0.0478126	0.000916366	0.000535261	0	0	0	
0.185167	-0.0164533	-0.0728807	0.00100153	0.000855669	0	0	0	
0.185333	0.0224838	0.0418705	0.000917718	0.00103106	0	0	0	
0.1855	0.0071126	-0.050867	0.00058818	0.00108738	0	0	0	
0.185667	-0.0196863	0.0273991	0.000500385	0.000937682	0	0	0	
0.185833	-0.00699919	0.00652384	0.000340875	0.000715832	0	0	0	
0.186	0.0103115	-0.0239977	0.000307886	0.000563988	0	0	0	
0.186167	-0.0205346	0.00815996	0.000314106	0.000380537	0	0	0	
0.186333	0.0521453	-0.0114189	0.000480836	0.00040461	0	0	0	
0.1865	-0.0628189	-0.00380117	0.000756359	0.000668301	0	0	0	
0.186667	0.0395481	-0.00730225	0.000953413	0.000996511	0	0	0	
0.186833	-0.0337055	-0.00977979	0.000952499	0.000991308	0	0	0	
0.187	0.0423599	0.0230377	0.00081849	0.000825146	0	0	0	
0.187167	-0.0269251	-0.0259557	0.000757304	0.000709125	0	0	0	
0.187333	0.0110611	-0.00713774	0.000650621	0.000667484	0	0	0	
0.1875	-0.0131586	0.0199537	0.000481865	0.000848265	0	0	0	
0.187667	0.00385245	0.00404932	0.000273983	0.000896659	0	0	0	
0.187833	-0.0140208	-0.0275114	0.000212431	0.000860507	0	0	0	
0.188	0.0134125	0.038227	0.000238717	0.000703677	0	0	0	
0.188167	-0.000240153	-0.0366878	0.000283769	0.000610173	0	0	0	
0.188333	0.0250599	0.0110452	0.000311051	0.000640677	0	0	0	
0.1885	-0.0259309	0.00531302	0.00038166	0.000611011	0	0	0	
0.188667	0.0216149	-0.0084651	0.000421825	0.000443407	0	0	0	
0.188833	-0.0234924	0.018574	0.000487305	0.000350445	0	0	0	
0.189	0.0146912	-0.0468504	0.00044109	0.000396489	0	0	0	
0.189167	-0.0173868	0.0425476	0.000433416	0.00058365	0	0	0	
0.189333	0.0520316	0.000290674	0.000495256	0.000682487	0	0	0	
0.1895	-0.0462334	-0.040426	0.000659841	0.000606161	0	0	0	
0.189667	0.0174151	0.0417115	0.000722401	0.0005876	0	0	0	
0.189833	-0.0120552	-0.0235728	0.000599954	0.000629536	0	0	0	
0.19	0.0137667	0.0024645	0.000396478	0.000572311	0	0	0	
0.190167	-0.005803	0.0072563	0.000256325	0.000408545	0	0	0	
0.190333	-0.00175423	-0.00359333	0.000205481	0.000287128	0	0	0	
0.1905	-0.0134952	-0.00746358	0.000189988	0.000293385	0	0	0	
0.190667	0.0161834	0.0261889	0.000237501	0.000491421	0	0	0	
0.190833	-0.0173842	-0.0520041	0.000298621	0.000780922	0	0	0	
0.191	0.0100365	0.0287926	0.000328491	0.000948268	0	0	0	
0.191167	-0.0243453	0.00989343	0.000347875	0.000879245	0	0	0	
0.191333	0.0153056	-0.0261487	0.000434431	0.000712074	0	0	0	
0.1915	-0.0294259	-0.00988377	0.000419957	0.000576768	0	0	0	
0.191667	0.034208	0.0583719	0.000500803	0.000640955	0	0	0	
0.191833	-0.0184374	-0.0458716	0.000499938	0.000784018	0	0	0	
0.192	0.0256887	-0.0109435	0.000573131	0.000854846	0	0	0	
0.192167	-0.0398975	0.0325205	0.000688837	0.000711222	0	0	0	
0.192333	-0.0103532	-0.0419359	0.000659461	0.000637869	0	0	0	
0.1925	-0.0094327	0.0324241	0.000572348	0.000805997	0	0	0	
0.192667	0.0413107	-0.00763114	0.000449761	0.000971965	0	0	0	
0.192833	-0.0282462	-0.0406471	0.000553619	0.00112053	0	0	0	
0.193	0.0269763	0.0645607	0.000612753	0.00101757	0	0	0	
0.193167	-0.0387373	0.0694188	0.000705694	0.00165745	0	0	0	
0.193333	0.0223602	-0.22081	0.00063502	0.001893	0	0	0	
0.1935	-0.100731	0.813012	0.000941914	0.00647192	0	0	0	
0.193667	-0.0296665	-0.163776	0.00141954	0.0107831	0	0	0	
0.193833	-0.0669564	-0.131448	0.0014688	0.01334	0	0	0	
0.194	0.092989	0.111946	0.00162801	0.0096382	0	0	0	
0.194167	-0.0722006	-0.013019	0.00136672	0.00470603	0	0	0	
0.194333	0.0699061	-0.098939	0.00161368	0.00179603	0	0	0	
0.1945	-0.0225827	0.642783	0.00147676	0.0023965	0	0	0	
0.194667	-0.131857	-0.361015	0.0017192	0.00746761	0	0	0	
0.194833	-0.0345577	0.253368	0.00163542	0.00902052	0	0	0	
0.195	0.0176514	-0.0627825	0.00146181	0.00836224	0	0	0	
0.195167	0.00450802	-0.00146367	0.000916017	0.00332074	0	0	0	
0.195333	0.00765821	-0.00907597	0.000736685	0.00177348	0	0	0	
0.1955	-0.000829128	0.0233648	0.000760112	0.000833137	0	0	0	
0.195667	0.0121691	-0.0610452	0.000869738	0.00100606	0	0	0	
0.195833	-0.0201744	0.0293966	0.000800803	0.00161394	0	0	0	
0.196	0.0273183	0.00544262	0.000656772	0.00242748	0	0	0	
0.196167	-0.0998865	-0.0339328	0.000727523	0.00237675	0	0	0	
0.196333	0.11631	0.0268141	0.00159651	0.0016878	0	0	0	
0.1965	-0.0639824	0.024576	0.0019459	0.0010586	0	0	0	
0.196667	-0.0263087	0.088495	0.00184121	0.00137747	0	0	0	
0.196833	0.0547438	-0.418617	0.00125959	0.00281711	0	0	0	
0.197	0.104519	0.235029	0.00143786	0.00501878	0	0	0	
0.197167	-0.067255	-0.0496342	0.00180926	0.00488818	0	0	0	
0.197333	0.0102429	0.0108696	0.00197112	0.00371935	0	0	0	
0.1975	0.0229011	-0.0410026	0.00182723	0.00230979	0	0	0	
0.197667	0.00244108	0.0664128	0.00141687	0.00205598	0	0	0	
0.197833	-0.0552238	-0.07334	0.00122237	0.00274011	0	0	0	
0.198	0.133221	-0.254464	0.00128018	0.00303587	0	0	0	
0.198167	-0.0267178	0.148629	0.0021156	0.0043282	0	0	0	
0.198333	0.00703178	-0.106344	0.00208222	0.00424449	0	0	0	
0.1985	-0.0152568	0.0968793	0.00181624	0.00354976	0	0	0	
0.198667	0.0353899	-0.0346832	0.000878827	0.00227795	0	0	0	
0.198833	-0.0407856	-0.0405257	0.000778451	0.00189462	0	0	0	
0.199	0.00908226	0.105736	0.000610819	0.0017696	0	0	0	
0.199167	-0.0388126	-0.0743212	0.000661234	0.00214113	0	0	0	
0.199333	0.0238467	-0.00298335	0.000653309	0.00187184	0	0	0	
0.1995	0.00970422	0.0391237	0.000550307	0.00182814	0	0	0	
0.199667	-0.00966263	-0.0536321	0.000463147	0.00134834	0	0	0	
0.199833	0.0107232	0.0698184	0.000240361	0.00127279	0	0	0	
0.2	-0.000791294	-0.0781435	0.000298352	0.00121803	0	0	0	
0.200167	-0.0386196	0.0746144	0.000291533	0.00126022	0	0	0	
0.200333	0.0533575	-0.0580284	0.000757972	0.00162326	0	0	0	
0.2005	-0.0362262	-0.0528295	0.000856455	0.00168465	0	0	0	
0.200667	0.0415355	0.0417622	0.00106357	0.00153021	0	0	0	
0.200833	-0.0150422	0.0959959	0.000756526	0.00183146	0	0	0	
0.201	0.00521422	-0.118981	0.000636206	0.00240238	0	0	0	
0.201167	0.0266261	0.0316632	0.000447685	0.00248384	0	0	0	
0.201333	-0.0678562	0.0010262	0.000772093	0.0022022	0	0	0	
0.2015	0.0552184	0.020638	0.0011999	0.00166733	0	0	0	
0.201667	0.0378669	0.024165	0.00129577	0.00192987	0	0	0	
0.201833	-0.117909	-0.189357	0.00143295	0.00183078	0	0	0	
0.202	0.135816	0.194349	0.00173501	0.00360799	0	0	0	
0.202167	-0.0237881	0.067339	0.00241938	0.00640167	0	0	0	
0.202333	-0.142968	-0.281111	0.00256393	0.00900138	0	0	0	
0.2025	-0.0623452	0.442405	0.00340181	0.00991334	0	0	0	
0.202667	0.257721	-0.505085	0.00553508	0.0096537	0	0	0	
0.202833	-0.430854	0.238403	0.00746969	0.00893907	0	0	0	
0.203	0.229489	0.119971	0.00851147	0.0106517	0	0	0	
0.203167	-0.185074	-0.414206	0.00720439	0.0116172	0	0	0	
0.203333	0.0529171	0.601201	0.00528478	0.0124614	0	0	0	
0.2035	0.260325	-0.658909	0.00523451	0.0122259	0	0	0	
0.203667	-0.445376	0.449597	0.00528944	0.0124348	0	0	0	
0.203833	0.11208	0.099787	0.00724493	0.0104646	0	0	0	
0.204	0.0183839	-0.714694	0.00780887	0.00868899	0	0	0	
0.204167	-0.009113	0.784474	0.00777629	0.00935108	0	0	0	
0.204333	0.0718436	-0.578808	0.00564087	0.012083	0	0	0	
0.2045	-0.19383	0.594192	0.00330249	0.013001	0	0	0	
0.204667	0.13415	-0.700925	0.00279576	0.0128287	0	0	0	
0.204833	0.0216756	0.574222	0.00275908	0.0133144	0	0	0	
0.205	-0.013116	-0.288759	0.00226519	0.0124729	0	0	0	
0.205167	0.0137238	0.0707535	0.00124877	0.00916854	0	0	0	
0.205333	-0.0464101	-0.000318584	0.00101109	0.00647702	0	0	0	
0.2055	0.00322712	0.069841	0.0010818	0.00638328	0	0	0	
0.205667	0.00048127	0.00732602	0.00117194	0.00740993	0	0	0	
0.205833	0.0439953	-0.043527	0.000957486	0.00620629	0	0	0	
0.206	-0.080349	0.0572694	0.000855734	0.00432427	0	0	0	
0.206167	-0.0737231	0.00372689	0.00121017	0.00283279	0	0	0	
0.206333	0.105206	0.00315365	0.00227989	0.0023572	0	0	0	
0.2065	-0.0158894	-0.0586558	0.00213272	0.00160293	0	0	0	
0.206667	0.00335235	0.0925713	0.00157019	0.00113058	0	0	0	
0.206833	0.00353427	-0.00439328	0.000449259	0.00157476	0	0	0	
0.207	-0.0107755	-0.0890939	0.000723128	0.00208341	0	0	0	
0.207167	-0.0397003	0.0556126	0.00158172	0.00231412	0	0	0	
0.207333	0.0167008	0.0381043	0.00229676	0.00189768	0	0	0	
0.2075	0.0440768	-0.0599333	0.00210335	0.00161808	0	0	0	
0.207667	-0.0203476	-0.031169	0.00149625	0.00130407	0	0	0	
0.207833	-0.0315122	0.102554	0.000859031	0.00197107	0	0	0	
0.208	0.0684182	-0.179549	0.000914558	0.00263981	0	0	0	
0.208167	-0.085918	0.127431	0.000882409	0.00311496	0	0	0	
0.208333	0.0790563	0.0300298	0.001323	0.00305107	0	0	0	
0.2085	-0.0197233	-0.180488	0.00128862	0.00279018	0	0	0	
0.208667	0.0273203	0.222348	0.00121231	0.00319665	0	0	0	
0.208833	-0.0568413	-0.0985114	0.000981206	0.00332754	0	0	0	
0.209	0.0630167	0.0447129	0.00121727	0.00278243	0	0	0	
0.209167	0.00502955	-0.0908916	0.0012296	0.00196231	0	0	0	
0.209333	0.0212652	0.0904121	0.000980755	0.00174491	0	0	0	
0.2095	-0.0227441	-0.0339356	0.000586901	0.00182487	0	0	0	
0.209667	0.0392017	0.0279374	0.000499311	0.00179146	0	0	0	
0.209833	-0.0369167	0.00436611	0.000622732	0.00183958	0	0	0	
0.21	0.0287531	0.00148947	0.00071999	0.00174906	0	0	0	
0.210167	0.035778	-0.0534949	0.000869444	0.00159169	0	0	0	
0.210333	-0.00119569	0.0289429	0.000753801	0.00116584	0	0	0	
0.2105	-0.011276	0.00808165	0.000534724	0.00107147	0	0	0	
0.210667	0.00524175	0.0193832	0.000268901	0.00100702	0	0	0	
0.210833	-0.00782713	-0.0261096	0.000187176	0.000733855	0	0	0	
0.211	0.031185	0.0118264	0.000307718	0.000513934	0	0	0	
0.211167	-0.0463527	-0.0525273	0.000516617	0.000560706	0	0	0	
0.211333	0.0379719	0.0422007	0.000697754	0.000904716	0	0	0	
0.2115	-0.0312386	0.0130923	0.000755096	0.00101309	0	0	0	
0.211667	0.0214496	-0.0287088	0.000688131	0.0008624	0	0	0	
0.211833	-0.0097453	0.0124005	0.000572442	0.000486849	0	0	0	
0.212	0.0091859	-0.000549846	0.000408254	0.000349089	0	0	0	
0.212167	-0.0143765	0.0150949	0.000287956	0.000482057	0	0	0	
0.212333	0.0154333	-0.0417152	0.000253345	0.000665713	0	0	0	
0.2125	-0.0158706	0.034165	0.000291199	0.000839441	0	0	0	
0.212667	0.0209287	0.0237323	0.000321133	0.0010457	0	0	0	
0.212833	-0.0252294	-0.0447898	0.000370361	0.00112848	0	0	0	
0.213	0.0348629	0.0286944	0.000446873	0.00108124	0	0	0	
0.213167	-0.036226	-0.0181503	0.000574456	0.00103625	0	0	0	
0.213333	0.0295745	-0.0285861	0.000630361	0.000857907	0	0	0	
0.2135	-0.0124895	0.042375	0.000582783	0.000918191	0	0	0	
0.213667	0.00865893	-0.0346326	0.000412567	0.000714874	0	0	0	
0.213833	-0.0227709	0.0214808	0.000329383	0.000679759	0	0	0	
0.214	0.0308389	0.0398025	0.000372036	0.00082233	0	0	0	
0.214167	-0.0255926	-0.104782	0.00052514	0.00118484	0	0	0	
0.214333	0.0179204	0.0514415	0.000570328	0.00155354	0	0	0	
0.2145	-0.0290641	0.0097499	0.000525961	0.00139352	0	0	0	
0.214667	0.0263209	-0.0306427	0.000483565	0.00100014	0	0	0	
0.214833	-0.0174801	0.0178588	0.000457264	0.000642321	0	0	0	
0.215	0.00805281	0.00888023	0.000432324	0.000772318	0	0	0	
0.215167	-0.00553983	-0.0174406	0.000359038	0.000854951	0	0	0	
0.215333	0.00290898	0.0060083	0.000263704	0.000764072	0	0	0	
0.2155	-0.0164914	0.0159256	0.000224234	0.000466969	0	0	0	
0.215667	0.0176985	-0.0288099	0.00024762	0.000303797	0	0	0	
0.215833	0.00604249	0.0219795	0.000366716	0.000383059	0	0	0	
0.216	-0.0205599	-0.0163	0.000571096	0.000420862	0	0	0	
0.216167	-0.0179163	0.0128664	0.000529256	0.00040526	0	0	0	
0.216333	0.0174489	0.00739395	0.000471684	0.000285468	0	0	0	
0.2165	-0.0302708	-0.0199421	0.000371138	0.000271436	0	0	0	
0.216667	0.0325792	0.0172134	0.000521055	0.000299016	0	0	0	
0.216833	-0.00912411	-0.0109335	0.000574985	0.000348475	0	0	0	
0.217	0.00559747	0.0129697	0.000580653	0.000375112	0	0	0	
0.217167	-0.0361406	-0.00624903	0.000751245	0.000301484	0	0	0	
0.217333	0.0326632	-0.018571	0.00096154	0.000567518	0	0	0	
0.2175	-0.0706421	0.0224557	0.00116607	0.000835111	0	0	0	
0.217667	0.0894479	-0.0167591	0.00133608	0.000844327	0	0	0	
0.217833	-0.0608232	-0.0066081	0.00143692	0.000655929	0	0	0	
0.218	0.00896363	0.0145012	0.00128496	0.000404145	0	0	0	
0.218167	0.0219364	-0.00180684	0.000804417	0.000473864	0	0	0	
0.218333	-0.00756606	0.00511117	0.000628034	0.000351219	0	0	0	
0.2185	-0.0336132	-0.0186314	0.00103678	0.00054629	0	0	0	
0.218667	0.0431657	0.0154343	0.00159771	0.00100968	0	0	0	
0.218833	-0.0309343	0.0087918	0.00169914	0.00114626	0	0	0	
0.219	0.0323207	0.00192785	0.00121225	0.00154922	0	0	0	
0.219167	-0.0647191	0.0164307	0.00088533	0.00191173	0	0	0	
0.219333	0.0729039	-0.0197323	0.00100692	0.00217366	0	0	0	
0.2195	-0.00972143	-0.0104961	0.0011064	0.00171238	0	0	0	
0.219667	0.00463277	0.0442051	0.0008849	0.00118672	0	0	0	
0.219833	-0.0272439	0.00226666	0.000502632	0.000976396	0	0	0	
0.22	0.0332794	-0.0635752	0.000435521	0.000941129	0	0	0	
0.220167	-0.0167208	0.0972374	0.000524524	0.00107412	0	0	0	
0.220333	-0.0469934	-0.0595524	0.000656719	0.00138245	0	0	0	
0.2205	0.0406747	0.0158567	0.000931298	0.00138192	0	0	0	
0.220667	0.0425191	0.00214634	0.00100456	0.000859544	0	0	0	
0.220833	-0.032467	-0.0383413	0.00106601	0.000532597	0	0	0	
0.221	0.00820833	0.0530318	0.000664089	0.000651116	0	0	0	
0.221167	-0.00705888	-0.0306502	0.000558005	0.000855827	0	0	0	
0.221333	0.000675687	0.00514981	0.000416146	0.000724845	0	0	0	
0.2215	-0.0433063	-0.00161388	0.000671392	0.000430406	0	0	0	
0.221667	0.0479209	-0.00380644	0.000916149	0.000315668	0	0	0	
0.221833	-0.0148413	0.0207077	0.000930271	0.000380744	0	0	0	
0.222	0.0196061	-0.0147548	0.000706756	0.000427693	0	0	0	
0.222167	-0.0348956	-0.0188617	0.000487401	0.00054513	0	0	0	
0.222333	0.0272645	0.0460345	0.000501219	0.000618194	0	0	0	
0.2225	-0.0128159	-0.0383276	0.000534262	0.000777436	0	0	0	
0.222667	0.0180291	-0.000888265	0.000417159	0.000788446	0	0	0	
0.222833	-0.0336468	0.032967	0.000379994	0.000694819	0	0	0	
0.223	0.0385884	-0.0383429	0.000505412	0.000672673	0	0	0	
0.223167	-0.0283616	0.0447943	0.000639543	0.00061113	0	0	0	
0.223333	0.0264971	-0.0389925	0.000658549	0.000782147	0	0	0	
0.2235	-0.0328827	0.00139754	0.000599386	0.000972757	0	0	0	
0.223667	0.0289355	-0.00556198	0.000586286	0.00116218	0	0	0	
0.223833	-0.00568653	0.0252931	0.000518661	0.00112461	0	0	0	
0.224	-0.00385862	0.0082065	0.000381359	0.00119669	0	0	0	
0.224167	-0.0116319	-0.0175211	0.000232866	0.00115501	0	0	0	
0.224333	0.011256	0.0143708	0.000197604	0.00103565	0	0	0	
0.2245	-0.010179	-0.00208439	0.000226097	0.000663142	0	0	0	
0.224667	0.0235573	-0.0212876	0.000340657	0.000476853	0	0	0	
0.224833	-0.0404486	0.00218611	0.000440799	0.000622862	0	0	0	
0.225	0.0552705	0.0221859	0.000664217	0.000809162	0	0	0	
0.225167	-0.0400603	0.0154195	0.000823818	0.000833789	0	0	0	
0.225333	0.0247271	-0.0100067	0.000870469	0.000750666	0	0	0	
0.2255	-0.0171299	-0.0137801	0.000759436	0.000570203	0	0	0	
0.225667	0.0120276	-0.0263676	0.000542372	0.00058661	0	0	0	
0.225833	-0.0206749	0.0312055	0.000443763	0.000643297	0	0	0	
0.226	0.0325631	-0.0329331	0.000510457	0.00071697	0	0	0	
0.226167	-0.0135109	0.014696	0.000650898	0.000713273	0	0	0	
0.226333	0.016593	0.0506124	0.000553142	0.000636314	0	0	0	
0.2265	-0.0194901	-0.0520726	0.000439623	0.000846655	0	0	0	
0.226667	0.0142262	-0.00643659	0.000308626	0.000808262	0	0	0	
0.226833	0.000965789	-0.00311055	0.000317957	0.000854315	0	0	0	
0.227	-0.00708207	0.0233933	0.000222929	0.000850942	0	0	0	
0.227167	-0.0126715	-0.0061934	0.000275719	0.00123817	0	0	0	
0.227333	-0.0898131	-0.0485482	0.000763982	0.00196063	0	0	0	
0.2275	-0.0409917	-0.0453281	0.00105993	0.00254527	0	0	0	
0.227667	0.0413405	-0.00246011	0.00121859	0.0022841	0	0	0	
0.227833	-0.0312608	0.0105404	0.000920628	0.00137363	0	0	0	
0.228	0.0226305	-0.0029041	0.000745179	0.000660639	0	0	0	
0.228167	-0.037597	-0.0856745	0.000670158	0.00116353	0	0	0	
0.228333	0.0413963	0.0613518	0.000644098	0.00200756	0	0	0	
0.2285	-0.0352832	-0.0496483	0.000706945	0.00203692	0	0	0	
0.228667	0.0175019	0.00736518	0.000650284	0.00159078	0	0	0	
0.228833	-0.00965696	0.00990307	0.000574225	0.00102909	0	0	0	
0.229	0.00151305	-0.0272165	0.000398238	0.000944435	0	0	0	
0.229167	0.00276751	0.046091	0.000277369	0.000849921	0	0	0	
0.229333	-0.0123919	-0.117732	0.000260407	0.00112406	0	0	0	
0.2295	0.0242854	0.0747503	0.000341584	0.0014858	0	0	0	
0.229667	-0.0128213	-0.0223116	0.000374092	0.00159672	0	0	0	
0.229833	-0.00172449	-0.0279949	0.000332	0.00132086	0	0	0	
0.23	0.0157524	0.0242713	0.000303038	0.000914986	0	0	0	
0.230167	-0.0164367	0.00251994	0.0004041	0.000613105	0	0	0	
0.230333	0.036995	-0.0125207	0.000556576	0.000308494	0	0	0	
0.2305	-0.0682848	-0.038418	0.000747566	0.000349397	0	0	0	
0.230667	0.0690235	0.115704	0.00103474	0.00083488	0	0	0	
0.230833	-0.0302593	-0.110587	0.0012174	0.00151211	0	0	0	
0.231	0.00335467	0.0311472	0.0010745	0.00174841	0	0	0	
0.231167	0.000222713	0.00970858	0.000601124	0.00147922	0	0	0	
0.231333	0.00621355	0.0236812	0.000200957	0.00087574	0	0	0	
0.2315	-0.0122399	-0.0544387	0.000126878	0.000722052	0	0	0	
0.231667	0.0127204	0.000785899	0.000254483	0.000633355	0	0	0	
0.231833	-0.0154623	0.0231764	0.000395004	0.000778653	0	0	0	
0.232	0.0127343	0.0172443	0.000379182	0.00098925	0	0	0	
0.232167	-0.0151473	-0.0301206	0.000335098	0.00106695	0	0	0	
0.232333	0.00665427	0.0202782	0.00037001	0.000962203	0	0	0	
0.2325	-0.00752725	-0.0478368	0.000521162	0.000698366	0	0	0	
0.232667	0.0154636	0.0364916	0.000481868	0.000835544	0	0	0	
0.232833	-0.033801	-0.0360988	0.000472698	0.00102297	0	0	0	
0.233	0.0385499	0.0148523	0.000522337	0.000950813	0	0	0	
0.233167	-0.0249235	0.00181708	0.000688288	0.000753169	0	0	0	
0.233333	-0.00434681	0.0109656	0.000657711	0.000601782	0	0	0	
0.2335	0.0077628	-0.0138905	0.000480357	0.000496164	0	0	0	
0.233667	0.0128876	-0.0057545	0.00033695	0.000329507	0	0	0	
0.233833	-0.0150672	0.0272839	0.000309035	0.000245515	0	0	0	
0.234	0.0020705	-0.0482725	0.000317736	0.000484663	0	0	0	
0.234167	-0.000467539	0.0449978	0.000268246	0.0010033	0	0	0	
0.234333	0.00210195	-0.0078454	0.000167149	0.00123774	0	0	0	
0.2345	-0.000475787	-0.00702671	8.85737E-05	0.0010792	0	0	0	
0.234667	0.0014207	0.00926795	5.55794E-05	0.000592911	0	0	0	
0.234833	0.00165533	0.013079	4.89482E-05	0.000372017	0	0	0	
0.235	-0.00686546	-0.0869515	6.57439E-05	0.000505892	0	0	0	
0.235167	0.00727886	0.122106	0.000108013	0.00119629	0	0	0	
0.235333	0.00504598	-0.0632566	0.000135878	0.00163639	0	0	0	
0.2355	-0.0177041	0.0173025	0.000165154	0.00158668	0	0	0	
0.235667	0.0164361	0.00303038	0.000223605	0.00096489	0	0	0	
0.235833	-0.013685	0.0155445	0.000347189	0.000525978	0	0	0	
0.236	0.00825903	-0.0220913	0.000442065	0.000441748	0	0	0	
0.236167	-0.00603216	0.0273538	0.00047724	0.000613963	0	0	0	
0.236333	0.00385714	-0.0216026	0.000414684	0.00082353	0	0	0	
0.2365	-0.00611257	0.00527881	0.000314841	0.000793343	0	0	0	
0.236667	0.00841405	-0.00156741	0.000224597	0.00049995	0	0	0	
0.236833	-0.0116757	0.0404889	0.000178653	0.000329681	0	0	0	
0.237	0.018366	-0.0406621	0.000218813	0.000603628	0	0	0	
0.237167	-0.0144756	0.0110383	0.000282648	0.000783552	0	0	0	
0.237333	0.000709279	-0.0139771	0.000315048	0.000780511	0	0	0	
0.2375	-0.00344371	0.00513049	0.000295461	0.000555116	0	0	0	
0.237667	0.00680276	0.0146333	0.000241489	0.000472564	0	0	0	
0.237833	-0.00391699	-0.0258005	0.000200802	0.000438336	0	0	0	
0.238	0.00707236	0.0307611	0.000191248	0.000476598	0	0	0	
0.238167	-0.0112385	0.00561761	0.000226651	0.000678498	0	0	0	
0.238333	0.0117087	-0.0257522	0.000298977	0.00080607	0	0	0	
0.2385	-0.0144178	0.00792247	0.000359554	0.000725563	0	0	0	
0.238667	0.0124963	0.00120122	0.000359957	0.000425719	0	0	0	
0.238833	-0.00769842	-0.000735622	0.000305458	0.000244516	0	0	0	
0.239	-0.00408157	0.0165904	0.000287877	0.000207501	0	0	0	
0.239167	-0.00930156	-0.0126009	0.000336914	0.000323692	0	0	0	
0.239333	0.00967055	0.0023104	0.000368455	0.000319699	0	0	0	
0.2395	4.56642E-05	0.00285247	0.000284795	0.000297084	0	0	0	
0.239667	0.00233547	-0.0112058	0.000149531	0.00033424	0	0	0	
0.239833	-0.0112699	0.000862416	9.0273E-05	0.000397314	0	0	0	
0.24	0.0186779	0.000846739	0.000144265	0.000343633	0	0	0	
0.240167	-0.025802	-0.00468852	0.000320817	0.000188739	0	0	0	
0.240333	0.0120446	-0.0025304	0.000464777	8.29809E-05	0	0	0	
0.2405	-0.0076346	0.00256664	0.000478853	8.94125E-05	0	0	0	
0.240667	0.0229877	0.00295865	0.000419427	0.000108322	0	0	0	
0.240833	-0.0173092	-0.00634556	0.000379644	0.0001213	0	0	0	
0.241	0.015466	-0.00876649	0.000372788	0.000181279	0	0	0	
0.241167	-0.0206424	0.0258116	0.000356754	0.000240948	0	0	0	
0.241333	0.0234697	-0.0321131	0.000358219	0.00040151	0	0	0	
0.2415	-0.0139077	0.00674626	0.00039934	0.000468544	0	0	0	
0.241667	-0.00165589	-0.0044589	0.000351918	0.000425752	0	0	0	
0.241833	-0.00298488	0.0026068	0.000236364	0.000258791	0	0	0	
0.242	0.0149148	-0.00490288	0.000170329	0.000122838	0	0	0	
0.242167	-0.0187828	0.0104026	0.000239897	0.000115812	0	0	0	
0.242333	0.0433854	-0.00232238	0.000436328	0.000159467	0	0	0	
0.2425	-0.0432587	-0.0229905	0.000780541	0.000295417	0	0	0	
0.242667	0.0257648	0.0416865	0.00108932	0.000561502	0	0	0	
0.242833	-0.0282599	-0.0470552	0.00115043	0.000873169	0	0	0	
0.243	0.0419034	0.0211734	0.000952436	0.000923199	0	0	0	
0.243167	-0.092224	-0.00119845	0.000881734	0.000679879	0	0	0	
0.243333	0.0588164	0.0182876	0.0011086	0.000364289	0	0	0	
0.2435	0.0411862	-0.0398751	0.00124844	0.000437511	0	0	0	
0.243667	-0.0705934	-2.21688E-05	0.00121328	0.000582986	0	0	0	
0.243833	0.0589575	0.0396481	0.00114921	0.000770418	0	0	0	
0.244	-0.0221122	-0.0157002	0.00103508	0.000709933	0	0	0	
0.244167	-0.00862686	-0.0045389	0.00101052	0.000605704	0	0	0	
0.244333	-0.0415642	-0.00204811	0.00100096	0.000460352	0	0	0	
0.2445	0.0231113	0.0518652	0.00101723	0.000604591	0	0	0	
0.244667	0.0162081	-0.0569531	0.000829468	0.00110043	0	0	0	
0.244833	-0.0518005	-0.0345571	0.000674217	0.00122611	0	0	0	
0.245	0.0423423	0.0825155	0.000785475	0.00124963	0	0	0	
0.245167	0.0184165	-0.0328589	0.000828111	0.00102426	0	0	0	
0.245333	-0.0213389	-0.0147908	0.00081939	0.000906331	0	0	0	
0.2455	-0.03318	0.0310873	0.000792824	0.000712793	0	0	0	
0.245667	0.0281467	0.0163865	0.000936023	0.000666446	0	0	0	
0.245833	-0.0333184	-0.0388338	0.000908002	0.000933448	0	0	0	
0.246	0.0173712	0.0114411	0.000815476	0.000966957	0	0	0	
0.246167	0.00685652	0.0073854	0.000600397	0.000718995	0	0	0	
0.246333	-0.0189507	-0.00515761	0.000407124	0.000393616	0	0	0	
0.2465	0.00520463	-0.00650109	0.000349563	0.000196213	0	0	0	
0.246667	0.0129957	0.0115984	0.000306038	0.000212297	0	0	0	
0.246833	-0.0151148	-0.0155158	0.000348124	0.000329747	0	0	0	
0.247	0.0309004	0.0304691	0.000298136	0.000479013	0	0	0	
0.247167	-0.0219666	-0.0459485	0.000479027	0.000567153	0	0	0	
0.247333	-0.00240154	0.0283585	0.00045825	0.000630384	0	0	0	
0.2475	-0.0133463	-0.00218331	0.000444927	0.000549189	0	0	0	
0.247667	-0.00134715	0.000790382	0.000290969	0.000372017	0	0	0	
0.247833	0.00575396	-0.0186638	0.000260015	0.000214035	0	0	0	
0.248	0.0175855	-0.000256347	0.000200951	0.00019443	0	0	0	
0.248167	-0.0248483	0.0219368	0.000318872	0.000297179	0	0	0	
0.248333	0.00398229	-0.0145888	0.000368742	0.000380301	0	0	0	
0.2485	-0.00592027	0.00886469	0.000319506	0.000343183	0	0	0	
0.248667	0.00386919	0.00155833	0.000159906	0.000270144	0	0	0	
0.248833	-0.0090882	-0.0172309	0.000197826	0.000242143	0	0	0	
0.249	0.010414	0.0138858	0.000388697	0.000437581	0	0	0	
0.249167	0.00665528	-0.0269309	0.000508715	0.000585478	0	0	0	
0.249333	-0.0216561	0.0431229	0.000519782	0.000637822	0	0	0	
0.2495	-0.00406388	-0.0221922	0.000446425	0.000616882	0	0	0	
0.249667	0.0157929	0.00454846	0.000393499	0.000550575	0	0	0	
0.249833	-0.0282312	0.00208702	0.000383274	0.000410798	0	0	0	
0.25	0.0399922	-0.00417282	0.000496624	0.000265973	0	0	0	
0.250167	-0.0220666	-0.00979198	0.000600544	0.000276265	0	0	0	
0.250333	0.016826	0.0274824	0.00061492	0.000380514	0	0	0	
0.2505	-0.0290094	-0.0190085	0.000657241	0.000453144	0	0	0	
0.250667	0.0120354	0.0137672	0.000608459	0.000401593	0	0	0	
0.250833	-0.0192137	-0.00852989	0.000554586	0.000331093	0	0	0	
0.251	0.0333919	0.0149952	0.000431804	0.000261876	0	0	0	
0.251167	-0.0297038	0.013628	0.000506911	0.000220146	0	0	0	
0.251333	0.00395489	-0.023361	0.000488019	0.00033153	0	0	0	
0.2515	-0.00396528	0.0394221	0.000506546	0.000507587	0	0	0	
0.251667	0.00275227	-0.0198936	0.000480796	0.000680927	0	0	0	
0.251833	-0.00669775	0.012753	0.000523769	0.000607105	0	0	0	
0.252	0.0215629	-0.00876149	0.00044275	0.000422736	0	0	0	
0.252167	-0.0287915	0.0134121	0.000455516	0.000277499	0	0	0	
0.252333	0.023175	0.0124106	0.000522841	0.00031644	0	0	0	
0.2525	-0.0389065	-0.0113751	0.000600286	0.000578876	0	0	0	
0.252667	0.00213737	-0.0039095	0.000629882	0.000952616	0	0	0	
0.252833	0.055875	0.0461984	0.000834538	0.00114026	0	0	0	
0.253	0.0129703	-0.0446973	0.00116615	0.00113208	0	0	0	
0.253167	0.0105851	0.0566017	0.00119027	0.00102984	0	0	0	
0.253333	-0.0233649	-0.0323668	0.0010011	0.00113113	0	0	0	
0.2535	0.00579171	0.00357747	0.000603125	0.00111166	0	0	0	
0.253667	0.00953516	0.0368235	0.000357171	0.00101303	0	0	0	
0.253833	-0.0524981	-0.0207182	0.000384105	0.000774427	0	0	0	
0.254	0.115222	0.0355237	0.00102843	0.000680131	0	0	0	
0.254167	-0.0633598	-0.0316412	0.0015642	0.000723688	0	0	0	
0.254333	0.0658084	0.0637186	0.00175102	0.00104724	0	0	0	
0.2545	-0.0486577	-0.0707757	0.00146856	0.0015707	0	0	0	
0.254667	0.0221359	0.0498102	0.00127745	0.0018586	0	0	0	
0.254833	-0.0325133	-0.00666515	0.00121644	0.00159635	0	0	0	
0.255	0.0103866	-0.00508642	0.000877399	0.000916267	0	0	0	
0.255167	-0.0154605	0.00269667	0.000609502	0.000434175	0	0	0	
0.255333	0.0218884	-0.00580268	0.000409753	0.000219615	0	0	0	
0.2555	-0.0113979	-0.00163646	0.000398248	0.000281758	0	0	0	
0.255667	0.0129585	-0.00125037	0.000440241	0.000275206	0	0	0	
0.255833	-0.0245128	0.0135039	0.000506885	0.000321066	0	0	0	
0.256	0.0261338	-0.0160392	0.00059571	0.000315895	0	0	0	
0.256167	-0.0236363	0.0044488	0.000658863	0.000280401	0	0	0	
0.256333	0.0101999	0.0122667	0.000547139	0.000210053	0	0	0	
0.2565	-0.0148896	-0.0171655	0.000407859	0.000276507	0	0	0	
0.256667	0.0180291	0.00094649	0.000302384	0.000501498	0	0	0	
0.256833	-0.022348	0.024298	0.000335313	0.000707411	0	0	0	
0.257	0.0288045	-0.0183923	0.000438357	0.00070636	0	0	0	
0.257167	-0.0244288	0.00851721	0.000514329	0.000533798	0	0	0	
0.257333	0.0190001	0.00612426	0.000509812	0.000438809	0	0	0	
0.2575	0.00936876	-0.00411794	0.000493505	0.000497486	0	0	0	
0.257667	0.0125491	0.0134215	0.000558909	0.000679415	0	0	0	
0.257833	0.00756162	-0.00251404	0.000583643	0.000753607	0	0	0	
0.258	0.0034761	-0.0112632	0.000552225	0.000635446	0	0	0	
0.258167	-0.00765416	0.0101291	0.000388406	0.000432439	0	0	0	
0.258333	-0.0125583	0.00664338	0.000362599	0.000257339	0	0	0	
0.2585	0.0158405	-0.0129494	0.000344698	0.000239326	0	0	0	
0.258667	0.0176008	0.036614	0.000485051	0.000379247	0	0	0	
0.258833	-0.0133633	-0.0314565	0.00059678	0.000721047	0	0	0	
0.259	0.0330564	0.0227177	0.000756694	0.000919867	0	0	0	
0.259167	-0.0253887	-0.0171306	0.000756525	0.000782104	0	0	0	
0.259333	-0.000459747	0.00304495	0.000638431	0.000522857	0	0	0	
0.2595	-0.00998806	0.0196132	0.00044897	0.000361816	0	0	0	
0.259667	0.0090613	-0.028298	0.000330251	0.000421359	0	0	0	
0.259833	-0.0348832	0.0478001	0.000312228	0.000545273	0	0	0	
0.26	0.04638	-0.0419098	0.00059128	0.000675563	0	0	0	
0.260167	-0.0393675	0.0278827	0.000759177	0.000760025	0	0	0	
0.260333	0.0378339	-0.0126165	0.000943731	0.000722444	0	0	0	
0.2605	-0.0109006	0.00527093	0.000756147	0.000551302	0	0	0	
0.260667	-0.00298768	-0.0126979	0.000614763	0.000390092	0	0	0	
0.260833	-0.0079975	0.0290854	0.000585216	0.000470998	0	0	0	
0.261	0.00335368	0.00293157	0.000611333	0.000759644	0	0	0	
0.261167	-0.00381957	-0.0397158	0.000669105	0.000997438	0	0	0	
0.261333	0.0293745	0.0252577	0.000675305	0.000970969	0	0	0	
0.2615	-0.0316219	-0.0117795	0.000729493	0.000675077	0	0	0	
0.261667	0.0329072	-0.00322549	0.000733598	0.000409496	0	0	0	
0.261833	-0.042922	0.0263118	0.000724401	0.000241255	0	0	0	
0.262	0.032296	-0.0107648	0.00072778	0.000331585	0	0	0	
0.262167	-0.0242254	0.00931271	0.000695689	0.000325287	0	0	0	
0.262333	0.0228787	-0.0218602	0.000606218	0.00039713	0	0	0	
0.2625	-0.0117466	0.0112657	0.000471064	0.000367302	0	0	0	
0.262667	0.0190978	0.00112139	0.000392108	0.000421256	0	0	0	
0.262833	-0.0308456	-0.0109022	0.000382101	0.000274682	0	0	0	
0.263	0.0142681	0.0306941	0.000436369	0.000325621	0	0	0	
0.263167	0.00230746	-0.0221781	0.000544451	0.000514173	0	0	0	
0.263333	0.0011162	-0.0345668	0.000540436	0.000683544	0	0	0	
0.2635	-0.00439778	0.0528592	0.000498449	0.000770911	0	0	0	
0.263667	0.0145893	-0.0283728	0.000456092	0.000726231	0	0	0	
0.263833	-0.0115354	-0.00959155	0.000416944	0.000674798	0	0	0	
0.264	0.00490208	0.0391081	0.000383987	0.000548303	0	0	0	
0.264167	-0.0158767	-0.0444952	0.00040516	0.000606202	0	0	0	
0.264333	0.0360159	0.0214881	0.000535459	0.000668315	0	0	0	
0.2645	-0.0297795	-0.00657124	0.000692588	0.000569455	0	0	0	
0.264667	0.0189936	0.00562636	0.000683537	0.000351558	0	0	0	
0.264833	-0.0232725	-0.00237679	0.000567986	0.000189866	0	0	0	
0.265	0.0293097	0.00206207	0.000464347	0.000171473	0	0	0	
0.265167	-0.0343388	-0.0109541	0.000559217	0.000198144	0	0	0	
0.265333	0.0323291	0.000867426	0.000703319	0.000254327	0	0	0	
0.2655	-0.0187886	0.0156397	0.000758375	0.000273115	0	0	0	
0.265667	0.0175823	-0.0318116	0.000588418	0.000349706	0	0	0	
0.265833	-0.0220097	0.0182841	0.000475221	0.000437366	0	0	0	
0.266	0.0139378	-0.0107612	0.000430945	0.000461577	0	0	0	
0.266167	-0.0268355	0.031973	0.000530129	0.000416179	0	0	0	
0.266333	0.0269487	-0.0495286	0.000585944	0.000567906	0	0	0	
0.2665	-0.0164977	0.0423495	0.00054081	0.000775784	0	0	0	
0.266667	0.0178741	-0.0321797	0.000467953	0.000881291	0	0	0	
0.266833	-0.0147352	0.0159829	0.00035432	0.000783913	0	0	0	
0.267	0.0224225	0.000580794	0.000350521	0.000572127	0	0	0	
0.267167	-0.0372071	0.00142746	0.000452477	0.000360141	0	0	0	
0.267333	0.0409823	-0.00697582	0.000621678	0.000183112	0	0	0	
0.2675	-0.0450452	-0.00691381	0.000764764	0.000155601	0	0	0	
0.267667	0.0407997	-0.00728831	0.000798089	0.000202121	0	0	0	
0.267833	-0.0460826	0.0114752	0.000869055	0.000262306	0	0	0	
0.268	0.0493217	-0.00273546	0.00104142	0.000261143	0	0	0	
0.268167	-0.0355207	0.00175926	0.00117681	0.000211611	0	0	0	
0.268333	0.0229926	-0.0119115	0.00110029	0.000140859	0	0	0	
0.2685	-0.0159329	0.0197631	0.000830209	0.000231336	0	0	0	
0.268667	0.0216371	-0.0138828	0.000577472	0.000280272	0	0	0	
0.268833	-0.0290174	-0.0250973	0.000476461	0.00039657	0	0	0	
0.269	0.0233381	0.0241083	0.000450872	0.000461408	0	0	0	
0.269167	-0.0306762	-0.0145941	0.000508855	0.000492057	0	0	0	
0.269333	0.0455477	0.00996286	0.000618726	0.000408952	0	0	0	
0.2695	-0.042932	-0.0268695	0.000751161	0.000294666	0	0	0	
0.269667	0.0259225	0.0344826	0.000839708	0.000420993	0	0	0	
0.269833	0.00777362	-0.00438626	0.000820339	0.000491081	0	0	0	
0.27	-0.00514039	-0.0136502	0.000761208	0.000520246	0	0	0	
0.270167	-0.0214472	-0.00195688	0.000637084	0.000310725	0	0	0	
0.270333	0.0403561	0.0103594	0.000616804	0.00023246	0	0	0	
0.2705	-0.051188	-0.00400271	0.00071031	0.000141073	0	0	0	
0.270667	0.0508639	0.0069667	0.000855197	0.000170135	0	0	0	
0.270833	-0.0341564	0.0210061	0.000955298	0.000275378	0	0	0	
0.271	0.0147473	0.00888938	0.00100986	0.000328053	0	0	0	
0.271167	0.0051365	-0.00455866	0.000877935	0.000354699	0	0	0	
0.271333	0.00103259	0.00401899	0.000557095	0.000207826	0	0	0	
0.2715	-0.0148857	-0.0231008	0.000256668	0.000220915	0	0	0	
0.271667	0.0270652	0.0340445	0.000222654	0.000320693	0	0	0	
0.271833	-0.032812	-0.00010581	0.000388817	0.000601343	0	0	0	
0.272	0.0185148	0.00439739	0.000503991	0.000745183	0	0	0	
0.272167	-0.00405903	0.00458966	0.000428426	0.00063807	0	0	0	
0.272333	0.018295	-0.0166691	0.000316497	0.00049702	0	0	0	
0.2725	-0.022884	0.0244651	0.00027133	0.000458692	0	0	0	
0.272667	0.0250116	-0.0184652	0.000395566	0.000566947	0	0	0	
0.272833	-0.00799195	0.00714946	0.000517129	0.00049755	0	0	0	
0.273	-0.0160032	-0.00438607	0.000586603	0.000416354	0	0	0	
0.273167	0.0286392	0.0268573	0.000519621	0.000401819	0	0	0	
0.273333	-0.0184723	-0.0445958	0.000492706	0.000591024	0	0	0	
0.2735	0.0047184	0.0414466	0.000405257	0.000744303	0	0	0	
0.273667	0.0176984	-0.0147002	0.000361779	0.000764233	0	0	0	
0.273833	-0.0293887	-0.00265157	0.000371282	0.000562812	0	0	0	
0.274	0.018415	-0.00595459	0.000470202	0.00049491	0	0	0	
0.274167	0.00357711	0.035138	0.000700833	0.000459268	0	0	0	
0.274333	-0.0161146	-0.0366385	0.000724946	0.000636385	0	0	0	
0.2745	0.00632588	0.00393622	0.00057467	0.000630349	0	0	0	
0.274667	0.0144168	0.00125689	0.000314476	0.000528393	0	0	0	
0.274833	-0.0229553	0.00447673	0.000255325	0.000372014	0	0	0	
0.275	0.0245368	-0.0264786	0.000391379	0.000362387	0	0	0	
0.275167	-0.0263858	0.0380351	0.000553504	0.00055943	0	0	0	
0.275333	0.0166798	-0.0425448	0.000592686	0.00074289	0	0	0	
0.2755	-0.0100936	0.0111244	0.000539625	0.000965253	0	0	0	
0.275667	0.00787406	0.00166497	0.000466585	0.000967786	0	0	0	
0.275833	-0.011749	-0.0116528	0.000361769	0.000805771	0	0	0	
0.276	0.0245689	0.0518548	0.00035151	0.0007825	0	0	0	
0.276167	-0.0325975	-0.0539489	0.000392249	0.00111007	0	0	0	
0.276333	0.0197513	0.0219647	0.00050284	0.00133014	0	0	0	
0.2765	-0.00705297	0.00992022	0.000516316	0.00113757	0	0	0	
0.276667	0.00483557	0.00957194	0.000423271	0.000779709	0	0	0	
0.276833	-0.00506498	-0.0158518	0.000264992	0.000502021	0	0	0	
0.277	0.0112678	-0.0277034	0.000182243	0.000511212	0	0	0	
0.277167	-0.0203933	0.0837315	0.000258344	0.000650245	0	0	0	
0.277333	0.149911	-0.0290871	0.00089473	0.0012364	0	0	0	
0.2775	-0.0102188	0.0914552	0.0011926	0.00248397	0	0	0	
0.277667	-0.0081197	0.0172915	0.00110158	0.00299352	0	0	0	
0.277833	0.00392122	-0.0226816	0.000484299	0.00257708	0	0	0	
0.278	-0.00580423	-0.00514863	0.000183579	0.00123964	0	0	0	
0.278167	0.0199889	0.0161829	0.000277351	0.0005054	0	0	0	
0.278333	-0.0079686	-0.0138547	0.000271579	0.000556813	0	0	0	
0.2785	-0.011307	0.0165453	0.000305714	0.000695375	0	0	0	
0.278667	0.0235422	-0.0265834	0.000257466	0.000753458	0	0	0	
0.278833	-0.02601	0.0312406	0.000374697	0.000675773	0	0	0	
0.279	0.0270053	-0.0278035	0.000462706	0.000575215	0	0	0	
0.279167	-0.0172533	0.0226821	0.000500692	0.000540764	0	0	0	
0.279333	0.0163738	-0.0278237	0.000418198	0.000516652	0	0	0	
0.2795	-0.027899	0.0174165	0.000392761	0.000558297	0	0	0	
0.279667	0.017485	-0.0150734	0.000425222	0.000752355	0	0	0	
0.279833	-0.0121732	-0.00176114	0.000429194	0.00100175	0	0	0	
0.28	0.0190886	0.0203573	0.000364986	0.00111277	0	0	0	
0.280167	-0.0201577	-0.0319083	0.000301806	0.000986493	0	0	0	
0.280333	0.010621	0.0372786	0.000328832	0.000790435	0	0	0	
0.2805	-0.00503857	-0.0442826	0.000297785	0.000748293	0	0	0	
0.280667	0.00547788	0.0540069	0.000235665	0.000791539	0	0	0	
0.280833	-0.00551929	-0.0578005	0.000208683	0.000935878	0	0	0	
0.281	0.000687839	0.0353177	0.000222508	0.00101955	0	0	0	
0.281167	-0.00597099	-0.00357912	0.00020643	0.000917973	0	0	0	
0.281333	0.0150092	-0.0146072	0.000198961	0.000719698	0	0	0	
0.2815	-0.0177717	0.0159949	0.000216493	0.00069057	0	0	0	
0.281667	0.00991392	-0.00819137	0.000304272	0.000834073	0	0	0	
0.281833	-0.0115891	0.0104269	0.000376765	0.000879804	0	0	0	
0.282	0.0139746	-0.00338211	0.000384686	0.000750538	0	0	0	
0.282167	-0.0254328	-0.0079843	0.000386603	0.000640491	0	0	0	
0.282333	0.0264063	0.0041268	0.000408827	0.000561762	0	0	0	
0.2825	-0.0213299	-0.00126409	0.000468456	0.00047607	0	0	0	
0.282667	0.0124292	0.00343333	0.000488071	0.000401618	0	0	0	
0.282833	-0.0145694	-0.00147439	0.000450047	0.000316692	0	0	0	
0.283	0.0076841	-0.0107834	0.000369306	0.000251149	0	0	0	
0.283167	-0.0122548	0.016936	0.000306273	0.000224864	0	0	0	
0.283333	0.0148575	-0.0195488	0.000318451	0.000267864	0	0	0	
0.2835	-0.0135235	0.00764009	0.000374718	0.000307993	0	0	0	
0.283667	0.0142834	-0.00929374	0.000417416	0.000280268	0	0	0	
0.283833	-0.0144397	0.00803174	0.000382544	0.000234005	0	0	0	
0.284	0.00885242	-0.00730752	0.000326619	0.000228889	0	0	0	
0.284167	-0.016888	0.0137596	0.000289561	0.000218105	0	0	0	
0.284333	0.0319902	-0.0160693	0.000368437	0.000255966	0	0	0	
0.2845	-0.025419	-5.74007E-05	0.000486851	0.000286251	0	0	0	
0.284667	0.0200162	0.0127469	0.000551705	0.000255723	0	0	0	
0.284833	-0.0179617	-0.00945714	0.000515524	0.000241852	0	0	0	
0.285	0.0127856	0.00153458	0.000436531	0.00022183	0	0	0	
0.285167	-0.0157639	0.00214194	0.000398565	0.000273973	0	0	0	
0.285333	0.0199807	-0.00557808	0.000399707	0.000220937	0	0	0	
0.2855	-0.013008	0.00501417	0.00040759	0.000174879	0	0	0	
0.285667	0.00413306	0.000271925	0.000336659	0.000110936	0	0	0	
0.285833	-0.0155184	-0.00510421	0.000257166	0.000189687	0	0	0	
0.286	0.0363019	0.0710102	0.000283517	0.000532858	0	0	0	
0.286167	-0.0572723	-0.129508	0.000886114	0.00246848	0	0	0	
0.286333	0.0427596	-0.0314857	0.00116113	0.00357098	0	0	0	
0.2865	0.0131624	0.0357091	0.00138856	0.00354631	0	0	0	
0.286667	-0.0628119	-0.111627	0.00121155	0.00228526	0	0	0	
0.286833	0.0145133	0.195352	0.00120253	0.0020114	0	0	0	
0.287	0.00701866	-0.245417	0.00129187	0.00295252	0	0	0	
0.287167	-0.0650822	0.154853	0.00150479	0.00371286	0	0	0	
0.287333	0.00767218	-0.322191	0.00185819	0.00623751	0	0	0	
0.2875	0.00718776	0.0138328	0.00166968	0.00618202	0	0	0	
0.287667	-0.0194379	0.0947953	0.00126698	0.00544075	0	0	0	
0.287833	0.010873	-0.0933184	0.00105608	0.00260796	0	0	0	
0.288	-0.0484073	0.015273	0.00114531	0.002278	0	0	0	
0.288167	0.045078	0.0501302	0.00116323	0.00282306	0	0	0	
0.288333	-0.0442316	-0.0650561	0.000961283	0.00332163	0	0	0	
0.2885	0.011908	0.0740595	0.000863563	0.00324938	0	0	0	
0.288667	0.0235603	-0.0956708	0.000782838	0.00250453	0	0	0	
0.288833	-0.0207419	0.0798046	0.000639526	0.00189383	0	0	0	
0.289	0.0213536	-0.0596303	0.000502718	0.00154586	0	0	0	
0.289167	-0.024275	0.0434249	0.000432713	0.00137864	0	0	0	
0.289333	0.0235423	-0.0369868	0.000465156	0.00116257	0	0	0	
0.2895	-0.0224978	0.0313129	0.000474028	0.00102486	0	0	0	
0.289667	0.0290294	-0.0103543	0.000485477	0.00103136	0	0	0	
0.289833	-0.0282629	0.00319091	0.000507548	0.000996596	0	0	0	
0.29	0.0304662	-0.00702508	0.000520251	0.000781907	0	0	0	
0.290167	-0.0332132	0.0236217	0.000581995	0.000555524	0	0	0	
0.290333	0.0293411	-0.0262924	0.000629039	0.000443752	0	0	0	
0.2905	-0.0151282	-0.00246054	0.000619932	0.000430036	0	0	0	
0.290667	0.00602413	0.0109011	0.000467841	0.000492243	0	0	0	
0.290833	-0.0100033	-0.0181167	0.0002963	0.000388691	0	0	0	
0.291	0.0252032	-0.021274	0.00029193	0.00037742	0	0	0	
0.291167	-0.0299747	0.0167783	0.000445493	0.000485741	0	0	0	
0.291333	0.0198586	-0.0270579	0.000568163	0.000697901	0	0	0	
0.2915	-0.0102425	0.0321227	0.000515221	0.000767242	0	0	0	
0.291667	0.0118854	-0.0276422	0.000383032	0.000685988	0	0	0	
0.291833	-0.0188292	-0.00666804	0.000314222	0.000616434	0	0	0	
0.292	0.0274768	-0.00419528	0.000390535	0.000585501	0	0	0	
0.292167	-0.0265018	-0.0262843	0.000480795	0.000442637	0	0	0	
0.292333	0.019329	0.0116226	0.000504598	0.000426973	0	0	0	
0.2925	-0.0185645	-0.023164	0.000486504	0.000418068	0	0	0	
0.292667	0.0201027	-0.0315544	0.000479909	0.000525949	0	0	0	
0.292833	-0.0162161	0.0037558	0.000465899	0.000522317	0	0	0	
0.293	0.0205017	0.0124473	0.000426193	0.000567544	0	0	0	
0.293167	-0.0226621	0.00657735	0.000388737	0.000689274	0	0	0	
0.293333	0.0236783	-0.00826209	0.000411254	0.000762356	0	0	0	
0.2935	-0.0262451	-0.0178574	0.000490252	0.000713128	0	0	0	
0.293667	0.0248418	-0.0107443	0.000539287	0.000592813	0	0	0	
0.293833	-0.0176694	-0.0225177	0.000536472	0.000500872	0	0	0	
0.294	0.0107406	0.0124518	0.00046673	0.000563473	0	0	0	
0.294167	-0.0128231	0.0167809	0.00038294	0.000465534	0	0	0	
0.294333	0.0194648	-0.0178199	0.000348356	0.000452514	0	0	0	
0.2945	-0.0205137	0.0146705	0.000376822	0.000329044	0	0	0	
0.294667	0.0137642	-0.00796351	0.000414581	0.000366226	0	0	0	
0.294833	-0.0114214	0.00770183	0.000393662	0.000315566	0	0	0	
0.295	0.0135214	-0.00221653	0.000337551	0.000275737	0	0	0	
0.295167	-0.0138672	-0.00212691	0.000332201	0.000204435	0	0	0	
0.295333	0.0102576	-0.00944686	0.000359944	0.000195066	0	0	0	
0.2955	-0.0154415	0.0113439	0.000387337	0.000238362	0	0	0	
0.295667	0.0122118	-0.00219994	0.000365764	0.000241089	0	0	0	
0.295833	-0.00779668	-0.00378809	0.000312128	0.000183426	0	0	0	
0.296	0.0128086	0.00422299	0.000284249	0.000185676	0	0	0	
0.296167	-0.0145373	-0.00455743	0.000288426	0.000255348	0	0	0	
0.296333	0.015715	-0.00294618	0.000321967	0.00030303	0	0	0	
0.2965	-0.0207131	-0.00041827	0.000362825	0.000246805	0	0	0	
0.296667	0.016995	-0.00740675	0.000382155	0.000227239	0	0	0	
0.296833	-0.0138374	0.0133446	0.000412773	0.000254996	0	0	0	
0.297	0.011951	-0.0193044	0.000407148	0.000320773	0	0	0	
0.297167	-0.0155851	0.0183855	0.000424936	0.000322788	0	0	0	
0.297333	0.0196168	-0.0163656	0.000462747	0.000355886	0	0	0	
0.2975	-0.0192683	-0.000908109	0.000473467	0.000309426	0	0	0	
0.297667	0.0218538	0.00811979	0.000454422	0.000248262	0	0	0	
0.297833	-0.0206849	-0.00939325	0.000450804	0.00016042	0	0	0	
0.298	0.0134578	0.0105373	0.000430569	0.00016099	0	0	0	
0.298167	-0.016242	-0.0115316	0.00038439	0.000207094	0	0	0	
0.298333	0.0240571	0.00393942	0.000364805	0.000197889	0	0	0	
0.2985	-0.0189642	-0.0038982	0.000384341	0.000168098	0	0	0	
0.298667	0.0147803	0.00490967	0.000406324	0.000125921	0	0	0	
0.298833	-0.017759	-0.000105762	0.000411936	9.19207E-05	0	0	0	
0.299	0.0115291	0.00553583	0.000407295	0.000104605	0	0	0	
0.299167	-0.0111036	-0.00541269	0.000423639	0.000102767	0	0	0	
0.299333	0.0191085	-0.00341679	0.000393921	0.000172409	0	0	0	
0.2995	-0.0213403	-0.00330245	0.000404242	0.000250502	0	0	0	
0.299667	0.0175333	0.00939698	0.000380854	0.000342581	0	0	0	
0.299833	-0.0296285	-0.00701126	0.000429934	0.000395826	0	0	0	
0.3	0.0254631	0.00973395	0.000501959	0.000366812	0	0	0	
0.300167	-0.0201412	-0.000412076	0.00057109	0.000264815	0	0	0	
0.300333	0.0139632	-0.00981542	0.000504972	0.000150548	0	0	0	
0.3005	-0.0140803	0.0110826	0.00038482	0.000140648	0	0	0	
0.300667	0.0092641	-0.0071462	0.000305364	0.000190017	0	0	0	
0.300833	-0.0160228	0.00205477	0.000314076	0.000196957	0	0	0	
0.301	0.0216232	-0.00648249	0.000380412	0.000160097	0	0	0	
0.301167	-0.0127416	0.00463226	0.000413852	0.000111774	0	0	0	
0.301333	0.00745698	0.00383676	0.000392779	0.000105984	0	0	0	
0.3015	-0.0171077	-0.0108641	0.000340044	0.000130106	0	0	0	
0.301667	0.0146509	0.00739317	0.000338253	0.000157891	0	0	0	
0.301833	-0.00879347	0.000580505	0.000319246	0.000158395	0	0	0	
0.302	0.019127	-0.00720747	0.00031379	0.000133731	0	0	0	
0.302167	-0.0233135	-0.00347888	0.000329133	0.000119559	0	0	0	
0.302333	0.0148134	0.0108056	0.000367435	0.000159066	0	0	0	
0.3025	-0.0196979	-0.00254064	0.000420758	0.000172925	0	0	0	
0.302667	0.0148736	-0.00275805	0.000432328	0.000134356	0	0	0	
0.302833	-0.0161591	0.00435034	0.00043774	0.000100409	0	0	0	
0.303	0.0160585	0.00552946	0.00042165	8.82206E-05	0	0	0	
0.303167	-0.0125631	-0.0100979	0.000398031	0.000168712	0	0	0	
0.303333	0.0124577	0.00375396	0.000395915	0.000182206	0	0	0	
0.3035	-0.0193439	-0.00278071	0.000363671	0.000196724	0	0	0	
0.303667	0.019969	0.00930534	0.000391138	0.000125153	0	0	0	
0.303833	-0.0171352	-0.00187833	0.000415046	0.000128144	0	0	0	
0.304	0.00849789	-7.77515E-05	0.000409449	0.000104772	0	0	0	
0.304167	-0.0107489	0.00461687	0.000314645	0.000101853	0	0	0	
0.304333	0.0184321	-0.00335326	0.000282142	8.93217E-05	0	0	0	
0.3045	-0.0209352	0.00228775	0.000284088	6.90154E-05	0	0	0	
0.304667	0.0224299	-0.00329128	0.000392953	8.91542E-05	0	0	0	
0.304833	-0.010176	-0.0034097	0.000403655	8.49409E-05	0	0	0	
0.305	0.0142593	-0.000403201	0.00039896	0.000100085	0	0	0	
0.305167	-0.0230217	0.00871995	0.000369263	9.05875E-05	0	0	0	
0.305333	0.0229594	-0.000867337	0.000433379	9.6766E-05	0	0	0	
0.3055	-0.0183655	-0.00591171	0.000511191	8.78401E-05	0	0	0	
0.305667	0.014538	0.00968555	0.000516072	0.000101518	0	0	0	
0.305833	-0.0127187	-0.00913159	0.000439253	0.000133853	0	0	0	
0.306	0.0204485	0.00179118	0.000418235	0.00015323	0	0	0	
0.306167	-0.0164568	-0.00921779	0.000411614	0.000139655	0	0	0	
0.306333	0.0272536	0.00504302	0.000451602	0.000130708	0	0	0	
0.3065	-0.0317108	0.0230827	0.000466366	0.000243949	0	0	0	
0.306667	0.027856	-0.0431898	0.000574184	0.000416015	0	0	0	
0.306833	-0.146773	-0.0458591	0.00112161	0.000989847	0	0	0	
0.307	0.000416971	-0.039824	0.00132372	0.00190655	0	0	0	
0.307167	0.030034	-0.0388295	0.00120383	0.00215284	0	0	0	
0.307333	-0.0245543	0.0249219	0.000675689	0.00166863	0	0	0	
0.3075	0.0186053	-0.00315473	0.000440448	0.000856595	0	0	0	
0.307667	-0.0236615	-0.0361787	0.000511201	0.000728599	0	0	0	
0.307833	-0.0015714	0.00818306	0.000496283	0.000955837	0	0	0	
0.308	0.00992007	-0.022583	0.000394343	0.000923309	0	0	0	
0.308167	-0.0272692	0.0357182	0.000316602	0.00076394	0	0	0	
0.308333	0.0246397	-0.0238573	0.000346772	0.000617374	0	0	0	
0.3085	-0.0161576	0.00690519	0.000415373	0.000537298	0	0	0	
0.308667	0.0150652	0.00234507	0.000434748	0.000513497	0	0	0	
0.308833	-0.0161785	-0.00798993	0.000346921	0.000468627	0	0	0	
0.309	0.0223312	0.0171298	0.000356656	0.000436873	0	0	0	
0.309167	-0.0233092	-0.0159383	0.000361176	0.000449934	0	0	0	
0.309333	0.020212	0.00542657	0.00046297	0.000465287	0	0	0	
0.3095	-0.0176399	-0.00359955	0.000554883	0.000468141	0	0	0	
0.309667	0.0216436	-0.00501554	0.00063665	0.000382393	0	0	0	
0.309833	-0.0158213	0.0265335	0.000596063	0.000335294	0	0	0	
0.31	0.0182217	-0.0204742	0.000519849	0.000497431	0	0	0	
0.310167	-0.0192258	0.0176012	0.000415115	0.000608042	0	0	0	
0.310333	0.0140539	-0.0100506	0.000385704	0.000520811	0	0	0	
0.3105	-0.0112701	0.0125123	0.000344678	0.000384473	0	0	0	
0.310667	0.0158664	-0.00492429	0.000311129	0.000302759	0	0	0	
0.310833	-0.0190181	0.000555084	0.000326869	0.000307177	0	0	0	
0.311	0.00652421	0.00919334	0.000331023	0.000274192	0	0	0	
0.311167	0.000840641	-0.00417767	0.000259612	0.000284517	0	0	0	
0.311333	0.0160927	-0.0113444	0.000168597	0.000251054	0	0	0	
0.3115	-0.0240414	0.0165099	0.000211424	0.000248677	0	0	0	
0.311667	0.0252067	-0.00428418	0.00036757	0.000203067	0	0	0	
0.311833	-0.0224037	0.00990302	0.000485874	0.000209702	0	0	0	
0.312	0.0189536	-0.0314323	0.000466756	0.000234908	0	0	0	
0.312167	-0.0221461	0.0221119	0.000463504	0.000345356	0	0	0	
0.312333	0.0174948	0.0133885	0.000471395	0.00040879	0	0	0	
0.3125	-0.0147007	-0.0215516	0.000500529	0.000368943	0	0	0	
0.312667	0.0130352	0.00865115	0.000479395	0.000316866	0	0	0	
0.312833	-0.0121355	-0.00357403	0.000448406	0.000283394	0	0	0	
0.313	0.018996	0.00810076	0.000476782	0.000239192	0	0	0	
0.313167	-0.0128902	-0.0200943	0.000519245	0.000233536	0	0	0	
0.313333	-4.17395E-05	8.26982E-05	0.000531176	0.000250941	0	0	0	
0.3135	-0.0060882	0.0161792	0.000437258	0.000255071	0	0	0	
0.313667	-0.00844531	-0.0108707	0.000300201	0.000232883	0	0	0	
0.313833	0.00621498	0.000689086	0.000220076	0.000209645	0	0	0	
0.314	0.00332086	0.00238264	0.000187	0.000175236	0	0	0	
0.314167	-0.00552542	0.0206575	0.000193084	0.000201763	0	0	0	
0.314333	0.0164742	-0.0278165	0.000261152	0.000325979	0	0	0	
0.3145	-0.0178456	0.0233996	0.000397744	0.00047284	0	0	0	
0.314667	0.00700152	-0.0231051	0.000460105	0.00050655	0	0	0	
0.314833	-0.00976106	0.0145424	0.000408746	0.000453962	0	0	0	
0.315	0.00903602	-0.00273775	0.000310417	0.000372563	0	0	0	
0.315167	-0.00792212	-0.00115832	0.000256705	0.000246605	0	0	0	
0.315333	0.0121543	-0.00297532	0.000228346	0.000236381	0	0	0	
0.3155	-0.0188598	0.0132459	0.000236298	0.000325686	0	0	0	
0.315667	0.0183695	-0.0183739	0.000301808	0.000416514	0	0	0	
0.315833	-0.0149422	0.0162659	0.000386282	0.000404338	0	0	0	
0.316	0.0107444	-0.000801452	0.000396438	0.000297689	0	0	0	
0.316167	-0.0138143	0.00851642	0.000359346	0.000266125	0	0	0	
0.316333	0.0140773	-0.0543368	0.000326916	0.000341842	0	0	0	
0.3165	-0.022923	0.0649516	0.000390884	0.000666307	0	0	0	
0.316667	0.0239428	-0.0283775	0.000494981	0.000890476	0	0	0	
0.316833	-0.00850653	0.00907413	0.000534123	0.000931527	0	0	0	
0.317	-0.000456816	-0.000363157	0.000479017	0.000704732	0	0	0	
0.317167	-0.00936104	-0.00932663	0.000330087	0.000496149	0	0	0	
0.317333	0.0238981	0.00574062	0.000299149	0.000302374	0	0	0	
0.3175	-0.0264377	-0.0108149	0.000331963	0.000263687	0	0	0	
0.317667	0.0271593	0.0139923	0.000454626	0.000373304	0	0	0	
0.317833	-0.0175487	0.00461529	0.000517057	0.000468331	0	0	0	
0.318	0.026728	-0.00878852	0.000589111	0.000411294	0	0	0	
0.318167	-0.0162795	0.00346828	0.000587661	0.000267437	0	0	0	
0.318333	0.011025	-0.0163403	0.000480071	0.00019271	0	0	0	
0.3185	-0.012255	0.0195248	0.000325762	0.000230197	0	0	0	
0.318667	0.0224643	-0.0171989	0.000289738	0.000393745	0	0	0	
0.318833	-0.0176028	-0.0278642	0.000407578	0.000504745	0	0	0	
0.319	-0.00171985	0.0228603	0.000510605	0.000556121	0	0	0	
0.319167	0.0199777	0.0030958	0.000494577	0.000471213	0	0	0	
0.319333	-0.00972583	-0.0200431	0.000443439	0.000381223	0	0	0	
0.3195	0.000811535	0.0138734	0.000347835	0.000344984	0	0	0	
0.319667	0.0164877	-0.00399168	0.000321212	0.000517464	0	0	0	
0.319833	-0.0271554	-0.0446343	0.000347341	0.000845259	0	0	0	
0.32	0.0323303	0.0616625	0.000494356	0.00111766	0	0	0	
0.320167	-0.0210671	-0.0339726	0.00060845	0.00106454	0	0	0	
0.320333	0.00843967	0.00134377	0.00057539	0.000949171	0	0	0	
0.3205	0.00314243	0.0130174	0.000449676	0.000773334	0	0	0	
0.320667	0.00827506	-0.0136227	0.000348985	0.000572358	0	0	0	
0.320833	-0.0231862	0.00541142	0.000379292	0.000398977	0	0	0	
0.321	0.0251489	-0.000556214	0.000482581	0.000303631	0	0	0	
0.321167	-0.00411022	-0.0119903	0.000490019	0.000284266	0	0	0	
0.321333	-0.00953582	0.0234632	0.000375595	0.000321563	0	0	0	
0.3215	0.00728549	-0.00478722	0.000307034	0.000331183	0	0	0	
0.321667	0.00753038	-0.00460159	0.000341344	0.000312578	0	0	0	
0.321833	-0.0165561	0.00172762	0.000434724	0.000272701	0	0	0	
0.322	0.0176014	0.0108333	0.000434852	0.000298916	0	0	0	
0.322167	-0.0166646	-0.0116038	0.00038855	0.000399656	0	0	0	
0.322333	0.0194044	0.0139357	0.000359949	0.000331178	0	0	0	
0.3225	-0.0140042	-0.00130501	0.000357339	0.00025183	0	0	0	
0.322667	0.00677039	-0.00199229	0.000359542	0.000177211	0	0	0	
0.322833	-0.00825447	-0.00102268	0.00030188	0.000153959	0	0	0	
0.323	0.0190344	0.00919904	0.000255887	0.000150971	0	0	0	
0.323167	-0.0230798	0.0011851	0.000284126	0.000164614	0	0	0	
0.323333	0.0121414	0.00719364	0.000356704	0.000210173	0	0	0	
0.3235	-0.00443588	-0.00795047	0.000387538	0.000247013	0	0	0	
0.323667	0.00822091	0.00800484	0.000371364	0.000256054	0	0	0	
0.323833	-0.00970179	-0.00610461	0.000375167	0.000234818	0	0	0	
0.324	0.00820085	-0.00117108	0.000396498	0.000164968	0	0	0	
0.324167	-0.00953317	0.0146496	0.000366967	0.000163373	0	0	0	
0.324333	0.0145912	-0.00281512	0.000299979	0.000200099	0	0	0	
0.3245	-0.0226324	0.00132	0.000297063	0.000209791	0	0	0	
0.324667	0.0123237	0.00303061	0.000319992	0.000200801	0	0	0	
