0	-0.00266476	0.000838921	2.66476E-07	8.38921E-08	0	0	0	
0.000166667	-0.00918645	0.00462108	0.000119578	4.26745E-05	0	0	0	
0.000333333	0.0207515	-0.00752233	0.000249094	8.05025E-05	0	0	0	
0.0005	-0.014425	0.000263294	0.000352235	0.000134711	0	0	0	
0.000666667	-0.00629171	0.00810288	0.000398382	0.000154088	0	0	0	
0.000833333	0.0174903	-0.00391011	0.000376565	0.000153629	0	0	0	
0.001	-0.00947016	-0.00417853	0.000359816	0.000153602	0	0	0	
0.00116667	-0.00112776	0.00216255	0.000312638	0.000108867	0	0	0	
0.00133333	0.00408111	0.00211377	0.000284766	8.32826E-05	0	0	0	
0.0015	-0.0045755	0.00193216	0.000241554	5.92302E-05	0	0	0	
0.00166667	0.00630531	-0.00399118	0.000153662	6.0213E-05	0	0	0	
0.00183333	-0.000491554	-0.00165775	0.00011824	8.70672E-05	0	0	0	
0.002	-0.00541588	0.00403847	0.000125001	7.87992E-05	0	0	0	
0.00216667	0.00485319	0.00124102	0.000122933	9.31172E-05	0	0	0	
0.00233333	0.00325717	-0.00452851	0.000115073	7.61591E-05	0	0	0	
0.0025	-0.00538592	-2.46543E-06	9.6567E-05	7.994E-05	0	0	0	
0.00266667	-0.000683527	0.00293501	0.000113486	6.67103E-05	0	0	0	
0.00283333	0.00664194	-0.000127753	0.000129096	5.90637E-05	0	0	0	
0.003	-0.00516546	-0.00136163	0.000132961	4.22386E-05	0	0	0	
0.00316667	-0.0015153	-0.000318865	0.000116551	3.61022E-05	0	0	0	
0.00333333	0.00326623	0.000471528	8.02115E-05	2.85228E-05	0	0	0	
0.0035	0.000857524	0.000353982	8.84212E-05	2.53458E-05	0	0	0	
0.00366667	-0.0054223	0.00104087	9.84787E-05	1.53487E-05	0	0	0	
0.00383333	0.00494803	-0.00137114	0.00011282	1.6288E-05	0	0	0	
0.004	0.00151541	-0.000883349	9.39652E-05	2.52733E-05	0	0	0	
0.00416667	-0.0044879	0.00221679	7.44632E-05	3.07948E-05	0	0	0	
0.00433333	0.00376691	0.000936071	7.72856E-05	4.26729E-05	0	0	0	
0.0045	0.00513636	-0.00238255	0.000101563	3.83311E-05	0	0	0	
0.00466667	-0.00793293	-0.00102893	0.000125523	5.20596E-05	0	0	0	
0.00483333	-0.000302591	0.0037146	0.000171115	4.69625E-05	0	0	0	
0.005	0.0202724	-1.36163E-05	0.000264426	6.89771E-05	0	0	0	
0.00516667	-0.0176978	-0.00366103	0.000332681	8.08914E-05	0	0	0	
0.00533333	-0.0081028	0.00173938	0.000460458	8.33752E-05	0	0	0	
0.0055	0.0260824	0.00228191	0.000504901	8.3447E-05	0	0	0	
0.00566667	-0.0146297	-0.00280523	0.000536268	6.52717E-05	0	0	0	
0.00583333	-0.0101431	0.00394606	0.000552761	6.9335E-05	0	0	0	
0.006	0.0115998	-0.0046179	0.000437861	6.67017E-05	0	0	0	
0.00616667	0.00557281	-0.00104782	0.000364944	0.000103054	0	0	0	
0.00633333	-0.00397414	0.00805705	0.000175867	0.00013184	0	0	0	
0.0065	-0.00796264	-0.00427764	0.000132378	0.000147922	0	0	0	
0.00666667	-0.000869956	-0.0056737	9.63298E-05	0.000168562	0	0	0	
0.00683333	0.0100618	0.00573347	0.000101979	0.000149793	0	0	0	
0.007	0.000239734	0.00113935	0.000122446	0.000149404	0	0	0	
0.00716667	-0.00994942	-0.000535798	0.000116565	8.04239E-05	0	0	0	
0.00733333	0.00290779	-0.00334791	0.000175761	6.54974E-05	0	0	0	
0.0075	0.014346	-0.00123493	0.000225107	5.37471E-05	0	0	0	
0.00766667	-0.00994114	0.00568453	0.000272237	8.15496E-05	0	0	0	
0.00783333	-0.00687825	9.85155E-06	0.000290513	0.000100552	0	0	0	
0.008	0.0156424	-0.00520385	0.000263508	9.8323E-05	0	0	0	
0.00816667	-0.00643997	0.000436689	0.000271843	0.000103587	0	0	0	
0.00833333	-0.0047205	0.00495636	0.000254924	0.000108503	0	0	0	
0.0085	0.00904692	-0.000825639	0.000220714	9.98838E-05	0	0	0	
0.00866667	-0.000302771	-0.00358507	0.000198413	9.33984E-05	0	0	0	
0.00883333	-0.00791588	0.000609932	0.000149932	6.90687E-05	0	0	0	
0.009	0.00460751	0.0021931	0.000153086	6.71425E-05	0	0	0	
0.00916667	0.00319503	-0.000241332	0.000152094	4.65429E-05	0	0	0	
0.00933333	-0.00393348	-0.00152874	0.000125799	4.29535E-05	0	0	0	
0.0095	0.000327822	0.000387138	0.000113144	2.86043E-05	0	0	0	
0.00966667	0.00184307	0.000440484	6.51749E-05	2.04632E-05	0	0	0	
0.00983333	0.000404972	0.000563879	6.58494E-05	1.55106E-05	0	0	0	
0.01	-0.00215922	-0.00034909	7.3342E-05	1.31435E-05	0	0	0	
0.0101667	0.00294777	-0.000764836	7.8053E-05	1.646E-05	0	0	0	
0.0103333	-0.00136076	-7.19232E-05	6.81405E-05	1.78948E-05	0	0	0	
0.0105	-0.000729466	0.00161659	5.40928E-05	2.49889E-05	0	0	0	
0.0106667	0.00155736	-0.000879607	4.28372E-05	2.652E-05	0	0	0	
0.0108333	-0.00273326	-0.000170448	5.08576E-05	2.35007E-05	0	0	0	
0.011	0.000621777	-0.000174637	5.77052E-05	1.44783E-05	0	0	0	
0.0111667	0.00199248	0.000812005	7.81393E-05	1.28518E-05	0	0	0	
0.0113333	-0.00312718	-0.000466144	7.34792E-05	1.21959E-05	0	0	0	
0.0115	0.00128483	-0.000657749	5.76451E-05	1.63039E-05	0	0	0	
0.0116667	0.00104218	0.000329939	4.48251E-05	1.51342E-05	0	0	0	
0.0118333	-0.00276711	0.000944339	3.8423E-05	2.02978E-05	0	0	0	
0.012	-3.10847E-05	-0.000537922	3.78061E-05	1.75386E-05	0	0	0	
0.0121667	0.00199008	-8.85042E-05	3.44051E-05	2.11901E-05	0	0	0	
0.0123333	-0.000221488	9.49092E-05	3.37209E-05	1.35407E-05	0	0	0	
0.0125	-0.000536554	0.000562567	2.77556E-05	1.32191E-05	0	0	0	
0.0126667	-0.00122879	-0.000528157	2.62276E-05	9.3208E-06	0	0	0	
0.0128333	0.00204823	-0.000341419	2.70029E-05	1.30975E-05	0	0	0	
0.013	-0.0014126	-6.83402E-05	3.45935E-05	1.06116E-05	0	0	0	
0.0131667	0.00270744	0.000629869	4.1459E-05	9.96783E-06	0	0	0	
0.0133333	-0.0009749	-0.000386251	5.362E-05	7.58576E-06	0	0	0	
0.0135	0.00150703	-0.000265874	5.76461E-05	8.28354E-06	0	0	0	
0.0136667	-0.00289164	-7.76027E-06	5.81953E-05	7.90895E-06	0	0	0	
0.0138333	0.00193707	0.000404934	4.92424E-05	7.08927E-06	0	0	0	
0.014	-0.000591942	-0.000214168	4.56808E-05	7.80981E-06	0	0	0	
0.0141667	0.000666851	-0.000323107	4.31481E-05	8.13234E-06	0	0	0	
0.0143333	-0.000467682	0.000200674	4.70935E-05	7.68855E-06	0	0	0	
0.0145	-0.0012001	0.000338289	5.60579E-05	9.36817E-06	0	0	0	
0.0146667	-0.00115939	0.000324004	5.86946E-05	9.10397E-06	0	0	0	
0.0148333	0.00196687	-0.000402763	5.04551E-05	1.05594E-05	0	0	0	
0.015	-0.000986658	0.000636128	3.9613E-05	1.02266E-05	0	0	0	
0.0151667	-0.00275951	5.03441E-05	3.23053E-05	9.34692E-06	0	0	0	
0.0153333	0.00260985	-0.000293095	4.01871E-05	8.88945E-06	0	0	0	
0.0155	-0.00127903	0.000113279	4.59014E-05	6.82208E-06	0	0	0	
0.0156667	0.000969566	0.000935227	5.75763E-05	7.83713E-06	0	0	0	
0.0158333	-0.00171398	-0.00116619	5.10574E-05	1.18585E-05	0	0	0	
0.016	0.00145075	0.000167503	4.78834E-05	1.67095E-05	0	0	0	
0.0161667	-0.00169715	0.000426873	4.5267E-05	1.60806E-05	0	0	0	
0.0163333	0.000283736	0.000157368	4.10623E-05	1.33004E-05	0	0	0	
0.0165	0.0015777	-0.000635362	3.48175E-05	9.09589E-06	0	0	0	
0.0166667	0.000308622	0.000120005	2.1481E-05	1.11421E-05	0	0	0	
0.0168333	-0.00112689	0.000395579	1.89981E-05	1.05525E-05	0	0	0	
0.017	0.00308167	0.000274091	2.88983E-05	9.96339E-06	0	0	0	
0.0171667	-0.00317434	-0.000266259	4.52998E-05	7.36058E-06	0	0	0	
0.0173333	0.00124019	-0.000173825	5.1136E-05	6.81123E-06	0	0	0	
0.0175	0.00029686	0.000446369	5.15932E-05	7.4393E-06	0	0	0	
0.0176667	-0.00234534	0.000334814	4.62391E-05	1.0204E-05	0	0	0	
0.0178333	0.00295393	-0.000806272	5.31649E-05	1.15929E-05	0	0	0	
0.018	-0.00062434	0.000263224	4.90602E-05	1.52941E-05	0	0	0	
0.0181667	-0.000275072	0.000663099	3.45909E-05	1.86723E-05	0	0	0	
0.0183333	0.000225208	-0.000196388	1.8214E-05	1.63527E-05	0	0	0	
0.0185	-0.000495151	-0.000656811	6.7291E-06	1.25469E-05	0	0	0	
0.0186667	0.00158348	0.000351992	1.57919E-05	1.02288E-05	0	0	0	
0.0188333	0.000933843	0.000597602	1.92941E-05	1.30239E-05	0	0	0	
0.019	5.94596E-05	-0.000305901	3.33735E-05	1.36319E-05	0	0	0	
0.0191667	-0.00027625	-0.000262617	4.52803E-05	1.18508E-05	0	0	0	
0.0193333	0.000806104	0.000121316	5.21052E-05	7.31135E-06	0	0	0	
0.0195	0.00284771	-0.0004047	4.60131E-05	7.26336E-06	0	0	0	
0.0196667	-0.00907905	0.000891627	6.30226E-05	8.23549E-06	0	0	0	
0.0198333	0.0383817	0.000503108	0.000209751	1.6962E-05	0	0	0	
0.02	-0.00496666	0.00038697	0.000369403	3.37264E-05	0	0	0	
0.0201667	-0.0142421	0.000653227	0.000409018	3.80238E-05	0	0	0	
0.0203333	0.00190991	-0.000990657	0.000356185	4.01699E-05	0	0	0	
0.0205	0.00677785	-0.000285511	0.000242803	3.13419E-05	0	0	0	
0.0206667	0.00318325	0.00117351	0.000265652	2.5724E-05	0	0	0	
0.0208333	0.0151594	-0.000284618	0.000242697	2.26887E-05	0	0	0	
0.021	-0.0102073	0.000423938	0.00037187	2.06164E-05	0	0	0	
0.0211667	-0.00502599	-0.00177959	0.000348609	3.12296E-05	0	0	0	
0.0213333	-0.00262165	-0.000932623	0.000313899	3.0637E-05	0	0	0	
0.0215	0.0106385	0.00270529	0.000204316	3.3174E-05	0	0	0	
0.0216667	0.00423446	-0.00039385	0.00017589	3.55364E-05	0	0	0	
0.0218333	-0.0119437	-0.0050481	0.00020525	5.80865E-05	0	0	0	
0.022	-0.00101328	0.00363389	0.000158699	7.35908E-05	0	0	0	
0.0221667	0.021355	0.00646956	0.000252752	0.000132969	0	0	0	
0.0223333	-0.0195328	-0.0110806	0.000296691	0.000162305	0	0	0	
0.0225	-0.00862153	0.00134256	0.000471274	0.000195934	0	0	0	
0.0226667	0.0254099	0.00767757	0.000490123	0.000179455	0	0	0	
0.0228333	-0.000664907	-0.00276003	0.000555404	0.000156585	0	0	0	
0.023	-0.0260003	-0.00210694	0.000590403	0.00013887	0	0	0	
0.0231667	0.0130718	-0.00201431	0.000537145	8.8114E-05	0	0	0	
0.0233333	0.00847375	0.00127458	0.000513656	7.95219E-05	0	0	0	
0.0235	-0.00294825	0.00908112	0.000321855	0.000121011	0	0	0	
0.0236667	-0.00884842	-0.00867973	0.000311372	0.000160325	0	0	0	
0.0238333	-0.00255901	-0.00581164	0.000193266	0.000231472	0	0	0	
0.024	0.0100402	0.0115043	0.000180058	0.000203547	0	0	0	
0.0241667	0.00202377	0.000235589	0.00021065	0.000236993	0	0	0	
0.0243333	-0.0141223	-0.00908339	0.000276237	0.000204503	0	0	0	
0.0245	0.00448575	0.00334129	0.000312934	0.000188232	0	0	0	
0.0246667	0.0119847	0.0032513	0.000294888	0.000153534	0	0	0	
0.0248333	-0.0107774	-0.00152938	0.000243611	0.000101871	0	0	0	
0.025	-0.00485751	-0.00318995	0.000287256	9.54045E-05	0	0	0	
0.0251667	0.0119979	0.00217134	0.00023794	6.31755E-05	0	0	0	
0.0253333	0.000564573	0.000363164	0.000231598	6.40454E-05	0	0	0	
0.0255	-0.00935673	0.000355515	0.000172286	3.83469E-05	0	0	0	
0.0256667	0.0025917	-0.00285755	0.000145327	3.91449E-05	0	0	0	
0.0258333	0.00754066	0.00103852	0.000162833	3.86146E-05	0	0	0	
0.026	-0.00604594	0.00229669	0.000154772	5.27056E-05	0	0	0	
0.0261667	-1.95466E-05	-0.00108325	0.000163244	4.80317E-05	0	0	0	
0.0263333	0.00395282	-0.00243502	0.000131754	5.66583E-05	0	0	0	
0.0265	-0.00291666	0.00258771	0.000108946	4.8935E-05	0	0	0	
0.0266667	-0.00235582	0.000885788	0.00011043	6.13859E-05	0	0	0	
0.0268333	0.00239626	-0.0017842	9.7138E-05	4.7905E-05	0	0	0	
0.027	-0.000865855	-0.000747949	8.46732E-05	4.72859E-05	0	0	0	
0.0271667	-0.00228113	0.00190174	4.88621E-05	3.35926E-05	0	0	0	
0.0273333	-0.000867869	0.000311773	2.98038E-05	3.44618E-05	0	0	0	
0.0275	0.00323273	-0.0013706	4.20703E-05	2.84994E-05	0	0	0	
0.0276667	-0.0028295	-0.000407735	5.98294E-05	2.87892E-05	0	0	0	
0.0278333	0.00243265	0.00138508	6.88237E-05	2.25304E-05	0	0	0	
0.028	0.0019116	-0.000180291	8.27211E-05	2.7575E-05	0	0	0	
0.0281667	-0.0096181	-0.00275237	8.73833E-05	3.58167E-05	0	0	0	
0.0283333	0.00623786	0.00444647	0.000142545	5.25145E-05	0	0	0	
0.0285	0.0110039	-0.00170526	0.000263644	6.76887E-05	0	0	0	
0.0286667	-0.017111	-0.00283936	0.000332327	8.29571E-05	0	0	0	
0.0288333	0.000909184	0.00220084	0.000423783	7.48107E-05	0	0	0	
0.029	0.0240586	0.00211806	0.000442809	7.74072E-05	0	0	0	
0.0291667	-0.0140089	-0.00201655	0.000482045	5.51468E-05	0	0	0	
0.0293333	-0.013592	3.34968E-05	0.000548824	5.78717E-05	0	0	0	
0.0295	0.0119316	-0.00145847	0.000445683	3.37902E-05	0	0	0	
0.0296667	0.00915212	0.00186565	0.000404244	3.47574E-05	0	0	0	
0.0298333	0.00055641	0.00432833	0.000199723	6.05112E-05	0	0	0	
0.03	-0.0116925	-0.00500772	0.000191426	7.94678E-05	0	0	0	
0.0301667	-0.00310923	-0.00370747	0.000143045	0.000128893	0	0	0	
0.0303333	0.0137795	0.00749741	0.000184302	0.00012093	0	0	0	
0.0305	-0.000585462	0.000765513	0.000195258	0.000153764	0	0	0	
0.0306667	-0.0121099	-0.00592754	0.000245125	0.000133749	0	0	0	
0.0308333	0.00524735	0.000106321	0.000227965	0.000127567	0	0	0	
0.031	0.00976577	0.00365457	0.000232686	9.32367E-05	0	0	0	
0.0311667	-0.0100221	0.000543153	0.000193873	7.43706E-05	0	0	0	
0.0313333	-0.00489037	-0.00248389	0.000251948	6.07735E-05	0	0	0	
0.0315	0.00858689	-0.000745109	0.000257418	5.36037E-05	0	0	0	
0.0316667	0.000725863	0.00124119	0.0002173	3.63671E-05	0	0	0	
0.0318333	-0.00864447	0.00220083	0.000160608	4.70101E-05	0	0	0	
0.032	0.00350617	-0.0026654	0.000110413	4.25046E-05	0	0	0	
0.0321667	0.00493038	-0.00123205	0.000131778	6.43144E-05	0	0	0	
0.0323333	-0.00683038	0.00242606	0.000119864	4.96783E-05	0	0	0	
0.0325	-0.00495575	0.00136744	0.00010896	6.27791E-05	0	0	0	
0.0326667	0.0142336	-0.00268092	0.000133405	5.33056E-05	0	0	0	
0.0328333	-0.00879338	0.000204154	0.000172093	5.85783E-05	0	0	0	
0.033	-0.00379763	0.00192937	0.000174298	4.99539E-05	0	0	0	
0.0331667	0.00826358	-0.000816656	0.000156679	4.17601E-05	0	0	0	
0.0333333	-0.0024734	-0.00130735	0.000110623	4.17605E-05	0	0	0	
0.0335	-0.00335886	0.00116858	0.000101825	3.33801E-05	0	0	0	
0.0336667	0.0055425	0.000664361	8.34411E-05	3.16909E-05	0	0	0	
0.0338333	-0.00156171	-0.0010514	7.72559E-05	2.15828E-05	0	0	0	
0.034	-0.00297112	-0.000155074	7.13374E-05	1.8388E-05	0	0	0	
0.0341667	0.0045687	0.000210367	6.68639E-05	1.41686E-05	0	0	0	
0.0343333	-0.00119213	0.000283076	5.89356E-05	9.22059E-06	0	0	0	
0.0345	-0.000617782	2.48475E-05	5.3205E-05	8.22988E-06	0	0	0	
0.0346667	0.00061655	-0.000499504	3.18049E-05	1.15295E-05	0	0	0	
0.0348333	0.000120181	0.000462485	1.78606E-05	1.27047E-05	0	0	0	
0.035	0.00104597	0.000347886	1.58088E-05	1.43667E-05	0	0	0	
0.0351667	-0.00121849	-0.000447375	2.7084E-05	1.03331E-05	0	0	0	
0.0353333	-0.00105817	0.000312887	4.27846E-05	1.06966E-05	0	0	0	
0.0355	0.000843021	-0.000564825	4.71492E-05	9.69392E-06	0	0	0	
0.0356667	-0.000357824	0.000667491	3.58144E-05	1.15151E-05	0	0	0	
0.0358333	-0.00053587	-0.000120448	1.98336E-05	1.23318E-05	0	0	0	
0.036	0.000787009	-5.55639E-05	1.39335E-05	8.62438E-06	0	0	0	
0.0361667	-0.00140605	-0.000353103	1.61615E-05	8.99056E-06	0	0	0	
0.0363333	0.0010347	0.000405697	2.63484E-05	8.86522E-06	0	0	0	
0.0365	9.64273E-05	0.00024005	3.20464E-05	1.03201E-05	0	0	0	
0.0366667	-0.000293623	-0.000493608	2.88233E-05	8.38658E-06	0	0	0	
0.0368333	0.000698134	0.000183639	2.20382E-05	7.23481E-06	0	0	0	
0.037	-0.000108178	-6.24783E-05	2.19588E-05	5.99235E-06	0	0	0	
0.0371667	-0.00156014	0.000225986	3.28203E-05	5.04166E-06	0	0	0	
0.0373333	0.00162898	-0.000465605	4.40019E-05	4.88171E-06	0	0	0	
0.0375	0.000497612	-0.00010839	4.44262E-05	7.3617E-06	0	0	0	
0.0376667	-0.0011983	0.000626552	3.67913E-05	8.02492E-06	0	0	0	
0.0378333	-6.93051E-05	-0.000389342	2.73247E-05	1.0619E-05	0	0	0	
0.038	0.00231866	-0.000129515	2.33969E-05	1.19988E-05	0	0	0	
0.0381667	-0.00172439	5.00264E-05	3.41238E-05	1.00692E-05	0	0	0	
0.0383333	0.000111217	0.000447151	4.36007E-05	7.67994E-06	0	0	0	
0.0385	0.00240835	0.000138886	5.09818E-05	6.58298E-06	0	0	0	
0.0386667	-0.00311622	-0.000482714	5.1281E-05	1.25335E-05	0	0	0	
0.0388333	0.00130786	0.000405639	4.729E-05	1.27257E-05	0	0	0	
0.039	0.00111921	-6.15105E-05	3.84953E-05	1.23825E-05	0	0	0	
0.0391667	-0.000477223	0.000219824	3.05558E-05	7.1319E-06	0	0	0	
0.0393333	-0.000263555	-0.000293752	2.44276E-05	6.70502E-06	0	0	0	
0.0395	0.00164822	0.000123498	2.46978E-05	7.15069E-06	0	0	0	
0.0396667	-2.06733E-05	0.000891879	2.36292E-05	9.88735E-06	0	0	0	
0.0398333	-4.11419E-06	-9.90485E-05	2.81297E-05	1.21169E-05	0	0	0	
0.04	0.000389768	-0.000745671	4.67783E-05	1.49336E-05	0	0	0	
0.0401667	-0.000550603	0.000524207	5.58412E-05	1.49287E-05	0	0	0	
0.0403333	-0.000949311	0.00031333	4.64781E-05	1.30049E-05	0	0	0	
0.0405	0.00145084	0.000568257	3.1287E-05	1.02108E-05	0	0	0	
0.0406667	-0.00322452	-0.00103532	2.74378E-05	1.23245E-05	0	0	0	
0.0408333	0.00235054	0.000190179	4.2519E-05	1.61371E-05	0	0	0	
0.041	0.0010091	0.00053601	4.17893E-05	1.64354E-05	0	0	0	
0.0411667	-0.00245123	0.000248957	3.79036E-05	1.60058E-05	0	0	0	
0.0413333	0.000883923	-0.00069428	2.82783E-05	1.52551E-05	0	0	0	
0.0415	0.000850573	0.000228319	2.53199E-05	1.50305E-05	0	0	0	
0.0416667	-0.000408428	-1.37464E-05	2.32762E-05	1.09106E-05	0	0	0	
0.0418333	0.000932826	0.000853867	2.4874E-05	1.27763E-05	0	0	0	
0.042	-0.00192782	-0.00143668	3.34388E-05	1.59564E-05	0	0	0	
0.0421667	0.0026092	0.000258348	3.48952E-05	2.18839E-05	0	0	0	
0.0423333	-0.00139802	0.00101365	4.2749E-05	2.26038E-05	0	0	0	
0.0425	-0.00123065	-0.000315339	4.63234E-05	1.92296E-05	0	0	0	
0.0426667	0.0014186	-0.000220511	4.04927E-05	1.47059E-05	0	0	0	
0.0428333	-0.000878261	-0.000254308	3.96572E-05	1.03785E-05	0	0	0	
0.043	-0.000597818	0.000487371	3.29334E-05	7.88801E-06	0	0	0	
0.0431667	0.000747606	0.000558349	3.46131E-05	1.32543E-05	0	0	0	
0.0433333	-0.00120169	-0.000974939	2.31688E-05	1.59109E-05	0	0	0	
0.0435	0.00103869	6.94349E-05	2.34711E-05	2.1955E-05	0	0	0	
0.0436667	5.62649E-05	0.000456503	3.22187E-05	1.93775E-05	0	0	0	
0.0438333	-0.00176858	0.000520253	3.27568E-05	1.68009E-05	0	0	0	
0.044	1.15229E-05	-0.00109205	4.03267E-05	1.43794E-05	0	0	0	
0.0441667	0.000777731	-0.000365835	4.50762E-05	1.65102E-05	0	0	0	
0.0443333	-0.0014709	0.000701697	4.42287E-05	1.75895E-05	0	0	0	
0.0445	0.00135404	-0.000187881	4.02744E-05	1.76708E-05	0	0	0	
0.0446667	-0.00134097	0.000119173	3.71919E-05	1.25252E-05	0	0	0	
0.0448333	0.000488515	-0.00050198	4.78835E-05	9.16033E-06	0	0	0	
0.045	1.99417E-05	-9.64439E-05	4.60132E-05	8.01801E-06	0	0	0	
0.0451667	-0.00168632	0.000751071	3.96151E-05	7.44621E-06	0	0	0	
0.0453333	0.00321033	0.000274337	4.61577E-05	1.51279E-05	0	0	0	
0.0455	-0.000621939	-0.00120482	4.97834E-05	1.57846E-05	0	0	0	
0.0456667	-0.007528	-0.00122087	0.000104685	3.0921E-05	0	0	0	
0.0458333	0.00778406	0.0035202	0.000126757	3.96588E-05	0	0	0	
0.046	0.00947911	-0.00118629	0.000221403	5.54717E-05	0	0	0	
0.0461667	-0.0213191	-0.00286775	0.000305807	7.02877E-05	0	0	0	
0.0463333	0.0106353	0.00293682	0.000344474	7.60218E-05	0	0	0	
0.0465	0.0108423	-0.00238301	0.000366467	7.09909E-05	0	0	0	
0.0466667	-0.0160611	0.001919	0.000300611	5.18323E-05	0	0	0	
0.0468333	0.00223498	0.00126283	0.000308522	6.08573E-05	0	0	0	
0.047	0.0113111	-0.00514618	0.000271513	7.90439E-05	0	0	0	
0.0471667	-0.00730995	0.00212816	0.000256801	8.95371E-05	0	0	0	
0.0473333	-0.00143497	0.00339669	0.000183068	0.000102689	0	0	0	
0.0475	0.00584714	-0.00256702	0.000117191	8.66631E-05	0	0	0	
0.0476667	-0.00865757	-0.00189918	9.49123E-05	8.74689E-05	0	0	0	
0.0478333	0.00451726	0.0016707	0.000124533	5.20925E-05	0	0	0	
0.048	0.00529562	0.000732419	0.000157444	4.83602E-05	0	0	0	
0.0481667	-0.0108989	-0.000594909	0.000167922	2.82549E-05	0	0	0	
0.0483333	0.0078008	1.63865E-05	0.000176972	2.19625E-05	0	0	0	
0.0485	0.00102076	-0.00207376	0.000182119	2.28807E-05	0	0	0	
0.0486667	-0.00846897	0.00140432	0.000187077	2.81246E-05	0	0	0	
0.0488333	0.00679679	0.00103063	0.000176571	3.94769E-05	0	0	0	
0.049	0.00697774	-0.000798707	0.00020305	3.04506E-05	0	0	0	
0.0491667	-0.0130889	-0.00125241	0.000213494	3.53631E-05	0	0	0	
0.0493333	0.00332498	0.000842923	0.000233225	2.61699E-05	0	0	0	
0.0495	0.00800326	0.000558802	0.000220976	2.85419E-05	0	0	0	
0.0496667	-0.00800606	-0.00101365	0.000192941	2.00593E-05	0	0	0	
0.0498333	0.00246948	0.00166013	0.000190028	2.09099E-05	0	0	0	
0.05	0.00441004	-0.0015964	0.000134356	2.53349E-05	0	0	0	
0.0501667	-0.00135632	-0.000202969	0.000140062	3.59869E-05	0	0	0	
0.0503333	-0.00442137	0.00131417	0.000143796	3.89054E-05	0	0	0	
0.0505	0.00319297	-0.000614271	0.000136072	3.32769E-05	0	0	0	
0.0506667	0.00342112	-0.000122052	0.000136354	2.32547E-05	0	0	0	
0.0508333	-0.00531867	0.000127557	0.000102192	1.38721E-05	0	0	0	
0.051	0.0030427	-0.000102542	0.00013809	8.93119E-06	0	0	0	
0.0511667	-0.000239262	0.000148386	0.000169342	5.54067E-06	0	0	0	
0.0513333	-0.000130995	-0.000199472	0.000178178	8.80653E-06	0	0	0	
0.0515	-0.00199558	0.000618336	0.000136109	1.05194E-05	0	0	0	
0.0516667	0.00284941	-0.000563413	8.59869E-05	1.25533E-05	0	0	0	
0.0518333	-0.00537582	-0.00244713	9.98666E-05	2.79357E-05	0	0	0	
0.052	0.00686866	0.00433933	0.000116749	4.25372E-05	0	0	0	
0.0521667	0.00801945	0.000246911	0.000201265	7.76704E-05	0	0	0	
0.0523333	-0.0202948	-0.00481564	0.000272855	0.000103054	0	0	0	
0.0525	0.00138618	0.00228733	0.00032719	0.000103988	0	0	0	
0.0526667	0.019747	0.000535437	0.000360985	7.92078E-05	0	0	0	
0.0528333	-0.0103459	0.00125795	0.000320395	4.10143E-05	0	0	0	
0.053	-0.00977627	0.000674975	0.00037236	4.05578E-05	0	0	0	
0.0531667	0.0084931	-0.00643697	0.000291203	6.20263E-05	0	0	0	
0.0533333	0.00035178	0.00371748	0.000241915	9.08536E-05	0	0	0	
0.0535	0.00216492	0.00448117	0.000178879	0.000136954	0	0	0	
0.0536667	-0.00239211	-0.00412303	0.000118619	0.000124916	0	0	0	
0.0538333	-0.0105458	-0.000877809	0.000176948	0.000120134	0	0	0	
0.054	0.0128333	-0.000249909	0.000177684	5.72322E-05	0	0	0	
0.0541667	0.00324748	0.00237443	0.0002775	3.93362E-05	0	0	0	
0.0543333	-0.0135736	0.00136061	0.00027506	3.44811E-05	0	0	0	
0.0545	0.00546355	-0.00292418	0.000261068	4.44215E-05	0	0	0	
0.0546667	0.01026	-0.00141154	0.000254134	7.06818E-05	0	0	0	
0.0548333	-0.0130171	0.00322301	0.000234279	6.23083E-05	0	0	0	
0.055	0.00110367	0.000632239	0.000234998	7.44491E-05	0	0	0	
0.0551667	0.00944043	-0.00261042	0.000199519	5.22073E-05	0	0	0	
0.0553333	-0.00866422	-0.000449604	0.000179488	5.74121E-05	0	0	0	
0.0555	0.000887412	0.0021736	0.000156879	4.68348E-05	0	0	0	
0.0556667	0.00391922	0.000195065	0.000119914	4.77425E-05	0	0	0	
0.0558333	-0.000945088	-0.00113172	7.97727E-05	3.44561E-05	0	0	0	
0.056	-0.00218674	-0.000252499	4.94598E-05	2.51371E-05	0	0	0	
0.0561667	-0.00265646	-3.60461E-06	3.24354E-05	1.42939E-05	0	0	0	
0.0563333	0.00513595	0.00143104	5.68731E-05	9.82333E-06	0	0	0	
0.0565	-0.00405663	-0.000409485	8.17302E-05	1.30347E-05	0	0	0	
0.0566667	0.00282583	-0.00136602	9.11389E-05	1.97709E-05	0	0	0	
0.0568333	-0.00212022	0.000681206	6.85741E-05	2.24976E-05	0	0	0	
0.057	-4.55402E-05	0.00048572	4.70663E-05	2.6384E-05	0	0	0	
0.0571667	-0.00157988	-0.000713928	4.37674E-05	2.21527E-05	0	0	0	
0.0573333	0.00417754	0.000514853	8.03481E-05	2.2501E-05	0	0	0	
0.0575	-0.00285619	-0.000965766	0.000104321	1.75279E-05	0	0	0	
0.0576667	-0.000209114	0.000589093	0.000102293	2.01707E-05	0	0	0	
0.0578333	-0.00163347	0.000866553	8.64048E-05	1.87975E-05	0	0	0	
0.058	0.00507518	-0.000481383	0.000107703	1.73613E-05	0	0	0	
0.0581667	-0.0051443	-0.000408259	0.000124352	1.88974E-05	0	0	0	
0.0583333	0.00188861	0.000493592	0.000112696	1.66101E-05	0	0	0	
0.0585	-0.001734	-0.000388573	7.9765E-05	1.69131E-05	0	0	0	
0.0586667	-0.00229883	0.00193356	6.67116E-05	1.78091E-05	0	0	0	
0.0588333	0.000739408	3.28505E-05	6.62948E-05	1.93017E-05	0	0	0	
0.059	0.0123268	-0.00160721	0.000132032	1.83395E-05	0	0	0	
0.0591667	-0.0175503	0.000132666	0.000213005	2.27364E-05	0	0	0	
0.0593333	0.0103719	0.00127388	0.000305247	2.33021E-05	0	0	0	
0.0595	0.00942828	0.00407933	0.000452165	4.57715E-05	0	0	0	
0.0596667	-0.0326781	-0.00408816	0.000608901	5.59997E-05	0	0	0	
0.0598333	0.0425083	-0.00184523	0.00071308	0.000100918	0	0	0	
0.06	-0.0207786	0.00253675	0.000735154	9.93617E-05	0	0	0	
0.0601667	-0.013001	-0.000703382	0.000797574	8.4903E-05	0	0	0	
0.0603333	0.0229922	0.0076905	0.000702167	7.43432E-05	0	0	0	
0.0605	-0.0110078	-0.00874268	0.000637195	9.43469E-05	0	0	0	
0.0606667	-0.00703453	-0.00553707	0.000558656	0.000183946	0	0	0	
0.0608333	0.0139752	0.0144957	0.000599176	0.000211306	0	0	0	
0.061	-0.018742	-0.00345712	0.000533282	0.000246108	0	0	0	
0.0611667	0.00655338	-0.00341601	0.000403743	0.000207391	0	0	0	
0.0613333	-0.00200993	-0.00125897	0.000296577	0.000148784	0	0	0	
0.0615	0.0111213	-0.000212222	0.000289033	9.1736E-05	0	0	0	
0.0616667	-0.0230054	0.00465141	0.000348327	6.95515E-05	0	0	0	
0.0618333	0.0218963	0.00175168	0.000422239	8.8795E-05	0	0	0	
0.062	0.000487657	-0.00602707	0.000444287	9.8464E-05	0	0	0	
0.0621667	-0.0278052	-0.00116493	0.000439209	9.90403E-05	0	0	0	
0.0623333	0.0236239	0.00501632	0.000466457	9.42627E-05	0	0	0	
0.0625	0.00911747	-0.00280926	0.000500939	0.000108865	0	0	0	
0.0626667	-0.0334054	-0.00205602	0.000577366	9.2628E-05	0	0	0	
0.0628333	0.0365066	-0.00139064	0.00063779	9.3162E-05	0	0	0	
0.063	-0.0247845	0.00294753	0.000658688	6.12493E-05	0	0	0	
0.0631667	-0.00157251	-0.000157534	0.000612996	5.61393E-05	0	0	0	
0.0633333	0.0166868	0.000587785	0.000521956	3.73294E-05	0	0	0	
0.0635	-0.0107011	-0.00538952	0.000397224	3.88194E-05	0	0	0	
0.0636667	-0.00846951	-2.79456E-05	0.000360351	4.57027E-05	0	0	0	
0.0638333	0.016916	0.00378875	0.000371547	6.24091E-05	0	0	0	
0.064	-0.0121387	-0.000250623	0.000401597	6.65675E-05	0	0	0	
0.0641667	0.0109848	-0.00408451	0.000351472	7.87747E-05	0	0	0	
0.0643333	-0.0132418	0.00409635	0.00031158	8.2748E-05	0	0	0	
0.0645	0.00469979	-0.0011349	0.000271497	8.44512E-05	0	0	0	
0.0646667	0.00600526	-0.000760278	0.000182589	6.57587E-05	0	0	0	
0.0648333	-0.0116976	-0.000728961	0.000140476	4.23261E-05	0	0	0	
0.065	6.17848E-05	0.00224835	0.000126041	3.11926E-05	0	0	0	
0.0651667	0.00610035	-0.000134573	0.000132655	3.28041E-05	0	0	0	
0.0653333	-0.00734549	-0.00211075	0.000112071	4.46895E-05	0	0	0	
0.0655	-0.000245497	-0.00111615	0.00013239	4.33175E-05	0	0	0	
0.0656667	0.00360249	0.0024449	0.000181077	3.47728E-05	0	0	0	
0.0658333	-0.00479446	-0.00193572	0.000181384	3.68142E-05	0	0	0	
0.066	0.00143532	0.00261862	0.000179762	4.08994E-05	0	0	0	
0.0661667	0.00131347	-0.00228605	0.000118215	4.49353E-05	0	0	0	
0.0663333	-0.0065011	-0.00146598	0.000129729	6.82907E-05	0	0	0	
0.0665	0.00531236	0.0029589	0.000117851	8.33181E-05	0	0	0	
0.0666667	0.00574271	-0.00076636	0.000146497	8.35858E-05	0	0	0	
0.0668333	-0.00288766	-0.00155959	0.000144184	6.44343E-05	0	0	0	
0.067	0.00116167	3.36491E-05	0.000131067	5.04607E-05	0	0	0	
0.0671667	-0.00223432	-0.00269247	0.000109398	6.30249E-05	0	0	0	
0.0673333	0.00476089	0.00645929	9.99779E-05	7.44449E-05	0	0	0	
0.0675	0.00037341	-0.00402887	0.000123685	9.6259E-05	0	0	0	
0.0676667	-0.00390179	-0.00380375	0.000204606	0.000130338	0	0	0	
0.0678333	0.00344227	0.00567891	0.00024116	0.000131592	0	0	0	
0.068	0.00445898	0.000355984	0.000231802	0.000132597	0	0	0	
0.0681667	-0.0176919	-0.0046627	0.000264773	0.000106088	0	0	0	
0.0683333	0.0173636	0.00195616	0.000288882	9.4282E-05	0	0	0	
0.0685	0.00210619	-0.00104014	0.000338993	6.79876E-05	0	0	0	
0.0686667	-0.00110743	0.0036791	0.000209834	5.3455E-05	0	0	0	
0.0688333	-0.016903	0.000316254	0.000186785	6.31738E-05	0	0	0	
0.069	0.00554064	-0.00726185	0.000157993	9.60241E-05	0	0	0	
0.0691667	0.0102219	0.00154512	0.00022801	0.000122838	0	0	0	
0.0693333	0.00553235	0.00904958	0.000245325	0.000166028	0	0	0	
0.0695	-0.0184947	-0.00305452	0.000262275	0.000158082	0	0	0	
0.0696667	-0.00440148	-0.00714463	0.000304676	0.00017072	0	0	0	
0.0698333	0.0246055	0.00253205	0.000332793	0.000130944	0	0	0	
0.07	-0.0192398	0.00435927	0.000398571	0.000138074	0	0	0	
0.0701667	-0.00167676	0.00116645	0.000458252	0.000107319	0	0	0	
0.0703333	0.0113422	-0.00466307	0.000387075	9.27235E-05	0	0	0	
0.0705	-0.0070369	-0.0024961	0.000310751	9.84092E-05	0	0	0	
0.0706667	-0.000174419	0.00543402	0.000204154	9.75221E-05	0	0	0	
0.0708333	0.00161094	0.000790903	0.000193507	0.000119395	0	0	0	
0.071	-0.00388467	-0.00311188	0.000159312	9.26951E-05	0	0	0	
0.0711667	0.0101142	-0.00190513	0.000168885	8.93443E-05	0	0	0	
0.0713333	-0.00604063	0.00346884	0.000195824	6.13062E-05	0	0	0	
0.0715	-0.00388757	0.00192465	0.000169617	7.73154E-05	0	0	0	
0.0716667	0.00383862	-0.00523403	0.000110668	8.04283E-05	0	0	0	
0.0718333	0.00251567	0.00125261	0.000116708	9.22469E-05	0	0	0	
0.072	-0.00331914	0.00290522	0.000146878	8.12866E-05	0	0	0	
0.0721667	-0.00222744	-0.00176185	0.000139908	6.76267E-05	0	0	0	
0.0723333	0.00378937	-0.000684468	9.73106E-05	5.5276E-05	0	0	0	
0.0725	-0.0019864	-0.000509255	6.0306E-05	3.09545E-05	0	0	0	
0.0726667	-0.00104374	0.000740749	6.16674E-05	2.47857E-05	0	0	0	
0.0728333	0.000993019	-4.41122E-05	4.87973E-05	1.56035E-05	0	0	0	
0.073	0.000798335	-0.000254249	5.27515E-05	1.41644E-05	0	0	0	
0.0731667	-0.00138667	-0.000846717	5.20052E-05	9.37193E-06	0	0	0	
0.0733333	0.00229965	-6.43238E-05	5.29304E-05	1.58523E-05	0	0	0	
0.0735	-0.0022671	0.00222361	4.54704E-05	3.15317E-05	0	0	0	
0.0736667	0.000145349	-0.00117762	5.29996E-05	3.77626E-05	0	0	0	
0.0738333	0.0032045	-0.0011782	6.83037E-05	4.38332E-05	0	0	0	
0.074	-0.00567104	-0.000717453	9.17176E-05	3.97272E-05	0	0	0	
0.0741667	-0.0014224	0.00436131	0.000101832	5.06278E-05	0	0	0	
0.0743333	0.0152466	-0.000793218	0.000171638	6.20061E-05	0	0	0	
0.0745	-0.012063	-0.00406242	0.000215371	8.75262E-05	0	0	0	
0.0746667	-0.0078128	0.0014027	0.000332047	8.33372E-05	0	0	0	
0.0748333	0.02131	0.00235044	0.000351891	7.79427E-05	0	0	0	
0.075	-0.00500597	0.000844952	0.000395861	5.81662E-05	0	0	0	
0.0751667	-0.0125645	-0.00231876	0.000387442	5.35181E-05	0	0	0	
0.0753333	0.00352624	-0.00252892	0.000317576	5.55467E-05	0	0	0	
0.0755	0.0126336	0.00190713	0.000259825	5.30391E-05	0	0	0	
0.0756667	-0.00470061	0.00463274	0.000186545	8.80065E-05	0	0	0	
0.0758333	-0.000469126	-0.00276429	0.000152879	8.52102E-05	0	0	0	
0.076	-0.00976499	-0.00496315	0.000159486	0.000111972	0	0	0	
0.0761667	0.00930508	0.00321852	0.000149451	9.30761E-05	0	0	0	
0.0763333	0.00701363	0.00317715	0.000227264	0.000122951	0	0	0	
0.0765	-0.0115836	-0.00218228	0.000209373	9.58689E-05	0	0	0	
0.0766667	-0.00302571	-0.000858869	0.00027845	8.02762E-05	0	0	0	
0.0768333	0.0127461	-0.00122315	0.000273938	4.21162E-05	0	0	0	
0.077	-0.00182108	0.00176315	0.000258034	3.51816E-05	0	0	0	
0.0771667	-0.00928439	0.00179029	0.000198496	4.09185E-05	0	0	0	
0.0773333	0.0068613	-0.00152461	0.000154495	3.69045E-05	0	0	0	
0.0775	0.000344176	-0.00215003	0.000179816	5.36617E-05	0	0	0	
0.0776667	-0.00373017	0.00233767	0.000149935	4.76678E-05	0	0	0	
0.0778333	-0.000560359	0.000844217	0.000129897	5.83006E-05	0	0	0	
0.078	0.00650135	-0.000899313	0.000106301	3.66767E-05	0	0	0	
0.0781667	-0.00578798	-0.000953921	0.000109739	3.56019E-05	0	0	0	
0.0783333	-0.00162603	0.000436322	0.000113555	2.29049E-05	0	0	0	
0.0785	0.00480472	0.000685425	0.000104967	2.65012E-05	0	0	0	
0.0786667	-0.00244838	0.000673952	8.37635E-05	2.61141E-05	0	0	0	
0.0788333	-0.000868206	-0.000950177	7.93045E-05	2.20087E-05	0	0	0	
0.079	0.00353788	-0.000702574	6.62169E-05	3.72382E-05	0	0	0	
0.0791667	-0.00597578	0.00153311	7.91365E-05	3.91035E-05	0	0	0	
0.0793333	0.000753543	0.00109548	8.5151E-05	5.04675E-05	0	0	0	
0.0795	0.00209931	-0.00257661	0.000109448	3.97341E-05	0	0	0	
0.0796667	-0.00488185	0.000695039	0.000106442	3.81245E-05	0	0	0	
0.0798333	0.000627073	-0.000973936	8.88072E-05	3.00209E-05	0	0	0	
0.08	0.0027506	0.00330543	5.46697E-05	3.14295E-05	0	0	0	
0.0801667	-0.00177161	-0.00308306	5.69169E-05	4.72984E-05	0	0	0	
0.0803333	-0.00395702	-0.00204139	7.60356E-05	8.39589E-05	0	0	0	
0.0805	0.00504486	0.0063443	9.32293E-05	0.000105234	0	0	0	
0.0806667	-0.00329044	-0.00248485	9.58904E-05	0.000108392	0	0	0	
0.0808333	-0.000366633	-0.00466009	7.82823E-05	0.000114116	0	0	0	
0.081	0.000586846	0.00472622	7.1287E-05	0.000106114	0	0	0	
0.0811667	0.0021675	0.00257527	6.81838E-05	0.00011519	0	0	0	
0.0813333	-0.0022014	-0.0022777	7.73145E-05	7.94443E-05	0	0	0	
0.0815	0.00163027	-0.00331679	7.35494E-05	7.88525E-05	0	0	0	
0.0816667	-0.000597011	0.00131306	5.02805E-05	6.91932E-05	0	0	0	
0.0818333	0.00274176	0.00692119	4.53798E-05	0.000113078	0	0	0	
0.082	-0.00430954	-0.00420453	6.80351E-05	0.000124352	0	0	0	
0.0821667	0.000410466	-0.00756911	8.8888E-05	0.000179074	0	0	0	
0.0823333	0.00040319	0.00571656	7.4145E-05	0.000155539	0	0	0	
0.0825	-0.000317014	0.00619936	4.9249E-05	0.00019233	0	0	0	
0.0826667	0.00173572	-0.00503112	2.60797E-05	0.00013862	0	0	0	
0.0828333	-0.00212279	-0.00687123	3.32233E-05	0.000185493	0	0	0	
0.083	0.00112396	0.00581099	2.89086E-05	0.00014572	0	0	0	
0.0831667	-0.00257139	0.00501687	4.8219E-05	0.000183958	0	0	0	
0.0833333	-0.00394548	-0.00447426	5.21478E-05	0.000129304	0	0	0	
0.0835	0.00385001	-0.00490563	7.66843E-05	0.000159262	0	0	0	
0.0836667	0.00334161	0.00216948	8.10603E-05	0.000110065	0	0	0	
0.0838333	-0.00602288	0.00640586	9.91212E-05	0.000129107	0	0	0	
0.084	-0.000138937	-0.00220731	8.34398E-05	9.9228E-05	0	0	0	
0.0841667	0.000223283	-0.00665566	8.37294E-05	0.000140948	0	0	0	
0.0843333	-0.000172157	0.00410964	6.68592E-05	0.000127307	0	0	0	
0.0845	0.000504842	0.00271958	6.11822E-05	0.000138703	0	0	0	
0.0846667	0.00147849	-0.00128031	4.54006E-05	8.7207E-05	0	0	0	
0.0848333	-0.00251451	-0.00322738	3.92811E-05	8.0513E-05	0	0	0	
0.085	0.00214636	0.00154726	3.95789E-05	4.92226E-05	0	0	0	
0.0851667	-0.00381479	0.00122658	5.40908E-05	5.65758E-05	0	0	0	
0.0853333	0.00288523	0.00131733	8.17203E-05	4.2692E-05	0	0	0	
0.0855	0.00127041	-0.00291145	7.96526E-05	3.90882E-05	0	0	0	
0.0856667	-0.00184416	-0.000673554	7.07823E-05	4.87653E-05	0	0	0	
0.0858333	-0.0040803	0.00312353	4.47208E-05	5.7652E-05	0	0	0	
0.086	0.00536093	-0.000874103	6.86755E-05	5.92349E-05	0	0	0	
0.0861667	-0.00150848	-0.000545257	7.36161E-05	4.44114E-05	0	0	0	
0.0863333	-0.0017112	-0.000599887	7.35211E-05	3.00314E-05	0	0	0	
0.0865	8.63707E-05	0.000562366	5.21149E-05	1.93428E-05	0	0	0	
0.0866667	0.00124394	0.00133809	3.69114E-05	1.79029E-05	0	0	0	
0.0868333	-0.00338508	-0.000611148	3.56739E-05	1.8334E-05	0	0	0	
0.087	0.00258323	-0.000709047	4.23732E-05	3.30659E-05	0	0	0	
0.0871667	-0.00057922	0.000975612	5.20686E-05	3.286E-05	0	0	0	
0.0873333	-0.0017305	0.000106156	6.9723E-05	3.12895E-05	0	0	0	
0.0875	0.00157389	0.000217978	7.4751E-05	1.64914E-05	0	0	0	
0.0876667	0.000577144	-0.0002662	6.84169E-05	1.18359E-05	0	0	0	
0.0878333	-0.00425125	-0.00115369	7.6237E-05	1.69357E-05	0	0	0	
0.088	0.00483325	0.000821795	6.88784E-05	2.22232E-05	0	0	0	
0.0881667	0.000939103	0.00171605	0.000116687	3.64481E-05	0	0	0	
0.0883333	-0.0058252	-0.00236966	0.000118641	3.72958E-05	0	0	0	
0.0885	-0.00143552	-0.00317112	0.000155259	7.7096E-05	0	0	0	
0.0886667	0.00665658	0.00971036	0.000161977	0.000102654	0	0	0	
0.0888333	-0.0049405	0.00269483	0.000154144	0.000179757	0	0	0	
0.089	0.0528854	-0.0621089	0.00021712	0.000332433	0	0	0	
0.0891667	-0.15447	0.0171279	0.00113077	0.000756644	0	0	0	
0.0893333	0.0533514	-0.0146902	0.00194579	0.000788528	0	0	0	
0.0895	-0.0285839	-0.000580258	0.00203468	0.000701655	0	0	0	
0.0896667	-0.028471	0.00502235	0.00145464	0.000282011	0	0	0	
0.0898333	0.0403137	-0.00777587	0.00080821	0.000201673	0	0	0	
0.09	0.000142248	0.000169127	0.000880331	0.000153803	0	0	0	
0.0901667	-0.0598067	0.0104578	0.000950985	0.000408641	0	0	0	
0.0903333	-0.0840297	-0.0108308	0.00169362	0.000642513	0	0	0	
0.0905	-0.0022953	0.00329594	0.00186103	0.000607574	0	0	0	
0.0906667	0.0228639	0.00613709	0.00152309	0.000351118	0	0	0	
0.0908333	-0.00664915	-9.14478E-05	0.000743502	0.000111338	0	0	0	
0.091	-0.0188012	-0.00506881	0.000493796	0.000114877	0	0	0	
0.0911667	0.0104478	0.002515	0.000442751	9.52492E-05	0	0	0	
0.0913333	0.0203036	-0.00281412	0.000417735	8.74756E-05	0	0	0	
0.0915	-0.0235648	0.00342526	0.000362219	7.31435E-05	0	0	0	
0.0916667	0.000815165	0.000650938	0.000410043	9.31698E-05	0	0	0	
0.0918333	0.0170317	-0.00723039	0.000393791	0.000122097	0	0	0	
0.092	-0.00984623	0.00471473	0.000328374	0.000136292	0	0	0	
0.0921667	-0.0111154	0.00414366	0.000371826	0.000159501	0	0	0	
0.0923333	-0.00290126	0.00858908	0.000409381	0.000215687	0	0	0	
0.0925	-0.00420353	-0.00072089	0.00042872	0.000306422	0	0	0	
0.0926667	0.000952878	0.000994149	0.00037467	0.000308863	0	0	0	
0.0928333	0.00682031	0.000982357	0.00025947	0.000209403	0	0	0	
0.093	-0.00356678	-0.00219245	0.000203622	9.33014E-05	0	0	0	
0.0931667	0.000759449	-0.00484428	0.000111234	5.55295E-05	0	0	0	
0.0933333	-0.0323745	0.0244517	0.000154987	0.000117677	0	0	0	
0.0935	-0.00293333	0.00720162	0.000257329	0.000192706	0	0	0	
0.0936667	0.00568656	-0.0171763	0.000264081	0.000259354	0	0	0	
0.0938333	-0.00344124	0.00519297	0.000224107	0.000248456	0	0	0	
0.094	0.00335169	0.00188411	0.000119609	0.000201049	0	0	0	
0.0941667	-0.000589525	-0.00237059	9.08794E-05	0.000109841	0	0	0	
0.0943333	-0.000535845	-0.000202504	7.80437E-05	6.54753E-05	0	0	0	
0.0945	0.00998731	0.00153169	7.8962E-05	4.31851E-05	0	0	0	
0.0946667	-0.0873284	-0.0166217	0.000288745	7.03677E-05	0	0	0	
0.0948333	0.00620082	0.000717941	0.000552751	9.77345E-05	0	0	0	
0.095	0.00638706	0.00272261	0.000549461	0.000110611	0	0	0	
0.0951667	-0.00537481	-0.00471517	0.000406573	9.50312E-05	0	0	0	
0.0953333	-0.012037	0.000165329	0.00022074	7.5369E-05	0	0	0	
0.0955	0.00976443	0.00286066	0.000254543	7.01411E-05	0	0	0	
0.0956667	0.00550189	-0.00330598	0.000304672	6.32475E-05	0	0	0	
0.0958333	-0.0425138	-0.00429871	0.000436313	9.89319E-05	0	0	0	
0.096	0.00036583	-0.000747936	0.000702105	0.000111498	0	0	0	
0.0961667	0.00972997	9.65341E-05	0.000675816	0.000101733	0	0	0	
0.0963333	0.00630106	0.00185814	0.000529085	5.20074E-05	0	0	0	
0.0965	-0.00243562	0.00151038	0.000219186	4.05077E-05	0	0	0	
0.0966667	-0.00809431	-0.00387633	0.000202082	5.4046E-05	0	0	0	
0.0968333	0.00455255	0.000209885	0.000163987	6.86933E-05	0	0	0	
0.097	0.0123856	0.00223374	0.000273483	6.25331E-05	0	0	0	
0.0971667	-0.0083649	0.00101174	0.00024694	6.59301E-05	0	0	0	
0.0973333	-0.00728929	-0.00209927	0.000328834	5.10008E-05	0	0	0	
0.0975	0.0120744	-0.00220358	0.000252329	6.00686E-05	0	0	0	
0.0976667	-0.000416482	0.00264041	0.000302825	5.01673E-05	0	0	0	
0.0978333	-0.00509573	0.00258907	0.000232289	6.40197E-05	0	0	0	
0.098	-0.00312221	-0.00204541	0.000214307	5.31482E-05	0	0	0	
0.0981667	0.0100972	-0.00260778	0.000166472	6.33212E-05	0	0	0	
0.0983333	-0.00753665	0.00128641	0.000149363	5.07119E-05	0	0	0	
0.0985	0.00059655	0.0029357	0.000142225	6.55125E-05	0	0	0	
0.0986667	-0.00702473	-0.00237059	0.000120685	5.82412E-05	0	0	0	
0.0988333	0.0102007	-0.00228897	0.000143428	7.28043E-05	0	0	0	
0.099	-0.00865739	0.00172676	0.000158086	5.40958E-05	0	0	0	
0.0991667	0.00357666	0.00115714	0.000188562	6.63019E-05	0	0	0	
0.0993333	0.00547748	-0.0010133	0.000163975	4.41566E-05	0	0	0	
0.0995	-0.00503508	-0.00196994	0.000145211	4.81209E-05	0	0	0	
0.0996667	-0.00106908	0.000786426	0.000165676	2.92954E-05	0	0	0	
0.0998333	0.00608947	0.000544487	0.000216757	4.07998E-05	0	0	0	
0.1	-0.0080622	0.000353549	0.000246443	3.01998E-05	0	0	0	
0.100167	0.00490097	-0.00139866	0.000205172	2.50566E-05	0	0	0	
0.100333	0.00333406	-0.000398236	0.000153664	2.20822E-05	0	0	0	
0.1005	-0.00402995	0.000758617	0.000129449	2.07031E-05	0	0	0	
0.100667	-0.00119777	0.00260222	9.51118E-05	3.26221E-05	0	0	0	
0.100833	0.00340826	-0.00229234	7.37647E-05	3.32679E-05	0	0	0	
0.101	-0.00390214	-0.00225249	7.55038E-05	6.23407E-05	0	0	0	
0.101167	-0.000856543	0.00375022	8.05462E-05	6.59554E-05	0	0	0	
0.101333	0.00471626	0.000447393	7.9957E-05	7.07181E-05	0	0	0	
0.1015	-0.00447391	-0.00183984	7.8867E-05	4.70067E-05	0	0	0	
0.101667	0.00101006	-0.000114461	8.27023E-05	4.06073E-05	0	0	0	
0.101833	0.001435	0.00111164	7.74865E-05	2.50335E-05	0	0	0	
0.102	-0.000875359	0.0004124	6.04932E-05	2.56371E-05	0	0	0	
0.102167	-0.00308201	-0.000181432	5.15377E-05	1.65227E-05	0	0	0	
0.102333	0.00368385	-0.000927375	5.05781E-05	2.60151E-05	0	0	0	
0.1025	0.000187471	0.000894061	5.08955E-05	2.27987E-05	0	0	0	
0.102667	-0.00282364	0.00117417	6.54617E-05	2.41546E-05	0	0	0	
0.102833	0.000398076	-0.00120027	5.48914E-05	1.95134E-05	0	0	0	
0.103	0.0034747	9.53213E-05	5.31345E-05	2.61413E-05	0	0	0	
0.103167	-0.00584894	0.000510366	6.43894E-05	2.76195E-05	0	0	0	
0.103333	0.00364039	0.000272966	8.52931E-05	2.37832E-05	0	0	0	
0.1035	-0.00087799	-0.000899695	8.48244E-05	1.78101E-05	0	0	0	
0.103667	-0.00044516	0.00112014	6.24805E-05	1.76044E-05	0	0	0	
0.103833	0.00151022	-0.000181759	4.56073E-05	2.33353E-05	0	0	0	
0.104	0.000994906	-6.81805E-05	4.04802E-05	2.07708E-05	0	0	0	
0.104167	-0.00485401	-0.000329026	4.72962E-05	1.72436E-05	0	0	0	
0.104333	0.00412394	0.000292992	6.08849E-05	1.22324E-05	0	0	0	
0.1045	-0.000458556	-4.15277E-05	6.5262E-05	1.13353E-05	0	0	0	
0.104667	-0.00194488	0.000140414	5.53239E-05	1.02174E-05	0	0	0	
0.104833	-9.18267E-05	-0.000510748	3.17753E-05	6.80415E-06	0	0	0	
0.105	0.00144287	0.000461671	2.61751E-05	8.18416E-06	0	0	0	
0.105167	-0.00258738	-0.000271218	3.92853E-05	8.4772E-06	0	0	0	
0.105333	0.00209554	-2.83615E-07	5.06983E-05	1.0328E-05	0	0	0	
0.1055	-0.00106666	0.000675852	5.2038E-05	1.23497E-05	0	0	0	
0.105667	-0.000372282	-0.00110022	4.29819E-05	1.50051E-05	0	0	0	
0.105833	0.00206133	8.30633E-05	3.90071E-05	1.73039E-05	0	0	0	
0.106	-0.00128823	0.00114665	3.70184E-05	1.59018E-05	0	0	0	
0.106167	-0.00294412	-0.000207826	3.32384E-05	1.60325E-05	0	0	0	
0.106333	0.00374825	-0.000511298	3.95449E-05	1.39843E-05	0	0	0	
0.1065	-0.0024626	-0.000761543	6.06134E-05	1.71847E-05	0	0	0	
0.106667	0.00220509	0.00151523	7.54051E-05	1.98906E-05	0	0	0	
0.106833	-0.00209509	-6.7021E-05	7.27853E-05	2.34162E-05	0	0	0	
0.107	0.00268487	-0.000784955	5.63933E-05	1.84903E-05	0	0	0	
0.107167	-0.00247407	-0.000885088	4.92245E-05	2.12972E-05	0	0	0	
0.107333	0.000882615	0.00171314	4.7015E-05	2.48158E-05	0	0	0	
0.1075	-0.000786594	-0.000117965	4.41436E-05	2.8573E-05	0	0	0	
0.107667	0.00155004	-0.00076873	3.55033E-05	2.39422E-05	0	0	0	
0.107833	-0.0032493	-0.000229325	3.50587E-05	2.0041E-05	0	0	0	
0.108	0.000653152	0.00129176	3.69174E-05	2.10384E-05	0	0	0	
0.108167	0.000452813	-7.44231E-05	3.41145E-05	1.93981E-05	0	0	0	
0.108333	0.0012887	-0.00079131	4.6801E-05	1.50052E-05	0	0	0	
0.1085	-0.00654299	-0.00128387	6.00223E-05	1.99052E-05	0	0	0	
0.108667	0.00393538	0.00180453	0.000110477	2.36504E-05	0	0	0	
0.108833	0.00646448	0.00183538	0.000173121	5.15712E-05	0	0	0	
0.109	-0.0120017	-0.00349811	0.000200681	5.5851E-05	0	0	0	
0.109167	-0.00145696	0.000910578	0.000300322	7.65124E-05	0	0	0	
0.109333	0.0103234	0.0011285	0.000326312	7.58698E-05	0	0	0	
0.1095	0.00165249	-0.000746694	0.000315783	6.74136E-05	0	0	0	
0.109667	-0.0116418	0.00129855	0.000254591	4.34977E-05	0	0	0	
0.109833	0.01026	-0.00207619	0.000194128	2.45683E-05	0	0	0	
0.11	-0.00313924	-3.8215E-05	0.000253137	3.19589E-05	0	0	0	
0.110167	0.000835425	0.00345728	0.000238212	4.39083E-05	0	0	0	
0.110333	-0.00314781	-0.00283121	0.000218242	5.59281E-05	0	0	0	
0.1105	0.00673666	-0.00175167	0.000160227	6.95995E-05	0	0	0	
0.110667	-0.00444382	0.00230942	0.000156797	6.28317E-05	0	0	0	
0.110833	0.00456056	0.00110669	0.000214473	6.26865E-05	0	0	0	
0.111	-0.00225035	-0.002152	0.000238583	4.46251E-05	0	0	0	
0.111167	-0.00171196	0.000265972	0.000177928	5.09596E-05	0	0	0	
0.111333	0.00493763	0.00144477	0.000121953	4.33751E-05	0	0	0	
0.1115	-0.00590824	-0.000375095	8.34187E-05	3.80664E-05	0	0	0	
0.111667	0.0033319	-0.00123158	0.000133581	3.16662E-05	0	0	0	
0.111833	0.000944204	0.00033827	0.000158947	2.47967E-05	0	0	0	
0.112	0.00334587	0.00253592	0.000154993	3.69971E-05	0	0	0	
0.112167	-0.0125005	-0.00182351	0.000185043	3.9445E-05	0	0	0	
0.112333	0.0112378	-0.000956364	0.00019316	4.76149E-05	0	0	0	
0.1125	-0.00220492	0.000598614	0.00022595	3.40856E-05	0	0	0	
0.112667	-0.00309959	0.00237105	0.000160192	3.69966E-05	0	0	0	
0.112833	-0.000682971	-0.0011095	0.000131173	3.34957E-05	0	0	0	
0.113	0.0048287	-0.00194617	0.000125458	4.78598E-05	0	0	0	
0.113167	-0.00227322	0.000539623	0.000113484	4.57891E-05	0	0	0	
0.113333	-0.00291881	0.00294326	0.000114444	5.98763E-05	0	0	0	
0.1135	0.00355649	-0.001504	9.64682E-05	5.32786E-05	0	0	0	
0.113667	-0.00242608	-0.00219757	9.42834E-05	6.28377E-05	0	0	0	
0.113833	0.000579234	0.0016182	7.03676E-05	4.66665E-05	0	0	0	
0.114	-0.000302523	0.00140228	4.91398E-05	5.69129E-05	0	0	0	
0.114167	-0.0010404	-0.00150519	3.76658E-05	4.1427E-05	0	0	0	
0.114333	0.0011445	-0.000957101	2.37442E-05	4.37592E-05	0	0	0	
0.1145	-0.000266139	0.000967591	1.71782E-05	2.59255E-05	0	0	0	
0.114667	-0.00228948	-0.00103068	1.81935E-05	2.53156E-05	0	0	0	
0.114833	0.000690401	0.00168115	4.81858E-05	2.2646E-05	0	0	0	
0.115	0.0158767	0.00105108	0.000122745	4.67403E-05	0	0	0	
0.115167	-0.0168802	-0.00480145	0.000216996	7.11291E-05	0	0	0	
0.115333	-0.00996491	0.00281651	0.000332706	8.27382E-05	0	0	0	
0.1155	0.0215182	0.000531274	0.000343919	7.67793E-05	0	0	0	
0.115667	0.00176298	-0.000977262	0.000423794	5.45357E-05	0	0	0	
0.115833	-0.0179995	0.00275734	0.000418083	4.7374E-05	0	0	0	
0.116	0.00845705	-0.00410191	0.000404152	4.36418E-05	0	0	0	
0.116167	-0.000606539	-0.00155999	0.000267951	7.98161E-05	0	0	0	
0.116333	0.00410178	0.00623434	0.000179212	0.000106818	0	0	0	
0.1165	0.00125625	-0.00205637	0.000114296	0.000117436	0	0	0	
0.116667	-0.0144589	-0.00289704	0.000143572	0.000109581	0	0	0	
0.116833	0.00807047	0.000897325	0.000159845	7.77501E-05	0	0	0	
0.117	0.00995307	0.000177702	0.000293151	5.17583E-05	0	0	0	
0.117167	-0.0135095	0.00192383	0.000303619	2.39078E-05	0	0	0	
0.117333	-0.000807435	-4.89191E-05	0.000306334	3.36697E-05	0	0	0	
0.1175	0.0113613	-0.00471706	0.000232174	6.21691E-05	0	0	0	
0.117667	-0.00596569	0.00290713	0.000203059	7.60236E-05	0	0	0	
0.117833	-0.00567176	0.00236798	0.000214092	9.47735E-05	0	0	0	
0.118	0.00608128	-0.00181554	0.000193207	7.28763E-05	0	0	0	
0.118167	-0.000580612	-0.00137356	0.000159241	6.9868E-05	0	0	0	
0.118333	-0.00384952	0.000491708	9.18209E-05	3.64233E-05	0	0	0	
0.1185	0.00156192	0.0016951	6.11517E-05	4.10884E-05	0	0	0	
0.118667	0.000443434	-0.000747799	4.69115E-05	2.71524E-05	0	0	0	
0.118833	-0.00023124	-0.00124715	3.26711E-05	3.43736E-05	0	0	0	
0.119	-0.00155857	0.000984364	2.41122E-05	2.674E-05	0	0	0	
0.119167	9.25804E-05	0.000997678	3.48521E-05	3.13635E-05	0	0	0	
0.119333	-0.000217195	-0.00076813	4.10632E-05	2.36053E-05	0	0	0	
0.1195	-3.49273E-05	-0.000384077	3.40902E-05	2.24916E-05	0	0	0	
0.119667	0.00164694	0.000501845	2.63429E-05	1.33472E-05	0	0	0	
0.119833	-0.00204875	-0.000158587	2.66246E-05	1.28826E-05	0	0	0	
0.12	0.00104629	0.000253749	3.20053E-05	7.71609E-06	0	0	0	
0.120167	-9.60677E-05	-0.000639761	3.06909E-05	9.15611E-06	0	0	0	
0.120333	-0.00142618	0.000350752	3.01865E-05	8.83349E-06	0	0	0	
0.1205	0.00049331	-0.000175877	3.34853E-05	8.67836E-06	0	0	0	
0.120667	0.000257342	-2.45358E-05	3.47844E-05	5.70192E-06	0	0	0	
0.120833	0.00097059	-4.90082E-05	3.13535E-05	4.91367E-06	0	0	0	
0.121	6.86547E-05	0.000147217	2.72459E-05	5.33649E-06	0	0	0	
0.121167	-0.00101527	-0.000943526	2.53672E-05	8.85204E-06	0	0	0	
0.121333	0.00167455	0.00113854	2.87903E-05	1.26643E-05	0	0	0	
0.1215	-0.00293045	-0.00027228	3.66012E-05	1.65074E-05	0	0	0	
0.121667	0.00299569	-3.32697E-05	4.90751E-05	1.35015E-05	0	0	0	
0.121833	-0.000351432	-0.000353064	4.47965E-05	1.04274E-05	0	0	0	
0.122	-0.000383369	0.000460253	4.14919E-05	9.27094E-06	0	0	0	
0.122167	0.0014203	0.000168084	3.80219E-05	1.14261E-05	0	0	0	
0.122333	-4.52349E-05	-0.000197559	4.62071E-05	1.02732E-05	0	0	0	
0.1225	0.000903683	-1.29263E-05	3.68314E-05	9.92067E-06	0	0	0	
0.122667	0.000973712	0.000629585	3.70022E-05	1.03196E-05	0	0	0	
0.122833	-0.00379784	0.000363208	4.2433E-05	1.2701E-05	0	0	0	
0.123	0.00381548	-0.00116621	5.95644E-05	1.77553E-05	0	0	0	
0.123167	0.000244903	0.00127535	8.57527E-05	2.26274E-05	0	0	0	
0.123333	-0.00527953	-0.000678969	0.000115531	2.36702E-05	0	0	0	
0.1235	0.00668308	0.00201317	0.000117006	2.1217E-05	0	0	0	
0.123667	0.0251805	0.00211182	0.000260217	4.27578E-05	0	0	0	
0.123833	0.0754115	0.0224768	0.000995505	0.000198056	0	0	0	
0.124	-0.00522631	-0.00686415	0.0011391	0.000353608	0	0	0	
0.124167	-0.00061151	0.00234577	0.00104385	0.000406094	0	0	0	
0.124333	-0.00225611	-0.000813	0.000282454	0.000269552	0	0	0	
0.1245	0.00349045	0.00370031	0.000141948	0.00011953	0	0	0	
0.124667	-0.0117461	-0.0019107	0.000170685	7.3604E-05	0	0	0	
0.124833	-0.00839453	-0.00137482	0.000259321	8.81001E-05	0	0	0	
0.125	0.0121073	0.00368528	0.000301359	9.88418E-05	0	0	0	
0.125167	-0.00672506	-0.00245258	0.000246723	8.12038E-05	0	0	0	
0.125333	0.00037584	0.00099975	0.000192696	5.19259E-05	0	0	0	
0.1255	-0.00104035	0.000309178	0.000139187	3.71599E-05	0	0	0	
0.125667	0.00590289	-0.00196823	0.000105571	2.28565E-05	0	0	0	
0.125833	-0.00740111	0.000350649	8.57988E-05	3.15336E-05	0	0	0	
0.126	-0.000988788	0.00173861	0.00011729	5.13984E-05	0	0	0	
0.126167	0.0034803	-0.0032128	0.000133546	6.01652E-05	0	0	0	
0.126333	-0.00598289	0.000817133	0.000120756	6.98723E-05	0	0	0	
0.1265	0.000995851	0.000793637	0.000105197	6.01686E-05	0	0	0	
0.126667	-0.000380352	-0.000593035	7.34249E-05	5.20536E-05	0	0	0	
0.126833	0.00106527	0.00228686	5.95687E-05	3.68012E-05	0	0	0	
0.127	0.00408365	-0.00254694	6.54134E-05	3.56249E-05	0	0	0	
0.127167	-0.00667868	0.00167096	7.28287E-05	4.30493E-05	0	0	0	
0.127333	-0.00231448	-0.000341544	0.000136228	3.76108E-05	0	0	0	
0.1275	0.00953168	0.000323393	0.000179615	3.00202E-05	0	0	0	
0.127667	0.00137339	-5.94338E-05	0.000202681	1.88183E-05	0	0	0	
0.127833	-0.0131311	-0.00202628	0.000178137	2.21489E-05	0	0	0	
0.128	-0.000755258	0.00304502	0.000253547	3.26997E-05	0	0	0	
0.128167	0.0237738	-0.000531836	0.000399095	5.27053E-05	0	0	0	
0.128333	-0.0147799	-0.00111006	0.000492688	5.4152E-05	0	0	0	
0.1285	-0.0233516	-0.00163035	0.000634875	4.32159E-05	0	0	0	
0.128667	0.0246113	0.00123973	0.000622414	3.46872E-05	0	0	0	
0.128833	-0.00355507	-0.00208551	0.000571121	3.52229E-05	0	0	0	
0.129	0.00278887	0.00496895	0.00031497	4.4329E-05	0	0	0	
0.129167	-0.0126954	0.000552016	0.000198796	8.29991E-05	0	0	0	
0.129333	0.00104835	-0.0107175	0.000158296	0.00013148	0	0	0	
0.1295	0.0113719	0.00519189	0.000188722	0.00016556	0	0	0	
0.129667	-0.0106171	0.00883796	0.000195699	0.000212212	0	0	0	
0.129833	-0.00247684	-0.00743606	0.000249336	0.000209659	0	0	0	
0.13	0.00643166	0.00197094	0.000205456	0.000186413	0	0	0	
0.130167	0.00486682	-0.00152509	0.000220539	0.00010533	0	0	0	
0.130333	-0.00897053	-4.08504E-05	0.000169745	7.10021E-05	0	0	0	
0.1305	-0.000300998	0.0049431	0.000226512	8.89943E-05	0	0	0	
0.130667	0.0111633	-0.00595328	0.000242838	0.000102897	0	0	0	
0.130833	-0.00703972	0.00163428	0.000233315	0.000132823	0	0	0	
0.131	-0.00266478	0.00329005	0.000227065	0.000129684	0	0	0	
0.131167	0.0038919	-0.00095898	0.000160439	0.000112145	0	0	0	
0.131333	0.0073476	-0.00214881	0.000140625	9.09283E-05	0	0	0	
0.1315	-0.00262402	0.00368036	9.83845E-05	7.05127E-05	0	0	0	
0.131667	0.000609276	0.000123032	0.000161703	7.43122E-05	0	0	0	
0.131833	0.00810482	0.00229398	0.000218881	5.21085E-05	0	0	0	
0.132	-0.00759094	-0.00260693	0.000226893	4.76586E-05	0	0	0	
0.132167	-0.00105718	6.10661E-05	0.000187421	4.48766E-05	0	0	0	
0.132333	0.00375251	6.89007E-05	0.000127176	3.59765E-05	0	0	0	
0.1325	-0.000155293	0.00138767	0.00010676	2.19835E-05	0	0	0	
0.132667	0.000227842	0.00375775	6.94775E-05	2.24122E-05	0	0	0	
0.132833	-0.000276909	-0.00226205	6.43871E-05	3.91149E-05	0	0	0	
0.133	0.00188091	-0.00132244	7.33627E-05	5.48273E-05	0	0	0	
0.133167	-0.00351992	0.00175318	6.46088E-05	5.79908E-05	0	0	0	
0.133333	-0.00136252	-0.000253653	8.20501E-05	4.50512E-05	0	0	0	
0.1335	0.0111365	0.00122411	0.000107856	3.72221E-05	0	0	0	
0.133667	-0.0119178	-0.0029682	0.000154079	5.27945E-05	0	0	0	
0.133833	5.40905E-05	0.00235358	0.000207152	5.54387E-05	0	0	0	
0.134	0.0207771	0.00267333	0.000249908	9.09035E-05	0	0	0	
0.134167	-0.0204788	-0.00542749	0.000337787	0.00010437	0	0	0	
0.134333	-0.00265278	0.00281516	0.000328272	0.000117021	0	0	0	
0.1345	0.00818051	0.000469714	0.000269923	9.07523E-05	0	0	0	
0.134667	0.00592896	-0.00228049	0.000212849	5.48761E-05	0	0	0	
0.134833	-0.0175787	0.00124423	0.000236873	4.81546E-05	0	0	0	
0.135	0.0176242	-0.00239118	0.000299475	3.55822E-05	0	0	0	
0.135167	-0.00807436	0.00146682	0.000308887	5.11963E-05	0	0	0	
0.135333	-0.00538777	0.000135978	0.000234086	7.05056E-05	0	0	0	
0.1355	0.00460252	-3.87599E-05	0.000165169	6.37963E-05	0	0	0	
0.135667	-0.00292842	-0.00412221	9.19372E-05	5.09335E-05	0	0	0	
0.135833	-0.00145591	0.0036512	0.000144634	4.81718E-05	0	0	0	
0.136	0.00808176	0.00160364	0.00021258	7.89758E-05	0	0	0	
0.136167	-0.0117775	-0.00225069	0.000248389	7.53333E-05	0	0	0	
0.136333	0.00417905	-0.00141159	0.000225991	6.89275E-05	0	0	0	
0.1365	0.00118844	0.00161272	0.000168231	5.11556E-05	0	0	0	
0.136667	-0.0010947	-0.00118994	0.000116835	4.91478E-05	0	0	0	
0.136833	-0.000268181	0.00324259	6.30768E-05	3.92182E-05	0	0	0	
0.137	0.000279274	-0.00103823	2.79656E-05	3.53916E-05	0	0	0	
0.137167	0.000580867	-0.00109657	5.95736E-05	4.10388E-05	0	0	0	
0.137333	-0.00366673	0.000768871	9.31781E-05	3.30184E-05	0	0	0	
0.1375	0.00188186	0.000604374	9.51819E-05	3.54915E-05	0	0	0	
0.137667	0.00391179	-0.00124534	9.26548E-05	3.08637E-05	0	0	0	
0.137833	-0.00483217	0.000875446	7.88135E-05	3.01981E-05	0	0	0	
0.138	-0.000196488	0.000643697	0.000101164	2.56729E-05	0	0	0	
0.138167	0.00464609	-0.000811106	9.62006E-05	2.76846E-05	0	0	0	
0.138333	-0.000727818	0.000278595	7.77014E-05	2.55056E-05	0	0	0	
0.1385	-0.00175057	0.000967593	7.02876E-05	2.92897E-05	0	0	0	
0.138667	0.00208562	-0.000808684	5.96839E-05	2.7023E-05	0	0	0	
0.138833	-0.00204579	3.44146E-07	6.70376E-05	2.70085E-05	0	0	0	
0.139	0.00159778	0.000491291	4.74252E-05	1.41243E-05	0	0	0	
0.139167	-0.00274177	0.000386221	3.81003E-05	1.37801E-05	0	0	0	
0.139333	0.00697363	-0.000456649	4.93424E-05	1.67523E-05	0	0	0	
0.1395	-0.00457518	-0.00062386	7.8649E-05	1.95611E-05	0	0	0	
0.139667	-0.000963623	0.000823444	8.97108E-05	1.64101E-05	0	0	0	
0.139833	0.00289656	0.000297791	8.43906E-05	1.56011E-05	0	0	0	
0.14	-0.00222021	-3.839E-05	6.26267E-05	1.34954E-05	0	0	0	
0.140167	-0.00259747	-0.000986467	6.61778E-05	9.40644E-06	0	0	0	
0.140333	0.00540195	0.00156935	7.69391E-05	1.71706E-05	0	0	0	
0.1405	-0.00557158	-0.000793955	9.17438E-05	3.69853E-05	0	0	0	
0.140667	0.000563507	-0.000723961	9.18109E-05	4.59591E-05	0	0	0	
0.140833	0.00277385	0.00036553	8.88062E-05	3.58177E-05	0	0	0	
0.141	-0.00171513	0.000169504	7.13374E-05	1.8219E-05	0	0	0	
0.141167	-0.000709472	-4.35913E-05	5.36023E-05	7.78675E-06	0	0	0	
0.141333	0.00283762	0.000573852	3.66412E-05	6.65775E-06	0	0	0	
0.1415	-0.00302486	-0.00181391	4.44724E-05	1.0852E-05	0	0	0	
0.141667	0.000376415	0.00105668	5.7392E-05	2.82889E-05	0	0	0	
0.141833	0.00141111	0.000874761	6.5707E-05	3.91633E-05	0	0	0	
0.142	-0.000211757	-0.000872045	5.33623E-05	3.67311E-05	0	0	0	
0.142167	0.000296608	-8.34548E-05	3.54213E-05	2.41073E-05	0	0	0	
0.142333	0.00134196	-0.000121618	2.36461E-05	1.14882E-05	0	0	0	
0.1425	-0.0024962	0.000627781	2.47354E-05	1.16473E-05	0	0	0	
0.142667	0.00143764	0.00147377	3.13969E-05	1.26558E-05	0	0	0	
0.142833	0.000365455	-0.00164297	3.8706E-05	2.83882E-05	0	0	0	
0.143	5.29644E-05	0.0019702	4.87744E-05	3.32799E-05	0	0	0	
0.143167	0.00115872	-0.000543457	5.21158E-05	3.50631E-05	0	0	0	
0.143333	-0.000469945	0.00075761	4.51658E-05	2.28221E-05	0	0	0	
0.1435	-0.000998424	-0.0018488	3.24751E-05	1.95915E-05	0	0	0	
0.143667	0.00178308	8.62306E-05	3.41784E-05	2.63197E-05	0	0	0	
0.143833	-0.0023803	0.00257435	3.45406E-05	3.89377E-05	0	0	0	
0.144	0.00209863	-0.00157233	5.47591E-05	4.55119E-05	0	0	0	
0.144167	-0.00183008	-0.000561719	7.67653E-05	4.92673E-05	0	0	0	
0.144333	0.000318968	0.000559618	9.61592E-05	4.02454E-05	0	0	0	
0.1445	-0.000714193	-1.72611E-05	7.9082E-05	2.80931E-05	0	0	0	
0.144667	0.00186915	0.000434671	5.0968E-05	1.76922E-05	0	0	0	
0.144833	-0.00161114	-0.00111252	3.87692E-05	1.63592E-05	0	0	0	
0.145	0.0020653	-0.00139245	3.87657E-05	2.88475E-05	0	0	0	
0.145167	9.8506E-05	0.0031457	3.71869E-05	3.98898E-05	0	0	0	
0.145333	0.000471155	-0.00219291	2.33994E-05	5.04455E-05	0	0	0	
0.1455	0.000160695	-0.000376327	1.38403E-05	5.10808E-05	0	0	0	
0.145667	-0.000430103	0.000404763	6.28106E-06	3.60614E-05	0	0	0	
0.145833	0.00090211	0.00126375	1.63958E-05	2.46123E-05	0	0	0	
0.146	0.00189234	-0.000852724	2.49668E-05	2.27283E-05	0	0	0	
0.146167	-0.000632333	-0.00031861	2.98868E-05	2.09328E-05	0	0	0	
0.146333	0.000142124	-0.000192764	3.58069E-05	1.70036E-05	0	0	0	
0.1465	0.00114134	0.000633592	3.44202E-05	7.28495E-06	0	0	0	
0.146667	0.00016191	0.000347904	4.08219E-05	1.2204E-05	0	0	0	
0.146833	-0.00328584	-0.00278806	5.14765E-05	2.71907E-05	0	0	0	
0.147	0.00553444	0.000990023	6.98079E-05	3.41723E-05	0	0	0	
0.147167	-0.00234842	0.000124202	8.64809E-05	4.22425E-05	0	0	0	
0.147333	0.00312967	-0.00110404	7.30221E-05	3.28046E-05	0	0	0	
0.1475	-0.00255437	0.000187645	6.97881E-05	2.88992E-05	0	0	0	
0.147667	0.00014	-8.84273E-05	4.66498E-05	1.5536E-05	0	0	0	
0.147833	0.0014879	0.00044355	3.83718E-05	1.09679E-05	0	0	0	
0.148	-0.00213421	0.000370487	3.09792E-05	2.63604E-05	0	0	0	
0.148167	-0.00137117	-0.0052144	3.24975E-05	4.52029E-05	0	0	0	
0.148333	-0.00160094	0.00354043	9.4816E-05	7.5719E-05	0	0	0	
0.1485	0.0121505	0.00241083	0.000173215	0.000103333	0	0	0	
0.148667	-0.00797506	-0.00294013	0.000223079	0.000106909	0	0	0	
0.148833	-0.00897385	-0.00028561	0.000253737	8.93587E-05	0	0	0	
0.149	0.00562162	-0.00113922	0.000198798	4.3519E-05	0	0	0	
0.149167	0.0149378	0.00437808	0.000317585	4.78356E-05	0	0	0	
0.149333	-0.00687852	0.00159162	0.000323351	4.85162E-05	0	0	0	
0.1495	-0.00774179	-0.00443918	0.000433297	7.48652E-05	0	0	0	
0.149667	0.0205293	0.00386006	0.000380327	7.26206E-05	0	0	0	
0.149833	-0.0066488	0.00128362	0.000361131	8.42431E-05	0	0	0	
0.15	-0.00367525	0.000433863	0.00028111	6.41742E-05	0	0	0	
0.150167	0.000563183	-0.0044442	0.000173219	4.82898E-05	0	0	0	
0.150333	0.000785935	0.00330187	0.000115824	6.77869E-05	0	0	0	
0.1505	0.00736247	0.00152127	8.53466E-05	9.97822E-05	0	0	0	
0.150667	-0.00409801	-0.000970004	0.000115544	9.87169E-05	0	0	0	
0.150833	-0.00741491	-0.00146166	0.000174204	7.27475E-05	0	0	0	
0.151	0.0086594	0.00074779	0.000188123	3.67039E-05	0	0	0	
0.151167	0.000527083	7.65284E-05	0.00019556	3.03467E-05	0	0	0	
0.151333	-0.0128529	0.000182233	0.00015116	2.11055E-05	0	0	0	
0.1515	0.00909933	-0.00441214	0.000177645	3.42982E-05	0	0	0	
0.151667	0.00581434	0.00243328	0.000219419	5.30758E-05	0	0	0	
0.151833	-0.0127498	-0.00247615	0.000244165	5.63425E-05	0	0	0	
0.152	0.00611099	0.00120345	0.000224364	6.1824E-05	0	0	0	
0.152167	0.00377052	0.00108318	0.000184644	5.94113E-05	0	0	0	
0.152333	-0.0103813	-0.00457705	0.000151349	6.00346E-05	0	0	0	
0.1525	0.0071766	0.00709705	0.000166489	7.9047E-05	0	0	0	
0.152667	-0.00671943	-0.00774804	0.000165175	0.000108143	0	0	0	
0.152833	0.00189069	0.000396643	0.000161577	0.000148842	0	0	0	
0.153	-0.00145211	0.00737802	9.68606E-05	0.000163466	0	0	0	
0.153167	-0.00113498	-0.00476285	6.57211E-05	0.000150356	0	0	0	
0.153333	0.00309068	-0.000762458	6.29355E-05	0.000122189	0	0	0	
0.1535	-0.00211594	0.00376295	6.21294E-05	8.6339E-05	0	0	0	
0.153667	0.000970423	-0.00252474	7.87493E-05	6.63742E-05	0	0	0	
0.153833	0.00179729	0.00183431	9.19191E-05	6.59716E-05	0	0	0	
0.154	-0.00215314	-0.00286035	9.80973E-05	6.67732E-05	0	0	0	
0.154167	-0.0011489	0.0024262	7.55589E-05	6.53232E-05	0	0	0	
0.154333	0.00300836	0.000230681	4.98614E-05	5.41759E-05	0	0	0	
0.1545	0.00146938	0.00116411	6.09688E-05	4.08216E-05	0	0	0	
0.154667	-0.0126908	-0.00618841	9.63247E-05	5.56238E-05	0	0	0	
0.154833	0.00980982	0.00584998	0.000144604	7.5775E-05	0	0	0	
0.155	0.00425444	0.00287749	0.000277917	0.000121643	0	0	0	
0.155167	-0.0191186	-0.00685224	0.00037213	0.000123492	0	0	0	
0.155333	0.0151891	0.0033468	0.000414408	0.000130837	0	0	0	
0.1555	0.00649105	0.000690818	0.000387111	0.000108409	0	0	0	
0.155667	-0.0106295	0.000264745	0.000300052	8.88397E-05	0	0	0	
0.155833	-0.00320007	0.00124912	0.000276789	7.02673E-05	0	0	0	
0.156	0.00314963	-0.0061769	0.000225802	7.27167E-05	0	0	0	
0.156167	0.00256617	0.00404971	0.000179353	9.28793E-05	0	0	0	
0.156333	0.000699916	0.00472803	0.000135475	0.000119754	0	0	0	
0.1565	-0.00216812	-0.00480147	7.26222E-05	0.000118177	0	0	0	
0.156667	-0.00226419	-2.10723E-05	8.0641E-05	0.000110488	0	0	0	
0.156833	0.01018	0.00132396	8.49778E-05	6.1625E-05	0	0	0	
0.157	-0.00760005	0.00124942	0.000132789	7.1821E-05	0	0	0	
0.157167	-0.00920835	-0.00448472	0.000212436	6.9463E-05	0	0	0	
0.157333	0.0118702	0.000743145	0.000229571	0.000100073	0	0	0	
0.1575	-0.000613787	0.00277257	0.000267496	8.97166E-05	0	0	0	
0.157667	-0.00832772	-0.00109518	0.0002414	7.85497E-05	0	0	0	
0.157833	0.0038261	-0.000351635	0.000217813	5.13838E-05	0	0	0	
0.158	0.00445316	-0.00303956	0.000162649	2.91373E-05	0	0	0	
0.158167	-0.00714704	0.00436453	0.00012147	4.46438E-05	0	0	0	
0.158333	0.00153762	0.000803239	0.000131114	4.71847E-05	0	0	0	
0.1585	0.00334781	-0.00163193	0.000117721	4.61059E-05	0	0	0	
0.158667	-0.0019747	-0.000122162	9.93877E-05	2.54378E-05	0	0	0	
0.158833	-3.64156E-05	0.000144169	6.19144E-05	1.61306E-05	0	0	0	
0.159	-0.0031624	0.00232203	4.12881E-05	1.58972E-05	0	0	0	
0.159167	0.00620861	-0.0038375	6.4741E-05	3.24434E-05	0	0	0	
0.159333	-0.0045135	0.00292828	8.4491E-05	6.33117E-05	0	0	0	
0.1595	-0.00160943	0.00171721	0.000108394	8.75862E-05	0	0	0	
0.159667	0.00300208	-0.00448952	0.000106753	9.10728E-05	0	0	0	
0.159833	-0.00326086	0.00196238	9.42409E-05	7.71742E-05	0	0	0	
0.16	0.00118686	0.000869592	7.82104E-05	5.82214E-05	0	0	0	
0.160167	0.00325422	-0.00170111	7.51898E-05	4.06434E-05	0	0	0	
0.160333	-0.00379487	0.000215765	8.2889E-05	3.35601E-05	0	0	0	
0.1605	0.000827054	0.0014701	7.91349E-05	2.82841E-05	0	0	0	
0.160667	0.00166561	-0.000370843	6.69665E-05	2.99603E-05	0	0	0	
0.160833	-0.00158202	-0.000301449	5.35038E-05	2.29799E-05	0	0	0	
0.161	6.17629E-05	-0.000249314	3.87788E-05	1.671E-05	0	0	0	
0.161167	6.26171E-05	-0.000346731	1.69802E-05	1.14717E-05	0	0	0	
0.161333	0.00277308	0.00130291	1.21693E-05	1.41661E-05	0	0	0	
0.1615	-0.0040371	-0.000136088	2.38231E-05	1.58682E-05	0	0	0	
0.161667	0.00401447	-0.00214841	5.33426E-05	2.43417E-05	0	0	0	
0.161833	-0.00082997	0.000990628	6.35725E-05	2.66619E-05	0	0	0	
0.162	-0.000206506	-4.35889E-06	5.88331E-05	3.83637E-05	0	0	0	
0.162167	-0.00112085	-0.000645453	3.44617E-05	3.37699E-05	0	0	0	
0.162333	0.00110068	-0.000791726	2.55153E-05	2.84731E-05	0	0	0	
0.1625	-6.22893E-06	0.00149602	3.01307E-05	2.06221E-05	0	0	0	
0.162667	0.000527017	-0.000916235	4.51331E-05	2.11721E-05	0	0	0	
0.162833	0.00111275	0.000605513	5.62394E-05	3.24861E-05	0	0	0	
0.163	-8.01006E-05	-0.00239181	4.57225E-05	3.90018E-05	0	0	0	
0.163167	-0.000801797	0.0013444	3.50439E-05	4.27092E-05	0	0	0	
0.163333	-0.000993473	-0.000712658	2.62151E-05	3.38337E-05	0	0	0	
0.1635	0.00225599	0.00107916	3.29664E-05	2.39039E-05	0	0	0	
0.163667	-0.00277139	-0.000622612	3.75972E-05	1.5923E-05	0	0	0	
0.163833	-0.00163615	1.89261E-05	4.19063E-05	1.563E-05	0	0	0	
0.164	0.00230035	3.01193E-05	4.36065E-05	1.41817E-05	0	0	0	
0.164167	-2.96188E-05	0.000428019	4.5676E-05	2.32437E-05	0	0	0	
0.164333	-0.00100503	-0.000551441	4.12307E-05	2.55352E-05	0	0	0	
0.1645	0.000944709	0.000255736	3.38999E-05	2.29317E-05	0	0	0	
0.164667	0.00158037	0.000175048	2.24281E-05	1.2391E-05	0	0	0	
0.164833	-0.00308336	0.00112365	2.72006E-05	1.14652E-05	0	0	0	
0.165	0.00263453	0.000714342	4.47046E-05	1.958E-05	0	0	0	
0.165167	-0.000345241	-0.00177672	5.04265E-05	2.35881E-05	0	0	0	
0.165333	7.85405E-05	0.0014148	4.34094E-05	3.17534E-05	0	0	0	
0.1655	0.000461436	-0.00046544	2.28457E-05	3.14646E-05	0	0	0	
0.165667	0.00175973	0.000474423	1.64889E-05	3.1065E-05	0	0	0	
0.165833	-0.00294053	0.000700813	2.61887E-05	2.44985E-05	0	0	0	
0.166	0.00421128	-0.00176531	5.63815E-05	2.79303E-05	0	0	0	
0.166167	-0.000584298	0.00129348	6.89197E-05	2.93885E-05	0	0	0	
0.166333	-0.00116822	0.000180968	5.79482E-05	3.08944E-05	0	0	0	
0.1665	0.000996385	-0.000358547	3.11954E-05	2.2713E-05	0	0	0	
0.166667	4.2638E-06	0.000115403	2.0447E-05	1.63836E-05	0	0	0	
0.166833	-0.00138035	0.000144664	1.97511E-05	8.04544E-06	0	0	0	
0.167	0.00237777	-5.01594E-05	2.55789E-05	4.71743E-06	0	0	0	
0.167167	-0.00126252	0.000897593	4.07915E-05	9.92271E-06	0	0	0	
0.167333	-0.000665291	-0.000419898	5.00509E-05	1.50687E-05	0	0	0	
0.1675	0.00274358	-0.000283247	5.43556E-05	2.88729E-05	0	0	0	
0.167667	-0.000455348	0.000519933	5.68749E-05	2.92131E-05	0	0	0	
0.167833	-0.00129571	0.000326863	6.24112E-05	2.44172E-05	0	0	0	
0.168	0.00281623	-0.000548568	5.97235E-05	1.81397E-05	0	0	0	
0.168167	-0.00474852	-0.00168519	5.51728E-05	2.41672E-05	0	0	0	
0.168333	0.00111958	0.00189787	5.91195E-05	3.56632E-05	0	0	0	
0.1685	0.00277726	0.000144662	6.29311E-05	3.60743E-05	0	0	0	
0.168667	-0.00406945	-0.000530438	6.42668E-05	2.80252E-05	0	0	0	
0.168833	0.00118347	0.000174265	6.06012E-05	1.72299E-05	0	0	0	
0.169	0.00244546	-0.00148491	6.45565E-05	1.14944E-05	0	0	0	
0.169167	-0.00177593	0.00197453	6.15446E-05	1.9621E-05	0	0	0	
0.169333	-0.00228612	0.000171776	5.90459E-05	3.06826E-05	0	0	0	
0.1695	0.00277239	-0.000580716	7.61096E-05	4.26431E-05	0	0	0	
0.169667	-0.00360433	0.000607705	8.8541E-05	3.35646E-05	0	0	0	
0.169833	0.00141058	0.000440892	8.58326E-05	2.41339E-05	0	0	0	
0.17	0.000758264	-0.000275399	5.55801E-05	1.13968E-05	0	0	0	
0.170167	-0.000508294	-0.000844278	3.34757E-05	1.67534E-05	0	0	0	
0.170333	-0.00291087	0.000833843	2.88895E-05	1.72778E-05	0	0	0	
0.1705	0.00118096	-0.000435161	3.94167E-05	2.28731E-05	0	0	0	
0.170667	-0.00181048	0.000408332	4.43832E-05	2.10585E-05	0	0	0	
0.170833	-0.00240627	-0.000521157	5.68138E-05	2.12968E-05	0	0	0	
0.171	0.00346301	0.000220972	5.78651E-05	1.48237E-05	0	0	0	
0.171167	-0.00255772	0.000140591	6.4248E-05	9.22996E-06	0	0	0	
0.171333	-0.00125487	-0.00057763	6.62535E-05	9.72486E-06	0	0	0	
0.1715	0.00136459	-0.00102447	7.58562E-05	1.57907E-05	0	0	0	
0.171667	-0.00386945	0.00246646	7.75558E-05	2.94457E-05	0	0	0	
0.171833	-0.000368155	-0.000805745	6.4067E-05	3.32341E-05	0	0	0	
0.172	0.00188295	-0.000209727	5.16115E-05	2.9666E-05	0	0	0	
0.172167	-0.00310897	-3.59201E-05	4.9149E-05	1.67547E-05	0	0	0	
0.172333	0.00195174	0.00139884	5.20089E-05	1.32923E-05	0	0	0	
0.1725	-0.00139299	-0.00161758	4.77821E-05	1.80576E-05	0	0	0	
0.172667	-0.000347825	0.00215731	3.79414E-05	3.37286E-05	0	0	0	
0.172833	0.00189972	0.000165193	3.28596E-05	3.73872E-05	0	0	0	
0.173	-0.000927624	-0.000675401	4.43469E-05	3.23982E-05	0	0	0	
0.173167	-0.00393255	1.77551E-05	9.22929E-05	2.1096E-05	0	0	0	
0.173333	0.0114674	0.00231757	0.000144581	2.82972E-05	0	0	0	
0.1735	-0.00547989	-0.00273261	0.000208412	3.53067E-05	0	0	0	
0.173667	-0.040338	-0.00428087	0.000492864	8.82293E-05	0	0	0	
0.173833	-0.0548949	-0.0192329	0.00120809	0.000242771	0	0	0	
0.174	0.00568765	0.00643021	0.00120644	0.000380276	0	0	0	
0.174167	-0.0168558	-0.00182893	0.000937622	0.000393134	0	0	0	
0.174333	0.0157662	-0.000306059	0.000263568	0.00023752	0	0	0	
0.1745	-0.00126736	-0.00444187	0.000327351	0.000108145	0	0	0	
0.174667	0.0062534	0.00563167	0.000449509	8.03001E-05	0	0	0	
0.174833	0.0110253	0.000954188	0.000469187	0.000122139	0	0	0	
0.175	-0.00879553	-0.00633877	0.000372661	0.00014926	0	0	0	
0.175167	0.00151655	0.00389321	0.000260141	0.000133333	0	0	0	
0.175333	0.0094077	-0.000404346	0.000204544	9.73617E-05	0	0	0	
0.1755	-0.00615959	-0.000509335	0.000200511	5.41304E-05	0	0	0	
0.175667	-0.00582299	-0.0010738	0.000202614	3.086E-05	0	0	0	
0.175833	0.0113649	0.00133685	0.000196573	1.70309E-05	0	0	0	
0.176	-0.00596103	-0.00158794	0.000201765	2.27091E-05	0	0	0	
0.176167	-0.00580364	-0.000329704	0.000189459	3.14759E-05	0	0	0	
0.176333	0.0141472	0.00135752	0.000189428	3.71977E-05	0	0	0	
0.1765	-0.00825217	0.00027423	0.000216017	3.32187E-05	0	0	0	
0.176667	-0.00566434	-0.00174415	0.000221124	2.38232E-05	0	0	0	
0.176833	0.00714423	-0.00111905	0.000198135	3.06499E-05	0	0	0	
0.177	-0.00022618	0.00262686	0.000154137	3.90552E-05	0	0	0	
0.177167	-0.00707298	-0.000451245	0.000101253	5.12893E-05	0	0	0	
0.177333	0.00364765	-0.000698374	0.000122423	4.23318E-05	0	0	0	
0.1775	0.000922556	-0.00102382	0.00011915	3.57132E-05	0	0	0	
0.177667	-9.79552E-05	0.00114969	0.000112645	2.57408E-05	0	0	0	
0.177833	-0.00402778	0.00125544	8.98365E-05	3.14276E-05	0	0	0	
0.178	0.00538697	-0.00136186	8.25158E-05	3.05763E-05	0	0	0	
0.178167	-0.00295193	-0.000902622	0.000121882	3.78046E-05	0	0	0	
0.178333	0.00147332	0.00167714	0.000125771	2.82563E-05	0	0	0	
0.1785	-0.000558514	-3.69456E-05	0.000120757	3.75341E-05	0	0	0	
0.178667	0.00380352	-0.00108687	0.000102546	3.16797E-05	0	0	0	
0.178833	-0.00358957	0.000190787	8.93064E-05	3.27475E-05	0	0	0	
0.179	0.00124023	0.000956645	8.65437E-05	3.12405E-05	0	0	0	
0.179167	0.001519	-0.00108253	7.28571E-05	3.18271E-05	0	0	0	
0.179333	-0.00576468	-0.000588862	7.36037E-05	3.24206E-05	0	0	0	
0.1795	0.0106366	0.00384491	0.000105016	3.49729E-05	0	0	0	
0.179667	-0.00115186	-0.00292111	0.000227161	4.86875E-05	0	0	0	
0.179833	-0.0128072	-0.000779318	0.000360232	8.04575E-05	0	0	0	
0.18	0.0056234	0.00198606	0.000367992	8.66421E-05	0	0	0	
0.180167	0.0185377	-0.00138064	0.000406862	7.44315E-05	0	0	0	
0.180333	-0.0188706	0.00318923	0.000352749	4.76403E-05	0	0	0	
0.1805	-4.49958E-05	-0.00093677	0.000416836	4.52573E-05	0	0	0	
0.180667	0.000167275	-0.00563625	0.000273813	8.74612E-05	0	0	0	
0.180833	0.0104932	0.00812119	0.000211317	0.000114322	0	0	0	
0.181	-0.00349188	-0.00228315	0.000141531	0.000140391	0	0	0	
0.181167	-0.005235	-0.00118057	0.000126716	0.000122336	0	0	0	
0.181333	-0.000398457	0.000170207	0.000172609	9.10037E-05	0	0	0	
0.1815	-0.00138661	-0.00247007	0.000161025	6.79553E-05	0	0	0	
0.181667	0.0104905	0.00564936	0.000175995	5.72196E-05	0	0	0	
0.181833	0.0669569	0.00705101	0.000411901	0.000115172	0	0	0	
0.182	0.128195	0.0097505	0.00219879	0.000299464	0	0	0	
0.182167	-0.0127997	0.000787521	0.00338774	0.00038078	0	0	0	
0.182333	-0.00991828	0.000840158	0.00341091	0.000326919	0	0	0	
0.1825	-0.015412	-0.00213568	0.00164549	0.000135474	0	0	0	
0.182667	0.0434037	0.00141913	0.000606927	4.23804E-05	0	0	0	
0.182833	-0.0466112	-0.00124025	0.000536387	4.84147E-05	0	0	0	
0.183	-0.0629732	-0.00813406	0.00121254	0.000109844	0	0	0	
0.183167	-0.163269	-0.0149506	0.00317459	0.000315947	0	0	0	
0.183333	0.0250969	-0.00141749	0.0034106	0.000337525	0	0	0	
0.1835	-0.00496823	0.00667579	0.00282242	0.000288333	0	0	0	
0.183667	0.0163993	-0.00421086	0.00086284	0.00010629	0	0	0	
0.183833	-0.0337629	-0.00344554	0.000664097	0.000116871	0	0	0	
0.184	0.0259593	0.00504957	0.00074663	0.000122395	0	0	0	
0.184167	-0.0123504	-0.0011925	0.000662873	0.000114928	0	0	0	
0.184333	0.00401323	-0.00138497	0.000556951	0.00010013	0	0	0	
0.1845	0.00917593	9.34076E-05	0.000493477	8.40961E-05	0	0	0	
0.184667	-0.0195002	-0.00124344	0.000468503	7.89884E-05	0	0	0	
0.184833	0.0231451	0.00488564	0.000394843	7.58587E-05	0	0	0	
0.185	-0.0166461	-0.00503838	0.00039966	8.62675E-05	0	0	0	
0.185167	0.000430084	-0.000520908	0.000474924	0.000105239	0	0	0	
0.185333	0.0108128	0.00227537	0.000459726	9.38834E-05	0	0	0	
0.1855	-0.00943686	0.00139061	0.000352346	7.83523E-05	0	0	0	
0.185667	0.00347229	-0.00257251	0.000237919	4.75906E-05	0	0	0	
0.185833	0.00469662	-0.00115941	0.000172592	5.36143E-05	0	0	0	
0.186	-0.00879925	0.00203592	0.000153859	5.21982E-05	0	0	0	
0.186167	0.00672574	0.000590828	0.000151402	5.3497E-05	0	0	0	
0.186333	-0.00190849	3.37802E-05	0.000126769	2.82093E-05	0	0	0	
0.1865	-0.00257839	-0.00227073	0.000116125	2.90185E-05	0	0	0	
0.186667	0.00466437	0.000291947	9.82952E-05	2.72419E-05	0	0	0	
0.186833	-0.000374854	0.0016692	8.55581E-05	3.9109E-05	0	0	0	
0.187	-0.00265139	0.000401663	7.26865E-05	3.99345E-05	0	0	0	
0.187167	0.00352615	-0.00241279	7.10079E-05	4.13502E-05	0	0	0	
0.187333	-0.00188725	-0.000371133	7.14236E-05	4.55994E-05	0	0	0	
0.1875	-0.00220596	0.00239941	6.08505E-05	5.19603E-05	0	0	0	
0.187667	0.000997688	-0.000793945	4.79828E-05	5.28951E-05	0	0	0	
0.187833	0.00240647	-0.00168884	4.08119E-05	5.10919E-05	0	0	0	
0.188	-0.00380023	-0.000298816	5.01788E-05	3.62661E-05	0	0	0	
0.188167	0.00278759	0.00171311	5.45194E-05	2.91833E-05	0	0	0	
0.188333	0.000134925	0.000350078	7.56631E-05	3.10955E-05	0	0	0	
0.1885	-0.00600485	-0.00204858	8.4412E-05	4.2049E-05	0	0	0	
0.188667	0.0039836	0.000897521	9.6908E-05	4.46183E-05	0	0	0	
0.188833	0.000880575	-0.000183713	0.000115088	3.0568E-05	0	0	0	
0.189	-0.00316395	0.000885155	0.000132303	1.89243E-05	0	0	0	
0.189167	0.00309833	-0.000577066	0.000125492	1.68456E-05	0	0	0	
0.189333	-0.000572161	-0.00139215	8.74971E-05	2.83789E-05	0	0	0	
0.1895	-0.000547171	0.00182284	4.78989E-05	3.63036E-05	0	0	0	
0.189667	0.000826334	-0.000639272	3.6836E-05	3.67425E-05	0	0	0	
0.189833	-0.000518597	-7.01128E-05	5.32514E-05	2.42805E-05	0	0	0	
0.19	-0.00116065	0.000166368	7.06905E-05	1.41814E-05	0	0	0	
0.190167	0.00186838	-0.000564234	7.50675E-05	1.27906E-05	0	0	0	
0.190333	0.000991201	0.00103749	5.60108E-05	1.5547E-05	0	0	0	
0.1905	-0.000906566	-0.000831543	3.33241E-05	1.90301E-05	0	0	0	
0.190667	0.00135205	0.000208002	3.01358E-05	1.73982E-05	0	0	0	
0.190833	-0.00143374	-0.000773945	3.49728E-05	1.49949E-05	0	0	0	
0.191	0.00149525	0.00114906	3.94408E-05	1.61865E-05	0	0	0	
0.191167	-0.00289106	5.74808E-05	4.28422E-05	1.58324E-05	0	0	0	
0.191333	0.00296693	-0.000697635	4.42333E-05	1.49579E-05	0	0	0	
0.1915	-0.00149981	4.29114E-05	6.45837E-05	1.21846E-05	0	0	0	
0.191667	-0.000201029	0.000391919	7.51983E-05	8.8903E-06	0	0	0	
0.191833	0.00274608	0.000827488	6.51697E-05	1.33112E-05	0	0	0	
0.192	-0.000169856	-0.00135124	5.57647E-05	1.60186E-05	0	0	0	
0.192167	-0.00346511	0.000255766	6.17877E-05	2.2009E-05	0	0	0	
0.192333	0.00369117	-0.000155545	8.23883E-05	1.47077E-05	0	0	0	
0.1925	-0.00167601	0.000981592	7.84123E-05	1.34323E-05	0	0	0	
0.192667	-0.000142442	-0.000117012	5.23781E-05	1.26425E-05	0	0	0	
0.192833	-0.00116459	-0.00144389	3.37667E-05	2.15886E-05	0	0	0	
0.193	0.00300312	0.000779843	2.38625E-05	2.48084E-05	0	0	0	
0.193167	-0.00293655	0.00114451	3.64055E-05	3.26024E-05	0	0	0	
0.193333	0.000970288	-0.000536425	4.14696E-05	2.78187E-05	0	0	0	
0.1935	0.000379666	-0.000573158	4.11722E-05	2.53554E-05	0	0	0	
0.193667	-0.00138972	0.000302786	3.24507E-05	1.57004E-05	0	0	0	
0.193833	-0.00167388	0.000844658	3.32501E-05	1.67574E-05	0	0	0	
0.194	0.00244398	-0.00038462	4.86659E-05	1.6041E-05	0	0	0	
0.194167	-0.00287568	-0.00061901	5.88934E-05	1.88106E-05	0	0	0	
0.194333	0.00173062	0.000459594	6.84282E-05	1.58078E-05	0	0	0	
0.1945	-5.78191E-06	0.000702566	4.88732E-05	1.76576E-05	0	0	0	
0.194667	-0.00147975	-0.00065051	4.75821E-05	1.44454E-05	0	0	0	
0.194833	-0.00038311	-0.000793517	3.26631E-05	2.08308E-05	0	0	0	
0.195	0.00342465	0.00141771	5.96766E-05	2.03187E-05	0	0	0	
0.195167	-0.000840692	0.000739022	5.47556E-05	3.28278E-05	0	0	0	
0.195333	-0.00962475	-0.00466842	8.50136E-05	4.68703E-05	0	0	0	
0.1955	0.0119455	0.00350604	0.00012665	6.68999E-05	0	0	0	
0.195667	0.0118235	0.0045032	0.000262519	0.000110362	0	0	0	
0.195833	-0.0212684	-0.00868195	0.000328513	0.000128836	0	0	0	
0.196	-0.00467782	0.00120545	0.000438505	0.000151358	0	0	0	
0.196167	0.027538	0.00550999	0.000443404	0.000131948	0	0	0	
0.196333	-0.00504118	-0.00177553	0.000507267	0.000118483	0	0	0	
0.1965	-0.0252994	-0.000446303	0.000537078	8.66205E-05	0	0	0	
0.196667	0.0137326	-0.00434228	0.00051416	6.54547E-05	0	0	0	
0.196833	0.0155154	0.00175356	0.000554862	7.21768E-05	0	0	0	
0.197	-0.0129378	0.00850643	0.000420974	0.000135502	0	0	0	
0.197167	-0.00533505	-0.00647155	0.000398132	0.000155746	0	0	0	
0.197333	0.00350031	-0.00677483	0.000217378	0.000207563	0	0	0	
0.1975	0.00327284	0.00934867	0.00016503	0.000173428	0	0	0	
0.197667	0.0060768	0.00168693	0.000103216	0.000207816	0	0	0	
0.197833	-0.0134153	-0.0058686	0.000137066	0.000163114	0	0	0	
0.198	0.00364427	0.000625682	0.000182053	0.000152731	0	0	0	
0.198167	0.00821708	0.00407937	0.000223893	0.000111105	0	0	0	
0.198333	-0.00728477	-0.00132759	0.000201418	8.90216E-05	0	0	0	
0.1985	-0.0052203	-0.00208407	0.000229782	8.2895E-05	0	0	0	
0.198667	0.00979273	0.00139358	0.000197693	6.00771E-05	0	0	0	
0.198833	-0.000378519	0.000627449	0.00023201	4.86655E-05	0	0	0	
0.199	-0.00610906	0.000632141	0.000213922	2.59945E-05	0	0	0	
0.199167	-0.00480233	-0.00241477	0.000200501	2.87826E-05	0	0	0	
0.199333	0.0139857	4.48312E-05	0.000250286	3.2327E-05	0	0	0	
0.1995	-0.0129362	0.00309753	0.000252427	4.12772E-05	0	0	0	
0.199667	0.00109052	-0.00139585	0.000287725	4.75767E-05	0	0	0	
0.199833	0.0121369	-0.00279361	0.000247674	6.59516E-05	0	0	0	
0.2	-0.00918501	0.00243282	0.000228129	6.48885E-05	0	0	0	
0.200167	-0.00878205	0.00141277	0.000292285	6.61541E-05	0	0	0	
0.200333	0.0249724	0.00036241	0.000354812	3.98941E-05	0	0	0	
0.2005	-0.17457	-0.0343409	0.000695616	8.29324E-05	0	0	0	
0.200667	0.00837679	0.0207226	0.00116392	0.000290659	0	0	0	
0.200833	-0.0015919	-0.0141337	0.00106093	0.000366187	0	0	0	
0.201	0.00181029	0.00479919	0.000691929	0.000380238	0	0	0	
0.201167	-0.00865829	-0.00136601	0.000146313	0.000169836	0	0	0	
0.201333	0.0201865	0.00455365	0.000163268	0.000110075	0	0	0	
0.2015	-0.00932733	0.000184028	0.000263593	5.14135E-05	0	0	0	
0.201667	0.00548086	-0.00274778	0.000265231	5.79014E-05	0	0	0	
0.201833	-0.00584665	-0.00178074	0.000257996	4.70142E-05	0	0	0	
0.202	0.00486534	0.00544458	0.000148246	6.89495E-05	0	0	0	
0.202167	0.000567712	-0.00450735	0.000138875	7.29192E-05	0	0	0	
0.202333	-0.00780836	0.000238033	0.000139959	9.20267E-05	0	0	0	
0.2025	0.00381945	0.00418594	0.000187416	9.47435E-05	0	0	0	
0.202667	0.0142036	-0.00374589	0.000289615	9.23476E-05	0	0	0	
0.202833	-0.0193285	-0.000231046	0.000352428	7.66226E-05	0	0	0	
0.203	0.0033463	-0.00137623	0.000353898	4.4996E-05	0	0	0	
0.203167	0.00945291	0.00148456	0.000281656	3.38455E-05	0	0	0	
0.203333	-0.00567501	0.000684973	0.000199566	2.48894E-05	0	0	0	
0.2035	0.00405552	-0.000211785	0.000184727	2.9605E-05	0	0	0	
0.203667	-0.000450256	-0.00230111	0.00014628	5.29828E-05	0	0	0	
0.203833	-0.00124398	0.00450593	0.000181284	7.28676E-05	0	0	0	
0.204	0.0125411	0.00328509	0.000186175	9.41118E-05	0	0	0	
0.204167	-0.00759838	-0.00641185	0.000201409	8.88925E-05	0	0	0	
0.204333	-0.00376936	0.00328923	0.000204057	0.000100402	0	0	0	
0.2045	0.00768369	0.000171882	0.000174269	9.16721E-05	0	0	0	
0.204667	-0.00145853	0.00176549	0.000146537	6.55236E-05	0	0	0	
0.204833	-0.00398146	-0.00257473	8.68438E-05	4.7628E-05	0	0	0	
0.205	0.0060455	0.00243657	0.000100633	3.78945E-05	0	0	0	
0.205167	-0.00109466	-0.000935919	9.89943E-05	4.05932E-05	0	0	0	
0.205333	-0.00628811	0.00206728	0.000116815	3.49116E-05	0	0	0	
0.2055	0.00245719	-0.00127192	0.000118388	3.10149E-05	0	0	0	
0.205667	0.00329114	0.000290878	0.000110473	2.88842E-05	0	0	0	
0.205833	-0.00117689	0.00119044	0.000112212	2.70147E-05	0	0	0	
0.206	-0.00246157	-0.00232986	0.000118346	2.43519E-05	0	0	0	
0.206167	0.00266851	0.00186879	9.77943E-05	3.1061E-05	0	0	0	
0.206333	0.00105255	0.000204167	0.00011056	2.63867E-05	0	0	0	
0.2065	-0.0022213	-5.12906E-05	8.44782E-05	2.21125E-05	0	0	0	
0.206667	-0.000139772	0.000302547	8.52732E-05	1.2084E-05	0	0	0	
0.206833	0.00336447	-0.000419456	5.35885E-05	8.31453E-06	0	0	0	
0.207	-0.00475847	-0.000759307	5.40405E-05	1.6219E-05	0	0	0	
0.207167	0.000370262	0.00211743	9.06988E-05	3.15594E-05	0	0	0	
0.207333	0.00450034	-0.00216436	0.00013231	4.47851E-05	0	0	0	
0.2075	-0.00657261	0.000165605	0.000141708	4.26423E-05	0	0	0	
0.207667	0.00330293	0.000588192	0.000129316	3.07829E-05	0	0	0	
0.207833	0.00251801	-0.000473176	0.000111028	2.02285E-05	0	0	0	
0.208	-0.00552608	0.00137936	9.39751E-05	1.6112E-05	0	0	0	
0.208167	0.00477982	-0.00106734	0.000101313	1.71617E-05	0	0	0	
0.208333	-0.00339117	0.000540821	0.000109894	2.85231E-05	0	0	0	
0.2085	-0.000845577	0.000615764	0.000106301	3.34252E-05	0	0	0	
0.208667	0.00410698	1.7405E-05	8.30265E-05	2.82737E-05	0	0	0	
0.208833	-0.00149671	-0.0003203	5.85981E-05	1.74808E-05	0	0	0	
0.209	-0.000158508	0.000179722	4.64305E-05	1.01191E-05	0	0	0	
0.209167	0.00038613	-0.000555306	3.18422E-05	1.68469E-05	0	0	0	
0.209333	-0.000406963	0.00178411	1.63732E-05	2.86859E-05	0	0	0	
0.2095	-0.00211582	-0.00197818	1.48639E-05	4.18218E-05	0	0	0	
0.209667	0.00303877	0.00215689	2.7584E-05	4.42166E-05	0	0	0	
0.209833	-0.00167397	-0.000966183	3.90833E-05	3.85034E-05	0	0	0	
0.21	0.000470076	0.000480883	4.12252E-05	2.7834E-05	0	0	0	
0.210167	0.000103771	-0.000622294	3.95163E-05	1.98687E-05	0	0	0	
0.210333	-0.00195249	0.000471223	2.75426E-05	1.28077E-05	0	0	0	
0.2105	0.00180229	0.000430089	3.90768E-05	2.19478E-05	0	0	0	
0.210667	-0.000283481	-0.00204115	5.51026E-05	3.24813E-05	0	0	0	
0.210833	-0.000715137	0.00235931	7.0394E-05	3.95646E-05	0	0	0	
0.211	0.000754128	-0.00106923	5.69892E-05	4.37783E-05	0	0	0	
0.211167	0.000865422	-0.00014854	3.96674E-05	4.13389E-05	0	0	0	
0.211333	-0.00156658	0.000627319	2.44071E-05	3.66789E-05	0	0	0	
0.2115	0.00113209	-0.00129677	3.85174E-05	2.44689E-05	0	0	0	
0.211667	0.00170876	0.00131184	5.77105E-05	2.1922E-05	0	0	0	
0.211833	-0.00308872	1.97351E-05	7.62822E-05	2.69959E-05	0	0	0	
0.212	0.00283674	-0.00130038	7.20778E-05	3.12458E-05	0	0	0	
0.212167	-0.000275636	0.000778343	5.61788E-05	2.78334E-05	0	0	0	
0.212333	-0.00176203	0.000311977	4.52577E-05	2.18817E-05	0	0	0	
0.2125	0.00173055	-0.00128878	3.78796E-05	1.97246E-05	0	0	0	
0.212667	6.68252E-05	0.00198812	4.13906E-05	2.33916E-05	0	0	0	
0.212833	-0.00114952	-0.00307852	5.4709E-05	3.52028E-05	0	0	0	
0.213	0.000276953	0.00103146	6.32378E-05	4.34508E-05	0	0	0	
0.213167	-0.000946434	0.00017481	4.72552E-05	4.81571E-05	0	0	0	
0.213333	4.53755E-05	-0.000669971	2.78061E-05	3.84821E-05	0	0	0	
0.2135	0.00041792	0.000418866	1.27356E-05	2.6801E-05	0	0	0	
0.213667	-2.18568E-05	0.00084924	1.73426E-05	2.39484E-05	0	0	0	
0.213833	0.000395238	-0.00299816	2.42156E-05	2.99013E-05	0	0	0	
0.214	0.000421514	0.00147954	2.99826E-05	4.23536E-05	0	0	0	
0.214167	-0.000819312	5.96076E-05	2.50829E-05	3.35089E-05	0	0	0	
0.214333	0.000132331	-0.000119204	1.59907E-05	2.12766E-05	0	0	0	
0.2145	3.4371E-05	0.000155648	1.47891E-05	5.13323E-06	0	0	0	
0.214667	0.000672235	-0.00149528	2.17138E-05	7.84883E-06	0	0	0	
0.214833	-0.000272825	0.00183072	2.40559E-05	1.80328E-05	0	0	0	
0.215	-0.000162889	-0.00182278	2.10523E-05	3.16258E-05	0	0	0	
0.215167	0.000166594	0.000365842	1.14696E-05	4.08407E-05	0	0	0	
0.215333	0.000711313	0.00061156	1.20182E-05	3.87765E-05	0	0	0	
0.2155	-0.000532112	-0.000418248	2.02867E-05	2.74975E-05	0	0	0	
0.215667	0.000194433	0.000131587	2.56714E-05	1.49201E-05	0	0	0	
0.215833	0.00159234	-0.000430405	2.20004E-05	7.38052E-06	0	0	0	
0.216	-0.0038347	-0.00023593	3.06101E-05	7.36479E-06	0	0	0	
0.216167	0.00232962	0.00169447	4.0641E-05	1.20216E-05	0	0	0	
0.216333	0.000620728	-0.00182141	4.78019E-05	2.13713E-05	0	0	0	
0.2165	-0.00210257	0.000648781	4.74257E-05	2.83401E-05	0	0	0	
0.216667	0.00147226	0.000538257	4.31603E-05	2.89693E-05	0	0	0	
0.216833	0.000378289	0.000269153	4.54459E-05	2.09775E-05	0	0	0	
0.217	-0.00135882	-0.00176078	4.52001E-05	1.78232E-05	0	0	0	
0.217167	-0.000877316	0.00222998	4.28045E-05	2.44482E-05	0	0	0	
0.217333	0.00234075	0.000407506	5.01199E-05	3.4333E-05	0	0	0	
0.2175	-0.000906039	-0.000992423	4.35538E-05	3.33953E-05	0	0	0	
0.217667	0.000138816	0.000251669	3.62375E-05	2.40782E-05	0	0	0	
0.217833	-0.00026448	-7.61264E-05	1.64619E-05	1.24996E-05	0	0	0	
0.218	0.00230498	0.00168337	1.67011E-05	1.09366E-05	0	0	0	
0.218167	0.00176747	-0.00218141	2.41185E-05	2.03225E-05	0	0	0	
0.218333	0.000863042	0.00216891	4.13867E-05	3.61266E-05	0	0	0	
0.2185	-0.00695967	-0.00284766	6.96219E-05	4.84074E-05	0	0	0	
0.218667	0.00824536	0.00267987	0.000107742	5.26785E-05	0	0	0	
0.218833	0.00592858	0.00113814	0.000158296	4.78816E-05	0	0	0	
0.219	-0.0024729	-1.954E-05	0.000163038	4.39952E-05	0	0	0	
0.219167	-0.0250827	-0.00684639	0.000290845	6.61229E-05	0	0	0	
0.219333	0.0271814	0.00571453	0.00036716	8.93394E-05	0	0	0	
0.2195	0.00938343	0.00546719	0.000579636	0.000130593	0	0	0	
0.219667	-0.0334691	-0.00638851	0.00057582	0.000124103	0	0	0	
0.219833	0.0150239	0.00163129	0.000634564	0.000149151	0	0	0	
0.22	0.00904673	-0.000230757	0.000575631	0.000124255	0	0	0	
0.220167	-0.00361453	0.00316371	0.000441739	0.000102581	0	0	0	
0.220333	-0.00771982	0.00157427	0.000266151	0.000109949	0	0	0	
0.2205	-0.00144675	-0.00976934	0.000141446	0.00015118	0	0	0	
0.220667	0.00824647	0.00386285	0.00014252	0.000200587	0	0	0	
0.220833	0.00914534	0.0108653	0.000211138	0.000244528	0	0	0	
0.221	-0.0133093	-0.0105251	0.0002176	0.000243949	0	0	0	
0.221167	-0.00202831	7.86289E-05	0.000265013	0.000233801	0	0	0	
0.221333	0.0211804	0.000268648	0.00024896	0.000131463	0	0	0	
0.2215	-0.0213352	0.00418633	0.00031753	8.70851E-05	0	0	0	
0.221667	0.00926161	0.00470569	0.000389232	6.09476E-05	0	0	0	
0.221833	0.00710038	-0.00737594	0.000350018	9.60194E-05	0	0	0	
0.222	-0.00615471	0.0031122	0.000300598	0.000109434	0	0	0	
0.222167	-0.00199377	0.00308674	0.000177282	0.000140999	0	0	0	
0.222333	0.00369275	-0.000694419	0.000166543	0.000105023	0	0	0	
0.2225	-0.00683553	-0.0051695	0.000130877	8.92971E-05	0	0	0	
0.222667	0.0110831	0.00387726	0.000234468	6.45505E-05	0	0	0	
0.222833	-0.00916454	0.00518595	0.000368427	9.36698E-05	0	0	0	
0.223	0.00172017	-0.00257525	0.000342679	0.000108141	0	0	0	
0.223167	0.00315012	-0.00294124	0.000313216	0.000109456	0	0	0	
0.223333	-0.00446832	0.00193906	0.000232132	8.61856E-05	0	0	0	
0.2235	-0.0014757	0.000513227	0.000226445	6.13727E-05	0	0	0	
0.223667	0.0110888	0.00174136	0.000180814	4.46883E-05	0	0	0	
0.223833	-0.0102231	-0.00406894	0.000155956	5.60063E-05	0	0	0	
0.224	0.0024835	1.14497E-05	0.000207932	6.04285E-05	0	0	0	
0.224167	0.00486976	0.00301613	0.00023824	7.80581E-05	0	0	0	
0.224333	-0.0047878	-0.0015525	0.000221483	6.56845E-05	0	0	0	
0.2245	0.00217882	-0.000121737	0.000172978	5.56734E-05	0	0	0	
0.224667	0.00448531	-0.00315685	0.00013059	3.25547E-05	0	0	0	
0.224833	-0.00386341	0.00560731	0.000115336	5.17574E-05	0	0	0	
0.225	-0.000694629	-0.00322113	0.000142135	7.12524E-05	0	0	0	
0.225167	0.011379	0.00207347	0.000150575	7.62927E-05	0	0	0	
0.225333	-0.0149974	-0.00298991	0.000225402	6.18702E-05	0	0	0	
0.2255	-0.00280217	0.00138285	0.000269756	4.81764E-05	0	0	0	
0.225667	0.00411575	-0.00109078	0.000238065	3.93185E-05	0	0	0	
0.225833	0.0172355	0.00280933	0.00025652	3.48853E-05	0	0	0	
0.226	-0.0219409	-0.00110105	0.000258386	3.32412E-05	0	0	0	
0.226167	-0.00198719	-0.000783324	0.000403979	3.44586E-05	0	0	0	
0.226333	0.00875559	-0.00237743	0.000381844	5.11802E-05	0	0	0	
0.2265	-0.000251128	0.00314418	0.000353831	7.88066E-05	0	0	0	
0.226667	-0.00403173	0.000116088	0.000266047	7.77603E-05	0	0	0	
0.226833	0.000552508	-0.00148677	0.000175208	5.20973E-05	0	0	0	
0.227	-0.00374102	-0.00370732	0.000114599	6.02566E-05	0	0	0	
0.227167	0.0107311	0.0067917	9.30618E-05	0.000102496	0	0	0	
0.227333	-0.00847928	3.07345E-05	0.000148737	0.000121506	0	0	0	
0.2275	-0.00581113	-0.00526756	0.000212991	0.000111526	0	0	0	
0.227667	0.00765754	0.00296221	0.000207275	8.79595E-05	0	0	0	
0.227833	0.00172819	0.000170986	0.000184688	8.2197E-05	0	0	0	
0.228	-0.00883453	0.00278799	0.000133082	5.14692E-05	0	0	0	
0.228167	0.00122869	-0.00411504	0.000134394	4.87819E-05	0	0	0	
0.228333	0.00707808	0.000123309	0.000180154	5.12267E-05	0	0	0	
0.2285	-0.0119633	0.00344006	0.000207277	5.83061E-05	0	0	0	
0.228667	0.00055555	-9.98852E-07	0.000213535	6.24377E-05	0	0	0	
0.228833	0.00479075	-0.00180317	0.000174282	6.18291E-05	0	0	0	
0.229	-0.00153006	-0.000200607	0.000135883	5.59919E-05	0	0	0	
0.229167	-0.00499218	0.00163477	0.000107924	3.21002E-05	0	0	0	
0.229333	0.00367976	-0.00121143	8.78748E-05	4.60618E-05	0	0	0	
0.2295	0.00185374	0.000537022	9.28443E-05	7.09723E-05	0	0	0	
0.229667	-0.0041183	0.000731199	7.42195E-05	8.12054E-05	0	0	0	
0.229833	-0.000593205	0.000256083	7.47976E-05	6.10782E-05	0	0	0	
0.23	0.00117458	0.000195469	7.20726E-05	4.00094E-05	0	0	0	
0.230167	-0.000680056	9.2048E-05	6.87502E-05	3.23992E-05	0	0	0	
0.230333	-0.00271906	-0.00185909	7.20155E-05	3.27507E-05	0	0	0	
0.2305	0.000497277	0.00127382	9.34676E-05	4.16474E-05	0	0	0	
0.230667	0.00112283	0.00106332	0.000129145	5.29957E-05	0	0	0	
0.230833	-0.0066088	-0.00158263	0.00013153	4.87779E-05	0	0	0	
0.231	0.004952	0.000367682	0.000122339	3.37502E-05	0	0	0	
0.231167	-0.000933501	-0.000152444	9.43142E-05	1.79482E-05	0	0	0	
0.231333	-0.00249515	0.00127139	7.49747E-05	1.17817E-05	0	0	0	
0.2315	0.00157433	-0.00094433	5.42297E-05	1.6646E-05	0	0	0	
0.231667	-0.000807875	-0.00120553	4.02877E-05	3.19787E-05	0	0	0	
0.231833	-0.000593669	0.00234173	3.13912E-05	3.86337E-05	0	0	0	
0.232	0.000223016	-0.000930367	3.04834E-05	4.11434E-05	0	0	0	
0.232167	-9.47033E-05	-9.78711E-05	3.6123E-05	3.37317E-05	0	0	0	
0.232333	-0.000410091	0.000242009	4.02521E-05	2.73545E-05	0	0	0	
0.2325	-0.000272551	-0.000784489	2.81868E-05	2.1231E-05	0	0	0	
0.232667	0.00375666	-1.93044E-05	2.5592E-05	2.05442E-05	0	0	0	
0.232833	-0.00397157	-0.000579818	4.5904E-05	2.02715E-05	0	0	0	
0.233	0.00328526	0.000245125	6.98935E-05	1.91964E-05	0	0	0	
0.233167	-0.000519101	0.000265342	7.58845E-05	1.35532E-05	0	0	0	
0.233333	8.38736E-05	-0.000160485	5.26611E-05	1.13385E-05	0	0	0	
0.2335	0.000180586	-8.99121E-05	2.9861E-05	6.66537E-06	0	0	0	
0.233667	0.000980307	-0.000736006	1.37519E-05	5.11874E-06	0	0	0	
0.233833	-0.00214081	0.00117532	2.02098E-05	1.01135E-05	0	0	0	
0.234	0.001807	-0.000476066	3.40995E-05	1.51112E-05	0	0	0	
0.234167	-0.00195809	-2.17477E-05	5.15312E-05	1.74506E-05	0	0	0	
0.234333	0.000590717	-2.79372E-06	5.36469E-05	1.3097E-05	0	0	0	
0.2345	0.000568013	0.000122927	4.14913E-05	7.68025E-06	0	0	0	
0.234667	-0.00122251	-0.000493628	2.94065E-05	4.95065E-06	0	0	0	
0.234833	-0.000600676	0.000298781	2.06615E-05	6.10989E-06	0	0	0	
0.235	0.000936013	-0.00033472	2.79623E-05	9.83344E-06	0	0	0	
0.235167	-0.00371409	-6.37712E-05	3.32958E-05	1.3915E-05	0	0	0	
0.235333	0.00235114	-0.00030364	5.0973E-05	1.62266E-05	0	0	0	
0.2355	9.1088E-05	0.000294861	4.221E-05	1.37744E-05	0	0	0	
0.235667	-0.00134442	-0.000291114	3.41101E-05	9.79941E-06	0	0	0	
0.235833	0.00101908	0.000704178	1.8032E-05	7.34779E-06	0	0	0	
0.236	0.000215687	-0.00113421	2.29672E-05	1.04359E-05	0	0	0	
0.236167	-0.00071067	0.00035353	3.14677E-05	1.56226E-05	0	0	0	
0.236333	0.00292759	0.000589684	4.26357E-05	1.86492E-05	0	0	0	
0.2365	-0.0016021	-0.000631615	5.77546E-05	1.82178E-05	0	0	0	
0.236667	0.000945502	0.000243891	5.75693E-05	1.35239E-05	0	0	0	
0.236833	0.000947135	7.40151E-05	4.27968E-05	1.02921E-05	0	0	0	
0.237	-0.00165691	-0.000144975	2.6121E-05	7.04777E-06	0	0	0	
0.237167	0.00234889	-0.000232628	2.99295E-05	1.08735E-05	0	0	0	
0.237333	2.98821E-06	0.00135834	3.78991E-05	1.53647E-05	0	0	0	
0.2375	0.000485892	-0.00109209	3.23288E-05	2.01012E-05	0	0	0	
0.237667	-0.000703	0.0003143	1.81827E-05	2.19362E-05	0	0	0	
0.237833	0.00191486	0.00041446	2.1656E-05	2.09392E-05	0	0	0	
0.238	-0.00126403	-0.00121475	3.19999E-05	1.89931E-05	0	0	0	
0.238167	-0.000720509	0.000426038	3.76328E-05	1.72314E-05	0	0	0	
0.238333	6.07686E-05	-0.000218325	3.18182E-05	1.5212E-05	0	0	0	
0.2385	0.00123417	0.000830874	3.66194E-05	1.65681E-05	0	0	0	
0.238667	-0.00261507	-0.000949251	4.16872E-05	1.57109E-05	0	0	0	
0.238833	0.00237848	9.10033E-05	5.13689E-05	1.52681E-05	0	0	0	
0.239	7.05114E-05	-1.5468E-05	4.48179E-05	1.12639E-05	0	0	0	
0.239167	-0.000827996	0.000636115	3.61596E-05	1.06409E-05	0	0	0	
0.239333	0.00109893	-0.000742241	2.66725E-05	1.26673E-05	0	0	0	
0.2395	-0.000503533	-0.000449525	2.18305E-05	1.73212E-05	0	0	0	
0.239667	-0.000775488	0.000278944	2.07868E-05	2.15159E-05	0	0	0	
0.239833	0.000920195	0.000349864	2.31084E-05	2.91791E-05	0	0	0	
0.24	-0.000240276	-0.00114231	2.70562E-05	3.35136E-05	0	0	0	
0.240167	-0.0007511	0.000903458	2.67145E-05	2.93716E-05	0	0	0	
0.240333	0.00129323	-0.000148749	2.28571E-05	2.32999E-05	0	0	0	
0.2405	-0.00136361	-0.0016587	2.75268E-05	2.24034E-05	0	0	0	
0.240667	-0.00334973	0.000978955	3.66483E-05	2.71588E-05	0	0	0	
0.240833	0.00425388	-0.00060359	5.29771E-05	2.33852E-05	0	0	0	
0.241	-0.00287885	-0.000321893	6.9444E-05	1.65326E-05	0	0	0	
0.241167	-0.00425151	-0.00069793	0.000111667	1.67013E-05	0	0	0	
0.241333	0.0132367	0.00290115	0.000145906	2.54713E-05	0	0	0	
0.2415	-0.0149839	-0.00246304	0.00021036	4.34782E-05	0	0	0	
0.241667	-0.000307087	-0.000207008	0.000273154	6.22906E-05	0	0	0	
0.241833	0.0134808	0.00078125	0.000297678	5.61018E-05	0	0	0	
0.242	-0.00979596	0.000959257	0.000272339	4.94477E-05	0	0	0	
0.242167	-0.00249455	0.000343406	0.000245539	2.4887E-05	0	0	0	
0.242333	0.00575948	-0.00126607	0.000200232	2.29292E-05	0	0	0	
0.2425	-0.00238836	-0.00274432	0.000165987	4.07417E-05	0	0	0	
0.242667	-0.00224673	0.00616921	9.87998E-05	7.91528E-05	0	0	0	
0.242833	0.000418512	-0.00447894	9.60173E-05	0.000105166	0	0	0	
0.243	0.00539963	-0.00197678	0.000131284	0.00012139	0	0	0	
0.243167	-0.00476721	0.00409872	0.000167629	0.000108957	0	0	0	
0.243333	0.00246542	-0.0010222	0.000149691	9.24717E-05	0	0	0	
0.2435	0.000493515	-0.00079655	9.76053E-05	5.69746E-05	0	0	0	
0.243667	-0.00481893	-0.000440237	5.68302E-05	3.01042E-05	0	0	0	
0.243833	0.00319878	0.00101015	7.33344E-05	2.27956E-05	0	0	0	
0.244	-0.00721731	0.00129932	0.000128545	3.56823E-05	0	0	0	
0.244167	0.000930832	-0.00446973	0.000190238	5.5557E-05	0	0	0	
0.244333	0.00555231	0.00269505	0.000206517	7.25998E-05	0	0	0	
0.2445	0.000273909	0.00121315	0.00017004	6.76229E-05	0	0	0	
0.244667	-0.0160294	-0.000339573	0.000143438	5.02509E-05	0	0	0	
0.244833	0.0215971	-0.00245446	0.000221852	5.32986E-05	0	0	0	
0.245	-0.0179366	-0.00219272	0.000354777	5.45616E-05	0	0	0	
0.245167	-0.00448225	0.0018084	0.000374241	6.21324E-05	0	0	0	
0.245333	0.012435	0.001241	0.000303628	5.99872E-05	0	0	0	
0.2455	-0.00129126	-0.00280124	0.000198404	6.76507E-05	0	0	0	
0.245667	-0.00723491	0.00153275	0.000168647	6.58843E-05	0	0	0	
0.245833	0.00704088	0.00123247	0.000153036	4.94646E-05	0	0	0	
0.246	-0.00292643	-0.00366948	0.000137332	3.89178E-05	0	0	0	
0.246167	-0.000787674	0.00155758	0.000150972	5.2491E-05	0	0	0	
0.246333	-5.95159E-05	0.00158364	0.000162932	6.83013E-05	0	0	0	
0.2465	0.00081202	-0.00123239	0.00012518	7.89856E-05	0	0	0	
0.246667	0.000473653	0.00157372	9.81963E-05	7.05916E-05	0	0	0	
0.246833	-0.00165153	-0.000689117	6.22491E-05	5.30868E-05	0	0	0	
0.247	0.000424766	-0.00104447	6.75995E-05	2.90938E-05	0	0	0	
0.247167	-0.0047478	0.00150975	6.54941E-05	2.2242E-05	0	0	0	
0.247333	0.00255625	0.000191441	6.74458E-05	2.04857E-05	0	0	0	
0.2475	0.00149181	0.000798906	6.79786E-05	2.0935E-05	0	0	0	
0.247667	0.00247069	-0.00110145	5.06177E-05	1.86895E-05	0	0	0	
0.247833	-0.00531869	0.000364972	5.94225E-05	1.90384E-05	0	0	0	
0.248	-0.00540512	0.000365493	0.000101872	1.8511E-05	0	0	0	
0.248167	0.0214113	-0.000391092	0.000225272	1.72529E-05	0	0	0	
0.248333	-0.0123347	0.00433967	0.000294854	2.33216E-05	0	0	0	
0.2485	-0.00352328	-0.00345399	0.000385028	4.19257E-05	0	0	0	
0.248667	0.0147764	0.00058283	0.000347375	7.23712E-05	0	0	0	
0.248833	-0.00648138	0.00140148	0.00031077	8.29102E-05	0	0	0	
0.249	0.00176864	-0.000340624	0.000210375	6.403E-05	0	0	0	
0.249167	0.00273743	0.00259987	0.0002203	4.45613E-05	0	0	0	
0.249333	-0.0101061	-0.00405394	0.000326021	4.68165E-05	0	0	0	
0.2495	0.0191982	0.000159211	0.000382676	7.08609E-05	0	0	0	
0.249667	-0.00908761	0.00487447	0.000358734	9.13765E-05	0	0	0	
0.249833	-0.00434302	-0.0037336	0.000286397	9.48465E-05	0	0	0	
0.25	0.0116026	0.000548283	0.000226866	8.5017E-05	0	0	0	
0.250167	-0.00312046	-0.0012713	0.000222927	5.61478E-05	0	0	0	
0.250333	-0.0145562	0.000354817	0.000256601	6.52388E-05	0	0	0	
0.2505	0.176019	0.0374543	0.000558197	9.84423E-05	0	0	0	
0.250667	-0.0146533	-0.0240009	0.00115556	0.000345239	0	0	0	
0.250833	0.00706183	0.00992206	0.00108921	0.00038469	0	0	0	
0.251	-0.00217086	0.000948323	0.000792058	0.00037645	0	0	0	
0.251167	0.00352876	0.00096574	0.000138036	0.000141278	0	0	0	
0.251333	-0.0165422	-0.00568251	0.00011397	0.000102071	0	0	0	
0.2515	0.0109364	-0.00106842	0.000187592	8.00657E-05	0	0	0	
0.251667	-0.00496249	0.00279052	0.000232025	9.65621E-05	0	0	0	
0.251833	-0.000530315	0.0014047	0.000251026	7.0081E-05	0	0	0	
0.252	0.00380014	-0.00218298	0.000148523	6.59991E-05	0	0	0	
0.252167	-0.0040078	-0.00236891	0.000105358	7.0683E-05	0	0	0	
0.252333	0.00223884	0.00343647	6.72833E-05	7.81367E-05	0	0	0	
0.2525	-0.0018916	0.000965762	5.99685E-05	8.42461E-05	0	0	0	
0.252667	0.00312364	-0.00135707	4.87869E-05	4.91926E-05	0	0	0	
0.252833	-0.00287866	-0.00322492	5.14736E-05	6.45794E-05	0	0	0	
0.253	0.00179549	0.00343149	5.52686E-05	5.80611E-05	0	0	0	
0.253167	-0.00145946	0.00120751	5.64641E-05	8.46272E-05	0	0	0	
0.253333	0.000615599	-0.00242215	3.90065E-05	6.21691E-05	0	0	0	
0.2535	-0.00225756	-0.00173934	3.07367E-05	7.0723E-05	0	0	0	
0.253667	0.00131411	0.00292509	3.29105E-05	5.07576E-05	0	0	0	
0.253833	1.53096E-05	0.00149489	3.36214E-05	7.15912E-05	0	0	0	
0.254	-0.000778471	-0.00300296	2.93408E-05	6.24006E-05	0	0	0	
0.254167	0.000172943	-0.000256714	2.93648E-05	6.99039E-05	0	0	0	
0.254333	0.000866156	0.00130364	3.2977E-05	5.15389E-05	0	0	0	
0.2545	-0.00185669	0.00171998	4.12867E-05	4.40765E-05	0	0	0	
0.254667	0.000333671	-0.0017054	4.12511E-05	3.37122E-05	0	0	0	
0.254833	0.00175203	-0.00189675	4.63663E-05	4.58256E-05	0	0	0	
0.255	-0.000484135	0.00303788	6.49402E-05	5.10166E-05	0	0	0	
0.255167	-0.00183781	8.01165E-05	8.10663E-05	5.88401E-05	0	0	0	
0.255333	0.00262813	-0.00143103	8.41709E-05	4.02177E-05	0	0	0	
0.2555	-0.00014123	-0.000395754	5.74026E-05	4.13635E-05	0	0	0	
0.255667	-0.000279532	0.00133998	3.22605E-05	2.99835E-05	0	0	0	
0.255833	-0.00169542	0.000468109	2.4324E-05	3.85515E-05	0	0	0	
0.256	-2.74893E-05	-0.00144289	2.77947E-05	3.27236E-05	0	0	0	
0.256167	0.00165094	-5.64387E-05	3.15421E-05	3.63544E-05	0	0	0	
0.256333	-0.00154404	0.0014169	3.49803E-05	3.17392E-05	0	0	0	
0.2565	0.000519748	3.92308E-05	3.49497E-05	2.67347E-05	0	0	0	
0.256667	0.00106665	-0.00105904	2.90032E-05	2.34039E-05	0	0	0	
0.256833	-0.000641802	-0.000143631	2.0513E-05	1.98151E-05	0	0	0	
0.257	0.000244195	0.00174361	2.48056E-05	2.42869E-05	0	0	0	
0.257167	-0.00119773	-0.000984695	4.34309E-05	2.59628E-05	0	0	0	
0.257333	0.00150101	-0.000676578	5.28231E-05	2.69781E-05	0	0	0	
0.2575	-0.000372805	0.000156406	4.32322E-05	2.12449E-05	0	0	0	
0.257667	-0.000508216	0.000946647	2.19082E-05	1.92276E-05	0	0	0	
0.257833	0.00258716	-0.000283112	1.569E-05	1.57136E-05	0	0	0	
0.258	-0.00409041	-0.000497732	3.04471E-05	1.60171E-05	0	0	0	
0.258167	0.00251564	-0.000210741	5.32394E-05	1.4261E-05	0	0	0	
0.258333	0.000339835	0.000632827	7.56181E-05	1.43228E-05	0	0	0	
0.2585	-0.00191776	0.000328602	7.60924E-05	1.28335E-05	0	0	0	
0.258667	0.000767083	-0.000220961	5.85968E-05	9.72561E-06	0	0	0	
0.258833	0.000214519	-0.000201184	3.87212E-05	1.07548E-05	0	0	0	
0.259	-0.00282688	0.00094271	2.87121E-05	1.04846E-05	0	0	0	
0.259167	0.00201819	-0.000191396	3.77098E-05	1.3722E-05	0	0	0	
0.259333	-0.00112176	1.01225E-05	3.64675E-05	1.02575E-05	0	0	0	
0.2595	0.000466037	-2.17117E-05	3.18511E-05	8.23092E-06	0	0	0	
0.259667	1.63806E-05	0.000132353	1.84731E-05	6.7766E-06	0	0	0	
0.259833	-0.00105558	0.000391754	1.39635E-05	8.1368E-06	0	0	0	
0.26	0.000354731	-8.38149E-05	1.87578E-05	9.83772E-06	0	0	0	
0.260167	0.00121093	-0.000589008	2.24976E-05	9.32937E-06	0	0	0	
0.260333	-0.000807964	0.000322494	2.72195E-05	9.30474E-06	0	0	0	
0.2605	0.000326579	9.15246E-05	2.04814E-05	7.98319E-06	0	0	0	
0.260667	-0.000701367	0.000421225	2.24392E-05	6.09925E-06	0	0	0	
0.260833	-0.000122562	-0.000740783	1.53492E-05	7.12455E-06	0	0	0	
0.261	0.000727377	0.000454605	2.99499E-05	9.59483E-06	0	0	0	
0.261167	-0.000306673	-2.29947E-05	4.96177E-05	1.07377E-05	0	0	0	
0.261333	0.000394985	-3.2318E-06	6.9142E-05	8.21524E-06	0	0	0	
0.2615	-0.00163696	-0.000552548	5.61394E-05	9.02671E-06	0	0	0	
0.261667	0.000343995	0.000450143	3.80646E-05	9.7957E-06	0	0	0	
0.261833	0.00178798	5.56198E-06	2.60207E-05	1.26822E-05	0	0	0	
0.262	-0.00341111	0.000256	3.8797E-05	9.5767E-06	0	0	0	
0.262167	0.00157403	-0.000599801	5.62554E-05	8.56484E-06	0	0	0	
0.262333	-0.00121761	-0.00117738	6.9105E-05	1.35543E-05	0	0	0	
0.2625	0.00165575	0.00155049	7.32387E-05	2.09784E-05	0	0	0	
0.262667	0.00182107	0.0013949	7.7899E-05	3.79568E-05	0	0	0	
0.262833	-0.0035157	-0.00319357	7.08691E-05	4.05063E-05	0	0	0	
0.263	-0.00795763	-0.00219243	0.000114277	7.21518E-05	0	0	0	
0.263167	0.0161729	0.00770855	0.000158846	9.28861E-05	0	0	0	
0.263333	0.000959027	-0.00234476	0.000287817	0.000128439	0	0	0	
0.2635	-0.0278872	-0.00697003	0.000429276	0.000161554	0	0	0	
0.263667	0.0164513	0.00332469	0.000481348	0.000148923	0	0	0	
0.263833	0.0252044	0.00585458	0.000603241	0.000158177	0	0	0	
0.264	-0.0272284	-0.00286167	0.000539218	0.000109764	0	0	0	
0.264167	-0.0120633	-0.0033148	0.000697486	0.000109749	0	0	0	
0.264333	0.0246858	-0.0045907	0.000588453	0.000100299	0	0	0	
0.2645	0.00257355	0.0111339	0.000573433	0.000122727	0	0	0	
0.264667	-0.0133271	0.000580938	0.000355267	0.000184991	0	0	0	
0.264833	4.20898E-05	-0.011315	0.000283694	0.000209853	0	0	0	
0.265	0.00217501	0.0014302	0.000181278	0.000236996	0	0	0	
0.265167	0.00895592	0.0112399	0.000154709	0.000241284	0	0	0	
0.265333	-0.0092355	-0.00590647	0.000146152	0.000218646	0	0	0	
0.2655	-0.00706291	-0.00464002	0.000236674	0.000218393	0	0	0	
0.265667	0.00945087	0.00420079	0.000240675	0.000147857	0	0	0	
0.265833	0.00304778	0.00316987	0.000260732	0.000140188	0	0	0	
0.266	-0.0133032	-0.00319723	0.000215909	8.35494E-05	0	0	0	
0.266167	0.00426286	-0.00269751	0.000253059	9.81649E-05	0	0	0	
0.266333	0.0111689	0.00343081	0.000283239	7.19033E-05	0	0	0	
0.2665	-0.0108407	0.00240933	0.00026941	8.88531E-05	0	0	0	
0.266667	-0.0060893	-0.00311598	0.000298795	6.77039E-05	0	0	0	
0.266833	0.0141291	-0.0017382	0.000251732	8.4466E-05	0	0	0	
0.267	-0.00436153	0.00254246	0.000264002	6.38893E-05	0	0	0	
0.267167	-0.00782387	0.0013854	0.000248682	7.77461E-05	0	0	0	
0.267333	0.00633632	-0.00293304	0.000206607	5.96762E-05	0	0	0	
0.2675	0.00324395	-0.0014038	0.000198715	7.25641E-05	0	0	0	
0.267667	-0.00656928	0.00309435	0.000137087	6.14713E-05	0	0	0	
0.267833	0.00160851	-0.000314991	0.000158586	6.62686E-05	0	0	0	
0.268	0.0063611	-0.0027256	0.000159108	6.19837E-05	0	0	0	
0.268167	-0.00409377	0.00132502	0.00015298	5.41526E-05	0	0	0	
0.268333	-0.00431345	0.00165043	0.000152189	5.62772E-05	0	0	0	
0.2685	0.00721996	-0.00162589	0.000128315	4.28387E-05	0	0	0	
0.268667	-0.00247458	-0.00110401	0.000137622	4.58157E-05	0	0	0	
0.268833	-0.00192487	0.00195596	0.000134396	3.29486E-05	0	0	0	
0.269	0.00216673	0.000505386	0.000120747	3.86213E-05	0	0	0	
0.269167	0.00259257	-0.00173724	0.000109677	3.03718E-05	0	0	0	
0.269333	-0.0064715	-0.00100759	8.51263E-05	3.5384E-05	0	0	0	
0.2695	0.000143844	0.00197378	0.000128179	2.91718E-05	0	0	0	
0.269667	0.0187249	0.00220874	0.000226383	4.91673E-05	0	0	0	
0.269833	-0.0184156	-0.00335828	0.000310029	5.20028E-05	0	0	0	
0.27	-0.0110966	-0.00183397	0.000413835	7.48268E-05	0	0	0	
0.270167	0.0281591	0.00365896	0.000450769	6.79956E-05	0	0	0	
0.270333	-0.0135454	-0.00074926	0.000475713	7.74957E-05	0	0	0	
0.2705	-0.0123224	0.000364017	0.000511643	6.09034E-05	0	0	0	
0.270667	0.0148035	-0.00373676	0.000453386	5.46588E-05	0	0	0	
0.270833	-0.00229886	0.0018051	0.000369817	5.92962E-05	0	0	0	
0.271	-0.00550972	0.00571501	0.000183265	0.00010537	0	0	0	
0.271167	9.91236E-05	-0.00632254	0.000113161	0.000124151	0	0	0	
0.271333	-0.00307832	-0.00399292	9.65897E-05	0.000162149	0	0	0	
0.2715	0.00507005	0.00783896	9.75289E-05	0.00014348	0	0	0	
0.271667	0.00395241	-0.000275886	0.000141136	0.000154712	0	0	0	
0.271833	-0.00808401	-0.00364948	0.000141687	0.000116297	0	0	0	
0.272	-0.00196242	-0.00123345	0.00019956	9.88659E-05	0	0	0	
0.272167	0.0130916	0.00303752	0.000198785	7.09972E-05	0	0	0	
0.272333	-0.00693954	0.00191592	0.00022458	7.04741E-05	0	0	0	
0.2725	-0.00566452	-0.00270102	0.000262198	6.10507E-05	0	0	0	
0.272667	0.0103265	-0.00188217	0.000250383	7.46135E-05	0	0	0	
0.272833	-0.00395236	0.00356654	0.000243087	5.81606E-05	0	0	0	
0.273	-0.00565884	0.000979526	0.000208289	7.70025E-05	0	0	0	
0.273167	0.00984819	-0.00355165	0.00018353	6.91137E-05	0	0	0	
0.273333	-0.00359799	0.00069033	0.000187112	7.52653E-05	0	0	0	
0.2735	-0.00518017	0.00264985	0.000160882	5.74338E-05	0	0	0	
0.273667	0.0053089	-0.000831101	0.000145671	5.14484E-05	0	0	0	
0.273833	-0.000530737	-0.00179864	0.000128952	4.88635E-05	0	0	0	
0.274	-0.00136948	0.000137498	9.6069E-05	4.01486E-05	0	0	0	
0.274167	-0.000271088	0.00182576	8.51701E-05	4.17166E-05	0	0	0	
0.274333	0.00120915	-0.00124022	6.31203E-05	3.27468E-05	0	0	0	
0.2745	-0.0013854	-0.000636955	4.38898E-05	3.77622E-05	0	0	0	
0.274667	-0.00052554	-4.72966E-05	3.52303E-05	2.26526E-05	0	0	0	
0.274833	0.00102245	0.00205595	2.18854E-05	2.63414E-05	0	0	0	
0.275	0.000212824	-0.00187542	3.44621E-05	2.4778E-05	0	0	0	
0.275167	-0.00217885	-0.00029798	4.83719E-05	3.50544E-05	0	0	0	
0.275333	0.00390407	0.00144022	6.41906E-05	2.80882E-05	0	0	0	
0.2755	0.00104587	0.000194353	5.77486E-05	2.77641E-05	0	0	0	
0.275667	-0.00335783	-0.000630559	5.3309E-05	1.8924E-05	0	0	0	
0.275833	0.00392075	-0.000243539	5.42425E-05	2.25321E-05	0	0	0	
0.276	0.000623667	0.000706489	7.03169E-05	1.37449E-05	0	0	0	
0.276167	-0.00107588	0.000623827	7.5472E-05	1.9754E-05	0	0	0	
0.276333	0.0018828	-0.00078484	5.86976E-05	1.6545E-05	0	0	0	
0.2765	0.000350847	-0.000593037	3.96643E-05	2.1335E-05	0	0	0	
0.276667	-0.00062293	0.000712657	2.52131E-05	1.63035E-05	0	0	0	
0.276833	0.00150863	0.00083942	2.69841E-05	1.76702E-05	0	0	0	
0.277	-0.000403503	-0.000949203	2.73505E-05	1.51085E-05	0	0	0	
0.277167	0.00070181	-0.000235138	3.96901E-05	2.27154E-05	0	0	0	
0.277333	0.00099816	0.000550384	5.79279E-05	2.18097E-05	0	0	0	
0.2775	-0.00137311	5.91849E-05	7.45853E-05	2.17969E-05	0	0	0	
0.277667	9.50593E-05	-7.83053E-05	6.91634E-05	1.03144E-05	0	0	0	
0.277833	3.73018E-05	-0.000799312	4.17723E-05	1.07974E-05	0	0	0	
0.278	-0.000599836	0.0015548	1.89872E-05	1.39372E-05	0	0	0	
0.278167	-1.50051E-05	0.000102799	1.81366E-05	2.16333E-05	0	0	0	
0.278333	-0.0014715	-0.00085722	4.0733E-05	2.03556E-05	0	0	0	
0.2785	0.00228026	0.000365642	5.88283E-05	1.68588E-05	0	0	0	
0.278667	-0.00264075	-0.000395228	6.00751E-05	1.19567E-05	0	0	0	
0.278833	0.00274437	-1.02767E-05	5.88859E-05	8.14057E-06	0	0	0	
0.279	-0.00149414	6.16366E-05	4.90025E-05	6.83798E-06	0	0	0	
0.279167	0.000634004	-0.00012749	4.44793E-05	6.89618E-06	0	0	0	
0.279333	-0.000702617	-0.000282611	3.29679E-05	9.73625E-06	0	0	0	
0.2795	0.00131464	-0.000126883	3.26996E-05	1.16641E-05	0	0	0	
0.279667	-0.000107904	0.00017325	3.53697E-05	1.01663E-05	0	0	0	
0.279833	0.000163486	-0.00034784	3.18162E-05	1.15766E-05	0	0	0	
0.28	-0.00103691	-0.000428708	2.5315E-05	1.33554E-05	0	0	0	
0.280167	0.001038	0.000715809	1.90783E-05	1.6134E-05	0	0	0	
0.280333	-0.000268144	-0.000610144	1.43363E-05	1.4892E-05	0	0	0	
0.2805	0.000507654	0.000619979	1.6262E-05	1.42851E-05	0	0	0	
0.280667	-0.000657084	-0.000548026	1.65327E-05	1.44151E-05	0	0	0	
0.280833	0.00180701	-0.000149617	2.11091E-05	1.29575E-05	0	0	0	
0.281	-0.000967567	0.000214205	2.53575E-05	9.02295E-06	0	0	0	
0.281167	-2.79914E-05	0.000344086	3.11465E-05	8.1187E-06	0	0	0	
0.281333	0.00151233	-0.00119147	3.04218E-05	9.66079E-06	0	0	0	
0.2815	-0.000464878	0.00102852	3.12442E-05	1.60448E-05	0	0	0	
0.281667	-0.00132324	0.000168319	3.1568E-05	2.32399E-05	0	0	0	
0.281833	0.0010992	-0.000577358	3.76967E-05	2.37852E-05	0	0	0	
0.282	0.000850925	-0.000248262	3.72188E-05	1.87873E-05	0	0	0	
0.282167	-0.000324463	0.00043611	3.81786E-05	9.53215E-06	0	0	0	
0.282333	-0.00153621	-0.000176999	3.94734E-05	1.25034E-05	0	0	0	
0.2825	0.00232286	-0.000122279	3.78433E-05	1.24071E-05	0	0	0	
0.282667	-0.000742677	-0.000342683	4.14136E-05	1.48528E-05	0	0	0	
0.282833	-0.00231071	0.000747338	3.78481E-05	1.02151E-05	0	0	0	
0.283	0.00255503	-0.000138477	4.79263E-05	1.23409E-05	0	0	0	
0.283167	-0.00064195	-0.000127854	4.2479E-05	1.337E-05	0	0	0	
0.283333	-0.00196124	-0.000311708	3.82497E-05	1.33246E-05	0	0	0	
0.2835	0.00116082	0.000377847	3.39321E-05	1.17286E-05	0	0	0	
0.283667	-0.000498794	-7.20992E-05	3.8291E-05	7.33335E-06	0	0	0	
0.283833	-0.00156641	1.11301E-05	4.30743E-05	5.7503E-06	0	0	0	
0.284	0.00037204	-9.73089E-05	5.1747E-05	4.13672E-06	0	0	0	
0.284167	-0.000924458	0.00107675	4.6201E-05	6.808E-06	0	0	0	
0.284333	-0.000361494	-0.00117875	4.02623E-05	1.411E-05	0	0	0	
0.2845	3.3186E-05	-0.000587419	2.43795E-05	2.11567E-05	0	0	0	
0.284667	0.000363037	0.00115297	1.56554E-05	2.34408E-05	0	0	0	
0.284833	-0.0013133	0.000186063	2.20009E-05	2.37236E-05	0	0	0	
0.285	-0.00102883	-0.00059525	2.33764E-05	2.27039E-05	0	0	0	
0.285167	0.00046979	0.000382616	2.86243E-05	1.99202E-05	0	0	0	
0.285333	-0.000453534	5.764E-05	2.34118E-05	1.23016E-05	0	0	0	
0.2855	-0.000462377	0.000186733	1.702E-05	6.11075E-06	0	0	0	
0.285667	-8.11645E-05	-0.000159685	1.65607E-05	4.80047E-06	0	0	0	
0.285833	-0.000323168	-0.000338199	1.12086E-05	7.26801E-06	0	0	0	
0.286	-0.00156804	0.00115976	2.14197E-05	1.10736E-05	0	0	0	
0.286167	-0.000125977	-0.000712734	3.61697E-05	1.61973E-05	0	0	0	
0.286333	-0.000720955	-0.00111176	4.53033E-05	2.11874E-05	0	0	0	
0.2865	9.68207E-05	0.00167362	4.0017E-05	2.45366E-05	0	0	0	
0.286667	0.00134116	0.00164459	5.33419E-05	4.01974E-05	0	0	0	
0.286833	-0.00557113	-0.0032784	6.26363E-05	4.43701E-05	0	0	0	
0.287	-0.00710906	-0.00214557	0.00012874	7.53947E-05	0	0	0	
0.287167	0.0195442	0.00751208	0.000192144	9.10356E-05	0	0	0	
0.287333	-0.00647308	-0.00219803	0.000303523	0.000127567	0	0	0	
0.2875	-0.0249832	-0.00718522	0.0004572	0.000164777	0	0	0	
0.287667	0.0189859	0.00472968	0.000483613	0.000157583	0	0	0	
0.287833	0.0197578	0.00420271	0.000611678	0.000168004	0	0	0	
0.288	-0.0307705	-0.00251662	0.000523848	0.000110618	0	0	0	
0.288167	-0.00305206	-0.00268918	0.00064064	0.000102948	0	0	0	
0.288333	0.0207218	-0.00433013	0.000521809	8.72751E-05	0	0	0	
0.2885	0.0018467	0.011216	0.000493158	0.000113131	0	0	0	
0.288667	-0.0128781	0.000408111	0.000328583	0.00018273	0	0	0	
0.288833	0.00113508	-0.0127199	0.000265004	0.000224156	0	0	0	
0.289	0.00229788	0.00265321	0.000191255	0.000248494	0	0	0	
0.289167	0.00992528	0.011588	0.000161526	0.000255551	0	0	0	
0.289333	-0.00873167	-0.00590063	0.000144028	0.000223464	0	0	0	
0.2895	-0.00711683	-0.00621751	0.000218487	0.00023753	0	0	0	
0.289667	0.0111529	0.00314664	0.000228041	0.000161404	0	0	0	
0.289833	0.00272443	0.00566557	0.000262294	0.00016029	0	0	0	
0.29	-0.0155286	-0.00259952	0.00022753	0.000102141	0	0	0	
0.290167	0.00809252	-0.0042649	0.000268089	0.000123268	0	0	0	
0.290333	0.0105348	0.00147423	0.000313378	8.99798E-05	0	0	0	
0.2905	-0.0123266	0.00481979	0.000296498	9.99907E-05	0	0	0	
0.290667	-0.00364941	-0.00200885	0.000315324	8.19252E-05	0	0	0	
0.290833	0.0157171	-0.00436505	0.00025799	0.000106475	0	0	0	
0.291	-0.00815292	0.00215174	0.000280119	8.94702E-05	0	0	0	
0.291167	-0.00713713	0.00414074	0.00026426	0.000102678	0	0	0	
0.291333	0.00885122	-0.00273318	0.000227424	7.84692E-05	0	0	0	
0.2915	0.000937519	-0.00327134	0.000212538	0.000101743	0	0	0	
0.291667	-0.00518558	0.00333504	0.000156551	8.00509E-05	0	0	0	
0.291833	0.00269417	0.00129058	0.000155436	9.05321E-05	0	0	0	
0.292	0.00524351	-0.00248476	0.000143304	6.1466E-05	0	0	0	
0.292167	-0.00497239	-0.000904526	0.000127368	6.27747E-05	0	0	0	
0.292333	-0.00192193	0.00212214	0.000128393	4.32665E-05	0	0	0	
0.2925	0.00546457	0.000162224	9.73184E-05	4.44466E-05	0	0	0	
0.292667	-0.00169368	-0.0019751	0.000101854	3.38031E-05	0	0	0	
0.292833	-0.00136953	6.71122E-05	0.000103751	3.46216E-05	0	0	0	
0.293	0.00284128	0.000985534	0.000105401	2.98396E-05	0	0	0	
0.293167	0.00124382	0.000143203	0.000100434	3.34126E-05	0	0	0	
0.293333	-0.0107432	-0.00334669	0.000110811	4.0323E-05	0	0	0	
0.2935	0.00944402	0.00304528	0.000146217	5.12555E-05	0	0	0	
0.293667	0.00834827	0.00117797	0.00030321	7.57134E-05	0	0	0	
0.293833	-0.0175677	-0.00219534	0.000395499	7.62096E-05	0	0	0	
0.294	0.000460852	-0.00200651	0.00046486	7.90635E-05	0	0	0	
0.294167	0.0273045	0.00377352	0.000493043	6.10902E-05	0	0	0	
0.294333	-0.0202467	0.00162055	0.00048299	7.51134E-05	0	0	0	
0.2945	-0.00850862	-0.00243753	0.000581449	6.7984E-05	0	0	0	
0.294667	0.00909019	-0.00427348	0.000466542	8.20607E-05	0	0	0	
0.294833	0.0107654	0.00513026	0.00038289	7.74885E-05	0	0	0	
0.295	-0.00631855	0.00539376	0.00021746	0.000130573	0	0	0	
0.295167	-0.00801665	-0.00700008	0.000160812	0.000131765	0	0	0	
0.295333	-0.0016005	-0.00467293	0.000168183	0.000181715	0	0	0	
0.2955	0.0123986	0.00938904	0.000171511	0.000153369	0	0	0	
0.295667	-0.00398235	0.00122239	0.000211236	0.000193908	0	0	0	
0.295833	-0.0090062	-0.00674937	0.00024551	0.000162285	0	0	0	
0.296	0.00302203	-0.000455498	0.000224569	0.000159601	0	0	0	
0.296167	0.0101321	0.00458393	0.000252404	0.00010653	0	0	0	
0.296333	-0.00966721	0.00135992	0.000203781	0.000100638	0	0	0	
0.2965	-0.00346805	-0.00438585	0.000270535	8.55913E-05	0	0	0	
0.296667	0.0103436	-0.00124651	0.000247137	9.74619E-05	0	0	0	
0.296833	-0.00313703	0.00340569	0.000238311	7.55603E-05	0	0	0	
0.297	-0.00685179	0.00158495	0.000204635	8.35512E-05	0	0	0	
0.297167	0.0066285	-0.0039914	0.000162734	6.98081E-05	0	0	0	
0.297333	0.00284731	-0.000625529	0.000165657	8.10303E-05	0	0	0	
0.2975	-0.00635164	0.00317131	0.000132259	7.27747E-05	0	0	0	
0.297667	0.00232716	-0.00038305	0.000113622	6.87207E-05	0	0	0	
0.297833	0.00475767	-0.00221399	0.000116249	5.44702E-05	0	0	0	
0.298	-0.00702142	0.000431098	0.000115174	4.17143E-05	0	0	0	
0.298167	0.00277061	0.00142039	0.000117968	4.04806E-05	0	0	0	
0.298333	0.000191293	-0.00108068	9.4861E-05	3.10067E-05	0	0	0	
0.2985	-0.00185282	-0.000723975	6.92427E-05	3.48898E-05	0	0	0	
0.298667	0.00232841	0.00182738	6.23764E-05	3.07559E-05	0	0	0	
0.298833	-0.00174728	0.000201726	5.11707E-05	3.60324E-05	0	0	0	
0.299	-0.00123866	-0.00225179	4.75962E-05	3.80662E-05	0	0	0	
0.299167	0.00137985	0.00136888	4.31424E-05	3.97495E-05	0	0	0	
0.299333	-0.000829448	0.00162028	4.04972E-05	4.64499E-05	0	0	0	
0.2995	0.00105917	-0.00124431	4.03189E-05	3.95109E-05	0	0	0	
0.299667	-0.00270744	-0.00093825	3.91756E-05	3.74852E-05	0	0	0	
0.299833	0.00184018	0.00126587	5.50132E-05	2.57398E-05	0	0	0	
0.3	0.00227781	0.000414268	6.2489E-05	2.25204E-05	0	0	0	
0.300167	-0.00174243	0.000492194	6.06273E-05	1.50429E-05	0	0	0	
0.300333	-0.00265448	-0.00093754	5.6101E-05	1.28839E-05	0	0	0	
0.3005	0.00377127	-0.000408761	5.1991E-05	1.92249E-05	0	0	0	
0.300667	-0.000445727	0.00141276	6.97877E-05	2.49404E-05	0	0	0	
0.300833	-0.000486386	0.00016395	7.17511E-05	2.72632E-05	0	0	0	
0.301	-5.08843E-05	-0.00130202	6.06049E-05	2.29196E-05	0	0	0	
0.301167	0.000754097	0.000749292	4.41132E-05	2.0254E-05	0	0	0	
0.301333	-0.00190666	0.000115808	2.91963E-05	1.87441E-05	0	0	0	
0.3015	0.00166546	-2.29947E-05	4.61338E-05	1.17208E-05	0	0	0	
0.301667	-0.0014362	-0.000292679	5.28537E-05	8.93836E-06	0	0	0	
0.301833	0.00250489	1.12574E-05	6.13511E-05	5.05709E-06	0	0	0	
0.302	-0.00137523	0.000298309	5.14665E-05	9.63453E-06	0	0	0	
0.302167	-0.000198653	-0.000129637	3.41056E-05	1.0676E-05	0	0	0	
0.302333	0.00154796	-0.000126186	2.91715E-05	1.00867E-05	0	0	0	
0.3025	0.00110712	-0.000126228	2.61794E-05	7.11609E-06	0	0	0	
0.302667	-0.00189604	0.000560697	3.2394E-05	8.67822E-06	0	0	0	
0.302833	0.000512522	-0.000839201	2.89989E-05	1.16697E-05	0	0	0	
0.303	0.00194298	7.28564E-05	2.57718E-05	1.23321E-05	0	0	0	
0.303167	-0.00181658	0.000437277	3.17019E-05	9.05138E-06	0	0	0	
0.303333	0.00145891	5.2533E-05	3.30155E-05	8.65239E-06	0	0	0	
0.3035	-8.06187E-05	-0.000138888	3.05608E-05	6.7288E-06	0	0	0	
0.303667	-1.28782E-05	-0.000517665	1.72863E-05	6.81352E-06	0	0	0	
0.303833	0.000120856	1.76135E-05	1.45561E-05	5.95478E-06	0	0	0	
0.304	-0.000742401	0.000264673	2.08295E-05	9.40878E-06	0	0	0	
0.304167	-0.000373408	-1.26876E-05	3.11002E-05	1.07207E-05	0	0	0	
0.304333	9.92749E-05	0.000318911	3.75586E-05	9.49561E-06	0	0	0	
0.3045	-0.000765563	-0.000168476	3.45927E-05	7.37625E-06	0	0	0	
0.304667	0.00184995	-3.0134E-05	2.88274E-05	5.97881E-06	0	0	0	
0.304833	-0.000478916	-0.000136813	2.68177E-05	5.62603E-06	0	0	0	
0.305	-0.000930775	-4.54208E-06	2.12951E-05	4.90367E-06	0	0	0	
0.305167	0.00231606	9.46672E-05	2.72463E-05	3.58782E-06	0	0	0	
0.305333	-0.00283629	-0.000296595	3.87224E-05	4.90775E-06	0	0	0	
0.3055	0.000522761	0.000319074	4.74436E-05	5.14121E-06	0	0	0	
0.305667	0.000325081	-6.94792E-05	4.92715E-05	6.37281E-06	0	0	0	
0.305833	-0.000870818	0.000476793	3.47712E-05	6.82714E-06	0	0	0	
0.306	-0.00208803	-0.00048325	3.06934E-05	7.67004E-06	0	0	0	
0.306167	0.0033481	-0.000456919	3.19598E-05	9.91926E-06	0	0	0	
0.306333	-0.00485959	0.000406355	5.18805E-05	9.39581E-06	0	0	0	
0.3065	0.00132237	0.000543795	6.34158E-05	1.53725E-05	0	0	0	
0.306667	-0.000503005	-0.000505197	6.02097E-05	1.64819E-05	0	0	0	
0.306833	-0.00153467	-0.000451885	3.82055E-05	1.87866E-05	0	0	0	
0.307	0.000198555	0.000833811	3.34109E-05	1.35912E-05	0	0	0	
0.307167	0.00134953	-0.000198446	3.83804E-05	1.38262E-05	0	0	0	
0.307333	-0.00326443	-3.51011E-05	4.55649E-05	1.15119E-05	0	0	0	
0.3075	0.00195557	-0.000245284	4.99015E-05	8.12359E-06	0	0	0	
0.307667	-0.0018201	2.70527E-05	4.63303E-05	7.82316E-06	0	0	0	
0.307833	-0.000221779	0.000573701	4.59657E-05	1.11634E-05	0	0	0	
0.308	0.000381717	2.35362E-05	3.2135E-05	1.49428E-05	0	0	0	
0.308167	0.00191549	-0.000959218	2.53095E-05	1.85013E-05	0	0	0	
0.308333	-0.00189285	0.00117989	2.38776E-05	1.89026E-05	0	0	0	
0.3085	0.00103875	0.000127319	3.46023E-05	2.43904E-05	0	0	0	
0.308667	0.000599729	-0.000995657	4.26583E-05	2.28146E-05	0	0	0	
0.308833	-0.000132311	0.000430672	3.45435E-05	2.19174E-05	0	0	0	
0.309	-0.00216833	0.000327831	2.79911E-05	1.6715E-05	0	0	0	
0.309167	0.00369043	0.000480339	3.02497E-05	1.11133E-05	0	0	0	
0.309333	-0.00267618	-0.000879433	4.7349E-05	1.15365E-05	0	0	0	
0.3095	0.00188685	-0.000379328	5.8204E-05	1.47489E-05	0	0	0	
0.309667	-0.000991809	0.000944691	5.68294E-05	1.9535E-05	0	0	0	
0.309833	0.000157354	-0.00033542	4.4479E-05	1.93579E-05	0	0	0	
0.31	0.00044555	-0.000484745	3.15003E-05	1.81239E-05	0	0	0	
0.310167	-0.000251768	0.000373643	1.96111E-05	1.36863E-05	0	0	0	
0.310333	-0.000517257	-0.00066031	2.11006E-05	1.39265E-05	0	0	0	
0.3105	0.00283535	0.00108275	2.68732E-05	1.56396E-05	0	0	0	
0.310667	-7.3468E-05	-0.00140211	4.11841E-05	1.97121E-05	0	0	0	
0.310833	-0.00720528	-0.00120524	9.62015E-05	3.32565E-05	0	0	0	
0.311	0.0122247	0.00412667	0.000144931	4.77786E-05	0	0	0	
0.311167	0.000689619	-0.00163482	0.000207833	6.08497E-05	0	0	0	
0.311333	-0.0168862	-0.00323106	0.000269865	8.02903E-05	0	0	0	
0.3115	0.015794	0.00289142	0.000299395	8.17799E-05	0	0	0	
0.311667	0.00765095	-0.000457627	0.00034978	7.3372E-05	0	0	0	
0.311833	-0.0170051	0.000451124	0.000316396	3.92403E-05	0	0	0	
0.312	0.00483344	-0.00111295	0.00031212	2.25125E-05	0	0	0	
0.312167	0.0113786	-0.0018909	0.000282058	3.87139E-05	0	0	0	
0.312333	-0.0110709	0.00478112	0.000258192	5.40778E-05	0	0	0	
0.3125	-5.77895E-05	-0.000680074	0.000228526	8.05814E-05	0	0	0	
0.312667	0.00883816	-0.00369848	0.000175029	9.19723E-05	0	0	0	
0.312833	-0.0138725	0.00247127	0.000178144	8.99804E-05	0	0	0	
0.313	0.00783621	0.00169807	0.000200341	8.70938E-05	0	0	0	
0.313167	0.0018656	-0.00160921	0.000245903	5.92811E-05	0	0	0	
0.313333	-0.0111274	-0.0011295	0.000248056	6.00164E-05	0	0	0	
0.3135	0.0114455	0.00279316	0.000231262	4.22051E-05	0	0	0	
0.313667	-0.00316445	-0.000610533	0.000223113	4.40619E-05	0	0	0	
0.313833	-0.010069	-0.0017886	0.000248462	3.84171E-05	0	0	0	
0.314	0.0125958	0.000120837	0.000255537	3.12326E-05	0	0	0	
0.314167	-0.00131621	0.00226628	0.000253306	3.13857E-05	0	0	0	
0.314333	-0.00854608	-0.00105974	0.000229531	3.18623E-05	0	0	0	
0.3145	0.00359046	-0.00237379	0.0002009	4.52363E-05	0	0	0	
0.314667	0.00666792	0.00129255	0.000195118	4.55558E-05	0	0	0	
0.314833	-0.00900142	0.002115	0.000165304	5.64013E-05	0	0	0	
