0	-0.00413843	0.00120519	4.13843E-07	1.20519E-07	0	5	0	
0.000166667	0.00943726	-0.00671226	5.69486E-05	4.75703E-05	0	5	0	
0.000333333	-0.000901297	0.00575377	9.40788E-05	8.98023E-05	0	5	0	
0.0005	0.00290466	0.00418932	0.000133379	0.000140233	0	5	0	
0.000666667	0.00224321	-0.0095134	0.000103254	0.000164106	0	5	0	
0.000833333	-0.00493055	0.00735718	9.29102E-05	0.000184571	0	5	0	
0.001	-0.000489282	-0.00510499	6.72324E-05	0.000175272	0	5	0	
0.00116667	0.00457288	0.00592666	6.85138E-05	0.000130522	0	5	0	
0.00133333	-0.0031771	-0.00222952	8.9444E-05	0.000119991	0	5	0	
0.0015	0.0101083	-0.00452436	0.00011593	0.00014237	0	5	0	
0.00166667	-0.00349499	0.00733088	0.000154221	0.000149607	0	5	0	
0.00183333	-0.00243383	-0.00262992	0.000141676	0.000148888	0	5	0	
0.002	0.000741249	0.000403488	0.000138266	0.000106321	0	5	0	
0.00216667	0.00191096	-0.000918382	9.08434E-05	9.75663E-05	0	5	0	
0.00233333	-0.0075793	-0.00147325	9.91366E-05	8.00955E-05	0	5	0	
0.0025	0.00369851	0.00674011	0.000111438	0.000102201	0	5	0	
0.00266667	-0.00180729	-0.0117368	0.000121204	0.000145925	0	5	0	
0.00283333	0.00352605	0.0138692	0.000109331	0.000202952	0	5	0	
0.003	-0.00484004	-0.0105645	0.000109159	0.000241095	0	5	0	
0.00316667	0.000564079	0.00813057	0.000130906	0.000230863	0	5	0	
0.00333333	-0.00112554	-0.0102306	0.00015389	0.000201737	0	5	0	
0.0035	0.000634642	0.0100048	0.000155081	0.000187532	0	5	0	
0.00366667	-0.00207676	-0.00833786	0.000122558	0.000197997	0	5	0	
0.00383333	-0.000696701	0.00612104	7.84038E-05	0.000208527	0	5	0	
0.004	0.00582791	-0.00432243	4.92208E-05	0.000216398	0	5	0	
0.00416667	-0.00781942	0.00492132	7.7287E-05	0.00020209	0	5	0	
0.00433333	0.00568644	-0.00701659	0.000116075	0.000167384	0	5	0	
0.0045	-0.00446375	0.00732238	0.000152908	0.000138346	0	5	0	
0.00466667	-0.00376026	-0.00461968	0.000182604	0.000116295	0	5	0	
0.00483333	0.013933	-0.00292183	0.000215434	0.000126695	0	5	0	
0.005	-0.0134735	0.0102861	0.000241799	0.000125276	0	5	0	
0.00516667	0.00621758	-0.00808227	0.00024939	0.000157009	0	5	0	
0.00533333	0.00620156	-0.00181806	0.000234492	0.000214038	0	5	0	
0.0055	-0.00641948	0.00939255	0.000189511	0.000261714	0	5	0	
0.00566667	0.00193461	-0.0092794	0.000132435	0.000257532	0	5	0	
0.00583333	-1.02503E-06	0.0047575	8.50374E-05	0.000194724	0	5	0	
0.006	0.000445905	-0.000953181	0.000106564	0.000151641	0	5	0	
0.00616667	0.00512348	-0.00331745	0.000151661	0.000133594	0	5	0	
0.00633333	-0.00816209	0.00808204	0.000166803	0.000128562	0	5	0	
0.0065	0.00427963	-0.00726725	0.000159254	0.00012915	0	5	0	
0.00666667	-0.00192503	0.00136744	0.000112225	0.000122264	0	5	0	
0.00683333	0.00629528	0.00477254	0.000118576	0.000106774	0	5	0	
0.007	-0.00367338	-0.00695279	0.000112087	0.00010094	0	5	0	
0.00716667	0.00492039	0.00322586	0.000115513	0.000123766	0	5	0	
0.00733333	-0.00600738	-0.000316023	0.000123093	0.000124294	0	5	0	
0.0075	0.00206503	0.00267321	0.000120572	8.95993E-05	0	5	0	
0.00766667	-0.00207923	-0.00235893	0.000149838	5.15996E-05	0	5	0	
0.00783333	0.00622453	0.00128249	0.000157197	6.3305E-05	0	5	0	
0.008	-0.0048084	-0.00109541	0.000145623	7.34668E-05	0	5	0	
0.00816667	0.009194	0.00493029	0.000152868	8.33181E-05	0	5	0	
0.00833333	0.00105772	-0.00885211	0.000162352	0.000110451	0	5	0	
0.0085	-0.00676284	0.0133883	0.000145616	0.000163088	0	5	0	
0.00866667	0.00524542	-0.0109278	0.000195877	0.00020965	0	5	0	
0.00883333	0.00465219	0.00792312	0.000255069	0.000217433	0	5	0	
0.009	-0.00905595	-0.00205436	0.000316116	0.000193442	0	5	0	
0.00916667	0.0107163	-0.00307274	0.000285091	0.000132421	0	5	0	
0.00933333	-0.0144045	0.00934474	0.000246142	0.000117997	0	5	0	
0.0095	0.00951466	-0.00885799	0.000248289	0.000121774	0	5	0	
0.00966667	0.00680609	0.000424553	0.000208582	0.000206615	0	5	0	
0.00983333	-0.00956962	0.00844415	0.000183791	0.000286364	0	5	0	
0.01	0.00563777	-0.00354036	0.000146462	0.000297666	0	5	0	
0.0101667	-0.00793064	-0.00834752	0.000145815	0.000242645	0	5	0	
0.0103333	0.00508618	0.0049656	0.00013079	0.000175767	0	5	0	
0.0105	-0.00214523	0.00194091	0.000134492	0.000143729	0	5	0	
0.0106667	-0.00269413	0.000590102	0.000153506	0.000116752	0	5	0	
0.0108333	0.00713288	-0.00338075	0.000165242	6.38911E-05	0	5	0	
0.011	-0.00838726	-0.000958669	0.000168302	6.48812E-05	0	5	0	
0.0111667	0.00313826	0.00278098	0.000146773	7.18151E-05	0	5	0	
0.0113333	-0.000726281	-0.00277512	0.000112662	9.51959E-05	0	5	0	
0.0115	0.00163751	-0.00355196	7.30396E-05	0.000135236	0	5	0	
0.0116667	-0.00197697	0.00481742	5.85642E-05	0.000152461	0	5	0	
0.0118333	-0.00115159	-0.000885892	7.21186E-05	0.000137714	0	5	0	
0.012	0.00538605	-0.00298331	8.08202E-05	9.72155E-05	0	5	0	
0.0121667	-0.00722944	0.00149399	9.68287E-05	7.62668E-05	0	5	0	
0.0123333	0.002959	-0.00269848	0.000135815	6.18542E-05	0	5	0	
0.0125	0.00866114	0.007034	0.000247944	6.3895E-05	0	5	0	
0.0126667	-0.0166113	-0.0126338	0.000316092	0.000148601	0	5	0	
0.0128333	0.0108884	0.00810806	0.000315861	0.00027833	0	5	0	
0.013	-0.00313911	-0.000788645	0.000245925	0.000372949	0	5	0	
0.0131667	0.00229298	-0.00516088	0.000155698	0.000367971	0	5	0	
0.0133333	0.000709658	0.00970907	9.54532E-05	0.000291371	0	5	0	
0.0135	-0.00617238	-0.00383614	5.88629E-05	0.000212094	0	5	0	
0.0136667	0.0037952	-0.0148922	7.59514E-05	0.000252495	0	5	0	
0.0138333	0.00612384	0.0300094	8.23613E-05	0.000343732	0	5	0	
0.014	-0.00820646	-0.029892	0.000128548	0.00049411	0	5	0	
0.0141667	0.000707423	0.010515	0.000149121	0.000604683	0	5	0	
0.0143333	0.00361149	0.00238983	0.000182927	0.000607509	0	5	0	
0.0145	0.00105768	0.0024239	0.000149429	0.000439362	0	5	0	
0.0146667	-0.00785305	-0.00300542	0.000135456	0.000215633	0	5	0	
0.0148333	0.0108865	-0.000410704	0.000153599	0.000112676	0	5	0	
0.015	-0.00707458	-0.0101823	0.000208914	0.000122733	0	5	0	
0.0151667	-0.000887248	0.01771	0.00022406	0.000209225	0	5	0	
0.0153333	0.00286348	-0.0135055	0.00018227	0.000253056	0	5	0	
0.0155	0.00584123	0.000726646	0.000118696	0.000261462	0	5	0	
0.0156667	-0.00545693	0.0035197	9.77741E-05	0.000157531	0	5	0	
0.0158333	0.000990417	0.00258841	8.43152E-05	0.000138868	0	5	0	
0.016	0.00329507	-0.00927938	7.32146E-05	0.000149267	0	5	0	
0.0161667	-0.00452254	0.00104278	6.83193E-05	0.00017393	0	5	0	
0.0163333	-0.000536049	0.00772071	0.000101152	0.000164222	0	5	0	
0.0165	0.00798937	-0.0096626	0.000121301	0.000152704	0	5	0	
0.0166667	-0.0024413	0.00357819	0.000130043	0.000168678	0	5	0	
0.0168333	-0.000285642	0.00275622	9.80672E-05	0.000112851	0	5	0	
0.017	-0.000666711	-0.000173059	7.73811E-05	9.06213E-05	0	5	0	
0.0171667	-0.00127606	-0.0060092	4.1654E-05	5.69286E-05	0	5	0	
0.0173333	0.00269605	0.00449532	4.17383E-05	8.29746E-05	0	5	0	
0.0175	-0.00111681	0.000392765	3.92045E-05	8.15588E-05	0	5	0	
0.0176667	0.00140524	-0.00239386	6.48972E-05	6.93251E-05	0	5	0	
0.0178333	0.00345817	0.00364209	7.54651E-05	6.14793E-05	0	5	0	
0.018	-0.00409725	-0.000982126	9.23343E-05	5.94028E-05	0	5	0	
0.0181667	0.000372489	0.000787636	7.35148E-05	8.42585E-05	0	5	0	
0.0183333	-0.00184911	-0.00142901	5.8348E-05	7.64584E-05	0	5	0	
0.0185	-0.000664605	0.00226834	3.9986E-05	6.2611E-05	0	5	0	
0.0186667	0.00213487	0.0002616	3.61593E-05	4.5333E-05	0	5	0	
0.0188333	-0.000750006	-0.00221925	3.79262E-05	3.17602E-05	0	5	0	
0.019	0.000967696	0.00175208	3.56819E-05	4.53955E-05	0	5	0	
0.0191667	-0.00284006	0.00113793	4.06163E-05	6.40255E-05	0	5	0	
0.0193333	0.0024288	-0.0027167	3.49776E-05	7.08156E-05	0	5	0	
0.0195	-0.00190331	0.000197297	5.43577E-05	8.2712E-05	0	5	0	
0.0196667	-0.00765172	0.00785249	8.62825E-05	0.000113707	0	5	0	
0.0198333	0.0148699	-0.0122341	0.000153891	0.000156092	0	5	0	
0.02	-0.0104938	0.00986601	0.000209687	0.000204841	0	5	0	
0.0201667	0.00655436	-0.00447749	0.000201911	0.000237077	0	5	0	
0.0203333	-0.00657287	0.00203952	0.000178709	0.000232573	0	5	0	
0.0205	-0.00409977	-0.000916848	0.000116187	0.000167663	0	5	0	
0.0206667	0.00860765	-0.000644118	0.000139225	9.34024E-05	0	5	0	
0.0208333	-0.000447426	-0.000444431	0.000190768	7.31147E-05	0	5	0	
0.021	-0.000478567	0.00909383	0.000271654	0.000122996	0	5	0	
0.0211667	0.00520698	-0.0143693	0.000241121	0.000189934	0	5	0	
0.0213333	-0.00577873	0.00919727	0.000179936	0.000226044	0	5	0	
0.0215	-0.00356284	0.00186568	0.000112478	0.000189713	0	5	0	
0.0216667	0.00268548	-0.00606053	0.000111268	0.000130051	0	5	0	
0.0218333	0.0022737	0.000583385	8.24945E-05	0.000100297	0	5	0	
0.022	-0.00294638	0.00497148	8.01264E-05	0.000102944	0	5	0	
0.0221667	0.00694878	-0.00495872	7.69346E-05	0.000103504	0	5	0	
0.0223333	-0.00242294	0.00258634	8.92707E-05	8.91717E-05	0	5	0	
0.0225	-0.000661016	-0.000591707	7.0801E-05	7.39405E-05	0	5	0	
0.0226667	-0.000829016	0.000678751	7.2643E-05	5.72613E-05	0	5	0	
0.0228333	0.0036707	-0.00289748	9.89318E-05	5.24248E-05	0	5	0	
0.023	-0.0045657	0.00153098	0.000139482	5.19384E-05	0	5	0	
0.0231667	0.00348516	-0.00320855	0.00014147	6.03494E-05	0	5	0	
0.0233333	-0.00270271	0.0052709	0.000108923	7.6321E-05	0	5	0	
0.0235	0.00262612	-0.00404505	9.99204E-05	8.35337E-05	0	5	0	
0.0236667	-0.00088476	7.25984E-05	9.44991E-05	9.10912E-05	0	5	0	
0.0238333	0.00384312	0.0034345	9.67639E-05	7.58298E-05	0	5	0	
0.024	-0.00502409	-0.00429148	9.59084E-05	7.67572E-05	0	5	0	
0.0241667	0.00204604	0.00281856	9.94465E-05	7.18218E-05	0	5	0	
0.0243333	-0.00147631	-0.00123596	8.4607E-05	7.12213E-05	0	5	0	
0.0245	0.00143621	0.000275514	4.81053E-05	6.16525E-05	0	5	0	
0.0246667	-0.00296225	-0.000841822	3.73614E-05	4.58249E-05	0	5	0	
0.0248333	0.0036468	0.00138428	7.10641E-05	3.65157E-05	0	5	0	
0.025	-0.00198398	-0.000640374	0.000101764	4.29752E-05	0	5	0	
0.0251667	0.00221687	0.00266145	9.64876E-05	6.92248E-05	0	5	0	
0.0253333	-0.00042578	-0.00428695	7.98882E-05	0.000108788	0	5	0	
0.0255	0.0018817	0.00401996	5.8076E-05	0.000145779	0	5	0	
0.0256667	-0.00223765	-0.00339922	6.26774E-05	0.000164836	0	5	0	
0.0258333	0.000703036	0.00456464	4.60391E-05	0.000146946	0	5	0	
0.026	-0.00170419	-0.00159321	3.57631E-05	0.000101944	0	5	0	
0.0261667	0.00725137	-0.00348322	5.18918E-05	8.44045E-05	0	5	0	
0.0263333	-0.00611392	0.00939233	8.40488E-05	8.23626E-05	0	5	0	
0.0265	0.00408603	-0.0106719	0.000110808	0.000139626	0	5	0	
0.0266667	-0.00103374	0.00588886	9.49304E-05	0.000169595	0	5	0	
0.0268333	0.00194769	-0.0025528	7.73258E-05	0.000171771	0	5	0	
0.027	-0.00434674	0.00270846	6.82718E-05	0.000122484	0	5	0	
0.0271667	0.00395772	3.25047E-05	7.61906E-05	7.0558E-05	0	5	0	
0.0273333	-0.000308844	-0.00315036	6.81353E-05	4.67837E-05	0	5	0	
0.0275	0.00310302	0.00263035	6.45173E-05	5.7274E-05	0	5	0	
0.0276667	-0.00511643	0.00226335	6.69081E-05	9.41138E-05	0	5	0	
0.0278333	0.0038096	-0.00436904	8.41396E-05	0.000111176	0	5	0	
0.028	0.000802268	-0.00211367	9.95988E-05	0.000104494	0	5	0	
0.0281667	0.00198269	0.0100967	8.72188E-05	9.5065E-05	0	5	0	
0.0283333	-0.000527847	-0.00861581	0.000103174	0.000138958	0	5	0	
0.0285	0.00283025	-0.00154101	0.000110295	0.000194046	0	5	0	
0.0286667	-0.000481803	0.00765547	0.000122095	0.000204658	0	5	0	
0.0288333	0.00374859	-0.00446472	9.08725E-05	0.000172448	0	5	0	
0.029	-0.00494067	0.00464886	6.8141E-05	0.000117756	0	5	0	
0.0291667	-0.000846084	-0.00385032	8.53777E-05	8.99614E-05	0	5	0	
0.0293333	0.0152345	-0.000615371	0.000116279	0.000127605	0	5	0	
0.0295	-0.000574562	0.00589431	0.000161969	0.000173774	0	5	0	
0.0296667	-0.00696673	-0.00541063	0.000231066	0.000181588	0	5	0	
0.0298333	0.0150951	-0.00140248	0.000258126	0.000176413	0	5	0	
0.03	-0.0031783	0.00469204	0.000250198	0.000145571	0	5	0	
0.0301667	0.00404479	0.000920947	0.000148376	0.000129712	0	5	0	
0.0303333	-0.0010882	0.000665442	0.000114828	6.31051E-05	0	5	0	
0.0305	0.00443763	-0.00535198	7.58193E-05	5.36136E-05	0	5	0	
0.0306667	-0.00457753	0.00501506	8.98718E-05	8.3424E-05	0	5	0	
0.0308333	0.00644722	-0.00443308	0.000107068	0.000100911	0	5	0	
0.031	0.0029265	0.00396879	0.00011457	0.000106826	0	5	0	
0.0311667	-0.00462241	0.000615018	0.000116216	8.85359E-05	0	5	0	
0.0313333	0.0148411	0.000979317	0.000134872	9.17158E-05	0	5	0	
0.0315	-0.0107142	-0.00118752	0.00023588	6.62115E-05	0	5	0	
0.0316667	-0.0119474	0.000563469	0.000321492	6.13938E-05	0	5	0	
0.0318333	0.0207877	-0.00397874	0.00041206	7.21492E-05	0	5	0	
0.032	-0.0150403	0.00561189	0.000404938	0.000104245	0	5	0	
0.0321667	0.00980858	-0.0026518	0.000355771	0.000122347	0	5	0	
0.0323333	0.000252464	0.00133332	0.000230168	0.000115955	0	5	0	
0.0325	-0.00283299	-0.00198955	0.000120177	0.000103594	0	5	0	
0.0326667	-0.00598635	0.00156	8.84919E-05	0.000100117	0	5	0	
0.0328333	0.00428431	-0.000968682	0.00011628	9.49722E-05	0	5	0	
0.033	-0.00399197	-0.000997832	0.000137795	7.02135E-05	0	5	0	
0.0331667	0.00755776	0.00403866	0.000138947	5.12337E-05	0	5	0	
0.0333333	-0.0101421	-0.00474558	0.000142635	5.68608E-05	0	5	0	
0.0335	0.00164598	0.00455698	0.000179422	7.93685E-05	0	5	0	
0.0336667	0.000582509	-0.00763131	0.000174637	9.10083E-05	0	5	0	
0.0338333	0.001355	0.00792172	0.000145059	0.000119474	0	5	0	
0.034	-0.00639187	0.00051512	0.000149733	0.000186127	0	5	0	
0.0341667	0.0062614	-0.0117976	0.000172456	0.000276987	0	5	0	
0.0343333	-0.00255153	0.0168777	0.000154967	0.000311313	0	5	0	
0.0345	0.000607185	-0.0117845	0.000115814	0.000303849	0	5	0	
0.0346667	-0.00530007	0.00141609	0.000106994	0.000255596	0	5	0	
0.0348333	0.00392678	0.00477997	0.000124467	0.000219183	0	5	0	
0.035	-0.00284187	-0.00687407	9.79057E-05	0.000165846	0	5	0	
0.0351667	0.00548021	0.0068555	9.3473E-05	0.000131104	0	5	0	
0.0353333	-0.00695001	-0.00377033	8.52534E-05	0.000152558	0	5	0	
0.0355	0.00713192	-0.00522982	0.000120936	0.000218707	0	5	0	
0.0356667	-0.00234871	0.00991545	0.000116978	0.00026229	0	5	0	
0.0358333	0.00190647	-0.0072586	0.000100495	0.000236344	0	5	0	
0.036	-0.00428485	0.000721987	8.31537E-05	0.000158111	0	5	0	
0.0361667	0.00201038	0.000494247	8.53677E-05	8.48694E-05	0	5	0	
0.0363333	-0.0012073	0.00140631	9.26118E-05	5.50806E-05	0	5	0	
0.0365	0.00262499	-0.00401926	9.74697E-05	4.8518E-05	0	5	0	
0.0366667	-0.00165032	0.00241266	0.000103802	6.46452E-05	0	5	0	
0.0368333	0.00553764	0.000756879	0.00010363	5.91137E-05	0	5	0	
0.037	-0.00494137	0.00126743	0.000109045	6.96791E-05	0	5	0	
0.0371667	0.00156081	-0.00499323	8.20734E-05	7.36263E-05	0	5	0	
0.0373333	-0.00144886	0.00310588	7.29637E-05	8.08456E-05	0	5	0	
0.0375	-0.000784301	-0.00111954	4.18557E-05	7.32717E-05	0	5	0	
0.0376667	0.00195331	0.000291248	4.32758E-05	5.48307E-05	0	5	0	
0.0378333	0.000179774	-0.0010931	3.54149E-05	4.55446E-05	0	5	0	
0.038	-0.00330766	0.000640173	4.26723E-05	2.77043E-05	0	5	0	
0.0381667	0.00360044	0.000670317	5.40748E-05	3.29183E-05	0	5	0	
0.0383333	-0.00282833	-0.000275047	6.08715E-05	3.18033E-05	0	5	0	
0.0385	-0.00164877	0.000973685	5.68427E-05	3.435E-05	0	5	0	
0.0386667	0.00068572	-0.00123109	3.73892E-05	2.8305E-05	0	5	0	
0.0388333	0.00122279	-0.000350655	3.89987E-05	2.21922E-05	0	5	0	
0.039	-0.00394401	0.000246572	6.70078E-05	4.11513E-05	0	5	0	
0.0391667	0.00457002	-0.00172164	9.50845E-05	6.21917E-05	0	5	0	
0.0393333	-0.00103024	0.00113967	9.37304E-05	7.33769E-05	0	5	0	
0.0395	0.00102799	-0.000562612	6.02444E-05	5.3172E-05	0	5	0	
0.0396667	-0.00291708	-0.000920573	4.14765E-05	3.03527E-05	0	5	0	
0.0398333	-0.000702187	0.00428326	3.73505E-05	3.40528E-05	0	5	0	
0.04	0.000465288	-0.00755835	4.05236E-05	7.44089E-05	0	5	0	
0.0401667	0.000170777	0.00785819	3.35603E-05	0.000111874	0	5	0	
0.0403333	-0.00179442	-0.0057314	4.32373E-05	0.000135992	0	5	0	
0.0405	0.00521138	0.00227547	5.79759E-05	0.000117113	0	5	0	
0.0406667	-0.00158661	-0.00269678	7.52022E-05	8.92923E-05	0	5	0	
0.0408333	0.00130813	0.00148905	6.98639E-05	7.17469E-05	0	5	0	
0.041	-0.00628097	0.000172911	7.05674E-05	7.71166E-05	0	5	0	
0.0411667	0.00407952	-0.000396026	7.85166E-05	0.000102527	0	5	0	
0.0413333	-0.00326991	-0.00133028	8.27092E-05	0.000122928	0	5	0	
0.0415	0.00165243	0.00231235	8.29815E-05	0.000123872	0	5	0	
0.0416667	-0.000101201	-0.000532425	6.40755E-05	9.09249E-05	0	5	0	
0.0418333	0.000787316	-0.00395568	4.96761E-05	5.62399E-05	0	5	0	
0.042	-0.0013375	0.00512214	5.10872E-05	5.9022E-05	0	5	0	
0.0421667	0.00176043	-0.0060477	6.53022E-05	0.000100774	0	5	0	
0.0423333	-0.00208422	0.00958195	6.34926E-05	0.000144922	0	5	0	
0.0425	0.00368308	-0.0126765	8.49261E-05	0.000191255	0	5	0	
0.0426667	-0.000244365	-0.00252453	8.62619E-05	0.00023414	0	5	0	
0.0428333	0.000458478	0.013068	8.61567E-05	0.000268472	0	5	0	
0.043	-0.00269178	-0.0084769	7.77945E-05	0.000251184	0	5	0	
0.0431667	0.0036213	-0.00659463	8.02218E-05	0.000249939	0	5	0	
0.0433333	-0.00289965	0.00920046	8.61036E-05	0.000212759	0	5	0	
0.0435	0.00766343	-0.00348491	8.55206E-05	0.000191942	0	5	0	
0.0436667	-0.00407051	0.000266938	0.000105221	0.000138713	0	5	0	
0.0438333	0.00123061	-0.00864929	0.000104971	0.000125403	0	5	0	
0.044	0.00312721	0.00428399	7.73798E-05	0.000127283	0	5	0	
0.0441667	-0.00093398	0.0039193	5.03706E-05	0.0001447	0	5	0	
0.0443333	-0.0048996	-0.00212364	8.34396E-05	0.000116021	0	5	0	
0.0445	0.00582299	-0.00282976	9.83765E-05	0.000112295	0	5	0	
0.0446667	-0.00360377	0.00176268	0.000108982	7.92386E-05	0	5	0	
0.0448333	0.00216082	0.00597329	8.27558E-05	0.000140326	0	5	0	
0.045	-0.00107472	-0.0104309	7.45966E-05	0.00015057	0	5	0	
0.0451667	0.00118178	0.00485279	5.17497E-05	0.000180992	0	5	0	
0.0453333	5.86907E-05	0.00345096	5.94579E-05	0.000146862	0	5	0	
0.0455	0.000216987	-0.00362688	7.30798E-05	0.000118519	0	5	0	
0.0456667	0.000969663	-0.000441275	7.80789E-05	0.000108053	0	5	0	
0.0458333	0.00115282	0.00179154	6.46391E-05	8.17522E-05	0	5	0	
0.046	0.000165622	0.00225573	5.53964E-05	8.34413E-05	0	5	0	
0.0461667	-0.000673972	-0.00385071	5.09642E-05	7.37515E-05	0	5	0	
0.0463333	-0.000902237	0.00234926	4.75026E-05	7.50489E-05	0	5	0	
0.0465	0.00174051	0.00195	4.30571E-05	7.33477E-05	0	5	0	
0.0466667	-0.000876639	-0.00332873	4.00529E-05	5.25781E-05	0	5	0	
0.0468333	0.00258209	-0.00232622	4.20092E-05	5.53168E-05	0	5	0	
0.047	-0.000266068	0.00604612	4.4782E-05	6.08028E-05	0	5	0	
0.0471667	-0.000898888	-0.000802579	4.16655E-05	7.47667E-05	0	5	0	
0.0473333	-0.000544207	-0.00214291	3.63271E-05	8.24396E-05	0	5	0	
0.0475	-0.000130645	0.00104101	2.86924E-05	6.16104E-05	0	5	0	
0.0476667	0.000247763	-0.000379236	3.21053E-05	4.59931E-05	0	5	0	
0.0478333	-0.00156654	-0.000113139	3.42985E-05	2.94278E-05	0	5	0	
0.048	0.00177383	0.00292563	3.69279E-05	4.90998E-05	0	5	0	
0.0481667	-0.000838108	-0.00194549	3.31852E-05	7.21134E-05	0	5	0	
0.0483333	0.00187001	-0.00117559	4.72382E-05	8.07191E-05	0	5	0	
0.0485	-0.00420202	0.00806638	4.97544E-05	8.69834E-05	0	5	0	
0.0486667	0.000103449	-0.00834263	8.29034E-05	0.000108577	0	5	0	
0.0488333	0.00442142	0.0001996	0.00010072	0.000163657	0	5	0	
0.049	-0.00435622	0.00381609	0.000109363	0.00018459	0	5	0	
0.0491667	0.00339732	-0.00524615	9.45076E-05	0.000157917	0	5	0	
0.0493333	-0.00591307	0.00470194	8.33292E-05	0.000114333	0	5	0	
0.0495	0.00162522	0.000369456	9.42827E-05	8.08548E-05	0	5	0	
0.0496667	0.0022785	-0.00576428	0.000109829	8.01139E-05	0	5	0	
0.0498333	-0.00151568	0.00921825	8.45398E-05	9.1434E-05	0	5	0	
0.05	-0.00256668	-0.00731076	8.19223E-05	0.000133104	0	5	0	
0.0501667	0.0019761	0.00153647	7.05451E-05	0.000153583	0	5	0	
0.0503333	-0.00191559	-0.00228854	8.61246E-05	0.000141375	0	5	0	
0.0505	0.00250882	0.00482609	7.23905E-05	0.00010605	0	5	0	
0.0506667	-0.00276169	-0.00434926	5.679E-05	9.13622E-05	0	5	0	
0.0508333	0.00177703	0.00125232	6.25717E-05	8.24987E-05	0	5	0	
0.051	-0.0021554	0.00505637	5.88587E-05	8.33068E-05	0	5	0	
0.0511667	0.000472391	-0.00517506	5.29444E-05	7.87221E-05	0	5	0	
0.0513333	-0.000195521	0.000304722	2.80097E-05	0.000105856	0	5	0	
0.0515	0.00296821	0.00421246	2.34459E-05	0.000122205	0	5	0	
0.0516667	-0.00196715	-0.00319932	3.90642E-05	0.000117472	0	5	0	
0.0518333	0.00198247	0.000790282	5.95583E-05	9.06691E-05	0	5	0	
0.052	-0.00205792	0.00141278	6.98195E-05	6.67854E-05	0	5	0	
0.0521667	0.000959688	-0.00155125	6.94727E-05	5.68005E-05	0	5	0	
0.0523333	-0.00298275	0.00171041	6.31319E-05	5.17168E-05	0	5	0	
0.0525	0.0029198	-0.000766837	5.62401E-05	3.98762E-05	0	5	0	
0.0526667	-0.000386463	0.003859	4.60279E-05	4.39324E-05	0	5	0	
0.0528333	0.00130946	-0.00424923	4.14987E-05	6.07964E-05	0	5	0	
0.053	-0.000484752	0.00447876	4.44821E-05	7.90055E-05	0	5	0	
0.0531667	0.000393297	-0.00651495	4.06645E-05	9.27189E-05	0	5	0	
0.0533333	-0.00128154	0.00528058	3.88084E-05	9.80189E-05	0	5	0	
0.0535	0.00117349	-0.00127063	3.96482E-05	0.000100569	0	5	0	
0.0536667	-0.0019715	-0.000490003	5.73184E-05	9.7626E-05	0	5	0	
0.0538333	0.00302296	0.000689694	8.26718E-05	6.84623E-05	0	5	0	
0.054	-0.00198583	-0.00200481	9.30995E-05	5.8076E-05	0	5	0	
0.0541667	0.00167838	-0.00100415	7.60644E-05	5.26864E-05	0	5	0	
0.0543333	0.00039837	0.000358207	4.77971E-05	7.59581E-05	0	5	0	
0.0545	-0.000368571	-0.0017371	2.43336E-05	8.14471E-05	0	5	0	
0.0546667	0.00130679	0.00210203	1.87849E-05	7.76517E-05	0	5	0	
0.0548333	-0.000129223	-0.00457754	2.46828E-05	6.57152E-05	0	5	0	
0.055	3.33589E-05	0.00368392	3.26765E-05	7.47678E-05	0	5	0	
0.0551667	0.00150895	-0.00183027	4.02469E-05	7.1247E-05	0	5	0	
0.0553333	-0.00157082	-0.00236894	4.95062E-05	6.96775E-05	0	5	0	
0.0555	0.00429117	0.00483939	6.23726E-05	6.32876E-05	0	5	0	
0.0556667	-0.00293089	-0.00201717	7.47229E-05	6.41078E-05	0	5	0	
0.0558333	0.0017773	-0.00113062	6.7542E-05	7.56674E-05	0	5	0	
0.056	-0.000139967	0.00288426	5.21583E-05	6.68842E-05	0	5	0	
0.0561667	0.00153307	-0.00312483	4.24434E-05	6.58115E-05	0	5	0	
0.0563333	-0.00104643	0.00195216	4.16387E-05	6.19345E-05	0	5	0	
0.0565	0.000119452	0.000315667	3.6675E-05	7.18871E-05	0	5	0	
0.0566667	0.0022024	-0.00307132	2.94454E-05	7.09213E-05	0	5	0	
0.0568333	-0.000129579	0.00112894	3.62034E-05	6.18856E-05	0	5	0	
0.057	-0.00158354	0.00458112	6.29075E-05	5.12318E-05	0	5	0	
0.0571667	0.00413554	-0.00730278	7.73049E-05	7.50462E-05	0	5	0	
0.0573333	-0.00454931	0.00662942	8.49278E-05	0.00010863	0	5	0	
0.0575	0.000119346	-0.00356454	8.06456E-05	0.000121102	0	5	0	
0.0576667	0.00437317	-0.00657203	8.70583E-05	0.000134137	0	5	0	
0.0578333	-0.00374672	0.00998503	8.3388E-05	0.000138874	0	5	0	
0.058	6.38286E-05	0.00209168	8.26049E-05	0.000194993	0	5	0	
0.0581667	0.000936179	-0.0156035	8.55967E-05	0.000227569	0	5	0	
0.0583333	-0.00111829	0.00793481	8.92113E-05	0.000257315	0	5	0	
0.0585	0.00271454	0.0103754	9.151E-05	0.000292745	0	5	0	
0.0586667	-0.00561445	-0.0111789	8.77759E-05	0.000263978	0	5	0	
0.0588333	0.00427408	0.000562325	8.93775E-05	0.000255378	0	5	0	
0.059	-0.00205116	0.00451169	8.3527E-05	0.000175885	0	5	0	
0.0591667	0.00126318	-0.00411068	6.98992E-05	0.000150014	0	5	0	
0.0593333	-0.00130533	0.00765547	5.49825E-05	0.00011784	0	5	0	
0.0595	0.00186603	-0.0092436	4.05023E-05	0.00012143	0	5	0	
0.0596667	-0.000732301	0.000766876	3.6208E-05	0.000161073	0	5	0	
0.0598333	9.50936E-05	0.00550267	3.59376E-05	0.000172697	0	5	0	
0.06	0.0012084	-0.00532153	4.66021E-05	0.000165375	0	5	0	
0.0601667	-0.001229	0.000154522	7.52044E-05	0.000174969	0	5	0	
0.0603333	-0.000935032	0.00451838	0.000120257	0.00016874	0	5	0	
0.0605	0.0086819	-0.00582129	0.000149831	0.000163543	0	5	0	
0.0606667	-0.00777959	0.000281028	0.000183001	0.000135496	0	5	0	
0.0608333	0.00143264	0.00647888	0.000167869	0.000114886	0	5	0	
0.061	-0.000746872	-0.00356847	0.000132793	0.000104612	0	5	0	
0.0611667	0.000957248	-0.00114608	6.59712E-05	7.27787E-05	0	5	0	
0.0613333	-0.000524977	0.0021808	2.7862E-05	5.94539E-05	0	5	0	
0.0615	0.00168924	-0.00273896	2.2545E-05	6.04229E-05	0	5	0	
0.0616667	0.00101661	0.000827344	5.54763E-05	6.97129E-05	0	5	0	
0.0618333	-0.0026542	-0.00283827	0.000104892	8.9883E-05	0	5	0	
0.062	-0.00295419	0.00865431	0.000126824	0.000102486	0	5	0	
0.0621667	0.0057755	-0.00757581	0.000124975	0.000125053	0	5	0	
0.0623333	-0.00241462	0.00235671	0.00011455	0.000131736	0	5	0	
0.0625	0.000798597	-0.00183406	0.000119768	0.000107656	0	5	0	
0.0626667	0.000116747	0.000539626	0.000112638	6.79231E-05	0	5	0	
0.0628333	0.000948589	-0.00174963	9.50729E-05	3.87307E-05	0	5	0	
0.063	-0.00405033	0.00334657	8.81615E-05	4.32719E-05	0	5	0	
0.0631667	0.00990509	-0.00811496	0.000105102	7.65284E-05	0	5	0	
0.0633333	-0.00482147	0.00618905	0.000129902	0.000110941	0	5	0	
0.0635	-0.000129625	0.00288988	0.000125118	0.000167183	0	5	0	
0.0636667	0.00201379	-0.0109943	0.0001003	0.00020884	0	5	0	
0.0638333	-0.00211605	0.0123273	6.1228E-05	0.000228877	0	5	0	
0.064	0.00188857	-0.00705714	5.6444E-05	0.000223477	0	5	0	
0.0641667	0.00128703	0.00208142	5.90265E-05	0.000191603	0	5	0	
0.0643333	-0.0032818	0.00250692	0.000103992	0.000177502	0	5	0	
0.0645	0.00572716	-0.00734675	0.000133683	0.000138758	0	5	0	
0.0646667	-0.00436698	0.00628509	0.000143348	0.000132706	0	5	0	
0.0648333	0.00109644	-5.36591E-05	0.000101643	0.000136702	0	5	0	
0.065	0.000813065	-0.00179226	5.7984E-05	0.000148933	0	5	0	
0.0651667	6.39889E-07	-0.000246932	2.6704E-05	0.000122859	0	5	0	
0.0653333	-0.00219974	0.00219019	2.89117E-05	8.29592E-05	0	5	0	
0.0655	0.00260012	-0.00228631	3.94175E-05	4.89662E-05	0	5	0	
0.0656667	0.000441806	0.000556609	5.75481E-05	5.1443E-05	0	5	0	
0.0658333	-0.00398523	0.00334878	5.91501E-05	6.94194E-05	0	5	0	
0.066	0.000797795	-0.00606946	5.51665E-05	9.08167E-05	0	5	0	
0.0661667	0.00196629	0.00377525	5.51221E-05	9.72845E-05	0	5	0	
0.0663333	-0.0028077	-0.00031124	5.19863E-05	9.49669E-05	0	5	0	
0.0665	0.00272027	-0.00109471	5.69154E-05	8.71822E-05	0	5	0	
0.0666667	-0.00112483	0.00119883	4.94412E-05	6.40194E-05	0	5	0	
0.0668333	0.00241215	0.000690474	4.55486E-05	4.2652E-05	0	5	0	
0.067	-0.00444622	-0.00184581	4.85099E-05	3.40519E-05	0	5	0	
0.0671667	0.00138089	-0.000112324	5.1825E-05	5.42066E-05	0	5	0	
0.0673333	0.000230246	0.000551497	5.05738E-05	7.01524E-05	0	5	0	
0.0675	-0.000619062	-0.0020637	3.92106E-05	6.18706E-05	0	5	0	
0.0676667	-6.063E-05	0.00229788	4.65659E-05	5.57746E-05	0	5	0	
0.0678333	0.00189911	-0.000342094	5.85439E-05	5.16953E-05	0	5	0	
0.068	-0.00323536	-0.00153585	7.40584E-05	6.27974E-05	0	5	0	
0.0681667	0.00308775	0.0041766	6.97048E-05	5.3794E-05	0	5	0	
0.0683333	-0.00120916	-0.0052702	6.11471E-05	6.00884E-05	0	5	0	
0.0685	0.000532091	0.00239448	4.63239E-05	7.13015E-05	0	5	0	
0.0686667	-0.00179046	-6.99649E-05	3.83259E-05	7.13879E-05	0	5	0	
0.0688333	0.00158326	-0.00294001	3.54882E-05	8.2467E-05	0	5	0	
0.069	-0.000291082	0.00445817	3.68916E-05	9.2239E-05	0	5	0	
0.0691667	-0.00183767	-0.0024271	3.37362E-05	0.000101463	0	5	0	
0.0693333	0.00151181	-2.43796E-05	4.15857E-05	8.84229E-05	0	5	0	
0.0695	0.000513449	0.000331655	5.37932E-05	7.15387E-05	0	5	0	
0.0696667	-3.77544E-05	-0.00338265	5.99198E-05	6.0657E-05	0	5	0	
0.0698333	0.00193554	0.00336956	5.87952E-05	5.63486E-05	0	5	0	
0.07	-0.00272267	-0.00137339	6.62413E-05	4.71206E-05	0	5	0	
0.0701667	0.00181069	0.000652496	7.07387E-05	4.49911E-05	0	5	0	
0.0703333	0.000279182	-1.9884E-05	6.038E-05	2.68526E-05	0	5	0	
0.0705	0.000330387	0.00239362	4.62185E-05	2.38641E-05	0	5	0	
0.0706667	-0.00270834	-0.0034348	4.81478E-05	4.26276E-05	0	5	0	
0.0708333	0.00292941	0.00121354	5.65042E-05	7.18335E-05	0	5	0	
0.071	0.0014951	0.000793994	7.58786E-05	7.54964E-05	0	5	0	
0.0711667	-0.00181945	-0.00188233	7.53063E-05	6.30856E-05	0	5	0	
0.0713333	0.00210841	0.00369371	6.88834E-05	4.90533E-05	0	5	0	
0.0715	-0.00261912	-0.000930558	4.71216E-05	4.68536E-05	0	5	0	
0.0716667	0.00161679	0.00409269	5.13877E-05	5.87006E-05	0	5	0	
0.0718333	0.00304095	-0.0060553	8.59408E-05	7.63571E-05	0	5	0	
0.072	-0.00577438	0.00533836	0.000105078	0.000110319	0	5	0	
0.0721667	0.00312117	-0.00413648	0.000111541	0.000111588	0	5	0	
0.0723333	-0.000781249	0.00138079	8.25219E-05	9.1939E-05	0	5	0	
0.0725	0.00264255	0.000660604	7.69115E-05	5.2083E-05	0	5	0	
0.0726667	-0.00262542	0.00267183	7.27909E-05	3.33583E-05	0	5	0	
0.0728333	0.000690938	-0.00471337	6.23241E-05	4.15189E-05	0	5	0	
0.073	0.00172294	-0.000521028	5.25251E-05	7.42511E-05	0	5	0	
0.0731667	-0.00272175	0.00770561	3.7632E-05	8.2355E-05	0	5	0	
0.0733333	-0.000340677	-0.00213268	5.92658E-05	0.000136656	0	5	0	
0.0735	0.00149936	-0.0121392	7.19663E-05	0.000202121	0	5	0	
0.0736667	-0.000758585	0.0110881	8.26286E-05	0.000249969	0	5	0	
0.0738333	0.00177288	-0.00237705	7.28504E-05	0.000231712	0	5	0	
0.074	-0.00155234	0.00319873	5.80849E-05	0.000148752	0	5	0	
0.0741667	-0.00239991	-0.00610774	4.9193E-05	0.000118778	0	5	0	
0.0743333	0.00508823	-0.00182962	5.49753E-05	8.72264E-05	0	5	0	
0.0745	-0.00225922	0.00657427	7.06342E-05	9.60575E-05	0	5	0	
0.0746667	-0.00340626	-0.00053729	0.000100637	0.000131728	0	5	0	
0.0748333	0.00323209	-0.00914395	9.96822E-05	0.000187305	0	5	0	
0.075	0.000181295	0.00425613	7.83031E-05	0.000196908	0	5	0	
0.0751667	-0.000786871	0.00827112	4.11764E-05	0.000186349	0	5	0	
0.0753333	-0.00068712	-0.0102258	2.22957E-05	0.000152181	0	5	0	
0.0755	0.00118027	0.00169333	1.79317E-05	0.000174697	0	5	0	
0.0756667	-0.00116218	0.00321242	2.9944E-05	0.000167882	0	5	0	
0.0758333	0.00163009	-0.00379369	5.45518E-05	0.000130801	0	5	0	
0.076	-0.00164385	0.00323859	6.79326E-05	9.40263E-05	0	5	0	
0.0761667	0.0020419	-0.0032328	5.76806E-05	6.62268E-05	0	5	0	
0.0763333	-0.000845952	0.0042925	4.12034E-05	9.50644E-05	0	5	0	
0.0765	-0.000955185	0.000314511	3.20755E-05	0.000102721	0	5	0	
0.0766667	0.0028842	-0.0028984	3.16906E-05	8.84252E-05	0	5	0	
0.0768333	-0.00134819	0.000322381	4.30514E-05	6.2588E-05	0	5	0	
0.077	-0.00186893	0.00431349	5.87689E-05	5.02071E-05	0	5	0	
0.0771667	0.00232304	-0.00274056	6.9195E-05	7.75882E-05	0	5	0	
0.0773333	-0.00155199	0.00254471	6.00881E-05	8.81835E-05	0	5	0	
0.0775	0.00056548	-0.000441139	4.14188E-05	8.80443E-05	0	5	0	
0.0776667	-0.000937056	-0.00156616	3.11091E-05	5.50311E-05	0	5	0	
0.0778333	0.00121295	0.00245342	2.96678E-05	4.14942E-05	0	5	0	
0.078	-0.00111891	-0.00113436	2.8774E-05	3.12266E-05	0	5	0	
0.0781667	0.000841458	0.00208496	3.15279E-05	4.82274E-05	0	5	0	
0.0783333	-0.00303441	-0.000117039	3.29521E-05	5.19601E-05	0	5	0	
0.0785	0.00231599	0.000977139	4.43585E-05	5.32912E-05	0	5	0	
0.0786667	0.000597016	-0.00568814	4.13839E-05	5.40936E-05	0	5	0	
0.0788333	-0.00152141	0.00529906	5.29437E-05	7.08633E-05	0	5	0	
0.079	-0.00153179	0.00247465	8.15997E-05	0.000121758	0	5	0	
0.0791667	0.0062507	-0.0096442	0.000107749	0.000164356	0	5	0	
0.0793333	-0.00455892	0.0108904	0.000119682	0.000191103	0	5	0	
0.0795	0.00377644	-0.00490977	0.00010418	0.000184002	0	5	0	
0.0796667	-0.00238676	-0.00117141	0.000100288	0.000185889	0	5	0	
0.0798333	0.00050409	0.00477983	7.16731E-05	0.000202214	0	5	0	
0.08	0.0010715	-0.00985983	4.60139E-05	0.000216885	0	5	0	
0.0801667	0.00334551	0.0113775	4.02651E-05	0.00020798	0	5	0	
0.0803333	-0.0030737	-0.0042229	7.42761E-05	0.000206039	0	5	0	
0.0805	0.0014421	-0.00622609	8.85383E-05	0.000232974	0	5	0	
0.0806667	0.00171347	0.0100179	7.14987E-05	0.000219499	0	5	0	
0.0808333	-0.00119582	-0.00886473	4.49978E-05	0.00021773	0	5	0	
0.081	-0.000658479	0.00275007	5.12101E-05	0.000185497	0	5	0	
0.0811667	0.00358985	-0.00198759	7.31438E-05	0.000168158	0	5	0	
0.0813333	-0.00411664	0.0034831	8.83133E-05	0.000114244	0	5	0	
0.0815	0.00398614	-0.00330987	9.01513E-05	7.71205E-05	0	5	0	
0.0816667	-0.00146336	0.00283064	7.87302E-05	7.59599E-05	0	5	0	
0.0818333	0.0020541	-0.00609128	5.76309E-05	7.97893E-05	0	5	0	
0.082	-0.00159771	0.00112086	4.64589E-05	7.95579E-05	0	5	0	
0.0821667	0.0005568	0.000897601	3.26434E-05	5.55496E-05	0	5	0	
0.0823333	0.00039031	-0.00179979	2.55688E-05	4.45814E-05	0	5	0	
0.0825	0.00105741	0.00082076	2.08059E-05	3.7359E-05	0	5	0	
0.0826667	-0.00100151	-0.00233283	3.56803E-05	4.84574E-05	0	5	0	
0.0828333	0.00278072	0.000829735	4.66166E-05	5.00171E-05	0	5	0	
0.083	-0.00166356	-0.00239556	5.18202E-05	4.2348E-05	0	5	0	
0.0831667	0.00142995	-0.00044294	3.78263E-05	4.72776E-05	0	5	0	
0.0833333	-0.00349388	-0.00159153	4.2104E-05	5.10599E-05	0	5	0	
0.0835	0.00279457	0.00146506	4.38411E-05	6.61873E-05	0	5	0	
0.0836667	-0.000999549	-0.00133565	5.14658E-05	5.81587E-05	0	5	0	
0.0838333	0.00109897	-0.000182623	4.51376E-05	5.01625E-05	0	5	0	
0.084	-0.00085495	0.0006707	4.04786E-05	2.78988E-05	0	5	0	
0.0841667	0.000709306	-0.00213631	4.1626E-05	3.19486E-05	0	5	0	
0.0843333	-0.0025898	0.00063274	4.35192E-05	3.39121E-05	0	5	0	
0.0845	0.000460353	-0.00233383	4.43871E-05	4.36763E-05	0	5	0	
0.0846667	0.000539967	0.00261182	3.46044E-05	4.55564E-05	0	5	0	
0.0848333	0.000128125	-0.000892512	2.75568E-05	4.52229E-05	0	5	0	
0.085	-0.000238437	-0.00212784	2.93433E-05	4.39156E-05	0	5	0	
0.0851667	0.000606432	0.00233821	4.56553E-05	4.29999E-05	0	5	0	
0.0853333	-0.00221702	-0.00261079	5.66251E-05	4.1192E-05	0	5	0	
0.0855	0.00147957	0.00198045	5.93661E-05	5.06743E-05	0	5	0	
0.0856667	-0.00175255	0.00227548	5.43846E-05	5.39752E-05	0	5	0	
0.0858333	0.00174105	-0.00326525	5.69669E-05	6.00119E-05	0	5	0	
0.086	-0.000758814	0.000697975	5.46147E-05	5.30448E-05	0	5	0	
0.0861667	0.000715732	-0.000739314	4.93922E-05	4.54438E-05	0	5	0	
0.0863333	-0.00151364	0.000448705	4.18032E-05	3.30093E-05	0	5	0	
0.0865	0.00322425	-0.000615402	4.62433E-05	2.63869E-05	0	5	0	
0.0866667	-0.00129692	0.00160905	5.91215E-05	3.75798E-05	0	5	0	
0.0868333	0.000188391	0.00247421	6.90751E-05	4.64727E-05	0	5	0	
0.087	-0.000761739	-0.00342009	6.6882E-05	6.77274E-05	0	5	0	
0.0871667	-0.000188284	-6.79156E-05	5.19594E-05	8.89646E-05	0	5	0	
0.0873333	0.000478257	0.00233046	3.88898E-05	0.000111336	0	5	0	
0.0875	0.00179486	-0.000959098	4.36899E-05	0.00010128	0	5	0	
0.0876667	-0.000182311	0.0012026	6.24772E-05	6.99734E-05	0	5	0	
0.0878333	0.00173408	0.000136903	6.63027E-05	5.0349E-05	0	5	0	
0.088	-0.00256829	-0.00226382	5.64701E-05	4.31811E-05	0	5	0	
0.0881667	0.000642755	0.00481223	4.53027E-05	5.00356E-05	0	5	0	
0.0883333	-0.00219634	-0.00137658	4.98086E-05	7.16894E-05	0	5	0	
0.0885	0.00465727	-0.00406097	6.27513E-05	0.000111292	0	5	0	
0.0886667	-0.0012318	0.00165488	6.12871E-05	0.000106418	0	5	0	
0.0888333	0.00110012	0.0104676	5.82548E-05	0.000142319	0	5	0	
0.089	-0.00221202	-0.0147221	4.53313E-05	0.000171769	0	5	0	
0.0891667	0.00245411	0.0103598	5.64526E-05	0.000233049	0	5	0	
0.0893333	-0.00327023	-0.00894823	6.26519E-05	0.00022467	0	5	0	
0.0895	0.00294008	0.00416333	7.04725E-05	0.000212853	0	5	0	
0.0896667	-0.00106134	0.00444615	6.25519E-05	0.00023384	0	5	0	
0.0898333	0.00387876	-0.0107035	5.88334E-05	0.000241321	0	5	0	
0.09	-0.00455462	0.0103345	7.22292E-05	0.000245427	0	5	0	
0.0901667	0.00216385	-0.000972306	9.15075E-05	0.000252842	0	5	0	
0.0903333	-0.00303756	-0.00520633	0.000102478	0.000240743	0	5	0	
0.0905	0.00238889	0.00283312	9.02208E-05	0.000196564	0	5	0	
0.0906667	-0.000862113	-0.00260718	7.27141E-05	0.00010378	0	5	0	
0.0908333	0.00208409	0.00384337	5.59983E-05	6.47286E-05	0	5	0	
0.091	0.000722684	-0.00129695	3.97758E-05	5.52908E-05	0	5	0	
0.0911667	-0.00405555	-0.00291271	3.59303E-05	9.26022E-05	0	5	0	
0.0913333	0.00204508	0.00325578	4.90652E-05	0.000118382	0	5	0	
0.0915	0.000750716	-0.000972227	7.47063E-05	0.000111264	0	5	0	
0.0916667	-0.000908736	-0.000168108	8.29836E-05	7.3433E-05	0	5	0	
0.0918333	0.00212391	7.35138E-05	6.96394E-05	2.97447E-05	0	5	0	
0.092	0.000174627	0.000492628	4.79174E-05	1.98365E-05	0	5	0	
0.0921667	0.000361874	-0.000656655	2.60833E-05	1.33314E-05	0	5	0	
0.0923333	-0.00211856	-0.00317203	2.27922E-05	2.49411E-05	0	5	0	
0.0925	0.00216615	0.000106915	2.31774E-05	3.5117E-05	0	5	0	
0.0926667	0.000679958	0.00434257	2.67889E-05	5.05153E-05	0	5	0	
0.0928333	-0.000489659	-0.00522339	2.36671E-05	8.16747E-05	0	5	0	
0.093	-0.000244988	0.00493684	2.54952E-05	9.53374E-05	0	5	0	
0.0931667	0.00183026	-0.0033022	3.4383E-05	0.00010181	0	5	0	
0.0933333	-0.00215584	-0.00107412	4.11606E-05	7.67773E-05	0	5	0	
0.0935	0.00257693	-0.00207204	5.13911E-05	6.65367E-05	0	5	0	
0.0936667	0.000489166	0.000785229	5.63967E-05	5.45233E-05	0	5	0	
0.0938333	0.000595161	0.000265054	5.3935E-05	4.59832E-05	0	5	0	
0.094	-6.26559E-05	-0.00104923	3.24596E-05	4.602E-05	0	5	0	
0.0941667	-0.0027192	0.00159147	1.71422E-05	3.72423E-05	0	5	0	
0.0943333	0.00443626	-0.00625827	4.06378E-05	5.10172E-05	0	5	0	
0.0945	0.000837559	0.00644566	7.54248E-05	6.89466E-05	0	5	0	
0.0946667	-0.00537524	-0.00227479	0.000120009	0.000147713	0	5	0	
0.0948333	0.00774522	-0.00967254	0.000121656	0.000230352	0	5	0	
0.095	-0.00367735	0.0129426	0.000126006	0.000281661	0	5	0	
0.0951667	0.00167587	-0.00876927	9.86648E-05	0.000263907	0	5	0	
0.0953333	-0.00131496	0.000385325	7.99287E-05	0.000230192	0	5	0	
0.0955	-0.000990828	0.00459553	5.93405E-05	0.000203864	0	5	0	
0.0956667	0.00106458	-0.00756681	4.65573E-05	0.000167068	0	5	0	
0.0958333	0.00168442	0.00561788	6.90427E-05	0.00015158	0	5	0	
0.096	-0.00198071	0.000544862	9.80902E-05	0.000182007	0	5	0	
0.0961667	0.000787761	-0.00925468	0.000114825	0.000248733	0	5	0	
0.0963333	-0.000363868	0.0107953	8.93532E-05	0.000251712	0	5	0	
0.0965	-0.000168401	-0.00611953	6.63777E-05	0.000222015	0	5	0	
0.0966667	-0.00274096	-0.00260141	7.96872E-05	0.00016246	0	5	0	
0.0968333	0.00415567	0.00413378	0.00010314	0.000123717	0	5	0	
0.097	-0.00128761	-0.00126166	9.25169E-05	0.000104844	0	5	0	
0.0971667	-0.00191394	0.00139844	6.84149E-05	9.44055E-05	0	5	0	
0.0973333	0.00259256	-0.00080649	4.24878E-05	8.27972E-05	0	5	0	
0.0975	-0.00158399	0.00101789	3.99339E-05	6.94265E-05	0	5	0	
0.0976667	0.00103182	-0.000536079	3.7962E-05	9.25047E-05	0	5	0	
0.0978333	-0.00108723	-0.00256211	4.58905E-05	0.000130111	0	5	0	
0.098	-0.000142717	0.00167074	5.46964E-05	0.000129377	0	5	0	
0.0981667	0.00116671	0.00165279	5.73852E-05	9.13034E-05	0	5	0	
0.0983333	-0.00120308	-0.00188302	4.45365E-05	6.90727E-05	0	5	0	
0.0985	0.00116852	0.00257735	3.8739E-05	6.42178E-05	0	5	0	
0.0986667	0.00201969	-0.000521723	3.06874E-05	6.51535E-05	0	5	0	
0.0988333	-0.00185152	-0.000881262	3.95764E-05	4.04239E-05	0	5	0	
0.099	0.000367098	-0.00114381	4.24378E-05	3.48011E-05	0	5	0	
0.0991667	0.000380951	-0.000768234	5.50457E-05	2.72758E-05	0	5	0	
0.0993333	-0.00205389	0.00156747	5.83644E-05	3.69061E-05	0	5	0	
0.0995	0.00333225	-0.00236191	6.38677E-05	4.06242E-05	0	5	0	
0.0996667	-0.00169337	0.00137831	6.68847E-05	4.48897E-05	0	5	0	
0.0998333	0.00153702	-0.000434924	6.6113E-05	4.13766E-05	0	5	0	
0.1	-0.000530215	-0.00351696	5.14375E-05	3.56898E-05	0	5	0	
0.100167	-0.0010867	0.00253019	3.23166E-05	4.60945E-05	0	5	0	
0.100333	0.000851926	0.000134912	2.63298E-05	7.41638E-05	0	5	0	
0.1005	-0.000574419	-0.00327347	3.77481E-05	9.84031E-05	0	5	0	
0.100667	0.000164086	0.00181618	5.55803E-05	9.46598E-05	0	5	0	
0.100833	-0.000468375	-0.000856	6.6135E-05	7.11679E-05	0	5	0	
0.101	0.000277958	-0.00252172	6.88945E-05	4.44702E-05	0	5	0	
0.101167	0.00127649	0.00398838	6.51159E-05	5.92152E-05	0	5	0	
0.101333	-0.000581955	-0.00242479	5.63204E-05	7.52867E-05	0	5	0	
0.1015	0.000436291	0.00250752	4.38818E-05	9.14169E-05	0	5	0	
0.101667	0.000353501	0.000117578	3.49119E-05	8.30857E-05	0	5	0	
0.101833	-0.000478415	-0.00194239	2.40239E-05	7.24361E-05	0	5	0	
0.102	0.00268321	-0.000496385	2.33325E-05	5.33476E-05	0	5	0	
0.102167	0.000108671	0.00631242	2.91392E-05	5.62734E-05	0	5	0	
0.102333	-1.07799E-05	-0.00548475	4.46519E-05	7.77317E-05	0	5	0	
0.1025	0.0017267	0.00406017	4.45535E-05	9.93065E-05	0	5	0	
0.102667	-0.00108518	-0.000184952	4.68355E-05	9.85451E-05	0	5	0	
0.102833	0.0037471	-0.00166559	5.17375E-05	6.13446E-05	0	5	0	
0.103	-0.00297308	-0.000482937	6.68048E-05	4.07374E-05	0	5	0	
0.103167	0.0018558	0.00188381	6.21402E-05	2.76299E-05	0	5	0	
0.103333	0.000330066	7.19808E-05	5.06042E-05	2.91322E-05	0	5	0	
0.1035	0.00180901	-0.0013969	4.30744E-05	2.71962E-05	0	5	0	
0.103667	-0.00115248	0.00138518	5.43082E-05	1.99095E-05	0	5	0	
0.103833	0.00119954	-0.00142378	6.10033E-05	2.68777E-05	0	5	0	
0.104	-0.00195713	0.00101729	5.84603E-05	3.1733E-05	0	5	0	
0.104167	0.00163521	-0.000944116	5.37539E-05	3.57922E-05	0	5	0	
0.104333	6.91139E-05	-0.00306855	4.14704E-05	3.69897E-05	0	5	0	
0.1045	-0.000893374	0.00619914	2.86115E-05	5.73358E-05	0	5	0	
0.104667	0.000604049	-0.00362204	3.51965E-05	7.87226E-05	0	5	0	
0.104833	0.00140988	-0.00307709	7.90322E-05	0.000138223	0	5	0	
0.105	-0.00249809	0.0101233	0.000117719	0.000163912	0	5	0	
0.105167	0.00185059	-0.00622473	0.000109535	0.00018829	0	5	0	
0.105333	-0.000396542	-0.00334718	6.7724E-05	0.000180678	0	5	0	
0.1055	0.0015217	0.00409277	3.14959E-05	0.000147768	0	5	0	
0.105667	-0.00170454	0.00262102	2.86497E-05	0.000115194	0	5	0	
0.105833	-0.00089798	0.00180308	3.10913E-05	7.95465E-05	0	5	0	
0.106	0.00266073	-0.00789431	4.11176E-05	9.85608E-05	0	5	0	
0.106167	0.00105025	0.00192086	3.76488E-05	0.000109399	0	5	0	
0.106333	-0.00205807	0.00589623	4.02861E-05	0.000123707	0	5	0	
0.1065	0.00349571	-0.00113234	4.17062E-05	9.83324E-05	0	5	0	
0.106667	-0.00280764	-0.00188733	6.26268E-05	9.00752E-05	0	5	0	
0.106833	0.00163962	-0.00439872	8.3691E-05	6.20627E-05	0	5	0	
0.107	-0.0020487	0.0083325	8.25753E-05	9.21091E-05	0	5	0	
0.107167	0.00278365	-0.00657627	6.19157E-05	0.000109418	0	5	0	
0.107333	-0.00089903	0.00260208	4.61748E-05	0.00015131	0	5	0	
0.1075	-0.00151875	0.00311857	3.79691E-05	0.000121614	0	5	0	
0.107667	0.00197536	0.0012847	4.1787E-05	0.000104721	0	5	0	
0.107833	0.000881551	-0.00378429	4.74297E-05	8.14793E-05	0	5	0	
0.108	-0.0031781	0.000873791	5.94304E-05	8.92585E-05	0	5	0	
0.108167	0.00282606	0.000795329	6.2036E-05	6.88275E-05	0	5	0	
0.108333	-0.000236158	-0.000209236	5.30234E-05	4.2661E-05	0	5	0	
0.1085	-0.0010065	0.00356938	4.36626E-05	2.86396E-05	0	5	0	
0.108667	-0.000345738	-0.00258159	3.16427E-05	5.43694E-05	0	5	0	
0.108833	0.00180209	0.000722704	2.5906E-05	5.91108E-05	0	5	0	
0.109	-0.00268259	-0.000454551	3.43372E-05	6.01285E-05	0	5	0	
0.109167	0.0030098	4.61747E-06	4.51132E-05	4.31814E-05	0	5	0	
0.109333	-0.00179218	0.00134053	4.6996E-05	3.73638E-05	0	5	0	
0.1095	0.00151857	-0.00187521	4.39005E-05	3.33166E-05	0	5	0	
0.109667	0.000348686	0.00100948	3.70785E-05	5.02832E-05	0	5	0	
0.109833	-0.000679629	-0.00159151	4.0742E-05	8.57392E-05	0	5	0	
0.11	-0.00168947	0.00162962	4.56352E-05	9.82271E-05	0	5	0	
0.110167	0.000424779	-0.00096237	5.58678E-05	8.7319E-05	0	5	0	
0.110333	0.000473315	-0.00319034	5.74759E-05	7.24394E-05	0	5	0	
0.1105	0.00241576	0.00375119	7.19601E-05	7.24183E-05	0	5	0	
0.110667	-0.00594113	0.0070936	0.000103249	9.08411E-05	0	5	0	
0.110833	0.00326105	-0.0116651	0.00011736	0.000132138	0	5	0	
0.111	0.00107416	0.00650842	0.000101453	0.000158312	0	5	0	
0.111167	-0.00109593	-0.000230178	5.28663E-05	0.00017926	0	5	0	
0.111333	-8.86541E-05	-0.00215071	4.51777E-05	0.000142094	0	5	0	
0.1115	-5.17868E-06	0.00201619	3.95807E-05	0.000104423	0	5	0	
0.111667	-0.00024557	0.000954207	4.61012E-05	6.91367E-05	0	5	0	
0.111833	0.000231899	-0.00176159	3.43468E-05	9.03059E-05	0	5	0	
0.112	-0.000360504	0.00394859	2.67168E-05	0.000150274	0	5	0	
0.112167	0.000233115	-0.00451035	1.8948E-05	0.00017628	0	5	0	
0.112333	0.000576179	-0.00106073	1.27431E-05	0.000133884	0	5	0	
0.1125	-0.00123356	0.00544982	1.17596E-05	0.000102415	0	5	0	
0.112667	-0.000259468	-0.00894532	3.39192E-05	9.44524E-05	0	5	0	
0.112833	0.00454016	0.00460872	5.75383E-05	0.000134401	0	5	0	
0.113	-0.00376932	-0.000953279	7.61699E-05	0.000130033	0	5	0	
0.113167	0.00175031	0.00116277	7.08356E-05	9.61288E-05	0	5	0	
0.113333	-0.00143287	-0.00428816	5.5072E-05	6.22737E-05	0	5	0	
0.1135	0.00211478	-0.0010586	5.06888E-05	4.62251E-05	0	5	0	
0.113667	-0.000591424	0.00091599	5.48257E-05	4.66465E-05	0	5	0	
0.113833	0.0034005	-0.00212234	6.22762E-05	5.40247E-05	0	5	0	
0.114	-0.00446864	0.00187894	7.19721E-05	6.71511E-05	0	5	0	
0.114167	0.00183453	-0.000821696	7.23258E-05	7.9555E-05	0	5	0	
0.114333	0.000542677	-0.00554604	5.77738E-05	7.02769E-05	0	5	0	
0.1145	-0.00111836	0.0026365	3.80561E-05	7.12655E-05	0	5	0	
0.114667	0.00099654	0.00107216	4.19927E-05	7.71517E-05	0	5	0	
0.114833	0.00187489	-0.00793558	6.80094E-05	9.90583E-05	0	5	0	
0.115	-0.0020782	0.0066838	8.45052E-05	0.000109948	0	5	0	
0.115167	0.000842847	-0.00235242	7.61336E-05	0.000114651	0	5	0	
0.115333	-0.0012923	0.000329142	5.93186E-05	9.28067E-05	0	5	0	
0.1155	0.00112337	-0.00223594	4.96602E-05	5.44244E-05	0	5	0	
0.115667	-0.00144364	0.00434131	4.88928E-05	4.93958E-05	0	5	0	
0.115833	0.00588567	-0.00612967	6.1322E-05	7.16568E-05	0	5	0	
0.116	-0.00504701	0.00417727	8.78117E-05	9.58333E-05	0	5	0	
0.116167	0.00290647	0.00142507	0.000100228	9.5632E-05	0	5	0	
0.116333	-0.00152784	-0.00358525	9.26522E-05	9.53241E-05	0	5	0	
0.1165	0.00025422	0.00527392	5.70016E-05	8.61887E-05	0	5	0	
0.116667	0.000796221	-0.00116559	2.97362E-05	0.000109517	0	5	0	
0.116833	0.00095186	-0.00401301	3.5627E-05	0.000134323	0	5	0	
0.117	-0.00202835	0.00707568	8.55322E-05	0.00015633	0	5	0	
0.117167	0.00450201	-0.00413965	0.000142759	0.000143186	0	5	0	
0.117333	-0.00424212	-0.00104573	0.000161727	0.000118942	0	5	0	
0.1175	0.00168561	0.00484505	0.000132338	9.99615E-05	0	5	0	
0.117667	-0.000662656	-0.00313367	8.39634E-05	9.00951E-05	0	5	0	
0.117833	0.000628834	-0.00118533	4.82099E-05	6.35666E-05	0	5	0	
0.118	-0.000167552	0.00102793	2.68398E-05	5.12047E-05	0	5	0	
0.118167	-0.00129041	0.00216079	2.8938E-05	3.92196E-05	0	5	0	
0.118333	0.0034461	-0.00713511	5.58567E-05	6.54596E-05	0	5	0	
0.1185	0.000609602	0.00707197	6.85891E-05	0.000104202	0	5	0	
0.118667	0.000454537	-0.00556084	6.37552E-05	0.000124007	0	5	0	
0.118833	6.25162E-05	0.00521916	3.24473E-05	0.000115865	0	5	0	
0.119	-0.00212328	-0.00430975	2.44266E-05	9.85982E-05	0	5	0	
0.119167	-0.00016463	0.000213986	2.66118E-05	9.55396E-05	0	5	0	
0.119333	-0.00032831	0.00346613	2.94399E-05	8.31535E-05	0	5	0	
0.1195	0.00530058	-0.00138474	4.21978E-05	6.46967E-05	0	5	0	
0.119667	-0.00276685	0.00153632	6.42082E-05	4.70299E-05	0	5	0	
0.119833	0.00161737	-0.00415439	6.85279E-05	4.3103E-05	0	5	0	
0.12	-0.000394699	0.00257844	5.60564E-05	6.0686E-05	0	5	0	
0.120167	-0.000942684	0.00378912	3.53456E-05	0.000121132	0	5	0	
0.120333	0.00146436	-0.0089984	3.66785E-05	0.000175822	0	5	0	
0.1205	-0.00192718	0.00898823	4.14663E-05	0.000190917	0	5	0	
0.120667	-0.0011728	-0.00142443	7.83429E-05	0.000198196	0	5	0	
0.120833	0.00650901	-0.00646165	0.000136767	0.000215431	0	5	0	
0.121	-0.00779088	0.00781067	0.000181679	0.000201355	0	5	0	
0.121167	0.00547861	-0.00224861	0.000167782	0.000208215	0	5	0	
0.121333	-0.00146714	-0.00752903	0.000134871	0.000192591	0	5	0	
0.1215	0.00161619	0.00640611	0.000116981	0.000210652	0	5	0	
0.121667	0.00079168	8.17909E-05	0.000102535	0.000210986	0	5	0	
0.121833	-0.00219648	-0.00484649	7.28049E-05	0.000175748	0	5	0	
0.122	0.0026824	0.00418862	6.52736E-05	0.00015989	0	5	0	
0.122167	-0.00116611	-0.00235252	9.84806E-05	0.000111434	0	5	0	
0.122333	-0.00226935	-0.002925	0.000136494	0.000123897	0	5	0	
0.1225	0.00616118	0.00878709	0.00013042	0.000146322	0	5	0	
0.122667	-0.0032816	-0.00915843	0.000112083	0.000159617	0	5	0	
0.122833	0.00222511	-0.00186949	8.90979E-05	0.000179888	0	5	0	
0.123	-0.000809871	0.0139971	8.31687E-05	0.000198287	0	5	0	
0.123167	0.00521616	-0.0175012	5.76869E-05	0.000234835	0	5	0	
0.123333	-0.00324498	0.0106887	7.07425E-05	0.000275396	0	5	0	
0.1235	0.000124997	0.000208363	5.82321E-05	0.000263523	0	5	0	
0.123667	-0.000505081	-0.00408328	6.26554E-05	0.000193627	0	5	0	
0.123833	0.00350584	0.000512066	5.42497E-05	0.000106786	0	5	0	
0.124	-0.00196786	-0.000334589	6.24571E-05	7.11205E-05	0	5	0	
0.124167	0.00315848	0.00231736	6.23675E-05	8.19757E-05	0	5	0	
0.124333	0.00094773	-0.00427282	6.05093E-05	0.000108842	0	5	0	
0.1245	-0.00182661	0.00400735	6.29589E-05	0.000139574	0	5	0	
0.124667	0.000619082	-0.00162088	6.07818E-05	0.000148315	0	5	0	
0.124833	0.00106645	-0.000437944	5.2884E-05	0.000112089	0	5	0	
0.125	7.37083E-05	-0.0022648	5.66527E-05	6.64697E-05	0	5	0	
0.125167	0.000732738	0.0040474	6.75336E-05	5.17894E-05	0	5	0	
0.125333	-0.00214174	-0.00444284	6.84056E-05	6.47347E-05	0	5	0	
0.1255	0.00295715	0.00116756	5.59811E-05	7.20505E-05	0	5	0	
0.125667	-0.000903412	0.000383217	5.05917E-05	5.40172E-05	0	5	0	
0.125833	-0.000244854	-0.000904543	3.87775E-05	3.59793E-05	0	5	0	
0.126	0.0013125	0.0006519	3.74139E-05	3.2696E-05	0	5	0	
0.126167	-0.0012382	0.0014049	2.77664E-05	5.38835E-05	0	5	0	
0.126333	0.00133232	-0.00388358	4.68119E-05	7.0263E-05	0	5	0	
0.1265	0.0057032	-0.00178804	8.97042E-05	6.96991E-05	0	5	0	
0.126667	-0.00751792	0.00576733	0.000131627	8.56818E-05	0	5	0	
0.126833	0.00391958	-0.00635896	0.000142468	9.84971E-05	0	5	0	
0.127	0.00111492	-0.000158395	0.000122694	0.000143015	0	5	0	
0.127167	-0.00103003	0.00434697	8.62573E-05	0.000158169	0	5	0	
0.127333	9.82936E-05	-0.00403969	8.01504E-05	0.000144558	0	5	0	
0.1275	0.00015132	0.00325896	5.31061E-05	0.000113295	0	5	0	
0.127667	0.00204993	-0.00133595	4.70597E-05	8.55911E-05	0	5	0	
0.127833	0.00116575	-0.00520734	2.73341E-05	0.000104733	0	5	0	
0.128	-0.00322858	0.00891027	4.17058E-05	0.000132149	0	5	0	
0.128167	0.00141246	-0.00440729	4.67483E-05	0.000137039	0	5	0	
0.128333	0.00079372	-0.00317842	4.07825E-05	0.000146989	0	5	0	
0.1285	-0.000201718	0.00760488	2.7326E-05	0.000141713	0	5	0	
0.128667	-0.0036246	-0.00401998	3.95939E-05	0.000141419	0	5	0	
0.128833	0.00426115	-0.0010657	5.86484E-05	0.000116732	0	5	0	
0.129	-0.00174818	0.00382702	7.21488E-05	9.34759E-05	0	5	0	
0.129167	-0.000252691	-0.00182627	5.76831E-05	7.00306E-05	0	5	0	
0.129333	-0.00087893	0.00178952	4.40275E-05	6.97911E-05	0	5	0	
0.1295	0.00148285	-0.00153636	4.2841E-05	7.13555E-05	0	5	0	
0.129667	-0.00133977	-0.00148141	4.70145E-05	8.23946E-05	0	5	0	
0.129833	0.000911327	0.00248112	4.33023E-05	8.01539E-05	0	5	0	
0.13	0.000440496	-0.00259373	2.50765E-05	6.1464E-05	0	5	0	
0.130167	0.00094981	0.0036233	2.06668E-05	6.40835E-05	0	5	0	
0.130333	-0.00214395	0.000558963	3.80385E-05	6.90283E-05	0	5	0	
0.1305	0.000304024	-0.00141254	5.1179E-05	8.73894E-05	0	5	0	
0.130667	0.00072958	0.00235506	4.86929E-05	7.73734E-05	0	5	0	
0.130833	-0.000460276	-0.00310969	3.09361E-05	6.67722E-05	0	5	0	
0.131	0.00117967	0.00253031	2.63899E-05	6.30812E-05	0	5	0	
0.131167	-0.000485978	4.85286E-05	3.73295E-05	5.67771E-05	0	5	0	
0.131333	-0.000818962	0.00131517	5.65005E-05	4.84694E-05	0	5	0	
0.1315	0.00188579	0.00137	7.30622E-05	2.93707E-05	0	5	0	
0.131667	-0.00285932	-0.00101534	7.23677E-05	3.08659E-05	0	5	0	
0.131833	0.00168296	0.00048974	6.12081E-05	3.92322E-05	0	5	0	
0.132	0.000232372	0.000928061	4.18545E-05	6.20558E-05	0	5	0	
0.132167	-0.000555452	-0.000411261	3.38842E-05	7.36365E-05	0	5	0	
0.132333	0.000429749	-0.00140399	3.6473E-05	6.49001E-05	0	5	0	
0.1325	-0.000254127	-0.000600292	3.77461E-05	4.27783E-05	0	5	0	
0.132667	-0.00112327	0.000911395	3.1047E-05	2.78647E-05	0	5	0	
0.132833	0.000977709	-0.000466325	2.19419E-05	3.05279E-05	0	5	0	
0.133	-0.00141806	-0.000720906	2.20172E-05	2.7133E-05	0	5	0	
0.133167	0.000987958	-0.0010384	2.57062E-05	3.44397E-05	0	5	0	
0.133333	1.55026E-05	0.000989187	2.17976E-05	4.93237E-05	0	5	0	
0.1335	-0.000836608	-0.00640164	1.80398E-05	6.31104E-05	0	5	0	
0.133667	-0.000200972	0.0030517	2.13984E-05	8.26902E-05	0	5	0	
0.133833	-0.000130096	0.00121728	3.64942E-05	8.14974E-05	0	5	0	
0.134	-0.00260637	-0.00429164	5.61052E-05	8.09342E-05	0	5	0	
0.134167	0.00378598	0.0042979	7.90598E-05	7.65372E-05	0	5	0	
0.134333	-0.00518601	-6.50474E-05	8.92148E-05	8.60448E-05	0	5	0	
0.1345	0.00306861	-0.00275328	8.9196E-05	9.25655E-05	0	5	0	
0.134667	-0.00131354	0.00299384	8.80262E-05	8.23763E-05	0	5	0	
0.134833	-0.00181687	-0.00316603	9.44274E-05	5.72418E-05	0	5	0	
0.135	0.00236774	0.00379007	9.09772E-05	6.448E-05	0	5	0	
0.135167	-0.00279905	-0.00262711	7.70806E-05	6.24409E-05	0	5	0	
0.135333	-0.000523161	0.00264115	8.52113E-05	7.93799E-05	0	5	0	
0.1355	0.00389366	-0.000229466	0.00010688	5.97186E-05	0	5	0	
0.135667	-0.0053576	0.00161452	0.000116891	5.43696E-05	0	5	0	
0.135833	0.00292673	-0.00140202	0.000104553	3.55756E-05	0	5	0	
0.136	0.000420492	-0.00254262	7.57416E-05	3.40174E-05	0	5	0	
0.136167	-0.000650383	0.00162212	5.21091E-05	3.79477E-05	0	5	0	
0.136333	0.000130722	0.00161675	3.72833E-05	5.59928E-05	0	5	0	
0.1365	0.000695269	-0.00237058	3.69362E-05	5.80881E-05	0	5	0	
0.136667	0.000893135	-0.0047228	4.31402E-05	8.37177E-05	0	5	0	
0.136833	0.000634451	0.00633939	5.252E-05	0.000107142	0	5	0	
0.137	-0.00406918	-0.00177585	7.37163E-05	0.000129886	0	5	0	
0.137167	0.00575197	-0.00303732	9.85212E-05	0.000138462	0	5	0	
0.137333	-0.00301572	-0.000723293	0.000100291	0.000101574	0	5	0	
0.1375	0.0033899	0.00404775	8.74405E-05	8.20208E-05	0	5	0	
0.137667	0.00326358	-0.000335854	6.68612E-05	7.72689E-05	0	5	0	
0.137833	-0.00199024	-0.00719969	6.62723E-05	8.65993E-05	0	5	0	
0.138	0.00201145	0.000237981	5.23255E-05	0.000100118	0	5	0	
0.138167	-0.00262733	0.00586679	7.08765E-05	8.13203E-05	0	5	0	
0.138333	-0.000199633	-0.000650552	9.71789E-05	9.04639E-05	0	5	0	
0.1385	0.00393345	0.00251429	0.000132104	0.000101362	0	5	0	
0.138667	0.000510874	-0.00886702	0.00012661	0.000144173	0	5	0	
0.138833	0.00444615	0.00806172	8.69367E-05	0.00016567	0	5	0	
0.139	-0.00288128	-0.00346274	7.6602E-05	0.000183475	0	5	0	
0.139167	0.00184055	-0.00583512	6.98233E-05	0.000182544	0	5	0	
0.139333	-0.00093911	0.0107152	6.12626E-05	0.000177772	0	5	0	
0.1395	0.000525609	-0.00750935	3.39669E-05	0.00017613	0	5	0	
0.139667	-0.000791355	0.00210572	1.86321E-05	0.000148226	0	5	0	
0.139833	0.00176223	0.00275904	2.18623E-05	0.000122557	0	5	0	
0.14	0.00256574	-0.00402415	3.2235E-05	8.59055E-05	0	5	0	
0.140167	-0.00191002	0.00196331	6.04687E-05	7.49501E-05	0	5	0	
0.140333	-0.00140846	0.0028946	0.000102637	0.00010165	0	5	0	
0.1405	0.00359278	-0.00280528	0.00012498	0.000111578	0	5	0	
0.140667	-0.0008955	0.000237643	0.000115409	9.2776E-05	0	5	0	
0.140833	0.00148435	0.00290085	8.19418E-05	6.77427E-05	0	5	0	
0.141	-0.0016163	-0.00310572	6.3611E-05	6.17966E-05	0	5	0	
0.141167	0.000262619	0.00452111	4.32924E-05	7.08289E-05	0	5	0	
0.141333	0.00174401	-0.00323968	3.66141E-05	7.14854E-05	0	5	0	
0.1415	-0.00261099	0.000921421	2.75015E-05	7.2018E-05	0	5	0	
0.141667	0.00233769	0.0022859	3.9363E-05	7.01002E-05	0	5	0	
0.141833	-0.000859814	-0.00540593	4.83886E-05	6.65659E-05	0	5	0	
0.142	0.000296466	0.00504304	6.11583E-05	8.29243E-05	0	5	0	
0.142167	0.000669341	-0.000625645	7.14392E-05	7.99361E-05	0	5	0	
0.142333	-0.00295999	-0.000212283	7.90843E-05	6.49268E-05	0	5	0	
0.1425	0.00266591	-0.00551823	7.955E-05	5.03585E-05	0	5	0	
0.142667	-0.0010767	0.00668618	6.55798E-05	6.97464E-05	0	5	0	
0.142833	-0.00193324	-0.00232665	6.97607E-05	0.000117114	0	5	0	
0.143	0.00344432	-0.00383648	6.67704E-05	0.000162569	0	5	0	
0.143167	-0.000623246	0.00816185	6.41051E-05	0.000172437	0	5	0	
0.143333	8.94061E-05	-0.00657767	4.01204E-05	0.0001615	0	5	0	
0.1435	-0.000943796	0.00219522	2.25584E-05	0.000127544	0	5	0	
0.143667	-0.00134703	0.00163429	3.7432E-05	0.000141941	0	5	0	
0.143833	0.00607138	-0.00761495	5.95656E-05	0.000158511	0	5	0	
0.144	-0.00426554	0.0102267	8.67773E-05	0.000174605	0	5	0	
0.144167	0.000596006	-0.00231797	7.73614E-05	0.000156772	0	5	0	
0.144333	-0.00188116	-0.00468271	6.64915E-05	0.000159998	0	5	0	
0.1445	0.00415052	0.00601433	5.9655E-05	0.000148684	0	5	0	
0.144667	0.000782365	0.00198897	5.98595E-05	0.000140136	0	5	0	
0.144833	-0.00114965	-0.0089461	5.89311E-05	0.000146504	0	5	0	
0.145	-0.000561875	0.00723971	7.09043E-05	0.000168484	0	5	0	
0.145167	-0.00131007	-0.0025387	8.33909E-05	0.0001552	0	5	0	
0.145333	0.00106877	0.00112443	8.00438E-05	0.000119126	0	5	0	
0.1455	-0.000226561	6.50771E-05	6.12673E-05	7.60691E-05	0	5	0	
0.145667	0.0012381	-0.00213092	5.06983E-05	6.70728E-05	0	5	0	
0.145833	-0.00184556	0.00640864	5.69682E-05	6.22358E-05	0	5	0	
0.146	0.00224528	-0.00765224	4.84501E-05	9.21639E-05	0	5	0	
0.146167	-0.00160589	0.00261347	4.56802E-05	0.000126662	0	5	0	
0.146333	-0.000188231	-0.00173439	4.39828E-05	0.000128594	0	5	0	
0.1465	0.00216082	0.00381204	5.54889E-05	0.000105112	0	5	0	
0.146667	-0.00178274	-0.00119879	6.45555E-05	7.81697E-05	0	5	0	
0.146833	0.000830846	-0.00095604	6.14433E-05	5.65001E-05	0	5	0	
0.147	-0.00212589	0.0030791	5.89401E-05	4.58475E-05	0	5	0	
0.147167	0.00159331	-0.000585731	5.79975E-05	4.38038E-05	0	5	0	
0.147333	0.000543508	-0.00229941	5.8618E-05	4.86942E-05	0	5	0	
0.1475	-0.000445711	0.00131136	5.2375E-05	4.78285E-05	0	5	0	
0.147667	0.000772413	0.00157426	5.17741E-05	4.35357E-05	0	5	0	
0.147833	-0.000236499	0.00135503	6.19782E-05	4.3954E-05	0	5	0	
0.148	-0.00016085	-0.0028026	6.99625E-05	4.18091E-05	0	5	0	
0.148167	-0.000478146	0.00390117	6.29777E-05	4.76356E-05	0	5	0	
0.148333	-9.47844E-05	-0.00288682	4.87409E-05	6.91613E-05	0	5	0	
0.1485	0.00037579	0.000563535	3.45554E-05	8.25612E-05	0	5	0	
0.148667	-0.000413327	0.000898157	2.14164E-05	8.35832E-05	0	5	0	
0.148833	-0.000673114	0.000225285	1.88966E-05	6.07351E-05	0	5	0	
0.149	-0.000777578	-0.000276921	3.39196E-05	3.38749E-05	0	5	0	
0.149167	0.00146892	0.000349694	5.1533E-05	3.13643E-05	0	5	0	
0.149333	-0.000920982	-0.00201132	5.35784E-05	4.68308E-05	0	5	0	
0.1495	-0.00021836	0.00178987	3.84318E-05	6.45273E-05	0	5	0	
0.149667	-0.00223796	-0.00155352	3.11476E-05	6.053E-05	0	5	0	
0.149833	0.00227823	0.000744814	3.83253E-05	4.97903E-05	0	5	0	
0.15	-0.000849276	-0.00035839	3.95996E-05	3.77277E-05	0	5	0	
0.150167	-0.0020568	-0.000984851	3.35983E-05	3.19702E-05	0	5	0	
0.150333	0.000940413	0.00150607	3.2896E-05	3.36868E-05	0	5	0	
0.1505	0.00174385	0.000537018	5.01646E-05	4.01496E-05	0	5	0	
0.150667	-0.00320959	-0.00187405	5.66849E-05	4.21532E-05	0	5	0	
0.150833	0.000813765	0.000396939	4.92261E-05	4.44421E-05	0	5	0	
0.151	0.000596383	0.000782555	3.24742E-05	4.30272E-05	0	5	0	
0.151167	0.00170708	-0.00234532	3.40125E-05	4.30997E-05	0	5	0	
0.151333	-0.000877906	0.00244184	2.9182E-05	4.30132E-05	0	5	0	
0.1515	-0.00135184	0.000157446	3.53483E-05	5.9125E-05	0	5	0	
0.151667	0.00149407	-0.00374075	2.95574E-05	8.56794E-05	0	5	0	
0.151833	0.000461712	0.00638325	4.80243E-05	9.26682E-05	0	5	0	
0.152	-0.00532854	-0.00502479	5.55282E-05	0.0001087	0	5	0	
0.152167	0.0054268	0.000803964	7.817E-05	0.000126544	0	5	0	
0.152333	-0.00362395	0.00183618	8.03129E-05	0.000134427	0	5	0	
0.1525	0.00333802	-0.00408435	8.29515E-05	0.000108921	0	5	0	
0.152667	-0.000615707	0.0042612	6.38894E-05	8.69472E-05	0	5	0	
0.152833	-0.00157083	0.000189887	4.58877E-05	0.000107118	0	5	0	
0.153	0.00112943	-0.0107026	3.78326E-05	0.000168957	0	5	0	
0.153167	-0.00210787	0.0142008	4.1941E-05	0.000211519	0	5	0	
0.153333	-0.000423927	-0.00521904	7.35045E-05	0.000243602	0	5	0	
0.1535	0.00259657	-0.00695813	0.000104836	0.000244118	0	5	0	
0.153667	-0.00175646	0.00468881	0.000124651	0.000198802	0	5	0	
0.153833	0.00173213	0.00280388	0.000103651	0.000154418	0	5	0	
0.154	-0.00359027	0.000335596	7.30123E-05	8.77477E-05	0	5	0	
0.154167	0.00539211	-0.00572242	6.68839E-05	8.63169E-05	0	5	0	
0.154333	-0.00171256	0.0014629	7.05596E-05	7.64939E-05	0	5	0	
0.1545	0.000366618	0.00357061	6.29157E-05	0.000109088	0	5	0	
0.154667	0.00132413	-0.00221298	4.14868E-05	9.42386E-05	0	5	0	
0.154833	-0.00256984	0.00136881	3.29781E-05	8.4581E-05	0	5	0	
0.155	0.000702196	-0.00192572	3.66946E-05	5.22436E-05	0	5	0	
0.155167	0.000665167	0.00525046	5.9537E-05	6.19946E-05	0	5	0	
0.155333	0.000135092	-0.00483687	7.4374E-05	8.14248E-05	0	5	0	
0.1555	0.00133457	-1.71549E-05	8.17649E-05	0.000138353	0	5	0	
0.155667	-0.000436231	0.00424036	7.2106E-05	0.000158948	0	5	0	
0.155833	0.00191309	0.000195785	5.76997E-05	0.000131154	0	5	0	
0.156	-0.000941131	-0.0041361	5.53763E-05	9.76275E-05	0	5	0	
0.156167	-0.000873534	0.00553359	5.04743E-05	8.3112E-05	0	5	0	
0.156333	0.000656958	-0.00231172	5.27964E-05	0.000103989	0	5	0	
0.1565	0.00135919	-0.00130647	4.82085E-05	9.02205E-05	0	5	0	
0.156667	0.000494385	0.000607838	4.75472E-05	7.53851E-05	0	5	0	
0.156833	0.000955254	0.00502839	5.08007E-05	7.15731E-05	0	5	0	
0.157	-0.000975013	-0.00749609	6.69694E-05	8.76807E-05	0	5	0	
0.157167	0.00103815	0.00672894	8.46746E-05	0.000116352	0	5	0	
0.157333	-0.00237616	-0.00522528	8.74093E-05	0.000122821	0	5	0	
0.1575	0.00279005	0.00383362	7.65308E-05	0.000107927	0	5	0	
0.157667	0.000704533	-0.00322886	6.04924E-05	0.00010078	0	5	0	
0.157833	-0.000170315	0.000362721	5.71762E-05	8.11955E-05	0	5	0	
0.158	0.00117229	0.000317078	5.84663E-05	7.68492E-05	0	5	0	
0.158167	-0.000715147	0.00209091	5.75877E-05	7.50654E-05	0	5	0	
0.158333	-0.000530178	-0.0041099	5.50638E-05	9.02835E-05	0	5	0	
0.1585	0.00159059	0.00650616	4.47298E-05	0.000111592	0	5	0	
0.158667	0.00140599	-0.0101702	3.84393E-05	0.000132441	0	5	0	
0.158833	-0.000429904	0.00272372	5.07485E-05	0.000137656	0	5	0	
0.159	-0.00225287	0.00830825	9.28859E-05	0.000180158	0	5	0	
0.159167	0.00332641	-0.0158263	0.00011811	0.000199958	0	5	0	
0.159333	-0.000906996	0.00830864	0.000108567	0.000239322	0	5	0	
0.1595	0.00256943	0.0026152	7.98588E-05	0.000239081	0	5	0	
0.159667	-0.0008987	-0.00465149	6.80924E-05	0.000212933	0	5	0	
0.159833	-0.0029987	0.00408384	5.81946E-05	0.000154704	0	5	0	
0.16	0.00444535	-0.00582855	6.07437E-05	0.000106822	0	5	0	
0.160167	-0.000939596	0.00204529	7.97555E-05	0.000100306	0	5	0	
0.160333	-0.0022301	0.00127382	0.000101555	0.000141665	0	5	0	
0.1605	0.000590124	-0.00526636	8.82946E-05	0.000147689	0	5	0	
0.160667	0.00240122	0.00499223	4.98646E-05	0.000139523	0	5	0	
0.160833	-0.00272644	0.00213559	3.43872E-05	0.000118738	0	5	0	
0.161	0.00178294	-0.00344087	4.09471E-05	9.44647E-05	0	5	0	
0.161167	0.000123043	-0.000743483	5.5023E-05	8.73278E-05	0	5	0	
0.161333	0.000117404	0.00427179	5.67071E-05	6.75631E-05	0	5	0	
0.1615	0.00109288	-0.00444318	5.86625E-05	7.72849E-05	0	5	0	
0.161667	-0.00251286	0.00289875	6.47628E-05	7.90972E-05	0	5	0	
0.161833	0.00256848	-0.0010914	6.56538E-05	7.35046E-05	0	5	0	
0.162	-0.00105865	-0.000257715	5.65684E-05	5.47866E-05	0	5	0	
0.162167	0.00199537	0.00287401	4.16198E-05	3.82757E-05	0	5	0	
0.162333	-0.000769072	-0.00352452	3.95747E-05	4.74445E-05	0	5	0	
0.1625	-0.001109	-0.00158555	3.34542E-05	6.50358E-05	0	5	0	
0.162667	0.00314544	0.00169861	3.84644E-05	8.6264E-05	0	5	0	
0.162833	-0.00334621	-0.000967432	4.5755E-05	7.96585E-05	0	5	0	
0.163	0.00341096	-0.000347991	7.17745E-05	6.26204E-05	0	5	0	
0.163167	-0.000554358	2.94913E-05	7.63732E-05	3.28097E-05	0	5	0	
0.163333	-0.000494309	-0.00207511	7.4879E-05	3.04005E-05	0	5	0	
0.1635	0.00200096	0.00385934	6.22874E-05	4.20485E-05	0	5	0	
0.163667	-0.00234992	-0.00552561	5.40423E-05	6.60786E-05	0	5	0	
0.163833	0.00117556	0.00403911	4.79948E-05	8.84767E-05	0	5	0	
0.164	0.000939561	-0.00122795	3.64259E-05	8.53315E-05	0	5	0	
0.164167	0.0011781	9.32345E-05	3.80189E-05	7.2201E-05	0	5	0	
0.164333	-0.00289279	-0.00174207	4.12422E-05	4.90481E-05	0	5	0	
0.1645	0.00352068	0.00243906	5.9044E-05	4.07117E-05	0	5	0	
0.164667	0.000107519	0.000645377	7.24026E-05	3.55109E-05	0	5	0	
0.164833	-0.00272701	-0.00114023	7.92742E-05	3.10955E-05	0	5	0	
0.165	0.00227969	0.000426571	8.25551E-05	5.7629E-05	0	5	0	
0.165167	-0.0016437	0.00222735	7.87657E-05	8.53553E-05	0	5	0	
0.165333	-0.00113617	-0.00272153	7.88039E-05	8.88297E-05	0	5	0	
0.1655	0.00163005	0.00013903	8.33245E-05	6.69199E-05	0	5	0	
0.165667	-0.000959912	0.00277915	7.81741E-05	4.47101E-05	0	5	0	
0.165833	-6.48739E-05	-0.00349577	5.91567E-05	4.90581E-05	0	5	0	
0.166	0.000306329	0.00389226	3.98141E-05	5.5939E-05	0	5	0	
0.166167	-0.000396169	-0.00177946	2.60307E-05	7.1207E-05	0	5	0	
0.166333	0.000499106	0.000658364	2.47884E-05	6.56312E-05	0	5	0	
0.1665	-0.00102755	-0.000229521	2.50799E-05	4.81994E-05	0	5	0	
0.166667	-0.000323952	-0.00175183	4.21605E-05	2.73748E-05	0	5	0	
0.166833	0.00219816	0.00110693	6.43197E-05	2.16838E-05	0	5	0	
0.167	-0.000861698	-7.65118E-05	8.10968E-05	2.62878E-05	0	5	0	
0.167167	0.0026235	0.00179191	8.025E-05	2.3616E-05	0	5	0	
0.167333	-0.00242756	-0.00295235	7.39975E-05	3.95348E-05	0	5	0	
0.1675	0.000929624	-0.00102417	6.1309E-05	3.72734E-05	0	5	0	
0.167667	-0.00180139	0.00191329	6.11157E-05	5.0275E-05	0	5	0	
0.167833	0.0015334	0.000309159	6.48997E-05	3.07807E-05	0	5	0	
0.168	-0.000673423	-0.000250351	6.07112E-05	3.97755E-05	0	5	0	
0.168167	-0.000674845	-0.000655023	4.77946E-05	2.39559E-05	0	5	0	
0.168333	0.00066319	0.00380354	3.90306E-05	3.70824E-05	0	5	0	
0.1685	0.00225682	-0.00496836	5.3804E-05	5.31553E-05	0	5	0	
0.168667	-0.00165279	0.00278622	6.75821E-05	7.51482E-05	0	5	0	
0.168833	-0.00276815	0.000875059	6.14092E-05	9.09662E-05	0	5	0	
0.169	0.0047647	-0.00843067	6.07102E-05	0.000112673	0	5	0	
0.169167	-0.00284387	0.0100122	6.64725E-05	0.000143522	0	5	0	
0.169333	-0.00084974	0.00311355	9.31577E-05	0.000248833	0	5	0	
0.1695	0.00310351	-0.0155429	8.8825E-05	0.000316767	0	5	0	
0.169667	0.00123913	0.00672001	8.75181E-05	0.000323079	0	5	0	
0.169833	0.000270252	0.00780865	8.28678E-05	0.00029152	0	5	0	
0.17	-0.00255918	-0.00851751	9.07213E-05	0.000221105	0	5	0	
0.170167	0.00203488	0.0034511	8.44448E-05	0.000203601	0	5	0	
0.170333	0.00023723	-0.00483756	6.06614E-05	0.000118819	0	5	0	
0.1705	0.000704249	0.00325536	3.8358E-05	9.53365E-05	0	5	0	
0.170667	0.00152599	0.00743494	2.55611E-05	8.87464E-05	0	5	0	
0.170833	-0.00360271	-0.0104525	3.99116E-05	0.000119372	0	5	0	
0.171	0.00293225	0.0018393	5.27956E-05	0.00017372	0	5	0	
0.171167	-0.0024356	0.00604218	6.22634E-05	0.000204966	0	5	0	
0.171333	0.00265927	-0.00345781	5.65756E-05	0.000175774	0	5	0	
0.1715	-0.00248744	-0.00467735	7.12759E-05	0.000127071	0	5	0	
0.171667	-0.00206194	0.00763365	0.000103397	9.7786E-05	0	5	0	
0.171833	0.00322531	-0.000314743	0.000119597	0.000151239	0	5	0	
0.172	-0.00198098	-0.00562358	9.93663E-05	0.000194817	0	5	0	
0.172167	-0.000113105	0.00718633	5.63375E-05	0.000192256	0	5	0	
0.172333	-0.00101883	-0.00253999	3.50752E-05	0.000157556	0	5	0	
0.1725	0.000612687	-0.00628166	3.89554E-05	0.000108963	0	5	0	
0.172667	-0.00048412	0.00915675	4.22566E-05	0.000123101	0	5	0	
0.172833	0.000247524	-0.00713192	3.44087E-05	0.000136285	0	5	0	
0.173	-0.00158922	0.0036712	2.10321E-05	0.000144891	0	5	0	
0.173167	0.00090031	-0.00158864	2.51465E-05	0.000110648	0	5	0	
0.173333	0.00103375	0.00117997	2.94724E-05	6.96186E-05	0	5	0	
0.1735	-0.00232576	-0.00309434	3.79495E-05	6.0644E-05	0	5	0	
0.173667	0.00241266	-0.00144847	4.91138E-05	6.03234E-05	0	5	0	
0.173833	-0.00109296	0.00625218	7.35916E-05	6.98064E-05	0	5	0	
0.174	-0.00135621	-0.00872289	8.79929E-05	9.05865E-05	0	5	0	
0.174167	0.0013482	0.00200417	8.65075E-05	0.000117126	0	5	0	
0.174333	0.000403266	0.000371259	5.85323E-05	0.000103038	0	5	0	
0.1745	-0.00209677	0.00159084	3.93244E-05	7.94157E-05	0	5	0	
0.174667	0.00332521	-0.00632609	2.94048E-05	7.72176E-05	0	5	0	
0.174833	-0.00252636	0.00593202	6.16416E-05	0.000100629	0	5	0	
0.175	-0.00164079	0.00120563	0.000112137	0.000137492	0	5	0	
0.175167	0.00452524	-0.0132417	0.000148795	0.00016109	0	5	0	
0.175333	-0.00289508	0.00995294	0.000133192	0.000202013	0	5	0	
0.1755	0.000232041	-0.00224199	8.32877E-05	0.000180989	0	5	0	
0.175667	-0.00202201	-0.00117241	4.10317E-05	0.00013211	0	5	0	
0.175833	0.000288367	0.00141414	3.50559E-05	7.39385E-05	0	5	0	
0.176	0.00577017	-0.00170537	5.39294E-05	7.24511E-05	0	5	0	
0.176167	-0.00342957	0.00580839	7.8439E-05	8.46136E-05	0	5	0	
0.176333	0.000492963	-0.00522431	9.24854E-05	0.000115531	0	5	0	
0.1765	-0.000796872	-0.00219354	8.92174E-05	0.000140482	0	5	0	
0.176667	0.00215842	2.70958E-05	7.94794E-05	0.000141483	0	5	0	
0.176833	-0.00222163	0.0032667	7.10413E-05	0.000114476	0	5	0	
0.177	0.00228544	-0.0037019	8.3673E-05	6.4907E-05	0	5	0	
0.177167	-0.000983665	0.000425911	9.6001E-05	8.92805E-05	0	5	0	
0.177333	0.000977685	0.00131183	9.16706E-05	0.000121222	0	5	0	
0.1775	-0.000691517	0.00765329	6.88034E-05	0.000138638	0	5	0	
0.177667	-0.000209187	-0.016282	6.51505E-05	0.000164166	0	5	0	
0.177833	0.00280455	0.00992779	7.49446E-05	0.00019968	0	5	0	
0.178	-0.00219263	-0.0020188	8.39932E-05	0.00021939	0	5	0	
0.178167	-0.000554325	-0.00132858	7.33904E-05	0.000146764	0	5	0	
0.178333	-2.35672E-05	-0.00174392	5.30254E-05	7.75631E-05	0	5	0	
0.1785	-0.000738591	0.00264424	3.13602E-05	5.14669E-05	0	5	0	
0.178667	0.00277461	-0.000574163	3.02599E-05	9.46294E-05	0	5	0	
0.178833	-0.00316095	0.0035618	5.66259E-05	0.00014687	0	5	0	
0.179	-0.000645715	-0.00511628	7.60244E-05	0.000172347	0	5	0	
0.179167	0.000907905	0.000885004	7.97973E-05	0.000132962	0	5	0	
0.179333	0.000455871	0.0014459	5.60962E-05	7.48375E-05	0	5	0	
0.1795	-0.000557157	-0.00130387	4.49604E-05	3.0895E-05	0	5	0	
0.179667	4.98461E-05	0.00157411	4.7555E-05	3.38952E-05	0	5	0	
0.179833	0.00127165	-0.0032492	5.10911E-05	4.92605E-05	0	5	0	
0.18	-0.00147814	0.0059995	5.27286E-05	6.73089E-05	0	5	0	
0.180167	-0.00126413	-0.00307382	4.24781E-05	8.98796E-05	0	5	0	
0.180333	0.000241438	0.000253722	5.49031E-05	7.88687E-05	0	5	0	
0.1805	-0.00121583	0.00295759	6.45784E-05	8.33785E-05	0	5	0	
0.180667	0.00301869	-0.0042523	7.87717E-05	8.84725E-05	0	5	0	
0.180833	-0.00282983	0.000298549	7.36296E-05	0.000104089	0	5	0	
0.181	-0.0020753	0.00356709	6.26921E-05	0.000120757	0	5	0	
0.181167	0.000793816	-0.00157753	5.74622E-05	0.000139235	0	5	0	
0.181333	-0.00269617	0.00212233	5.44337E-05	0.000120845	0	5	0	
0.1815	-9.4693E-05	0.00298172	4.63965E-05	0.00012634	0	5	0	
0.181667	-9.32021E-05	-0.00695792	3.7775E-05	0.000141297	0	5	0	
0.181833	0.0011161	0.00122283	3.54388E-05	0.000173374	0	5	0	
0.182	-0.00494067	0.00456036	6.0894E-05	0.000144901	0	5	0	
0.182167	-0.00186374	-0.00110231	7.7001E-05	0.000107609	0	5	0	
0.182333	0.000595091	0.000799185	8.84197E-05	7.49184E-05	0	5	0	
0.1825	0.00204712	-0.0012094	8.95341E-05	6.74978E-05	0	5	0	
0.182667	-0.00247975	-0.00275399	8.11144E-05	4.93233E-05	0	5	0	
0.182833	0.00202657	0.00346339	6.85547E-05	7.3467E-05	0	5	0	
0.183	0.000254946	-0.00173932	5.52163E-05	0.000106443	0	5	0	
0.183167	0.000286219	0.000157314	6.53502E-05	0.000155177	0	5	0	
0.183333	-0.00252854	0.00679369	8.52104E-05	0.000145685	0	5	0	
0.1835	0.000609825	-0.00423064	9.13691E-05	0.000148514	0	5	0	
0.183667	-0.000360162	-0.00248837	6.87423E-05	0.000161757	0	5	0	
0.183833	0.00166243	0.00618059	4.41764E-05	0.000181924	0	5	0	
0.184	-0.000937947	-0.00449156	3.44524E-05	0.000158643	0	5	0	
0.184167	-0.00141515	0.000855645	4.24553E-05	0.000100281	0	5	0	
0.184333	0.00211915	0.00221279	7.3946E-05	6.44904E-05	0	5	0	
0.1845	-0.00184482	-0.00442015	0.00012142	6.2076E-05	0	5	0	
0.184667	-0.000365892	0.00521654	0.000142705	6.78781E-05	0	5	0	
0.184833	0.00236726	0.00110919	0.00011328	8.1491E-05	0	5	0	
0.185	0.0031433	-0.0107554	7.44487E-05	0.000102257	0	5	0	
0.185167	-0.0046665	0.00385515	9.14508E-05	0.000126502	0	5	0	
0.185333	0.000725234	0.0129337	0.000131688	0.0002039	0	5	0	
0.1855	-0.00111635	-0.0194285	0.000130641	0.000276769	0	5	0	
0.185667	0.00340682	0.00785461	9.97155E-05	0.0002977	0	5	0	
0.185833	-0.00302646	0.00257714	5.79851E-05	0.000291339	0	5	0	
0.186	0.00666264	-0.00168119	7.98635E-05	0.000222908	0	5	0	
0.186167	-0.00236583	-0.00352931	8.27872E-05	0.000197064	0	5	0	
0.186333	0.00289515	-0.00556653	9.32545E-05	0.000167954	0	5	0	
0.1865	0.00266855	0.0140099	9.15402E-05	0.000168663	0	5	0	
0.186667	-0.00323117	-0.00814817	0.000111872	0.000209767	0	5	0	
0.186833	0.00275364	-0.00973141	0.000108346	0.000230413	0	5	0	
0.187	-0.00158763	0.0198284	9.31299E-05	0.00026243	0	5	0	
0.187167	0.00141737	-0.000874954	7.75728E-05	0.000324009	0	5	0	
0.187333	0.00399413	-0.0210449	7.58659E-05	0.00036031	0	5	0	
0.1875	-0.00497483	0.00618661	0.000109162	0.000411468	0	5	0	
0.187667	0.00120597	0.0192611	0.000141872	0.000470526	0	5	0	
0.187833	0.00373522	-0.0120124	0.000157364	0.000427775	0	5	0	
0.188	-0.00266277	-0.00537812	0.000119079	0.000491463	0	5	0	
0.188167	-0.000523438	-0.000617483	6.24881E-05	0.000316072	0	5	0	
0.188333	0.00335482	0.0100733	4.36616E-05	0.000306218	0	5	0	
0.1885	-0.00839331	0.00740814	6.60828E-05	0.000154884	0	5	0	
0.188667	0.00497282	-0.0214459	0.000105936	0.000221437	0	5	0	
0.188833	-0.00346567	0.005515	0.000116848	0.00027369	0	5	0	
0.189	-0.00152629	0.0202491	0.00010499	0.00039776	0	5	0	
0.189167	0.00219415	-0.0172034	9.2561E-05	0.000404809	0	5	0	
0.189333	-0.000977991	-0.00955628	8.57492E-05	0.000424398	0	5	0	
0.1895	0.00120408	0.0232351	6.15246E-05	0.00034709	0	5	0	
0.189667	-0.00282042	-0.00921083	4.2905E-05	0.00043068	0	5	0	
0.189833	-0.00358683	-0.00403223	4.12887E-05	0.000464411	0	5	0	
0.19	0.00323175	-0.00605536	9.42819E-05	0.000421126	0	5	0	
0.190167	-0.0018192	0.0136681	9.94638E-05	0.00039039	0	5	0	
0.190333	0.00379416	-0.00519225	0.000133651	0.000279878	0	5	0	
0.1905	0.000431842	0.00291719	0.000119005	0.000276929	0	5	0	
0.190667	0.00193948	-0.0172477	0.000124639	0.000203019	0	5	0	
0.190833	0.00249955	0.0136307	8.96318E-05	0.000263558	0	5	0	
0.191	-0.0104561	0.010003	9.78251E-05	0.000329332	0	5	0	
0.191167	0.00406548	-0.0180014	0.000139435	0.000323436	0	5	0	
0.191333	0.00868261	0.00210513	0.000168103	0.00032631	0	5	0	
0.1915	-0.00847391	0.016349	0.0001692	0.000304517	0	5	0	
0.191667	0.00599621	-0.017407	0.000155816	0.000332307	0	5	0	
0.191833	0.00131938	0.00572439	0.000150156	0.000285115	0	5	0	
0.192	-0.00525364	-0.00117294	0.000148634	0.000234239	0	5	0	
0.192167	0.0066092	0.000794131	0.000151312	0.000145617	0	5	0	
0.192333	-0.00772622	0.000718524	0.000149313	6.85176E-05	0	5	0	
0.1925	-0.00188376	-0.000506798	0.000128208	4.76656E-05	0	5	0	
0.192667	0.0025513	-0.00433397	9.49626E-05	0.000100696	0	5	0	
0.192833	-0.00435289	0.00996315	7.33184E-05	0.000186112	0	5	0	
0.193	0.00152722	-0.0101114	6.44942E-05	0.000228008	0	5	0	
0.193167	-0.00244832	0.00430414	6.9341E-05	0.000214803	0	5	0	
0.193333	0.000114503	-0.00107005	9.50941E-05	0.000176905	0	5	0	
0.1935	0.00111959	0.000172978	9.35226E-05	0.000128185	0	5	0	
0.193667	-0.00126661	0.000982383	8.96394E-05	9.02215E-05	0	5	0	
0.193833	-0.000570209	-0.00666233	0.000127619	8.89376E-05	0	5	0	
0.194	0.00347742	0.00566291	0.000186545	0.000146782	0	5	0	
0.194167	0.00250682	-0.000921597	0.000186269	0.000228445	0	5	0	
0.194333	-0.000801188	-0.00844503	0.000167729	0.000262429	0	5	0	
0.1945	0.00698796	0.0129602	0.000133756	0.000245542	0	5	0	
0.194667	-0.00283797	-0.00793176	0.000144225	0.000220342	0	5	0	
0.194833	0.0145281	-0.00434761	0.000204604	0.000196092	0	5	0	
0.195	-0.0205556	0.00873495	0.000360763	0.00018238	0	5	0	
0.195167	0.00628467	-0.00802733	0.000417946	0.000164925	0	5	0	
0.195333	0.0116707	-0.00602059	0.000365936	0.000146015	0	5	0	
0.1955	-0.0146388	0.0061797	0.000306725	0.000153701	0	5	0	
0.195667	0.0322091	0.0213091	0.000423046	0.000225766	0	5	0	
0.195833	-0.0383221	-0.0440132	0.000673613	0.000439003	0	5	0	
0.196	0.0124288	0.034822	0.000721891	0.000717717	0	5	0	
0.196167	0.00609978	-0.0170667	0.000571698	0.000847672	0	5	0	
0.196333	-0.0132647	0.0118199	0.000377864	0.000776633	0	5	0	
0.1965	0.0303898	-0.00948539	0.000339848	0.00052434	0	5	0	
0.196667	-0.027208	-0.00349566	0.000443055	0.000295404	0	5	0	
0.196833	0.0221907	0.013727	0.000593986	0.000242593	0	5	0	
0.197	-0.0307983	-0.0171103	0.000910818	0.00041289	0	5	0	
0.197167	0.0370191	0.0178874	0.00115896	0.000589121	0	5	0	
0.197333	-0.00386681	-0.0158365	0.00110182	0.000592789	0	5	0	
0.1975	-0.0133173	0.0063391	0.000738953	0.000470167	0	5	0	
0.197667	0.00961361	0.00431171	0.000408229	0.000431868	0	5	0	
0.197833	-0.0372772	-0.0115685	0.000359873	0.00044696	0	5	0	
0.198	0.00643864	0.0151145	0.000439497	0.000424867	0	5	0	
0.198167	-0.00383359	-0.0109399	0.00041192	0.000356227	0	5	0	
0.198333	0.0113424	0.00172583	0.00044247	0.0002861	0	5	0	
0.1985	-0.00844975	0.00406941	0.000453761	0.000240482	0	5	0	
0.198667	-0.0140146	-0.00731156	0.000486739	0.000196086	0	5	0	
0.198833	-0.00483236	0.00617254	0.000343494	0.000220188	0	5	0	
0.199	-0.0367275	0.0077136	0.000361588	0.000285533	0	5	0	
0.199167	0.0184657	-0.00845077	0.000483672	0.000281929	0	5	0	
0.199333	-0.00568049	-0.000764978	0.000548891	0.000268063	0	5	0	
0.1995	0.0154546	0.00660813	0.000420494	0.000246779	0	5	0	
0.199667	-0.00885418	-0.00375739	0.000414708	0.000214385	0	5	0	
0.199833	0.0108653	-0.000824372	0.000494691	0.000189682	0	5	0	
0.2	-0.00743683	0.000443905	0.000546822	0.000155603	0	5	0	
0.200167	0.00234116	0.00282693	0.000419754	0.000159861	0	5	0	
0.200333	-0.0020735	-0.00869199	0.000329551	0.000138513	0	5	0	
0.2005	0.00578361	0.00592438	0.000358602	0.000119088	0	5	0	
0.200667	0.0118701	-0.000814588	0.000488217	0.000166665	0	5	0	
0.200833	-0.00620621	-0.00551694	0.00054113	0.000221182	0	5	0	
0.201	0.00762076	0.00501442	0.000464603	0.000247067	0	5	0	
0.201167	0.00469341	-0.000481441	0.000290287	0.000190134	0	5	0	
0.201333	0.000669363	-0.0039067	0.000159779	0.00011188	0	5	0	
0.2015	-0.0020821	-0.000477512	8.34167E-05	7.68271E-05	0	5	0	
0.201667	0.00408245	-0.00410008	9.08821E-05	0.00010762	0	5	0	
0.201833	-0.00753904	0.0118408	0.00015599	0.00012819	0	5	0	
0.202	0.00799291	-0.0115915	0.000273523	0.00019491	0	5	0	
0.202167	-0.00535841	0.00280092	0.000357693	0.000245837	0	5	0	
0.202333	0.000243394	0.00203058	0.000309057	0.0002192	0	5	0	
0.2025	0.00819946	-0.00596121	0.000194973	0.000171438	0	5	0	
0.202667	-0.00666039	0.0100643	0.000157743	0.000136471	0	5	0	
0.202833	-0.00968445	-0.00832408	0.000182186	0.000193161	0	5	0	
0.203	0.00521723	0.00245589	0.000222828	0.000166246	0	5	0	
0.203167	0.00124282	0.00395829	0.000163474	0.000171708	0	5	0	
0.203333	0.0066136	-0.00596426	0.000136315	0.000139995	0	5	0	
0.2035	0.000461822	-6.10148E-05	0.000127157	0.000155799	0	5	0	
0.203667	-0.00314885	0.00448178	0.000168847	0.000187453	0	5	0	
0.203833	-0.00980589	-0.00431951	0.000184256	0.000241274	0	5	0	
0.204	0.0147514	0.00211808	0.000237122	0.000236585	0	5	0	
0.204167	-0.00557887	0.00488827	0.000321653	0.000152311	0	5	0	
0.204333	0.0107148	-0.00456943	0.00030888	0.000100075	0	5	0	
0.2045	-0.00599301	0.00122209	0.000262903	9.28663E-05	0	5	0	
0.204667	-0.00520557	0.00424014	0.000139395	9.12234E-05	0	5	0	
0.204833	0.00364944	-0.0067745	0.000133901	8.6743E-05	0	5	0	
0.205	-0.00376429	-0.00124054	9.85601E-05	9.6171E-05	0	5	0	
0.205167	0.0229804	0.00790174	0.00013846	0.000141156	0	5	0	
0.205333	-0.0174509	-0.00648881	0.000247481	0.000151996	0	5	0	
0.2055	0.00906876	0.00519671	0.000292192	0.000159503	0	5	0	
0.205667	-0.00787416	0.000434947	0.000287069	0.000172193	0	5	0	
0.205833	-0.00209216	-0.00452755	0.000192875	0.000182918	0	5	0	
0.206	0.0103106	0.00296093	0.000204813	0.000153701	0	5	0	
0.206167	0.00168941	-0.00151758	0.000172537	0.000115793	0	5	0	
0.206333	-0.00678736	-0.00057757	0.000168669	0.000101222	0	5	0	
0.2065	0.000950063	0.00629833	0.000123449	0.000163105	0	5	0	
0.206667	0.00239544	-0.0110246	0.000107422	0.000261577	0	5	0	
0.206833	-0.00471808	0.0154338	7.30989E-05	0.000303258	0	5	0	
0.207	0.00681435	-0.00848819	0.000101926	0.000321156	0	5	0	
0.207167	-0.000887605	-0.00769863	0.000140735	0.000338933	0	5	0	
0.207333	-0.000242538	0.0162074	0.000145657	0.000355332	0	5	0	
0.2075	-2.82209E-06	-0.0129528	9.4847E-05	0.000339059	0	5	0	
0.207667	-0.0105602	0.00414958	0.000102055	0.000312093	0	5	0	
0.207833	0.00154459	0.00897108	0.000122401	0.000327538	0	5	0	
0.208	0.00759732	-0.0170165	0.000141485	0.000347754	0	5	0	
0.208167	-0.00492427	0.0148734	0.000120643	0.00031271	0	5	0	
0.208333	0.000833793	-0.00629079	0.000128987	0.000277694	0	5	0	
0.2085	0.00768183	-0.00838145	0.000162548	0.000251797	0	5	0	
0.208667	-0.0116347	0.0144599	0.00018509	0.000238481	0	5	0	
0.208833	0.00036322	-0.0084021	0.000163279	0.000238715	0	5	0	
0.209	0.00309404	-0.00121518	0.000128379	0.000231083	0	5	0	
0.209167	-0.00373714	0.00405422	8.2148E-05	0.00017374	0	5	0	
0.209333	0.00473315	0.00113551	8.86025E-05	0.000118545	0	5	0	
0.2095	-0.00630465	-0.00865538	9.31026E-05	7.0916E-05	0	5	0	
0.209667	0.00228577	0.00700345	0.000102176	0.000119823	0	5	0	
0.209833	0.00036529	0.00305301	9.82801E-05	0.000138316	0	5	0	
0.21	0.000612285	-0.00782969	8.22813E-05	0.000153983	0	5	0	
0.210167	-0.00394805	0.00590065	7.21584E-05	0.000125308	0	5	0	
0.210333	0.00479023	-0.00187594	6.78588E-05	0.00011476	0	5	0	
0.2105	-0.00538003	-0.00552345	7.39652E-05	0.000112036	0	5	0	
0.210667	0.00230281	0.00793977	9.50757E-05	0.000129776	0	5	0	
0.210833	0.000889796	-0.00438181	7.21408E-05	0.000140254	0	5	0	
0.211	-0.000321187	0.00160946	7.55628E-05	0.000117569	0	5	0	
0.211167	0.00477665	-0.00189518	5.57655E-05	7.59806E-05	0	5	0	
0.211333	-0.00340203	0.0008731	8.39114E-05	4.0135E-05	0	5	0	
0.2115	-0.00155019	-0.00221213	9.15362E-05	3.73903E-05	0	5	0	
0.211667	0.00235403	0.000112946	9.06284E-05	3.21421E-05	0	5	0	
0.211833	0.00120993	0.0026013	7.32104E-05	2.97496E-05	0	5	0	
0.212	0.00188261	-0.0030038	6.19184E-05	4.05623E-05	0	5	0	
0.212167	-0.00117038	-0.00123539	7.50161E-05	4.20358E-05	0	5	0	
0.212333	-0.00267865	0.00373262	9.06604E-05	6.09235E-05	0	5	0	
0.2125	0.00608233	-0.00144553	9.19629E-05	7.71114E-05	0	5	0	
0.212667	0.000183641	0.0025185	8.19637E-05	0.000103535	0	5	0	
0.212833	-0.00427189	-0.00748251	7.41669E-05	0.000115748	0	5	0	
0.213	0.00589895	0.00516997	7.46012E-05	0.000133671	0	5	0	
0.213167	-0.00511774	-0.00318944	0.000102923	0.000138407	0	5	0	
0.213333	-0.000173434	0.00330718	0.000107716	0.000142823	0	5	0	
0.2135	0.00358251	-0.00288412	9.52022E-05	0.000141362	0	5	0	
0.213667	-0.00423642	-0.00105802	7.34336E-05	0.000155935	0	5	0	
0.213833	0.00399967	0.000965669	6.29881E-05	0.000165854	0	5	0	
0.214	0.00368205	-0.00475483	7.41569E-05	0.000163907	0	5	0	
0.214167	-0.0077155	0.0116032	0.000100943	0.000181532	0	5	0	
0.214333	-0.000141881	-0.00673306	0.000116386	0.000185596	0	5	0	
0.2145	0.00513479	0.00660768	0.000114148	0.000167216	0	5	0	
0.214667	-0.00391373	-0.00820085	0.000103212	0.000158245	0	5	0	
0.214833	0.000409808	-0.000963956	7.66563E-05	0.000133313	0	5	0	
0.215	-0.00328376	0.0020414	8.19523E-05	0.000151525	0	5	0	
0.215167	0.0138235	0.00663679	0.000132056	0.000159729	0	5	0	
0.215333	-0.00762	0.000818638	0.000226273	0.000158376	0	5	0	
0.2155	-0.00243551	-0.00222429	0.000218997	0.000117872	0	5	0	
0.215667	-0.000291481	0.00498631	0.00015107	7.07783E-05	0	5	0	
0.215833	0.00378028	-0.00725406	6.197E-05	7.87937E-05	0	5	0	
0.216	-0.00703239	-0.000951616	8.43063E-05	0.000101746	0	5	0	
0.216167	0.00777654	0.0135381	0.000117448	0.000144524	0	5	0	
0.216333	-0.00161076	-0.00610221	0.000180185	0.00018847	0	5	0	
0.2165	0.000735924	-0.00807928	0.000186152	0.00022485	0	5	0	
0.216667	0.000905581	0.00651494	0.000138731	0.000196792	0	5	0	
0.216833	-0.00328658	0.00716673	8.36542E-05	0.000170769	0	5	0	
0.217	0.00118649	-0.0100703	4.83462E-05	0.000159462	0	5	0	
0.217167	-0.00196871	0.00405714	6.62112E-05	0.000284059	0	5	0	
0.217333	-0.000324783	0.00148383	5.17867E-05	0.000340099	0	5	0	
0.2175	0.000516987	0.00571971	4.42573E-05	0.00030426	0	5	0	
0.217667	0.00489077	-0.00952297	3.37005E-05	0.000200558	0	5	0	
0.217833	0.000927195	-0.00229391	7.65985E-05	0.000118437	0	5	0	
0.218	0.00106418	0.0092936	0.000116959	0.000134681	0	5	0	
0.218167	0.00191124	-0.00634856	0.000114772	0.000133889	0	5	0	
0.218333	-0.0065476	-0.00817063	9.7044E-05	0.000250434	0	5	0	
0.2185	0.00641152	0.0267266	9.51873E-05	0.000468472	0	5	0	
0.218667	-0.00535165	-0.0387368	0.000197044	0.000641742	0	5	0	
0.218833	-0.00954442	0.0258421	0.000235738	0.000689233	0	5	0	
0.219	0.0122207	-0.00383539	0.000269519	0.0006708	0	5	0	
0.219167	0.00879952	-0.0148928	0.000231278	0.000685459	0	5	0	
0.219333	-0.00958977	0.0334853	0.000275667	0.00071137	0	5	0	
0.2195	0.00937524	-0.0406145	0.000305494	0.000668839	0	5	0	
0.219667	-0.0254518	0.0109284	0.00034318	0.000743918	0	5	0	
0.219833	0.00896239	0.0295774	0.000335713	0.000925264	0	5	0	
0.22	0.00713916	-0.0373386	0.000349712	0.000980295	0	5	0	
0.220167	-0.00495659	0.0189713	0.000321985	0.000817668	0	5	0	
0.220333	0.00441716	0.000335504	0.000282938	0.000545494	0	5	0	
0.2205	-0.00126884	-0.00633317	0.000250139	0.000343662	0	5	0	
0.220667	-0.00138032	0.00303414	0.000195201	0.000231228	0	5	0	
0.220833	0.00597642	0.00663662	0.000169552	0.000188505	0	5	0	
0.221	-0.0072913	-0.0172777	0.0001388	0.000221926	0	5	0	
0.221167	0.00312942	0.00893809	0.000138029	0.000248003	0	5	0	
0.221333	0.00776218	0.00455173	0.00014766	0.000256699	0	5	0	
0.2215	-0.00763748	-0.0114797	0.000132939	0.000277472	0	5	0	
0.221667	0.00327329	0.00686021	0.000151029	0.000251308	0	5	0	
0.221833	0.000470262	-0.000139847	0.000149631	0.000214121	0	5	0	
0.222	0.000543386	-0.00251204	0.000167969	0.000172448	0	5	0	
0.222167	0.00447346	0.000165977	0.000170701	0.000184112	0	5	0	
0.222333	-0.00168097	-0.00937912	0.000138857	0.000199335	0	5	0	
0.2225	-0.00312566	0.0177707	9.72218E-05	0.000214933	0	5	0	
0.222667	0.00259446	-0.00846971	6.58457E-05	0.000254083	0	5	0	
0.222833	0.00399066	-0.010392	0.000106024	0.000327344	0	5	0	
0.223	-0.000934901	0.016487	0.000152211	0.000356926	0	5	0	
0.223167	0.00348047	-0.00974883	0.000178366	0.0003398	0	5	0	
0.223333	-0.00185385	-4.17803E-05	0.000150552	0.000252432	0	5	0	
0.2235	-0.00104009	0.00155345	0.000101753	0.000175164	0	5	0	
0.223667	0.00800352	-0.00614508	9.55802E-05	0.000108437	0	5	0	
0.223833	-0.00719126	0.0080632	0.000101501	9.59086E-05	0	5	0	
0.224	0.00716572	-0.000884684	0.000154495	0.000147925	0	5	0	
0.224167	-0.00511646	-0.00708244	0.000175492	0.000245256	0	5	0	
0.224333	0.00347828	0.0048729	0.000184234	0.000280693	0	5	0	
0.2245	-0.000640983	0.00220129	0.00014932	0.000221802	0	5	0	
0.224667	0.00976236	-0.0108132	0.000152795	0.000151439	0	5	0	
0.224833	-0.000778026	0.00548478	0.000142688	0.000117873	0	5	0	
0.225	-0.000749401	-0.00447995	0.000127068	0.000139123	0	5	0	
0.225167	-0.00199313	0.00608394	8.58849E-05	0.000159998	0	5	0	
0.225333	0.00395304	-0.0072716	7.48699E-05	0.000181165	0	5	0	
0.2255	-0.00430675	0.00500607	6.94598E-05	0.000187764	0	5	0	
0.225667	0.00730043	-0.00372341	9.06025E-05	0.00016047	0	5	0	
0.225833	0.00539928	-0.00022988	0.000102144	0.000106377	0	5	0	
0.226	0.000877032	-0.00397792	0.000113571	6.72799E-05	0	5	0	
0.226167	-0.000196448	0.00385386	7.62327E-05	6.31075E-05	0	5	0	
0.226333	0.000485853	-0.00478423	4.16727E-05	8.66158E-05	0	5	0	
0.2265	-0.000836771	0.00424621	1.76002E-05	0.000112889	0	5	0	
0.226667	0.00247356	-0.00222609	1.70263E-05	0.000101604	0	5	0	
0.226833	-0.00282178	0.00020786	3.80821E-05	7.31074E-05	0	5	0	
0.227	0.00177374	7.74428E-05	6.99471E-05	4.10388E-05	0	5	0	
0.227167	0.00228068	0.000804803	8.69419E-05	5.53086E-05	0	5	0	
0.227333	-0.00160359	-0.00175764	7.99566E-05	7.57512E-05	0	5	0	
0.2275	-0.00329306	0.00232784	5.3765E-05	8.20528E-05	0	5	0	
0.227667	0.00444682	-0.000783163	5.13717E-05	8.71255E-05	0	5	0	
0.227833	-0.000311215	-0.00111159	5.46643E-05	9.85716E-05	0	5	0	
0.228	-0.000404955	0.00310463	5.06405E-05	0.000124252	0	5	0	
0.228167	-0.00138185	-0.000496085	4.14442E-05	0.000112462	0	5	0	
0.228333	-0.00152471	-0.00205063	5.1146E-05	8.30913E-05	0	5	0	
0.2285	0.000275764	0.00534857	7.19885E-05	6.90292E-05	0	5	0	
0.228667	0.000892201	-0.00560751	6.55302E-05	7.92426E-05	0	5	0	
0.228833	0.000730342	0.00441619	5.31617E-05	9.6917E-05	0	5	0	
0.229	0.000796459	-0.0046979	4.02622E-05	0.000105572	0	5	0	
0.229167	-0.00232677	0.00460626	5.91607E-05	9.73349E-05	0	5	0	
0.229333	-9.81638E-05	-0.00522043	5.81026E-05	8.96965E-05	0	5	0	
0.2295	0.000484526	0.00682104	4.98336E-05	9.68502E-05	0	5	0	
0.229667	-0.0010756	-0.00441386	4.31085E-05	9.85025E-05	0	5	0	
0.229833	-0.00145174	0.00160168	6.60986E-05	0.000117359	0	5	0	
0.23	0.00133313	-0.00179551	8.35947E-05	0.00011856	0	5	0	
0.230167	-0.00243651	0.00130688	8.74222E-05	9.64489E-05	0	5	0	
0.230333	-0.003536	-0.00225276	7.3826E-05	6.54572E-05	0	5	0	
0.2305	0.00464523	0.00165704	7.83356E-05	6.08712E-05	0	5	0	
0.230667	-0.0045459	-0.000267855	8.4001E-05	8.70765E-05	0	5	0	
0.230833	0.00435254	0.002976	8.80561E-05	9.08936E-05	0	5	0	
0.231	-0.00344376	-0.00724576	9.09534E-05	9.71847E-05	0	5	0	
0.231167	-0.00108186	0.00684451	7.46218E-05	0.000114814	0	5	0	
0.231333	-0.000358646	-0.00479111	5.40917E-05	0.000131925	0	5	0	
0.2315	0.00126102	0.00378485	5.84756E-05	0.000119194	0	5	0	
0.231667	-0.00231653	-0.00560244	9.33934E-05	9.95781E-05	0	5	0	
0.231833	0.00412029	0.00190237	0.000118805	8.82421E-05	0	5	0	
0.232	-0.00377404	0.0046613	0.000105705	9.89454E-05	0	5	0	
0.232167	0.000866066	-0.00931045	7.65481E-05	0.0001037	0	5	0	
0.232333	-0.000123966	0.000782082	4.68535E-05	0.000144316	0	5	0	
0.2325	-0.00195572	0.00730465	3.94043E-05	0.000185017	0	5	0	
0.232667	0.00442314	-0.00476575	4.9507E-05	0.000177722	0	5	0	
0.232833	-0.0037232	-0.00617313	7.2641E-05	0.00016944	0	5	0	
0.233	0.00357977	0.00728448	9.65226E-05	0.000132598	0	5	0	
0.233167	-0.00234265	0.00106741	9.99814E-05	0.000133935	0	5	0	
0.233333	0.000607662	-0.00276543	9.98348E-05	9.16157E-05	0	5	0	
0.2335	-0.000488928	-0.00149479	8.86899E-05	9.14E-05	0	5	0	
0.233667	0.00124523	0.00417943	6.76919E-05	8.57923E-05	0	5	0	
0.233833	-0.000627065	-0.000899024	4.48468E-05	8.98159E-05	0	5	0	
0.234	0.000619684	-0.000865209	2.79778E-05	5.12523E-05	0	5	0	
0.234167	0.000105246	0.000551531	2.02908E-05	5.48004E-05	0	5	0	
0.234333	0.00293404	0.00123818	2.11016E-05	6.31817E-05	0	5	0	
0.2345	-0.00359514	0.00155148	3.31936E-05	6.74845E-05	0	5	0	
0.234667	0.00315634	6.89269E-06	4.84955E-05	5.97629E-05	0	5	0	
0.234833	-0.00335596	-0.00196583	7.39612E-05	5.9968E-05	0	5	0	
0.235	0.00140957	0.00159982	8.70254E-05	6.9725E-05	0	5	0	
0.235167	5.48024E-05	0.00135341	0.000102408	6.73791E-05	0	5	0	
0.235333	0.000178513	-0.00246353	8.67114E-05	6.57822E-05	0	5	0	
0.2355	-0.00141645	0.00275235	6.05036E-05	6.43803E-05	0	5	0	
0.235667	0.00200442	0.00104133	4.00402E-05	8.67241E-05	0	5	0	
0.235833	-0.00305287	-0.00324421	4.91302E-05	0.000120548	0	5	0	
0.236	0.000485067	0.00117238	4.93436E-05	0.000151472	0	5	0	
0.236167	0.000586068	8.33243E-05	3.94871E-05	0.000132734	0	5	0	
0.236333	-0.0017706	-0.00152114	2.47022E-05	8.98962E-05	0	5	0	
0.2365	0.000238254	0.00135809	3.37789E-05	4.97274E-05	0	5	0	
0.236667	-0.000847944	-0.0030641	4.95966E-05	4.26701E-05	0	5	0	
0.236833	-0.000745161	0.00303134	5.40086E-05	6.0257E-05	0	5	0	
0.237	0.000552457	-0.0041827	3.92143E-05	8.05608E-05	0	5	0	
0.237167	0.00080898	0.00461208	3.48714E-05	0.00010224	0	5	0	
0.237333	-0.00159873	-0.00373326	4.12787E-05	9.67459E-05	0	5	0	
0.2375	0.00230982	-0.000193362	6.46851E-05	7.74915E-05	0	5	0	
0.237667	-0.0048088	0.00254381	8.34569E-05	6.03994E-05	0	5	0	
0.237833	0.00498284	-0.00680824	0.00010065	5.5085E-05	0	5	0	
0.238	-0.000356135	0.00151576	8.64839E-05	9.44246E-05	0	5	0	
0.238167	-0.00339157	0.00873501	7.94344E-05	0.000138068	0	5	0	
0.238333	0.00409507	-0.00856517	6.48042E-05	0.000161731	0	5	0	
0.2385	0.00164559	-0.00216401	6.73906E-05	0.000198755	0	5	0	
0.238667	-0.00163346	0.00724063	5.68833E-05	0.000197403	0	5	0	
0.238833	-0.000315511	-0.0064963	6.88715E-05	0.00019204	0	5	0	
0.239	0.00197075	0.00146524	6.63625E-05	0.000171349	0	5	0	
0.239167	-0.000261732	0.00242705	7.57312E-05	0.000170536	0	5	0	
0.239333	-0.00118844	-0.00609581	7.87629E-05	0.000197018	0	5	0	
0.2395	0.0042972	0.00767084	0.00010066	0.000185036	0	5	0	
0.239667	-0.00203064	-0.00529713	0.000110086	0.000157406	0	5	0	
0.239833	0.00308059	-0.00268111	0.000111817	0.000147032	0	5	0	
0.24	-0.00369854	0.00726319	0.000130964	0.000132865	0	5	0	
0.240167	0.00237512	-0.00570648	0.000123491	0.000137168	0	5	0	
0.240333	0.0025862	-0.00284612	9.4098E-05	0.000140296	0	5	0	
0.2405	-0.0013485	0.00328592	5.76462E-05	0.000134184	0	5	0	
0.240667	0.000272616	0.000766523	7.09762E-05	0.00011915	0	5	0	
0.240833	-0.00110863	-0.00518886	7.93525E-05	0.000104884	0	5	0	
0.241	0.00573718	0.0031884	8.66682E-05	0.000103955	0	5	0	
0.241167	-0.0051357	0.000424299	7.49493E-05	8.47902E-05	0	5	0	
0.241333	0.00450134	-0.000892788	9.75309E-05	4.86128E-05	0	5	0	
0.2415	-0.00126153	-0.00252206	0.000126414	3.03394E-05	0	5	0	
0.241667	0.0015858	0.000802727	0.000140971	3.84472E-05	0	5	0	
0.241833	-0.00213833	0.000532956	0.000122738	3.95358E-05	0	5	0	
0.242	0.00314878	-0.00330494	9.70121E-05	4.25639E-05	0	5	0	
0.242167	-0.00079384	0.00321465	8.67412E-05	4.9489E-05	0	5	0	
0.242333	-0.000541103	-0.00292579	8.99915E-05	6.74967E-05	0	5	0	
0.2425	0.00024207	0.00288633	7.20361E-05	7.40622E-05	0	5	0	
0.242667	0.00131269	-0.00284182	4.31384E-05	8.12316E-05	0	5	0	
0.242833	-0.000246801	0.00117284	2.30414E-05	7.76986E-05	0	5	0	
0.243	0.000410705	-0.00141254	2.37139E-05	7.62794E-05	0	5	0	
0.243167	-0.00269169	0.00179407	3.16617E-05	5.66478E-05	0	5	0	
0.243333	0.00162693	-0.00400328	3.92063E-05	6.08898E-05	0	5	0	
0.2435	-0.00174347	0.00249616	4.04084E-05	6.132E-05	0	5	0	
0.243667	0.000876842	-0.000868854	4.27568E-05	6.70245E-05	0	5	0	
0.243833	-0.0027756	0.000371948	4.61689E-05	4.44357E-05	0	5	0	
0.244	0.00159739	-0.00289207	5.57972E-05	3.11591E-05	0	5	0	
0.244167	0.000557911	0.000377747	6.53213E-05	2.61422E-05	0	5	0	
0.244333	-0.00198797	0.000615257	6.52298E-05	3.13452E-05	0	5	0	
0.2445	0.00112896	-0.001122	5.6514E-05	3.98826E-05	0	5	0	
0.244667	0.00102172	0.0004473	3.76425E-05	5.08424E-05	0	5	0	
0.244833	-0.00268681	-0.00125528	3.11179E-05	5.65156E-05	0	5	0	
0.245	0.00168407	-0.000708579	3.21704E-05	5.05311E-05	0	5	0	
0.245167	-0.00220846	0.00117343	4.36652E-05	3.79825E-05	0	5	0	
0.245333	0.00154903	-0.00248326	5.71413E-05	3.59891E-05	0	5	0	
0.2455	-0.00111424	0.00196337	7.65784E-05	4.70373E-05	0	5	0	
0.245667	0.00323322	0.00154392	8.32447E-05	6.11551E-05	0	5	0	
0.245833	-0.00148368	-0.00484748	9.06149E-05	7.09351E-05	0	5	0	
0.246	0.00252842	0.00142929	7.87201E-05	8.95696E-05	0	5	0	
0.246167	-0.00076016	-0.00105882	6.6995E-05	9.87786E-05	0	5	0	
0.246333	-0.000879026	0.000676605	6.0496E-05	9.29904E-05	0	5	0	
0.2465	-0.00206191	0.00322195	6.54013E-05	6.09067E-05	0	5	0	
0.246667	-4.76582E-06	-0.00387728	6.86668E-05	5.70527E-05	0	5	0	
0.246833	0.00220176	0.00234553	5.21531E-05	9.39122E-05	0	5	0	
0.247	-0.000605222	0.000240382	3.53188E-05	0.000155271	0	5	0	
0.247167	-0.00195086	-0.00208625	2.66677E-05	0.000164761	0	5	0	
0.247333	0.00205913	0.00369306	3.8046E-05	0.000125857	0	5	0	
0.2475	-0.00336025	-0.00404059	5.02775E-05	8.35962E-05	0	5	0	
0.247667	0.00564214	-0.0047567	7.47465E-05	0.000119058	0	5	0	
0.247833	-0.00615848	0.016196	9.40542E-05	0.00019445	0	5	0	
0.248	-0.000749005	-0.0131199	0.000121141	0.000251495	0	5	0	
0.248167	0.0036153	-0.000340059	0.000117265	0.000315218	0	5	0	
0.248333	-0.00039013	0.00785037	9.90508E-05	0.000305089	0	5	0	
0.2485	-0.00205008	-0.000239825	8.08679E-05	0.000250025	0	5	0	
0.248667	0.00168276	-0.00136415	6.93922E-05	0.000147516	0	5	0	
0.248833	-0.00438166	-0.00451076	6.49619E-05	0.000127788	0	5	0	
0.249	0.00732366	0.00285853	6.69824E-05	0.000116547	0	5	0	
0.249167	-0.00462483	0.00655053	9.85905E-05	0.000137279	0	5	0	
0.249333	-0.000976999	-0.000822411	0.000130689	9.92019E-05	0	5	0	
0.2495	0.00393258	-0.00503642	0.000116118	0.000125757	0	5	0	
0.249667	-0.000966191	0.00271798	8.68337E-05	9.15976E-05	0	5	0	
0.249833	-0.00142626	0.00833891	4.22069E-05	0.000142734	0	5	0	
0.25	0.000646023	-0.0103794	3.23752E-05	0.000157479	0	5	0	
0.250167	-0.000465855	0.00564335	2.45466E-05	0.000207805	0	5	0	
0.250333	-0.00175127	0.00343309	3.20277E-05	0.000220132	0	5	0	
0.2505	0.000274356	-0.000256613	3.3064E-05	0.000197636	0	5	0	
0.250667	0.00253297	-0.00561833	2.99586E-05	0.000145599	0	5	0	
0.250833	-0.00126795	0.0087967	3.54706E-05	0.000102244	0	5	0	
0.251	-0.00198437	-0.00612573	6.21024E-05	0.000115432	0	5	0	
0.251167	0.00205843	0.00512107	8.13438E-05	0.000143966	0	5	0	
0.251333	-0.000436438	-0.00398161	7.57063E-05	0.000131478	0	5	0	
0.2515	-0.0015276	0.00200499	5.01825E-05	9.99732E-05	0	5	0	
0.251667	0.00078296	-0.00109506	3.05341E-05	7.03703E-05	0	5	0	
0.251833	-0.00221094	-0.00484172	3.45053E-05	5.77595E-05	0	5	0	
0.252	0.00561527	0.00892049	5.56794E-05	8.78561E-05	0	5	0	
0.252167	-0.00067683	-0.00961676	8.55656E-05	0.000155071	0	5	0	
0.252333	-0.00361636	0.00768212	9.84852E-05	0.000206168	0	5	0	
0.2525	0.00101856	-0.00667601	7.89249E-05	0.000204888	0	5	0	
0.252667	0.000675283	-0.00466273	5.61279E-05	0.00024102	0	5	0	
0.252833	-0.0025577	0.00912309	6.28786E-05	0.000288668	0	5	0	
0.253	-0.000546212	-0.011996	6.94876E-05	0.000279837	0	5	0	
0.253167	0.00665526	0.0164314	9.21048E-05	0.00030786	0	5	0	
0.253333	-0.00303083	-0.01178	0.000107198	0.000360904	0	5	0	
0.2535	-0.00463887	-0.0031448	0.000114903	0.000444405	0	5	0	
0.253667	0.00255116	0.0166008	0.000129693	0.000405732	0	5	0	
0.253833	-0.00205759	-0.0211885	0.000127277	0.000357134	0	5	0	
0.254	-0.00019746	0.0108674	0.00012202	0.000333476	0	5	0	
0.254167	0.00236724	0.00721869	9.23735E-05	0.000324168	0	5	0	
0.254333	-0.00144782	-0.0141401	7.32121E-05	0.000288363	0	5	0	
0.2545	-0.00257069	0.011841	5.98797E-05	0.000263228	0	5	0	
0.254667	0.00885285	-0.00453917	8.02331E-05	0.000234658	0	5	0	
0.254833	-0.0105586	-0.00203021	0.000105276	0.00020884	0	5	0	
0.255	0.00469669	0.00582545	0.000152927	0.000201727	0	5	0	
0.255167	-0.00162337	-0.00940977	0.000151531	0.000199531	0	5	0	
0.255333	0.00317591	0.0076747	0.000124273	0.000180106	0	5	0	
0.2555	-0.0026574	0.00291745	9.16218E-05	0.000165577	0	5	0	
0.255667	0.00282467	-0.00603453	6.90872E-05	0.000133166	0	5	0	
0.255833	-0.0015131	-0.00125176	5.479E-05	0.000142439	0	5	0	
0.256	-0.00111323	0.00636243	3.99931E-05	0.000195916	0	5	0	
0.256167	-6.12129E-05	-0.00770483	2.90633E-05	0.000245844	0	5	0	
0.256333	0.00228912	0.00672192	2.01911E-05	0.000222974	0	5	0	
0.2565	-0.0015408	-0.00421778	3.16784E-05	0.000180725	0	5	0	
0.256667	0.000307708	-0.00221731	5.68389E-05	0.000154493	0	5	0	
0.256833	-0.00127383	0.00695047	8.72362E-05	0.000156376	0	5	0	
0.257	0.00254983	-0.00594054	9.17508E-05	0.000140413	0	5	0	
0.257167	-0.00235459	-0.000465008	7.77592E-05	0.000144621	0	5	0	
0.257333	0.000258827	0.00434762	6.41212E-05	0.000171428	0	5	0	
0.2575	0.000677391	-0.00579404	6.12312E-05	0.000159492	0	5	0	
0.257667	0.0011731	0.00283041	5.13478E-05	0.000116259	0	5	0	
0.257833	-0.00231944	0.000401059	4.42225E-05	8.89126E-05	0	5	0	
0.258	-0.000681594	-0.00516706	4.95275E-05	8.5786E-05	0	5	0	
0.258167	0.00690893	0.00841098	7.16124E-05	0.0001116	0	5	0	
0.258333	-0.00422648	-0.00853092	9.97167E-05	0.000134502	0	5	0	
0.2585	0.00100779	0.00167707	9.83863E-05	0.000155671	0	5	0	
0.258667	0.000749962	0.00389273	9.531E-05	0.000137139	0	5	0	
0.258833	-7.59479E-05	-0.00614763	8.87241E-05	0.000112874	0	5	0	
0.259	-0.00116771	0.0028376	9.22345E-05	9.19707E-05	0	5	0	
0.259167	-0.000752008	0.00165663	9.38576E-05	0.000110854	0	5	0	
0.259333	0.00456445	-0.00348556	0.000109278	0.000143929	0	5	0	
0.2595	-0.00313346	0.00373225	0.00013394	0.000155041	0	5	0	
0.259667	0.000809988	-0.00416104	0.000137739	0.000127124	0	5	0	
0.259833	-0.000810766	0.00090448	0.000104898	8.94144E-05	0	5	0	
0.26	-6.42306E-05	-0.000387722	6.45882E-05	5.48054E-05	0	5	0	
0.260167	-0.0013276	0.00066954	4.02931E-05	4.28161E-05	0	5	0	
0.260333	0.00303294	8.20867E-06	3.42069E-05	2.41694E-05	0	5	0	
0.2605	-0.00398055	0.000242122	4.90541E-05	1.6475E-05	0	5	0	
0.260667	0.000777634	0.00115948	6.59969E-05	1.21001E-05	0	5	0	
0.260833	0.00163778	-0.00558449	8.0032E-05	3.93669E-05	0	5	0	
0.261	-0.000708291	0.00537987	6.87317E-05	8.99852E-05	0	5	0	
0.261167	-0.000275441	-0.000495369	5.50089E-05	0.000142073	0	5	0	
0.261333	-0.000589382	-0.00627139	4.82524E-05	0.000169808	0	5	0	
0.2615	-0.000792504	0.0102581	5.76729E-05	0.000183246	0	5	0	
0.261667	0.00141928	-0.0071157	7.38589E-05	0.000181778	0	5	0	
0.261833	-0.00158621	-0.00228124	8.23455E-05	0.000163887	0	5	0	
0.262	0.002814	0.0103723	8.45622E-05	0.000154333	0	5	0	
0.262167	-0.00320353	-0.0122544	7.96382E-05	0.000169796	0	5	0	
0.262333	0.00332164	0.00612816	7.8679E-05	0.000189233	0	5	0	
0.2625	-0.00123414	-0.000566525	7.10488E-05	0.000200924	0	5	0	
0.262667	0.00125798	0.000139961	6.59614E-05	0.000157594	0	5	0	
0.262833	-0.000237985	-0.00353639	4.47374E-05	0.000114327	0	5	0	
0.263	0.00231655	0.00442632	3.74098E-05	6.8564E-05	0	5	0	
0.263167	-0.000889969	0.00195154	3.86609E-05	6.18332E-05	0	5	0	
0.263333	0.00178717	-0.00314522	3.62867E-05	7.08539E-05	0	5	0	
0.2635	-0.00208494	-0.00353722	4.8684E-05	8.54907E-05	0	5	0	
0.263667	0.00293164	0.00293485	7.99105E-05	9.83021E-05	0	5	0	
0.263833	0.000158979	0.0103068	0.000138649	0.000163688	0	5	0	
0.264	-0.00192558	-0.0129531	0.000170575	0.000213811	0	5	0	
0.264167	0.00565861	0.0118031	0.000153892	0.000253002	0	5	0	
0.264333	-0.00360387	-0.0080656	0.000125415	0.000226676	0	5	0	
0.2645	-0.00263376	0.00194065	8.29792E-05	0.000176822	0	5	0	
0.264667	0.00380934	0.00813038	7.23745E-05	0.000165287	0	5	0	
0.264833	-0.00531527	-0.015427	7.10285E-05	0.000188535	0	5	0	
0.265	0.00603397	0.0156836	9.20283E-05	0.000238919	0	5	0	
0.265167	-0.00215892	-0.00420411	9.94221E-05	0.000284363	0	5	0	
0.265333	-0.000276597	-0.00576596	9.96549E-05	0.000295262	0	5	0	
0.2655	-0.000450608	0.00462733	7.57589E-05	0.000247385	0	5	0	
0.265667	-0.000673314	-0.000991578	5.34163E-05	0.000174766	0	5	0	
0.265833	-0.00118214	-0.00041308	2.70969E-05	0.000104379	0	5	0	
0.266	0.00141354	-0.000936885	2.91993E-05	7.03613E-05	0	5	0	
0.266167	-0.000588947	0.00103267	3.44476E-05	4.43536E-05	0	5	0	
0.266333	-0.000298171	-0.00256399	4.98062E-05	2.5529E-05	0	5	0	
0.2665	0.00219516	0.00401691	5.56041E-05	4.66401E-05	0	5	0	
0.266667	-0.00321573	-0.00160029	6.19122E-05	6.98392E-05	0	5	0	
0.266833	0.000623442	-0.00346588	5.3897E-05	8.97266E-05	0	5	0	
0.267	0.000961437	0.00638423	4.65287E-05	9.23942E-05	0	5	0	
0.267167	-0.00201267	-0.00466684	3.41837E-05	9.13227E-05	0	5	0	
0.267333	0.00173146	0.00411524	3.24772E-05	9.24687E-05	0	5	0	
0.2675	-0.000951046	-0.00101764	3.66413E-05	7.70639E-05	0	5	0	
0.267667	0.000897357	-0.00101329	3.34582E-05	5.24803E-05	0	5	0	
0.267833	-0.00030445	-0.000143931	3.07966E-05	3.19063E-05	0	5	0	
0.268	-0.000857149	0.00176518	3.0222E-05	2.68342E-05	0	5	0	
0.268167	0.00324575	-0.000659393	4.48024E-05	3.17463E-05	0	5	0	
0.268333	-0.00261411	-0.000107177	5.448E-05	2.87768E-05	0	5	0	
0.2685	-0.00121005	0.00317339	4.68044E-05	4.40756E-05	0	5	0	
0.268667	0.00344814	-0.00466101	4.51322E-05	5.6216E-05	0	5	0	
0.268833	0.000478997	-0.00134016	6.37101E-05	8.57953E-05	0	5	0	
0.269	-0.00450881	0.00817379	9.09685E-05	0.000126238	0	5	0	
0.269167	0.00322142	-0.0121234	9.29135E-05	0.000164295	0	5	0	
0.269333	0.00361564	0.00926262	7.37431E-05	0.000204613	0	5	0	
0.2695	-0.00315663	-0.00157743	5.73113E-05	0.000221034	0	5	0	
0.269667	0.00300139	-0.00441376	6.48712E-05	0.00021495	0	5	0	
0.269833	-0.00419339	0.00812285	6.85314E-05	0.000167109	0	5	0	
0.27	0.00426293	-0.00782005	8.05259E-05	0.000144646	0	5	0	
0.270167	0.00183276	0.000895578	0.000102424	0.000147929	0	5	0	
0.270333	-0.00255019	0.00593376	0.000115384	0.000198685	0	5	0	
0.2705	0.000893481	-0.00943599	9.70606E-05	0.000214759	0	5	0	
0.270667	0.00433738	0.00639042	7.3393E-05	0.000203669	0	5	0	
0.270833	-0.00227403	0.00264268	6.49038E-05	0.00015684	0	5	0	
0.271	0.00197027	-0.00643331	6.38124E-05	0.000113368	0	5	0	
0.271167	0.000124288	0.00361146	4.75656E-05	9.65218E-05	0	5	0	
0.271333	-0.000284786	-0.00399252	3.38502E-05	9.12997E-05	0	5	0	
0.2715	0.00198025	0.00737892	4.06445E-05	0.000100602	0	5	0	
0.271667	-0.00285784	-0.00730866	4.31194E-05	0.000123071	0	5	0	
0.271833	0.00254995	0.0022491	5.47851E-05	0.000143508	0	5	0	
0.272	0.00230852	0.00239126	4.96023E-05	0.000138739	0	5	0	
0.272167	-0.00252491	-0.000589029	5.84651E-05	9.79065E-05	0	5	0	
0.272333	0.000628286	-0.00475585	6.37927E-05	9.51607E-05	0	5	0	
0.2725	0.00104479	0.00698772	7.6071E-05	0.0001089	0	5	0	
0.272667	0.000101552	-0.00533265	6.66109E-05	0.000136984	0	5	0	
0.272833	-0.00019162	0.00252907	3.84125E-05	0.000112136	0	5	0	
0.273	0.00265766	-0.002394	2.94919E-05	8.43818E-05	0	5	0	
0.273167	-0.00253164	-0.000666672	4.37935E-05	8.12063E-05	0	5	0	
0.273333	0.00177007	0.00143988	7.13902E-05	8.37199E-05	0	5	0	
0.2735	-0.000172499	-0.000658813	8.80061E-05	7.11506E-05	0	5	0	
0.273667	-0.0012525	-0.00101405	9.60903E-05	4.12424E-05	0	5	0	
0.273833	0.00212844	-0.000630088	8.95424E-05	3.18093E-05	0	5	0	
0.274	-0.000701553	-0.000236758	6.81335E-05	3.46513E-05	0	5	0	
0.274167	-0.00186372	0.000762809	4.23568E-05	3.65196E-05	0	5	0	
0.274333	0.00459126	-0.00326713	4.06866E-05	3.80262E-05	0	5	0	
0.2745	-0.00347808	0.00208458	5.39436E-05	4.34658E-05	0	5	0	
0.274667	0.00212879	-0.00564582	7.14996E-05	5.91289E-05	0	5	0	
0.274833	-0.00184721	0.0039096	7.64246E-05	7.60881E-05	0	5	0	
0.275	0.000685484	0.000883813	7.2665E-05	8.25581E-05	0	5	0	
0.275167	-0.000829133	-0.00384583	6.76765E-05	8.37358E-05	0	5	0	
0.275333	0.00236525	0.00286512	6.16703E-05	6.98252E-05	0	5	0	
0.2755	-0.000283684	-0.000802795	5.22394E-05	6.60817E-05	0	5	0	
0.275667	0.00228781	-0.00151305	5.35388E-05	6.02471E-05	0	5	0	
0.275833	-0.00158979	0.000488885	5.17229E-05	5.93297E-05	0	5	0	
0.276	0.00192176	0.000268547	5.30919E-05	4.39227E-05	0	5	0	
0.276167	-0.00176598	0.00122815	4.55308E-05	4.01944E-05	0	5	0	
0.276333	0.00230286	-4.01611E-06	4.95107E-05	3.21963E-05	0	5	0	
0.2765	-0.00116776	0.00236665	6.06528E-05	3.77798E-05	0	5	0	
0.276667	0.000688006	-0.00222264	6.25556E-05	3.41121E-05	0	5	0	
0.276833	0.00177209	0.000706863	4.89123E-05	3.98243E-05	0	5	0	
0.277	-0.000554044	-0.00079988	3.45824E-05	5.66193E-05	0	5	0	
0.277167	-0.00169685	-0.00097097	2.88611E-05	7.90539E-05	0	5	0	
0.277333	0.00429083	0.00558549	4.11222E-05	8.80449E-05	0	5	0	
0.2775	-0.00513677	-0.00276484	6.33609E-05	9.14753E-05	0	5	0	
0.277667	0.00298933	-0.00287873	8.68375E-05	0.000112487	0	5	0	
0.277833	-0.000424584	0.00485561	0.000109536	0.000127905	0	5	0	
0.278	0.000464144	-0.00310742	0.0001192	0.000121901	0	5	0	
0.278167	-0.00108325	0.000745031	0.000107067	8.47567E-05	0	5	0	
0.278333	0.000335372	-0.00369293	6.95009E-05	7.86689E-05	0	5	0	
0.2785	7.90716E-05	-0.0033019	3.55372E-05	0.000105743	0	5	0	
0.278667	-9.75749E-06	0.0123226	2.50209E-05	0.000135871	0	5	0	
0.278833	-0.00286087	-0.00575553	3.43333E-05	0.000167337	0	5	0	
0.279	0.00502789	-0.00657035	6.13074E-05	0.000199605	0	5	0	
0.279167	-0.00282577	0.00576509	7.46324E-05	0.00018188	0	5	0	
0.279333	-0.000934203	0.000127885	8.47484E-05	0.000193063	0	5	0	
0.2795	-0.00235584	-0.00415577	7.76564E-05	0.000117107	0	5	0	
0.279667	0.00220176	-0.00298599	8.54362E-05	0.000142875	0	5	0	
0.279833	-0.000604181	0.00444693	0.000103759	8.51461E-05	0	5	0	
0.28	-0.00370764	0.000456888	9.51107E-05	0.00010969	0	5	0	
0.280167	-0.00100072	-0.000412837	7.63922E-05	5.63907E-05	0	5	0	
0.280333	0.00411252	-0.000845581	4.56444E-05	5.35876E-05	0	5	0	
0.2805	-0.0050216	-0.00446704	6.14008E-05	4.33834E-05	0	5	0	
0.280667	0.000793773	0.00734148	6.81937E-05	8.85996E-05	0	5	0	
0.280833	0.000275386	-0.00806757	8.36814E-05	0.000114962	0	5	0	
0.281	-0.00316137	0.00395582	6.38802E-05	0.000141253	0	5	0	
0.281167	0.000706823	9.97491E-05	5.76789E-05	0.000111482	0	5	0	
0.281333	-0.00159349	-0.00218913	3.76877E-05	0.000112558	0	5	0	
0.2815	0.00306114	0.00156579	3.60072E-05	0.000130763	0	5	0	
0.281667	-0.00093117	-0.00296704	4.05487E-05	0.000157863	0	5	0	
0.281833	-0.00443097	0.00376367	4.54736E-05	0.000148682	0	5	0	
0.282	0.00519286	-0.00328563	7.44149E-05	0.000111052	0	5	0	
0.282167	-0.00167072	0.00204391	8.91494E-05	0.000103664	0	5	0	
0.282333	0.00149032	-0.00356004	9.53183E-05	0.000100947	0	5	0	
0.2825	-0.00210855	0.00292156	7.2216E-05	9.89764E-05	0	5	0	
0.282667	0.00142873	-0.00177985	6.29423E-05	8.29952E-05	0	5	0	
0.282833	5.05063E-05	0.00154109	6.26451E-05	6.58866E-05	0	5	0	
0.283	-0.000831922	-0.00158569	5.25599E-05	4.83551E-05	0	5	0	
0.283167	0.00287255	-0.00251129	4.41846E-05	5.8528E-05	0	5	0	
0.283333	-0.00118602	0.00408804	4.18041E-05	8.8564E-05	0	5	0	
0.2835	-0.00136595	-0.00344392	3.91955E-05	0.000103953	0	5	0	
0.283667	0.0033822	-0.00211396	4.09685E-05	9.72137E-05	0	5	0	
0.283833	-0.00367302	0.00819683	5.38172E-05	8.22213E-05	0	5	0	
0.284	-0.000866027	-0.00322203	8.87951E-05	0.000100698	0	5	0	
0.284167	0.00572969	-0.00567412	0.000121307	0.000162669	0	5	0	
0.284333	-0.00258901	0.00883061	0.000112434	0.000194624	0	5	0	
0.2845	-0.00488707	-0.00556503	0.000109984	0.000220398	0	5	0	
0.284667	0.00735386	-0.00548608	9.62637E-05	0.000237476	0	5	0	
0.284833	-0.003813	0.00782022	0.000117588	0.000227337	0	5	0	
0.285	0.00180497	-0.00111481	0.000106533	0.000187624	0	5	0	
0.285167	-0.00298859	-0.00151923	9.60975E-05	0.000135386	0	5	0	
0.285333	0.00156876	0.00426512	9.24711E-05	0.000137581	0	5	0	
0.2855	0.000129178	-0.00935783	8.82375E-05	0.000154862	0	5	0	
0.285667	0.00101396	0.00529863	6.73365E-05	0.000143444	0	5	0	
0.285833	-0.00281774	0.000515169	4.18958E-05	0.000140982	0	5	0	
0.286	0.00266812	-0.0063929	3.6508E-05	0.000131677	0	5	0	
0.286167	5.59855E-05	0.00582031	4.32313E-05	0.000131785	0	5	0	
0.286333	-0.00205637	0.00221902	4.22807E-05	0.000137046	0	5	0	
0.2865	-0.00040382	-0.00603793	3.01784E-05	0.00014191	0	5	0	
0.286667	0.00224913	0.00144094	3.45623E-05	0.000126159	0	5	0	
0.286833	-0.00342909	0.00511385	3.73479E-05	0.000137783	0	5	0	
0.287	0.00451815	-0.0119328	6.98082E-05	0.000164276	0	5	0	
0.287167	9.65009E-05	0.00828767	6.75485E-05	0.000200094	0	5	0	
0.287333	-1.39491E-05	-0.00439635	6.25009E-05	0.000182773	0	5	0	
0.2875	-0.0024287	0.000911009	3.2014E-05	0.000186074	0	5	0	
0.287667	0.00967208	-0.00398992	6.24687E-05	0.0001898	0	5	0	
0.287833	-0.0139844	0.00395274	0.000128095	0.000181432	0	5	0	
0.288	0.0129833	-0.00175006	0.000210274	0.000135752	0	5	0	
0.288167	-0.00277218	-0.00259683	0.000216592	0.000114704	0	5	0	
0.288333	-0.000871894	-0.00383852	0.000186444	0.000124342	0	5	0	
0.2885	0.000429523	0.00864368	0.000121126	0.00015149	0	5	0	
0.288667	-0.000723291	-0.0135225	8.18581E-05	0.000185308	0	5	0	
0.288833	0.000978424	0.00703869	8.8617E-05	0.000205113	0	5	0	
0.289	0.0040005	-0.00108257	0.000143095	0.000184047	0	5	0	
0.289167	-0.00687117	-0.002205	0.000214054	0.000128456	0	5	0	
0.289333	0.00554374	0.0011546	0.000215834	7.20658E-05	0	5	0	
0.2895	-0.00491114	-0.00300962	0.000165517	5.14782E-05	0	5	0	
0.289667	-9.27468E-05	-0.000964277	0.000102847	3.84887E-05	0	5	0	
0.289833	-0.00225538	0.00496011	5.68136E-05	6.43512E-05	0	5	0	
0.29	0.00157969	-0.0128376	7.01072E-05	0.000128299	0	5	0	
0.290167	0.00016895	0.00893872	8.70061E-05	0.000174543	0	5	0	
0.290333	-0.000238088	-0.00529427	8.36586E-05	0.000205082	0	5	0	
0.2905	0.000867916	-0.00270852	6.79711E-05	0.000202769	0	5	0	
0.290667	0.00082046	0.00210957	4.82961E-05	0.000184766	0	5	0	
0.290833	-0.00367407	-0.00391649	5.78138E-05	0.000149381	0	5	0	
0.291	-0.00158218	0.00216471	5.27247E-05	0.000160269	0	5	0	
0.291167	0.00650902	0.00189473	8.00496E-05	0.000206102	0	5	0	
0.291333	-0.00237362	-0.00914137	0.000104976	0.000219139	0	5	0	
0.2915	-0.000782832	0.00568795	9.82474E-05	0.000169464	0	5	0	
0.291667	0.00268247	-0.00153201	7.39872E-05	0.000119926	0	5	0	
0.291833	-0.00353479	-0.00187426	5.34725E-05	7.81081E-05	0	5	0	
0.292	0.00294924	0.00058486	5.72845E-05	6.02413E-05	0	5	0	
0.292167	0.000212368	-0.000138936	6.20975E-05	5.2561E-05	0	5	0	
0.292333	-0.000822182	0.00194069	7.60235E-05	5.37494E-05	0	5	0	
0.2925	-0.00392724	-0.00153999	7.9855E-05	8.43753E-05	0	5	0	
0.292667	-0.00313343	0.000395522	0.000109653	0.000141395	0	5	0	
0.292833	0.00341313	0.00251421	0.000118608	0.000215382	0	5	0	
0.293	-0.00234852	-0.00852332	0.000125743	0.000239952	0	5	0	
0.293167	0.00183647	0.0108976	9.78821E-05	0.000234259	0	5	0	
0.293333	0.00491243	-0.00752182	7.75373E-05	0.00021029	0	5	0	
0.2935	-0.00474168	0.000963009	8.34231E-05	0.000163526	0	5	0	
0.293667	-0.00434164	0.00595444	7.80515E-05	0.000127143	0	5	0	
0.293833	0.00414526	-0.0147328	0.000132493	0.000157916	0	5	0	
0.294	-0.00113231	0.0170536	0.000174201	0.000221187	0	5	0	
0.294167	0.00151429	-0.0100463	0.000185536	0.000273328	0	5	0	
0.294333	0.000102192	-0.00111039	0.000115998	0.000252233	0	5	0	
0.2945	0.00542672	0.00203394	7.26304E-05	0.000173951	0	5	0	
0.294667	-0.000254066	0.00410836	6.45743E-05	0.000122665	0	5	0	
0.294833	-0.00318262	-0.0023738	7.45282E-05	7.83553E-05	0	5	0	
0.295	0.00515825	-0.00565743	6.45338E-05	0.000132856	0	5	0	
0.295167	0.000256632	0.0089488	6.17857E-05	0.000134064	0	5	0	
0.295333	-0.00241595	-0.00717304	6.25558E-05	0.000158923	0	5	0	
0.2955	-0.000553071	0.00963633	4.84925E-05	0.000146509	0	5	0	
0.295667	0.00330089	-0.00774806	5.02417E-05	0.000162015	0	5	0	
0.295833	-0.00171571	-0.000818145	6.78159E-05	0.000183119	0	5	0	
0.296	-0.000956467	0.0101264	9.05841E-05	0.000195657	0	5	0	
0.296167	0.0041732	-0.0101552	9.30612E-05	0.000196166	0	5	0	
0.296333	-0.00190614	0.00323813	7.58267E-05	0.000198585	0	5	0	
0.2965	-0.000817178	0.00479284	6.44917E-05	0.000193079	0	5	0	
0.296667	0.000295425	-0.00574414	5.9758E-05	0.000166778	0	5	0	
0.296833	-0.00136851	-0.000676447	5.13446E-05	0.000145238	0	5	0	
0.297	0.00154873	0.00676274	5.82127E-05	0.000129938	0	5	0	
0.297167	0.00135205	-0.00416823	6.31067E-05	0.000133053	0	5	0	
0.297333	-0.00107619	-0.00401789	6.2891E-05	0.000101788	0	5	0	
0.2975	0.000842141	0.00623054	5.09378E-05	8.80796E-05	0	5	0	
0.297667	0.000585869	-0.00416975	3.32993E-05	0.000102825	0	5	0	
0.297833	-0.00327221	-0.000394388	4.65579E-05	0.00012174	0	5	0	
0.298	0.00220353	0.00222371	5.57505E-05	0.000108147	0	5	0	
0.298167	-0.000585042	0.000241953	6.89813E-05	6.64951E-05	0	5	0	
0.298333	-0.000955845	-0.00193423	7.44563E-05	3.52735E-05	0	5	0	
0.2985	0.00242355	0.00429493	6.82171E-05	3.9124E-05	0	5	0	
0.298667	-0.00200486	-0.0041432	6.64383E-05	5.93684E-05	0	5	0	
0.298833	0.000327453	-0.000187879	4.69225E-05	9.33438E-05	0	5	0	
0.299	0.00142525	0.00675651	5.24884E-05	0.000136619	0	5	0	
0.299167	-0.00685548	-0.00723767	6.62417E-05	0.000164245	0	5	0	
0.299333	0.00460434	0.00477798	9.29464E-05	0.00015473	0	5	0	
0.2995	0.00442346	-0.00248685	0.000134369	0.000118492	0	5	0	
0.299667	-0.00864897	0.00168485	0.000148084	7.50309E-05	0	5	0	
0.299833	0.00337492	0.00603485	0.000160736	0.000109511	0	5	0	
0.3	-0.000857844	-0.0157753	0.000142709	0.000162125	0	5	0	
0.300167	0.000994871	0.0142966	0.000104787	0.000239635	0	5	0	
0.300333	-0.00154113	-0.00277406	7.85397E-05	0.000278921	0	5	0	
0.3005	-0.0023184	-0.00325105	4.43672E-05	0.000290617	0	5	0	
0.300667	0.00102069	0.00392995	6.38661E-05	0.00024124	0	5	0	
0.300833	0.00475329	-0.00584308	8.87388E-05	0.000165118	0	5	0	
0.301	-0.00611538	0.00405456	0.000113561	0.000107699	0	5	0	
0.301167	-0.000614367	0.00119439	0.000101072	0.000126731	0	5	0	
0.301333	0.00333535	-0.00583761	6.8075E-05	0.000164355	0	5	0	
0.3015	-0.00209278	0.00673651	4.47781E-05	0.000160353	0	5	0	
0.301667	-0.00122796	-0.00259042	4.57524E-05	0.000152329	0	5	0	
0.301833	0.0034777	-0.00387556	5.28239E-05	0.000128036	0	5	0	
0.302	0.000972211	0.0032124	5.04455E-05	0.000111566	0	5	0	
0.302167	-0.00282858	-0.00195866	4.10104E-05	9.00922E-05	0	5	0	
0.302333	0.000997158	0.00194986	3.60607E-05	7.72667E-05	0	5	0	
0.3025	0.000108563	-0.00156564	4.04535E-05	7.94915E-05	0	5	0	
0.302667	-9.44054E-05	-9.94209E-06	4.97017E-05	5.55987E-05	0	5	0	
0.302833	-0.000867603	0.000808633	4.90565E-05	3.51941E-05	0	5	0	
0.303	0.00322108	-0.00111522	5.12867E-05	3.00629E-05	0	5	0	
0.303167	-0.001283	0.000154481	4.86539E-05	2.8156E-05	0	5	0	
0.303333	0.000112538	0.000961018	6.01475E-05	4.05578E-05	0	5	0	
0.3035	0.000992104	-0.00294158	6.37603E-05	4.81225E-05	0	5	0	
0.303667	-0.00097271	0.000307111	6.03407E-05	5.98613E-05	0	5	0	
0.303833	-0.00165554	0.000134763	4.2198E-05	4.26068E-05	0	5	0	
0.304	0.00395144	0.0010288	3.87671E-05	2.53645E-05	0	5	0	
0.304167	-0.00381994	-0.000947241	5.37393E-05	1.63629E-05	0	5	0	
0.304333	0.00446808	0.000276299	8.36341E-05	1.98183E-05	0	5	0	
0.3045	0.000178466	-0.00204375	9.56253E-05	2.98169E-05	0	5	0	
0.304667	0.000405944	0.000128213	8.918E-05	3.65449E-05	0	5	0	
0.304833	-0.00218546	-0.000719435	6.67005E-05	4.28838E-05	0	5	0	
0.305	0.00159162	0.00210759	4.53443E-05	5.33207E-05	0	5	0	
0.305167	-0.00175722	-0.00418918	3.65125E-05	6.77932E-05	0	5	0	
0.305333	0.00275613	0.00468039	3.4438E-05	8.26086E-05	0	5	0	
0.3055	-0.000670221	-0.00315357	4.44595E-05	8.69823E-05	0	5	0	
0.305667	-0.000141391	-0.00248253	6.63954E-05	6.88563E-05	0	5	0	
0.305833	0.00184514	0.00485892	6.44359E-05	6.37447E-05	0	5	0	
0.306	-0.000111595	-0.00226517	6.33063E-05	5.6593E-05	0	5	0	
0.306167	-0.0039502	0.00147329	4.72749E-05	7.61839E-05	0	5	0	
0.306333	0.00277199	0.000503279	5.70167E-05	7.77717E-05	0	5	0	
0.3065	-0.00141413	-0.0019124	7.10854E-05	7.94931E-05	0	5	0	
0.306667	-0.00114767	0.00203321	8.30298E-05	6.69997E-05	0	5	0	
0.306833	0.00098636	-0.00152796	7.85701E-05	4.91738E-05	0	5	0	
0.307	-0.000840882	0.00147298	5.62439E-05	4.31976E-05	0	5	0	
0.307167	0.00119539	-0.000960789	3.7068E-05	3.76865E-05	0	5	0	
0.307333	-0.00217523	0.00147297	3.53993E-05	4.37169E-05	0	5	0	
0.3075	-0.000761689	-0.00122637	4.75903E-05	3.37485E-05	0	5	0	
0.307667	0.000419109	-0.00136417	6.79167E-05	2.58698E-05	0	5	0	
0.307833	-0.000538957	0.00305122	8.01871E-05	2.77114E-05	0	5	0	
0.308	-0.00136025	-0.000650994	7.92204E-05	3.01346E-05	0	5	0	
0.308167	0.00221567	0.000160328	7.30827E-05	3.3634E-05	0	5	0	
0.308333	0.000440048	-0.000823788	6.1791E-05	2.94444E-05	0	5	0	
0.3085	-0.00312593	-2.13624E-05	5.11506E-05	3.59384E-05	0	5	0	
0.308667	0.00522523	-0.00151939	6.00803E-05	3.41332E-05	0	5	0	
0.308833	-0.00272625	0.00319401	7.15131E-05	5.76048E-05	0	5	0	
0.309	0.00135512	-0.00315513	8.45724E-05	7.02338E-05	0	5	0	
0.309167	-0.00168637	-0.00127198	8.763E-05	9.37695E-05	0	5	0	
0.309333	0.00182177	0.00747386	9.67594E-05	8.95184E-05	0	5	0	
0.3095	-2.79333E-05	0.00248857	9.63511E-05	0.00012411	0	5	0	
0.309667	-0.000337587	-0.0141236	8.22488E-05	0.000187532	0	5	0	
0.309833	0.00259397	0.0108788	6.95019E-05	0.000222551	0	5	0	
0.31	-0.00189685	-0.00100543	6.83957E-05	0.000256071	0	5	0	
0.310167	-0.000615054	-0.00257586	6.76187E-05	0.000213081	0	5	0	
0.310333	0.00111327	2.07332E-05	6.96227E-05	0.000153222	0	5	0	
0.3105	0.000985673	4.2246E-05	6.70208E-05	6.21811E-05	0	5	0	
0.310667	0.00206619	0.00323908	5.73183E-05	2.2808E-05	0	5	0	
0.310833	-0.00451442	0.00234027	5.25065E-05	6.1698E-05	0	5	0	
0.311	0.00417568	-0.00748188	7.40508E-05	0.000115971	0	5	0	
0.311167	-0.00224026	0.00127841	0.000111772	0.000138389	0	5	0	
0.311333	0.0027692	0.00613959	0.000136396	0.000109144	0	5	0	
0.3115	-0.00108268	-0.00692684	0.000120908	0.000113107	0	5	0	
0.311667	0.00331088	-0.00101125	9.49875E-05	0.000160469	0	5	0	
0.311833	-0.00228041	0.00716225	6.75921E-05	0.000192993	0	5	0	
0.312	0.00249789	-0.00377217	6.50473E-05	0.00016713	0	5	0	
0.312167	-0.00102441	-0.00260638	6.61611E-05	0.000147295	0	5	0	
0.312333	0.00345909	0.00829411	7.14628E-05	0.000153836	0	5	0	
0.3125	-0.00198171	-0.00637701	6.71856E-05	0.000170228	0	5	0	
0.312667	0.000727126	0.00355254	4.82232E-05	0.000140685	0	5	0	
0.312833	0.000658802	-0.00169167	3.58639E-05	0.000109188	0	5	0	
0.313	0.000906048	0.0015034	2.12547E-05	8.45505E-05	0	5	0	
0.313167	-0.00246744	-0.00371494	3.01481E-05	8.03233E-05	0	5	0	
0.313333	0.0019425	0.00564984	3.31101E-05	7.58882E-05	0	5	0	
0.3135	-0.00023984	-0.00335206	4.27239E-05	9.04285E-05	0	5	0	
0.313667	0.0011229	0.000618218	4.92261E-05	0.000122874	0	5	0	
0.313833	-0.000795515	0.00245929	4.85128E-05	0.000162074	0	5	0	
0.314	0.000936534	-0.00441996	4.19569E-05	0.000151459	0	5	0	
0.314167	-0.00244028	0.00208306	3.97533E-05	0.000111286	0	5	0	
0.314333	0.00300055	0.00374432	5.19768E-05	9.71736E-05	0	5	0	
0.3145	-0.00116152	-0.00976884	6.18742E-05	0.000122835	0	5	0	
0.314667	0.00153371	0.0113474	5.47578E-05	0.000168815	0	5	0	
0.314833	-0.000451958	-0.00916619	4.09839E-05	0.000183783	0	5	0	
0.315	0.00386921	0.00161367	3.77011E-05	0.000162922	0	5	0	
0.315167	-0.00612215	0.00443925	5.77185E-05	0.000110285	0	5	0	
0.315333	0.0027799	-0.00341566	9.02225E-05	0.000107173	0	5	0	
0.3155	0.00184631	-0.00407982	0.00010766	0.00017088	0	5	0	
0.315667	-0.000676687	0.00924344	8.79024E-05	0.000252378	0	5	0	
