0	-0.000851233	0.000310546	8.51233E-08	3.10546E-08	0	5	0	
0.000166667	0.00198563	0.0109179	1.48459E-05	0.000102136	0	5	0	
0.000333333	-0.000735767	-0.0137474	5.00156E-05	0.000178222	0	5	0	
0.0005	-0.00338952	0.000659362	0.000100329	0.00027284	0	5	0	
0.000666667	0.00404737	0.0106175	0.000127886	0.000262259	0	5	0	
0.000833333	-0.0024777	-0.00437536	0.000121722	0.000232043	0	5	0	
0.001	0.0024633	-0.00319787	0.000104676	0.000197828	0	5	0	
0.00116667	-0.00317808	-0.00105153	0.000101971	0.000118287	0	5	0	
0.00133333	-0.000175087	0.00477281	9.05518E-05	0.000108905	0	5	0	
0.0015	0.00348516	0.00585626	7.00493E-05	0.000128098	0	5	0	
0.00166667	-0.00410348	-0.00846039	7.76324E-05	0.000158843	0	5	0	
0.00183333	0.000696146	-0.0022203	0.000137638	0.000190064	0	5	0	
0.002	0.00177076	0.00730809	0.000206804	0.000161006	0	5	0	
0.00216667	-0.00299149	-0.00253561	0.00023471	0.000145631	0	5	0	
0.00233333	0.00264236	0.000541052	0.000210307	8.89433E-05	0	5	0	
0.0025	0.00133761	-0.0014459	0.000157534	4.7965E-05	0	5	0	
0.00266667	-0.00264405	-3.96357E-05	0.000127366	3.06099E-05	0	5	0	
0.00283333	8.12246E-05	0.00102067	0.000148713	2.26831E-05	0	5	0	
0.003	-0.000246851	0.00191355	0.000176728	4.17536E-05	0	5	0	
0.00316667	0.00423166	-0.00241559	0.000168071	5.17107E-05	0	5	0	
0.00333333	-0.00420248	-0.00105275	0.000163161	6.81516E-05	0	5	0	
0.0035	-0.00337626	0.00290408	0.000215646	5.20684E-05	0	5	0	
0.00366667	0.00791386	0.000735138	0.000263347	5.73986E-05	0	5	0	
0.00383333	-0.00382393	-0.00261465	0.000234153	5.78859E-05	0	5	0	
0.004	-0.00165399	-0.000215507	0.000135757	5.43146E-05	0	5	0	
0.00416667	0.00224285	-0.0017707	6.85822E-05	5.38127E-05	0	5	0	
0.00433333	-0.00517082	0.010431	6.80622E-05	8.88566E-05	0	5	0	
0.0045	0.00504829	-0.00866956	0.000125382	0.000137417	0	5	0	
0.00466667	-0.000772081	-0.0044514	0.000220438	0.000199528	0	5	0	
0.00483333	-0.0053649	0.00814349	0.000317207	0.000180237	0	5	0	
0.005	0.00797814	0.00046689	0.000354811	0.000194497	0	5	0	
0.00516667	-0.00717561	-0.00470938	0.000304519	0.000155967	0	5	0	
0.00533333	0.003273	0.000697085	0.000219208	0.000134263	0	5	0	
0.0055	-0.00426215	0.00104843	0.000159891	6.59904E-05	0	5	0	
0.00566667	0.0112486	0.000254857	0.000155193	4.28977E-05	0	5	0	
0.00583333	-0.00681312	-0.00258437	0.000159525	5.48219E-05	0	5	0	
0.006	-0.00400293	-0.000345089	0.000152519	7.54319E-05	0	5	0	
0.00616667	0.0116219	-0.000532486	0.000144897	6.91604E-05	0	5	0	
0.00633333	-0.0106063	0.00153785	0.000169073	5.76615E-05	0	5	0	
0.0065	0.00101383	0.00240375	0.000281731	5.10314E-05	0	5	0	
0.00666667	0.0123764	-0.00545131	0.000401888	5.41165E-05	0	5	0	
0.00683333	-0.0139161	-0.000331887	0.000442244	8.71307E-05	0	5	0	
0.007	0.00576742	0.00240177	0.000352077	0.000105736	0	5	0	
0.00716667	-0.000207677	0.00572704	0.000195708	0.000120202	0	5	0	
0.00733333	-0.00236121	-0.00518204	8.54013E-05	0.000101564	0	5	0	
0.0075	0.0040343	-0.00281562	4.90229E-05	0.000122114	0	5	0	
0.00766667	-0.0048563	0.00215647	9.17668E-05	0.000101367	0	5	0	
0.00783333	0.00123748	0.00595807	0.000137452	0.000112666	0	5	0	
0.008	0.00114308	-0.000112112	0.000143961	9.00789E-05	0	5	0	
0.00816667	-0.000831096	-0.00523159	9.73339E-05	0.000100583	0	5	0	
0.00833333	0.000644978	-0.00141937	5.13107E-05	0.00010565	0	5	0	
0.0085	-0.000105491	0.00345102	3.31266E-05	8.72407E-05	0	5	0	
0.00866667	-0.00285611	0.00318478	5.21143E-05	0.000104966	0	5	0	
0.00883333	0.00565049	-0.00296683	9.06513E-05	8.05757E-05	0	5	0	
0.009	-0.00414393	-0.00238366	0.000141915	8.93505E-05	0	5	0	
0.00916667	7.25407E-05	-9.14299E-05	0.000192268	5.39374E-05	0	5	0	
0.00933333	0.00574356	0.00274908	0.00022005	6.24653E-05	0	5	0	
0.0095	-0.00919221	-0.000416293	0.000215245	4.60148E-05	0	5	0	
0.00966667	0.0054056	-0.00268454	0.000188725	5.38817E-05	0	5	0	
0.00983333	-0.000408269	0.0014893	0.000129708	4.01205E-05	0	5	0	
0.01	-0.00272406	0.00162413	7.72151E-05	6.13546E-05	0	5	0	
0.0101667	0.00587074	-0.00163408	5.42696E-05	5.13931E-05	0	5	0	
0.0103333	-0.00617299	-0.00220821	8.88918E-05	5.10701E-05	0	5	0	
0.0105	-0.0011469	0.00185453	0.000141122	3.73126E-05	0	5	0	
0.0106667	0.00457007	0.00136652	0.000177902	5.46805E-05	0	5	0	
0.0108333	-0.00279066	-0.00139657	0.000177768	4.77225E-05	0	5	0	
0.011	0.00342987	-0.00200473	0.000159406	5.5456E-05	0	5	0	
0.0111667	-0.00427655	0.00242596	0.000137546	4.4075E-05	0	5	0	
0.0113333	0.000571751	0.00145944	0.000101674	6.61668E-05	0	5	0	
0.0115	0.0039478	-0.00195941	7.14421E-05	5.70048E-05	0	5	0	
0.0116667	-0.00410421	-0.00191094	6.73269E-05	6.23736E-05	0	5	0	
0.0118333	-0.00134138	0.00273797	0.000131927	4.54214E-05	0	5	0	
0.012	0.00751359	0.00126013	0.000199259	5.32588E-05	0	5	0	
0.0121667	-0.00903032	-0.000906428	0.000234226	4.00843E-05	0	5	0	
0.0123333	0.00553767	-0.00338995	0.000217495	5.65748E-05	0	5	0	
0.0125	-0.00151062	0.00330603	0.000168294	5.35712E-05	0	5	0	
0.0126667	-0.00144186	0.00311779	0.000109824	9.08733E-05	0	5	0	
0.0128333	0.00271114	-0.0050116	7.31516E-05	8.37182E-05	0	5	0	
0.013	-0.0024201	-0.00311693	9.23734E-05	0.000113572	0	5	0	
0.0131667	-0.00145826	0.00525308	0.000171802	9.37358E-05	0	5	0	
0.0133333	0.0069146	0.00369557	0.000255011	0.000122459	0	5	0	
0.0135	-0.00482894	-0.00471737	0.000271325	9.68637E-05	0	5	0	
0.0136667	0.000488792	-0.0049923	0.000189731	0.000131183	0	5	0	
0.0138333	0.00362533	0.00369195	9.34723E-05	0.000105679	0	5	0	
0.014	-0.00183917	0.00566725	6.97637E-05	0.00014982	0	5	0	
0.0141667	0.000912416	-0.00267424	0.000116248	0.000115443	0	5	0	
0.0143333	0.00121307	-0.00582996	0.000164266	0.000141891	0	5	0	
0.0145	-0.00166165	0.00278653	0.000180925	9.91416E-05	0	5	0	
0.0146667	0.00194736	0.00291884	0.000164297	0.000116141	0	5	0	
0.0148333	-0.0011601	-0.00146885	0.000127949	8.06545E-05	0	5	0	
0.015	-0.000497239	-0.00293746	8.78828E-05	8.02901E-05	0	5	0	
0.0151667	-0.000601624	0.00169543	8.22259E-05	5.93551E-05	0	5	0	
0.0153333	0.0036725	0.00156583	0.00012459	6.17704E-05	0	5	0	
0.0155	-0.00596118	0.000100211	0.000170246	5.19506E-05	0	5	0	
0.0156667	0.00228738	-0.00310263	0.000164754	5.20565E-05	0	5	0	
0.0158333	0.00274182	0.000733105	0.000108817	4.67063E-05	0	5	0	
0.016	-0.00309214	0.00153249	8.30165E-05	4.62322E-05	0	5	0	
0.0161667	-0.000848301	0.000661633	0.000123913	3.84586E-05	0	5	0	
0.0163333	0.0050713	-0.00166414	0.000195271	3.55644E-05	0	5	0	
0.0165	-0.00631104	0.00020816	0.000225785	2.86968E-05	0	5	0	
0.0166667	0.00443329	0.000781095	0.000198571	2.07408E-05	0	5	0	
0.0168333	-0.000654998	0.000920544	0.000143145	1.69882E-05	0	5	0	
0.017	-0.0020723	-8.8053E-05	0.000101602	1.80577E-05	0	5	0	
0.0171667	0.00183319	-8.34125E-05	0.000105095	2.01381E-05	0	5	0	
0.0173333	0.0016433	0.000323966	0.000151836	1.39047E-05	0	5	0	
0.0175	-0.00505046	-0.00224262	0.000197207	1.27233E-05	0	5	0	
0.0176667	0.00425402	0.00176516	0.000196472	2.50333E-05	0	5	0	
0.0178333	-0.00192429	0.00118265	0.000151935	4.33859E-05	0	5	0	
0.018	-5.14219E-05	0.000378827	0.000107003	4.01193E-05	0	5	0	
0.0181667	0.000418157	-0.00221824	9.67871E-05	3.67291E-05	0	5	0	
0.0183333	-0.000102083	0.000807522	0.000114034	3.185E-05	0	5	0	
0.0185	-0.000252756	0.00231426	0.000140523	4.84947E-05	0	5	0	
0.0186667	0.00141068	0.00109757	0.000156715	5.28034E-05	0	5	0	
0.0188333	-0.00223764	-0.00428882	0.000158658	6.78912E-05	0	5	0	
0.019	0.00219106	0.00155755	0.000149449	6.77305E-05	0	5	0	
0.0191667	-0.00198075	0.00347286	0.000136379	7.33039E-05	0	5	0	
0.0193333	9.78326E-05	-8.29621E-05	0.000125999	6.32158E-05	0	5	0	
0.0195	0.000229283	-0.00237876	0.000124643	5.61587E-05	0	5	0	
0.0196667	0.00142942	-0.00149605	0.000135722	6.24316E-05	0	5	0	
0.0198333	-0.00188819	0.00265077	0.000144675	5.32798E-05	0	5	0	
0.02	0.000827002	0.00228128	0.000135756	7.58958E-05	0	5	0	
0.0201667	-0.000932517	-0.00314861	0.000119433	6.40409E-05	0	5	0	
0.0203333	0.000364246	-0.00115464	0.000117163	7.67361E-05	0	5	0	
0.0205	0.000480935	0.00141555	0.000118211	4.78263E-05	0	5	0	
0.0206667	-0.000894149	0.00219822	0.000115351	5.2119E-05	0	5	0	
0.0208333	2.72945E-05	-0.00160264	0.000125993	4.1843E-05	0	5	0	
0.021	0.00299208	-0.00273295	0.000160733	5.44388E-05	0	5	0	
0.0211667	-0.00621476	-6.52931E-05	0.000193817	5.16894E-05	0	5	0	
0.0213333	0.0076142	0.00383262	0.000205603	7.16296E-05	0	5	0	
0.0215	-0.00657488	-0.000991289	0.000193048	6.6136E-05	0	5	0	
0.0216667	0.0020243	-0.0034379	0.000161379	6.51394E-05	0	5	0	
0.0218333	0.0016892	-0.00107341	0.000119619	5.79991E-05	0	5	0	
0.022	-0.00228686	0.00327996	0.000110633	6.97935E-05	0	5	0	
0.0221667	0.000517518	0.000554042	0.000143394	7.24315E-05	0	5	0	
0.0223333	0.0033518	-0.00281251	0.000203203	5.7678E-05	0	5	0	
0.0225	-0.00914638	-0.000149153	0.000247871	6.52086E-05	0	5	0	
0.0226667	0.0117213	0.00248568	0.00026069	6.42772E-05	0	5	0	
0.0228333	-0.00675608	-0.000857746	0.000229863	7.3493E-05	0	5	0	
0.023	-0.00330164	-0.00178059	0.000167281	5.27444E-05	0	5	0	
0.0231667	0.00900235	-0.00057199	0.000124103	4.49131E-05	0	5	0	
0.0233333	-0.00654815	0.00215474	0.000138726	3.33063E-05	0	5	0	
0.0235	4.47921E-07	0.000643117	0.000197834	4.07181E-05	0	5	0	
0.0236667	0.00693517	-0.00121033	0.0002528	3.57932E-05	0	5	0	
0.0238333	-0.00984352	-0.00202196	0.000266018	4.0802E-05	0	5	0	
0.024	0.00725373	0.00224251	0.000239638	3.70264E-05	0	5	0	
0.0241667	-0.00261719	-3.71681E-05	0.000180137	4.10898E-05	0	5	0	
0.0243333	-0.00137514	-0.000243189	0.000108402	2.95715E-05	0	5	0	
0.0245	0.00235728	-0.000943269	6.70655E-05	2.31902E-05	0	5	0	
0.0246667	-0.00121452	0.00209128	6.84249E-05	2.39425E-05	0	5	0	
0.0248333	-0.000105245	-0.0029677	8.69661E-05	4.15479E-05	0	5	0	
0.025	-0.00180585	0.00211968	8.23004E-05	4.67291E-05	0	5	0	
0.0251667	0.00250719	0.00130772	7.40016E-05	4.95767E-05	0	5	0	
0.0253333	0.000431631	0.000259242	0.000102284	4.35412E-05	0	5	0	
0.0255	-0.0039538	-0.00370356	0.000147979	5.75557E-05	0	5	0	
0.0256667	0.00161519	0.000630347	0.000151483	5.80703E-05	0	5	0	
0.0258333	0.00098848	0.00408052	0.000107812	6.44495E-05	0	5	0	
0.026	0.00130724	0.00105451	8.59063E-05	7.68916E-05	0	5	0	
0.0261667	-0.0048738	-0.0061025	0.000101195	9.80361E-05	0	5	0	
0.0263333	0.00352282	-0.00215145	0.00011839	0.000118481	0	5	0	
0.0265	-0.000983453	0.00646698	9.98142E-05	0.000100729	0	5	0	
0.0266667	0.00119811	0.00205453	8.71679E-05	0.000129816	0	5	0	
0.0268333	-0.00153146	-0.00521736	8.70294E-05	0.000124858	0	0	0	
0.027	-0.000584319	-0.00228968	9.03317E-05	0.000143794	0	0	0	
0.0271667	-2.67148E-05	0.00211014	0.000107186	9.5618E-05	0	0	0	
0.0273333	0.00434763	0.00313409	0.000153059	9.0953E-05	0	0	0	
0.0275	-0.00653278	-0.0018509	0.000194395	6.69624E-05	0	0	0	
0.0276667	0.00261324	-0.0052389	0.000183057	9.53318E-05	0	0	0	
0.0278333	0.0008541	0.00338187	0.000123492	8.89117E-05	0	0	0	
0.028	-0.000901937	0.00399239	9.80314E-05	0.000113508	0	0	0	
0.0281667	-0.00119604	-0.00411376	0.000115705	9.12374E-05	0	0	0	
0.0283333	0.00199447	-0.00102557	0.000141112	9.99135E-05	0	0	0	
0.0285	-0.000864159	0.000638689	0.000137176	6.299E-05	0	0	0	
0.0286667	0.000715409	0.00193296	0.000119774	5.42872E-05	0	0	0	
0.0288333	-0.000433016	0.00120755	0.0001131	4.26153E-05	0	0	0	
0.029	-0.000248267	-0.00285677	0.000118549	4.98373E-05	0	0	0	
0.0291667	-0.00126546	-0.00110536	0.000132744	6.7188E-05	0	0	0	
0.0293333	0.00278227	0.00290998	0.000140897	6.1307E-05	0	0	0	
0.0295	-0.00185278	0.00105127	0.000132338	7.33884E-05	0	0	0	
0.0296667	0.00187715	-0.00229273	0.000115736	5.17181E-05	0	0	0	
0.0298333	-0.00243501	-0.000655483	0.000114238	5.4249E-05	0	0	0	
0.03	0.0012115	0.000840505	0.000116558	3.39E-05	0	0	0	
0.0301667	0.00073486	0.00192843	0.000111289	3.4416E-05	0	0	0	
0.0303333	0.000267993	-0.000734392	0.000115503	2.57755E-05	0	0	0	
0.0305	-0.00320708	-0.00139406	0.00013761	3.12238E-05	0	0	0	
0.0306667	0.00347681	0.00119702	0.00015249	2.84151E-05	0	0	0	
0.0308333	-0.000373146	0.00133729	0.000138207	2.43175E-05	0	0	0	
0.031	0.000436164	-0.000278328	0.00011913	2.08118E-05	0	0	0	
0.0311667	-0.00204579	6.25802E-05	0.00012269	2.30996E-05	0	0	0	
0.0313333	0.00164931	-0.000523245	0.000128148	2.25733E-05	0	0	0	
0.0315	-0.000445498	-0.000382605	0.000120389	2.29389E-05	0	0	0	
0.0316667	0.00013858	0.00134815	0.000113931	2.26889E-05	0	0	0	
0.0318333	-0.000388384	3.75072E-05	0.0001186	2.57007E-05	0	0	0	
0.032	2.24939E-05	-0.00182958	0.000119525	2.64851E-05	0	0	0	
0.0321667	-0.000303639	-0.000166071	0.000121371	2.63983E-05	0	0	0	
0.0323333	0.00158295	0.000964341	0.000143702	2.05736E-05	0	0	0	
0.0325	-0.00346378	0.00118982	0.000174282	2.67117E-05	0	0	0	
0.0326667	0.00289869	-0.00171671	0.000177755	2.48261E-05	0	0	0	
0.0328333	-0.00111783	-0.000784024	0.000146646	3.52313E-05	0	0	0	
0.033	0.0010698	0.00107709	0.000113191	2.81929E-05	0	0	0	
0.0331667	-0.000842852	0.00199627	9.91545E-05	3.59972E-05	0	0	0	
0.0333333	-0.000654601	-0.00173938	0.000102779	3.42547E-05	0	0	0	
0.0335	0.000775768	-0.00125608	0.00011966	4.80611E-05	0	0	0	
0.0336667	0.000397167	0.00131728	0.000142129	3.78811E-05	0	0	0	
0.0338333	-0.00164995	0.000150057	0.000158547	4.38614E-05	0	0	0	
0.034	0.00131882	0.000582906	0.00015856	2.63031E-05	0	0	0	
0.0341667	-0.00243187	-0.00190506	0.00014288	3.08981E-05	0	0	0	
0.0343333	0.0029346	-0.000605605	0.00012602	2.87062E-05	0	0	0	
0.0345	-0.00138914	0.00319059	0.000113592	4.36035E-05	0	0	0	
0.0346667	-0.000597734	-0.00145575	0.000104527	4.91904E-05	0	0	0	
0.0348333	0.000794985	-0.00110872	0.000105527	5.57942E-05	0	0	0	
0.035	0.000616156	0.000551979	0.000117892	4.37291E-05	0	0	0	
0.0351667	-0.00205033	0.00140365	0.000130137	3.26952E-05	0	0	0	
0.0353333	0.00193828	-0.000650522	0.00012735	1.74638E-05	0	0	0	
0.0355	-0.00164412	-0.000240723	0.000113273	1.61543E-05	0	0	0	
0.0356667	0.00074086	-4.93817E-05	0.000103497	1.67368E-05	0	0	0	
0.0358333	-0.000678392	0.00107894	9.91561E-05	2.30268E-05	0	0	0	
0.036	-0.000143118	-0.000206196	9.76142E-05	2.36291E-05	0	0	0	
0.0361667	-0.000838455	-0.001313	0.000100296	2.18003E-05	0	0	0	
0.0363333	0.00181531	0.00106723	0.00011074	2.14305E-05	0	0	0	
0.0365	-0.00182121	0.00158636	0.000116919	2.91375E-05	0	0	0	
0.0366667	0.00214626	-0.000815687	0.000114491	3.25763E-05	0	0	0	
0.0368333	-0.00159347	-0.000994314	0.000110706	4.49603E-05	0	0	0	
0.037	0.00129953	0.00274916	0.000107899	4.65762E-05	0	0	0	
0.0371667	-0.000658794	-0.00101391	0.00010283	5.21742E-05	0	0	0	
0.0373333	0.00112564	-0.000181533	9.965E-05	3.90837E-05	0	0	0	
0.0375	-0.00113603	0.000537885	0.000108182	2.9625E-05	0	0	0	
0.0376667	0.00178978	0.000503169	0.000116867	2.91561E-05	0	0	0	
0.0378333	-0.000388018	0.000150251	0.000112866	2.22261E-05	0	0	0	
0.038	0.000163402	-0.0017914	0.000100032	2.38183E-05	0	0	0	
0.0381667	-0.00107787	0.00113881	0.000103264	2.03724E-05	0	0	0	
0.0383333	0.00310744	0.0017185	0.000119878	4.15025E-05	0	0	0	
0.0385	-0.00305922	-0.00357001	0.000126162	4.99748E-05	0	0	0	
0.0386667	0.000122497	-0.00187439	0.000108321	7.17798E-05	0	0	0	
0.0388333	0.000567573	0.00233646	9.71659E-05	5.75916E-05	0	0	0	
0.039	0.00333624	0.00391141	0.000119977	8.54904E-05	0	0	0	
0.0391667	-0.00505313	-0.00367533	0.000147569	7.35462E-05	0	0	0	
0.0393333	0.0024713	-0.00580166	0.000141388	0.000117051	0	0	0	
0.0395	0.000310124	0.00380169	9.6728E-05	0.000100943	0	0	0	
0.0396667	-0.00123497	0.00698326	7.46932E-05	0.000150701	0	0	0	
0.0398333	0.000935093	-0.004946	9.55046E-05	0.000126852	0	0	0	
0.04	0.00143099	-0.0046312	0.000141548	0.000153949	0	0	0	
0.0401667	-0.00313011	0.00199554	0.000171026	0.000107837	0	0	0	
0.0403333	0.00381351	0.00447928	0.00016887	0.000124313	0	0	0	
0.0405	-0.00312325	-0.00131051	0.000139047	8.94653E-05	0	0	0	
0.0406667	-0.000279362	-0.00365099	9.70135E-05	0.000102555	0	0	0	
0.0408333	0.00292514	0.000811323	7.83712E-05	7.81106E-05	0	0	0	
0.041	0.00047949	0.00443967	0.000110857	9.64718E-05	0	0	0	
0.0411667	-0.00451612	-0.00168753	0.000164264	8.16807E-05	0	0	0	
0.0413333	0.00391431	-0.00374881	0.000181816	8.99833E-05	0	0	0	
0.0415	-0.00235293	0.000820492	0.000148083	7.56652E-05	0	0	0	
0.0416667	0.00153604	0.00392208	0.000106089	8.7123E-05	0	0	0	
0.0418333	-0.000330017	-0.000895638	8.25885E-05	7.277E-05	0	0	0	
0.042	-0.000404833	-0.00266449	8.23374E-05	5.93094E-05	0	0	0	
0.0421667	1.81695E-05	-0.00034491	0.000101197	5.27181E-05	0	0	0	
0.0423333	0.000853989	0.00259426	0.000132245	4.75984E-05	0	0	0	
0.0425	-0.00259889	0.00100196	0.000157596	5.66959E-05	0	0	0	
0.0426667	0.00446318	-0.00146901	0.00016443	3.81176E-05	0	0	0	
0.0428333	-0.00560362	-0.00129637	0.000157973	4.45462E-05	0	0	0	
0.043	0.00400233	0.000655622	0.000140317	3.04707E-05	0	0	0	
0.0431667	0.00134411	0.00275871	0.00010793	4.00777E-05	0	0	0	
0.0433333	-0.00274605	-0.00140538	9.54379E-05	3.6133E-05	0	0	0	
0.0435	-0.000735707	-0.00196065	0.000126863	5.19727E-05	0	0	0	
0.0436667	0.00459554	0.00160844	0.000182634	4.5942E-05	0	0	0	
0.0438333	-0.00518846	0.00073715	0.000210942	4.2997E-05	0	0	0	
0.044	0.00486608	-0.000782645	0.000191274	2.94332E-05	0	0	0	
0.0441667	-0.00228369	-0.000906593	0.000147958	3.60447E-05	0	0	0	
0.0443333	-0.00167831	0.00062177	9.86183E-05	2.92824E-05	0	0	0	
0.0445	0.00405687	0.00141338	7.91447E-05	3.68627E-05	0	0	0	
0.0446667	-0.00223344	-0.00149016	0.000104615	3.05553E-05	0	0	0	
0.0448333	-0.00164903	0.000284309	0.00017144	3.09847E-05	0	0	0	
0.045	0.00482229	0.000654077	0.000209494	1.85877E-05	0	0	0	
0.0451667	-0.00397711	0.00114605	0.000197686	1.28831E-05	0	0	0	
0.0453333	0.00228481	-0.00062479	0.000148171	1.82676E-05	0	0	0	
0.0455	-0.00132631	-0.00046908	0.000108787	2.5476E-05	0	0	0	
0.0456667	0.0014384	0.00219636	8.90711E-05	2.95521E-05	0	0	0	
0.0458333	0.000154064	-0.00109306	9.01928E-05	3.42252E-05	0	0	0	
0.046	0.000277897	0.000384474	0.000109636	3.2086E-05	0	0	0	
0.0461667	-0.00241871	-0.000206782	0.000138002	3.43826E-05	0	0	0	
0.0463333	0.00204205	0.000591625	0.000152456	2.69552E-05	0	0	0	
0.0465	-0.00112049	-8.76835E-06	0.000142294	2.18646E-05	0	0	0	
0.0466667	-0.000174262	-0.00158886	0.000123214	1.63379E-05	0	0	0	
0.0468333	0.000379648	0.00075549	0.000120458	1.77832E-05	0	0	0	
0.047	0.000305941	0.00158046	0.000143693	3.10144E-05	0	0	0	
0.0471667	-0.00353434	-0.0011107	0.000169641	4.13361E-05	0	0	0	
0.0473333	0.00389005	-0.000973444	0.000170506	3.74044E-05	0	0	0	
0.0475	-0.00257996	0.00100138	0.000139051	2.89087E-05	0	0	0	
0.0476667	-0.000340617	-0.000579975	9.70549E-05	1.87055E-05	0	0	0	
0.0478333	0.00130102	0.000905044	7.60075E-05	1.94393E-05	0	0	0	
0.048	-0.000611483	-0.000293338	8.65195E-05	1.45793E-05	0	0	0	
0.0481667	-0.000954913	0.000276921	0.000122703	1.85045E-05	0	0	0	
0.0483333	0.00366626	0.000586002	0.000162718	2.28902E-05	0	0	0	
0.0485	-0.00639933	-0.000283932	0.000186127	2.23543E-05	0	0	0	
0.0486667	0.00572364	-0.00160688	0.000183678	1.96188E-05	0	0	0	
0.0488333	-0.00291046	0.00139858	0.000153374	1.88843E-05	0	0	0	
0.049	0.000622152	-0.000639196	0.00011178	2.45432E-05	0	0	0	
0.0491667	0.000560799	1.12451E-07	9.15373E-05	2.15028E-05	0	0	0	
0.0493333	0.000110832	0.000804699	0.000110171	1.74688E-05	0	0	0	
0.0495	-0.00228071	-0.000696267	0.000152185	1.47063E-05	0	0	0	
0.0496667	0.00497326	0.000351645	0.000185604	1.30057E-05	0	0	0	
0.0498333	-0.00526808	7.21639E-05	0.000190005	1.15832E-05	0	0	0	
0.05	0.00314123	-0.000255855	0.000161922	7.69942E-06	0	0	0	
0.0501667	-9.1969E-05	0.000443354	0.000118659	8.59584E-06	0	0	0	
0.0503333	-0.000736552	-1.22202E-05	9.86158E-05	8.56822E-06	0	0	0	
0.0505	-0.0016932	0.000371511	0.00011933	1.05667E-05	0	0	0	
0.0506667	0.00362414	0.000553912	0.000153979	1.10545E-05	0	0	0	
0.0508333	-0.00375663	-0.000277904	0.000163374	1.35409E-05	0	0	0	
0.051	0.00303419	0.000169881	0.00014065	1.48779E-05	0	0	0	
0.0511667	-0.000364995	-0.000144382	0.000109392	1.9625E-05	0	0	0	
0.0513333	-0.00137664	-0.00150226	9.06734E-05	3.02014E-05	0	0	0	
0.0515	0.000318179	0.00216307	9.60212E-05	3.75458E-05	0	0	0	
0.0516667	0.00155833	0.000976994	0.000122181	4.36004E-05	0	0	0	
0.0518333	-0.00311942	-0.00151753	0.000148426	3.88217E-05	0	0	0	
0.052	0.00360707	0.000413193	0.000155035	3.99258E-05	0	0	0	
0.0521667	-0.00241356	0.0011323	0.000147265	4.17066E-05	0	0	0	
0.0523333	0.00374957	0.00113285	0.0001341	3.93614E-05	0	0	0	
0.0525	-0.00250326	-0.00258378	0.000112902	4.42576E-05	0	0	0	
0.0526667	-0.0028148	-0.000166622	7.96182E-05	5.07391E-05	0	0	0	
0.0528333	0.00329825	0.00465313	8.29217E-05	6.46169E-05	0	0	0	
0.053	0.00282715	0.00138012	0.000147392	8.09189E-05	0	0	0	
0.0531667	-0.00728513	-0.00622817	0.000218468	8.64585E-05	0	0	0	
0.0533333	0.00734547	-0.00117015	0.000229677	0.00011029	0	0	0	
0.0535	-0.00457363	0.00551262	0.000178361	0.000101688	0	0	0	
0.0536667	0.000285866	0.00267623	0.000111847	0.000129908	0	0	0	
0.0538333	0.00283108	-0.0058331	7.25274E-05	0.000112909	0	0	0	
0.054	-0.00170755	-0.00199838	8.55091E-05	0.000131903	0	0	0	
0.0541667	-0.00319012	0.00429027	0.0001544	9.40958E-05	0	0	0	
0.0543333	0.0081944	0.00318502	0.000221394	0.000111152	0	0	0	
0.0545	-0.00726259	-0.00490199	0.000231286	9.47176E-05	0	0	0	
0.0546667	0.00225708	-0.00141465	0.000173033	0.000108115	0	0	0	
0.0548333	0.00233007	0.00410697	0.00010077	7.62391E-05	0	0	0	
0.055	-0.00132325	0.00129208	8.22727E-05	8.56187E-05	0	0	0	
0.0551667	-0.00301241	-0.00257176	0.000124977	7.03103E-05	0	0	0	
0.0553333	0.00541848	-0.00184765	0.000177746	8.67679E-05	0	0	0	
0.0555	-0.00473306	0.00347067	0.000179649	6.41418E-05	0	0	0	
0.0556667	0.000841443	0.000615038	0.000132052	8.18235E-05	0	0	0	
0.0558333	0.0035064	-0.00203055	9.06153E-05	6.16019E-05	0	0	0	
0.056	-0.00077457	-0.00306668	0.000100509	6.95628E-05	0	0	0	
0.0561667	-0.00415565	0.00306885	0.00015081	5.42046E-05	0	0	0	
0.0563333	0.00470536	0.00207048	0.0001815	7.28358E-05	0	0	0	
0.0565	-0.00192941	-0.00337039	0.000156417	6.88135E-05	0	0	0	
0.0566667	-0.0010351	-0.00063508	0.000101891	6.17977E-05	0	0	0	
0.0568333	0.00256372	0.00221611	8.30706E-05	4.11838E-05	0	0	0	
0.057	-0.00166252	-0.000143	9.93686E-05	3.75332E-05	0	0	0	
0.0571667	0.00063722	-0.000235964	0.000130804	3.20741E-05	0	0	0	
0.0573333	0.000404136	-0.00083593	0.000152521	2.96532E-05	0	0	0	
0.0575	-0.00357028	0.00157997	0.000168172	2.00101E-05	0	0	0	
0.0576667	0.00495942	-0.000653026	0.000171195	2.95871E-05	0	0	0	
0.0578333	-0.00343377	1.74462E-05	0.00014544	2.89092E-05	0	0	0	
0.058	-0.000405566	-0.0014314	9.47934E-05	3.40801E-05	0	0	0	
0.0581667	0.00445821	0.00178612	6.55397E-05	2.70182E-05	0	0	0	
0.0583333	-0.00218912	-0.00017823	9.09829E-05	3.33278E-05	0	0	0	
0.0585	-0.00232657	-0.00140739	0.000160025	2.90637E-05	0	0	0	
0.0586667	0.00540882	-0.000942044	0.000210801	3.18654E-05	0	0	0	
0.0588333	-0.005922	-0.000449809	0.000215376	2.68022E-05	0	0	0	
0.059	0.00487437	0.00309934	0.000179961	3.14259E-05	0	0	0	
0.0591667	-0.00167889	-0.000698507	0.00013538	3.7263E-05	0	0	0	
0.0593333	-0.000621095	-0.00272381	9.82786E-05	4.66885E-05	0	0	0	
0.0595	0.001383	0.000317721	0.000103499	5.67948E-05	0	0	0	
0.0596667	0.00151421	0.00327034	0.000149545	6.33672E-05	0	0	0	
0.0598333	-0.00423877	-0.000835104	0.000205024	6.23656E-05	0	0	0	
0.06	0.00530173	-0.00102063	0.000213816	5.9903E-05	0	0	0	
0.0601667	-0.00300818	-0.000748475	0.000169729	4.90193E-05	0	0	0	
0.0603333	0.0014803	0.00150596	0.00010953	4.54815E-05	0	0	0	
0.0605	-0.00102024	0.000966814	8.35264E-05	4.07957E-05	0	0	0	
0.0606667	0.000568611	-0.0031783	0.000100249	4.17601E-05	0	0	0	
0.0608333	-0.000381788	0.00100575	0.00013001	4.82003E-05	0	0	0	
0.061	0.000723135	0.00206453	0.000141386	4.99024E-05	0	0	0	
0.0611667	-0.00173872	-0.000215637	0.000127252	5.05565E-05	0	0	0	
0.0613333	0.00279507	-0.00254723	0.000100938	4.73556E-05	0	0	0	
0.0615	0.000241221	0.000451412	7.39631E-05	4.54056E-05	0	0	0	
0.0616667	-0.00295873	0.00184126	6.2967E-05	4.17269E-05	0	0	0	
0.0618333	0.00117053	0.000543222	8.79895E-05	4.07127E-05	0	0	0	
0.062	0.00365489	-0.00283519	0.000138105	4.4632E-05	0	0	0	
0.0621667	-0.00874683	0.00156799	0.000176249	4.51801E-05	0	0	0	
0.0623333	0.0100855	0.00106322	0.000189916	3.9018E-05	0	0	0	
0.0625	-0.00621484	-9.88132E-05	0.000172129	2.83974E-05	0	0	0	
0.0626667	-0.000683458	-0.000565396	0.000157175	2.52938E-05	0	0	0	
0.0628333	0.00394793	-0.000689799	0.000111135	2.67183E-05	0	0	0	
0.063	-0.00227824	0.00158019	0.000120087	3.16121E-05	0	0	0	
0.0631667	-0.00368326	0.000957598	0.000169826	3.97295E-05	0	0	0	
0.0633333	0.00841536	-0.00237147	0.000250064	4.98458E-05	0	0	0	
0.0635	-0.00977656	0.000180278	0.000270911	4.90232E-05	0	0	0	
0.0636667	0.00678555	0.00195163	0.000231714	4.6212E-05	0	0	0	
0.0638333	-0.00042656	0.000503709	0.00016036	3.41174E-05	0	0	0	
0.064	-0.0027198	-0.00148003	0.000110974	3.268E-05	0	0	0	
0.0641667	0.000992849	0.000642635	0.000126047	2.93496E-05	0	0	0	
0.0643333	0.00428436	0.00151749	0.000188671	3.03195E-05	0	0	0	
0.0645	-0.00527832	8.47693E-05	0.000225036	3.15988E-05	0	0	0	
0.0646667	0.00382615	-0.00260186	0.000192432	3.73359E-05	0	0	0	
0.0648333	-0.000197256	0.000601501	0.000130803	3.8694E-05	0	0	0	
0.065	-0.000795689	0.00269691	9.23005E-05	4.90054E-05	0	0	0	
0.0651667	0.00194839	-0.00088847	9.72825E-05	4.5181E-05	0	0	0	
0.0653333	0.000721554	-0.00271704	0.000133773	6.12712E-05	0	0	0	
0.0655	-0.00278062	0.00206882	0.000180049	5.34956E-05	0	0	0	
0.0656667	0.00481587	0.001277	0.000200832	5.75067E-05	0	0	0	
0.0658333	-0.00459323	-0.000855056	0.00018643	3.97993E-05	0	0	0	
0.066	0.00249449	-0.00180966	0.000144109	4.66446E-05	0	0	0	
0.0661667	-0.00100805	0.000753755	0.000102502	3.70247E-05	0	0	0	
0.0663333	0.00187333	0.00196906	9.03067E-05	4.62079E-05	0	0	0	
0.0665	-0.00229161	-0.00267399	0.000104137	4.34893E-05	0	0	0	
0.0666667	0.00162363	0.000864942	0.000118709	4.5907E-05	0	0	0	
0.0668333	-0.000713133	0.00187738	0.000124588	4.61232E-05	0	0	0	
0.067	0.00379473	-0.00109534	0.000143844	3.88658E-05	0	0	0	
0.0671667	-0.00743256	-0.00162508	0.000169964	4.57399E-05	0	0	0	
0.0673333	0.00342648	0.00182885	0.000166372	3.83407E-05	0	0	0	
0.0675	0.0038858	0.00283684	0.000116938	4.50684E-05	0	0	0	
0.0676667	-0.00182496	-0.00240886	0.000106583	4.71696E-05	0	0	0	
0.0678333	-0.00420554	-0.00395456	0.000157017	7.58576E-05	0	0	0	
0.068	0.00552859	0.0025475	0.000209935	7.76294E-05	0	0	0	
0.0681667	-0.00507874	0.00440973	0.000207912	0.000102304	0	0	0	
0.0683333	0.00513723	-0.0017551	0.000163349	8.52916E-05	0	0	0	
0.0685	-0.00102408	-0.00422536	0.000114436	0.000111628	0	0	0	
0.0686667	-0.00499877	0.00102958	7.63505E-05	8.44508E-05	0	0	0	
0.0688333	0.00543317	0.00424279	7.56147E-05	8.63165E-05	0	0	0	
0.069	-4.04855E-05	-6.23599E-05	0.000140947	6.37196E-05	0	0	0	
0.0691667	-0.00604053	-0.00288753	0.000214655	7.34573E-05	0	0	0	
0.0693333	0.00745166	-0.000361961	0.000231533	6.02076E-05	0	0	0	
0.0695	-0.00308241	0.00359584	0.000181744	5.1494E-05	0	0	0	
0.0696667	-0.00112605	-5.43243E-05	0.000103981	4.75559E-05	0	0	0	
0.0698333	0.000634762	-0.00144765	7.29177E-05	5.30647E-05	0	0	0	
0.07	0.00157947	-0.000383052	8.79755E-05	5.75179E-05	0	0	0	
0.0701667	-0.0042726	0.00218022	0.00012577	4.75118E-05	0	0	0	
0.0703333	0.00436757	0.0010727	0.00014157	4.79059E-05	0	0	0	
0.0705	-0.0018076	-0.00271974	0.000123815	4.06806E-05	0	0	0	
0.0706667	-0.000226765	-8.76169E-05	0.000101073	5.36081E-05	0	0	0	
0.0708333	0.000322141	0.00094553	9.65065E-05	4.72202E-05	0	0	0	
0.071	0.00145983	0.00104951	0.00011933	5.53511E-05	0	0	0	
0.0711667	-0.00479541	-0.00255849	0.00016055	4.87E-05	0	0	0	
0.0713333	0.0068763	0.000912904	0.000188104	4.78659E-05	0	0	0	
0.0715	-0.00457208	0.000221768	0.000175531	3.42874E-05	0	0	0	
0.0716667	0.000427599	0.000517259	0.000124944	2.27613E-05	0	0	0	
0.0718333	0.00259471	-0.00212509	7.21849E-05	2.92368E-05	0	0	0	
0.072	-0.00294122	0.00113174	6.86353E-05	3.53397E-05	0	0	0	
0.0721667	0.00198875	0.00156517	0.000108087	3.61451E-05	0	0	0	
0.0723333	5.7193E-05	-0.00123832	0.000163297	3.6736E-05	0	0	0	
0.0725	-0.00446816	-0.00114059	0.000198377	4.88343E-05	0	0	0	
0.0726667	0.00737619	0.000791901	0.000205696	4.83245E-05	0	0	0	
0.0728333	-0.00600582	0.00206096	0.000181884	4.94113E-05	0	0	0	
0.073	0.00258385	-0.00127435	0.000135167	3.69109E-05	0	0	0	
0.0731667	0.00230028	-0.0020352	8.20478E-05	5.23904E-05	0	0	0	
0.0733333	-0.00486692	0.00126937	6.33994E-05	4.45271E-05	0	0	0	
0.0735	0.00279837	0.00184437	8.87802E-05	4.89799E-05	0	0	0	
0.0736667	0.00197441	-0.000859918	0.000152861	3.52655E-05	0	0	0	
0.0738333	-0.00510092	-0.00296146	0.000195485	4.76545E-05	0	0	0	
0.074	0.00601326	0.00195808	0.000201722	4.64119E-05	0	0	0	
0.0741667	-0.00443798	0.00164547	0.000176333	5.73894E-05	0	0	0	
0.0743333	0.0015705	-0.000433425	0.000137189	4.26955E-05	0	0	0	
0.0745	0.000242295	-0.00123337	9.72338E-05	3.98208E-05	0	0	0	
0.0746667	-0.000464494	-0.000456218	8.30003E-05	2.82177E-05	0	0	0	
0.0748333	-0.00138701	0.00175116	0.000104015	2.72904E-05	0	0	0	
0.075	0.0030001	-0.000230651	0.000137595	3.37441E-05	0	0	0	
0.0751667	-0.00210922	-0.00117353	0.000147647	4.19358E-05	0	0	0	
0.0753333	0.00169037	0.000137833	0.000129926	3.8437E-05	0	0	0	
0.0755	-0.0010816	0.000575564	0.000110566	2.83426E-05	0	0	0	
0.0756667	0.00242126	0.000624839	0.000105504	1.87102E-05	0	0	0	
0.0758333	-0.00230289	-0.000595949	0.000113964	2.22085E-05	0	0	0	
0.076	0.00275206	-0.00146647	0.000116004	2.23098E-05	0	0	0	
0.0761667	-0.00169301	0.00209939	0.000112146	2.87055E-05	0	0	0	
0.0763333	0.00146052	0.000761033	0.00010679	3.24279E-05	0	0	0	
0.0765	-0.00121842	-0.00160788	0.000111553	3.11572E-05	0	0	0	
0.0766667	0.00224119	0.000148089	0.000118223	2.44327E-05	0	0	0	
0.0768333	-0.00345808	-0.00042022	0.000127916	1.83576E-05	0	0	0	
0.077	0.0046793	0.00026552	0.000133186	1.62442E-05	0	0	0	
0.0771667	-0.00430993	0.00110717	0.000130037	1.45085E-05	0	0	0	
0.0773333	0.00181085	-0.000444629	0.000114606	1.58149E-05	0	0	0	
0.0775	-0.000320303	-0.000737899	0.000101576	2.14786E-05	0	0	0	
0.0776667	0.000438179	0.000142871	0.00010629	1.93643E-05	0	0	0	
0.0778333	-0.00203104	0.000300468	0.000121881	1.59628E-05	0	0	0	
0.078	0.00402414	9.59106E-05	0.000136041	1.22361E-05	0	0	0	
0.0781667	-0.00532895	-0.000897068	0.000138095	1.72968E-05	0	0	0	
0.0783333	0.0041626	-0.000394266	0.000129395	2.03827E-05	0	0	0	
0.0785	-0.00174714	0.00253661	0.000107672	2.30591E-05	0	0	0	
0.0786667	9.41594E-05	-0.000401877	8.95449E-05	3.05554E-05	0	0	0	
0.0788333	-0.0015563	-0.000994628	9.53764E-05	3.85898E-05	0	0	0	
0.079	0.00445386	-0.000736763	0.000120401	3.76492E-05	0	0	0	
0.0791667	-0.00522432	0.00128373	0.000143825	2.69662E-05	0	0	0	
0.0793333	0.00493275	0.000933828	0.000144958	3.08975E-05	0	0	0	
0.0795	-0.00278679	-0.00102418	0.000135425	2.73819E-05	0	0	0	
0.0796667	0.00193907	-0.00186031	0.000124794	4.93342E-05	0	0	0	
0.0798333	-0.0022169	0.0028085	0.000127879	4.71032E-05	0	0	0	
0.08	0.00352941	-0.000496961	0.000138153	5.64218E-05	0	0	0	
0.0801667	-0.00305235	-0.000981182	0.000148554	3.51746E-05	0	0	0	
0.0803333	0.00275442	0.000163119	0.000146316	2.93795E-05	0	0	0	
0.0805	-0.00239274	0.000497435	0.000137002	2.66147E-05	0	0	0	
0.0806667	0.00162618	0.000637513	0.000124584	2.92754E-05	0	0	0	
0.0808333	-0.00289386	-0.00142869	0.000123324	2.88387E-05	0	0	0	
0.081	0.00366821	0.00112785	0.000127658	2.60448E-05	0	0	0	
0.0811667	-0.000981587	6.38235E-05	0.000120192	2.30619E-05	0	0	0	
0.0813333	-0.000808023	-0.00145205	0.000108699	1.81687E-05	0	0	0	
0.0815	-0.00381943	-0.00136689	0.000129643	2.65303E-05	0	0	0	
0.0816667	0.00553485	0.00282794	0.000157779	3.48286E-05	0	0	0	
0.0818333	-0.000682944	0.00119163	0.000145783	5.18793E-05	0	0	0	
0.082	-0.00209429	-0.00317688	9.86954E-05	4.66814E-05	0	0	0	
0.0821667	-0.00129629	-0.00284029	0.000106638	7.0536E-05	0	0	0	
0.0823333	0.00436504	0.00259252	0.000155606	6.48488E-05	0	0	0	
0.0825	-0.0040517	0.0047278	0.000182913	9.2901E-05	0	0	0	
0.0826667	0.00360441	-0.00408981	0.000155748	8.17494E-05	0	0	0	
0.0828333	-0.00322523	-0.00265832	0.000119769	0.00010381	0	0	0	
0.083	0.000849182	0.000701994	9.21765E-05	7.40296E-05	0	0	0	
0.0831667	0.00182064	0.00395342	6.78618E-05	7.49974E-05	0	0	0	
0.0833333	-0.00105153	-0.00120543	7.35973E-05	5.40688E-05	0	0	0	
0.0835	-0.0019458	-0.00229857	0.000113556	7.23581E-05	0	0	0	
0.0836667	0.00474715	0.0011695	0.000153046	5.79316E-05	0	0	0	
0.0838333	-0.00454149	0.00241504	0.000154572	7.09887E-05	0	0	0	
0.084	0.000949046	-0.00134067	0.000119947	5.09476E-05	0	0	0	
0.0841667	-0.000436925	-0.00104062	8.3542E-05	6.27829E-05	0	0	0	
0.0843333	0.00269216	0.0002295	8.12576E-05	4.14921E-05	0	0	0	
0.0845	-0.0038813	0.00210869	0.000104485	4.92502E-05	0	0	0	
0.0846667	0.00303631	0.000654795	0.000123391	4.74802E-05	0	0	0	
0.0848333	-0.00221357	-0.00331413	0.000115628	6.32267E-05	0	0	0	
0.085	0.00143955	0.00109391	0.00010992	6.54606E-05	0	0	0	
0.0851667	-0.00312139	0.00224015	0.000123447	5.81048E-05	0	0	0	
0.0853333	0.00540516	-0.000229617	0.000141803	4.35826E-05	0	0	0	
0.0855	-0.00418843	-0.000213858	0.000143045	2.76067E-05	0	0	0	
0.0856667	0.00140139	-0.00220865	0.000119784	2.08698E-05	0	0	0	
0.0858333	0.00122489	0.000454788	9.61536E-05	2.22754E-05	0	0	0	
0.086	2.29841E-05	0.0019696	9.72247E-05	3.43801E-05	0	0	0	
0.0861667	-0.00244767	-0.000954997	0.000119835	3.58593E-05	0	0	0	
0.0863333	0.00466492	-0.00143726	0.000133066	4.17929E-05	0	0	0	
0.0865	-0.00337782	0.00142632	0.000126058	3.57292E-05	0	0	0	
0.0866667	0.00239899	-0.000194694	0.000108687	3.36339E-05	0	0	0	
0.0868333	-0.00133797	-0.000884464	0.000102229	1.83992E-05	0	0	0	
0.087	0.000749669	0.000303963	9.55357E-05	1.64145E-05	0	0	0	
0.0871667	-0.00194221	-0.00117421	0.000104563	1.2803E-05	0	0	0	
0.0873333	0.00548562	0.00154733	0.000130843	1.86875E-05	0	0	0	
0.0875	-0.00641708	1.85936E-05	0.000157237	2.8799E-05	0	0	0	
0.0876667	0.00414244	-0.00229468	0.00015209	3.74545E-05	0	0	0	
0.0878333	-0.00151368	0.000690643	0.000118412	3.98846E-05	0	0	0	
0.088	0.000994515	0.00120168	9.10161E-05	3.77163E-05	0	0	0	
0.0881667	-0.00130465	-0.000809764	8.83395E-05	3.11632E-05	0	0	0	
0.0883333	0.00137437	-0.000388968	9.92067E-05	2.39138E-05	0	0	0	
0.0885	-0.00260804	-0.00021285	0.00011183	1.51943E-05	0	0	0	
0.0886667	0.0037414	0.000426396	0.000125676	1.32801E-05	0	0	0	
0.0888333	-0.00430299	0.000957447	0.00013825	1.63935E-05	0	0	0	
0.089	0.0041032	-0.000982744	0.000139941	1.7252E-05	0	0	0	
0.0891667	-0.00372905	-0.00111437	0.000130631	2.67714E-05	0	0	0	
0.0893333	0.00278491	0.000220048	0.000117911	2.46951E-05	0	0	0	
0.0895	-0.00178744	0.00058576	0.000112295	2.37106E-05	0	0	0	
0.0896667	0.00242384	-0.000367087	0.000119855	2.05453E-05	0	0	0	
0.0898333	-0.00313758	-0.0013648	0.000136723	2.72534E-05	0	0	0	
0.09	0.0034498	0.000911795	0.000149635	3.10554E-05	0	0	0	
0.0901667	-0.00361751	0.00100005	0.000146828	2.98096E-05	0	0	0	
0.0903333	0.00287485	-0.000736475	0.000128301	2.30092E-05	0	0	0	
0.0905	-8.72815E-05	1.96797E-05	0.000105373	2.0995E-05	0	0	0	
0.0906667	0.000135314	-0.000988411	9.68596E-05	1.56486E-05	0	0	0	
0.0908333	-0.00210799	0.00162908	0.000116971	2.20791E-05	0	0	0	
0.091	0.00426478	-0.000289016	0.000148576	2.19309E-05	0	0	0	
0.0911667	-0.0048228	-0.000860011	0.000163325	2.7281E-05	0	0	0	
0.0913333	0.00355425	0.000652291	0.000143745	2.32876E-05	0	0	0	
0.0915	-0.000518555	0.000100179	0.000106163	2.71734E-05	0	0	0	
0.0916667	-0.000570879	0.000466965	7.89422E-05	1.98098E-05	0	0	0	
0.0918333	-0.00101086	-0.00082554	9.38411E-05	1.78312E-05	0	0	0	
0.092	0.00401131	-0.000691967	0.00013874	1.62368E-05	0	0	0	
0.0921667	-0.00485485	0.00116918	0.000174765	1.87738E-05	0	0	0	
0.0923333	0.00370843	0.000488818	0.000165126	2.15771E-05	0	0	0	
0.0925	-0.00142388	-0.0012095	0.000124279	1.89593E-05	0	0	0	
0.0926667	-1.64466E-05	0.000498156	8.87397E-05	1.99149E-05	0	0	0	
0.0928333	-0.000728145	0.000172342	9.35863E-05	1.56557E-05	0	0	0	
0.093	0.00383919	-0.000285368	0.000128122	1.34215E-05	0	0	0	
0.0931667	-0.00373355	0.000969166	0.000157869	1.34392E-05	0	0	0	
0.0933333	0.00278896	-0.000740016	0.000150476	1.83533E-05	0	0	0	
0.0935	-0.00308664	6.06893E-05	0.000124875	1.7697E-05	0	0	0	
0.0936667	0.00142977	-0.00143572	0.000102088	1.65525E-05	0	0	0	
0.0938333	-0.000423362	0.000552318	9.08129E-05	1.53078E-05	0	0	0	
0.094	0.00161829	0.00115335	0.000105248	2.44633E-05	0	0	0	
0.0941667	-0.00437924	-0.000267934	0.00013796	2.34076E-05	0	0	0	
0.0943333	0.00299429	-0.00271083	0.000162683	3.51992E-05	0	0	0	
0.0945	-0.00227053	0.00180729	0.000156	3.4471E-05	0	0	0	
0.0946667	0.00398921	0.00282507	0.000147147	5.26429E-05	0	0	0	
0.0948333	-0.00355571	-0.00173489	0.000136501	4.97962E-05	0	0	0	
0.095	-0.000228526	-0.00379336	0.000116762	6.56021E-05	0	0	0	
0.0951667	-0.000597828	0.00164789	0.000111008	6.64967E-05	0	0	0	
0.0953333	0.00547434	0.0039072	0.000142015	8.81137E-05	0	0	0	
0.0955	-0.00435546	0.000334215	0.000161978	8.68928E-05	0	0	0	
0.0956667	0.000267871	-0.00623812	0.000131091	0.000100416	0	0	0	
0.0958333	0.000254404	-0.000453599	8.82108E-05	0.000110192	0	0	0	
0.096	0.00195693	0.00718558	9.41328E-05	0.000128063	0	0	0	
0.0961667	-0.00269087	0.00100676	0.000119199	0.000137252	0	0	0	
0.0963333	0.00370659	-0.00556003	0.000136688	0.000123572	0	0	0	
0.0965	-0.00608174	-0.00144893	0.000149015	0.000116225	0	0	0	
0.0966667	0.00823287	0.00321964	0.000167253	8.23271E-05	0	0	0	
0.0968333	-0.00554348	0.00372901	0.000167431	9.1108E-05	0	0	0	
0.097	0.000113881	-0.00400305	0.000125879	7.46514E-05	0	0	0	
0.0971667	0.000744372	-0.0019882	8.87443E-05	0.000103513	0	0	0	
0.0973333	0.00302656	0.00259043	0.000105313	7.59362E-05	0	0	0	
0.0975	-0.00615523	0.00167042	0.000156817	8.14944E-05	0	0	0	
0.0976667	0.00580729	-0.00175637	0.000188522	5.21464E-05	0	0	0	
0.0978333	-0.00322004	-0.00208588	0.000167585	5.74479E-05	0	0	0	
0.098	0.00196651	0.00217227	0.000130238	4.46354E-05	0	0	0	
0.0981667	-0.00167556	0.00255865	0.000110073	5.90987E-05	0	0	0	
0.0983333	0.00241979	-0.00125125	0.000117012	4.77421E-05	0	0	0	
0.0985	-0.00456243	-0.00166886	0.000146947	5.2064E-05	0	0	0	
0.0986667	0.00458343	0.00098309	0.00017558	4.43315E-05	0	0	0	
0.0988333	-0.00466592	0.00309269	0.000178443	5.19625E-05	0	0	0	
0.099	0.0038537	0.000725301	0.000149948	5.3937E-05	0	0	0	
0.0991667	-0.00236566	-0.00244048	0.000107785	5.54887E-05	0	0	0	
0.0993333	-0.00129899	-0.000190458	6.68518E-05	5.22445E-05	0	0	0	
0.0995	0.00233074	0.00178991	6.24783E-05	4.3343E-05	0	0	0	
0.0996667	-0.000650204	0.00120844	0.000108862	3.65001E-05	0	0	0	
0.0998333	-0.00326572	-0.00179167	0.0001763	3.83812E-05	0	0	0	
0.1	0.00466196	0.000342735	0.000203047	3.48816E-05	0	0	0	
0.100167	-0.00575274	0.00183581	0.000181804	2.97886E-05	0	0	0	
0.100333	0.0055868	-5.07294E-05	0.0001525	2.54575E-05	0	0	0	
0.1005	-0.00382788	-0.00166374	0.000129464	2.97984E-05	0	0	0	
0.100667	-0.000972237	0.000877802	9.73475E-05	3.14884E-05	0	0	0	
0.100833	0.00379868	-0.000849337	7.92713E-05	2.91987E-05	0	0	0	
0.101	-0.000472721	0.00191848	0.000103396	3.16772E-05	0	0	0	
0.101167	-0.00290552	0.000110021	0.000150187	3.23018E-05	0	0	0	
0.101333	0.00148294	-9.25635E-05	0.000162654	2.68707E-05	0	0	0	
0.1015	-0.0007452	0.000234639	0.00013836	1.65254E-05	0	0	0	
0.101667	0.00103719	-0.000704638	0.000116265	1.05054E-05	0	0	0	
0.101833	-0.00090461	0.000226381	0.00010417	1.75955E-05	0	0	0	
0.102	-0.000416013	-0.000126247	9.04919E-05	2.36533E-05	0	0	0	
0.102167	-0.000400504	0.00178206	8.11321E-05	2.55498E-05	0	0	0	
0.102333	0.00139437	-0.00246219	9.45048E-05	2.93128E-05	0	0	0	
0.1025	-0.00258052	0.00082015	0.000113348	3.29915E-05	0	0	0	
0.102667	0.00159447	0.000479266	0.000110886	4.19519E-05	0	0	0	
0.102833	-0.000958219	-0.000812519	8.51977E-05	3.13926E-05	0	0	0	
0.103	-0.000505291	-0.00126068	6.74089E-05	3.22034E-05	0	0	0	
0.103167	3.16036E-05	0.00112447	7.46801E-05	2.94917E-05	0	0	0	
0.103333	0.000875789	0.000611487	0.000107267	3.42258E-05	0	0	0	
0.1035	-0.00340661	-0.00100694	0.000140764	2.41588E-05	0	0	0	
0.103667	0.00394358	-0.000794025	0.00016101	2.38406E-05	0	0	0	
0.103833	-0.00525041	9.99454E-05	0.000158042	2.17279E-05	0	0	0	
0.104	0.00515079	0.00147279	0.000146113	2.58268E-05	0	0	0	
0.104167	-0.00342787	-0.000399242	0.000119166	2.61629E-05	0	0	0	
0.104333	0.00119136	-0.00152159	8.59611E-05	2.85341E-05	0	0	0	
0.1045	0.000966053	-0.000905746	5.34034E-05	3.25358E-05	0	0	0	
0.104667	-0.00121831	0.00221733	6.53946E-05	3.35345E-05	0	0	0	
0.104833	-0.00135512	-6.04456E-05	0.000122983	3.48667E-05	0	0	0	
0.105	0.0059655	-0.00189593	0.000195938	3.2741E-05	0	0	0	
0.105167	-0.0086152	0.00119404	0.000234989	3.22485E-05	0	0	0	
0.105333	0.00928843	0.00133882	0.000228338	3.97728E-05	0	0	0	
0.1055	-0.00490586	-0.0015109	0.000194218	3.6941E-05	0	0	0	
0.105667	0.00108623	1.05023E-05	0.000137828	3.93463E-05	0	0	0	
0.105833	0.00118441	-0.000118642	9.7424E-05	2.42544E-05	0	0	0	
0.106	-0.00110228	0.00135294	9.44322E-05	2.12739E-05	0	0	0	
0.106167	-0.000940091	-8.1511E-05	0.000132242	1.85218E-05	0	0	0	
0.106333	0.00358523	-0.00114595	0.000166288	2.49344E-05	0	0	0	
0.1065	-0.00371469	-0.00121376	0.000169266	3.51789E-05	0	0	0	
0.106667	0.00296531	0.00306129	0.000145817	4.2022E-05	0	0	0	
0.106833	-0.0024486	-0.00164647	0.000121526	4.88546E-05	0	0	0	
0.107	0.00161189	-0.00160165	0.000109619	5.59219E-05	0	0	0	
0.107167	-0.002075	0.000731457	0.000108202	4.18255E-05	0	0	0	
0.107333	0.00200278	0.00122831	0.00010697	4.98937E-05	0	0	0	
0.1075	-0.00325696	-0.00177329	0.000101721	4.32665E-05	0	0	0	
0.107667	0.00385684	-0.000271597	0.00010132	4.34239E-05	0	0	0	
0.107833	-0.00286438	0.0010506	9.78332E-05	2.6357E-05	0	0	0	
0.108	0.00129838	0.000395966	8.9441E-05	1.76226E-05	0	0	0	
0.108167	-0.000201741	-0.00110078	7.63913E-05	1.90688E-05	0	0	0	
0.108333	-0.000189967	-0.000443491	7.34921E-05	1.75725E-05	0	0	0	
0.1085	-0.000724879	0.0023272	9.49408E-05	2.44974E-05	0	0	0	
0.108667	0.00585888	-0.00141726	0.000142813	3.12232E-05	0	0	0	
0.108833	-0.00829816	-0.00340532	0.000178264	5.8717E-05	0	0	0	
0.109	0.00328819	0.00355046	0.000167167	6.63194E-05	0	0	0	
0.109167	0.00483224	0.00386052	0.000128916	9.5542E-05	0	0	0	
0.109333	-0.00339744	-0.00350592	0.000103637	8.52125E-05	0	0	0	
0.1095	-0.00235148	-0.00433097	0.000153276	0.000116872	0	0	0	
0.109667	0.00603233	0.00235248	0.000196736	9.43524E-05	0	0	0	
0.109833	-0.0073365	0.00600299	0.000216955	0.000117621	0	0	0	
0.11	0.00681726	-0.0021684	0.000177365	9.73123E-05	0	0	0	
0.110167	-0.00178813	-0.00481328	0.000128707	0.000124586	0	0	0	
0.110333	-0.00288526	-9.73098E-05	9.01567E-05	9.83541E-05	0	0	0	
0.1105	0.00353769	0.0056355	8.35351E-05	9.59099E-05	0	0	0	
0.110667	0.00247087	-0.0020319	0.000140396	7.56888E-05	0	0	0	
0.110833	-0.00774554	-0.00281977	0.000206636	8.28191E-05	0	0	0	
0.111	0.00893015	-0.00033958	0.000236259	7.17797E-05	0	0	0	
0.111167	-0.00492675	0.002796	0.000198798	6.99126E-05	0	0	0	
0.111333	0.00183836	4.36617E-05	0.000137243	6.06583E-05	0	0	0	
0.1115	-0.000413078	-0.00259468	0.000101624	5.83706E-05	0	0	0	
0.111667	0.00208492	-0.00063299	0.000105721	5.57814E-05	0	0	0	
0.111833	-0.00394878	0.00332866	0.000141465	5.71986E-05	0	0	0	
0.112	0.00496684	0.000118709	0.000166959	5.98418E-05	0	0	0	
0.112167	-0.004552	-0.00134458	0.000161272	5.03206E-05	0	0	0	
0.112333	0.00242149	-0.000189242	0.000131782	4.47602E-05	0	0	0	
0.1125	-0.000923496	0.00113554	9.41893E-05	2.88847E-05	0	0	0	
0.112667	-0.0012088	0.00114208	7.54064E-05	3.23256E-05	0	0	0	
0.112833	0.000227494	-8.97359E-06	9.06463E-05	2.30446E-05	0	0	0	
0.113	0.00292807	-0.00150661	0.000129148	3.43614E-05	0	0	0	
0.113167	-0.0050575	0.00253885	0.000151369	2.9265E-05	0	0	0	
0.113333	0.00265318	-5.26005E-05	0.000136183	4.02375E-05	0	0	0	
0.1135	0.000233172	-0.000430473	8.42202E-05	4.08915E-05	0	0	0	
0.113667	-0.00204455	-0.000545773	4.77293E-05	3.27726E-05	0	0	0	
0.113833	0.00174631	0.00196133	5.63223E-05	2.78437E-05	0	0	0	
0.114	0.00264974	0.000887017	0.000111746	2.1674E-05	0	0	0	
0.114167	-0.00746052	-0.000601692	0.000160783	2.27503E-05	0	0	0	
0.114333	0.00620965	-0.00200436	0.000166763	3.54851E-05	0	0	0	
0.1145	-0.000749717	0.00377761	0.000130292	4.15803E-05	0	0	0	
0.114667	-0.0022903	0.000273598	8.26001E-05	5.98248E-05	0	0	0	
0.114833	0.00106229	-0.00158543	7.67611E-05	4.63199E-05	0	0	0	
0.115	0.0028148	-0.000352731	0.000121694	4.98187E-05	0	0	0	
0.115167	-0.00641076	0.00183094	0.00017522	3.33947E-05	0	0	0	
0.115333	0.00685054	0.00275329	0.000189149	5.11052E-05	0	0	0	
0.1155	-0.00427733	-0.00326732	0.000155091	4.9581E-05	0	0	0	
0.115667	0.00174517	-0.00144017	0.000111482	7.25205E-05	0	0	0	
0.115833	-9.73539E-05	0.00289385	8.07547E-05	6.15125E-05	0	0	0	
0.116	0.000245078	0.00266033	8.88929E-05	8.04182E-05	0	0	0	
0.116167	-0.00238908	-0.00147605	0.000122876	6.39254E-05	0	0	0	
0.116333	0.0035467	-0.00272738	0.00015051	7.26144E-05	0	0	0	
0.1165	-0.00314139	0.00211936	0.000140414	5.57534E-05	0	0	0	
0.116667	0.00192233	0.00241219	0.00011219	7.9027E-05	0	0	0	
0.116833	-0.00251949	-0.0010097	0.000100104	6.60189E-05	0	0	0	
0.117	0.00328708	-0.00251644	0.000109242	6.50326E-05	0	0	0	
0.117167	-0.00342411	0.00215149	0.000116679	4.55685E-05	0	0	0	
0.117333	0.0025228	0.00177571	0.000112993	6.68941E-05	0	0	0	
0.1175	-0.00196066	-0.000712794	0.000101235	5.34234E-05	0	0	0	
0.117667	0.00129221	-0.00271705	9.2433E-05	6.33366E-05	0	0	0	
0.117833	-0.00265699	0.00157992	9.29718E-05	4.39804E-05	0	0	0	
0.118	0.00306565	0.00238977	0.000108503	6.60435E-05	0	0	0	
0.118167	-0.00391338	-0.00088799	0.0001225	5.01318E-05	0	0	0	
0.118333	0.00277702	-0.00265001	0.000123083	5.71113E-05	0	0	0	
0.1185	-0.000829814	0.000811229	0.000108379	4.14092E-05	0	0	0	
0.118667	0.000477192	0.00157717	0.000102323	3.88899E-05	0	0	0	
0.118833	-0.0018115	-0.000866364	0.000110655	2.82648E-05	0	0	0	
0.119	0.00218426	-0.000877055	0.000127745	2.59977E-05	0	0	0	
0.119167	-0.00261386	0.000103926	0.000138868	2.18178E-05	0	0	0	
0.119333	0.00366999	0.000952151	0.000139756	1.74381E-05	0	0	0	
0.1195	-0.0045226	-0.000632193	0.000133825	1.30471E-05	0	0	0	
0.119667	0.00307203	-6.34062E-05	0.000119807	1.64929E-05	0	0	0	
0.119833	-9.55682E-05	-0.000288385	0.000100022	1.33603E-05	0	0	0	
0.12	0.0011982	0.000885147	9.88558E-05	1.28849E-05	0	0	0	
0.120167	-0.00472377	0.00052518	0.000122778	9.42368E-06	0	0	0	
0.120333	0.00542144	-0.000109826	0.000148113	1.20282E-05	0	0	0	
0.1205	-0.00332908	-0.000198916	0.000145062	1.11334E-05	0	0	0	
0.120667	0.00187583	0.000295569	0.000126909	9.91803E-06	0	0	0	
0.120833	-0.00192193	0.0003432	0.000119518	7.77445E-06	0	0	0	
0.121	0.00100415	0.000386969	0.000121281	8.6767E-06	0	0	0	
0.121167	-0.000947221	-0.000340472	0.000124332	1.14815E-05	0	0	0	
0.121333	0.00468309	-0.000191545	0.000132058	1.26817E-05	0	0	0	
0.1215	-0.00438444	-0.00013317	0.000142129	1.04105E-05	0	0	0	
0.121667	0.00165513	-0.00121217	0.000127485	1.29877E-05	0	0	0	
0.121833	0.000480204	-0.000132083	0.000100034	1.38042E-05	0	0	0	
0.122	0.00425143	0.00344567	0.000108086	2.64369E-05	0	0	0	
0.122167	-0.00765116	-0.00447051	0.000136366	4.47064E-05	0	0	0	
0.122333	0.00404805	-0.000925563	0.000150882	7.84325E-05	0	0	0	
0.1225	0.00456853	0.0027933	0.000126993	7.94634E-05	0	0	0	
0.122667	-0.00232327	0.00344054	0.000115098	8.34736E-05	0	0	0	
0.122833	-0.00629247	-0.00270181	0.000164086	5.97215E-05	0	0	0	
0.123	0.00488203	-0.00710083	0.00019039	9.87829E-05	0	0	0	
0.123167	0.00599109	0.00877674	0.000185948	0.00012784	0	0	0	
0.123333	0.000952744	0.0125175	0.000136775	0.000292759	0	0	0	
0.1235	-0.00559116	-0.0221256	0.000136699	0.000373206	0	0	0	
0.123667	0.000769008	0.00776215	0.000137098	0.00044528	0	0	0	
0.123833	0.00109165	0.0168067	0.000119619	0.000393629	0	0	0	
0.124	0.00471661	-0.00370249	0.000120265	0.000332954	0	0	0	
0.124167	-0.00739851	-0.00704092	0.000131185	0.000293729	0	0	0	
0.124333	0.00220962	-0.00683898	0.000180429	0.000233114	0	0	0	
0.1245	0.00574527	0.0166866	0.000179449	0.000231119	0	0	0	
0.124667	-0.0052439	0.00416156	0.000177514	0.000286789	0	0	0	
0.124833	-0.00212382	-0.0221099	0.000187523	0.000362869	0	0	0	
0.125	0.00974784	0.00273188	0.000206084	0.000405941	0	0	0	
0.125167	-0.0136849	0.0197709	0.000243689	0.000411813	0	0	0	
0.125333	0.0129506	-0.0037847	0.000242244	0.000378817	0	0	0	
0.1255	-0.0029989	-0.0204678	0.000203972	0.000422166	0	0	0	
0.125667	-0.00509031	0.00602722	0.00012918	0.0003657	0	0	0	
0.125833	0.00449415	0.0161723	0.000101283	0.0003897	0	0	0	
0.126	0.00116063	-0.00324	0.000137082	0.000311567	0	0	0	
0.126167	-0.00218386	-0.0121607	0.000196253	0.000330886	0	0	0	
0.126333	0.00272606	0.00325466	0.000191778	0.000244903	0	0	0	
0.1265	-0.00114219	0.00854276	0.000152825	0.000232217	0	0	0	
0.126667	-0.00245137	-0.0041274	0.000110162	0.000160717	0	0	0	
0.126833	0.00655092	-0.00302098	0.000100228	0.000171053	0	0	0	
0.127	-0.0064955	0.0041363	0.000118333	0.000121463	0	0	0	
0.127167	0.0020035	0.00162145	0.000167076	0.000120086	0	0	0	
0.127333	0.0038849	-0.00697232	0.00019775	0.000100075	0	0	0	
0.1275	-0.00341148	0.0012186	0.00016986	0.000114985	0	0	0	
0.127667	-0.00117405	0.00521108	0.000104279	0.000114446	0	0	0	
0.127833	0.00327489	0.000403057	5.68161E-05	0.000106331	0	0	0	
0.128	-0.00174329	-0.00494254	8.48579E-05	0.000104102	0	0	0	
0.128167	-0.000198507	-0.00148984	0.000152232	9.75807E-05	0	0	0	
0.128333	0.00287525	0.00508113	0.00020872	8.33339E-05	0	0	0	
0.1285	-0.00580562	0.00163796	0.000204688	0.00012569	0	0	0	
0.128667	0.00426519	-0.00950127	0.000157665	0.000159019	0	0	0	
0.128833	8.65498E-05	0.00567626	0.000101296	0.000185666	0	0	0	
0.129	-0.000898344	0.00524568	9.87223E-05	0.000177238	0	0	0	
0.129167	-0.000984572	-0.00924308	0.000131492	0.00014627	0	0	0	
0.129333	-0.000575097	9.11284E-05	0.000122776	0.000178498	0	0	0	
0.1295	0.00532109	0.00530522	9.10929E-05	0.000170495	0	0	0	
0.129667	0.00269491	0.00459997	7.25332E-05	0.000179396	0	0	0	
0.129833	-0.00964331	-0.00866374	0.000118053	0.000139459	0	0	0	
0.13	0.00378411	-0.00527155	0.00013521	0.000176052	0	0	0	
0.130167	-0.000831759	0.0087718	0.000118678	0.000164189	0	0	0	
0.130333	0.0043836	0.00784084	8.5496E-05	0.000241767	0	0	0	
0.1305	-0.00534081	-0.0117484	9.10216E-05	0.000204362	0	0	0	
0.130667	0.00240799	-0.00636852	0.000103838	0.000272857	0	0	0	
0.130833	-0.00711119	0.0104899	0.0001281	0.000214528	0	0	0	
0.131	0.00694724	0.00453421	0.000153179	0.000254593	0	0	0	
0.131167	-0.0116711	-0.00742817	0.000161913	0.000186777	0	0	0	
0.131333	0.00794893	-0.00846913	0.000184814	0.000225625	0	0	0	
0.1315	-0.00147092	0.00912036	0.000151563	0.000181729	0	0	0	
0.131667	-0.000338999	0.00897568	0.000139546	0.000255399	0	0	0	
0.131833	-0.00243814	-0.00766529	0.000135728	0.000206347	0	0	0	
0.132	0.00177464	-0.00959282	0.000150384	0.000256697	0	0	0	
0.132167	-0.000445063	0.00575036	0.000151932	0.000195988	0	0	0	
0.132333	0.00682394	0.0105112	0.000150634	0.000241523	0	0	0	
0.1325	-0.00784144	-0.00034639	0.000164744	0.000204164	0	0	0	
0.132667	0.0022917	-0.0113816	0.000155604	0.000229153	0	0	0	
0.132833	0.00134164	-0.0025036	0.000108467	0.000232014	0	0	0	
0.133	0.00507602	0.0132491	0.000119356	0.00023698	0	0	0	
0.133167	-0.00803598	0.000532458	0.000153872	0.000265048	0	0	0	
0.133333	0.00252082	-0.0118014	0.000167518	0.000259528	0	0	0	
0.1335	0.00215129	0.000235553	0.000108791	0.000256016	0	0	0	
0.133667	0.00221591	0.0098865	0.000107696	0.000224929	0	0	0	
0.133833	-0.00549266	0.00111083	0.00013439	0.000192012	0	0	0	
0.134	0.00109632	-0.00811444	0.000149161	0.000169952	0	0	0	
0.134167	0.00144333	-0.00389933	0.000137666	0.000173794	0	0	0	
0.134333	0.00412205	0.00910885	0.000182764	0.000160579	0	0	0	
0.1345	-0.00652635	0.00569048	0.000218413	0.000204334	0	0	0	
0.134667	-0.00230465	-0.00742831	0.00018324	0.000162604	0	0	0	
0.134833	0.0068111	-0.00787218	0.000108106	0.00021732	0	0	0	
0.135	-0.00230152	0.00425837	0.000121602	0.000168679	0	0	0	
0.135167	-0.00410008	0.00874864	0.000208148	0.000223113	0	0	0	
0.135333	0.00481937	-0.00176016	0.000241682	0.000163986	0	0	0	
0.1355	-0.00285279	-0.00582501	0.000190807	0.000171703	0	0	0	
0.135667	-0.000399915	-0.0030525	0.000100454	0.000120225	0	0	0	
0.135833	0.00196455	0.00452183	5.72085E-05	0.000107117	0	0	0	
0.136	-0.00107883	0.00591853	6.80853E-05	0.000116534	0	0	0	
0.136167	-0.00296065	-0.00509054	0.000114683	0.000111643	0	0	0	
0.136333	0.00579627	-0.00539353	0.000150677	0.000149071	0	0	0	
0.1365	-0.0042164	0.00578426	0.000155008	0.000122946	0	0	0	
0.136667	0.00153857	0.00271471	0.000122521	0.000148931	0	0	0	
0.136833	0.000955873	-0.00299642	9.62432E-05	0.000107142	0	0	0	
0.137	-0.00124697	-0.00223974	9.81764E-05	0.000103039	0	0	0	
0.137167	-0.000856791	0.000806091	0.000133396	5.69391E-05	0	0	0	
0.137333	0.00360327	0.00284696	0.00017677	6.07342E-05	0	0	0	
0.1375	-0.00604265	-0.000182055	0.000205416	4.83848E-05	0	0	0	
0.137667	0.00824059	-0.00183187	0.000204858	5.34243E-05	0	0	0	
0.137833	-0.00476748	-0.000384672	0.000172659	4.22175E-05	0	0	0	
0.138	-0.00370644	0.000936709	0.00012547	4.23658E-05	0	0	0	
0.138167	0.00391808	-0.000657032	0.000101642	3.61405E-05	0	0	0	
0.138333	0.00389157	0.000983031	0.000153657	3.60075E-05	0	0	0	
0.1385	-0.00780252	7.0677E-05	0.000201724	2.36458E-05	0	0	0	
0.138667	0.00629407	-0.00132908	0.000209927	2.42192E-05	0	0	0	
0.138833	-0.00319779	0.000508439	0.000149928	1.93309E-05	0	0	0	
0.139	0.00108353	0.00132046	9.35404E-05	2.27487E-05	0	0	0	
0.139167	0.00195003	0.000391292	7.00581E-05	1.6522E-05	0	0	0	
0.139333	0.000658071	-0.000130054	0.000109177	1.35289E-05	0	0	0	
0.1395	-0.00730051	-0.00108601	0.000206285	1.31046E-05	0	0	0	
0.139667	0.0109592	-1.59046E-05	0.000281291	2.44208E-05	0	0	0	
0.139833	-0.00667406	0.00206643	0.000270012	3.51227E-05	0	0	0	
0.14	-0.000516121	0.0014244	0.000172829	4.6437E-05	0	0	0	
0.140167	0.0031587	-0.00403713	8.8304E-05	5.68895E-05	0	0	0	
0.140333	-0.000861196	0.00236194	7.01123E-05	6.1559E-05	0	0	0	
0.1405	-0.000101463	0.000272675	0.00011919	5.89204E-05	0	0	0	
0.140667	0.00339928	-0.000940183	0.000185135	3.45093E-05	0	0	0	
0.140833	-0.00671392	0.000743379	0.000216473	3.09992E-05	0	0	0	
0.141	0.00473669	0.00222966	0.000192386	2.93965E-05	0	0	0	
0.141167	0.00125299	-0.000995422	0.000125383	3.92671E-05	0	0	0	
0.141333	-0.000549631	-0.0018119	7.41997E-05	3.01105E-05	0	0	0	
0.1415	-0.00141974	-0.000271211	9.12273E-05	4.67046E-05	0	0	0	
0.141667	0.0033703	0.00233504	0.000119605	6.12399E-05	0	0	0	
0.141833	0.000976041	0.001993	0.00012135	6.67701E-05	0	0	0	
0.142	-0.00120108	-0.00263815	9.38599E-05	5.56012E-05	0	0	0	
0.142167	0.000237177	-0.000178047	0.000102326	5.53118E-05	0	0	0	
0.142333	-0.000769286	0.00176132	0.000110248	6.74369E-05	0	0	0	
0.1425	0.00550791	0.00121328	0.000106585	5.47869E-05	0	0	0	
0.142667	-0.00334314	-0.00235651	0.000101069	4.08599E-05	0	0	0	
0.142833	-0.0032456	0.000327742	0.000155797	3.94201E-05	0	0	0	
0.143	0.00950361	0.00374975	0.000218853	5.64328E-05	0	0	0	
0.143167	-0.00610259	-0.00169868	0.000234439	6.42274E-05	0	0	0	
0.143333	-0.0022446	-0.00333359	0.000172927	7.8244E-05	0	0	0	
0.1435	0.00725286	0.00375715	0.000114165	7.67234E-05	0	0	0	
0.143667	-0.00341589	0.000741613	9.09762E-05	7.9872E-05	0	0	0	
0.143833	-0.00138512	-0.00173114	0.000138864	5.2624E-05	0	0	0	
0.144	0.00638558	-0.00118256	0.000199103	4.43492E-05	0	0	0	
0.144167	-0.00813707	0.0003749	0.00023967	3.4028E-05	0	0	0	
0.144333	0.00357296	0.00280822	0.000205927	5.21906E-05	0	0	0	
0.1445	0.00210311	-0.000746321	0.000125368	4.72865E-05	0	0	0	
0.144667	-0.00294908	-0.00184524	7.50191E-05	5.17406E-05	0	0	0	
0.144833	-0.000725538	0.000398757	9.93785E-05	4.47269E-05	0	0	0	
0.145	0.00428822	0.00400555	0.000169046	6.8202E-05	0	0	0	
0.145167	-0.00833538	-0.00214097	0.000227762	6.77693E-05	0	0	0	
0.145333	0.00900127	-0.000125797	0.000240666	6.86079E-05	0	0	0	
0.1455	-0.00598813	0.0015802	0.000211721	4.2342E-05	0	0	0	
0.145667	-0.00109886	-0.000697838	0.000159914	3.39002E-05	0	0	0	
0.145833	0.000908941	0.00195805	0.000118892	2.00973E-05	0	0	0	
0.146	0.00430761	-0.000612152	0.000125645	2.63968E-05	0	0	0	
0.146167	-0.005001	-0.000938281	0.000160337	3.64222E-05	0	0	0	
0.146333	0.00232809	0.00104781	0.000193147	3.69348E-05	0	0	0	
0.1465	-0.00422249	-2.74636E-05	0.000202106	3.17354E-05	0	0	0	
0.146667	0.00722303	-0.000569413	0.000202814	1.62896E-05	0	0	0	
0.146833	-0.0067811	-0.00048366	0.000182622	1.85964E-05	0	0	0	
0.147	0.00186703	0.00251924	0.000145271	2.79286E-05	0	0	0	
0.147167	0.000781024	-0.00111994	9.72442E-05	3.63005E-05	0	0	0	
0.147333	-0.000977059	-0.00286106	0.000108615	4.51939E-05	0	0	0	
0.1475	-0.00457667	0.00218851	0.000149889	4.47735E-05	0	0	0	
0.147667	0.00635787	0.00104085	0.000183776	5.00573E-05	0	0	0	
0.147833	-0.00765196	0.000459698	0.000160614	3.65401E-05	0	0	0	
0.148	0.0013241	-0.00295309	0.000122008	3.21899E-05	0	0	0	
0.148167	0.00494419	-0.000192876	9.60233E-05	3.63655E-05	0	0	0	
0.148333	-0.00498639	0.00262017	9.56508E-05	4.13543E-05	0	0	0	
0.1485	-0.00203222	0.00111422	0.000129441	5.8603E-05	0	0	0	
0.148667	0.0101272	-0.00315737	0.000205359	6.01557E-05	0	0	0	
0.148833	-0.015817	0.000214523	0.000258115	6.89843E-05	0	0	0	
0.149	0.0119495	0.00180325	0.000285301	6.37588E-05	0	0	0	
0.149167	0.00033627	-0.000346393	0.000261749	5.14335E-05	0	0	0	
0.149333	-0.00536282	-0.000824471	0.000234817	5.4032E-05	0	0	0	
0.1495	0.00263775	0.000586481	0.000177455	3.59757E-05	0	0	0	
0.149667	0.00423387	0.000883402	0.000206845	3.3957E-05	0	0	0	
0.149833	-0.0136477	0.000925781	0.00024797	1.74305E-05	0	0	0	
0.15	0.00971831	-0.000460704	0.000291654	1.8965E-05	0	0	0	
0.150167	-0.00224934	-0.000818112	0.000214959	2.03471E-05	0	0	0	
0.150333	-0.00377589	-0.000386107	0.00013675	2.25014E-05	0	0	0	
0.1505	0.00378484	0.00115604	0.000129452	2.252E-05	0	0	0	
0.150667	-0.000498398	0.00235743	0.000197473	2.33544E-05	0	0	0	
0.150833	-0.00374149	0.000559538	0.000252585	2.54809E-05	0	0	0	
0.151	0.00253851	-0.00284559	0.00024381	4.22314E-05	0	0	0	
0.151167	-0.00563637	0.00123249	0.000208112	5.25758E-05	0	0	0	
0.151333	0.00625271	0.00286674	0.000171451	6.87981E-05	0	0	0	
0.1515	0.00558422	0.00138877	0.000138288	7.57093E-05	0	0	0	
0.151667	-0.0109427	-0.0047276	0.000116935	8.42541E-05	0	0	0	
0.151833	0.0059065	-0.00198268	0.000184042	9.78405E-05	0	0	0	
0.152	0.00542577	0.0056574	0.000264061	9.39242E-05	0	0	0	
0.152167	-0.00685568	0.00148772	0.000277704	0.000114492	0	0	0	
0.152333	0.0012337	-0.00492739	0.000202454	0.00010341	0	0	0	
0.1525	-0.00461153	-0.000997783	0.000136746	0.000110996	0	0	0	
0.152667	0.00385597	0.00297328	0.000148766	7.66959E-05	0	0	0	
0.152833	-0.00327456	0.000573461	0.000169109	7.50217E-05	0	0	0	
0.153	0.00204653	-0.00232418	0.000173632	5.63496E-05	0	0	0	
0.153167	-0.00993818	0.000199179	0.000168385	5.78769E-05	0	0	0	
0.153333	0.00779201	0.00214723	0.000197022	4.56591E-05	0	0	0	
0.1535	-0.0034009	0.00041624	0.000174953	4.20994E-05	0	0	0	
0.153667	-0.00250092	-0.00250634	0.000129327	3.44623E-05	0	0	0	
0.153833	0.00153359	-0.00181242	0.000111033	4.63279E-05	0	0	0	
0.154	0.00356692	0.00320397	0.000206338	5.54658E-05	0	0	0	
0.154167	-0.0116	0.00191268	0.000292919	7.20788E-05	0	0	0	
0.154333	0.0111249	-0.00310694	0.000306267	6.7924E-05	0	0	0	
0.1545	0.0011788	-0.00102585	0.000212919	6.88587E-05	0	0	0	
0.154667	-0.00100068	0.00140631	0.000115384	5.60292E-05	0	0	0	
0.154833	0.00228989	0.0011039	9.57885E-05	4.56202E-05	0	0	0	
0.155	0.000744196	-0.00180546	0.000156547	3.57948E-05	0	0	0	
0.155167	-0.00839695	9.99723E-05	0.000231333	3.76749E-05	0	0	0	
0.155333	0.00981962	0.00106464	0.000237345	3.18059E-05	0	0	0	
0.1555	0.000664947	-0.000216887	0.000179543	3.04539E-05	0	0	0	
0.155667	-0.00194836	-0.000505041	0.000106564	2.30062E-05	0	0	0	
0.155833	0.00527307	-0.00109908	8.28648E-05	2.76432E-05	0	0	0	
0.156	-0.00207	-0.000339609	0.000102914	2.09527E-05	0	0	0	
0.156167	-0.00338471	0.00118738	0.000161461	2.45795E-05	0	0	0	
0.156333	0.00941638	-0.00129228	0.000191774	2.57134E-05	0	0	0	
0.1565	-0.00571255	0.000356594	0.000181564	2.6009E-05	0	0	0	
0.156667	-0.00155926	8.51645E-05	0.000160319	2.48979E-05	0	0	0	
0.156833	0.00699068	-0.000785903	0.000113319	2.43597E-05	0	0	0	
0.157	-0.00142652	0.00044042	0.000144068	2.48922E-05	0	0	0	
0.157167	-0.00816794	-0.000377852	0.000185444	2.2271E-05	0	0	0	
0.157333	0.00919407	-5.10389E-05	0.000231327	1.44458E-05	0	0	0	
0.1575	-0.00462766	-0.00102424	0.000202269	1.89217E-05	0	0	0	
0.157667	-0.000302942	-0.001032	0.000130863	2.07874E-05	0	0	0	
0.157833	0.00595988	0.00123538	8.00323E-05	3.01204E-05	0	0	0	
0.158	-0.00481251	0.000556315	0.000105087	3.55957E-05	0	0	0	
0.158167	-0.00246938	-0.000886924	0.000218498	3.18951E-05	0	0	0	
0.158333	0.0106605	-0.000531257	0.000324625	2.77529E-05	0	0	0	
0.1585	-0.010815	0.000382938	0.000324526	1.97879E-05	0	0	0	
0.158667	0.0028614	-0.000647981	0.000237538	2.1178E-05	0	0	0	
0.158833	0.00459238	0.000225474	0.000146177	1.97738E-05	0	0	0	
0.159	-0.00610764	0.000404854	0.0001185	1.68494E-05	0	0	0	
0.159167	0.00274046	-0.000354147	0.000152731	1.43448E-05	0	0	0	
0.159333	0.00325094	0.000274187	0.000215073	1.22612E-05	0	0	0	
0.1595	-0.00863002	-0.000347985	0.000258644	1.80607E-05	0	0	0	
0.159667	0.00809975	-0.000155438	0.000242242	1.80088E-05	0	0	0	
0.159833	-0.00277931	-0.00106093	0.000181271	2.4557E-05	0	0	0	
0.16	-0.00349118	0.00201446	0.000115725	2.50512E-05	0	0	0	
0.160167	0.00342684	3.65492E-07	7.99794E-05	3.05901E-05	0	0	0	
0.160333	0.00103443	9.70689E-05	9.95465E-05	2.65396E-05	0	0	0	
0.1605	-0.00370624	-0.00209233	0.000145224	2.46172E-05	0	0	0	
0.160667	0.00440587	0.000175614	0.000176321	2.69097E-05	0	0	0	
0.160833	-0.0074041	0.00279874	0.00017344	3.46763E-05	0	0	0	
0.161	0.0106224	-0.00198494	0.000167086	4.41423E-05	0	0	0	
0.161167	-0.0148445	0.000950049	0.000185017	3.72831E-05	0	0	0	
0.161333	0.00773871	0.000653478	0.000245189	4.59572E-05	0	0	0	
0.1615	-0.000395612	-0.00768773	0.000252007	7.86398E-05	0	0	0	
0.161667	0.0299071	0.00981416	0.000266612	0.000120327	0	0	0	
0.161833	-0.0704646	-0.0496175	0.000675838	0.000423287	0	0	0	
0.162	-0.00777962	0.0228166	0.00108149	0.000761065	0	0	0	
0.162167	-0.0161991	0.00425517	0.00113355	0.000848716	0	0	0	
0.162333	0.0256739	-0.0107327	0.000769105	0.000569723	0	0	0	
0.1625	-0.0166898	-0.000499167	0.000429827	0.000258643	0	0	0	
0.162667	0.0114627	0.0109328	0.000378917	0.000227258	0	0	0	
0.162833	-0.0098458	-0.046541	0.000405248	0.000290444	0	0	0	
0.163	-0.10768	0.0543135	0.000897386	0.000649527	0	0	0	
0.163167	-0.00306102	-0.00898666	0.000986992	0.000727561	0	0	0	
0.163333	0.0114526	-0.0021532	0.000875117	0.000642203	0	0	0	
0.1635	-0.0108774	0.00601679	0.000327068	0.000250713	0	0	0	
0.163667	0.00643483	-0.00526127	0.000196334	0.000106985	0	0	0	
0.163833	-0.000357764	-0.00121008	0.00015576	0.000127249	0	0	0	
0.164	0.00207288	0.00125133	0.000100995	9.82203E-05	0	0	0	
0.164167	-0.00719719	0.00367257	0.000147389	0.000113623	0	0	0	
0.164333	0.0132042	-0.00386367	0.000221213	9.75069E-05	0	0	0	
0.1645	-0.0108331	0.00161332	0.000281009	9.67518E-05	0	0	0	
0.164667	0.00495809	-0.00195376	0.000235367	5.53518E-05	0	0	0	
0.164833	0.00607609	-0.00563705	0.000150469	5.91705E-05	0	0	0	
0.165	-0.00569399	-0.000824115	0.000298052	0.000160604	0	0	0	
0.165167	0.0238303	0.00617844	0.000430124	0.000218685	0	0	0	
0.165333	0.00955724	-0.00505605	0.000619162	0.000227599	0	0	0	
0.1655	-0.00351735	-0.000345984	0.000441818	0.000127092	0	0	0	
0.165667	0.00201157	-0.00131142	0.000289877	7.0895E-05	0	0	0	
0.165833	-0.00151946	0.00429309	0.000111109	4.19224E-05	0	0	0	
0.166	-0.0138027	0.00510032	9.91926E-05	8.96234E-05	0	0	0	
0.166167	-0.0270693	0.00845464	0.000312481	0.000203054	0	0	0	
0.166333	0.0296602	0.00279763	0.000432022	0.000229789	0	0	0	
0.1665	-0.00791965	-0.00056931	0.000577775	0.000200508	0	0	0	
0.166667	-0.000512147	0.000383127	0.000365078	8.00106E-05	0	0	0	
0.166833	-0.00107493	-0.00329585	0.000260199	5.23755E-05	0	0	0	
0.167	0.003119	0.000370548	0.000127356	3.09653E-05	0	0	0	
0.167167	-0.0040507	0.000409284	0.000140862	3.00407E-05	0	0	0	
0.167333	-0.00569935	0.00463061	0.000113322	4.95563E-05	0	0	0	
0.1675	-0.0186709	0.00538919	0.000251907	0.000104042	0	0	0	
0.167667	0.00225708	-0.00389813	0.000261604	0.000127859	0	0	0	
0.167833	-0.000622803	0.000637289	0.00026526	0.000106595	0	0	0	
0.168	0.00347765	0.00213318	0.000115104	6.89222E-05	0	0	0	
0.168167	-0.00289328	-0.00197862	9.86795E-05	4.88275E-05	0	0	0	
0.168333	0.00217345	-0.00197983	0.000110374	5.93882E-05	0	0	0	
0.1685	-0.0392558	0.0163733	0.000126172	6.5885E-05	0	0	0	
0.168667	0.00774857	-0.00120934	0.000311435	0.000120903	0	0	0	
0.168833	-0.00690656	-0.00162003	0.000369102	0.000113547	0	0	0	
0.169	0.00476428	0.000245923	0.000361795	8.93565E-05	0	0	0	
0.169167	-0.003212	0.000200568	0.000176494	3.90859E-05	0	0	0	
0.169333	0.000951306	-0.000395078	0.00011465	3.0315E-05	0	0	0	
0.1695	0.00211715	-0.00158218	8.80885E-05	2.68269E-05	0	0	0	
0.169667	-0.00154398	0.00192467	8.97935E-05	2.3111E-05	0	0	0	
0.169833	-0.00164393	-0.000360978	0.00013372	3.60942E-05	0	0	0	
0.17	0.00609503	-0.00293975	0.000197442	4.0994E-05	0	0	0	
0.170167	-0.00742067	-0.000415664	0.00022757	4.47503E-05	0	0	0	
0.170333	0.00411448	0.00334048	0.00019811	4.80846E-05	0	0	0	
0.1705	0.000161443	-0.00272329	0.000128561	5.38166E-05	0	0	0	
0.170667	-0.00261849	-0.00010175	7.72845E-05	4.97285E-05	0	0	0	
0.170833	0.00496226	-0.00102458	7.6662E-05	3.4721E-05	0	0	0	
0.171	-0.00409446	0.000325556	0.00013207	2.15517E-05	0	0	0	
0.171167	-0.00105056	0.00212755	0.000213254	3.67776E-05	0	0	0	
0.171333	0.00728372	-0.00284775	0.000264371	4.31973E-05	0	0	0	
0.1715	-0.00764518	-0.000272075	0.000265127	5.98418E-05	0	0	0	
0.171667	0.00565936	0.000141213	0.000212269	5.17227E-05	0	0	0	
0.171833	-0.00152164	0.000269907	0.000139958	4.34761E-05	0	0	0	
0.172	-0.00177205	-0.00128776	7.24352E-05	3.08666E-05	0	0	0	
0.172167	0.00167303	-0.000610167	4.52483E-05	2.07653E-05	0	0	0	
0.172333	0.00145161	0.00182524	7.06679E-05	2.75483E-05	0	0	0	
0.1725	-0.00404386	-0.000179451	0.000123322	2.93742E-05	0	0	0	
0.172667	0.00422409	-0.002616	0.000153694	3.88079E-05	0	0	0	
0.172833	-0.00227459	0.000894176	0.000138048	3.87817E-05	0	0	0	
0.173	0.000282961	0.00123992	9.90861E-05	3.71275E-05	0	0	0	
0.173167	-0.000792356	-0.00130751	8.10987E-05	2.81965E-05	0	0	0	
0.173333	0.00187672	0.000369906	9.45147E-05	2.3609E-05	0	0	0	
0.1735	-0.00213855	0.000385226	0.000121371	2.00062E-05	0	0	0	
0.173667	0.00332879	-0.000327424	0.000138389	2.20636E-05	0	0	0	
0.173833	-0.00400568	-0.000179517	0.000141465	2.21048E-05	0	0	0	
0.174	0.00321845	-0.000930774	0.000131796	1.9232E-05	0	0	0	
0.174167	-0.00136098	0.00123902	0.000114199	1.81567E-05	0	0	0	
0.174333	0.00210221	0.00161466	0.000103622	2.40875E-05	0	0	0	
0.1745	-0.00215589	-0.00158774	0.000112646	3.26195E-05	0	0	0	
0.174667	0.00221664	-0.000949124	0.000123535	3.82539E-05	0	0	0	
0.174833	-0.00229563	0.00190655	0.00012178	3.63244E-05	0	0	0	
0.175	0.00304679	0.000185513	0.000112219	3.85843E-05	0	0	0	
0.175167	-0.00310555	-0.00118229	0.000121195	3.78264E-05	0	0	0	
0.175333	0.00362957	0.000349775	0.000144799	3.40523E-05	0	0	0	
0.1755	-0.00414718	0.00107685	0.000167095	2.96538E-05	0	0	0	
0.175667	0.00499189	-0.000801674	0.000171858	2.99165E-05	0	0	0	
0.175833	-0.00618471	-0.00230073	0.000164761	4.08959E-05	0	0	0	
0.176	0.00419701	0.00214129	0.00014947	4.77745E-05	0	0	0	
0.176167	-0.000442582	0.00081766	0.000122102	5.3687E-05	0	0	0	
0.176333	-0.00204449	-0.00250133	0.000107803	4.66377E-05	0	0	0	
0.1765	0.000529	-0.000512525	0.000129507	4.78507E-05	0	0	0	
0.176667	0.00306769	0.00159391	0.000180753	3.38332E-05	0	0	0	
0.176833	-0.00514421	0.000219538	0.000215427	3.72014E-05	0	0	0	
0.177	0.00342793	0.00025268	0.00021274	3.50738E-05	0	0	0	
0.177167	-0.00345565	-0.00074256	0.000186391	3.60702E-05	0	0	0	
0.177333	0.00363322	0.00186312	0.000158016	4.24884E-05	0	0	0	
0.1775	7.79013E-05	-0.00198714	0.000116234	3.98786E-05	0	0	0	
0.177667	-0.00407304	-0.00125481	8.90074E-05	5.08025E-05	0	0	0	
0.177833	0.000405158	0.00193303	0.000116533	3.70377E-05	0	0	0	
0.178	0.00652115	0.0037499	0.000194165	5.7123E-05	0	0	0	
0.178167	-0.00640438	-0.00439743	0.000232961	6.43941E-05	0	0	0	
0.178333	0.00206413	-0.00338475	0.000191799	9.76636E-05	0	0	0	
0.1785	0.000538661	0.00361812	0.00011097	8.64465E-05	0	0	0	
0.178667	-0.000754642	0.0040076	8.27037E-05	0.000114582	0	0	0	
0.178833	0.000339874	-0.00261359	0.000103365	9.11891E-05	0	0	0	
0.179	0.00189979	-0.00364187	0.000158288	0.000107344	0	0	0	
0.179167	-0.00607286	0.00239729	0.000206106	7.26293E-05	0	0	0	
0.179333	0.00719629	0.00337268	0.000215392	8.97808E-05	0	0	0	
0.1795	-0.00246319	-0.00167505	0.000172128	6.52336E-05	0	0	0	
0.179667	-0.00199684	-0.00161353	9.73974E-05	7.75704E-05	0	0	0	
0.179833	0.00232519	0.00227643	7.88328E-05	5.25253E-05	0	0	0	
0.18	0.00213487	0.000808483	0.000119619	6.58738E-05	0	0	0	
0.180167	-0.00442751	-0.000797761	0.00017695	4.05924E-05	0	0	0	
0.180333	0.0040622	-0.00202489	0.000182368	4.97398E-05	0	0	0	
0.1805	-0.00322587	0.00180429	0.000146084	3.36213E-05	0	0	0	
0.180667	0.00155049	0.00136364	0.000105691	4.2226E-05	0	0	0	
0.180833	-0.000425054	-0.000771987	8.58927E-05	3.40615E-05	0	0	0	
0.181	0.00227848	-0.0022628	9.53962E-05	3.99129E-05	0	0	0	
0.181167	-0.00488177	0.00159906	0.000124317	3.82319E-05	0	0	0	
0.181333	0.00438483	0.000281927	0.0001478	3.34448E-05	0	0	0	
0.1815	-0.00262705	0.00125221	0.000137562	3.22298E-05	0	0	0	
0.181667	0.00014961	-0.00110298	0.000106851	3.47974E-05	0	0	0	
0.181833	0.000819123	-0.000135586	8.38666E-05	3.38268E-05	0	0	0	
0.182	-0.00080663	0.002091	8.87831E-05	2.96126E-05	0	0	0	
0.182167	-0.000315334	-0.000408652	0.000116479	2.53468E-05	0	0	0	
0.182333	0.00235818	-0.0004382	0.00014965	3.93383E-05	0	0	0	
0.1825	-0.0039551	0.000717057	0.000166272	3.14877E-05	0	0	0	
0.182667	0.00434521	0.00232896	0.00015641	3.61965E-05	0	0	0	
0.182833	-0.00221196	-0.00115111	0.000120949	3.00955E-05	0	0	0	
0.183	-0.00198891	-0.0013565	7.50573E-05	4.016E-05	0	0	0	
0.183167	0.00442182	0.0015189	5.9499E-05	4.31733E-05	0	0	0	
0.183333	-0.0014896	0.00265692	9.03236E-05	5.47992E-05	0	0	0	
0.1835	-0.00349591	-0.0011856	0.000152132	5.5529E-05	0	0	0	
0.183667	0.00601551	-0.00342131	0.000187976	6.07478E-05	0	0	0	
0.183833	-0.00443303	0.00101484	0.000185286	5.06166E-05	0	0	0	
0.184	0.00194539	0.00251775	0.000146681	6.64206E-05	0	0	0	
0.184167	-0.000101572	-0.000330948	0.000106603	5.49049E-05	0	0	0	
0.184333	5.35015E-05	-0.00323485	9.13336E-05	7.0901E-05	0	0	0	
0.1845	-0.00253859	0.00122819	0.000116314	5.72188E-05	0	0	0	
0.184667	0.00433425	0.0033989	0.000153872	7.35408E-05	0	0	0	
0.184833	-0.00362455	-0.00163013	0.000164302	5.80387E-05	0	0	0	
0.185	0.00151243	-0.00245225	0.000141076	6.36448E-05	0	0	0	
0.185167	-0.000606895	0.00140631	0.000119355	4.88627E-05	0	0	0	
0.185333	0.00225279	0.00245211	0.000131137	5.42644E-05	0	0	0	
0.1855	-0.00454637	-0.00205729	0.000159755	4.65283E-05	0	0	0	
0.185667	0.00509721	-0.00179025	0.000167569	5.24231E-05	0	0	0	
0.185833	-0.00250103	0.00247982	0.000141214	4.6929E-05	0	0	0	
0.186	0.000925047	0.00162708	0.000105821	6.22852E-05	0	0	0	
0.186167	-0.000945716	-0.00258071	9.61559E-05	5.61414E-05	0	0	0	
0.186333	0.00246096	-0.000603323	0.000112074	5.72429E-05	0	0	0	
0.1865	-0.00412667	0.000862047	0.00014097	3.58141E-05	0	0	0	
0.186667	0.0057765	0.000114646	0.000156183	3.12322E-05	0	0	0	
0.186833	-0.00431248	0.000325605	0.000151937	1.83768E-05	0	0	0	
0.187	0.00153831	-0.00140417	0.000125326	2.23027E-05	0	0	0	
0.187167	-0.000197423	0.00117413	9.9681E-05	2.12778E-05	0	0	0	
0.187333	0.00062893	3.474E-06	0.000100049	2.84577E-05	0	0	0	
0.1875	-0.00215602	-0.000453087	0.000132209	2.33025E-05	0	0	0	
0.187667	0.00344495	0.000145186	0.000168334	1.88554E-05	0	0	0	
0.187833	-0.00399876	-0.000419826	0.000177976	1.4377E-05	0	0	0	
0.188	0.00274318	0.00104807	0.000156883	1.90866E-05	0	0	0	
0.188167	-7.02912E-05	-0.00102198	0.000116672	2.31565E-05	0	0	0	
0.188333	-0.0021276	0.000462112	8.65169E-05	2.24551E-05	0	0	0	
0.1885	0.00220783	7.22219E-05	8.92421E-05	1.53988E-05	0	0	0	
0.188667	-0.00154531	-0.000671718	0.000121935	1.44107E-05	0	0	0	
0.188833	-0.000307233	0.00169858	0.000155142	2.49546E-05	0	0	0	
0.189	0.00180346	-0.000357572	0.000168941	3.74582E-05	0	0	0	
0.189167	-0.00222499	-0.000649865	0.000158569	3.40815E-05	0	0	0	
0.189333	0.000547892	-0.00119956	0.000128534	2.70985E-05	0	0	0	
0.1895	0.00122825	0.00129829	0.000100338	1.77038E-05	0	0	0	
0.189667	-0.000576386	0.000183991	9.90826E-05	2.88144E-05	0	0	0	
0.189833	-0.00114276	0.000120494	0.000116769	2.82747E-05	0	0	0	
0.19	0.00176477	-0.000982598	0.000126431	2.90504E-05	0	0	0	
0.190167	-0.00217379	0.000456678	0.000119645	1.81192E-05	0	0	0	
0.190333	0.00189487	0.00132671	0.000110266	1.56503E-05	0	0	0	
0.1905	-0.00136512	0.000410937	0.000105314	1.20553E-05	0	0	0	
0.190667	0.000961081	-0.00223827	0.000104129	1.90688E-05	0	0	0	
0.190833	-0.00195984	-0.000121026	0.000104697	2.63348E-05	0	0	0	
0.191	0.00135962	0.00200963	0.000101348	4.17787E-05	0	0	0	
0.191167	-0.00072616	0.00066153	9.67802E-05	4.88588E-05	0	0	0	
0.191333	0.00292272	-0.00334084	0.000116529	6.49747E-05	0	0	0	
0.1915	-0.00649037	0.000409527	0.000152788	6.56537E-05	0	0	0	
0.191667	0.00471324	0.00393422	0.000165893	7.42389E-05	0	0	0	
0.191833	0.000640297	7.26053E-05	0.000128076	7.59561E-05	0	0	0	
0.192	-0.000859449	-0.00409812	9.90165E-05	8.13515E-05	0	0	0	
0.192167	-0.00283512	-0.00188158	0.000123562	8.57331E-05	0	0	0	
0.192333	0.0046728	0.00585487	0.000170752	7.65362E-05	0	0	0	
0.1925	-0.00507612	0.00141458	0.000190181	9.30783E-05	0	0	0	
0.192667	0.00597821	-0.00420337	0.000170764	8.37685E-05	0	0	0	
0.192833	-0.00353237	-0.00021743	0.000139456	9.50199E-05	0	0	0	
0.193	-0.00123499	0.00180796	9.63183E-05	6.91842E-05	0	0	0	
0.193167	0.00418411	8.08912E-05	7.97008E-05	6.97182E-05	0	0	0	
0.193333	-0.00191602	-0.00222971	0.000114336	5.33782E-05	0	0	0	
0.1935	-0.00202869	-0.000485051	0.00018864	5.12312E-05	0	0	0	
0.193667	0.0046343	0.00318353	0.000223265	4.45254E-05	0	0	0	
0.193833	-0.00293713	-0.000168522	0.000195423	4.60735E-05	0	0	0	
0.194	0.00156475	-0.00223606	0.000140286	5.56963E-05	0	0	0	
0.194167	-0.00256239	0.0010537	0.000115433	4.83046E-05	0	0	0	
0.194333	0.00209743	0.000690156	0.000111826	5.19298E-05	0	0	0	
0.1945	4.7706E-05	-0.00140615	0.000102557	3.20209E-05	0	0	0	
0.194667	-0.00141766	0.00101008	8.56238E-05	4.05625E-05	0	0	0	
0.194833	0.00101258	0.00108914	8.76897E-05	2.77473E-05	0	0	0	
0.195	0.00110107	8.33875E-05	0.000120035	3.12637E-05	0	0	0	
0.195167	-0.00453824	-0.00100042	0.000154097	3.16948E-05	0	0	0	
0.195333	0.00507868	-0.000784614	0.000165401	3.18636E-05	0	0	0	
0.1955	-0.00381769	0.00257671	0.000147607	3.61258E-05	0	0	0	
0.195667	0.00309742	-0.0016046	0.000120693	3.4295E-05	0	0	0	
0.195833	-0.00242601	-0.000249202	0.000105014	4.07498E-05	0	0	0	
0.196	0.0016964	0.00028392	0.000106038	3.31495E-05	0	0	0	
0.196167	-0.00181274	0.00221523	0.000116024	3.36398E-05	0	0	0	
0.196333	0.00259187	-0.00201011	0.000127737	3.14988E-05	0	0	0	
0.1965	-0.00318651	0.000412913	0.000139746	4.05471E-05	0	0	0	
0.196667	0.0035373	0.00143008	0.000147671	3.13319E-05	0	0	0	
0.196833	-0.00432666	0.000133624	0.00014818	3.5554E-05	0	0	0	
0.197	0.00416238	-0.00225744	0.000146025	4.03147E-05	0	0	0	
0.197167	-0.00328426	0.000796828	0.000142325	4.3688E-05	0	0	0	
0.197333	0.00242577	0.00126127	0.00013805	3.39398E-05	0	0	0	
0.1975	-0.00169077	-0.000395508	0.000135482	2.48813E-05	0	0	0	
0.197667	0.00258456	-0.000566242	0.00014268	2.87921E-05	0	0	0	
0.197833	-0.00460363	-5.06133E-05	0.000156178	2.85776E-05	0	0	0	
0.198	0.00369962	0.00153621	0.000158302	3.33233E-05	0	0	0	
0.198167	-0.0021964	-0.000328402	0.000136821	2.86983E-05	0	0	0	
0.198333	0.00117271	-0.00146718	0.00011632	3.7364E-05	0	0	0	
0.1985	-0.00126499	-0.000960477	0.000109199	3.45704E-05	0	0	0	
0.198667	-0.00242754	0.00323494	0.000111032	4.47442E-05	0	0	0	
0.198833	0.00181672	0.00313013	0.0001562	5.94027E-05	0	0	0	
0.199	-0.0843162	0.0263822	0.000545529	0.000194708	0	0	0	
0.199167	0.000684368	0.00156696	0.000660334	0.000236168	0	0	0	
0.199333	-0.00525881	-0.00262722	0.000604902	0.000229158	0	0	0	
0.1995	-0.00528611	0.00302018	0.000252225	0.000113876	0	0	0	
0.199667	0.00390998	-0.00277851	0.000131555	6.88139E-05	0	0	0	
0.199833	-0.0187584	0.00533504	0.000213352	9.67812E-05	0	0	0	
0.2	0.0119477	-0.00153794	0.000224124	8.31966E-05	0	0	0	
0.200167	-0.00573349	-8.99715E-05	0.000267295	7.83144E-05	0	0	0	
0.200333	0.0027099	0.001234	0.000230877	3.62109E-05	0	0	0	
0.2005	-0.00302636	-0.000513227	0.0002556	2.71085E-05	0	0	0	
0.200667	0.00763845	0.000175558	0.000263964	1.91375E-05	0	0	0	
0.200833	-0.00159168	-0.000132854	0.000215978	1.20667E-05	0	0	0	
0.201	-0.00803699	0.00100689	0.000136757	7.02967E-06	0	0	0	
0.201167	0.0124402	-0.00325665	0.00014216	1.92345E-05	0	0	0	
0.201333	-0.00643222	0.00139786	0.000286062	3.04077E-05	0	0	0	
0.2015	0.000503568	0.000433123	0.000444161	4.71908E-05	0	0	0	
0.201667	0.00447676	-0.0018541	0.000492068	4.61023E-05	0	0	0	
0.201833	-0.00535412	-0.00107543	0.0003739	4.51501E-05	0	0	0	
0.202	-0.000680818	0.00576874	0.000198768	4.32785E-05	0	0	0	
0.202167	0.00897499	-0.00327103	9.70248E-05	6.39005E-05	0	0	0	
0.202333	-0.00995238	-0.00150326	0.000108661	8.88591E-05	0	0	0	
0.2025	0.00254193	0.00238004	0.000194211	8.62537E-05	0	0	0	
0.202667	0.00506205	0.000765228	0.000282874	7.43431E-05	0	0	0	
0.202833	-0.00748797	-0.00150413	0.00028811	4.75965E-05	0	0	0	
0.203	0.00332524	0.00110556	0.000215243	4.04068E-05	0	0	0	
0.203167	0.002218	-0.00228401	0.000123974	4.03111E-05	0	0	0	
0.203333	-0.00321181	0.00351792	7.2064E-05	5.16094E-05	0	0	0	
0.2035	0.000593353	-0.0012514	8.45642E-05	5.96035E-05	0	0	0	
0.203667	0.00132098	-0.000897639	0.000106474	4.93263E-05	0	0	0	
0.203833	-0.000735637	0.000333254	0.000126601	3.26636E-05	0	0	0	
0.204	0.000167302	0.000343103	0.000102647	2.03772E-05	0	0	0	
0.204167	-0.000114665	0.000487302	7.21642E-05	1.07286E-05	0	0	0	
0.204333	0.00125968	-0.0021886	7.13895E-05	1.66991E-05	0	0	0	
0.2045	-0.00227214	0.000763594	8.89903E-05	2.67299E-05	0	0	0	
0.204667	0.00172105	2.78129E-05	9.21665E-05	3.55296E-05	0	0	0	
0.204833	-0.00021446	7.39417E-05	7.09403E-05	2.52104E-05	0	0	0	
0.205	-0.0022597	-0.000567214	4.42853E-05	1.25594E-05	0	0	0	
0.205167	0.00281011	-0.000346539	4.18644E-05	1.32817E-05	0	0	0	
0.205333	0.00393313	0.00470494	8.72826E-05	3.50787E-05	0	0	0	
0.2055	-0.00785661	-0.00546235	0.00015004	6.91303E-05	0	0	0	
0.205667	0.00323279	0.00231045	0.000167566	8.78325E-05	0	0	0	
0.205833	0.00223376	0.00239805	0.000119613	9.67091E-05	0	0	0	
0.206	0.000240815	-0.00410219	9.1342E-05	8.94529E-05	0	0	0	
0.206167	-0.00453084	0.0038713	0.000108715	8.27588E-05	0	0	0	
0.206333	0.00286634	-0.00182328	0.000119698	7.49464E-05	0	0	0	
0.2065	0.00108477	-0.00453642	9.43006E-05	0.000131666	0	0	0	
0.206667	-0.00197349	0.00899644	5.9278E-05	0.000206411	0	0	0	
0.206833	0.00202035	-0.00486156	8.6238E-05	0.000225888	0	0	0	
0.207	-0.00225762	-0.00575175	0.000104247	0.0001959	0	0	0	
0.207167	0.00246451	0.00574002	0.00011457	0.000132866	0	0	0	
0.207333	0.00168161	0.00113105	0.000107554	0.000127674	0	0	0	
0.2075	-0.00632629	-0.00405065	0.000107325	9.202E-05	0	0	0	
0.207667	0.00620624	0.000744173	0.000124988	8.57459E-05	0	0	0	
0.207833	0.00245911	0.000954494	0.000105292	7.81537E-05	0	0	0	
0.208	-0.00299739	-0.000627995	9.71868E-05	6.54798E-05	0	0	0	
0.208167	-0.00282666	-0.00353246	0.000110011	4.83885E-05	0	0	0	
0.208333	0.00498808	0.000767488	0.000130316	4.08604E-05	0	0	0	
0.2085	-0.00146299	-0.00104354	0.000120466	4.12637E-05	0	0	0	
0.208667	-0.00060091	0.00954466	6.32162E-05	6.01349E-05	0	0	0	
0.208833	0.000128462	-0.0097901	4.85489E-05	0.000103728	0	0	0	
0.209	0.00159801	0.0026505	7.96109E-05	0.000147585	0	0	0	
0.209167	-0.00318876	-0.000717963	0.000126429	0.000144032	0	0	0	
0.209333	0.0014108	0.00190256	0.000136303	9.81847E-05	0	0	0	
0.2095	0.000411641	-0.00307189	0.000102616	7.17529E-05	0	0	0	
0.209667	-0.000142486	0.00165779	7.5571E-05	5.7917E-05	0	0	0	
0.209833	-0.00208857	0.000896708	9.14112E-05	6.012E-05	0	0	0	
0.21	0.00337397	-0.00158679	0.000128746	4.48534E-05	0	0	0	
0.210167	-0.000810998	-0.0012956	0.000139621	4.97385E-05	0	0	0	
0.210333	0.000180803	0.00228261	0.000121262	4.50109E-05	0	0	0	
0.2105	-0.0005934	-0.00107412	0.000105846	5.48966E-05	0	0	0	
0.210667	-0.000861961	-0.000273279	8.60076E-05	5.23832E-05	0	0	0	
0.210833	0.00413839	-0.000825215	7.45354E-05	3.7711E-05	0	0	0	
0.211	-0.00334388	0.00233972	9.37328E-05	3.63482E-05	0	0	0	
0.211167	-0.00153337	-0.000203387	0.000154718	3.96587E-05	0	0	0	
0.211333	0.00488898	-6.09341E-05	0.000189345	4.42335E-05	0	0	0	
0.2115	-0.00432657	-0.00155499	0.000165864	3.16767E-05	0	0	0	
0.211667	0.000787751	0.000991863	0.000105398	2.21161E-05	0	0	0	
0.211833	0.00149052	-0.000589643	5.32223E-05	1.92086E-05	0	0	0	
0.212	-0.00229039	0.00307854	4.0658E-05	2.30312E-05	0	0	0	
0.212167	0.00247276	-0.00158546	6.37094E-05	3.47088E-05	0	0	0	
0.212333	0.000352858	6.70129E-05	0.000118024	3.56948E-05	0	0	0	
0.2125	-0.00448251	0.000820228	0.000171647	3.22294E-05	0	0	0	
0.212667	0.00625557	0.000788829	0.000193318	3.32532E-05	0	0	0	
0.212833	-0.00158864	-0.00200986	0.000164244	4.39903E-05	0	0	0	
0.213	-0.000305414	0.000714686	0.000106277	4.79722E-05	0	0	0	
0.213167	-0.00136259	0.00188051	9.97068E-05	5.20849E-05	0	0	0	
0.213333	0.00345603	-0.00203833	0.000136046	5.50867E-05	0	0	0	
0.2135	-0.00279402	-0.00123649	0.000169393	5.32143E-05	0	0	0	
0.213667	0.00172762	0.00244074	0.000151469	3.93464E-05	0	0	0	
0.213833	-0.000194948	-0.00134283	0.000115385	3.51865E-05	0	0	0	
0.214	-0.00136005	0.000126907	8.76282E-05	3.95629E-05	0	0	0	
0.214167	0.00247401	-0.000277024	8.46846E-05	3.10208E-05	0	0	0	
0.214333	-0.00320787	0.00150886	0.000117742	2.71893E-05	0	0	0	
0.2145	-0.000906778	-0.000821645	0.000166735	2.78935E-05	0	0	0	
0.214667	0.00256195	0.00126397	0.000189696	3.2235E-05	0	0	0	
0.214833	-0.00215919	-0.00182318	0.000165238	3.14703E-05	0	0	0	
0.215	0.000803283	0.00153358	0.000119606	2.97098E-05	0	0	0	
0.215167	0.000298629	7.36002E-05	8.01908E-05	2.94064E-05	0	0	0	
0.215333	-0.000466624	-0.00285868	6.49054E-05	3.0243E-05	0	0	0	
0.2155	-0.000341156	0.00222946	7.21264E-05	3.88573E-05	0	0	0	
0.215667	0.000702118	-0.00135299	8.78371E-05	4.19799E-05	0	0	0	
0.215833	-0.00110214	0.000960565	0.000101392	4.05574E-05	0	0	0	
0.216	0.00225349	-0.00144535	0.000113364	3.30672E-05	0	0	0	
0.216167	-0.00234687	0.00081	0.00011553	2.9396E-05	0	0	0	
0.216333	0.00104684	-0.000223686	9.7147E-05	2.39964E-05	0	0	0	
0.2165	0.000567191	-0.000794624	7.33453E-05	1.68344E-05	0	0	0	
0.216667	0.0003728	0.00113393	7.63998E-05	2.23209E-05	0	0	0	
0.216833	-0.00214096	0.000672695	0.000106771	2.72674E-05	0	0	0	
0.217	0.0026913	-0.00112036	0.000131872	3.41827E-05	0	0	0	
0.217167	-0.001259	0.000641469	0.000122795	3.49124E-05	0	0	0	
0.217333	0.00075018	-0.000808301	9.22661E-05	3.37531E-05	0	0	0	
0.2175	-0.000785702	0.000857902	7.00429E-05	2.72277E-05	0	0	0	
0.217667	0.00062968	-0.00160906	6.65427E-05	2.30805E-05	0	0	0	
0.217833	0.000842424	0.00119915	7.91287E-05	2.56424E-05	0	0	0	
0.218	0.00015378	0.000423273	0.000106186	2.51933E-05	0	0	0	
0.218167	-0.00184252	0.000801933	0.00013572	1.97757E-05	0	0	0	
0.218333	0.00125834	-0.00124077	0.000138347	1.57389E-05	0	0	0	
0.2185	-0.000927975	-0.00100013	0.000119528	2.68132E-05	0	0	0	
0.218667	0.006332	0.00664771	0.000114766	4.77482E-05	0	0	0	
0.218833	-0.00532449	-0.00693948	0.000131479	8.38993E-05	0	0	0	
0.219	-0.00139434	0.00103138	0.000118648	0.000130765	0	0	0	
0.219167	0.00257894	0.00554069	0.000105494	0.000162386	0	0	0	
0.219333	0.00295645	-0.00716858	0.000136033	0.000166174	0	0	0	
0.2195	-0.00415969	0.00583711	0.00017387	0.000139969	0	0	0	
0.219667	0.000734837	-0.000989731	0.000155244	0.0001235	0	0	0	
0.219833	0.000964598	-0.0111043	9.1534E-05	0.000203549	0	0	0	
0.22	-0.000434118	0.0169191	7.66426E-05	0.000295276	0	0	0	
0.220167	0.00106681	-0.00474352	0.00010117	0.000316267	0	0	0	
0.220333	-0.00109858	-0.00694644	0.000131802	0.000258447	0	0	0	
0.2205	-5.805E-05	0.00542743	0.000154143	0.000166932	0	0	0	
0.220667	0.00364097	0.00246165	0.000162875	0.000157301	0	0	0	
0.220833	-0.00237611	-0.00269373	0.00013519	0.000104614	0	0	0	
0.221	-0.000534745	-0.00394548	8.15981E-05	9.58441E-05	0	0	0	
0.221167	0.00265739	0.00283854	5.50159E-05	7.22796E-05	0	0	0	
0.221333	0.000406625	0.000856793	9.73025E-05	7.26924E-05	0	0	0	
0.2215	-0.00314534	-0.00301031	0.000155956	5.50319E-05	0	0	0	
0.221667	0.00293915	-2.69134E-05	0.000170191	4.83755E-05	0	0	0	
0.221833	-0.000729049	-0.0012447	0.000119025	3.78368E-05	0	0	0	
0.222	-0.00193662	0.00909881	5.57233E-05	5.51685E-05	0	0	0	
0.222167	0.00207326	-0.00768608	4.32963E-05	9.22972E-05	0	0	0	
0.222333	-0.000199925	0.00229478	8.48794E-05	0.000148519	0	0	0	
0.2225	-0.000864074	0.00134787	0.000132923	0.000135209	0	0	0	
0.222667	-0.000173844	0.00154103	0.000138393	0.000103031	0	0	0	
0.222833	-0.000347267	-0.00322562	0.000107746	6.32472E-05	0	0	0	
0.223	0.00222674	0.000883559	8.25642E-05	5.99016E-05	0	0	0	
0.223167	-0.00313405	0.00162389	7.98982E-05	4.50466E-05	0	0	0	
0.223333	0.000947765	-0.000678552	7.39768E-05	3.49943E-05	0	0	0	
0.2235	0.0024125	-0.00141276	5.63979E-05	4.13022E-05	0	0	0	
0.223667	-0.00127917	0.00100099	6.0251E-05	4.64243E-05	0	0	0	
0.223833	-0.000502264	0.000928855	0.000100733	6.82159E-05	0	0	0	
0.224	0.00294636	-0.000961761	0.000141602	6.37344E-05	0	0	0	
0.224167	-0.00573552	-0.000158541	0.000155023	5.16839E-05	0	0	0	
0.224333	0.00908342	-0.00116672	0.000156913	3.72721E-05	0	0	0	
0.2245	-0.00715976	0.00221694	0.000155327	4.93709E-05	0	0	0	
0.224667	0.00211392	-0.00037323	0.000141584	5.12168E-05	0	0	0	
0.224833	0.0037998	-0.000916244	0.000117947	4.02677E-05	0	0	0	
0.225	-0.00481192	-0.000180905	9.05662E-05	1.8632E-05	0	0	0	
0.225167	0.00195208	-0.00172103	0.000102922	2.61593E-05	0	0	0	
0.225333	0.00479052	0.00974238	0.000138937	4.93984E-05	0	0	0	
0.2255	-0.00693616	-0.00821259	0.000196885	0.000107475	0	0	0	
0.225667	0.0107233	0.00172477	0.000224958	0.000138814	0	0	0	
0.225833	-0.0127257	0.00100225	0.000229412	0.000112138	0	0	0	
0.226	0.00936354	0.00245511	0.000220478	8.88515E-05	0	0	0	
0.226167	-0.000741791	-0.00407654	0.000178883	7.1512E-05	0	0	0	
0.226333	-0.00233595	0.000849569	0.000111035	8.5991E-05	0	0	0	
0.2265	-5.93009E-05	0.00403661	8.29935E-05	7.92822E-05	0	0	0	
0.226667	0.00255159	-0.00445923	0.000111895	7.68308E-05	0	0	0	
0.226833	-0.00251404	-0.000256134	0.000159465	8.09713E-05	0	0	0	
0.227	0.00281905	0.00216121	0.000169395	6.39127E-05	0	0	0	
0.227167	-0.00185694	-0.000744455	0.000149727	5.17634E-05	0	0	0	
0.227333	-0.000730472	0.000146182	0.000102115	3.6415E-05	0	0	0	
0.2275	0.00522825	-0.000770439	6.48193E-05	2.79884E-05	0	0	0	
0.227667	-0.00886334	0.00108285	8.50885E-05	3.49112E-05	0	0	0	
0.227833	0.00359734	0.000408773	0.000161189	4.4191E-05	0	0	0	
0.228	0.0023826	0.000165677	0.000216016	4.25705E-05	0	0	0	
0.228167	-0.00299498	-0.00229122	0.000177145	3.23631E-05	0	0	0	
0.228333	0.00106547	0.00160317	0.000110487	2.54445E-05	0	0	0	
0.2285	-0.00520577	0.00105996	8.75639E-05	3.93559E-05	0	0	0	
0.228667	0.0184972	-0.0035773	0.00013805	4.3712E-05	0	0	0	
0.228833	-0.0179211	0.00292333	0.000249815	5.5371E-05	0	0	0	
0.229	-0.00082479	-0.000785433	0.000376413	5.35499E-05	0	0	0	
0.229167	0.015266	0.00230861	0.000435328	5.313E-05	0	0	0	
0.229333	-0.012419	-0.00268141	0.000380001	5.02114E-05	0	0	0	
0.2295	0.00435986	0.000820214	0.000314694	4.41172E-05	0	0	0	
0.229667	0.00906533	0.000158597	0.000325112	3.31893E-05	0	0	0	
0.229833	-0.0285517	0.00115105	0.000441437	2.52676E-05	0	0	0	
0.23	0.0313464	-0.00135309	0.000546936	2.87941E-05	0	0	0	
0.230167	-0.0181882	0.000314311	0.000548578	3.12402E-05	0	0	0	
0.230333	-0.00420739	0.000303809	0.00048452	2.17237E-05	0	0	0	
0.2305	0.0128077	5.44359E-06	0.000343498	1.48E-05	0	0	0	
0.230667	-0.00696763	0.000729843	0.000266312	1.24183E-05	0	0	0	
0.230833	-0.0033155	-0.00197322	0.000239841	1.6922E-05	0	0	0	
0.231	0.00763087	0.00169938	0.000249579	3.58761E-05	0	0	0	
0.231167	-0.00311063	0.00156102	0.000228333	6.59248E-05	0	0	0	
0.231333	-0.00239366	-0.00161209	0.000137931	6.36969E-05	0	0	0	
0.2315	0.00428508	-0.00130933	8.03877E-05	6.32272E-05	0	0	0	
0.231667	-0.000465949	0.00235121	7.48096E-05	4.54764E-05	0	0	0	
0.231833	-0.00221629	0.000596987	0.000103526	5.65558E-05	0	0	0	
0.232	0.00330366	-0.00431239	0.000105945	4.9064E-05	0	0	0	
0.232167	-0.00361677	0.00180689	0.000100105	5.62556E-05	0	0	0	
0.232333	0.00419812	0.00203663	9.55442E-05	7.13042E-05	0	0	0	
0.2325	-0.00204784	-0.00207982	9.30895E-05	6.82896E-05	0	0	0	
0.232667	-0.000689339	-0.0019495	7.24173E-05	8.97798E-05	0	0	0	
0.232833	2.66061E-05	0.00103307	6.47471E-05	7.18451E-05	0	0	0	
0.233	0.00209485	0.00120634	7.19667E-05	6.11078E-05	0	0	0	
0.233167	-0.00127961	0.00483739	8.36212E-05	8.7023E-05	0	0	0	
0.233333	-0.000925748	-0.0068909	7.71035E-05	0.000146713	0	0	0	
0.2335	0.00248336	-0.00277405	8.65444E-05	0.000184142	0	0	0	
0.233667	-0.000349822	0.0148345	0.000131218	0.000185585	0	0	0	
0.233833	-0.0021336	-0.0100478	0.000188109	0.000204643	0	0	0	
0.234	0.00415483	-0.00437109	0.000199423	0.00026027	0	0	0	
0.234167	-0.00313714	0.00584236	0.000157395	0.000218265	0	0	0	
0.234333	-0.000854214	0.000586218	8.908E-05	0.000174747	0	0	0	
0.2345	0.0051538	-0.00107409	5.67423E-05	0.000103675	0	0	0	
0.234667	-0.00441157	-0.00216133	7.15738E-05	8.94471E-05	0	0	0	
0.234833	0.0014839	0.00640217	0.00012413	6.69819E-05	0	0	0	
0.235	0.00106239	-0.00161665	0.000151682	7.88278E-05	0	0	0	
0.235167	-0.000644194	-0.00111372	0.000125176	8.44221E-05	0	0	0	
0.235333	-0.00249335	-0.00121187	7.35708E-05	6.66714E-05	0	0	0	
0.2355	0.00323139	0.00127446	5.27508E-05	3.94305E-05	0	0	0	
0.235667	-0.000123804	0.00219024	8.17695E-05	3.32996E-05	0	0	0	
0.235833	-0.00191779	-0.000884531	0.000124451	5.11958E-05	0	0	0	
0.236	0.00290705	-0.00407319	0.000148065	0.000107362	0	0	0	
0.236167	-0.00330741	0.00496611	0.000138118	0.00013718	0	0	0	
0.236333	0.00107947	-0.000948069	0.000100115	0.000128328	0	0	0	
0.2365	0.000511526	-0.00199306	5.66407E-05	8.26146E-05	0	0	0	
0.236667	0.000367651	0.00108826	3.20196E-05	4.64627E-05	0	0	0	
0.236833	-0.000989214	0.000398897	5.5103E-05	3.64763E-05	0	0	0	
0.237	0.00182115	0.000234613	8.95708E-05	2.20188E-05	0	0	0	
0.237167	-0.00108074	-0.000992712	0.000110551	2.94731E-05	0	0	0	
0.237333	0.00108753	0.00181646	9.24625E-05	3.44178E-05	0	0	0	
0.2375	-0.000899543	-0.00280542	6.51373E-05	3.9323E-05	0	0	0	
0.237667	0.000145072	0.0049273	5.19023E-05	5.92844E-05	0	0	0	
0.237833	0.000451772	-5.68977E-05	5.59774E-05	8.73121E-05	0	0	0	
0.238	-0.00120276	-0.0038019	7.48396E-05	0.000107446	0	0	0	
0.238167	0.00135979	0.00433846	0.000105403	9.53477E-05	0	0	0	
0.238333	0.000812178	-0.000736669	0.000130628	8.3324E-05	0	0	0	
0.2385	-0.00301833	-0.000200657	0.000134272	6.24597E-05	0	0	0	
0.238667	0.00593603	0.00104949	0.000120556	4.21395E-05	0	0	0	
0.238833	-0.00211227	-0.00377595	0.000105083	3.64915E-05	0	0	0	
0.239	-0.000752748	0.00477376	8.36906E-05	5.40359E-05	0	0	0	
0.239167	0.00189795	-0.00106744	8.10738E-05	9.02451E-05	0	0	0	
0.239333	-0.000738386	-0.00573758	8.76441E-05	0.000131982	0	0	0	
0.2395	-0.000177467	0.00568872	9.68457E-05	0.000143819	0	0	0	
0.239667	0.000296342	-0.00122672	9.1116E-05	0.000131717	0	0	0	
0.239833	-0.000335421	-0.0038608	9.97357E-05	0.000114174	0	0	0	
0.24	0.000754981	0.00412965	0.000128053	0.000115334	0	0	0	
0.240167	-0.000623633	-0.0017097	0.000142141	0.000107293	0	0	0	
0.240333	0.000871806	-0.000839925	0.000122847	6.51089E-05	0	0	0	
0.2405	-0.000378151	0.000428393	8.77014E-05	3.09637E-05	0	0	0	
0.240667	0.000228392	0.000267263	6.16318E-05	2.13136E-05	0	0	0	
0.240833	-0.000530205	-0.000195179	5.07223E-05	2.11043E-05	0	0	0	
0.241	-1.64762E-05	-0.00109561	5.44761E-05	2.09132E-05	0	0	0	
0.241167	0.000998611	0.00159515	7.43314E-05	1.99633E-05	0	0	0	
0.241333	0.0020711	-0.00220874	0.000110232	2.79042E-05	0	0	0	
0.2415	-0.00474546	0.00229126	0.000142149	3.41503E-05	0	0	0	
0.241667	0.00385523	-0.0011823	0.000141131	3.69827E-05	0	0	0	
0.241833	-0.000613857	-0.000173184	0.000103634	3.42863E-05	0	0	0	
0.242	0.000770215	0.000986471	6.82654E-05	2.62085E-05	0	0	0	
0.242167	0.000206484	-0.000575235	7.85045E-05	2.57411E-05	0	0	0	
0.242333	0.00155792	-0.000744855	0.000114773	2.89647E-05	0	0	0	
0.2425	-0.00204728	0.00061629	0.000149598	3.02323E-05	0	0	0	
0.242667	0.00199761	0.00175738	0.000154397	4.37035E-05	0	0	0	
0.242833	-0.00151346	-0.00267449	0.000131958	4.83859E-05	0	0	0	
0.243	0.000327915	0.000473059	9.54419E-05	5.59064E-05	0	0	0	
0.243167	0.0012012	0.00277044	7.83535E-05	5.90867E-05	0	0	0	
0.243333	0.000205772	-0.00365688	0.000101072	6.00578E-05	0	0	0	
0.2435	-0.000990726	0.000655014	0.000145139	5.64123E-05	0	0	0	
0.243667	0.00233697	-0.000501911	0.000173956	3.62726E-05	0	0	0	
0.243833	-0.00215291	0.00093167	0.000163574	2.58299E-05	0	0	0	
0.244	0.000682298	-0.000148821	0.000115783	1.79317E-05	0	0	0	
0.244167	0.00224085	-0.000410665	6.38098E-05	1.30474E-05	0	0	0	
0.244333	-0.00451328	0.000843248	5.60457E-05	1.37741E-05	0	0	0	
0.2445	0.00312659	-0.00120548	0.000100036	2.64014E-05	0	0	0	
0.244667	-0.000290423	-0.000656512	0.000159215	3.95274E-05	0	0	0	
0.244833	-0.00121824	0.00120652	0.000180683	4.37454E-05	0	0	0	
0.245	0.00127676	-0.000958998	0.000159361	3.65066E-05	0	0	0	
0.245167	-0.00180129	1.54308E-05	0.000116547	2.495E-05	0	0	0	
0.245333	0.00214853	0.00127828	8.01009E-05	1.48528E-05	0	0	0	
0.2455	0.000843668	0.000480401	5.9576E-05	1.14798E-05	0	0	0	
0.245667	-0.00411006	-0.000115511	6.62628E-05	1.08425E-05	0	0	0	
0.245833	0.00304152	-0.00138811	8.81612E-05	2.395E-05	0	0	0	
0.246	-0.00196503	0.00383736	0.000117683	4.53888E-05	0	0	0	
0.246167	-0.000323916	-0.00197965	0.000125224	6.00874E-05	0	0	0	
0.246333	0.00280826	0.00137663	0.000117658	5.26023E-05	0	0	0	
0.2465	-0.00200814	-0.00139022	9.03238E-05	4.09203E-05	0	0	0	
0.246667	-0.00382043	-0.00124017	6.35816E-05	6.92963E-05	0	0	0	
0.246833	0.00295663	0.00874404	6.13224E-05	0.000104952	0	0	0	
0.247	0.00281292	-0.00548567	0.000121266	0.000134956	0	0	0	
0.247167	-0.00512532	0.00153237	0.00016759	0.000164528	0	0	0	
0.247333	0.00119457	0.00308925	0.000153471	0.000168738	0	0	0	
0.2475	0.00149058	-0.00509118	8.18016E-05	0.000145587	0	0	0	
0.247667	-1.81146E-05	0.010544	5.96406E-05	0.000131085	0	0	0	
0.247833	-0.00260732	-0.00203502	9.0092E-05	0.000137918	0	0	0	
0.248	0.000416772	-0.00231562	0.000135152	0.00014998	0	0	0	
0.248167	-0.000527037	0.000545361	0.00016173	0.000101857	0	0	0	
0.248333	0.00236169	0.00296065	0.000169872	6.68224E-05	0	0	0	
0.2485	-0.00323862	0.0004186	0.000149195	5.26419E-05	0	0	0	
0.248667	0.00236124	-0.00639461	0.000106507	6.56974E-05	0	0	0	
0.248833	3.62865E-05	0.00102604	7.5806E-05	7.98597E-05	0	0	0	
0.249	0.0834874	-0.0274892	0.000410495	0.000225438	0	0	0	
0.249167	-0.00669499	-0.00284753	0.000616116	0.00025692	0	0	0	
0.249333	0.0112908	0.00299467	0.000693589	0.000251292	0	0	0	
0.2495	0.00134569	-0.00122557	0.000433638	0.000112188	0	0	0	
0.249667	-0.00210538	0.000609611	0.000259237	6.25329E-05	0	0	0	
0.249833	0.0167593	-0.00252212	0.000280016	6.35838E-05	0	0	0	
0.25	-0.00965217	0.000348265	0.000274122	5.93454E-05	0	0	0	
0.250167	0.000771582	0.00187505	0.000328531	6.87475E-05	0	0	0	
0.250333	0.0049909	6.23602E-05	0.000299713	4.69138E-05	0	0	0	
0.2505	-0.00563632	-0.0020788	0.00028012	3.23916E-05	0	0	0	
0.250667	0.00491669	0.000621857	0.000249678	4.5191E-05	0	0	0	
0.250833	-0.00578625	0.00418822	0.000229899	7.89008E-05	0	0	0	
0.251	0.00662722	-0.00290118	0.000218328	9.1304E-05	0	0	0	
0.251167	-0.00712723	-0.00143312	0.000196857	7.69391E-05	0	0	0	
0.251333	0.00433755	8.00497E-05	0.000158787	5.25626E-05	0	0	0	
0.2515	0.00114822	0.0025705	0.000104696	5.45044E-05	0	0	0	
0.251667	-0.00533371	0.000573594	6.96836E-05	6.39875E-05	0	0	0	
0.251833	0.00501092	-0.00381612	8.49154E-05	7.66028E-05	0	0	0	
0.252	-0.00107569	0.000955979	0.000139622	7.03574E-05	0	0	0	
0.252167	-0.00198805	0.000706434	0.000187674	5.47095E-05	0	0	0	
0.252333	0.00175555	0.00300872	0.000186624	5.03337E-05	0	0	0	
0.2525	-0.00103881	-0.00351288	0.000148732	5.76198E-05	0	0	0	
0.252667	-0.000203756	-0.00169916	0.000105672	7.35136E-05	0	0	0	
0.252833	0.00154348	0.00297114	8.56529E-05	6.35082E-05	0	0	0	
0.253	-0.000748066	0.00105897	9.76754E-05	7.63644E-05	0	0	0	
0.253167	-0.00161286	-0.00405111	0.000131291	7.52575E-05	0	0	0	
0.253333	0.00304235	0.000119015	0.00015289	7.90199E-05	0	0	0	
0.2535	-0.00207614	0.00232748	0.000140559	5.26665E-05	0	0	0	
0.253667	0.000183186	0.000433179	0.000102101	5.15639E-05	0	0	0	
0.253833	0.000671139	-0.00229199	7.24875E-05	4.58439E-05	0	0	0	
0.254	-0.00148881	-0.000420717	6.94586E-05	4.62663E-05	0	0	0	
0.254167	0.00318807	0.00121629	8.30142E-05	2.95313E-05	0	0	0	
0.254333	-0.0034287	0.0013946	0.000105304	4.78808E-05	0	0	0	
0.2545	0.00060463	-0.00334678	0.00014254	6.13382E-05	0	0	0	
0.254667	0.00329344	-0.000352388	0.000189322	6.95335E-05	0	0	0	
0.254833	-0.00729774	0.00200229	0.000218026	4.75466E-05	0	0	0	
0.255	0.00859114	0.00100423	0.000215926	5.04151E-05	0	0	0	
0.255167	-0.00391489	-0.00315481	0.000175019	5.3515E-05	0	0	0	
0.255333	-0.00287684	-0.00191108	0.000123846	6.22358E-05	0	0	0	
0.2555	0.00640929	0.00376492	8.64659E-05	5.51919E-05	0	0	0	
0.255667	-0.00591755	0.000734605	0.000110876	6.99492E-05	0	0	0	
0.255833	-6.26669E-05	-0.00295531	0.000181678	7.4778E-05	0	0	0	
0.256	0.00539114	0.000926836	0.000250956	6.9602E-05	0	0	0	
0.256167	-0.00628065	0.000742701	0.000256313	4.1989E-05	0	0	0	
0.256333	0.00253751	0.000268965	0.000199021	3.36263E-05	0	0	0	
0.2565	0.00072151	-0.000870437	0.000120669	2.80316E-05	0	0	0	
0.256667	-0.00192964	-0.00202933	8.67326E-05	3.60138E-05	0	0	0	
0.256833	-0.000124821	0.00339847	0.000101757	3.76003E-05	0	0	0	
0.257	0.00125546	-7.57458E-06	0.000132172	5.78508E-05	0	0	0	
0.257167	-0.000187035	-0.0026408	0.000132092	6.93924E-05	0	0	0	
0.257333	-0.000724299	-0.000240011	0.000114217	6.23798E-05	0	0	0	
0.2575	0.000903276	0.00135103	0.000109444	4.94915E-05	0	0	0	
0.257667	-0.00199486	-0.000346359	0.000120158	3.3148E-05	0	0	0	
0.257833	0.00199927	-0.00055374	0.000148473	2.62616E-05	0	0	0	
0.258	0.00793176	-0.00428801	0.00022577	4.56765E-05	0	0	0	
0.258167	-0.0216858	0.00841095	0.000293508	6.91488E-05	0	0	0	
0.258333	-0.0481374	0.014216	0.000610508	0.000207879	0	0	0	
0.2585	-0.15078	0.0322723	0.00213941	0.000582555	0	0	0	
0.258667	0.0259507	-0.00649729	0.00249084	0.000651228	0	0	0	
0.258833	0.00812216	0.000108586	0.00235315	0.000549578	0	0	0	
0.259	-0.0151422	-0.010782	0.000824253	0.000185243	0	0	0	
0.259167	0.00736495	0.00497859	0.000439539	0.000169541	0	0	0	
0.259333	0.0281996	-0.0070842	0.000407199	0.00020453	0	0	0	
0.2595	-0.350457	0.0891222	0.00108361	0.000415049	0	0	0	
0.259667	0.0438784	-0.010873	0.00239043	0.000637074	0	0	0	
0.259833	-0.0134997	-0.00948958	0.00238436	0.000599886	0	0	0	
0.26	0.00245385	0.00209206	0.00167129	0.000400607	0	0	0	
0.260167	-0.00746158	0.00815766	0.000436987	0.000156486	0	0	0	
0.260333	0.00907228	-0.0125057	0.000374141	0.000180709	0	0	0	
0.2605	-0.00265784	0.00484145	0.000358228	0.000191879	0	0	0	
0.260667	0.00452173	-0.00469147	0.000217268	0.000183371	0	0	0	
0.260833	-0.00171191	0.00692381	0.000108579	0.000166662	0	0	0	
0.261	-0.010611	-0.00561043	6.97587E-05	0.000149403	0	0	0	
0.261167	0.020346	-0.00401373	0.000159073	0.000166397	0	0	0	
0.261333	-0.0212041	0.00637319	0.000264257	0.000154863	0	0	0	
0.2615	0.0141232	0.00419861	0.000387617	0.000169662	0	0	0	
0.261667	-0.00338119	-0.00872943	0.000448029	0.000138966	0	0	0	
0.261833	-0.00454736	0.000468612	0.000463396	0.000174851	0	0	0	
0.262	0.00608717	0.00582211	0.000423176	0.000158547	0	0	0	
0.262167	-0.00470859	-0.000235096	0.000330491	0.000153202	0	0	0	
0.262333	0.00248956	-0.00211684	0.0002083	0.0001151	0	0	0	
0.2625	0.0023918	-0.00269343	0.000109199	7.73784E-05	0	0	0	
0.262667	-0.00563482	0.00141218	6.48154E-05	7.02632E-05	0	0	0	
0.262833	-0.000135144	0.00573636	0.000104755	8.82906E-05	0	0	0	
0.263	0.010054	-0.0067648	0.000186965	0.000113849	0	0	0	
0.263167	-0.0108972	0.000365333	0.000227974	0.000123503	0	0	0	
0.263333	0.0016569	0.00231607	0.000215598	9.67421E-05	0	0	0	
0.2635	0.00740075	0.000981636	0.000168575	7.93494E-05	0	0	0	
0.263667	-0.00720391	-0.00176792	0.000154507	4.64942E-05	0	0	0	
0.263833	0.000972106	-0.00288143	0.00018444	6.86793E-05	0	0	0	
0.264	0.00362993	0.00666868	0.000223321	8.47282E-05	0	0	0	
0.264167	-0.00338218	-0.00172705	0.00023582	0.000111916	0	0	0	
0.264333	0.000485169	-0.00368001	0.000192996	9.99146E-05	0	0	0	
0.2645	0.00123783	0.00370098	0.000150654	8.88534E-05	0	0	0	
0.264667	-0.000142819	-0.0024913	0.00014469	7.52482E-05	0	0	0	
0.264833	-0.00111981	0.00159587	0.0001532	5.89993E-05	0	0	0	
0.265	-0.000125125	0.000538813	0.000139494	6.65587E-05	0	0	0	
0.265167	0.00378625	-0.00182274	0.000106041	7.64418E-05	0	0	0	
0.265333	-0.00702277	0.00159002	9.39948E-05	7.24984E-05	0	0	0	
0.2655	0.00669742	-0.00179817	0.000123306	5.13264E-05	0	0	0	
0.265667	-0.00144586	0.00101296	0.000177688	3.62662E-05	0	0	0	
0.265833	-0.00414064	-0.000547402	0.000222393	4.52324E-05	0	0	0	
0.266	0.00493404	-0.00221484	0.000214248	5.5434E-05	0	0	0	
0.266167	-0.000674522	0.00195175	0.00015244	5.51335E-05	0	0	0	
0.266333	-0.00444313	0.00163998	7.89488E-05	6.69598E-05	0	0	0	
0.2665	0.00403159	-0.00348532	6.33666E-05	6.63103E-05	0	0	0	
0.266667	-0.000391161	0.000295496	0.00010287	6.79502E-05	0	0	0	
0.266833	-0.00123508	0.00101169	0.000152325	4.24874E-05	0	0	0	
0.267	0.00257645	-5.19124E-05	0.000175504	2.94457E-05	0	0	0	
0.267167	-0.00481044	0.000942794	0.000174781	1.84111E-05	0	0	0	
0.267333	0.0035302	-0.00351327	0.000151653	2.17552E-05	0	0	0	
0.2675	0.000940959	0.0020583	0.000102453	4.23113E-05	0	0	0	
0.267667	-0.00366	0.00315289	6.34277E-05	7.88994E-05	0	0	0	
0.267833	0.002914	-0.00263341	7.15972E-05	8.68172E-05	0	0	0	
0.268	-0.000486475	-0.00252557	0.00012627	8.91832E-05	0	0	0	
0.268167	-0.00127677	0.00256406	0.000170656	6.51925E-05	0	0	0	
0.268333	0.00119268	0.00127815	0.000177684	6.58241E-05	0	0	0	
0.2685	-0.00235985	-0.00020753	0.000162831	4.54628E-05	0	0	0	
0.268667	0.0033621	-0.00423432	0.000148172	5.63311E-05	0	0	0	
0.268833	-0.00152708	0.00325907	0.000128321	5.99287E-05	0	0	0	
0.269	-0.0017454	0.00037123	0.000100449	8.05576E-05	0	0	0	
0.269167	0.0023135	-0.000437237	9.38964E-05	6.04589E-05	0	0	0	
0.269333	-0.000460581	-0.00128041	0.000120774	4.39949E-05	0	0	0	
0.2695	-0.00173726	0.000925297	0.00015839	2.31069E-05	0	0	0	
0.269667	0.00257471	0.00140456	0.000165049	2.75956E-05	0	0	0	
0.269833	-0.000632914	-0.000708167	0.000143554	2.80415E-05	0	0	0	
0.27	-0.000689324	-0.000557272	0.000120599	4.30679E-05	0	0	0	
0.270167	0.00136823	0.00300743	0.000116654	4.71365E-05	0	0	0	
0.270333	0.000170107	-0.000902781	0.000132762	5.31558E-05	0	0	0	
0.2705	-0.00266977	-0.00117877	0.000165495	4.09329E-05	0	0	0	
0.270667	0.00428891	0.00149318	0.000183409	3.24874E-05	0	0	0	
0.270833	-0.00146049	0.000145766	0.000165586	3.38918E-05	0	0	0	
0.271	-0.000876347	0.00109192	0.000120871	2.93165E-05	0	0	0	
0.271167	0.00150847	-0.00219228	0.000101642	3.86559E-05	0	0	0	
0.271333	-0.000266595	0.00111708	0.000119534	3.36962E-05	0	0	0	
0.2715	-0.00172051	-0.000212635	0.000159395	3.93131E-05	0	0	0	
0.271667	0.00319613	0.000115823	0.000181943	2.77839E-05	0	0	0	
0.271833	-0.00283814	-0.00194335	0.000170697	2.87791E-05	0	0	0	
0.272	0.000450836	0.00239597	0.000131612	2.93344E-05	0	0	0	
0.272167	0.0013236	-0.00114936	9.36879E-05	3.65173E-05	0	0	0	
0.272333	-0.00317832	-0.000184744	9.15514E-05	3.45894E-05	0	0	0	
0.2725	0.00177643	0.000718165	0.000127403	2.30759E-05	0	0	0	
0.272667	0.00236163	0.00301458	0.000181541	2.87959E-05	0	0	0	
0.272833	-0.00346801	-0.003433	0.000194409	3.93728E-05	0	0	0	
0.273	-0.00116353	-0.00144658	0.000151373	6.01518E-05	0	0	0	
0.273167	0.00255091	0.00189921	0.000105984	5.17957E-05	0	0	0	
0.273333	0.00271853	0.00354933	0.000123844	7.04079E-05	0	0	0	
0.2735	-0.00400444	-0.00350908	0.000158773	7.08561E-05	0	0	0	
0.273667	-0.000935665	-0.00257171	0.000140302	8.90852E-05	0	0	0	
0.273833	0.00448718	0.00201841	9.22843E-05	7.15067E-05	0	0	0	
0.274	-0.00243632	0.00363071	9.23359E-05	9.57705E-05	0	0	0	
0.274167	-0.000557191	-0.00137146	0.000137941	7.90464E-05	0	0	0	
0.274333	0.000305159	-0.00319459	0.000159929	8.69459E-05	0	0	0	
0.2745	0.000163178	0.00186958	0.000152565	5.34371E-05	0	0	0	
0.274667	0.00167385	0.000629945	0.000146559	6.03939E-05	0	0	0	
0.274833	-0.00152883	-0.000220823	0.00014436	3.754E-05	0	0	0	
0.275	-0.00154336	-0.000109086	0.000123056	2.55932E-05	0	0	0	
0.275167	0.00358411	0.000178712	0.000100805	1.17435E-05	0	0	0	
0.275333	-0.0011944	8.91746E-05	0.000106894	9.73375E-06	0	0	0	
0.2755	-0.00190156	-0.000760959	0.00013817	1.53148E-05	0	0	0	
0.275667	0.00276133	-0.000938156	0.000142344	2.23897E-05	0	0	0	
0.275833	5.33315E-06	0.00092836	0.00011827	2.27191E-05	0	0	0	
0.276	-0.00176509	0.000512508	9.23151E-05	2.48182E-05	0	0	0	
0.276167	0.0010924	-0.000469399	9.29066E-05	1.83016E-05	0	0	0	
0.276333	-0.000564432	-0.000927783	0.00010545	1.89229E-05	0	0	0	
0.2765	0.00104602	-0.00196129	0.000113866	2.06603E-05	0	0	0	
0.276667	-5.98345E-06	0.00287367	0.000120365	3.20932E-05	0	0	0	
0.276833	-0.00196327	0.000848796	0.000137429	4.12608E-05	0	0	0	
0.277	0.00379703	-0.00135033	0.00015688	3.91234E-05	0	0	0	
0.277167	-0.0044309	-0.00117792	0.000155501	3.27484E-05	0	0	0	
0.277333	0.00160672	-8.23768E-05	0.00012009	2.51966E-05	0	0	0	
0.2775	0.00302467	0.00123721	7.16841E-05	2.09837E-05	0	0	0	
0.277667	-0.0036478	4.94763E-05	5.87625E-05	2.40163E-05	0	0	0	
0.277833	0.00157959	-0.0013307	9.40007E-05	3.76758E-05	0	0	0	
0.278	0.00111166	0.000825599	0.000150853	3.74187E-05	0	0	0	
0.278167	-0.00160509	0.00126221	0.0001843	4.22425E-05	0	0	0	
0.278333	0.00208374	-0.00244712	0.000193854	3.55902E-05	0	0	0	
0.2785	-0.00909361	0.00287343	0.000229201	4.82769E-05	0	0	0	
0.278667	0.042383	-0.0158394	0.000443786	0.000134761	0	0	0	
0.278833	0.00818056	0.000897161	0.000709994	0.000226589	0	0	0	
0.279	-0.0135254	-0.000263418	0.000675364	0.000227089	0	0	0	
0.279167	0.00999964	0.00117156	0.000543159	0.000156989	0	0	0	
0.279333	-0.0041057	-0.000842293	0.00024903	6.46856E-05	0	0	0	
0.2795	-0.00635575	0.0111286	0.000230023	6.81054E-05	0	0	0	
0.279667	-0.000167681	-0.00521296	0.000148595	9.0509E-05	0	0	0	
0.279833	0.00458014	0.000428755	0.000164604	0.000112983	0	0	0	
0.28	-0.0115571	0.00569107	0.000164312	0.000114184	0	0	0	
0.280167	0.0122144	-0.00204723	0.000184508	8.23668E-05	0	0	0	
0.280333	-0.00345123	-0.00104097	0.000191726	7.04257E-05	0	0	0	
0.2805	0.000271139	2.794E-06	0.000181378	5.28628E-05	0	0	0	
0.280667	-0.00146199	0.00390076	0.000108671	4.9065E-05	0	0	0	
0.280833	0.00358271	-0.00298917	6.70089E-05	5.17963E-05	0	0	0	
0.281	-0.00181636	0.00100935	6.24388E-05	5.51749E-05	0	0	0	
0.281167	0.000566577	0.000870492	9.64596E-05	4.4358E-05	0	0	0	
0.281333	0.00169188	-0.000795516	0.000102677	3.64454E-05	0	0	0	
0.2815	-0.00266633	0.000728126	8.82426E-05	3.59667E-05	0	0	0	
0.281667	0.00478236	-0.00125546	6.2414E-05	3.15869E-05	0	0	0	
0.281833	-0.00511817	0.00201609	8.29357E-05	3.59087E-05	0	0	0	
0.282	0.00064045	-0.000515573	8.32379E-05	5.70579E-05	0	0	0	
0.282167	0.00136388	-0.00127189	8.7854E-05	6.39954E-05	0	0	0	
0.282333	-0.0010998	-0.000119185	8.08536E-05	4.38491E-05	0	0	0	
0.2825	-0.000329256	0.000316859	9.2978E-05	1.845E-05	0	0	0	
0.282667	0.00140384	-5.96899E-05	9.11098E-05	9.16903E-06	0	0	0	
0.282833	-0.00247255	-0.000946083	7.45076E-05	1.158E-05	0	0	0	
0.283	-0.000791923	0.00121011	7.26999E-05	2.52982E-05	0	0	0	
0.283167	0.000987234	-0.00257326	8.80166E-05	3.28222E-05	0	0	0	
0.283333	-0.000920412	0.00204073	0.000106971	4.65494E-05	0	0	0	
0.2835	0.00165604	0.000253864	0.000107083	3.91535E-05	0	0	0	
0.283667	-0.000872365	-0.000885552	8.465E-05	3.24696E-05	0	0	0	
0.283833	0.000742631	0.000107377	6.0062E-05	2.3056E-05	0	0	0	
0.284	-0.000599153	0.00120815	5.13542E-05	3.6059E-05	0	0	0	
0.284167	0.00107853	-0.00270272	7.0484E-05	5.55963E-05	0	0	0	
0.284333	0.00112524	0.00365744	0.000105434	6.72137E-05	0	0	0	
0.2845	-0.00204122	-0.00119867	0.000130401	5.58044E-05	0	0	0	
0.284667	0.00199824	0.000575774	0.000118444	3.92208E-05	0	0	0	
0.284833	-0.00136254	0.000104929	8.51404E-05	1.98893E-05	0	0	0	
0.285	0.00173721	-0.00146306	5.34825E-05	1.46988E-05	0	0	0	
0.285167	0.000519187	0.00579564	4.50585E-05	3.51088E-05	0	0	0	
0.285333	-0.00128728	-0.000971917	6.84441E-05	5.90329E-05	0	0	0	
0.2855	-0.00512705	-0.00144547	0.000145388	8.02204E-05	0	0	0	
0.285667	0.0098826	-0.000534478	0.000203555	6.15866E-05	0	0	0	
0.285833	-0.00452138	0.00293158	0.000207644	4.76085E-05	0	0	0	
0.286	-0.00237086	0.00393416	0.000138155	5.9909E-05	0	0	0	
0.286167	0.00207271	-0.0119088	9.00361E-05	9.25094E-05	0	0	0	
0.286333	2.84091E-05	0.00455949	9.83282E-05	0.000175161	0	0	0	
0.2865	-0.0020596	0.00480098	0.000133222	0.000220632	0	0	0	
0.286667	0.00197836	-1.20181E-05	0.000156783	0.000226932	0	0	0	
0.286833	-0.000585867	-0.00930437	0.000139121	0.000225169	0	0	0	
0.287	-5.13276E-05	0.00588434	0.000100896	0.000184418	0	0	0	
0.287167	0.00240061	-0.00070861	6.53636E-05	0.000166366	0	0	0	
0.287333	-0.0020855	0.00271228	5.65176E-05	8.63222E-05	0	0	0	
0.2875	-0.00230488	-0.00595988	0.000105962	6.89648E-05	0	0	0	
0.287667	0.00528878	-0.000877194	0.000167674	5.89309E-05	0	0	0	
0.287833	-0.00321344	0.00386165	0.000179837	6.7769E-05	0	0	0	
0.288	-0.000694527	-0.00263905	0.000121065	6.75171E-05	0	0	0	
0.288167	0.00361419	-0.00241314	5.89716E-05	7.65798E-05	0	0	0	
0.288333	-0.00401543	0.0014548	4.96968E-05	6.85473E-05	0	0	0	
0.2885	0.00212856	0.000825443	0.000101669	7.40434E-05	0	0	0	
0.288667	0.000411186	0.00314997	0.000160196	6.07015E-05	0	0	0	
0.288833	0.000643939	-0.00319231	0.000175566	6.57222E-05	0	0	0	
0.289	-0.00513468	0.00171074	0.000154694	7.05576E-05	0	0	0	
0.289167	0.00397896	0.00107686	0.000132318	9.34996E-05	0	0	0	
0.289333	-0.00121584	-0.00154373	0.000121152	8.49857E-05	0	0	0	
0.2895	0.00149892	0.00118966	0.000107089	5.5541E-05	0	0	0	
0.289667	-9.89516E-05	-0.00187741	9.6908E-05	2.71867E-05	0	0	0	
0.289833	-0.00125616	0.000908218	0.000124822	2.50283E-05	0	0	0	
0.29	0.00304178	0.0003753	0.000158003	2.12055E-05	0	0	0	
0.290167	-0.00262873	-8.06785E-05	0.000151507	1.92818E-05	0	0	0	
0.290333	0.000656794	-0.00141566	9.75597E-05	2.09615E-05	0	0	0	
0.2905	0.00292297	0.000720606	5.47333E-05	2.31984E-05	0	0	0	
0.290667	-0.00648103	0.00102652	5.02977E-05	1.9518E-05	0	0	0	
0.290833	0.00793154	-0.000729177	0.000105166	2.09276E-05	0	0	0	
0.291	-0.00208238	-0.00240738	0.000185545	3.03709E-05	0	0	0	
0.291167	-0.00359104	0.00309247	0.000255804	4.21457E-05	0	0	0	
0.291333	0.00350475	-0.000850884	0.000255346	6.21792E-05	0	0	0	
0.2915	-0.00245364	-0.00293303	0.000181536	7.33927E-05	0	0	0	
0.291667	-0.000968154	0.00280938	9.35354E-05	7.36137E-05	0	0	0	
0.291833	0.0039122	-0.00185484	4.43921E-05	8.6866E-05	0	0	0	
0.292	-0.00404425	-0.000258275	5.88342E-05	9.29737E-05	0	0	0	
0.292167	0.00204349	-0.00133079	9.62531E-05	8.37188E-05	0	0	0	
0.292333	-0.00230127	0.00420596	0.000129484	5.4898E-05	0	0	0	
0.2925	0.000281344	-0.00199764	0.000130093	4.47352E-05	0	0	0	
0.292667	0.000654331	-0.00106695	0.000111208	5.92441E-05	0	0	0	
0.292833	-0.000360534	0.00371773	8.31001E-05	6.14008E-05	0	0	0	
0.293	-0.00148765	-0.00357014	7.04435E-05	6.1243E-05	0	0	0	
0.293167	0.00114721	0.000469063	8.09026E-05	6.91621E-05	0	0	0	
0.293333	-0.00100368	0.00189567	9.78918E-05	7.92607E-05	0	0	0	
0.2935	0.00173299	-0.00115565	9.23179E-05	6.94569E-05	0	0	0	
0.293667	-0.0032827	0.000367643	7.04029E-05	4.38228E-05	0	0	0	
0.293833	0.0025921	0.000773393	6.63452E-05	2.39706E-05	0	0	0	
0.294	0.000128839	-0.00184438	0.000113549	2.65258E-05	0	0	0	
0.294167	-0.00294953	0.00382978	0.000167465	3.95957E-05	0	0	0	
0.294333	0.00211337	-0.00295563	0.000179263	5.51307E-05	0	0	0	
0.2945	-0.000666534	0.00275055	0.000138033	5.68472E-05	0	0	0	
0.294667	0.000364582	-0.000532613	8.98366E-05	5.08299E-05	0	0	0	
0.294833	0.000486622	0.000990004	6.13577E-05	3.27862E-05	0	0	0	
0.295	-0.00222717	-0.00227719	5.09109E-05	2.3296E-05	0	0	0	
0.295167	0.00317892	0.00398165	6.19729E-05	4.45951E-05	0	0	0	
0.295333	-0.00129646	-0.00202889	0.00010719	7.69912E-05	0	0	0	
0.2955	-0.00193705	-0.000920987	0.000169119	8.41503E-05	0	0	0	
0.295667	0.00346295	7.91117E-05	0.000194547	5.52256E-05	0	0	0	
0.295833	-0.0016224	0.000164453	0.00016083	2.11155E-05	0	0	0	
0.296	-0.000165409	0.000162942	9.27021E-05	7.30535E-06	0	0	0	
0.296167	-0.000639304	0.00352849	5.46125E-05	1.51096E-05	0	0	0	
0.296333	-0.000255327	-0.00532547	7.01308E-05	4.91762E-05	0	0	0	
0.2965	0.000839048	0.0027434	0.000117071	7.95584E-05	0	0	0	
0.296667	-0.000145322	-0.00121559	0.000157063	8.50157E-05	0	0	0	
0.296833	-0.000690335	-0.00092186	0.000166159	7.34768E-05	0	0	0	
0.297	0.000939258	0.00255305	0.000140306	5.65517E-05	0	0	0	
0.297167	2.49517E-05	-5.12951E-05	9.97179E-05	5.85811E-05	0	0	0	
0.297333	-0.00196822	-0.0047742	8.47887E-05	8.07867E-05	0	0	0	
0.2975	0.000542029	0.00505125	0.000113971	0.000104556	0	0	0	
0.297667	0.00287003	0.000820731	0.000159927	0.000102842	0	0	0	
0.297833	-0.00266502	-0.00273923	0.000166053	6.3602E-05	0	0	0	
0.298	0.000797085	0.000538851	0.000117999	5.90331E-05	0	0	0	
0.298167	0.00112884	-0.0011706	6.1996E-05	5.13757E-05	0	0	0	
0.298333	-0.00246214	0.00482935	4.38791E-05	5.87269E-05	0	0	0	
0.2985	0.00659013	-0.00122958	7.22839E-05	0.00010694	0	0	0	
0.298667	-0.00578552	-0.00920072	9.91018E-05	0.000177363	0	0	0	
0.298833	0.00163849	-0.000831901	0.00013416	0.0002324	0	0	0	
0.299	0.0019659	0.0200287	0.000159405	0.000283725	0	0	0	
0.299167	-0.00166139	-0.013722	0.000155603	0.000306076	0	0	0	
0.299333	-0.00123793	-0.000161367	0.000103865	0.000311511	0	0	0	
0.2995	0.00280775	0.0053388	5.39733E-05	0.000220109	0	0	0	
0.299667	-0.00302398	-0.00177193	6.04441E-05	0.000142584	0	0	0	
0.299833	-0.000954705	0.00139094	0.00012045	7.36915E-05	0	0	0	
0.3	0.00415847	-0.00426618	0.000188082	5.14877E-05	0	0	0	
0.300167	-0.00467342	0.00399758	0.00021545	5.56999E-05	0	0	0	
0.300333	0.00484731	-0.0014378	0.000177639	6.76085E-05	0	0	0	
0.3005	0.000563381	0.000136592	0.000120832	6.02679E-05	0	0	0	
0.300667	-0.00793179	0.00116118	8.42107E-05	4.57211E-05	0	0	0	
0.300833	0.00758491	-0.00533185	0.000111411	5.12291E-05	0	0	0	
0.301	-0.00340081	0.00711061	0.000175362	7.18291E-05	0	0	0	
0.301167	-0.000933448	-0.00484627	0.000256282	0.000101942	0	0	0	
0.301333	0.00264301	0.00195688	0.000285756	0.000146332	0	0	0	
0.3015	-0.00398101	0.00442356	0.000236931	0.000166897	0	0	0	
0.301667	0.000988746	-0.00456258	0.000138552	0.000145477	0	0	0	
0.301833	0.00138992	0.00156751	6.14058E-05	0.000132397	0	0	0	
0.302	-0.00107035	0.00199822	5.83173E-05	0.000130538	0	0	0	
0.302167	0.00132162	-0.00119008	0.000121145	0.000113326	0	0	0	
0.302333	-0.000391037	-0.00238409	0.000183538	8.18711E-05	0	0	0	
0.3025	-0.000812605	0.0026669	0.000186627	4.36246E-05	0	0	0	
0.302667	0.00023061	0.000398853	0.000123391	5.92617E-05	0	0	0	
0.302833	0.00214906	-0.00460309	5.91593E-05	5.73792E-05	0	0	0	
0.303	-0.00254465	0.00460217	3.99565E-05	7.37789E-05	0	0	0	
0.303167	0.00194445	-0.00224391	7.32044E-05	7.94066E-05	0	0	0	
0.303333	-0.00208953	-0.00190622	0.000117073	9.07278E-05	0	0	0	
0.3035	0.00263017	0.00302621	0.000137854	8.71454E-05	0	0	0	
0.303667	-0.000198925	-0.00193333	0.000124908	7.43561E-05	0	0	0	
0.303833	-0.00129494	-0.000229273	0.000100225	5.193E-05	0	0	0	
0.304	-0.000267375	0.00188196	7.85492E-05	4.20841E-05	0	0	0	
0.304167	0.00147386	-0.00365661	6.87841E-05	4.85341E-05	0	0	0	
0.304333	-0.00164912	0.00319503	7.58198E-05	5.72433E-05	0	0	0	
0.3045	0.000396439	-0.00328096	9.32037E-05	6.38926E-05	0	0	0	
0.304667	0.000524384	0.00189039	9.43487E-05	8.25074E-05	0	0	0	
0.304833	0.000382467	0.00245524	6.896E-05	9.46646E-05	0	0	0	
0.305	-0.00166656	-0.00305624	4.83877E-05	8.51359E-05	0	0	0	
0.305167	0.00252805	0.00247477	6.19633E-05	8.44176E-05	0	0	0	
0.305333	-0.00107	0.000597861	9.43076E-05	8.88038E-05	0	0	0	
0.3055	-0.000843734	-0.00148833	0.000119732	8.24569E-05	0	0	0	
0.305667	0.00227748	-0.00174712	0.000125201	5.64408E-05	0	0	0	
0.305833	-0.00246366	0.00149582	0.000114218	2.97385E-05	0	0	0	
0.306	0.0008158	-0.000399337	8.94873E-05	3.05996E-05	0	0	0	
0.306167	-0.00186087	0.00145659	7.29584E-05	2.38771E-05	0	0	0	
0.306333	0.000188411	-0.000688306	7.98046E-05	2.40065E-05	0	0	0	
0.3065	0.00121159	0.00142537	9.45048E-05	2.18379E-05	0	0	0	
0.306667	-0.000226803	-0.00177233	0.000116905	2.68319E-05	0	0	0	
0.306833	-0.00313667	0.00230153	0.000144456	3.83875E-05	0	0	0	
0.307	0.00223461	-0.00203901	0.000153314	4.88644E-05	0	0	0	
0.307167	2.30575E-06	0.000749702	0.000119334	4.7086E-05	0	0	0	
0.307333	-0.00239072	0.00227739	8.0758E-05	4.82323E-05	0	0	0	
0.3075	0.00268731	-0.00309644	8.48393E-05	5.05065E-05	0	0	0	
0.307667	-0.00133981	0.000282374	0.00011864	5.67165E-05	0	0	0	
0.307833	-0.000128958	0.00328692	0.000143031	4.34349E-05	0	0	0	
0.308	-0.000118096	-0.00131848	0.000135915	4.52175E-05	0	0	0	
0.308167	0.000192975	-0.00176116	0.000107183	5.09631E-05	0	0	0	
0.308333	-0.00192739	0.00100498	7.42037E-05	4.89615E-05	0	0	0	
0.3085	0.00378529	0.0007197	7.27486E-05	4.24883E-05	0	0	0	
0.308667	-0.00253869	0.00129745	0.000110408	2.89783E-05	0	0	0	
0.308833	-0.000121307	0.000225768	0.000156712	3.27174E-05	0	0	0	
0.309	0.00193902	-0.000281899	0.000172316	2.40209E-05	0	0	0	
0.309167	-0.00151796	0.000764459	0.000141115	2.40252E-05	0	0	0	
0.309333	-0.00131938	-0.00035867	8.36243E-05	1.57927E-05	0	0	0	
0.3095	0.00481247	-0.000279908	5.04058E-05	1.41947E-05	0	0	0	
0.309667	-0.00457149	-0.000141337	7.21397E-05	9.47623E-06	0	0	0	
0.309833	-0.000160817	-0.000171128	0.000139224	1.28305E-05	0	0	0	
0.31	0.00215066	0.000398867	0.000183929	1.22808E-05	0	0	0	
0.310167	-0.00165199	0.000418145	0.00017175	1.96158E-05	0	0	0	
0.310333	0.000256595	-0.00120509	0.000113448	2.1162E-05	0	0	0	
0.3105	0.0011533	0.000132694	5.71543E-05	2.64923E-05	0	0	0	
0.310667	-0.00159164	0.00257209	3.85403E-05	3.68577E-05	0	0	0	
0.310833	0.00209064	-0.00503414	6.89212E-05	4.87551E-05	0	0	0	
0.311	0.00103365	0.00201841	0.000128766	6.10477E-05	0	0	0	
0.311167	-0.00379629	4.53344E-05	0.00017592	4.72953E-05	0	0	0	
0.311333	0.00267123	-6.82847E-05	0.000172699	2.81663E-05	0	0	0	
0.3115	-0.00102489	-0.00034853	0.000120773	1.01024E-05	0	0	0	
0.311667	-0.000898891	0.000162821	6.1842E-05	6.32124E-06	0	0	0	
0.311833	0.00188719	0.00206738	4.03263E-05	1.34916E-05	0	0	0	
0.312	0.00144057	-0.00245666	8.87998E-05	2.52706E-05	0	0	0	
0.312167	-0.00722208	0.00260041	0.000175716	4.10631E-05	0	0	0	
0.312333	0.0082959	-0.00450864	0.000216239	5.70202E-05	0	0	0	
0.3125	-0.00147402	0.0035386	0.00018284	7.10176E-05	0	0	0	
0.312667	-0.0033621	0.00374487	9.99949E-05	0.000103165	0	0	0	
0.312833	-0.000872883	-0.0164897	8.57524E-05	0.00013796	0	0	0	
0.313	0.00404268	0.0124211	0.000127613	0.000208577	0	0	0	
0.313167	-0.00332224	0.000436913	0.000188848	0.000260987	0	0	0	
0.313333	0.00349416	-0.0038864	0.00019797	0.000224258	0	0	0	
0.3135	-0.00263861	-0.00254897	0.000166074	0.000177522	0	0	0	
0.313667	-0.000721031	0.00327371	0.00011481	9.94648E-05	0	0	0	
0.313833	0.00297075	0.000227462	8.07062E-05	9.28183E-05	0	0	0	
0.314	-0.000931145	-3.00105E-05	9.02978E-05	6.2739E-05	0	0	0	
0.314167	-0.00313993	-0.0022551	0.000147895	8.88134E-05	0	0	0	
0.314333	0.00514474	0.00158916	0.000188687	8.99813E-05	0	0	0	
0.3145	-0.00162974	0.0030163	0.000167965	8.98922E-05	0	0	0	
0.314667	-0.00238379	-0.00360972	0.000100384	6.06086E-05	0	0	0	
0.314833	0.00411242	-0.00216409	6.20337E-05	7.7241E-05	0	0	0	
0.315	-0.00260763	0.00365923	7.4492E-05	6.96808E-05	0	0	0	
