0	-0.00289792	0.00801292	2.89792E-07	8.01292E-07	0	0	0	
0.000166667	-0.00290225	-0.011863	0.000101342	6.08058E-05	0	0	0	
0.000333333	0.014555	-0.00996282	0.000213333	0.00025595	0	0	0	
0.0005	-0.0108595	0.0373371	0.000284639	0.000524378	0	0	0	
0.000666667	-0.00319199	-0.0288334	0.000312558	0.000678962	0	0	0	
0.000833333	0.0181384	0.000145821	0.000321842	0.000582479	0	0	0	
0.001	-0.0172618	-0.00552855	0.000348092	0.000440157	0	0	0	
0.00116667	0.00946834	0.0230469	0.000355331	0.000520509	0	0	0	
0.00133333	0.00102702	-0.00654587	0.000349849	0.0005707	0	0	0	
0.0015	-0.00125504	-0.0207116	0.000327217	0.000544673	0	0	0	
0.00166667	0.00915083	0.00381392	0.000245286	0.000538662	0	0	0	
0.00183333	-0.00514303	0.0139427	0.000173522	0.000604945	0	0	0	
0.002	-0.00517387	0.0216478	0.000163282	0.000687926	0	0	0	
0.00216667	0.0171144	-0.0666351	0.000175706	0.000747288	0	0	0	
0.00233333	-0.00918952	0.0626117	0.000235952	0.000921954	0	0	0	
0.0025	0.00232373	-0.0197117	0.000291693	0.00103622	0	0	0	
0.00266667	-0.000811512	-0.0188929	0.000247641	0.000843513	0	0	0	
0.00283333	0.0129076	0.0271243	0.000188812	0.000607964	0	0	0	
0.003	-0.0104834	-0.0100016	0.000140049	0.000520762	0	0	0	
0.00316667	0.00420632	0.0127351	0.000204595	0.000516587	0	0	0	
0.00333333	0.00270092	-0.0223492	0.000198874	0.000508954	0	0	0	
0.0035	0.00707042	0.0129205	0.000165642	0.000531815	0	0	0	
0.00366667	-0.013133	0.00704973	0.000148887	0.000565771	0	0	0	
0.00383333	0.018107	-0.00227892	0.000214818	0.000504667	0	0	0	
0.004	-0.00590639	-0.00309556	0.000311329	0.000446713	0	0	0	
0.00416667	-0.0099263	-0.0109716	0.000404808	0.000309671	0	0	0	
0.00433333	0.0215042	0.0264799	0.000431027	0.000365781	0	0	0	
0.0045	-0.00999416	-0.00565003	0.000380151	0.000319092	0	0	0	
0.00466667	-0.00592836	-0.00656573	0.000354664	0.000419453	0	0	0	
0.00483333	0.0256106	-0.00903813	0.00037374	0.000602384	0	0	0	
0.005	-0.0283332	0.0392453	0.000455024	0.000814095	0	0	0	
0.00516667	0.0241129	-0.0491755	0.000485435	0.000960497	0	0	0	
0.00533333	-0.00448085	0.039335	0.000550872	0.000915151	0	0	0	
0.0055	-0.0115719	0.0142169	0.000603709	0.000771715	0	0	0	
0.00566667	0.0191854	-0.0354127	0.000513583	0.000675108	0	0	0	
0.00583333	0.00529636	0.0550777	0.000452098	0.000652305	0	0	0	
0.006	-0.0149291	-0.0263115	0.000351242	0.000907212	0	0	0	
0.00616667	0.012714	-0.115196	0.000359433	0.00160942	0	0	0	
0.00633333	-0.00232438	0.229186	0.000292151	0.00265658	0	0	0	
0.0065	0.00546898	-0.192739	0.000251824	0.00355558	0	0	0	
0.00666667	0.0053066	0.0580097	0.000236917	0.00352435	0	0	0	
0.00683333	-0.00413863	0.0585045	0.000208162	0.00260907	0	0	0	
0.007	0.000128852	-0.0952483	0.000182688	0.00196457	0	0	0	
0.00716667	0.020901	0.0803878	0.000208036	0.00188167	0	0	0	
0.00733333	-0.01972	-0.0425537	0.000263996	0.00254943	0	0	0	
0.0075	0.00756896	0.0149631	0.000374512	0.00299952	0	0	0	
0.00766667	0.00793566	-0.0568364	0.000407521	0.00287546	0	0	0	
0.00783333	-0.000333191	0.116217	0.000321678	0.00253392	0	0	0	
0.008	-0.00561307	-0.112862	0.000196234	0.00220446	0	0	0	
0.00816667	0.0106694	0.0907328	0.000120787	0.00225598	0	0	0	
0.00833333	-0.00480098	-0.029295	0.000148863	0.00188321	0	0	0	
0.0085	0.00939074	-0.0289918	0.000170078	0.00118341	0	0	0	
0.00866667	-0.0116917	0.0448981	0.000183433	0.00078957	0	0	0	
0.00883333	0.0139295	-0.00926874	0.000240013	0.000879747	0	0	0	
0.009	-0.00474122	0.00174632	0.000290872	0.000964852	0	0	0	
0.00916667	0.00500159	-0.0132336	0.000291081	0.000741081	0	0	0	
0.00933333	-0.00657906	0.0294774	0.00021494	0.00051743	0	0	0	
0.0095	0.0119653	-0.0441346	0.000172027	0.000623054	0	0	0	
0.00966667	-0.00266673	0.0434572	0.000194378	0.000840921	0	0	0	
0.00983333	-0.00221613	-0.0254755	0.00022658	0.00085675	0	0	0	
0.01	-0.0022315	-0.0224287	0.000190615	0.000888427	0	0	0	
0.0101667	0.0166205	0.0458629	0.000170495	0.000770085	0	0	0	
0.0103333	-0.0125866	-0.0305317	0.000187301	0.000892512	0	0	0	
0.0105	0.00486925	0.00686168	0.000278407	0.000930141	0	0	0	
0.0106667	-8.48942E-06	-0.0123255	0.000279959	0.00101452	0	0	0	
0.0108333	0.00824125	0.00348444	0.000228993	0.000812997	0	0	0	
0.011	-0.00656797	-0.00224498	0.00016161	0.000552756	0	0	0	
0.0111667	0.00337095	0.0041972	0.000173355	0.000339878	0	0	0	
0.0113333	-0.000427012	-0.0255301	0.000176347	0.000313811	0	0	0	
0.0115	0.00924207	0.0322146	0.000156234	0.000354811	0	0	0	
0.0116667	-0.00936119	-0.00739402	0.000130697	0.000521947	0	0	0	
0.0118333	0.00626194	-0.0105812	0.000184305	0.000577584	0	0	0	
0.012	0.000243897	-0.0103585	0.000219544	0.000506528	0	0	0	
0.0121667	0.00631671	0.0218345	0.000199893	0.000389629	0	0	0	
0.0123333	-0.00588628	-0.00602744	0.000141602	0.000311066	0	0	0	
0.0125	0.00957346	0.0144106	0.000134824	0.000280236	0	0	0	
0.0126667	-0.00843579	-0.0168798	0.000154382	0.000263946	0	0	0	
0.0128333	0.0146182	-0.0123094	0.000205252	0.000392822	0	0	0	
0.013	-0.00712643	0.0255605	0.000233241	0.000466996	0	0	0	
0.0131667	0.00333412	0.00540905	0.00026438	0.000476535	0	0	0	
0.0133333	-0.000386958	-0.00640077	0.000204386	0.000306562	0	0	0	
0.0135	0.00927202	-0.0113899	0.00014814	0.000286034	0	0	0	
0.0136667	-0.00547567	-0.00803654	0.000110421	0.000295998	0	0	0	
0.0138333	0.00879357	0.0273433	0.00013085	0.000342297	0	0	0	
0.014	-0.00815899	0.00779683	0.000148588	0.000482991	0	0	0	
0.0141667	0.00664356	-0.0185304	0.000157368	0.000547166	0	0	0	
0.0143333	0.00553807	-0.0262892	0.000195323	0.000620075	0	0	0	
0.0145	-0.00409652	0.0484706	0.000184285	0.000594062	0	0	0	
0.0146667	-0.00291498	-0.0129336	0.000172794	0.000693214	0	0	0	
0.0148333	0.0142122	-0.0246811	0.000140681	0.000883052	0	0	0	
0.015	-0.0100759	0.0317096	0.000174838	0.000990574	0	0	0	
0.0151667	0.00526761	-0.0167787	0.000221324	0.00109421	0	0	0	
0.0153333	-0.000857412	-0.0127898	0.0002589	0.00103131	0	0	0	
0.0155	0.00305378	0.022084	0.000248155	0.000863725	0	0	0	
0.0156667	-0.000701559	-0.038481	0.000178642	0.000727138	0	0	0	
0.0158333	0.00724012	0.0557415	0.000118851	0.000732996	0	0	0	
0.016	-0.0110076	-0.0593976	0.000111893	0.000918129	0	0	0	
0.0161667	0.0120343	0.0435859	0.000162848	0.00105436	0	0	0	
0.0163333	-0.00298915	-0.0379639	0.000218279	0.00106414	0	0	0	
0.0165	0.000719956	0.0294634	0.000224992	0.00109482	0	0	0	
0.0166667	-0.000806887	-0.0157663	0.000179129	0.00102345	0	0	0	
0.0168333	0.0169421	0.000334329	0.000182724	0.000819031	0	0	0	
0.017	-0.0225841	0.00416447	0.000249679	0.00046072	0	0	0	
0.0171667	0.0231317	-0.0176964	0.000356168	0.000193583	0	0	0	
0.0173333	-0.0147909	0.0462254	0.000413608	0.000286019	0	0	0	
0.0175	0.00309919	-0.044697	0.000449511	0.000573594	0	0	0	
0.0176667	0.0141295	0.0222586	0.000430237	0.000817845	0	0	0	
0.0178333	-0.00562484	0.00911693	0.000335927	0.000767269	0	0	0	
0.018	-0.00611496	-0.0254848	0.000263028	0.000548088	0	0	0	
0.0181667	0.014462	-0.00193769	0.000209343	0.000565701	0	0	0	
0.0183333	-0.0106725	0.0648638	0.00023602	0.000815263	0	0	0	
0.0185	0.014444	-0.0554592	0.000226102	0.00106697	0	0	0	
0.0186667	-0.0108297	-0.022163	0.000239019	0.00151708	0	0	0	
0.0188333	0.00821924	0.0595931	0.00026542	0.00167825	0	0	0	
0.019	-0.00441545	-0.0227842	0.00025339	0.00161896	0	0	0	
0.0191667	0.012325	0.00364759	0.000248263	0.000924612	0	0	0	
0.0193333	-0.0107755	0.00316964	0.000216856	0.000459439	0	0	0	
0.0195	0.0116308	-0.0776231	0.000235949	0.000569058	0	0	0	
0.0196667	-0.00813773	0.114923	0.000233942	0.00106268	0	0	0	
0.0198333	0.0110606	-0.05686	0.000251072	0.00172026	0	0	0	
0.02	-0.00363747	-0.00464147	0.000238253	0.00193493	0	0	0	
0.0201667	0.00218294	0.00381564	0.000241456	0.00146423	0	0	0	
0.0203333	0.000477621	-0.0116637	0.00018896	0.000883678	0	0	0	
0.0205	0.00603692	0.00170576	0.000135766	0.000453636	0	0	0	
0.0206667	-0.00824605	0.0205687	0.000104344	0.000647435	0	0	0	
0.0208333	0.0149913	-0.0342825	0.000150629	0.00065354	0	0	0	
0.021	-0.0108798	0.00642728	0.000213153	0.00065019	0	0	0	
0.0211667	0.0123883	0.00906735	0.000276507	0.000542044	0	0	0	
0.0213333	-0.00624308	0.00023865	0.000293581	0.000434339	0	0	0	
0.0215	0.00296066	0.000115611	0.000311385	0.000389261	0	0	0	
0.0216667	0.00235774	-0.0152304	0.000267463	0.000382081	0	0	0	
0.0218333	0.00762333	0.011301	0.000195486	0.0003839	0	0	0	
0.022	-0.0125237	0.00176787	0.000157489	0.000283418	0	0	0	
0.0221667	0.0120482	0.000769299	0.000180991	0.000149144	0	0	0	
0.0223333	-0.00632723	-0.00191013	0.000206096	0.000109515	0	0	0	
0.0225	0.0150975	-0.00423245	0.000208335	0.000209527	0	0	0	
0.0226667	-0.0154689	0.010684	0.000211068	0.00027772	0	0	0	
0.0228333	0.00959024	-0.0120456	0.000290333	0.000318056	0	0	0	
0.023	0.00550892	0.00750314	0.000367572	0.000334826	0	0	0	
0.0231667	-0.00875274	0.00521232	0.000342267	0.000368495	0	0	0	
0.0233333	0.00388343	-0.0290124	0.000255175	0.000427019	0	0	0	
0.0235	0.00472298	0.0411946	0.000138989	0.000486243	0	0	0	
0.0236667	-0.00694371	-0.00888056	0.000111996	0.000573802	0	0	0	
0.0238333	0.0149059	-0.0241343	0.000137924	0.000649321	0	0	0	
0.024	-0.0100454	0.0204307	0.000193333	0.000577103	0	0	0	
0.0241667	0.00501582	-0.00416406	0.000245245	0.000463807	0	0	0	
0.0243333	-0.00240438	-0.00100279	0.000216551	0.000263327	0	0	0	
0.0245	0.00817084	0.0178254	0.000172345	0.000223388	0	0	0	
0.0246667	-0.00852057	-0.029115	0.000140835	0.000251445	0	0	0	
0.0248333	0.00919847	0.00368398	0.000193622	0.000458885	0	0	0	
0.025	-0.00323751	0.0245552	0.000229854	0.000533238	0	0	0	
0.0251667	0.0049306	0.000448511	0.000237012	0.000538672	0	0	0	
0.0253333	-0.00209748	-0.021881	0.000180269	0.00050828	0	0	0	
0.0255	0.00593448	0.0167001	0.000145264	0.000444005	0	0	0	
0.0256667	-0.00836058	-0.0164294	0.000127381	0.000406195	0	0	0	
0.0258333	0.0161172	0.0112116	0.000169598	0.000331514	0	0	0	
0.026	-0.0150197	0.0155437	0.000223101	0.00037195	0	0	0	
0.0261667	0.011908	-0.0331505	0.000288553	0.000404313	0	0	0	
0.0263333	-0.00200542	0.0293042	0.000287526	0.000539647	0	0	0	
0.0265	0.00409034	-0.00180377	0.000249158	0.000622084	0	0	0	
0.0266667	-0.00417363	-0.018197	0.000173034	0.000662573	0	0	0	
0.0268333	0.00880584	0.0161624	0.000141477	0.000523897	0	0	0	
0.027	-0.00738787	-0.0019582	0.000132081	0.000346149	0	0	0	
0.0271667	0.00844802	-0.00592494	0.000161825	0.000201934	0	0	0	
0.0273333	-0.00530313	0.0119139	0.000157376	0.000168286	0	0	0	
0.0275	0.00779385	-0.0184264	0.000167722	0.000225329	0	0	0	
0.0276667	-0.00305558	0.0188053	0.00016219	0.00030125	0	0	0	
0.0278333	0.00541548	-0.00369802	0.000175371	0.000312174	0	0	0	
0.028	-0.00662687	0.0119295	0.000155587	0.00033289	0	0	0	
0.0281667	0.0126733	-0.0299507	0.000169916	0.000400403	0	0	0	
0.0283333	-0.00870048	0.0246831	0.00018437	0.000485833	0	0	0	
0.0285	0.00928234	-0.00482111	0.000225576	0.000499183	0	0	0	
0.0286667	-0.00752254	0.00956769	0.000216121	0.000404236	0	0	0	
0.0288333	0.0106584	-0.0105603	0.00022587	0.000381746	0	0	0	
0.029	-0.00456363	-0.015149	0.000223644	0.00032827	0	0	0	
0.0291667	0.00474083	0.0191602	0.000221513	0.00048933	0	0	0	
0.0293333	-0.00559861	0.00731995	0.000171072	0.000696649	0	0	0	
0.0295	0.0106378	-0.00175761	0.000149253	0.000710566	0	0	0	
0.0296667	-0.00540202	-0.0243661	0.000135386	0.000588318	0	0	0	
0.0298333	0.00449366	0.0248125	0.000152794	0.000362488	0	0	0	
0.03	-0.00340412	-0.0389503	0.000124492	0.000463205	0	0	0	
0.0301667	0.00829686	0.0619496	0.000116756	0.000679074	0	0	0	
0.0303333	-0.00866174	-0.0294522	0.000120983	0.000962169	0	0	0	
0.0305	0.0135385	-0.0387306	0.000165926	0.00124798	0	0	0	
0.0306667	-0.0145642	0.0540011	0.000214021	0.00120917	0	0	0	
0.0308333	0.0122925	-0.0189412	0.000263887	0.00106345	0	0	0	
0.031	-0.00128446	-0.0122705	0.000280885	0.000746881	0	0	0	
0.0311667	8.14783E-05	0.0126951	0.000250981	0.000536296	0	0	0	
0.0313333	-0.00233327	-0.0404104	0.000168038	0.000497688	0	0	0	
0.0315	0.00921914	0.107002	0.000117775	0.000827676	0	0	0	
0.0316667	-0.00581593	-0.101716	0.000105506	0.0014414	0	0	0	
0.0318333	0.00476853	0.047794	0.000128456	0.0016736	0	0	0	
0.032	-0.00919034	-0.088223	0.000148759	0.00162019	0	0	0	
0.0321667	0.0129835	0.0930596	0.000169901	0.00145964	0	0	0	
0.0323333	-0.00515814	0.0231056	0.000192336	0.00176009	0	0	0	
0.0325	0.0070329	-0.0762423	0.000198365	0.00158308	0	0	0	
0.0326667	-0.00758504	0.00845756	0.000192349	0.00188583	0	0	0	
0.0328333	0.00582369	0.000699993	0.000210334	0.00174246	0	0	0	
0.033	0.00186349	0.0310131	0.00021561	0.00176103	0	0	0	
0.0331667	0.00294982	0.0285327	0.000176782	0.0016239	0	0	0	
0.0333333	-0.00832029	-0.0748005	0.000134766	0.00148223	0	0	0	
0.0335	0.0121263	0.000117286	0.000129476	0.00164319	0	0	0	
0.0336667	-0.00751179	0.0357082	0.000171663	0.0012107	0	0	0	
0.0338333	0.010464	0.0141691	0.000199618	0.00106021	0	0	0	
0.034	-0.0076501	-0.0152261	0.000192201	0.000779892	0	0	0	
0.0341667	0.00138479	0.0023651	0.000211858	0.000554879	0	0	0	
0.0343333	0.00510149	-0.0243367	0.000254802	0.000338627	0	0	0	
0.0345	0.000138288	0.0186778	0.000265456	0.000323222	0	0	0	
0.0346667	-0.00288074	0.00614085	0.000225055	0.000453033	0	0	0	
0.0348333	0.00258748	0.00437543	0.000185352	0.00047383	0	0	0	
0.035	0.00250516	-0.0137591	0.000173077	0.000509325	0	0	0	
0.0351667	0.00668591	0.00127341	0.000165633	0.000370098	0	0	0	
0.0353333	-0.0133948	-0.00511573	0.000168464	0.000261842	0	0	0	
0.0355	0.0113493	0.02324	0.000228399	0.000197078	0	0	0	
0.0356667	-0.0044886	-0.0220608	0.00027699	0.000296012	0	0	0	
0.0358333	0.0102989	-0.000767012	0.000276471	0.000371205	0	0	0	
0.036	-0.008566	0.00752363	0.00023173	0.00026494	0	0	0	
0.0361667	0.00573868	0.0291152	0.000237534	0.000305673	0	0	0	
0.0363333	-0.000959201	-0.0511343	0.000217763	0.000484356	0	0	0	
0.0365	0.00776522	0.044751	0.000184592	0.000751588	0	0	0	
0.0366667	-0.00851958	-0.0284604	0.000142057	0.000814978	0	0	0	
0.0368333	0.0105443	0.00652417	0.000161323	0.000671359	0	0	0	
0.037	-0.00621409	0.0233651	0.000177519	0.000455245	0	0	0	
0.0371667	0.00620573	-0.0128395	0.000196413	0.000423178	0	0	0	
0.0373333	-0.00245302	-0.0263725	0.000183349	0.000720522	0	0	0	
0.0375	0.00511323	0.0326576	0.000178164	0.000930191	0	0	0	
0.0376667	-0.00290622	0.00419329	0.000136357	0.000813306	0	0	0	
0.0378333	0.00709644	-0.0449012	0.00011218	0.000551341	0	0	0	
0.038	-0.00993821	0.0554524	0.000108454	0.000610361	0	0	0	
0.0381667	0.0154069	-0.073854	0.000170407	0.000933358	0	0	0	
0.0383333	-0.00900832	0.0575238	0.000216191	0.00119438	0	0	0	
0.0385	0.00535118	0.0224652	0.000249645	0.00127719	0	0	0	
0.0386667	-0.00110749	-0.0782108	0.000189807	0.00120248	0	0	0	
0.0388333	0.00869616	0.0410864	0.000142775	0.00121258	0	0	0	
0.039	-0.0135805	0.0059716	0.000136759	0.00129086	0	0	0	
0.0391667	0.0172645	-0.0166068	0.000208665	0.00122714	0	0	0	
0.0393333	-0.0104892	0.0105852	0.000256646	0.00105345	0	0	0	
0.0395	0.00665274	-0.0201325	0.000275042	0.000773338	0	0	0	
0.0396667	-0.000497517	0.006055	0.000234863	0.000629944	0	0	0	
0.0398333	0.00301838	0.0217775	0.000190391	0.000695345	0	0	0	
0.04	-0.00183798	-0.0108417	0.000118366	0.000674113	0	0	0	
0.0401667	0.00902902	-0.00556326	0.000101233	0.000590362	0	0	0	
0.0403333	-0.0117836	0.00119196	0.000122061	0.000312451	0	0	0	
0.0405	0.011182	-0.0148713	0.000192806	0.000199708	0	0	0	
0.0406667	-0.0015866	0.0118249	0.000239842	0.000222958	0	0	0	
0.0408333	0.00322845	0.00647367	0.000224934	0.000362395	0	0	0	
0.041	-0.00992465	-0.0119695	0.000173439	0.000408619	0	0	0	
0.0411667	0.0186193	0.000956842	0.00017666	0.000392348	0	0	0	
0.0413333	-0.0134084	0.00784147	0.000240391	0.000267715	0	0	0	
0.0415	0.00640939	-0.00682304	0.000330477	0.000171608	0	0	0	
0.0416667	0.00219891	0.00611191	0.000343839	0.000193138	0	0	0	
0.0418333	5.04545E-05	-0.00161457	0.000268679	0.000224198	0	0	0	
0.042	-0.00398793	-0.00713477	0.000170341	0.000295408	0	0	0	
0.0421667	0.0110955	0.0162765	0.00014098	0.000267487	0	0	0	
0.0423333	-0.0173159	-0.00947796	0.000209031	0.000363168	0	0	0	
0.0425	0.0230491	-0.0158477	0.000299482	0.000524631	0	0	0	
0.0426667	-0.01406	0.0421518	0.000350883	0.000685544	0	0	0	
0.0428333	0.00793056	-0.0339708	0.000369552	0.000720629	0	0	0	
0.043	-0.00422658	0.00745819	0.000296619	0.000683112	0	0	0	
0.0431667	0.00956543	0.0048591	0.000220559	0.000566778	0	0	0	
0.0433333	-0.00647201	0.0201061	0.000141671	0.000487025	0	0	0	
0.0435	0.00475825	-0.0445475	0.00015838	0.000497561	0	0	0	
0.0436667	-0.000928934	0.0367538	0.000149401	0.000635863	0	0	0	
0.0438333	0.00512236	-0.00010052	0.000143238	0.000697072	0	0	0	
0.044	-0.000481402	-0.0369951	9.31285E-05	0.000635092	0	0	0	
0.0441667	0.00393062	0.0309744	7.05408E-05	0.000642847	0	0	0	
0.0443333	-0.00919692	0.00885521	8.54471E-05	0.000896494	0	0	0	
0.0445	0.0205159	-0.0179067	0.000162171	0.00106277	0	0	0	
0.0446667	-0.0222936	0.0122609	0.000282649	0.00106791	0	0	0	
0.0448333	0.016929	-0.0392077	0.000362672	0.00093697	0	0	0	
0.045	-0.00977727	0.0450553	0.000361052	0.00081049	0	0	0	
0.0451667	0.010219	0.0187446	0.000315146	0.000974953	0	0	0	
0.0453333	-0.00470845	-0.0487231	0.000240909	0.000862491	0	0	0	
0.0455	0.00468961	-0.00575854	0.000187489	0.000996293	0	0	0	
0.0456667	-0.00405995	0.0402695	0.000124545	0.000840102	0	0	0	
0.0458333	0.00577785	-0.00769358	0.000110804	0.00076261	0	0	0	
0.046	-0.00938757	-0.00370771	0.000121765	0.000470011	0	0	0	
0.0461667	0.0125339	0.00133675	0.000165181	0.000247701	0	0	0	
0.0463333	-0.00486399	-0.0126488	0.000183092	0.000184801	0	0	0	
0.0465	0.00511361	0.0146729	0.000191677	0.000213377	0	0	0	
0.0466667	-0.00381626	0.00462005	0.000158211	0.00028958	0	0	0	
0.0468333	0.0062783	0.000137008	0.000160298	0.000299628	0	0	0	
0.047	-0.00307795	-0.00367887	0.000134837	0.000247369	0	0	0	
0.0471667	0.0117451	-0.00634895	0.000149685	0.000185382	0	0	0	
0.0473333	-0.0124754	0.0178072	0.000157124	0.000206537	0	0	0	
0.0475	0.0112682	-0.00357328	0.000222142	0.000371131	0	0	0	
0.0476667	-0.00285871	-0.00129523	0.000245626	0.000433748	0	0	0	
0.0478333	0.00482797	-0.00215934	0.000226506	0.000341414	0	0	0	
0.048	-0.00684522	-0.00603604	0.000160802	0.00015865	0	0	0	
0.0481667	0.0152689	0.0105244	0.000160281	0.000105049	0	0	0	
0.0483333	-0.0120716	0.0147677	0.000196654	0.000132813	0	0	0	
0.0485	0.0137275	-0.0174946	0.000255119	0.000251564	0	0	0	
0.0486667	-0.0115863	-0.00877359	0.000253284	0.00033472	0	0	0	
0.0488333	0.00950971	0.00767786	0.000252907	0.000386941	0	0	0	
0.049	0.000571005	0.00367098	0.000228362	0.000418103	0	0	0	
0.0491667	0.00423103	0.00313764	0.000183445	0.000322315	0	0	0	
0.0493333	-0.00642303	0.000295013	0.000150135	0.000358625	0	0	0	
0.0495	0.00914703	-0.00897152	0.000143275	0.000254669	0	0	0	
0.0496667	-0.00508169	0.00412817	0.000153132	0.000265321	0	0	0	
0.0498333	0.0101416	0.00414294	0.000152366	0.000161638	0	0	0	
0.05	-0.00783052	-0.00745525	0.000139635	0.000185803	0	0	0	
0.0501667	0.00395137	0.00578279	0.000180777	0.000241197	0	0	0	
0.0503333	0.00530043	0.00511579	0.000210005	0.000264717	0	0	0	
0.0505	0.000134448	-0.000595188	0.000190199	0.000228594	0	0	0	
0.0506667	-0.00319629	-0.0219941	0.000125022	0.00023372	0	0	0	
0.0508333	0.00501284	0.0211832	7.73237E-05	0.000313375	0	0	0	
0.051	-0.00261483	0.0186764	6.80899E-05	0.000494086	0	0	0	
0.0511667	0.0119456	-0.0407853	9.8928E-05	0.000594637	0	0	0	
0.0513333	-0.01211	0.0175797	0.000140725	0.000637132	0	0	0	
0.0515	0.00931232	0.00610676	0.000239747	0.000478318	0	0	0	
0.0516667	-0.000797196	-0.0101277	0.000269572	0.000336636	0	0	0	
0.0518333	0.00529124	0.00813667	0.000233669	0.000233232	0	0	0	
0.052	-0.00735418	-0.00299145	0.000159789	0.000198492	0	0	0	
0.0521667	0.00828321	0.006717	0.000161518	0.000151766	0	0	0	
0.0523333	-0.00363697	-0.0125953	0.00017382	0.000176722	0	0	0	
0.0525	0.0114979	0.00694121	0.000193935	0.000279224	0	0	0	
0.0526667	-0.011186	0.00907236	0.000180284	0.000328202	0	0	0	
0.0528333	0.0103113	-0.00413974	0.00021012	0.00035978	0	0	0	
0.053	-0.003941	-0.0328166	0.000213233	0.000472799	0	0	0	
0.0531667	0.00557013	0.0546029	0.000196812	0.000695521	0	0	0	
0.0533333	-0.00595169	-0.0528448	0.000149014	0.000912504	0	0	0	
0.0535	0.0117503	0.0470553	0.000148609	0.00104631	0	0	0	
0.0536667	-0.00829036	-0.0206453	0.000154977	0.00112385	0	0	0	
0.0538333	0.00758322	-0.0158906	0.000184971	0.000909504	0	0	0	
0.054	-0.00413384	0.0369145	0.000162506	0.000699496	0	0	0	
0.0541667	0.00835167	-0.0116076	0.000157266	0.000629716	0	0	0	
0.0543333	-0.00893286	-0.0133205	0.000143751	0.000885605	0	0	0	
0.0545	0.0114481	-0.01926	0.00018062	0.000885117	0	0	0	
0.0546667	-0.00626562	0.0575144	0.000188524	0.000883046	0	0	0	
0.0548333	0.00463489	-0.0306659	0.000201085	0.000793448	0	0	0	
0.055	-0.00190752	0.00408188	0.00016357	0.000731659	0	0	0	
0.0551667	0.00297667	0.00466499	0.000146774	0.000462266	0	0	0	
0.0553333	0.0015839	-0.0206136	0.000121562	0.000289203	0	0	0	
0.0555	0.00347344	0.0424957	0.000103187	0.000353122	0	0	0	
0.0556667	-0.0101628	-0.0258695	0.000156702	0.000567227	0	0	0	
0.0558333	0.0204347	-0.00916799	0.00023014	0.000694703	0	0	0	
0.056	-0.0131108	0.0176801	0.000302808	0.000569742	0	0	0	
0.0561667	0.00453078	-0.00460662	0.000311539	0.000466155	0	0	0	
0.0563333	-0.00347708	0.00465227	0.0002454	0.000267704	0	0	0	
0.0565	0.00762872	-0.00295365	0.000199599	0.000251904	0	0	0	
0.0566667	0.00152679	-0.0135796	0.000122287	0.000223057	0	0	0	
0.0568333	0.000183494	0.0189166	8.60536E-05	0.000254563	0	0	0	
0.057	-0.00735754	0.00476076	7.64284E-05	0.000359419	0	0	0	
0.0571667	0.0155068	-0.0198187	0.000124398	0.000306119	0	0	0	
0.0573333	-0.00305924	0.00795653	0.000223625	0.000416496	0	0	0	
0.0575	-0.00893777	0.0135972	0.000298947	0.000502848	0	0	0	
0.0576667	0.00812605	-0.0197844	0.000273253	0.000531149	0	0	0	
0.0578333	0.0099187	0.00606818	0.000278872	0.000485025	0	0	0	
0.058	-0.0175631	0.00638252	0.000259947	0.000429444	0	0	0	
0.0581667	0.0191945	-0.0217085	0.0003272	0.000519594	0	0	0	
0.0583333	-0.0199246	0.0425985	0.000336306	0.000604403	0	0	0	
0.0585	0.019277	-0.0449642	0.000373952	0.000663147	0	0	0	
0.0586667	-0.00368617	0.0191979	0.000384698	0.00093223	0	0	0	
0.0588333	-0.00250693	0.0148248	0.000366037	0.00114965	0	0	0	
0.059	-0.00279961	0.00481044	0.000244306	0.00112132	0	0	0	
0.0591667	0.0131407	-0.0134985	0.000173241	0.000800483	0	0	0	
0.0593333	-0.00880197	0.0168013	0.000140397	0.000513827	0	0	0	
0.0595	0.00541708	-0.0552359	0.000193359	0.00059562	0	0	0	
0.0596667	-0.00531598	0.081832	0.000164129	0.000880931	0	0	0	
0.0598333	0.0119588	-0.0514411	0.000153837	0.00114349	0	0	0	
0.06	-0.0129088	0.0215223	0.000160628	0.0011207	0	0	0	
0.0601667	0.017203	0.00553983	0.000238509	0.000883945	0	0	0	
0.0603333	-0.0131916	-0.0230976	0.000269292	0.000727174	0	0	0	
0.0605	0.0102066	0.0174598	0.000300398	0.00076381	0	0	0	
0.0606667	-0.00457169	0.00916136	0.000248223	0.000970003	0	0	0	
0.0608333	0.0129482	-0.0324673	0.000220755	0.000935462	0	0	0	
0.061	-0.0190095	0.0119911	0.000212883	0.000810639	0	0	0	
0.0611667	0.0159105	0.015263	0.000284707	0.000756918	0	0	0	
0.0613333	-0.00810213	-0.0147861	0.000321445	0.000681499	0	0	0	
0.0615	0.00975825	0.0145087	0.000307594	0.000639753	0	0	0	
0.0616667	-0.0068024	-0.0320245	0.000234403	0.000536259	0	0	0	
0.0618333	0.00540324	0.0257648	0.000199104	0.000542185	0	0	0	
0.062	-0.00410867	0.0243266	0.000149508	0.000635468	0	0	0	
0.0621667	0.00921016	-0.0212599	0.000150218	0.000543098	0	0	0	
0.0623333	-0.00932924	-0.0124505	0.000134927	0.000553019	0	0	0	
0.0625	0.00717003	-0.00296079	0.000163851	0.000424488	0	0	0	
0.0626667	-0.00141382	0.029983	0.000132598	0.000452818	0	0	0	
0.0628333	0.00406105	0.00209993	0.000107161	0.000452052	0	0	0	
0.063	-0.00581827	-0.0230769	7.82275E-05	0.000530927	0	0	0	
0.0631667	0.0128719	0.0146416	0.000115924	0.000494191	0	0	0	
0.0633333	-0.00996366	-0.00366521	0.000165679	0.000415735	0	0	0	
0.0635	0.00418655	-0.0246906	0.000236324	0.000357226	0	0	0	
0.0636667	-0.000212448	0.0990693	0.00023907	0.000611065	0	0	0	
0.0638333	0.00692859	-0.0854784	0.000205244	0.00114515	0	0	0	
0.064	-0.00494096	0.0164418	0.00014997	0.00162995	0	0	0	
0.0641667	0.00487547	0.0152395	0.000145583	0.00142017	0	0	0	
0.0643333	-0.00605492	-0.0143947	0.000140529	0.00100623	0	0	0	
0.0645	0.0115093	0.0191494	0.000156199	0.000648701	0	0	0	
0.0646667	-0.00887358	0.0288711	0.000160821	0.000953069	0	0	0	
0.0648333	0.00687819	-0.07257	0.000196191	0.00146592	0	0	0	
0.065	-0.00389703	0.0579944	0.000170155	0.00172653	0	0	0	
0.0651667	0.00924061	0.0150715	0.000155996	0.00139954	0	0	0	
0.0653333	-0.00806776	-0.0608734	0.000134706	0.000917579	0	0	0	
0.0655	0.00572893	0.0563064	0.000156639	0.000791578	0	0	0	
0.0656667	-0.00341093	-0.0135405	0.000144556	0.000909341	0	0	0	
0.0658333	0.0122504	-0.0384211	0.000167409	0.000897519	0	0	0	
0.066	-0.0145898	0.0440119	0.000187678	0.000761713	0	0	0	
0.0661667	0.0126949	0.00775616	0.000246152	0.000954506	0	0	0	
0.0663333	-0.00711957	-0.0414639	0.000234253	0.00106832	0	0	0	
0.0665	0.00915665	0.0334078	0.000221793	0.00104714	0	0	0	
0.0666667	-0.00329538	-0.0242045	0.000173251	0.000759725	0	0	0	
0.0668333	0.00254747	0.0146409	0.000154329	0.000558591	0	0	0	
0.067	-0.00506828	0.0340832	0.000119448	0.000748664	0	0	0	
0.0671667	0.0139329	-0.0608331	0.000144159	0.000943798	0	0	0	
0.0673333	-0.0112599	0.0237266	0.000169764	0.00111346	0	0	0	
0.0675	0.00857896	0.0219871	0.000224392	0.00108228	0	0	0	
0.0676667	-0.00470281	-0.0174506	0.000204508	0.000824809	0	0	0	
0.0678333	0.00685347	0.00550257	0.00018773	0.000593263	0	0	0	
0.068	-0.00524441	-0.0175325	0.000137412	0.000273329	0	0	0	
0.0681667	0.00996121	0.0174939	0.000139924	0.000295439	0	0	0	
0.0683333	-0.00658295	0.000944673	0.000143662	0.00039215	0	0	0	
0.0685	0.00414004	0.00768528	0.000162304	0.000368644	0	0	0	
0.0686667	-0.00212076	-0.0320693	0.000125816	0.000414627	0	0	0	
0.0688333	0.00968349	0.0169464	0.000117258	0.000364924	0	0	0	
0.069	-0.0122917	0.00770805	0.00012638	0.000543072	0	0	0	
0.0691667	0.0153229	-0.00573992	0.000202119	0.000492295	0	0	0	
0.0693333	-0.00916844	-0.00919968	0.000245022	0.000408198	0	0	0	
0.0695	0.00272703	0.00185768	0.000275219	0.000251511	0	0	0	
0.0696667	0.00257885	-0.00874153	0.000259391	0.000258313	0	0	0	
0.0698333	0.00293444	0.0295674	0.000197141	0.000339441	0	0	0	
0.07	-0.00808452	-0.0240399	0.00014173	0.000460828	0	0	0	
0.0701667	0.0122364	0.00666656	0.000133638	0.000492433	0	0	0	
0.0703333	-0.00923206	-0.0105846	0.000166931	0.00045211	0	0	0	
0.0705	0.0110598	0.012054	0.000210301	0.000390394	0	0	0	
0.0706667	-0.00713086	-0.00172516	0.000218553	0.000282533	0	0	0	
0.0708333	0.00330967	0.0102715	0.000227181	0.000292577	0	0	0	
0.071	-0.00107853	-0.0227799	0.000171112	0.000287574	0	0	0	
0.0711667	0.00725446	0.00463311	0.000130218	0.000340846	0	0	0	
0.0713333	-0.00830804	0.0162598	0.000103929	0.000342789	0	0	0	
0.0715	0.00969079	-0.0104813	0.000144878	0.000316432	0	0	0	
0.0716667	-0.00701932	0.00761693	0.000157706	0.000278746	0	0	0	
0.0718333	0.0127477	-0.0252867	0.000180659	0.00034826	0	0	0	
0.072	-0.0150368	0.028356	0.000195084	0.000418808	0	0	0	
0.0721667	0.00844471	-0.00989459	0.000266828	0.000521496	0	0	0	
0.0723333	0.00430371	-0.00898914	0.000310695	0.000536364	0	0	0	
0.0725	-0.00201313	0.0132321	0.000250169	0.000484667	0	0	0	
0.0726667	-0.00482539	-0.0151947	0.000183668	0.000370889	0	0	0	
0.0728333	0.0119755	0.00371041	0.000138729	0.000412554	0	0	0	
0.073	-0.0134203	0.0181088	0.000195132	0.000597386	0	0	0	
0.0731667	0.0162999	-0.00924851	0.000237228	0.000638028	0	0	0	
0.0733333	-0.00971541	-0.000242822	0.000255241	0.000429129	0	0	0	
0.0735	0.00583479	-0.0197576	0.000257056	0.000242268	0	0	0	
0.0736667	-0.00590992	0.0151844	0.000193961	0.000246908	0	0	0	
0.0738333	0.0109173	0.0277131	0.000169675	0.00044209	0	0	0	
0.074	-0.00755603	-0.0320562	0.00014842	0.000508128	0	0	0	
0.0741667	0.00944518	0.000464558	0.000188905	0.000665094	0	0	0	
0.0743333	-0.00733281	0.00595788	0.000184254	0.000497771	0	0	0	
0.0745	0.00367124	0.0117186	0.00019208	0.000430143	0	0	0	
0.0746667	0.00192435	-0.0124676	0.000171262	0.000240218	0	0	0	
0.0748333	0.00506855	0.00172706	0.000139532	0.000279111	0	0	0	
0.075	-0.0112986	-0.00583725	0.000130143	0.000212253	0	0	0	
0.0751667	0.0118979	0.0205062	0.000155137	0.000282666	0	0	0	
0.0753333	-0.00654907	-0.0322558	0.000198396	0.000398902	0	0	0	
0.0755	0.00857655	0.0133545	0.000205037	0.00048142	0	0	0	
0.0756667	-0.00986642	0.00983724	0.0001844	0.000486847	0	0	0	
0.0758333	0.0139069	-0.000315302	0.000202765	0.000305064	0	0	0	
0.076	-0.0155277	-0.0131885	0.000229405	0.000223756	0	0	0	
0.0761667	0.0199406	-0.00245026	0.000286406	0.000128473	0	0	0	
0.0763333	-0.0139721	0.0106778	0.000351367	0.000164435	0	0	0	
0.0765	0.00706869	0.000116625	0.000399432	0.000166544	0	0	0	
0.0766667	-0.000931255	0.00646765	0.000358424	0.000209379	0	0	0	
0.0768333	0.000965409	-0.00579665	0.000232824	0.000186508	0	0	0	
0.077	-0.00316066	-0.0141032	0.000143704	0.000229723	0	0	0	
0.0771667	0.0170203	0.00814445	0.000159745	0.000209749	0	0	0	
0.0773333	-0.0229146	0.00470103	0.000262014	0.000308351	0	0	0	
0.0775	0.0179315	0.0153284	0.000347802	0.00026607	0	0	0	
0.0776667	-0.00554669	-0.0269169	0.000358157	0.000320284	0	0	0	
0.0778333	0.00114747	0.0075264	0.000289537	0.000332293	0	0	0	
0.078	-0.0011877	-0.0114782	0.000171269	0.000349857	0	0	0	
0.0781667	0.00495851	0.0287955	0.000104344	0.000349304	0	0	0	
0.0783333	-0.0103738	-0.00604311	0.000104241	0.000386971	0	0	0	
0.0785	0.0180851	-0.0274338	0.00018172	0.0005074	0	0	0	
0.0786667	-0.0144006	0.0142899	0.000248257	0.000532634	0	0	0	
0.0788333	0.00576614	0.000371368	0.000306544	0.00046098	0	0	0	
0.079	8.4746E-05	0.010491	0.000284316	0.000315793	0	0	0	
0.0791667	0.0013371	-0.00185153	0.00021011	0.000277775	0	0	0	
0.0793333	-0.00159772	-0.0138102	0.000106612	0.000346315	0	0	0	
0.0795	0.00711931	0.0122131	7.46964E-05	0.000386768	0	0	0	
0.0796667	-0.0110884	-0.0145466	0.000101647	0.000339334	0	0	0	
0.0798333	0.0126388	0.0209498	0.000173366	0.000302282	0	0	0	
0.08	-0.00631567	-0.00280057	0.000206885	0.000299802	0	0	0	
0.0801667	0.00526142	0.00628337	0.000231825	0.000278282	0	0	0	
0.0803333	-0.00629649	-0.0114329	0.000219857	0.000217069	0	0	0	
0.0805	0.00498141	0.0103134	0.00022781	0.000190925	0	0	0	
0.0806667	-0.00362239	-0.0188354	0.000211442	0.000258732	0	0	0	
0.0808333	0.00734939	0.0285329	0.000191286	0.000384473	0	0	0	
0.081	-0.00652657	-0.00618314	0.000145735	0.000422853	0	0	0	
0.0811667	0.00267645	-0.00523225	0.000151691	0.000331572	0	0	0	
0.0813333	0.00191124	-0.00356574	0.000151253	0.000323637	0	0	0	
0.0815	0.00695024	0.00191245	0.000150738	0.000367046	0	0	0	
0.0816667	-0.0150469	0.0216933	0.000148224	0.000406399	0	0	0	
0.0818333	0.00917894	-0.0100611	0.000190466	0.000400683	0	0	0	
0.082	-0.00196999	-0.0275952	0.000212465	0.000539505	0	0	0	
0.0821667	0.0106791	0.0174038	0.000196667	0.00059463	0	0	0	
0.0823333	-0.0146902	0.0333445	0.000195411	0.000780365	0	0	0	
0.0825	0.00933875	-0.0481503	0.000270276	0.00101301	0	0	0	
0.0826667	-0.00407861	0.0272517	0.000315571	0.0014097	0	0	0	
0.0828333	0.0104366	-0.0136065	0.000304262	0.00144039	0	0	0	
0.083	-0.0028327	-0.0157787	0.000234786	0.0010643	0	0	0	
0.0831667	-0.00360576	0.0718583	0.000194116	0.000933178	0	0	0	
0.0833333	-0.00365475	-0.100967	0.000143017	0.00107869	0	0	0	
0.0835	0.0185979	0.0882974	0.000185524	0.0015298	0	0	0	
0.0836667	-0.0198631	-0.0531204	0.000238129	0.00169416	0	0	0	
0.0838333	0.0183041	0.03209	0.000349653	0.00146547	0	0	0	
0.084	-0.00802887	-0.00941921	0.000374703	0.00106276	0	0	0	
0.0841667	0.000841255	-0.00202372	0.000394206	0.0007583	0	0	0	
0.0843333	0.00406674	-0.0221128	0.000331774	0.00093748	0	0	0	
0.0845	0.00375636	0.0360495	0.00023659	0.00109707	0	0	0	
0.0846667	-0.013927	-0.00245194	0.000185318	0.000949591	0	0	0	
0.0848333	0.0172178	-0.00769265	0.000213965	0.000490032	0	0	0	
0.085	-0.00773727	-0.014877	0.000275531	0.0003019	0	0	0	
0.0851667	0.00992127	0.0139623	0.000273899	0.000285528	0	0	0	
0.0853333	-0.0127753	0.011923	0.000230859	0.000343588	0	0	0	
0.0855	0.00576421	-0.00135253	0.000243417	0.00025132	0	0	0	
0.0856667	0.00459665	-0.0279219	0.000263312	0.000351283	0	0	0	
0.0858333	0.00320956	0.0176799	0.000239209	0.000379221	0	0	0	
0.086	-0.0162166	0.0208504	0.000225185	0.000500003	0	0	0	
0.0861667	0.0168121	-0.0324929	0.000236974	0.000483169	0	0	0	
0.0863333	-0.00902187	0.00937662	0.000316277	0.000533499	0	0	0	
0.0865	0.0120933	0.0184254	0.000329065	0.000522546	0	0	0	
0.0866667	-0.00908521	-0.0393861	0.000305834	0.000596299	0	0	0	
0.0868333	0.000834745	0.0532942	0.000303189	0.000707137	0	0	0	
0.087	0.00462993	-0.027318	0.000288385	0.000808206	0	0	0	
0.0871667	-0.00135413	-0.00177803	0.000218826	0.000733901	0	0	0	
0.0873333	-0.00625861	-0.017551	0.00015962	0.000528581	0	0	0	
0.0875	0.0173382	0.00698988	0.000165424	0.000335762	0	0	0	
0.0876667	-0.0245982	0.042056	0.00027609	0.000469395	0	0	0	
0.0878333	0.0211472	-0.0343741	0.000375025	0.000603578	0	0	0	
0.088	-0.00520864	-0.0244831	0.00042435	0.000959871	0	0	0	
0.0881667	-0.000710758	0.0228103	0.00037357	0.000796375	0	0	0	
0.0883333	-0.00470058	0.0257277	0.000232413	0.000838704	0	0	0	
0.0885	0.00929842	-0.0258892	0.000135586	0.000551098	0	0	0	
0.0886667	-0.00861306	-0.02042	0.000124379	0.000650937	0	0	0	
0.0888333	0.0115966	0.0265103	0.000186538	0.000525993	0	0	0	
0.089	-0.0117184	0.0240164	0.000196623	0.000787888	0	0	0	
0.0891667	0.00719026	-0.0551005	0.000226345	0.000842943	0	0	0	
0.0893333	0.00198906	0.021349	0.000234395	0.00099832	0	0	0	
0.0895	0.000832445	0.010022	0.000191262	0.000819544	0	0	0	
0.0896667	-0.00756264	0.0134623	0.000168144	0.000661785	0	0	0	
0.0898333	0.0153322	-0.0127828	0.000168931	0.000480638	0	0	0	
0.09	-0.0123658	-0.00679796	0.000227221	0.000323674	0	0	0	
0.0901667	0.0127946	-0.0168665	0.000247466	0.000330585	0	0	0	
0.0903333	-0.0107986	0.039886	0.00023666	0.000418411	0	0	0	
0.0905	0.0105278	-0.0153768	0.000256267	0.000542404	0	0	0	
0.0906667	-0.00618271	-0.0127147	0.000273575	0.000463832	0	0	0	
0.0908333	0.00509883	0.0015135	0.000289012	0.00044638	0	0	0	
0.091	0.000415604	0.00299864	0.000227702	0.000395421	0	0	0	
0.0911667	-0.000716615	-0.00420593	0.000136711	0.000415217	0	0	0	
0.0913333	0.000568023	0.00977247	5.46268E-05	0.000386838	0	0	0	
0.0915	0.0106584	-0.0122233	8.4447E-05	0.000380218	0	0	0	
0.0916667	-0.0249992	-0.00486348	0.000198789	0.000405991	0	0	0	
0.0918333	0.0254865	-0.00710851	0.000346321	0.000439908	0	0	0	
0.092	-0.00797804	0.0219192	0.000413173	0.00045232	0	0	0	
0.0921667	-0.00162231	-0.010015	0.000392113	0.000497076	0	0	0	
0.0923333	-0.00037616	-0.0117701	0.000248892	0.00047863	0	0	0	
0.0925	0.0113774	0.000753447	0.000177117	0.000370745	0	0	0	
0.0926667	-0.0198835	-0.00144874	0.000152243	0.000266867	0	0	0	
0.0928333	0.0170947	0.0213102	0.00027852	0.000221507	0	0	0	
0.093	-0.00455302	-0.00138834	0.000328155	0.000279546	0	0	0	
0.0931667	0.00234908	-0.0258298	0.000298609	0.000434002	0	0	0	
0.0933333	-0.00601406	0.0121957	0.000209878	0.000426832	0	0	0	
0.0935	0.0144782	0.0118099	0.000187286	0.000407382	0	0	0	
0.0936667	-0.0158007	0.0146603	0.000220151	0.000400032	0	0	0	
0.0938333	0.0124448	-0.0216782	0.000267686	0.000427359	0	0	0	
0.094	-0.00671782	-0.00671465	0.000238466	0.000429674	0	0	0	
0.0941667	0.00504307	0.00576863	0.000205653	0.000340899	0	0	0	
0.0943333	-0.000557877	0.0169054	0.000131596	0.000389357	0	0	0	
0.0945	0.00631152	0.00595267	0.000123019	0.000359537	0	0	0	
0.0946667	-0.0140778	-0.0206365	0.000153554	0.000361323	0	0	0	
0.0948333	0.0213079	-0.00320824	0.000240009	0.000472264	0	0	0	
0.095	-0.0179622	0.0215241	0.000317803	0.000670284	0	0	0	
0.0951667	0.0076268	-0.00996705	0.00035989	0.000662588	0	0	0	
0.0953333	0.00070868	-0.00835119	0.000319992	0.000412434	0	0	0	
0.0955	0.000628699	0.0225643	0.000203909	0.000259216	0	0	0	
0.0956667	-0.00494146	-0.0227328	0.0001167	0.000308389	0	0	0	
0.0958333	0.00613393	0.00803495	9.10706E-05	0.000417921	0	0	0	
0.096	-0.00383808	-0.0036449	0.000114617	0.000447513	0	0	0	
0.0961667	0.00758508	0.00593532	0.000135213	0.000361485	0	0	0	
0.0963333	-0.0118874	1.69528E-05	0.000158925	0.000224321	0	0	0	
0.0965	0.0107695	0.0058077	0.00020258	0.000178854	0	0	0	
0.0966667	-0.0052754	-0.0274563	0.000200112	0.000266825	0	0	0	
0.0968333	0.00274813	0.0328086	0.000179389	0.000410774	0	0	0	
0.097	-0.00352766	-0.0183997	0.000121014	0.000578801	0	0	0	
0.0971667	0.00933418	0.00276891	0.000119602	0.000587656	0	0	0	
0.0973333	-0.01257	0.00195749	0.000136647	0.000493258	0	0	0	
0.0975	0.00987999	-0.00782677	0.000196186	0.000307135	0	0	0	
0.0976667	-0.00365387	-0.00067483	0.000209034	0.000189626	0	0	0	
0.0978333	0.00515943	0.0146033	0.000201786	0.00022705	0	0	0	
0.098	-0.0037257	-0.00940719	0.000154476	0.000238041	0	0	0	
0.0981667	0.00347244	-0.00948375	0.000122939	0.000243056	0	0	0	
0.0983333	-0.00390361	-0.00056716	8.66913E-05	0.000368224	0	0	0	
0.0985	0.00794278	0.0212382	9.67019E-05	0.000638634	0	0	0	
0.0986667	-0.00786692	-0.0188767	0.000108344	0.000767324	0	0	0	
0.0988333	0.004829	0.00298809	0.000145545	0.000584181	0	0	0	
0.099	-0.00405361	-0.00424575	0.000128515	0.000296325	0	0	0	
0.0991667	0.0136153	-0.0147628	0.000151601	0.000307844	0	0	0	
0.0993333	-0.0194915	0.045979	0.000191923	0.000474366	0	0	0	
0.0995	0.0151621	-0.0318965	0.000284864	0.000662471	0	0	0	
0.0996667	-0.00826176	-0.00173089	0.000299831	0.000634134	0	0	0	
0.0998333	0.00818934	0.000334056	0.000268569	0.000427268	0	0	0	
0.1	-0.00608932	-0.0096641	0.000218945	0.000226957	0	0	0	
0.100167	0.00193454	0.0320139	0.00019132	0.000224273	0	0	0	
0.100333	-0.00667138	-0.0131523	0.000156901	0.000517462	0	0	0	
0.1005	0.0146709	-0.00156835	0.000181581	0.000793259	0	0	0	
0.100667	-0.0117224	-0.00662757	0.000192956	0.000715631	0	0	0	
0.100833	0.0045631	0.00989306	0.000231653	0.000531102	0	0	0	
0.101	-0.00188143	-0.00835715	0.000177775	0.000510955	0	0	0	
0.101167	0.00254358	0.039652	0.000132549	0.000986127	0	0	0	
0.101333	-0.00480514	-0.0307696	8.14517E-05	0.00141194	0	0	0	
0.1015	0.00796794	-0.0127372	9.93612E-05	0.0014036	0	0	0	
0.101667	-0.0111257	0.0230531	0.000132218	0.00108516	0	0	0	
0.101833	0.014223	-0.0319719	0.00019573	0.000745516	0	0	0	
0.102	-0.00926792	0.0648201	0.000229177	0.000749129	0	0	0	
0.102167	0.00170347	-0.0729692	0.000272094	0.000958176	0	0	0	
0.102333	-0.000637895	0.046201	0.000218306	0.00117074	0	0	0	
0.1025	0.00972317	-0.0376019	0.000180712	0.00121886	0	0	0	
0.102667	-0.0125013	0.0321461	0.00014019	0.00128143	0	0	0	
0.102833	0.00878587	-0.0218745	0.000196827	0.00125793	0	0	0	
0.103	-0.00402549	-0.00372042	0.000203915	0.00105332	0	0	0	
0.103167	0.0072723	0.00681101	0.000194583	0.000604759	0	0	0	
0.103333	-0.00896027	-0.0116998	0.000160141	0.000265879	0	0	0	
0.1035	0.010167	0.0234247	0.000166702	0.000227135	0	0	0	
0.103667	-0.00933613	-0.0115812	0.0001706	0.00033882	0	0	0	
0.103833	0.0119089	-0.0323016	0.000193239	0.00057758	0	0	0	
0.104	-0.013408	0.06588	0.000198939	0.000765383	0	0	0	
0.104167	0.0114647	-0.0615391	0.000237025	0.00103901	0	0	0	
0.104333	-0.00405636	0.0570885	0.000229938	0.0012044	0	0	0	
0.1045	0.00362955	-0.0228952	0.000205123	0.00124501	0	0	0	
0.104667	-0.00981607	-0.00698857	0.000151976	0.00097365	0	0	0	
0.104833	0.01419	0.035041	0.000165072	0.000784335	0	0	0	
0.105	-0.00862204	0.00269958	0.000198904	0.000955021	0	0	0	
0.105167	0.00339844	-0.0403809	0.000224757	0.00134141	0	0	0	
0.105333	-0.00637808	0.0196604	0.00017494	0.0014235	0	0	0	
0.1055	0.014866	0.0473178	0.000173187	0.0012086	0	0	0	
0.105667	-0.0144274	-0.0455002	0.000192881	0.00106613	0	0	0	
0.105833	0.0110646	0.030245	0.000251745	0.0010145	0	0	0	
0.106	-0.0108727	-0.0202123	0.000235759	0.000951784	0	0	0	
0.106167	0.0131989	0.0166683	0.000235738	0.000703932	0	0	0	
0.106333	-0.0109552	-0.00192401	0.000216658	0.000481312	0	0	0	
0.1065	0.0126405	0.00507909	0.000242363	0.000394129	0	0	0	
0.106667	-0.02092	-0.0139029	0.000263841	0.000377416	0	0	0	
0.106833	0.0232489	0.000242329	0.000338242	0.000340699	0	0	0	
0.107	-0.0150072	0.017159	0.000368218	0.000274702	0	0	0	
0.107167	0.00663539	-0.0104444	0.000371486	0.000240277	0	0	0	
0.107333	-0.000502669	0.0222383	0.000285987	0.000289608	0	0	0	
0.1075	-0.00382554	-0.0253437	0.000183015	0.00037217	0	0	0	
0.107667	-0.00128892	-0.0212043	0.000148556	0.000531562	0	0	0	
0.107833	0.0137088	0.0438759	0.000251313	0.000652007	0	0	0	
0.108	-0.0217631	-0.0111359	0.000376151	0.000704497	0	0	0	
0.108167	0.0156868	0.000782661	0.000419018	0.00049145	0	0	0	
0.108333	-0.00533054	-0.0159972	0.00034597	0.000365442	0	0	0	
0.1085	0.00432472	0.000855346	0.000248775	0.000241839	0	0	0	
0.108667	-0.00878476	0.00416522	0.000170387	0.000244307	0	0	0	
0.108833	0.0112316	0.03113	0.000152972	0.000326329	0	0	0	
0.109	-0.0131349	-0.0332602	0.000179291	0.000423101	0	0	0	
0.109167	0.0165735	-0.0010539	0.000239026	0.000585437	0	0	0	
0.109333	-0.0106437	0.0136015	0.000251878	0.000453356	0	0	0	
0.1095	0.00213182	0.00893086	0.000259044	0.000479894	0	0	0	
0.109667	0.00116938	0.00245615	0.000185626	0.000316837	0	0	0	
0.109833	0.00510309	0.00268411	0.000148147	0.000383247	0	0	0	
0.11	-0.0114718	-0.0356407	0.000143921	0.000517075	0	0	0	
0.110167	0.013536	0.041603	0.000204035	0.000707551	0	0	0	
0.110333	-0.00926664	0.012888	0.000220496	0.000789492	0	0	0	
0.1105	0.00596161	-0.0346029	0.000206867	0.000623903	0	0	0	
0.110667	-0.00290382	0.0299516	0.000148572	0.000563395	0	0	0	
0.110833	0.00445188	-0.0361788	0.000132908	0.000599382	0	0	0	
0.111	-0.00843623	0.0263957	0.000139709	0.000610649	0	0	0	
0.111167	0.0145022	-0.0010151	0.000205326	0.000526375	0	0	0	
0.111333	-0.0181516	0.00886665	0.000251025	0.000477155	0	0	0	
0.1115	0.0150661	-0.0336564	0.000297091	0.000619187	0	0	0	
0.111667	-0.00321612	0.0253652	0.000311769	0.000691104	0	0	0	
0.111833	-0.00326389	-0.00658706	0.00029796	0.000629068	0	0	0	
0.112	0.00275813	-0.00666233	0.000211946	0.000327995	0	0	0	
0.112167	0.00281043	0.0145154	0.000141933	0.000212812	0	0	0	
0.112333	-0.00990565	-0.0283997	0.000126722	0.000228271	0	0	0	
0.1125	0.0181862	0.0285713	0.000198847	0.000415017	0	0	0	
0.112667	-0.0163964	0.0318797	0.000263864	0.000633533	0	0	0	
0.112833	0.0129853	-0.139466	0.000300027	0.000931794	0	0	0	
0.113	-0.0104954	0.151198	0.000272511	0.00187751	0	0	0	
0.113167	0.00911211	0.0444968	0.000246109	0.0028517	0	0	0	
0.113333	-0.00674544	-0.12295	0.000190721	0.00312176	0	0	0	
0.1135	0.00980678	0.0665833	0.000184054	0.00271082	0	0	0	
0.113667	-0.00907612	0.0481766	0.000165092	0.00205227	0	0	0	
0.113833	0.00739436	-0.101865	0.000177667	0.00185243	0	0	0	
0.114	-0.00748892	0.174591	0.000156912	0.00218439	0	0	0	
0.114167	0.0106407	-0.0944854	0.000170637	0.00237056	0	0	0	
0.114333	-0.0122934	-0.0135172	0.000178512	0.00265841	0	0	0	
0.1145	0.0114298	0.111271	0.000215367	0.00232988	0	0	0	
0.114667	-0.00701316	-0.0365737	0.000207431	0.00196524	0	0	0	
0.114833	0.00411368	-0.0204165	0.000191956	0.00160724	0	0	0	
0.115	-0.00684361	0.0613163	0.000143514	0.00138991	0	0	0	
0.115167	0.0114978	-0.063113	0.000149108	0.00146609	0	0	0	
0.115333	-0.0115861	0.0312568	0.000162587	0.00134699	0	0	0	
0.1155	0.0116849	0.0383247	0.000208557	0.00141151	0	0	0	
0.115667	-0.0121014	-0.0451673	0.000210669	0.00123854	0	0	0	
0.115833	0.00780215	0.00233803	0.000236921	0.00110654	0	0	0	
0.116	-0.00181386	0.0130542	0.00022899	0.00062996	0	0	0	
0.116167	0.0034239	0.00156252	0.000190129	0.000368336	0	0	0	
0.116333	-0.0120037	-0.0063541	0.000179315	0.000235914	0	0	0	
0.1165	0.0176479	-0.000436945	0.000217192	0.000147777	0	0	0	
0.116667	-0.0125496	0.00206709	0.000270127	0.000111278	0	0	0	
0.116833	0.00752732	-0.0027082	0.000272919	8.22074E-05	0	0	0	
0.117	-0.00800478	0.00550073	0.000213151	0.000115361	0	0	0	
0.117167	0.0144686	-0.00419974	0.000206865	0.000127317	0	0	0	
0.117333	-0.0119884	-0.0139106	0.000203448	0.000190821	0	0	0	
0.1175	0.00145964	0.0172345	0.000230918	0.000226118	0	0	0	
0.117667	-9.07266E-05	0.00375565	0.000171745	0.00031557	0	0	0	
0.117833	0.00791889	-0.0130195	0.000136833	0.000263008	0	0	0	
0.118	-0.00856533	-0.0108538	0.000103703	0.000380315	0	0	0	
0.118167	0.00633392	0.0186019	0.000146704	0.000357439	0	0	0	
0.118333	-0.00846928	0.00747919	0.00014959	0.000427887	0	0	0	
0.1185	0.0151924	-0.0139082	0.000193184	0.00030989	0	0	0	
0.118667	-0.0151487	0.00116416	0.000220351	0.000371212	0	0	0	
0.118833	0.00753294	-0.0185341	0.000258535	0.000344952	0	0	0	
0.119	-0.00220923	0.020011	0.000215341	0.000387718	0	0	0	
0.119167	0.00765702	0.0208154	0.000169974	0.000367981	0	0	0	
0.119333	-0.0143068	-0.029993	0.000162362	0.000436187	0	0	0	
0.1195	0.0161529	-0.0141383	0.000227159	0.000589845	0	0	0	
0.119667	-0.0115301	0.0406214	0.000264864	0.000716654	0	0	0	
0.119833	0.00891181	-0.0294063	0.00025592	0.000826438	0	0	0	
0.12	-0.00521352	0.0159345	0.000196133	0.000689158	0	0	0	
0.120167	0.0027071	0.00523361	0.000158732	0.00053247	0	0	0	
0.120333	-0.00247392	-0.0375774	0.000115776	0.000537458	0	0	0	
0.1205	0.00864282	0.0341065	0.000125078	0.000572816	0	0	0	
0.120667	-0.00983322	0.00659889	0.000134244	0.000866025	0	0	0	
0.120833	0.0075611	-0.038093	0.000171526	0.00101246	0	0	0	
0.121	-0.00590016	0.0338921	0.000153575	0.0010201	0	0	0	
0.121167	0.00928081	-0.005489	0.000160145	0.000800741	0	0	0	
0.121333	-0.0104247	-0.0149239	0.000145155	0.000494575	0	0	0	
0.1215	0.00899764	0.0125981	0.000183652	0.000412355	0	0	0	
0.121667	-0.00699464	-0.0137215	0.000172195	0.000342683	0	0	0	
0.121833	0.0118756	0.0146934	0.000195303	0.000386392	0	0	0	
0.122	-0.0129537	0.0193787	0.000186963	0.000594127	0	0	0	
0.122167	0.00707667	-0.0461634	0.000215895	0.000747935	0	0	0	
0.122333	-0.00195772	-0.000913875	0.000186946	0.000892579	0	0	0	
0.1225	0.00483305	0.061338	0.00015549	0.000958005	0	0	0	
0.122667	-0.0133347	-0.0418871	0.000138124	0.000993214	0	0	0	
0.122833	0.0188405	-0.00447029	0.000201589	0.00120707	0	0	0	
0.123	-0.0146486	0.00832457	0.000271578	0.00112083	0	0	0	
0.123167	0.00671748	-0.00403743	0.000305014	0.00100648	0	0	0	
0.123333	-0.00480941	0.0090629	0.000244254	0.000628977	0	0	0	
0.1235	0.00743416	0.012256	0.000186226	0.000488588	0	0	0	
0.123667	-0.00925358	-0.043178	0.000138316	0.000626573	0	0	0	
0.123833	0.00955089	0.0532439	0.000164417	0.000826776	0	0	0	
0.124	-0.0138979	-0.0353547	0.000191852	0.000917295	0	0	0	
0.124167	0.0179197	0.0022229	0.000255082	0.000775609	0	0	0	
0.124333	-0.0128351	0.0222305	0.000276473	0.000519019	0	0	0	
0.1245	-0.000519098	-0.00660023	0.000287982	0.000712514	0	0	0	
0.124667	0.00327203	-0.0243417	0.000192325	0.000992334	0	0	0	
0.124833	0.00794282	0.0196992	0.00018239	0.00104755	0	0	0	
0.125	-0.0140584	0.000985046	0.000166807	0.000753421	0	0	0	
0.125167	0.00732923	-0.0116376	0.000225504	0.000405485	0	0	0	
0.125333	-0.00433553	0.0291242	0.000180247	0.000409964	0	0	0	
0.1255	0.00533109	-0.0310683	0.000149573	0.000447946	0	0	0	
0.125667	-0.00862837	-0.0103422	0.000110684	0.000540831	0	0	0	
0.125833	0.00926621	0.0369581	0.000139109	0.000558093	0	0	0	
0.126	-0.013608	-0.0108096	0.000166765	0.000636615	0	0	0	
0.126167	0.0169982	-0.102899	0.000237656	0.00106661	0	0	0	
0.126333	-0.0196782	0.194755	0.000288959	0.00202869	0	0	0	
0.1265	0.0105647	-0.167887	0.000338252	0.00291046	0	0	0	
0.126667	-0.00359318	0.00877437	0.000295913	0.00287876	0	0	0	
0.126833	0.00522402	0.103235	0.00022242	0.00214919	0	0	0	
0.127	-0.0135032	-0.139994	0.000168411	0.0018146	0	0	0	
0.127167	0.0121396	0.113452	0.000202953	0.00210943	0	0	0	
0.127333	-0.00806729	-0.0508742	0.00022178	0.00274168	0	0	0	
0.1275	0.00712178	-0.00587645	0.000232506	0.0031279	0	0	0	
0.127667	-0.01163	-0.0374267	0.000206119	0.00286788	0	0	0	
0.127833	0.0140596	0.0896171	0.000229798	0.00245926	0	0	0	
0.128	-0.0123113	-0.0890862	0.000233088	0.00204012	0	0	0	
0.128167	0.00690076	0.0594646	0.00024292	0.0021201	0	0	0	
0.128333	-0.0048072	-0.0246583	0.000207883	0.0019066	0	0	0	
0.1285	0.00539395	-0.0086709	0.000173933	0.00117914	0	0	0	
0.128667	-0.00774794	0.0229486	0.000133025	0.000568794	0	0	0	
0.128833	0.0101268	-0.00497468	0.000156246	0.000345331	0	0	0	
0.129	-0.0136226	-0.00568077	0.000178546	0.000468336	0	0	0	
0.129167	0.00938346	0.018357	0.000215986	0.000502824	0	0	0	
0.129333	-0.00493884	-0.0327482	0.000234042	0.000513112	0	0	0	
0.1295	0.000893524	0.0219503	0.000230802	0.000497729	0	0	0	
0.129667	-0.00429205	0.00622349	0.000173952	0.000532216	0	0	0	
0.129833	0.00563841	-0.0110354	0.000126533	0.000475504	0	0	0	
0.13	-0.00745426	0.0033565	9.74852E-05	0.000342528	0	0	0	
0.130167	0.00877736	0.00220718	0.000140181	0.000221545	0	0	0	
0.130333	-0.0148311	-0.0121252	0.000157292	0.000252646	0	0	0	
0.1305	0.0130204	0.021306	0.00022558	0.00039773	0	0	0	
0.130667	-0.00984257	-0.0220122	0.000233164	0.00045026	0	0	0	
0.130833	0.00644646	0.0220868	0.000228485	0.000441144	0	0	0	
0.131	-0.00575448	-0.015384	0.000162835	0.000424324	0	0	0	
0.131167	0.00523688	-0.0118457	0.000139932	0.000450406	0	0	0	
0.131333	-0.0115272	0.00694799	0.000128098	0.000414727	0	0	0	
0.1315	0.0115296	0.0356739	0.000178278	0.000522899	0	0	0	
0.131667	-0.00566727	-0.0416265	0.000179166	0.000587224	0	0	0	
0.131833	0.00165702	0.0158798	0.00016559	0.00075744	0	0	0	
0.132	-0.00976931	-0.0136617	0.000123012	0.000602379	0	0	0	
0.132167	0.0163352	0.0124193	0.000170623	0.000502583	0	0	0	
0.132333	-0.0142305	0.0254884	0.000226144	0.000465119	0	0	0	
0.1325	0.00464092	-0.0208906	0.000258201	0.000476182	0	0	0	
0.132667	-0.00429923	-0.0282433	0.000191716	0.000775929	0	0	0	
0.132833	0.00834428	0.0431463	0.000158117	0.000815169	0	0	0	
0.133	-0.0104783	-0.0149886	0.000131266	0.000852181	0	0	0	
0.133167	0.00678453	0.0118802	0.000175639	0.000521979	0	0	0	
0.133333	-0.010092	0.00122069	0.000182753	0.000286902	0	0	0	
0.1335	0.0174811	-0.0326228	0.000236245	0.000268561	0	0	0	
0.133667	-0.015748	0.0271309	0.00025347	0.000372443	0	0	0	
0.133833	0.00242906	0.00817748	0.000294537	0.000556621	0	0	0	
0.134	0.00387434	-0.0210133	0.000248148	0.000495132	0	0	0	
0.134167	-0.000218981	0.00713653	0.00019785	0.000435825	0	0	0	
0.134333	-0.00700273	-0.00254905	0.000151659	0.000276973	0	0	0	
0.1345	0.00906109	0.00211404	0.000159604	0.000240298	0	0	0	
0.134667	-0.0102391	0.00704751	0.000188043	0.00021646	0	0	0	
0.134833	0.0148415	-0.00901389	0.000236737	0.000199058	0	0	0	
0.135	-0.0158969	-0.00925208	0.000257183	0.000231142	0	0	0	
0.135167	0.0115287	0.0141164	0.00027991	0.000208882	0	0	0	
0.135333	-0.00777931	0.00142606	0.000239127	0.000244821	0	0	0	
0.1355	0.0056259	-0.00905314	0.00021192	0.000232818	0	0	0	
0.135667	-0.00177235	0.00872516	0.000157407	0.000226433	0	0	0	
0.135833	-0.000207078	-0.00103742	0.000113487	0.000238997	0	0	0	
0.136	-0.00277346	-0.000708122	9.66314E-05	0.000229338	0	0	0	
0.136167	0.0102693	0.0038347	0.000131357	0.000197064	0	0	0	
0.136333	-0.0138809	-0.0116144	0.000187313	0.000150537	0	0	0	
0.1365	0.0106432	0.00752868	0.000224826	0.000178751	0	0	0	
0.136667	-0.00718774	0.0142768	0.000221076	0.000274169	0	0	0	
0.136833	0.00292228	-0.0201614	0.000198782	0.000323377	0	0	0	
0.137	0.000797306	-0.0135814	0.000142782	0.000486038	0	0	0	
0.137167	0.00503877	0.0533599	0.000145364	0.000565808	0	0	0	
0.137333	-0.0123387	-0.053434	0.00022415	0.000887897	0	0	0	
0.1375	0.0202461	0.00908338	0.00035182	0.00127575	0	0	0	
0.137667	-0.0245829	0.00103164	0.000404346	0.00151565	0	0	0	
0.137833	0.0120279	0.00620121	0.000406208	0.00121359	0	0	0	
0.138	0.00114096	-0.0202893	0.000357831	0.00093647	0	0	0	
0.138167	-0.00289568	0.0329511	0.000279044	0.000848877	0	0	0	
0.138333	0.0017497	-0.0517008	0.000179131	0.00111318	0	0	0	
0.1385	0.00116507	0.072073	0.000123977	0.00119407	0	0	0	
0.138667	-0.00738466	-0.0337426	0.00011361	0.00117691	0	0	0	
0.138833	0.00766775	-0.0840332	0.000159667	0.00104965	0	0	0	
0.139	-0.0130756	0.0416895	0.000194681	0.00109419	0	0	0	
0.139167	0.0128789	0.137123	0.000263693	0.00126897	0	0	0	
0.139333	-0.0104966	-0.0305865	0.000258872	0.00322611	0	0	0	
0.1395	0.0108204	-0.620317	0.000257621	0.00647399	0	0	0	
0.139667	-0.00971355	0.982542	0.000212941	0.0119449	0	0	0	
0.139833	0.00230172	-0.577341	0.000197632	0.0144465	0	0	0	
0.14	-0.00794779	0.0783427	0.000186522	0.0134988	0	0	0	
0.140167	0.0117118	0.402066	0.000211978	0.00981225	0	0	0	
0.140333	-0.00723347	-0.591803	0.000206908	0.00824166	0	0	0	
0.1405	0.00162098	0.388127	0.000182962	0.00892518	0	0	0	
0.140667	-0.00531425	-0.113908	0.000128724	0.0115996	0	0	0	
0.140833	0.00457977	-0.249107	0.000132837	0.0139767	0	0	0	
0.141	-0.00370039	0.586248	0.000110269	0.0129559	0	0	0	
0.141167	0.00381447	-0.156424	0.000123589	0.0110505	0	0	0	
0.141333	-0.00948505	-0.352673	0.00013958	0.0095879	0	0	0	
0.1415	0.00869987	0.368819	0.000214623	0.00988151	0	0	0	
0.141667	-0.00867329	-0.0776624	0.000234111	0.00812928	0	0	0	
0.141833	0.0048199	-0.307316	0.000215556	0.00642146	0	0	0	
0.142	-0.00844801	0.435391	0.000158275	0.00682239	0	0	0	
0.142167	0.00914562	-0.332067	0.000161835	0.00802175	0	0	0	
0.142333	-0.0070797	0.15356	0.000147864	0.00707048	0	0	0	
0.1425	0.000368891	-0.0053243	0.000137126	0.0053783	0	0	0	
0.142667	-0.00230578	-0.103571	8.20567E-05	0.00359293	0	0	0	
0.142833	0.00664357	0.0817222	8.01763E-05	0.00274445	0	0	0	
0.143	-0.00951336	-0.0130392	9.0945E-05	0.00192683	0	0	0	
0.143167	0.00465681	-0.0503574	0.000138492	0.00162228	0	0	0	
0.143333	-0.00617394	0.041462	0.000126619	0.00134929	0	0	0	
0.1435	0.00580813	0.0114602	0.0001396	0.00123645	0	0	0	
0.143667	-0.00534939	-0.0338366	0.000120411	0.001208	0	0	0	
0.143833	0.0088464	0.0222492	0.000154939	0.00105579	0	0	0	
0.144	-0.0160861	-0.0118977	0.000178898	0.000769751	0	0	0	
0.144167	0.0140005	0.0132304	0.000243716	0.000564008	0	0	0	
0.144333	-0.00720231	0.00456519	0.000247737	0.000614481	0	0	0	
0.1445	0.0025054	-0.0159635	0.000214056	0.00042508	0	0	0	
0.144667	-0.0058977	-0.0112331	0.000136452	0.000400763	0	0	0	
0.144833	0.00916642	0.0291097	0.000128043	0.000343619	0	0	0	
0.145	-0.0106186	-0.0146666	0.000137588	0.000478508	0	0	0	
0.145167	0.00679951	0.00324821	0.00018091	0.000402067	0	0	0	
0.145333	-0.00456652	0.00551465	0.000153849	0.000320266	0	0	0	
0.1455	0.00532229	-0.0155266	0.000153226	0.000206963	0	0	0	
0.145667	-0.0121875	0.00447255	0.000140357	0.000168107	0	0	0	
0.145833	0.012462	0.0115419	0.000192494	0.000273182	0	0	0	
0.146	-0.0102594	-0.0136029	0.000208104	0.000317227	0	0	0	
0.146167	0.00566885	0.00442549	0.000215011	0.000340991	0	0	0	
0.146333	-0.00754569	0.00332679	0.000162843	0.000292068	0	0	0	
0.1465	0.00867256	-0.00676953	0.000155192	0.000233922	0	0	0	
0.146667	-0.0100362	0.0120439	0.000143652	0.000222252	0	0	0	
0.146833	0.00943293	-0.0154122	0.000184471	0.000213483	0	0	0	
0.147	-0.0127759	0.00534961	0.000184325	0.000239847	0	0	0	
0.147167	0.00875672	-0.0114374	0.000213952	0.000237178	0	0	0	
0.147333	-0.00419184	0.0305239	0.000173852	0.000299273	0	0	0	
0.1475	0.00233749	-0.0296966	0.000153635	0.000401308	0	0	0	
0.147667	-0.00842434	0.0141725	0.000133453	0.000514436	0	0	0	
0.147833	0.0118601	-0.0257848	0.00018103	0.000541221	0	0	0	
0.148	-0.0123286	0.042779	0.00020699	0.000705692	0	0	0	
0.148167	0.00695746	-0.0191195	0.000219778	0.000695237	0	0	0	
0.148333	-0.0073928	-0.0241209	0.000172081	0.000730341	0	0	0	
0.1485	0.00771303	0.0173222	0.000160428	0.000509098	0	0	0	
0.148667	-0.0080413	0.0128908	0.000133225	0.000596075	0	0	0	
0.148833	0.00498535	0.00164316	0.00015153	0.000495203	0	0	0	
0.149	-0.00574977	-0.0283521	0.000135758	0.000519289	0	0	0	
0.149167	0.00851926	0.0155445	0.000157514	0.00056878	0	0	0	
0.149333	-0.0146816	0.00409714	0.000185325	0.000670755	0	0	0	
0.1495	0.0151791	-0.00759221	0.000254738	0.000601688	0	0	0	
0.149667	-0.0201873	0.0308573	0.000286341	0.000536644	0	0	0	
0.149833	0.0152224	-0.0590914	0.00032457	0.000694292	0	0	0	
0.15	-0.00812724	0.0424321	0.000311535	0.000907271	0	0	0	
0.150167	-0.000169445	-0.00290626	0.000286662	0.000945528	0	0	0	
0.150333	-0.000105618	-0.0349845	0.000178989	0.000899863	0	0	0	
0.1505	0.00109551	0.0445595	0.000142484	0.000822422	0	0	0	
0.150667	-0.00970805	-0.020116	0.000142258	0.000901689	0	0	0	
0.150833	0.00829959	-0.00212175	0.000217981	0.000963992	0	0	0	
0.151	-0.0129485	-0.00320682	0.000220351	0.000895281	0	0	0	
0.151167	0.0133948	-0.0135596	0.000242135	0.000614808	0	0	0	
0.151333	-0.0138123	0.0286896	0.000233354	0.000358123	0	0	0	
0.1515	0.00826646	-0.00333627	0.000247037	0.000421298	0	0	0	
0.151667	-0.00984938	-0.0252133	0.000202384	0.000500985	0	0	0	
0.151833	0.008875	0.00962209	0.000193064	0.000563213	0	0	0	
0.152	-0.011441	0.0169534	0.000181833	0.000584547	0	0	0	
0.152167	0.00648386	-0.0189132	0.00019926	0.00051573	0	0	0	
0.152333	-0.00698596	0.00655573	0.000167222	0.000495152	0	0	0	
0.1525	0.00620742	-0.00119616	0.000155114	0.000340414	0	0	0	
0.152667	-0.00886654	-0.00333304	0.000125355	0.000349198	0	0	0	
0.152833	0.00833176	0.00867107	0.000153543	0.000338402	0	0	0	
0.153	-0.00733499	-0.0111412	0.00014551	0.000350951	0	0	0	
0.153167	0.00311136	0.0160362	0.000155742	0.00035612	0	0	0	
0.153333	-0.00457514	-0.008931	0.000137267	0.000272836	0	0	0	
0.1535	0.00822761	-0.0151721	0.000143726	0.000298327	0	0	0	
0.153667	-0.012696	0.0197443	0.000157064	0.000320953	0	0	0	
0.153833	0.01262	0.00416467	0.000202975	0.000375729	0	0	0	
0.154	-0.0126438	-0.0311523	0.000225209	0.000516011	0	0	0	
0.154167	0.00731337	0.0280502	0.000234407	0.000549041	0	0	0	
0.154333	-0.00273031	0.00370936	0.00017269	0.000589336	0	0	0	
0.1545	0.00383945	-0.00845882	0.000131275	0.000374869	0	0	0	
0.154667	-0.00476203	-0.000831922	0.000124811	0.000240338	0	0	0	
0.154833	0.00609812	-0.018318	0.000208182	0.000259633	0	0	0	
0.155	-0.0144242	0.0387383	0.000288135	0.000369452	0	0	0	
0.155167	0.0125349	0.0065955	0.000314602	0.000758085	0	0	0	
0.155333	-0.0078166	-0.104152	0.000259039	0.00115375	0	0	0	
0.1555	0.00392449	0.0729692	0.000197533	0.00180305	0	0	0	
0.155667	0.0020513	0.130492	0.000134815	0.00217084	0	0	0	
0.155833	-0.00946618	-0.0240305	0.000116741	0.00283874	0	0	0	
0.156	0.00370682	-0.14175	0.00012207	0.00352499	0	0	0	
0.156167	0.00961386	0.192023	0.000213482	0.00354658	0	0	0	
0.156333	-0.0190319	-0.157851	0.000276573	0.00384187	0	0	0	
0.1565	0.0158049	-0.0442397	0.000339125	0.0030489	0	0	0	
0.156667	-0.00900023	0.186805	0.00028882	0.00305692	0	0	0	
0.156833	0.0061449	-0.124776	0.000245725	0.00265123	0	0	0	
0.157	-0.00568768	0.0592323	0.0001646	0.00273325	0	0	0	
0.157167	0.00435229	0.0458761	0.000144069	0.00301956	0	0	0	
0.157333	-0.00694809	-0.150592	0.000129593	0.00305022	0	0	0	
0.1575	0.00948519	0.068335	0.000164206	0.00340573	0	0	0	
0.157667	-0.00830775	0.00450018	0.000166571	0.00257876	0	0	0	
0.157833	0.00383316	-0.0957547	0.000168178	0.00174401	0	0	0	
0.158	0.000782469	0.0691344	0.000105642	0.00127431	0	0	0	
0.158167	-0.00224282	0.0153343	0.000103464	0.00176292	0	0	0	
0.158333	-0.00753591	-0.0563735	0.000155695	0.0017598	0	0	0	
0.1585	0.0127035	0.0229323	0.00024823	0.00141987	0	0	0	
0.158667	-0.0119108	0.0268948	0.000273566	0.00103757	0	0	0	
0.158833	0.00658254	-0.0415981	0.00023727	0.000911669	0	0	0	
0.159	-0.00611909	0.0146268	0.00017393	0.000820287	0	0	0	
0.159167	0.00424146	0.026793	0.000150287	0.000684881	0	0	0	
0.159333	-0.00603268	-0.0402651	0.000126387	0.00067154	0	0	0	
0.1595	0.00587706	0.0161079	0.000146074	0.000696056	0	0	0	
0.159667	-0.0103359	0.0137757	0.00015174	0.000673589	0	0	0	
0.159833	0.0113394	-0.0195285	0.000187437	0.000569464	0	0	0	
0.16	-0.00778133	0.0033462	0.000188767	0.000422055	0	0	0	
0.160167	-0.00179986	0.00512323	0.000186974	0.000226272	0	0	0	
0.160333	-0.00175381	-0.00669742	0.000147147	0.000195954	0	0	0	
0.1605	0.00259314	0.0152808	0.000133609	0.000158725	0	0	0	
0.160667	-0.00773417	-0.0187208	0.000149959	0.000253579	0	0	0	
0.160833	0.00892348	0.00788443	0.000190814	0.000291161	0	0	0	
0.161	-0.0110632	0.00235217	0.000209003	0.000280759	0	0	0	
0.161167	0.0124763	-0.0136176	0.000226877	0.000218653	0	0	0	
0.161333	-0.0198774	0.0153806	0.00025283	0.000203049	0	0	0	
0.1615	0.0151595	0.0214532	0.000306495	0.000381924	0	0	0	
0.161667	-0.0112948	-0.0604195	0.000294829	0.000666081	0	0	0	
0.161833	0.00374953	0.0452498	0.00027292	0.00114775	0	0	0	
0.162	-0.00021085	0.0140055	0.000226819	0.00230623	0	0	0	
0.162167	-0.00320262	0.0112132	0.000168212	0.00282148	0	0	0	
0.162333	3.52776E-05	-0.173221	0.000137858	0.00304157	0	0	0	
0.1625	0.0056051	0.256062	0.000158018	0.00336766	0	0	0	
0.162667	-0.0163786	-0.170735	0.000236223	0.00391057	0	0	0	
0.162833	0.0192601	0.104577	0.000309552	0.00396715	0	0	0	
0.163	-0.0194723	-0.092128	0.000336881	0.00285523	0	0	0	
0.163167	0.00827501	0.0880813	0.000333973	0.00210771	0	0	0	
0.163333	-0.00275628	-0.00690151	0.000260879	0.00195003	0	0	0	
0.1635	0.00272642	-0.0599602	0.000170515	0.00249566	0	0	0	
0.163667	-0.00841633	0.0454	0.000114201	0.00336287	0	0	0	
0.163833	0.00514947	-0.00419533	0.000127023	0.00373094	0	0	0	
0.164	-0.00651756	0.0289937	0.000131518	0.00286252	0	0	0	
0.164167	0.00483885	-0.0538794	0.00014302	0.00188935	0	0	0	
0.164333	-0.00978416	0.061327	0.000131288	0.00123041	0	0	0	
0.1645	0.00997148	-0.00662186	0.000178081	0.0012601	0	0	0	
0.164667	-0.0108835	-0.0403311	0.000186509	0.00111732	0	0	0	
0.164833	0.00666881	0.0316836	0.00020205	0.000906791	0	0	0	
0.165	-0.00772568	0.00351778	0.00016418	0.000916015	0	0	0	
0.165167	0.00357229	-0.0277339	0.00015387	0.000750902	0	0	0	
0.165333	-0.000867268	0.0065205	0.000102578	0.000678105	0	0	0	
0.1655	0.00132505	0.0281998	0.00011041	0.000575878	0	0	0	
0.165667	-0.0107749	-0.036967	0.000149683	0.000520557	0	0	0	
0.165833	0.0101946	0.0174182	0.000226506	0.000649863	0	0	0	
0.166	-0.00722358	0.0103795	0.000232411	0.000609025	0	0	0	
0.166167	0.00738251	-0.0219251	0.000205654	0.000525404	0	0	0	
0.166333	-0.0118549	0.0136354	0.000171722	0.000417377	0	0	0	
0.1665	0.00639212	0.00448999	0.00017837	0.000436891	0	0	0	
0.166667	-0.00329287	-0.0185257	0.000152442	0.000482634	0	0	0	
0.166833	0.00153928	0.00679177	0.000128916	0.000448069	0	0	0	
0.167	-0.00577567	0.0051535	0.000112924	0.000277807	0	0	0	
0.167167	0.0072822	0.000904621	0.00013557	0.000206164	0	0	0	
0.167333	-0.00912213	-0.000286965	0.000154906	0.000215509	0	0	0	
0.1675	0.00772607	-0.00875046	0.000176341	0.00026072	0	0	0	
0.167667	-0.0118375	0.00769381	0.000183984	0.000238524	0	0	0	
0.167833	0.0110229	-0.00540893	0.000214388	0.000176044	0	0	0	
0.168	-0.00677153	0.00145693	0.000195156	0.000155509	0	0	0	
0.168167	0.00223716	0.0044998	0.000166457	0.000162493	0	0	0	
0.168333	-0.00879829	-0.00664027	0.000125673	0.000188831	0	0	0	
0.1685	0.00685518	0.00677204	0.000124269	0.00017603	0	0	0	
0.168667	0.0101052	-0.00931105	0.000213923	0.000160528	0	0	0	
0.168833	-0.0267997	-0.000195287	0.000302657	0.000232898	0	0	0	
0.169	0.0187189	0.0142304	0.000401076	0.00029745	0	0	0	
0.169167	-0.00443037	0.00718546	0.000371962	0.000430006	0	0	0	
0.169333	-0.00443253	-0.0209124	0.000328583	0.00050787	0	0	0	
0.1695	0.0117265	-0.00653448	0.000313707	0.000447858	0	0	0	
0.169667	-0.0352618	0.0047944	0.000379164	0.00039544	0	0	0	
0.169833	0.0395437	0.0347138	0.000523666	0.000568983	0	0	0	
0.17	-0.0262712	-0.0231445	0.000651453	0.000710239	0	0	0	
0.170167	0.000249954	-0.0292874	0.000753215	0.000766781	0	0	0	
0.170333	0.012958	0.0163587	0.000673789	0.000580964	0	0	0	
0.1705	-0.00997414	0.0209718	0.000477366	0.000591879	0	0	0	
0.170667	-0.00917709	0.00936996	0.000335484	0.000655242	0	0	0	
0.170833	0.00504596	-0.0429884	0.000276153	0.000694616	0	0	0	
0.171	0.00290984	0.0138442	0.00025484	0.000690174	0	0	0	
0.171167	0.00621724	-0.00285992	0.000277922	0.000619793	0	0	0	
0.171333	-0.0309161	0.0240572	0.000406848	0.000480195	0	0	0	
0.1715	0.0213275	-0.0247491	0.00051495	0.000456258	0	0	0	
0.171667	0.0162035	-0.0122693	0.000601871	0.000397295	0	0	0	
0.171833	-0.021848	0.0346746	0.000473522	0.000441452	0	0	0	
0.172	-0.0192164	-0.0131431	0.000633509	0.000441545	0	0	0	
0.172167	0.0338394	-0.0066545	0.000590986	0.000474678	0	0	0	
0.172333	-0.00231245	-0.0145738	0.00066622	0.000408081	0	0	0	
0.1725	-0.0115001	0.0194303	0.000403768	0.000462902	0	0	0	
0.172667	-0.0149374	0.0114391	0.000397223	0.000628334	0	0	0	
0.172833	0.017541	-0.0103348	0.000340581	0.000587525	0	0	0	
0.173	0.00468739	-0.023958	0.000421568	0.000622557	0	0	0	
0.173167	-0.0026512	0.0214903	0.000262109	0.000430141	0	0	0	
0.173333	-0.0302472	-0.00397507	0.000369903	0.000499988	0	0	0	
0.1735	0.0343946	0.0123244	0.000445953	0.000362364	0	0	0	
0.173667	-0.00432123	-0.0168944	0.000642588	0.000357564	0	0	0	
0.173833	-0.0247556	0.00569915	0.000645437	0.000333538	0	0	0	
0.174	0.0253146	-0.0192705	0.000600054	0.000305453	0	0	0	
0.174167	-0.030534	0.0551253	0.000551355	0.000440106	0	0	0	
0.174333	0.0180193	-0.0604166	0.000530693	0.000707552	0	0	0	
0.1745	0.0161567	0.0122535	0.000690399	0.00100973	0	0	0	
0.174667	-0.0437587	0.0315359	0.000789993	0.00117227	0	0	0	
0.174833	0.0276276	-0.0293141	0.000795945	0.00102447	0	0	0	
0.175	-0.00417275	0.0161661	0.000691526	0.000761285	0	0	0	
0.175167	-0.00711793	-0.0182479	0.000589414	0.000454471	0	0	0	
0.175333	0.00508806	-0.00596108	0.000537778	0.000589608	0	0	0	
0.1755	-0.0139048	0.0635762	0.000478413	0.00103634	0	0	0	
0.175667	0.0109161	-0.0613368	0.000381771	0.00132064	0	0	0	
0.175833	0.00395013	0.00403274	0.000346626	0.00127739	0	0	0	
0.176	-0.0203096	-0.005613	0.000295424	0.000756342	0	0	0	
0.176167	0.011013	0.0499638	0.000318927	0.000569912	0	0	0	
0.176333	-0.00562565	-0.0122479	0.000261546	0.000515889	0	0	0	
0.1765	0.0117778	-0.0462661	0.000231124	0.000815053	0	0	0	
0.176667	-0.0209411	0.0376858	0.000246437	0.000857075	0	0	0	
0.176833	0.0136853	-0.0118671	0.000299516	0.000810021	0	0	0	
0.177	-0.00975394	0.0223712	0.000301756	0.000550359	0	0	0	
0.177167	0.00817883	-0.0114215	0.000274228	0.000468929	0	0	0	
0.177333	-0.0117072	-0.00103018	0.000222149	0.000465117	0	0	0	
0.1775	0.00888369	-0.013469	0.000221938	0.000422241	0	0	0	
0.177667	-0.00601844	-0.0361761	0.000187745	0.00089925	0	0	0	
0.177833	0.000861379	0.125894	0.000166504	0.00205718	0	0	0	
0.178	-0.00165968	-0.0904782	0.000138255	0.00311396	0	0	0	
0.178167	-0.00172509	-0.0612248	0.00013801	0.0029104	0	0	0	
0.178333	-0.00177109	0.0725099	0.000155824	0.00210844	0	0	0	
0.1785	0.00964059	-0.0754413	0.000228221	0.00154402	0	0	0	
0.178667	-0.0230281	0.176403	0.000324873	0.00204814	0	0	0	
0.178833	0.0186996	-0.242998	0.000395802	0.00277616	0	0	0	
0.179	-0.010571	0.137719	0.000373279	0.00371537	0	0	0	
0.179167	0.0061361	-0.0798085	0.000287652	0.00373194	0	0	0	
0.179333	-0.0158626	0.0545058	0.000211581	0.00315139	0	0	0	
0.1795	0.00599343	-0.00460059	0.000215627	0.00214739	0	0	0	
0.179667	0.00572829	-0.0591694	0.000247557	0.00156606	0	0	0	
0.179833	-0.000812824	0.0178022	0.000266906	0.00142599	0	0	0	
0.18	-0.0241433	0.0212762	0.000327291	0.00129093	0	0	0	
0.180167	0.0220723	0.0242045	0.000372624	0.00124287	0	0	0	
0.180333	-0.00835459	-0.0579458	0.000442504	0.0010394	0	0	0	
0.1805	0.0026539	0.00260285	0.000342444	0.000920851	0	0	0	
0.180667	-0.0067105	0.0335707	0.000237676	0.00072108	0	0	0	
0.180833	-0.0047513	-0.0136324	0.000117032	0.000678784	0	0	0	
0.181	-0.00227122	-0.0375782	0.000126373	0.00101006	0	0	0	
0.181167	0.0178719	0.212587	0.000254419	0.00180074	0	0	0	
0.181333	-0.0224219	-0.451332	0.000363186	0.00349173	0	0	0	
0.1815	-0.00291588	0.390435	0.000361009	0.00649549	0	0	0	
0.181667	0.00691812	0.0603451	0.000234394	0.00820426	0	0	0	
0.181833	0.00478126	-0.399105	0.00020104	0.0116321	0	0	0	
0.182	-0.0194988	-0.131938	0.000233548	0.0144546	0	0	0	
0.182167	0.0220983	0.289609	0.000335508	0.0149588	0	0	0	
0.182333	-0.0226469	-0.178404	0.000379977	0.01064	0	0	0	
0.1825	-0.00158264	0.150643	0.000422251	0.00549311	0	0	0	
0.182667	0.0100695	0.308766	0.000446669	0.0036292	0	0	0	
0.182833	-0.00937931	-0.88964	0.00034782	0.00742542	0	0	0	
0.183	-0.00158763	0.552682	0.000279766	0.0111604	0	0	0	
0.183167	-5.85E-05	-0.119353	0.00018183	0.0119161	0	0	0	
0.183333	-0.000342282	-0.223822	0.000214357	0.00857108	0	0	0	
0.1835	0.00625513	0.299974	0.000265325	0.00546422	0	0	0	
0.183667	-0.0153634	-0.0594119	0.000314229	0.00632213	0	0	0	
0.183833	0.00922265	-0.234846	0.000334873	0.00732301	0	0	0	
0.184	-0.0144683	0.214338	0.000279591	0.00678146	0	0	0	
0.184167	0.0139361	-0.0651231	0.000272219	0.00542627	0	0	0	
0.184333	-0.00948265	-0.0306534	0.000236928	0.00444769	0	0	0	
0.1845	-0.00206664	0.0636753	0.00020039	0.00369408	0	0	0	
0.184667	0.00422862	-0.067443	0.000130785	0.00285264	0	0	0	
0.184833	0.00222713	0.0184604	0.000159778	0.0021224	0	0	0	
0.185	-0.0144753	-0.0814629	0.000226606	0.00217015	0	0	0	
0.185167	0.00816887	0.0509966	0.000285679	0.00211149	0	0	0	
0.185333	-0.00459953	0.0247968	0.000241529	0.00215406	0	0	0	
0.1855	0.00340715	-0.0480291	0.00020679	0.00264003	0	0	0	
0.185667	-0.00864994	0.0647874	0.000169688	0.00269587	0	0	0	
0.185833	0.00785495	0.011055	0.000181646	0.00197415	0	0	0	
0.186	-0.0104017	-0.0652706	0.000172657	0.00119319	0	0	0	
0.186167	-0.00130752	0.0354355	0.000158979	0.000798683	0	0	0	
0.186333	0.0060924	0.0269381	0.000135197	0.00103645	0	0	0	
0.1865	-0.00185202	-0.0426353	0.000171824	0.00096392	0	0	0	
0.186667	-0.00932977	0.0193406	0.000232315	0.000847101	0	0	0	
0.186833	0.00638684	0.0035483	0.000261155	0.000615951	0	0	0	
0.187	-0.00663863	-0.0206008	0.000215275	0.00051151	0	0	0	
0.187167	0.00690791	0.00666053	0.000195289	0.000454869	0	0	0	
0.187333	-0.0126781	0.0146192	0.000196465	0.000454948	0	0	0	
0.1875	0.0050466	-0.00379384	0.000210291	0.000397757	0	0	0	
0.187667	-0.0045547	-0.0273012	0.000157757	0.000478426	0	0	0	
0.187833	0.00786483	0.0282078	0.000158781	0.000463797	0	0	0	
0.188	-0.0195376	-0.0159811	0.00019033	0.0005142	0	0	0	
0.188167	0.0147088	-0.000760001	0.000269358	0.000500701	0	0	0	
0.188333	-0.00821236	0.0188105	0.000277679	0.000492847	0	0	0	
0.1885	-0.000445134	-0.0185347	0.000212549	0.000461254	0	0	0	
0.188667	-0.00690667	0.00025424	0.00014512	0.0004305	0	0	0	
0.188833	0.0071134	0.0035424	0.000117494	0.000345565	0	0	0	
0.189	0.00255151	-0.0242787	0.000148546	0.000357914	0	0	0	
0.189167	-0.0202672	0.0498774	0.000179357	0.000460481	0	0	0	
0.189333	0.00103452	-0.0254212	0.000378719	0.000626078	0	0	0	
0.1895	0.0315683	-0.03183	0.000686124	0.000920831	0	0	0	
0.189667	-0.0521229	0.0409113	0.000897903	0.000877244	0	0	0	
0.189833	0.034012	-0.00405128	0.000912952	0.000932738	0	0	0	
0.19	-0.0101053	-0.0114433	0.000771832	0.00075776	0	0	0	
0.190167	-0.0140381	-0.00830554	0.00065768	0.000613496	0	0	0	
0.190333	0.019983	0.0271156	0.000507414	0.000440666	0	0	0	
0.1905	-0.00815813	-0.0245448	0.0004129	0.000377561	0	0	0	
0.190667	-0.0251116	0.0192538	0.000489702	0.000461167	0	0	0	
0.190833	0.0375527	-0.0328636	0.000588524	0.000497681	0	0	0	
0.191	-0.013905	0.027332	0.000636964	0.000493738	0	0	0	
0.191167	-0.00839694	0.00523045	0.000469509	0.00050686	0	0	0	
0.191333	-0.0103143	-0.0160445	0.000375241	0.000443629	0	0	0	
0.1915	0.0217883	-0.0264666	0.000358065	0.00071121	0	0	0	
0.191667	-0.014255	0.0438714	0.000382071	0.000825387	0	0	0	
0.191833	0.00163227	0.0020996	0.000324856	0.000978908	0	0	0	
0.192	-0.00261548	-0.0285752	0.000185646	0.000674342	0	0	0	
0.192167	0.00116204	-0.00489844	0.00011345	0.000549957	0	0	0	
0.192333	0.0109382	0.00186026	0.000114602	0.000355274	0	0	0	
0.1925	-0.0179184	0.00745971	0.000199549	0.00040377	0	0	0	
0.192667	-0.0140848	0.0164367	0.000420068	0.00042509	0	0	0	
0.192833	0.0405233	-0.0387785	0.000600028	0.000434813	0	0	0	
0.193	-0.0362554	0.015639	0.000736599	0.00106345	0	0	0	
0.193167	0.00749063	0.0519948	0.000724483	0.00182275	0	0	0	
0.193333	-0.0121191	-0.0269677	0.000565181	0.00203263	0	0	0	
0.1935	0.029741	-0.0364059	0.000468927	0.00153176	0	0	0	
0.193667	-0.02528	0.0347792	0.000420523	0.000915594	0	0	0	
0.193833	-0.00940071	-0.0432987	0.000616484	0.000829873	0	0	0	
0.194	0.0204663	0.097749	0.000635762	0.00098158	0	0	0	
0.194167	-0.0107256	-0.0601769	0.000567612	0.00120392	0	0	0	
0.194333	-0.012329	-0.000635494	0.000532104	0.00130536	0	0	0	
0.1945	0.021874	0.0236496	0.000573727	0.000908571	0	0	0	
0.194667	-0.0246009	-0.0187099	0.000597569	0.000547753	0	0	0	
0.194833	0.0186095	0.0044368	0.000481021	0.000470325	0	0	0	
0.195	-0.0200717	0.0116685	0.000406059	0.000562398	0	0	0	
0.195167	0.00300657	-0.00167529	0.000415465	0.000499954	0	0	0	
0.195333	0.0183174	-0.0448734	0.000439858	0.000584003	0	0	0	
0.1955	-0.0144989	0.0519416	0.000425795	0.000714796	0	0	0	
0.195667	-0.0166821	-0.0495866	0.000565259	0.000947744	0	0	0	
0.195833	0.0289475	0.0331168	0.000661627	0.000988964	0	0	0	
0.196	-0.0274634	-0.00456552	0.000702812	0.000839776	0	0	0	
0.196167	0.0214621	-0.0108784	0.000558628	0.000620224	0	0	0	
0.196333	-0.0195175	-0.0223422	0.000451212	0.000555783	0	0	0	
0.1965	0.00308827	0.0320707	0.000389855	0.000647627	0	0	0	
0.196667	0.0132494	-0.0192022	0.000344906	0.000672256	0	0	0	
0.196833	-0.0215909	0.0130019	0.000303466	0.000696785	0	0	0	
0.197	0.00957918	-0.00575278	0.000350836	0.000959101	0	0	0	
0.197167	0.00799804	-0.0220344	0.000453448	0.00104591	0	0	0	
0.197333	-0.0251301	0.0365856	0.000525407	0.000918415	0	0	0	
0.1975	0.0163702	-0.00123713	0.000506511	0.00122867	0	0	0	
0.197667	-0.00423171	-0.140381	0.000370956	0.00330602	0	0	0	
0.197833	-0.00239179	0.101519	0.000228683	0.00673289	0	0	0	
0.198	-0.0036275	-0.199555	0.000145702	0.00874923	0	0	0	
0.198167	-0.000430995	0.169	8.89033E-05	0.00747863	0	0	0	
0.198333	0.0024523	0.0938278	8.39135E-05	0.00561089	0	0	0	
0.1985	0.000170937	-0.274535	0.000138075	0.00446681	0	0	0	
0.198667	-0.0113829	0.351569	0.000240063	0.00521969	0	0	0	
0.198833	0.0110572	-0.508003	0.000305418	0.00660922	0	0	0	
0.199	-0.0102122	0.304769	0.000273532	0.00790719	0	0	0	
0.199167	0.00500309	0.0344387	0.00020763	0.00823958	0	0	0	
0.199333	-0.0108049	-0.18842	0.000181852	0.00626983	0	0	0	
0.1995	0.0121493	0.114929	0.000198277	0.00458719	0	0	0	
0.199667	-0.0104939	0.0552922	0.000213837	0.0039577	0	0	0	
0.199833	0.00277899	-0.0614625	0.000197667	0.00327557	0	0	0	
0.2	-0.00448673	0.0133702	0.000145921	0.00253689	0	0	0	
0.200167	0.00548997	0.0344557	0.000141969	0.00178242	0	0	0	
0.200333	-0.0123032	-0.0669822	0.000170036	0.00182785	0	0	0	
0.2005	0.0109201	0.0384637	0.000230718	0.00155461	0	0	0	
0.200667	-0.00869547	0.00795395	0.000233535	0.0011221	0	0	0	
0.200833	0.00209015	-0.0100189	0.000205945	0.000683983	0	0	0	
0.201	-0.00627251	0.00163645	0.000159634	0.000476079	0	0	0	
0.201167	0.00646697	-0.00363796	0.000166051	0.000192037	0	0	0	
0.201333	-0.0116939	0.000533013	0.00018807	0.000127605	0	0	0	
0.2015	0.00853829	0.0066282	0.000222276	0.000137613	0	0	0	
0.201667	-0.00875067	-0.00742192	0.000208817	0.000169213	0	0	0	
0.201833	0.00461719	0.00604869	0.000186654	0.000242182	0	0	0	
0.202	-0.00681749	-0.0117869	0.000146991	0.000262577	0	0	0	
0.202167	0.00475762	0.00191959	0.000138088	0.000245673	0	0	0	
0.202333	-0.0110964	0.0148332	0.000143903	0.000253221	0	0	0	
0.2025	0.00569928	-0.00073617	0.000168101	0.000486302	0	0	0	
0.202667	-0.00364646	-0.0339987	0.000144243	0.000828811	0	0	0	
0.202833	-0.00170949	0.0391355	0.000123575	0.00101839	0	0	0	
0.203	-0.00418458	-0.0274211	0.000128501	0.000869062	0	0	0	
0.203167	0.00945118	-0.00570716	0.000205589	0.000608742	0	0	0	
0.203333	-0.0174804	0.0380453	0.000271234	0.000508147	0	0	0	
0.2035	0.00985201	-0.0329902	0.000290897	0.000535157	0	0	0	
0.203667	-0.00682621	0.00871378	0.000236837	0.000667336	0	0	0	
0.203833	0.00215872	-0.00854609	0.000172642	0.000629782	0	0	0	
0.204	-0.0014969	0.0138409	9.83968E-05	0.000622052	0	0	0	
0.204167	-0.00164953	0.0176079	8.1071E-05	0.000674593	0	0	0	
0.204333	-0.00720598	-0.0241465	0.000142174	0.000651016	0	0	0	
0.2045	0.0112403	-0.0157	0.000239257	0.000663684	0	0	0	
0.204667	-0.0123229	0.0282518	0.000283617	0.000477638	0	0	0	
0.204833	0.00520444	0.0128382	0.000254477	0.000576926	0	0	0	
0.205	-0.00682701	-0.0139717	0.000188389	0.000493294	0	0	0	
0.205167	0.00430445	-0.00762899	0.00016659	0.00045663	0	0	0	
0.205333	-0.00569236	0.00531195	0.000149939	0.000258706	0	0	0	
0.2055	0.00451293	0.0151362	0.000167974	0.000262447	0	0	0	
0.205667	-0.00680847	-0.0200127	0.000167164	0.000277867	0	0	0	
0.205833	0.00516667	-0.00622982	0.000173208	0.000396481	0	0	0	
0.206	-0.00673658	0.0226641	0.00016331	0.000337535	0	0	0	
0.206167	0.00558057	-0.00791129	0.000180962	0.0003607	0	0	0	
0.206333	-0.00966386	-0.0053978	0.000199853	0.000340129	0	0	0	
0.2065	0.0060262	0.00697717	0.000214265	0.000308616	0	0	0	
0.206667	-0.00584868	-0.00862323	0.000178434	0.000233406	0	0	0	
0.206833	0.00512195	-0.00426019	0.00014841	0.000200799	0	0	0	
0.207	-0.00588667	0.00756849	0.000129771	0.000196197	0	0	0	
0.207167	0.00310797	-0.00213591	0.000141954	0.000174999	0	0	0	
0.207333	-0.0042877	0.00546682	0.000147964	0.000127877	0	0	0	
0.2075	0.00483823	-0.00130466	0.000161026	0.000137699	0	0	0	
0.207667	-0.00858017	-0.0121507	0.000163554	0.000213658	0	0	0	
0.207833	0.0025917	0.00714389	0.000151264	0.000228333	0	0	0	
0.208	-0.00153761	0.00328504	0.000110517	0.00023071	0	0	0	
0.208167	0.00356346	0.00313244	0.000124194	0.000196511	0	0	0	
0.208333	-0.0111901	-0.021018	0.000176871	0.00025513	0	0	0	
0.2085	0.0105027	0.00523694	0.00023477	0.000362811	0	0	0	
0.208667	-0.0116961	0.0301345	0.000243493	0.000545086	0	0	0	
0.208833	0.00961197	-0.0234506	0.000222843	0.000603472	0	0	0	
0.209	-0.00706363	-0.0113807	0.000199891	0.000719458	0	0	0	
0.209167	-0.000890166	0.000556683	0.000144765	0.000562225	0	0	0	
0.209333	-0.0025335	-0.000683171	0.00011413	0.000494616	0	0	0	
0.2095	0.00540627	0.0386802	0.000134145	0.000509929	0	0	0	
0.209667	-0.00842448	-0.0392467	0.000186033	0.000630262	0	0	0	
0.209833	0.00445148	-0.0234181	0.00020898	0.000854027	0	0	0	
0.21	-0.00611185	0.0381756	0.000181024	0.000758937	0	0	0	
0.210167	0.00313352	-0.00295163	0.000159914	0.000714947	0	0	0	
0.210333	-0.00564191	0.00279632	0.000146669	0.000448746	0	0	0	
0.2105	0.00484468	-0.0176844	0.000158193	0.000320605	0	0	0	
0.210667	-0.00690574	-0.0102918	0.00016204	0.00028556	0	0	0	
0.210833	0.00413846	0.0132601	0.000166272	0.000303227	0	0	0	
0.211	-0.007051	0.0114909	0.000157138	0.000395857	0	0	0	
0.211167	0.00387344	-0.0133828	0.000162548	0.00033282	0	0	0	
0.211333	-0.00844573	-0.00270297	0.000163891	0.000321804	0	0	0	
0.2115	0.00654652	-0.000847319	0.000174966	0.000182267	0	0	0	
0.211667	-0.00664477	-0.00312657	0.00016578	0.000135632	0	0	0	
0.211833	0.00243565	0.0169882	0.000157614	0.000170616	0	0	0	
0.212	-0.00536833	-0.0151689	0.00015173	0.000230041	0	0	0	
0.212167	0.0060779	-0.00427297	0.000190524	0.000324343	0	0	0	
0.212333	-0.0129015	0.00706476	0.000241074	0.000331478	0	0	0	
0.2125	0.00770937	-0.00215554	0.00027194	0.000260262	0	0	0	
0.212667	-0.00634873	0.00292414	0.000232023	0.000166802	0	0	0	
0.212833	0.00246554	0.00342754	0.000179021	0.000126448	0	0	0	
0.213	-0.0039183	-0.0157077	0.000132475	0.000237764	0	0	0	
0.213167	-0.000873271	0.0167628	0.000127327	0.000317771	0	0	0	
0.213333	-0.00272091	-0.00979775	0.000152068	0.000325225	0	0	0	
0.2135	0.00446492	0.00411566	0.000211101	0.000270021	0	0	0	
0.213667	-0.0109139	-0.000764498	0.000245067	0.000187973	0	0	0	
0.213833	0.00500584	-0.00402749	0.000240445	0.000118067	0	0	0	
0.214	-0.00430532	0.00791599	0.00017949	0.000120572	0	0	0	
0.214167	0.00129735	-0.00760602	0.000145257	0.00023026	0	0	0	
0.214333	-0.00407017	0.00196566	0.000123909	0.000300575	0	0	0	
0.2145	0.00203255	0.00318836	0.000145931	0.000241951	0	0	0	
0.214667	-0.00553175	-0.0134067	0.000184105	0.000176739	0	0	0	
0.214833	0.00602753	0.00290901	0.000245197	0.000245334	0	0	0	
0.215	-0.0120408	0.0293646	0.000280572	0.000509709	0	0	0	
0.215167	0.00928242	-0.0460757	0.000275029	0.000715348	0	0	0	
0.215333	-0.00649905	0.0206496	0.000222921	0.000768478	0	0	0	
0.2155	-0.00216136	0.0188222	0.000147323	0.000649919	0	0	0	
0.215667	0.00256353	-0.0405789	0.000105709	0.00058795	0	0	0	
0.215833	-0.00097758	0.0368698	0.000130474	0.00063469	0	0	0	
0.216	-0.00602326	-0.0216375	0.000195725	0.000652632	0	0	0	
0.216167	0.00502469	0.0061374	0.000231833	0.000611191	0	0	0	
0.216333	-0.0063847	0.0144185	0.000203072	0.000506156	0	0	0	
0.2165	-9.87373E-05	-0.0223479	0.000169077	0.000417486	0	0	0	
0.216667	-0.000935284	0.0161923	0.000143258	0.00065429	0	0	0	
0.216833	1.7197E-05	0.0129143	0.000151681	0.000930555	0	0	0	
0.217	-0.00668228	0.0406282	0.000186313	0.000988229	0	0	0	
0.217167	0.0101696	-0.0709911	0.000245715	0.00116918	0	0	0	
0.217333	-0.0131079	0.0355605	0.000270388	0.00120564	0	0	0	
0.2175	0.00260852	-0.0229776	0.000234068	0.00128034	0	0	0	
0.217667	-0.000477978	0.0328013	0.000144532	0.000800858	0	0	0	
0.217833	-0.000859809	-0.00176342	8.96074E-05	0.000578012	0	0	0	
0.218	-0.00413769	-0.0373987	0.000102782	0.000503171	0	0	0	
0.218167	0.00295966	0.0404093	0.000165394	0.000808986	0	0	0	
0.218333	-0.00570227	-0.0298884	0.000209514	0.00108332	0	0	0	
0.2185	0.00439977	0.0126075	0.000214901	0.00108643	0	0	0	
0.218667	-0.00675089	-0.0057821	0.000199004	0.000764869	0	0	0	
0.218833	0.00306064	-0.0187503	0.000185164	0.000409858	0	0	0	
0.219	-0.00412773	-0.00511286	0.000161277	0.00057127	0	0	0	
0.219167	0.00136258	0.0144474	0.000159296	0.000710309	0	0	0	
0.219333	-0.00448651	-0.00456815	0.000168718	0.000616789	0	0	0	
0.2195	0.00415748	-0.0105112	0.000187759	0.000357264	0	0	0	
0.219667	-0.0062189	0.00615812	0.000186275	0.000172324	0	0	0	
0.219833	0.00519598	-0.0061679	0.000181012	0.000166627	0	0	0	
0.22	-0.00895418	0.00637407	0.000178446	0.000140905	0	0	0	
0.220167	0.00645075	0.00474711	0.000182719	0.000212988	0	0	0	
0.220333	-0.00621491	-0.00799536	0.000170217	0.000260452	0	0	0	
0.2205	-0.00297595	-0.00286264	0.00013831	0.000289013	0	0	0	
0.220667	0.00106953	-0.00817518	0.000119749	0.000248293	0	0	0	
0.220833	0.00469854	0.0307649	0.00015576	0.000249854	0	0	0	
0.221	-0.0106911	-0.0263314	0.000195215	0.000410559	0	0	0	
0.221167	0.0029446	0.00192758	0.000201145	0.00043186	0	0	0	
0.221333	-0.00481034	0.0124901	0.000170775	0.000383238	0	0	0	
0.2215	0.00518769	-0.0141653	0.000187411	0.000253118	0	0	0	
0.221667	-0.00654323	0.00209591	0.000188967	0.000253878	0	0	0	
0.221833	0.00236164	0.00930118	0.000171356	0.000291971	0	0	0	
0.222	-0.00608373	-0.0120983	0.000145358	0.000311077	0	0	0	
0.222167	0.00711728	0.0141111	0.000179924	0.00036075	0	0	0	
0.222333	-0.00799773	-0.00997062	0.000206902	0.000384872	0	0	0	
0.2225	0.00202333	-0.00898871	0.000185371	0.000374535	0	0	0	
0.222667	-0.00164279	0.0216148	0.000131561	0.00032967	0	0	0	
0.222833	0.00150678	0.00286107	0.000119044	0.000328952	0	0	0	
0.223	-0.00642927	-0.0209389	0.000150779	0.000369184	0	0	0	
0.223167	0.00856684	0.00760443	0.000204803	0.000335554	0	0	0	
0.223333	-0.0146657	0.0108974	0.000238833	0.000279285	0	0	0	
0.2235	0.0104519	-0.0155541	0.000240343	0.000235596	0	0	0	
0.223667	-0.00394368	0.0157321	0.000209458	0.000272436	0	0	0	
0.223833	0.0011374	-0.0104676	0.000159991	0.000320407	0	0	0	
0.224	-0.0142612	0.000723456	0.00018466	0.000258549	0	0	0	
0.224167	0.00601003	0.00305178	0.000220696	0.000151525	0	0	0	
0.224333	0.00986121	0.0255879	0.000215096	0.000128527	0	0	0	
0.2245	-0.010669	-0.0385828	0.000255753	0.000308277	0	0	0	
0.224667	-0.0137684	0.00158127	0.00042643	0.000480135	0	0	0	
0.224833	0.0189658	0.016342	0.000575413	0.000481582	0	0	0	
0.225	-0.00843406	0.00251675	0.000528938	0.000384376	0	0	0	
0.225167	-4.83786E-05	-0.00644779	0.0003431	0.000318358	0	0	0	
0.225333	-0.0105592	0.0105484	0.000269196	0.000377381	0	0	0	
0.2255	0.00343521	-0.03971	0.000213986	0.000550837	0	0	0	
0.225667	0.0094234	0.0453583	0.000211192	0.000721863	0	0	0	
0.225833	-0.0111584	-0.0231102	0.000179884	0.000804928	0	0	0	
0.226	-0.00450948	-0.00687455	0.000282061	0.000679144	0	0	0	
0.226167	0.00847063	0.0278331	0.00031854	0.000500895	0	0	0	
0.226333	-0.0055509	-0.0389729	0.000301702	0.000489131	0	0	0	
0.2265	-0.00209093	0.00977083	0.000199017	0.00052347	0	0	0	
0.226667	-0.00295439	0.0234001	0.000151705	0.00068535	0	0	0	
0.226833	0.00566049	-0.0166954	0.000181156	0.000648851	0	0	0	
0.227	-0.00790962	-0.0014574	0.000215301	0.000494262	0	0	0	
0.227167	0.00230094	-0.0100727	0.000201925	0.000247077	0	0	0	
0.227333	-0.00222813	0.0146189	0.00016106	0.000166223	0	0	0	
0.2275	0.00247875	0.00289327	0.000167221	0.00023176	0	0	0	
0.227667	-0.0110996	-0.0104	0.000215191	0.000240055	0	0	0	
0.227833	0.0115774	0.000805347	0.00027906	0.000237182	0	0	0	
0.228	-0.0113556	0.0182678	0.000278295	0.000184795	0	0	0	
0.228167	0.000981399	-0.0243078	0.000218941	0.000320298	0	0	0	
0.228333	0.00585888	0.00063425	0.000135217	0.000431693	0	0	0	
0.2285	-0.0074382	0.0256747	0.000131226	0.000546212	0	0	0	
0.228667	-0.00111139	-0.0132475	0.000205145	0.000494417	0	0	0	
0.228833	0.00357921	-0.0121887	0.000288417	0.000457822	0	0	0	
0.229	-0.00940592	0.0189261	0.000307401	0.000422559	0	0	0	
0.229167	0.00908563	-0.01118	0.000281669	0.000402923	0	0	0	
0.229333	-0.00959033	0.0223905	0.00024477	0.000394249	0	0	0	
0.2295	0.00583193	-0.0342182	0.000209996	0.000395791	0	0	0	
0.229667	-0.00457954	-0.0879201	0.000177862	0.00107963	0	0	0	
0.229833	0.00346653	0.194332	0.000173819	0.00232409	0	0	0	
0.23	-0.00837971	-0.178313	0.000198001	0.0035039	0	0	0	
0.230167	0.00639497	-0.0246492	0.000206253	0.00334491	0	0	0	
0.230333	-0.00201404	0.110031	0.000175307	0.00255188	0	0	0	
0.2305	-0.00405458	-0.10015	0.000131557	0.00191825	0	0	0	
0.230667	0.000767153	0.0908442	0.000155297	0.00189319	0	0	0	
0.230833	0.00359746	-0.107476	0.000227287	0.0021342	0	0	0	
0.231	-0.00833387	0.0509752	0.000274821	0.0026751	0	0	0	
0.231167	0.00611723	-0.0642687	0.000251629	0.00291953	0	0	0	
0.231333	-0.00622774	0.0500651	0.000199747	0.00272059	0	0	0	
0.2315	0.00427822	-0.0073121	0.000167108	0.00223939	0	0	0	
0.231667	-0.00540153	0.00216747	0.000160439	0.00202488	0	0	0	
0.231833	0.00421595	-0.00998881	0.000166366	0.00159799	0	0	0	
0.232	-0.00600781	-0.013296	0.00018278	0.00114768	0	0	0	
0.232167	0.00578138	0.0625875	0.000190854	0.000893632	0	0	0	
0.232333	-0.00614198	-0.0541523	0.000199081	0.00103507	0	0	0	
0.2325	0.000900524	0.0226797	0.000202558	0.000998656	0	0	0	
0.232667	-0.00278502	-0.00162561	0.000193687	0.000761287	0	0	0	
0.232833	0.000836444	-0.00711735	0.000165802	0.000515532	0	0	0	
0.233	-0.00251163	0.00949784	0.000145463	0.000361921	0	0	0	
0.233167	0.00621015	0.000693956	0.000169633	0.0003192	0	0	0	
0.233333	-0.00843892	-0.00209264	0.000205218	0.0002497	0	0	0	
0.2335	-0.00340828	0.00390944	0.000178009	0.000259028	0	0	0	
0.233667	0.00872088	-0.00504963	0.000143921	0.000208082	0	0	0	
0.233833	-0.00647318	-0.0903998	0.000153671	0.000896274	0	0	0	
0.234	-0.00656661	0.289317	0.000284936	0.00195258	0	0	0	
0.234167	-2.63267E-05	-0.335189	0.000376835	0.00443401	0	0	0	
0.234333	-0.000568202	0.107129	0.000365185	0.00827073	0	0	0	
0.2345	-0.00160644	0.217595	0.000267745	0.0097824	0	0	0	
0.234667	-0.00673408	0.182785	0.000217906	0.00822387	0	0	0	
0.234833	0.0386039	0.233525	0.000287321	0.00476575	0	0	0	
0.235	-0.0540749	-1.44887	0.000597762	0.00828061	0	0	0	
0.235167	-0.0114473	1.46319	0.00109364	0.0180283	0	0	0	
0.235333	0.0695718	-0.588376	0.00158321	0.022012	0	0	0	
0.2355	-0.0908003	0.168942	0.00174901	0.021683	0	0	0	
0.235667	0.107269	0.262632	0.00181718	0.0149489	0	0	0	
0.235833	-0.0690887	-0.145747	0.00172241	0.0132474	0	0	0	
0.236	-0.00675414	0.377576	0.00152123	0.00804978	0	0	0	
0.236167	0.0800258	-0.736325	0.00147514	0.0114034	0	0	0	
0.236333	-0.0841334	0.224375	0.00141755	0.018915	0	0	0	
0.2365	0.0473935	0.62061	0.00149045	0.0275007	0	0	0	
0.236667	-0.00774375	-0.700212	0.00137495	0.0253772	0	0	0	
0.236833	0.0160435	0.388666	0.00147058	0.0176775	0	0	0	
0.237	-0.0234195	-0.12023	0.0015583	0.0103434	0	0	0	
0.237167	-0.00235509	0.274855	0.00131007	0.00642164	0	0	0	
0.237333	0.0357234	-0.287426	0.000942883	0.00494631	0	0	0	
0.2375	-0.0480689	0.0509153	0.000681831	0.00522974	0	0	0	
0.237667	0.0175652	-0.00038218	0.000754236	0.00579158	0	0	0	
0.237833	0.0195302	0.114815	0.00085964	0.0048094	0	0	0	
0.238	-0.0374593	-0.0190542	0.000872698	0.0031706	0	0	0	
0.238167	0.0352692	-0.155633	0.000766077	0.00289828	0	0	0	
0.238333	-0.0320793	0.246182	0.000686822	0.00372238	0	0	0	
0.2385	0.0136831	-0.046905	0.000667324	0.00404991	0	0	0	
0.238667	-0.0102572	-0.266661	0.000566155	0.00398365	0	0	0	
0.238833	0.0279643	0.171524	0.000446993	0.00398934	0	0	0	
0.239	-0.0164212	0.053381	0.000383514	0.00356764	0	0	0	
0.239167	-0.00751152	0.0570854	0.000417562	0.00230525	0	0	0	
0.239333	-0.00685482	-0.117387	0.000351188	0.00150674	0	0	0	
0.2395	0.0186539	-0.0791142	0.000334681	0.0022502	0	0	0	
0.239667	0.0056966	0.109441	0.000243104	0.00266933	0	0	0	
0.239833	-0.0175053	0.100173	0.000273334	0.0040028	0	0	0	
0.24	-0.00117384	-0.224972	0.000414549	0.00369875	0	0	0	
0.240167	0.0329967	0.0788647	0.000739788	0.00432344	0	0	0	
0.240333	-0.0302797	0.0595889	0.000918142	0.0034149	0	0	0	
0.2405	0.0131926	-0.184004	0.000750482	0.00345851	0	0	0	
0.240667	-0.0016416	0.208762	0.000521717	0.00328055	0	0	0	
0.240833	-0.0140298	-0.0798509	0.000366871	0.00322938	0	0	0	
0.241	0.0153969	0.00373397	0.000391609	0.00281032	0	0	0	
0.241167	-0.0206342	-0.0245104	0.000322134	0.00194762	0	0	0	
0.241333	0.0134974	-0.00367285	0.000508439	0.00104346	0	0	0	
0.2415	0.0174496	-0.00696223	0.000576936	0.000653811	0	0	0	
0.241667	0.00632598	0.0571473	0.000630891	0.000657523	0	0	0	
0.241833	-0.0350846	-0.0102056	0.000491928	0.000829452	0	0	0	
0.242	-0.0212418	-0.0379192	0.000581336	0.00112709	0	0	0	
0.242167	0.0305283	0.0100893	0.000618852	0.00101344	0	0	0	
0.242333	0.0231553	0.00148526	0.000769184	0.000755279	0	0	0	
0.2425	-0.0424315	0.00213998	0.000693219	0.000451142	0	0	0	
0.242667	0.0014315	0.0190481	0.0007331	0.000466013	0	0	0	
0.242833	-0.00896884	0.0192795	0.000507089	0.0005549	0	0	0	
0.243	0.0338771	-0.0994954	0.000408992	0.000851213	0	0	0	
0.243167	-0.0152684	0.0506344	0.000463828	0.00120562	0	0	0	
0.243333	-0.0344845	0.084966	0.000778202	0.00148151	0	0	0	
0.2435	0.0332765	-0.11517	0.0008785	0.00169795	0	0	0	
0.243667	0.00141966	-0.02452	0.000759078	0.00182222	0	0	0	
0.243833	-0.0234195	0.195938	0.000451704	0.00213837	0	0	0	
0.244	0.0122546	-0.25688	0.000396173	0.00289277	0	0	0	
0.244167	0.0100334	0.166755	0.000517726	0.00375249	0	0	0	
0.244333	-0.0221616	-0.0119976	0.000594687	0.00350983	0	0	0	
0.2445	0.0077403	-0.0344089	0.000511073	0.00230164	0	0	0	
0.244667	0.00894337	0.0442664	0.000291713	0.00105357	0	0	0	
0.244833	-0.00133204	-0.0114572	0.000181084	0.000850988	0	0	0	
0.245	-0.0105305	-0.0496348	0.000172952	0.00154138	0	0	0	
0.245167	0.00720859	0.0137939	0.00016376	0.00228412	0	0	0	
0.245333	0.00223808	0.129599	0.000201691	0.00297981	0	0	0	
0.2455	-0.0104973	-0.148108	0.000163062	0.00353075	0	0	0	
0.245667	0.00302303	0.0817989	0.00019427	0.00402715	0	0	0	
0.245833	0.000387474	0.0548702	0.000166727	0.00376372	0	0	0	
0.246	0.000844345	-0.0958397	0.0001764	0.00280709	0	0	0	
0.246167	0.00319017	0.0127071	0.000186606	0.00203645	0	0	0	
0.246333	-0.0110646	0.098206	0.000207187	0.00188262	0	0	0	
0.2465	0.00399144	-0.160198	0.00021449	0.00223049	0	0	0	
0.246667	0.00040504	0.139528	0.000150845	0.00249898	0	0	0	
0.246833	0.00112555	-0.0366536	0.000102898	0.00241251	0	0	0	
0.247	-0.00864504	-0.0347154	0.000134318	0.00179109	0	0	0	
0.247167	0.0120247	0.024126	0.000210836	0.00104099	0	0	0	
0.247333	-0.00536201	0.0226553	0.000235579	0.000831482	0	0	0	
0.2475	-0.00167	-0.0429651	0.000170876	0.000833414	0	0	0	
0.247667	0.00270876	0.00636415	0.000136564	0.000894548	0	0	0	
0.247833	-0.00103802	0.0184926	0.0001386	0.000897494	0	0	0	
0.248	0.000131389	-0.0556023	0.000150369	0.00094121	0	0	0	
0.248167	-0.00258691	0.0388271	0.00016254	0.000968646	0	0	0	
0.248333	-0.00234147	0.0195971	0.000209178	0.00083011	0	0	0	
0.2485	0.0102124	0.0235333	0.000277775	0.000955146	0	0	0	
0.248667	-0.00939288	-0.145637	0.000309947	0.00136727	0	0	0	
0.248833	0.00818354	-0.00164108	0.000238091	0.001571	0	0	0	
0.249	-0.00146107	0.196091	0.000240003	0.00242563	0	0	0	
0.249167	-0.0066577	-0.079804	0.000197523	0.00306233	0	0	0	
0.249333	-0.00131617	-0.0648667	0.000301072	0.00398219	0	0	0	
0.2495	0.0148044	0.172499	0.00041674	0.00494388	0	0	0	
0.249667	-0.0130566	-0.246652	0.000517945	0.00550729	0	0	0	
0.249833	0.00613264	0.211093	0.000466039	0.00655142	0	0	0	
0.25	-0.00894074	-0.149195	0.00031487	0.00505612	0	0	0	
0.250167	0.00548903	0.112778	0.000220614	0.00492588	0	0	0	
0.250333	0.00530926	-0.171579	0.000191049	0.00380067	0	0	0	
0.2505	-0.00790305	0.260902	0.000254838	0.00480251	0	0	0	
0.250667	-0.00287451	-0.0712946	0.000378265	0.00493614	0	0	0	
0.250833	0.0108628	0.0360601	0.000466008	0.00565919	0	0	0	
0.251	-0.00232154	-0.341924	0.000417714	0.00473719	0	0	0	
0.251167	-0.00730989	0.485814	0.000275742	0.00748736	0	0	0	
0.251333	0.0052002	-0.478318	0.000200609	0.0135726	0	0	0	
0.2515	-0.000186406	0.256611	0.000265301	0.0189859	0	0	0	
0.251667	-0.008687	0.00964215	0.000360197	0.0169308	0	0	0	
0.251833	0.0062432	-0.485145	0.000380406	0.00993367	0	0	0	
0.252	0.00275759	0.701209	0.000281738	0.00801285	0	0	0	
0.252167	-0.00241473	0.115241	0.000186992	0.00863537	0	0	0	
0.252333	-0.00118548	-0.89112	0.00014851	0.0129638	0	0	0	
0.2525	0.000694706	0.869913	0.000146765	0.0151906	0	0	0	
0.252667	0.0027605	-0.441086	0.000146542	0.0157238	0	0	0	
0.252833	-0.00191613	-0.0283682	0.00016755	0.0125788	0	0	0	
0.253	-0.00347432	0.208548	0.000209103	0.0099415	0	0	0	
0.253167	0.0032817	-0.0582801	0.000248157	0.0106556	0	0	0	
0.253333	-0.00417421	0.149096	0.000263165	0.011144	0	0	0	
0.2535	0.00680668	-0.0152338	0.000265698	0.0082701	0	0	0	
0.253667	-0.00486392	-0.201204	0.000253544	0.00468962	0	0	0	
0.253833	0.000670533	0.207044	0.000199529	0.00325954	0	0	0	
0.254	-0.000456676	-0.0480946	0.000151412	0.00320969	0	0	0	
0.254167	0.00211983	-0.161229	0.000164957	0.00355435	0	0	0	
0.254333	-0.00365659	0.194619	0.000214573	0.00330671	0	0	0	
0.2545	6.26511E-05	-0.0902601	0.000235882	0.00339199	0	0	0	
0.254667	-0.00066206	-0.0351042	0.000245818	0.00312926	0	0	0	
0.254833	0.00692	0.0821904	0.000299015	0.00241737	0	0	0	
0.255	-0.0125653	-0.0197536	0.000361127	0.00196881	0	0	0	
0.255167	0.00849255	-0.0695237	0.000354518	0.00170894	0	0	0	
0.255333	-0.00246831	0.0891727	0.000266841	0.00182054	0	0	0	
0.2555	-0.00328638	-0.0301038	0.000163397	0.00170361	0	0	0	
0.255667	0.00740107	-0.0421081	0.000133178	0.00144346	0	0	0	
0.255833	-0.00658825	0.045034	0.000180546	0.00117739	0	0	0	
0.256	0.0030249	-0.0139145	0.000266722	0.00100281	0	0	0	
0.256167	0.000459488	0.0190114	0.000322395	0.000630187	0	0	0	
0.256333	-0.00589094	-0.0162325	0.000331826	0.000565236	0	0	0	
0.2565	0.00629758	-0.0315435	0.000297376	0.000688563	0	0	0	
0.256667	-0.000965041	0.0363972	0.000220968	0.000768838	0	0	0	
0.256833	-0.00424431	0.0142425	0.000148265	0.000920432	0	0	0	
0.257	0.00142864	-0.0265552	0.000142493	0.000642076	0	0	0	
0.257167	0.00366445	0.00375267	0.000196177	0.000668854	0	0	0	
0.257333	-0.00401373	-0.0165664	0.000228554	0.000496288	0	0	0	
0.2575	-8.0724E-05	0.0478565	0.000194561	0.000632671	0	0	0	
0.257667	0.000679228	0.0156296	0.000156193	0.000570034	0	0	0	
0.257833	0.00110879	-0.0109961	0.000168927	0.000934843	0	0	0	
0.258	-0.00324525	-0.0134987	0.000197804	0.00125059	0	0	0	
0.258167	0.00251485	-0.0764115	0.000192928	0.00140096	0	0	0	
0.258333	-0.00191048	0.0480816	0.000150121	0.00136628	0	0	0	
0.2585	6.16237E-06	0.0058278	0.000109599	0.00102828	0	0	0	
0.258667	0.00320056	-0.0242081	0.000101993	0.00101915	0	0	0	
0.258833	-0.00351856	0.104921	0.000135899	0.000946886	0	0	0	
0.259	0.00107852	-0.0939779	0.000212923	0.00152808	0	0	0	
0.259167	0.00262802	-0.0160033	0.000312053	0.00158846	0	0	0	
0.259333	-0.00907752	-0.0089881	0.000379785	0.00155801	0	0	0	
0.2595	0.00895458	0.0266374	0.000373894	0.00104974	0	0	0	
0.259667	-0.00402872	-0.0246357	0.00029707	0.000875164	0	0	0	
0.259833	0.00262312	0.0222889	0.000191495	0.00070271	0	0	0	
0.26	0.00685179	-0.00820836	0.0001136	0.00054448	0	0	0	
0.260167	-0.0195506	0.0164948	0.000156004	0.000427995	0	0	0	
0.260333	0.0167695	-0.00794096	0.000216748	0.000302632	0	0	0	
0.2605	-0.000232991	0.0038005	0.000373154	0.0001825	0	0	0	
0.260667	-0.0117237	-0.0011676	0.000436013	0.000152701	0	0	0	
0.260833	-0.00412705	-0.0104464	0.000411187	0.000101631	0	0	0	
0.261	0.0331414	0.0030712	0.000402057	0.000177437	0	0	0	
0.261167	-0.02364	0.0346431	0.000412935	0.00035664	0	0	0	
0.261333	-0.0116709	-0.0249411	0.000567756	0.000510929	0	0	0	
0.2615	0.0105967	-0.0186517	0.000506259	0.000604556	0	0	0	
0.261667	0.00472574	-0.00036644	0.000359211	0.000525278	0	0	0	
0.261833	0.0066078	0.0291586	0.000217255	0.00054076	0	0	0	
0.262	-0.0245583	0.017048	0.000228306	0.00053219	0	0	0	
0.262167	0.00619621	-0.0384191	0.000338952	0.000537713	0	0	0	
0.262333	0.0168678	-0.0355258	0.000455752	0.00104056	0	0	0	
0.2625	-0.0126359	0.0766624	0.000426835	0.00156067	0	0	0	
0.262667	-0.0077384	-0.0159603	0.000473582	0.00177419	0	0	0	
0.262833	0.00754527	0.0791655	0.000370013	0.0013695	0	0	0	
0.263	0.00530852	-0.150934	0.000306624	0.00164588	0	0	0	
0.263167	-0.0106961	0.118123	0.000192398	0.00235259	0	0	0	
0.263333	0.000353939	-0.00246946	0.000220243	0.00253672	0	0	0	
0.2635	0.006181	-0.0612716	0.000302466	0.00183166	0	0	0	
0.263667	-0.00332222	0.107179	0.000281625	0.00144334	0	0	0	
0.263833	-0.000409798	-0.0540658	0.000179692	0.00151691	0	0	0	
0.264	0.00205351	0.0479758	0.000106096	0.00203231	0	0	0	
0.264167	-0.0021679	-0.0547866	0.000109829	0.00248654	0	0	0	
0.264333	0.00107435	0.0546088	0.000163533	0.00277731	0	0	0	
0.2645	0.000719536	-0.0406741	0.000210027	0.00237765	0	0	0	
0.264667	-0.000873939	0.0362197	0.000228649	0.00154352	0	0	0	
0.264833	0.00230674	-0.0129285	0.000224981	0.000983829	0	0	0	
0.265	-0.00165891	0.00585163	0.000206395	0.000794171	0	0	0	
0.265167	0.001366	0.00447067	0.000183335	0.000547616	0	0	0	
0.265333	-9.55442E-05	-0.02184	0.000165859	0.000398838	0	0	0	
0.2655	-0.000176401	0.0116093	0.000151369	0.000267831	0	0	0	
0.265667	0.00236856	0.00462961	0.00014934	0.000423726	0	0	0	
0.265833	-0.000684561	-0.00681711	0.000164799	0.00035404	0	0	0	
0.266	-0.000338759	-0.00530923	0.000193937	0.000368205	0	0	0	
0.266167	0.000813076	0.0128377	0.00020577	0.000251422	0	0	0	
0.266333	-6.35396E-05	-0.00768659	0.000186382	0.000289037	0	0	0	
0.2665	-0.000199134	0.00806612	0.000152201	0.00029077	0	0	0	
0.266667	0.00305357	0.00105556	0.000135039	0.000258348	0	0	0	
0.266833	-0.00444132	-0.010556	0.000149056	0.000212736	0	0	0	
0.267	0.00484826	-0.000630001	0.000192112	0.000167527	0	0	0	
0.267167	0.00105316	0.0039512	0.000253252	0.000216929	0	0	0	
0.267333	-0.00739827	0.0251242	0.000301456	0.000473236	0	0	0	
0.2675	0.0091936	-0.0497855	0.000293187	0.000664686	0	0	0	
0.267667	-0.00210361	0.0413163	0.000222105	0.00086175	0	0	0	
0.267833	-0.00636069	-0.0160691	0.000139668	0.000815391	0	0	0	
0.268	0.0122671	-0.0156267	0.000115769	0.000750181	0	0	0	
0.268167	-0.0093258	0.0458586	0.000186973	0.000616749	0	0	0	
0.268333	0.000970761	-0.0351485	0.000291733	0.000663027	0	0	0	
0.2685	0.00204496	-0.000404466	0.000344273	0.000842649	0	0	0	
0.268667	-0.00194677	0.014619	0.000313435	0.000875567	0	0	0	
0.268833	0.00313057	-0.00704251	0.000254751	0.000641942	0	0	0	
0.269	0.000563362	-0.0117638	0.000188466	0.000319637	0	0	0	
0.269167	-0.0078018	0.0290014	0.000151073	0.000246856	0	0	0	
0.269333	0.00568198	-0.0212967	0.000132527	0.000355231	0	0	0	
0.2695	0.0010844	-0.0047239	0.000172844	0.000661364	0	0	0	
0.269667	-0.00247654	0.0168881	0.000185361	0.000802381	0	0	0	
0.269833	0.000717434	-0.0108179	0.000153854	0.000803926	0	0	0	
0.27	0.00213869	0.0220394	9.59593E-05	0.000656554	0	0	0	
0.270167	-0.00368453	-0.0156881	7.80047E-05	0.000482467	0	0	0	
0.270333	0.00330059	-0.0206432	0.000110839	0.000548401	0	0	0	
0.2705	0.000891433	0.031848	0.000179404	0.000509633	0	0	0	
0.270667	-0.00205839	-0.0112789	0.000227512	0.000585895	0	0	0	
0.270833	0.000961283	0.022671	0.000229019	0.000447138	0	0	0	
0.271	-6.74747E-05	-0.0516456	0.000198305	0.000513978	0	0	0	
0.271167	-0.000217645	0.0322209	0.000178024	0.000642254	0	0	0	
0.271333	0.00226574	0.0164029	0.000171527	0.000822254	0	0	0	
0.2715	-0.00301026	-0.0311439	0.000162603	0.000781675	0	0	0	
0.271667	0.00323324	0.0179386	0.000159223	0.000636625	0	0	0	
0.271833	-0.00113184	-0.0019722	0.000176942	0.000394316	0	0	0	
0.272	-0.000592852	-0.0147572	0.000194988	0.000297407	0	0	0	
0.272167	0.000694654	0.0167061	0.000186713	0.000290821	0	0	0	
0.272333	0.00286965	0.00444524	0.000160788	0.000276667	0	0	0	
0.2725	-0.00219667	-0.0183081	0.000154216	0.000251082	0	0	0	
0.272667	-0.000205885	0.013185	0.000181306	0.000240481	0	0	0	
0.272833	0.00181865	-0.00977243	0.000196336	0.000283129	0	0	0	
0.273	0.00201275	0.0150748	0.000161226	0.000302285	0	0	0	
0.273167	-0.00337604	-0.00987038	0.000115702	0.000302441	0	0	0	
0.273333	0.00485837	-0.000422922	0.000120675	0.000379567	0	0	0	
0.2735	-0.00368695	0.00165365	0.00016483	0.000369574	0	0	0	
0.273667	0.003845	0.00991179	0.000206661	0.000281769	0	0	0	
0.273833	0.00181151	-0.0102134	0.000235226	0.000234348	0	0	0	
0.274	-0.0032966	0.00770764	0.00024711	0.000220646	0	0	0	
0.274167	0.00147887	-0.00583077	0.000218709	0.000214927	0	0	0	
0.274333	0.00408851	0.0116536	0.000167953	0.00016574	0	0	0	
0.2745	-0.00359956	-0.00814753	0.00013941	0.000191866	0	0	0	
0.274667	0.00429235	-0.00894594	0.000147349	0.000288343	0	0	0	
0.274833	-0.00254068	0.0147331	0.000161694	0.000319631	0	0	0	
0.275	0.0046185	0.00697575	0.000178878	0.000297525	0	0	0	
0.275167	-0.00159895	-0.014038	0.000186793	0.000260493	0	0	0	
0.275333	0.00217628	0.0149051	0.000182372	0.000271607	0	0	0	
0.2755	-0.000460755	-0.0165273	0.000158066	0.000336359	0	0	0	
0.275667	0.000931159	0.00442941	0.000136796	0.000301208	0	0	0	
0.275833	-0.00191628	0.00310193	0.000118227	0.000305772	0	0	0	
0.276	0.00607599	0.00780887	0.000111154	0.000282651	0	0	0	
0.276167	-0.00148796	-0.0126979	0.000113282	0.000307764	0	0	0	
0.276333	0.0020306	0.00292874	0.000159151	0.000254178	0	0	0	
0.2765	0.000589763	0.00661881	0.000207076	0.000189446	0	0	0	
0.276667	-0.00049686	-0.0107516	0.000227794	0.000179978	0	0	0	
0.276833	0.00254763	0.0192323	0.000195247	0.000222206	0	0	0	
0.277	-0.00260769	-0.0160756	0.000156579	0.000304912	0	0	0	
0.277167	0.00353559	0.00406976	0.000135808	0.000316067	0	0	0	
0.277333	0.00656521	0.00531629	0.000134561	0.000294904	0	0	0	
0.2775	-0.00755307	-0.00665103	0.000146828	0.000224516	0	0	0	
0.277667	0.00460988	0.010261	0.000180418	0.000173245	0	0	0	
0.277833	0.000179433	0.000562446	0.000218509	0.000243026	0	0	0	
0.278	0.00208038	-0.0120386	0.000228785	0.000435519	0	0	0	
0.278167	-0.00143521	0.0165807	0.000221811	0.000583414	0	0	0	
0.278333	0.000950706	-0.0101491	0.000211554	0.000523373	0	0	0	
0.2785	0.000948938	0.000237821	0.000195604	0.000330912	0	0	0	
0.278667	0.00214293	0.0187422	0.000162724	0.000243345	0	0	0	
0.278833	-0.00298273	-0.023422	0.00012593	0.00031553	0	0	0	
0.279	0.00584632	0.0127016	0.000122693	0.000375786	0	0	0	
0.279167	-0.00380514	0.00491736	0.000154575	0.000333823	0	0	0	
0.279333	0.00416456	-0.0138618	0.000206661	0.000282299	0	0	0	
0.2795	-0.00275044	0.00912751	0.000256681	0.000221002	0	0	0	
0.279667	-0.00258245	0.0126689	0.000290063	0.000386541	0	0	0	
0.279833	0.0067921	-0.0272922	0.000271591	0.000623724	0	0	0	
0.28	4.85884E-06	0.0189957	0.000199064	0.000783433	0	0	0	
0.280167	-0.00560394	-0.00327246	0.000123032	0.000668455	0	0	0	
0.280333	0.0104944	-0.00909892	0.00010593	0.000539038	0	0	0	
0.2805	-0.00992435	0.0128496	0.000163092	0.000457532	0	0	0	
0.280667	0.00710431	-0.0114164	0.000221563	0.000421603	0	0	0	
0.280833	-0.00406157	0.0190941	0.000254168	0.000362693	0	0	0	
0.281	0.00249285	-0.0201971	0.000261086	0.000432281	0	0	0	
0.281167	0.0030622	-0.0119954	0.000291677	0.000572949	0	0	0	
0.281333	0.00156195	0.0429164	0.000334241	0.000582023	0	0	0	
0.2815	-0.00178949	-0.0104043	0.00035596	0.000733467	0	0	0	
0.281667	0.000820148	-0.0435031	0.000346392	0.0012804	0	0	0	
0.281833	0.00377607	0.0873063	0.000291193	0.00148122	0	0	0	
0.282	0.00180303	-0.0444484	0.000199442	0.00174896	0	0	0	
0.282167	-0.0105128	-0.0352914	0.000133809	0.0015033	0	0	0	
0.282333	0.0195182	0.0152058	0.000169095	0.00124504	0	0	0	
0.2825	-0.0129344	-0.0382549	0.000272247	0.000940041	0	0	0	
0.282667	0.00718279	0.0699279	0.000341981	0.000936767	0	0	0	
0.282833	-0.000459641	-0.0248439	0.000320377	0.00151444	0	0	0	
0.283	0.00109223	-0.0631298	0.000248823	0.0017222	0	0	0	
0.283167	-0.0035138	0.0252948	0.000179358	0.00139591	0	0	0	
0.283333	0.00694519	0.0131711	0.000147049	0.00113156	0	0	0	
0.2835	-0.00449395	-0.0724021	0.000161815	0.000874915	0	0	0	
0.283667	0.00440506	0.0656541	0.000205116	0.00112351	0	0	0	
0.283833	-0.00108029	-0.0417572	0.000232343	0.00107945	0	0	0	
0.284	1.21989E-05	-0.0438203	0.000227822	0.00112923	0	0	0	
0.284167	0.000145025	0.0636031	0.00018992	0.00102724	0	0	0	
0.284333	0.00306681	-0.0162255	0.000149333	0.00104439	0	0	0	
0.2845	-0.000611662	-0.0183035	0.000126932	0.000947176	0	0	0	
0.284667	0.000933082	0.00554129	0.000126183	0.000699979	0	0	0	
0.284833	-0.00122552	-0.000854817	0.000109419	0.000388599	0	0	0	
0.285	0.00934421	-0.00433062	0.00010304	0.000295808	0	0	0	
0.285167	-0.00947127	0.0218683	0.000124908	0.000417917	0	0	0	
0.285333	0.00749478	-0.0192291	0.000195518	0.000495171	0	0	0	
0.2855	0.000299315	0.00614214	0.000264758	0.000446133	0	0	0	
0.285667	-0.000441874	-0.00320852	0.000281577	0.000279857	0	0	0	
0.285833	4.04555E-05	-0.00185008	0.000233607	0.000153558	0	0	0	
0.286	0.00304616	0.02918	0.000165032	0.000243592	0	0	0	
0.286167	-0.00188763	-0.0257286	0.000115743	0.000357049	0	0	0	
0.286333	0.00781812	-0.00267406	0.0001088	0.000546863	0	0	0	
0.2865	-0.00889219	0.00517981	0.000135644	0.000444895	0	0	0	
0.286667	0.00645946	0.00524838	0.000196859	0.000328618	0	0	0	
0.286833	0.000501062	0.0158706	0.000247249	0.00023909	0	0	0	
0.287	0.00222936	-0.0196982	0.00022573	0.000287106	0	0	0	
0.287167	-0.00519264	-0.00739358	0.000168608	0.000457547	0	0	0	
0.287333	0.00556229	0.0141186	0.000131818	0.00046043	0	0	0	
0.2875	-0.00260672	0.0100361	0.00014251	0.000450562	0	0	0	
0.287667	0.00513235	-0.0140205	0.000151404	0.000331008	0	0	0	
0.287833	-0.00459126	0.00497679	0.000144662	0.000252104	0	0	0	
0.288	0.00721965	-0.00143578	0.000143158	0.0002128	0	0	0	
0.288167	-0.00613288	0.000279886	0.000161882	0.000137334	0	0	0	
0.288333	0.00638596	0.00541378	0.000189368	9.77625E-05	0	0	0	
0.2885	-0.00267843	-0.000877289	0.000210725	0.000110967	0	0	0	
0.288667	0.00240779	-0.000733555	0.000215622	0.000152151	0	0	0	
0.288833	0.000976635	-0.00413204	0.000197233	0.000175674	0	0	0	
0.289	0.00414293	0.00829852	0.000168326	0.000139949	0	0	0	
0.289167	-0.0044882	0.000130292	0.0001436	0.000133757	0	0	0	
0.289333	0.00661529	0.00474613	0.000137981	0.000110116	0	0	0	
0.2895	-0.00397938	-0.00836789	0.000148153	0.000119164	0	0	0	
0.289667	0.00544358	0.0118929	0.000165681	0.000160183	0	0	0	
0.289833	-0.00250331	-0.0524915	0.000176844	0.00035395	0	0	0	
0.29	0.00439519	0.0720458	0.000183902	0.000753189	0	0	0	
0.290167	-0.00218592	-0.0678241	0.000167995	0.00110972	0	0	0	
0.290333	0.00577857	0.0203326	0.000170796	0.0012781	0	0	0	
0.2905	0.00574016	0.0221394	0.000249305	0.00106649	0	0	0	
0.290667	-0.0160216	-0.0432792	0.000369324	0.000932637	0	0	0	
0.290833	0.00521316	0.0267439	0.000392292	0.000859758	0	0	0	
0.291	0.0416011	-0.0298601	0.000562866	0.00089832	0	0	0	
0.291167	-0.0489958	0.0514245	0.000672676	0.000923235	0	0	0	
0.291333	0.0106228	-0.0631953	0.000901046	0.00110686	0	0	0	
0.2915	0.0209271	0.0293701	0.000879508	0.00126793	0	0	0	
0.291667	-0.00808795	-0.0322604	0.000704207	0.00121242	0	0	0	
0.291833	0.0137289	0.048582	0.000450766	0.00112752	0	0	0	
0.292	-0.0223761	-0.0013503	0.000268476	0.000849037	0	0	0	
0.292167	0.00420719	-0.0292755	0.000403867	0.000734893	0	0	0	
0.292333	0.0330446	-0.0107765	0.000618243	0.000848263	0	0	0	
0.2925	-0.0243617	0.00803131	0.000672983	0.000779145	0	0	0	
0.292667	-0.00399152	0.0394696	0.000715521	0.000985282	0	0	0	
0.292833	0.016774	-0.0197574	0.00061687	0.000640833	0	0	0	
0.293	-0.00360738	-0.0287521	0.000533069	0.00101286	0	0	0	
0.293167	-0.000934738	0.00030061	0.000263828	0.000755842	0	0	0	
0.293333	0.00564947	0.0159321	0.0001136	0.000656889	0	0	0	
0.2935	-0.00521068	0.0179685	8.1564E-05	0.000322621	0	0	0	
0.293667	0.00381519	-0.0311017	0.000150782	0.000361657	0	0	0	
0.293833	0.00355661	0.003939	0.00019517	0.000514512	0	0	0	
0.294	0.00172823	0.0389194	0.000178394	0.000702039	0	0	0	
0.294167	-0.00372652	-0.0186722	0.000122184	0.000702961	0	0	0	
0.294333	0.00643552	-0.113932	0.000104456	0.00170103	0	0	0	
0.2945	-0.0046814	0.173863	0.000132971	0.00289491	0	0	0	
0.294667	0.00880969	-0.0562832	0.000158167	0.00330603	0	0	0	
0.294833	-0.00841025	-0.0910049	0.000164086	0.00331589	0	0	0	
0.295	0.0105072	0.105652	0.000193025	0.00244622	0	0	0	
0.295167	-0.00404746	-0.0518883	0.000255143	0.00234809	0	0	0	
0.295333	0.00145976	0.107584	0.000304465	0.00158816	0	0	0	
0.2955	0.00189561	-0.0889896	0.000282459	0.0021505	0	0	0	
0.295667	0.00251466	-0.0844423	0.000200414	0.00293087	0	0	0	
0.295833	-0.0047216	0.133474	0.000128268	0.00308762	0	0	0	
0.296	0.00731513	-0.0197076	0.000130099	0.00292521	0	0	0	
0.296167	-0.00162348	-0.0370065	0.00017295	0.00252082	0	0	0	
0.296333	0.00227474	0.0710355	0.000200447	0.00225911	0	0	0	
0.2965	-0.00261751	-0.0568907	0.000167689	0.00165894	0	0	0	
0.296667	0.00765735	-0.01832	0.00013442	0.00155611	0	0	0	
0.296833	-0.00720214	0.0721099	0.000129145	0.00167001	0	0	0	
0.297	0.00822123	-0.0270373	0.000170281	0.00155467	0	0	0	
0.297167	-0.00616624	-0.0273477	0.000198704	0.00115721	0	0	0	
0.297333	0.00903685	0.0265705	0.00021979	0.000819451	0	0	0	
0.2975	-0.00481647	-0.00298604	0.000217287	0.000608122	0	0	0	
0.297667	0.00386689	8.18433E-05	0.000222416	0.000277219	0	0	0	
0.297833	-0.00283688	0.00180592	0.000214899	0.00017517	0	0	0	
0.298	0.00406772	-0.00604045	0.000213028	0.000143155	0	0	0	
0.298167	-0.00165518	-0.000448668	0.000205757	0.000216305	0	0	0	
0.298333	0.00247068	0.0161528	0.000191758	0.000229271	0	0	0	
0.2985	0.000355452	-0.0137769	0.000142735	0.000253529	0	0	0	
0.298667	0.00772233	0.0103388	0.000101762	0.00023238	0	0	0	
0.298833	-0.0108428	-0.0108862	0.000101511	0.000243421	0	0	0	
0.299	0.0103097	0.00455042	0.000169902	0.000215106	0	0	0	
0.299167	-0.00263514	0.0110791	0.000233269	0.000302089	0	0	0	
0.299333	0.0049312	-0.00767209	0.000240307	0.000326202	0	0	0	
0.2995	-0.00199556	-0.00637158	0.000196817	0.000323154	0	0	0	
0.299667	0.0035051	0.0134653	0.000157903	0.000221927	0	0	0	
0.299833	-0.00608261	-0.0170804	0.000131832	0.000254994	0	0	0	
0.3	0.0131809	0.0148185	0.000155904	0.000399628	0	0	0	
0.300167	-0.00804476	0.00902987	0.000206225	0.000609008	0	0	0	
0.300333	0.00257605	-0.0151305	0.000280796	0.000586143	0	0	0	
0.3005	0.00171682	-0.0165883	0.000283801	0.000608999	0	0	0	
0.300667	0.0043402	0.0447437	0.000223733	0.000608561	0	0	0	
0.300833	-0.00556941	-0.0325071	0.000145584	0.000737678	0	0	0	
0.301	0.010386	0.0186684	0.000128032	0.000667261	0	0	0	
0.301167	-0.0097025	-0.0264002	0.000159564	0.000544014	0	0	0	
0.301333	0.00850593	0.00181644	0.000210409	0.000421695	0	0	0	
0.3015	-0.00309417	0.0252487	0.000238228	0.000373963	0	0	0	
0.301667	0.00416145	-0.00957733	0.000238001	0.000435055	0	0	0	
0.301833	-0.00155039	-0.0178985	0.000189074	0.000608764	0	0	0	
0.302	0.00780211	0.0171942	0.000151304	0.000571758	0	0	0	
0.302167	-0.00662633	-0.00898514	0.000138956	0.000514157	0	0	0	
0.302333	0.00718479	0.000969893	0.00017983	0.000361265	0	0	0	
0.3025	-0.00191822	0.00817113	0.000192182	0.000365819	0	0	0	
0.302667	0.00988421	-0.0074325	0.000185695	0.000294183	0	0	0	
0.302833	-0.0104849	-0.00696572	0.000177274	0.000241063	0	0	0	
0.303	0.00904086	0.00619416	0.000203052	0.000296391	0	0	0	
0.303167	-0.00361365	0.00544449	0.000230621	0.000444035	0	0	0	
0.303333	0.00613752	0.00596871	0.000215335	0.000415715	0	0	0	
0.3035	-0.00474158	-0.00336189	0.000172544	0.000324788	0	0	0	
0.303667	0.00795943	-0.0210563	0.000144064	0.000214009	0	0	0	
0.303833	-0.00510435	0.0194236	0.000138152	0.000314603	0	0	0	
0.304	0.00958696	0.0110526	0.0001422	0.000329716	0	0	0	
0.304167	-0.00708937	-0.0260864	0.000154795	0.000343696	0	0	0	
0.304333	0.00547898	0.0185148	0.000190149	0.000357649	0	0	0	
0.3045	-0.00108156	-0.00959258	0.000212927	0.000387211	0	0	0	
0.304667	0.00430655	0.0112483	0.000196589	0.000334412	0	0	0	
0.304833	-0.00455321	-0.00731905	0.000150598	0.000278405	0	0	0	
0.305	0.00777666	0.00517344	0.000136581	0.000283192	0	0	0	
0.305167	-0.00606826	-0.00351078	0.000150895	0.000270526	0	0	0	
0.305333	0.00910383	0.0040853	0.000188181	0.000186792	0	0	0	
0.3055	-0.00584288	-0.0040927	0.000194089	0.000133439	0	0	0	
0.305667	0.00806139	0.00660351	0.000195261	0.000116116	0	0	0	
0.305833	-0.00497447	-0.00161373	0.000169572	0.000120778	0	0	0	
0.306	0.00810601	0.00235233	0.000163398	0.000101886	0	0	0	
0.306167	-0.00867942	-0.00294337	0.000161412	8.63567E-05	0	0	0	
0.306333	0.0104199	-0.00481468	0.000181865	0.000108853	0	0	0	
0.3065	-0.0041183	0.00541665	0.000191776	9.92695E-05	0	0	0	
0.306667	0.00183789	0.00973597	0.0002058	0.000208136	0	0	0	
0.306833	0.000619937	-0.0242559	0.000172541	0.000276366	0	0	0	
0.307	0.00721781	0.0138528	0.000138366	0.000383727	0	0	0	
0.307167	-0.00585339	0.00876949	0.000108911	0.000418986	0	0	0	
0.307333	0.00622335	-0.0281775	0.00011574	0.000407725	0	0	0	
0.3075	-0.00557024	0.014016	0.000135438	0.000487648	0	0	0	
0.307667	0.00782226	0.0174993	0.000156806	0.000636242	0	0	0	
0.307833	-0.00473786	-0.0211717	0.000175746	0.000657162	0	0	0	
0.308	0.00660627	0.0131541	0.000198268	0.000560276	0	0	0	
0.308167	-0.000513503	-0.0250122	0.000191224	0.000363439	0	0	0	
0.308333	0.00345258	0.00889395	0.000177902	0.000412282	0	0	0	
0.3085	-0.00373186	0.0502874	0.000140793	0.000697663	0	0	0	
0.308667	0.00606016	-0.0492993	0.000131744	0.000852606	0	0	0	
0.308833	-0.00352078	-0.015356	0.000121744	0.00112095	0	0	0	
0.309	0.00887878	0.0425453	0.000132683	0.0009307	0	0	0	
0.309167	-0.0100684	-0.0113661	0.000140877	0.000878477	0	0	0	
0.309333	0.0116446	0.00626004	0.000182259	0.000560773	0	0	0	
0.3095	-0.00456553	-0.00654759	0.00021204	0.000438212	0	0	0	
0.309667	0.0043072	-0.0155594	0.000223029	0.000404082	0	0	0	
0.309833	-0.00282826	0.0144306	0.000186069	0.000402085	0	0	0	
0.31	0.0070149	0.00792036	0.000153233	0.000408142	0	0	0	
0.310167	-0.00692531	-0.0077156	0.000124796	0.000293667	0	0	0	
0.310333	0.00976241	0.00098941	0.000154877	0.000188032	0	0	0	
0.3105	-0.00714346	-0.00548871	0.000179217	0.00012634	0	0	0	
0.310667	0.00870602	0.00697198	0.000205738	8.88117E-05	0	0	0	
0.310833	-0.00528613	-0.00752031	0.00018434	0.000132147	0	0	0	
0.311	0.00385282	-0.00152281	0.000164615	0.000166729	0	0	0	
0.311167	0.00266297	0.0140442	0.000116155	0.000203566	0	0	0	
0.311333	0.00429435	-0.0136947	9.65625E-05	0.000266313	0	0	0	
0.3115	-0.00709609	0.00877511	0.000102624	0.000311242	0	0	0	
0.311667	0.0112036	-0.00600727	0.000143976	0.000271776	0	0	0	
0.311833	-0.00509992	-0.000945287	0.000163933	0.000171956	0	0	0	
0.312	-0.000939279	0.00938421	0.000195642	0.000100249	0	0	0	
0.312167	0.013483	-0.0102474	0.000219125	0.000132731	0	0	0	
0.312333	-0.0100934	0.00632481	0.000245919	0.000259724	0	0	0	
0.3125	0.0029183	-0.0009324	0.000216577	0.00038709	0	0	0	
0.312667	0.0112671	-0.000318937	0.000189048	0.00042477	0	0	0	
0.312833	-0.0148787	0.00581219	0.000184543	0.000317711	0	0	0	
0.313	0.0146941	-0.0111342	0.000277589	0.000247242	0	0	0	
0.313167	-0.00102455	-0.00560881	0.000451241	0.00031119	0	0	0	
0.313333	-0.0175122	0.0176567	0.000735689	0.000449028	0	0	0	
0.3135	0.0443131	-0.0415137	0.000970936	0.00064299	0	0	0	
0.313667	-0.049464	0.0614453	0.00103068	0.000834652	0	0	0	
0.313833	0.0211192	-0.0346557	0.000922702	0.000935149	0	0	0	
0.314	0.0213844	-0.0126781	0.000877486	0.00104401	0	0	0	
0.314167	-0.0563472	0.0214166	0.000880662	0.000983	0	0	0	
0.314333	0.0644269	-0.0331591	0.000987674	0.000950969	0	0	0	
0.3145	-0.0312561	0.0492318	0.0010576	0.000815437	0	0	0	
0.314667	-0.0134718	-0.0203162	0.00119292	0.00085401	0	0	0	
0.314833	0.0282781	-0.0468183	0.00106086	0.00120119	0	0	0	
0.315	-0.0112517	0.0831138	0.000760991	0.00137794	0	0	0	
0.315167	-0.00764133	-0.0569784	0.000445591	0.00163015	0	0	0	
0.315333	0.0185316	-0.0754271	0.000317543	0.00233484	0	0	0	
0.3155	-0.0170382	0.255996	0.000319096	0.00326492	0	0	0	
0.315667	0.00855451	-0.131818	0.000321493	0.00394917	0	0	0	
0.315833	0.0198475	-0.0407674	0.000412748	0.00357614	0	0	0	
0.316	-0.0252635	-0.052557	0.000436714	0.00269385	0	0	0	
0.316167	0.000694124	0.0341275	0.000503517	0.00242601	0	0	0	
0.316333	0.026629	-0.00821722	0.000501647	0.00225663	0	0	0	
0.3165	-0.0181379	-0.0625364	0.000503031	0.00212861	0	0	0	
0.316667	0.00535838	0.243336	0.000427913	0.00246334	0	0	0	
0.316833	0.0094394	-0.074366	0.000340052	0.00324205	0	0	0	
0.317	-0.00314996	-0.272732	0.000249105	0.00415088	0	0	0	
0.317167	-0.0141566	0.27087	0.00022069	0.00454442	0	0	0	
0.317333	0.0244691	-0.0895266	0.000242545	0.00478267	0	0	0	
0.3175	-0.0074694	0.0419129	0.000345475	0.00462385	0	0	0	
0.317667	-0.00572345	-0.038044	0.000437154	0.00319948	0	0	0	
0.317833	0.00494373	0.0216339	0.00037342	0.00183258	0	0	0	
0.318	0.00730311	-0.0279434	0.000259618	0.000987197	0	0	0	
0.318167	-0.00682799	0.22938	0.000138238	0.00239776	0	0	0	
0.318333	0.00531043	-0.315991	0.000121357	0.00456013	0	0	0	
0.3185	-0.00930038	0.230908	0.000132973	0.00605182	0	0	0	
0.318667	0.0140664	-0.0103868	0.000166619	0.0051177	0	0	0	
0.318833	0.0013682	-0.101171	0.000244601	0.00302006	0	0	0	
0.319	-0.00793638	-0.0343299	0.000321861	0.00259924	0	0	0	
0.319167	-0.000338641	0.149403	0.000284967	0.00339672	0	0	0	
0.319333	0.0104897	-0.010238	0.000207691	0.00428131	0	0	0	
0.3195	-0.00886547	-0.0611801	0.000159315	0.00480259	0	0	0	
0.319667	0.00617229	-0.183308	0.000206663	0.00705294	0	0	0	
0.319833	-0.00340904	0.230998	0.000214264	0.0104622	0	0	0	
0.32	0.013422	-0.305396	0.000200172	0.011688	0	0	0	
0.320167	-0.0167805	0.220788	0.000213716	0.00951926	0	0	0	
0.320333	0.0137469	0.204128	0.000298384	0.00651234	0	0	0	
0.3205	-0.00281808	-0.642548	0.000339942	0.00654818	0	0	0	
0.320667	0.000726421	0.917046	0.000301083	0.00997074	0	0	0	
0.320833	0.00193389	-0.209648	0.000199076	0.012366	0	0	0	
0.321	0.00366641	-0.453503	0.000129356	0.0133922	0	0	0	
0.321167	-0.00384132	0.255674	8.85564E-05	0.010893	0	0	0	
0.321333	0.0102002	0.191656	0.000113341	0.00806745	0	0	0	
0.3215	-0.00835459	-0.151489	0.000135032	0.00487839	0	0	0	
0.321667	0.00928378	0.000652548	0.000174201	0.00345661	0	0	0	
0.321833	-0.00536114	0.396322	0.000179938	0.00365093	0	0	0	
0.322	0.00938885	-0.210127	0.00020594	0.00616042	0	0	0	
0.322167	-0.00583224	0.0515457	0.000187833	0.00789802	0	0	0	
0.322333	0.0100617	-0.0427885	0.000183775	0.00669807	0	0	0	
0.3225	-0.00682253	-0.151127	0.000161613	0.00557808	0	0	0	
0.322667	0.00659175	0.329427	0.000186275	0.00437098	0	0	0	
0.322833	-0.00336604	-0.187128	0.000167944	0.0060913	0	0	0	
0.323	0.00803312	-0.131176	0.000161465	0.0064517	0	0	0	
0.323167	-0.00738601	0.206982	0.000137087	0.00596141	0	0	0	
0.323333	0.0103258	-0.0321597	0.000169268	0.00516381	0	0	0	
0.3235	-0.00592	-0.127769	0.000170424	0.00380156	0	0	0	
0.323667	0.00903284	0.0979593	0.000185228	0.00322359	0	0	0	
0.323833	-0.00834377	0.0163257	0.00016533	0.00271255	0	0	0	
0.324	0.0117011	-0.0801458	0.000188349	0.0019405	0	0	0	
0.324167	-0.00895209	0.0552751	0.000202444	0.00170109	0	0	0	
0.324333	0.00738445	0.0166208	0.00021934	0.00146441	0	0	0	
