0	-0.00029262	0.0107035	2.9262E-08	1.07035E-06	0	0	0	
0.000166667	-0.00250984	-0.0218637	2.18178E-05	9.12375E-05	0	0	0	
0.000333333	0.00314379	0.00994649	3.89571E-05	0.00028803	0	0	0	
0.0005	-0.00386507	0.00967235	6.91637E-05	0.000555624	0	0	0	
0.000666667	-0.00230382	-0.0167429	6.27755E-05	0.000646883	0	0	0	
0.000833333	0.00212805	0.0221316	6.06389E-05	0.000599003	0	0	0	
0.001	0.000254598	-0.0328325	4.88348E-05	0.000478403	0	0	0	
0.00116667	0.00105941	-0.00146186	4.6889E-05	0.00059193	0	0	0	
0.00133333	-0.000223401	0.0675513	4.22376E-05	0.000924485	0	0	0	
0.0015	0.00170987	-0.0817991	3.71556E-05	0.00120356	0	0	0	
0.00166667	-0.00399673	0.0236619	5.54029E-05	0.00141182	0	0	0	
0.00183333	0.00302588	0.0259649	8.34059E-05	0.00135669	0	0	0	
0.002	-0.00251054	-0.0258399	0.000114027	0.00107567	0	0	0	
0.00216667	-0.00029375	0.0159995	9.25408E-05	0.000715861	0	0	0	
0.00233333	0.00457195	-0.0053675	7.32461E-05	0.000479046	0	0	0	
0.0025	-0.00477113	-0.0301397	7.68594E-05	0.000680593	0	0	0	
0.00266667	0.00198701	0.0491111	7.86216E-05	0.000780831	0	0	0	
0.00283333	0.00592559	-0.000189269	7.97625E-05	0.000958325	0	0	0	
0.003	-0.00756996	-0.0426436	0.000102426	0.000986481	0	0	0	
0.00316667	-0.00150035	0.0229935	0.000106123	0.000931115	0	0	0	
0.00333333	0.00305016	-0.00110848	0.00011136	0.000762915	0	0	0	
0.0035	0.00139946	0.00424717	5.82626E-05	0.000482814	0	0	0	
0.00366667	-0.00148195	0.0281438	5.61203E-05	0.000525438	0	0	0	
0.00383333	0.000371801	-0.0675555	4.01074E-05	0.000631509	0	0	0	
0.004	-0.0018297	0.0299652	4.03423E-05	0.000936027	0	0	0	
0.00416667	0.00231501	0.0360208	3.79262E-05	0.00125531	0	0	0	
0.00433333	0.00331587	-0.0359419	6.76618E-05	0.00113048	0	0	0	
0.0045	-0.00334773	0.000424487	7.5461E-05	0.00092568	0	0	0	
0.00466667	0.00079621	-0.0149445	0.000102136	0.00050252	0	0	0	
0.00483333	0.00621774	0.0379751	9.89109E-05	0.000475332	0	0	0	
0.005	-0.00328128	-0.00221287	0.0001037	0.000620845	0	0	0	
0.00516667	0.000413825	-0.0293433	0.000128097	0.000801739	0	0	0	
0.00533333	0.00138763	0.00831242	0.00013273	0.000752488	0	0	0	
0.0055	0.000553817	-0.00856585	0.000116069	0.000487944	0	0	0	
0.00566667	0.00540025	0.0410491	7.28379E-05	0.00033587	0	0	0	
0.00583333	-0.00644881	-0.0293712	6.64427E-05	0.000532249	0	0	0	
0.006	-0.00131048	-0.0231926	0.000117936	0.000955127	0	0	0	
0.00616667	0.00851539	0.0469251	0.000150966	0.00117366	0	0	0	
0.00633333	-0.00129609	-0.0256268	0.000192546	0.00109373	0	0	0	
0.0065	-0.0188029	0.00698591	0.000186227	0.000693134	0	0	0	
0.00666667	0.0196438	-0.0032638	0.000326767	0.000350432	0	0	0	
0.00683333	0.000143032	-0.0104106	0.000520037	0.00023645	0	0	0	
0.007	-0.0100775	0.0425454	0.00065569	0.000338788	0	0	0	
0.00716667	0.0137636	-0.0700016	0.000599086	0.000613463	0	0	0	
0.00733333	-0.0229903	0.0328453	0.000447159	0.00109212	0	0	0	
0.0075	0.0158471	0.0652836	0.000386074	0.00124117	0	0	0	
0.00766667	0.0114026	-0.0128647	0.000388464	0.00118013	0	0	0	
0.00783333	-0.0279003	0.00770741	0.000452306	0.00077823	0	0	0	
0.008	0.0230691	0.00343191	0.000496555	0.000492827	0	0	0	
0.00816667	-0.0132514	-0.0075986	0.000447659	0.000356004	0	0	0	
0.00833333	0.0114921	0.0189089	0.000370555	0.000556071	0	0	0	
0.0085	-0.00835272	0.00751838	0.000288343	0.000796502	0	0	0	
0.00866667	0.00976491	0.0258699	0.000342888	0.000957645	0	0	0	
0.00883333	0.00232449	-0.00433777	0.000359025	0.000657824	0	0	0	
0.009	-0.0122532	0.0299478	0.000302066	0.000456919	0	0	0	
0.00916667	0.0095499	-0.0146344	0.000232914	0.000430623	0	0	0	
0.00933333	-0.00672384	-0.0231573	0.000183479	0.000641119	0	0	0	
0.0095	0.00596659	0.0197013	0.000178817	0.000678024	0	0	0	
0.00966667	-0.00572101	-0.0130935	0.000177018	0.000560016	0	0	0	
0.00983333	-0.00222261	0.0198112	0.000205441	0.000412752	0	0	0	
0.01	0.000875795	-0.0214471	0.00022798	0.000415103	0	0	0	
0.0101667	0.0041513	-0.0153904	0.000174016	0.000761885	0	0	0	
0.0103333	-0.000146595	0.0512173	0.000102977	0.000973662	0	0	0	
0.0105	-0.00171683	-0.0188021	5.49837E-05	0.00100944	0	0	0	
0.0106667	-0.0007223	-0.0141727	5.29137E-05	0.000737824	0	0	0	
0.0108333	0.006568	0.0065436	6.79239E-05	0.00045637	0	0	0	
0.011	-0.008224	0.013197	0.000110242	0.000457778	0	0	0	
0.0111667	-0.000157396	-0.0102046	0.000165144	0.000370094	0	0	0	
0.0113333	0.0063709	0.0256131	0.000167707	0.000434809	0	0	0	
0.0115	-0.000511286	-0.0225224	0.000134516	0.000372688	0	0	0	
0.0116667	0.00363863	0.00560045	9.45078E-05	0.000485202	0	0	0	
0.0118333	-0.000690381	0.0213631	7.35192E-05	0.000633067	0	0	0	
0.012	-0.00757272	-0.0370157	8.45772E-05	0.000728015	0	0	0	
0.0121667	0.0116073	0.0290558	0.000114697	0.000694064	0	0	0	
0.0123333	-0.00644317	-0.0051176	0.000154734	0.000690698	0	0	0	
0.0125	-0.000962528	-0.0249966	0.000142441	0.000818657	0	0	0	
0.0126667	0.000471502	0.0338564	9.08499E-05	0.000856897	0	0	0	
0.0128333	-0.00809766	-0.0190488	5.92424E-05	0.000723605	0	0	0	
0.013	0.0131212	-0.000550873	0.000122646	0.000484845	0	0	0	
0.0131667	-0.0149174	-0.00131432	0.000205786	0.000310034	0	0	0	
0.0133333	0.00693417	0.0186006	0.00025152	0.000355632	0	0	0	
0.0135	-0.0102212	-0.0336971	0.000243522	0.00046814	0	0	0	
0.0136667	0.0126337	0.030473	0.000221138	0.000600714	0	0	0	
0.0138333	-0.00438562	-0.0150519	0.000227159	0.000564422	0	0	0	
0.014	-0.0105277	-0.00387416	0.000258683	0.000519256	0	0	0	
0.0141667	0.0103807	0.0199972	0.000227523	0.000446111	0	0	0	
0.0143333	-0.00854697	-0.0242209	0.000236773	0.000415385	0	0	0	
0.0145	0.00244682	0.0195989	0.00018525	0.000392369	0	0	0	
0.0146667	-0.00237306	-0.00661001	0.000210588	0.000490289	0	0	0	
0.0148333	-0.0102456	-0.0200283	0.000199733	0.000640012	0	0	0	
0.015	0.0167537	0.0298418	0.000233069	0.000669935	0	0	0	
0.0151667	-0.0136175	-0.0106233	0.000273275	0.000599005	0	0	0	
0.0153333	0.0111279	0.00641543	0.000265104	0.000396811	0	0	0	
0.0155	-0.00576612	-0.0239304	0.000256536	0.00030919	0	0	0	
0.0156667	-0.0068105	0.0158636	0.000241146	0.000343266	0	0	0	
0.0158333	0.00903891	0.00888516	0.000233395	0.000489802	0	0	0	
0.016	-0.00815871	-0.00576398	0.000209156	0.000423446	0	0	0	
0.0161667	0.00533083	-0.0278636	0.000191602	0.000426575	0	0	0	
0.0163333	-0.00574202	0.0274615	0.000229211	0.000376644	0	0	0	
0.0165	-0.00227028	-0.0125222	0.000273494	0.000517194	0	0	0	
0.0166667	0.00860877	0.0172503	0.000227736	0.000451474	0	0	0	
0.0168333	-0.000553145	-0.0253649	0.000198145	0.000393858	0	0	0	
0.017	-0.00585711	0.00329687	0.000147004	0.000393137	0	0	0	
0.0171667	0.00483258	0.0205382	0.00015641	0.000452095	0	0	0	
0.0173333	-0.00756	-0.0102382	0.000132474	0.000431084	0	0	0	
0.0175	0.00545012	-0.00678589	0.00015652	0.000423246	0	0	0	
0.0176667	0.00207397	-0.00827709	0.000144664	0.000286509	0	0	0	
0.0178333	0.00101562	0.0135009	0.000112085	0.0002631	0	0	0	
0.018	-0.00444454	0.011929	7.16368E-05	0.000303055	0	0	0	
0.0181667	0.00963529	-0.0320373	9.39993E-05	0.000396253	0	0	0	
0.0183333	-0.00231127	0.0129971	0.000124035	0.00055686	0	0	0	
0.0185	-7.15568E-05	0.0159369	0.000109256	0.000683074	0	0	0	
0.0186667	0.00201884	-0.0278724	7.48926E-05	0.000793451	0	0	0	
0.0188333	0.00496625	0.0279977	4.18861E-05	0.000739206	0	0	0	
0.019	-0.00512363	-0.0209408	6.6614E-05	0.000569876	0	0	0	
0.0191667	0.00644256	-0.00815159	9.95179E-05	0.000497382	0	0	0	
0.0193333	0.00265572	0.0216958	0.000127866	0.000465634	0	0	0	
0.0195	-0.00284193	-0.0165229	0.000127162	0.000418176	0	0	0	
0.0196667	0.00383843	0.012395	0.000101439	0.000397072	0	0	0	
0.0198333	0.00367955	-0.00749755	9.96854E-05	0.000380613	0	0	0	
0.02	-0.00580865	-0.00218999	0.000112669	0.000404516	0	0	0	
0.0201667	0.00806023	0.00641742	0.000127733	0.000362156	0	0	0	
0.0203333	-0.00412077	-0.00758927	0.000132073	0.000281278	0	0	0	
0.0205	0.0115183	0.00845561	0.000126739	0.000214602	0	0	0	
0.0206667	-0.00833016	-0.0126258	0.000148707	0.000166222	0	0	0	
0.0208333	-0.00252731	0.00440361	0.000231798	0.000258637	0	0	0	
0.021	0.00813146	0.00544486	0.000292093	0.000425369	0	0	0	
0.0211667	0.0126513	-0.00825855	0.000278127	0.000542441	0	0	0	
0.0213333	-0.0210937	0.00798859	0.000258832	0.000541429	0	0	0	
0.0215	0.017352	-0.0162365	0.000293438	0.000470543	0	0	0	
0.0216667	-0.00916801	0.00468963	0.000342519	0.000374709	0	0	0	
0.0218333	0.0128514	0.0185983	0.000307564	0.000317746	0	0	0	
0.022	-0.00521388	-0.021586	0.000267569	0.000310355	0	0	0	
0.0221667	-0.00485371	-0.00828315	0.000270238	0.00048053	0	0	0	
0.0223333	0.00681432	0.00237309	0.000246051	0.000443414	0	0	0	
0.0225	0.00646918	0.0297241	0.000272907	0.000446698	0	0	0	
0.0226667	-0.00883994	-0.0294763	0.000286659	0.000393409	0	0	0	
0.0228333	0.0133388	-0.00904789	0.000294824	0.000591626	0	0	0	
0.023	-0.0127561	0.00390895	0.00025694	0.00047878	0	0	0	
0.0231667	0.00669751	0.0183441	0.000226774	0.000415006	0	0	0	
0.0233333	0.00318775	-0.010404	0.000248463	0.000282931	0	0	0	
0.0235	-0.00247646	-0.0157687	0.000215905	0.000406448	0	0	0	
0.0236667	-0.005307	-0.000323316	0.000172323	0.000396849	0	0	0	
0.0238333	0.0106034	0.0250885	0.000162379	0.000507569	0	0	0	
0.024	-0.00084286	-0.0189758	0.000153184	0.000469165	0	0	0	
0.0241667	-0.0068795	-0.0131833	0.000142696	0.000591645	0	0	0	
0.0243333	0.00447486	0.0162805	0.000120536	0.000509269	0	0	0	
0.0245	0.00236766	-0.0139917	0.000101201	0.000467989	0	0	0	
0.0246667	-0.00312717	0.0193391	0.000119327	0.000334694	0	0	0	
0.0248333	0.00437708	-0.019693	9.8675E-05	0.000308235	0	0	0	
0.025	-0.00242195	-0.00746656	0.000109231	0.000428009	0	0	0	
0.0251667	-0.000167452	0.0295097	9.3827E-05	0.000524186	0	0	0	
0.0253333	-0.00230925	-0.0262892	8.46562E-05	0.000562081	0	0	0	
0.0255	0.00216324	-0.00264163	7.76169E-05	0.000570734	0	0	0	
0.0256667	-0.00101239	0.0119302	7.93011E-05	0.000586286	0	0	0	
0.0258333	0.00186779	-0.0140763	6.97709E-05	0.000564049	0	0	0	
0.026	-0.0034363	0.0106906	6.51137E-05	0.000425716	0	0	0	
0.0261667	-0.00548317	-0.0109975	8.02286E-05	0.000274465	0	0	0	
0.0263333	0.00780062	0.00416727	0.000120954	0.000196037	0	0	0	
0.0265	-0.00357977	0.0017696	0.000152649	0.000161477	0	0	0	
0.0266667	-0.00870027	-0.0101272	0.000196144	0.000132871	0	0	0	
0.0268333	0.0103165	0.000408551	0.000193864	0.000125138	0	0	0	
0.027	-0.00793143	-0.00627663	0.000209096	0.000114143	0	0	0	
0.0271667	-0.00123468	0.0114937	0.00018422	0.000140073	0	0	0	
0.0273333	-0.00295926	-0.0115743	0.00019362	0.000191627	0	0	0	
0.0275	0.00341697	-0.00545302	0.000142963	0.000318611	0	0	0	
0.0276667	-0.0166308	0.00799322	0.000149984	0.000345033	0	0	0	
0.0278333	0.0170689	-0.00582756	0.000220496	0.000283093	0	0	0	
0.028	-0.0142921	0.00243354	0.000291069	0.000154305	0	0	0	
0.0281667	0.0151052	-0.00845617	0.000314386	9.93152E-05	0	0	0	
0.0283333	-0.0188099	-0.00436053	0.000315145	0.000124589	0	0	0	
0.0285	0.00429151	0.00643538	0.000388653	0.000148177	0	0	0	
0.0286667	0.00205955	-0.00102542	0.00040326	0.000148591	0	0	0	
0.0288333	-0.00386518	-0.00253854	0.000316514	0.00012061	0	0	0	
0.029	-0.00462633	0.00176595	0.000208621	0.000106896	0	0	0	
0.0291667	-0.00197957	-0.0152482	0.000126759	0.000171064	0	0	0	
0.0293333	9.8304E-05	0.0198202	0.000109319	0.000255526	0	0	0	
0.0295	0.0168185	-0.00227994	0.000125371	0.000327867	0	0	0	
0.0296667	-0.0188672	-0.0142219	0.000235761	0.00029843	0	0	0	
0.0298333	0.0117194	0.00113289	0.000310526	0.000321557	0	0	0	
0.03	-0.00636892	0.0123383	0.000288475	0.000362246	0	0	0	
0.0301667	0.00969727	0.00166774	0.000222696	0.000340849	0	0	0	
0.0303333	-0.0073034	-0.0184778	0.000160482	0.000269634	0	0	0	
0.0305	0.00677784	0.00169195	0.000194253	0.00024576	0	0	0	
0.0306667	0.00568691	0.0146295	0.000158953	0.000306037	0	0	0	
0.0308333	-0.00681022	-0.00163593	0.000169774	0.000352955	0	0	0	
0.031	0.00686602	-0.0193797	0.000145344	0.000342696	0	0	0	
0.0311667	0.000201524	-0.00295274	0.000131671	0.000329065	0	0	0	
0.0313333	-0.00240633	0.0227794	0.000115028	0.000293683	0	0	0	
0.0315	0.00863348	-0.000291449	9.92969E-05	0.000415666	0	0	0	
0.0316667	0.00424718	-0.0293193	0.000108315	0.000610622	0	0	0	
0.0318333	-0.00507329	0.0174971	0.000117923	0.000644348	0	0	0	
0.032	0.000640895	0.00121062	0.000108644	0.000594615	0	0	0	
0.0321667	0.00364156	-0.00999448	0.000122001	0.000383661	0	0	0	
0.0323333	0.00298847	0.0126927	0.000107679	0.0003453	0	0	0	
0.0325	-0.00345325	-0.0251858	8.73412E-05	0.000290379	0	0	0	
0.0326667	0.00259203	0.0303097	8.69635E-05	0.000373382	0	0	0	
0.0328333	0.0019051	-0.0093846	7.97582E-05	0.000555057	0	0	0	
0.033	0.000557648	-0.0210228	9.76176E-05	0.000716191	0	0	0	
0.0331667	0.00239764	0.0212132	8.76828E-05	0.000712341	0	0	0	
0.0333333	-0.00454237	-0.00048115	0.000106434	0.0005587	0	0	0	
0.0335	0.00791536	-0.0182105	0.000107639	0.00038242	0	0	0	
0.0336667	0.00058165	0.0158276	0.000140193	0.000309131	0	0	0	
0.0338333	-0.00735913	-0.0150792	0.000169599	0.000322161	0	0	0	
0.034	0.00599246	0.0127551	0.000167054	0.000300612	0	0	0	
0.0341667	0.0039015	-0.00625334	0.00016933	0.000318836	0	0	0	
0.0343333	-0.00330761	-0.00985556	0.000158647	0.00029876	0	0	0	
0.0345	0.00426018	0.00469512	0.000152727	0.00024255	0	0	0	
0.0346667	-0.000510839	0.0103914	0.000108872	0.000268504	0	0	0	
0.0348333	0.00323118	-0.0207094	9.28395E-05	0.000280897	0	0	0	
0.035	-0.00689573	0.0107005	9.58819E-05	0.000340968	0	0	0	
0.0351667	0.00345797	0.000731059	0.000138593	0.000299313	0	0	0	
0.0353333	0.0085872	0.00543979	0.000158243	0.000216703	0	0	0	
0.0355	-0.0038456	-0.023605	0.000161186	0.000232106	0	0	0	
0.0356667	0.00745404	0.0137228	0.000143001	0.000272595	0	0	0	
0.0358333	-0.00959727	-0.0105475	0.000154424	0.0003155	0	0	0	
0.036	0.0123422	0.0144261	0.000182222	0.000276067	0	0	0	
0.0361667	-0.0021401	-0.0213603	0.000294804	0.000270459	0	0	0	
0.0363333	-0.00626836	0.000679029	0.00043514	0.00041761	0	0	0	
0.0365	0.0119429	0.0234884	0.000515916	0.000543994	0	0	0	
0.0366667	-0.0100011	-0.0279223	0.00042094	0.000585054	0	0	0	
0.0368333	0.00910301	-0.00482625	0.000281103	0.000523283	0	0	0	
0.037	-0.00214057	0.0174725	0.000195462	0.000421228	0	0	0	
0.0371667	-0.00983262	-0.0289122	0.000163909	0.000400543	0	0	0	
0.0373333	0.0218698	0.0321603	0.000209639	0.000429202	0	0	0	
0.0375	-0.0313695	-0.0293963	0.000303476	0.0005674	0	0	0	
0.0376667	0.00934645	-0.00107606	0.000443492	0.000684561	0	0	0	
0.0378333	0.003337	0.00931977	0.000369885	0.000666165	0	0	0	
0.038	0.004939	0.0012401	0.000278357	0.000487279	0	0	0	
0.0381667	-0.00536013	-0.0227224	0.00016697	0.000388321	0	0	0	
0.0383333	0.0033256	0.0283885	0.000165148	0.000407359	0	0	0	
0.0385	-0.00893554	-0.0269385	0.000142614	0.000511654	0	0	0	
0.0386667	-0.00425137	0.0161818	0.000160452	0.00049107	0	0	0	
0.0388333	0.00899696	-0.00928223	0.000210515	0.000444293	0	0	0	
0.039	0.000961863	0.00428713	0.000232947	0.000361847	0	0	0	
0.0391667	0.00401478	-0.0119096	0.000180534	0.000278681	0	0	0	
0.0393333	-0.00437279	0.011944	0.000111092	0.000217722	0	0	0	
0.0395	0.00289405	-0.00610758	9.54407E-05	0.000221626	0	0	0	
0.0396667	0.000754909	0.000957885	9.76047E-05	0.000225651	0	0	0	
0.0398333	0.0053274	-0.00158527	0.000112073	0.000168816	0	0	0	
0.04	-0.0119388	0.00403636	0.000138937	0.000109047	0	0	0	
0.0401667	0.00903291	-0.00257051	0.000184616	9.19981E-05	0	0	0	
0.0403333	0.00386309	0.00489474	0.000178234	0.000177052	0	0	0	
0.0405	-0.00931341	-0.0205254	0.000158615	0.000262596	0	0	0	
0.0406667	0.00455427	0.0140751	0.000130716	0.000325575	0	0	0	
0.0408333	-0.00201971	0.000699791	0.0001452	0.000284431	0	0	0	
0.041	-0.00190402	0.00332476	0.000162027	0.000198321	0	0	0	
0.0411667	0.00752361	-0.0142784	0.000197807	0.000189548	0	0	0	
0.0413333	-0.0101697	0.00645523	0.000206016	0.000189388	0	0	0	
0.0415	0.00749894	-0.00590003	0.000194795	0.000211498	0	0	0	
0.0416667	-5.06365E-05	0.00939404	0.000183764	0.000196927	0	0	0	
0.0418333	-0.00447463	-0.0179399	0.000204481	0.000202653	0	0	0	
0.042	0.014645	0.0050188	0.00021538	0.000286043	0	0	0	
0.0421667	-0.0062314	0.00872177	0.000211764	0.000288036	0	0	0	
0.0423333	-0.00579131	0.00243848	0.000266657	0.000285571	0	0	0	
0.0425	0.0175373	-0.0106626	0.000331389	0.000190308	0	0	0	
0.0426667	-0.0179891	-0.0104146	0.000415698	0.000200414	0	0	0	
0.0428333	0.0181612	0.00806992	0.000403208	0.000213376	0	0	0	
0.043	-0.0170601	0.0206935	0.00037224	0.000437646	0	0	0	
0.0431667	0.0187581	-0.0299184	0.000359167	0.000528711	0	0	0	
0.0433333	0.00437304	0.00761286	0.000392045	0.000567831	0	0	0	
0.0435	-0.0195645	-0.00952917	0.000395124	0.000400947	0	0	0	
0.0436667	0.0175819	0.0366387	0.000375896	0.000456148	0	0	0	
0.0438333	-0.0114111	-0.0387064	0.000385131	0.000554251	0	0	0	
0.044	0.00260631	-0.00276341	0.000368361	0.000739399	0	0	0	
0.0441667	0.00406745	0.0289764	0.000346212	0.000711292	0	0	0	
0.0443333	-0.00989655	-0.0207488	0.000319736	0.000653825	0	0	0	
0.0445	0.0115209	-0.000395478	0.000303409	0.000539994	0	0	0	
0.0446667	-0.00683107	-0.00965671	0.000282373	0.000405487	0	0	0	
0.0448333	0.00484545	0.00548764	0.000236672	0.000376083	0	0	0	
0.045	-0.00335396	0.0170315	0.000210686	0.000479489	0	0	0	
0.0451667	0.00167925	-0.0312622	0.000153514	0.000591839	0	0	0	
0.0453333	0.00191854	0.0113938	7.45663E-05	0.000594739	0	0	0	
0.0455	-0.00313465	0.00368728	5.45398E-05	0.000436861	0	0	0	
0.0456667	-0.00179312	0.00197816	4.55988E-05	0.000289438	0	0	0	
0.0458333	0.00154691	-0.0153943	5.47354E-05	0.000230868	0	0	0	
0.046	0.00232577	0.00634114	4.08033E-05	0.000199457	0	0	0	
0.0461667	0.00170933	0.0057868	5.14117E-05	0.000293858	0	0	0	
0.0463333	0.000303347	-0.0151812	3.90895E-05	0.000317099	0	0	0	
0.0465	-0.00435747	0.0155329	6.83994E-05	0.000326632	0	0	0	
0.0466667	0.00218333	-0.0108774	6.58453E-05	0.00027469	0	0	0	
0.0468333	0.00192194	0.000787379	8.0465E-05	0.000269574	0	0	0	
0.047	-0.000371109	0.00606461	4.97807E-05	0.000260943	0	0	0	
0.0471667	-0.00190807	-0.00918447	3.34412E-05	0.000229086	0	0	0	
0.0473333	-0.000791433	0.00582729	3.82222E-05	0.000190136	0	0	0	
0.0475	0.00595524	-0.0109858	5.50243E-05	0.000169225	0	0	0	
0.0476667	-0.00629626	0.0126615	0.000104086	0.000184162	0	0	0	
0.0478333	0.00429185	-0.00875707	0.000113432	0.000230121	0	0	0	
0.048	-0.00758412	0.00483018	0.000125589	0.000224606	0	0	0	
0.0481667	0.00434532	-0.00715396	0.00011178	0.00019236	0	0	0	
0.0483333	-9.08574E-05	0.00391533	9.22045E-05	0.000147855	0	0	0	
0.0485	0.00431112	0.0049035	7.31211E-05	0.000130255	0	0	0	
0.0486667	-0.00482865	0.00245788	5.25601E-05	0.000162637	0	0	0	
0.0488333	-0.00348323	-0.0145399	6.63677E-05	0.000214019	0	0	0	
0.049	0.00198659	0.00488873	7.84487E-05	0.000242407	0	0	0	
0.0491667	0.00418052	-0.00076604	0.000164945	0.000191453	0	0	0	
0.0493333	-0.00678563	0.0160961	0.000196049	0.000192848	0	0	0	
0.0495	0.00145751	-0.0186573	0.000189351	0.000248963	0	0	0	
0.0496667	-0.0103184	0.00179469	0.000123772	0.000337377	0	0	0	
0.0498333	0.0194078	0.00922252	0.00016716	0.00030443	0	0	0	
0.05	-0.0123915	0.00368819	0.000305516	0.000256314	0	0	0	
0.0501667	-0.0136261	-0.0106167	0.000537466	0.000192924	0	0	0	
0.0503333	0.0273366	-0.00261505	0.000636849	0.000191697	0	0	0	
0.0505	-0.0257999	-0.00173006	0.000620676	0.000157342	0	0	0	
0.0506667	0.0178482	0.0288737	0.000503097	0.000211801	0	0	0	
0.0508333	-0.00138578	-0.0190674	0.000412019	0.00032887	0	0	0	
0.051	-0.0160566	-0.0153992	0.000349664	0.000582647	0	0	0	
0.0511667	0.0389529	0.0155859	0.000429867	0.000557952	0	0	0	
0.0513333	-0.0310155	0.0257815	0.00050725	0.000644753	0	0	0	
0.0515	0.00761646	-0.0406918	0.000623182	0.000574599	0	0	0	
0.0516667	0.0151355	0.0156293	0.000592549	0.00071582	0	0	0	
0.0518333	-0.00463276	-0.0075701	0.000471885	0.000563625	0	0	0	
0.052	-0.00529459	0.026728	0.000347499	0.00045012	0	0	0	
0.0521667	0.0136324	-0.0182275	0.000237718	0.00039686	0	0	0	
0.0523333	-0.000943973	-0.0193834	0.00022386	0.000568515	0	0	0	
0.0525	0.00269767	0.0259819	0.000165505	0.000586322	0	0	0	
0.0526667	0.000528026	0.00812019	0.000106488	0.00063583	0	0	0	
0.0528333	-0.00899988	-0.0208955	9.22943E-05	0.000448956	0	0	0	
0.053	0.0104555	-0.0010265	0.00014921	0.00041827	0	0	0	
0.0531667	-0.0013294	-0.00283415	0.000161523	0.00023945	0	0	0	
0.0533333	-0.000239081	0.0279109	0.000137373	0.00029241	0	0	0	
0.0535	0.00125036	-0.0277203	7.37317E-05	0.000369725	0	0	0	
0.0536667	0.000839529	0.00309014	5.2286E-05	0.000527591	0	0	0	
0.0538333	-0.00103782	0.0060804	6.20118E-05	0.00045628	0	0	0	
0.054	0.0031666	0.00168595	7.69507E-05	0.000314852	0	0	0	
0.0541667	0.00116921	0.00201837	6.19962E-05	0.000185404	0	0	0	
0.0543333	-0.00538296	-0.00918674	6.40693E-05	0.000140812	0	0	0	
0.0545	0.00770603	-0.004974	8.19535E-05	0.000183415	0	0	0	
0.0546667	0.000137537	0.0111844	0.000156542	0.0001585	0	0	0	
0.0548333	-0.00511564	0.00603454	0.000228254	0.000234025	0	0	0	
0.055	0.00626613	-0.0133815	0.000214251	0.000244471	0	0	0	
0.0551667	-0.00142708	-0.00349679	0.000179895	0.000309477	0	0	0	
0.0553333	-0.000194736	0.0124088	0.000114595	0.000272263	0	0	0	
0.0555	0.00297012	-0.00500705	0.000106014	0.000261838	0	0	0	
0.0556667	-0.00927	-0.00213131	0.000104533	0.000194032	0	0	0	
0.0558333	0.0115916	-0.00733965	0.000145757	0.000154555	0	0	0	
0.056	0.000119837	0.00392397	0.000193247	0.00010807	0	0	0	
0.0561667	-0.010044	0.00550269	0.000216525	0.000129978	0	0	0	
0.0563333	0.00267056	-0.00367741	0.000182505	0.000118766	0	0	0	
0.0565	0.00774995	-0.0082953	0.000153345	0.000144037	0	0	0	
0.0566667	-0.00718456	0.00408481	0.00012674	0.000125494	0	0	0	
0.0568333	-0.00123062	0.00758918	0.000129868	0.000180966	0	0	0	
0.057	-0.00100205	-0.0102236	0.000155082	0.000192475	0	0	0	
0.0571667	-0.00484491	-0.00180101	0.000214352	0.000235768	0	0	0	
0.0573333	0.0180536	0.00966246	0.000274815	0.000251169	0	0	0	
0.0575	-0.0108814	-0.0187152	0.000312925	0.000327483	0	0	0	
0.0576667	-0.00727024	0.0174555	0.000248467	0.000380916	0	0	0	
0.0578333	0.00801157	-0.00647876	0.000204134	0.000351214	0	0	0	
0.058	-0.0151255	-0.0110042	0.000220609	0.000255493	0	0	0	
0.0581667	0.0120321	0.00937747	0.000298324	0.000220082	0	0	0	
0.0583333	0.000100423	0.00371802	0.000272293	0.000333474	0	0	0	
0.0585	-0.00139493	-0.00635926	0.000243097	0.000398149	0	0	0	
0.0586667	0.000219223	-0.00884426	0.00018887	0.000343202	0	0	0	
0.0588333	0.00693168	0.0138377	0.000215614	0.000230595	0	0	0	
0.059	-0.0167294	-0.0190824	0.000230704	0.000228832	0	0	0	
0.0591667	0.0135017	0.0240809	0.000241762	0.000315616	0	0	0	
0.0593333	0.0039377	-0.0140352	0.000244822	0.000372008	0	0	0	
0.0595	0.000136857	-0.00853863	0.000203646	0.000438904	0	0	0	
0.0596667	-0.00082627	0.022478	0.00016177	0.000407101	0	0	0	
0.0598333	-9.27356E-05	-0.00954489	0.000135697	0.000405206	0	0	0	
0.06	0.00575473	-0.00961747	0.000116943	0.000368524	0	0	0	
0.0601667	-0.00110094	0.0136611	0.00010479	0.000332638	0	0	0	
0.0603333	-0.0016949	0.00208296	0.000131685	0.000257812	0	0	0	
0.0605	0.00601857	-0.00968308	0.000150313	0.000212326	0	0	0	
0.0606667	0.00263376	0.02092	0.000168986	0.000249774	0	0	0	
0.0608333	-0.00319556	-0.0168064	0.000134235	0.000315381	0	0	0	
0.061	0.00235109	0.00300417	0.000104786	0.000329185	0	0	0	
0.0611667	0.00277879	0.0073279	8.00173E-05	0.00034126	0	0	0	
0.0613333	-0.000419109	-0.00491193	6.67272E-05	0.000276779	0	0	0	
0.0615	-0.00719524	0.00447886	6.0139E-05	0.000231047	0	0	0	
0.0616667	0.00556308	0.00353317	8.26698E-05	0.000221087	0	0	0	
0.0618333	-0.00201151	-0.00734489	9.41951E-05	0.000278694	0	0	0	
0.062	0.000948998	0.0102285	7.85192E-05	0.000312129	0	0	0	
0.0621667	0.00195931	-0.0132475	5.45135E-05	0.000280363	0	0	0	
0.0623333	-0.00105689	0.00542935	3.28876E-05	0.000225766	0	0	0	
0.0625	-0.00225487	0.0016886	3.43108E-05	0.000177212	0	0	0	
0.0626667	0.00122795	-0.00224529	3.57538E-05	0.000118769	0	0	0	
0.0628333	-0.000733248	1.74911E-05	6.42994E-05	8.24757E-05	0	0	0	
0.063	-0.00737961	-0.00252726	8.81539E-05	5.73269E-05	0	0	0	
0.0631667	0.00450966	0.00116426	0.00010815	6.02474E-05	0	0	0	
0.0633333	0.00829776	0.00256338	0.000142277	0.000102715	0	0	0	
0.0635	-0.0114458	-0.00568122	0.00016696	0.000154432	0	0	0	
0.0636667	-0.00100307	0.00496135	0.00024205	0.000165856	0	0	0	
0.0638333	0.00782494	0.00146815	0.000216436	0.00012215	0	0	0	
0.064	-0.00138119	-0.00126131	0.000206334	6.48301E-05	0	0	0	
0.0641667	0.000235617	-0.00383582	0.000121689	6.20137E-05	0	0	0	
0.0643333	0.00198542	0.00184547	8.51005E-05	5.39041E-05	0	0	0	
0.0645	-0.00804843	0.0105732	6.70814E-05	7.2627E-05	0	0	0	
0.0646667	0.0065173	-0.000349139	9.51588E-05	8.57728E-05	0	0	0	
0.0648333	0.0199974	-0.0084314	0.000155501	0.000130987	0	0	0	
0.065	-0.0171051	0.00966514	0.00029066	0.000132123	0	0	0	
0.0651667	0.00818907	-0.00307525	0.000328622	0.000153928	0	0	0	
0.0653333	0.000276253	0.00148893	0.000293634	0.000113982	0	0	0	
0.0655	-0.00665155	-0.00311612	0.000179585	0.000106514	0	0	0	
0.0656667	0.0132326	0.00344392	0.000176699	0.000104171	0	0	0	
0.0658333	0.00144892	0.00572006	0.000186666	0.000121034	0	0	0	
0.066	-0.00356141	0.00546034	0.000269695	0.000181627	0	0	0	
0.0661667	0.00194557	-0.0162184	0.000251751	0.000236245	0	0	0	
0.0663333	0.00559456	0.00669609	0.000244124	0.000260505	0	0	0	
0.0665	-0.0072745	0.00537839	0.000151394	0.000249175	0	0	0	
0.0666667	0.00497774	0.00115036	0.000121362	0.000200592	0	0	0	
0.0668333	0.00069679	-0.01146	0.000121898	0.000263057	0	0	0	
0.067	-0.0115898	0.0105264	0.000137991	0.000276037	0	0	0	
0.0671667	0.0236424	-0.00642912	0.000222783	0.000322958	0	0	0	
0.0673333	-0.0265807	0.0198499	0.000335363	0.000348594	0	0	0	
0.0675	0.0152264	-0.0159505	0.000462393	0.000388719	0	0	0	
0.0676667	-0.00257128	-0.00798439	0.000561579	0.000324009	0	0	0	
0.0678333	0.00152516	0.00840304	0.000625452	0.000286197	0	0	0	
0.068	0.0040121	0.00307877	0.00064298	0.000381548	0	0	0	
0.0681667	-0.0200445	-0.0068053	0.000565205	0.000515038	0	0	0	
0.0683333	0.0103423	0.0117545	0.000435845	0.000531815	0	0	0	
0.0685	0.00666855	-0.00933589	0.000391641	0.000417364	0	0	0	
0.0686667	-0.0163772	-0.00620344	0.000375873	0.000268077	0	0	0	
0.0688333	0.0145595	0.0192842	0.000434465	0.000205807	0	0	0	
0.069	-0.0261605	-0.0179054	0.000441427	0.00026084	0	0	0	
0.0691667	0.0321662	0.00479406	0.000509706	0.000410154	0	0	0	
0.0693333	-0.0292088	-0.0041825	0.000564603	0.000464619	0	0	0	
0.0695	0.00679998	0.00241763	0.000608973	0.000450077	0	0	0	
0.0696667	0.00403645	0.0169466	0.000576841	0.000473098	0	0	0	
0.0698333	-0.0134941	-0.0170266	0.000488043	0.000485682	0	0	0	
0.07	0.0152917	-0.0025827	0.000387762	0.000419859	0	0	0	
0.0701667	-0.0132377	0.00953148	0.000299723	0.000258561	0	0	0	
0.0703333	0.00296244	0.00332755	0.000273443	0.000211465	0	0	0	
0.0705	-0.000371995	-0.00401163	0.000226681	0.000169096	0	0	0	
0.0706667	-0.00155354	-0.0105999	0.000192444	0.000184204	0	0	0	
0.0708333	0.00365272	0.0106239	0.00016609	0.000177263	0	0	0	
0.071	-0.00953922	0.0140081	0.000144185	0.000338078	0	0	0	
0.0711667	0.00370054	-0.0204968	0.000143561	0.000423583	0	0	0	
0.0713333	0.00289772	0.00520131	0.000125361	0.00042997	0	0	0	
0.0715	-0.0037191	0.00320919	0.000103863	0.000253954	0	0	0	
0.0716667	-0.00378836	0.0165534	0.000104056	0.000235323	0	0	0	
0.0718333	0.00173604	-0.0208829	9.50483E-05	0.000261466	0	0	0	
0.072	-0.00314762	-0.000131741	8.80022E-05	0.000399579	0	0	0	
0.0721667	0.00344158	0.0135866	8.23307E-05	0.00040006	0	0	0	
0.0723333	-0.00631009	-0.00347857	7.24199E-05	0.000341505	0	0	0	
0.0725	-0.00302987	-0.000871592	9.15789E-05	0.00022396	0	0	0	
0.0726667	0.00390841	-0.00290932	9.47418E-05	0.000112003	0	0	0	
0.0728333	-0.00103459	-2.04471E-05	0.000100236	0.000137109	0	0	0	
0.073	-0.00358239	0.0249241	0.000108466	0.000269351	0	0	0	
0.0731667	0.00440936	-0.0353727	0.000100758	0.000451615	0	0	0	
0.0733333	-0.0030481	0.0235928	9.24242E-05	0.000562368	0	0	0	
0.0735	-0.000192416	-0.00892589	7.14911E-05	0.000540079	0	0	0	
0.0736667	-0.00125395	0.00671688	4.69963E-05	0.000446192	0	0	0	
0.0738333	0.000173248	0.00271294	3.67882E-05	0.000351657	0	0	0	
0.074	0.00141564	-0.0113483	3.12381E-05	0.000275031	0	0	0	
0.0741667	0.000544529	0.00717134	7.19417E-05	0.000260229	0	0	0	
0.0743333	-0.00760165	0.0137583	0.000130158	0.000370451	0	0	0	
0.0745	0.00938644	-0.0259305	0.000156739	0.000458902	0	0	0	
0.0746667	-0.0080505	0.0216321	0.000178968	0.000504382	0	0	0	
0.0748333	0.000106669	-0.0247383	0.000186958	0.000449047	0	0	0	
0.075	0.00959502	0.0215484	0.000207469	0.00047892	0	0	0	
0.0751667	-0.0112985	-0.00150089	0.000192312	0.000428245	0	0	0	
0.0753333	-0.000983731	-0.011372	0.000180096	0.000346812	0	0	0	
0.0755	0.00839723	0.00552269	0.000173001	0.000199639	0	0	0	
0.0756667	-0.0080902	0.00717891	0.000179625	0.000187962	0	0	0	
0.0758333	0.0019865	-0.0101753	0.000147762	0.00018675	0	0	0	
0.076	-0.00287878	-0.013126	0.000125123	0.000251974	0	0	0	
0.0761667	0.00506417	0.0167035	8.88773E-05	0.000418652	0	0	0	
0.0763333	-0.00134278	0.0137216	9.14107E-05	0.000478668	0	0	0	
0.0765	0.00157424	-0.00757502	7.1317E-05	0.000426363	0	0	0	
0.0766667	-0.00404306	0.0073333	9.73326E-05	0.000254442	0	0	0	
0.0768333	0.00257438	-0.00446877	9.14466E-05	0.00019029	0	0	0	
0.077	0.00602678	-0.000974453	0.000105922	0.000161651	0	0	0	
0.0771667	-0.00837677	0.00736201	9.87892E-05	0.000243528	0	0	0	
0.0773333	-0.0015945	-0.00200892	0.000157157	0.000298676	0	0	0	
0.0775	0.0112491	0.00489636	0.000203414	0.000305257	0	0	0	
0.0776667	-0.00464065	0.00839362	0.000207266	0.000197451	0	0	0	
0.0778333	-0.00438158	0.00490015	0.000211606	0.000134979	0	0	0	
0.078	0.00804987	-0.0143712	0.000180753	0.000171118	0	0	0	
0.0781667	-0.00128755	0.0139767	0.000164435	0.000242932	0	0	0	
0.0783333	0.0010199	0.0084023	9.15794E-05	0.000360219	0	0	0	
0.0785	0.0015769	-0.0288604	5.77516E-05	0.000453799	0	0	0	
0.0786667	-0.00345605	-0.000311635	5.34919E-05	0.000454892	0	0	0	
0.0788333	0.00525558	0.00145949	6.34782E-05	0.000334984	0	0	0	
0.079	-0.00451629	-0.00481394	9.37489E-05	0.000189309	0	0	0	
0.0791667	0.00466662	0.00607172	9.18164E-05	0.000127287	0	0	0	
0.0793333	0.000797943	0.00059507	8.28594E-05	0.000127375	0	0	0	
0.0795	0.00118939	0.00759636	5.62294E-05	0.000128578	0	0	0	
0.0796667	-0.00716661	-0.0237612	7.88287E-05	0.000233043	0	0	0	
0.0798333	0.00487047	-0.00829976	9.27039E-05	0.0002562	0	0	0	
0.08	-0.000348931	0.00909966	0.000130246	0.000299899	0	0	0	
0.0801667	-0.00656034	0.00080832	0.000124196	0.00018218	0	0	0	
0.0803333	0.0089131	0.00476031	0.000144967	0.000137682	0	0	0	
0.0805	-0.00434176	-0.00295751	0.000130744	9.2665E-05	0	0	0	
0.0806667	0.000892952	0.00387325	0.000132933	0.000111125	0	0	0	
0.0808333	0.00442299	0.00250695	0.000157911	0.000104399	0	0	0	
0.081	-0.0103301	0.00567483	0.000162236	0.000155074	0	0	0	
0.0811667	0.00488089	-0.013329	0.000175355	0.000218604	0	0	0	
0.0813333	0.00313164	0.0201045	0.000178713	0.000299903	0	0	0	
0.0815	-0.00351079	-0.0116439	0.000184688	0.000322612	0	0	0	
0.0816667	0.00259423	0.00932401	0.000140086	0.000281336	0	0	0	
0.0818333	-0.00142341	0.00684393	8.84034E-05	0.000244361	0	0	0	
0.082	-0.00185629	-0.0118768	7.75279E-05	0.000204333	0	0	0	
0.0821667	0.00753504	0.0062298	0.000109684	0.000226454	0	0	0	
0.0823333	-0.00807253	0.00741771	0.000140228	0.000279272	0	0	0	
0.0825	0.00855555	-0.00141892	0.000160142	0.000271075	0	0	0	
0.0826667	0.00188126	-0.00327352	0.000181789	0.000213963	0	0	0	
0.0828333	-0.0061705	0.0131551	0.00017045	0.000141191	0	0	0	
0.083	-0.00105628	-0.00526617	0.000159082	0.000152541	0	0	0	
0.0831667	0.00772577	-0.00171527	0.000138991	0.000173518	0	0	0	
0.0833333	0.000912932	0.0102067	0.000129234	0.000166143	0	0	0	
0.0835	-0.00346947	-0.00925887	0.000117246	0.000168116	0	0	0	
0.0836667	-0.00538366	0.0143049	0.000131946	0.000178039	0	0	0	
0.0838333	0.0135387	-0.00956555	0.000160688	0.000217014	0	0	0	
0.084	-0.00243923	0.00828294	0.000190404	0.000248368	0	0	0	
0.0841667	-0.00660501	-0.00149936	0.000182865	0.000239475	0	0	0	
0.0843333	0.000472422	0.00403488	0.000155633	0.000190792	0	0	0	
0.0845	0.00432675	0.001301	0.000141417	0.000112483	0	0	0	
0.0846667	-0.00285331	-0.00416181	0.000112891	7.27613E-05	0	0	0	
0.0848333	0.00217956	0.0121498	9.84801E-05	0.000102353	0	0	0	
0.085	-0.00668735	-0.00870709	8.59068E-05	0.000200474	0	0	0	
0.0851667	0.00694747	0.00634031	9.18396E-05	0.000333288	0	0	0	
0.0853333	-0.01574	0.00475674	0.000168014	0.000434281	0	0	0	
0.0855	0.0308437	-0.00774215	0.00030886	0.000434715	0	0	0	
0.0856667	-0.040812	0.00142613	0.000526543	0.000311459	0	0	0	
0.0858333	0.0358012	0.019726	0.000669483	0.000207774	0	0	0	
0.086	-0.0364897	-0.0305025	0.000716554	0.000249678	0	0	0	
0.0861667	0.0248962	0.0268271	0.000672545	0.00042997	0	0	0	
0.0863333	-0.00669533	-0.00483239	0.000632747	0.000579611	0	0	0	
0.0865	-0.0227043	-0.00187345	0.000546411	0.000531631	0	0	0	
0.0866667	0.026516	-0.00793062	0.00049757	0.000354506	0	0	0	
0.0868333	-0.0108718	0.0236523	0.000590105	0.000264193	0	0	0	
0.087	-0.0152188	-0.0276395	0.000736223	0.000319167	0	0	0	
0.0871667	0.0167317	0.0338372	0.000790314	0.000475169	0	0	0	
0.0873333	-0.0283819	-0.0299735	0.000677543	0.000558067	0	0	0	
0.0875	0.0265167	0.0121248	0.000566427	0.000595992	0	0	0	
0.0876667	-0.019746	0.0102139	0.000498526	0.000600725	0	0	0	
0.0878333	0.00365547	-0.00501605	0.00042212	0.000443086	0	0	0	
0.088	-0.0027429	-0.0146324	0.00030439	0.000400663	0	0	0	
0.0881667	-0.000279817	0.0299049	0.000171949	0.000368378	0	0	0	
0.0883333	-0.00841174	-0.0206983	0.000101682	0.000476374	0	0	0	
0.0885	-0.00125575	0.00985616	7.37949E-05	0.00044643	0	0	0	
0.0886667	0.00341081	-0.00692619	9.05564E-05	0.000358183	0	0	0	
0.0888333	-0.0136446	0.00717853	0.000127653	0.000262557	0	0	0	
0.089	0.00194913	0.0059815	0.000147354	0.000239101	0	0	0	
0.0891667	0.00219351	-0.00583849	0.000160832	0.000223621	0	0	0	
0.0893333	-0.00492558	-0.00464181	0.000144636	0.000238271	0	0	0	
0.0895	0.000698045	0.0118608	0.000139725	0.000184467	0	0	0	
0.0896667	-0.00149623	-0.00252457	0.000105933	0.000196545	0	0	0	
0.0898333	-0.00247947	-0.00198082	7.23033E-05	0.000204707	0	0	0	
0.09	-0.00670859	-0.000337544	6.93743E-05	0.00017291	0	0	0	
0.0901667	0.000441742	0.00622991	8.83561E-05	0.000134233	0	0	0	
0.0903333	0.0017507	0.00160737	9.81699E-05	8.50076E-05	0	0	0	
0.0905	0.00092749	-0.00180626	0.000109778	7.83529E-05	0	0	0	
0.0906667	-0.00145734	-0.00133151	9.36225E-05	6.60251E-05	0	0	0	
0.0908333	-0.00764838	0.00365195	9.82784E-05	6.49902E-05	0	0	0	
0.091	0.00577094	-0.00126543	8.42211E-05	7.49919E-05	0	0	0	
0.0911667	0.00016704	0.00471268	0.000137106	7.3959E-05	0	0	0	
0.0913333	-0.00667194	-0.00231058	0.000139629	6.57558E-05	0	0	0	
0.0915	-0.00209725	0.00410479	0.000146079	7.04299E-05	0	0	0	
0.0916667	-0.00590083	-0.00122783	0.000151457	8.04361E-05	0	0	0	
0.0918333	0.0120945	0.000352565	0.000179989	0.000119911	0	0	0	
0.092	-0.00783303	0.00918942	0.000246374	0.000157455	0	0	0	
0.0921667	-0.00967741	-0.00990115	0.000320009	0.000175278	0	0	0	
0.0923333	0.00635822	0.00296881	0.00031347	0.000206806	0	0	0	
0.0925	-0.00486743	0.0110997	0.000265593	0.00025595	0	0	0	
0.0926667	0.00696258	-0.0134786	0.000184923	0.000290251	0	0	0	
0.0928333	-0.0102903	0.0127375	0.000164012	0.00028866	0	0	0	
0.093	-0.00512667	-0.00102944	0.000186093	0.000246847	0	0	0	
0.0931667	0.0114451	-0.0053827	0.00022318	0.000250376	0	0	0	
0.0933333	-0.0120721	0.0184132	0.000254145	0.00024148	0	0	0	
0.0935	0.0077473	-0.0123097	0.0002408	0.000264678	0	0	0	
0.0936667	-0.00142484	-0.00822302	0.000211745	0.000359222	0	0	0	
0.0938333	0.00157401	0.0269918	0.00018451	0.000427506	0	0	0	
0.094	-0.00741622	-0.0168588	0.000136232	0.000455966	0	0	0	
0.0941667	0.00291216	0.0043434	0.000117044	0.000427944	0	0	0	
0.0943333	0.00805523	0.00853027	0.000132425	0.000390674	0	0	0	
0.0945	-0.00333903	-0.00918446	0.000156468	0.00033841	0	0	0	
0.0946667	-0.00262692	0.011047	0.000177067	0.000242209	0	0	0	
0.0948333	0.00249795	-0.00191391	0.000142806	0.000215646	0	0	0	
0.095	0.000687654	-0.00551433	0.000102979	0.00025125	0	0	0	
0.0951667	0.00307277	0.0130676	8.01151E-05	0.00025402	0	0	0	
0.0953333	-0.00202729	-0.00609382	0.000134029	0.000228156	0	0	0	
0.0955	0.00650723	-0.000937161	0.000189695	0.000184239	0	0	0	
0.0956667	-0.00578593	0.00488173	0.000177584	0.000166249	0	0	0	
0.0958333	0.00326417	0.00132956	0.000144518	0.000133666	0	0	0	
0.096	0.00159024	0.00230563	0.00013453	9.96175E-05	0	0	0	
0.0961667	-0.00296852	-0.000248851	0.000103848	0.000106254	0	0	0	
0.0963333	0.00263013	0.000315989	0.000118799	9.35876E-05	0	0	0	
0.0965	0.00245742	0.00606942	7.93715E-05	8.68384E-05	0	0	0	
0.0966667	0.00359603	-0.00483002	0.000185208	8.32776E-05	0	0	0	
0.0968333	-0.0177398	0.00714372	0.000186577	0.000140612	0	0	0	
0.097	0.00849607	-0.00779463	0.00031894	0.000176058	0	0	0	
0.0971667	-0.00334928	0.0108306	0.000365293	0.000252636	0	0	0	
0.0973333	0.0070312	0.00498671	0.000360757	0.00036893	0	0	0	
0.0975	0.00344114	-0.0128269	0.00025531	0.000441844	0	0	0	
0.0976667	-0.0252682	0.00232184	0.000186002	0.000368896	0	0	0	
0.0978333	0.0144619	0.0129853	0.0002855	0.000261601	0	0	0	
0.098	0.0140533	-0.0015876	0.000391109	0.000173684	0	0	0	
0.0981667	-0.0364392	-0.00170732	0.000479295	0.000148685	0	0	0	
0.0983333	0.0156019	-0.018087	0.000482684	0.00022436	0	0	0	
0.0985	0.0107052	0.036139	0.000438424	0.000359774	0	0	0	
0.0986667	-0.014759	-0.0137863	0.000343933	0.000522306	0	0	0	
0.0988333	-0.00421646	-0.00986717	0.000230476	0.000542277	0	0	0	
0.099	0.00545101	0.000663275	0.000168353	0.000398098	0	0	0	
0.0991667	-0.00225718	0.010811	0.00014115	0.000239532	0	0	0	
0.0993333	0.00357883	0.0132943	0.000128999	0.000251565	0	0	0	
0.0995	-0.00480029	-0.0237576	0.000147051	0.000368446	0	0	0	
0.0996667	-0.00122873	0.00697857	0.000101332	0.000461235	0	0	0	
0.0998333	0.00486763	0.00679724	0.000103536	0.000331045	0	0	0	
0.1	-0.0019873	0.00934899	6.57134E-05	0.000286324	0	0	0	
0.100167	-0.00775399	-0.00817974	8.09125E-05	0.000228377	0	0	0	
0.100333	0.00761143	-0.0134451	9.17703E-05	0.000271763	0	0	0	
0.1005	0.000410518	0.0194563	0.0001046	0.0002623	0	0	0	
0.100667	-0.00111112	0.0013226	0.000102398	0.000356002	0	0	0	
0.100833	0.000792151	0.00202626	6.0511E-05	0.000335586	0	0	0	
0.101	0.000279676	-0.00830476	3.8315E-05	0.000268564	0	0	0	
0.101167	-2.52127E-05	0.000465264	1.80454E-05	0.000211417	0	0	0	
0.101333	-0.000362453	0.0162924	3.14931E-05	0.000244751	0	0	0	
0.1015	-0.000471336	-0.00410388	5.46979E-05	0.000271997	0	0	0	
0.101667	-0.00120063	-0.00915206	6.47201E-05	0.000265434	0	0	0	
0.101833	0.00111173	0.00582716	6.37431E-05	0.00021148	0	0	0	
0.102	0.000341252	0.00680376	5.95564E-05	0.000218406	0	0	0	
0.102167	-0.00333685	0.00565461	6.80522E-05	0.000150551	0	0	0	
0.102333	0.0115688	-0.00908312	9.18554E-05	0.000128086	0	0	0	
0.1025	-0.00943525	-0.000453312	0.000153731	0.000170812	0	0	0	
0.102667	-0.0050794	0.00898256	0.00019166	0.000214079	0	0	0	
0.102833	0.00904437	-4.3182E-05	0.000204958	0.000218518	0	0	0	
0.103	-0.00914528	0.000190539	0.000169394	0.000126985	0	0	0	
0.103167	0.00258758	-0.00516235	0.000153912	0.000109748	0	0	0	
0.103333	0.00149953	0.00547443	0.000135921	0.000109977	0	0	0	
0.1035	-0.00458117	0.00782579	0.000120721	0.000177289	0	0	0	
0.103667	0.00349575	-0.00617972	9.3436E-05	0.00015611	0	0	0	
0.103833	-0.00180415	-0.00368503	0.00010061	0.000203371	0	0	0	
0.104	-0.0046309	0.00343075	0.000136158	0.000150767	0	0	0	
0.104167	0.00464781	0.00594053	0.00016941	0.0001467	0	0	0	
0.104333	-0.000521799	0.00467559	0.000145882	0.000145241	0	0	0	
0.1045	-0.00406127	-0.0121472	9.85246E-05	0.00019671	0	0	0	
0.104667	0.00312674	0.00692879	6.46326E-05	0.000244789	0	0	0	
0.104833	-0.00397036	0.00701067	7.6028E-05	0.000216932	0	0	0	
0.105	0.00238705	-0.00275472	8.46108E-05	0.000156041	0	0	0	
0.105167	-0.000613349	0.00570571	0.000115189	0.000118456	0	0	0	
0.105333	-0.00617337	-0.00962648	0.000155048	0.000110131	0	0	0	
0.1055	0.0164438	0.00984967	0.000232833	0.000158381	0	0	0	
0.105667	-0.0145729	0.00303163	0.000281216	0.000214726	0	0	0	
0.105833	-0.00141579	-0.000730109	0.000360702	0.000190136	0	0	0	
0.106	0.0249301	-0.00206316	0.000537151	0.000143333	0	0	0	
0.106167	-0.0415928	-0.00525622	0.000733789	0.000139085	0	0	0	
0.106333	0.0482009	0.0283466	0.00086185	0.000288553	0	0	0	
0.1065	-0.0341361	-0.0290532	0.000824966	0.000434025	0	0	0	
0.106667	0.0140638	0.0153716	0.000787082	0.000510302	0	0	0	
0.106833	0.0100849	-0.000385843	0.00070011	0.000394551	0	0	0	
0.107	-0.0225226	0.00779036	0.000543554	0.000318282	0	0	0	
0.107167	0.0251507	-0.0137102	0.000444297	0.000326904	0	0	0	
0.107333	-0.0131347	0.0129952	0.000445834	0.000413566	0	0	0	
0.1075	-0.00100547	-0.007457	0.000584904	0.000416623	0	0	0	
0.107667	0.0114813	0.00727643	0.000551385	0.000336699	0	0	0	
0.107833	-0.00531959	-0.00262582	0.000414615	0.000256393	0	0	0	
0.108	0.00571383	-0.00546873	0.000222997	0.000173297	0	0	0	
0.108167	-0.0133235	0.0156837	0.000200981	0.000155087	0	0	0	
0.108333	0.0118383	-0.0017135	0.000227108	0.000234774	0	0	0	
0.1085	-0.00754079	-0.0153123	0.000240956	0.000396488	0	0	0	
0.108667	0.00505369	0.0154542	0.000205233	0.000441757	0	0	0	
0.108833	-0.00302959	-0.00624651	0.000193562	0.000353734	0	0	0	
0.109	-0.000150454	0.00141712	0.000194529	0.000214445	0	0	0	
0.109167	0.000539853	0.000863958	0.000181809	0.000143946	0	0	0	
0.109333	-0.00862641	0.00667776	0.00015685	0.000178821	0	0	0	
0.1095	0.00722245	-0.0106758	0.000160252	0.000227535	0	0	0	
0.109667	-0.00636098	0.00670106	0.000156401	0.000236368	0	0	0	
0.109833	-0.000205689	0.0081699	0.000135844	0.000231171	0	0	0	
0.11	0.000202823	-0.0100543	8.62452E-05	0.000191697	0	0	0	
0.110167	-0.00394246	0.00286321	5.11627E-05	0.000205076	0	0	0	
0.110333	-0.000594112	0.00343817	5.1414E-05	0.000154757	0	0	0	
0.1105	-0.000464999	-0.0001716	5.82575E-05	0.000125143	0	0	0	
0.110667	-0.00177476	0.00358394	7.6845E-05	8.21468E-05	0	0	0	
0.110833	0.00163708	-0.00412802	8.43609E-05	6.83523E-05	0	0	0	
0.111	-0.00119359	-0.00112999	8.13077E-05	0.000116603	0	0	0	
0.111167	0.000581958	0.0127072	6.01421E-05	0.000166526	0	0	0	
0.111333	-0.00250679	-0.00945582	3.42677E-05	0.00019636	0	0	0	
0.1115	0.00363134	0.0027017	4.92501E-05	0.000212983	0	0	0	
0.111667	-0.00700386	0.00295714	9.60595E-05	0.000199549	0	0	0	
0.111833	0.00977264	-0.000532196	0.000168289	0.000175571	0	0	0	
0.112	-0.00925542	0.00218089	0.000191927	0.000125764	0	0	0	
0.112167	0.00288171	-0.00206138	0.00019733	9.1595E-05	0	0	0	
0.112333	0.00543606	0.0025095	0.000180414	8.40896E-05	0	0	0	
0.1125	-0.00732385	0.0039054	0.000161403	8.4071E-05	0	0	0	
0.112667	0.00286161	-0.00479965	0.000154615	7.54692E-05	0	0	0	
0.112833	-0.00224624	0.00370596	0.00014721	8.89156E-05	0	0	0	
0.113	-0.00176416	-0.00482789	0.000160817	8.38702E-05	0	0	0	
0.113167	0.00732537	0.0122441	0.00016525	0.000125001	0	0	0	
0.113333	-0.00672121	-0.00813061	0.000149559	0.000142304	0	0	0	
0.1135	-0.000135348	0.000656934	0.000144272	0.000197843	0	0	0	
0.113667	0.00498207	0.00572298	0.000112936	0.00021323	0	0	0	
0.113833	-0.00184758	-0.0052708	9.94006E-05	0.000188187	0	0	0	
0.114	0.00503205	0.00604969	6.63467E-05	0.000149948	0	0	0	
0.114167	-0.0145788	-0.0114724	0.000103582	0.00013137	0	0	0	
0.114333	0.0140776	0.0180709	0.000200151	0.00023227	0	0	0	
0.1145	0.00119147	-0.00568695	0.000270369	0.000344853	0	0	0	
0.114667	-0.0074129	-0.00836347	0.00023183	0.000426404	0	0	0	
0.114833	0.0100315	0.00783506	0.000213817	0.00033589	0	0	0	
0.115	-0.00391228	0.0126872	0.000247162	0.000345517	0	0	0	
0.115167	-0.00438215	-0.0264065	0.000360816	0.0003882	0	0	0	
0.115333	0.0121588	0.0259534	0.000414088	0.000535005	0	0	0	
0.1155	-0.00791324	-0.0178893	0.000408548	0.000540094	0	0	0	
0.115667	-0.00509723	0.0289204	0.000301588	0.00057185	0	0	0	
0.115833	0.0131942	-0.028462	0.000238321	0.000571605	0	0	0	
0.116	-0.0101639	0.00176062	0.000205483	0.000510301	0	0	0	
0.116167	0.00482451	0.0158555	0.000218101	0.000358087	0	0	0	
0.116333	-0.00366571	-0.00296014	0.000166524	0.00030098	0	0	0	
0.1165	0.00196994	-0.00469603	0.000145816	0.00032159	0	0	0	
0.116667	-0.00282432	-0.00349526	0.000143304	0.000279914	0	0	0	
0.116833	-0.00172968	0.00577124	0.000122469	0.000206741	0	0	0	
0.117	-0.00177945	0.0101263	8.48593E-05	0.000217965	0	0	0	
0.117167	-0.00155079	-0.0180593	7.25441E-05	0.000296734	0	0	0	
0.117333	0.00246749	0.00734181	8.63138E-05	0.000324945	0	0	0	
0.1175	-0.00570916	-0.000540599	0.000100382	0.000234156	0	0	0	
0.117667	0.00775803	0.00199585	0.000106416	0.000161629	0	0	0	
0.117833	-0.00549	-0.00423263	0.000118058	0.000109144	0	0	0	
0.118	0.00297037	0.00289009	0.000107879	9.1788E-05	0	0	0	
0.118167	-0.00175678	-0.0011719	0.000114515	8.64253E-05	0	0	0	
0.118333	-0.00471788	0.00361663	0.000121781	8.03131E-05	0	0	0	
0.1185	0.00327877	0.000264445	0.000131169	6.06944E-05	0	0	0	
0.118667	0.00318321	-0.00330861	0.000103485	4.67969E-05	0	0	0	
0.118833	-0.000327142	0.00216761	7.50853E-05	4.77094E-05	0	0	0	
0.119	0.00323817	0.0013955	5.22961E-05	5.8421E-05	0	0	0	
0.119167	-0.00338994	-0.0005476	5.31809E-05	5.47621E-05	0	0	0	
0.119333	0.00157265	-0.00267246	7.09873E-05	4.66846E-05	0	0	0	
0.1195	0.0024014	0.0052277	0.000117778	5.94092E-05	0	0	0	
0.119667	-0.00256294	0.000486704	0.000123139	9.09114E-05	0	0	0	
0.119833	0.00474654	-0.0017583	0.000106913	0.000100796	0	0	0	
0.12	-0.00351537	0.00155211	8.84653E-05	7.83702E-05	0	0	0	
0.120167	0.00462168	0.000504609	8.90668E-05	6.96212E-05	0	0	0	
0.120333	0.00463796	-0.000434644	7.99924E-05	5.40356E-05	0	0	0	
0.1205	-0.0099108	0.00079067	9.02695E-05	5.56906E-05	0	0	0	
0.120667	0.00560985	-0.00360788	0.000132734	6.02261E-05	0	0	0	
0.120833	0.013498	0.00782159	0.000217541	9.66978E-05	0	0	0	
0.121	-0.0178252	-0.000368517	0.000278102	0.000106317	0	0	0	
0.121167	7.60822E-05	-0.00722817	0.000305266	0.000120155	0	0	0	
0.121333	0.0132997	0.00272513	0.000245623	0.00010688	0	0	0	
0.1215	-0.00062813	0.00808613	0.000200225	0.000124962	0	0	0	
0.121667	-0.00619322	-0.00999012	0.000144767	0.000126046	0	0	0	
0.121833	0.00643918	0.00435621	0.000146004	0.000189937	0	0	0	
0.122	-0.0042134	0.00676187	0.000138214	0.000270065	0	0	0	
0.122167	0.00699476	-0.00882989	0.000176472	0.00033246	0	0	0	
0.122333	-0.00080114	0.00934943	0.000176572	0.000311318	0	0	0	
0.1225	-0.00230337	-0.00249281	0.000148829	0.000218186	0	0	0	
0.122667	0.00801026	-0.00265613	0.000120229	0.000139	0	0	0	
0.122833	-0.00142559	0.0117771	0.000100787	0.000127375	0	0	0	
0.123	-0.00506494	-0.0150598	0.000154807	0.000165618	0	0	0	
0.123167	0.00520854	0.00776268	0.000144569	0.00024035	0	0	0	
0.123333	0.0125561	0.00631715	0.000170438	0.000303901	0	0	0	
0.1235	-0.0103972	-0.00310664	0.000164335	0.000282897	0	0	0	
0.123667	0.000368027	-0.00696121	0.000172981	0.00022829	0	0	0	
0.123833	0.00675012	0.00846262	0.00014433	0.000149655	0	0	0	
0.124	-0.00253565	0.00324245	0.000103945	0.000185372	0	0	0	
0.124167	-0.00101704	-0.00640035	6.65792E-05	0.00018255	0	0	0	
0.124333	0.00403291	-0.00571233	5.06046E-05	0.000167945	0	0	0	
0.1245	-0.00526957	0.00836141	5.82077E-05	0.000134655	0	0	0	
0.124667	0.0020122	-0.00326381	6.57398E-05	0.000150707	0	0	0	
0.124833	0.00263964	0.0043548	8.65862E-05	0.00014849	0	0	0	
0.125	-0.00537326	-0.0123215	8.07971E-05	0.000141079	0	0	0	
0.125167	0.00115516	0.00837042	7.64396E-05	0.000192716	0	0	0	
0.125333	0.00250554	0.00675015	5.80632E-05	0.000333376	0	0	0	
0.1255	-0.00228403	-0.00855336	4.53988E-05	0.00037541	0	0	0	
0.125667	-0.00225721	-0.00206666	4.76556E-05	0.000291311	0	0	0	
0.125833	-0.00014751	-0.0015707	4.58037E-05	0.000161465	0	0	0	
0.126	-0.00126589	0.00666652	3.03478E-05	0.000126005	0	0	0	
0.126167	0.00367483	0.00911911	3.71109E-05	0.000153062	0	0	0	
0.126333	-0.00638848	-0.0218652	5.77843E-05	0.000213935	0	0	0	
0.1265	-1.41234E-05	0.0150439	0.000114494	0.00028775	0	0	0	
0.126667	0.0134662	-0.00350338	0.000164922	0.000357454	0	0	0	
0.126833	-0.0122221	0.0012042	0.00021902	0.000310916	0	0	0	
0.127	-0.00272751	-0.00397037	0.000246577	0.000219282	0	0	0	
0.127167	0.00455668	0.00161744	0.000233096	0.000137074	0	0	0	
0.127333	-0.00377062	-0.00115642	0.000178983	8.84927E-05	0	0	0	
0.1275	0.00710161	0.00531313	0.000127364	9.4796E-05	0	0	0	
0.127667	-0.00781877	-0.00787479	0.00012258	8.95936E-05	0	0	0	
0.127833	-0.00207016	-0.00173083	0.000156216	0.000157033	0	0	0	
0.128	0.00266506	0.00545909	0.000157693	0.000178885	0	0	0	
0.128167	-0.000866902	-0.00444992	0.000121787	0.000160694	0	0	0	
0.128333	-0.00219698	0.00217796	8.15123E-05	0.000110177	0	0	0	
0.1285	-0.00341821	-0.00106091	8.94912E-05	7.17598E-05	0	0	0	
0.128667	0.00242074	-0.00479765	9.88569E-05	6.67758E-05	0	0	0	
0.128833	-0.00294394	0.00223863	0.000108769	7.05811E-05	0	0	0	
0.129	0.000229985	0.00116398	7.9059E-05	9.60702E-05	0	0	0	
0.129167	-0.000721096	-0.000238691	6.86476E-05	0.00010029	0	0	0	
0.129333	-0.00160477	-0.00151185	4.36355E-05	0.000101874	0	0	0	
0.1295	-0.000685815	-0.00889496	2.98573E-05	0.000137059	0	0	0	
0.129667	-0.00176624	0.015363	2.81777E-05	0.000202302	0	0	0	
0.129833	-0.00202271	-0.00919505	3.63897E-05	0.000262863	0	0	0	
0.13	0.0020501	-0.00442745	4.66092E-05	0.000320944	0	0	0	
0.130167	-0.00164965	0.00911502	5.82784E-05	0.000331077	0	0	0	
0.130333	0.000708175	-0.00934216	5.62151E-05	0.000299383	0	0	0	
0.1305	-0.00490081	0.00732732	7.17271E-05	0.00021859	0	0	0	
0.130667	0.00429904	-0.00366418	8.05167E-05	0.000156801	0	0	0	
0.130833	-0.000815814	-0.00817844	9.93373E-05	0.000166736	0	0	0	
0.131	-0.00606425	0.0129906	0.000103998	0.000184133	0	0	0	
0.131167	0.00485025	-0.00803022	9.26224E-05	0.000217187	0	0	0	
0.131333	0.000617068	0.00172061	9.11462E-05	0.000184288	0	0	0	
0.1315	-0.00211082	-0.00618865	7.62029E-05	0.000142073	0	0	0	
0.131667	0.00267288	0.00916112	6.87416E-05	0.000130054	0	0	0	
0.131833	-0.00280856	-0.00382434	5.52743E-05	0.000136832	0	0	0	
0.132	0.000290685	-0.00325581	5.82681E-05	0.000139908	0	0	0	
0.132167	-0.00352439	0.00033505	6.92926E-05	0.000103709	0	0	0	
0.132333	0.00338536	-0.000632232	6.55407E-05	8.29039E-05	0	0	0	
0.1325	-0.0028667	0.00398068	6.97888E-05	6.82497E-05	0	0	0	
0.132667	0.00166494	-0.00714983	5.09083E-05	8.03083E-05	0	0	0	
0.132833	-0.00380655	-0.00267198	5.94914E-05	0.000146827	0	0	0	
0.133	0.00033715	0.00822681	4.7152E-05	0.000211875	0	0	0	
0.133167	0.000265115	-0.00351347	4.92914E-05	0.000204091	0	0	0	
0.133333	-0.00779913	-0.0100543	6.62262E-05	0.000183369	0	0	0	
0.1335	0.00292752	0.0105776	8.0314E-05	0.00016674	0	0	0	
0.133667	0.00209678	-0.00723075	0.000100661	0.000202246	0	0	0	
0.133833	-0.00450857	0.00494272	8.58495E-05	0.000178013	0	0	0	
0.134	-0.000163316	-0.0116354	7.85209E-05	0.000156735	0	0	0	
0.134167	0.004806	0.00965968	6.87466E-05	0.000177067	0	0	0	
0.134333	-0.00229429	-0.00232142	7.30103E-05	0.000200978	0	0	0	
0.1345	0.000147827	-0.00377905	5.53294E-05	0.000191553	0	0	0	
0.134667	-0.000870519	-0.00158862	5.93472E-05	0.000144428	0	0	0	
0.134833	0.000480253	0.00732121	3.47573E-05	0.000136884	0	0	0	
0.135	0.00793411	-0.00846893	6.76594E-05	0.000137719	0	0	0	
0.135167	-0.00967586	-0.00532025	9.728E-05	0.000160884	0	0	0	
0.135333	0.010965	0.0117763	0.00017478	0.000147979	0	0	0	
0.1355	-0.00830957	-0.00292867	0.000210834	0.000264762	0	0	0	
0.135667	0.0253509	-0.0151052	0.000261713	0.000418495	0	0	0	
0.135833	-0.0372059	0.00992426	0.000383991	0.000497182	0	0	0	
0.136	0.0284752	0.00548567	0.000515115	0.000370897	0	0	0	
0.136167	-0.0140245	-0.00885848	0.000639413	0.000269159	0	0	0	
0.136333	0.0019664	-0.0103472	0.000615369	0.00033004	0	0	0	
0.1365	0.0121832	0.00637257	0.00052087	0.000362563	0	0	0	
0.136667	-0.0120519	0.0213329	0.000357348	0.000413432	0	0	0	
0.136833	0.00472422	-0.0400547	0.000326975	0.00040812	0	0	0	
0.137	0.0132756	0.0260743	0.000447296	0.000569044	0	0	0	
0.137167	-0.026949	-0.017874	0.000594515	0.000599268	0	0	0	
0.137333	0.0320989	0.0180049	0.000621072	0.000559564	0	0	0	
0.1375	-0.0231717	-0.00610531	0.000559569	0.000508478	0	0	0	
0.137667	0.0104143	-0.0205587	0.000486444	0.000527464	0	0	0	
0.137833	-0.00179964	0.019802	0.000392605	0.000494138	0	0	0	
0.138	0.00626338	0.00722684	0.000270108	0.00055119	0	0	0	
0.138167	-0.00420069	-0.0269382	0.000167835	0.000517025	0	0	0	
0.138333	0.00318646	0.0179331	0.000120788	0.000543909	0	0	0	
0.1385	-0.00116405	-0.00316304	0.000103219	0.000448747	0	0	0	
0.138667	0.000707555	-0.00930564	9.32755E-05	0.000384583	0	0	0	
0.138833	0.000140653	0.0140145	7.41274E-05	0.000339607	0	0	0	
0.139	-0.00105589	-0.0126752	4.78114E-05	0.000272508	0	0	0	
0.139167	0.00361583	-0.00109573	4.52879E-05	0.000269763	0	0	0	
0.139333	-0.00409623	0.0108792	4.90377E-05	0.000263639	0	0	0	
0.1395	-0.00109759	-0.00961792	7.43271E-05	0.000248217	0	0	0	
0.139667	0.00564108	-0.00155659	7.61461E-05	0.000219558	0	0	0	
0.139833	-0.0030732	0.00468302	8.31733E-05	0.000198383	0	0	0	
0.14	0.00189809	-0.00699314	8.45138E-05	0.000183545	0	0	0	
0.140167	0.00238894	0.00754454	7.5736E-05	0.00016305	0	0	0	
0.140333	-0.00161919	-0.00874448	6.32191E-05	0.000136406	0	0	0	
0.1405	0.00129658	0.00480867	5.29912E-05	0.000149257	0	0	0	
0.140667	-0.00371811	-0.00302379	5.62575E-05	0.000129892	0	0	0	
0.140833	0.00473169	-0.00107874	6.25126E-05	0.000109034	0	0	0	
0.141	-0.00204332	-0.00280794	7.85867E-05	7.69544E-05	0	0	0	
0.141167	0.00240246	0.00421973	0.000115936	7.09128E-05	0	0	0	
0.141333	0.00464364	-0.00716384	0.000119566	8.57729E-05	0	0	0	
0.1415	0.00127999	0.00312629	0.000120332	0.000100797	0	0	0	
0.141667	-0.0057937	-0.00456498	0.000117465	9.34608E-05	0	0	0	
0.141833	0.00168	0.00161012	0.000107046	8.85168E-05	0	0	0	
0.142	0.00279871	-0.00315058	8.9998E-05	7.68999E-05	0	0	0	
0.142167	0.00213946	0.00134958	7.24535E-05	7.89696E-05	0	0	0	
0.142333	-0.00383838	-0.00171875	0.000115579	9.51326E-05	0	0	0	
0.1425	0.0018892	-0.0027282	0.000107425	0.00011461	0	0	0	
0.142667	0.00390123	-0.00284422	9.33796E-05	0.000116851	0	0	0	
0.142833	0.00147516	0.00232887	6.01261E-05	0.000105361	0	0	0	
0.143	-0.00683412	-0.0037035	7.95158E-05	0.000110729	0	0	0	
0.143167	0.00156854	0.00648333	8.72739E-05	0.00011948	0	0	0	
0.143333	0.00434976	-0.0164398	0.000105052	0.000159192	0	0	0	
0.1435	-0.00691605	0.00691662	0.000115859	0.000221263	0	0	0	
0.143667	0.00130852	0.00336387	0.000117576	0.000303648	0	0	0	
0.143833	0.0024386	-0.00172668	0.000103725	0.00024097	0	0	0	
0.144	-0.000622001	-0.0133905	7.50768E-05	0.000221447	0	0	0	
0.144167	-0.00423249	0.0116539	6.26313E-05	0.00018368	0	0	0	
0.144333	0.00325738	-0.00746608	5.93319E-05	0.000234014	0	0	0	
0.1445	-0.00150963	0.00709525	8.85725E-05	0.00019556	0	0	0	
0.144667	-0.00235779	-0.00996046	8.21827E-05	0.000157801	0	0	0	
0.144833	-0.00191636	-0.00383143	8.06568E-05	0.000185415	0	0	0	
0.145	0.00209474	0.00824783	6.09649E-05	0.000192796	0	0	0	
0.145167	-0.00225156	-0.00171212	6.23093E-05	0.000211008	0	0	0	
0.145333	0.000861932	-0.0106381	5.1711E-05	0.000186694	0	0	0	
0.1455	-0.00351866	0.00249135	5.58472E-05	0.000166009	0	0	0	
0.145667	0.00617783	0.000507371	6.64788E-05	0.000156654	0	0	0	
0.145833	-0.00423584	0.00131919	9.59339E-05	0.000102518	0	0	0	
0.146	0.00282131	-0.00435258	8.16655E-05	8.14452E-05	0	0	0	
0.146167	-0.00446691	-0.00331747	8.00201E-05	5.99079E-05	0	0	0	
0.146333	0.0034424	0.00180939	6.90631E-05	6.79935E-05	0	0	0	
0.1465	5.92685E-05	0.00336318	8.61439E-05	0.000113545	0	0	0	
0.146667	-0.00264206	-0.00940359	7.75186E-05	0.00011821	0	0	0	
0.146833	0.00108202	0.000109641	7.87244E-05	0.000140952	0	0	0	
0.147	0.00454839	0.0049928	6.39312E-05	0.000110842	0	0	0	
0.147167	-0.00682171	-0.00737703	9.92092E-05	0.000123649	0	0	0	
0.147333	0.0119544	-0.00018211	0.000118531	0.000173217	0	0	0	
0.1475	-0.0114699	0.00431562	0.000181813	0.000244495	0	0	0	
0.147667	0.00423177	-0.00981728	0.000190528	0.000285707	0	0	0	
0.147833	0.00344978	0.00997336	0.000198998	0.000290981	0	0	0	
0.148	-0.000282612	-0.014227	0.000161631	0.000265754	0	0	0	
0.148167	-0.000559641	0.00577058	0.00012026	0.000231844	0	0	0	
0.148333	-0.0013859	0.00684614	7.23435E-05	0.000251489	0	0	0	
0.1485	0.000908309	-0.0228611	4.89976E-05	0.000261297	0	0	0	
0.148667	0.00141337	0.0118971	9.2556E-05	0.000326903	0	0	0	
0.148833	-0.00667513	0.00317883	0.000155303	0.0003668	0	0	0	
0.149	0.00808765	-0.0103839	0.000164752	0.000343772	0	0	0	
0.149167	-0.0023325	0.000492329	0.00016258	0.000251207	0	0	0	
0.149333	0.000955105	-0.00295544	0.000125883	0.000126861	0	0	0	
0.1495	-0.00469293	0.00166164	0.000125927	8.20404E-05	0	0	0	
0.149667	0.00217687	0.00134492	8.64301E-05	0.000112917	0	0	0	
0.149833	-0.000902407	-0.00853876	7.54096E-05	0.000130145	0	0	0	
0.15	-0.000285619	-0.0013841	5.4277E-05	0.000165061	0	0	0	
0.150167	-0.00387714	0.0131458	4.18922E-05	0.000197918	0	0	0	
0.150333	-0.000643133	-0.017999	7.19553E-05	0.00024115	0	0	0	
0.1505	0.0130546	0.00518507	0.00012881	0.00029266	0	0	0	
0.150667	-0.0124593	-0.000164136	0.000225967	0.000288192	0	0	0	
0.150833	-0.00812282	-0.00552493	0.000340677	0.000227365	0	0	0	
0.151	0.0116194	0.00334481	0.000361777	0.000147366	0	0	0	
0.151167	-0.00361119	-0.000507238	0.00031021	8.48893E-05	0	0	0	
0.151333	0.00415012	-0.0107253	0.000175593	0.000117467	0	0	0	
0.1515	-0.00353382	0.014472	0.000107757	0.00017103	0	0	0	
0.151667	-0.00649012	-0.00997805	0.000119752	0.000232822	0	0	0	
0.151833	0.0123947	-0.00499165	0.000173009	0.00025982	0	0	0	
0.152	-0.0054695	0.00443291	0.000205224	0.000240733	0	0	0	
0.152167	-0.00185029	-0.00135471	0.00018603	0.000168273	0	0	0	
0.152333	0.00484093	-0.00712782	0.000129677	0.000108776	0	0	0	
0.1525	0.000938463	0.0125979	9.39068E-05	0.000118689	0	0	0	
0.152667	0.000428072	-0.0134636	6.16096E-05	0.000181177	0	0	0	
0.152833	-0.000419234	0.00250223	5.76711E-05	0.000237015	0	0	0	
0.153	0.0154607	0.00442403	9.54582E-05	0.000240155	0	0	0	
0.153167	-0.0165603	-0.00392743	0.0001889	0.000183995	0	0	0	
0.153333	0.0219539	0.00166808	0.000312667	0.000159765	0	0	0	
0.1535	-0.0276526	-0.0111813	0.000480423	0.000145157	0	0	0	
0.153667	0.0289197	0.0206376	0.000566526	0.000224434	0	0	0	
0.153833	-0.0154177	-0.0196843	0.000539854	0.00033752	0	0	0	
0.154	0.0183869	0.00444456	0.000433801	0.000478489	0	0	0	
0.154167	-0.0109385	-0.00152371	0.000337766	0.000479599	0	0	0	
0.154333	-0.00290605	0.0167675	0.000253065	0.000376621	0	0	0	
0.1545	0.0190338	-0.0259715	0.00022224	0.000310878	0	0	0	
0.154667	-0.0133864	0.0138327	0.000272262	0.000339554	0	0	0	
0.154833	0.003344	-0.019511	0.000385668	0.000392	0	0	0	
0.155	0.00573438	0.0327153	0.00042805	0.000479002	0	0	0	
0.155167	-0.00865514	-0.0312208	0.000395308	0.000536982	0	0	0	
0.155333	0.0118187	0.003336	0.000344049	0.000561381	0	0	0	
0.1555	-0.00946017	0.00407475	0.000294364	0.000360759	0	0	0	
0.155667	0.010375	0.0166356	0.000241734	0.000353195	0	0	0	
0.155833	-0.00389969	-0.0283297	0.000183661	0.000365015	0	0	0	
0.156	0.000517399	0.00249929	0.000131101	0.000440625	0	0	0	
0.156167	-0.00200347	0.00815152	0.000103576	0.000311384	0	0	0	
0.156333	0.00700902	0.000323084	0.000106333	0.000261348	0	0	0	
0.1565	-0.00529896	-0.0129999	0.000122388	0.000277829	0	0	0	
0.156667	-0.000453088	0.00628172	0.000170347	0.000284084	0	0	0	
0.156833	0.00313315	-0.0034902	0.000176628	0.000206849	0	0	0	
0.157	-0.00127122	0.00219021	0.000159092	0.000133723	0	0	0	
0.157167	0.003855	-0.00202671	9.42079E-05	8.30161E-05	0	0	0	
0.157333	-0.00374657	-0.00517679	6.28304E-05	7.29571E-05	0	0	0	
0.1575	-0.000377841	-0.00108541	8.8455E-05	5.17087E-05	0	0	0	
0.157667	0.00294946	0.00057893	9.99871E-05	4.84205E-05	0	0	0	
0.157833	-0.001927	0.00158484	9.05649E-05	7.96318E-05	0	0	0	
0.158	0.00521727	-0.00914259	6.93908E-05	0.000105962	0	0	0	
0.158167	-0.00468764	0.00545849	7.92438E-05	0.000156376	0	0	0	
0.158333	0.00368237	-0.0101391	9.7988E-05	0.000152359	0	0	0	
0.1585	-0.00363353	0.00982506	8.90989E-05	0.000166477	0	0	0	
0.158667	-0.000343459	-0.00312912	7.13781E-05	0.000195093	0	0	0	
0.158833	0.00463653	-0.0130936	7.78046E-05	0.000244389	0	0	0	
0.159	-0.00243149	0.00736337	8.73261E-05	0.000239597	0	0	0	
0.159167	0.000504074	0.00312436	8.86781E-05	0.000244595	0	0	0	
0.159333	-0.000700432	-0.00759459	6.29691E-05	0.000175908	0	0	0	
0.1595	0.00326817	-0.00287026	5.69724E-05	0.000178303	0	0	0	
0.159667	-0.000760648	-8.8153E-05	5.06741E-05	9.54451E-05	0	0	0	
0.159833	-0.00126188	0.00685767	4.43171E-05	0.000122175	0	0	0	
0.16	0.00106418	-0.00955711	3.77504E-05	0.000123444	0	0	0	
0.160167	0.00431124	-0.00511973	3.65323E-05	0.000228751	0	0	0	
0.160333	-0.00303861	0.00495209	8.15537E-05	0.000219701	0	0	0	
0.1605	-0.00541174	0.000559244	0.000170699	0.000211921	0	0	0	
0.160667	0.0182811	-0.00570057	0.000259061	0.000129466	0	0	0	
0.160833	-0.0297366	-0.00250806	0.00035608	0.00010245	0	0	0	
0.161	0.0375871	-0.00134409	0.00045896	6.94434E-05	0	0	0	
0.161167	-0.0264149	-0.000622261	0.000594686	4.79573E-05	0	0	0	
0.161333	-0.00224613	0.00840467	0.000748522	4.63045E-05	0	0	0	
0.1615	0.0212581	-0.0125052	0.000810572	0.000129298	0	0	0	
0.161667	-0.0158035	-0.00483507	0.000702847	0.000350768	0	0	0	
0.161833	0.00697249	0.0170913	0.000475228	0.000594328	0	0	0	
0.162	-0.00968294	-0.0209354	0.000298845	0.000685295	0	0	0	
0.162167	0.0160906	0.0202574	0.000235034	0.000624479	0	0	0	
0.162333	0.00821992	-0.0217449	0.000299008	0.000522788	0	0	0	
0.1625	-0.0157193	0.00209241	0.000459652	0.000395406	0	0	0	
0.162667	0.0121829	0.0241049	0.000578038	0.000313521	0	0	0	
0.162833	0.01322	-0.0186101	0.000501806	0.000342436	0	0	0	
0.163	-0.00529236	-0.0129854	0.000331875	0.000599874	0	0	0	
0.163167	-0.0548796	0.0211481	0.000524836	0.000773859	0	0	0	
0.163333	0.0634226	-0.0455007	0.000824175	0.000928205	0	0	0	
0.1635	0.0177951	0.125512	0.00115434	0.00103462	0	0	0	
0.163667	-0.0597572	-0.071114	0.00118163	0.00153461	0	0	0	
0.163833	0.0444899	-0.0961149	0.00116167	0.00253749	0	0	0	
0.164	-0.0451812	0.22318	0.0010148	0.00316847	0	0	0	
0.164167	0.0197031	-0.101306	0.000807566	0.00334422	0	0	0	
0.164333	-0.0197847	-0.00440553	0.00076763	0.00284724	0	0	0	
0.1645	0.00280294	0.0266204	0.000854786	0.00236828	0	0	0	
0.164667	-0.0306857	-0.0765001	0.000970561	0.00232786	0	0	0	
0.164833	0.0213418	0.201395	0.000881778	0.00252682	0	0	0	
0.165	0.00647203	-0.028664	0.000629279	0.00253164	0	0	0	
0.165167	0.00554192	-0.0271471	0.000422565	0.00284142	0	0	0	
0.165333	0.00232043	0.0363253	0.000347509	0.002353	0	0	0	
0.1655	-0.00993759	-0.0112009	0.000464174	0.00204426	0	0	0	
0.165667	-0.0426085	0.0144564	0.00054883	0.000931529	0	0	0	
0.165833	0.0656195	-0.0170787	0.000899285	0.000527626	0	0	0	
0.166	-0.00828044	0.0994596	0.000824671	0.000822123	0	0	0	
0.166167	-0.0232016	-0.0036473	0.00111146	0.00118231	0	0	0	
0.166333	0.048497	-0.00532163	0.000890366	0.00126619	0	0	0	
0.1665	0.0178337	-0.0417934	0.000893355	0.000853462	0	0	0	
0.166667	-0.0470691	0.0219737	0.000647105	0.000614518	0	0	0	
0.166833	0.00372948	0.0102732	0.0006684	0.000460875	0	0	0	
0.167	0.0182491	0.01603	0.00067415	0.000390473	0	0	0	
0.167167	0.00734653	-0.0138423	0.000491334	0.000296807	0	0	0	
0.167333	-0.0149655	-0.0291142	0.000314791	0.000411555	0	0	0	
0.1675	0.0217811	0.0226624	0.000287869	0.000427267	0	0	0	
0.167667	-0.0368371	0.00841128	0.000532446	0.00070723	0	0	0	
0.167833	0.0442783	-0.0244211	0.000690181	0.000847712	0	0	0	
0.168	-0.0176757	-0.0050821	0.000800949	0.000791169	0	0	0	
0.168167	-0.0274285	0.0201026	0.00089213	0.000534297	0	0	0	
0.168333	0.0688072	-0.0304307	0.000849834	0.000408712	0	0	0	
0.1685	-0.0181908	-0.00537752	0.00100539	0.000440042	0	0	0	
0.168667	-0.000526663	-0.0291844	0.00104552	0.000374997	0	0	0	
0.168833	0.0211319	0.0289974	0.00094657	0.000372076	0	0	0	
0.169	0.00844088	0.00453029	0.000643249	0.000477514	0	0	0	
0.169167	-0.0020835	-0.0104718	0.0002748	0.000467277	0	0	0	
0.169333	0.0137655	-0.0197308	0.000226252	0.000444333	0	0	0	
0.1695	-0.00120602	-0.00910837	0.000281441	0.000415649	0	0	0	
0.169667	0.0234677	-0.0147505	0.000314775	0.000487164	0	0	0	
0.169833	0.0289471	0.038466	0.000504434	0.000568217	0	0	0	
0.17	-0.0224072	-0.0329257	0.000647304	0.000632685	0	0	0	
0.170167	0.0121989	0.00820366	0.000670418	0.00063772	0	0	0	
0.170333	0.0193839	-0.0157154	0.000567855	0.00052501	0	0	0	
0.1705	-0.0159226	0.0341381	0.000381504	0.000552045	0	0	0	
0.170667	0.00929057	-0.00751074	0.000362662	0.000510863	0	0	0	
0.170833	-0.0149769	-0.0285288	0.000276033	0.000460594	0	0	0	
0.171	0.0270849	0.00830268	0.00030455	0.000422707	0	0	0	
0.171167	-0.00956532	0.014129	0.000346736	0.000573408	0	0	0	
0.171333	0.00713968	0.00121366	0.000432787	0.000532745	0	0	0	
0.1715	-0.00943264	-0.0126644	0.000455961	0.000398227	0	0	0	
0.171667	-0.000466399	-0.0145991	0.000441658	0.000406007	0	0	0	
0.171833	0.0166285	0.0325781	0.000391838	0.000576057	0	0	0	
0.172	-0.015711	-0.0139247	0.000337201	0.000643566	0	0	0	
0.172167	0.00363851	-0.0137816	0.000298871	0.000516593	0	0	0	
0.172333	0.0138279	0.00348928	0.00023862	0.000402241	0	0	0	
0.1725	-0.00919535	0.0201575	0.000234065	0.000499777	0	0	0	
0.172667	0.00253102	-0.0200034	0.000193	0.000513722	0	0	0	
0.172833	-0.00145508	0.00588855	0.000184384	0.000464572	0	0	0	
0.173	0.00391865	-0.00601789	0.000125081	0.000277653	0	0	0	
0.173167	0.00518127	0.00304123	0.000163859	0.000151317	0	0	0	
0.173333	-0.00741553	0.00927415	0.000169825	0.000131847	0	0	0	
0.1735	-0.00320167	-0.0160542	0.000302688	0.00016012	0	0	0	
0.173667	0.0116521	0.00113543	0.000302947	0.000293943	0	0	0	
0.173833	0.00507543	0.0146544	0.000317281	0.000396713	0	0	0	
0.174	-0.0117878	-0.0149209	0.000216713	0.000409027	0	0	0	
0.174167	0.0043795	0.00689657	0.000201303	0.000321475	0	0	0	
0.174333	-0.000694889	-0.00125728	0.000186624	0.000227524	0	0	0	
0.1745	0.00574729	-0.00483482	0.00013731	0.000169116	0	0	0	
0.174667	-0.00269008	0.00184837	0.000111503	0.000117693	0	0	0	
0.174833	0.00866846	0.00242237	0.0001258	8.25879E-05	0	0	0	
0.175	-0.00384461	-0.00802941	0.000167627	0.000100427	0	0	0	
0.175167	0.00199807	0.011984	0.000153168	0.000141451	0	0	0	
0.175333	0.00173806	-0.00836219	0.000136222	0.000190949	0	0	0	
0.1755	0.00563338	-0.00675513	0.000142792	0.000249236	0	0	0	
0.175667	-0.00132408	0.0116696	0.000178532	0.000259173	0	0	0	
0.175833	0.0110276	-0.00919554	0.000160044	0.000255062	0	0	0	
0.176	-0.00150809	0.00206732	0.000155512	0.000234331	0	0	0	
0.176167	-0.00215729	0.00506398	0.000120443	0.000281641	0	0	0	
0.176333	-0.00322386	-0.0181668	0.000103372	0.000338702	0	0	0	
0.1765	-0.00418725	0.0227358	5.73622E-05	0.0003821	0	0	0	
0.176667	0.0135356	-0.0150469	0.000111927	0.00038937	0	0	0	
0.176833	0.00338845	-0.00209831	0.000232027	0.0003677	0	0	0	
0.177	-0.0244875	0.0114288	0.000352633	0.000310449	0	0	0	
0.177167	0.0194165	-0.0142383	0.000416708	0.000266669	0	0	0	
0.177333	0.000226115	0.00982209	0.000606006	0.000255389	0	0	0	
0.1775	-0.031135	-0.00347291	0.000734079	0.000327422	0	0	0	
0.177667	0.0407394	-0.00836339	0.000845268	0.000434279	0	0	0	
0.177833	-0.0108383	0.0172224	0.000711333	0.000492361	0	0	0	
0.178	-0.0136407	-0.0175843	0.000676502	0.00045139	0	0	0	
0.178167	0.0290049	0.00244477	0.000630072	0.000373513	0	0	0	
0.178333	-0.0427827	0.0116204	0.000629337	0.000362138	0	0	0	
0.1785	0.0240045	-0.0222547	0.00065669	0.000365611	0	0	0	
0.178667	0.0093123	0.0165931	0.000657953	0.000371224	0	0	0	
0.178833	-0.0146808	-0.00397553	0.000577733	0.000359449	0	0	0	
0.179	0.0103723	-0.0102312	0.000437374	0.000375571	0	0	0	
0.179167	-0.00451356	0.0136096	0.000342571	0.000340787	0	0	0	
0.179333	-0.00174282	-0.0117976	0.000303704	0.000298864	0	0	0	
0.1795	-0.00028379	-0.00299843	0.000218426	0.000305112	0	0	0	
0.179667	0.00029709	0.0151545	0.000139706	0.000347566	0	0	0	
0.179833	-0.0122832	-0.0153227	0.000154651	0.000347431	0	0	0	
0.18	0.0205574	0.00863954	0.000231817	0.000307063	0	0	0	
0.180167	-0.0121263	-0.00363123	0.00028162	0.000274085	0	0	0	
0.180333	-0.00307939	-0.00701515	0.000266486	0.00026515	0	0	0	
0.1805	0.00607652	0.0126884	0.000198001	0.000237967	0	0	0	
0.180667	-0.00675489	-0.00618075	0.000301963	0.000229276	0	0	0	
0.180833	-0.0178689	-0.00959647	0.00040021	0.000280341	0	0	0	
0.181	0.0152595	0.0144485	0.000464298	0.000298753	0	0	0	
0.181167	-0.00204298	-0.00420968	0.000355119	0.000282811	0	0	0	
0.181333	-0.00105695	-0.00984463	0.000224202	0.00022982	0	0	0	
0.1815	-0.00249132	0.0191713	0.000152435	0.000242307	0	0	0	
0.181667	-0.018125	-0.0242838	0.000190178	0.000315841	0	0	0	
0.181833	0.0249972	0.0143903	0.00037506	0.00037814	0	0	0	
0.182	-0.0228126	0.00603189	0.00045868	0.000462033	0	0	0	
0.182167	-0.01015	-0.0177443	0.000580732	0.0004439	0	0	0	
0.182333	0.0260715	0.0147227	0.000574669	0.000390754	0	0	0	
0.1825	-0.0143391	-0.00723806	0.000593036	0.000358704	0	0	0	
0.182667	0.00937431	-0.00502068	0.000418994	0.000418644	0	0	0	
0.182833	-0.0186823	0.015256	0.000304892	0.000470136	0	0	0	
0.183	0.0207953	-0.00812535	0.000296823	0.000390482	0	0	0	
0.183167	-0.0060778	-0.0154306	0.000342143	0.000374913	0	0	0	
0.183333	-0.00647208	0.0159774	0.0003208	0.000310623	0	0	0	
0.1835	0.0211844	0.0084146	0.00029304	0.000413174	0	0	0	
0.183667	-0.0251909	-0.0124857	0.000337746	0.000303432	0	0	0	
0.183833	0.0216387	-0.0159132	0.000406576	0.000426906	0	0	0	
0.184	0.00789559	0.0208259	0.000558301	0.00036576	0	0	0	
0.184167	-0.0244677	0.00901834	0.000574973	0.000479115	0	0	0	
0.184333	0.0193015	-0.0164022	0.000551526	0.000367195	0	0	0	
0.1845	-0.00742066	-0.00573555	0.000406539	0.00036071	0	0	0	
0.184667	0.0105445	-0.00298197	0.00032885	0.000272715	0	0	0	
0.184833	0.00796528	0.0356216	0.000402065	0.000411587	0	0	0	
0.185	-0.0326228	-0.0348226	0.000502478	0.000518478	0	0	0	
0.185167	0.0177124	-0.00716835	0.000559151	0.000776613	0	0	0	
0.185333	0.0144312	0.0219386	0.000631237	0.000731349	0	0	0	
0.1855	-0.0232679	-0.00368229	0.000560949	0.000620168	0	0	0	
0.185667	0.00040506	-0.00582545	0.000498936	0.00033417	0	0	0	
0.185833	0.00279103	-0.0146638	0.000246556	0.000236452	0	0	0	
0.186	0.0114888	0.0143583	0.000228432	0.000220698	0	0	0	
0.186167	-0.0145514	-0.00281162	0.000188371	0.000294989	0	0	0	
0.186333	-0.00455698	-0.0136969	0.000282706	0.00036512	0	0	0	
0.1865	0.00459113	0.0134251	0.000236111	0.000410975	0	0	0	
0.186667	0.00254605	-0.0184552	0.000223608	0.000391971	0	0	0	
0.186833	-0.00179155	0.0302792	0.000130997	0.000412906	0	0	0	
0.187	-0.0088413	-0.0290347	0.000134969	0.000454289	0	0	0	
0.187167	0.00792043	0.0317838	0.000164062	0.000557672	0	0	0	
0.187333	0.0071236	-0.000124883	0.000238673	0.000581147	0	0	0	
0.1875	-0.00693421	-0.0232989	0.000206255	0.000606665	0	0	0	
0.187667	-0.00503804	0.0217276	0.000182896	0.000526269	0	0	0	
0.187833	9.25195E-05	-0.00612016	0.000128304	0.000441131	0	0	0	
0.188	0.0126544	0.00792196	0.000231919	0.000364755	0	0	0	
0.188167	-0.019023	0.004809	0.00028067	0.00026327	0	0	0	
0.188333	0.00389689	0.00214704	0.000327254	0.000182358	0	0	0	
0.1885	0.00515085	-0.00660733	0.000231937	0.000119825	0	0	0	
0.188667	-0.000471322	0.00326462	0.00016878	0.000150092	0	0	0	
0.188833	-0.000408374	-0.00649293	9.99137E-05	0.000155305	0	0	0	
0.189	-0.010225	-0.00653109	8.04828E-05	0.000178222	0	0	0	
0.189167	0.00121459	0.00994036	9.92878E-05	0.000198854	0	0	0	
0.189333	-0.00272276	-0.0123785	0.000116233	0.000242463	0	0	0	
0.1895	0.00416117	0.00304816	0.000133155	0.00023008	0	0	0	
0.189667	-0.00692707	-0.00671254	9.84136E-05	0.000243452	0	0	0	
0.189833	-0.000239272	-0.00399312	0.000105723	0.00022719	0	0	0	
0.19	0.00220846	0.00893827	8.30956E-05	0.000204438	0	0	0	
0.190167	-0.0018026	-0.0111013	7.99211E-05	0.000196653	0	0	0	
0.190333	0.00283385	0.00647326	7.13366E-05	0.000224954	0	0	0	
0.1905	-0.00580765	8.97005E-05	8.61627E-05	0.000236617	0	0	0	
0.190667	0.00965379	-0.000490255	0.000137566	0.000169459	0	0	0	
0.190833	-0.0052006	0.00623862	0.00013248	0.000139831	0	0	0	
0.191	0.00417178	-0.00722091	0.00013523	0.000373625	0	0	0	
0.191167	-0.00336383	0.0134691	9.35368E-05	0.0006269	0	0	0	
0.191333	0.00182438	-0.0101342	7.87907E-05	0.000664195	0	0	0	
0.1915	-0.00014636	-0.00427307	5.5163E-05	0.000591636	0	0	0	
0.191667	0.000720604	-0.0157499	4.54211E-05	0.000542297	0	0	0	
0.191833	0.00147901	-0.00839995	4.53642E-05	0.000520441	0	0	0	
0.192	0.00198567	0.0231446	3.89848E-05	0.000388222	0	0	0	
0.192167	-0.00144748	-0.02829	5.28775E-05	0.000406237	0	0	0	
0.192333	0.000611585	0.00827218	5.9404E-05	0.000481017	0	0	0	
0.1925	0.00513447	0.0145696	7.14938E-05	0.000613139	0	0	0	
0.192667	0.00224961	-0.0396346	0.000120141	0.000592526	0	0	0	
0.192833	-0.0177194	-0.00497069	0.000222225	0.000554399	0	0	0	
0.193	0.0136464	0.00324532	0.000282669	0.000360979	0	0	0	
0.193167	0.00355484	0.00641551	0.000317415	0.000329361	0	0	0	
0.193333	0.00230398	-0.0184069	0.000223136	0.000379123	0	0	0	
0.1935	-0.00153202	0.00170902	0.000196203	0.000428773	0	0	0	
0.193667	0.00158743	0.0337002	9.97478E-05	0.000374565	0	0	0	
0.193833	0.0037007	-0.034475	0.000168047	0.000450482	0	0	0	
0.194	0.0138408	0.00811411	0.000332032	0.000815017	0	0	0	
0.194167	-0.0266454	0.00364206	0.000463691	0.0010183	0	0	0	
0.194333	0.00813462	-0.00177853	0.000472495	0.00083404	0	0	0	
0.1945	0.0101883	-0.00391607	0.000304479	0.000451185	0	0	0	
0.194667	-0.0069999	0.0069462	0.000209816	0.00019659	0	0	0	
0.194833	0.00947285	-0.0277574	0.000168019	0.000383451	0	0	0	
0.195	-0.0122171	0.0682311	0.000204152	0.000685604	0	0	0	
0.195167	0.00236213	-0.0522877	0.000255134	0.000995376	0	0	0	
0.195333	0.00370352	0.000878767	0.000324274	0.00101174	0	0	0	
0.1955	-0.0125757	0.0036277	0.000334296	0.000702129	0	0	0	
0.195667	0.00463008	0.0152861	0.000279682	0.000397833	0	0	0	
0.195833	-0.00133613	-0.00776598	0.000176115	0.000218851	0	0	0	
0.196	0.00379671	0.00344984	0.000122197	0.000197679	0	0	0	
0.196167	-0.0102288	-0.016985	0.000154444	0.00020961	0	0	0	
0.196333	0.00335811	0.00839541	0.000144154	0.000203286	0	0	0	
0.1965	0.00788734	0.0164436	0.000176847	0.000382216	0	0	0	
0.196667	-0.00991972	-0.0152657	0.000158096	0.000369934	0	0	0	
0.196833	-0.00450628	-0.00459669	0.000205435	0.000451067	0	0	0	
0.197	0.0077612	0.00695284	0.000180659	0.000289832	0	0	0	
0.197167	-0.00223405	0.00629142	0.000161462	0.000247751	0	0	0	
0.197333	0.0066038	0.00163945	0.000151217	0.00014036	0	0	0	
0.1975	-0.0200429	-0.013485	0.000204368	0.000150033	0	0	0	
0.197667	0.0115978	-0.004531	0.000254972	0.000213704	0	0	0	
0.197833	0.0028714	0.0161543	0.000315371	0.000266208	0	0	0	
0.198	-0.0089151	-0.00574629	0.000240696	0.000278585	0	0	0	
0.198167	-0.00499321	0.00150053	0.000237801	0.000233606	0	0	0	
0.198333	0.00886612	-0.00354335	0.000198017	0.000172566	0	0	0	
0.1985	-0.00664239	0.00418254	0.000225461	0.00013136	0	0	0	
0.198667	0.000590801	-0.00624672	0.000161515	0.000111517	0	0	0	
0.198833	-0.000608647	0.00975989	9.85791E-05	0.00013508	0	0	0	
0.199	-0.00472834	-0.0120542	7.78592E-05	0.000173346	0	0	0	
0.199167	0.00420861	0.00636912	9.7873E-05	0.000204531	0	0	0	
0.199333	-0.000225403	0.00411076	9.87578E-05	0.000167613	0	0	0	
0.1995	-0.00604485	0.00191935	0.000118631	0.000179561	0	0	0	
0.199667	0.00814608	-0.00898653	0.000114494	0.000209983	0	0	0	
0.199833	-0.00184006	0.0137435	0.000134343	0.000277114	0	0	0	
0.2	0.00567456	-0.0171746	0.000114233	0.000318915	0	0	0	
0.200167	-0.00631916	0.022641	0.0001167	0.000332126	0	0	0	
0.200333	0.00132328	-0.0122832	0.000116112	0.000357104	0	0	0	
0.2005	0.00683714	-0.00439533	0.000103984	0.000398782	0	0	0	
0.200667	0.00209962	0.0096609	8.40501E-05	0.000338401	0	0	0	
0.200833	0.00515461	0.009362	7.71179E-05	0.000307927	0	0	0	
0.201	-0.0161448	-0.0143636	0.000147254	0.000217284	0	0	0	
0.201167	0.0188039	-0.00926126	0.00022628	0.000336191	0	0	0	
0.201333	-5.49788E-05	0.0254372	0.000326131	0.000362401	0	0	0	
0.2015	-0.013103	-0.00604508	0.000302642	0.000474425	0	0	0	
0.201667	0.00913373	-0.0175342	0.000305374	0.0005063	0	0	0	
0.201833	0.00370218	0.0221279	0.000259327	0.000506655	0	0	0	
0.202	0.00103936	-0.0163951	0.000199109	0.000457335	0	0	0	
0.202167	-0.00686216	0.0247551	0.000115291	0.000370218	0	0	0	
0.202333	0.00413284	-0.0178115	8.76407E-05	0.00039941	0	0	0	
0.2025	4.56E-05	-0.0106583	0.000140116	0.000510809	0	0	0	
0.202667	-0.000704957	0.0217612	0.00014982	0.000552869	0	0	0	
0.202833	-0.000250322	-0.00452697	0.00011437	0.000479784	0	0	0	
0.203	-0.00241998	-0.00416416	6.5374E-05	0.000350138	0	0	0	
0.203167	-0.00316293	0.0072034	5.79084E-05	0.000231722	0	0	0	
0.203333	0.00595203	-0.00212738	7.55322E-05	0.000191422	0	0	0	
0.2035	-0.00365315	-0.00443763	8.48942E-05	0.000124833	0	0	0	
0.203667	-0.000989418	0.00750838	9.52173E-05	0.000107898	0	0	0	
0.203833	0.0037413	0.00323405	8.65942E-05	0.000164939	0	0	0	
0.204	-0.000807825	-0.0114889	0.000100289	0.000225407	0	0	0	
0.204167	-0.00113705	0.0106254	9.5086E-05	0.000257023	0	0	0	
0.204333	0.00227826	-0.00302843	8.95952E-05	0.000214089	0	0	0	
0.2045	-0.00497325	0.00369018	8.06249E-05	0.000130412	0	0	0	
0.204667	0.00139269	0.0010374	7.5862E-05	9.66834E-05	0	0	0	
0.204833	0.00671472	-0.00895781	9.71471E-05	0.000108447	0	0	0	
0.205	-0.00571349	0.0140136	0.000103001	0.000145811	0	0	0	
0.205167	-0.000206891	-0.00185147	0.000151987	0.000232131	0	0	0	
0.205333	0.00772911	-0.00664766	0.000159049	0.000279705	0	0	0	
0.2055	-0.00728951	0.00455476	0.000168463	0.000243998	0	0	0	
0.205667	0.000211097	0.0047991	0.000150368	0.0001521	0	0	0	
0.205833	0.00268531	-0.000723702	0.000143027	9.54334E-05	0	0	0	
0.206	-0.00754022	-0.00431224	0.000137854	0.000151965	0	0	0	
0.206167	0.00453557	0.00553545	0.000116908	0.000171899	0	0	0	
0.206333	-0.00180617	-0.00273877	0.000115231	0.000148515	0	0	0	
0.2065	-0.00764988	0.00892085	0.000136067	0.000105526	0	0	0	
0.206667	0.00844553	0.00170163	0.000150072	0.000141175	0	0	0	
0.206833	-0.00454636	-0.0166448	0.000164548	0.000248671	0	0	0	
0.207	-0.000932386	0.0229526	0.000166893	0.000318019	0	0	0	
0.207167	0.000624282	-0.00605627	0.000153823	0.000378082	0	0	0	
0.207333	0.000894708	-0.00475268	0.000114565	0.00036537	0	0	0	
0.2075	-0.00089833	0.00393515	7.51151E-05	0.000306032	0	0	0	
0.207667	-0.00600052	-0.0014517	5.84322E-05	0.000244071	0	0	0	
0.207833	-0.000748946	0.0133054	8.43504E-05	0.000235038	0	0	0	
0.208	0.00888094	-0.0106032	0.000153455	0.000269924	0	0	0	
0.208167	-0.0151147	0.00402974	0.000209435	0.000240809	0	0	0	
0.208333	0.0120222	-6.54416E-05	0.000260707	0.000148784	0	0	0	
0.2085	0.00206941	0.00303038	0.000234481	7.39526E-05	0	0	0	
0.208667	-0.00627065	0.00814117	0.000184485	8.32303E-05	0	0	0	
0.208833	0.00368196	-0.0169456	0.000130995	0.000152849	0	0	0	
0.209	-0.00217724	0.0144767	8.70095E-05	0.000254075	0	0	0	
0.209167	0.00604809	0.00398708	8.51294E-05	0.000357987	0	0	0	
0.209333	-0.00988806	-0.00839547	0.000105819	0.000362276	0	0	0	
0.2095	0.000931355	0.00523819	0.000220795	0.000288679	0	0	0	
0.209667	0.011953	-0.00140047	0.000345683	0.000153399	0	0	0	
0.209833	-0.011836	0.00627346	0.000337089	8.14026E-05	0	0	0	
0.21	0.00449712	0.00497194	0.000295764	0.000108669	0	0	0	
0.210167	0.00368908	-0.00956636	0.000173321	0.00013965	0	0	0	
0.210333	0.00294953	-0.00264061	0.000169608	0.000213431	0	0	0	
0.2105	-0.00442459	0.0205011	0.000107087	0.000258264	0	0	0	
0.210667	-0.00378522	-0.0150421	0.000117384	0.000314595	0	0	0	
0.210833	0.00389292	0.00780057	0.000120016	0.000311308	0	0	0	
0.211	-0.000720858	-0.00378885	0.000120138	0.000267283	0	0	0	
0.211167	-0.00373041	-0.00363687	0.000139916	0.000235613	0	0	0	
0.211333	-0.00254886	0.0175721	0.000108172	0.000198986	0	0	0	
0.2115	0.0111454	-0.00811685	0.000117335	0.000268421	0	0	0	
0.211667	0.000692974	-0.0102716	0.000170624	0.000421773	0	0	0	
0.211833	-0.017014	0.0218257	0.000256301	0.000535473	0	0	0	
0.212	0.00622869	-0.0161968	0.000280809	0.000517966	0	0	0	
0.212167	0.0027426	0.0111564	0.000253256	0.000370026	0	0	0	
0.212333	-0.0023276	0.00111793	0.000168264	0.000286788	0	0	0	
0.2125	-0.00142935	-0.0122898	0.000131349	0.000263979	0	0	0	
0.212667	-0.0045024	0.0150054	6.48828E-05	0.000255012	0	0	0	
0.212833	0.00287949	0.000654904	8.6269E-05	0.000272633	0	0	0	
0.213	0.0100239	-0.000526736	0.000125141	0.000240122	0	0	0	
0.213167	-0.00794531	-0.000724543	0.000173644	0.000168276	0	0	0	
0.213333	-0.00337434	0.00128856	0.000236948	0.000121337	0	0	0	
0.2135	0.0123381	0.0056524	0.000214939	0.000139946	0	0	0	
0.213667	-0.000614995	0.00317467	0.000218931	0.000162385	0	0	0	
0.213833	-0.00389428	-0.00543184	0.000164414	0.000139343	0	0	0	
0.214	0.00145284	-0.00243516	0.000130374	0.00014126	0	0	0	
0.214167	-0.00547376	0.0044106	0.000100141	0.000132128	0	0	0	
0.214333	0.0105854	0.0170267	0.000118487	0.000207046	0	0	0	
0.2145	-0.00595127	-0.00975805	0.000158794	0.000197182	0	0	0	
0.214667	-0.00273307	-0.0119645	0.000183659	0.000383525	0	0	0	
0.214833	0.00916792	0.017344	0.000154247	0.000365111	0	0	0	
0.215	-0.00863807	0.00457938	0.000175339	0.000467685	0	0	0	
0.215167	-0.000932944	-0.0119918	0.000189129	0.000415487	0	0	0	
0.215333	-0.00118282	0.0110947	0.00019504	0.000429747	0	0	0	
0.2155	0.00909228	-0.0228908	0.000159606	0.00041077	0	0	0	
0.215667	-0.0144446	0.0355581	0.000152642	0.000423194	0	0	0	
0.215833	0.00222658	-0.00474948	0.000227392	0.000564625	0	0	0	
0.216	0.010349	-0.0256387	0.000315769	0.000632579	0	0	0	
0.216167	-0.00822783	0.0159223	0.0002915	0.000605855	0	0	0	
0.216333	-0.0036296	0.00792042	0.000259424	0.000537108	0	0	0	
0.2165	0.0110106	-0.000502699	0.000184871	0.000341504	0	0	0	
0.216667	-0.00538416	-0.00235765	0.000196113	0.000208105	0	0	0	
0.216833	-0.00407749	-0.0134397	0.000136405	0.000132768	0	0	0	
0.217	0.00157686	0.0170026	0.000111511	0.000195789	0	0	0	
0.217167	0.00187897	0.00920055	7.44246E-05	0.00037201	0	0	0	
0.217333	0.00284104	-0.00833863	8.02703E-05	0.000325484	0	0	0	
0.2175	-0.00873001	-0.0185837	7.92822E-05	0.000388685	0	0	0	
0.217667	-0.00419689	0.0265443	0.000157562	0.000340704	0	0	0	
0.217833	0.0142645	-0.00395689	0.000210521	0.0004312	0	0	0	
0.218	-0.00554964	0.00768108	0.000295699	0.000333508	0	0	0	
0.218167	-0.0115029	-0.0212472	0.00035115	0.000308064	0	0	0	
0.218333	0.000979838	0.0148065	0.000309127	0.000285854	0	0	0	
0.2185	0.0151251	0.0064637	0.000266901	0.000362981	0	0	0	
0.218667	-0.00599895	-4.70108E-06	0.000205968	0.00028556	0	0	0	
0.218833	-0.0112241	-0.00994161	0.000281588	0.000254424	0	0	0	
0.219	0.00466337	0.00470056	0.000252715	0.00016853	0	0	0	
0.219167	0.00509669	0.00666559	0.000250431	0.000170027	0	0	0	
0.219333	-0.00596102	0.00844435	0.000170525	0.000167172	0	0	0	
0.2195	0.0044147	-0.0131289	0.000160218	0.000201827	0	0	0	
0.219667	-0.00439195	0.00226655	0.000105799	0.00025841	0	0	0	
0.219833	0.0022794	0.0073954	8.49666E-05	0.000244493	0	0	0	
0.22	0.00222338	0.00336077	9.5771E-05	0.000187014	0	0	0	
0.220167	-0.00557569	-0.000886997	9.20159E-05	0.000142598	0	0	0	
0.220333	0.00756468	-0.011415	0.000106734	0.000176101	0	0	0	
0.2205	-0.00531304	0.017622	0.000118751	0.000227972	0	0	0	
0.220667	-0.00810178	-0.00128028	0.000163255	0.000282263	0	0	0	
0.220833	0.0139688	-0.00630219	0.000196633	0.000240962	0	0	0	
0.221	-0.0060551	0.00646743	0.00022511	0.000216427	0	0	0	
0.221167	-0.00118148	0.000462903	0.00022973	0.000189385	0	0	0	
0.221333	0.00198475	-0.000858816	0.000207302	0.000163535	0	0	0	
0.2215	-0.00979866	0.00162616	0.000197539	0.000148819	0	0	0	
0.221667	0.0128355	0.000461719	0.000183569	0.000138278	0	0	0	
0.221833	-0.00213894	0.00457801	0.000233828	0.000160925	0	0	0	
0.222	-0.0179397	-0.0027002	0.000296054	0.000171085	0	0	0	
0.222167	0.0191856	0.00388704	0.0003329	0.000124897	0	0	0	
0.222333	-0.00865876	0.000517878	0.000346404	0.000106482	0	0	0	
0.2225	-0.00427942	-0.00338765	0.000328241	0.000144046	0	0	0	
0.222667	0.00961358	0.0113641	0.000348942	0.000231956	0	0	0	
0.222833	-0.0187428	-0.0117572	0.000350857	0.000293697	0	0	0	
0.223	0.013719	0.0151079	0.000333212	0.00029084	0	0	0	
0.223167	-0.00284018	-0.00662267	0.000344219	0.000256689	0	0	0	
0.223333	-0.0111088	-0.00667149	0.000369799	0.000256272	0	0	0	
0.2235	0.00268077	0.0208044	0.000323221	0.000265472	0	0	0	
0.223667	-0.00647734	-0.0147933	0.00024577	0.000312765	0	0	0	
0.223833	0.0527684	0.00512285	0.000440615	0.000319972	0	0	0	
0.224	-0.0633406	-0.00263166	0.000723248	0.000259708	0	0	0	
0.224167	-0.000404323	0.0113381	0.001132	0.000189392	0	0	0	
0.224333	0.062339	0.000660368	0.00120488	0.000131274	0	0	0	
0.2245	-0.0425507	-0.00466897	0.00131722	0.000138282	0	0	0	
0.224667	-0.108281	-0.0050817	0.00154505	0.000164009	0	0	0	
0.224833	0.047283	0.00519282	0.00233271	0.000137664	0	0	0	
0.225	0.0162404	0.0207193	0.00283372	0.000250743	0	0	0	
0.225167	0.0599862	-0.0254933	0.00268106	0.000310719	0	0	0	
0.225333	-0.0502643	0.00249303	0.00187076	0.000465807	0	0	0	
0.2255	-0.025444	0.0133678	0.00147411	0.000421301	0	0	0	
0.225667	0.0357134	-0.00403552	0.00133469	0.000341322	0	0	0	
0.225833	-0.157858	0.00745429	0.00184224	0.000200202	0	0	0	
0.226	0.0887282	-0.0168472	0.00256666	0.000176664	0	0	0	
0.226167	0.0190367	0.00689699	0.00244542	0.000205868	0	0	0	
0.226333	-0.00244311	0.0143875	0.00168222	0.000270489	0	0	0	
0.2265	0.00387776	-0.0119077	0.000503738	0.00026164	0	0	0	
0.226667	-0.0210808	-0.00552565	0.000351144	0.000369781	0	0	0	
0.226833	0.0232337	0.0160351	0.00035584	0.000399261	0	0	0	
0.227	-0.0242646	0.000424755	0.00043637	0.000363741	0	0	0	
0.227167	0.000401888	-0.0145294	0.000508385	0.000237555	0	0	0	
0.227333	-0.0196901	0.0143133	0.000549196	0.000198659	0	0	0	
0.2275	0.0423703	-0.00918002	0.000567039	0.000245278	0	0	0	
0.227667	0.00136997	0.0183742	0.00052711	0.000275135	0	0	0	
0.227833	-0.024604	-0.00280987	0.000475216	0.000329729	0	0	0	
0.228	-0.00412765	-0.0233285	0.000584897	0.000494762	0	0	0	
0.228167	0.0370879	0.0252248	0.000825361	0.000532757	0	0	0	
0.228333	-0.0367455	0.0105214	0.000870552	0.000603301	0	0	0	
0.2285	0.0221945	-0.0224299	0.00082221	0.000471976	0	0	0	
0.228667	0.00423718	0.00578414	0.000490522	0.000472265	0	0	0	
0.228833	-0.0238119	-0.0031872	0.000418281	0.00032461	0	0	0	
0.229	0.0331355	0.0178222	0.000373791	0.000289264	0	0	0	
0.229167	-0.0517533	-0.0013715	0.000606705	0.000324142	0	0	0	
0.229333	0.01387	-0.0154163	0.000890557	0.000432931	0	0	0	
0.2295	0.0403103	0.00460357	0.00119619	0.000401188	0	0	0	
0.229667	-0.0541418	0.0187988	0.00132081	0.00036525	0	0	0	
0.229833	0.0418561	-0.0133904	0.00124205	0.000275371	0	0	0	
0.23	-0.0101329	-0.00149221	0.00113209	0.000350189	0	0	0	
0.230167	-0.0234874	0.0051679	0.001006	0.000265158	0	0	0	
0.230333	-0.00016559	0.00143697	0.000798089	0.000181983	0	0	0	
0.2305	-0.0319028	0.00507708	0.000483658	0.000101921	0	0	0	
0.230667	0.0218765	-0.0124198	0.000399875	0.000121412	0	0	0	
0.230833	0.01669	0.00276731	0.000753079	0.00018254	0	0	0	
0.231	-0.0584589	0.025727	0.00101657	0.000264868	0	0	0	
0.231167	0.023817	-0.0209061	0.00109978	0.00033639	0	0	0	
0.231333	0.0274228	-0.00376689	0.000982188	0.000495137	0	0	0	
0.2315	0.00326447	0.0177547	0.000693517	0.000494617	0	0	0	
0.231667	-0.0689158	0.000243082	0.000741945	0.000419645	0	0	0	
0.231833	-0.0272359	0.00208453	0.000981887	0.000208457	0	0	0	
0.232	0.042723	-0.018995	0.00114539	0.000131053	0	0	0	
0.232167	0.0635092	0.0105537	0.00138855	0.000220027	0	0	0	
0.232333	-0.0915117	0.0239452	0.00157957	0.000395425	0	0	0	
0.2325	0.0509446	-0.0132799	0.00167972	0.000445045	0	0	0	
0.232667	-0.0423141	-0.00539132	0.00143144	0.000471735	0	0	0	
0.232833	0.0289082	0.0122841	0.000993692	0.000371445	0	0	0	
0.233	-0.0331694	-0.00048777	0.000882599	0.000328732	0	0	0	
0.233167	0.0116872	-0.00294625	0.000905395	0.00026813	0	0	0	
0.233333	0.0370804	-0.0111649	0.000792315	0.000360597	0	0	0	
0.2335	0.0114082	0.0304041	0.0011605	0.00041293	0	0	0	
0.233667	-0.0512012	-0.00923901	0.00109875	0.00050862	0	0	0	
0.233833	0.0147023	-0.0209621	0.00119028	0.000627415	0	0	0	
0.234	0.0110645	0.0338991	0.000889551	0.000734824	0	0	0	
0.234167	0.0061931	-0.0213766	0.000673051	0.000678959	0	0	0	
0.234333	-0.012249	0.00895218	0.000590915	0.000526163	0	0	0	
0.2345	0.00396234	0.00539408	0.000390419	0.000532819	0	0	0	
0.234667	-0.000193505	-0.0319302	0.0003893	0.000714051	0	0	0	
0.234833	0.0166178	0.0545796	0.000257854	0.000879749	0	0	0	
0.235	0.00299648	-0.030565	0.000251721	0.000887002	0	0	0	
0.235167	-0.0242433	-0.0020752	0.000273908	0.000805405	0	0	0	
0.235333	-0.0132529	0.0152899	0.00030495	0.000608662	0	0	0	
0.2355	0.023337	-0.0205444	0.000396465	0.000471328	0	0	0	
0.235667	-0.00513196	0.0297192	0.000393982	0.000382135	0	0	0	
0.235833	-0.00982021	-0.0199314	0.00039736	0.000449382	0	0	0	
0.236	-0.00791389	-0.000434984	0.000268818	0.000582653	0	0	0	
0.236167	0.0160315	0.00947807	0.00022625	0.000549665	0	0	0	
0.236333	-0.00359996	-0.0023086	0.000309292	0.000410796	0	0	0	
0.2365	-0.0155944	0.00761937	0.000412987	0.00026131	0	0	0	
0.236667	0.00549216	-0.0106591	0.000415891	0.000205605	0	0	0	
0.236833	0.00382043	-0.00168878	0.000305474	0.000238661	0	0	0	
0.237	-0.0111802	0.0192669	0.000279703	0.000247452	0	0	0	
0.237167	0.01644	-0.00858118	0.000314266	0.000285447	0	0	0	
0.237333	-0.0156912	-0.00470899	0.000329086	0.000361305	0	0	0	
0.2375	-0.000507671	0.00399084	0.000317625	0.000349849	0	0	0	
0.237667	0.00814554	-0.00295885	0.000287478	0.000289363	0	0	0	
0.237833	-0.00871357	0.0125401	0.000240352	0.000185845	0	0	0	
0.238	-0.00360199	-0.00153018	0.000241154	0.000182728	0	0	0	
0.238167	0.0118518	-0.0169633	0.000234819	0.00027623	0	0	0	
0.238333	-0.0106568	0.0236218	0.000255749	0.000336384	0	0	0	
0.2385	0.0122452	-0.0132021	0.000225956	0.000419583	0	0	0	
0.238667	-0.0173169	0.00204795	0.000294587	0.000429147	0	0	0	
0.238833	0.00468349	0.00661076	0.000278419	0.000444993	0	0	0	
0.239	0.00026543	-0.0134957	0.000284984	0.000379283	0	0	0	
0.239167	0.0108839	0.0119873	0.000229279	0.000305243	0	0	0	
0.239333	-0.0106831	0.00375326	0.000249919	0.00023912	0	0	0	
0.2395	-0.0102964	-0.00966125	0.000291087	0.00021173	0	0	0	
0.239667	0.0249669	0.0162695	0.000313643	0.000209294	0	0	0	
0.239833	-0.00047348	-0.0109082	0.000437303	0.000234594	0	0	0	
0.24	-0.0276194	0.00394308	0.000488612	0.000280715	0	0	0	
0.240167	0.0295637	-0.000838077	0.000579618	0.000281161	0	0	0	
0.240333	-0.00336065	0.0103004	0.000490325	0.000252052	0	0	0	
0.2405	-0.00487473	-0.00607968	0.000360458	0.000200501	0	0	0	
0.240667	0.0112435	0.00347907	0.000224347	0.000215155	0	0	0	
0.240833	-0.00896776	0.00017687	0.000187509	0.000174801	0	0	0	
0.241	-0.003407	0.0159341	0.000269906	0.000191951	0	0	0	
0.241167	0.0321823	-0.0162166	0.000318079	0.000186024	0	0	0	
0.241333	-0.0485601	0.00604106	0.000515146	0.000277533	0	0	0	
0.2415	0.0160066	0.0064001	0.000608033	0.000273874	0	0	0	
0.241667	0.0278378	2.91545E-05	0.000749153	0.000211213	0	0	0	
0.241833	-0.0339693	-0.00116223	0.000656291	0.000146216	0	0	0	
0.242	-0.00807119	0.00332001	0.00063545	0.000123688	0	0	0	
0.242167	0.0306886	-0.0100723	0.000531153	0.000161026	0	0	0	
0.242333	-0.0208774	0.0140343	0.000534693	0.00019383	0	0	0	
0.2425	-0.00304842	-0.00138389	0.000408105	0.000208256	0	0	0	
0.242667	-0.00322216	-0.00284779	0.000301042	0.000182833	0	0	0	
0.242833	-0.00348042	-0.00376468	0.000231974	0.000164128	0	0	0	
0.243	0.0214186	0.0160178	0.000311915	0.000179438	0	0	0	
0.243167	-0.0459985	-0.0106304	0.000472655	0.000219931	0	0	0	
0.243333	0.0142706	0.000189243	0.000749605	0.000230939	0	0	0	
0.2435	-0.00999716	-0.0013356	0.000665189	0.000199363	0	0	0	
0.243667	-0.00569943	0.00152878	0.000549045	0.000183428	0	0	0	
0.243833	-0.0132959	0.0064948	0.000260859	0.000215977	0	0	0	
0.244	-0.000703612	-0.012709	0.000289042	0.000279614	0	0	0	
0.244167	0.0484606	0.0234182	0.000404418	0.000340593	0	0	0	
0.244333	-0.0601745	-0.015421	0.000743019	0.000353951	0	0	0	
0.2445	-0.0249708	-0.00707053	0.00133725	0.000389803	0	0	0	
0.244667	0.0425653	0.00573703	0.00150245	0.000290598	0	0	0	
0.244833	-0.025846	0.0253396	0.00126085	0.000385433	0	0	0	
0.245	0.0104805	-0.030869	0.000767549	0.0004053	0	0	0	
0.245167	-0.00195647	0.00717458	0.000644204	0.000569308	0	0	0	
0.245333	-0.0332128	3.38819E-05	0.000801158	0.000382094	0	0	0	
0.2455	0.051926	0.0254763	0.000894801	0.000398975	0	0	0	
0.245667	-0.0235138	-0.00894447	0.000869955	0.0003076	0	0	0	
0.245833	0.0112777	-0.0306661	0.000698546	0.000414251	0	0	0	
0.246	-0.00150062	0.018679	0.000587808	0.000487567	0	0	0	
0.246167	-0.0238688	0.0369419	0.000558937	0.000906704	0	0	0	
0.246333	0.0346489	-0.0547759	0.00053656	0.00117586	0	0	0	
0.2465	-0.0281193	0.0434021	0.000605713	0.00122351	0	0	0	
0.246667	0.0233165	-0.025984	0.000759914	0.000907717	0	0	0	
0.246833	-0.000420792	0.0144384	0.000830233	0.000659142	0	0	0	
0.247	-0.0100522	0.00416416	0.00073846	0.000519036	0	0	0	
0.247167	0.0115306	-0.0157136	0.000553614	0.00041939	0	0	0	
0.247333	-0.0143918	0.0154516	0.00039636	0.000371231	0	0	0	
0.2475	-0.000192663	-0.00650524	0.000304425	0.000376857	0	0	0	
0.247667	0.0124112	-0.00572803	0.000269725	0.000514133	0	0	0	
0.247833	-0.00977928	0.0209629	0.000262338	0.000625153	0	0	0	
0.248	-0.00573296	-0.0189993	0.000259452	0.000569049	0	0	0	
0.248167	0.0105823	0.00150245	0.000190427	0.000450922	0	0	0	
0.248333	-0.00662809	0.0119121	0.000221144	0.000334352	0	0	0	
0.2485	-0.00926137	-0.00893892	0.000277054	0.000272021	0	0	0	
0.248667	0.00937177	0.0103111	0.000279441	0.000214043	0	0	0	
0.248833	-0.0189477	-0.0115952	0.000308404	0.000226862	0	0	0	
0.249	0.00118972	0.00323427	0.000276818	0.00029492	0	0	0	
0.249167	0.0100357	0.0210785	0.000308987	0.000296015	0	0	0	
0.249333	-0.00883351	-0.00479879	0.000247142	0.000321326	0	0	0	
0.2495	0.00378967	-0.0162395	0.00020451	0.000379598	0	0	0	
0.249667	0.00613485	0.017698	0.000159068	0.000423387	0	0	0	
0.249833	-0.0126761	-0.01349	0.000158559	0.000413326	0	0	0	
0.25	-0.0128447	0.0088518	0.000188882	0.000315322	0	0	0	
0.250167	0.0141501	0.00780372	0.000247621	0.000252979	0	0	0	
0.250333	-2.55814E-05	-0.00348472	0.000241139	0.000218475	0	0	0	
0.2505	0.00239943	0.00583076	0.000220393	0.000202841	0	0	0	
0.250667	-0.000456874	3.02375E-06	0.000195067	0.000205257	0	0	0	
0.250833	0.00050252	-0.0128524	0.000134604	0.000161632	0	0	0	
0.251	0.00884847	0.00762425	0.0001555	0.000190032	0	0	0	
0.251167	-0.00517972	0.00730608	0.000139431	0.000251882	0	0	0	
0.251333	-0.00307397	0.000766715	0.000201405	0.000217525	0	0	0	
0.2515	0.007199	-0.00937326	0.000164782	0.000199499	0	0	0	
0.251667	0.0098908	0.00662701	0.000170295	0.000144689	0	0	0	
0.251833	-0.00694374	0.00380877	0.000177131	0.000150061	0	0	0	
0.252	-0.00151931	0.0105982	0.000172345	0.000145444	0	0	0	
0.252167	0.0104339	-0.0129183	0.000154876	0.000154001	0	0	0	
0.252333	-0.000618412	-0.00265004	0.000114319	0.000239899	0	0	0	
0.2525	-0.000490841	0.0121983	8.92258E-05	0.000219859	0	0	0	
0.252667	0.00257823	0.00387641	8.24659E-05	0.000261336	0	0	0	
0.252833	0.00475944	-0.00261963	8.27494E-05	0.000179308	0	0	0	
0.253	-0.00427313	-0.0114356	0.000104555	0.00020843	0	0	0	
0.253167	0.00233417	0.00818395	0.00010373	0.000192057	0	0	0	
0.253333	0.00437391	0.0195213	9.8441E-05	0.000337405	0	0	0	
0.2535	-0.00143327	-0.0215184	8.57715E-05	0.000366802	0	0	0	
0.253667	0.00577163	0.0079442	7.52088E-05	0.000444671	0	0	0	
0.253833	-0.00606265	0.000574955	9.22787E-05	0.000410517	0	0	0	
0.254	-0.00191756	-0.00526308	9.41068E-05	0.000430198	0	0	0	
0.254167	0.00661171	0.0192644	0.000121303	0.000411652	0	0	0	
0.254333	-0.00559845	-0.0169077	0.000104831	0.000365659	0	0	0	
0.2545	0.000536273	-0.00440521	0.000149775	0.000413818	0	0	0	
0.254667	0.000833192	0.0225778	0.000134439	0.000441619	0	0	0	
0.254833	0.003286	-0.0209273	0.000112743	0.000481102	0	0	0	
0.255	-0.00321484	0.0173444	7.86004E-05	0.000431415	0	0	0	
0.255167	-0.00531067	-0.0122295	9.61952E-05	0.000344679	0	0	0	
0.255333	0.00132282	0.0024316	0.000105516	0.000290177	0	0	0	
0.2555	0.00664395	0.00180622	0.00012687	0.000203402	0	0	0	
0.255667	-0.0104674	0.00431952	0.000141756	0.000152345	0	0	0	
0.255833	0.00217349	-0.00553815	0.000153924	9.84856E-05	0	0	0	
0.256	0.00205073	-0.00171696	0.000108437	0.000123678	0	0	0	
0.256167	0.000759588	0.00468051	7.20621E-05	0.000124715	0	0	0	
0.256333	-0.00482163	0.00140221	6.38537E-05	0.000130014	0	0	0	
0.2565	-0.00503258	-0.00239934	9.70455E-05	8.03405E-05	0	0	0	
0.256667	0.00970832	-0.00500409	0.000130192	0.000104029	0	0	0	
0.256833	-0.00849547	0.00131522	0.000172089	0.000103881	0	0	0	
0.257	-0.00206249	0.0100875	0.000192489	0.000127769	0	0	0	
0.257167	0.00208674	-0.0101182	0.000161248	0.000127902	0	0	0	
0.257333	-0.00186973	0.000400749	0.000111802	0.000171031	0	0	0	
0.2575	0.00442064	-0.00156225	6.66108E-05	0.000141579	0	0	0	
0.257667	-0.00828872	0.0115194	7.68645E-05	0.000133985	0	0	0	
0.257833	0.00520122	-0.0107069	0.000116947	0.000128293	0	0	0	
0.258	0.000380042	4.08439E-05	0.000131796	0.000197948	0	0	0	
0.258167	-0.00153162	-0.000601881	0.000103552	0.000160652	0	0	0	
0.258333	0.00276472	0.015254	6.72666E-05	0.00019569	0	0	0	
0.2585	-0.000613666	-0.0172772	6.98184E-05	0.000215703	0	0	0	
0.258667	-0.000498812	0.00825038	8.18794E-05	0.000295941	0	0	0	
0.258833	0.00340607	-0.00312526	9.79319E-05	0.000239548	0	0	0	
0.259	0.00318154	0.0120609	9.80203E-05	0.000199819	0	0	0	
0.259167	-0.00352921	-0.0109748	9.45265E-05	0.000160395	0	0	0	
0.259333	-0.000393787	0.00391266	8.13232E-05	0.000194143	0	0	0	
0.2595	0.00454281	0.00224163	6.20066E-05	0.000168262	0	0	0	
0.259667	-0.00428042	0.00229157	7.79139E-05	0.000143715	0	0	0	
0.259833	0.00223084	-0.00359835	9.27794E-05	0.000100913	0	0	0	
0.26	-0.00561932	0.000408207	0.00010154	8.72109E-05	0	0	0	
0.260167	0.00497948	0.00148671	9.47171E-05	8.82428E-05	0	0	0	
0.260333	0.00567559	0.00431206	0.000126985	0.000154604	0	0	0	
0.2605	-0.025417	-0.0135222	0.000206802	0.000264191	0	0	0	
0.260667	0.0227843	0.0181787	0.000329826	0.000346392	0	0	0	
0.260833	-0.0143381	-0.0145116	0.000401058	0.000333293	0	0	0	
0.261	0.00455737	0.0027087	0.000426367	0.000334119	0	0	0	
0.261167	0.00385486	0.00337529	0.000398607	0.000336266	0	0	0	
0.261333	-0.00253607	0.00144786	0.000321737	0.000302446	0	0	0	
0.2615	-0.0100015	-0.00881689	0.000247292	0.000241835	0	0	0	
0.261667	0.01222	0.00371014	0.000256491	0.000254465	0	0	0	
0.261833	-0.0126798	0.00337952	0.000318164	0.000357863	0	0	0	
0.262	0.0112139	-0.00161298	0.000364805	0.000391425	0	0	0	
0.262167	-0.0137952	-0.00699494	0.000322372	0.000300749	0	0	0	
0.262333	0.0118072	0.0166079	0.000281425	0.000231539	0	0	0	
0.2625	-0.00587297	-0.0222271	0.00023206	0.00024455	0	0	0	
0.262667	0.00166818	0.015483	0.000176458	0.000338454	0	0	0	
0.262833	-0.0117905	-0.00941033	0.00014259	0.000347203	0	0	0	
0.263	0.00321929	0.0073648	0.000134294	0.000302715	0	0	0	
0.263167	0.0109461	-0.00790762	0.000212658	0.000212123	0	0	0	
0.263333	-0.0144432	0.00676187	0.000233805	0.000171751	0	0	0	
0.2635	-0.00601455	-0.0109274	0.000330072	0.000146107	0	0	0	
0.263667	0.00764426	0.0172595	0.000280223	0.000196932	0	0	0	
0.263833	-7.94464E-06	-0.0128503	0.000286134	0.000272402	0	0	0	
0.264	-0.00872576	-0.0104866	0.000168286	0.00045434	0	0	0	
0.264167	-0.00517689	0.0206135	0.00015913	0.000511185	0	0	0	
0.264333	0.00288099	-0.00403337	0.000127771	0.00046975	0	0	0	
0.2645	-0.000232107	-0.0169603	0.000112976	0.000366467	0	0	0	
0.264667	-0.0047459	0.0143859	7.41452E-05	0.000314358	0	0	0	
0.264833	0.00191489	-0.00607147	6.19372E-05	0.000306856	0	0	0	
0.265	-0.00363429	0.00668905	6.40925E-05	0.00024925	0	0	0	
0.265167	0.000645685	-0.00270678	6.21176E-05	0.000225172	0	0	0	
0.265333	-0.00922124	-0.00892824	6.42562E-05	0.000224585	0	0	0	
0.2655	0.00293481	0.00111752	0.000110519	0.000190212	0	0	0	
0.265667	0.00713687	0.0068188	0.000184327	0.000176148	0	0	0	
0.265833	-0.00720557	-0.00182378	0.000196008	0.000136184	0	0	0	
0.266	-0.00261445	-0.00683332	0.000211075	0.000154737	0	0	0	
0.266167	0.00644424	-0.00272683	0.000167391	0.000149547	0	0	0	
0.266333	-0.00516542	0.00859396	0.000161955	0.000160911	0	0	0	
0.2665	0.00163624	0.00228716	0.000119432	0.000176897	0	0	0	
0.266667	-0.00339194	-0.00964454	0.00010848	0.000161301	0	0	0	
0.266833	-0.00228413	-0.00470103	0.000114399	0.000178217	0	0	0	
0.267	0.00149692	0.00670222	0.000110659	0.000162637	0	0	0	
0.267167	-0.000616802	-0.000650153	9.22708E-05	0.000175965	0	0	0	
0.267333	-0.000816054	-0.000376913	6.02273E-05	0.000116504	0	0	0	
0.2675	-0.00229575	-0.00956366	5.369E-05	0.000104107	0	0	0	
0.267667	0.000873828	0.00577633	6.24291E-05	0.000123155	0	0	0	
0.267833	0.00556947	0.00835956	8.852E-05	0.000230284	0	0	0	
0.268	-0.00297117	-0.00638208	0.000105263	0.000229693	0	0	0	
0.268167	-0.00384753	-0.00606149	0.000121144	0.000201163	0	0	0	
0.268333	-0.00349164	0.00172613	0.000140393	0.000130524	0	0	0	
0.2685	0.014569	0.00541756	0.000200487	0.000187536	0	0	0	
0.268667	-0.00892687	-0.00440361	0.000232508	0.000160626	0	0	0	
0.268833	0.000702721	-0.00252811	0.000243696	0.000157971	0	0	0	
0.269	-0.0013094	0.000960181	0.000181266	7.99562E-05	0	0	0	
0.269167	0.00467956	0.00492499	0.000135132	8.66191E-05	0	0	0	
0.269333	0.00243624	0.00098046	0.000105254	7.42377E-05	0	0	0	
0.2695	-0.00617813	-0.00703193	9.13501E-05	9.55865E-05	0	0	0	
0.269667	-0.000459132	-0.000227704	0.000125081	0.000102873	0	0	0	
0.269833	0.00469502	0.00668895	0.000144666	0.000110422	0	0	0	
0.27	-0.00523158	-0.00388909	0.000162744	0.000102956	0	0	0	
0.270167	0.00852897	-0.00309825	0.000146902	0.0001002	0	0	0	
0.270333	-0.00644397	0.00234563	0.000137334	9.17724E-05	0	0	0	
0.2705	0.000254248	0.00292918	0.000134245	0.000122131	0	0	0	
0.270667	0.00310367	-0.00712994	0.000105697	0.000135932	0	0	0	
0.270833	0.00583014	0.00564473	0.000107126	0.000156818	0	0	0	
0.271	-0.00562737	-0.00503834	0.000115722	0.000125868	0	0	0	
0.271167	-0.00383719	0.00731056	0.000138234	0.000145595	0	0	0	
0.271333	0.00720524	-0.0127522	0.000121545	0.000161135	0	0	0	
0.2715	0.00960032	0.0109748	0.000195683	0.000206749	0	0	0	
0.271667	-0.0155735	-0.0118981	0.00021244	0.000213988	0	0	0	
0.271833	0.00737537	0.0162102	0.00033206	0.000243907	0	0	0	
0.272	0.00831916	-0.0170622	0.000346938	0.000263131	0	0	0	
0.272167	-0.00830932	-0.00126271	0.000345704	0.000312217	0	0	0	
0.272333	0.00780085	0.0210338	0.000238751	0.000329497	0	0	0	
0.2725	-0.0197962	-0.0182664	0.000197373	0.000373298	0	0	0	
0.272667	0.0148021	-0.0075485	0.000265003	0.000501146	0	0	0	
0.272833	0.0125778	0.0169031	0.000369248	0.000568652	0	0	0	
0.273	-0.0231603	-0.0137897	0.000415274	0.000519805	0	0	0	
0.273167	0.0120751	0.00773012	0.000390812	0.000340326	0	0	0	
0.273333	-0.00347527	-0.00153734	0.000323124	0.00022377	0	0	0	
0.2735	0.000617858	-0.0133302	0.000261007	0.000231524	0	0	0	
0.273667	0.00331331	0.0199561	0.000243187	0.00026177	0	0	0	
0.273833	-0.00407296	-0.0196528	0.000211476	0.000374894	0	0	0	
0.274	0.00335456	-0.0103603	0.000155008	0.000447234	0	0	0	
0.274167	0.000475413	0.0126749	0.000110453	0.000454087	0	0	0	
0.274333	-0.00387469	-0.00674638	9.00164E-05	0.000352554	0	0	0	
0.2745	0.00385506	-0.0110866	9.15938E-05	0.000285032	0	0	0	
0.274667	0.000639692	0.0115175	8.24863E-05	0.000271446	0	0	0	
0.274833	-0.0033992	-0.0119853	8.23604E-05	0.000270777	0	0	0	
0.275	0.00574714	-0.00159113	8.01238E-05	0.000199449	0	0	0	
0.275167	-0.000552026	-0.00341069	8.29344E-05	0.000131289	0	0	0	
0.275333	-0.00114692	0.000396705	8.51433E-05	9.08729E-05	0	0	0	
0.2755	0.00447749	-0.00725512	8.28201E-05	8.82626E-05	0	0	0	
0.275667	-0.00102309	0.000274508	7.50957E-05	9.75827E-05	0	0	0	
0.275833	-0.000505551	0.00319738	6.97935E-05	9.34416E-05	0	0	0	
0.276	-0.000285685	-0.00186796	6.88544E-05	7.72275E-05	0	0	0	
0.276167	0.00110042	-0.00117504	5.57413E-05	5.86559E-05	0	0	0	
0.276333	-0.00132425	0.00222562	5.24162E-05	5.14744E-05	0	0	0	
0.2765	-0.00312677	-0.0047932	7.03662E-05	7.86851E-05	0	0	0	
0.276667	0.00795574	0.00800305	9.64968E-05	0.000102608	0	0	0	
0.276833	0.000261421	-0.00889927	0.000110412	0.000141022	0	0	0	
0.277	-0.0179657	0.00286508	0.000163633	0.000163958	0	0	0	
0.277167	0.0246287	-0.00581423	0.000240496	0.000176985	0	0	0	
0.277333	-0.0101342	0.0106818	0.00034859	0.000197107	0	0	0	
0.2775	0.000998349	-0.000152629	0.000369146	0.000165432	0	0	0	
0.277667	0.00399752	-0.00595815	0.000338536	0.000147655	0	0	0	
0.277833	-0.00788059	-0.00213856	0.000265813	9.27333E-05	0	0	0	
0.278	0.00921278	0.0100187	0.000193058	0.000150788	0	0	0	
0.278167	0.00242738	-0.0086731	0.000227949	0.00016387	0	0	0	
0.278333	-0.011143	-0.0058589	0.000310171	0.000200875	0	0	0	
0.2785	0.0176147	0.00786168	0.000377044	0.000187389	0	0	0	
0.278667	-0.00565914	0.010068	0.000323806	0.00025852	0	0	0	
0.278833	-0.00148215	-0.00876325	0.000226191	0.000252334	0	0	0	
0.279	0.000953486	-0.00930487	0.000130847	0.000282461	0	0	0	
0.279167	0.00650268	-0.000432326	9.98172E-05	0.000196217	0	0	0	
0.279333	-0.00714678	0.0129312	8.28708E-05	0.000199297	0	0	0	
0.2795	0.000534763	-0.0014624	0.000147435	0.000173294	0	0	0	
0.279667	0.00622933	-0.0121938	0.000185	0.000204964	0	0	0	
0.279833	-0.00173043	-0.00524087	0.000182073	0.000288681	0	0	0	
0.28	-0.00262573	0.0245741	0.000119016	0.000419933	0	0	0	
0.280167	0.00418426	-0.0229637	8.15911E-05	0.000498648	0	0	0	
0.280333	-0.00209855	0.00160657	9.40924E-05	0.000441863	0	0	0	
0.2805	0.00101061	0.00854208	0.000125552	0.000267425	0	0	0	
0.280667	-0.00299284	-0.00170308	0.000116235	0.000227336	0	0	0	
0.280833	0.00281134	-0.0103733	9.24685E-05	0.000295854	0	0	0	
0.281	0.00313839	0.00617411	7.90233E-05	0.000348494	0	0	0	
0.281167	-0.000562678	0.00471054	6.30212E-05	0.000273186	0	0	0	
0.281333	-0.00517498	-0.00704822	5.66723E-05	0.000154635	0	0	0	
0.2815	0.00522339	-0.00625708	6.40383E-05	0.000138615	0	0	0	
0.281667	-0.00266826	0.00286407	0.000102226	0.000144923	0	0	0	
0.281833	-0.00123515	0.0123092	8.96277E-05	0.000188197	0	0	0	
0.282	-0.00393553	-0.00928521	6.63586E-05	0.000194898	0	0	0	
0.282167	0.00323279	-0.0151975	7.71723E-05	0.000346731	0	0	0	
0.282333	0.00103375	0.0148936	0.000156878	0.000375513	0	0	0	
0.2825	-0.000711193	-0.00501629	0.000164668	0.000373153	0	0	0	
0.282667	-0.00678497	0.00496395	0.000138347	0.000235403	0	0	0	
0.282833	0.0020462	-0.0146844	9.09156E-05	0.000199284	0	0	0	
0.283	0.00813961	0.00473348	0.000139335	0.00018303	0	0	0	
0.283167	-0.00162534	0.00631067	0.000140784	0.000205192	0	0	0	
0.283333	-0.00321817	-0.00725052	0.000145959	0.000194725	0	0	0	
0.2835	0.00347151	-0.00752532	9.91958E-05	0.000221509	0	0	0	
0.283667	-0.00104572	0.00623299	8.60364E-05	0.000204131	0	0	0	
0.283833	0.00372525	-0.00406562	5.46914E-05	0.000167031	0	0	0	
0.284	0.000796736	0.00425198	5.3047E-05	0.000106858	0	0	0	
0.284167	0.00382535	-0.00245825	5.56083E-05	8.80896E-05	0	0	0	
0.284333	0.00286948	-0.00680887	5.67099E-05	9.78013E-05	0	0	0	
0.2845	-0.00230355	0.00102906	6.09745E-05	0.000104139	0	0	0	
0.284667	0.00101258	0.00680584	6.58274E-05	9.50911E-05	0	0	0	
0.284833	0.00959415	-0.00757855	9.21679E-05	0.000116936	0	0	0	
0.285	-0.00652185	-7.71927E-05	0.000120948	0.000148369	0	0	0	
0.285167	0.00228343	0.00139511	0.000153222	0.000178388	0	0	0	
0.285333	0.00431408	-0.0043414	0.000128833	0.000156581	0	0	0	
0.2855	0.00201648	0.000900755	0.000100869	0.000110256	0	0	0	
0.285667	-0.00265311	0.00595086	5.82184E-05	0.000102718	0	0	0	
0.285833	0.00393859	-0.0119638	7.03758E-05	0.00011778	0	0	0	
0.286	0.00312934	0.0044064	6.14023E-05	0.000154027	0	0	0	
0.286167	-0.00093274	-0.000388993	6.51866E-05	0.000154206	0	0	0	
0.286333	0.00312004	0.000160448	6.6156E-05	0.000113	0	0	0	
0.2865	0.00623049	-0.00223255	9.44536E-05	8.28406E-05	0	0	0	
0.286667	-0.00179016	-0.00608528	0.000110629	8.47757E-05	0	0	0	
0.286833	0.00272708	0.00416211	0.000119034	0.000106843	0	0	0	
0.287	0.00629568	0.00381164	0.000102154	0.000144791	0	0	0	
0.287167	0.00269921	-0.0113523	9.18194E-05	0.00015132	0	0	0	
0.287333	0.00214443	0.00800808	6.25463E-05	0.00017952	0	0	0	
0.2875	0.000573336	-0.00495008	5.43952E-05	0.000192657	0	0	0	
0.287667	-0.0015627	-0.00215987	6.28575E-05	0.000213311	0	0	0	
0.287833	0.012073	0.00601475	9.15834E-05	0.00020765	0	0	0	
0.288	-0.000922909	-0.00704208	0.000113977	0.00016786	0	0	0	
0.288167	-0.000810206	-0.00229016	0.000160236	0.000178417	0	0	0	
0.288333	0.00592741	0.00642596	0.000138077	0.000203149	0	0	0	
0.2885	0.00678052	-0.00649822	0.000129168	0.000209348	0	0	0	
0.288667	-0.000917466	0.00315656	7.1531E-05	0.000151295	0	0	0	
0.288833	-0.00281055	-0.00404744	9.06656E-05	0.000109693	0	0	0	
0.289	0.00380393	-0.00331678	8.07027E-05	0.000104619	0	0	0	
0.289167	0.00345214	0.00475846	7.53427E-05	0.000107248	0	0	0	
0.289333	0.000391266	-0.00154704	5.81048E-05	0.000104421	0	0	0	
0.2895	0.0033531	-0.00542417	5.68808E-05	0.000108826	0	0	0	
0.289667	-0.00234711	0.00509124	6.94615E-05	0.000109662	0	0	0	
0.289833	0.00579442	-0.00390805	7.90115E-05	0.00012136	0	0	0	
0.29	-0.00212388	-0.00223154	7.91762E-05	9.84587E-05	0	0	0	
0.290167	0.00516418	0.000367173	8.29331E-05	8.787E-05	0	0	0	
0.290333	-0.00765717	-0.000172499	8.73778E-05	5.84692E-05	0	0	0	
0.2905	0.00377362	-0.000660643	0.000138122	5.00034E-05	0	0	0	
0.290667	0.0109271	-0.000467399	0.000206506	5.87914E-05	0	0	0	
0.290833	-0.011457	-0.00509997	0.000233755	9.53802E-05	0	0	0	
0.291	-0.00649512	0.00367694	0.000335244	0.000144889	0	0	0	
0.291167	0.0205088	0.00392086	0.000366601	0.000140818	0	0	0	
0.291333	-0.0118902	-0.00927686	0.000391116	0.000126899	0	0	0	
0.2915	0.00406324	0.00448274	0.000283457	0.000123058	0	0	0	
0.291667	0.00487583	-0.00134691	0.000197363	0.000163059	0	0	0	
0.291833	-0.0088883	0.000178657	0.000196032	0.00014012	0	0	0	
0.292	0.0159601	-0.00522989	0.000208584	0.000105684	0	0	0	
0.292167	-0.00669178	0.00150624	0.000249675	7.33941E-05	0	0	0	
0.292333	-0.00192064	-0.0024167	0.000269691	0.000121794	0	0	0	
0.2925	0.00550676	0.0128652	0.000214982	0.000255912	0	0	0	
0.292667	0.00409554	-0.0191511	0.000184883	0.000361816	0	0	0	
0.292833	-0.00284822	0.00106704	0.000166127	0.000351852	0	0	0	
0.293	0.00656727	0.00770359	0.000249838	0.000215709	0	0	0	
0.293167	-0.0102115	-0.0105074	0.000319193	0.000156643	0	0	0	
0.293333	0.00998758	0.0151454	0.000306102	0.000185647	0	0	0	
0.2935	0.00892974	-0.0287099	0.000245419	0.000302314	0	0	0	
0.293667	-0.00723487	0.0198972	0.000248872	0.000390527	0	0	0	
0.293833	-0.00439741	-0.00732978	0.000377686	0.000430151	0	0	0	
0.294	0.00381853	0.0146129	0.000412195	0.000435643	0	0	0	
0.294167	0.0137095	-0.0406848	0.000327479	0.000526654	0	0	0	
0.294333	-0.00189123	0.0361277	0.000263315	0.000638405	0	0	0	
0.2945	-0.0112786	-0.0120765	0.000375885	0.00066282	0	0	0	
0.294667	0.00481781	-0.00557442	0.000363408	0.000472409	0	0	0	
0.294833	0.017074	0.0060911	0.000360187	0.000283614	0	0	0	
0.295	-0.0186307	-0.0143678	0.000289964	0.00022375	0	0	0	
0.295167	0.00886764	0.00936699	0.000369269	0.000315626	0	0	0	
0.295333	-0.00201017	0.00921951	0.000340987	0.000520371	0	0	0	
0.2955	0.00634895	-0.0284434	0.000277697	0.000618426	0	0	0	
0.295667	-0.00348379	0.0166104	0.000252092	0.000585757	0	0	0	
0.295833	-0.00941128	0.000437209	0.000280068	0.000453433	0	0	0	
0.296	0.0132352	-0.00797876	0.000312259	0.000282162	0	0	0	
0.296167	-0.00842702	-0.00138943	0.000298253	0.000193466	0	0	0	
0.296333	0.000339705	-0.000424947	0.000196837	8.79372E-05	0	0	0	
0.2965	-0.000500593	-0.00264634	0.000119781	6.60717E-05	0	0	0	
0.296667	-0.00293647	0.00457245	6.49442E-05	7.031E-05	0	0	0	
0.296833	0.00276855	-0.00621215	4.59289E-05	8.75814E-05	0	0	0	
0.297	-0.00701012	-0.00494582	6.69915E-05	0.000111476	0	0	0	
0.297167	0.00994344	-9.61629E-05	0.000101511	9.82471E-05	0	0	0	
0.297333	-0.00399708	0.0110015	0.000153459	0.000168078	0	0	0	
0.2975	-0.00368009	-0.0163667	0.000171796	0.000208492	0	0	0	
0.297667	-0.000181858	0.00134124	0.000136	0.000261919	0	0	0	
0.297833	0.0045099	0.00306788	0.000120243	0.000214205	0	0	0	
0.298	-0.00292655	-0.0022472	9.19167E-05	0.000160755	0	0	0	
0.298167	-0.000751985	0.000713766	9.59838E-05	9.31526E-05	0	0	0	
0.298333	-0.00136022	-0.00902618	6.3853E-05	6.93214E-05	0	0	0	
0.2985	0.00631076	0.00112308	7.0399E-05	9.32872E-05	0	0	0	
0.298667	-0.00293773	0.00827082	8.08467E-05	0.000154285	0	0	0	
0.298833	-0.00354667	-0.0080241	9.29033E-05	0.000164216	0	0	0	
0.299	0.00417314	-0.00049116	9.08702E-05	0.000176507	0	0	0	
0.299167	-0.000202102	-0.000906274	9.37528E-05	0.000126486	0	0	0	
0.299333	-0.00476593	0.000512863	8.61127E-05	9.17565E-05	0	0	0	
0.2995	0.00343733	-0.00213259	8.50942E-05	6.23271E-05	0	0	0	
0.299667	-0.00173162	-0.00160885	7.49391E-05	4.64202E-05	0	0	0	
0.299833	0.00435218	-0.00519138	7.87047E-05	6.59601E-05	0	0	0	
0.3	-0.00154759	0.00767921	6.14855E-05	7.71067E-05	0	0	0	
0.300167	0.00155531	-0.00478574	7.18943E-05	0.000114788	0	0	0	
0.300333	0.00340957	-0.00121713	6.73307E-05	0.000118858	0	0	0	
0.3005	0.000501199	-0.00343294	8.76815E-05	9.34611E-05	0	0	0	
0.300667	-0.00871121	0.000999163	0.000134936	7.22537E-05	0	0	0	
0.300833	0.0143154	-0.000795221	0.000184434	5.8696E-05	0	0	0	
0.301	0.00381248	8.14329E-05	0.00020183	8.77963E-05	0	0	0	
0.301167	-0.00202613	0.000182344	0.000198065	8.81781E-05	0	0	0	
0.301333	0.00396656	-0.00530508	0.000140857	0.000100426	0	0	0	
0.3015	0.00311353	-0.00332316	0.000108998	8.46265E-05	0	0	0	
0.301667	0.00105838	0.00038742	5.79415E-05	8.61052E-05	0	0	0	
0.301833	-0.00422973	-0.00145909	7.19969E-05	7.48032E-05	0	0	0	
0.302	0.00571721	0.00274068	0.000121664	9.30336E-05	0	0	0	
0.302167	0.0143858	0.00187957	0.000152841	0.000104826	0	0	0	
0.302333	-0.00880654	-0.0119478	0.000191076	0.000139679	0	0	0	
0.3025	0.00394606	0.00950872	0.000180124	0.000156267	0	0	0	
0.302667	0.00134175	-0.00943423	0.000143058	0.000202476	0	0	0	
0.302833	0.00245649	-0.00522676	8.62514E-05	0.000259291	0	0	0	
0.303	-0.0016746	0.0128202	5.22457E-05	0.000272653	0	0	0	
0.303167	0.000430564	-0.0116893	7.64651E-05	0.000262996	0	0	0	
0.303333	0.00525873	0.00187856	8.70445E-05	0.000257914	0	0	0	
0.3035	0.00404459	0.00487924	8.91367E-05	0.000284631	0	0	0	
0.303667	-5.79261E-06	-0.00921814	5.45115E-05	0.000265448	0	0	0	
0.303833	0.00119119	0.00634107	7.32363E-05	0.000211109	0	0	0	
0.304	0.000292047	-0.00660035	6.83222E-05	0.000155288	0	0	0	
0.304167	0.00323339	-0.00324156	7.04136E-05	0.00017644	0	0	0	
0.304333	0.000745081	0.0126544	4.09267E-05	0.000225738	0	0	0	
0.3045	-0.00452721	-0.0148284	3.43687E-05	0.000259887	0	0	0	
0.304667	0.00330011	-0.0012519	8.07813E-05	0.000266684	0	0	0	
0.304833	0.0117963	0.00773299	0.000160676	0.000232278	0	0	0	
0.305	-0.0122375	-0.00436014	0.000210069	0.000200451	0	0	0	
0.305167	0.00229366	-0.00649565	0.000250733	0.000176319	0	0	0	
0.305333	-0.00017851	0.0017374	0.000215295	0.000148137	0	0	0	
0.3055	0.00232596	-0.00181507	0.000171983	0.000112003	0	0	0	
0.305667	0.00655812	0.00149806	0.000122908	9.16747E-05	0	0	0	
0.305833	-0.0118326	-0.00649033	0.000129039	7.95419E-05	0	0	0	
0.306	0.00167071	0.000404066	0.000175778	8.5542E-05	0	0	0	
0.306167	0.00941688	-0.000397487	0.000210855	5.92618E-05	0	0	0	
0.306333	-0.00489585	-0.00108408	0.00020712	6.18002E-05	0	0	0	
0.3065	0.00345021	-0.00577355	0.00017532	9.04281E-05	0	0	0	
0.306667	0.00218759	0.00599152	0.000104915	0.000114984	0	0	0	
0.306833	-0.000986798	-0.00259775	7.97698E-05	0.00013995	0	0	0	
0.307	-3.73714E-05	-0.00882206	6.0018E-05	0.000154681	0	0	0	
0.307167	0.00266475	0.0051719	5.57096E-05	0.000147782	0	0	0	
0.307333	0.0035841	-0.00470077	6.25064E-05	0.000159474	0	0	0	
0.3075	-0.00590591	-0.00792608	9.8142E-05	0.000141314	0	0	0	
0.307667	-0.000773567	0.00088052	0.000146814	0.000125523	0	0	0	
0.307833	0.0281613	-0.00680446	0.00027014	0.000102229	0	0	0	
0.308	-0.0467003	-4.08596E-05	0.000457787	0.000147699	0	0	0	
0.308167	0.0286344	0.0111346	0.000655271	0.000262081	0	0	0	
0.308333	0.00198532	-0.0195579	0.000767327	0.000310519	0	0	0	
0.3085	-0.0116747	-0.0107438	0.000724225	0.000421361	0	0	0	
0.308667	0.0157412	0.0287337	0.000585874	0.000534499	0	0	0	
0.308833	-0.0171574	-0.0334363	0.000408143	0.000630565	0	0	0	
0.309	0.0135039	0.00752011	0.000385957	0.000623248	0	0	0	
0.309167	0.012361	0.0126092	0.000605216	0.000557361	0	0	0	
0.309333	-0.0355455	-0.0236091	0.000798755	0.000474737	0	0	0	
0.3095	0.0329649	0.0144837	0.000816013	0.000421145	0	0	0	
0.309667	-0.0110999	0.00105271	0.000659458	0.00041279	0	0	0	
0.309833	0.00215934	-0.016482	0.000477828	0.000456763	0	0	0	
0.31	2.10659E-05	0.0171025	0.0003102	0.000407204	0	0	0	
0.310167	0.00282362	-0.00725628	0.000136829	0.000379086	0	0	0	
0.310333	0.00113375	-0.0148726	4.79871E-05	0.000408758	0	0	0	
0.3105	2.29726E-05	0.0175268	4.57799E-05	0.000421904	0	0	0	
0.310667	-0.00699562	-0.00304479	7.1395E-05	0.000410611	0	0	0	
0.310833	0.00685581	-0.019516	9.32253E-05	0.000413251	0	0	0	
0.311	0.00140616	0.0210692	0.000135695	0.000426549	0	0	0	
0.311167	-0.00776625	-0.011009	0.000147008	0.000425783	0	0	0	
0.311333	0.00816519	-0.00233188	0.000162242	0.000326859	0	0	0	
0.3115	0.00115514	0.000989789	0.00019704	0.000230318	0	0	0	
0.311667	-0.00950662	-0.0053922	0.000217485	0.000125043	0	0	0	
0.311833	-0.00032469	0.00113398	0.000182891	8.04944E-05	0	0	0	
0.312	0.00340043	0.00346287	9.69886E-05	0.000119914	0	0	0	
0.312167	0.00400162	-0.00682199	7.5444E-05	0.000130593	0	0	0	
0.312333	-0.0020208	-0.00126119	9.68363E-05	0.000126681	0	0	0	
0.3125	0.000827804	-0.00201269	9.3645E-05	7.90845E-05	0	0	0	
0.312667	-0.00106127	0.0051066	5.99596E-05	7.45595E-05	0	0	0	
0.312833	0.00235387	-0.00651112	2.33213E-05	9.24964E-05	0	0	0	
0.313	-0.00668214	-0.00562597	7.08537E-05	0.000142488	0	0	0	
0.313167	0.00190636	0.00364664	0.000102225	0.000132885	0	0	0	
0.313333	0.00341081	0.00180573	0.000130797	0.000141832	0	0	0	
0.3135	-0.00287129	-0.00777512	0.000115903	0.000125155	0	0	0	
0.313667	0.00430057	0.00389429	9.27818E-05	0.000135856	0	0	0	
0.313833	0.0013358	-0.00871311	8.81275E-05	0.000125411	0	0	0	
0.314	-0.00683329	0.00802732	9.44096E-05	0.000130331	0	0	0	
0.314167	0.00258063	-0.00575055	0.000104242	0.000170671	0	0	0	
0.314333	0.00036706	-0.0112518	9.8836E-05	0.000249348	0	0	0	
0.3145	-0.00444803	0.0179424	7.86885E-05	0.000313394	0	0	0	
0.314667	0.00210684	-0.0169998	8.60024E-05	0.000353322	0	0	0	
0.314833	0.00201692	0.00358024	9.56824E-05	0.000343537	0	0	0	
0.315	-0.0015773	0.00357322	9.25306E-05	0.000365741	0	0	0	
0.315167	-0.00211533	-0.0130769	9.83797E-05	0.000358706	0	0	0	
0.315333	0.00934942	0.0151561	0.000115423	0.000337697	0	0	0	
0.3155	-0.0131191	-0.0169493	0.000162399	0.000301021	0	0	0	
0.315667	0.00593544	0.00085133	0.000199273	0.000322973	0	0	0	
0.315833	0.00258838	0.0131849	0.000204193	0.000348738	0	0	0	
0.316	-0.0271993	-0.0118554	0.000233476	0.000331605	0	0	0	
0.316167	-0.00687821	-0.00882732	0.000297796	0.00034768	0	0	0	
0.316333	0.00384243	0.0118363	0.000330942	0.000309168	0	0	0	
0.3165	-0.01169	-0.00104375	0.000294781	0.000285006	0	0	0	
0.316667	-0.00445509	-0.0108856	0.000220459	0.000184938	0	0	0	
0.316833	0.0236946	0.0034295	0.000240739	0.000183678	0	0	0	
0.317	-0.0204608	-0.00730753	0.000300116	0.00018151	0	0	0	
0.317167	-0.00682719	0.00656137	0.000367746	0.000222749	0	0	0	
0.317333	-0.013857	-0.0205019	0.000368563	0.000212964	0	0	0	
0.3175	0.00500752	0.0339156	0.000359108	0.000338337	0	0	0	
0.317667	-0.00977624	-0.0540439	0.0003598	0.000523236	0	0	0	
0.317833	0.0113433	0.0262943	0.00032553	0.000758952	0	0	0	
0.318	0.00250993	0.0276448	0.000271214	0.00115204	0	0	0	
0.318167	-0.0237474	-0.108255	0.000269533	0.00143969	0	0	0	
0.318333	0.0361149	0.0787666	0.000392747	0.00170743	0	0	0	
0.3185	-0.00188642	0.00355251	0.000632635	0.00205914	0	0	0	
0.318667	-0.0331644	-0.0568411	0.000859649	0.00234329	0	0	0	
0.318833	0.0373502	0.060908	0.000939377	0.00236702	0	0	0	
0.319	-0.0281019	-0.0625721	0.000823178	0.00181786	0	0	0	
0.319167	0.00792622	0.0361247	0.000679151	0.00128521	0	0	0	
0.319333	-0.010343	-0.01299	0.000578395	0.00112052	0	0	0	
0.3195	-0.00585412	0.0388483	0.000501629	0.00114644	0	0	0	
0.319667	0.0232227	0.0165796	0.000382712	0.00110592	0	0	0	
0.319833	-0.0155469	-0.0499834	0.000364205	0.000985228	0	0	0	
0.32	-0.0187617	0.0865201	0.000376704	0.000927271	0	0	0	
0.320167	0.0316688	-0.0488758	0.000441625	0.00116616	0	0	0	
