0	-0.000801541	0.000371193	8.01541E-08	3.71193E-08	0	5	0	
0.000166667	0.00257374	-1.50281E-05	1.45704E-05	2.75421E-06	0	5	0	
0.000333333	-0.00360135	-0.00048791	4.04313E-05	7.14357E-06	0	5	0	
0.0005	0.00789499	0.000962527	9.20251E-05	1.26733E-05	0	5	0	
0.000666667	-0.0130672	-0.000901021	0.000149878	1.8418E-05	0	5	0	
0.000833333	0.00962131	0.00188529	0.0001946	2.49876E-05	0	5	0	
0.001	0.000179899	-0.00188697	0.000208727	3.02032E-05	0	5	0	
0.00116667	-0.000368531	0.00141882	0.000148038	3.31174E-05	0	5	0	
0.00133333	-0.00965848	-0.00126488	0.000167238	3.38842E-05	0	5	0	
0.0015	0.0125295	0.00105218	0.000190867	3.08136E-05	0	5	0	
0.00166667	-0.00889406	-0.000303588	0.000250906	2.44144E-05	0	5	0	
0.00183333	0.00706369	0.00148988	0.000220496	2.15269E-05	0	5	0	
0.002	-0.00630717	-0.00316169	0.000189277	3.13553E-05	0	5	0	
0.00216667	0.00295759	0.00223931	0.000172706	4.25353E-05	0	5	0	
0.00233333	-0.0061456	-0.000358946	0.00020678	4.76912E-05	0	5	0	
0.0025	0.0147161	0.000181372	0.00028515	3.27741E-05	0	5	0	
0.00266667	-0.0184111	-0.00146842	0.000359458	2.31496E-05	0	5	0	
0.00283333	0.014549	0.0016238	0.000375565	1.9724E-05	0	5	0	
0.003	-0.00902728	-0.00301896	0.00031453	3.40873E-05	0	5	0	
0.00316667	0.00408651	0.00594523	0.000230682	6.18235E-05	0	5	0	
0.00333333	-0.00388205	-0.00575728	0.000180844	8.5705E-05	0	5	0	
0.0035	0.0104831	0.00182378	0.000212748	0.000101689	0	5	0	
0.00366667	-0.0138247	0.00119805	0.000285167	9.39155E-05	0	5	0	
0.00383333	0.0136658	-0.00115629	0.000328395	6.52848E-05	0	5	0	
0.004	-0.0116039	-0.00171032	0.000311199	4.75301E-05	0	5	0	
0.00416667	0.0101682	0.00283409	0.000276274	4.82956E-05	0	5	0	
0.00433333	-0.0113069	-0.00367029	0.000252289	7.57781E-05	0	5	0	
0.0045	0.0122426	0.00316824	0.000244254	9.14941E-05	0	5	0	
0.00466667	-0.0104308	-0.00223213	0.000235348	8.00877E-05	0	5	0	
0.00483333	0.00436519	-0.00044424	0.000199099	5.92789E-05	0	5	0	
0.005	-0.00224612	0.0017955	0.000150266	4.33588E-05	0	5	0	
0.00516667	0.00609816	-0.000898365	0.000147079	3.31871E-05	0	5	0	
0.00533333	-0.00651113	-0.000132825	0.000184082	4.18309E-05	0	5	0	
0.0055	0.00620263	0.000138293	0.000229407	4.81992E-05	0	5	0	
0.00566667	-0.0137327	0.000194708	0.000277839	5.34322E-05	0	5	0	
0.00583333	0.0228638	0.000951681	0.000361823	3.76783E-05	0	5	0	
0.006	-0.0269465	-0.00123937	0.000438572	3.07824E-05	0	5	0	
0.00616667	0.0176799	0.00197635	0.000460828	3.8796E-05	0	5	0	
0.00633333	-0.00368223	-0.00154978	0.00039929	4.98657E-05	0	5	0	
0.0065	-0.00282962	0.000858626	0.000289368	4.74691E-05	0	5	0	
0.00666667	0.00373339	-0.000999428	0.000175656	3.93316E-05	0	5	0	
0.00683333	0.000631348	0.00222245	0.000158697	3.71005E-05	0	5	0	
0.007	-0.00881117	-0.00217056	0.000249276	4.14125E-05	0	5	0	
0.00716667	0.0168776	0.00283808	0.000368124	4.81122E-05	0	5	0	
0.00733333	-0.0192463	-0.00317679	0.000419586	5.4445E-05	0	5	0	
0.0075	0.0159676	0.00365308	0.000398587	6.11487E-05	0	5	0	
0.00766667	-0.0120624	-0.00297007	0.000347059	6.57005E-05	0	5	0	
0.00783333	0.0129992	0.00212175	0.00029647	6.03083E-05	0	5	0	
0.008	-0.0124932	-5.47715E-05	0.000271585	4.5185E-05	0	5	0	
0.00816667	0.0101871	-0.000624136	0.000252952	3.11714E-05	0	5	0	
0.00833333	-0.00891746	-4.1727E-05	0.000231271	1.74144E-05	0	5	0	
0.0085	0.00769617	0.00174013	0.000208655	1.33103E-05	0	5	0	
0.00866667	-0.0103714	-0.00138388	0.000217511	1.70329E-05	0	5	0	
0.00883333	0.013976	0.000197802	0.000256216	3.57098E-05	0	5	0	
0.009	-0.0150339	0.000666755	0.000295072	5.11149E-05	0	5	0	
0.00916667	0.012642	0.000302601	0.000297656	4.86057E-05	0	5	0	
0.00933333	-0.00958834	-0.00141132	0.000267293	3.60592E-05	0	5	0	
0.0095	0.00809841	0.00240946	0.000227873	2.89283E-05	0	5	0	
0.00966667	-0.00920578	-0.00338617	0.000218347	3.97099E-05	0	5	0	
0.00983333	0.0111665	0.00322063	0.000244465	5.23986E-05	0	5	0	
0.01	-0.0132019	-0.00280351	0.000278739	6.02637E-05	0	5	0	
0.0101667	0.0123776	0.00149508	0.000291794	5.54717E-05	0	5	0	
0.0103333	-0.0113659	-0.000676466	0.000278843	4.72381E-05	0	5	0	
0.0105	0.0125101	0.00182864	0.000269108	4.33004E-05	0	5	0	
0.0106667	-0.0125961	-0.00240475	0.000266323	4.47434E-05	0	5	0	
0.0108333	0.00747536	0.000937929	0.000246108	4.44634E-05	0	5	0	
0.011	-0.0035907	0.000622712	0.00019802	3.45957E-05	0	5	0	
0.0111667	0.00734369	-2.37215E-05	0.00017751	2.90162E-05	0	5	0	
0.0113333	-0.0127106	0.0001861	0.000213042	2.98435E-05	0	5	0	
0.0115	0.0133614	-0.000424359	0.000256328	3.00942E-05	0	5	0	
0.0116667	-0.00671401	0.00096021	0.000249818	2.36117E-05	0	5	0	
0.0118333	0.00371409	-0.00104693	0.000194707	1.9369E-05	0	5	0	
0.012	-0.00956417	0.000252526	0.000196993	2.12461E-05	0	5	0	
0.0121667	0.0173242	0.00012504	0.000256448	2.10258E-05	0	5	0	
0.0123333	-0.0202456	-0.000893037	0.000332106	1.78052E-05	0	5	0	
0.0125	0.0161835	0.000538884	0.0003537	1.78965E-05	0	5	0	
0.0126667	-0.00927089	0.000323049	0.000316937	2.37621E-05	0	5	0	
0.0128333	0.00438813	-0.00043918	0.00024652	2.78538E-05	0	5	0	
0.013	0.000158785	-0.000811034	0.00015886	2.38825E-05	0	5	0	
0.0131667	0.00392173	0.00226433	0.000152205	2.55125E-05	0	5	0	
0.0133333	-0.0157983	-0.00333913	0.000251206	3.3335E-05	0	5	0	
0.0135	0.0265759	0.00329973	0.00039967	5.05929E-05	0	5	0	
0.0136667	-0.0238178	-0.00163353	0.000474325	5.65541E-05	0	5	0	
0.0138333	0.0112912	0.000390484	0.000438966	4.91957E-05	0	5	0	
0.014	-0.00189463	-0.000547181	0.000328173	3.25214E-05	0	5	0	
0.0141667	0.00210851	0.0016335	0.000204831	2.79024E-05	0	5	0	
0.0143333	-0.00511081	-0.00190362	0.000168648	3.62374E-05	0	5	0	
0.0145	0.00940518	0.00192612	0.000201234	4.80121E-05	0	5	0	
0.0146667	-0.0132885	-0.00194199	0.000275851	4.91418E-05	0	5	0	
0.0148333	0.016075	0.00173601	0.000311684	4.12098E-05	0	5	0	
0.015	-0.016101	-0.000994993	0.000323065	3.36378E-05	0	5	0	
0.0151667	0.0115671	0.00017758	0.000300998	2.70464E-05	0	5	0	
0.0153333	-0.00841508	0.000189756	0.000250524	1.93097E-05	0	5	0	
0.0155	0.00781709	0.000326795	0.000198069	1.76373E-05	0	5	0	
0.0156667	-0.00608607	-0.00122387	0.000166389	1.62252E-05	0	5	0	
0.0158333	0.0125561	0.00136313	0.000179525	2.25176E-05	0	5	0	
0.016	-0.0204032	-0.00189793	0.000229631	2.62174E-05	0	5	0	
0.0161667	0.00973164	0.00304866	0.000288077	3.63933E-05	0	5	0	
0.0163333	0.0133482	-0.00291517	0.000366344	4.68777E-05	0	5	0	
0.0165	-0.0154475	0.00074318	0.000341667	5.04408E-05	0	5	0	
0.0166667	-0.0116011	-0.000532799	0.000479572	4.73217E-05	0	5	0	
0.0168333	0.0334217	0.00148628	0.000560565	3.67507E-05	0	5	0	
0.017	-0.0306669	-0.00278325	0.000677199	3.98862E-05	0	5	0	
0.0171667	0.0230426	0.00181583	0.000598601	4.03905E-05	0	5	0	
0.0173333	-0.0147022	-0.000173771	0.00050847	4.61219E-05	0	5	0	
0.0175	-0.0035473	-0.000475509	0.000469807	4.03383E-05	0	5	0	
0.0176667	0.0145315	-0.000685093	0.000389455	3.18556E-05	0	5	0	
0.0178333	-0.00426853	0.000638587	0.000351253	2.79512E-05	0	5	0	
0.018	-0.0149957	0.00118982	0.000382084	2.62903E-05	0	5	0	
0.0181667	0.0214367	-0.00120558	0.000446029	3.05401E-05	0	5	0	
0.0183333	-0.01809	-0.00196554	0.000458876	3.59371E-05	0	5	0	
0.0185	0.0111621	0.00441984	0.000362434	4.93041E-05	0	5	0	
0.0186667	-0.00682794	-0.00106519	0.000270772	8.3494E-05	0	5	0	
0.0188333	0.0109853	-0.00112752	0.000230098	0.000110544	0	5	0	
0.019	-0.0165954	-0.000407325	0.000241621	0.000103632	0	5	0	
0.0191667	0.0112334	0.0017858	0.000267317	6.92732E-05	0	5	0	
0.0193333	-0.00354689	-0.00105511	0.000235673	3.66893E-05	0	5	0	
0.0195	0.0082394	0.00236666	0.000214341	3.17654E-05	0	5	0	
0.0196667	-0.0152635	-0.00539111	0.000240893	5.08528E-05	0	5	0	
0.0198333	0.0140277	0.00611207	0.000288893	7.40057E-05	0	5	0	
0.02	-0.00998976	-0.00306568	0.00029094	0.000101501	0	5	0	
0.0201667	0.0117553	-0.000520389	0.000262175	0.000100888	0	5	0	
0.0203333	-0.0136113	0.00054943	0.00026171	6.94479E-05	0	5	0	
0.0205	0.0123252	0.000739307	0.000268608	4.46781E-05	0	5	0	
0.0206667	-0.0107655	-0.000661432	0.000266893	3.24176E-05	0	5	0	
0.0208333	0.0112011	0.000933129	0.000248181	4.8615E-05	0	5	0	
0.021	-0.0106535	-0.00251916	0.000234024	5.29646E-05	0	5	0	
0.0211667	0.0125255	0.0033477	0.000234187	5.60989E-05	0	5	0	
0.0213333	-0.0172471	-0.00142622	0.00025912	5.39916E-05	0	5	0	
0.0215	0.0177034	-0.000405505	0.000291299	4.29413E-05	0	5	0	
0.0216667	-0.01193	0.000675534	0.000305806	2.86658E-05	0	5	0	
0.0218333	0.00343645	0.000597709	0.000286419	3.49167E-05	0	5	0	
0.022	0.00124267	-0.00266596	0.000211215	5.04806E-05	0	5	0	
0.0221667	0.00664754	0.00336459	0.000167905	6.34941E-05	0	5	0	
0.0223333	-0.0152162	-0.00185254	0.000180573	5.94058E-05	0	5	0	
0.0225	0.0165989	0.000638299	0.000252983	4.49531E-05	0	5	0	
0.0226667	-0.0160518	0.000127323	0.000302605	3.33067E-05	0	5	0	
0.0228333	0.015744	-0.000628975	0.00030432	1.90085E-05	0	5	0	
0.023	-0.00964557	-0.00119724	0.00028587	3.06079E-05	0	5	0	
0.0231667	0.00717784	0.00371579	0.000243225	5.18722E-05	0	5	0	
0.0233333	-0.0148538	-0.00403407	0.000236587	7.29039E-05	0	5	0	
0.0235	0.0220898	0.0024491	0.000271229	7.31847E-05	0	5	0	
0.0236667	-0.0132508	-0.00116663	0.000324324	5.92627E-05	0	5	0	
0.0238333	0.000174547	0.00155486	0.000315264	4.75179E-05	0	5	0	
0.024	-0.000429577	-0.00266075	0.000210925	4.84401E-05	0	5	0	
0.0241667	0.00965183	0.00359466	0.000184891	6.61378E-05	0	5	0	
0.0243333	-0.0142498	-0.00366071	0.000205405	8.05567E-05	0	5	0	
0.0245	0.0154376	0.00202984	0.000290248	7.77407E-05	0	5	0	
0.0246667	-0.013977	-0.000844092	0.000297204	5.68699E-05	0	5	0	
0.0248333	0.0112812	0.00145057	0.000275132	3.89671E-05	0	5	0	
0.025	-0.0091236	-0.00171056	0.000242075	3.09605E-05	0	5	0	
0.0251667	0.0111389	0.000765125	0.000225789	3.04104E-05	0	5	0	
0.0253333	-0.014612	-0.00133465	0.000242294	3.61062E-05	0	5	0	
0.0255	0.0144993	0.00227762	0.000270626	4.6683E-05	0	5	0	
0.0256667	-0.011428	-0.00232545	0.000280052	5.44131E-05	0	5	0	
0.0258333	0.0114787	0.00228261	0.000262263	5.28248E-05	0	5	0	
0.026	-0.0110665	-0.00217715	0.000248181	4.5602E-05	0	5	0	
0.0261667	0.0123597	0.0019719	0.000245715	4.06622E-05	0	5	0	
0.0263333	-0.0144042	-0.0023741	0.000261356	4.23561E-05	0	5	0	
0.0265	0.0148265	0.00198523	0.000275624	4.4827E-05	0	5	0	
0.0266667	-0.0109405	-0.00214244	0.000270923	4.78036E-05	0	5	0	
0.0268333	0.00553358	0.00258866	0.000230317	4.85095E-05	0	5	0	
0.027	-0.00704858	-0.00336512	0.000197601	5.09705E-05	0	5	0	
0.0271667	0.0155073	0.00246111	0.000224077	5.62865E-05	0	5	0	
0.0273333	-0.0181536	-0.00212509	0.000284112	5.45336E-05	0	5	0	
0.0275	0.0117299	0.00178666	0.000311243	5.07075E-05	0	5	0	
0.0276667	-0.00427175	-0.00168463	0.000257872	4.17401E-05	0	5	0	
0.0278333	0.00543069	0.00102837	0.000191342	3.60949E-05	0	5	0	
0.028	-0.00803314	-0.00171164	0.000168079	2.91302E-05	0	5	0	
0.0281667	0.00740109	0.00159156	0.000187703	2.94778E-05	0	5	0	
0.0283333	-0.0100433	-0.0010095	0.000228241	2.91508E-05	0	5	0	
0.0285	0.0158942	0.00107633	0.000271182	2.67728E-05	0	5	0	
0.0286667	-0.0169037	-0.00136398	0.000308699	2.22241E-05	0	5	0	
0.0288333	0.0110966	0.00185979	0.000303531	2.37518E-05	0	5	0	
0.029	-0.00520216	-0.00176191	0.000246238	3.10567E-05	0	5	0	
0.0291667	0.00499738	0.00116454	0.000174147	3.45215E-05	0	5	0	
0.0293333	-0.00509495	-0.00203621	0.000132321	3.53609E-05	0	5	0	
0.0295	0.00378409	0.00243087	0.000120109	3.71981E-05	0	5	0	
0.0296667	-0.00687004	-0.00248427	0.000148061	4.1479E-05	0	5	0	
0.0298333	0.0133189	0.00239572	0.000212615	4.63149E-05	0	5	0	
0.03	-0.0169951	-0.0025078	0.000281048	4.82299E-05	0	5	0	
0.0301667	0.0130675	0.00232496	0.000306771	4.65382E-05	0	5	0	
0.0303333	-0.00637432	-0.00159122	0.000262893	4.63965E-05	0	5	0	
0.0305	0.00537267	-9.38511E-05	0.000196396	4.07321E-05	0	5	0	
0.0306667	-0.00795579	0.000725281	0.000160641	3.02477E-05	0	5	0	
0.0308333	0.00799688	0.000846796	0.000168501	1.95771E-05	0	5	0	
0.031	-0.00789982	-0.00197046	0.000198474	1.6819E-05	0	5	0	
0.0311667	0.0108463	0.00209527	0.000227222	2.6459E-05	0	5	0	
0.0313333	-0.0137843	-0.00258491	0.00025355	4.04768E-05	0	5	0	
0.0315	0.0136999	0.00212384	0.000267719	4.72402E-05	0	5	0	
0.0316667	-0.00943118	-0.00161545	0.000255201	4.6694E-05	0	5	0	
0.0318333	0.00856192	0.00158806	0.000219824	3.65307E-05	0	5	0	
0.032	-0.010232	-0.00218911	0.000204345	3.62703E-05	0	5	0	
0.0321667	0.0117163	0.00182728	0.000208161	3.94238E-05	0	5	0	
0.0323333	-0.0106388	-0.00167037	0.000218946	4.38405E-05	0	5	0	
0.0325	0.00701721	0.00135573	0.00020319	4.08344E-05	0	5	0	
0.0326667	-0.00635764	-0.000958816	0.000176204	3.23859E-05	0	5	0	
0.0328333	0.00914624	0.000922682	0.000171074	2.53492E-05	0	5	0	
0.033	-0.0113584	-0.00143577	0.00020035	2.00665E-05	0	5	0	
0.0331667	0.0126321	0.00181327	0.000246373	2.49011E-05	0	5	0	
0.0333333	-0.0159223	-0.00162114	0.000279113	2.849E-05	0	5	0	
0.0335	0.014924	0.0014844	0.000290649	3.54858E-05	0	5	0	
0.0336667	-0.00853342	-0.000496497	0.000271147	3.45992E-05	0	5	0	
0.0338333	0.00854554	0.00147359	0.000236369	3.42424E-05	0	5	0	
0.034	-0.0173488	-0.00188957	0.000250592	3.0371E-05	0	5	0	
0.0341667	0.0228927	0.00207704	0.000304847	3.31906E-05	0	5	0	
0.0343333	-0.015019	-0.0014587	0.000357669	3.63325E-05	0	5	0	
0.0345	0.00819189	0.00165843	0.000336917	3.66487E-05	0	5	0	
0.0346667	-0.0099811	-0.00240196	0.000270713	3.5608E-05	0	5	0	
0.0348333	0.0116971	0.00285877	0.000221033	3.98887E-05	0	5	0	
0.035	-0.00359488	-0.00212875	0.000200836	4.77634E-05	0	5	0	
0.0351667	-0.000986472	0.00162411	0.000157645	5.0897E-05	0	5	0	
0.0353333	-0.00897891	-0.00217066	0.00018658	4.7234E-05	0	5	0	
0.0355	0.02069	0.0028785	0.000253944	4.66993E-05	0	5	0	
0.0356667	-0.0218947	-0.00276634	0.000367407	4.66064E-05	0	5	0	
0.0358333	0.0182209	0.00228721	0.000395665	5.29231E-05	0	5	0	
0.036	-0.0188066	-0.00194187	0.000378564	5.06903E-05	0	5	0	
0.0361667	0.0208189	0.0033945	0.00036886	6.13308E-05	0	5	0	
0.0363333	-0.0161468	-0.0052165	0.000361293	7.67814E-05	0	5	0	
0.0365	0.00623608	0.00493214	0.000328205	9.13786E-05	0	5	0	
0.0366667	-0.000284037	-0.00221966	0.000235565	8.90707E-05	0	5	0	
0.0368333	0.00614196	0.00171235	0.000182761	6.96972E-05	0	5	0	
0.037	-0.0153118	-0.00155022	0.000203556	5.68553E-05	0	5	0	
0.0371667	0.0129909	-0.000413164	0.000255496	4.01671E-05	0	5	0	
0.0373333	-0.00397705	0.0037795	0.000250169	4.07615E-05	0	5	0	
0.0375	0.00750742	-0.00320086	0.000206535	4.47877E-05	0	5	0	
0.0376667	-0.0197655	-0.00200885	0.000244066	6.48506E-05	0	5	0	
0.0378333	0.0190765	0.00490237	0.000302203	7.11834E-05	0	5	0	
0.038	-0.00698424	-0.00104051	0.000335948	7.76184E-05	0	5	0	
0.0381667	0.00173454	-0.00296766	0.000255651	8.09196E-05	0	5	0	
0.0383333	-0.00796108	-0.00100865	0.000196742	6.64434E-05	0	5	0	
0.0385	0.0142845	0.00691269	0.000190866	6.81284E-05	0	5	0	
0.0386667	-0.0140348	-0.00752553	0.000242304	8.20153E-05	0	5	0	
0.0388333	0.0128758	0.00301299	0.000269912	0.000124988	0	5	0	
0.039	-0.0157544	0.000334325	0.000272313	0.000129138	0	5	0	
0.0391667	0.016331	0.000412958	0.000280952	8.89737E-05	0	5	0	
0.0393333	-0.0105382	-0.00206802	0.000281893	5.01167E-05	0	5	0	
0.0395	0.00461118	0.00177423	0.000240813	3.35048E-05	0	5	0	
0.0396667	-0.0086243	-0.00119486	0.000212457	4.80615E-05	0	5	0	
0.0398333	0.0190866	0.00254291	0.000259871	6.00085E-05	0	5	0	
0.04	-0.0228009	-0.00322016	0.000351294	6.08668E-05	0	5	0	
0.0401667	0.017037	0.00141942	0.000402119	6.17864E-05	0	5	0	
0.0403333	-0.01242	0.00140216	0.000358946	5.98334E-05	0	5	0	
0.0405	0.0122312	-0.00056288	0.000294986	4.73698E-05	0	5	0	
0.0406667	-0.010277	-0.00241717	0.000245555	4.40686E-05	0	5	0	
0.0408333	0.00578683	0.00287068	0.000212493	3.93072E-05	0	5	0	
0.041	-0.00779721	-0.000351304	0.000207809	5.1574E-05	0	5	0	
0.0411667	0.0134543	0.00180654	0.000232027	4.84792E-05	0	5	0	
0.0413333	-0.0127923	-0.00549135	0.000266841	6.70428E-05	0	5	0	
0.0415	0.0120219	0.00601482	0.000274489	8.38424E-05	0	5	0	
0.0416667	-0.0154332	-0.0028956	0.000272175	0.000102439	0	5	0	
0.0418333	0.01728	-0.000481049	0.000282545	9.43466E-05	0	5	0	
0.042	-0.0126316	0.00194247	0.000293736	6.29639E-05	0	5	0	
0.0421667	0.0104637	-0.000914719	0.000270733	5.9754E-05	0	5	0	
0.0423333	-0.0122824	-0.00176482	0.000244744	7.17854E-05	0	5	0	
0.0425	0.0120869	0.00312463	0.000228352	0.000102829	0	5	0	
0.0426667	-0.0103194	-0.00272099	0.000229719	9.72051E-05	0	5	0	
0.0428333	0.0124476	0.000940779	0.000231328	6.95844E-05	0	5	0	
0.043	-0.0153067	0.000857529	0.000247121	4.01002E-05	0	5	0	
0.0431667	0.0126592	-0.000758138	0.000258806	2.28348E-05	0	5	0	
0.0433333	-0.00799642	-0.00103549	0.000248455	2.0179E-05	0	5	0	
0.0435	0.00696585	0.00218297	0.000210817	2.83897E-05	0	5	0	
0.0436667	-0.0107178	-0.00178958	0.000211284	3.47605E-05	0	5	0	
0.0438333	0.0148575	0.00077378	0.000252272	3.356E-05	0	5	0	
0.044	-0.0182968	-0.00114414	0.000313589	2.67861E-05	0	5	0	
0.0441667	0.0222673	0.00207843	0.000351412	2.4886E-05	0	5	0	
0.0443333	-0.0202496	-0.00216502	0.000378946	3.06121E-05	0	5	0	
0.0445	0.0125779	0.00129099	0.000377856	3.6939E-05	0	5	0	
0.0446667	-0.003168	-0.000492377	0.00033155	3.53874E-05	0	5	0	
0.0448333	-0.00039069	0.000716987	0.00021496	2.64857E-05	0	5	0	
0.045	-0.00515795	-0.00182099	0.00016907	2.46262E-05	0	5	0	
0.0451667	0.0184069	0.00278898	0.000222183	3.28232E-05	0	5	0	
0.0453333	-0.0275397	-0.00331159	0.000357883	4.65751E-05	0	5	0	
0.0455	0.022644	0.00257321	0.000436018	5.40185E-05	0	5	0	
0.0456667	-0.012673	-0.00113975	0.000427619	5.27884E-05	0	5	0	
0.0458333	0.00663621	-6.96298E-05	0.000343917	4.46325E-05	0	5	0	
0.046	-0.00806701	-0.000184486	0.000254657	3.01418E-05	0	5	0	
0.0461667	0.016659	0.000800001	0.000238805	1.82202E-05	0	5	0	
0.0463333	-0.0231164	-0.0014612	0.000299999	1.50325E-05	0	5	0	
0.0465	0.0206424	0.0021747	0.00037086	2.5894E-05	0	5	0	
0.0466667	-0.0100629	-0.00317293	0.000368353	3.94834E-05	0	5	0	
0.0468333	0.0016096	0.0028264	0.000295349	4.92485E-05	0	5	0	
0.047	-0.000320077	-0.000921964	0.00019329	5.89423E-05	0	5	0	
0.0471667	0.00981382	-0.000537229	0.000225114	6.59548E-05	0	5	0	
0.0473333	-0.0240983	0.000450682	0.000357044	5.91987E-05	0	5	0	
0.0475	0.0266765	0.000709577	0.000500885	3.77645E-05	0	5	0	
0.0476667	-0.0182212	-0.00141236	0.000501271	2.1215E-05	0	5	0	
0.0478333	0.01049	0.00161177	0.000404241	2.23895E-05	0	5	0	
0.048	-0.00785942	-0.00250207	0.000294515	3.47002E-05	0	5	0	
0.0481667	0.00495903	0.00274646	0.000204034	4.20843E-05	0	5	0	
0.0483333	-0.00250996	-0.00205401	0.000150317	4.75092E-05	0	5	0	
0.0485	0.0116929	0.000333035	0.000179605	4.22118E-05	0	5	0	
0.0486667	-0.0115622	-0.00102752	0.000335424	3.26326E-05	0	5	0	
0.0488333	0.0222929	0.000851676	0.000493155	2.5009E-05	0	5	0	
0.049	-0.025973	-0.000478691	0.000614517	1.87812E-05	0	5	0	
0.0491667	0.0360447	-4.36421E-05	0.000635445	1.52308E-05	0	5	0	
0.0493333	-0.0382005	-0.000145761	0.000661859	7.11791E-06	0	5	0	
0.0495	0.0232346	0.000462422	0.000652992	9.12324E-06	0	5	0	
0.0496667	-0.000970691	-0.00161369	0.000572009	1.10065E-05	0	5	0	
0.0498333	-0.011715	0.00154633	0.000423607	2.13736E-05	0	5	0	
0.05	0.00517128	-0.000849404	0.0003873	2.3277E-05	0	5	0	
0.0501667	0.0142318	0.000726927	0.000473389	2.3893E-05	0	5	0	
0.0503333	-0.0255294	-0.000724081	0.000609929	1.80081E-05	0	5	0	
0.0505	0.0309657	0.000437232	0.00065152	1.94715E-05	0	5	0	
0.0506667	-0.0286894	-0.000665382	0.000610949	2.29678E-05	0	5	0	
0.0508333	0.0193594	0.00115863	0.000541095	2.46933E-05	0	5	0	
0.051	-0.00595972	-0.00195245	0.000425971	2.85233E-05	0	5	0	
0.0511667	0.00602053	0.00249981	0.000292781	3.37287E-05	0	5	0	
0.0513333	-0.0155919	-0.00261691	0.00026476	4.20432E-05	0	5	0	
0.0515	0.0197234	0.00202436	0.000289894	4.71249E-05	0	5	0	
0.0516667	-0.0129855	-0.00150259	0.000334826	4.74553E-05	0	5	0	
0.0518333	0.00753082	0.000924368	0.000287814	4.47259E-05	0	5	0	
0.052	-0.00956741	-0.00192394	0.000225732	4.51054E-05	0	5	0	
0.0521667	0.0110329	0.00242092	0.000198351	5.02123E-05	0	5	0	
0.0523333	-0.0107855	-0.00226487	0.000196558	5.2986E-05	0	5	0	
0.0525	0.0100687	0.0013181	0.000204406	4.52232E-05	0	5	0	
0.0526667	-0.0110039	-0.000292523	0.000204685	3.236E-05	0	5	0	
0.0528333	0.0131912	-0.000310865	0.000218429	2.39384E-05	0	5	0	
0.053	-0.0183407	0.000757272	0.000276144	1.88499E-05	0	5	0	
0.0531667	0.028302	-0.000701908	0.000375003	1.80653E-05	0	5	0	
0.0533333	-0.0292384	-0.000836132	0.000464361	1.39548E-05	0	5	0	
0.0535	0.0153421	0.00128069	0.00049762	1.4934E-05	0	5	0	
0.0536667	-0.00225695	-0.00221461	0.000436562	2.1598E-05	0	5	0	
0.0538333	-0.000821704	0.00308205	0.000279939	3.58854E-05	0	5	0	
0.054	-0.00337296	-0.0026149	0.00020497	4.86803E-05	0	5	0	
0.0541667	0.0129252	0.00275572	0.000249478	5.45921E-05	0	5	0	
0.0543333	-0.0264301	-0.00296788	0.000432334	5.67082E-05	0	5	0	
0.0545	0.0307814	0.00264738	0.000533778	5.76925E-05	0	5	0	
0.0546667	-0.0192606	-0.00298852	0.000534944	5.87158E-05	0	5	0	
0.0548333	0.00526089	0.00254549	0.000445185	5.95831E-05	0	5	0	
0.055	-0.00397513	-0.00281927	0.000299962	5.86485E-05	0	5	0	
0.0551667	0.00834665	0.00379103	0.000213329	6.2127E-05	0	5	0	
0.0553333	-0.0148156	-0.00351198	0.00021206	6.39601E-05	0	5	0	
0.0555	0.0211393	0.000480611	0.000296587	5.86189E-05	0	5	0	
0.0556667	-0.0203387	0.00312652	0.000356797	4.60843E-05	0	5	0	
0.0558333	0.0159062	-0.00316519	0.000364157	5.85618E-05	0	5	0	
0.056	-0.00805529	0.000536301	0.000327305	8.80339E-05	0	5	0	
0.0561667	-0.00567006	0.00191097	0.000262941	0.000117312	0	5	0	
0.0563333	0.00570687	-0.00495375	0.000227389	0.000113866	0	5	0	
0.0565	0.0232381	0.00530124	0.000409511	0.000100849	0	5	0	
0.0566667	-0.0446328	0.00125928	0.000607056	0.000110769	0	5	0	
0.0568333	0.0269856	-0.00763958	0.000746519	0.000124725	0	5	0	
0.057	-0.00472707	0.00512478	0.000637285	0.000133408	0	5	0	
0.0571667	0.00510834	0.00266907	0.000423095	0.000148158	0	5	0	
0.0573333	-0.00318901	-0.00728276	0.000240307	0.0001482	0	5	0	
0.0575	-0.00266989	0.00638556	9.94409E-05	0.00014968	0	5	0	
0.0576667	-0.012552	-0.00284811	0.000199096	0.000124533	0	5	0	
0.0578333	0.0306707	-9.49018E-05	0.00034561	0.000108382	0	5	0	
0.058	-0.0191117	0.0019301	0.000476199	7.15799E-05	0	5	0	
0.0581667	0.000100757	-0.00130288	0.00042481	6.15202E-05	0	5	0	
0.0583333	-0.00226282	-0.00100249	0.000315276	7.03116E-05	0	5	0	
0.0585	0.0190666	0.00252756	0.000342925	9.29528E-05	0	5	0	
0.0586667	-0.02602	-0.00109939	0.000405456	7.32162E-05	0	5	0	
0.0588333	0.018912	-0.00165672	0.000470033	5.19557E-05	0	5	0	
0.059	-0.0108376	0.00265449	0.000396537	3.79301E-05	0	5	0	
0.0591667	0.00532812	-0.000202378	0.00029606	5.07607E-05	0	5	0	
0.0593333	-0.0018884	-0.00209583	0.000196423	5.32225E-05	0	5	0	
0.0595	0.00184645	0.00318076	0.00013766	5.61903E-05	0	5	0	
0.0596667	-0.00579605	-0.00149622	0.000157406	5.80228E-05	0	5	0	
0.0598333	0.0145292	-0.000943512	0.000225185	6.93245E-05	0	5	0	
0.06	-0.0161744	0.00181643	0.000271684	6.72254E-05	0	5	0	
0.0601667	0.00786106	0.00111783	0.000270585	5.63892E-05	0	5	0	
0.0603333	-0.00486798	-0.00249044	0.000214451	3.94046E-05	0	5	0	
0.0605	0.01159	0.00136852	0.000206199	3.88583E-05	0	5	0	
0.0606667	-0.0157073	8.94117E-05	0.000230741	3.28083E-05	0	5	0	
0.0608333	0.0102978	0.00182831	0.000267214	2.38344E-05	0	5	0	
0.061	-0.00802174	-0.00159572	0.000261824	2.3866E-05	0	5	0	
0.0611667	0.0185074	-0.00160914	0.00027422	5.04705E-05	0	5	0	
0.0613333	-0.0244145	0.00393518	0.000318065	7.93032E-05	0	5	0	
0.0615	0.0138107	-0.00171835	0.000373731	8.11325E-05	0	5	0	
0.0616667	-0.00538903	-0.00235972	0.000343138	7.35964E-05	0	5	0	
0.0618333	0.00993619	0.00488066	0.000267088	6.61603E-05	0	5	0	
0.062	-0.0140356	-0.0054085	0.000209099	8.63969E-05	0	5	0	
0.0621667	0.00229101	0.00410697	0.000209482	8.8882E-05	0	5	0	
0.0623333	0.0118336	-0.00272449	0.000253891	8.57259E-05	0	5	0	
0.0625	-0.00795511	0.000397022	0.000260569	7.14197E-05	0	5	0	
0.0626667	-0.0163301	0.000624784	0.000423933	4.6789E-05	0	5	0	
0.0628333	0.0401061	0.00155721	0.000589024	4.67355E-05	0	5	0	
0.063	-0.0427068	-0.00306385	0.000755895	5.69449E-05	0	5	0	
0.0631667	0.0278227	0.00115351	0.000746407	7.40308E-05	0	5	0	
0.0633333	-0.00638926	0.00113179	0.000693794	5.62513E-05	0	5	0	
0.0635	-0.0095762	-0.00207849	0.000608173	3.62128E-05	0	5	0	
0.0636667	0.0101218	0.000736545	0.000415267	2.91449E-05	0	5	0	
0.0638333	0.00609741	0.00083645	0.000354678	4.04649E-05	0	5	0	
0.064	-0.0236519	-0.00229002	0.000367243	4.57395E-05	0	5	0	
0.0641667	0.0252624	0.00282336	0.000471898	4.93581E-05	0	5	0	
0.0643333	-0.00950463	-0.00238837	0.000435305	4.85577E-05	0	5	0	
0.0645	-0.000937043	0.00112528	0.000315134	4.64206E-05	0	5	0	
0.0646667	-0.0040431	-0.000922345	0.000227208	3.82983E-05	0	5	0	
0.0648333	0.0167084	0.00137657	0.000245033	3.17576E-05	0	5	0	
0.065	-0.0208181	-0.00212514	0.000317131	3.16313E-05	0	5	0	
0.0651667	0.0129396	0.0020698	0.000357779	3.61037E-05	0	5	0	
0.0653333	-0.00463298	-0.000903294	0.00028998	3.54917E-05	0	5	0	
0.0655	0.00557143	0.000227943	0.000204336	2.63425E-05	0	5	0	
0.0656667	-0.0123725	-0.00116787	0.000188997	1.95877E-05	0	5	0	
0.0658333	0.0198304	0.00166606	0.000242408	2.21141E-05	0	5	0	
0.066	-0.0183785	-0.000448854	0.000318557	2.40103E-05	0	5	0	
0.0661667	0.0102686	-0.000127791	0.000326572	1.92332E-05	0	5	0	
0.0663333	-0.00406654	-0.00102803	0.000266702	1.31976E-05	0	5	0	
0.0665	0.00403562	0.00185842	0.000184911	1.47155E-05	0	5	0	
0.0666667	-0.00938511	-0.00217937	0.000168466	2.74798E-05	0	5	0	
0.0668333	0.0166611	0.0017533	0.000223585	4.07172E-05	0	5	0	
0.067	-0.0190277	-0.00120258	0.000308566	4.74194E-05	0	5	0	
0.0671667	0.0153369	0.000934147	0.000335483	4.4389E-05	0	5	0	
0.0673333	-0.00673484	-0.00127053	0.000297788	3.7045E-05	0	5	0	
0.0675	0.0045221	0.000573261	0.000218911	3.03696E-05	0	5	0	
0.0676667	-0.00976584	-0.00204937	0.000176792	2.72604E-05	0	5	0	
0.0678333	0.0136716	0.00253603	0.000193806	3.0964E-05	0	5	0	
0.068	-0.0145277	-0.00163978	0.00024769	3.63334E-05	0	5	0	
0.0681667	0.0149229	0.00110193	0.000275444	3.83798E-05	0	5	0	
0.0683333	-0.0134243	-0.00127026	0.000275464	3.16997E-05	0	5	0	
0.0685	0.0120685	0.000534454	0.000262162	2.50852E-05	0	5	0	
0.0686667	-0.00946312	-0.000382621	0.000241232	1.99263E-05	0	5	0	
0.0688333	0.00860584	0.00104844	0.000214554	1.92583E-05	0	5	0	
0.069	-0.011903	-0.00196162	0.000202847	2.20331E-05	0	5	0	
0.0691667	0.0144074	0.00232181	0.000221798	3.06697E-05	0	5	0	
0.0693333	-0.0164397	-0.00150237	0.000258756	3.84544E-05	0	5	0	
0.0695	0.0178445	0.000838449	0.000293317	4.14555E-05	0	5	0	
0.0696667	-0.017743	-0.00105159	0.000316681	3.46308E-05	0	5	0	
0.0698333	0.0149101	0.00239054	0.000322151	3.16037E-05	0	5	0	
0.07	-0.00855442	-0.0032826	0.000300443	3.60919E-05	0	5	0	
0.0701667	0.00386401	0.0030467	0.000241153	5.01731E-05	0	5	0	
0.0703333	-0.0075946	-0.000976843	0.00018831	5.58555E-05	0	5	0	
0.0705	0.0173589	-0.000117076	0.000218288	5.12184E-05	0	5	0	
0.0706667	-0.0209753	0.000486144	0.000298938	3.21954E-05	0	5	0	
0.0708333	0.0140128	-0.000267923	0.000353369	1.75556E-05	0	5	0	
0.071	-0.00933557	-0.000196808	0.000313896	1.43175E-05	0	5	0	
0.0711667	0.0130815	0.000897211	0.000254666	2.66695E-05	0	5	0	
0.0713333	-0.00807649	-0.00136102	0.000216898	4.17205E-05	0	5	0	
0.0715	0.00211632	0.00150903	0.000188095	5.99503E-05	0	5	0	
0.0716667	-0.0114328	-0.000496559	0.000249627	7.47458E-05	0	5	0	
0.0718333	0.0296663	0.000594905	0.000387872	7.61737E-05	0	5	0	
0.072	-0.0297857	-0.0018925	0.00051902	6.42013E-05	0	5	0	
0.0721667	0.00856972	0.00307034	0.000542504	5.80274E-05	0	5	0	
0.0723333	0.00776776	-0.00305626	0.000431244	6.72453E-05	0	5	0	
0.0725	-0.00301176	0.00261955	0.00031535	8.12616E-05	0	5	0	
0.0726667	-0.00714015	-0.00245963	0.00028409	8.31942E-05	0	5	0	
0.0728333	0.0133558	0.00271263	0.000322793	7.42963E-05	0	5	0	
0.073	-0.0199922	-0.00289468	0.000405945	6.37711E-05	0	5	0	
0.0731667	0.0212052	0.00148959	0.000412241	6.06326E-05	0	5	0	
0.0733333	-0.0127806	-0.000198615	0.000382416	6.38055E-05	0	5	0	
0.0735	0.00644895	-0.000195113	0.000300778	5.13307E-05	0	5	0	
0.0736667	-0.00634219	-0.00088024	0.000218546	3.54086E-05	0	5	0	
0.0738333	0.0101438	0.000731927	0.000196245	1.78192E-05	0	5	0	
0.074	-0.0161462	-0.00305175	0.000242998	2.23273E-05	0	5	0	
0.0741667	0.0215533	0.00695027	0.000313919	4.76851E-05	0	5	0	
0.0743333	-0.0175303	-0.00790159	0.000350684	9.18603E-05	0	5	0	
0.0745	0.00759941	0.00305241	0.000337302	0.000139861	0	5	0	
0.0746667	-0.0052552	0.00195673	0.000262546	0.000153017	0	5	0	
0.0748333	0.0117773	-0.00147778	0.000221027	0.000109882	0	5	0	
0.075	-0.0159222	-0.00511014	0.000223403	8.64493E-05	0	5	0	
0.0751667	0.0147127	0.00916446	0.000271386	8.6497E-05	0	5	0	
0.0753333	-0.0127429	-0.0070952	0.000281281	0.000132363	0	5	0	
0.0755	0.0117684	0.0028103	0.000262078	0.000137478	0	5	0	
0.0756667	-0.0107205	-0.00066266	0.000245338	0.00010859	0	5	0	
0.0758333	0.0146395	0.000524363	0.000250893	6.13479E-05	0	5	0	
0.076	-0.0179053	-0.00115515	0.000281826	3.02215E-05	0	5	0	
0.0761667	0.0168922	0.00326643	0.000311946	3.23816E-05	0	5	0	
0.0763333	-0.0143196	-0.00504956	0.000316793	5.44192E-05	0	5	0	
0.0765	0.0107261	0.00342703	0.000287225	7.17307E-05	0	5	0	
0.0766667	-0.00528799	-0.000994301	0.000234236	7.98529E-05	0	5	0	
0.0768333	0.00472422	0.000559385	0.000180392	6.32223E-05	0	5	0	
0.077	-0.0119029	-0.00369168	0.000191444	5.18931E-05	0	5	0	
0.0771667	0.0189425	0.00682901	0.000243075	5.80875E-05	0	5	0	
0.0773333	-0.0154029	-0.00498606	0.000299803	8.82854E-05	0	5	0	
0.0775	0.0105664	-0.000327956	0.000295482	0.000112266	0	5	0	
0.0776667	-0.00997216	0.00130204	0.000255636	9.49097E-05	0	5	0	
0.0778333	0.00946244	0.001499	0.000219939	7.76076E-05	0	5	0	
0.078	-0.0109109	-0.00391683	0.00020498	6.99918E-05	0	5	0	
0.0781667	0.0151469	0.00378802	0.000224123	8.06974E-05	0	5	0	
0.0783333	-0.0162448	-0.00262849	0.00026025	7.63008E-05	0	5	0	
0.0785	0.0155324	0.00105513	0.000288854	5.73293E-05	0	5	0	
0.0786667	-0.0138363	-0.00022427	0.000293254	3.93105E-05	0	5	0	
0.0788333	0.0111581	0.000390724	0.00027417	2.28747E-05	0	5	0	
0.079	-0.00931276	-0.000922877	0.000242295	1.39291E-05	0	5	0	
0.0791667	0.011994	0.000423979	0.000227424	1.33329E-05	0	5	0	
0.0793333	-0.0156496	5.25742E-05	0.000244354	2.32499E-05	0	5	0	
0.0795	0.0142532	-0.000556317	0.000270632	2.6126E-05	0	5	0	
0.0796667	-0.0108095	-0.00139896	0.000275021	2.4487E-05	0	5	0	
0.0798333	0.014062	0.00396043	0.000263128	2.86556E-05	0	5	0	
0.08	-0.0185024	-0.00504819	0.000277484	5.04966E-05	0	5	0	
0.0801667	0.0162093	0.00267426	0.000304396	8.22007E-05	0	5	0	
0.0803333	-0.0114224	0.000443339	0.000306654	9.88834E-05	0	5	0	
0.0805	0.0106661	-0.00136245	0.000267292	8.1078E-05	0	5	0	
0.0806667	-0.0134696	-0.000384912	0.000245628	5.44126E-05	0	5	0	
0.0808333	0.014641	0.00185408	0.000247644	3.79337E-05	0	5	0	
0.081	-0.0118617	-0.0035046	0.000261886	4.71978E-05	0	5	0	
0.0811667	0.00934256	0.00384332	0.000244127	5.949E-05	0	5	0	
0.0813333	-0.0104371	-0.00269208	0.000217674	6.38109E-05	0	5	0	
0.0815	0.0101195	0.000529692	0.000199275	6.15657E-05	0	5	0	
0.0816667	-0.010001	0.000120206	0.00020053	4.71208E-05	0	5	0	
0.0818333	0.0120966	0.00130679	0.000211434	3.10225E-05	0	5	0	
0.082	-0.0152169	-0.0019507	0.000243184	2.334E-05	0	5	0	
0.0821667	0.0162171	0.00165228	0.000271706	3.33466E-05	0	5	0	
0.0823333	-0.0145685	-0.00153819	0.000289737	4.45782E-05	0	5	0	
0.0825	0.0122572	0.00189613	0.000282374	4.68826E-05	0	5	0	
0.0826667	-0.0130853	-0.00248321	0.000263899	4.37752E-05	0	5	0	
0.0828333	0.0139925	0.00290661	0.000254411	4.46561E-05	0	5	0	
0.083	-0.0129824	-0.00311358	0.000253791	5.17407E-05	0	5	0	
0.0831667	0.00954214	0.0035668	0.000245762	5.60768E-05	0	5	0	
0.0833333	-0.0066298	-0.00371505	0.00021449	6.29203E-05	0	5	0	
0.0835	0.0103357	0.00278147	0.000190277	6.654E-05	0	5	0	
0.0836667	-0.0167812	-0.00169341	0.00022202	6.42803E-05	0	5	0	
0.0838333	0.0210811	0.00133839	0.000292463	5.05678E-05	0	5	0	
0.084	-0.0191031	-0.00201996	0.000351463	3.7156E-05	0	5	0	
0.0841667	0.0138975	0.00219439	0.000352892	3.4069E-05	0	5	0	
0.0843333	-0.00933702	-0.0024217	0.000309509	4.10871E-05	0	5	0	
0.0845	0.00678416	0.00313091	0.000240281	4.98209E-05	0	5	0	
0.0846667	-0.00824677	-0.00381646	0.000194767	5.81763E-05	0	5	0	
0.0848333	0.0161559	0.00291643	0.000211967	6.17388E-05	0	5	0	
0.085	-0.0216421	-0.00175035	0.000278353	5.95399E-05	0	5	0	
0.0851667	0.0176426	0.00275642	0.000340143	5.318E-05	0	5	0	
0.0853333	-0.00782267	-0.00389299	0.000341367	5.43826E-05	0	5	0	
0.0855	0.00407767	0.00340043	0.000265828	6.04628E-05	0	5	0	
0.0856667	-0.0106528	-0.00131102	0.000212498	6.10954E-05	0	5	0	
0.0858333	0.018357	0.00041218	0.000217567	4.38563E-05	0	5	0	
0.086	-0.0192415	-0.00142573	0.000289804	2.97755E-05	0	5	0	
0.0861667	0.0167878	0.0031738	0.000332638	2.65598E-05	0	5	0	
0.0863333	-0.0137577	-0.00320343	0.000329907	4.1705E-05	0	5	0	
0.0865	0.0121524	0.00280417	0.000300159	5.4015E-05	0	5	0	
0.0866667	-0.0101503	-0.00181616	0.000262413	5.85549E-05	0	5	0	
0.0868333	0.009509	0.000995212	0.000224834	5.08447E-05	0	5	0	
0.087	-0.0119819	-0.00104494	0.000210357	4.01277E-05	0	5	0	
0.0871667	0.0160255	0.00147646	0.000230019	3.08095E-05	0	5	0	
0.0873333	-0.0161037	-0.00279805	0.000267413	3.36634E-05	0	5	0	
0.0875	0.0111586	0.00343078	0.000284047	4.3409E-05	0	5	0	
0.0876667	-0.00929246	-0.00324754	0.000262946	5.56961E-05	0	5	0	
0.0878333	0.0139037	0.0032426	0.000243507	6.31065E-05	0	5	0	
0.088	-0.0160632	-0.00275587	0.000254852	6.41003E-05	0	5	0	
0.0881667	0.0149493	0.00319455	0.000282118	6.14041E-05	0	5	0	
0.0883333	-0.0128104	-0.00279968	0.000286161	5.82917E-05	0	5	0	
0.0885	0.0101541	0.000945686	0.000263264	5.09912E-05	0	5	0	
0.0886667	-0.0122071	0.000533465	0.000261446	3.53542E-05	0	5	0	
0.0888333	0.0211227	-0.000518374	0.000320997	2.05558E-05	0	5	0	
0.089	-0.0260825	0.000717311	0.000394512	1.88014E-05	0	5	0	
0.0891667	0.0173993	3.27782E-05	0.00043218	3.54515E-05	0	5	0	
0.0893333	-0.00605707	-0.00172471	0.000387343	5.00561E-05	0	5	0	
0.0895	0.00135	0.00197645	0.000266599	4.91976E-05	0	5	0	
0.0896667	-0.00257107	0.000207074	0.000194331	4.83209E-05	0	5	0	
0.0898333	0.00896114	-0.00194446	0.000208953	5.56135E-05	0	5	0	
0.09	-0.0189967	0.00180511	0.000320445	6.49277E-05	0	5	0	
0.0901667	0.023644	0.000114952	0.000403347	5.33895E-05	0	5	0	
0.0903333	-0.0193635	-0.00141041	0.000419002	3.35883E-05	0	5	0	
0.0905	0.0139374	0.00108576	0.0003808	2.63733E-05	0	5	0	
0.0906667	-0.0122897	-0.000835463	0.00032166	2.86483E-05	0	5	0	
0.0908333	0.0102715	0.00256764	0.000260875	3.5821E-05	0	5	0	
0.091	-0.0119751	-0.00311627	0.000236752	4.47384E-05	0	5	0	
0.0911667	0.0173257	0.00389167	0.000247695	5.77849E-05	0	5	0	
0.0913333	-0.0151695	-0.000992094	0.000275381	8.80346E-05	0	5	0	
0.0915	0.0081713	-0.00302612	0.000273074	0.000125287	0	5	0	
0.0916667	-0.0084446	0.00604204	0.000233503	0.000154576	0	5	0	
0.0918333	0.0123665	-0.005265	0.000213473	0.000142215	0	5	0	
0.092	-0.013904	-0.000771782	0.000223691	0.000131753	0	5	0	
0.0921667	0.0107521	0.0103914	0.000238686	0.000142841	0	5	0	
0.0923333	-0.0085985	-0.0129147	0.000226457	0.000178923	0	5	0	
0.0925	0.0112868	0.00657286	0.000207416	0.000211715	0	5	0	
0.0926667	-0.0171606	0.000456446	0.000235126	0.00022056	0	5	0	
0.0928333	0.0183588	-0.00277368	0.000276115	0.000185425	0	5	0	
0.093	-0.0109508	0.00110184	0.000311563	0.000113522	0	5	0	
0.0931667	0.00201798	0.00129182	0.000272507	6.35303E-05	0	5	0	
0.0933333	-0.00577536	-0.003147	0.000200101	5.67255E-05	0	5	0	
0.0935	0.0133408	0.00316745	0.000160419	6.81621E-05	0	5	0	
0.0936667	-0.0122747	-0.00130923	0.000182482	6.02066E-05	0	5	0	
0.0938333	0.00703325	-0.00134468	0.000214404	4.30374E-05	0	5	0	
0.094	-0.0113728	9.9327E-05	0.000208643	2.99173E-05	0	0	0	
0.0941667	0.0141626	0.00371484	0.000206514	3.61304E-05	0	0	0	
0.0943333	-0.00913467	-0.0061622	0.000219606	5.62378E-05	0	0	0	
0.0945	0.00632682	0.00388904	0.000214709	8.67073E-05	0	0	0	
0.0946667	-0.014272	-0.000268014	0.000208169	0.000100495	0	0	0	
0.0948333	0.0166124	-0.000212927	0.000222904	7.83005E-05	0	0	0	
0.095	-0.00872386	-0.00106236	0.00025568	6.53883E-05	0	0	0	
0.0951667	0.00641169	0.00180134	0.000236225	5.23077E-05	0	0	0	
0.0953333	-0.0128146	-0.00106987	0.000213417	5.48746E-05	0	0	0	
0.0955	0.0146582	0.000128269	0.000216177	3.53443E-05	0	0	0	
0.0956667	-0.0132165	-0.000153386	0.000247625	2.10748E-05	0	0	0	
0.0958333	0.0139416	0.000342187	0.000262904	1.51445E-05	0	0	0	
0.096	-0.0142168	0.000878105	0.000265547	1.36733E-05	0	0	0	
0.0961667	0.0105649	-0.00111442	0.000254959	1.76926E-05	0	0	0	
0.0963333	-0.00857226	-0.000222595	0.000232215	2.01743E-05	0	0	0	
0.0965	0.0121204	0.00138036	0.000212801	2.48322E-05	0	0	0	
0.0966667	-0.0145943	-0.000648203	0.000223091	3.93884E-05	0	0	0	
0.0968333	0.0117412	-0.00154558	0.000246488	6.3477E-05	0	0	0	
0.097	-0.00864176	0.000631817	0.000240572	6.3935E-05	0	0	0	
0.0971667	0.00948502	0.00234304	0.000223197	5.14824E-05	0	0	0	
0.0973333	-0.0153826	-0.00310343	0.000230355	3.9392E-05	0	0	0	
0.0975	0.0172302	0.0019484	0.000267136	4.60573E-05	0	0	0	
0.0976667	-0.0133284	-0.00209875	0.000294055	4.76193E-05	0	0	0	
0.0978333	0.00942486	0.00118796	0.000275979	4.13154E-05	0	0	0	
0.098	-0.00760341	0.00054448	0.00022681	3.35417E-05	0	0	0	
0.0981667	0.00865895	-8.70876E-05	0.000189157	2.12031E-05	0	0	0	
0.0983333	-0.0112816	-0.00172624	0.000184047	2.82739E-05	0	0	0	
0.0985	0.0145148	0.00328136	0.000217722	3.87152E-05	0	0	0	
0.0986667	-0.0173329	-0.00207752	0.000259188	5.38673E-05	0	0	0	
0.0988333	0.0159568	0.000334264	0.000288988	5.02425E-05	0	0	0	
0.099	-0.0101374	2.89503E-05	0.000293195	4.14698E-05	0	0	0	
0.0991667	0.00604605	0.00122514	0.000262139	3.21498E-05	0	0	0	
0.0993333	-0.00607595	-0.00152144	0.000204273	2.82621E-05	0	0	0	
0.0995	0.0117024	0.00130587	0.000179136	2.94305E-05	0	0	0	
0.0996667	-0.0187717	-0.00126855	0.000207638	2.87124E-05	0	0	0	
0.0998333	0.0191013	0.00086984	0.000282195	2.72643E-05	0	0	0	
0.1	-0.0133202	-0.00112396	0.000324932	2.51513E-05	0	0	0	
0.100167	0.00878506	0.00187377	0.000309662	2.8509E-05	0	0	0	
0.100333	-0.00968603	-0.0024803	0.000259317	3.26565E-05	0	0	0	
0.1005	0.0154051	0.00135884	0.000233453	3.8583E-05	0	0	0	
0.100667	-0.0158443	-0.000280072	0.000248591	4.85089E-05	0	0	0	
0.100833	0.0157549	0.000445359	0.000283761	5.18031E-05	0	0	0	
0.101	-0.0150508	-0.00113104	0.000297424	4.83435E-05	0	0	0	
0.101167	0.0129552	0.00127729	0.000292368	3.83079E-05	0	0	0	
0.101333	-0.00785609	-0.00166518	0.000272434	3.55764E-05	0	0	0	
0.1015	0.00482029	0.00239614	0.000217932	4.41138E-05	0	0	0	
0.101667	-0.0105481	-0.00282805	0.000189903	5.57874E-05	0	0	0	
0.101833	0.0185695	0.00217955	0.000208858	6.11877E-05	0	0	0	
0.102	-0.019885	-0.00186505	0.000281511	5.93829E-05	0	0	0	
0.102167	0.0137804	0.00192373	0.000331251	5.09136E-05	0	0	0	
0.102333	-0.00823175	-0.00290211	0.000319224	4.68858E-05	0	0	0	
0.1025	0.00869128	0.00425331	0.000260574	5.1135E-05	0	0	0	
0.102667	-0.0140808	-0.00322886	0.000223052	6.24289E-05	0	0	0	
0.102833	0.0135676	0.00181374	0.000222186	6.26148E-05	0	0	0	
0.103	-0.0110771	-0.00108453	0.000244058	5.09537E-05	0	0	0	
0.103167	0.00984663	0.000802043	0.000236054	3.34034E-05	0	0	0	
0.103333	-0.00903521	-0.00133572	0.000211359	2.42726E-05	0	0	0	
0.1035	0.0108893	0.00189618	0.000201099	2.6958E-05	0	0	0	
0.103667	-0.0175126	-0.000960173	0.000230759	3.08527E-05	0	0	0	
0.103833	0.022397	0.000922893	0.000289394	3.12318E-05	0	0	0	
0.104	-0.0184489	-0.00232597	0.000349356	3.31345E-05	0	0	0	
0.104167	0.0101725	0.00371515	0.000372862	4.71442E-05	0	0	0	
0.104333	-0.00729563	-0.00413038	0.000332065	6.4459E-05	0	0	0	
0.1045	0.0111999	0.00457486	0.000267544	7.66065E-05	0	0	0	
0.104667	-0.01452	-0.00331652	0.000230392	7.76254E-05	0	0	0	
0.104833	0.0134695	0.00199825	0.000252303	7.04741E-05	0	0	0	
0.105	-0.00438849	-0.00028019	0.000292088	5.10014E-05	0	0	0	
0.105167	-0.00130924	-0.00126684	0.000284087	3.05265E-05	0	0	0	
0.105333	-0.00278363	0.00126352	0.000205389	2.8943E-05	0	0	0	
0.1055	0.0174606	0.0006414	0.000214926	3.47983E-05	0	0	0	
0.105667	-0.0301634	-0.000822578	0.000310298	3.35703E-05	0	0	0	
0.105833	0.0363143	-0.00122705	0.000482443	3.0985E-05	0	0	0	
0.106	-0.0263167	0.000183799	0.000579773	2.07254E-05	0	0	0	
0.106167	0.00573481	0.00511688	0.000625596	4.33224E-05	0	0	0	
0.106333	0.0069839	-0.00782019	0.000574696	6.95083E-05	0	0	0	
0.1065	0.000169461	0.00498829	0.000376602	0.000112377	0	0	0	
0.106667	-0.0118186	7.20486E-05	0.000240432	0.000127399	0	0	0	
0.106833	0.016578	-0.00107187	0.000188992	9.69186E-05	0	0	0	
0.107	-0.0171293	-0.0018645	0.0002823	6.35201E-05	0	0	0	
0.107167	0.0147685	0.00418583	0.000299377	4.35859E-05	0	0	0	
0.107333	-0.0104426	-0.0039865	0.000293411	7.16503E-05	0	0	0	
0.1075	0.00991676	0.00563228	0.000253235	0.000106172	0	0	0	
0.107667	-0.0160814	-0.00570411	0.000243802	0.000126417	0	0	0	
0.107833	0.0200168	0.00107775	0.000264574	0.000109288	0	0	0	
0.108	-0.0174124	0.00432176	0.000318846	8.81308E-05	0	0	0	
0.108167	0.0116509	-0.00256458	0.000335307	6.51128E-05	0	0	0	
0.108333	-0.00752691	-0.00362305	0.000303552	0.000106441	0	0	0	
0.1085	0.00894308	0.00777666	0.000239272	0.000139157	0	0	0	
0.108667	-0.0149429	-0.00542764	0.000214254	0.00015857	0	0	0	
0.108833	0.0156244	-0.000461405	0.00023269	0.000134367	0	0	0	
0.109	-0.0135174	0.00198033	0.000270603	9.19382E-05	0	0	0	
0.109167	0.012353	-0.000248737	0.000271254	5.96711E-05	0	0	0	
0.109333	-0.012853	0.000596177	0.000259727	3.13211E-05	0	0	0	
0.1095	0.00870286	-0.000575991	0.000236807	3.50788E-05	0	0	0	
0.109667	-0.0101706	-0.00361031	0.000217594	6.56352E-05	0	0	0	
0.109833	0.0196707	0.00507791	0.000231518	8.89523E-05	0	0	0	
0.11	-0.0222452	-0.00233407	0.000286702	9.30077E-05	0	0	0	
0.110167	0.0117192	-0.00253469	0.000359325	8.50284E-05	0	0	0	
0.110333	-0.00339251	0.00368166	0.000350826	7.09526E-05	0	0	0	
0.1105	0.0081655	-0.00143247	0.000270606	7.13133E-05	0	0	0	
0.110667	-0.0170613	-0.00270787	0.000218404	6.8733E-05	0	0	0	
0.110833	0.0187581	0.00348084	0.000242379	6.92883E-05	0	0	0	
0.111	-0.0183147	-0.00123808	0.00031291	6.82304E-05	0	0	0	
0.111167	0.016807	-0.000583218	0.000342628	6.12818E-05	0	0	0	
0.111333	-0.00978	-0.000648688	0.00032519	5.16528E-05	0	0	0	
0.1115	0.00453435	0.00127965	0.000269569	3.83561E-05	0	0	0	
0.111667	-0.0092885	-0.00074119	0.000209424	3.06549E-05	0	0	0	
0.111833	0.018076	0.000925915	0.000214797	2.83416E-05	0	0	0	
0.112	-0.0199744	-0.00191707	0.000270502	3.02815E-05	0	0	0	
0.112167	0.0149947	0.00224896	0.000329863	3.5507E-05	0	0	0	
0.112333	-0.00687721	-0.00169825	0.00032074	4.03376E-05	0	0	0	
0.1125	0.0040335	0.000524665	0.000253817	3.60335E-05	0	0	0	
0.112667	-0.00742321	-5.95311E-05	0.000187516	2.40745E-05	0	0	0	
0.112833	0.0126049	0.000948562	0.000169028	1.86509E-05	0	0	0	
0.113	-0.016435	-0.00264726	0.000214489	2.23599E-05	0	0	0	
0.113167	0.0160303	0.00124539	0.000268863	3.00838E-05	0	0	0	
0.113333	-0.011224	9.90323E-05	0.000286607	3.13397E-05	0	0	0	
0.1135	0.0049553	0.00131946	0.000248985	2.32498E-05	0	0	0	
0.113667	-0.0057031	-0.00244911	0.000193768	2.25087E-05	0	0	0	
0.113833	0.0132166	0.001194	0.000186072	3.2921E-05	0	0	0	
0.114	-0.0183364	-0.000525268	0.000228944	4.31318E-05	0	0	0	
0.114167	0.0133459	0.00157578	0.000284821	3.9413E-05	0	0	0	
0.114333	-0.00898926	-0.00239766	0.000271533	3.74241E-05	0	0	0	
0.1145	0.00923289	0.0014756	0.000228513	3.44362E-05	0	0	0	
0.114667	-0.0101195	-0.00121487	0.000193615	3.58422E-05	0	0	0	
0.114833	0.0098737	0.00137331	0.000186684	2.76567E-05	0	0	0	
0.115	-0.0120525	-0.00187335	0.000201389	2.85294E-05	0	0	0	
0.115167	0.0166827	0.000838451	0.000232165	3.15772E-05	0	0	0	
0.115333	-0.0163541	-7.04681E-06	0.000265595	2.97728E-05	0	0	0	
0.1155	0.0108347	-0.00046793	0.000286923	2.12828E-05	0	0	0	
0.115667	-0.0086767	-0.000170509	0.00026537	1.05787E-05	0	0	0	
0.115833	0.0110745	0.000348565	0.000231041	6.51994E-06	0	0	0	
0.116	-0.0140905	-0.00146932	0.000223679	1.0334E-05	0	0	0	
0.116167	0.015574	0.00137086	0.000240333	1.85537E-05	0	0	0	
0.116333	-0.0121788	-0.00101828	0.000264446	2.5552E-05	0	0	0	
0.1165	0.0118056	0.00104367	0.000258575	2.35964E-05	0	0	0	
0.116667	-0.0148325	-0.00197974	0.00025117	2.58382E-05	0	0	0	
0.116833	0.0158043	0.00120744	0.000258158	3.66665E-05	0	0	0	
0.117	-0.013421	-1.58744E-05	0.000276943	5.29015E-05	0	0	0	
0.117167	0.00900328	-9.3085E-05	0.000277402	5.14327E-05	0	0	0	
0.117333	-0.00837688	-0.00142628	0.000248054	3.85916E-05	0	0	0	
0.1175	0.0124769	0.00185134	0.000215332	2.8177E-05	0	0	0	
0.117667	-0.0138656	-0.00171202	0.000213179	2.79593E-05	0	0	0	
0.117833	0.0132726	0.00146087	0.000236051	3.38771E-05	0	0	0	
0.118	-0.0118392	-0.00129247	0.000251628	3.08518E-05	0	0	0	
0.118167	0.0110919	0.00142763	0.000247936	2.97518E-05	0	0	0	
0.118333	-0.00929036	-0.000613267	0.000231824	2.4868E-05	0	0	0	
0.1185	0.00766744	-0.000372896	0.000204564	2.01811E-05	0	0	0	
0.118667	-0.0113241	1.01198E-05	0.000193669	1.7576E-05	0	0	0	
0.118833	0.0176162	0.000820286	0.0002192	1.26798E-05	0	0	0	
0.119	-0.018339	0.000427585	0.000273562	1.75924E-05	0	0	0	
0.119167	0.015955	-0.00102196	0.000317119	2.47528E-05	0	0	0	
0.119333	-0.0118596	0.000369821	0.00031655	3.42772E-05	0	0	0	
0.1195	0.00946964	0.000799778	0.000285593	3.52789E-05	0	0	0	
0.119667	-0.0102376	-0.00137394	0.000246275	3.47817E-05	0	0	0	
0.119833	0.0110456	0.00111995	0.000222097	3.67704E-05	0	0	0	
0.12	-0.0144722	-0.00239996	0.000227866	4.20536E-05	0	0	0	
0.120167	0.0224147	0.00425548	0.000264891	4.96786E-05	0	0	0	
0.120333	-0.0245842	-0.00681244	0.000348011	7.20926E-05	0	0	0	
0.1205	0.012433	0.00696926	0.00047365	0.000109816	0	0	0	
0.120667	0.00728247	-0.00292267	0.000605076	0.000140712	0	0	0	
0.120833	-0.0140994	0.00124416	0.000569697	0.000181424	0	0	0	
0.121	-0.000324515	0.000163339	0.000431767	0.000229969	0	0	0	
0.121167	0.0225303	-0.00125651	0.000318206	0.000267045	0	0	0	
0.121333	-0.0365903	0.00327154	0.000370734	0.000251829	0	0	0	
0.1215	0.0320566	-0.00399427	0.000536724	0.000197188	0	0	0	
0.121667	-0.0116897	0.00726936	0.00069585	0.000160662	0	0	0	
0.121833	-0.0154954	-0.0101279	0.000837336	0.000165685	0	0	0	
0.122	0.0237881	0.0113738	0.000758735	0.000192053	0	0	0	
0.122167	0.00494742	-0.00918204	0.000652284	0.000210023	0	0	0	
0.122333	-0.0434894	0.00685051	0.000605164	0.000195554	0	0	0	
0.1225	0.0470849	-0.00369063	0.000710783	0.000162533	0	0	0	
0.122667	-0.0188281	-0.00183339	0.000831861	0.000110419	0	0	0	
0.122833	-0.00216427	0.00674636	0.000836055	9.57358E-05	0	0	0	
0.123	0.00865338	-0.00604707	0.000721721	0.00011802	0	0	0	
0.123167	-0.00938679	0.00244704	0.00047599	0.000156917	0	0	0	
0.123333	-0.000875752	-0.00123591	0.000288365	0.000143422	0	0	0	
0.1235	0.0178647	0.00226276	0.000285048	0.000101387	0	0	0	
0.123667	-0.0262203	-0.00360748	0.000377563	7.53381E-05	0	0	0	
0.123833	0.0199444	0.00560958	0.000434213	8.5693E-05	0	0	0	
0.124	-0.0141601	-0.00623851	0.000403397	0.000106419	0	0	0	
0.124167	0.0131015	0.00575852	0.000347867	0.000110019	0	0	0	
0.124333	-0.0125798	-0.00301409	0.000293049	0.000112297	0	0	0	
0.1245	0.00976473	0.00079056	0.000252717	0.000102912	0	0	0	
0.124667	-0.00723331	-0.000972961	0.000219029	7.76776E-05	0	0	0	
0.124833	0.00726878	0.00311618	0.0001852	5.4567E-05	0	0	0	
0.125	-0.0113056	-0.00266141	0.000181252	4.26734E-05	0	0	0	
0.125167	0.0163303	0.000757056	0.000218803	4.64809E-05	0	0	0	
0.125333	-0.0175836	-0.000350947	0.000272067	3.78116E-05	0	0	0	
0.1255	0.0132184	0.00186853	0.000298056	2.92009E-05	0	0	0	
0.125667	-0.0107525	-0.00289768	0.000282556	3.17437E-05	0	0	0	
0.125833	0.0114552	0.00296248	0.000247264	4.59074E-05	0	0	0	
0.126	-0.00918213	-0.00114581	0.000219914	5.5698E-05	0	0	0	
0.126167	0.010653	2.98088E-05	0.000209514	5.19796E-05	0	0	0	
0.126333	-0.0139971	-0.00098722	0.000221292	3.75761E-05	0	0	0	
0.1265	0.00947358	0.00226052	0.000249583	2.9383E-05	0	0	0	
0.126667	-0.00247767	-0.00236397	0.00026973	3.09612E-05	0	0	0	
0.126833	0.00246357	0.00217385	0.000217229	4.09633E-05	0	0	0	
0.127	-0.00960109	-0.0023708	0.00016229	4.22353E-05	0	0	0	
0.127167	0.0139588	0.00319924	0.000146278	4.77881E-05	0	0	0	
0.127333	-0.0153857	-0.00173468	0.00020819	4.76226E-05	0	0	0	
0.1275	0.0192183	0.000170392	0.00027414	4.20022E-05	0	0	0	
0.127667	-0.022794	0.000988243	0.000334171	2.69001E-05	0	0	0	
0.127833	0.017396	0.00058915	0.000382775	2.52003E-05	0	0	0	
0.128	-0.00730463	-0.00147698	0.000398935	3.28041E-05	0	0	0	
0.128167	0.00292168	0.00210858	0.000330582	4.0021E-05	0	0	0	
0.128333	-0.00991125	-0.000302025	0.000250286	3.58667E-05	0	0	0	
0.1285	0.0192417	8.85738E-05	0.000224579	2.25525E-05	0	0	0	
0.128667	-0.0171701	-5.04608E-05	0.000270951	1.25896E-05	0	0	0	
0.128833	0.0113843	0.000630522	0.000311258	7.3123E-06	0	0	0	
0.129	-0.00987441	-0.000379928	0.000282657	9.0247E-06	0	0	0	
0.129167	0.0119775	0.00113324	0.000242071	1.32748E-05	0	0	0	
0.129333	-0.0124788	0.000295458	0.000223246	2.28755E-05	0	0	0	
0.1295	0.0139859	-0.00127511	0.000232576	3.18063E-05	0	0	0	
0.129667	-0.0146567	0.000201903	0.000253323	2.98377E-05	0	0	0	
0.129833	0.0105696	0.00205299	0.000254928	2.73148E-05	0	0	0	
0.13	-0.00897872	-0.00228738	0.000240521	2.75776E-05	0	0	0	
0.130167	0.0117288	0.00241026	0.000214624	4.05079E-05	0	0	0	
0.130333	-0.0123895	-0.00176027	0.000213469	4.85988E-05	0	0	0	
0.1305	0.010479	0.00231505	0.000218826	5.53837E-05	0	0	0	
0.130667	-0.0137264	-0.00212008	0.000231225	5.51903E-05	0	0	0	
0.130833	0.0155887	0.00244923	0.000242561	5.30546E-05	0	0	0	
0.131	-0.0122995	-0.00279358	0.000257713	5.06389E-05	0	0	0	
0.131167	0.00906033	0.00370112	0.000255308	5.48377E-05	0	0	0	
0.131333	-0.0115466	-0.00296379	0.000232605	5.85785E-05	0	0	0	
0.1315	0.013927	0.0012013	0.000225357	6.79898E-05	0	0	0	
0.131667	-0.012817	0.000751789	0.000233764	6.96654E-05	0	0	0	
0.131833	0.0105449	0.000741451	0.000242592	5.23519E-05	0	0	0	
0.132	-0.00971279	-0.00385166	0.00023054	4.27431E-05	0	0	0	
0.132167	0.0103004	0.0040392	0.000213342	4.39898E-05	0	0	0	
0.132333	-0.0115492	-0.00241998	0.000204913	6.57724E-05	0	0	0	
0.1325	0.0108351	0.00191967	0.000209237	7.44146E-05	0	0	0	
0.132667	-0.0109696	-0.00202441	0.000212442	7.81982E-05	0	0	0	
0.132833	0.0122894	0.000902462	0.000213758	8.22039E-05	0	0	0	
0.133	-0.012656	-0.000395906	0.000224414	7.63386E-05	0	0	0	
0.133167	0.0114646	0.00187015	0.00023363	5.8479E-05	0	0	0	
0.133333	-0.0102354	-0.00441311	0.000232523	4.96813E-05	0	0	0	
0.1335	0.0134046	0.00429712	0.000228578	5.73819E-05	0	0	0	
0.133667	-0.017251	-0.00219936	0.000246098	7.46667E-05	0	0	0	
0.133833	0.0182093	0.000171144	0.000285127	7.49575E-05	0	0	0	
0.134	-0.0160727	0.000131743	0.00032085	5.3023E-05	0	0	0	
0.134167	0.0085201	0.000587549	0.000324484	3.09915E-05	0	0	0	
0.134333	-0.00310512	-0.0018974	0.000278426	2.0481E-05	0	0	0	
0.1345	0.00603967	0.00288206	0.000202455	2.99477E-05	0	0	0	
0.134667	-0.0148115	-0.00308544	0.000193891	4.38985E-05	0	0	0	
0.134833	0.0221548	0.00122608	0.00025378	5.55687E-05	0	0	0	
0.135	-0.0222948	0.00108664	0.000346373	6.3055E-05	0	0	0	
0.135167	0.0151647	-0.00104054	0.000390688	5.19023E-05	0	0	0	
0.135333	-0.00710296	-0.00140801	0.000381713	4.24693E-05	0	0	0	
0.1355	0.00120003	0.00356961	0.000313633	3.66775E-05	0	0	0	
0.135667	-0.00204882	-0.00395273	0.000200504	5.19694E-05	0	0	0	
0.135833	0.0119924	0.00292923	0.000171333	6.59718E-05	0	0	0	
0.136	-0.0223735	-0.0015499	0.000231689	7.33518E-05	0	0	0	
0.136167	0.0250806	0.00063566	0.000353648	6.78623E-05	0	0	0	
0.136333	-0.0176646	-0.000227435	0.000410979	4.64077E-05	0	0	0	
0.1365	0.00768582	0.00200321	0.00040877	3.3853E-05	0	0	0	
0.136667	-0.00274424	-0.00304134	0.000334559	3.50594E-05	0	0	0	
0.136833	0.0050402	0.00317871	0.000223025	4.80708E-05	0	0	0	
0.137	-0.0121098	-0.000852996	0.000169219	5.55218E-05	0	0	0	
0.137167	0.0185771	-0.000799209	0.000196291	5.47095E-05	0	0	0	
0.137333	-0.0166114	0.000599921	0.000275458	4.25515E-05	0	0	0	
0.1375	0.007378	0.0014335	0.000302517	3.06519E-05	0	0	0	
0.137667	-0.00266016	-0.00190873	0.000251527	2.34626E-05	0	0	0	
0.137833	0.0100836	0.00154236	0.000200358	2.94745E-05	0	0	0	
0.138	-0.0182321	-0.00152067	0.000212945	3.5057E-05	0	0	0	
0.138167	0.0153854	0.000739787	0.000269006	3.70544E-05	0	0	0	
0.138333	-0.0118686	0.000389934	0.000300073	4.58025E-05	0	0	0	
0.1385	0.0195951	-0.000698457	0.000304739	4.9589E-05	0	0	0	
0.138667	-0.025702	0.000324602	0.000340041	4.03465E-05	0	0	0	
0.138833	0.0153917	0.0011665	0.000393911	2.3861E-05	0	0	0	
0.139	-0.00295527	-0.00175043	0.000383069	1.72521E-05	0	0	0	
0.139167	0.00346384	0.00159798	0.000270882	2.43919E-05	0	0	0	
0.139333	-0.00711408	-0.000850605	0.000173743	3.07377E-05	0	0	0	
0.1395	0.00558113	0.000244718	0.00012239	3.96609E-05	0	0	0	
0.139667	-0.0123081	0.00129701	0.000185548	4.48772E-05	0	0	0	
0.139833	0.0218403	-0.00074199	0.000262077	4.07212E-05	0	0	0	
0.14	-0.0199619	-0.000870758	0.000340918	2.81389E-05	0	0	0	
0.140167	0.0134659	0.000802389	0.000361456	1.71695E-05	0	0	0	
0.140333	-0.0108244	-0.000188546	0.000323747	1.88231E-05	0	0	0	
0.1405	0.00889665	0.000790763	0.000263852	1.75597E-05	0	0	0	
0.140667	-0.0117417	-0.000787923	0.000222603	2.28982E-05	0	0	0	
0.140833	0.0180797	0.00137578	0.00023112	2.02092E-05	0	0	0	
0.141	-0.0166325	-8.598E-05	0.000273508	4.39693E-05	0	0	0	
0.141167	0.00665731	-0.00311803	0.000304355	8.09119E-05	0	0	0	
0.141333	-0.00370504	0.00515828	0.000254694	0.000124142	0	0	0	
0.1415	0.0129105	-0.00441295	0.000216183	0.000124405	0	0	0	
0.141667	-0.0187558	-0.00124422	0.000221433	0.000112114	0	0	0	
0.141833	0.0150634	0.00766774	0.000281108	0.000109608	0	0	0	
0.142	-0.0108576	-0.0093069	0.000294853	0.000130503	0	0	0	
0.142167	0.0122189	0.00416231	0.000263589	0.000160525	0	0	0	
0.142333	-0.0132125	-0.00054661	0.000240076	0.000172199	0	0	0	
0.1425	0.0107194	-4.70558E-05	0.000228026	0.000144697	0	0	0	
0.142667	-0.00911664	-0.000707274	0.000222087	8.42817E-05	0	0	0	
0.142833	0.00999141	0.000929234	0.00020271	4.03689E-05	0	0	0	
0.143	-0.0117991	-0.00273475	0.000198775	4.2245E-05	0	0	0	
0.143167	0.0101275	0.00461693	0.000201056	6.22051E-05	0	0	0	
0.143333	-0.00716185	-0.00287461	0.000195792	7.26428E-05	0	0	0	
0.1435	0.00534653	-0.000587902	0.000169409	6.82138E-05	0	0	0	
0.143667	-0.0110095	-0.000284339	0.00015909	4.57E-05	0	0	0	
0.143833	0.0132489	0.00406885	0.000182995	4.05918E-05	0	0	0	
0.144	-0.00947063	-0.00484654	0.000211802	4.74216E-05	0	0	0	
0.144167	0.00850518	0.00131465	0.000213539	8.44814E-05	0	0	0	
0.144333	-0.0144243	0.00225657	0.000211605	9.54393E-05	0	0	0	
0.1445	0.0136094	-0.000567694	0.000226388	7.89093E-05	0	0	0	
0.144667	-0.00566414	-0.00317317	0.000238248	6.36321E-05	0	0	0	
0.144833	0.00529927	0.00401181	0.000200363	5.77923E-05	0	0	0	
0.145	-0.0124044	-0.0031089	0.000177211	7.0195E-05	0	0	0	
0.145167	0.0148633	0.00230837	0.000190393	6.21888E-05	0	0	0	
0.145333	-0.0144965	-0.001095	0.000244569	5.12215E-05	0	0	0	
0.1455	0.0130545	-0.000202019	0.00026757	3.50094E-05	0	0	0	
0.145667	-0.00970786	2.72261E-05	0.000255897	2.12357E-05	0	0	0	
0.145833	0.0100478	0.000511036	0.000227461	1.1577E-05	0	0	0	
0.146	-0.013261	-0.00135832	0.000216858	1.28076E-05	0	0	0	
0.146167	0.0152933	0.00177077	0.000236617	2.05327E-05	0	0	0	
0.146333	-0.0163668	-0.00125706	0.000270907	2.72083E-05	0	0	0	
0.1465	0.0161798	-1.43161E-05	0.000293738	2.68903E-05	0	0	0	
0.146667	-0.0153319	0.000108191	0.000300501	2.2589E-05	0	0	0	
0.146833	0.0126532	0.000333461	0.000291157	1.74625E-05	0	0	0	
0.147	-0.0117508	-0.000243966	0.000273096	1.37179E-05	0	0	0	
0.147167	0.0137048	0.000809647	0.00025377	1.28622E-05	0	0	0	
0.147333	-0.0134417	-0.00101635	0.000246686	1.32869E-05	0	0	0	
0.1475	0.0118288	0.00113127	0.000247186	1.90606E-05	0	0	0	
0.147667	-0.0118235	-0.00134523	0.000241669	2.49493E-05	0	0	0	
0.147833	0.0108782	0.00168141	0.000230217	2.95883E-05	0	0	0	
0.148	-0.0100288	-0.00184234	0.000216596	3.1174E-05	0	0	0	
0.148167	0.0125552	0.00151352	0.000212629	3.16657E-05	0	0	0	
0.148333	-0.0165835	-0.00132059	0.000234655	3.10499E-05	0	0	0	
0.1485	0.0178304	0.00157935	0.000274151	2.9192E-05	0	0	0	
0.148667	-0.0135197	-0.000930452	0.000307112	2.94558E-05	0	0	0	
0.148833	0.0086628	-0.000531499	0.000305582	3.0301E-05	0	0	0	
0.149	-0.00454327	-9.96201E-07	0.000269144	2.67452E-05	0	0	0	
0.149167	0.00280286	0.000841323	0.000199319	2.12668E-05	0	0	0	
0.149333	-0.00793284	-0.0009536	0.00015427	2.44748E-05	0	0	0	
0.1495	0.0155614	0.000286149	0.000167977	3.57364E-05	0	0	0	
0.149667	-0.01722	-0.000447127	0.000232645	4.36395E-05	0	0	0	
0.149833	0.0135828	0.00164622	0.000285552	4.31851E-05	0	0	0	
0.15	-0.0108091	-0.00215682	0.000283598	4.28955E-05	0	0	0	
0.150167	0.0104827	0.00237354	0.000255836	4.92236E-05	0	0	0	
0.150333	-0.0115928	-0.00242498	0.000226345	5.64107E-05	0	0	0	
0.1505	0.0126475	0.00291279	0.000219672	6.06871E-05	0	0	0	
0.150667	-0.0131546	-0.00181489	0.000233539	6.15969E-05	0	0	0	
0.150833	0.0116444	0.000829815	0.000249984	5.94762E-05	0	0	0	
0.151	-0.00741142	-0.000875364	0.0002549	5.04089E-05	0	0	0	
0.151167	0.00372514	0.00235122	0.000231011	4.15673E-05	0	0	0	
0.151333	-0.00610953	-0.00299626	0.000181611	4.15107E-05	0	0	0	
0.1515	0.0160147	0.00286211	0.000180393	5.0919E-05	0	0	0	
0.151667	-0.0232437	-0.0022088	0.000241197	6.02677E-05	0	0	0	
0.151833	0.0192161	0.00171866	0.000339384	6.10007E-05	0	0	0	
0.152	-0.0103268	-0.0016804	0.000390598	6.12579E-05	0	0	0	
0.152167	0.00599666	0.000771807	0.000359577	5.65025E-05	0	0	0	
0.152333	-0.00705427	-0.00047999	0.000279293	4.31733E-05	0	0	0	
0.1525	0.00940927	0.00244588	0.000202973	3.39306E-05	0	0	0	
0.152667	-0.0135358	-0.00333364	0.000186046	3.60074E-05	0	0	0	
0.152833	0.0169907	0.00253703	0.000224981	4.96171E-05	0	0	0	
0.153	-0.0182928	-0.000528736	0.00028095	5.60027E-05	0	0	0	
0.153167	0.0157171	-0.00060614	0.000318936	5.11422E-05	0	0	0	
0.153333	-0.0104938	-0.000154291	0.000325478	3.64383E-05	0	0	0	
0.1535	0.00565532	0.00193074	0.000283366	2.50572E-05	0	0	0	
0.153667	-0.00712305	-0.00233667	0.000215886	2.67641E-05	0	0	0	
0.153833	0.0194695	0.0022258	0.000218209	3.77655E-05	0	0	0	
0.154	-0.034432	-0.000789803	0.000322062	3.97214E-05	0	0	0	
0.154167	0.0370232	-7.98962E-05	0.000497914	3.40957E-05	0	0	0	
0.154333	-0.0128781	-0.000783023	0.000714502	3.30083E-05	0	0	0	
0.1545	-0.020425	0.00144895	0.000908333	3.57246E-05	0	0	0	
0.154667	0.0354324	-0.0013848	0.00090251	4.66132E-05	0	0	0	
0.154833	-0.0205851	-0.000670059	0.000762135	5.99623E-05	0	0	0	
0.155	-0.0116108	0.00236124	0.000692963	7.80053E-05	0	0	0	
0.155167	0.0448691	-0.00238294	0.000771244	8.38353E-05	0	0	0	
0.155333	-0.0566512	0.000722067	0.000899277	6.98073E-05	0	0	0	
0.1555	0.0427958	-0.000520846	0.000929622	4.403E-05	0	0	0	
0.155667	-0.0211816	0.00240236	0.000937883	3.01652E-05	0	0	0	
0.155833	0.0100546	-0.00350717	0.000855043	4.08321E-05	0	0	0	
0.156	-0.00506368	0.00276324	0.000710683	6.37617E-05	0	0	0	
0.156167	-0.00234959	-0.00159197	0.000579966	6.86694E-05	0	0	0	
0.156333	0.00764176	0.00281839	0.000460368	7.30318E-05	0	0	0	
0.1565	-0.00682979	-0.00386544	0.000312085	7.4731E-05	0	0	0	
0.156667	-0.00307799	0.0028668	0.000255955	7.85829E-05	0	0	0	
0.156833	0.0251124	-4.53294E-05	0.000362266	6.02004E-05	0	0	0	
0.157	-0.0442591	-0.000580939	0.000578167	4.48992E-05	0	0	0	
0.157167	0.041956	0.000172794	0.000721691	4.11223E-05	0	0	0	
0.157333	-0.0263336	-0.00236418	0.00075372	4.50563E-05	0	0	0	
0.1575	0.0127649	0.00310598	0.000698535	5.09016E-05	0	0	0	
0.157667	-0.00142269	-0.00207087	0.000587562	5.32089E-05	0	0	0	
0.157833	-0.00377238	0.00279165	0.000405391	6.07961E-05	0	0	0	
0.158	-0.010799	-0.00390566	0.000300355	7.28308E-05	0	0	0	
0.158167	0.0273208	0.00259693	0.000289886	9.04816E-05	0	0	0	
0.158333	-0.0186052	-7.77875E-05	0.000370243	8.87495E-05	0	0	0	
0.1585	0.00366439	0.000217475	0.000397089	7.61698E-05	0	0	0	
0.158667	-0.00955474	-0.00322836	0.000307507	8.51066E-05	0	0	0	
0.158833	0.021775	0.0054067	0.000278411	0.000116226	0	0	0	
0.159	-0.0181645	-0.00696978	0.000287768	0.000137724	0	0	0	
0.159167	0.00461293	0.00605252	0.000346849	0.000132061	0	0	0	
0.159333	-0.00732835	0.000622289	0.000282864	0.000128459	0	0	0	
0.1595	0.0211509	-0.00538137	0.000262625	0.000121484	0	0	0	
0.159667	-0.0237314	0.00459266	0.000289804	0.000111778	0	0	0	
0.159833	0.0139801	-0.00072227	0.000383119	0.000100212	0	0	0	
0.16	-0.0061643	-0.000884125	0.000377334	9.13889E-05	0	0	0	
0.160167	0.00490571	0.00168001	0.000289235	6.71789E-05	0	0	0	
0.160333	-0.0100845	-0.00223092	0.00020269	4.43474E-05	0	0	0	
0.1605	0.0148095	0.00215562	0.000188957	3.42663E-05	0	0	0	
0.160667	-0.0190301	-0.00101008	0.000255992	4.29296E-05	0	0	0	
0.160833	0.0227927	-0.000204387	0.00033029	4.36003E-05	0	0	0	
0.161	-0.0220434	-0.00045032	0.000384607	3.38181E-05	0	0	0	
0.161167	0.01644	0.00155253	0.000395971	2.59225E-05	0	0	0	
0.161333	-0.0111305	-0.000480142	0.000360168	3.354E-05	0	0	0	
0.1615	0.0154517	-0.00229544	0.000306356	5.66321E-05	0	0	0	
0.161667	-0.0191618	0.001569	0.000290756	6.17282E-05	0	0	0	
0.161833	0.0128767	0.000452601	0.000299384	5.21062E-05	0	0	0	
0.162	-0.0099203	-0.000701689	0.000290522	3.11058E-05	0	0	0	
0.162167	0.0139165	7.05263E-05	0.000265593	2.42748E-05	0	0	0	
0.162333	-0.0167576	0.000474742	0.00026788	2.20116E-05	0	0	0	
0.1625	0.0175258	0.000666182	0.000293523	2.49695E-05	0	0	0	
0.162667	-0.017275	-0.00256504	0.000318232	3.37958E-05	0	0	0	
0.162833	0.0102457	0.00417368	0.00031106	4.5434E-05	0	0	0	
0.163	-0.00194725	-0.000663958	0.000274572	5.94264E-05	0	0	0	
0.163167	0.00563776	-0.00446233	0.000200637	7.76645E-05	0	0	0	
0.163333	-0.0168274	0.00467396	0.000199754	8.57372E-05	0	0	0	
0.1635	0.019604	-0.00147294	0.000243254	8.18328E-05	0	0	0	
0.163667	-0.0135773	-0.0003988	0.000315965	5.4248E-05	0	0	0	
0.163833	0.00895771	0.00161942	0.000303383	3.54757E-05	0	0	0	
0.164	-0.00886434	-0.00249924	0.000254274	3.00037E-05	0	0	0	
0.164167	0.0103772	0.00282686	0.000209929	4.25158E-05	0	0	0	
0.164333	-0.0127091	-0.00240705	0.000200659	5.34695E-05	0	0	0	
0.1645	0.0147999	0.00132846	0.000223048	5.75043E-05	0	0	0	
0.164667	-0.0144125	-0.000608261	0.000254198	5.31999E-05	0	0	0	
0.164833	0.0105792	0.00118036	0.000268401	4.14219E-05	0	0	0	
0.165	-0.00883134	-0.00193256	0.000252877	3.28538E-05	0	0	0	
0.165167	0.01037	0.00227279	0.000222888	3.66128E-05	0	0	0	
0.165333	-0.0124185	-0.00174804	0.000210138	4.65336E-05	0	0	0	
0.1655	0.0140268	0.00201397	0.000221978	5.49311E-05	0	0	0	
0.165667	-0.0143369	-0.00248742	0.000246028	6.33064E-05	0	0	0	
0.165833	0.0097815	0.00106964	0.000255606	7.72026E-05	0	0	0	
0.166	-0.00646562	-8.07956E-05	0.00023327	8.68547E-05	0	0	0	
0.166167	0.0117605	0.00257277	0.000212081	7.73079E-05	0	0	0	
0.166333	-0.01971	-0.00499587	0.000230373	6.93052E-05	0	0	0	
0.1665	0.0179256	0.00492921	0.000283481	7.42107E-05	0	0	0	
0.166667	-0.012024	-0.00307948	0.000326915	9.06148E-05	0	0	0	
0.166833	0.00891188	0.00104746	0.000303675	8.58761E-05	0	0	0	
0.167	-0.0105225	-0.000856374	0.000256869	6.0665E-05	0	0	0	
0.167167	0.0145748	0.002748	0.000227899	4.21461E-05	0	0	0	
0.167333	-0.0153149	-0.00405956	0.000240528	4.66596E-05	0	0	0	
0.1675	0.0112915	0.00337917	0.000270421	6.17901E-05	0	0	0	
0.167667	-0.00622408	-0.00151875	0.000273093	6.47766E-05	0	0	0	
0.167833	0.0045808	-0.000447381	0.000227364	5.63996E-05	0	0	0	
0.168	-0.00860136	0.000875905	0.00017924	4.2963E-05	0	0	0	
0.168167	0.0138961	0.000717273	0.000166281	2.9007E-05	0	0	0	
0.168333	-0.015723	-0.00225037	0.000211505	2.21467E-05	0	0	0	
0.1685	0.0164176	0.00177608	0.000265636	2.56454E-05	0	0	0	
0.168667	-0.0156736	-0.00163999	0.000302758	3.89858E-05	0	0	0	
0.168833	0.0101872	0.00153916	0.000320118	4.43875E-05	0	0	0	
0.169	-0.00447147	-0.00123604	0.000313987	4.31781E-05	0	0	0	
0.169167	0.00401647	0.00112642	0.000257214	3.78987E-05	0	0	0	
0.169333	-0.00956649	-0.00141074	0.000194325	3.63521E-05	0	0	0	
0.1695	0.013461	0.00126611	0.000173929	3.94528E-05	0	0	0	
0.169667	-0.0148131	-0.00123377	0.000212539	4.08658E-05	0	0	0	
0.169833	0.0148835	0.00166173	0.000262174	3.7376E-05	0	0	0	
0.17	-0.012754	-0.00225441	0.00028791	3.62543E-05	0	0	0	
0.170167	0.00915207	0.00279749	0.00029156	3.96188E-05	0	0	0	
0.170333	-0.00815006	-0.00288065	0.000267521	4.79969E-05	0	0	0	
0.1705	0.0105029	0.00303884	0.000233526	5.58809E-05	0	0	0	
0.170667	-0.013614	-0.00261571	0.000215632	6.06448E-05	0	0	0	
0.170833	0.0155523	0.00179369	0.000233776	6.00255E-05	0	0	0	
0.171	-0.016524	-0.00144846	0.00027218	5.44355E-05	0	0	0	
0.171167	0.0140115	0.00145609	0.000304729	4.36786E-05	0	0	0	
0.171333	-0.00900095	-0.0021442	0.000307793	3.79523E-05	0	0	0	
0.1715	0.00848039	0.00263089	0.000274591	3.5239E-05	0	0	0	
0.171667	-0.0117183	-0.00252097	0.000234119	4.46063E-05	0	0	0	
0.171833	0.0143873	0.00171128	0.000224268	4.98426E-05	0	0	0	
0.172	-0.0140153	-0.00241212	0.000244408	5.3042E-05	0	0	0	
0.172167	0.0120305	0.00329362	0.000260504	5.32926E-05	0	0	0	
0.172333	-0.0141583	-0.00319367	0.000262449	5.67353E-05	0	0	0	
0.1725	0.0178942	0.00197953	0.000271592	5.58352E-05	0	0	0	
0.172667	-0.0183288	-0.00179778	0.000300277	5.33249E-05	0	0	0	
0.172833	0.0133312	0.00172833	0.000327242	4.73277E-05	0	0	0	
0.173	-0.00899743	-0.00241239	0.000318323	4.69323E-05	0	0	0	
0.173167	0.00757198	0.0022257	0.000269857	4.58498E-05	0	0	0	
0.173333	-0.00935797	-0.00189083	0.000216265	4.55678E-05	0	0	0	
0.1735	0.0107051	0.000861062	0.000191605	3.93911E-05	0	0	0	
0.173667	-0.014466	-0.000640774	0.000210194	3.42221E-05	0	0	0	
0.173833	0.0176541	0.000894367	0.000248506	2.80274E-05	0	0	0	
0.174	-0.0143911	-0.00186703	0.000284874	2.77218E-05	0	0	0	
0.174167	0.0108224	0.00276241	0.000290142	3.16397E-05	0	0	0	
0.174333	-0.0133771	-0.00212222	0.000271299	4.22534E-05	0	0	0	
0.1745	0.0139245	0.000476998	0.000253958	4.82383E-05	0	0	0	
0.174667	-0.0109776	-0.000790572	0.000259827	3.98167E-05	0	0	0	
0.174833	0.00732135	0.00157059	0.000252842	3.02838E-05	0	0	0	
0.175	-0.0055045	-0.00186814	0.000220636	2.8697E-05	0	0	0	
0.175167	0.00455812	0.00228403	0.000166446	3.41675E-05	0	0	0	
0.175333	-0.0102001	-0.000758348	0.000173595	4.07619E-05	0	0	0	
0.1755	0.0227308	-0.00174086	0.000255274	4.99415E-05	0	0	0	
0.175667	-0.0298762	0.00292636	0.000369597	5.35522E-05	0	0	0	
0.175833	0.01836	-0.00105563	0.000464272	5.2038E-05	0	0	0	
0.176	-0.00221121	-0.00149202	0.000495933	4.78903E-05	0	0	0	
0.176167	-0.00687218	0.00284211	0.000432296	4.47288E-05	0	0	0	
0.176333	0.00564729	-0.0020655	0.000288444	4.69428E-05	0	0	0	
0.1765	0.00381968	0.000928093	0.000206613	5.00072E-05	0	0	0	
0.176667	-0.0174907	0.000704981	0.000241534	6.69733E-05	0	0	0	
0.176833	0.0251584	-0.00176098	0.000345256	7.5397E-05	0	0	0	
0.177	-0.0209592	0.000559631	0.000405306	6.39061E-05	0	0	0	
0.177167	0.012752	0.00189838	0.000405658	4.57837E-05	0	0	0	
0.177333	-0.0102416	-0.00209815	0.000369299	3.44637E-05	0	0	0	
0.1775	0.00749009	0.000133373	0.000305744	3.22013E-05	0	0	0	
0.177667	-0.00607476	-0.00322022	0.000241202	3.38608E-05	0	0	0	
0.177833	0.00974204	0.00745819	0.000193943	5.55775E-05	0	0	0	
0.178	-0.0144043	-0.00662531	0.000188094	9.5858E-05	0	0	0	
0.178167	0.0118073	0.00165311	0.000213615	0.000130781	0	0	0	
0.178333	-0.0100877	0.00140881	0.00023988	0.000123154	0	0	0	
0.1785	0.0143631	0.000660421	0.000243273	8.62073E-05	0	0	0	
0.178667	-0.0180225	-0.00555814	0.000256865	6.04505E-05	0	0	0	
0.178833	0.0132939	0.00558877	0.000287892	6.7766E-05	0	0	0	
0.179	-0.00818596	-0.0023804	0.000299274	8.52004E-05	0	0	0	
0.179167	0.00871264	0.00130993	0.000257735	7.66797E-05	0	0	0	
0.179333	-0.0149318	-0.00242024	0.000230464	5.75688E-05	0	0	0	
0.1795	0.0181313	0.00281648	0.000242278	4.81662E-05	0	0	0	
0.179667	-0.0155317	-0.00196351	0.000290584	4.93085E-05	0	0	0	
0.179833	0.00990649	0.00250474	0.000314391	4.8363E-05	0	0	0	
0.18	-0.00646891	-0.00345812	0.000285593	4.72134E-05	0	0	0	
0.180167	0.00546075	0.00224479	0.000221656	5.4419E-05	0	0	0	
0.180333	-0.00782486	0.000657428	0.000165928	6.18529E-05	0	0	0	
0.1805	0.0110291	-0.00073985	0.000165171	5.02165E-05	0	0	0	
0.180667	-0.0175135	-0.00294517	0.000231593	4.38904E-05	0	0	0	
0.180833	0.0233255	0.0053426	0.000314098	4.57629E-05	0	0	0	
0.181	-0.0220653	-0.00195521	0.000380443	7.20132E-05	0	0	0	
0.181167	0.0161512	-0.00222997	0.000396963	9.47378E-05	0	0	0	
0.181333	-0.012277	0.000895734	0.000373486	7.64559E-05	0	0	0	
0.1815	0.00855756	0.00444056	0.000313123	7.83657E-05	0	0	0	
0.181667	-0.00928906	-0.0069144	0.000252263	7.62567E-05	0	0	0	
0.181833	0.00609838	0.00583542	0.000223074	0.000109865	0	0	0	
0.182	0.010408	-0.00499955	0.00029156	0.000114266	0	0	0	
0.182167	-0.026735	0.00270539	0.000357166	0.000102977	0	0	0	
0.182333	0.0185499	-0.00237094	0.000439417	8.49213E-05	0	0	0	
0.1825	0.0104872	0.00239479	0.000594897	8.42755E-05	0	0	0	
0.182667	-0.0413815	-0.0047492	0.000766916	0.00011507	0	0	0	
0.182833	0.0518547	0.00705082	0.00089536	0.000145074	0	0	0	
0.183	-0.0405741	-0.00585447	0.000885586	0.000148589	0	0	0	
0.183167	0.0135017	0.00106191	0.00090716	0.000113703	0	0	0	
0.183333	0.0172789	0.00243436	0.000941997	7.4842E-05	0	0	0	
0.1835	-0.0274748	-0.00320918	0.000835712	5.09656E-05	0	0	0	
0.183667	0.0132982	0.00125503	0.000639986	5.57876E-05	0	0	0	
0.183833	0.0138367	0.00108859	0.000556675	6.79655E-05	0	0	0	
0.184	-0.0349596	-0.00188872	0.000588864	6.81711E-05	0	0	0	
0.184167	0.0313726	0.00187235	0.000649063	5.22339E-05	0	0	0	
0.184333	-0.0118506	-0.00128713	0.000596315	3.93216E-05	0	0	0	
0.1845	0.00202293	0.000331793	0.000501814	3.75744E-05	0	0	0	
0.184667	-0.00654182	0.000813537	0.000357358	4.30817E-05	0	0	0	
0.184833	0.00886026	-0.00135581	0.000222369	3.5702E-05	0	0	0	
0.185	-0.00330614	0.000595123	0.000150491	3.58581E-05	0	0	0	
0.185167	0.00519689	0.000780534	0.00014303	4.12067E-05	0	0	0	
0.185333	-0.0211047	-0.000641883	0.000207115	4.06345E-05	0	0	0	
0.1855	0.032022	-0.0019532	0.000315761	4.11617E-05	0	0	0	
0.185667	-0.0277581	0.00261311	0.000479824	3.73094E-05	0	0	0	
0.185833	0.0126803	-3.24601E-05	0.000562469	4.08052E-05	0	0	0	
0.186	-0.00543337	0.000511207	0.000541605	2.96586E-05	0	0	0	
0.186167	0.00549497	-0.00260687	0.000427313	3.10959E-05	0	0	0	
0.186333	-0.00439589	0.0027051	0.000289874	4.02288E-05	0	0	0	
0.1865	0.00838243	-0.000872704	0.000198139	4.74228E-05	0	0	0	
0.186667	-0.0204916	0.00039448	0.000204083	3.78503E-05	0	0	0	
0.186833	0.0244602	-0.00108411	0.000279087	3.6495E-05	0	0	0	
0.187	-0.0144558	0.000650478	0.000387328	2.83882E-05	0	0	0	
0.187167	0.00241384	0.00155777	0.00042618	2.79446E-05	0	0	0	
0.187333	-0.00325192	-0.00211747	0.000331033	2.35143E-05	0	0	0	
0.1875	0.0135864	0.00076965	0.000242246	3.83781E-05	0	0	0	
0.187667	-0.0207306	0.00112158	0.000218372	4.8898E-05	0	0	0	
0.187833	0.0182615	-8.37267E-06	0.000299735	4.44029E-05	0	0	0	
0.188	-0.0121705	-0.00197432	0.000339625	3.15768E-05	0	0	0	
0.188167	0.0115176	0.00207625	0.000312122	2.73245E-05	0	0	0	
0.188333	-0.0158559	-0.00109675	0.000278341	3.75241E-05	0	0	0	
0.1885	0.0150263	0.00139933	0.000268227	4.504E-05	0	0	0	
0.188667	-0.0135472	-0.00148436	0.000284038	4.27896E-05	0	0	0	
0.188833	0.0143771	0.00178925	0.000289	3.88217E-05	0	0	0	
0.189	-0.0135488	-0.00263066	0.000289697	4.02524E-05	0	0	0	
0.189167	0.00842352	0.00324859	0.000286361	4.87588E-05	0	0	0	
0.189333	-0.0062151	-0.0023127	0.000264391	5.61523E-05	0	0	0	
0.1895	0.00666229	0.00163852	0.000214498	5.78632E-05	0	0	0	
0.189667	-0.00962638	-0.00182978	0.000176026	5.09664E-05	0	0	0	
0.189833	0.0131781	0.00169404	0.000175491	4.4575E-05	0	0	0	
0.19	-0.0168743	-0.000733426	0.000220722	3.96239E-05	0	0	0	
0.190167	0.0165124	0.00101597	0.000274652	3.31651E-05	0	0	0	
0.190333	-0.0119879	-0.00229829	0.000302072	2.99798E-05	0	0	0	
0.1905	0.0103755	0.00254848	0.000299224	3.30687E-05	0	0	0	
0.190667	-0.00966424	-0.00139232	0.000270189	3.94634E-05	0	0	0	
0.190833	0.00823734	0.00128725	0.000239708	4.10633E-05	0	0	0	
0.191	-0.00874917	-0.00142806	0.000213738	3.70482E-05	0	0	0	
0.191167	0.0102872	0.00114741	0.000197226	3.48967E-05	0	0	0	
0.191333	-0.0135582	-0.000926553	0.00021255	3.34711E-05	0	0	0	
0.1915	0.0193777	0.00162132	0.00025389	3.24004E-05	0	0	0	
0.191667	-0.0279908	-0.00219033	0.000333259	3.31395E-05	0	0	0	
0.191833	0.0298584	0.00226157	0.000435937	3.68468E-05	0	0	0	
0.192	-0.0155806	-0.000921879	0.000546978	3.9358E-05	0	0	0	
0.192167	-0.00795582	0.000195181	0.000615245	3.86443E-05	0	0	0	
0.192333	0.0100029	-0.000902428	0.000509897	2.90414E-05	0	0	0	
0.1925	-0.000106482	0.00317331	0.000363284	3.02991E-05	0	0	0	
0.192667	-0.00885597	-0.00258619	0.000254852	3.77471E-05	0	0	0	
0.192833	0.023384	-0.00216142	0.000341099	6.33262E-05	0	0	0	
0.193	-0.0452952	0.00289927	0.000527621	8.44721E-05	0	0	0	
0.193167	0.0388535	0.000470058	0.000677002	7.5804E-05	0	0	0	
0.193333	0.00577492	-0.00470804	0.000825824	6.29215E-05	0	0	0	
0.1935	-0.0213252	0.0042199	0.000709102	6.14904E-05	0	0	0	
0.193667	-0.0211768	-0.000420902	0.000697273	8.39678E-05	0	0	0	
0.193833	0.0393947	-0.00223582	0.000595622	8.97511E-05	0	0	0	
0.194	0.000266666	-0.000568598	0.000699872	7.60615E-05	0	0	0	
0.194167	-0.0366109	0.00168901	0.000687628	5.64638E-05	0	0	0	
0.194333	0.0234818	-0.0038411	0.000694804	5.20234E-05	0	0	0	
0.1945	0.0120297	0.00564187	0.000745976	6.22355E-05	0	0	0	
0.194667	-0.0193323	-0.00529821	0.00068075	8.33188E-05	0	0	0	
0.194833	0.0313215	0.00124937	0.000635902	9.97254E-05	0	0	0	
0.195	-0.0425279	0.0030813	0.000548353	0.000105327	0	0	0	
0.195167	0.00692419	-0.00318382	0.000696447	8.86364E-05	0	0	0	
0.195333	0.0576524	0.000252365	0.000984514	8.09322E-05	0	0	0	
0.1955	-0.0661995	0.00222246	0.00111434	6.7738E-05	0	0	0	
0.195667	0.0144783	-0.00258261	0.00116435	6.56696E-05	0	0	0	
0.195833	-0.00437127	0.000311259	0.000844739	5.49542E-05	0	0	0	
0.196	-0.00604035	0.000710354	0.00064003	4.41177E-05	0	0	0	
0.196167	0.0250412	0.00108066	0.00047387	3.4728E-05	0	0	0	
0.196333	-0.00638914	-0.00135127	0.00047026	2.86957E-05	0	0	0	
0.1965	-0.0392425	-0.000649928	0.000632846	4.20714E-05	0	0	0	
0.196667	0.0335795	-0.000368989	0.000694374	5.91903E-05	0	0	0	
0.196833	0.0211743	7.03101E-05	0.000745054	5.1935E-05	0	0	0	
0.197	-0.0139449	-0.000656982	0.00053923	2.97442E-05	0	0	0	
0.197167	0.054998	0.00115687	0.000604895	1.28991E-05	0	0	0	
0.197333	-0.0188542	-0.00346425	0.000648975	2.68995E-05	0	0	0	
0.1975	0.0150719	0.00298198	0.000718815	4.74244E-05	0	0	0	
0.197667	0.00547845	-6.03752E-05	0.000444747	6.72821E-05	0	0	0	
0.197833	-0.0129785	-0.00296973	0.000300759	6.6126E-05	0	0	0	
0.198	-0.0246096	0.000585975	0.000408249	6.35608E-05	0	0	0	
0.198167	0.0600171	0.00241901	0.000667163	7.14992E-05	0	0	0	
0.198333	-0.0222333	-0.00316487	0.00112749	6.86826E-05	0	0	0	
0.1985	0.0287862	0.000909853	0.000994795	7.651E-05	0	0	0	
0.198667	0.0256101	0.00348214	0.000857575	8.58358E-05	0	0	0	
0.198833	-0.02528	-0.00292536	0.000439938	0.000117581	0	0	0	
0.199	0.015417	0.00221224	0.000512424	0.00012534	0	0	0	
0.199167	0.000487639	-0.00176461	0.000662158	0.000116199	0	0	0	
0.199333	-0.0424652	-0.00102865	0.000829432	9.97446E-05	0	0	0	
0.1995	0.0462776	0.000384068	0.000855786	8.35625E-05	0	0	0	
0.199667	-0.0300798	0.00055137	0.000839067	7.34948E-05	0	0	0	
0.199833	0.0260759	0.0012464	0.000829264	6.60404E-05	0	0	0	
0.2	0.00991018	-0.00333216	0.000844534	6.23265E-05	0	0	0	
0.200167	-0.0105231	0.0046239	0.000716385	6.95664E-05	0	0	0	
0.200333	0.0224284	-0.00472616	0.000554233	9.62427E-05	0	0	0	
0.2005	-0.00802047	-0.00133587	0.00038271	0.000104903	0	0	0	
0.200667	-0.0217795	0.0018856	0.000416288	8.53585E-05	0	0	0	
0.200833	0.0406869	-0.00288397	0.000533677	5.61047E-05	0	0	0	
0.201	-0.0480606	0.00421316	0.000734805	5.27458E-05	0	0	0	
0.201167	0.0292373	0.00555116	0.000835541	9.31442E-05	0	0	0	
0.201333	-0.000339557	-0.0290057	0.00089103	0.000166824	0	0	0	
0.2015	-7.37245E-05	0.0543239	0.000739797	0.000425753	0	0	0	
0.201667	-0.0132509	-0.0387031	0.000504932	0.000723648	0	0	0	
0.201833	-0.0115527	0.0196658	0.000371648	0.00085641	0	0	0	
0.202	0.0279226	-0.0283292	0.000394601	0.000896153	0	0	0	
0.202167	0.00755413	0.0369706	0.000575728	0.000894807	0	0	0	
0.202333	-0.0410427	-0.0287341	0.000705206	0.000913372	0	0	0	
0.2025	0.0277591	0.0288044	0.000751002	0.000790161	0	0	0	
0.202667	-0.0184356	-0.0230587	0.0006643	0.000707207	0	0	0	
0.202833	0.039981	-0.012597	0.00054805	0.000674806	0	0	0	
0.203	-0.0308329	0.0340394	0.000604143	0.00072756	0	0	0	
0.203167	-0.0161583	-0.0192859	0.000879056	0.000738975	0	0	0	
0.203333	0.0327672	-0.00737524	0.000899181	0.000744213	0	0	0	
0.2035	0.00367297	0.0108858	0.000842942	0.000529247	0	0	0	
0.203667	-0.0302002	0.00272683	0.000568157	0.000431288	0	0	0	
0.203833	0.0226827	-0.011449	0.000517118	0.000397049	0	0	0	
0.204	-0.0158273	0.00455519	0.000445833	0.000481544	0	0	0	
0.204167	0.0191218	0.0160057	0.000391461	0.000390158	0	0	0	
0.204333	-0.016255	-0.0287668	0.000357341	0.000368365	0	0	0	
0.2045	0.00834461	0.0292677	0.000327402	0.00044437	0	0	0	
0.204667	-0.00750206	-0.0213526	0.000270319	0.000537709	0	0	0	
0.204833	0.0117161	0.0117232	0.000221028	0.00050349	0	0	0	
0.205	-0.016344	-0.0056213	0.000218082	0.000373635	0	0	0	
0.205167	0.0112832	0.00335032	0.000242568	0.000224875	0	0	0	
0.205333	-0.00343959	-0.00319306	0.000232585	0.000123828	0	0	0	
0.2055	0.0071142	0.000460451	0.000185926	6.71229E-05	0	0	0	
0.205667	-0.00937558	0.00194888	0.00015371	5.1307E-05	0	0	0	
0.205833	0.011791	-0.000954984	0.000162621	3.37421E-05	0	0	0	
0.206	-0.0104793	-0.00232012	0.000187198	4.98483E-05	0	0	0	
0.206167	0.0162889	0.00446293	0.00022045	5.11556E-05	0	0	0	
0.206333	-0.0163751	-0.00230216	0.000253942	7.73249E-05	0	0	0	
0.2065	0.00780049	-0.00157741	0.000304981	9.47773E-05	0	0	0	
0.206667	0.000263618	0.0019271	0.000319315	0.000101389	0	0	0	
0.206833	0.00308329	0.00123635	0.000240531	7.31509E-05	0	0	0	
0.207	-0.0132483	-0.00373681	0.000198758	4.94185E-05	0	0	0	
0.207167	0.0175547	0.0047435	0.000204173	4.95528E-05	0	0	0	
0.207333	-0.0185495	-0.00280292	0.00029768	7.00291E-05	0	0	0	
0.2075	0.0158217	0.000950164	0.000332907	7.3596E-05	0	0	0	
0.207667	-0.0080814	-0.000381341	0.000340331	6.59761E-05	0	0	0	
0.207833	0.00258612	0.00119354	0.000314529	4.95855E-05	0	0	0	
0.208	-0.000749471	-0.00134428	0.000241366	3.87802E-05	0	0	0	
0.208167	0.00316949	0.000567967	0.000156659	3.47131E-05	0	0	0	
0.208333	-0.0091734	0.000708437	0.000130047	2.87628E-05	0	0	0	
0.2085	0.0176042	0.00024718	0.000192497	2.4646E-05	0	0	0	
0.208667	-0.0249866	-0.00162764	0.000300465	1.58451E-05	0	0	0	
0.208833	0.0184002	0.0020297	0.000378616	2.71543E-05	0	0	0	
0.209	-0.00766258	-0.00170709	0.000423353	3.86295E-05	0	0	0	
0.209167	0.00257592	0.00122331	0.000366503	4.94724E-05	0	0	0	
0.209333	-0.00795205	-0.000247906	0.000262622	4.38373E-05	0	0	0	
0.2095	0.0112322	-0.000311	0.000175877	2.80688E-05	0	0	0	
0.209667	-0.0124645	-0.000708273	0.000175854	1.53214E-05	0	0	0	
0.209833	0.0108393	0.00263445	0.000215331	1.68183E-05	0	0	0	
0.21	-0.0151807	-0.00336633	0.000234658	3.2884E-05	0	0	0	
0.210167	0.0146128	0.00163308	0.000258385	4.94552E-05	0	0	0	
0.210333	-0.00767299	0.000359645	0.00027006	5.39532E-05	0	0	0	
0.2105	0.00587258	-0.000150599	0.000241183	3.73382E-05	0	0	0	
0.210667	-0.0133974	-0.00138808	0.000215568	3.02921E-05	0	0	0	
0.210833	0.0206943	0.00248312	0.000230701	2.87416E-05	0	0	0	
0.211	-0.0143268	-0.00182536	0.000293844	3.79963E-05	0	0	0	
0.211167	0.00466295	0.00054687	0.000323711	3.64781E-05	0	0	0	
0.211333	-0.00399023	0.000381113	0.000263958	3.55003E-05	0	0	0	
0.2115	0.0115833	-0.000550456	0.000202344	3.60632E-05	0	0	0	
0.211667	-0.0157325	3.99016E-05	0.000190018	2.77532E-05	0	0	0	
0.211833	0.012592	0.0010658	0.000231673	2.95343E-05	0	0	0	
0.212	-0.0101159	-0.00230029	0.000258437	2.99617E-05	0	0	0	
0.212167	0.00926793	0.0019464	0.00023283	4.13984E-05	0	0	0	
0.212333	-0.00623832	-0.000575538	0.000202257	4.24782E-05	0	0	0	
0.2125	0.00522326	-7.39989E-05	0.000160882	4.31077E-05	0	0	0	
0.212667	-0.0128404	-0.00021048	0.000161154	3.34827E-05	0	0	0	
0.212833	0.0214123	0.000252197	0.000213366	2.51305E-05	0	0	0	
0.213	-0.0203999	-0.00128219	0.000304649	2.32825E-05	0	0	0	
0.213167	0.010182	0.00185663	0.00037412	3.10625E-05	0	0	0	
0.213333	-0.00251408	-0.00173718	0.000369687	3.30833E-05	0	0	0	
0.2135	0.00292249	0.000800129	0.000280393	3.50554E-05	0	0	0	
0.213667	-0.00713146	0.000746524	0.000182641	3.31276E-05	0	0	0	
0.213833	0.00733569	-0.000644218	0.000121488	2.73827E-05	0	0	0	
0.214	-0.00367145	-0.000793537	0.000119367	2.26832E-05	0	0	0	
0.214167	-0.00142974	0.00192209	9.63144E-05	2.02716E-05	0	0	0	
0.214333	-0.00484532	-0.00135051	0.000124154	3.08815E-05	0	0	0	
0.2145	0.0199161	0.000716803	0.000228859	3.7342E-05	0	0	0	
0.214667	-0.0292703	0.000155915	0.000376132	4.17895E-05	0	0	0	
0.214833	0.0206092	-0.000475003	0.000459686	3.49326E-05	0	0	0	
0.215	-0.00564368	-0.000667593	0.000483801	2.36246E-05	0	0	0	
0.215167	-0.00682719	0.00168817	0.00048145	1.90672E-05	0	0	0	
0.215333	0.0147251	-0.00194091	0.000431343	2.41592E-05	0	0	0	
0.2155	-0.010132	0.00175035	0.000338645	3.18043E-05	0	0	0	
0.215667	-0.0120908	-0.00233082	0.00035085	3.79413E-05	0	0	0	
0.215833	0.0274147	0.00308227	0.000399484	4.15134E-05	0	0	0	
0.216	-0.02059	-0.0031182	0.000470684	5.08321E-05	0	0	0	
0.216167	0.0074363	0.00210093	0.000443211	5.85786E-05	0	0	0	
0.216333	-0.00488619	-0.00066674	0.00036489	6.32048E-05	0	0	0	
0.2165	0.00559439	-0.000760303	0.000255721	6.26777E-05	0	0	0	
0.216667	-0.00842499	0.00161495	0.00015827	4.64268E-05	0	0	0	
0.216833	0.0108912	0.000720775	0.00014872	5.31353E-05	0	0	0	
0.217	-0.0148502	-0.00475172	0.000191105	6.90488E-05	0	0	0	
0.217167	0.013192	0.00533507	0.000235694	9.20558E-05	0	0	0	
0.217333	-0.0133436	-0.00281307	0.000260555	0.000101362	0	0	0	
0.2175	0.012072	6.40215E-05	0.000262403	0.000104649	0	0	0	
0.217667	-0.0101678	0.00122172	0.000254618	9.96192E-05	0	0	0	
0.217833	0.0109653	-0.00152316	0.000245453	6.95694E-05	0	0	0	
0.218	-0.0139766	-0.000152862	0.000240958	4.61249E-05	0	0	0	
0.218167	0.0128697	0.0025262	0.000253539	4.50663E-05	0	0	0	
0.218333	-0.00869303	-0.00459928	0.000260237	5.94603E-05	0	0	0	
0.2185	0.00804767	0.00463465	0.000247334	7.22745E-05	0	0	0	
0.218667	-0.00812216	-0.00386932	0.000209738	8.47791E-05	0	0	0	
0.218833	0.0074962	0.000777748	0.000176095	9.42324E-05	0	0	0	
0.219	-0.00857573	0.00229674	0.000168349	8.68602E-05	0	0	0	
0.219167	0.0124514	-0.00132866	0.000179308	6.78079E-05	0	0	0	
0.219333	-0.00789962	-0.00360818	0.000190782	7.57433E-05	0	0	0	
0.2195	0.00420124	0.00535501	0.000181425	7.89464E-05	0	0	0	
0.219667	-0.00821736	-0.00191947	0.000158029	0.000105609	0	0	0	
0.219833	0.0123511	-0.000891719	0.000156901	0.000110976	0	0	0	
0.22	-0.0138349	0.00159909	0.000195843	0.000108098	0	0	0	
0.220167	0.0152297	-0.0015676	0.000239706	7.90393E-05	0	0	0	
0.220333	-0.0121713	0.000887317	0.000273673	4.38464E-05	0	0	0	
0.2205	0.00494409	0.00348738	0.000288106	3.12456E-05	0	0	0	
0.220667	-0.00170033	-0.00502287	0.000261108	5.94803E-05	0	0	0	
0.220833	0.00428794	0.000716923	0.000187693	0.000124823	0	0	0	
0.221	-0.00769961	0.00308223	0.000126525	0.000177701	0	0	0	
0.221167	0.0120982	-0.000875276	0.000129519	0.00015393	0	0	0	
0.221333	-0.0177934	-0.0037204	0.000203478	9.87178E-05	0	0	0	
0.2215	0.0140273	0.0076659	0.000261177	6.85621E-05	0	0	0	
0.221667	-0.00965053	-0.00738146	0.000276611	0.000107967	0	0	0	
0.221833	0.0124922	0.00382153	0.000251084	0.00015118	0	0	0	
0.222	-0.0164554	-0.000296141	0.00024581	0.000167997	0	0	0	
0.222167	0.0127204	-0.00107709	0.00026085	0.00013374	0	0	0	
0.222333	-0.00815442	-0.00193196	0.000261188	7.91066E-05	0	0	0	
0.2225	0.0104282	0.00547681	0.000233408	5.82991E-05	0	0	0	
0.222667	-0.0146195	-0.00546752	0.000212299	7.0343E-05	0	0	0	
0.222833	0.01356	0.000979542	0.000229568	8.9706E-05	0	0	0	
0.223	-0.0114883	0.00175774	0.000252067	7.80991E-05	0	0	0	
0.223167	0.0103045	-0.000211522	0.000248997	5.874E-05	0	0	0	
0.223333	-0.00932643	-0.00260686	0.000224573	5.55026E-05	0	0	0	
0.2235	0.0134811	0.00357404	0.000212256	5.81515E-05	0	0	0	
0.223667	-0.0181929	-0.0019353	0.000236919	6.31648E-05	0	0	0	
0.223833	0.0162907	0.000280926	0.00028448	5.85969E-05	0	0	0	
0.224	-0.00959074	0.000416651	0.000313346	5.35954E-05	0	0	0	
0.224167	0.0062687	-0.000750359	0.000280568	4.09991E-05	0	0	0	
0.224333	-0.00900071	0.000408397	0.000225639	2.51447E-05	0	0	0	
0.2245	0.0142445	0.00127269	0.000198961	1.87021E-05	0	0	0	
0.224667	-0.0186801	-0.0028823	0.000238972	2.30872E-05	0	0	0	
0.224833	0.0209304	0.00412328	0.000301527	4.33403E-05	0	0	0	
0.225	-0.0169387	-0.00422228	0.000355456	6.12968E-05	0	0	0	
0.225167	0.0115595	0.00329017	0.000372302	7.53267E-05	0	0	0	
0.225333	-0.00835542	-0.0014486	0.000346873	7.25745E-05	0	0	0	
0.2255	0.00683527	-0.000184465	0.000278929	5.48892E-05	0	0	0	
0.225667	-0.0108816	5.72481E-05	0.00021946	3.37582E-05	0	0	0	
0.225833	0.0166223	0.00111523	0.000210531	2.64619E-05	0	0	0	
0.226	-0.0193292	-0.00204745	0.000262911	3.96803E-05	0	0	0	
0.226167	0.0183806	0.00333206	0.000320514	5.74839E-05	0	0	0	
0.226333	-0.0172723	-0.00282504	0.000353312	6.28501E-05	0	0	0	
0.2265	0.0192771	0.000558632	0.00035859	5.39879E-05	0	0	0	
0.226667	-0.0153879	0.0011424	0.000365788	4.6449E-05	0	0	0	
0.226833	-0.000576296	-0.0015732	0.000368302	3.65598E-05	0	0	0	
0.227	0.00141871	0.000131466	0.000410396	3.16653E-05	0	0	0	
0.227167	-0.00540208	0.00135998	0.000424286	2.91203E-05	0	0	0	
0.227333	0.00158747	-0.00190966	0.000368909	3.10858E-05	0	0	0	
0.2275	0.00325351	0.00155874	0.00022626	3.40118E-05	0	0	0	
0.227667	-0.00649252	-0.00147378	0.000124822	3.6351E-05	0	0	0	
0.227833	0.00462464	0.00140001	0.000104743	4.45076E-05	0	0	0	
0.228	-0.00597368	-0.000653673	0.000159334	5.18294E-05	0	0	0	
0.228167	0.0101338	0.000207912	0.000227182	4.90671E-05	0	0	0	
0.228333	-0.0121833	-0.000815273	0.000281683	3.55968E-05	0	0	0	
0.2285	0.0114796	0.00198615	0.000300586	2.8309E-05	0	0	0	
0.228667	-0.0117492	-0.00244068	0.000292267	2.90869E-05	0	0	0	
0.228833	0.0100055	0.00281539	0.000282542	4.0811E-05	0	0	0	
0.229	-0.00635676	-0.00259908	0.000277821	4.8733E-05	0	0	0	
0.229167	-0.0031253	0.00202436	0.000275782	5.27173E-05	0	0	0	
0.229333	0.00411661	-0.00131919	0.00026751	4.54439E-05	0	0	0	
0.2295	-0.00308892	0.00170822	0.000210033	3.65111E-05	0	0	0	
0.229667	-0.00326377	-0.0013303	0.000149644	2.95352E-05	0	0	0	
0.229833	0.0107864	0.00141803	0.000145131	2.73377E-05	0	0	0	
0.23	-0.0182437	-0.00189718	0.000211195	2.9329E-05	0	0	0	
0.230167	0.0170286	0.00142032	0.000283381	3.30584E-05	0	0	0	
0.230333	-0.00696131	-0.000412759	0.000303253	3.40506E-05	0	0	0	
0.2305	0.00124744	0.000594718	0.000257989	2.73681E-05	0	0	0	
0.230667	-0.018356	-0.00117046	0.000227594	1.91407E-05	0	0	0	
0.230833	0.0282004	0.00123501	0.000421832	2.13555E-05	0	0	0	
0.231	-0.0469907	-0.000562523	0.00068409	3.1915E-05	0	0	0	
0.231167	0.0444702	-0.000545888	0.000891072	3.93114E-05	0	0	0	
0.231333	-0.0337193	0.000300961	0.000847263	3.2941E-05	0	0	0	
0.2315	0.0268104	0.00145894	0.000724	2.43486E-05	0	0	0	
0.231667	-0.0195876	-0.0028369	0.000597547	2.58011E-05	0	0	0	
0.231833	0.00255483	0.00299599	0.000466732	3.83436E-05	0	0	0	
0.232	0.0202954	-0.00179082	0.000386787	5.8465E-05	0	0	0	
0.232167	-0.0124886	-0.000760089	0.000409763	7.79467E-05	0	0	0	
0.232333	-0.0035437	0.00229999	0.000505781	8.87147E-05	0	0	0	
0.2325	0.0153595	-0.000398094	0.000603227	7.12997E-05	0	0	0	
0.232667	-0.0255311	-0.00239308	0.000619796	5.28226E-05	0	0	0	
0.232833	0.0278237	0.00344129	0.00057392	4.15594E-05	0	0	0	
0.233	-0.0223486	-0.00177142	0.000516606	5.69172E-05	0	0	0	
0.233167	0.0148316	-0.00102297	0.000446355	7.16082E-05	0	0	0	
0.233333	-0.011969	0.00234326	0.000418258	7.80929E-05	0	0	0	
0.2335	0.00445039	-0.00316464	0.000383706	6.80206E-05	0	0	0	
0.233667	-0.00404426	-0.00103948	0.0003184	7.60857E-05	0	0	0	
0.233833	0.00989947	0.0138222	0.000226276	0.000130731	0	0	0	
0.234	-0.00907547	-0.0189804	0.000173032	0.000223712	0	0	0	
0.234167	0.00405713	0.00796753	0.000174518	0.000273869	0	0	0	
0.234333	-0.00537117	0.00708077	0.000161198	0.000278499	0	0	0	
0.2345	0.0112013	-0.0127967	0.000163168	0.000227227	0	0	0	
0.234667	-0.0136145	0.00866428	0.000180217	0.000234136	0	0	0	
0.234833	0.0137543	0.000883382	0.000231107	0.000269894	0	0	0	
0.235	-0.0141993	-0.00917794	0.000257899	0.000334101	0	0	0	
0.235167	0.01588	0.00867674	0.000269561	0.000322173	0	0	0	
0.235333	-0.0157328	-0.0014503	0.000283548	0.000228862	0	0	0	
0.2355	0.0155789	-0.00883252	0.000295998	0.000167124	0	0	0	
0.235667	-0.0127595	0.0129123	0.000298509	0.000157878	0	0	0	
0.235833	0.0189801	-0.00954029	0.000310492	0.00020108	0	0	0	
0.236	-0.0228497	0.00175069	0.000339069	0.000191402	0	0	0	
0.236167	0.0239251	0.00414808	0.000391245	0.000145752	0	0	0	
0.236333	-0.0173441	-0.00479593	0.000411484	0.000111667	0	0	0	
0.2365	0.0121283	0.00174588	0.000377636	0.000115444	0	0	0	
0.236667	-0.0150837	1.17848E-05	0.000320497	0.000131297	0	0	0	
0.236833	0.01938	0.000675151	0.000292369	0.000117507	0	0	0	
0.237	-0.0109735	-0.00222331	0.000306708	7.59996E-05	0	0	0	
0.237167	0.011521	0.00285876	0.000306166	4.79271E-05	0	0	0	
0.237333	-0.020972	-0.00266025	0.000324577	4.53013E-05	0	0	0	
0.2375	0.0210875	0.00409198	0.000335265	5.67048E-05	0	0	0	
0.237667	-0.0112003	-0.00525135	0.000353585	6.83178E-05	0	0	0	
0.237833	0.00962791	0.00480696	0.000302462	8.35778E-05	0	0	0	
0.238	-0.0160547	-0.00242935	0.000263288	9.06272E-05	0	0	0	
0.238167	0.0221944	-0.000289779	0.000277032	8.67138E-05	0	0	0	
0.238333	-0.0214853	0.00192727	0.000343915	6.08416E-05	0	0	0	
0.2385	0.0157659	0.00122269	0.000387887	5.8906E-05	0	0	0	
0.238667	-0.00812779	-0.00802356	0.000370818	8.69872E-05	0	0	0	
0.238833	0.00388236	0.0109541	0.000300062	0.000130291	0	0	0	
0.239	-0.00324938	-0.00960865	0.000205107	0.000224225	0	0	0	
0.239167	0.00697383	-0.0017417	0.000143013	0.00031254	0	0	0	
0.239333	-0.0140985	0.00692719	0.000164794	0.000313996	0	0	0	
0.2395	0.0239151	0.000490311	0.000254143	0.00025492	0	0	0	
0.239667	-0.0242029	-0.0109764	0.000356715	0.000223632	0	0	0	
0.239833	0.0121419	0.0187466	0.000418655	0.000281853	0	0	0	
0.24	-0.00272753	-0.0243319	0.000406091	0.000339161	0	0	0	
0.240167	0.00551074	0.0182158	0.000297749	0.000388815	0	0	0	
0.240333	-0.0131695	-5.44836E-05	0.000210647	0.000399073	0	0	0	
0.2405	0.0156253	-0.0113997	0.000188305	0.000345248	0	0	0	
0.240667	-0.0142529	0.00867611	0.00025213	0.000262802	0	0	0	
0.240833	0.0117349	0.00301582	0.000279137	0.000276808	0	0	0	
0.241	-0.00698155	-0.0112901	0.000271128	0.000320836	0	0	0	
0.241167	0.00234223	0.0116609	0.000240589	0.000317007	0	0	0	
0.241333	-0.00068362	-0.00866471	0.000174099	0.000244334	0	0	0	
0.2415	0.0112346	0.00828718	0.000235166	0.00018752	0	0	0	
0.241667	-0.0294916	-0.00844816	0.000420205	0.00018865	0	0	0	
0.241833	0.0464409	-0.0011584	0.000675504	0.00020002	0	0	0	
0.242	-0.0501042	0.0105482	0.00081756	0.000192033	0	0	0	
0.242167	0.022352	-0.00868133	0.00086368	0.000180082	0	0	0	
0.242333	0.00751674	0.00046514	0.000833514	0.000190788	0	0	0	
0.2425	-0.00940692	0.00781022	0.000590096	0.000233586	0	0	0	
0.242667	-0.0155214	-0.014316	0.000539073	0.000243421	0	0	0	
0.242833	0.0325947	0.0110066	0.000511271	0.000238974	0	0	0	
0.243	-0.0299096	0.00126022	0.000651242	0.000233704	0	0	0	
0.243167	0.0177613	-0.0107138	0.000564363	0.000241583	0	0	0	
0.243333	-0.00826485	0.00735952	0.00043231	0.000214197	0	0	0	
0.2435	-0.000311517	0.00335828	0.000288919	0.000193369	0	0	0	
0.243667	-0.00541588	-0.00854775	0.00021624	0.00015464	0	0	0	
0.243833	0.0268777	0.0059798	0.000331601	0.000153959	0	0	0	
0.244	-0.0416628	-0.00301759	0.000529998	0.000146404	0	0	0	
0.244167	0.0312792	0.000412967	0.000661828	0.000141994	0	0	0	
0.244333	-0.00767726	0.00100116	0.000655756	0.000113319	0	0	0	
0.2445	-0.00118789	0.00202615	0.000522411	6.62079E-05	0	0	0	
0.244667	-0.00783009	-0.00728752	0.000334692	6.19908E-05	0	0	0	
0.244833	0.0166771	0.00663039	0.000218858	8.21271E-05	0	0	0	
0.245	-0.0146988	-0.000406776	0.000216859	0.000125635	0	0	0	
0.245167	0.00803521	-0.00369696	0.000269274	0.000129334	0	0	0	
0.245333	-0.0068498	0.000767538	0.000239378	9.98052E-05	0	0	0	
0.2455	0.011657	0.00384062	0.000198836	7.27815E-05	0	0	0	
0.245667	-0.0119276	-0.0051073	0.000185781	6.54274E-05	0	0	0	
0.245833	0.00635979	0.00441165	0.000202966	8.3207E-05	0	0	0	
0.246	-0.003168	-0.00462633	0.000187213	8.47283E-05	0	0	0	
0.246167	0.00839283	0.00506238	0.000164938	0.000101436	0	0	0	
0.246333	-0.0161013	-0.00420842	0.000191025	0.000142949	0	0	0	
0.2465	0.0182078	0.00426913	0.000255524	0.000174724	0	0	0	
0.246667	-0.0159012	-0.00699118	0.000310518	0.000170861	0	0	0	
0.246833	0.0146052	0.00805211	0.000312187	0.000149319	0	0	0	
0.247	-0.0158311	-0.00605081	0.000305055	0.000135446	0	0	0	
0.247167	0.0181905	0.00614103	0.000308049	0.000132406	0	0	0	
0.247333	-0.0237342	-0.00909142	0.000343001	0.000130198	0	0	0	
0.2475	0.0236337	0.00873484	0.00038843	0.000147636	0	0	0	
0.247667	-0.0134881	-0.00616587	0.000426396	0.000163591	0	0	0	
0.247833	0.00149944	0.00486376	0.000404684	0.000163146	0	0	0	
0.248	-0.00186346	-0.00260361	0.000283791	0.000138287	0	0	0	
0.248167	0.00812832	5.85336E-05	0.000213917	0.000100498	0	0	0	
0.248333	-0.015689	-0.00100029	0.00022073	7.47642E-05	0	0	0	
0.2485	0.0241595	0.00574097	0.000353908	7.86259E-05	0	0	0	
0.248667	-0.0306005	-0.00857654	0.00044773	0.000107034	0	0	0	
0.248833	0.0221814	0.00574505	0.000496427	0.00013251	0	0	0	
0.249	-0.0124915	0.000986546	0.000472241	0.000156024	0	0	0	
0.249167	0.0125567	-0.00654076	0.000391665	0.000167405	0	0	0	
0.249333	-0.0129602	0.00515313	0.000318154	0.000150204	0	0	0	
0.2495	0.00310425	0.000977117	0.000274713	0.000141326	0	0	0	
0.249667	-0.0017246	-0.0080275	0.000217151	0.0001586	0	0	0	
0.249833	0.0119024	0.0116966	0.000185061	0.000193614	0	0	0	
0.25	-0.0163003	-0.00807099	0.00018627	0.000199532	0	0	0	
0.250167	0.0139739	-0.000170789	0.000248468	0.000197484	0	0	0	
0.250333	-0.0148141	0.00521134	0.000277473	0.000186344	0	0	0	
0.2505	0.0177157	-0.00310394	0.000289973	0.000147047	0	0	0	
0.250667	-0.0149668	-0.00238917	0.000301992	0.000122772	0	0	0	
0.250833	0.00868579	0.00681685	0.000305796	0.000112364	0	0	0	
0.251	-0.00628943	-0.00692229	0.000264864	0.000132154	0	0	0	
0.251167	0.00832897	0.0034901	0.000204814	0.00012771	0	0	0	
0.251333	-0.0127054	0.00130772	0.000183491	0.00011978	0	0	0	
0.2515	0.0148576	-0.0011145	0.000203146	8.56852E-05	0	0	0	
0.251667	-0.0114786	-0.00110122	0.000241205	6.43248E-05	0	0	0	
0.251833	0.00978986	0.00257193	0.000244026	4.92704E-05	0	0	0	
0.252	-0.0125811	-0.00349827	0.000232973	6.18161E-05	0	0	0	
0.252167	0.0126155	0.00325385	0.000227086	6.10423E-05	0	0	0	
0.252333	-0.0100168	-0.000490057	0.00022796	6.03966E-05	0	0	0	
0.2525	0.0128041	-0.00231109	0.000233586	6.49547E-05	0	0	0	
0.252667	-0.0225781	0.00187906	0.000273479	5.5636E-05	0	0	0	
0.252833	0.0243088	0.0023902	0.000340418	5.67285E-05	0	0	0	
0.253	-0.0124785	-0.0037187	0.000394565	4.99368E-05	0	0	0	
0.253167	0.00728682	0.0012595	0.000355536	7.09074E-05	0	0	0	
0.253333	-0.0123763	0.000702401	0.000278823	7.2028E-05	0	0	0	
0.2535	0.0165483	0.00101856	0.000244722	6.28594E-05	0	0	0	
0.253667	-0.0160399	-0.00245622	0.000267643	4.88783E-05	0	0	0	
0.253833	0.0129404	0.00334851	0.000295346	4.61793E-05	0	0	0	
0.254	-0.0113571	-0.00458644	0.000276757	6.40154E-05	0	0	0	
0.254167	0.0145578	0.00523552	0.000255008	7.48842E-05	0	0	0	
0.254333	-0.0178684	-0.00268758	0.000262221	8.45943E-05	0	0	0	
0.2545	0.0155678	-0.000749911	0.000291831	7.65011E-05	0	0	0	
0.254667	-0.0111211	0.00260424	0.000305112	5.8204E-05	0	0	0	
0.254833	0.0130613	-0.00120644	0.000282604	5.01964E-05	0	0	0	
0.255	-0.0158025	-0.00264207	0.000264876	6.74236E-05	0	0	0	
0.255167	0.0135535	0.00582595	0.000265402	8.54476E-05	0	0	0	
0.255333	-0.0102294	0.0016809	0.000267601	0.000105774	0	0	0	
0.2555	-0.00764625	-0.0237333	0.000232681	0.00023522	0	0	0	
0.255667	-0.0394293	0.0012836	0.000411537	0.000429657	0	0	0	
0.255833	0.00986474	-0.00923424	0.000545993	0.000462566	0	0	0	
0.256	0.00113544	0.00541189	0.000562074	0.000339827	0	0	0	
0.256167	0.00170548	0.000945094	0.000311118	0.000170703	0	0	0	
0.256333	-0.0131846	-0.00858046	0.000147691	0.000161339	0	0	0	
0.2565	0.0121458	0.00818603	0.000172069	0.000173817	0	0	0	
0.256667	-0.0202046	-0.0338211	0.000408693	0.000321417	0	0	0	
0.256833	0.018124	0.0204305	0.000718226	0.000511654	0	0	0	
0.257	0.0119172	-0.00513598	0.000885598	0.000587088	0	0	0	
0.257167	-0.0258083	-9.54252E-05	0.000886496	0.000488404	0	0	0	
0.257333	0.0239895	0.00204065	0.000721643	0.000293672	0	0	0	
0.2575	-0.0103735	-0.00233175	0.000558997	0.000179896	0	0	0	
0.257667	-0.0100048	0.00226484	0.000406944	0.000119609	0	0	0	
0.257833	0.0266807	0.00353388	0.000338837	0.000144185	0	0	0	
0.258	-0.0405377	-0.012685	0.000442638	0.000227045	0	0	0	
0.258167	0.0432733	0.0170635	0.000617627	0.000284208	0	0	0	
0.258333	-0.02429	-0.0148136	0.000841476	0.000297117	0	0	0	
0.2585	-0.00805665	0.0103429	0.00102395	0.0002772	0	0	0	
0.258667	0.0218946	-0.0302346	0.00100804	0.000276325	0	0	0	
0.258833	-0.00825431	0.00708371	0.000722163	0.000332668	0	0	0	
0.259	0.00537459	-0.00312351	0.000521021	0.000321547	0	0	0	
0.259167	0.0231459	0.00146469	0.000413193	0.000245963	0	0	0	
0.259333	-0.0258839	-0.00094196	0.000482937	0.000103768	0	0	0	
0.2595	0.0198174	0.000984338	0.000447661	5.30924E-05	0	0	0	
0.259667	-0.0152588	-0.00460664	0.000408653	5.74755E-05	0	0	0	
0.259833	0.0134055	-0.00212756	0.000388293	0.000152401	0	0	0	
0.26	-0.00402962	-0.00262316	0.000325408	0.000214883	0	0	0	
0.260167	0.00734225	-0.001882	0.000272457	0.00023364	0	0	0	
0.260333	-0.0117827	-0.00083481	0.000248145	0.000132342	0	0	0	
0.2605	0.0178878	-0.000696104	0.000264786	6.26306E-05	0	0	0	
0.260667	-0.0145305	0.000512677	0.000287884	2.21818E-05	0	0	0	
0.260833	0.0102586	0.000640708	0.000273635	1.86684E-05	0	0	0	
0.261	-0.0137606	-0.00328679	0.000241358	2.58666E-05	0	0	0	
0.261167	0.00741534	0.00160916	0.000290866	5.34884E-05	0	0	0	
0.261333	-0.00907215	-0.0027945	0.000263372	6.66962E-05	0	0	0	
0.2615	0.0088684	0.0029239	0.000249761	7.17626E-05	0	0	0	
0.261667	-0.00668126	-0.00139319	0.000162979	6.57085E-05	0	0	0	
0.261833	0.00908441	-0.00235279	0.000167435	8.6609E-05	0	0	0	
0.262	-0.0140043	0.00482099	0.000194607	9.47433E-05	0	0	0	
0.262167	0.0199684	-0.00187426	0.000253654	8.75706E-05	0	0	0	
0.262333	-0.006572	0.00058806	0.000297039	9.384E-05	0	0	0	
0.2625	0.0163141	0.00303838	0.000296315	0.000101735	0	0	0	
0.262667	-0.0257746	-0.00332652	0.000335173	0.000106902	0	0	0	
0.262833	0.0291042	0.00132393	0.000412383	7.60496E-05	0	0	0	
0.263	-0.0237581	0.000449825	0.000491813	5.0129E-05	0	0	0	
0.263167	0.0134161	-0.00275866	0.000474268	4.7539E-05	0	0	0	
0.263333	-0.00911589	0.00474449	0.000377631	6.71723E-05	0	0	0	
0.2635	0.0114418	-0.00601839	0.000290552	9.02091E-05	0	0	0	
0.263667	-0.013838	0.00497249	0.000258584	0.000101499	0	0	0	
0.263833	0.0192365	-0.00382572	0.00032272	9.71306E-05	0	0	0	
0.264	-0.0338815	0.00101918	0.000452551	8.21566E-05	0	0	0	
0.264167	0.0441593	0.000778382	0.000595091	5.91398E-05	0	0	0	
0.264333	-0.0321689	-0.00143963	0.000694847	4.24729E-05	0	0	0	
0.2645	0.00847106	0.000656846	0.000689165	5.13753E-05	0	0	0	
0.264667	0.00146306	0.00162486	0.000540607	7.54519E-05	0	0	0	
0.264833	0.00329947	-0.00291579	0.000330313	9.23704E-05	0	0	0	
0.265	-0.00789018	0.00124992	0.000216992	7.35724E-05	0	0	0	
0.265167	0.0165499	0.00395695	0.000265756	6.9504E-05	0	0	0	
0.265333	-0.0334722	-0.00784824	0.000429378	7.90876E-05	0	0	0	
0.2655	0.0343487	0.00635942	0.000545797	0.00011565	0	0	0	
0.265667	-0.0184259	-0.0010133	0.000586485	0.000134249	0	0	0	
0.265833	0.00724939	-0.00248719	0.000510208	0.00013102	0	0	0	
0.266	-0.0104461	0.00245455	0.00037391	9.79691E-05	0	0	0	
0.266167	0.0109054	-0.00121267	0.000253881	6.47214E-05	0	0	0	
0.266333	-0.00504768	-0.00193947	0.000196016	5.42129E-05	0	0	0	
0.2665	0.00673571	0.00462504	0.000173116	6.78214E-05	0	0	0	
0.266667	-0.0125806	-0.00454766	0.000185332	7.77601E-05	0	0	0	
0.266833	0.0154068	0.000793621	0.000218636	8.12723E-05	0	0	0	
0.267	-0.0164745	0.00133263	0.000273477	7.51765E-05	0	0	0	
0.267167	0.0162311	-0.000767455	0.00029618	5.53349E-05	0	0	0	
0.267333	-0.014978	-0.00105292	0.000301357	3.1946E-05	0	0	0	
0.2675	0.0135825	0.00162275	0.000291621	2.16223E-05	0	0	0	
0.267667	-0.0110718	-0.00169428	0.0002759	3.09285E-05	0	0	0	
0.267833	0.00815966	0.00127377	0.000243111	4.68712E-05	0	0	0	
0.268	-0.00744027	-0.00113627	0.000205272	5.66149E-05	0	0	0	
0.268167	0.00911717	0.00143111	0.000176897	5.37171E-05	0	0	0	
0.268333	-0.0103426	-0.00213808	0.000172209	4.59068E-05	0	0	0	
0.2685	0.0118609	0.00241219	0.000190618	3.95397E-05	0	0	0	
0.268667	-0.0159526	-0.00227304	0.000225038	4.40151E-05	0	0	0	
0.268833	0.0166933	0.00182687	0.000262089	4.74886E-05	0	0	0	
0.269	-0.0100341	-0.00246689	0.000281027	4.717E-05	0	0	0	
0.269167	0.00788558	0.00288079	0.000255191	4.79263E-05	0	0	0	
0.269333	-0.014794	-0.00174079	0.000246782	4.82898E-05	0	0	0	
0.2695	0.0239713	0.000173814	0.0002939	4.63477E-05	0	0	0	
0.269667	-0.0264399	0.00018864	0.000384827	3.62223E-05	0	0	0	
0.269833	0.0225052	0.000171483	0.000444806	2.43592E-05	0	0	0	
0.27	-0.0122599	-0.00178763	0.000440858	2.80454E-05	0	0	0	
0.270167	0.00155008	0.00348949	0.000383402	3.60024E-05	0	0	0	
0.270333	0.00166805	-0.00188074	0.000247758	5.02918E-05	0	0	0	
0.2705	0.00460139	0.000487894	0.000189889	5.92368E-05	0	0	0	
0.270667	-0.0125191	-0.000192453	0.000205249	6.48548E-05	0	0	0	
0.270833	0.0187617	-0.000458306	0.000327541	6.06082E-05	0	0	0	
0.271	-0.023403	0.000577925	0.000401212	3.76195E-05	0	0	0	
0.271167	0.0246146	0.00178813	0.000437612	2.75751E-05	0	0	0	
0.271333	-0.0220381	-0.0042245	0.00044317	3.14708E-05	0	0	0	
0.2715	0.0178414	0.00494031	0.000423939	6.38168E-05	0	0	0	
0.271667	-0.00966903	-0.00331613	0.000398588	9.63347E-05	0	0	0	
0.271833	0.00784886	0.000520301	0.000322	0.000107186	0	0	0	
0.272	-0.0275715	0.00130183	0.000384584	8.01455E-05	0	0	0	
0.272167	0.0476026	-0.00164414	0.00051938	5.02224E-05	0	0	0	
0.272333	-0.0360165	0.001212	0.000706196	3.46736E-05	0	0	0	
0.2725	0.0029396	-0.000852261	0.000816295	4.13656E-05	0	0	0	
0.272667	0.0152343	-0.000306697	0.000754939	5.02804E-05	0	0	0	
0.272833	-0.0101037	-0.000569951	0.000601618	6.13474E-05	0	0	0	
0.273	-0.0144823	0.00120431	0.000572255	6.96569E-05	0	0	0	
0.273167	0.0364345	-0.00129799	0.000674714	7.06209E-05	0	0	0	
0.273333	-0.0483503	0.00176101	0.000856117	7.72274E-05	0	0	0	
0.2735	0.0429668	-9.32239E-05	0.000855773	8.92333E-05	0	0	0	
0.273667	-0.0207302	-0.00387082	0.000808659	9.77286E-05	0	0	0	
0.273833	-0.000488905	0.00642301	0.000702856	0.000112406	0	0	0	
0.274	-0.000177457	-0.0047128	0.000450422	0.00012986	0	0	0	
0.274167	0.0173775	0.00231104	0.000302585	0.000144086	0	0	0	
0.274333	-0.0273886	-0.0016895	0.000274086	0.000123776	0	0	0	
0.2745	0.0175469	0.00277314	0.000395167	8.79284E-05	0	0	0	
0.274667	-0.00233753	-0.00313819	0.000392449	6.20074E-05	0	0	0	
0.274833	0.00285677	0.00231477	0.0002704	5.51186E-05	0	0	0	
0.275	-0.017329	-0.00265088	0.000244183	5.88081E-05	0	0	0	
0.275167	0.0256114	0.00333845	0.000280081	6.03265E-05	0	0	0	
0.275333	-0.0187575	-0.00324227	0.000394306	6.08966E-05	0	0	0	
0.2755	0.0074194	0.00127468	0.000378406	5.68935E-05	0	0	0	
0.275667	-0.00656945	0.000368558	0.00028989	4.5667E-05	0	0	0	
0.275833	0.0130923	-0.00104675	0.000221075	3.27859E-05	0	0	0	
0.276	-0.0167494	0.000443604	0.000217625	2.23711E-05	0	0	0	
0.276167	0.0138058	0.000840989	0.000262281	2.02914E-05	0	0	0	
0.276333	-0.0105322	-0.00233469	0.000273715	2.72207E-05	0	0	0	
0.2765	0.0102286	0.00269643	0.000243406	3.80458E-05	0	0	0	
0.276667	-0.0119235	-0.00225634	0.000219204	4.61735E-05	0	0	0	
0.276833	0.0131065	0.000863521	0.000215557	5.01199E-05	0	0	0	
0.277	-0.0158383	-0.000366641	0.000243793	4.5725E-05	0	0	0	
0.277167	0.0158476	0.00134751	0.000270922	3.51767E-05	0	0	0	
0.277333	-0.0110702	-0.0031692	0.000281779	3.62154E-05	0	0	0	
0.2775	0.00479638	0.00381938	0.000248143	5.10963E-05	0	0	0	
0.277667	-0.00669416	-0.00343169	0.000193734	6.58943E-05	0	0	0	
0.277833	0.0152772	0.00112744	0.00020598	6.26085E-05	0	0	0	
0.278	-0.0240891	-0.000227643	0.000283462	4.14409E-05	0	0	0	
0.278167	0.0251032	0.000696072	0.000385241	3.07151E-05	0	0	0	
0.278333	-0.0164221	-0.00198215	0.00042386	3.20835E-05	0	0	0	
0.2785	0.00679137	0.00115745	0.000402709	4.52381E-05	0	0	0	
0.278667	-0.00046532	-0.000330656	0.000317027	4.54844E-05	0	0	0	
0.278833	0.00350599	-0.000248814	0.000207167	3.25502E-05	0	0	0	
0.279	-0.0132414	-0.000524546	0.000198582	1.71052E-05	0	0	0	
0.279167	0.0238222	0.00132786	0.000283788	1.74661E-05	0	0	0	
0.279333	-0.0271228	-0.00301445	0.000408847	2.68512E-05	0	0	0	
0.2795	0.0203147	0.00246495	0.000452652	4.18361E-05	0	0	0	
0.279667	-0.0099131	-0.000970711	0.000442613	4.53629E-05	0	0	0	
0.279833	0.00283118	0.00058069	0.000357759	4.14131E-05	0	0	0	
0.28	-0.00526493	-0.00145171	0.000244141	3.03452E-05	0	0	0	
0.280167	0.0124586	0.00151418	0.000195408	2.70574E-05	0	0	0	
0.280333	-0.0179087	-0.000616688	0.000232809	2.45896E-05	0	0	0	
0.2805	0.0201563	-0.000244378	0.000314756	2.56779E-05	0	0	0	
0.280667	-0.0172947	2.44419E-06	0.000344539	1.61803E-05	0	0	0	
0.280833	0.00789428	0.00159426	0.000319924	1.96406E-05	0	0	0	
0.281	-0.00298865	-0.00289493	0.000238788	2.639E-05	0	0	0	
0.281167	0.00764076	0.00299807	0.000182924	4.2761E-05	0	0	0	
0.281333	-0.0123149	-0.00185353	0.000185784	5.57337E-05	0	0	0	
0.2815	0.00840802	-0.00050452	0.00022091	6.51264E-05	0	0	0	
0.281667	-0.00863453	0.000383655	0.000252697	5.68896E-05	0	0	0	
0.281833	0.0213663	0.00110751	0.0003345	4.2438E-05	0	0	0	
0.282	-0.0300742	-0.00300796	0.000435201	3.48317E-05	0	0	0	
0.282167	0.0209183	0.00388852	0.000496927	4.74726E-05	0	0	0	
0.282333	-0.00616457	-0.0043499	0.000452538	6.3282E-05	0	0	0	
0.2825	-0.00272104	0.00155269	0.000338309	6.98925E-05	0	0	0	
0.282667	0.00592654	0.00208749	0.00020782	7.81269E-05	0	0	0	
0.282833	-0.00132439	-0.00303492	0.000187731	7.12564E-05	0	0	0	
0.283	-0.0143808	0.000636431	0.000315027	6.65797E-05	0	0	0	
0.283167	0.0246636	0.00201832	0.000467786	5.432E-05	0	0	0	
0.283333	-0.0207745	-0.00230782	0.000502366	4.96537E-05	0	0	0	
0.2835	0.0159337	0.00134008	0.000427695	4.37229E-05	0	0	0	
0.283667	-0.0171978	-0.000752827	0.000355134	3.14799E-05	0	0	0	
0.283833	0.0115841	0.000456528	0.000308607	3.35948E-05	0	0	0	
0.284	-0.00531187	9.53765E-05	0.000262696	3.88577E-05	0	0	0	
0.284167	0.00845731	0.000613723	0.000213481	3.92422E-05	0	0	0	
0.284333	-0.0150569	-0.00246861	0.00021039	3.42926E-05	0	0	0	
0.2845	0.0135687	0.00217635	0.000233555	3.39904E-05	0	0	0	
0.284667	-0.00788109	-0.000604115	0.000250879	3.5659E-05	0	0	0	
0.284833	0.0117112	0.00049149	0.000254359	3.13667E-05	0	0	0	
0.285	-0.0186948	-0.00155838	0.00028368	2.23929E-05	0	0	0	
0.285167	0.0169597	0.00343365	0.000326001	2.78191E-05	0	0	0	
0.285333	-0.0122432	-0.00371467	0.000325374	4.51385E-05	0	0	0	
0.2855	0.0118742	0.00216628	0.000281659	5.95374E-05	0	0	0	
0.285667	-0.0136225	-0.0007569	0.000254144	5.69802E-05	0	0	0	
0.285833	0.0138786	0.00142948	0.000248821	4.36112E-05	0	0	0	
0.286	-0.011005	-0.00127608	0.000248471	3.39238E-05	0	0	0	
0.286167	0.00814717	0.00142048	0.000223659	3.85657E-05	0	0	0	
0.286333	-0.00655007	-0.00406078	0.000184495	5.63607E-05	0	0	0	
0.2865	0.0056492	0.00643239	0.0001495	7.84655E-05	0	0	0	
0.286667	-0.00578781	-0.00644463	0.000126365	0.000100688	0	0	0	
0.286833	0.00641044	0.00454505	0.000123506	0.00011091	0	0	0	
0.287	-0.0111962	4.98787E-05	0.000152463	0.000103936	0	0	0	
0.287167	0.0137687	-0.00250461	0.000198841	8.50779E-05	0	0	0	
0.287333	-0.0143846	0.000885804	0.000244994	6.13959E-05	0	0	0	
0.2875	0.0120613	0.00239776	0.000260358	5.90844E-05	0	0	0	
0.287667	-0.0108067	-0.00248248	0.000246453	6.4236E-05	0	0	0	
0.287833	0.00524661	0.00389749	0.000220102	8.37409E-05	0	0	0	
0.288	-0.00224598	-0.00721487	0.000168161	0.00010608	0	0	0	
0.288167	0.00893603	0.00879786	0.000159702	0.000128992	0	0	0	
0.288333	-0.0191312	-0.00586853	0.000190245	0.000146304	0	0	0	
0.2885	0.016491	0.00211236	0.000265011	0.000146168	0	0	0	
0.288667	-0.00807207	0.000344905	0.00028564	0.000134653	0	0	0	
0.288833	0.00430217	-0.00166417	0.000236396	0.000106062	0	0	0	
0.289	-0.00579487	0.0019236	0.000170822	6.63018E-05	0	0	0	
0.289167	0.00993679	0.000854468	0.000150308	5.92525E-05	0	0	0	
0.289333	-0.0109803	-0.00628295	0.000188752	9.3697E-05	0	0	0	
0.2895	0.0047553	0.00959543	0.000259524	0.000150016	0	0	0	
0.289667	0.00756926	-0.0210471	0.000361008	0.000176108	0	0	0	
0.289833	0.0233472	0.00803836	0.000464499	0.000294287	0	0	0	
0.29	-0.00650252	-0.00523262	0.00047185	0.000268075	0	0	0	
0.290167	-0.0037497	0.00391916	0.000365879	0.000239516	0	0	0	
0.290333	0.00382777	-0.00304107	0.000215935	9.10922E-05	0	0	0	
0.2905	0.00487272	-0.00179027	0.000185886	7.82977E-05	0	0	0	
0.290667	-0.0116782	-0.00818508	0.000210326	9.73845E-05	0	0	0	
0.290833	0.00635933	0.00577267	0.000221268	0.000130794	0	0	0	
0.291	0.00555689	0.0013187	0.00020305	0.000167036	0	0	0	
0.291167	-0.0172153	-0.00421036	0.0001945	0.000168083	0	0	0	
0.291333	0.0146414	0.00327271	0.000254111	0.000133759	0	0	0	
0.2915	0.00109778	-0.00107479	0.000362082	8.54376E-05	0	0	0	
0.291667	-0.0178187	-0.00168864	0.000483463	4.50208E-05	0	0	0	
0.291833	0.0260835	0.00424398	0.000533525	4.17893E-05	0	0	0	
0.292	-0.0206832	-0.00430275	0.000501203	5.92985E-05	0	0	0	
0.292167	0.0172809	0.00283847	0.000426517	8.23978E-05	0	0	0	
0.292333	-0.0170265	-0.000681099	0.000372963	8.21066E-05	0	0	0	
0.2925	0.0180731	0.000215755	0.000335987	5.52837E-05	0	0	0	
0.292667	-0.0168427	-0.00228899	0.000327983	3.99096E-05	0	0	0	
0.292833	0.0124529	0.00420754	0.000318639	4.16455E-05	0	0	0	
0.293	-0.0114539	-0.00275743	0.000292843	6.23705E-05	0	0	0	
0.293167	0.0102116	0.000471491	0.000259062	6.86614E-05	0	0	0	
0.293333	-0.00528866	-0.000614634	0.000224394	6.65057E-05	0	0	0	
0.2935	0.00371863	0.00138652	0.000173679	6.0597E-05	0	0	0	
0.293667	-0.00766518	-0.0013902	0.000148392	4.90488E-05	0	0	0	
0.293833	0.0136717	0.000116762	0.000170272	3.64351E-05	0	0	0	
0.294	-0.0152445	0.00142624	0.000223894	3.23275E-05	0	0	0	
0.294167	0.0107212	-0.00232872	0.000247675	3.76894E-05	0	0	0	
0.294333	-0.0080948	0.00227476	0.000232877	4.48044E-05	0	0	0	
0.2945	0.0113194	0.000195045	0.000214861	3.93654E-05	0	0	0	
0.294667	-0.0142499	-0.00110943	0.000227177	3.15465E-05	0	0	0	
0.294833	0.0128028	0.00121089	0.000244246	2.40363E-05	0	0	0	
0.295	-0.0101832	-0.000145557	0.000250722	2.48978E-05	0	0	0	
0.295167	0.0120922	-0.000233384	0.000246751	2.79247E-05	0	0	0	
0.295333	-0.0181487	0.000534331	0.000265686	2.45963E-05	0	0	0	
0.2955	0.017652	0.000485078	0.00029501	1.88151E-05	0	0	0	
0.295667	-0.00988793	-0.000420237	0.00030537	1.40872E-05	0	0	0	
0.295833	0.00216419	0.000469507	0.000252174	1.25538E-05	0	0	0	
0.296	-0.00446088	-0.000362256	0.000187974	1.05674E-05	0	0	0	
0.296167	0.0139442	0.000338261	0.000196876	8.50393E-06	0	0	0	
0.296333	-0.0206383	0.000116691	0.00028579	7.463E-06	0	0	0	
0.2965	0.0222642	0.00078066	0.000375281	8.22859E-06	0	0	0	
0.296667	-0.0191476	-0.000790305	0.000399329	1.27003E-05	0	0	0	
0.296833	0.0117615	0.000838708	0.000365111	1.5427E-05	0	0	0	
0.297	-0.00638801	-0.00125246	0.000302431	1.9357E-05	0	0	0	
0.297167	0.0063261	0.00145066	0.000221848	2.0217E-05	0	0	0	
0.297333	-0.0120552	-0.000205101	0.000194434	2.32434E-05	0	0	0	
0.2975	0.016013	7.82213E-05	0.000219202	2.37559E-05	0	0	0	
0.297667	-0.0140976	-0.00186055	0.000265815	2.35914E-05	0	0	0	
0.297833	0.00874611	0.00310353	0.000263353	3.33591E-05	0	0	0	
0.298	-0.00841097	-0.00208368	0.000239651	4.0966E-05	0	0	0	
0.298167	0.0159324	-0.000108424	0.000264431	4.39412E-05	0	0	0	
0.298333	-0.0248942	0.00108916	0.000341964	2.85754E-05	0	0	0	
0.2985	0.0241862	-0.000913374	0.000431069	2.45267E-05	0	0	0	
0.298667	-0.0239025	0.000762084	0.000465098	2.95421E-05	0	0	0	
0.298833	0.0232159	0.000943882	0.000456978	4.44442E-05	0	0	0	
0.299	-0.0151472	-0.00203997	0.000430469	5.60231E-05	0	0	0	
0.299167	0.000526678	0.00428474	0.000385651	5.89995E-05	0	0	0	
0.299333	0.00289853	-0.00198407	0.000254701	7.41102E-05	0	0	0	
0.2995	0.0050342	-0.00347818	0.000226327	0.000119956	0	0	0	
0.299667	-0.0126934	0.00691263	0.000244057	0.000152486	0	0	0	
0.299833	0.0174366	-0.00238551	0.000369878	0.000151949	0	0	0	
0.3	-0.0238882	-0.00367547	0.000430889	0.000111551	0	0	0	
0.300167	0.0283638	0.00361269	0.000478923	8.18454E-05	0	0	0	
0.300333	-0.0255332	-0.00176611	0.000503387	7.10088E-05	0	0	0	
0.3005	0.0203458	0.00485277	0.000482333	6.24061E-05	0	0	0	
0.300667	-0.0127168	-0.00518441	0.000421509	7.67175E-05	0	0	0	
0.300833	0.00639309	0.00250816	0.000331221	7.96598E-05	0	0	0	
0.301	-0.00949033	0.000476825	0.000247072	7.90046E-05	0	0	0	
0.301167	0.0134176	0.00299959	0.000212164	9.19183E-05	0	0	0	
0.301333	-0.00813244	-0.0048047	0.00020354	0.000109782	0	0	0	
0.3015	0.00339036	0.000842319	0.000189173	0.00010531	0	0	0	
0.301667	-0.00914608	0.00366228	0.000203371	7.89897E-05	0	0	0	
0.301833	0.0198348	-0.00274516	0.000271974	5.63968E-05	0	0	0	
0.302	-0.0209787	0.00457524	0.000352818	7.60263E-05	0	0	0	
0.302167	0.0122323	-0.00259057	0.000362059	8.05012E-05	0	0	0	
0.302333	-0.0102116	0.00206815	0.000302867	8.39978E-05	0	0	0	
0.3025	0.012322	0.000729324	0.000251388	7.38982E-05	0	0	0	
0.302667	-0.011185	-0.00296652	0.000223982	5.42501E-05	0	0	0	
0.302833	0.00806493	0.00329354	0.000208437	6.64782E-05	0	0	0	
0.303	-0.00717235	0.00240501	0.000186187	9.2719E-05	0	0	0	
0.303167	0.0100661	-0.00783156	0.00019003	0.000145126	0	0	0	
0.303333	-0.0144577	0.00763847	0.000227563	0.000165223	0	0	0	
0.3035	0.0133944	-0.00326675	0.00026983	0.000147552	0	0	0	
0.303667	-0.00611941	-0.000349255	0.000252265	9.80713E-05	0	0	0	
0.303833	0.00338224	0.000542188	0.000207776	5.98844E-05	0	0	0	
0.304	-0.0130446	0.00112625	0.00024257	5.06577E-05	0	0	0	
0.304167	0.0229504	-0.000904731	0.000329461	4.91705E-05	0	0	0	
0.304333	-0.014694	-0.00296939	0.000383282	4.15468E-05	0	0	0	
0.3045	0.0042437	0.00528354	0.00032292	4.62816E-05	0	0	0	
0.304667	-0.00449923	-0.00628486	0.000219397	7.58974E-05	0	0	0	
0.304833	0.00900896	0.00713566	0.000189149	0.000107888	0	0	0	
0.305	-0.00928442	-0.00515661	0.000194058	0.000120627	0	0	0	
0.305167	0.00915101	-0.00267403	0.000226327	0.00013432	0	0	0	
0.305333	-0.0117411	0.0100296	0.000236356	0.000134233	0	0	0	
0.3055	0.0147586	-0.00863722	0.000253703	0.00015115	0	0	0	
0.305667	-0.0136969	0.00286481	0.000269005	0.000175615	0	0	0	
0.305833	0.0101766	0.00331244	0.000257949	0.000210029	0	0	0	
0.306	-0.0061655	-0.00469588	0.000220653	0.000191809	0	0	0	
0.306167	0.00821765	0.00382545	0.000197597	0.000142476	0	0	0	
0.306333	-0.0148792	-0.00111798	0.000228461	9.28093E-05	0	0	0	
0.3065	0.0155617	0.000343649	0.000280139	8.41878E-05	0	0	0	
0.306667	-0.0135774	0.000559453	0.000308091	8.52012E-05	0	0	0	
0.306833	0.0139839	-0.0012247	0.00029854	6.53408E-05	0	0	0	
0.307	-0.0153666	-0.0013487	0.000289453	5.59717E-05	0	0	0	
0.307167	0.01284	0.0056672	0.000281643	5.35895E-05	0	0	0	
0.307333	-0.00810096	-0.00475345	0.000257654	7.9147E-05	0	0	0	
0.3075	0.00948184	0.00143818	0.000239186	8.40483E-05	0	0	0	
0.307667	-0.0160001	0.000331756	0.000259213	6.96996E-05	0	0	0	
0.307833	0.0202298	0.000293863	0.000308411	4.78175E-05	0	0	0	
0.308	-0.0173322	-0.000817838	0.000347435	3.51752E-05	0	0	0	
0.308167	0.0135821	0.000423837	0.000334448	3.05688E-05	0	0	0	
0.308333	-0.00835116	-0.000467758	0.000288529	2.328E-05	0	0	0	
0.3085	0.00296267	0.000370388	0.000214206	1.34863E-05	0	0	0	
0.308667	0.00355833	-0.000288618	0.000139588	1.07126E-05	0	0	0	
0.308833	-0.000206093	0.000450768	0.000112201	1.66483E-05	0	0	0	
0.309	-0.0135113	0.000241308	0.000198838	1.77007E-05	0	0	0	
0.309167	0.022988	0.000392068	0.000320098	1.94394E-05	0	0	0	
0.309333	-0.0170021	-0.00201343	0.000393342	2.10161E-05	0	0	0	
0.3095	0.00534807	0.0037036	0.000349124	3.59102E-05	0	0	0	
0.309667	-0.00706772	-0.00318832	0.00025002	5.22567E-05	0	0	0	
0.309833	0.0122892	0.00230645	0.000196711	5.67095E-05	0	0	0	
0.31	-0.00809168	-0.00164995	0.000177429	4.90259E-05	0	0	0	
0.310167	0.00417742	0.000477758	0.000176157	3.62917E-05	0	0	0	
0.310333	-0.0110765	0.000207405	0.000190326	2.61235E-05	0	0	0	
0.3105	0.0171712	0.000107776	0.000228187	1.67474E-05	0	0	0	
0.310667	-0.0114942	-0.000428028	0.000273434	1.71098E-05	0	0	0	
0.310833	0.00666644	0.00147472	0.000255761	2.37182E-05	0	0	0	
0.311	-0.0137366	-0.00271102	0.000239668	3.29363E-05	0	0	0	
0.311167	0.0214856	0.00339555	0.000273028	4.45221E-05	0	0	0	
0.311333	-0.0158716	-0.00222517	0.000326074	5.18844E-05	0	0	0	
0.3115	0.00552633	0.000590781	0.000307446	5.80175E-05	0	0	0	
0.311667	-0.00743326	0.000885734	0.000245642	5.97911E-05	0	0	0	
0.311833	0.0166012	-0.000189608	0.00022513	5.43478E-05	0	0	0	
0.312	-0.0139889	-0.000643008	0.000262457	4.27914E-05	0	0	0	
0.312167	0.012403	0.00218496	0.000297047	3.14122E-05	0	0	0	
0.312333	-0.0146691	-0.00172463	0.000304871	3.28179E-05	0	0	0	
0.3125	0.0141686	0.00180834	0.000295172	3.63627E-05	0	0	0	
0.312667	-0.0130346	-0.00163418	0.000297743	3.58354E-05	0	0	0	
0.312833	0.0188805	0.00104092	0.000320667	4.19312E-05	0	0	0	
0.313	-0.0236972	0.000496633	0.000367559	3.81031E-05	0	0	0	
0.313167	0.0173525	0.000504379	0.000393869	3.84828E-05	0	0	0	
0.313333	-0.00620076	-0.00228475	0.000362046	2.92251E-05	0	0	0	
0.3135	0.00265723	0.00163529	0.000259899	3.51655E-05	0	0	0	
0.313667	-0.00373264	-0.00157418	0.000171146	3.39715E-05	0	0	0	
0.313833	0.00637641	0.00319272	0.000143887	3.61694E-05	0	0	0	
0.314	-0.0110653	-0.00347855	0.000198493	4.57583E-05	0	0	0	
0.314167	0.0128947	0.0011567	0.000274446	5.45816E-05	0	0	0	
0.314333	-0.0155301	0.000109537	0.000308126	5.02426E-05	0	0	0	
0.3145	0.0141129	0.000591529	0.000299669	3.3037E-05	0	0	0	
0.314667	-0.00644975	-0.00133318	0.000258445	2.42026E-05	0	0	0	
0.314833	0.00410775	0.00103888	0.000195746	2.22538E-05	0	0	0	
0.315	-0.00952666	-0.00160402	0.000190041	2.53797E-05	0	0	0	
0.315167	0.0133084	0.00189938	0.000230492	2.93593E-05	0	0	0	
0.315333	-0.0139032	-0.00047975	0.000271657	3.65125E-05	0	0	0	
0.3155	0.00902574	0.000773448	0.000258774	3.11591E-05	0	0	0	
0.315667	-0.00793419	5.32982E-05	0.000212618	2.04545E-05	0	0	0	
0.315833	0.0122398	0.000702622	0.000208357	1.27859E-05	0	0	0	
0.316	-0.0117793	-0.00189672	0.000219321	1.72733E-05	0	0	0	
0.316167	0.00480834	0.00218043	0.000207004	3.15222E-05	0	0	0	
0.316333	-0.00628489	-0.000390192	0.00019035	3.35298E-05	0	0	0	
0.3165	0.0133568	0.00173358	0.000205446	3.1195E-05	0	0	0	
0.316667	-0.00817169	-0.00313528	0.000234338	3.13846E-05	0	0	0	
0.316833	0.00321745	0.000958868	0.00025068	3.79148E-05	0	0	0	
0.317	-0.0175096	-0.000494768	0.000353541	3.89003E-05	0	0	0	
0.317167	0.0383314	0.00343367	0.000534116	3.70695E-05	0	0	0	
0.317333	-0.0358589	-0.00340355	0.000672857	4.72438E-05	0	0	0	
0.3175	0.0113911	0.00290684	0.000673371	5.92544E-05	0	0	0	
0.317667	0.0178553	-0.00302672	0.000566517	6.06885E-05	0	0	0	
0.317833	-0.0310814	0.00412058	0.000494583	6.22931E-05	0	0	0	
0.318	0.0294565	-0.00334004	0.000556817	6.55247E-05	0	0	0	
0.318167	0.00835926	0.00342139	0.000961231	6.9859E-05	0	0	0	
0.318333	-0.0866852	-0.00403674	0.00160113	6.92751E-05	0	0	0	
0.3185	0.129729	0.00356994	0.00202024	9.07287E-05	0	0	0	
0.318667	-0.0637746	0.00270861	0.00217533	0.000120611	0	0	0	
0.318833	-0.057616	-0.00339616	0.00239822	0.000142263	0	0	0	
0.319	0.115828	0.00110184	0.00236649	0.000115385	0	0	0	
0.319167	-0.0727826	0.00486607	0.00229486	8.95905E-05	0	0	0	
0.319333	-0.0236353	-0.00926217	0.00224801	8.37577E-05	0	0	0	
0.3195	0.0985991	0.0131908	0.00240298	0.000149342	0	0	0	
0.319667	-0.108882	-0.0091707	0.00238702	0.000209593	0	0	0	
