0	0.000675762	-0.00126756	6.75762E-08	1.26756E-07	0	0	0	
0.000166667	-0.0241895	0.00466206	0.000172164	3.22134E-05	0	0	0	
0.000333333	0.0370749	-0.00379346	0.00037581	5.93225E-05	0	0	0	
0.0005	-0.0225549	0.00186621	0.000564824	7.74079E-05	0	0	0	
0.000666667	0.00101986	-0.0026097	0.000536386	6.45102E-05	0	0	0	
0.000833333	-6.88256E-05	0.00353217	0.000362265	6.13588E-05	0	0	0	
0.001	0.0139166	-0.0018073	0.000335881	6.10273E-05	0	0	0	
0.00116667	-0.0229455	0.00127947	0.000392865	6.17692E-05	0	0	0	
0.00133333	0.0280762	-0.0025388	0.000609811	7.73062E-05	0	0	0	
0.0015	-0.0387447	0.00362862	0.00072495	9.55601E-05	0	0	0	
0.00166667	0.037145	-0.00206299	0.00077665	0.000100781	0	0	0	
0.00183333	-0.0169815	0.00137452	0.000703095	8.55942E-05	0	0	0	
0.002	0.00608026	-0.00196716	0.000528878	8.55036E-05	0	0	0	
0.00216667	-0.0141417	0.00330535	0.000471957	9.85124E-05	0	0	0	
0.00233333	0.0244689	-0.0032254	0.000536598	0.000107414	0	0	0	
0.0025	-0.0260153	0.00271251	0.000647906	9.72987E-05	0	0	0	
0.00266667	0.0246947	-0.00259261	0.000656275	8.4507E-05	0	0	0	
0.00283333	-0.0242419	0.00288017	0.000621889	8.16576E-05	0	0	0	
0.003	0.024248	-0.00229601	0.000609308	8.56661E-05	0	0	0	
0.00316667	-0.0241951	0.00211006	0.000610651	8.43235E-05	0	0	0	
0.00333333	0.0245985	-0.0023517	0.000603037	8.29014E-05	0	0	0	
0.0035	-0.0234144	0.00358023	0.000578724	8.72876E-05	0	0	0	
0.00366667	0.0232003	-0.0043896	0.000556105	9.4677E-05	0	0	0	
0.00383333	-0.0252097	0.00299872	0.000561708	9.48757E-05	0	0	0	
0.004	0.0251853	-0.00228193	0.000576343	8.49961E-05	0	0	0	
0.00416667	-0.0200359	0.00217324	0.000562202	7.61455E-05	0	0	0	
0.00433333	0.0182422	-0.00117566	0.000525858	6.68503E-05	0	0	0	
0.0045	-0.0211877	0.00152036	0.000525323	6.81504E-05	0	0	0	
0.00466667	0.0238192	-0.00354244	0.000559749	8.32051E-05	0	0	0	
0.00483333	-0.0260458	0.00477227	0.000607126	0.000104126	0	0	0	
0.005	0.0285541	-0.00394769	0.000642177	0.000115431	0	0	0	
0.00516667	-0.0247886	0.00343316	0.000648677	0.000108354	0	0	0	
0.00533333	0.0162937	-0.00263596	0.000605779	9.21474E-05	0	0	0	
0.0055	-0.0186136	0.00239559	0.00055559	7.5476E-05	0	0	0	
0.00566667	0.0276556	-0.00221905	0.000548402	6.70923E-05	0	0	0	
0.00583333	-0.0229163	0.00215805	0.000557252	6.84426E-05	0	0	0	
0.006	0.00730007	-0.00221905	0.000505512	7.90295E-05	0	0	0	
0.00616667	-0.0098476	0.00293279	0.00048187	8.94855E-05	0	0	0	
0.00633333	0.0274295	-0.00308818	0.000577027	9.424E-05	0	0	0	
0.0065	-0.0343936	0.00342098	0.000696872	9.32566E-05	0	0	0	
0.00666667	0.0284876	-0.00398074	0.000727647	9.39962E-05	0	0	0	
0.00683333	-0.0265403	0.00354702	0.000656749	9.29272E-05	0	0	0	
0.007	0.0279916	-0.00242358	0.000619897	8.55011E-05	0	0	0	
0.00716667	-0.0201057	0.00206328	0.000563082	7.41708E-05	0	0	0	
0.00733333	0.00741473	-0.00163431	0.000462143	6.64722E-05	0	0	0	
0.0075	-0.00899908	0.000582862	0.000413682	6.30147E-05	0	0	0	
0.00766667	0.0232304	-0.00147832	0.000523526	6.95625E-05	0	0	0	
0.00783333	-0.029565	0.00368568	0.000672463	9.05357E-05	0	0	0	
0.008	0.0270727	-0.00521809	0.000740731	0.000115076	0	0	0	
0.00816667	-0.0311908	0.00436945	0.000721608	0.000122404	0	0	0	
0.00833333	0.0367552	-0.00268194	0.000719147	0.000105517	0	0	0	
0.0085	-0.0282379	0.0019588	0.000689239	8.02427E-05	0	0	0	
0.00866667	0.00788904	-0.00158347	0.000564867	5.95787E-05	0	0	0	
0.00883333	0.00174234	0.000242728	0.000366289	5.10699E-05	0	0	0	
0.009	0.00941793	-0.00174628	0.000382036	7.03112E-05	0	0	0	
0.00916667	-0.0274511	0.00534846	0.000558964	0.000110496	0	0	0	
0.00933333	0.0336486	-0.0065895	0.000773027	0.000138804	0	0	0	
0.0095	-0.0338124	0.00358172	0.000786836	0.00012945	0	0	0	
0.00966667	0.0333556	0.000451832	0.00070248	9.48958E-05	0	0	0	
0.00983333	-0.0168338	-0.00329721	0.000596964	5.86604E-05	0	0	0	
0.01	-0.0155878	0.00339361	0.00047611	6.5807E-05	0	0	0	
0.0101667	0.0137457	0.00167485	0.000450098	0.000119372	0	0	0	
0.0103333	0.0363362	-0.00740198	0.000787508	0.000188109	0	0	0	
0.0105	-0.0623072	0.00872931	0.00109886	0.000213748	0	0	0	
0.0106667	0.0321141	-0.00861921	0.00119297	0.000193334	0	0	0	
0.0108333	-0.012687	0.00688572	0.000846828	0.000161654	0	0	0	
0.011	0.0318341	0.00137525	0.000626171	0.000153765	0	0	0	
0.0111667	-0.0241478	-0.00779436	0.000512926	0.000130259	0	0	0	
0.0113333	-0.0141215	0.00194232	0.000505705	0.000144059	0	0	0	
0.0115	0.00820257	0.00441833	0.000504332	0.000164049	0	0	0	
0.0116667	0.0353894	-0.00200001	0.000779952	0.00016962	0	0	0	
0.0118333	-0.03707	0.00314642	0.00091777	0.000151561	0	0	0	
0.012	0.0113633	-0.00745482	0.000876439	0.000138341	0	0	0	
0.0121667	-0.0193822	0.00488943	0.000630021	0.000140339	0	0	0	
0.0123333	0.0379458	-0.00130746	0.00064193	0.000117575	0	0	0	
0.0125	-0.0258908	0.00312104	0.000702714	8.25058E-05	0	0	0	
0.0126667	0.00963842	-0.00286569	0.000628491	6.83303E-05	0	0	0	
0.0128333	-0.0146753	0.000608971	0.00048653	6.22826E-05	0	0	0	
0.013	0.0228589	-0.00137932	0.000471766	6.21283E-05	0	0	0	
0.0131667	-0.0225909	0.00185935	0.000546258	6.49406E-05	0	0	0	
0.0133333	0.0214348	-0.0013267	0.000578671	7.9089E-05	0	0	0	
0.0135	-0.0190751	0.00442972	0.000544411	0.000101899	0	0	0	
0.0136667	0.0158365	-0.00595382	0.000499027	0.000121463	0	0	0	
0.0138333	-0.0177166	0.00312182	0.000480533	0.00012346	0	0	0	
0.014	0.0229906	-0.0020193	0.000516437	9.82374E-05	0	0	0	
0.0141667	-0.0242847	0.00277642	0.000581099	7.94568E-05	0	0	0	
0.0143333	0.0239222	-0.00124399	0.000618133	7.33151E-05	0	0	0	
0.0145	-0.0235566	0.00232039	0.000602676	8.39851E-05	0	0	0	
0.0146667	0.0192129	-0.0042786	0.000560159	9.68934E-05	0	0	0	
0.0148333	-0.0180445	0.00186867	0.000529008	9.81328E-05	0	0	0	
0.015	0.0208637	-0.000900082	0.000525146	9.01817E-05	0	0	0	
0.0151667	-0.0140491	0.00498513	0.000499626	0.000100796	0	0	0	
0.0153333	0.00372825	-0.00591774	0.000440537	0.000122676	0	0	0	
0.0155	-0.015884	0.00348947	0.000497691	0.000127277	0	0	0	
0.0156667	0.0406973	-0.0024275	0.000689203	9.76474E-05	0	0	0	
0.0158333	-0.0367271	0.00141234	0.000824565	6.50414E-05	0	0	0	
0.016	0.00802772	0.00113265	0.000730567	4.21503E-05	0	0	0	
0.0161667	0.000323529	-0.00186185	0.000455546	4.52355E-05	0	0	0	
0.0163333	0.0164218	-0.00146241	0.000432066	8.99862E-05	0	0	0	
0.0165	-0.0230633	0.00607751	0.000500971	0.000152009	0	0	0	
0.0166667	0.0183795	-0.00632695	0.000629645	0.000179874	0	0	0	
0.0168333	-0.0251255	0.00415219	0.000629812	0.000155627	0	0	0	
0.017	0.0302435	-0.00331921	0.00063601	0.000113853	0	0	0	
0.0171667	-0.0172484	0.00251476	0.000603279	8.38827E-05	0	0	0	
0.0173333	0.00784968	-0.00063928	0.000501936	6.18314E-05	0	0	0	
0.0175	-0.0182115	-0.000427886	0.000501307	4.45606E-05	0	0	0	
0.0176667	0.030474	0.000704367	0.00061854	4.45788E-05	0	0	0	
0.0178333	-0.0288545	-8.6482E-05	0.000740334	6.10405E-05	0	0	0	
0.018	0.0209584	-0.000913442	0.000714246	8.74861E-05	0	0	0	
0.0181667	-0.0172312	0.00223469	0.0006046	0.000108895	0	0	0	
0.0183333	0.0180065	-0.00365212	0.00052736	0.000121052	0	0	0	
0.0185	-0.0166117	0.0041912	0.000509207	0.000120264	0	0	0	
0.0186667	0.0164829	-0.00359952	0.000542552	0.000106819	0	0	0	
0.0188333	-0.0227739	0.00204543	0.000607361	8.72114E-05	0	0	0	
0.019	0.0283878	-0.00162314	0.000668931	7.3499E-05	0	0	0	
0.0191667	-0.0259704	0.00211351	0.000676636	7.28221E-05	0	0	0	
0.0193333	0.0218915	-0.00189167	0.000615973	7.51699E-05	0	0	0	
0.0195	-0.0164472	0.000700287	0.000522541	7.34569E-05	0	0	0	
0.0196667	0.00901999	-0.000909267	0.00043444	7.13708E-05	0	0	0	
0.0198333	-0.00812874	0.00164565	0.000385288	7.92192E-05	0	0	0	
0.02	0.0157604	-0.00229423	0.000427096	9.02445E-05	0	0	0	
0.0201667	-0.0256925	0.00295191	0.000562128	9.69905E-05	0	0	0	
0.0203333	0.0327449	-0.00286294	0.000712664	9.78418E-05	0	0	0	
0.0205	-0.0315184	0.00190137	0.000767117	9.30342E-05	0	0	0	
0.0206667	0.0221111	-0.00171203	0.0006925	8.3401E-05	0	0	0	
0.0208333	-0.0144951	0.00216025	0.000554426	7.7225E-05	0	0	0	
0.021	0.0205693	-0.00187369	0.00049328	7.66048E-05	0	0	0	
0.0211667	-0.0282915	0.00174093	0.000555376	7.86807E-05	0	0	0	
0.0213333	0.0221902	-0.00236409	0.000633599	8.46889E-05	0	0	0	
0.0215	-0.0117326	0.00286065	0.00060557	9.4027E-05	0	0	0	
0.0216667	0.0143098	-0.00259524	0.000548929	9.8462E-05	0	0	0	
0.0218333	-0.0279308	0.00256552	0.000606903	9.42318E-05	0	0	0	
0.022	0.0379903	-0.00241194	0.000758915	8.60649E-05	0	0	0	
0.0221667	-0.0378421	0.00158255	0.000860564	7.35367E-05	0	0	0	
0.0223333	0.0289271	-2.16394E-05	0.000816739	6.07746E-05	0	0	0	
0.0225	-0.0187092	0.000181515	0.00066233	6.47609E-05	0	0	0	
0.0226667	0.0120828	-0.00164661	0.000489679	8.95841E-05	0	0	0	
0.0228333	-0.0130658	0.00304192	0.000406724	0.000112431	0	0	0	
0.023	0.0176903	-0.00380104	0.000461554	0.000119686	0	0	0	
0.0231667	-0.0242744	0.0045992	0.000598661	0.000114909	0	0	0	
0.0233333	0.0328221	-0.00361478	0.000739973	0.000106498	0	0	0	
0.0235	-0.0384087	0.000934582	0.000811734	8.54557E-05	0	0	0	
0.0236667	0.0322509	0.000137808	0.000795196	5.94863E-05	0	0	0	
0.0238333	-0.0189513	0.000578606	0.000677732	5.03959E-05	0	0	0	
0.024	0.014237	-0.000624731	0.000533734	5.99869E-05	0	0	0	
0.0241667	-0.0205119	0.0012434	0.000473363	8.52911E-05	0	0	0	
0.0243333	0.021449	-0.0036116	0.00050232	0.000109008	0	0	0	
0.0245	-0.0168031	0.00401295	0.0005459	0.000118594	0	0	0	
0.0246667	0.0203593	-0.00159023	0.000573053	0.000102196	0	0	0	
0.0248333	-0.0282584	0.00056734	0.000621639	7.6777E-05	0	0	0	
0.025	0.0223993	-0.00255241	0.000639565	8.31071E-05	0	0	0	
0.0251667	-0.00889782	0.00561545	0.000571187	0.000116233	0	0	0	
0.0253333	0.0219313	-0.0069724	0.00058909	0.000144622	0	0	0	
0.0255	-0.0585011	0.00540703	0.000816214	0.00013986	0	0	0	
0.0256667	0.0564222	-0.00155696	0.00103119	0.000108043	0	0	0	
0.0258333	-0.000167063	-0.00235137	0.00102739	7.37062E-05	0	0	0	
0.026	-0.0215939	0.00441592	0.00065591	6.01715E-05	0	0	0	
0.0261667	-0.029742	-0.00368632	0.000869007	8.48024E-05	0	0	0	
0.0263333	0.0685827	0.000178475	0.00129182	0.000147827	0	0	0	
0.0265	-0.0580193	0.0074242	0.00176448	0.000223808	0	0	0	
0.0266667	0.0456331	-0.0122315	0.00155671	0.000258339	0	0	0	
0.0268333	-0.0313971	0.0069721	0.00109066	0.000237307	0	0	0	
0.027	-0.0166913	-0.00130836	0.000798688	0.000174436	0	0	0	
0.0271667	0.0417392	0.00158429	0.000648446	0.000103151	0	0	0	
0.0273333	0.00981764	0.000978373	0.00120155	5.80173E-05	0	0	0	
0.0275	-0.0646614	-0.00565838	0.00173955	4.2678E-05	0	0	0	
0.0276667	0.0490473	0.00268628	0.00187266	7.50478E-05	0	0	0	
0.0278333	-0.00638768	0.00337447	0.00134964	0.000138101	0	0	0	
0.028	-0.0120554	-0.00509539	0.000675624	0.00017352	0	0	0	
0.0281667	0.0167786	0.00617251	0.000510625	0.000186527	0	0	0	
0.0283333	-0.00231452	-0.00702163	0.000634854	0.000166022	0	0	0	
0.0285	-0.0409272	0.00586901	0.00106729	0.000147127	0	0	0	
0.0286667	0.0743774	-0.00349912	0.00136067	0.000121272	0	0	0	
0.0288333	-0.0546286	0.00090834	0.00137084	8.34536E-05	0	0	0	
0.029	0.00435158	0.00217299	0.00112434	5.27615E-05	0	0	0	
0.0291667	0.0187036	-0.00113066	0.000721527	6.0604E-05	0	0	0	
0.0293333	0.00274389	-0.00340452	0.000635919	0.00010578	0	0	0	
0.0295	-0.0330535	0.00408935	0.000743736	0.000136223	0	0	0	
0.0296667	0.0371351	-0.00257059	0.000965892	0.000127028	0	0	0	
0.0298333	-0.0218907	0.00398886	0.00087004	0.000102868	0	0	0	
0.03	0.0168954	-0.00281664	0.000662622	8.74721E-05	0	0	0	
0.0301667	-0.0267811	-0.0018218	0.000634989	6.83042E-05	0	0	0	
0.0303333	0.0242523	0.000843223	0.000657978	7.17255E-05	0	0	0	
0.0305	-0.00162044	0.00567667	0.000580779	0.000118973	0	0	0	
0.0306667	-0.000849467	-0.00836131	0.000496236	0.00017051	0	0	0	
0.0308333	-0.045001	0.00767824	0.000743951	0.000180822	0	0	0	
0.031	0.0824076	-0.00391712	0.00117178	0.000147965	0	0	0	
0.0311667	-0.0610147	-0.00210546	0.00142515	0.000124262	0	0	0	
0.0313333	0.0174602	0.00596736	0.00123949	9.58082E-05	0	0	0	
0.0315	-0.00486968	-0.00381325	0.000817504	0.000103991	0	0	0	
0.0316667	0.00666897	-0.00115485	0.000451419	0.000140973	0	0	0	
0.0318333	-2.37821E-05	0.00679199	0.000239602	0.000206993	0	0	0	
0.032	0.00374941	-0.00946649	0.000330665	0.000235716	0	0	0	
0.0321667	-0.0257887	0.00727052	0.000654412	0.00021119	0	0	0	
0.0323333	0.0399344	-0.00282587	0.000966096	0.000158651	0	0	0	
0.0325	-0.0347692	-0.000862471	0.00105403	0.000100419	0	0	0	
0.0326667	0.0284906	0.00223023	0.00090688	6.19593E-05	0	0	0	
0.0328333	-0.0314594	-0.00154405	0.000759747	5.7711E-05	0	0	0	
0.033	0.0331327	-0.000332141	0.000694605	8.53106E-05	0	0	0	
0.0331667	-0.0256013	0.00232459	0.000639862	0.000115907	0	0	0	
0.0333333	0.0120149	-0.00325932	0.000527741	0.000125976	0	0	0	
0.0335	-0.000754928	0.00410325	0.000371309	0.000122906	0	0	0	
0.0336667	0.00158097	-0.00359631	0.000315432	0.00011251	0	0	0	
0.0338333	-0.0126223	0.00168525	0.000407157	8.98983E-05	0	0	0	
0.034	0.0226426	-0.000109868	0.000588121	6.10147E-05	0	0	0	
0.0341667	-0.0234454	0.000220312	0.000685841	4.87075E-05	0	0	0	
0.0343333	0.0210767	-0.00104754	0.000666121	6.33656E-05	0	0	0	
0.0345	-0.0185253	0.00252138	0.000622598	9.44981E-05	0	0	0	
0.0346667	0.0226763	-0.00311108	0.000630908	0.000115078	0	0	0	
0.0348333	-0.0285759	0.00266103	0.000676897	0.000113918	0	0	0	
0.035	0.0259112	-0.00263479	0.000675296	9.73202E-05	0	0	0	
0.0351667	-0.014793	0.00228388	0.000580446	7.9083E-05	0	0	0	
0.0353333	0.00710373	-0.00112377	0.000444883	6.71397E-05	0	0	0	
0.0355	-0.00847993	0.000526566	0.000418784	6.78358E-05	0	0	0	
0.0356667	0.0145572	-0.00138202	0.000507404	8.48955E-05	0	0	0	
0.0358333	-0.0169	0.00220215	0.000608519	0.000101691	0	0	0	
0.036	0.0188422	-0.00168139	0.000632302	0.000103122	0	0	0	
0.0361667	-0.0254774	0.00218765	0.00062856	9.19859E-05	0	0	0	
0.0363333	0.0277709	-0.00275845	0.000643848	8.83605E-05	0	0	0	
0.0365	-0.021521	0.0022114	0.000631498	9.0478E-05	0	0	0	
0.0366667	0.0162475	-0.00180061	0.000572991	9.21625E-05	0	0	0	
0.0368333	-0.0171622	0.00167373	0.000525543	8.95008E-05	0	0	0	
0.037	0.0178996	-0.000736389	0.000507084	8.27346E-05	0	0	0	
0.0371667	-0.0144125	0.000448798	0.000495549	7.54478E-05	0	0	0	
0.0373333	0.0114315	-0.00135024	0.000480977	7.51057E-05	0	0	0	
0.0375	-0.0134011	0.00142457	0.000511939	8.20445E-05	0	0	0	
0.0376667	0.0172992	-0.00122759	0.000600654	9.05947E-05	0	0	0	
0.0378333	-0.0234905	0.00214572	0.000710141	9.61705E-05	0	0	0	
0.038	0.031095	-0.00274834	0.000788775	9.77885E-05	0	0	0	
0.0381667	-0.0344708	0.00261888	0.000811081	9.17478E-05	0	0	0	
0.0383333	0.0272615	-0.00141316	0.00074418	7.49247E-05	0	0	0	
0.0385	-0.00839936	-0.000329173	0.000570956	5.55407E-05	0	0	0	
0.0386667	-0.012796	0.000577405	0.000360701	5.51947E-05	0	0	0	
0.0388333	0.0146903	0.00195101	0.000312129	7.39344E-05	0	0	0	
0.039	0.00993644	-0.00247554	0.000582754	8.74954E-05	0	0	0	
0.0391667	-0.0374135	0.000726306	0.000969388	8.1605E-05	0	0	0	
0.0393333	0.041447	-0.00152872	0.00117567	8.05295E-05	0	0	0	
0.0395	-0.0250186	0.00460786	0.00102856	0.000101467	0	0	0	
0.0396667	0.0180878	-0.00445822	0.000692454	0.000115458	0	0	0	
0.0398333	-0.0332889	0.00111103	0.000513111	9.47712E-05	0	0	0	
0.04	0.0209276	0.00109868	0.000520424	5.22633E-05	0	0	0	
0.0401667	0.0330756	-0.00264879	0.000672788	4.39335E-05	0	0	0	
0.0403333	-0.0717651	0.000538414	0.000784048	8.17865E-05	0	0	0	
0.0405	0.0429975	0.00507981	0.00115174	0.000150581	0	0	0	
0.0406667	0.0447848	-0.00773108	0.00184746	0.000189176	0	0	0	
0.0408333	-0.113298	0.00621802	0.00225133	0.000178575	0	0	0	
0.041	0.0998042	-0.000839055	0.00227841	0.000130363	0	0	0	
0.0411667	-0.0451476	-0.00936885	0.00196987	9.55985E-05	0	0	0	
0.0413333	0.0287787	0.0117945	0.00215407	0.000125394	0	0	0	
0.0415	0.0626325	-0.00469062	0.0024442	0.000232028	0	0	0	
0.0416667	-0.100756	-0.0123263	0.00230774	0.000387862	0	0	0	
0.0418333	0.0278856	0.0232703	0.00236328	0.000465509	0	0	0	
0.042	0.116803	-0.0201271	0.00296411	0.000459054	0	0	0	
0.0421667	-0.187406	0.0013536	0.0036001	0.000395212	0	0	0	
0.0423333	0.167385	0.0149091	0.003685	0.000325753	0	0	0	
0.0425	-0.0874618	-0.0167096	0.00310668	0.000295018	0	0	0	
0.0426667	-0.00942036	0.00877836	0.00235221	0.000304659	0	0	0	
0.0428333	0.0628255	0.0073965	0.00154863	0.000345255	0	0	0	
0.043	-0.0914562	-0.0233378	0.00118478	0.00037361	0	0	0	
0.0431667	0.0188153	0.0242456	0.00158474	0.000397647	0	0	0	
0.0433333	0.0535763	-0.00640774	0.00221017	0.000377034	0	0	0	
0.0435	-0.0769825	-0.00554074	0.00218764	0.000280403	0	0	0	
0.0436667	0.0454651	0.00634523	0.00177866	0.000206812	0	0	0	
0.0438333	-0.0413774	-0.00035246	0.00119719	0.000187662	0	0	0	
0.044	0.0248675	-0.00490958	0.00089742	0.000251456	0	0	0	
0.0441667	0.00166722	0.00816621	0.000662725	0.000264463	0	0	0	
0.0443333	0.0117253	-0.00412611	0.000569001	0.000238263	0	0	0	
0.0445	-0.0651589	-0.00526302	0.000843911	0.0001824	0	0	0	
0.0446667	0.0864437	0.0068364	0.00123944	0.000169495	0	0	0	
0.0448333	-0.0216863	-0.00351158	0.00141259	0.000217471	0	0	0	
0.045	-0.0358016	0.000946306	0.00100252	0.000235355	0	0	0	
0.0451667	0.0101878	-0.00197284	0.000957457	0.000190351	0	0	0	
0.0453333	0.0257594	0.00474257	0.00113452	0.000149711	0	0	0	
0.0455	-0.0167912	-0.0021353	0.00121831	0.000114847	0	0	0	
0.0456667	-0.00151845	6.15944E-05	0.000919179	0.000116717	0	0	0	
0.0458333	-0.0201944	-0.00194636	0.000886116	7.80341E-05	0	0	0	
0.046	0.0541158	0.00166357	0.00113699	7.72341E-05	0	0	0	
0.0461667	-0.0405843	-2.73244E-05	0.00123367	4.83666E-05	0	0	0	
0.0463333	0.0146442	0.000464877	0.00092635	2.73845E-05	0	0	0	
0.0465	-0.0101843	-0.00114476	0.000557182	3.94982E-05	0	0	0	
0.0466667	0.0106679	-0.00362655	0.000348824	0.000102142	0	0	0	
0.0468333	0.0162256	0.00664772	0.000256752	0.000170675	0	0	0	
0.047	-0.0225716	-0.00663132	0.000477204	0.000175825	0	0	0	
0.0471667	-0.0174993	-0.00116167	0.00109843	0.000173553	0	0	0	
0.0473333	0.0736847	0.0131952	0.00176648	0.000215132	0	0	0	
0.0475	-0.0666621	-0.0171125	0.00191058	0.000278797	0	0	0	
0.0476667	-0.0110478	0.0109718	0.00159719	0.000315001	0	0	0	
0.0478333	0.0425521	-0.000184022	0.00105795	0.000343427	0	0	0	
0.048	-0.000840481	-0.00737922	0.00116316	0.000367041	0	0	0	
0.0481667	-0.0579307	0.0108737	0.0015367	0.000332254	0	0	0	
0.0483333	0.062006	-0.00915682	0.00165179	0.000255009	0	0	0	
0.0485	-0.0075399	0.00061501	0.00146136	0.000227312	0	0	0	
0.0486667	-0.0308417	0.00759179	0.000889556	0.000222948	0	0	0	
0.0488333	0.00902638	-0.00677111	0.00070965	0.00019959	0	0	0	
0.049	0.00134293	0.00551124	0.000689372	0.000153499	0	0	0	
0.0491667	-0.0207165	-0.00458143	0.00105804	0.000146372	0	0	0	
0.0493333	0.0750991	-0.000416354	0.00150071	0.000188529	0	0	0	
0.0495	-0.0790074	0.00533909	0.00162523	0.000224938	0	0	0	
0.0496667	0.0050761	-0.00555902	0.00142393	0.000222886	0	0	0	
0.0498333	0.0491337	0.00375271	0.00104469	0.000173573	0	0	0	
0.05	-0.0281347	-0.00234172	0.000966251	0.000112349	0	0	0	
0.0501667	-0.0217013	0.00139783	0.00117789	7.52497E-05	0	0	0	
0.0503333	0.0387161	-0.00160911	0.00129619	6.69577E-05	0	0	0	
0.0505	-0.0230481	0.00215868	0.00108878	7.47215E-05	0	0	0	
0.0506667	0.00979259	-0.00212104	0.000620238	8.54961E-05	0	0	0	
0.0508333	-0.00623873	0.00281879	0.000362199	8.99055E-05	0	0	0	
0.051	0.00259933	-0.00297816	0.000243774	8.75151E-05	0	0	0	
0.0511667	-0.000765266	0.00147589	0.000258192	7.90281E-05	0	0	0	
0.0513333	0.00886064	-0.000680963	0.000421937	7.23058E-05	0	0	0	
0.0515	-0.0184315	0.00201339	0.00063357	7.76439E-05	0	0	0	
0.0516667	0.0271015	-0.00295463	0.00076942	9.1039E-05	0	0	0	
0.0518333	-0.0331395	0.00283256	0.000802054	9.86862E-05	0	0	0	
0.052	0.0363124	-0.00239296	0.000783963	9.36062E-05	0	0	0	
0.0521667	-0.0251073	0.00145949	0.00073183	8.5183E-05	0	0	0	
0.0523333	0.0010391	-0.00134756	0.000554033	7.95328E-05	0	0	0	
0.0525	0.00838132	0.00148663	0.000393096	7.83529E-05	0	0	0	
0.0526667	0.0075819	-0.00172351	0.000439008	8.19719E-05	0	0	0	
0.0528333	-0.0265408	0.00207802	0.000665662	9.02844E-05	0	0	0	
0.053	0.0337068	-0.00194092	0.000878005	9.71622E-05	0	0	0	
0.0531667	-0.0299682	0.00170753	0.000883059	9.94781E-05	0	0	0	
0.0533333	0.0151835	-0.00246448	0.000735791	9.9076E-05	0	0	0	
0.0535	-0.00387831	0.00309586	0.000548314	9.79072E-05	0	0	0	
0.0536667	0.0111437	-0.00258638	0.00050478	9.22243E-05	0	0	0	
0.0538333	-0.0250778	0.00123174	0.000599063	7.73862E-05	0	0	0	
0.054	0.0201044	0.000650605	0.000694511	5.73122E-05	0	0	0	
0.0541667	-0.00775915	-0.00168679	0.000649471	5.21583E-05	0	0	0	
0.0543333	0.0112397	0.00044503	0.00061291	7.0551E-05	0	0	0	
0.0545	-0.0263922	0.00159936	0.000666207	0.000103389	0	0	0	
0.0546667	0.0249993	-0.00310084	0.000694779	0.000126371	0	0	0	
0.0548333	-0.00922176	0.00471455	0.00058011	0.000135831	0	0	0	
0.055	0.00207312	-0.00581337	0.00042097	0.000132957	0	0	0	
0.0551667	-0.0101961	0.00358436	0.00043879	0.000116329	0	0	0	
0.0553333	0.0130184	0.000682672	0.000520812	8.61866E-05	0	0	0	
0.0555	-0.0121914	-0.00327648	0.000583757	5.60629E-05	0	0	0	
0.0556667	0.0177839	0.00196918	0.000583985	6.75537E-05	0	0	0	
0.0558333	-0.0182126	0.0014236	0.000598286	0.000109998	0	0	0	
0.056	0.0116673	-0.00465094	0.000621042	0.000159938	0	0	0	
0.0561667	-0.0199425	0.00602315	0.000678012	0.000174325	0	0	0	
0.0563333	0.0311936	-0.00456221	0.000718542	0.000151256	0	0	0	
0.0565	-0.0104034	0.00180071	0.000637809	0.000109219	0	0	0	
0.0566667	-0.0163992	7.25281E-05	0.000417335	6.36719E-05	0	0	0	
0.0568333	0.00151716	-0.0024406	0.000428327	3.9261E-05	0	0	0	
0.057	0.0175001	0.00337348	0.000632967	4.95864E-05	0	0	0	
0.0571667	-0.00112086	0.00139152	0.000737309	0.000108085	0	0	0	
0.0573333	0.00255533	-0.00659779	0.000703591	0.000162468	0	0	0	
0.0575	-0.0460328	0.00417833	0.000815552	0.000165799	0	0	0	
0.0576667	0.0510982	-0.000749394	0.000984387	0.000115941	0	0	0	
0.0578333	-0.00413595	0.00298194	0.000965552	8.07523E-05	0	0	0	
0.058	-0.0108989	-0.0025599	0.000563461	7.02838E-05	0	0	0	
0.0581667	-0.0191172	-0.00195434	0.000555873	6.16891E-05	0	0	0	
0.0583333	0.023132	0.00120319	0.00056597	6.11333E-05	0	0	0	
0.0585	-0.00020163	0.00270406	0.000617512	9.0293E-05	0	0	0	
0.0586667	0.00231784	-0.00326089	0.000484316	0.000118461	0	0	0	
0.0588333	-0.0288705	0.00272662	0.000620196	0.000121084	0	0	0	
0.059	0.039008	-0.0032549	0.000857614	0.000105197	0	0	0	
0.0591667	-0.0264075	0.00197395	0.000912088	9.72705E-05	0	0	0	
0.0593333	0.0139576	-0.00056627	0.000703295	8.65013E-05	0	0	0	
0.0595	-0.0117617	0.00121268	0.000509881	7.87069E-05	0	0	0	
0.0596667	0.0146839	-0.00155354	0.000454692	8.01084E-05	0	0	0	
0.0598333	-0.0185263	0.00150311	0.000529371	8.79426E-05	0	0	0	
0.06	0.0211169	-0.00228274	0.000622912	9.15141E-05	0	0	0	
0.0601667	-0.0206762	0.00167044	0.000648736	8.87255E-05	0	0	0	
0.0603333	0.0175541	-0.000319552	0.000603351	7.9731E-05	0	0	0	
0.0605	-0.0139052	0.00100956	0.000530015	7.51201E-05	0	0	0	
0.0606667	0.0118999	-0.00178056	0.000492828	7.82187E-05	0	0	0	
0.0608333	-0.0148841	0.00150286	0.000525355	8.64758E-05	0	0	0	
0.061	0.016831	-0.00311302	0.000583308	9.33865E-05	0	0	0	
0.0611667	-0.0184579	0.0032132	0.000625382	9.11043E-05	0	0	0	
0.0613333	0.0296286	0.000808577	0.00068139	7.23643E-05	0	0	0	
0.0615	-0.037358	-0.00225222	0.000739643	5.46202E-05	0	0	0	
0.0616667	0.0199343	-0.000570891	0.000705634	7.12511E-05	0	0	0	
0.0618333	0.00036235	0.00185798	0.000511005	0.000102652	0	0	0	
0.062	0.00413312	-0.000814489	0.000405105	0.000115392	0	0	0	
0.0621667	-0.0186647	0.002214	0.000477332	0.000110049	0	0	0	
0.0623333	0.0180114	-0.00460453	0.000606397	0.000114269	0	0	0	
0.0625	-0.0168541	0.00573103	0.000643634	0.000124066	0	0	0	
0.0626667	0.0254963	-0.0048351	0.000635823	0.000143652	0	0	0	
0.0628333	-0.0230537	0.00894478	0.000607158	0.000177347	0	0	0	
0.063	0.000732237	-0.0120891	0.000481756	0.000202093	0	0	0	
0.0631667	0.00676816	0.002223	0.000282038	0.000218503	0	0	0	
0.0633333	0.0126685	0.00854957	0.000356915	0.000217247	0	0	0	
0.0635	-0.0329957	-0.00960097	0.000600301	0.000203742	0	0	0	
0.0636667	0.0284948	0.00713866	0.000822357	0.000215294	0	0	0	
0.0638333	-0.0136991	-0.00363856	0.00073027	0.000262343	0	0	0	
0.064	0.01187	-0.0107488	0.000526101	0.000362425	0	0	0	
0.0641667	-0.0219236	0.0186268	0.000424944	0.000403765	0	0	0	
0.0643333	0.0256325	-0.0144687	0.000472184	0.000375758	0	0	0	
0.0645	-0.016452	0.00505657	0.000533031	0.000300008	0	0	0	
0.0646667	0.00531494	0.00196092	0.000499796	0.000232006	0	0	0	
0.0648333	-0.000232061	-0.00707789	0.000439096	0.000176719	0	0	0	
0.065	0.00376376	0.00701328	0.000460226	0.000141762	0	0	0	
0.0651667	-0.0117836	-0.00275324	0.000590801	0.000144956	0	0	0	
0.0653333	0.0237324	-0.00123612	0.00075512	0.000170987	0	0	0	
0.0655	-0.031129	0.00327867	0.000840967	0.00019083	0	0	0	
0.0656667	0.0261676	-0.0055868	0.000796352	0.000185968	0	0	0	
0.0658333	-0.017295	0.00541947	0.000659483	0.000163124	0	0	0	
0.066	0.0119483	-0.00301772	0.000544407	0.000129877	0	0	0	
0.0661667	-0.011331	0.000993723	0.000511733	8.63635E-05	0	0	0	
0.0663333	0.0129112	0.000394893	0.000513446	5.28073E-05	0	0	0	
0.0665	-0.0119035	-0.00119292	0.000490145	4.8271E-05	0	0	0	
0.0666667	0.00546425	-0.000467341	0.000424746	7.39401E-05	0	0	0	
0.0668333	-0.00152155	0.00197512	0.000399496	0.000105354	0	0	0	
0.067	0.00592716	-0.00142581	0.00050629	0.000115181	0	0	0	
0.0671667	-0.017449	0.00199279	0.000697695	0.000107492	0	0	0	
0.0673333	0.0273532	-0.00333281	0.000835476	0.000102805	0	0	0	
0.0675	-0.0305917	0.00295816	0.000830975	9.9536E-05	0	0	0	
0.0676667	0.0250562	-0.00106974	0.000720868	8.44053E-05	0	0	0	
0.0678333	-0.0101221	0.000252541	0.000561979	6.31201E-05	0	0	0	
0.068	-0.00454513	0.000214743	0.000393646	5.33227E-05	0	0	0	
0.0681667	0.00252855	4.78018E-05	0.000368753	6.14399E-05	0	0	0	
0.0683333	0.00974473	-0.00189021	0.000502835	8.55469E-05	0	0	0	
0.0685	-0.0166627	0.00308514	0.000674338	0.000109459	0	0	0	
0.0686667	0.0180386	-0.00266548	0.00072666	0.000118642	0	0	0	
0.0688333	-0.0203624	0.00262596	0.000696235	0.00010872	0	0	0	
0.069	0.0210145	-0.00253271	0.000661092	9.40595E-05	0	0	0	
0.0691667	-0.0141303	0.00160972	0.000594527	7.9759E-05	0	0	0	
0.0693333	0.0058423	-0.000690201	0.000486898	6.79546E-05	0	0	0	
0.0695	-0.00556748	0.000236291	0.000433014	6.4445E-05	0	0	0	
0.0696667	0.0127572	-0.000249674	0.000498545	7.12952E-05	0	0	0	
0.0698333	-0.0189779	0.000506182	0.000612332	8.25477E-05	0	0	0	
0.07	0.0174108	-0.00146259	0.00065024	9.22511E-05	0	0	0	
0.0701667	-0.0103769	0.0014837	0.000581514	9.89865E-05	0	0	0	
0.0703333	0.0081344	-0.00199479	0.000508186	9.97607E-05	0	0	0	
0.0705	-0.0124407	0.00207938	0.00051026	9.25942E-05	0	0	0	
0.0706667	0.0134005	-0.00066944	0.000563851	7.78511E-05	0	0	0	
0.0708333	-0.0136836	7.92584E-05	0.000614282	6.97218E-05	0	0	0	
0.071	0.0191479	-0.00222236	0.000640857	8.08822E-05	0	0	0	
0.0711667	-0.0208516	0.00211028	0.000632957	9.06795E-05	0	0	0	
0.0713333	0.0113566	0.00105382	0.000571937	7.5799E-05	0	0	0	
0.0715	-0.00410961	-0.00263652	0.00048327	5.68106E-05	0	0	0	
0.0716667	0.00287653	0.00105905	0.000453239	7.10612E-05	0	0	0	
0.0718333	0.0012009	0.00115706	0.000464544	0.000116071	0	0	0	
0.072	-0.000445545	-0.00412428	0.000554967	0.000156941	0	0	0	
0.0721667	-0.0249754	0.00694741	0.000753356	0.000169904	0	0	0	
0.0723333	0.0407662	-0.00451205	0.000902696	0.000150697	0	0	0	
0.0725	-0.00927427	-0.000697619	0.000819715	0.00011062	0	0	0	
0.0726667	-0.0222885	0.00219734	0.000535602	6.2624E-05	0	0	0	
0.0728333	0.000780757	-0.00324714	0.0004835	4.66191E-05	0	0	0	
0.073	0.0233578	0.00570019	0.000653626	6.18038E-05	0	0	0	
0.0731667	-0.000728292	-0.000278596	0.000688231	0.000131025	0	0	0	
0.0733333	-0.00954076	-0.00747347	0.000592731	0.000206133	0	0	0	
0.0735	-0.0279103	0.00597562	0.000731106	0.000218128	0	0	0	
0.0736667	0.0464215	-0.000951563	0.000971258	0.000160856	0	0	0	
0.0738333	-0.0147495	0.000900613	0.000988705	8.55646E-05	0	0	0	
0.074	-0.00387684	-0.00100153	0.000599638	6.88061E-05	0	0	0	
0.0741667	-0.0118221	0.00209593	0.000478609	0.000101541	0	0	0	
0.0743333	0.0119484	-0.00738027	0.000497636	0.000152119	0	0	0	
0.0745	0.00741377	0.00680325	0.000520533	0.000160647	0	0	0	
0.0746667	-0.0118313	0.000326594	0.000446373	0.000155833	0	0	0	
0.0748333	-0.00312043	-0.00285477	0.000550243	0.000106717	0	0	0	
0.075	0.0205318	0.00482321	0.000806388	8.90377E-05	0	0	0	
0.0751667	-0.0306437	-0.00942328	0.000936762	8.4112E-05	0	0	0	
0.0753333	0.021299	0.00370926	0.000842568	0.000164752	0	0	0	
0.0755	-0.00517366	0.0101455	0.000609788	0.000271941	0	0	0	
0.0756667	0.00494852	-0.0116702	0.000439524	0.000308001	0	0	0	
0.0758333	-0.0134657	0.00667351	0.000414664	0.000262798	0	0	0	
0.076	0.00961191	-0.00479007	0.000453572	0.000168684	0	0	0	
0.0761667	-0.00307871	0.00135303	0.000449476	0.000114732	0	0	0	
0.0763333	0.00882108	0.00315506	0.000460008	8.0903E-05	0	0	0	
0.0765	-0.0167695	-0.00185523	0.000538909	6.72413E-05	0	0	0	
0.0766667	0.0139541	0.00165385	0.000614682	6.7873E-05	0	0	0	
0.0768333	-0.0112439	-0.00265723	0.000601859	8.01934E-05	0	0	0	
0.077	0.0132143	-0.00229223	0.000558118	0.000122164	0	0	0	
0.0771667	-0.0129553	0.00539116	0.000538169	0.000148531	0	0	0	
0.0773333	0.0180278	-0.00147015	0.00057856	0.000138189	0	0	0	
0.0775	-0.0295273	-0.00105014	0.000657955	9.07406E-05	0	0	0	
0.0776667	0.0236566	-0.00159012	0.000677615	8.60238E-05	0	0	0	
0.0778333	-0.00177228	0.00322321	0.000550102	0.000112349	0	0	0	
0.078	-0.000107963	-0.00355739	0.000419288	0.000136265	0	0	0	
0.0781667	-0.0143694	0.00390436	0.000468151	0.000124044	0	0	0	
0.0783333	0.0121836	-0.00258015	0.000569154	9.71411E-05	0	0	0	
0.0785	-0.00473518	-0.00136161	0.000592186	6.69626E-05	0	0	0	
0.0786667	0.0151994	0.00364469	0.000581652	4.80491E-05	0	0	0	
0.0788333	-0.0230964	-0.00165726	0.000641995	7.44198E-05	0	0	0	
0.079	0.00890563	-0.00137552	0.000667375	0.000125077	0	0	0	
0.0791667	-0.00402402	0.00258054	0.000606412	0.000154021	0	0	0	
0.0793333	0.0220756	-0.00290304	0.000643517	0.000144696	0	0	0	
0.0795	-0.0351591	0.00318867	0.000739274	0.00011575	0	0	0	
0.0796667	0.0218932	-0.00152762	0.000747484	8.8158E-05	0	0	0	
0.0798333	-0.000412512	-0.000275978	0.000540477	6.544E-05	0	0	0	
0.08	-0.00362091	-0.000646776	0.000406931	6.7828E-05	0	0	0	
0.0801667	-0.00928314	0.00142421	0.000453918	8.06989E-05	0	0	0	
0.0803333	0.0114334	0.000287618	0.000562546	8.07663E-05	0	0	0	
0.0805	-0.00806302	-0.00114214	0.00061498	6.95129E-05	0	0	0	
0.0806667	0.0183338	-0.000695532	0.000653525	8.01569E-05	0	0	0	
0.0808333	-0.0268186	0.00250809	0.000730703	0.000109316	0	0	0	
0.081	0.0148944	-0.00265664	0.000716502	0.000124403	0	0	0	
0.0811667	-0.0043173	0.00174909	0.000572902	0.000109683	0	0	0	
0.0813333	0.0144583	-0.000955054	0.000531779	8.20597E-05	0	0	0	
0.0815	-0.0266635	8.95465E-05	0.00061618	6.37567E-05	0	0	0	
0.0816667	0.0174987	7.38177E-05	0.000665478	6.03142E-05	0	0	0	
0.0818333	-0.000560675	-0.000746565	0.000527481	6.73211E-05	0	0	0	
0.082	-0.000143211	0.000611165	0.000431323	8.24283E-05	0	0	0	
0.0821667	-0.0113334	0.00188388	0.000524556	0.000106526	0	0	0	
0.0823333	0.0174975	-0.00321329	0.000676109	0.000123478	0	0	0	
0.0825	-0.0148655	0.0023766	0.000716919	0.000117494	0	0	0	
0.0826667	0.0114554	-0.0016622	0.000641966	9.3337E-05	0	0	0	
0.0828333	-0.00996576	0.00167801	0.000565592	7.60543E-05	0	0	0	
0.083	0.00491855	-0.000912914	0.000497732	6.67432E-05	0	0	0	
0.0831667	-0.00155998	-0.000148652	0.000446159	6.01158E-05	0	0	0	
0.0833333	0.00565147	0.000332287	0.000453474	6.3635E-05	0	0	0	
0.0835	-0.0136909	0.000826242	0.000517185	8.10823E-05	0	0	0	
0.0836667	0.0143784	-0.00215936	0.000559816	0.000103246	0	0	0	
0.0838333	-0.00708172	0.00255159	0.000495175	0.000114418	0	0	0	
0.084	-0.0024409	-0.00238483	0.000374978	0.000108944	0	0	0	
0.0841667	-0.00231154	0.000911084	0.00037006	9.19273E-05	0	0	0	
0.0843333	0.0189176	0.000287555	0.000504881	7.15177E-05	0	0	0	
0.0845	-0.0255153	-0.000550435	0.000642556	6.39273E-05	0	0	0	
0.0846667	0.017408	0.000182345	0.000637445	7.39372E-05	0	0	0	
0.0848333	-0.0102526	0.000810172	0.000529253	9.79584E-05	0	0	0	
0.085	0.00725609	-0.00251759	0.000462067	0.000120226	0	0	0	
0.0851667	-0.00854687	0.00293528	0.000461062	0.000126557	0	0	0	
0.0853333	0.0111026	-0.00179072	0.000501268	0.000106674	0	0	0	
0.0855	-0.0137083	-4.90978E-05	0.000535465	6.96663E-05	0	0	0	
0.0856667	0.0144096	0.00131206	0.000558995	4.50466E-05	0	0	0	
0.0858333	-0.0103758	-0.000530765	0.000560523	5.35004E-05	0	0	0	
0.086	0.0057402	-0.000593637	0.000541077	8.22411E-05	0	0	0	
0.0861667	-0.00965818	0.00114285	0.000554563	0.000103967	0	0	0	
0.0863333	0.0176311	-0.00217369	0.000618837	0.000110583	0	0	0	
0.0865	-0.0188902	0.00286447	0.000661442	0.000105129	0	0	0	
0.0866667	0.0125433	-0.00223515	0.000616777	9.07318E-05	0	0	0	
0.0868333	-0.00816749	0.00102385	0.000523039	6.89339E-05	0	0	0	
0.087	0.00914497	0.000232824	0.000477282	5.13902E-05	0	0	0	
0.0871667	-0.0100619	-0.00134253	0.000495454	5.17178E-05	0	0	0	
0.0873333	0.00892693	-6.46045E-05	0.000540376	7.51942E-05	0	0	0	
0.0875	-0.00721404	0.00213521	0.000562374	0.000106244	0	0	0	
0.0876667	0.0069962	-0.00139084	0.000569112	0.000112302	0	0	0	
0.0878333	-0.00923495	-0.000699019	0.000583128	9.41785E-05	0	0	0	
0.088	0.00906519	-0.000205099	0.000570806	8.94567E-05	0	0	0	
0.0881667	-5.99483E-05	0.00306092	0.000514364	0.000113332	0	0	0	
0.0883333	0.00639425	-0.00491735	0.000556481	0.000136473	0	0	0	
0.0885	-0.0413343	0.00443477	0.000786636	0.000125224	0	0	0	
0.0886667	0.049628	-2.64691E-05	0.000955577	9.4762E-05	0	0	0	
0.0888333	0.00609567	-0.00455092	0.00098108	7.43766E-05	0	0	0	
0.089	-0.0469979	0.00496783	0.000774452	7.43839E-05	0	0	0	
0.0891667	0.00911432	-0.00396161	0.000822034	9.32319E-05	0	0	0	
0.0893333	0.0374161	0.00248288	0.000996469	0.000122465	0	0	0	
0.0895	-0.0219282	0.0035645	0.00100377	0.000177812	0	0	0	
0.0896667	-0.00865133	-0.00962071	0.000715866	0.000215361	0	0	0	
0.0898333	0.00687331	0.00618126	0.000372087	0.000207218	0	0	0	
0.09	-0.000426259	-0.000378355	0.000278856	0.000149632	0	0	0	
0.0901667	-0.00117838	0.00114042	0.000410058	7.94087E-05	0	0	0	
0.0903333	0.0300818	-0.000311765	0.000658951	4.20276E-05	0	0	0	
0.0905	-0.0541902	-0.00330001	0.000824007	2.40982E-05	0	0	0	
0.0906667	0.0299903	0.00208967	0.000926379	5.33329E-05	0	0	0	
0.0908333	0.00762638	0.00052063	0.00083952	9.2139E-05	0	0	0	
0.091	-0.0185244	0.000645917	0.000638714	0.000116696	0	0	0	
0.0911667	0.0193747	0.00181212	0.000541315	0.000138922	0	0	0	
0.0913333	-0.000463316	-0.0080953	0.000657958	0.000169442	0	0	0	
0.0915	-0.0433867	0.00756599	0.0010318	0.00019162	0	0	0	
0.0916667	0.0573895	-0.00257558	0.00118972	0.000163374	0	0	0	
0.0918333	-0.0133181	-0.00103582	0.00104176	9.88091E-05	0	0	0	
0.092	-0.0199962	0.00467705	0.000696912	5.90257E-05	0	0	0	
0.0921667	-1.90741E-05	-0.00689208	0.000645369	6.9272E-05	0	0	0	
0.0923333	0.0232271	0.0043775	0.000718438	0.000115691	0	0	0	
0.0925	-0.0190721	-0.00130016	0.000743206	0.000168197	0	0	0	
0.0926667	-0.00714774	-0.00306115	0.000529829	0.000201128	0	0	0	
0.0928333	0.0217961	0.00698374	0.000305145	0.000206343	0	0	0	
0.093	-0.0136538	-0.00494555	0.000391214	0.000174671	0	0	0	
0.0931667	-0.00535519	-0.00175256	0.000571966	0.000125009	0	0	0	
0.0933333	0.0128501	0.00251101	0.000678215	7.66247E-05	0	0	0	
0.0935	-0.00404772	0.0031152	0.000589005	8.59016E-05	0	0	0	
0.0936667	0.0113714	-0.0050899	0.000540097	8.95121E-05	0	0	0	
0.0938333	-0.0566879	-0.000430879	0.000721795	0.000102281	0	0	0	
0.094	0.0809901	0.00474087	0.00103316	7.36436E-05	0	0	0	
0.0941667	-0.0365808	-0.00391775	0.00120091	8.77851E-05	0	0	0	
0.0943333	-0.0188735	0.00110265	0.00117112	0.000113018	0	0	0	
0.0945	0.0312476	-9.19253E-05	0.00085613	0.000153504	0	0	0	
0.0946667	-0.0133445	-0.00562002	0.000748758	0.000190913	0	0	0	
0.0948333	-0.0124492	0.01112	0.000747656	0.000208005	0	0	0	
0.095	0.0369858	-0.00642164	0.00102463	0.00020255	0	0	0	
0.0951667	-0.0488195	-0.00128788	0.00118096	0.00015765	0	0	0	
0.0953333	0.0399594	0.00288893	0.00113479	9.88577E-05	0	0	0	
0.0955	-0.0110992	-0.00348667	0.000892915	7.42498E-05	0	0	0	
0.0956667	-0.00300257	0.00226233	0.000532564	8.2574E-05	0	0	0	
0.0958333	-0.014015	0.00225894	0.000477091	0.000131017	0	0	0	
0.096	0.0249315	-0.00418525	0.000549397	0.00014848	0	0	0	
0.0961667	-0.0116398	0.00146366	0.000591377	0.000132838	0	0	0	
0.0963333	-0.00512963	-0.00135246	0.000392456	9.77862E-05	0	0	0	
0.0965	0.00260652	0.00196022	0.000310477	8.24938E-05	0	0	0	
0.0966667	0.0103052	-0.000451187	0.000458868	7.64464E-05	0	0	0	
0.0968333	-0.0178742	-0.000956163	0.000677158	6.97023E-05	0	0	0	
0.097	0.0175819	0.000979842	0.000741048	6.72925E-05	0	0	0	
0.0971667	-0.0150897	0.000660734	0.000629208	8.7798E-05	0	0	0	
0.0973333	0.00923151	-0.00379715	0.000491711	0.000119105	0	0	0	
0.0975	-0.0124804	0.00378793	0.000470904	0.000131251	0	0	0	
0.0976667	0.0353278	-0.00147742	0.000656252	0.000117731	0	0	0	
0.0978333	-0.0491223	0.00254971	0.000874312	9.78597E-05	0	0	0	
0.098	0.0252783	-0.00182437	0.000899812	7.8944E-05	0	0	0	
0.0981667	0.00627359	-0.00247709	0.000676161	5.95757E-05	0	0	0	
0.0983333	-0.00834951	0.00217595	0.00041836	5.65961E-05	0	0	0	
0.0985	-0.00557132	0.000345588	0.000443422	7.94617E-05	0	0	0	
0.0986667	0.0123931	0.000868936	0.000628841	0.000102714	0	0	0	
0.0988333	-0.0240199	-0.000281499	0.000918979	0.000117645	0	0	0	
0.099	0.0398796	-0.00371906	0.00106058	0.000133417	0	0	0	
0.0991667	-0.0354186	0.00398437	0.00103452	0.00014035	0	0	0	
0.0993333	0.0138417	-0.00206916	0.000813219	0.000119223	0	0	0	
0.0995	-0.00554401	0.00239427	0.000520797	7.82557E-05	0	0	0	
0.0996667	0.00776533	-0.000679411	0.000407311	5.19189E-05	0	0	0	
0.0998333	-0.00758889	-0.00194826	0.000422435	3.79525E-05	0	0	0	
0.1	0.00454508	0.00147023	0.000487127	4.56739E-05	0	0	0	
0.100167	-0.010315	-0.000851814	0.000535207	6.79392E-05	0	0	0	
0.100333	0.0173546	0.000592803	0.000608264	9.8852E-05	0	0	0	
0.1005	-0.0170566	0.00176279	0.000649056	0.000128639	0	0	0	
0.100667	0.0103418	-0.00409211	0.000597735	0.0001453	0	0	0	
0.100833	-0.0082691	0.00238604	0.000517434	0.000134486	0	0	0	
0.101	0.00912613	1.62346E-05	0.000499468	9.25707E-05	0	0	0	
0.101167	-0.00916788	-0.000221394	0.000531433	6.17511E-05	0	0	0	
0.101333	0.00984675	0.00066829	0.000574432	5.71126E-05	0	0	0	
0.1015	-0.0106338	-0.00179433	0.000592369	6.90686E-05	0	0	0	
0.101667	0.00808132	-8.47927E-06	0.000580359	9.06367E-05	0	0	0	
0.101833	-0.00648112	0.00314445	0.000563783	0.000114504	0	0	0	
0.102	0.0118052	-0.00199393	0.000582557	0.000114617	0	0	0	
0.102167	-0.0184117	-0.0010698	0.000615247	8.52879E-05	0	0	0	
0.102333	0.0154108	0.000143712	0.000596202	6.6257E-05	0	0	0	
0.1025	-0.00342272	0.000686362	0.000489682	7.22398E-05	0	0	0	
0.102667	-0.00517753	0.0011784	0.000389354	7.86595E-05	0	0	0	
0.102833	0.00696301	-0.00216589	0.000402062	8.0193E-05	0	0	0	
0.103	-0.00281587	-4.73079E-05	0.000538027	9.98137E-05	0	0	0	
0.103167	-0.0152772	0.00328472	0.000774728	0.00014122	0	0	0	
0.103333	0.0469814	-0.00707121	0.0010163	0.000166756	0	0	0	
0.1035	-0.0619914	0.00694169	0.00115006	0.000157658	0	0	0	
0.103667	0.0275501	-0.000543271	0.00107342	0.00013072	0	0	0	
0.103833	0.0307798	-0.00458693	0.000986469	0.000106138	0	0	0	
0.104	-0.0487213	0.00468575	0.000822119	9.2441E-05	0	0	0	
0.104167	0.0096267	-0.00545648	0.000997414	9.66495E-05	0	0	0	
0.104333	0.0222419	0.00461644	0.00111871	0.000124412	0	0	0	
0.1045	-0.0190718	0.00503105	0.00117517	0.000205494	0	0	0	
0.104667	0.0229796	-0.0121411	0.00102493	0.00025985	0	0	0	
0.104833	-0.0416547	0.00503791	0.000904275	0.000250607	0	0	0	
0.105	0.0246306	0.00236552	0.000827452	0.00016934	0	0	0	
0.105167	0.0131253	0.000322721	0.000655761	0.000106963	0	0	0	
0.105333	-0.00560212	-0.00139008	0.00047408	8.09766E-05	0	0	0	
0.1055	-0.0241155	-0.00188183	0.000578909	6.29317E-05	0	0	0	
0.105667	0.0139388	-0.00167328	0.000596288	7.44704E-05	0	0	0	
0.105833	0.0132199	0.00360155	0.000491173	8.88482E-05	0	0	0	
0.106	-0.00828569	0.00108544	0.000349439	8.93994E-05	0	0	0	
0.106167	-0.00879275	-0.00387991	0.000510868	6.33233E-05	0	0	0	
0.106333	0.0209188	0.0015329	0.000735325	6.82218E-05	0	0	0	
0.1065	-0.023108	-0.000414045	0.000780553	0.000104567	0	0	0	
0.106667	0.0116283	-0.00179386	0.000618664	0.000144105	0	0	0	
0.106833	0.00141399	0.00460916	0.000441143	0.00015821	0	0	0	
0.107	0.00299165	-0.00354103	0.000400799	0.000141517	0	0	0	
0.107167	-0.00953375	0.000328901	0.00046347	9.82736E-05	0	0	0	
0.107333	0.00675919	0.00174653	0.000525969	4.77783E-05	0	0	0	
0.1075	-0.00643123	-0.00342268	0.000508156	3.64811E-05	0	0	0	
0.107667	0.014274	0.0029088	0.000516383	6.25228E-05	0	0	0	
0.107833	-0.0180038	0.00149451	0.000570173	0.000117056	0	0	0	
0.108	0.00995161	-0.00373511	0.00055913	0.000142379	0	0	0	
0.108167	-0.000510978	0.00110506	0.000446838	0.000126816	0	0	0	
0.108333	-0.00297474	-0.000488	0.0003645	8.83627E-05	0	0	0	
0.1085	0.0127285	0.00307931	0.000370569	8.11346E-05	0	0	0	
0.108667	-0.0172963	-0.00434602	0.000503818	9.56977E-05	0	0	0	
0.108833	-0.00848141	0.00268509	0.00080459	9.69614E-05	0	0	0	
0.109	0.0411242	0.00129188	0.00112369	6.71096E-05	0	0	0	
0.109167	-0.0366672	-0.0034674	0.00117695	4.5833E-05	0	0	0	
0.109333	0.00500406	0.00368974	0.000870238	6.06858E-05	0	0	0	
0.1095	0.00910732	-0.00245068	0.000462562	0.000103609	0	0	0	
0.109667	-0.00391865	-0.00134739	0.000357191	0.00015812	0	0	0	
0.109833	-0.000507626	0.0068509	0.00044226	0.000201603	0	0	0	
0.11	0.00385301	-0.00774331	0.000601521	0.000208986	0	0	0	
0.110167	-0.00916924	0.00356481	0.000631496	0.000171679	0	0	0	
0.110333	0.00117044	0.00123336	0.000563002	0.000114646	0	0	0	
0.1105	0.0119191	-0.00377875	0.000463795	7.0775E-05	0	0	0	
0.110667	-0.00806547	0.00429693	0.000501379	7.00794E-05	0	0	0	
0.110833	-0.0187906	-0.00185812	0.000772678	9.34763E-05	0	0	0	
0.111	0.0376541	-0.00101341	0.00102926	0.000129874	0	0	0	
0.111167	-0.0275438	0.00169253	0.00099857	0.000136432	0	0	0	
0.111333	-0.0011351	-0.00266705	0.000669831	0.000126257	0	0	0	
0.1115	0.0199339	0.00353909	0.000362469	0.000108939	0	0	0	
0.111667	-0.0198596	-0.000613257	0.000330343	8.46461E-05	0	0	0	
0.111833	0.000440893	-0.00124505	0.000603766	5.36164E-05	0	0	0	
0.112	0.0248744	5.87421E-05	0.000954509	4.27398E-05	0	0	0	
0.112167	-0.0359263	-8.67837E-05	0.00110726	4.95125E-05	0	0	0	
0.112333	0.0255629	0.00063214	0.000976548	6.75154E-05	0	0	0	
0.1125	-0.00540477	0.00145234	0.000667516	8.91705E-05	0	0	0	
0.112667	-0.00459507	-0.00205632	0.000410596	0.00010694	0	0	0	
0.112833	-0.00321848	8.90315E-05	0.000391934	0.00010317	0	0	0	
0.113	0.0120823	0.000230324	0.000509079	8.38707E-05	0	0	0	
0.113167	-0.00659713	0.00120946	0.000577344	7.93159E-05	0	0	0	
0.113333	-0.00334258	-0.000901057	0.000513862	8.38398E-05	0	0	0	
0.1135	-0.000991255	-0.000189558	0.000534949	8.05933E-05	0	0	0	
0.113667	0.0134187	4.04274E-05	0.00067295	7.44337E-05	0	0	0	
0.113833	-0.0174311	-0.000481135	0.000761993	7.43752E-05	0	0	0	
0.114	0.0127927	0.0011614	0.000686577	7.79338E-05	0	0	0	
0.114167	-0.0100296	-0.000207303	0.000555425	8.53151E-05	0	0	0	
0.114333	0.0124921	-0.000913259	0.000507944	9.75648E-05	0	0	0	
0.1145	-0.012846	0.00106613	0.000513046	0.000101048	0	0	0	
0.114667	0.0059899	-0.00117128	0.000484315	9.11113E-05	0	0	0	
0.114833	-0.0022193	0.00101173	0.000424926	7.65044E-05	0	0	0	
0.115	0.00642943	7.20745E-05	0.000424466	6.37468E-05	0	0	0	
0.115167	-0.0122772	-0.001044	0.000483115	5.74546E-05	0	0	0	
0.115333	0.00933273	0.000662958	0.000540082	6.46151E-05	0	0	0	
0.1155	-0.00743229	-0.000247897	0.000551233	8.16253E-05	0	0	0	
0.115667	0.0108003	-9.61759E-05	0.000552648	9.14838E-05	0	0	0	
0.115833	-0.0131154	0.000905313	0.000538648	8.83885E-05	0	0	0	
0.116	0.00826594	-0.00121788	0.000499288	8.00173E-05	0	0	0	
0.116167	-0.000885832	0.000562376	0.000447904	7.45113E-05	0	0	0	
0.116333	-0.00349589	-0.000145515	0.00045907	7.30781E-05	0	0	0	
0.1165	-0.00349572	-0.000451254	0.000545933	7.42592E-05	0	0	0	
0.116667	0.0150897	0.00144913	0.000640211	7.88554E-05	0	0	0	
0.116833	-0.0144417	0.000514966	0.00063964	8.74666E-05	0	0	0	
0.117	0.00158953	-0.00181254	0.000540946	9.95056E-05	0	0	0	
0.117167	-0.00261306	0.00163394	0.000520495	0.00010273	0	0	0	
0.117333	0.0203157	-0.000817042	0.000652161	8.77912E-05	0	0	0	
0.1175	-0.0250498	-0.000274455	0.000713875	6.46911E-05	0	0	0	
0.117667	0.0028706	0.000714405	0.000590358	6.05079E-05	0	0	0	
0.117833	0.0151454	0.00190822	0.000338018	8.06536E-05	0	0	0	
0.118	-0.000516297	-0.00348526	0.000476771	9.86986E-05	0	0	0	
0.118167	-0.0318055	0.000738307	0.000839235	8.28262E-05	0	0	0	
0.118333	0.0455995	0.00547958	0.00112477	6.74104E-05	0	0	0	
0.1185	-0.0410591	-0.00929124	0.00105346	7.9502E-05	0	0	0	
0.118667	0.0202359	0.00541239	0.000802365	0.00013477	0	0	0	
0.118833	-0.00890882	0.00324202	0.000616365	0.000209173	0	0	0	
0.119	0.033688	-0.0077703	0.000739336	0.000235201	0	0	0	
0.119167	-0.0726546	0.00545917	0.00100093	0.000211363	0	0	0	
0.119333	0.0590277	-0.00541036	0.00122391	0.000146797	0	0	0	
0.1195	-0.00945855	0.00251848	0.00113418	0.000103564	0	0	0	
0.119667	-0.019465	0.00853329	0.000943639	0.000144851	0	0	0	
0.119833	-0.00220061	-0.0172446	0.00140107	0.000208114	0	0	0	
0.12	0.104796	0.018544	0.00224005	0.000283546	0	0	0	
0.120167	-0.168311	-0.0141238	0.00270182	0.000355553	0	0	0	
0.120333	-0.0460888	0.019161	0.00329703	0.000494115	0	0	0	
0.1205	0.241476	0.0139124	0.00298265	0.000472395	0	0	0	
0.120667	0.0637959	-0.00814078	0.00487543	0.000496011	0	0	0	
0.120833	-0.445635	-0.00363438	0.00623284	0.000424375	0	0	0	
0.121	0.20109	0.0173525	0.00768456	0.000484587	0	0	0	
0.121167	0.275788	-0.0323526	0.00873524	0.000489268	0	0	0	
0.121333	-0.250445	0.0441149	0.00734277	0.000541804	0	0	0	
0.1215	-0.0209685	0.00421671	0.00725742	0.000592159	0	0	0	
0.121667	0.0453917	-0.0414318	0.00460264	0.000592247	0	0	0	
0.121833	-0.0374929	0.0197862	0.00388342	0.000540646	0	0	0	
0.122	0.250685	-0.0102254	0.00349842	0.000482327	0	0	0	
0.122167	-0.322318	-0.00192389	0.00414776	0.00042331	0	0	0	
0.122333	-0.0149142	0.0149408	0.00588301	0.000378275	0	0	0	
0.1225	0.346071	-0.0168456	0.00642969	0.000334052	0	0	0	
0.122667	-0.222188	0.0091443	0.00653511	0.000316363	0	0	0	
0.122833	-0.143246	-0.00697876	0.00702506	0.000276474	0	0	0	
0.123	0.257655	0.00345351	0.00623832	0.000262177	0	0	0	
0.123167	-0.0655479	-0.0014266	0.00565925	0.000232832	0	0	0	
0.123333	-0.125405	-0.00262168	0.00396891	0.000241337	0	0	0	
0.1235	0.119924	-0.000291568	0.00309828	0.000358328	0	0	0	
0.123667	0.00427201	-0.0259798	0.00285762	0.000500695	0	0	0	
0.123833	-0.0572257	0.0294417	0.00219272	0.000586242	0	0	0	
0.124	-0.0197307	-0.0121198	0.00176082	0.000565853	0	0	0	
0.124167	0.0783012	-0.00888256	0.00107791	0.00053295	0	0	0	
0.124333	-0.0213218	0.0174998	0.00120666	0.000487605	0	0	0	
0.1245	-0.0811295	-0.0330161	0.00184338	0.000467612	0	0	0	
0.124667	0.0950871	0.023301	0.00210429	0.000542593	0	0	0	
0.124833	-0.00678515	0.0111714	0.001982	0.000710303	0	0	0	
0.125	-0.0619178	-0.0319562	0.00162139	0.00080048	0	0	0	
0.125167	0.026968	0.0237993	0.00131017	0.000696865	0	0	0	
0.125333	0.0274811	-0.00443025	0.00127452	0.000529066	0	0	0	
0.1255	-0.0228892	-0.00661381	0.000986196	0.00037355	0	0	0	
0.125667	-0.0141097	0.00669028	0.00091356	0.000250956	0	0	0	
0.125833	0.00241001	-0.00344764	0.000844394	0.000179677	0	0	0	
0.126	0.0697633	0.000639559	0.0012228	0.000122478	0	0	0	
0.126167	-0.122348	-0.0053167	0.00168908	0.000104702	0	0	0	
0.126333	0.0467059	0.012645	0.00182044	0.000106428	0	0	0	
0.1265	0.205098	-0.0157425	0.0027439	0.000166765	0	0	0	
0.126667	-0.474323	0.00934592	0.00408793	0.000287645	0	0	0	
0.126833	0.249664	0.0061632	0.00662403	0.000424083	0	0	0	
0.127	0.287757	-0.0194105	0.00960771	0.000496306	0	0	0	
0.127167	-0.474893	0.0178716	0.0104847	0.000458089	0	0	0	
0.127333	0.212645	-0.0043386	0.00963134	0.00036645	0	0	0	
0.1275	0.0462434	-0.00745128	0.00736316	0.000320169	0	0	0	
0.127667	-0.184001	0.0165395	0.00600884	0.000313957	0	0	0	
0.127833	0.319642	-0.0196398	0.0056784	0.000315757	0	0	0	
0.128	-0.334333	0.0156093	0.00528313	0.00033217	0	0	0	
0.128167	0.0566604	-0.00292137	0.00635996	0.000393652	0	0	0	
0.128333	0.270051	-0.00774977	0.0074824	0.000440052	0	0	0	
0.1285	-0.243808	0.010836	0.00713512	0.000407165	0	0	0	
0.128667	-0.0357541	-0.00745818	0.00620381	0.000314673	0	0	0	
0.128833	0.149306	0.00715046	0.003858	0.000208087	0	0	0	
0.129	0.00110469	-0.00395742	0.00354669	0.000140568	0	0	0	
0.129167	-0.129453	0.000390408	0.00313609	0.000109614	0	0	0	
0.129333	0.0689012	0.00560054	0.00294446	8.94646E-05	0	0	0	
0.1295	0.0431722	-0.00480982	0.0023578	9.09663E-05	0	0	0	
0.129667	-0.0659042	0.00357858	0.00146853	0.000112406	0	0	0	
0.129833	0.0225205	-0.000324181	0.00138047	0.000143702	0	0	0	
0.13	0.00897416	-8.2971E-05	0.00113788	0.000160393	0	0	0	
0.130167	-0.0209245	-0.000108167	0.00104548	0.000142783	0	0	0	
0.130333	0.0207385	-0.000382503	0.000758434	0.00012964	0	0	0	
0.1305	0.0363463	0.0050465	0.000498167	0.000133176	0	0	0	
0.130667	-0.0429838	-0.00382703	0.000505464	0.000133923	0	0	0	
0.130833	-0.0172469	0.000331508	0.000959531	0.00010181	0	0	0	
0.131	0.0832387	0.00164095	0.00125517	6.22625E-05	0	0	0	
0.131167	0.0215195	0.000697647	0.00158033	5.67565E-05	0	0	0	
0.131333	-0.0588212	0.00293633	0.00157699	7.31464E-05	0	0	0	
0.1315	0.0533555	-0.00129024	0.00205394	8.74473E-05	0	0	0	
0.131667	0.129381	0.000522916	0.00288056	0.000111939	0	0	0	
0.131833	-0.0778171	0.00504881	0.00295648	0.00014201	0	0	0	
0.132	-0.0336946	-0.00250003	0.00292222	0.000161622	0	0	0	
0.132167	0.136318	0.00513868	0.00208814	0.00013813	0	0	0	
0.132333	-0.0267929	-0.000591028	0.00188914	0.000121852	0	0	0	
0.1325	0.107721	-0.000565229	0.00226321	8.34235E-05	0	0	0	
0.132667	-0.350111	0.00627286	0.00446806	9.56103E-05	0	0	0	
0.132833	0.217596	-0.000213476	0.00705439	0.000133672	0	0	0	
0.133	0.150568	-0.00214154	0.00790923	0.000182002	0	0	0	
0.133167	-0.241176	-0.00073783	0.00640262	0.000157772	0	0	0	
0.133333	0.0681649	0.00140435	0.00489646	0.000120874	0	0	0	
0.1335	0.249502	0.00319923	0.0040858	0.000120051	0	0	0	
0.133667	-0.430639	0.00227495	0.00495831	0.000129879	0	0	0	
0.133833	0.308709	-0.00365496	0.0062627	0.000119206	0	0	0	
0.134	-0.011375	0.00401433	0.00580276	8.65896E-05	0	0	0	
0.134167	-0.0624513	-0.00403772	0.00489622	8.4663E-05	0	0	0	
0.134333	0.12637	0.00268851	0.00362625	8.78229E-05	0	0	0	
0.1345	-0.0968614	0.000514497	0.00352305	0.000100559	0	0	0	
0.134667	-0.0498937	0.00484249	0.00313258	9.27541E-05	0	0	0	
0.134833	0.0957452	-0.00240878	0.00198503	0.000112399	0	0	0	
0.135	-0.00650543	-0.0107672	0.00228904	0.000184232	0	0	0	
0.135167	0.00259728	0.0091086	0.0027224	0.000220297	0	0	0	
0.135333	-0.0237479	0.00333921	0.00302128	0.000231793	0	0	0	
0.1355	-0.0610084	-0.00260642	0.00252976	0.000145481	0	0	0	
0.135667	0.126216	-0.0014338	0.00192473	0.000139463	0	0	0	
0.135833	-0.0585025	-0.00523028	0.00177377	8.97049E-05	0	0	0	
0.136	-0.0597561	0.00374615	0.0017769	0.000119883	0	0	0	
0.136167	0.023264	0.00473351	0.00155598	0.000161984	0	0	0	
0.136333	0.103547	-0.00173609	0.0019328	0.000174323	0	0	0	
0.1365	-0.087542	-0.00480107	0.00194223	0.000135374	0	0	0	
0.136667	-0.0357005	0.00182418	0.00220916	9.56276E-05	0	0	0	
0.136833	0.0556399	0.000344143	0.00147232	0.000123698	0	0	0	
0.137	0.0270293	0.000284088	0.00179412	0.000148689	0	0	0	
0.137167	-0.0456946	0.00285225	0.00163027	0.000132106	0	0	0	
0.137333	-0.0126001	-0.000957276	0.00152288	8.73699E-05	0	0	0	
0.1375	0.0127347	-0.00414454	0.00081331	6.64559E-05	0	0	0	
0.137667	0.051771	0.00469629	0.000751016	5.99924E-05	0	0	0	
0.137833	-0.0367711	-0.00305265	0.00092204	0.000105655	0	0	0	
0.138	-0.0841883	0.00246683	0.00102479	0.000198462	0	0	0	
0.138167	0.0807375	0.00943133	0.00112602	0.000328885	0	0	0	
0.138333	0.0108582	-0.013083	0.00154772	0.000408198	0	0	0	
0.1385	-0.0661811	0.0133903	0.00171245	0.000388328	0	0	0	
0.138667	0.00770737	-0.0119097	0.00139854	0.000301479	0	0	0	
0.138833	0.0488321	0.00588089	0.000998194	0.000232888	0	0	0	
0.139	-0.0448179	0.0113832	0.000879996	0.00024586	0	0	0	
0.139167	-0.00388981	-0.0189291	0.000864434	0.000270651	0	0	0	
0.139333	-0.00368917	0.007357	0.000664517	0.000318661	0	0	0	
0.1395	0.0297659	-1.56534E-05	0.000509146	0.000296647	0	0	0	
0.139667	0.0173036	0.00448445	0.000599344	0.000228893	0	0	0	
0.139833	-0.0613536	-0.00016429	0.00086342	0.000174113	0	0	0	
0.14	-0.0233169	-0.0074354	0.00107644	0.000148932	0	0	0	
0.140167	0.136785	-0.00239155	0.00135455	0.00019709	0	0	0	
0.140333	0.00332827	0.00542995	0.00135913	0.000253604	0	0	0	
0.1405	-0.0561544	-0.00180233	0.00173059	0.000235105	0	0	0	
0.140667	0.0465888	-0.0131965	0.00135592	0.000267132	0	0	0	
0.140833	0.0092039	0.00859293	0.00123419	0.00021513	0	0	0	
0.141	-0.0172511	0.000883126	0.000667496	0.000222184	0	0	0	
0.141167	0.0312166	0.00383057	0.000635151	0.000122521	0	0	0	
0.141333	0.0230181	-0.0160082	0.000670548	0.00011566	0	0	0	
0.1415	-0.0106905	0.000966517	0.000830698	0.000156352	0	0	0	
0.141667	0.0117752	0.0179789	0.000790669	0.000212906	0	0	0	
0.141833	0.0109566	-0.018914	0.000573108	0.000276395	0	0	0	
0.142	-0.0344047	0.00904339	0.000459377	0.000363227	0	0	0	
0.142167	-0.0115096	-0.000565655	0.000728058	0.000449915	0	0	0	
0.142333	0.0321327	-0.00473277	0.000952503	0.000457411	0	0	0	
0.1425	0.00132532	0.00803008	0.000838362	0.000378513	0	0	0	
0.142667	-0.0141874	-0.00137639	0.00053071	0.000255283	0	0	0	
0.142833	-0.0358768	-0.00674397	0.000690407	0.000161861	0	0	0	
0.143	0.0350321	0.00936233	0.000858649	0.000116199	0	0	0	
0.143167	0.0446227	-0.0048974	0.00107245	0.000147279	0	0	0	
0.143333	-0.0721865	0.000416532	0.000945204	0.000177538	0	0	0	
0.1435	-0.0133678	0.00446131	0.00145714	0.000194902	0	0	0	
0.143667	0.0707884	-0.00460865	0.00177969	0.000167948	0	0	0	
0.143833	-0.0269185	-0.00326931	0.00171616	0.000130729	0	0	0	
0.144	-0.0202738	0.00989187	0.00112608	0.000103268	0	0	0	
0.144167	0.0012064	-0.00804421	0.000716497	0.000143146	0	0	0	
0.144333	0.0334813	-0.000986154	0.000807219	0.000226283	0	0	0	
0.1445	-0.0173523	0.00788325	0.000761299	0.000287388	0	0	0	
0.144667	-0.0297777	-0.00626011	0.000665448	0.000269218	0	0	0	
0.144833	0.0308355	0.00114161	0.000568901	0.000176845	0	0	0	
0.145	0.0181853	0.00128022	0.000984468	8.58136E-05	0	0	0	
0.145167	-0.0494458	-0.00102739	0.00124058	5.37553E-05	0	0	0	
0.145333	0.0251099	0.00108838	0.00121024	6.13967E-05	0	0	0	
0.1455	0.00880209	-0.00106211	0.000755398	7.8516E-05	0	0	0	
0.145667	-0.0174472	0.00126247	0.000421955	7.49343E-05	0	0	0	
0.145833	0.00352618	-0.00245485	0.000421037	6.52279E-05	0	0	0	
0.146	0.0133994	0.00270668	0.000776242	6.11375E-05	0	0	0	
0.146167	-0.020034	-0.0049727	0.00118448	9.52576E-05	0	0	0	
0.146333	0.0625116	0.0022308	0.00116718	0.000157803	0	0	0	
0.1465	-0.0270763	-0.000576814	0.00104854	0.000212675	0	0	0	
0.146667	-0.0140848	-0.00131406	0.000842496	0.000179091	0	0	0	
0.146833	0.0225308	-0.00217903	0.000739633	0.00013919	0	0	0	
0.147	-0.0122602	0.00783693	0.000587004	0.000122814	0	0	0	
0.147167	0.0304176	-0.0124782	0.000628271	0.000153571	0	0	0	
0.147333	0.0252066	0.00939429	0.000820009	0.000201564	0	0	0	
0.1475	-0.0627202	-0.00352459	0.00103825	0.000235562	0	0	0	
0.147667	0.046031	-0.00390115	0.00101785	0.000249987	0	0	0	
0.147833	0.00499014	0.00825406	0.00102914	0.000197868	0	0	0	
0.148	-0.0454312	-0.00368743	0.000783263	0.000153578	0	0	0	
0.148167	-0.0146309	-0.00500241	0.000956333	0.000152488	0	0	0	
0.148333	0.0900252	0.0111546	0.00128594	0.000165973	0	0	0	
0.1485	-0.0606581	-0.0101771	0.00152701	0.000185723	0	0	0	
0.148667	-0.0336267	0.00483381	0.0016204	0.000200298	0	0	0	
0.148833	0.0677649	0.00152719	0.00126972	0.000234702	0	0	0	
0.149	-0.00517547	-0.00458194	0.00142399	0.000226013	0	0	0	
0.149167	-0.0376336	0.00288903	0.00134444	0.000175377	0	0	0	
0.149333	0.018391	-0.00136017	0.00124774	0.000106298	0	0	0	
0.1495	0.00773585	0.00369632	0.000761995	6.71886E-05	0	0	0	
0.149667	-0.00930682	-0.00507692	0.000440526	6.2368E-05	0	0	0	
0.149833	0.0310451	0.00220205	0.000462905	8.20628E-05	0	0	0	
0.15	-0.0417287	0.00107033	0.000736817	8.74346E-05	0	0	0	
0.150167	-0.0296263	-0.00133843	0.00131053	7.39132E-05	0	0	0	
0.150333	0.140584	-0.000101212	0.00202008	5.43864E-05	0	0	0	
0.1505	-0.123057	-0.00145725	0.00241706	4.98895E-05	0	0	0	
0.150667	0.000258599	-0.00585071	0.00259876	9.9321E-05	0	0	0	
0.150833	0.0994768	0.0142186	0.00240565	0.000156422	0	0	0	
0.151	-0.0788468	-0.00952741	0.00218387	0.000209	0	0	0	
0.151167	0.0185215	-0.000429956	0.00202262	0.000206912	0	0	0	
0.151333	0.0482045	0.0013338	0.0021393	0.000143287	0	0	0	
0.1515	-0.0786245	-0.00146227	0.00246929	8.01133E-05	0	0	0	
0.151667	0.104659	0.00292205	0.00237011	3.54602E-05	0	0	0	
0.151833	-0.0659938	0.00158718	0.0020044	6.93119E-05	0	0	0	
0.152	-0.00586362	-0.00528032	0.00158862	0.000121532	0	0	0	
0.152167	0.0451954	0.00350011	0.00107327	0.000145759	0	0	0	
0.152333	-0.0279877	0.000324549	0.000962427	0.000114573	0	0	0	
0.1525	-0.00341925	-0.00216209	0.00100089	6.18306E-05	0	0	0	
0.152667	0.0145164	0.00468058	0.00121364	4.61287E-05	0	0	0	
0.152833	-0.0189363	-0.00557478	0.00115713	7.65682E-05	0	0	0	
0.153	0.0317858	0.00284481	0.000960418	0.000126611	0	0	0	
0.153167	-0.0202728	0.00121191	0.00078802	0.000168047	0	0	0	
0.153333	0.00252475	-0.00276176	0.000557857	0.000158404	0	0	0	
0.1535	0.00905754	-0.000584825	0.000357674	0.000104681	0	0	0	
0.153667	-0.01478	0.00388346	0.00029251	5.53709E-05	0	0	0	
0.153833	0.0188258	-0.00248856	0.000390846	6.08258E-05	0	0	0	
0.154	-0.0117848	0.000982338	0.000560464	9.28905E-05	0	0	0	
0.154167	-0.00244171	-0.00257021	0.000756646	0.000105131	0	0	0	
0.154333	0.0165726	0.00211328	0.000857144	0.000108853	0	0	0	
0.1545	-0.00735961	0.00188821	0.000767228	0.00013117	0	0	0	
0.154667	-0.00245405	-0.00285795	0.00051469	0.000142674	0	0	0	
0.154833	-0.00245887	0.000744859	0.000364592	0.000115642	0	0	0	
0.155	0.000565968	-0.000794088	0.000307986	7.40383E-05	0	0	0	
0.155167	0.0209507	0.00182476	0.000337594	5.29199E-05	0	0	0	
0.155333	-0.0153771	0.00438379	0.000449429	5.61298E-05	0	0	0	
0.1555	-0.00690256	-0.01242	0.000582195	8.80632E-05	0	0	0	
0.155667	-0.0102524	0.0072125	0.000541875	0.000156933	0	0	0	
0.155833	0.0435198	-0.000765967	0.00047431	0.000223362	0	0	0	
0.156	-0.0154981	0.00198854	0.000514151	0.000202035	0	0	0	
0.156167	-0.015211	-0.00368635	0.00078972	0.000138101	0	0	0	
0.156333	0.0055163	0.00236299	0.000737155	7.51501E-05	0	0	0	
0.1565	0.011196	-0.00780231	0.000542189	7.45555E-05	0	0	0	
0.156667	0.0198333	0.0108961	0.0003731	0.000111908	0	0	0	
0.156833	-0.0158116	-0.00517367	0.000407154	0.000168915	0	0	0	
0.157	0.00830651	-0.00432682	0.000445481	0.000228266	0	0	0	
0.157167	0.00472026	0.00546069	0.000323161	0.000209579	0	0	0	
0.157333	0.015698	-0.000434406	0.000464764	0.0001488	0	0	0	
0.1575	-0.0247521	-0.00464825	0.00068976	7.05658E-05	0	0	0	
0.157667	0.0190693	0.0056701	0.000794531	7.46938E-05	0	0	0	
0.157833	0.00151025	-0.00204102	0.000562102	0.000137832	0	0	0	
0.158	0.00367069	-0.00133543	0.000326371	0.000218724	0	0	0	
0.158167	0.00348403	0.00212349	0.000336579	0.000252037	0	0	0	
0.158333	0.00820026	-0.00304637	0.000573022	0.000238685	0	0	0	
0.1585	-0.0396209	0.00226926	0.00104701	0.000179342	0	0	0	
0.158667	0.126823	0.00467907	0.0015147	0.000132577	0	0	0	
0.158833	-0.0706191	-0.0144565	0.00198168	0.000106556	0	0	0	
0.159	-0.0385571	0.0137893	0.00167038	0.000210442	0	0	0	
0.159167	0.0791313	0.00262561	0.00151876	0.000382752	0	0	0	
0.159333	-0.0430598	-0.0173196	0.00108956	0.000531416	0	0	0	
0.1595	-0.0141322	0.0193072	0.00133466	0.000526996	0	0	0	
0.159667	0.0946921	-0.00938627	0.00171046	0.000414224	0	0	0	
0.159833	-0.106473	-3.7188E-05	0.0022894	0.00026496	0	0	0	
0.16	-0.0106015	0.00296716	0.00201417	0.000193743	0	0	0	
0.160167	0.083149	0.00817707	0.00167612	0.000205543	0	0	0	
0.160333	-0.031462	-0.013181	0.00106388	0.000259767	0	0	0	
0.1605	-0.118165	0.00585165	0.00175448	0.000248328	0	0	0	
0.160667	0.260526	0.0151211	0.00240768	0.000317427	0	0	0	
0.160833	-0.152104	-0.0440076	0.0035249	0.000428514	0	0	0	
0.161	-0.0657204	0.0453729	0.00399025	0.000669991	0	0	0	
0.161167	0.0900906	-0.00762665	0.00320327	0.000917048	0	0	0	
0.161333	0.0333606	-0.0277683	0.00305026	0.00114276	0	0	0	
0.1615	-0.0961124	0.0402614	0.00267439	0.00113487	0	0	0	
0.161667	0.0429517	-0.0489509	0.00272648	0.000974305	0	0	0	
0.161833	-0.0138888	0.0242236	0.00220767	0.000851795	0	0	0	
0.162	0.204681	0.020412	0.00301127	0.000974581	0	0	0	
0.162167	-0.400908	-0.044653	0.00456177	0.000999197	0	0	0	
0.162333	0.263039	0.0326677	0.00591751	0.000923466	0	0	0	
0.1625	0.0538454	-0.0108944	0.00630582	0.000729003	0	0	0	
0.162667	-0.212593	-0.00322874	0.00576832	0.00060899	0	0	0	
0.162833	0.185221	0.0114121	0.00476365	0.000536652	0	0	0	
0.163	-0.0666462	-0.018066	0.00361689	0.000461673	0	0	0	
0.163167	-0.110258	0.0170458	0.00350902	0.000410246	0	0	0	
0.163333	0.286508	-0.000994372	0.00510478	0.000329709	0	0	0	
0.1635	-0.332939	-0.00102191	0.00677939	0.000227745	0	0	0	
0.163667	0.250396	0.000214711	0.00713701	0.000119932	0	0	0	
0.163833	0.0476472	-0.00316536	0.00655014	9.36905E-05	0	0	0	
0.164	-0.183633	0.00397715	0.00482674	9.58196E-05	0	0	0	
0.164167	0.00171529	-0.00428218	0.0044339	0.000124161	0	0	0	
0.164333	0.24592	0.00293682	0.00386076	9.07461E-05	0	0	0	
0.1645	-0.0429697	-0.0115478	0.00371421	0.000122688	0	0	0	
0.164667	-0.153109	-0.00239422	0.00334319	0.00017692	0	0	0	
0.164833	0.154182	0.0128276	0.00278396	0.000255699	0	0	0	
0.165	0.0242427	-0.0218415	0.00324723	0.000295026	0	0	0	
0.165167	-0.042707	0.016251	0.0030745	0.000322348	0	0	0	
0.165333	0.0735203	-0.0137272	0.00244085	0.000341633	0	0	0	
0.1655	-0.065718	0.00212042	0.00178165	0.000348712	0	0	0	
0.165667	0.00710789	0.0124525	0.00184041	0.000292904	0	0	0	
0.165833	-0.0297536	-0.0144191	0.00194265	0.000262829	0	0	0	
0.166	0.032258	0.00731297	0.00155756	0.000241585	0	0	0	
0.166167	-0.010338	0.00469466	0.00108347	0.000314458	0	0	0	
0.166333	-0.0457098	-0.0146519	0.0010453	0.000356408	0	0	0	
0.1665	0.0590156	0.0185176	0.00101904	0.000356486	0	0	0	
0.166667	-0.0485498	0.000750523	0.00130321	0.000329242	0	0	0	
0.166833	-0.0358262	-0.0193138	0.00145293	0.000308669	0	0	0	
0.167	0.0667121	0.0156955	0.0015927	0.000325881	0	0	0	
0.167167	-0.0252769	0.00763707	0.00122364	0.000421375	0	0	0	
0.167333	0.0437144	-0.0243565	0.000932258	0.000442078	0	0	0	
0.1675	-0.0159707	0.0163679	0.000763911	0.000462031	0	0	0	
0.167667	-0.0643965	-0.00711347	0.00107926	0.000387082	0	0	0	
0.167833	0.0916176	-0.00210076	0.00127439	0.000300444	0	0	0	
0.168	0.0997444	0.013816	0.00237432	0.000219713	0	0	0	
0.168167	-0.195381	-0.0171271	0.00314365	0.000195214	0	0	0	
0.168333	0.0985614	-0.00463932	0.00372136	0.000353896	0	0	0	
0.1685	0.109188	0.0139613	0.00385708	0.000456006	0	0	0	
0.168667	-0.100242	-0.00086524	0.00306644	0.000396765	0	0	0	
0.168833	-0.0305209	-0.00933731	0.00292395	0.000245213	0	0	0	
0.169	0.0830893	-0.0154791	0.00188474	0.0002931	0	0	0	
0.169167	-0.0315298	0.031024	0.00173569	0.000407806	0	0	0	
0.169333	-0.0903748	-0.0140908	0.0013102	0.000588552	0	0	0	
0.1695	0.308984	-0.0139422	0.00281851	0.000833497	0	0	0	
0.169667	-0.430224	0.0263579	0.00494705	0.00107457	0	0	0	
0.169833	0.158797	-0.0286301	0.00631652	0.00112527	0	0	0	
0.17	0.270796	0.0312738	0.00821344	0.000828353	0	0	0	
0.170167	-0.439726	-0.013862	0.0086366	0.000664114	0	0	0	
0.170333	0.160461	-0.0249008	0.00856372	0.000696874	0	0	0	
0.1705	0.194366	0.0453152	0.00787047	0.000748376	0	0	0	
0.170667	-0.24048	-0.0338322	0.0074946	0.000836519	0	0	0	
0.170833	0.172012	0.0162034	0.00725126	0.000790827	0	0	0	
0.171	-0.202648	-0.0139341	0.00494541	0.000776078	0	0	0	
0.171167	0.160373	-0.0100483	0.00445014	0.000606281	0	0	0	
0.171333	0.139494	0.0224732	0.00565994	0.000483059	0	0	0	
0.1715	-0.201429	-0.0168977	0.00609976	0.000423424	0	0	0	
0.171667	-0.0451419	0.00821171	0.00551785	0.000358057	0	0	0	
0.171833	0.17117	-0.00356764	0.00393863	0.000245164	0	0	0	
0.172	-0.0364025	0.00237879	0.0034873	0.000142662	0	0	0	
0.172167	-0.0670964	0.0029526	0.00279829	0.000125041	0	0	0	
0.172333	-0.00357314	-0.00772463	0.00188717	0.000177518	0	0	0	
0.1725	0.0682707	0.00781352	0.00123069	0.000224026	0	0	0	
0.172667	0.00219323	-0.00338778	0.00119841	0.000188673	0	0	0	
0.172833	-0.0895257	0.00266205	0.00176291	0.000122465	0	0	0	
0.173	0.0551209	-0.000907089	0.00199663	7.55365E-05	0	0	0	
0.173167	0.0461459	-0.00360127	0.00178145	8.3245E-05	0	0	0	
0.173333	-0.0768295	0.00931516	0.00134478	9.78307E-05	0	0	0	
0.1735	0.034864	-0.00654123	0.00146677	0.000142107	0	0	0	
0.173667	-0.00698355	-0.00497514	0.00134973	0.000211884	0	0	0	
0.173833	0.0363163	0.0142167	0.00125416	0.00027756	0	0	0	
0.174	-0.0111109	-0.0114616	0.00128015	0.000304715	0	0	0	
0.174167	-0.0898818	0.00791919	0.00172075	0.000267039	0	0	0	
0.174333	0.112195	-0.0118302	0.00199918	0.000244785	0	0	0	
0.1745	0.0122778	0.011145	0.00237895	0.000218469	0	0	0	
0.174667	-0.126469	0.000220624	0.00225126	0.000203619	0	0	0	
0.174833	0.0702645	-0.00480846	0.00232172	0.000138655	0	0	0	
0.175	0.0511336	-0.0057188	0.00225062	0.000201607	0	0	0	
0.175167	-0.0864447	0.00862948	0.00200532	0.000268544	0	0	0	
0.175333	0.0528039	0.00406758	0.00176345	0.000300157	0	0	0	
0.1755	-0.0338957	-0.0054453	0.0013188	0.000217807	0	0	0	
0.175667	-0.00819492	0.00289702	0.000976907	0.000185029	0	0	0	
0.175833	-0.0137026	0.00161401	0.000641479	0.000220873	0	0	0	
0.176	0.0246211	-0.0032071	0.000411669	0.000259767	0	0	0	
0.176167	-0.0515512	0.00628721	0.000541896	0.000283268	0	0	0	
0.176333	0.106617	-0.00902911	0.00108985	0.000296347	0	0	0	
0.1765	-0.103486	0.0110456	0.00154673	0.000261421	0	0	0	
0.176667	-0.0519186	-0.00184932	0.00207829	0.000222373	0	0	0	
0.176833	0.0875379	-0.0122813	0.00201436	0.00024011	0	0	0	
0.177	0.0566225	0.0146884	0.00240324	0.000259372	0	0	0	
0.177167	-0.162859	0.00731901	0.00252769	0.000379237	0	0	0	
0.177333	0.0946567	-0.0208695	0.00281425	0.000431682	0	0	0	
0.1775	0.0157127	0.00457025	0.00261762	0.000435448	0	0	0	
0.177667	-0.0450629	0.0166064	0.00203108	0.000392916	0	0	0	
0.177833	0.0624458	-0.0321099	0.00154526	0.000392571	0	0	0	
0.178	-0.0326581	0.032034	0.000993415	0.000503721	0	0	0	
0.178167	-0.0164603	-0.0288467	0.0012849	0.000554572	0	0	0	
0.178333	0.0585161	0.0157693	0.0015216	0.000627552	0	0	0	
0.1785	-0.0423597	0.00897968	0.0015313	0.000748822	0	0	0	
0.178667	0.00768635	-0.0244192	0.0011386	0.00073499	0	0	0	
0.178833	0.024652	0.0153678	0.000689294	0.000634324	0	0	0	
0.179	-0.0164255	0.000963167	0.000567651	0.000526001	0	0	0	
0.179167	0.00934142	-0.00504591	0.000472001	0.000463595	0	0	0	
0.179333	0.02646	0.00379428	0.000495729	0.000391618	0	0	0	
0.1795	-0.0467729	-0.00995784	0.000571701	0.000243195	0	0	0	
0.179667	0.010277	0.0156091	0.000594726	0.00018681	0	0	0	
0.179833	0.0745081	-0.0185294	0.000810228	0.000239823	0	0	0	
0.18	-0.102534	0.015017	0.00111591	0.000327357	0	0	0	
0.180167	0.00256808	-0.00672142	0.00177092	0.000403953	0	0	0	
0.180333	0.1096	0.000687931	0.00235607	0.000441459	0	0	0	
0.1805	-0.0861416	0.00482657	0.00243578	0.000478131	0	0	0	
0.180667	-0.00261426	-0.0154597	0.0019452	0.000508892	0	0	0	
0.180833	0.0650278	0.0155888	0.0012388	0.00046832	0	0	0	
0.181	-0.0813711	-0.00322996	0.00103919	0.000363102	0	0	0	
0.181167	0.0900456	-0.00682804	0.00122172	0.000281725	0	0	0	
0.181333	-0.0392182	0.0113581	0.00171053	0.000245165	0	0	0	
0.1815	-0.0355423	-0.0235983	0.00258114	0.000278656	0	0	0	
0.181667	0.0842424	0.0337493	0.00292394	0.000373269	0	0	0	
0.181833	-0.0918536	-0.0177075	0.00284084	0.000467927	0	0	0	
0.182	-0.0361147	-0.00128141	0.00206509	0.000611458	0	0	0	
0.182167	0.0725108	0.0158751	0.00160904	0.000623606	0	0	0	
0.182333	-0.0758105	-0.0172269	0.00136307	0.000569826	0	0	0	
0.1825	0.0666622	0.00839876	0.00146557	0.000394884	0	0	0	
0.182667	-0.0318407	0.00286355	0.0019677	0.000268177	0	0	0	
0.182833	-0.096815	-0.0057661	0.0024029	0.000271542	0	0	0	
0.183	0.0614392	0.0176547	0.00240273	0.00027323	0	0	0	
0.183167	-0.00347226	-0.0125391	0.001737	0.000299328	0	0	0	
0.183333	-0.0485549	-0.000156732	0.00114951	0.000314166	0	0	0	
0.1835	0.0378878	0.00408065	0.000835034	0.000345697	0	0	0	
0.183667	-0.0124167	-0.000979748	0.00106061	0.000298463	0	0	0	
0.183833	-0.0171913	-0.00186143	0.00127897	0.000213678	0	0	0	
0.184	0.0277795	0.000586398	0.00130661	0.000172537	0	0	0	
0.184167	-0.0127869	0.0019813	0.001039	0.000175813	0	0	0	
0.184333	-0.0120853	-0.00481618	0.000766892	0.00018159	0	0	0	
0.1845	-0.00649355	0.00753848	0.00070732	0.000171345	0	0	0	
0.184667	0.0174895	-0.0058785	0.000890673	0.000149155	0	0	0	
0.184833	-0.0468765	-9.67981E-05	0.00112683	0.000131808	0	0	0	
0.185	0.0349511	0.0068908	0.00119931	0.000122854	0	0	0	
0.185167	0.00127289	-0.00898526	0.000871297	0.000133307	0	0	0	
0.185333	-0.0306512	0.00621932	0.000556667	0.000145013	0	0	0	
0.1855	0.0354806	-0.00152048	0.00045035	0.000151811	0	0	0	
0.185667	-0.0396018	0.000670677	0.000646124	0.000146169	0	0	0	
0.185833	0.0172629	-0.00173188	0.00105192	0.000129856	0	0	0	
0.186	0.0188344	0.00184531	0.00142071	0.000122375	0	0	0	
0.186167	-0.0298354	-0.000787952	0.00155275	0.000125294	0	0	0	
0.186333	0.00705559	0.000450512	0.00121278	0.000120315	0	0	0	
0.1865	-0.0189333	-0.000809784	0.000760979	0.000101031	0	0	0	
0.186667	0.0370217	-4.48878E-05	0.0006822	9.1651E-05	0	0	0	
0.186833	-0.0348376	0.00128592	0.000726036	9.5416E-05	0	0	0	
0.187	0.00474826	0.0014256	0.000741388	8.33128E-05	0	0	0	
0.187167	0.0291407	-0.00532419	0.000474411	6.96112E-05	0	0	0	
0.187333	-0.0206389	0.00558651	0.000540992	7.6927E-05	0	0	0	
0.1875	-0.0134739	-0.00395512	0.00072319	0.00012781	0	0	0	
0.187667	0.00697605	0.000920024	0.000848919	0.000182929	0	0	0	
0.187833	0.00913918	0.00389739	0.000708358	0.000222415	0	0	0	
0.188	0.00847193	-0.00607529	0.000671166	0.000222224	0	0	0	
0.188167	-0.0251883	0.00500051	0.000736852	0.000183184	0	0	0	
0.188333	0.00125928	-0.0012999	0.000667124	0.000119587	0	0	0	
0.1885	0.0117438	-0.00344492	0.000466991	7.28099E-05	0	0	0	
0.188667	0.0256211	0.0069348	0.000606033	6.44527E-05	0	0	0	
0.188833	-0.0329854	-0.00473213	0.000791975	9.96538E-05	0	0	0	
0.189	-0.0132847	-0.000952583	0.000869783	0.000149095	0	0	0	
0.189167	0.048293	0.00516628	0.000693584	0.000171678	0	0	0	
0.189333	-0.0292609	-0.00663954	0.000673474	0.000165073	0	0	0	
0.1895	0.0208073	0.00538294	0.000740657	0.000133359	0	0	0	
0.189667	-0.0120799	0.000232814	0.000770553	0.000105052	0	0	0	
0.189833	-0.0245298	-0.00303631	0.000971612	6.92195E-05	0	0	0	
0.19	0.0485099	0.000537178	0.00110144	8.31592E-05	0	0	0	
0.190167	-0.0156426	0.00148585	0.00105717	0.000111364	0	0	0	
0.190333	-0.0387274	-0.00147467	0.000902977	0.000154418	0	0	0	
0.1905	0.0345519	0.00450194	0.000755553	0.00017708	0	0	0	
0.190667	0.0206466	-0.00768876	0.00104601	0.000191629	0	0	0	
0.190833	-0.0564857	0.0057346	0.00110892	0.000185498	0	0	0	
0.191	0.0295242	0.000114716	0.00113733	0.000132393	0	0	0	
0.191167	0.00859064	-0.00486558	0.000706727	8.16754E-05	0	0	0	
0.191333	-0.0146327	0.00751647	0.00049196	7.3907E-05	0	0	0	
0.1915	0.0022011	-0.0079031	0.000552448	0.00011666	0	0	0	
0.191667	0.00866065	0.00425267	0.000836988	0.000181301	0	0	0	
0.191833	-0.0293022	0.00208712	0.000998288	0.000234877	0	0	0	
0.192	0.0485799	-0.00543378	0.00102067	0.000250253	0	0	0	
0.192167	-0.0298352	0.00500682	0.000907609	0.000209735	0	0	0	
0.192333	-0.0325736	-0.000246199	0.000921113	0.000137951	0	0	0	
0.1925	0.0760968	-0.00704073	0.00086258	0.000104538	0	0	0	
0.192667	-0.00989548	0.0099709	0.0013067	0.000111348	0	0	0	
0.192833	-0.0916743	-0.00321721	0.00187543	0.000180183	0	0	0	
0.193	0.0786117	-0.00642111	0.00211193	0.000265742	0	0	0	
0.193167	-0.00261583	0.00855673	0.0017961	0.000285507	0	0	0	
0.193333	-0.0331364	-0.00439761	0.00105925	0.000246212	0	0	0	
0.1935	0.0263975	0.000117604	0.000776666	0.000186179	0	0	0	
0.193667	-0.0120844	0.00275008	0.000551409	0.000173956	0	0	0	
0.193833	0.00710136	-0.00944857	0.000576152	0.000172806	0	0	0	
0.194	0.00900608	0.0129168	0.000639684	0.000167722	0	0	0	
0.194167	-0.00960531	-0.00471609	0.000733187	0.00021844	0	0	0	
0.194333	-0.00461101	-0.0116792	0.000613235	0.000284544	0	0	0	
0.1945	0.0446778	0.010629	0.000503318	0.000287198	0	0	0	
0.194667	-0.0308383	0.000530001	0.000535556	0.000243619	0	0	0	
0.194833	-0.00133908	-0.00500782	0.000797645	0.000166248	0	0	0	
0.195	0.0327278	0.00416941	0.00100909	0.000132916	0	0	0	
0.195167	-0.0478327	-0.0016788	0.00101049	9.06774E-05	0	0	0	
0.195333	-0.00266633	-0.000996028	0.000854908	8.14559E-05	0	0	0	
0.1955	0.0287921	0.00405442	0.000607665	7.45954E-05	0	0	0	
0.195667	-0.00954122	-0.00217183	0.000485955	7.56044E-05	0	0	0	
0.195833	-0.0337192	0.00205953	0.000560623	6.35536E-05	0	0	0	
0.196	0.00155411	-0.0011921	0.000561401	5.22318E-05	0	0	0	
0.196167	0.00599799	0.00204805	0.000448823	4.29807E-05	0	0	0	
0.196333	0.00660065	-0.000991454	0.000530111	4.12287E-05	0	0	0	
0.1965	-0.0361891	0.00402208	0.000688531	6.16768E-05	0	0	0	
0.196667	0.0250416	-0.00715877	0.000835363	0.000102094	0	0	0	
0.196833	0.0168691	0.00459436	0.000633105	0.000143304	0	0	0	
0.197	-0.0012165	-0.00404624	0.000531442	0.000160026	0	0	0	
0.197167	-0.00400199	0.0028087	0.000707979	0.00016506	0	0	0	
0.197333	-0.00121802	-0.000393921	0.000847569	0.000154039	0	0	0	
0.1975	-0.0110138	-0.00111614	0.000890091	0.000131002	0	0	0	
0.197667	0.0373606	0.000751052	0.00075069	0.000104704	0	0	0	
0.197833	-0.0285701	0.00108044	0.000716778	0.000104626	0	0	0	
0.198	0.0197655	-0.00124232	0.000606364	0.00011768	0	0	0	
0.198167	-0.0289766	-0.00203447	0.00062252	0.000118555	0	0	0	
0.198333	0.00124477	0.00314615	0.000475282	0.000116461	0	0	0	
0.1985	0.0296983	-0.00104235	0.000495741	0.000112022	0	0	0	
0.198667	-0.0258485	0.00322524	0.000505136	0.000100318	0	0	0	
0.198833	-0.0310334	-0.00396334	0.000960711	8.14948E-05	0	0	0	
0.199	0.0369181	0.00145556	0.00114328	9.00181E-05	0	0	0	
0.199167	0.00910266	-0.00330719	0.000998208	0.00010559	0	0	0	
0.199333	-0.0215136	0.00898864	0.000621605	0.00012474	0	0	0	
0.1995	-0.0392159	-0.00864396	0.000654155	0.000140768	0	0	0	
0.199667	0.0680954	0.00322099	0.000991528	0.000188785	0	0	0	
0.199833	-0.0427332	0.00126569	0.00120288	0.000222157	0	0	0	
0.2	-0.00320856	-0.0021354	0.00105635	0.000201523	0	0	0	
0.200167	0.0324839	-0.000982219	0.00104196	0.000133288	0	0	0	
0.200333	-0.0219704	0.0046239	0.00106737	7.61798E-05	0	0	0	
0.2005	0.00352399	-0.00602753	0.00105097	6.94691E-05	0	0	0	
0.200667	0.0244879	0.00650342	0.000991417	9.50752E-05	0	0	0	
0.200833	-0.0645694	-0.00580911	0.00117825	0.000122198	0	0	0	
0.201	0.0397938	0.00388648	0.00150034	0.000139583	0	0	0	
0.201167	0.0288609	-0.000653869	0.00130232	0.000160261	0	0	0	
0.201333	-0.0784851	-0.00456618	0.00120866	0.000196639	0	0	0	
0.2015	0.099518	0.00653412	0.0012606	0.000211732	0	0	0	
0.201667	-0.0487872	-0.00256656	0.00152439	0.00017352	0	0	0	
0.201833	-0.0369501	-0.00111536	0.0016097	0.000106408	0	0	0	
0.202	0.0573132	0.00183651	0.00150677	5.37609E-05	0	0	0	
0.202167	-0.0232625	-0.00205686	0.00132413	5.26386E-05	0	0	0	
0.202333	0.0125642	0.00148879	0.000832317	6.64996E-05	0	0	0	
0.2025	-0.00591223	0.000225732	0.000421109	0.000107107	0	0	0	
0.202667	-0.0343801	-0.000976496	0.00031696	0.000149425	0	0	0	
0.202833	0.0523242	0.0010621	0.000579756	0.000194999	0	0	0	
0.203	-0.0553515	-0.00633874	0.000841978	0.000235048	0	0	0	
0.203167	0.0643229	0.00922763	0.00105651	0.000244607	0	0	0	
0.203333	-0.0604886	-0.00511867	0.00112162	0.000213947	0	0	0	
0.2035	0.0238413	0.00261185	0.00115682	0.000142717	0	0	0	
0.203667	0.0430635	-0.000288279	0.00131939	8.32846E-05	0	0	0	
0.203833	-0.0891982	-0.00368611	0.00138039	4.75808E-05	0	0	0	
0.204	-0.0201134	0.00793944	0.00125373	6.35356E-05	0	0	0	
0.204167	0.128919	-0.00712245	0.00136499	0.000106818	0	0	0	
0.204333	-0.160046	-0.00210504	0.00181417	0.000211356	0	0	0	
0.2045	0.106266	0.0110692	0.0023459	0.000314764	0	0	0	
0.204667	-0.0199135	-0.0139217	0.00272186	0.000359322	0	0	0	
0.204833	-0.0607201	0.00762069	0.00302854	0.000306048	0	0	0	
0.205	0.0173326	-0.00152875	0.00321908	0.000197955	0	0	0	
0.205167	0.0943088	-0.00364473	0.00275595	0.000120365	0	0	0	
0.205333	-0.133368	0.00653766	0.00245487	9.65375E-05	0	0	0	
0.2055	0.114531	-0.00170226	0.00237242	0.00015791	0	0	0	
0.205667	-0.0838481	-0.00123635	0.00235037	0.000235904	0	0	0	
0.205833	0.0424223	0.00059239	0.00207929	0.000266815	0	0	0	
0.206	0.025665	-0.00450724	0.00215673	0.000222716	0	0	0	
0.206167	-0.123169	0.00210178	0.00260642	0.000132826	0	0	0	
0.206333	0.153777	0.0104746	0.00264097	0.00013904	0	0	0	
0.2065	-0.132146	-0.0135881	0.00301737	0.000156562	0	0	0	
0.206667	0.0502713	0.00234038	0.0031707	0.00025953	0	0	0	
0.206833	0.0279255	0.00259901	0.00300167	0.000281969	0	0	0	
0.207	-0.0407113	-0.00375608	0.0028123	0.000268211	0	0	0	
0.207167	-0.0205512	0.0100692	0.00265285	0.000213429	0	0	0	
0.207333	0.107083	-0.010564	0.00302831	0.000177277	0	0	0	
0.2075	-0.175843	0.000566263	0.00300207	0.000199829	0	0	0	
0.207667	0.154513	0.0093091	0.00320507	0.000220956	0	0	0	
0.207833	0.0191161	-0.016982	0.00294489	0.000251532	0	0	0	
0.208	-0.102796	0.0173723	0.00253672	0.000274635	0	0	0	
0.208167	0.0430574	0.00132045	0.00205453	0.000366641	0	0	0	
0.208333	0.00735615	-0.0222569	0.00178525	0.000461993	0	0	0	
0.2085	0.0217514	0.0218728	0.00182065	0.00049122	0	0	0	
0.208667	-0.0529709	-0.00932129	0.00166972	0.000430343	0	0	0	
0.208833	0.0429168	-0.00423761	0.00152916	0.00035414	0	0	0	
0.209	-0.0217326	0.0163754	0.00140688	0.000315096	0	0	0	
0.209167	-0.0270478	-0.0122215	0.00174174	0.000295781	0	0	0	
0.209333	0.0269063	-0.0084915	0.00189705	0.000384928	0	0	0	
0.2095	0.0334743	0.0217005	0.00165912	0.000439309	0	0	0	
0.209667	-0.0648252	-0.0131759	0.00119309	0.000437362	0	0	0	
0.209833	0.0174983	0.00120822	0.00116605	0.000323275	0	0	0	
0.21	-0.00575294	0.00990256	0.00128413	0.000282826	0	0	0	
0.210167	0.0408412	-0.0237951	0.00129453	0.000306412	0	0	0	
0.210333	-0.0507863	0.0139808	0.00140761	0.000354269	0	0	0	
0.2105	0.0507006	0.0108308	0.00134598	0.000448355	0	0	0	
0.210667	-0.0465291	-0.0149531	0.00127281	0.000439256	0	0	0	
0.210833	0.0395316	0.00973288	0.00111209	0.000384461	0	0	0	
0.211	-0.0469499	-0.00655363	0.0011543	0.00023413	0	0	0	
0.211167	0.0581411	-0.00198289	0.00121315	0.000179793	0	0	0	
0.211333	-0.0688301	0.00769637	0.00131219	0.000134357	0	0	0	
0.2115	0.0595982	0.000612282	0.00127378	0.000146354	0	0	0	
0.211667	-0.0321322	-0.00347348	0.00186582	0.000140773	0	0	0	
0.211833	-0.0729732	-0.00168005	0.00253278	0.00012377	0	0	0	
0.212	0.12989	-0.00185856	0.002688	0.000108478	0	0	0	
0.212167	-0.0911304	0.000295547	0.00254462	8.1515E-05	0	0	0	
0.212333	-0.0250266	0.00834309	0.00264298	9.56136E-05	0	0	0	
0.2125	0.120347	-0.00522534	0.00281693	0.000110445	0	0	0	
0.212667	-0.122694	-0.00286563	0.00270021	0.000181891	0	0	0	
0.212833	0.0134351	0.00137087	0.0023751	0.000189921	0	0	0	
0.213	0.109216	-0.00122455	0.00216347	0.000170659	0	0	0	
0.213167	-0.0986767	0.00584675	0.00218891	0.000134776	0	0	0	
0.213333	0.0708874	-1.70116E-05	0.00214424	0.000110956	0	0	0	
0.2135	-0.0620119	-0.00724443	0.00239657	9.47206E-05	0	0	0	
0.213667	0.0400679	0.00689077	0.00180851	9.34371E-05	0	0	0	
0.213833	0.0306791	-0.00590899	0.00192027	0.000150457	0	0	0	
0.214	-0.0594776	0.0018718	0.00170264	0.000211965	0	0	0	
0.214167	0.00386441	0.00544502	0.00192458	0.000257407	0	0	0	
0.214333	0.0117955	-0.00593779	0.00163322	0.000231999	0	0	0	
0.2145	0.0645604	-0.000234864	0.0014914	0.000170797	0	0	0	
0.214667	-0.0366257	0.00549467	0.00165658	9.38703E-05	0	0	0	
0.214833	-0.0775266	-0.00937308	0.00161546	9.39508E-05	0	0	0	
0.215	0.0975234	0.00837745	0.00168638	0.000132689	0	0	0	
0.215167	-0.00113946	0.00158394	0.00161105	0.000194822	0	0	0	
0.215333	-0.0871592	-0.00348093	0.00126058	0.000180725	0	0	0	
0.2155	0.11102	-0.005818	0.0014197	0.00015774	0	0	0	
0.215667	-0.0821087	0.0100026	0.00176619	0.000126509	0	0	0	
0.215833	0.00745822	-0.00360607	0.00247407	0.000240059	0	0	0	
0.216	0.0951711	-0.00518164	0.00260664	0.00034098	0	0	0	
0.216167	-0.160661	0.00749842	0.00247135	0.000371674	0	0	0	
0.216333	0.0957285	-0.00803232	0.00258643	0.000276899	0	0	0	
0.2165	0.04222	0.00442646	0.00210233	0.000189677	0	0	0	
0.216667	-0.10894	0.009741	0.00202247	0.000205406	0	0	0	
0.216833	0.0887676	-0.0209175	0.00187762	0.000245765	0	0	0	
0.217	0.00935803	0.0173904	0.0022298	0.000322313	0	0	0	
0.217167	-0.123524	-0.00685626	0.00215087	0.000353157	0	0	0	
0.217333	0.145829	-0.00657963	0.00222154	0.000401302	0	0	0	
0.2175	-0.0302836	0.0152377	0.00221304	0.000361192	0	0	0	
0.217667	-0.0579612	-0.00590465	0.00201358	0.00030752	0	0	0	
0.217833	0.126818	-0.00819558	0.00168517	0.000280783	0	0	0	
0.218	-0.15152	0.00651992	0.00207896	0.000224253	0	0	0	
0.218167	0.0866543	0.00182955	0.00257559	0.000211449	0	0	0	
0.218333	0.00397799	-0.00529793	0.00212136	0.000167047	0	0	0	
0.2185	-0.0346435	0.0126465	0.00121574	0.000234723	0	0	0	
0.218667	0.0343699	-0.0136994	0.000620714	0.000252537	0	0	0	
0.218833	-0.0538276	0.00179992	0.000794182	0.000262319	0	0	0	
0.219	0.0610534	0.00531086	0.000844675	0.000228382	0	0	0	
0.219167	-0.0476733	-0.00787354	0.00150613	0.00018357	0	0	0	
0.219333	0.0146765	0.0110588	0.0020822	0.000172419	0	0	0	
0.2195	-0.0298538	-0.000430147	0.00219056	0.00027633	0	0	0	
0.219667	0.0541309	-0.0240181	0.00159928	0.000507066	0	0	0	
0.219833	-0.0372125	0.0283399	0.000897548	0.000610678	0	0	0	
0.22	0.0773201	-0.0030861	0.0010837	0.000584902	0	0	0	
0.220167	-0.0709319	-0.0166101	0.00132398	0.00045872	0	0	0	
0.220333	0.0540361	0.0154769	0.00164508	0.000372561	0	0	0	
0.2205	-0.00339662	-0.00613913	0.00130079	0.000331313	0	0	0	
0.220667	-0.00631664	-0.00248983	0.000819409	0.000350918	0	0	0	
0.220833	-0.0485745	0.0190607	0.000393177	0.000468956	0	0	0	
0.221	0.126583	-0.0229679	0.000762557	0.000504754	0	0	0	
0.221167	-0.0673297	0.0033903	0.00153297	0.000448668	0	0	0	
0.221333	0.0305114	0.0136369	0.0021598	0.000374154	0	0	0	
0.2215	-0.0587795	-0.015096	0.00243823	0.000316706	0	0	0	
0.221667	0.137554	0.00657073	0.00212547	0.00034868	0	0	0	
0.221833	-0.2006	0.00899903	0.00249395	0.000392609	0	0	0	
0.222	0.138105	-0.0157268	0.0030365	0.000424814	0	0	0	
0.222167	0.00543813	0.00305443	0.00360215	0.000356449	0	0	0	
0.222333	-0.0939143	0.0169976	0.00304647	0.000325283	0	0	0	
0.2225	0.0722456	-0.0191999	0.00218869	0.000311823	0	0	0	
0.222667	-0.0231783	0.00453655	0.00175061	0.000392733	0	0	0	
0.222833	-0.0568978	0.00448366	0.00211371	0.000387882	0	0	0	
0.223	0.188167	-0.0136158	0.00298639	0.000401254	0	0	0	
0.223167	-0.21229	0.0272029	0.00366547	0.000381072	0	0	0	
0.223333	0.0868639	-0.0164813	0.00366498	0.000408077	0	0	0	
0.2235	0.0470059	-0.0180919	0.00304123	0.000564732	0	0	0	
0.223667	0.0625521	0.032498	0.00194493	0.000606922	0	0	0	
0.223833	-0.177235	-0.0226876	0.00190129	0.000620913	0	0	0	
0.224	0.152555	0.0143642	0.0022747	0.000516046	0	0	0	
0.224167	-0.0598149	0.00265549	0.00273444	0.000549774	0	0	0	
0.224333	-0.00488107	-0.0266264	0.00199222	0.000590721	0	0	0	
0.2245	0.0730887	0.022742	0.00136302	0.000580909	0	0	0	
0.224667	-0.122227	-0.00496667	0.00141683	0.000508344	0	0	0	
0.224833	0.0532252	-0.00657919	0.0018238	0.000419023	0	0	0	
0.225	-0.00418168	0.0138192	0.00263936	0.000389201	0	0	0	
0.225167	0.00540294	-0.023603	0.00328369	0.000380954	0	0	0	
0.225333	0.0266122	0.0167716	0.00386207	0.000391898	0	0	0	
0.2255	-0.136226	0.00478735	0.00334918	0.000501566	0	0	0	
0.225667	0.148584	-0.02146	0.00279922	0.000620132	0	0	0	
0.225833	-0.0367928	0.0377398	0.00300921	0.000684599	0	0	0	
0.226	-0.0961431	-0.0319076	0.00377011	0.000656132	0	0	0	
0.226167	0.129733	0.00395911	0.00377813	0.000667278	0	0	0	
0.226333	-0.087587	0.0236843	0.00309642	0.000718345	0	0	0	
0.2265	0.0266483	-0.0362222	0.002241	0.000691475	0	0	0	
0.226667	0.0280421	0.0282882	0.00214576	0.00064899	0	0	0	
0.226833	-0.0701882	-0.00311781	0.00213166	0.000700254	0	0	0	
0.227	0.056137	-0.029964	0.00182806	0.000852765	0	0	0	
0.227167	0.0113939	0.0398543	0.00134882	0.000882059	0	0	0	
0.227333	-0.056365	-0.0266542	0.000910834	0.000777029	0	0	0	
0.2275	0.0097696	-9.67434E-05	0.000955217	0.000670382	0	0	0	
0.227667	0.0717605	0.0210348	0.00134308	0.000618261	0	0	0	
0.227833	-0.101785	-0.0209152	0.00157707	0.000535589	0	0	0	
0.228	0.0432229	0.00821051	0.00175066	0.000438805	0	0	0	
0.228167	0.01982	0.0019394	0.00143159	0.000373958	0	0	0	
0.228333	-0.0196387	-0.0073959	0.00174382	0.000350492	0	0	0	
0.2285	0.00883268	0.00935286	0.00155362	0.000290616	0	0	0	
0.228667	-0.00321729	-0.00663869	0.0012818	0.000212878	0	0	0	
0.228833	-0.0479251	0.000944309	0.000770513	0.000149513	0	0	0	
0.229	0.101946	0.00537799	0.000965615	0.000112021	0	0	0	
0.229167	-0.000401063	-0.00724853	0.00139553	0.000102233	0	0	0	
0.229333	-0.0961085	0.00236769	0.00158254	0.000132595	0	0	0	
0.2295	0.0606823	0.00272187	0.00158736	0.000171991	0	0	0	
0.229667	0.0383277	-0.00382971	0.00158335	0.000187485	0	0	0	
0.229833	-0.0610156	0.00347846	0.00147826	0.000161462	0	0	0	
0.23	0.0232446	-0.00119633	0.00111292	0.000105442	0	0	0	
0.230167	0.00277272	-0.00241077	0.000735471	5.98566E-05	0	0	0	
0.230333	0.000462064	0.00380219	0.000685491	4.72218E-05	0	0	0	
0.2305	-0.0116884	-0.00167529	0.000710828	7.21552E-05	0	0	0	
0.230667	0.0137656	-0.000810798	0.000812221	0.000116372	0	0	0	
0.230833	-0.013785	0.00219454	0.000736538	0.000132396	0	0	0	
0.231	0.0213107	-0.00157954	0.000635232	0.000114456	0	0	0	
0.231167	-0.0184411	0.000139314	0.000579278	7.61539E-05	0	0	0	
0.231333	0.00192025	0.0014445	0.000486937	5.09222E-05	0	0	0	
0.2315	0.0069212	-0.00131604	0.000416776	5.48539E-05	0	0	0	
0.231667	-0.00111961	0.000173042	0.000455195	7.98534E-05	0	0	0	
0.231833	-0.0083194	0.000602169	0.000563009	9.98709E-05	0	0	0	
0.232	0.00946389	-0.00132695	0.00061812	0.000100075	0	0	0	
0.232167	-0.00655202	0.00023504	0.000593922	8.4411E-05	0	0	0	
0.232333	0.0125929	0.00136327	0.000625991	7.52607E-05	0	0	0	
0.2325	-0.0256071	0.000977585	0.000694246	9.91083E-05	0	0	0	
0.232667	0.00929457	-0.00555487	0.000607801	0.000138741	0	0	0	
0.232833	0.0264717	0.00528921	0.000476686	0.000150422	0	0	0	
0.233	-0.0231277	4.51001E-06	0.000456404	0.000117074	0	0	0	
0.233167	-0.0271023	-0.00426753	0.000884893	6.73094E-05	0	0	0	
0.233333	0.0453188	0.00439409	0.00109541	6.60348E-05	0	0	0	
0.2335	-0.00459699	-0.00131624	0.00100573	0.000109091	0	0	0	
0.233667	-0.00862177	-0.0030811	0.00051979	0.000170449	0	0	0	
0.233833	-0.020604	0.00546987	0.000460791	0.00019196	0	0	0	
0.234	0.0143768	-0.00431429	0.000457782	0.000166801	0	0	0	
0.234167	0.0258164	0.000945973	0.000489784	0.000109302	0	0	0	
0.234333	-0.00934345	0.00243754	0.000531541	5.90992E-05	0	0	0	
0.2345	-0.0431708	-0.00340369	0.0009456	4.85297E-05	0	0	0	
0.234667	0.0441394	0.000141996	0.0012063	8.37725E-05	0	0	0	
0.234833	-0.00293087	0.00302098	0.00103173	0.000126279	0	0	0	
0.235	-0.00846724	-0.00171342	0.000563148	0.000123479	0	0	0	
0.235167	-0.0126823	-0.000314358	0.000527769	8.14574E-05	0	0	0	
0.235333	0.0123131	0.00108762	0.000596025	4.66038E-05	0	0	0	
0.2355	-0.00228915	-0.00139697	0.000631478	4.37848E-05	0	0	0	
0.235667	0.0100162	0.000561312	0.000553159	6.90485E-05	0	0	0	
0.235833	-0.0239516	0.00237411	0.000607264	0.000101802	0	0	0	
0.236	0.0155738	-0.00319911	0.000658726	0.000116309	0	0	0	
0.236167	0.00108588	0.00142963	0.000527879	9.7974E-05	0	0	0	
0.236333	-0.00219723	0.00117467	0.000440006	5.80245E-05	0	0	0	
0.2365	-0.0142568	-0.00164903	0.000556707	4.28671E-05	0	0	0	
0.236667	0.0222891	0.000397082	0.000702325	6.16626E-05	0	0	0	
0.236833	-0.00657706	-0.000989388	0.000648975	8.47178E-05	0	0	0	
0.237	-0.00587371	0.00317847	0.000519392	8.89132E-05	0	0	0	
0.237167	-0.0353565	-0.000314491	0.000744756	0.00010306	0	0	0	
0.237333	0.0859447	-0.0153241	0.00101757	0.000173746	0	0	0	
0.2375	0.00592598	0.0570234	0.00193394	0.000346334	0	0	0	
0.237667	0.00238747	-0.0180415	0.00211445	0.000568346	0	0	0	
0.237833	0.0202125	0.00524503	0.00205477	0.000531196	0	0	0	
0.238	-0.0232367	0.00237444	0.00108467	0.000356201	0	0	0	
0.238167	0.0457702	-0.00307255	0.000671665	0.000115754	0	0	0	
0.238333	-0.0184289	0.000256668	0.000861599	0.000141158	0	0	0	
0.2385	-0.170228	0.0207739	0.00185276	0.000303325	0	0	0	
0.238667	0.133241	-0.0100395	0.00257531	0.000565584	0	0	0	
0.238833	-0.0646588	0.0157013	0.00288578	0.00062322	0	0	0	
0.239	-0.0206735	-0.005977	0.00226301	0.000509114	0	0	0	
0.239167	0.0101155	-0.0120524	0.00142478	0.000331575	0	0	0	
0.239333	-0.00639077	0.0212619	0.000733764	0.000275015	0	0	0	
0.2395	0.0335915	-0.0105127	0.000399232	0.000353339	0	0	0	
0.239667	-0.00553618	-0.00983736	0.000635848	0.000447003	0	0	0	
0.239833	-0.0435812	0.0225228	0.000951895	0.000521469	0	0	0	
0.24	0.0262029	-0.0229868	0.00101589	0.000509611	0	0	0	
0.240167	0.0183017	0.0142678	0.000845841	0.00041829	0	0	0	
0.240333	-0.0175305	0.00143578	0.00055114	0.000388878	0	0	0	
0.2405	-0.016042	-0.0157913	0.000754423	0.000369365	0	0	0	
0.240667	-0.0348758	0.0199904	0.00100459	0.000366	0	0	0	
0.240833	0.0397087	-0.0154987	0.00113478	0.000354822	0	0	0	
0.241	0.00231243	-0.00434713	0.000842183	0.000344645	0	0	0	
0.241167	-0.00850858	0.0105311	0.000542332	0.000331306	0	0	0	
0.241333	0.0162863	-0.0096603	0.000406129	0.000270707	0	0	0	
0.2415	-0.00675632	0.00350223	0.00038326	0.000207489	0	0	0	
0.241667	-0.0264158	0.00342247	0.000370894	0.00014668	0	0	0	
0.241833	0.0242285	-0.00381766	0.000571533	0.000129068	0	0	0	
0.242	0.0320175	-0.00231215	0.000685985	0.000123332	0	0	0	
0.242167	-0.0186666	-0.00138742	0.000879339	0.000114617	0	0	0	
0.242333	0.00432615	-0.00022467	0.000715366	0.000118541	0	0	0	
0.2425	-0.0204416	0.00179064	0.00074136	0.000122552	0	0	0	
0.242667	0.0345574	-0.00331077	0.000701728	0.000137308	0	0	0	
0.242833	-0.0212747	0.00423633	0.00073252	0.000134623	0	0	0	
0.243	0.0135218	-0.00119864	0.000591897	0.000136407	0	0	0	
0.243167	-0.019601	-0.00171865	0.000740588	0.00015072	0	0	0	
0.243333	-0.0156022	0.00327661	0.000615641	0.000127929	0	0	0	
0.2435	0.0271886	-0.00509721	0.000679906	0.000110948	0	0	0	
0.243667	0.0118404	0.00535706	0.000669783	7.91442E-05	0	0	0	
0.243833	-0.0484471	-0.00581138	0.00101414	9.75991E-05	0	0	0	
0.244	0.0254289	0.00529426	0.00104501	0.00013048	0	0	0	
0.244167	-0.0235158	-0.00708728	0.000953626	0.000197606	0	0	0	
0.244333	-0.0141816	-0.00599299	0.000949154	0.000198246	0	0	0	
0.2445	-0.0335355	0.00545779	0.0013319	0.000178328	0	0	0	
0.244667	0.0265679	-0.00502568	0.00130946	0.000113397	0	0	0	
0.244833	-0.00612228	0.00285834	0.00099601	9.37894E-05	0	0	0	
0.245	0.0235406	0.00213622	0.000657188	8.31265E-05	0	0	0	
0.245167	-0.0427935	-0.00540048	0.000576772	7.25322E-05	0	0	0	
0.245333	-9.7049E-05	0.00454962	0.000673207	9.14403E-05	0	0	0	
0.2455	0.0425397	-0.00261066	0.000608202	0.000114621	0	0	0	
0.245667	-0.0202825	0.00069104	0.000739338	0.000147264	0	0	0	
0.245833	-0.0276911	0.00195047	0.00102642	0.000164078	0	0	0	
0.246	0.0315222	-0.00371606	0.00114287	0.000162797	0	0	0	
0.246167	-0.00413888	0.00270895	0.000908011	0.000141989	0	0	0	
0.246333	-0.00223575	-0.000716492	0.000516627	9.98948E-05	0	0	0	
0.2465	-0.0122694	-5.29061E-05	0.000497366	6.44447E-05	0	0	0	
0.246667	0.0172451	0.000678168	0.000618571	5.67381E-05	0	0	0	
0.246833	-0.0153609	-0.000494442	0.000686897	7.24972E-05	0	0	0	
0.247	0.0150647	-0.000495446	0.000626844	9.52016E-05	0	0	0	
0.247167	-0.00551818	0.00191932	0.000548943	0.000111898	0	0	0	
0.247333	-0.00826363	-0.00272855	0.000438286	0.000112754	0	0	0	
0.2475	0.00460836	0.00111614	0.000414649	9.01634E-05	0	0	0	
0.247667	0.0159021	0.00119918	0.000573683	5.78335E-05	0	0	0	
0.247833	-0.0225222	-0.00114401	0.000743761	4.67748E-05	0	0	0	
0.248	0.00684789	0.00113225	0.00070619	5.87877E-05	0	0	0	
0.248167	0.00563667	-0.000843417	0.00050113	8.1691E-05	0	0	0	
0.248333	-0.00519838	-0.00137639	0.000413619	0.000105354	0	0	0	
0.2485	-0.00197391	0.00310541	0.000459991	0.000119095	0	0	0	
0.248667	0.00954604	-0.00220369	0.000585436	0.000114504	0	0	0	
0.248833	-0.0220932	0.00154385	0.000682209	9.08424E-05	0	0	0	
0.249	0.0223115	-0.000749083	0.000715809	7.0492E-05	0	0	0	
0.249167	-0.0114443	-0.00014344	0.000606471	5.8814E-05	0	0	0	
0.249333	-0.00398814	0.000151818	0.000398002	6.30174E-05	0	0	0	
0.2495	0.0131738	0.00134898	0.00028037	7.97417E-05	0	0	0	
0.249667	-0.00524971	-0.00137528	0.000395454	9.38474E-05	0	0	0	
0.249833	-0.0205023	0.000602894	0.000697676	9.05226E-05	0	0	0	
0.25	0.0331557	-0.00050222	0.000917692	7.74069E-05	0	0	0	
0.250167	-0.0192587	-0.000375029	0.00087605	6.93393E-05	0	0	0	
0.250333	0.0012257	0.000858128	0.000611175	7.25644E-05	0	0	0	
0.2505	-0.00325364	0.000248977	0.000452032	8.93224E-05	0	0	0	
0.250667	0.0194714	-0.00157086	0.000513629	0.000107352	0	0	0	
0.250833	-0.0212659	0.00104681	0.000614001	0.000106599	0	0	0	
0.251	0.0015367	-0.000703061	0.000541947	9.33313E-05	0	0	0	
0.251167	0.0130969	0.00299818	0.000392623	9.68651E-05	0	0	0	
0.251333	-0.00450357	-0.00482005	0.000446844	0.000111208	0	0	0	
0.2515	-0.021039	0.00303829	0.000679584	0.000108542	0	0	0	
0.251667	0.0306815	-0.000128161	0.000841329	7.45096E-05	0	0	0	
0.251833	-0.0101265	-0.00214799	0.000724898	3.94965E-05	0	0	0	
0.252	-0.0263318	0.00485167	0.000465441	3.51432E-05	0	0	0	
0.252167	0.0253449	-0.00461616	0.000471662	7.24639E-05	0	0	0	
0.252333	0.0169008	-0.000741574	0.000875531	0.00014099	0	0	0	
0.2525	-0.0463225	0.00464788	0.00123653	0.000190697	0	0	0	
0.252667	0.0334313	-0.00562054	0.00121099	0.000196009	0	0	0	
0.252833	-0.0167403	0.00537285	0.000833443	0.000157089	0	0	0	
0.253	0.0218179	-0.00113315	0.000554288	0.000108112	0	0	0	
0.253167	-0.00211613	-0.00471369	0.000380457	8.53491E-05	0	0	0	
0.253333	-0.0474644	0.00450479	0.000460477	8.09149E-05	0	0	0	
0.2535	0.0418294	0.000346173	0.000620932	0.000112944	0	0	0	
0.253667	0.0325995	-0.00131834	0.00123994	0.00011972	0	0	0	
0.253833	-0.0642434	0.000466153	0.00147283	0.00011285	0	0	0	
0.254	0.0130945	-0.00288319	0.00139103	9.48232E-05	0	0	0	
0.254167	0.016982	0.00295556	0.000750597	8.67522E-05	0	0	0	
0.254333	0.0132278	0.000485849	0.000611399	7.40571E-05	0	0	0	
0.2545	-0.0310041	-0.00125799	0.000667525	5.6153E-05	0	0	0	
0.254667	0.0118217	-0.000368168	0.000775289	6.19892E-05	0	0	0	
0.254833	-0.00534022	0.0012641	0.000556988	8.56458E-05	0	0	0	
0.255	0.0102356	-0.00229087	0.000453557	0.000104502	0	0	0	
0.255167	-0.0176614	0.00226873	0.000508115	0.000103628	0	0	0	
0.255333	0.0215814	-0.00133512	0.000585746	8.96667E-05	0	0	0	
0.2555	-0.00697019	0.000882461	0.00049692	7.03009E-05	0	0	0	
0.255667	-0.0166578	-0.000214207	0.000343075	5.62744E-05	0	0	0	
0.255833	-0.000722093	-0.0011741	0.00043785	5.20148E-05	0	0	0	
0.256	0.0361961	0.00155811	0.000762975	6.1773E-05	0	0	0	
0.256167	-0.0325477	0.000283517	0.000951333	8.61349E-05	0	0	0	
0.256333	-0.00451716	-0.00187917	0.000769374	0.000111755	0	0	0	
0.2565	0.0149982	0.0025208	0.000465134	0.000121823	0	0	0	
0.256667	0.0191719	-0.003272	0.000634356	0.000115383	0	0	0	
0.256833	-0.0469293	0.0025367	0.000932684	9.60508E-05	0	0	0	
0.257	0.029419	0.000443967	0.00104993	6.52704E-05	0	0	0	
0.257167	0.00379177	-0.00227933	0.000720219	3.83853E-05	0	0	0	
0.257333	-0.0105951	0.00181574	0.000444405	4.66691E-05	0	0	0	
0.2575	-0.00819698	0.000282078	0.000493966	8.59538E-05	0	0	0	
0.257667	0.0138846	-0.0023102	0.000612831	0.000122833	0	0	0	
0.257833	-0.00122707	0.00303537	0.00061176	0.000131507	0	0	0	
0.258	0.00393227	-0.00353096	0.000540081	0.000121424	0	0	0	
0.258167	-0.0308613	0.00288684	0.000671023	0.000104103	0	0	0	
0.258333	0.0312971	-0.000841256	0.00079864	8.30034E-05	0	0	0	
0.2585	0.00181802	0.00029725	0.000675802	6.9461E-05	0	0	0	
0.258667	-0.0119713	-0.00104906	0.000421914	7.05639E-05	0	0	0	
0.258833	-0.0252008	-2.92882E-05	0.000549541	7.25198E-05	0	0	0	
0.259	0.0448818	0.00171212	0.000786778	7.23785E-05	0	0	0	
0.259167	-0.0130017	-0.00125934	0.000863951	8.13056E-05	0	0	0	
0.259333	-0.0212243	-0.000557552	0.000582924	0.000109309	0	0	0	
0.2595	0.00783578	0.00233486	0.000495683	0.000136044	0	0	0	
0.259667	0.0213712	-0.00365542	0.000722398	0.000143923	0	0	0	
0.259833	-0.0231075	0.0043596	0.000900966	0.000132182	0	0	0	
0.26	0.00890327	-0.00297074	0.000822953	0.000107965	0	0	0	
0.260167	-0.00951475	-0.000184823	0.000630768	6.90134E-05	0	0	0	
0.260333	0.0288092	0.00320393	0.000646235	4.11746E-05	0	0	0	
0.2605	-0.0356489	-0.00311503	0.00071599	4.33996E-05	0	0	0	
0.260667	0.0123134	0.00050514	0.000669349	8.17739E-05	0	0	0	
0.260833	0.0121263	0.0015027	0.000426957	0.000125398	0	0	0	
0.261	-0.00619006	-0.00302719	0.000344384	0.000150135	0	0	0	
0.261167	-0.00848595	0.00499347	0.000407554	0.000154744	0	0	0	
0.261333	0.0133618	-0.00494453	0.000557069	0.000139847	0	0	0	
0.2615	-0.022517	0.00179598	0.000664076	0.000108011	0	0	0	
0.261667	0.0328197	0.000521568	0.00079883	6.29995E-05	0	0	0	
0.261833	-0.0370116	-0.0022817	0.000902504	3.93465E-05	0	0	0	
0.262	0.0264794	0.00256474	0.000837767	5.43355E-05	0	0	0	
0.262167	-0.00875655	0.000434276	0.000609844	0.000105035	0	0	0	
0.262333	-0.00259641	-0.00283452	0.000438125	0.000146241	0	0	0	
0.2625	-0.0133722	0.0023502	0.000559096	0.000151911	0	0	0	
0.262667	0.0314429	-0.00307707	0.000767628	0.000132511	0	0	0	
0.262833	-0.0286603	0.00409765	0.000874575	0.00011693	0	0	0	
0.263	0.0179978	-0.00284056	0.000726378	0.000104434	0	0	0	
0.263167	-0.0160193	-0.000241804	0.000546274	7.89809E-05	0	0	0	
0.263333	0.00379983	0.00203392	0.000470568	5.39018E-05	0	0	0	
0.2635	0.0139674	-0.00101621	0.000429564	5.43304E-05	0	0	0	
0.263667	-0.00681326	-5.15253E-05	0.000473768	7.81726E-05	0	0	0	
0.263833	-0.0261054	-8.17516E-05	0.000678832	9.93421E-05	0	0	0	
0.264	0.0347401	-0.00127668	0.000900382	0.000116069	0	0	0	
0.264167	-0.00960731	0.00481739	0.000863109	0.00012563	0	0	0	
0.264333	-0.00612545	-0.00365348	0.000572745	0.000111331	0	0	0	
0.2645	-0.00209374	-0.00181435	0.0004283	9.96531E-05	0	0	0	
0.264667	0.00933416	0.00326549	0.000406736	6.62438E-05	0	0	0	
0.264833	0.000412433	-0.000978643	0.000377538	8.07851E-05	0	0	0	
0.265	-0.0021699	0.0011402	0.000314805	8.07334E-05	0	0	0	
0.265167	-0.00816505	0.000773949	0.000420047	0.000110502	0	0	0	
0.265333	0.00685396	-0.00581562	0.000494824	0.000127712	0	0	0	
0.2655	0.00495921	0.00598909	0.000411883	0.000134298	0	0	0	
0.265667	0.00644894	-0.000947603	0.000343367	0.00011367	0	0	0	
0.265833	-0.0225595	-0.000571706	0.00045724	7.17502E-05	0	0	0	
0.266	0.0130978	-0.0002072	0.000559813	5.76625E-05	0	0	0	
0.266167	0.00246265	-0.000981046	0.000484202	5.51578E-05	0	0	0	
0.266333	0.00493294	0.00117079	0.000489666	6.88972E-05	0	0	0	
0.2665	-0.0240302	-8.92411E-05	0.000646338	7.73867E-05	0	0	0	
0.266667	0.0243471	0.00104466	0.000782163	8.54158E-05	0	0	0	
0.266833	-0.0112182	-0.00181688	0.000716963	9.08677E-05	0	0	0	
0.267	0.014908	-0.000835113	0.000625921	0.000107447	0	0	0	
0.267167	-0.0344377	0.00220972	0.000700067	0.000124186	0	0	0	
0.267333	0.0422817	0.00298035	0.000828474	0.000105667	0	0	0	
0.2675	-0.0217637	-0.00858624	0.000814683	8.99193E-05	0	0	0	
0.267667	0.00220373	0.00717288	0.000571399	0.000107334	0	0	0	
0.267833	0.00724414	-0.00387307	0.00031846	0.000160332	0	0	0	
0.268	-0.00551174	0.00224607	0.000278348	0.00018768	0	0	0	
0.268167	-0.0033957	0.0030779	0.000468797	0.00021115	0	0	0	
0.268333	0.0182496	-0.00872709	0.000763972	0.000218775	0	0	0	
0.2685	-0.0343454	0.00437425	0.00102473	0.000192572	0	0	0	
0.268667	0.0463587	0.00411698	0.00113503	0.000169244	0	0	0	
0.268833	-0.0409451	-0.0050363	0.0010599	0.000128751	0	0	0	
0.269	0.0156177	0.00628027	0.000814291	0.000127165	0	0	0	
0.269167	-0.00897677	-0.00791157	0.000545232	0.000115337	0	0	0	
0.269333	0.00901191	0.000587584	0.000367289	0.000177987	0	0	0	
0.2695	-0.00310512	0.00971162	0.00024245	0.000261337	0	0	0	
0.269667	0.0128993	-0.0097654	0.000300128	0.000281657	0	0	0	
0.269833	-0.0406607	0.00377511	0.000534507	0.000226473	0	0	0	
0.27	0.0400496	0.000789831	0.000808662	0.00012541	0	0	0	
0.270167	-0.00592747	-0.00533001	0.000803727	8.00048E-05	0	0	0	
0.270333	-0.0133926	0.00854606	0.000555591	8.13086E-05	0	0	0	
0.2705	-0.00494963	-0.0039627	0.00053994	0.00013726	0	0	0	
0.270667	0.0436229	-0.00449037	0.000888266	0.000214177	0	0	0	
0.270833	-0.0639796	0.00896036	0.00133728	0.000249279	0	0	0	
0.271	0.0356102	-0.0146151	0.00137102	0.000243875	0	0	0	
0.271167	-0.0745373	-0.0159017	0.00142224	0.000298586	0	0	0	
0.271333	0.00885793	0.00625579	0.00151178	0.000295979	0	0	0	
0.2715	0.0528329	-0.00314302	0.00147121	0.000288757	0	0	0	
0.271667	-0.0425486	0.00399174	0.00127579	0.000196054	0	0	0	
0.271833	-0.0152635	-0.00101854	0.00130091	0.000175989	0	0	0	
0.272	0.021036	-0.000280328	0.00152758	0.000152719	0	0	0	
0.272167	-0.00401621	0.0025494	0.00138177	9.88915E-05	0	0	0	
0.272333	0.00480743	0.00124621	0.000866295	8.35289E-05	0	0	0	
0.2725	-0.0176623	0.0063254	0.000497735	0.000148378	0	0	0	
0.272667	0.017471	-0.00623602	0.000398899	0.000238081	0	0	0	
0.272833	0.00803931	0.00427893	0.000346395	0.000245132	0	0	0	
0.273	-0.0166246	-0.00813136	0.000398192	0.000179055	0	0	0	
0.273167	-0.0102791	0.0111471	0.000687065	0.000157819	0	0	0	
0.273333	0.0317422	-0.00353777	0.000968069	0.000157458	0	0	0	
0.2735	-0.0252479	0.00466369	0.00100026	0.000165422	0	0	0	
0.273667	0.0235403	-0.0097949	0.00078245	0.000157787	0	0	0	
0.273833	-0.024896	0.00400405	0.000647243	0.000150826	0	0	0	
0.274	0.0157343	0.00193272	0.000564815	0.000138641	0	0	0	
0.274167	0.00619467	0.00137151	0.00044695	8.12368E-05	0	0	0	
0.274333	-0.0101874	0.000910779	0.000404083	6.76549E-05	0	0	0	
0.2745	-0.0182298	-0.000597071	0.000598294	9.17669E-05	0	0	0	
0.274667	0.0316305	-0.00741116	0.000834826	0.000203398	0	0	0	
0.274833	-0.0223	0.0155267	0.000846211	0.000294746	0	0	0	
0.275	0.0161854	-0.00925577	0.000609864	0.000308915	0	0	0	
0.275167	-0.0122248	0.000126389	0.000402241	0.000238931	0	0	0	
0.275333	-0.00782914	0.00485719	0.000257841	0.000179449	0	0	0	
0.2755	0.0206081	-0.00796497	0.000258214	0.000142432	0	0	0	
0.275667	0.0112246	0.00255358	0.000411946	0.000157505	0	0	0	
0.275833	-0.0256642	0.00609707	0.000588147	0.000186738	0	0	0	
0.276	0.0139466	-0.00686847	0.000619471	0.000204421	0	0	0	
0.276167	-0.0112346	0.00299674	0.000590235	0.000163996	0	0	0	
0.276333	0.0204993	0.00441867	0.000733981	0.000114682	0	0	0	
0.2765	-0.0297786	-0.0124469	0.000855193	0.000121834	0	0	0	
0.276667	0.0302369	0.0103879	0.00081082	0.000167275	0	0	0	
0.276833	-0.0189854	-0.00359397	0.000637108	0.000216533	0	0	0	
0.277	0.0123947	-0.00210716	0.000491711	0.00025451	0	0	0	
0.277167	0.00286705	0.00654934	0.000440931	0.000254763	0	0	0	
0.277333	-0.0135063	-0.00593658	0.000521441	0.00021025	0	0	0	
0.2775	-0.0171623	-0.00589274	0.000802326	0.000172252	0	0	0	
0.277667	0.0417766	0.00807659	0.00102109	0.000182012	0	0	0	
0.277833	-0.0279598	-0.0059092	0.000984899	0.000180014	0	0	0	
0.278	-0.000342363	0.00389128	0.00066327	0.000155168	0	0	0	
0.278167	0.00410646	-0.00575376	0.000456201	0.00010412	0	0	0	
0.278333	0.00511193	0.00338121	0.000466291	9.76387E-05	0	0	0	
0.2785	-0.0144225	0.00265795	0.000560974	0.000119002	0	0	0	
0.278667	0.00737342	-0.00667941	0.000522715	0.0001097	0	0	0	
0.278833	0.00228635	0.00397846	0.0003074	0.000115058	0	0	0	
0.279	-0.00761285	-0.00151458	0.000188828	8.4104E-05	0	0	0	
0.279167	0.0105247	0.0039027	0.000247291	8.91113E-05	0	0	0	
0.279333	-4.90858E-05	-0.00209746	0.000419381	7.3162E-05	0	0	0	
0.2795	-0.017849	-0.000237895	0.000572005	5.8076E-05	0	0	0	
0.279667	0.0220184	-0.00135344	0.000595528	4.98073E-05	0	0	0	
0.279833	-0.0121024	0.00370407	0.000491401	5.50601E-05	0	0	0	
0.28	-0.00177609	-0.00300336	0.000316423	7.39635E-05	0	0	0	
0.280167	0.00738833	0.0029727	0.000251093	7.72625E-05	0	0	0	
0.280333	0.00804502	-0.00106672	0.000390665	7.63812E-05	0	0	0	
0.2805	-0.0192929	4.08527E-05	0.000559686	6.86094E-05	0	0	0	
0.280667	0.010877	-0.00202973	0.000574165	6.55846E-05	0	0	0	
0.280833	0.00670066	0.00178048	0.000371507	4.81364E-05	0	0	0	
0.281	-0.016134	-0.000529638	0.000241707	5.7819E-05	0	0	0	
0.281167	-0.00378914	0.00361986	0.000295375	7.0871E-05	0	0	0	
0.281333	0.0390059	-0.00827659	0.000540645	0.000133026	0	0	0	
0.2815	-0.0618979	0.00963578	0.000801114	0.000172769	0	0	0	
0.281667	0.0515415	-0.00525331	0.000971771	0.00018344	0	0	0	
0.281833	-0.0217705	0.00364261	0.000947413	0.000138936	0	0	0	
0.282	0.00151116	-0.00239832	0.000750939	9.59298E-05	0	0	0	
0.282167	0.00439645	-0.000859257	0.000427706	7.51083E-05	0	0	0	
0.282333	0.0100312	0.00454207	0.000314847	9.90294E-05	0	0	0	
0.2825	-0.0264705	0.00218887	0.000514035	0.000181973	0	0	0	
0.282667	0.0453451	-0.00411838	0.00102934	0.000253703	0	0	0	
0.282833	-0.0660338	0.00524132	0.0014258	0.00026326	0	0	0	
0.283	0.0647606	-0.00695013	0.00150614	0.000194835	0	0	0	
0.283167	-0.0356142	0.00538494	0.00126967	0.000144022	0	0	0	
0.283333	0.0163913	-0.00133527	0.000895398	0.000127006	0	0	0	
0.2835	-0.00241203	0.000837173	0.000553045	0.000100019	0	0	0	
0.283667	-0.0100227	-0.00205169	0.000331519	7.06951E-05	0	0	0	
0.283833	0.00840157	-0.00212312	0.000344317	4.21187E-05	0	0	0	
0.284	0.00636891	0.00173217	0.000522671	4.55829E-05	0	0	0	
0.284167	-0.0059885	0.00832165	0.000761689	9.33107E-05	0	0	0	
0.284333	0.0109873	-0.00811218	0.000932286	0.000150018	0	0	0	
0.2845	-0.0259367	0.00694379	0.00100464	0.000200002	0	0	0	
0.284667	0.0353223	-0.00963454	0.000943885	0.000223506	0	0	0	
0.284833	-0.0218724	0.0143511	0.00077932	0.000254172	0	0	0	
0.285	0.00532647	-0.00753415	0.000537723	0.000253274	0	0	0	
0.285167	0.00348099	0.00181034	0.000374336	0.000196443	0	0	0	
0.285333	-0.00739226	-3.69378E-05	0.000346502	0.000110357	0	0	0	
0.2855	0.0024289	-0.00419259	0.000400403	5.58254E-05	0	0	0	
0.285667	0.0129048	0.00575098	0.000443835	6.80834E-05	0	0	0	
0.285833	-0.0178484	0.000330961	0.000437646	0.00014509	0	0	0	
0.286	0.0167404	-0.001795	0.000438907	0.000233423	0	0	0	
0.286167	-0.0138569	0.00504286	0.000462407	0.000259631	0	0	0	
0.286333	0.0198529	-0.0118048	0.000482802	0.000221497	0	0	0	
0.2865	-0.0267453	0.0150121	0.000520071	0.000218671	0	0	0	
0.286667	0.0242134	0.000219078	0.000517254	0.000243727	0	0	0	
0.286833	-0.00631326	-0.0120211	0.000484069	0.000268051	0	0	0	
0.287	-0.0284488	0.0113609	0.000512545	0.000238424	0	0	0	
0.287167	0.0412822	-0.00530342	0.000559399	0.000213107	0	0	0	
0.287333	0.00177565	-0.000100632	0.000941264	0.000198343	0	0	0	
0.2875	-0.0547169	0.0119571	0.00127955	0.000225186	0	0	0	
0.287667	0.0565664	-0.0143363	0.00146056	0.000260739	0	0	0	
0.287833	-0.0351908	0.00384353	0.0012217	0.000248695	0	0	0	
0.288	0.0193226	0.00591452	0.000842258	0.00025771	0	0	0	
0.288167	0.0188277	-0.0081227	0.000666205	0.000219599	0	0	0	
0.288333	-0.062421	0.00732819	0.000716073	0.000213912	0	0	0	
0.2885	0.0466702	-0.0068648	0.000877937	0.000156411	0	0	0	
0.288667	0.0258501	-0.0016352	0.00122636	0.000201475	0	0	0	
0.288833	-0.0481362	0.0118826	0.00132281	0.000296086	0	0	0	
0.289	-0.000879234	-0.0120298	0.00118075	0.000338885	0	0	0	
0.289167	0.0173749	0.00766665	0.000750659	0.000284296	0	0	0	
0.289333	0.0144982	-0.00419458	0.000505829	0.000184925	0	0	0	
0.2895	-0.0221541	-0.00416775	0.000444757	0.000159579	0	0	0	
0.289667	0.00955455	0.0126001	0.000422337	0.000152685	0	0	0	
0.289833	-0.00469172	-0.0120871	0.000379849	0.000229026	0	0	0	
0.29	0.0108053	0.00610096	0.000488495	0.000324821	0	0	0	
0.290167	-0.0194851	-0.000602035	0.0006132	0.000388964	0	0	0	
0.290333	0.0212092	-0.00126317	0.000666099	0.000365478	0	0	0	
0.2905	-0.0137348	0.00566498	0.000576806	0.00028512	0	0	0	
0.290667	0.0100525	-0.00475242	0.000488859	0.000200726	0	0	0	
0.290833	-0.0144358	-0.00195862	0.000471985	0.00014163	0	0	0	
0.291	0.0147743	0.00415083	0.000475525	8.37698E-05	0	0	0	
0.291167	-0.0046182	-0.00550218	0.000482557	9.01083E-05	0	0	0	
0.291333	0.000540633	0.00710868	0.000523842	9.02442E-05	0	0	0	
0.2915	-0.0138591	-0.00709502	0.000644518	0.000129274	0	0	0	
0.291667	0.0234997	0.00197036	0.000747627	0.000141345	0	0	0	
0.291833	-0.0235733	0.00240613	0.000745736	0.000155258	0	0	0	
0.292	0.0138238	-0.00732343	0.000636389	0.000165823	0	0	0	
0.292167	-0.00354988	0.00971435	0.000529493	0.000177825	0	0	0	
0.292333	0.00971782	-0.0013111	0.000550466	0.000159103	0	0	0	
0.2925	-0.0317397	-0.00410063	0.000695389	0.000101717	0	0	0	
0.292667	0.0338365	0.00279295	0.000818316	8.74935E-05	0	0	0	
0.292833	-0.0135166	0.00179881	0.000734193	0.000107386	0	0	0	
0.293	0.000890868	-0.00364241	0.000502506	0.000123411	0	0	0	
0.293167	-0.00836634	0.00448546	0.000408892	0.000116328	0	0	0	
0.293333	0.0119738	-0.00554173	0.000436178	0.000113981	0	0	0	
0.2935	-0.00600958	0.00860082	0.000511016	0.000145667	0	0	0	
0.293667	0.00950537	-0.00881553	0.000636686	0.000155009	0	0	0	
0.293833	-0.0379396	0.00332387	0.000870147	0.000152994	0	0	0	
0.294	0.0437435	0.00186814	0.00100012	0.000119332	0	0	0	
0.294167	-0.0143194	-0.00562449	0.000872488	9.67885E-05	0	0	0	
0.294333	-0.00552638	0.00807729	0.000540321	9.17664E-05	0	0	0	
0.2945	0.00218118	-0.000757375	0.000425842	0.000142281	0	0	0	
0.294667	0.0126868	-0.00866984	0.000574318	0.000220845	0	0	0	
0.294833	-0.0226151	0.0104853	0.000795266	0.000253112	0	0	0	
0.295	0.0261747	-0.00539668	0.000856643	0.000223398	0	0	0	
0.295167	-0.0254415	0.00299062	0.000732567	0.000143282	0	0	0	
0.295333	0.0188166	8.32383E-05	0.000608327	0.000137066	0	0	0	
0.2955	-0.00710963	-0.00538054	0.000491715	0.000147039	0	0	0	
0.295667	0.00710403	-0.000112477	0.000389383	0.00016706	0	0	0	
0.295833	-0.0124292	0.00727961	0.00040517	0.000162515	0	0	0	
0.296	0.0205102	-0.00444909	0.000517756	0.000141202	0	0	0	
0.296167	-0.0150964	-0.00225564	0.000594696	0.000134755	0	0	0	
0.296333	0.00220718	0.00231427	0.000525569	8.73492E-05	0	0	0	
0.2965	-0.00341803	0.000350535	0.000473038	8.69234E-05	0	0	0	
0.296667	0.0260431	-0.00257787	0.000539475	9.74002E-05	0	0	0	
0.296833	-0.0321971	0.00567354	0.00068171	0.000131377	0	0	0	
0.297	0.0282038	-0.00611434	0.000721622	0.00013161	0	0	0	
0.297167	-0.00937533	0.00325464	0.00060767	0.000114734	0	0	0	
0.297333	-0.0114309	5.24156E-05	0.000384488	7.81267E-05	0	0	0	
0.2975	0.0156197	-0.00517739	0.000283798	5.9199E-05	0	0	0	
0.297667	0.000181398	0.0049677	0.000434174	5.89104E-05	0	0	0	
0.297833	-0.0236963	0.00225427	0.000728065	0.000108778	0	0	0	
0.298	0.0319373	-0.00689066	0.000878183	0.000154479	0	0	0	
0.298167	-0.0240192	0.00477438	0.00081632	0.000160974	0	0	0	
0.298333	0.0206561	-0.00132943	0.000644009	0.000116955	0	0	0	
0.2985	-0.0174488	0.000616407	0.000503701	6.0726E-05	0	0	0	
0.298667	-0.000126834	0.00182659	0.000348627	3.92147E-05	0	0	0	
0.298833	0.0150691	-0.00504596	0.000272409	3.81562E-05	0	0	0	
0.299	0.00222029	-0.000258078	0.000346165	7.44239E-05	0	0	0	
0.299167	-0.0213648	0.00453842	0.000594289	0.000111316	0	0	0	
0.299333	0.0487691	-0.00289019	0.000906321	0.00012491	0	0	0	
0.2995	-0.085356	0.00135446	0.00119474	9.74343E-05	0	0	0	
0.299667	0.116849	-0.00399657	0.00148634	6.62537E-05	0	0	0	
0.299833	-0.0757875	0.00405726	0.00176223	5.88668E-05	0	0	0	
0.3	0.00341893	0.00285386	0.00180294	8.57615E-05	0	0	0	
0.300167	0.0240779	-0.00890246	0.00146264	0.000114598	0	0	0	
0.300333	-0.00786531	0.00986596	0.000919077	0.000145333	0	0	0	
0.3005	-0.00679184	-0.00629898	0.000671154	0.000168485	0	0	0	
0.300667	0.0340302	0.00128975	0.000781056	0.00018073	0	0	0	
0.300833	-0.0589577	0.00771879	0.0012541	0.00021679	0	0	0	
0.301	0.0669245	-0.0151221	0.00163171	0.000260635	0	0	0	
0.301167	-0.0609052	0.0114735	0.0016721	0.000266332	0	0	0	
0.301333	0.0409599	-0.00342887	0.00139503	0.00025778	0	0	0	
0.3015	-0.0228911	-0.00467678	0.000939815	0.000224642	0	0	0	
0.301667	0.0251892	0.00668536	0.000671832	0.000202661	0	0	0	
0.301833	-0.00818882	-0.00603265	0.000454395	0.000156332	0	0	0	
0.302	-0.0258271	0.00465372	0.00041379	0.000143932	0	0	0	
0.302167	0.0392863	-0.00119843	0.000459308	0.000188193	0	0	0	
0.302333	0.00444799	-0.00383688	0.00071184	0.00023063	0	0	0	
0.3025	-0.029251	0.00485718	0.000956497	0.000228905	0	0	0	
0.302667	0.0259265	-0.00386793	0.00105363	0.000188929	0	0	0	
0.302833	-0.0171236	0.00403482	0.000900369	0.000140258	0	0	0	
0.303	0.017983	-0.0026469	0.000673377	9.73261E-05	0	0	0	
0.303167	-0.0107583	0.000218133	0.000518412	6.3423E-05	0	0	0	
0.303333	0.00963083	-0.0014762	0.000431707	4.03193E-05	0	0	0	
0.3035	-0.0157327	0.0037412	0.000507878	6.24397E-05	0	0	0	
0.303667	0.0236771	-0.00479003	0.000674173	8.34723E-05	0	0	0	
0.303833	-0.00945966	0.00206182	0.000718293	9.76446E-05	0	0	0	
0.304	-0.00509876	0.000178028	0.000546139	6.31659E-05	0	0	0	
0.304167	-0.00574231	0.000367566	0.000476739	3.62877E-05	0	0	0	
0.304333	0.0173924	0.000580511	0.000562392	3.48493E-05	0	0	0	
0.3045	-6.51168E-05	-0.00172161	0.000593273	5.37158E-05	0	0	0	
0.304667	-0.0121541	0.00102963	0.000544874	7.78067E-05	0	0	0	
0.304833	-0.0578745	0.00423602	0.000726764	9.57407E-05	0	0	0	
0.305	0.125912	-0.00604999	0.0011782	0.000101305	0	0	0	
0.305167	-0.0844591	0.00354294	0.00179429	0.000109344	0	0	0	
0.305333	-0.0275953	0.002	0.00256391	0.00015435	0	0	0	
0.3055	0.0911154	-0.00884814	0.0029847	0.000217121	0	0	0	
0.305667	-0.10471	0.0194042	0.00278446	0.000256692	0	0	0	
0.305833	0.0323465	-0.0111585	0.00201261	0.000288196	0	0	0	
0.306	0.0343912	-0.00305658	0.00148376	0.00032608	0	0	0	
0.306167	-0.0731284	0.00846416	0.00155535	0.000317533	0	0	0	
0.306333	0.120604	-0.00810913	0.00182143	0.00025626	0	0	0	
0.3065	-0.13333	0.00878976	0.00213018	0.000172764	0	0	0	
0.306667	0.0509185	0.00438859	0.00217403	0.000145139	0	0	0	
0.306833	-0.0111382	-0.0140396	0.00202819	0.000194665	0	0	0	
0.307	0.00749528	0.0228066	0.00148653	0.000250359	0	0	0	
0.307167	0.000946007	-0.00850543	0.000823598	0.000331408	0	0	0	
0.307333	-0.0253295	-0.00146488	0.00042682	0.000318547	0	0	0	
0.3075	0.0469367	0.0020183	0.000394244	0.00024881	0	0	0	
0.307667	-0.0272343	0.00038295	0.000745969	0.0001528	0	0	0	
0.307833	-0.0181506	0.000200651	0.00117	9.97466E-05	0	0	0	
0.308	0.0435981	0.0028245	0.00140475	0.000107138	0	0	0	
0.308167	-0.0331137	-0.00253102	0.0012622	0.000120404	0	0	0	
0.308333	0.0133187	0.000461884	0.000826902	0.000110005	0	0	0	
0.3085	-0.00412086	0.00225625	0.000500123	9.89716E-05	0	0	0	
0.308667	0.0154194	-0.00531734	0.000485934	0.000104784	0	0	0	
0.308833	-0.0272818	0.00550658	0.000661581	0.000122829	0	0	0	
0.309	0.0399467	0.000160393	0.000775568	0.000105265	0	0	0	
0.309167	-0.0122562	-0.00442762	0.000693215	6.85017E-05	0	0	0	
0.309333	0.000846763	0.00349593	0.000458991	6.46863E-05	0	0	0	
0.3095	-0.0147212	0.00263268	0.000488266	0.000106223	0	0	0	
0.309667	0.0271714	-0.00743718	0.000610974	0.000135788	0	0	0	
0.309833	-0.0287898	0.00830111	0.00076919	0.000155057	0	0	0	
0.31	0.0341289	-0.00197368	0.00074763	0.000131079	0	0	0	
0.310167	-0.0252897	-0.000329813	0.000671257	9.58721E-05	0	0	0	
0.310333	0.00595326	-0.00187646	0.000559191	6.23747E-05	0	0	0	
0.3105	-0.00369928	0.00256018	0.000506487	5.34933E-05	0	0	0	
0.310667	0.0254354	-0.00132854	0.000611687	6.17944E-05	0	0	0	
0.310833	-0.0397266	0.00508613	0.000783708	6.78308E-05	0	0	0	
0.311	0.0268477	-0.00401538	0.000818451	9.47404E-05	0	0	0	
0.311167	-0.00263751	0.00068482	0.000596829	9.58121E-05	0	0	0	
0.311333	-0.00462415	0.00108056	0.00035012	7.38235E-05	0	0	0	
0.3115	-0.00334466	-0.000635874	0.000349444	5.92362E-05	0	0	0	
0.311667	0.0160979	-0.000875082	0.000546763	7.73919E-05	0	0	0	
0.311833	-0.0260844	0.00145546	0.000778867	9.34796E-05	0	0	0	
0.312	0.023168	-0.00285145	0.000775455	9.51404E-05	0	0	0	
0.312167	-0.0117782	0.00351241	0.000583496	0.00010213	0	0	0	
0.312333	0.00862504	-0.000545142	0.000382903	0.000114758	0	0	0	
0.3125	-0.0138592	0.00198331	0.000348856	0.000115381	0	0	0	
0.312667	0.0214789	-0.00210805	0.000516024	0.000102121	0	0	0	
0.312833	-0.0253509	0.000102126	0.000678509	7.39786E-05	0	0	0	
0.313	0.0236586	0.000593178	0.000698898	4.93736E-05	0	0	0	
0.313167	-0.0148274	0.000886418	0.000565976	5.43019E-05	0	0	0	
0.313333	0.00976656	0.00069366	0.000389483	8.41782E-05	0	0	0	
0.3135	-0.00484537	0.000526856	0.000336029	0.000107621	0	0	0	
0.313667	0.00941695	-0.000889887	0.000446538	0.000112668	0	0	0	
0.313833	-0.0219259	0.00145146	0.000672068	0.000105616	0	0	0	
0.314	0.0327427	-0.00157492	0.000809559	8.79313E-05	0	0	0	
0.314167	-0.0287491	0.00163171	0.000785454	6.37372E-05	0	0	0	
0.314333	0.0145678	-0.000897819	0.000627762	4.93464E-05	0	0	0	
0.3145	-0.00711675	0.00069724	0.000462292	5.49468E-05	0	0	0	
0.314667	0.0053566	-0.00181412	0.00039625	7.41592E-05	0	0	0	
0.314833	-0.0101952	0.00275368	0.000474707	9.27037E-05	0	0	0	
0.315	0.0236091	-0.0022248	0.000645133	9.37859E-05	0	0	0	
0.315167	-0.0343865	0.000789103	0.000778766	7.17006E-05	0	0	0	
0.315333	0.0259274	-0.000613135	0.000776437	4.29058E-05	0	0	0	
0.3155	-0.00692923	-0.0003523	0.000611882	4.36203E-05	0	0	0	
0.315667	0.00455523	-0.00176718	0.000420744	7.27806E-05	0	0	0	
0.315833	-0.0109863	0.00308506	0.000400828	0.00010327	0	0	0	
0.316	0.0170975	-0.00168022	0.000507174	0.000104384	0	0	0	
0.316167	-0.0180129	0.00105663	0.000607894	7.60679E-05	0	0	0	
0.316333	0.0164107	-0.000795081	0.000590361	4.50686E-05	0	0	0	
0.3165	-0.0145586	-0.000389443	0.00053012	2.92322E-05	0	0	0	
0.316667	0.00940014	0.000267133	0.000475419	3.80165E-05	0	0	0	
0.316833	-0.0126367	0.00153617	0.000470759	6.95348E-05	0	0	0	
0.317	0.0216198	-0.00276908	0.000538741	0.00010062	0	0	0	
0.317167	-0.0258054	0.00226627	0.000606363	0.000104342	0	0	0	
0.317333	0.0179397	-0.00140569	0.000582995	7.78543E-05	0	0	0	
0.3175	-0.00816004	0.000205246	0.000458499	4.39638E-05	0	0	0	
0.317667	0.005272	0.000417537	0.00036776	3.05572E-05	0	0	0	
0.317833	-0.00955437	0.00141397	0.000387402	4.45024E-05	0	0	0	
0.318	0.0163422	-0.00141936	0.000503926	6.74358E-05	0	0	0	
0.318167	-0.0245037	7.14722E-05	0.000625165	7.39999E-05	0	0	0	
0.318333	0.0263536	-0.000292723	0.000670647	5.95761E-05	0	0	0	
0.3185	-0.0176525	0.000832788	0.000624693	4.564E-05	0	0	0	
0.318667	0.0106182	-0.00127846	0.00053025	4.63407E-05	0	0	0	
0.318833	-0.00691527	0.00237349	0.000471416	5.93222E-05	0	0	0	
0.319	0.0123918	-0.00292188	0.00043635	7.83894E-05	0	0	0	
0.319167	-0.00709221	0.00312316	0.000461132	8.78896E-05	0	0	0	
0.319333	0.0242121	-0.00247404	0.000591473	7.7538E-05	0	0	0	
0.3195	-0.0478456	-0.00127438	0.000804017	6.11758E-05	0	0	0	
0.319667	0.0341017	0.00499697	0.000876176	4.92981E-05	0	0	0	
0.319833	0.0138534	-0.00437074	0.000813531	8.80637E-05	0	0	0	
0.32	-0.0173669	-0.000151729	0.000572618	0.000142478	0	0	0	
0.320167	-0.0170126	0.00133522	0.00074811	0.000178027	0	0	0	
0.320333	0.0424269	-0.000601209	0.000953475	0.00016252	0	0	0	
0.3205	-0.0271452	0.00362439	0.00111775	0.000131141	0	0	0	
0.320667	0.0194162	-0.00225525	0.000938371	9.48407E-05	0	0	0	
0.320833	-0.0364246	-0.0108086	0.000830196	0.000113051	0	0	0	
0.321	0.0408933	0.0211422	0.000868678	0.000164806	0	0	0	
0.321167	0.0474798	0.0104509	0.00132479	0.000311201	0	0	0	
0.321333	-0.0143541	-0.00260178	0.00169191	0.000300425	0	0	0	
0.3215	-0.0415905	0.000926779	0.00196702	0.000232022	0	0	0	
0.321667	0.0374751	-0.00798205	0.00159184	0.000128225	0	0	0	
0.321833	-0.000884054	0.0106683	0.00104003	0.000141242	0	0	0	
0.322	0.016911	-0.0103551	0.000661402	0.000192641	0	0	0	
0.322167	-0.0515551	0.000583592	0.000722824	0.000213328	0	0	0	
0.322333	0.0505409	0.00720375	0.000924317	0.000231544	0	0	0	
0.3225	-0.0128066	-0.013279	0.000910258	0.000231218	0	0	0	
0.322667	-0.00613988	0.0122074	0.000590768	0.00022858	0	0	0	
0.322833	-0.0133869	-0.00526976	0.000538226	0.000247096	0	0	0	
0.323	0.0385875	-0.00108495	0.00069246	0.000268122	0	0	0	
