0	0.0026483	0.00149337	2.6483E-07	1.49337E-07	0	0	0	
0.000166667	0.00536037	-0.01566	7.01596E-05	4.21258E-05	0	0	0	
0.000333333	-0.0109844	0.0250933	0.000187203	0.000159711	0	0	0	
0.0005	0.0115319	-0.0275325	0.000289892	0.000346171	0	0	0	
0.000666667	-0.0114624	0.0218126	0.000286442	0.000510921	0	0	0	
0.000833333	0.0120044	-0.0217477	0.000237341	0.00057829	0	0	0	
0.001	-0.0087815	0.0220875	0.000200545	0.000580741	0	0	0	
0.00116667	0.00540573	-0.0210881	0.000195443	0.000554848	0	0	0	
0.00133333	0.00183459	0.0192991	0.000221957	0.000517452	0	0	0	
0.0015	-0.00325622	-0.0283584	0.000300906	0.000490342	0	0	0	
0.00166667	-0.00289302	0.0369077	0.000401574	0.000528828	0	0	0	
0.00183333	0.00541326	-0.0374393	0.00046293	0.000625274	0	0	0	
0.002	-0.00646382	0.0404613	0.000472272	0.000718872	0	0	0	
0.00216667	0.00626413	-0.0394159	0.000466334	0.000763283	0	0	0	
0.00233333	-0.00118116	0.0369669	0.000458072	0.000751555	0	0	0	
0.0025	-0.00252229	-0.0343024	0.000441392	0.000724072	0	0	0	
0.00266667	-0.00140214	0.0396988	0.000416192	0.000719296	0	0	0	
0.00283333	0.00177416	-0.0410214	0.000372485	0.000769369	0	0	0	
0.003	0.000968016	0.0369072	0.00032201	0.000799489	0	0	0	
0.00316667	-0.00231836	-0.0391967	0.000323928	0.000793485	0	0	0	
0.00333333	-0.000392075	0.0389787	0.000396694	0.000763546	0	0	0	
0.0035	0.0024625	-0.0385132	0.000457687	0.000761723	0	0	0	
0.00366667	0.0014428	0.0337778	0.000443725	0.000757269	0	0	0	
0.00383333	-0.00347927	-0.0299646	0.000414696	0.000714905	0	0	0	
0.004	-0.000889341	0.0238192	0.0004197	0.000647246	0	0	0	
0.00416667	0.00102796	-0.0309907	0.000388137	0.000562974	0	0	0	
0.00433333	0.00509455	0.0347044	0.00028284	0.000573159	0	0	0	
0.0045	-0.0045669	-0.0332454	0.000191675	0.000606783	0	0	0	
0.00466667	0.0013667	0.0283077	0.00023954	0.000653153	0	0	0	
0.00483333	-0.00117472	-0.0315435	0.000369272	0.000613786	0	0	0	
0.005	-0.00223647	0.0320027	0.000460222	0.00061208	0	0	0	
0.00516667	0.0027726	-0.0348518	0.000468359	0.000611924	0	0	0	
0.00533333	-0.00576376	0.0433503	0.000434578	0.000698332	0	0	0	
0.0055	0.00702794	-0.0392833	0.000396449	0.000741572	0	0	0	
0.00566667	0.00163383	0.0274593	0.000362402	0.000760176	0	0	0	
0.00583333	-0.0101468	-0.0190193	0.000374247	0.000651334	0	0	0	
0.006	0.00364557	0.0212872	0.000419518	0.000528476	0	0	0	
0.00616667	-0.000557165	-0.0296533	0.000432058	0.000467424	0	0	0	
0.00633333	-0.00105403	0.0370785	0.000333143	0.000544179	0	0	0	
0.0065	0.00221113	-0.038902	0.000188632	0.000646824	0	0	0	
0.00666667	-0.00102279	0.0472222	0.000109419	0.000776442	0	0	0	
0.00683333	0.00147208	-0.04772	0.000157254	0.000848148	0	0	0	
0.007	-0.00403309	0.040837	0.000282429	0.000877334	0	0	0	
0.00716667	0.00637456	-0.037494	0.000359028	0.000852756	0	0	0	
0.00733333	-0.00195484	0.0345871	0.000343993	0.000829837	0	0	0	
0.0075	0.000948437	-0.0307712	0.000301674	0.00077329	0	0	0	
0.00766667	-0.00406394	0.0318338	0.000332946	0.000726156	0	0	0	
0.00783333	0.000194203	-0.0259979	0.000407314	0.000636865	0	0	0	
0.008	0.0049377	0.0312138	0.00045446	0.00058961	0	0	0	
0.00816667	0.0080961	-0.0434657	0.000454549	0.000609761	0	0	0	
0.00833333	-0.0199641	0.0510456	0.000445055	0.0007442	0	0	0	
0.0085	0.0203663	-0.0404351	0.000436173	0.000872534	0	0	0	
0.00866667	-0.0122328	0.0372526	0.000400637	0.000915372	0	0	0	
0.00883333	0.00340085	-0.0382211	0.000342814	0.000856642	0	0	0	
0.009	-0.00537381	0.0418748	0.000335527	0.000847779	0	0	0	
0.00916667	0.00822492	-0.0396944	0.000377525	0.000834462	0	0	0	
0.00933333	-0.00684467	0.0430841	0.000439514	0.000838645	0	0	0	
0.0095	0.00343518	-0.0386989	0.000468767	0.000831574	0	0	0	
0.00966667	-0.00149171	0.0310899	0.000515078	0.00079782	0	0	0	
0.00983333	0.00530732	-0.0288162	0.000611642	0.000747883	0	0	0	
0.01	-0.0106643	0.0408614	0.000670737	0.000705887	0	0	0	
0.0101667	0.010524	-0.0453401	0.000565058	0.000727081	0	0	0	
0.0103333	-0.00290503	0.0411322	0.00035504	0.000793302	0	0	0	
0.0105	-0.000503222	-0.0453553	0.000162812	0.000860021	0	0	0	
0.0106667	-0.00414905	0.0420598	0.000132022	0.000901073	0	0	0	
0.0108333	0.000788801	-0.0350201	0.000154561	0.000883047	0	0	0	
0.011	0.00320524	0.0362107	0.000215882	0.000828992	0	0	0	
0.0111667	0.00459877	-0.0514361	0.000340156	0.000808502	0	0	0	
0.0113333	-0.0114043	0.0505691	0.000527746	0.000898892	0	0	0	
0.0115	0.00653644	-0.0423006	0.000657549	0.000927103	0	0	0	
0.0116667	-0.00774219	0.0399705	0.000656398	0.000918878	0	0	0	
0.0118333	0.0100017	-0.0360114	0.000622778	0.000801161	0	0	0	
0.012	-0.0058689	0.0310219	0.000582662	0.000763006	0	0	0	
0.0121667	-0.00696493	-0.0320054	0.000484038	0.000678733	0	0	0	
0.0123333	0.0162976	0.0268163	0.000369664	0.000653219	0	0	0	
0.0125	-0.0174485	-0.0282038	0.000319346	0.000575544	0	0	0	
0.0126667	0.0112909	0.0359437	0.000330613	0.000635901	0	0	0	
0.0128333	-0.00384641	-0.0418824	0.000329135	0.000690641	0	0	0	
0.013	-0.00213917	0.0449259	0.00033546	0.000830988	0	0	0	
0.0131667	0.00421153	-0.0405539	0.000333523	0.000860482	0	0	0	
0.0133333	0.00310669	0.0364285	0.000281427	0.000879299	0	0	0	
0.0135	-0.00121419	-0.0365034	0.00018795	0.000869088	0	0	0	
0.0136667	0.00041263	0.040706	0.000214526	0.000876739	0	0	0	
0.0138333	0.00632903	-0.0488413	0.000374481	0.000881528	0	0	0	
0.014	-0.0101213	0.0513951	0.000552242	0.000931625	0	0	0	
0.0141667	0.00402304	-0.0477367	0.0005964	0.000940929	0	0	0	
0.0143333	0.000641929	0.0510044	0.000496776	0.000975083	0	0	0	
0.0145	0.00117271	-0.048463	0.000371345	0.00102863	0	0	0	
0.0146667	0.00544046	0.0350788	0.000294524	0.00106991	0	0	0	
0.0148333	-0.00762744	-0.0211429	0.000268973	0.000938268	0	0	0	
0.015	0.00860034	0.0222161	0.000275448	0.000699876	0	0	0	
0.0151667	-0.00862251	-0.0318559	0.000326096	0.000533047	0	0	0	
0.0153333	0.0044272	0.045756	0.000355747	0.00059785	0	0	0	
0.0155	-0.00874199	-0.0509814	0.000328009	0.000755704	0	0	0	
0.0156667	0.00883363	0.045366	0.000273095	0.000922469	0	0	0	
0.0158333	0.00336455	-0.0376167	0.000291242	0.000956125	0	0	0	
0.016	-0.00682138	0.0323384	0.000329122	0.000895926	0	0	0	
0.0161667	-0.0015719	-0.0330721	0.000286064	0.000823916	0	0	0	
0.0163333	-0.00281033	0.0314817	0.000203897	0.000799823	0	0	0	
0.0165	0.0146774	-0.0391804	0.000206453	0.000817626	0	0	0	
0.0166667	-0.0174634	0.0528151	0.000299816	0.00088972	0	0	0	
0.0168333	0.0102054	-0.0551905	0.000384862	0.000994555	0	0	0	
0.017	-0.00238134	0.039226	0.000421835	0.00103968	0	0	0	
0.0171667	0.00155914	-0.0352774	0.000437494	0.000954769	0	0	0	
0.0173333	-0.00244722	0.042289	0.000421492	0.000860705	0	0	0	
0.0175	0.0022093	-0.0519805	0.000378696	0.000881985	0	0	0	
0.0176667	-0.00300605	0.0492179	0.000350061	0.000987909	0	0	0	
0.0178333	0.00139556	-0.0423202	0.00036355	0.000996681	0	0	0	
0.018	0.000515939	0.0393873	0.000356252	0.000932007	0	0	0	
0.0181667	-0.000470356	-0.0388603	0.0002835	0.000854952	0	0	0	
0.0183333	-0.00117882	0.0420665	0.000187169	0.000871626	0	0	0	
0.0185	0.0064592	-0.0453659	0.000153552	0.000924724	0	0	0	
0.0186667	-0.0110153	0.0434956	0.000223881	0.000953759	0	0	0	
0.0188333	0.00904615	-0.0409186	0.000349726	0.000919186	0	0	0	
0.019	-0.00805338	0.0448022	0.000460364	0.000890299	0	0	0	
0.0191667	0.00736206	-0.0494978	0.000531399	0.000899769	0	0	0	
0.0193333	-0.00726006	0.0445792	0.000554347	0.000927518	0	0	0	
0.0195	0.00412996	-0.0418553	0.000526642	0.000931807	0	0	0	
0.0196667	-0.00214755	0.0400462	0.000465916	0.000893622	0	0	0	
0.0198333	-0.00344185	-0.0407951	0.000411999	0.000870388	0	0	0	
0.02	0.00551634	0.0361695	0.000349854	0.000834127	0	0	0	
0.0201667	-0.00562595	-0.0342831	0.000273541	0.000797458	0	0	0	
0.0203333	0.00131478	0.0356326	0.000237666	0.000771868	0	0	0	
0.0205	0.00796986	-0.041523	0.00028001	0.000785285	0	0	0	
0.0206667	-0.0109331	0.0420645	0.000344391	0.000829422	0	0	0	
0.0208333	0.00418719	-0.0432282	0.000357934	0.000870761	0	0	0	
0.021	-0.00582726	0.0420898	0.000318522	0.000892222	0	0	0	
0.0211667	0.00841876	-0.0400109	0.000303754	0.000875868	0	0	0	
0.0213333	-0.0115287	0.0480513	0.00034157	0.000904614	0	0	0	
0.0215	0.017836	-0.0501099	0.000442812	0.000960872	0	0	0	
0.0216667	-0.0167134	0.0495038	0.000550078	0.00101657	0	0	0	
0.0218333	0.00643883	-0.0437359	0.000596846	0.00101477	0	0	0	
0.022	-0.000785522	0.0371542	0.000570263	0.000926839	0	0	0	
0.0221667	6.8046E-05	-0.0376531	0.000504359	0.000841379	0	0	0	
0.0223333	-0.00503173	0.0471176	0.000439193	0.000822159	0	0	0	
0.0225	0.00702298	-0.0419813	0.000417443	0.000865375	0	0	0	
0.0226667	-0.00502191	0.045918	0.000447164	0.000907094	0	0	0	
0.0228333	-0.000916934	-0.0381671	0.000493908	0.000902344	0	0	0	
0.023	0.00932393	0.0312156	0.00050214	0.000835068	0	0	0	
0.0231667	-0.0151098	-0.0266458	0.000482778	0.000766099	0	0	0	
0.0233333	0.00883715	0.0326012	0.000448962	0.000692007	0	0	0	
0.0235	-0.00480062	-0.0340823	0.00041448	0.000695606	0	0	0	
0.0236667	0.003391	0.0403406	0.000342453	0.00077239	0	0	0	
0.0238333	-0.00390096	-0.0438989	0.000272252	0.000843184	0	0	0	
0.024	0.00511204	0.044716	0.000251901	0.000899599	0	0	0	
0.0241667	0.00446042	-0.0485751	0.000283906	0.000921256	0	0	0	
0.0243333	-0.0116099	0.0527576	0.000290457	0.00100795	0	0	0	
0.0245	0.0060113	-0.0388702	0.00027603	0.00107335	0	0	0	
0.0246667	-0.00392654	0.0315494	0.000260542	0.00111944	0	0	0	
0.0248333	0.00730875	-0.032136	0.000240066	0.000990739	0	0	0	
0.025	-0.00724697	0.0453129	0.000241257	0.000906889	0	0	0	
0.0251667	0.00274437	-0.0527576	0.000215412	0.000890487	0	0	0	
0.0253333	-0.00198313	0.0505902	0.000267829	0.0010132	0	0	0	
0.0255	0.0165972	-0.0511745	0.00031007	0.00109535	0	0	0	
0.0256667	-0.0231869	0.0581324	0.000378643	0.00122476	0	0	0	
0.0258333	0.0153951	-0.0479274	0.000417825	0.00127871	0	0	0	
0.026	-0.0189815	0.0494072	0.000443111	0.00132537	0	0	0	
0.0261667	0.0247484	-0.0566266	0.000502318	0.00125555	0	0	0	
0.0263333	-0.0280359	0.0592466	0.000568344	0.00122991	0	0	0	
0.0265	0.0219517	-0.074457	0.000606546	0.00127725	0	0	0	
0.0266667	-0.00947099	0.0760996	0.0005352	0.00141498	0	0	0	
0.0268333	-0.00270339	-0.0653402	0.000426733	0.00149809	0	0	0	
0.027	0.00177015	0.0573721	0.000394327	0.00148784	0	0	0	
0.0271667	-0.00167454	-0.0610128	0.000460075	0.00134926	0	0	0	
0.0273333	-0.00199275	0.0602569	0.000572415	0.00128537	0	0	0	
0.0275	0.00298307	-0.0622944	0.000622006	0.00128092	0	0	0	
0.0276667	-0.00511489	0.0544488	0.000560941	0.00130695	0	0	0	
0.0278333	0.00312575	-0.0540044	0.000415101	0.00123038	0	0	0	
0.028	-0.00514259	0.061286	0.000291545	0.00118461	0	0	0	
0.0281667	0.0160023	-0.0696602	0.000286629	0.00117227	0	0	0	
0.0283333	-0.0204677	0.0629062	0.000363421	0.00131757	0	0	0	
0.0285	0.00928554	-0.0463898	0.000390992	0.0013574	0	0	0	
0.0286667	-0.00520114	0.0408883	0.000336015	0.00129906	0	0	0	
0.0288333	0.0118946	-0.0470743	0.000329655	0.00110834	0	0	0	
0.029	-0.00819467	0.0465305	0.000360432	0.00101184	0	0	0	
0.0291667	-0.00326116	-0.045027	0.000347432	0.00095055	0	0	0	
0.0293333	0.00794139	0.0536709	0.000324236	0.000994196	0	0	0	
0.0295	0.0066755	-0.0602995	0.000423307	0.00101731	0	0	0	
0.0296667	-0.0233218	0.0614343	0.000579582	0.00117335	0	0	0	
0.0298333	0.017315	-0.0535782	0.000622142	0.00125118	0	0	0	
0.03	-0.00755442	0.0441209	0.000514476	0.00126435	0	0	0	
0.0301667	0.02303	-0.0546222	0.000528031	0.00112379	0	0	0	
0.0303333	-0.0212271	0.0761241	0.000659289	0.00118591	0	0	0	
0.0305	0.0133156	-0.063541	0.000680641	0.00128501	0	0	0	
0.0306667	0.00454811	0.052716	0.000524345	0.00145962	0	0	0	
0.0308333	-0.00157514	-0.0468581	0.000349747	0.00137611	0	0	0	
0.031	-0.00263958	0.044804	0.00033206	0.00124871	0	0	0	
0.0311667	-0.00723431	-0.0470383	0.000361486	0.00107137	0	0	0	
0.0313333	0.0260665	0.0498773	0.000436708	0.00104298	0	0	0	
0.0315	-0.0132807	-0.0500601	0.000537618	0.000999792	0	0	0	
0.0316667	-0.00449787	0.0663646	0.000664899	0.00108745	0	0	0	
0.0318333	0.021533	-0.0690255	0.000623154	0.00116433	0	0	0	
0.032	-0.0240385	0.0607322	0.000543866	0.00131858	0	0	0	
0.0321667	0.0175775	-0.0526754	0.000452892	0.00134369	0	0	0	
0.0323333	-0.0114879	0.0528276	0.000422746	0.00129507	0	0	0	
0.0325	-0.000123938	-0.0557688	0.000340244	0.00122423	0	0	0	
0.0326667	0.00603944	0.0610257	0.000284373	0.00121731	0	0	0	
0.0328333	-0.00166965	-0.0561077	0.000376353	0.00124484	0	0	0	
0.033	-0.0113806	0.0525124	0.000569606	0.00127691	0	0	0	
0.0331667	0.0167355	-0.04893	0.000689186	0.00125659	0	0	0	
0.0333333	-0.00774137	0.0484991	0.00063463	0.00117108	0	0	0	
0.0335	0.000419701	-0.0526143	0.00048087	0.00109149	0	0	0	
0.0336667	0.00561834	0.0493618	0.000366663	0.00105898	0	0	0	
0.0338333	-0.00961987	-0.0455273	0.000301863	0.00104943	0	0	0	
0.034	0.00637537	0.0567646	0.000287734	0.00106991	0	0	0	
0.0341667	0.00490172	-0.0627145	0.000331242	0.00113085	0	0	0	
0.0343333	-0.0102719	0.0499241	0.000388737	0.00119923	0	0	0	
0.0345	0.00625942	-0.0495679	0.000395434	0.00119776	0	0	0	
0.0346667	0.00283982	0.050228	0.00031039	0.0011487	0	0	0	
0.0348333	-0.00775192	-0.0464011	0.000239778	0.00110978	0	0	0	
0.035	0.00465613	0.0300367	0.000250917	0.00110623	0	0	0	
0.0351667	-0.00127209	-0.0303737	0.000327491	0.00100292	0	0	0	
0.0353333	-0.00309788	0.0384718	0.000369487	0.000891823	0	0	0	
0.0355	0.00573789	-0.060433	0.00036451	0.000865048	0	0	0	
0.0356667	-0.00586013	0.0592159	0.000370915	0.00102302	0	0	0	
0.0358333	0.00879316	-0.0580576	0.000442836	0.00118191	0	0	0	
0.036	-0.0201711	0.0417044	0.000538346	0.00122205	0	0	0	
0.0361667	0.020468	-0.0346248	0.000562517	0.00108196	0	0	0	
0.0363333	-0.00792756	0.0412312	0.000463287	0.000966597	0	0	0	
0.0365	-0.00273892	-0.047999	0.000325061	0.000935134	0	0	0	
0.0366667	-0.00744545	0.0529876	0.000289283	0.000998088	0	0	0	
0.0368333	0.018058	-0.0666088	0.00029592	0.00113069	0	0	0	
0.037	-0.00503423	0.0432885	0.00030378	0.00122732	0	0	0	
0.0371667	-0.00139488	-0.0270681	0.000229377	0.00125562	0	0	0	
0.0373333	0.00118387	0.0217639	0.000280498	0.00113125	0	0	0	
0.0375	0.00292033	-0.0254668	0.000366796	0.000900855	0	0	0	
0.0376667	-0.0148568	0.053863	0.000454996	0.00078368	0	0	0	
0.0378333	0.0301576	-0.0809588	0.000543383	0.0009343	0	0	0	
0.038	-0.0336183	0.0699713	0.000695167	0.00124078	0	0	0	
0.0381667	0.0273763	-0.0565799	0.000838715	0.0014355	0	0	0	
0.0383333	-0.009441	0.0446992	0.00078303	0.0013651	0	0	0	
0.0385	-0.00278711	-0.0353763	0.000534704	0.00119017	0	0	0	
0.0386667	0.00929711	0.0336684	0.000325777	0.00106913	0	0	0	
0.0388333	-0.00309012	-0.027062	0.000322352	0.00100474	0	0	0	
0.039	-0.0137454	0.0399478	0.000571994	0.000919855	0	0	0	
0.0391667	0.0177064	-0.0473926	0.000861439	0.000900463	0	0	0	
0.0393333	-0.0143851	0.0518881	0.000997944	0.000909521	0	0	0	
0.0395	0.0151151	-0.0626231	0.000909118	0.00104116	0	0	0	
0.0396667	-0.00862913	0.0634639	0.000640581	0.00113224	0	0	0	
0.0398333	-0.000493847	-0.0525322	0.00039741	0.0013104	0	0	0	
0.04	0.0152678	0.039724	0.000233028	0.00136684	0	0	0	
0.0401667	-0.0278277	-0.0179162	0.000280505	0.0012242	0	0	0	
0.0403333	0.0327684	0.0114505	0.000443344	0.000938857	0	0	0	
0.0405	-0.0335952	-0.0196591	0.00075223	0.000623645	0	0	0	
0.0406667	0.00119511	0.0319094	0.00106231	0.000555428	0	0	0	
0.0408333	0.0307064	-0.058687	0.00114809	0.000626564	0	0	0	
0.041	-0.0177271	0.0374931	0.000949341	0.000855554	0	0	0	
0.0411667	0.00948568	-0.0266281	0.000603846	0.000874983	0	0	0	
0.0413333	-0.017261	0.0487529	0.000421371	0.000854855	0	0	0	
0.0415	-0.00352866	-0.0345878	0.000304411	0.000759727	0	0	0	
0.0416667	0.0309201	0.00780215	0.00034185	0.000742382	0	0	0	
0.0418333	-0.026191	-0.0233266	0.000365925	0.000698706	0	0	0	
0.042	0.00336354	0.0143304	0.000521653	0.000652618	0	0	0	
0.0421667	0.0036422	-0.0114131	0.000534543	0.000622779	0	0	0	
0.0423333	-0.00472787	0.0303253	0.000517459	0.000558996	0	0	0	
0.0425	0.0165836	-0.05062	0.000467593	0.000607177	0	0	0	
0.0426667	-0.0107007	0.0465656	0.00041705	0.000809135	0	0	0	
0.0428333	-0.0028793	-0.0490706	0.000309737	0.00114096	0	0	0	
0.043	0.00920458	0.0326227	0.000214827	0.00125468	0	0	0	
0.0431667	-0.0159923	-0.0101319	0.00024501	0.00108476	0	0	0	
0.0433333	0.0152081	0.0107062	0.000366063	0.000750096	0	0	0	
0.0435	0.00149565	-0.0275428	0.000506738	0.000568047	0	0	0	
0.0436667	-0.0207495	0.0491637	0.000602341	0.000619519	0	0	0	
0.0438333	0.03045	-0.0661144	0.000611709	0.000869079	0	0	0	
0.044	-0.0179636	0.0481589	0.000571414	0.00104834	0	0	0	
0.0441667	0.00260916	-0.0349667	0.000413507	0.00106751	0	0	0	
0.0443333	-0.00382127	0.0343246	0.000319513	0.000957823	0	0	0	
0.0445	-0.00582133	-0.0326245	0.000270659	0.00089173	0	0	0	
0.0446667	0.0107309	0.0255512	0.000348499	0.000819746	0	0	0	
0.0448333	0.00260656	-0.0263817	0.000479519	0.000714747	0	0	0	
0.045	-0.0149967	0.0248053	0.000600313	0.000600942	0	0	0	
0.0451667	0.0150953	-0.0462232	0.000620511	0.00061397	0	0	0	
0.0453333	-0.00533643	0.0519631	0.000511727	0.000791482	0	0	0	
0.0455	-0.00981919	-0.0353381	0.000339184	0.00084304	0	0	0	
0.0456667	0.00603023	0.0168702	0.00025359	0.000905152	0	0	0	
0.0458333	0.00259598	-0.0102002	0.000289819	0.000746112	0	0	0	
0.046	-0.00679101	0.0152458	0.000376277	0.000647759	0	0	0	
0.0461667	0.00783593	-0.0165407	0.000419151	0.000472723	0	0	0	
0.0463333	-0.0106081	0.0146734	0.000444229	0.000397195	0	0	0	
0.0465	0.0176104	-0.02208	0.000495542	0.00035124	0	0	0	
0.0466667	-0.0172488	0.0381007	0.0005434	0.000468894	0	0	0	
0.0468333	0.00341522	-0.0323562	0.00049131	0.000573145	0	0	0	
0.047	0.00502563	0.0285643	0.000390393	0.000725155	0	0	0	
0.0471667	-0.00105762	-0.0217276	0.000357545	0.000722566	0	0	0	
0.0473333	-0.00227957	0.0219233	0.00035076	0.000691605	0	0	0	
0.0475	-0.00526926	-0.025429	0.000321075	0.000634971	0	0	0	
0.0476667	0.0045382	0.0280598	0.000327921	0.000623137	0	0	0	
0.0478333	0.011648	-0.0277317	0.000471902	0.000598001	0	0	0	
0.048	-0.0192794	0.0308888	0.000598958	0.000622059	0	0	0	
0.0481667	0.00496697	-0.0154834	0.000519281	0.000600868	0	0	0	
0.0483333	0.0100325	0.0232965	0.000355634	0.000523211	0	0	0	
0.0485	-0.0123542	-0.0324809	0.000213034	0.000502106	0	0	0	
0.0486667	0.00773525	0.0240747	0.000279726	0.00054044	0	0	0	
0.0488333	-0.0032475	-0.0284829	0.000334804	0.000635871	0	0	0	
0.049	0.000840073	0.00999576	0.00039991	0.00060401	0	0	0	
0.0491667	0.00468662	0.0137569	0.000399813	0.000472423	0	0	0	
0.0493333	-0.0187687	0.0166989	0.000401702	0.000478104	0	0	0	
0.0495	0.0233347	-0.0238838	0.000446318	0.000527425	0	0	0	
0.0496667	-0.0185683	0.0289661	0.000454997	0.000618883	0	0	0	
0.0498333	0.0164842	-0.0376795	0.000441128	0.000657108	0	0	0	
0.05	-0.0151877	0.0239279	0.000405797	0.000652369	0	0	0	
0.0501667	0.0108022	-0.02675	0.000381141	0.000702389	0	0	0	
0.0503333	-0.00957399	0.0351135	0.000354684	0.000739374	0	0	0	
0.0505	0.00678708	-0.0221691	0.000342396	0.000768818	0	0	0	
0.0506667	-0.00809454	0.0268281	0.000380181	0.000732381	0	0	0	
0.0508333	0.0104344	-0.0315148	0.000478464	0.000679512	0	0	0	
0.051	-0.0108188	0.0291996	0.000566202	0.000636732	0	0	0	
0.0511667	0.00784436	-0.0215877	0.000588151	0.00064871	0	0	0	
0.0513333	-0.00395277	0.0265069	0.000497219	0.000593693	0	0	0	
0.0515	-0.00703076	-0.0327556	0.000343237	0.000636894	0	0	0	
0.0516667	0.0160965	0.01346	0.000261728	0.000576234	0	0	0	
0.0518333	-0.00712147	-0.0201507	0.000278638	0.000572302	0	0	0	
0.052	-0.00305992	0.0221125	0.000363051	0.000543849	0	0	0	
0.0521667	0.00670047	-0.0256422	0.000380573	0.000601218	0	0	0	
0.0523333	-0.0130183	0.0313079	0.000365914	0.000673679	0	0	0	
0.0525	0.0179748	-0.0175183	0.00036493	0.000712137	0	0	0	
0.0526667	-0.0160179	-0.000380317	0.000359014	0.000696916	0	0	0	
0.0528333	0.0105619	-0.019977	0.00034319	0.000655882	0	0	0	
0.053	-0.00393669	0.0295268	0.000277049	0.000650544	0	0	0	
0.0531667	0.0101806	-0.0341423	0.000269942	0.000705093	0	0	0	
0.0533333	-0.0257816	0.0366835	0.000376204	0.000790667	0	0	0	
0.0535	0.0259991	-0.0355393	0.000525222	0.000815173	0	0	0	
0.0536667	-0.0160214	0.0345186	0.000584081	0.000815438	0	0	0	
0.0538333	0.0145639	-0.0350844	0.00053315	0.000795083	0	0	0	
0.054	-0.024574	0.0436527	0.000494043	0.000813731	0	0	0	
0.0541667	0.019194	-0.0186099	0.000528031	0.000866986	0	0	0	
0.0543333	0.000385911	0.0229787	0.000419486	0.000822494	0	0	0	
0.0545	-0.0101268	-0.0132676	0.000299287	0.000703125	0	0	0	
0.0546667	0.016011	-0.000441549	0.000173974	0.000613368	0	0	0	
0.0548333	-0.00831065	-0.0100511	0.000242343	0.000516263	0	0	0	
0.055	-0.00707191	0.0268568	0.00039181	0.000474083	0	0	0	
0.0551667	0.0203727	-0.00686382	0.000593938	0.000454259	0	0	0	
0.0553333	-0.0268569	0.0377826	0.000674234	0.000581445	0	0	0	
0.0555	0.0205605	-0.0314029	0.000634505	0.000702503	0	0	0	
0.0556667	-0.0155151	0.018451	0.000502648	0.000753631	0	0	0	
0.0558333	0.0215517	-0.0264304	0.000482015	0.000732149	0	0	0	
0.056	-0.0152338	0.0318036	0.00046693	0.000710341	0	0	0	
0.0561667	0.00131699	-0.0278563	0.000400475	0.000750637	0	0	0	
0.0563333	0.0012145	0.0299494	0.000310444	0.000861017	0	0	0	
0.0565	-0.00622907	-0.00713499	0.00027221	0.000850059	0	0	0	
0.0566667	0.0122219	0.00508978	0.000282644	0.000732145	0	0	0	
0.0568333	-0.0167493	-0.0103795	0.000316115	0.00052807	0	0	0	
0.057	-0.00125329	0.0235715	0.00036479	0.000454882	0	0	0	
0.0571667	0.0180445	-0.040528	0.000460052	0.000522599	0	0	0	
0.0573333	-0.0116501	0.0442254	0.000458181	0.000688098	0	0	0	
0.0575	-0.00700767	-0.0377496	0.000355535	0.000926364	0	0	0	
0.0576667	0.0219934	0.0165624	0.000265653	0.00100056	0	0	0	
0.0578333	-0.00908831	-0.00663093	0.00034248	0.000845018	0	0	0	
0.058	-0.011045	0.0260019	0.000461528	0.000607645	0	0	0	
0.0581667	0.0122028	-0.0309726	0.000501297	0.00048599	0	0	0	
0.0583333	-0.0147523	0.0361208	0.000442815	0.000584975	0	0	0	
0.0585	0.0189586	-0.0337428	0.000400613	0.000726458	0	0	0	
0.0586667	-0.00840028	0.0164124	0.000367194	0.000822595	0	0	0	
0.0588333	-0.000977088	-0.00495057	0.000284721	0.000824118	0	0	0	
0.059	-0.00120924	0.010174	0.000211277	0.000713483	0	0	0	
0.0591667	0.00859468	-0.00696216	0.000314591	0.000520819	0	0	0	
0.0593333	-0.0116263	0.020929	0.000475897	0.000391992	0	0	0	
0.0595	0.00767711	-0.0218575	0.000569926	0.00036472	0	0	0	
0.0596667	-0.0070598	0.0274446	0.000513119	0.000459583	0	0	0	
0.0598333	0.0122467	-0.0298628	0.000431351	0.000587337	0	0	0	
0.06	-0.012359	0.0252405	0.000377423	0.000681689	0	0	0	
0.0601667	0.00577524	-0.0231696	0.000323831	0.000736399	0	0	0	
0.0603333	-0.00853766	0.025868	0.000289744	0.000720785	0	0	0	
0.0605	0.0105486	-0.0210674	0.000303773	0.000687089	0	0	0	
0.0606667	-0.00655628	0.0217698	0.000334166	0.000673429	0	0	0	
0.0608333	0.00599894	-0.0193026	0.000355116	0.000649851	0	0	0	
0.061	-0.0118414	0.0293947	0.000397181	0.00063348	0	0	0	
0.0611667	0.0174638	-0.0383124	0.00049511	0.00065243	0	0	0	
0.0613333	-0.0206257	0.0391792	0.000595645	0.000691913	0	0	0	
0.0615	0.0134775	-0.0282991	0.000606808	0.000728854	0	0	0	
0.0616667	-0.00876247	0.0244119	0.000514691	0.00069517	0	0	0	
0.0618333	0.00647498	-0.0166442	0.00040476	0.000625463	0	0	0	
0.062	0.000928404	0.00984967	0.000312902	0.000538078	0	0	0	
0.0621667	-0.00345601	-0.00941706	0.000295869	0.000416757	0	0	0	
0.0623333	-0.00612911	0.0231879	0.000361683	0.000340556	0	0	0	
0.0625	0.0137237	-0.0244537	0.000421039	0.000363891	0	0	0	
0.0626667	-0.01171	0.0224959	0.000422414	0.000487689	0	0	0	
0.0628333	0.00718575	-0.0168548	0.000368403	0.000619151	0	0	0	
0.063	-0.0108279	0.0138495	0.00038753	0.000651336	0	0	0	
0.0631667	0.0135451	-0.0140191	0.000428298	0.000597335	0	0	0	
0.0633333	-0.010253	0.0196446	0.000413309	0.000526025	0	0	0	
0.0635	0.00773565	-0.0234273	0.000320382	0.000517391	0	0	0	
0.0636667	-0.00678565	0.0307136	0.000236983	0.000618531	0	0	0	
0.0638333	0.00667165	-0.0312576	0.000222008	0.000729185	0	0	0	
0.064	-0.00595616	0.0216687	0.000268531	0.000799944	0	0	0	
0.0641667	0.00948095	-0.00823465	0.000341926	0.000778737	0	0	0	
0.0643333	-0.0136884	0.00244827	0.00041152	0.000705375	0	0	0	
0.0645	0.0145065	-0.0096346	0.000429655	0.000606158	0	0	0	
0.0646667	-0.0176326	0.0240765	0.000403173	0.000553538	0	0	0	
0.0648333	0.0198289	-0.0358419	0.000400255	0.000572658	0	0	0	
0.065	-0.0209853	0.0423389	0.000428875	0.000685307	0	0	0	
0.0651667	0.0150259	-0.0447453	0.000445636	0.000818992	0	0	0	
0.0653333	-0.00425142	0.0313976	0.000380726	0.000945016	0	0	0	
0.0655	0.00717651	-0.0159295	0.000334043	0.00109619	0	0	0	
0.0656667	-0.0224299	0.00826973	0.000361257	0.00112991	0	0	0	
0.0658333	0.0228024	-0.0184863	0.000467874	0.000954692	0	0	0	
0.066	-0.0200297	0.0342636	0.000540259	0.000732192	0	0	0	
0.0661667	0.0245683	-0.0385853	0.000612103	0.000609672	0	0	0	
0.0663333	-0.0251855	0.035688	0.000645329	0.000705047	0	0	0	
0.0665	0.0133991	-0.0354457	0.000604249	0.000783807	0	0	0	
0.0666667	0.000217683	0.0362323	0.000461455	0.000844902	0	0	0	
0.0668333	9.04249E-05	-0.0274512	0.000415211	0.000817057	0	0	0	
0.067	-0.00538067	0.0136691	0.000533986	0.00070396	0	0	0	
0.0671667	0.00652259	-0.0159531	0.000694694	0.000523591	0	0	0	
0.0673333	-0.0064412	0.0334805	0.000705418	0.000459496	0	0	0	
0.0675	0.0121103	-0.038277	0.000581252	0.000523499	0	0	0	
0.0676667	-0.0188731	0.0277833	0.000488804	0.000686087	0	0	0	
0.0678333	0.0215442	-0.0152354	0.000473517	0.000721675	0	0	0	
0.068	-0.0125965	0.00399561	0.000445457	0.00066094	0	0	0	
0.0681667	-0.00652736	-0.0134002	0.000361256	0.000519288	0	0	0	
0.0683333	0.0141983	0.0301367	0.000240649	0.000486733	0	0	0	
0.0685	-0.00105777	-0.0282479	0.000295141	0.000597416	0	0	0	
0.0686667	-0.0113358	0.0122172	0.000464449	0.000722647	0	0	0	
0.0688333	0.00854601	-0.0150752	0.000638429	0.000653541	0	0	0	
0.069	-0.00807686	0.0333482	0.00067762	0.000513855	0	0	0	
0.0691667	0.0187415	-0.0292496	0.000639246	0.000523657	0	0	0	
0.0693333	-0.0263259	0.0150448	0.000581017	0.00075736	0	0	0	
0.0695	0.0181746	-0.0226971	0.000517072	0.000857534	0	0	0	
0.0696667	-0.00507446	0.0364365	0.000434197	0.000822628	0	0	0	
0.0698333	0.00207175	-0.0312194	0.000324917	0.000679129	0	0	0	
0.07	-0.0155936	0.0191833	0.000349139	0.000719347	0	0	0	
0.0701667	0.0238771	-0.0037807	0.000399558	0.000716639	0	0	0	
0.0703333	-0.011532	0.0152506	0.000463103	0.000621857	0	0	0	
0.0705	0.00449612	-0.0358345	0.000376797	0.000552653	0	0	0	
0.0706667	-0.0170224	0.0200173	0.000388909	0.000547253	0	0	0	
0.0708333	0.0256386	0.00930543	0.00053929	0.000672719	0	0	0	
0.071	-0.0227152	-0.0379894	0.000730911	0.000600441	0	0	0	
0.0711667	0.0171594	0.00205004	0.000739095	0.000501356	0	0	0	
0.0713333	-0.0212767	0.0159985	0.000625595	0.000309736	0	0	0	
0.0715	0.00393566	-0.0116877	0.00045238	0.000351947	0	0	0	
0.0716667	0.002909	0.00425461	0.000299106	0.000411991	0	0	0	
0.0718333	-0.00929505	-0.0120253	0.000180532	0.000536121	0	0	0	
0.072	0.00659109	-0.014888	0.000237249	0.000668156	0	0	0	
0.0721667	0.00409563	0.00679872	0.000412639	0.000968698	0	0	0	
0.0723333	-0.025134	-0.00113566	0.000604577	0.0011369	0	0	0	
0.0725	0.0243294	-0.0106566	0.000674778	0.000942684	0	0	0	
0.0726667	-0.0267318	0.0220182	0.000617004	0.000584522	0	0	0	
0.0728333	0.0138771	-0.032241	0.000533592	0.000503647	0	0	0	
0.073	-0.0093941	0.0231589	0.000420272	0.000686364	0	0	0	
0.0731667	0.00888373	-0.0158067	0.000372239	0.000866928	0	0	0	
0.0733333	-0.00427511	0.0200461	0.000303914	0.000860742	0	0	0	
0.0735	0.000926312	-0.0131225	0.000302449	0.000688978	0	0	0	
0.0736667	-0.00404706	0.0179875	0.000363957	0.000514487	0	0	0	
0.0738333	0.00453369	-0.0194549	0.00042312	0.000451681	0	0	0	
0.074	0.000673776	0.0240026	0.000433637	0.000515967	0	0	0	
0.0741667	0.00634303	-0.0190667	0.000431668	0.000558756	0	0	0	
0.0743333	-0.0200611	0.0253202	0.000475896	0.000571145	0	0	0	
0.0745	0.0202314	-0.0248837	0.00053039	0.000564381	0	0	0	
0.0746667	-0.0116194	0.0255368	0.000502175	0.000589253	0	0	0	
0.0748333	0.00609713	-0.0221189	0.000422161	0.000601839	0	0	0	
0.075	0.000478592	0.0226444	0.000332694	0.000646846	0	0	0	
0.0751667	-0.00418422	-0.00918343	0.000274543	0.000652565	0	0	0	
0.0753333	0.00165672	0.0163078	0.000284078	0.000650945	0	0	0	
0.0755	0.00667091	-0.015728	0.000347406	0.000579972	0	0	0	
0.0756667	-0.0171471	0.0223291	0.000427995	0.000510179	0	0	0	
0.0758333	0.0223033	-0.0342073	0.000488773	0.000499153	0	0	0	
0.076	-0.0173054	0.0300276	0.000462975	0.000600953	0	0	0	
0.0761667	-0.00687636	-0.0176987	0.000430497	0.000903225	0	0	0	
0.0763333	0.0101509	0.0137996	0.00032919	0.00116679	0	0	0	
0.0765	-0.0128964	-0.0386927	0.000557858	0.00124038	0	0	0	
0.0766667	-0.0152054	0.0176097	0.000932516	0.000995665	0	0	0	
0.0768333	0.0217557	-0.0321196	0.00131557	0.000697315	0	0	0	
0.077	-0.0360327	0.0412587	0.00132571	0.000619615	0	0	0	
0.0771667	0.0488806	-0.0595279	0.00110513	0.000778897	0	0	0	
0.0773333	-0.0244246	0.0409032	0.000922506	0.0012119	0	0	0	
0.0775	-0.0382066	-0.0272352	0.000699034	0.00125591	0	0	0	
0.0776667	0.0368636	-0.0114069	0.000650548	0.00100935	0	0	0	
0.0778333	-0.0292398	-0.0114845	0.000671875	0.000476108	0	0	0	
0.078	0.0130847	0.02337	0.000787179	0.000289838	0	0	0	
0.0781667	0.0116984	-0.037316	0.000831955	0.000373551	0	0	0	
0.0783333	-0.0325159	0.0409041	0.000824499	0.00061318	0	0	0	
0.0785	0.0289536	-0.0213834	0.000772479	0.00080615	0	0	0	
0.0786667	-0.00537668	0.0126964	0.000616679	0.000874696	0	0	0	
0.0788333	-0.00560789	-0.00873193	0.000357574	0.000689796	0	0	0	
0.079	-0.000688766	0.0189497	0.000248195	0.000551355	0	0	0	
0.0791667	0.00495189	-0.0184637	0.00022189	0.000529595	0	0	0	
0.0793333	-0.0113148	0.0233759	0.000307734	0.000646576	0	0	0	
0.0795	0.0213344	-0.0222991	0.000392839	0.000689562	0	0	0	
0.0796667	-0.0272008	0.0209967	0.000509577	0.000665216	0	0	0	
0.0798333	0.0250637	-0.0159398	0.000612506	0.000601337	0	0	0	
0.08	-0.0233696	0.0306365	0.000630764	0.000603566	0	0	0	
0.0801667	0.0190537	-0.0314132	0.000587962	0.000656438	0	0	0	
0.0803333	-0.0101876	0.0230284	0.000489381	0.000713654	0	0	0	
0.0805	0.00946795	-0.0191951	0.000401054	0.000654375	0	0	0	
0.0806667	-0.0146335	0.0234703	0.000376802	0.000603623	0	0	0	
0.0808333	0.0139371	-0.0193939	0.00039734	0.000613043	0	0	0	
0.081	-0.0122216	0.0191479	0.00041218	0.000645338	0	0	0	
0.0811667	0.00994975	-0.0193435	0.000409751	0.000630012	0	0	0	
0.0813333	-0.00996728	0.0104365	0.000419252	0.000558053	0	0	0	
0.0815	0.00785176	-0.00557751	0.000429758	0.000515359	0	0	0	
0.0816667	-0.00577215	0.0120692	0.000406992	0.000477061	0	0	0	
0.0818333	0.00526997	-0.0160939	0.000389025	0.000489907	0	0	0	
0.082	-0.00959216	0.0139921	0.000405705	0.000498677	0	0	0	
0.0821667	0.012961	-0.0185059	0.000444925	0.000514198	0	0	0	
0.0823333	-0.0114124	0.0215296	0.000434046	0.000538965	0	0	0	
0.0825	0.00552276	-0.0130222	0.000359171	0.00061096	0	0	0	
0.0826667	-0.00286796	0.00673098	0.000259984	0.000719431	0	0	0	
0.0828333	0.00979257	-0.0137182	0.000242156	0.00079132	0	0	0	
0.083	-0.0184118	0.0182704	0.00030064	0.000784327	0	0	0	
0.0831667	0.0209272	-0.0206248	0.000391977	0.000722573	0	0	0	
0.0833333	-0.0230969	0.0251846	0.000437343	0.000708458	0	0	0	
0.0835	0.0167421	-0.0268509	0.000451073	0.000751105	0	0	0	
0.0836667	-0.00507899	0.0306822	0.000403667	0.000808715	0	0	0	
0.0838333	0.0154567	-0.0339678	0.000412664	0.000836162	0	0	0	
0.084	-0.0253991	0.0289255	0.000506564	0.000830226	0	0	0	
0.0841667	0.0163114	-0.0214287	0.000624744	0.000787991	0	0	0	
0.0843333	-0.0152839	0.0189699	0.00063842	0.00070035	0	0	0	
0.0845	0.0148594	-0.0217643	0.000569864	0.000620103	0	0	0	
0.0846667	-0.00612503	0.0195786	0.000453141	0.000605045	0	0	0	
0.0848333	0.00367894	-0.0167041	0.000335864	0.000667321	0	0	0	
0.085	-0.00796408	0.0160159	0.000282917	0.000709053	0	0	0	
0.0851667	0.0135559	-0.02822	0.000335101	0.00071836	0	0	0	
0.0853333	-0.0156084	0.02446	0.000395816	0.000706047	0	0	0	
0.0855	0.00924952	-0.0181972	0.000373012	0.000771288	0	0	0	
0.0856667	-0.00832822	0.0241074	0.000287252	0.000819075	0	0	0	
0.0858333	0.0175105	-0.0343243	0.000294074	0.000861006	0	0	0	
0.086	-0.0232637	0.03215	0.000383724	0.000862854	0	0	0	
0.0861667	0.0226927	-0.0299867	0.000497622	0.000855703	0	0	0	
0.0863333	-0.0184293	0.0288584	0.000536916	0.000812967	0	0	0	
0.0865	0.0130538	-0.0334742	0.000488775	0.000761915	0	0	0	
0.0866667	-0.0123935	0.033082	0.000422077	0.000761109	0	0	0	
0.0868333	0.0126804	-0.027339	0.000378946	0.000783523	0	0	0	
0.087	-0.00832021	0.0214241	0.000346853	0.000801233	0	0	0	
0.0871667	0.0108403	-0.0213864	0.000339115	0.000737651	0	0	0	
0.0873333	-0.0189064	0.027696	0.000396464	0.000665563	0	0	0	
0.0875	0.0220573	-0.0354833	0.000490946	0.000621823	0	0	0	
0.0876667	-0.016463	0.0283232	0.000510507	0.000672829	0	0	0	
0.0878333	0.0089636	-0.0241532	0.000427913	0.000749542	0	0	0	
0.088	-0.0056695	0.024406	0.000288953	0.000850849	0	0	0	
0.0881667	0.00934591	-0.0214149	0.000220368	0.00086308	0	0	0	
0.0883333	-0.00268562	0.013928	0.000187344	0.000760646	0	0	0	
0.0885	0.00197084	-0.0242378	0.000200959	0.000612602	0	0	0	
0.0886667	-0.015244	0.027129	0.000320021	0.000562082	0	0	0	
0.0888333	0.0279598	-0.0339667	0.000492778	0.000614109	0	0	0	
0.089	-0.0269279	0.0367574	0.000621245	0.000727621	0	0	0	
0.0891667	0.0200674	-0.0265443	0.000604474	0.000772636	0	0	0	
0.0893333	-0.0172716	0.0150302	0.000516949	0.000760155	0	0	0	
0.0895	0.0178663	-0.0239652	0.000478965	0.000653578	0	0	0	
0.0896667	-0.0144206	0.0302813	0.00050202	0.000597529	0	0	0	
0.0898333	0.0112217	-0.026977	0.000530575	0.000570235	0	0	0	
0.09	-0.00982777	0.0242581	0.000506398	0.000639724	0	0	0	
0.0901667	0.0071647	-0.0173238	0.000433115	0.000681597	0	0	0	
0.0903333	-0.00674704	0.0150908	0.000356993	0.000721657	0	0	0	
0.0905	0.00202003	-0.011369	0.000298479	0.000651362	0	0	0	
0.0906667	0.00320052	0.0132474	0.000261579	0.000566944	0	0	0	
0.0908333	-0.000408877	-0.0150478	0.000287164	0.00051114	0	0	0	
0.091	-0.0040334	0.0193576	0.000359385	0.000523784	0	0	0	
0.0911667	0.00591719	-0.0195248	0.000420247	0.00054087	0	0	0	
0.0913333	-0.00612751	0.0221855	0.000429949	0.000553676	0	0	0	
0.0915	0.0116168	-0.0231874	0.000413521	0.00057321	0	0	0	
0.0916667	-0.0130392	0.0256268	0.000404755	0.0006344	0	0	0	
0.0918333	0.00255119	-0.0170006	0.000359942	0.000668999	0	0	0	
0.092	0.00125584	0.0164013	0.000279346	0.000657092	0	0	0	
0.0921667	0.000263687	-0.0167373	0.00022998	0.000618825	0	0	0	
0.0923333	-0.00542026	0.0155881	0.000201892	0.000654806	0	0	0	
0.0925	0.00898174	-0.00877666	0.00021043	0.000690926	0	0	0	
0.0926667	-0.0105004	0.0118682	0.00023503	0.000650835	0	0	0	
0.0928333	0.0128044	-0.0150333	0.000311328	0.00053667	0	0	0	
0.093	-0.0141028	0.020097	0.000379762	0.000482082	0	0	0	
0.0931667	0.0120274	-0.0263161	0.000400672	0.00053838	0	0	0	
0.0933333	-0.0166923	0.031557	0.000394057	0.00065042	0	0	0	
0.0935	0.015218	-0.026111	0.000405858	0.000707901	0	0	0	
0.0936667	-0.00925827	0.0203251	0.000406686	0.00072575	0	0	0	
0.0938333	0.00864413	-0.0167794	0.000391139	0.00071573	0	0	0	
0.094	-0.00916788	0.0164428	0.00034742	0.000719851	0	0	0	
0.0941667	0.00526894	-0.0158328	0.000289806	0.000709873	0	0	0	
0.0943333	-0.00682778	0.0155769	0.000241503	0.000677681	0	0	0	
0.0945	0.0119859	-0.0163256	0.000247934	0.00063436	0	0	0	
0.0946667	-0.0135389	0.0188272	0.000320715	0.00058626	0	0	0	
0.0948333	0.0134934	-0.0249884	0.000415243	0.000574819	0	0	0	
0.095	-0.0159028	0.0294002	0.000501627	0.000608167	0	0	0	
0.0951667	0.0165337	-0.0253736	0.000561209	0.000647346	0	0	0	
0.0953333	-0.019828	0.0257135	0.000569743	0.000704748	0	0	0	
0.0955	0.0169303	-0.0226481	0.000531318	0.000736011	0	0	0	
0.0956667	-0.00670525	0.0174095	0.000436544	0.000748665	0	0	0	
0.0958333	-0.000301344	-0.0136145	0.000336031	0.000703237	0	0	0	
0.096	-0.000248498	0.0158628	0.000273711	0.000637724	0	0	0	
0.0961667	0.00628468	-0.0186619	0.000269171	0.000617367	0	0	0	
0.0963333	-0.0140917	0.0234438	0.000290862	0.000648736	0	0	0	
0.0965	0.0153386	-0.0232442	0.000316979	0.000676528	0	0	0	
0.0966667	-0.0168564	0.0262665	0.00034047	0.000704556	0	0	0	
0.0968333	0.0166861	-0.025169	0.000398992	0.000735216	0	0	0	
0.097	-0.0110665	0.0221974	0.000429249	0.000762774	0	0	0	
0.0971667	0.0103512	-0.0218984	0.000444903	0.000764391	0	0	0	
0.0973333	-0.0115609	0.0178656	0.000444733	0.000706069	0	0	0	
0.0975	0.00887598	-0.0136008	0.000429932	0.000649115	0	0	0	
0.0976667	-0.00734406	0.0175386	0.00040633	0.000605566	0	0	0	
0.0978333	0.00451234	-0.0198927	0.000392788	0.000598296	0	0	0	
0.098	-0.00402014	0.016923	0.000395869	0.0005853	0	0	0	
0.0981667	0.00432363	-0.020287	0.000386375	0.000600239	0	0	0	
0.0983333	-0.00545599	0.0195566	0.000328174	0.000627513	0	0	0	
0.0985	0.0133656	-0.0209235	0.000264095	0.000718824	0	0	0	
0.0986667	-0.0171258	0.0223283	0.000264435	0.000799217	0	0	0	
0.0988333	0.00964436	-0.0164103	0.00028683	0.00083763	0	0	0	
0.099	-0.00601013	0.0120082	0.000278096	0.000794975	0	0	0	
0.0991667	0.00217028	-0.0139769	0.000253819	0.000704855	0	0	0	
0.0993333	-0.00439012	0.0120102	0.00027498	0.000598161	0	0	0	
0.0995	0.0101996	-0.0192466	0.000333112	0.000535472	0	0	0	
0.0996667	-0.0136852	0.0285737	0.000383074	0.000541221	0	0	0	
0.0998333	0.018108	-0.0317038	0.000411133	0.000634079	0	0	0	
0.1	-0.0205478	0.0267303	0.000437818	0.000732633	0	0	0	
0.100167	0.0172591	-0.0229408	0.000446077	0.000774462	0	0	0	
0.100333	-0.0143947	0.0223818	0.000418383	0.000777571	0	0	0	
0.1005	0.0152425	-0.0216704	0.000390821	0.000770267	0	0	0	
0.100667	-0.0199449	0.0201715	0.000376203	0.000770699	0	0	0	
0.100833	0.0201921	-0.0191317	0.000415991	0.000725336	0	0	0	
0.101	-0.0187332	0.0243668	0.000457033	0.000684226	0	0	0	
0.101167	0.0170006	-0.0248726	0.000492006	0.000640949	0	0	0	
0.101333	-0.0126306	0.0217954	0.000488175	0.000659332	0	0	0	
0.1015	0.00806522	-0.0167573	0.000500619	0.000637424	0	0	0	
0.101667	-0.00908048	0.0181583	0.000544787	0.000578181	0	0	0	
0.101833	0.00889323	-0.0163831	0.00059964	0.000502823	0	0	0	
0.102	-0.00606136	0.0139952	0.000597037	0.000518406	0	0	0	
0.102167	0.00621545	-0.0131828	0.000511765	0.000555652	0	0	0	
0.102333	-0.00640359	0.0177491	0.000391587	0.000556152	0	0	0	
0.1025	0.00703584	-0.017239	0.000313514	0.00051896	0	0	0	
0.102667	-0.00784218	0.0155569	0.000307509	0.000488943	0	0	0	
0.102833	0.00649617	-0.0218574	0.000329261	0.000544375	0	0	0	
0.103	-0.00810782	0.0241459	0.00033474	0.000604801	0	0	0	
0.103167	0.0121688	-0.0255515	0.000333227	0.000690925	0	0	0	
0.103333	-0.0146469	0.0189691	0.000339504	0.000723362	0	0	0	
0.1035	0.0109904	-0.00406294	0.000338873	0.000801528	0	0	0	
0.103667	0.000600619	-0.0116442	0.000292661	0.000890181	0	0	0	
0.103833	-0.00403112	0.0086249	0.000266642	0.000865308	0	0	0	
0.104	-0.00613963	-0.00176073	0.000302289	0.000668283	0	0	0	
0.104167	0.00958409	-0.00921153	0.000357429	0.000464844	0	0	0	
0.104333	-0.0112671	0.0168883	0.000351147	0.000418162	0	0	0	
0.1045	0.0157277	-0.0284386	0.00033069	0.000521674	0	0	0	
0.104667	-0.0189996	0.0363699	0.00035546	0.000689368	0	0	0	
0.104833	0.0234556	-0.0300502	0.000428637	0.000853936	0	0	0	
0.105	-0.0206339	0.0227015	0.000475262	0.000972921	0	0	0	
0.105167	0.0160766	-0.0202029	0.000468404	0.000958435	0	0	0	
0.105333	-0.0182377	0.0204945	0.000455025	0.000855112	0	0	0	
0.1055	0.0165428	-0.0222946	0.000448876	0.000764655	0	0	0	
0.105667	-0.0102187	0.0202	0.00043914	0.000724656	0	0	0	
0.105833	0.00887428	-0.00557586	0.000431687	0.000665273	0	0	0	
0.106	-0.0126017	-0.00605294	0.000467175	0.000559303	0	0	0	
0.106167	0.025491	-0.0231303	0.000564713	0.00048477	0	0	0	
0.106333	-0.0328012	0.032646	0.000675942	0.000517459	0	0	0	
0.1065	0.0276918	-0.044613	0.000697771	0.000651388	0	0	0	
0.106667	-0.0209062	0.0364176	0.000627661	0.00079895	0	0	0	
0.106833	0.0112494	-0.0251725	0.000496314	0.00085617	0	0	0	
0.107	-0.00501066	0.0221344	0.000357141	0.00090437	0	0	0	
0.107167	0.00435092	-0.0332214	0.000278483	0.00098942	0	0	0	
0.107333	-0.00486828	0.0112519	0.000287804	0.000981263	0	0	0	
0.1075	0.00820659	-0.0132203	0.000378233	0.000809804	0	0	0	
0.107667	-0.0175232	0.0199165	0.000481739	0.000577821	0	0	0	
0.107833	0.021836	-0.0186755	0.000548677	0.000434283	0	0	0	
0.108	-0.0221216	0.030091	0.00055175	0.000464205	0	0	0	
0.108167	0.0177033	-0.0289827	0.000509752	0.000500702	0	0	0	
0.108333	-0.0155808	0.0289761	0.000459125	0.000590672	0	0	0	
0.1085	0.0163948	-0.0342128	0.000447877	0.000660358	0	0	0	
0.108667	-0.0196848	0.0385297	0.000450935	0.000779326	0	0	0	
0.108833	0.0134692	-0.0219725	0.000433334	0.000854913	0	0	0	
0.109	-0.00768065	0.0150795	0.000378904	0.000834067	0	0	0	
0.109167	0.0128561	-0.0104906	0.000358594	0.000706227	0	0	0	
0.109333	-0.0142256	0.0120044	0.000371733	0.000609842	0	0	0	
0.1095	0.00673253	-0.01539	0.000372269	0.000542186	0	0	0	
0.109667	-0.00582983	0.0238211	0.000334228	0.000514189	0	0	0	
0.109833	0.00936806	-0.0233534	0.000312451	0.000514034	0	0	0	
0.11	-0.0130895	0.0172231	0.000321495	0.000536124	0	0	0	
0.110167	0.014194	-0.0149301	0.00033628	0.000566561	0	0	0	
0.110333	-0.00924187	0.014395	0.000324373	0.00057049	0	0	0	
0.1105	0.00486006	-0.0196726	0.000302563	0.000593465	0	0	0	
0.110667	-0.00851625	0.0291983	0.000314892	0.00066931	0	0	0	
0.110833	0.0145976	-0.00928925	0.000358891	0.000677853	0	0	0	
0.111	-0.0188492	0.0148147	0.000424226	0.000688506	0	0	0	
0.111167	0.0192785	-0.0253391	0.000481881	0.00066164	0	0	0	
0.111333	-0.018928	0.0192212	0.000537998	0.000645611	0	0	0	
0.1115	0.0201089	-0.0219552	0.00058685	0.00059831	0	0	0	
0.111667	-0.0181103	0.0252958	0.000591537	0.000534186	0	0	0	
0.111833	0.00707511	-0.0174089	0.000520992	0.000479563	0	0	0	
0.112	-0.000215031	0.0287855	0.00040173	0.000529193	0	0	0	
0.112167	-0.00203854	-0.0234558	0.000296667	0.000667599	0	0	0	
0.112333	0.00244986	0.00169465	0.000239901	0.000784342	0	0	0	
0.1125	0.00404258	-8.12803E-05	0.000234529	0.000775582	0	0	0	
0.112667	-0.0131969	0.0103224	0.000249492	0.00065808	0	0	0	
0.112833	0.0195217	-0.0219496	0.000292422	0.000623965	0	0	0	
0.113	-0.0191881	0.0367495	0.000351161	0.000658071	0	0	0	
0.113167	0.0181865	-0.0359986	0.000397066	0.000757979	0	0	0	
0.113333	-0.0222193	0.0275668	0.000425229	0.000801002	0	0	0	
0.1135	0.0270667	-0.0242758	0.000486704	0.000807424	0	0	0	
0.113667	-0.0290986	0.0275779	0.000574702	0.000769652	0	0	0	
0.113833	0.0259744	-0.0266246	0.000644352	0.00079021	0	0	0	
0.114	-0.0173898	0.0273695	0.000652115	0.000763867	0	0	0	
0.114167	0.0124175	-0.0185237	0.000602876	0.000665547	0	0	0	
0.114333	-0.00574052	0.0105788	0.000521287	0.000492882	0	0	0	
0.1145	0.000816523	-0.0111848	0.000438975	0.000417299	0	0	0	
0.114667	-0.00501682	0.0156727	0.000403171	0.000438716	0	0	0	
0.114833	0.00889396	-0.0232301	0.000392597	0.000543652	0	0	0	
0.115	-0.00992013	0.0238855	0.000369812	0.000589243	0	0	0	
0.115167	0.00612846	-0.0221494	0.000306568	0.000638283	0	0	0	
0.115333	-0.00303613	-0.00732555	0.00021262	0.000759898	0	0	0	
0.1155	0.00401583	0.0554917	0.000152712	0.000878636	0	0	0	
0.115667	-0.0117965	-0.0121051	0.000162015	0.000965898	0	0	0	
0.115833	0.0241758	-0.0117716	0.000273461	0.000704482	0	0	0	
0.116	-0.0196725	0.0156697	0.000396372	0.000481274	0	0	0	
0.116167	0.0112879	-0.0163197	0.000424864	0.000296341	0	0	0	
0.116333	-0.011701	0.00979717	0.000378975	0.000373876	0	0	0	
0.1165	0.0132864	0.00519062	0.000351191	0.000489771	0	0	0	
0.116667	-0.0164299	0.0210432	0.000380466	0.000727644	0	0	0	
0.116833	0.0157096	0.000994023	0.000419625	0.00089631	0	0	0	
0.117	-0.00733289	-0.00767282	0.000387999	0.00087362	0	0	0	
0.117167	0.0086495	-0.00454251	0.000310067	0.000700183	0	0	0	
0.117333	-0.0124585	0.0107263	0.000262908	0.000605917	0	0	0	
0.1175	0.0150321	-0.0267872	0.000278958	0.000613011	0	0	0	
0.117667	-0.0203179	0.0261721	0.000364324	0.000526238	0	0	0	
0.117833	0.0192398	-0.0512495	0.000420341	0.000640934	0	0	0	
0.118	-0.0215961	0.0328855	0.000452966	0.000809179	0	0	0	
0.118167	0.0185132	-0.0255915	0.000466698	0.00107563	0	0	0	
0.118333	-0.0136785	-0.00346793	0.000459806	0.00102791	0	0	0	
0.1185	0.0105876	0.02719	0.000458849	0.000713368	0	0	0	
0.118667	-0.0136972	-0.0339877	0.000520997	0.000734608	0	0	0	
0.118833	0.0264073	-0.0513593	0.000647898	0.000835594	0	0	0	
0.119	-0.0341057	0.0572346	0.000760297	0.00118918	0	0	0	
0.119167	0.0217502	-0.053873	0.00071474	0.00111071	0	0	0	
0.119333	-0.00859198	0.02611	0.000560786	0.00106759	0	0	0	
0.1195	-0.00585492	0.0185502	0.000342154	0.0010693	0	0	0	
0.119667	0.00390894	-0.0455326	0.00025727	0.00105489	0	0	0	
0.119833	0.00449423	0.00389368	0.00032132	0.000845079	0	0	0	
0.12	-0.00452753	0.0100069	0.000466993	0.000583441	0	0	0	
0.120167	0.00880895	-0.0126996	0.000568852	0.000313815	0	0	0	
0.120333	-0.0203274	0.0154016	0.000562181	0.000306601	0	0	0	
0.1205	0.01932	-0.0180728	0.000510483	0.000344564	0	0	0	
0.120667	-0.0113715	0.00721281	0.000415954	0.000499642	0	0	0	
0.120833	0.00403432	0.00158194	0.000313662	0.000566496	0	0	0	
0.121	-0.00557126	-0.000996725	0.00023963	0.000528734	0	0	0	
0.121167	0.0150265	-0.0125227	0.000229002	0.000467003	0	0	0	
0.121333	-0.0217863	0.0200328	0.000286557	0.000486036	0	0	0	
0.1215	0.020073	-0.0173532	0.000365272	0.000585797	0	0	0	
0.121667	-0.0206863	0.0138211	0.000421701	0.000666171	0	0	0	
0.121833	0.0228685	-0.00988415	0.000458629	0.000686212	0	0	0	
0.122	-0.0151683	0.0167433	0.00044256	0.000686168	0	0	0	
0.122167	0.0110655	-0.0399575	0.000396048	0.000697885	0	0	0	
0.122333	-0.0189485	0.0143559	0.000366759	0.000911051	0	0	0	
0.1225	0.0168433	-0.0586594	0.000378835	0.0008418	0	0	0	
0.122667	-0.012346	0.0410687	0.000387778	0.000977481	0	0	0	
0.122833	0.00580654	-0.0283641	0.000406178	0.000838345	0	0	0	
0.123	-0.0182928	0.0287786	0.000515586	0.000938178	0	0	0	
0.123167	0.0303901	0.00420643	0.000657092	0.000702381	0	0	0	
0.123333	-0.0242159	-0.0557151	0.000697966	0.000545469	0	0	0	
0.1235	0.0146019	0.00426343	0.000569345	0.000570242	0	0	0	
0.123667	-0.0135161	0.0101088	0.000423708	0.000514248	0	0	0	
0.123833	0.00344774	-0.0209171	0.000308295	0.000469641	0	0	0	
0.124	-0.00617438	0.0337408	0.000237488	0.000433538	0	0	0	
0.124167	0.00435292	-0.0140137	0.000234233	0.00054904	0	0	0	
0.124333	-0.0143376	0.0189239	0.00029848	0.000626065	0	0	0	
0.1245	0.0263331	-0.0167571	0.000405104	0.000579649	0	0	0	
0.124667	-0.0217858	0.0099666	0.000466142	0.000680604	0	0	0	
0.124833	0.00968245	-0.00756926	0.000433709	0.00080056	0	0	0	
0.125	-0.00847447	0.0133195	0.000354661	0.000799176	0	0	0	
0.125167	0.00790905	-0.0128626	0.000315777	0.0006457	0	0	0	
0.125333	-0.0209956	0.027361	0.000337795	0.0005229	0	0	0	
0.1255	0.0257266	-0.0360429	0.000441528	0.000568438	0	0	0	
0.125667	-0.024628	0.0331269	0.000505737	0.000730427	0	0	0	
0.125833	0.0245778	-0.0268473	0.000545779	0.000899801	0	0	0	
0.126	-0.0198795	0.0179085	0.000519212	0.000953779	0	0	0	
0.126167	0.0157915	-0.0188062	0.000472322	0.000905446	0	0	0	
0.126333	-0.0171604	0.0169427	0.000461052	0.00075101	0	0	0	
0.1265	0.0141911	-0.0147583	0.000499214	0.000596952	0	0	0	
0.126667	-0.0123969	0.016686	0.000537223	0.000523462	0	0	0	
0.126833	0.00864147	-0.00967385	0.000523286	0.000507678	0	0	0	
0.127	-0.00322742	0.00760864	0.000430096	0.000522958	0	0	0	
0.127167	0.00372878	-0.00786977	0.000315052	0.00053355	0	0	0	
0.127333	-0.00751603	0.00823709	0.000226442	0.000562843	0	0	0	
0.1275	0.0105925	-0.0101542	0.000186734	0.000612179	0	0	0	
0.127667	-0.0152373	0.00640318	0.00021364	0.000632839	0	0	0	
0.127833	0.0100485	-0.00473339	0.000257652	0.000617902	0	0	0	
0.128	-0.0148987	0.0171669	0.000307298	0.000598762	0	0	0	
0.128167	0.0248458	-0.0153565	0.000378658	0.000612003	0	0	0	
0.128333	-0.00757669	0.0275656	0.000405235	0.000605438	0	0	0	
0.1285	0.00683126	-0.112975	0.000504124	0.000835196	0	0	0	
0.128667	-0.131453	0.103286	0.00117413	0.00144386	0	0	0	
0.128833	0.247719	0.285962	0.002018	0.00391299	0	0	0	
0.129	-0.467289	-1.80884	0.00591435	0.0091387	0	0	0	
0.129167	0.266664	1.34328	0.0110472	0.0189176	0	0	0	
0.129333	0.139694	-1.93459	0.0129456	0.028645	0	0	0	
0.1295	-0.146531	2.39152	0.0097091	0.0377051	0	0	0	
0.129667	0.0499644	-2.70498	0.00443514	0.04614	0	0	0	
0.129833	0.0944589	2.80506	0.00246753	0.0528584	0	0	0	
0.13	-0.530979	-3.03158	0.00349643	0.0593911	0	0	0	
0.130167	0.620991	1.92112	0.00878828	0.0639107	0	0	0	
0.130333	-0.266668	-2.26386	0.0104637	0.063247	0	0	0	
0.1305	0.062812	1.50255	0.00961087	0.0624603	0	0	0	
0.130667	0.0196839	-1.20028	0.00438771	0.0588493	0	0	0	
0.130833	0.0438999	1.31486	0.00199314	0.0638248	0	0	0	
0.131	-0.110314	-1.62158	0.00146668	0.0697694	0	0	0	
0.131167	0.0979804	2.06672	0.00141936	0.0770524	0	0	0	
0.131333	-0.016344	-2.58553	0.00215928	0.0798541	0	0	0	
0.1315	-0.0354084	2.54436	0.00223053	0.0810625	0	0	0	
0.131667	0.0120154	-2.77291	0.00166679	0.0791884	0	0	0	
0.131833	0.00776303	2.60649	0.000836624	0.0808906	0	0	0	
0.132	0.00236254	-2.38537	0.000348821	0.0786374	0	0	0	
0.132167	-0.233406	1.09519	0.000896793	0.0792996	0	0	0	
0.132333	0.251034	-0.00361353	0.00255913	0.0719956	0	0	0	
0.1325	-0.159136	0.242257	0.00471123	0.0639026	0	0	0	
0.132667	0.0205084	-1.53734	0.00442294	0.05896	0	0	0	
0.132833	0.0379344	2.00306	0.003281	0.0673099	0	0	0	
0.133	-0.0471598	-2.61331	0.00162358	0.0802647	0	0	0	
0.133167	-0.0512318	2.26467	0.00151369	0.0884078	0	0	0	
0.133333	-0.0203637	-2.63642	0.00202937	0.0810169	0	0	0	
0.1335	-0.0321007	3.37843	0.00270904	0.0719172	0	0	0	
0.133667	-0.0960327	-3.38041	0.0041499	0.0706891	0	0	0	
0.133833	-0.03616	2.3052	0.00351959	0.076549	0	0	0	
0.134	0.0643607	-2.34191	0.00253151	0.082187	0	0	0	
0.134167	-0.046688	2.25909	0.00118314	0.0831206	0	0	0	
0.134333	0.0256737	-2.43307	0.00101091	0.08375	0	0	0	
0.1345	-0.0200816	2.10734	0.000899124	0.0850811	0	0	0	
0.134667	0.0197717	-2.23352	0.000662751	0.0833144	0	0	0	
0.134833	-0.000434081	2.2261	0.000401866	0.0838328	0	0	0	
0.135	-0.0180502	-2.5257	0.000425244	0.0846495	0	0	0	
0.135167	0.0216368	2.47847	0.000503038	0.0872733	0	0	0	
0.135333	-0.0211104	-2.62718	0.000644543	0.0876682	0	0	0	
0.1355	0.0205595	2.40952	0.00063643	0.0879842	0	0	0	
0.135667	-0.0165173	-2.5405	0.000539064	0.0866273	0	0	0	
0.135833	0.0153883	2.48086	0.000471173	0.0868316	0	0	0	
0.136	-0.00272833	-2.6319	0.00035638	0.0866953	0	0	0	
0.136167	-0.00864584	2.52657	0.000267415	0.0876994	0	0	0	
0.136333	0.00554479	-2.56261	0.000170447	0.0874227	0	0	0	
0.1365	0.00849007	2.44164	0.000172806	0.0871985	0	0	0	
0.136667	-0.0200867	-2.58791	0.000247308	0.0861267	0	0	0	
0.136833	0.0324953	2.5227	0.000386585	0.0863899	0	0	0	
0.137	-0.0379031	-2.5732	0.000539839	0.0866321	0	0	0	
0.137167	0.0297958	2.48495	0.000646377	0.0873352	0	0	0	
0.137333	-0.0223805	-2.55369	0.000643196	0.0868896	0	0	0	
0.1375	0.0242537	2.53448	0.000593257	0.0868589	0	0	0	
0.137667	-0.022708	-2.65312	0.000573396	0.0867892	0	0	0	
0.137833	0.0197522	2.55854	0.000573826	0.0872851	0	0	0	
0.138	-0.0118418	-2.59422	0.000530581	0.0871294	0	0	0	
0.138167	0.00326526	2.51233	0.000428524	0.0870981	0	0	0	
0.138333	-0.00485106	-2.6321	0.000348739	0.0863131	0	0	0	
0.1385	0.0103352	2.52759	0.000328628	0.0862197	0	0	0	
0.138667	-0.0129352	-2.57622	0.000355764	0.0858414	0	0	0	
0.138833	0.0126521	2.49603	0.000377554	0.086308	0	0	0	
0.139	-0.0103613	-2.61109	0.000364959	0.0861636	0	0	0	
0.139167	0.0124207	2.55076	0.000333926	0.0865922	0	0	0	
0.139333	-0.0177894	-2.69004	0.000324202	0.0861894	0	0	0	
0.1395	0.0221824	2.56743	0.000368457	0.0863611	0	0	0	
0.139667	-0.0244062	-2.65228	0.000440467	0.0856986	0	0	0	
0.139833	0.0180776	2.52608	0.000481547	0.0859335	0	0	0	
0.14	-0.00797432	-2.66451	0.000427663	0.0853784	0	0	0	
0.140167	0.00528627	2.61485	0.000349586	0.0860481	0	0	0	
0.140333	-0.0149664	-2.73825	0.000340478	0.0862823	0	0	0	
0.1405	0.0223108	2.64345	0.000406862	0.087263	0	0	0	
0.140667	-0.0206245	-2.73355	0.000481976	0.0868247	0	0	0	
0.140833	0.0158313	2.5438	0.000496399	0.0865246	0	0	0	
0.141	-0.00973945	-2.66497	0.000462669	0.0850504	0	0	0	
0.141167	0.00287815	2.62013	0.000398659	0.0852487	0	0	0	
0.141333	-0.0064579	-2.69782	0.00034148	0.0855777	0	0	0	
0.1415	0.0110704	2.61485	0.00030223	0.0869121	0	0	0	
0.141667	-0.00872241	-2.73989	0.000272416	0.0867405	0	0	0	
0.141833	0.00498793	2.63414	0.000243647	0.0866933	0	0	0	
0.142	-0.0115936	-2.7894	0.000255575	0.0856848	0	0	0	
0.142167	0.01873	2.64758	0.000301832	0.0858784	0	0	0	
0.142333	-0.0218058	-2.70357	0.000363938	0.0854947	0	0	0	
0.1425	0.0250554	2.67076	0.000416936	0.0864855	0	0	0	
0.142667	-0.0280451	-2.8008	0.000478531	0.0867112	0	0	0	
0.142833	0.0142811	2.71729	0.000502476	0.087423	0	0	0	
0.143	-0.00539565	-2.79322	0.000422382	0.0871205	0	0	0	
0.143167	0.00557325	2.71573	0.000342424	0.0872317	0	0	0	
0.143333	-0.0120524	-2.82742	0.00031171	0.0868598	0	0	0	
0.1435	0.0193542	2.75117	0.000341512	0.0873405	0	0	0	
0.143667	-0.0171742	-2.77214	0.000368945	0.0872372	0	0	0	
0.143833	0.0101996	2.70818	0.00034709	0.0874297	0	0	0	
0.144	-0.0129133	-2.76936	0.000333977	0.0871217	0	0	0	
0.144167	0.0156717	2.7379	0.000335263	0.0873058	0	0	0	
0.144333	-0.0253857	-2.7997	0.000368217	0.0872533	0	0	0	
0.1445	0.0310726	2.70965	0.000463127	0.0873369	0	0	0	
0.144667	-0.0229508	-2.77961	0.000511329	0.0868085	0	0	0	
0.144833	0.0176036	2.73825	0.000515868	0.0869226	0	0	0	
0.145	-0.0151814	-2.82187	0.000480872	0.0870151	0	0	0	
0.145167	0.0136642	2.78624	0.000469704	0.0876855	0	0	0	
0.145333	-0.0192931	-2.84711	0.000497242	0.08766	0	0	0	
0.1455	0.0199317	2.75331	0.000525909	0.0876174	0	0	0	
0.145667	-0.0183774	-2.86931	0.000511757	0.0867995	0	0	0	
0.145833	0.0138023	2.78794	0.000460447	0.0868157	0	0	0	
0.146	-0.0109796	-2.84508	0.000363819	0.0867207	0	0	0	
0.146167	0.0122335	2.81824	0.000276378	0.0874355	0	0	0	
0.146333	-0.0178032	-2.88987	0.000261432	0.0874922	0	0	0	
0.1465	0.0250706	2.80671	0.000321978	0.0877122	0	0	0	
0.146667	-0.0291567	-2.90938	0.000442576	0.0870373	0	0	0	
0.146833	0.0256164	2.76663	0.000535767	0.0868422	0	0	0	
0.147	-0.0234045	-2.83555	0.000572965	0.0861582	0	0	0	
0.147167	0.021744	2.82835	0.000565456	0.0867221	0	0	0	
0.147333	-0.0205536	-2.91884	0.000546847	0.0869872	0	0	0	
0.1475	0.021405	2.8624	0.000549648	0.087858	0	0	0	
0.147667	-0.0208721	-2.95064	0.000577288	0.0877866	0	0	0	
0.147833	0.0147541	2.87142	0.000603236	0.0879165	0	0	0	
0.148	-0.0083239	-2.95592	0.000565633	0.0873896	0	0	0	
0.148167	0.00714742	2.74331	0.000443478	0.0871253	0	0	0	
0.148333	-0.00811799	-2.57666	0.000293399	0.0853996	0	0	0	
0.1485	0.0140894	1.96309	0.000215293	0.085171	0	0	0	
0.148667	-0.0188068	-1.77198	0.000243998	0.0850828	0	0	0	
0.148833	0.0170977	1.48951	0.000311704	0.0861052	0	0	0	
0.149	-0.017	-0.648387	0.000352891	0.0828036	0	0	0	
0.149167	0.0193566	0.298754	0.000366896	0.0756759	0	0	0	
0.149333	-0.0190369	-0.33458	0.00038169	0.0685489	0	0	0	
0.1495	0.0184291	-0.0681927	0.000397141	0.0655085	0	0	0	
0.149667	-0.0192876	0.118454	0.00039624	0.0643172	0	0	0	
0.149833	0.0212081	-0.30421	0.000396348	0.0609199	0	0	0	
0.15	-0.0171619	0.410596	0.000402253	0.0544161	0	0	0	
0.150167	0.00977673	0.0652875	0.0003633	0.045065	0	0	0	
0.150333	-0.00907135	-0.015695	0.000300633	0.0347506	0	0	0	
0.1505	0.0153397	-0.248314	0.000272289	0.0269	0	0	0	
0.150667	-0.0256446	0.27567	0.00031377	0.0255249	0	0	0	
0.150833	0.03147	-0.270914	0.000425649	0.0283958	0	0	0	
0.151	-0.0308913	0.165034	0.000524716	0.0300442	0	0	0	
0.151167	0.0313483	-0.285384	0.00060091	0.0274972	0	0	0	
0.151333	-0.0286041	0.478202	0.000616236	0.0224197	0	0	0	
0.1515	0.0238574	-0.571677	0.000590517	0.0187436	0	0	0	
0.151667	-0.020384	0.609314	0.000537725	0.0186612	0	0	0	
0.151833	0.0224697	-0.576009	0.000486583	0.02083	0	0	0	
0.152	-0.0248704	0.48089	0.000480786	0.0223689	0	0	0	
0.152167	0.0259352	-0.400328	0.000512052	0.0220935	0	0	0	
0.152333	-0.024463	0.299581	0.000543752	0.0197168	0	0	0	
0.1525	0.0172086	-0.196062	0.000527679	0.0162241	0	0	0	
0.152667	-0.00814768	0.173854	0.000442616	0.0128709	0	0	0	
0.152833	0.0130658	-0.250563	0.000353208	0.0110229	0	0	0	
0.153	-0.0176049	0.300608	0.000327456	0.0106391	0	0	0	
0.153167	0.0194194	-0.322347	0.000363737	0.0105511	0	0	0	
0.153333	-0.0207492	0.269145	0.000419275	0.00980241	0	0	0	
0.1535	0.0236237	-0.193504	0.00045532	0.00853699	0	0	0	
0.153667	-0.0141756	0.159336	0.000427414	0.00731984	0	0	0	
0.153833	0.00691755	-0.183013	0.000370829	0.00652786	0	0	0	
0.154	-0.00747652	0.167353	0.000269489	0.00610495	0	0	0	
0.154167	0.0187702	-0.105285	0.000257195	0.00559658	0	0	0	
0.154333	-0.0270656	0.0565907	0.000322485	0.00488089	0	0	0	
0.1545	0.0251574	-0.05455	0.000447056	0.00408134	0	0	0	
0.154667	-0.0175317	0.0619103	0.000498975	0.00350198	0	0	0	
0.154833	0.0186363	-0.0674677	0.000475547	0.00321007	0	0	0	
0.155	-0.0212494	0.0580659	0.000445347	0.00309545	0	0	0	
0.155167	0.0232033	-0.0495316	0.000455432	0.00303437	0	0	0	
0.155333	-0.0165809	0.0433801	0.000462617	0.00293272	0	0	0	
0.1555	0.0107271	-0.0431442	0.000410021	0.00284351	0	0	0	
0.155667	-0.0149968	0.0513808	0.000347341	0.00283043	0	0	0	
0.155833	0.0119754	-0.05035	0.000296892	0.00286162	0	0	0	
0.156	-0.0106574	0.0485053	0.000258417	0.00289702	0	0	0	
0.156167	0.0184665	-0.049859	0.000281449	0.00286948	0	0	0	
0.156333	-0.0250258	0.059098	0.00036576	0.0028549	0	0	0	
0.1565	0.0256	-0.0656869	0.000470797	0.0029197	0	0	0	
0.156667	-0.0205328	0.0593789	0.000502783	0.00307429	0	0	0	
0.156833	0.0153887	-0.0515222	0.000445191	0.00322105	0	0	0	
0.157	-0.0162984	0.0464839	0.000369722	0.0032853	0	0	0	
0.157167	0.0163915	-0.05148	0.000331608	0.00326357	0	0	0	
0.157333	-0.0149549	0.0601943	0.000329395	0.00322775	0	0	0	
0.1575	0.0115591	-0.0585349	0.000345741	0.00326497	0	0	0	
0.157667	-0.0106005	0.0530091	0.000342231	0.00342056	0	0	0	
0.157833	0.0172186	-0.0519717	0.000345859	0.00359276	0	0	0	
0.158	-0.0255056	0.0543856	0.000378878	0.00368549	0	0	0	
0.158167	0.0279879	-0.0662283	0.000446636	0.00370487	0	0	0	
0.158333	-0.0238754	0.0654029	0.000507904	0.0036898	0	0	0	
0.1585	0.0191504	-0.0698759	0.000514645	0.00370135	0	0	0	
0.158667	-0.0133525	0.0724221	0.000460132	0.00372219	0	0	0	
0.158833	0.00760288	-0.0707757	0.000353759	0.00379203	0	0	0	
0.159	-0.00928205	0.0667024	0.000252465	0.0039251	0	0	0	
0.159167	0.0140259	-0.0697444	0.000207677	0.00408658	0	0	0	
0.159333	-0.0168356	0.0710475	0.000232628	0.00415188	0	0	0	
0.1595	0.0173075	-0.0724949	0.000298078	0.00408342	0	0	0	
0.159667	-0.0181811	0.0651108	0.000350777	0.00395091	0	0	0	
0.159833	0.0201743	-0.0699617	0.000387711	0.00393159	0	0	0	
0.16	-0.0240513	0.0734366	0.000399671	0.00403959	0	0	0	
0.160167	0.0229779	-0.0819158	0.000427209	0.00424678	0	0	0	
0.160333	-0.0210126	0.0755447	0.000442196	0.0044241	0	0	0	
0.1605	0.0217744	-0.0568406	0.000465119	0.00452686	0	0	0	
0.160667	-0.021015	0.0333679	0.000464514	0.00459615	0	0	0	
0.160833	0.0175993	-0.0479613	0.00045271	0.00481143	0	0	0	
0.161	-0.0203953	0.0243226	0.000420592	0.00519416	0	0	0	
0.161167	0.0225276	-0.046785	0.000411502	0.00567767	0	0	0	
0.161333	-0.0248331	0.0376247	0.000428546	0.00601341	0	0	0	
0.1615	0.0227789	-0.0491074	0.000466607	0.00624737	0	0	0	
0.161667	-0.0156644	0.0433671	0.000439983	0.00649604	0	0	0	
0.161833	0.0107597	-0.0631458	0.00036925	0.00696213	0	0	0	
0.162	-0.0143925	0.0955106	0.000311443	0.00751963	0	0	0	
0.162167	0.0178679	-0.173171	0.000305128	0.0084764	0	0	0	
0.162333	-0.0172232	-0.0581092	0.000332325	0.0110417	0	0	0	
0.1625	0.0196612	0.921995	0.000374168	0.0167443	0	0	0	
0.162667	-0.0443665	-1.64859	0.000495358	0.0260032	0	0	0	
0.162833	0.0442394	1.94374	0.000633965	0.0353077	0	0	0	
0.163	-0.0211503	-0.83891	0.00115241	0.0388486	0	0	0	
0.163167	0.032063	0.470684	0.00181663	0.0308443	0	0	0	
0.163333	0.0302317	-1.10751	0.00182914	0.0241633	0	0	0	
0.1635	-0.0102434	0.390345	0.00141148	0.0194246	0	0	0	
0.163667	-0.0133812	-0.302225	0.000759849	0.0243861	0	0	0	
0.163833	0.00784984	0.238391	0.000653553	0.0277141	0	0	0	
0.164	0.0401587	0.0362821	0.000741544	0.0265534	0	0	0	
0.164167	-0.0180294	1.40472	0.000651277	0.0274891	0	0	0	
0.164333	-0.00267863	-1.56953	0.000580155	0.0324139	0	0	0	
0.1645	0.0164345	1.57576	0.000316324	0.0451875	0	0	0	
0.164667	-0.00854269	-1.55196	0.000269047	0.0485184	0	0	0	
0.164833	0.001777	1.19781	0.00024334	0.0427209	0	0	0	
0.165	-0.0080266	-1.23947	0.000253706	0.032904	0	0	0	
0.165167	0.0198672	1.05603	0.000325257	0.033159	0	0	0	
0.165333	-0.0318316	-1.88845	0.000460988	0.0381349	0	0	0	
0.1655	0.0242367	2.27033	0.000550842	0.0479344	0	0	0	
0.165667	-0.00978939	-1.58059	0.000468464	0.0504457	0	0	0	
0.165833	0.00115582	1.23847	0.000315858	0.0459051	0	0	0	
0.166	0.000885255	-1.18628	0.000163773	0.0364238	0	0	0	
0.166167	0.00505279	1.84525	0.000118742	0.0320602	0	0	0	
0.166333	-0.0122824	-1.79924	0.000163363	0.0366158	0	0	0	
0.1665	0.0231384	2.29103	0.000248603	0.0422557	0	0	0	
0.166667	-0.0300473	-2.09136	0.000370728	0.0493552	0	0	0	
0.166833	0.0158972	1.29365	0.000428913	0.0464237	0	0	0	
0.167	-0.0105641	-1.00855	0.000411563	0.040402	0	0	0	
0.167167	0.0184115	1.45695	0.000326147	0.0319162	0	0	0	
0.167333	-0.0190882	-1.40196	0.000304877	0.0334616	0	0	0	
0.1675	0.0190591	2.60883	0.000342483	0.0397423	0	0	0	
0.167667	-0.0191566	-2.96882	0.000401874	0.0521814	0	0	0	
0.167833	0.0131982	1.56759	0.000453297	0.0562036	0	0	0	
0.168	-0.0162434	-1.18994	0.000441692	0.0511933	0	0	0	
0.168167	0.0112529	0.950868	0.000368523	0.0364812	0	0	0	
0.168333	-0.00671938	-1.36088	0.000263195	0.0276326	0	0	0	
0.1685	0.010149	2.43176	0.000225384	0.0364332	0	0	0	
0.168667	-0.0204575	-2.55862	0.000240556	0.0495707	0	0	0	
0.168833	0.0206722	2.06134	0.000313686	0.0608557	0	0	0	
0.169	-0.0112475	-1.4316	0.000349114	0.0545275	0	0	0	
0.169167	0.019159	1.05695	0.000380352	0.0418986	0	0	0	
0.169333	-0.05951	-1.27459	0.000488187	0.030638	0	0	0	
0.1695	0.0606648	1.43975	0.000796481	0.0331972	0	0	0	
0.169667	-0.0414415	-1.74131	0.000968958	0.0389275	0	0	0	
0.169833	0.0229223	2.36628	0.000939206	0.0470858	0	0	0	
0.17	-0.010081	-1.61231	0.000630502	0.0488093	0	0	0	
0.170167	0.000512949	1.28817	0.000364383	0.0448406	0	0	0	
0.170333	-0.00214027	-1.13701	0.000182425	0.0367322	0	0	0	
0.1705	0.0046563	1.52486	0.000222353	0.0301592	0	0	0	
0.170667	-0.0193796	-1.85314	0.000379845	0.0327178	0	0	0	
0.170833	0.0312121	2.17858	0.000531554	0.0397247	0	0	0	
0.171	-0.031355	-2.13129	0.000571057	0.0485007	0	0	0	
0.171167	0.0162834	1.30372	0.00052479	0.0475871	0	0	0	
0.171333	-0.0143095	-1.06673	0.000426327	0.040566	0	0	0	
0.1715	0.0297584	1.61585	0.000371372	0.0321806	0	0	0	
0.171667	-0.0339461	-1.65855	0.000462614	0.0352657	0	0	0	
0.171833	0.0269144	2.39785	0.000548108	0.0418226	0	0	0	
0.172	-0.0194728	-3.10851	0.000575259	0.052651	0	0	0	
0.172167	0.00960481	1.64856	0.000421468	0.0553674	0	0	0	
0.172333	-0.00370633	-1.2809	0.000282485	0.0503058	0	0	0	
0.1725	0.0068301	1.16889	0.000157556	0.0378104	0	0	0	
0.172667	-0.0127122	-1.67399	0.00015504	0.0298312	0	0	0	
0.172833	0.0218504	2.7508	0.000226867	0.0379785	0	0	0	
0.173	-0.0283295	-2.51276	0.000362943	0.0507942	0	0	0	
0.173167	0.03281	2.07885	0.000470628	0.0602956	0	0	0	
0.173333	-0.023256	-1.41012	0.000530056	0.0544755	0	0	0	
0.1735	0.0120382	1.10354	0.00046995	0.0417853	0	0	0	
0.173667	-0.00584363	-1.68507	0.000340607	0.0328154	0	0	0	
0.173833	0.011028	1.72656	0.000240193	0.0385536	0	0	0	
0.174	-0.0143945	-1.5374	0.000221344	0.0456688	0	0	0	
0.174167	0.0111326	2.50019	0.000240236	0.0504341	0	0	0	
0.174333	-0.00486721	-1.74157	0.000217068	0.0498106	0	0	0	
0.1745	0.00700994	1.35172	0.000167259	0.0444989	0	0	0	
0.174667	-0.00775849	-1.1369	0.000157658	0.0379696	0	0	0	
0.174833	0.00693537	1.23163	0.000253758	0.0295248	0	0	0	
0.175	-0.00696723	-1.82669	0.000352674	0.0298774	0	0	0	
0.175167	0.0141961	2.39433	0.000368217	0.037976	0	0	0	
0.175333	-0.0231451	-2.42336	0.000355078	0.0492517	0	0	0	
0.1755	0.0169024	1.42166	0.000338707	0.0512478	0	0	0	
0.175667	-0.018355	-1.12531	0.000370759	0.0433369	0	0	0	
0.175833	0.0307997	1.58661	0.000379654	0.0328346	0	0	0	
0.176	-0.0357601	-1.74355	0.000511602	0.034572	0	0	0	
0.176167	0.0192613	2.22481	0.00057599	0.0412973	0	0	0	
0.176333	-0.0176792	-3.082	0.000572599	0.051015	0	0	0	
0.1765	0.00713644	1.75855	0.000381385	0.0550599	0	0	0	
0.176667	-0.00206478	-1.37649	0.000232673	0.050224	0	0	0	
0.176833	0.00134325	1.15453	0.000127764	0.0392905	0	0	0	
0.177	-0.0100756	-1.34949	0.00014529	0.0293214	0	0	0	
0.177167	0.0143208	2.73824	0.000241759	0.0346882	0	0	0	
0.177333	-0.0153083	-2.57847	0.00032231	0.0476714	0	0	0	
0.1775	0.0103671	2.15026	0.000310354	0.0579379	0	0	0	
0.177667	-0.00370625	-1.4437	0.000220555	0.0545489	0	0	0	
0.177833	0.00207191	1.13482	0.000126574	0.0417036	0	0	0	
0.178	-0.00399157	-1.65132	7.06734E-05	0.0326219	0	0	0	
0.178167	0.010249	2.02061	8.76588E-05	0.038286	0	0	0	
0.178333	-0.0115374	-1.37782	0.000120619	0.0459001	0	0	0	
0.1785	0.0143123	2.47047	0.000196779	0.0490612	0	0	0	
0.178667	-0.00892964	-1.89399	0.000227372	0.0488679	0	0	0	
0.178833	0.00622559	1.3828	0.000234929	0.04321	0	0	0	
0.179	-0.0102543	-1.09129	0.000196341	0.0384031	0	0	0	
0.179167	0.0195618	1.00987	0.000193397	0.0291427	0	0	0	
0.179333	-0.0329413	-1.7869	0.000320455	0.0280869	0	0	0	
0.1795	0.0271222	2.62136	0.000455907	0.0372995	0	0	0	
0.179667	-0.0244453	-2.70042	0.0005517	0.0499277	0	0	0	
0.179833	0.0144487	1.47486	0.000487215	0.053702	0	0	0	
0.18	-0.0124468	-1.19606	0.000387762	0.045087	0	0	0	
0.180167	0.0119994	1.64678	0.000288832	0.033392	0	0	0	
0.180333	-0.0191461	-2.12227	0.000275571	0.0358735	0	0	0	
0.1805	0.0179279	2.18149	0.000344383	0.0444671	0	0	0	
0.180667	-0.0218369	-3.09947	0.00043847	0.0527365	0	0	0	
0.180833	0.0171236	1.95669	0.000478883	0.0560392	0	0	0	
0.181	-0.00689928	-1.44113	0.000385503	0.0495524	0	0	0	
0.181167	0.00322252	1.18269	0.000240869	0.0402134	0	0	0	
0.181333	-0.0117769	-1.28826	0.000149861	0.0304098	0	0	0	
0.1815	0.0209441	2.26549	0.000194462	0.0320463	0	0	0	
0.181667	-0.0131284	-2.5831	0.000281682	0.042301	0	0	0	
0.181833	0.0115304	2.17945	0.000308445	0.0512683	0	0	0	
0.182	-0.0087553	-1.4962	0.000268399	0.0515246	0	0	0	
0.182167	0.012395	1.2641	0.000217855	0.0419227	0	0	0	
0.182333	-0.016436	-1.76417	0.000219821	0.033799	0	0	0	
0.1825	0.0278876	3.00463	0.000312501	0.0390455	0	0	0	
0.182667	-0.0237923	-1.78505	0.000438886	0.0484089	0	0	0	
0.182833	0.0231016	2.42954	0.0004973	0.0504959	0	0	0	
0.183	-0.0169964	-2.07781	0.000454693	0.050631	0	0	0	
0.183167	0.00902188	1.38832	0.000340758	0.0428621	0	0	0	
0.183333	-0.00685421	-1.11589	0.000243771	0.0388239	0	0	0	
0.1835	0.0106868	1.35223	0.000200654	0.0304404	0	0	0	
0.183667	-0.0144146	-1.68522	0.000221908	0.031982	0	0	0	
0.183833	0.0176467	2.86385	0.000250377	0.0408218	0	0	0	
0.184	-0.0208898	-3.06125	0.000302432	0.053378	0	0	0	
0.184167	0.0127459	1.56903	0.00032869	0.0551205	0	0	0	
0.184333	-0.00909422	-1.09306	0.000323575	0.0462935	0	0	0	
0.1845	0.0132036	1.20778	0.000268684	0.0320639	0	0	0	
0.184667	-0.0195615	-0.919042	0.000240993	0.0313916	0	0	0	
0.184833	0.0211487	2.00869	0.000280839	0.0385356	0	0	0	
0.185	-0.0221714	-3.14578	0.000362382	0.0479278	0	0	0	
0.185167	0.00998427	2.28434	0.000378152	0.0545396	0	0	0	
0.185333	-0.00228592	-1.62036	0.00030361	0.050956	0	0	0	
0.1855	0.0092339	1.14242	0.000223077	0.0418483	0	0	0	
0.185667	-0.0280264	-0.462753	0.000276908	0.0280676	0	0	0	
0.185833	0.0420643	1.78505	0.000482426	0.022732	0	0	0	
0.186	-0.0594978	-2.46239	0.000703114	0.0296148	0	0	0	
0.186167	0.0412297	2.21604	0.000835453	0.0408321	0	0	0	
0.186333	-0.0191573	-1.63394	0.000900182	0.0475224	0	0	0	
0.1865	-0.00744794	1.25327	0.000799727	0.0413775	0	0	0	
0.186667	0.00867765	-1.51414	0.000540681	0.033045	0	0	0	
0.186833	0.00526292	2.69112	0.000410235	0.0360079	0	0	0	
0.187	-0.0283153	-1.87298	0.000434723	0.0451794	0	0	0	
0.187167	0.0378593	2.28768	0.000654869	0.048169	0	0	0	
0.187333	-0.0385837	-2.41577	0.000728072	0.0505432	0	0	0	
0.1875	0.0157089	1.45668	0.000663091	0.0436866	0	0	0	
0.187667	-0.00882033	-1.09655	0.000471833	0.0396017	0	0	0	
0.187833	0.0210708	1.31887	0.000321321	0.0304192	0	0	0	
0.188	-0.0257662	-1.51017	0.000305256	0.0302398	0	0	0	
0.188167	0.0287695	2.89698	0.000394225	0.0376901	0	0	0	
0.188333	-0.0172846	-3.31746	0.000446458	0.05087	0	0	0	
0.1885	0.00878721	1.64679	0.000421754	0.0548497	0	0	0	
0.188667	-0.0011284	-1.27437	0.000326929	0.0483503	0	0	0	
0.188833	0.00496017	1.44898	0.000199505	0.0346104	0	0	0	
0.189	-0.0151879	-2.39826	0.000167363	0.0322408	0	0	0	
0.189167	0.0222347	2.64309	0.000208808	0.0434007	0	0	0	
0.189333	-0.016739	-3.03807	0.000317977	0.0522212	0	0	0	
0.1895	0.014774	2.34938	0.000335723	0.0586033	0	0	0	
0.189667	-0.00800352	-1.58434	0.000298584	0.0502348	0	0	0	
0.189833	0.0128024	1.23153	0.000228278	0.0413587	0	0	0	
0.19	-0.0258302	-1.5928	0.000249696	0.0313903	0	0	0	
0.190167	0.0281831	1.90503	0.000335574	0.0324646	0	0	0	
0.190333	-0.0137341	-2.63752	0.000408405	0.0383336	0	0	0	
0.1905	0.0110168	2.49737	0.000397467	0.046985	0	0	0	
0.190667	-0.00897947	-1.72203	0.000308453	0.0483186	0	0	0	
0.190833	0.013163	1.3767	0.000240184	0.0434229	0	0	0	
0.191	-0.0122031	-1.53313	0.000216166	0.0346803	0	0	0	
0.191167	0.0151968	2.68893	0.00024373	0.034381	0	0	0	
0.191333	-0.00821656	-2.08531	0.000266663	0.0416646	0	0	0	
0.1915	0.00234065	2.31743	0.000239949	0.0454641	0	0	0	
0.191667	0.00589612	-2.66833	0.000194382	0.0504338	0	0	0	
0.191833	-0.000844536	1.57881	0.000154176	0.0459961	0	0	0	
0.192	-0.0126102	-1.17578	0.000199907	0.041444	0	0	0	
0.192167	0.0289733	1.6271	0.000273662	0.0322775	0	0	0	
0.192333	-0.0233589	-1.57873	0.000382453	0.0322424	0	0	0	
0.1925	0.00882165	3.01693	0.000422594	0.0388172	0	0	0	
0.192667	-0.00425003	-3.49767	0.000447651	0.0518723	0	0	0	
0.192833	0.00513	1.77754	0.000401272	0.0563531	0	0	0	
0.193	-0.00124666	-1.3868	0.00031309	0.0509322	0	0	0	
0.193167	0.00723803	1.47547	0.000194625	0.0370908	0	0	0	
0.193333	-0.0218197	-2.39573	0.000170818	0.0319703	0	0	0	
0.1935	0.0287255	3.0875	0.000267371	0.0431339	0	0	0	
0.193667	-0.0330358	-3.08192	0.000455223	0.0536	0	0	0	
0.193833	0.0264393	2.53285	0.000587007	0.0613084	0	0	0	
0.194	-0.0104396	-1.6155	0.000552375	0.0526988	0	0	0	
0.194167	0.00899137	1.25315	0.000400434	0.0420498	0	0	0	
0.194333	-0.0201755	-1.81168	0.000270745	0.0324096	0	0	0	
0.1945	0.0414369	2.031	0.000349571	0.0354904	0	0	0	
0.194667	-0.0501099	-2.46056	0.000564559	0.0407439	0	0	0	
0.194833	0.039914	2.64125	0.000763588	0.0481802	0	0	0	
0.195	-0.018679	-1.84874	0.000734956	0.0482832	0	0	0	
0.195167	0.00893043	1.45918	0.00053926	0.0443422	0	0	0	
0.195333	-0.00687114	-1.49286	0.000299374	0.0361269	0	0	0	
0.1955	0.0154214	2.4452	0.000212819	0.0326497	0	0	0	
0.195667	-0.020016	-2.27895	0.000262286	0.0383078	0	0	0	
0.195833	0.0176595	2.21113	0.000358595	0.0435052	0	0	0	
0.196	-0.0115166	-2.67663	0.000374825	0.049813	0	0	0	
0.196167	0.00615053	1.58369	0.00029853	0.0466514	0	0	0	
0.196333	-0.0051468	-1.2516	0.000190222	0.0409619	0	0	0	
0.1965	0.0134281	1.76481	0.000153524	0.0325446	0	0	0	
0.196667	-0.0294043	-1.68649	0.000238904	0.0334428	0	0	0	
0.196833	0.0342134	2.85735	0.000394534	0.0388074	0	0	0	
0.197	-0.0327238	-3.63529	0.000539754	0.0508941	0	0	0	
0.197167	0.0184454	1.96596	0.00056233	0.0557659	0	0	0	
0.197333	-0.010233	-1.40475	0.000445349	0.0516562	0	0	0	
0.1975	0.00789685	1.24349	0.000294938	0.0380278	0	0	0	
0.197667	-0.0156401	-1.49704	0.000211525	0.0283686	0	0	0	
0.197833	0.0206913	3.20698	0.000259101	0.0359141	0	0	0	
0.198	-0.0207702	-3.0277	0.000322009	0.0484121	0	0	0	
0.198167	0.0136535	2.60927	0.000340442	0.0591979	0	0	0	
0.198333	-0.00964552	-1.67952	0.000280816	0.0543067	0	0	0	
0.1985	0.010207	1.26707	0.000223823	0.042354	0	0	0	
0.198667	-0.0107072	-1.38031	0.000193001	0.0311628	0	0	0	
0.198833	0.0169818	2.14122	0.000210687	0.0319864	0	0	0	
0.199	-0.0194818	-1.91162	0.000278997	0.0377546	0	0	0	
0.199167	0.0235093	2.61056	0.000377906	0.0445683	0	0	0	
0.199333	-0.0175498	-2.06668	0.000443772	0.0479449	0	0	0	
0.1995	0.0118259	1.56436	0.000403457	0.0441775	0	0	0	
0.199667	-0.00644475	-1.39224	0.000288088	0.0379889	0	0	0	
0.199833	0.00658092	1.93211	0.000180616	0.0308871	0	0	0	
0.2	-0.00289614	-2.01343	0.000112365	0.0327424	0	0	0	
0.200167	0.00787123	2.0732	0.000122523	0.0369607	0	0	0	
0.200333	-0.0124859	-2.74458	0.000197135	0.0452602	0	0	0	
0.2005	0.00853401	1.62981	0.000276491	0.0456224	0	0	0	
0.200667	-0.00920338	-1.31575	0.000278314	0.041373	0	0	0	
0.200833	0.0156267	1.81282	0.0002401	0.0331266	0	0	0	
0.201	-0.0285298	-1.82533	0.00026961	0.034541	0	0	0	
0.201167	0.0396553	2.72912	0.000415458	0.0393757	0	0	0	
0.201333	-0.0315522	-3.65005	0.000563489	0.0502831	0	0	0	
0.2015	0.0167252	2.10952	0.000591622	0.0552491	0	0	0	
0.201667	-0.0141509	-1.5448	0.0004693	0.0521953	0	0	0	
0.201833	0.00837945	1.41169	0.000309411	0.0404726	0	0	0	
0.202	-0.00542303	-1.87313	0.00021136	0.0304652	0	0	0	
0.202167	0.0102898	3.4123	0.000175394	0.0373834	0	0	0	
0.202333	-0.018102	-3.05488	0.000205133	0.0501512	0	0	0	
0.2025	0.0235516	2.65406	0.000264303	0.0601051	0	0	0	
0.202667	-0.0130125	-1.67706	0.000342332	0.0553774	0	0	0	
0.202833	0.0121577	1.34145	0.000333549	0.042721	0	0	0	
0.203	-0.025204	-1.85288	0.000311438	0.0331895	0	0	0	
0.203167	0.0346407	2.49539	0.000409856	0.0377392	0	0	0	
0.203333	-0.0178253	-1.89912	0.000497195	0.044097	0	0	0	
0.2035	0.0218064	2.65434	0.000527574	0.0484889	0	0	0	
0.203667	-0.0211237	-2.16209	0.000446257	0.0485271	0	0	0	
0.203833	0.0161727	1.59024	0.000374425	0.0440495	0	0	0	
0.204	-0.0122365	-1.38722	0.00033477	0.0387697	0	0	0	
0.204167	0.0150773	1.729	0.000303388	0.0305276	0	0	0	
0.204333	-0.0130883	-2.11919	0.000321458	0.0312234	0	0	0	
0.2045	0.0174347	2.42091	0.000338013	0.0389653	0	0	0	
0.204667	-0.0144599	-3.01557	0.000322154	0.0487257	0	0	0	
0.204833	0.0124457	1.69848	0.000272507	0.0509222	0	0	0	
0.205	-0.0115233	-1.38365	0.000241981	0.043401	0	0	0	
0.205167	0.0101865	1.8021	0.000214501	0.0340821	0	0	0	
0.205333	-0.0212708	-2.00633	0.0002552	0.0352356	0	0	0	
0.2055	0.0203783	2.52325	0.000328303	0.0404497	0	0	0	
0.205667	-0.01579	-3.56201	0.000391509	0.048861	0	0	0	
0.205833	0.00936482	2.27198	0.000409552	0.053767	0	0	0	
0.206	-0.00355964	-1.60508	0.000332509	0.0504784	0	0	0	
0.206167	0.0100407	1.38581	0.000238473	0.0413499	0	0	0	
0.206333	-0.0255086	-1.65622	0.000243811	0.0304886	0	0	0	
0.2065	0.0215066	3.26119	0.000361039	0.0345712	0	0	0	
0.206667	-0.025905	-3.15677	0.000490924	0.0480996	0	0	0	
0.206833	0.0271595	2.72466	0.000516588	0.0583863	0	0	0	
0.207	-0.0183625	-1.7528	0.000457936	0.0566402	0	0	0	
0.207167	0.00511813	1.37402	0.00040457	0.0433875	0	0	0	
0.207333	-0.00216903	-1.82719	0.000302287	0.0337935	0	0	0	
0.2075	0.0121199	2.80216	0.000216525	0.0381819	0	0	0	
0.207667	-0.0194188	-1.84605	0.000180127	0.0466012	0	0	0	
0.207833	0.00907575	2.54594	0.000236853	0.0491896	0	0	0	
0.208	-0.000291028	-2.43105	0.000296103	0.0497599	0	0	0	
0.208167	0.00373584	1.6439	0.000262376	0.0436769	0	0	0	
0.208333	-0.00274704	-1.3361	0.000195193	0.0402547	0	0	0	
0.2085	-0.00538019	1.48462	0.000155825	0.0307163	0	0	0	
0.208667	-0.00315306	-1.86137	0.000128939	0.028679	0	0	0	
0.208833	0.0144364	2.69884	0.000157138	0.0361135	0	0	0	
0.209	-0.0207896	-3.34689	0.000194913	0.0476123	0	0	0	
0.209167	0.0111263	1.79786	0.000313729	0.0529973	0	0	0	
0.209333	-0.00790253	-1.41122	0.000328172	0.0460752	0	0	0	
0.2095	0.00748708	1.72801	0.000298926	0.0350936	0	0	0	
0.209667	-0.0140304	-2.24408	0.000287328	0.034728	0	0	0	
0.209833	0.014874	2.66196	0.000327812	0.0413992	0	0	0	
0.21	-0.024256	-3.54079	0.000402619	0.0492801	0	0	0	
0.210167	0.0189332	2.50666	0.000426296	0.0553039	0	0	0	
0.210333	-0.0103033	-1.69501	0.000394456	0.0510768	0	0	0	
0.2105	0.00646915	1.40601	0.000302744	0.0430025	0	0	0	
0.210667	-0.00893366	-1.54914	0.000194648	0.0313333	0	0	0	
0.210833	0.0184371	2.78119	0.000178329	0.0321184	0	0	0	
0.211	-0.0239223	-3.10329	0.000252329	0.0425837	0	0	0	
0.211167	0.0212597	2.79461	0.00035028	0.0528046	0	0	0	
0.211333	-0.0109846	-1.83897	0.000364343	0.0541345	0	0	0	
0.2115	0.00907733	1.45075	0.000296443	0.0440844	0	0	0	
0.211667	-0.00890496	-1.81379	0.000204133	0.0346787	0	0	0	
0.211833	0.011708	3.02663	0.000181227	0.0379756	0	0	0	
0.212	-0.0100444	-1.97502	0.000183969	0.0460239	0	0	0	
0.212167	0.017095	2.44877	0.000215875	0.0481448	0	0	0	
0.212333	-0.0244455	-2.66986	0.000277563	0.0495877	0	0	0	
0.2125	0.0128118	1.71699	0.000317084	0.0441674	0	0	0	
0.212667	0.0145213	-1.25736	0.000359108	0.0411305	0	0	0	
0.212833	-0.0141085	1.10465	0.000350455	0.0301317	0	0	0	
0.213	-0.00609308	-1.66811	0.000930937	0.024441	0	0	0	
0.213167	0.00425837	4.88762	0.00167465	0.0403251	0	0	0	
0.213333	-0.0684575	-5.05505	0.00188904	0.0635342	0	0	0	
0.2135	0.0445519	3.95227	0.00160021	0.0829183	0	0	0	
0.213667	-0.0047477	-3.24809	0.00102586	0.0811073	0	0	0	
0.213833	0.00201111	3.20644	0.000821813	0.0715172	0	0	0	
0.214	-0.0697356	-4.07857	0.000855428	0.0692916	0	0	0	
0.214167	0.0509048	4.49937	0.000941201	0.0739514	0	0	0	
0.214333	-0.0220704	-4.58575	0.00101354	0.0806542	0	0	0	
0.2145	0.00725421	4.50418	0.000662116	0.0854732	0	0	0	
0.214667	-0.0114042	-4.27486	0.000364794	0.0850221	0	0	0	
0.214833	0.0251074	4.44092	0.000239926	0.0846782	0	0	0	
0.215	-0.0256086	-4.50238	0.000336694	0.0838247	0	0	0	
0.215167	0.0137474	4.72941	0.000435517	0.0858162	0	0	0	
0.215333	-0.0146367	-4.61178	0.000528376	0.0868493	0	0	0	
0.2155	0.0161482	4.56448	0.000526477	0.087949	0	0	0	
0.215667	-0.0141049	-4.51399	0.000504239	0.086792	0	0	0	
0.215833	0.0160307	4.65853	0.000460224	0.0869055	0	0	0	
0.216	-0.0187232	-4.65123	0.000408309	0.0868287	0	0	0	
0.216167	0.0214045	4.67105	0.000370452	0.0880512	0	0	0	
0.216333	-0.0278244	-4.59706	0.000380526	0.087755	0	0	0	
0.2165	0.0307998	4.58372	0.000436804	0.0878032	0	0	0	
0.216667	-0.026509	-4.5044	0.000507028	0.0865406	0	0	0	
0.216833	0.0194528	4.62905	0.000515952	0.0867239	0	0	0	
0.217	-0.0161354	-4.60199	0.000448689	0.0864383	0	0	0	
0.217167	0.022009	4.5986	0.000372779	0.087285	0	0	0	
0.217333	-0.0266273	-4.56004	0.000362896	0.0866807	0	0	0	
0.2175	0.0264157	4.61344	0.000407216	0.0868667	0	0	0	
0.217667	-0.0187766	-4.577	0.000438985	0.0863977	0	0	0	
0.217833	0.0145435	4.61143	0.000387565	0.0870398	0	0	0	
0.218	-0.0159502	-4.56093	0.000318419	0.0865039	0	0	0	
0.218167	0.0131821	4.59651	0.000318996	0.0867781	0	0	0	
0.218333	-0.00661129	-4.51217	0.000391134	0.0858952	0	0	0	
0.2185	0.0160379	4.56435	0.00041607	0.0862688	0	0	0	
0.218667	-0.030492	-4.46769	0.000422584	0.0853526	0	0	0	
0.218833	0.0295612	4.53953	0.000442133	0.0855998	0	0	0	
0.219	-0.0205246	-4.52734	0.000482695	0.084872	0	0	0	
0.219167	0.0227189	4.65968	0.000470613	0.0859564	0	0	0	
0.219333	-0.0291018	-4.62048	0.000456508	0.0862987	0	0	0	
0.2195	0.0283482	4.65819	0.000474322	0.0875594	0	0	0	
0.219667	-0.0236529	-4.52559	0.000497534	0.0869559	0	0	0	
0.219833	0.0147852	4.6355	0.000434923	0.08717	0	0	0	
0.22	-0.00792658	-4.57457	0.000332023	0.0862148	0	0	0	
0.220167	0.00404537	4.62494	0.000261211	0.086962	0	0	0	
0.220333	-0.00451794	-4.58982	0.000221235	0.0865975	0	0	0	
0.2205	0.0164313	4.59791	0.000212926	0.0871224	0	0	0	
0.220667	-0.0308827	-4.53369	0.00027047	0.0861392	0	0	0	
0.220833	0.0377452	4.60608	0.000410325	0.0862776	0	0	0	
0.221	-0.0333632	-4.59625	0.00056406	0.0857322	0	0	0	
0.221167	0.0236767	4.6648	0.000624398	0.0868807	0	0	0	
0.221333	-0.0155382	-4.59273	0.000599354	0.086637	0	0	0	
0.2215	0.0207034	4.59224	0.00052747	0.0871032	0	0	0	
0.221667	-0.018425	-4.60833	0.000443312	0.0862667	0	0	0	
0.221833	0.00906116	4.66305	0.000358158	0.0869281	0	0	0	
0.222	-0.0162022	-4.5458	0.000364909	0.0866225	0	0	0	
0.222167	0.0640449	4.59487	0.000502246	0.0870179	0	0	0	
0.222333	-0.517824	-4.10801	0.00166231	0.0862294	0	0	0	
0.2225	0.0779733	4.3176	0.00359088	0.0846788	0	0	0	
0.222667	-0.0278948	-4.57753	0.00357982	0.0835471	0	0	0	
0.222833	0.0139214	4.42317	0.00247229	0.0834453	0	0	0	
0.223	-0.0096132	-4.62561	0.000491087	0.0846691	0	0	0	
0.223167	-0.00811492	4.45225	0.000415398	0.0852169	0	0	0	
0.223333	-0.0613823	-4.18678	0.000790055	0.0840347	0	0	0	
0.2235	-0.231129	4.11497	0.00261269	0.0812677	0	0	0	
0.223667	0.0199529	-3.51213	0.00331626	0.077954	0	0	0	
0.223833	0.0293977	4.17624	0.00316679	0.0751279	0	0	0	
0.224	0.0131019	-4.656	0.00182621	0.0771089	0	0	0	
0.224167	-0.0519933	4.55445	0.00127844	0.0807888	0	0	0	
0.224333	0.0280738	-4.63171	0.00117203	0.0848776	0	0	0	
0.2245	0.0478755	4.46809	0.00087085	0.0860089	0	0	0	
0.224667	-0.103073	-3.77818	0.00101183	0.0832968	0	0	0	
0.224833	0.120235	4.46486	0.00144204	0.081066	0	0	0	
0.225	-0.0912276	-4.46697	0.0018742	0.0808315	0	0	0	
0.225167	0.0418718	4.64869	0.00193624	0.0835874	0	0	0	
0.225333	0.00113472	-4.6358	0.00165909	0.086142	0	0	0	
0.2255	-0.0243225	4.67179	0.00118654	0.0871312	0	0	0	
0.225667	0.0115571	-4.45707	0.000756135	0.086683	0	0	0	
0.225833	0.0209543	4.51093	0.000566395	0.0862773	0	0	0	
0.226	-0.0411757	-4.5006	0.000567785	0.084708	0	0	0	
0.226167	0.0384287	4.70007	0.00068495	0.0852802	0	0	0	
0.226333	-0.0272784	-4.64972	0.000690081	0.0858125	0	0	0	
0.2265	0.0164565	4.70066	0.000643797	0.0874225	0	0	0	
0.226667	-0.0113927	-4.60579	0.000527443	0.0873462	0	0	0	
0.226833	0.0154495	4.69566	0.000384206	0.0877129	0	0	0	
0.227	-0.0213605	-4.58804	0.000297736	0.0870375	0	0	0	
0.227167	0.0200606	4.72587	0.000328656	0.0876249	0	0	0	
0.227333	-0.013901	-4.60356	0.000414759	0.0872969	0	0	0	
0.2275	0.0212624	4.70505	0.000453498	0.0879109	0	0	0	
0.227667	-0.0348249	-4.63854	0.000506398	0.0874222	0	0	0	
0.227833	0.0335845	4.70537	0.000557816	0.0879209	0	0	0	
0.228	-0.025189	-4.5433	0.000645299	0.087141	0	0	0	
0.228167	0.0195487	4.67123	0.000633692	0.0872588	0	0	0	
0.228333	-0.0183922	-4.5542	0.000534021	0.0863277	0	0	0	
0.2285	0.0177362	4.70741	0.000448577	0.0869963	0	0	0	
0.228667	-0.016274	-4.62778	0.000404312	0.0869078	0	0	0	
0.228833	0.0203949	4.70748	0.000386018	0.0878109	0	0	0	
0.229	-0.0244962	-4.58679	0.00038375	0.0874386	0	0	0	
0.229167	0.0265154	4.72109	0.000419224	0.0879009	0	0	0	
0.229333	-0.0264058	-4.57128	0.000470216	0.0874184	0	0	0	
0.2295	0.0270367	4.68859	0.000498447	0.0879544	0	0	0	
0.229667	-0.026635	-4.53427	0.000516244	0.0870967	0	0	0	
0.229833	0.0232743	4.66266	0.000529187	0.0872119	0	0	0	
0.23	-0.0209832	-4.61875	0.000502455	0.0866917	0	0	0	
0.230167	0.0225859	4.69551	0.000454363	0.0874481	0	0	0	
0.230333	-0.0183733	-4.62464	0.00041176	0.0873968	0	0	0	
0.2305	0.0181628	4.66899	0.000375555	0.0878262	0	0	0	
0.230667	-0.0193899	-4.48212	0.000350474	0.0868789	0	0	0	
0.230833	0.0153041	4.64463	0.000311569	0.0869438	0	0	0	
0.231	-0.0117465	-4.52361	0.000297734	0.0861478	0	0	0	
0.231167	0.00887012	4.6516	0.00028343	0.0867778	0	0	0	
0.231333	-0.00960452	-4.62966	0.000275382	0.0866177	0	0	0	
0.2315	0.012926	4.69511	0.000256892	0.0875209	0	0	0	
0.231667	-0.0190394	-4.5598	0.000255495	0.0873499	0	0	0	
0.231833	0.0206863	4.63787	0.000303288	0.0877228	0	0	0	
0.232	-0.0175192	-4.45519	0.000385463	0.0866523	0	0	0	
0.232167	0.0104226	4.64111	0.000414423	0.0867784	0	0	0	
0.232333	-0.00686246	-4.5989	0.000364427	0.0863792	0	0	0	
0.2325	0.00737481	4.66016	0.000254456	0.087317	0	0	0	
0.232667	-0.0114612	-4.60772	0.000176217	0.0872757	0	0	0	
0.232833	0.0146794	4.65176	0.000169217	0.0877059	0	0	0	
0.233	-0.0180352	-4.54293	0.000219179	0.0871896	0	0	0	
0.233167	0.0206271	4.64562	0.000302498	0.087518	0	0	0	
0.233333	-0.0191985	-4.58864	0.000394919	0.087172	0	0	0	
0.2335	0.0172576	4.63905	0.000481827	0.0876855	0	0	0	
0.233667	-0.0146989	-4.52426	0.000506651	0.0870384	0	0	0	
0.233833	0.0170334	4.60169	0.000465562	0.0870729	0	0	0	
0.234	-0.0196209	-4.51767	0.000422335	0.0862915	0	0	0	
0.234167	0.0199047	4.61333	0.000400123	0.086671	0	0	0	
0.234333	-0.0231228	-4.60278	0.000409322	0.0865818	0	0	0	
0.2345	0.0243815	4.65237	0.000417677	0.0874579	0	0	0	
0.234667	-0.0194328	-4.55136	0.000436111	0.0873461	0	0	0	
0.234833	0.0171933	4.63324	0.000449436	0.0878072	0	0	0	
0.235	-0.0141496	-4.5049	0.000442613	0.0872318	0	0	0	
0.235167	0.00800716	4.59515	0.000389163	0.0874891	0	0	0	
0.235333	-0.0112894	-4.48494	0.0003063	0.0866484	0	0	0	
0.2355	0.0208541	4.58121	0.000266599	0.0867397	0	0	0	
0.235667	-0.0261028	-4.57414	0.00030466	0.0863923	0	0	0	
0.235833	0.031282	4.63051	0.000421658	0.0872049	0	0	0	
0.236	-0.0266007	-4.57645	0.000508131	0.087276	0	0	0	
0.236167	0.016786	4.62068	0.000523876	0.087803	0	0	0	
0.236333	-0.0118242	-4.48938	0.000444793	0.0871841	0	0	0	
0.2365	0.013805	4.60476	0.000341825	0.0873983	0	0	0	
0.236667	-0.0111948	-4.56283	0.000267721	0.0870568	0	0	0	
0.236833	0.0112061	4.61491	0.000251261	0.0876452	0	0	0	
0.237	-0.0137645	-4.54657	0.000248242	0.0873442	0	0	0	
0.237167	0.0193151	4.56957	0.000272513	0.0875509	0	0	0	
0.237333	-0.0119772	-4.44237	0.000273764	0.0867083	0	0	0	
0.2375	0.00427315	4.53988	0.00028198	0.0866468	0	0	0	
0.237667	-0.00519363	-4.49302	0.00026438	0.0860151	0	0	0	
0.237833	0.00850301	4.5625	0.000278536	0.0865409	0	0	0	
0.238	-0.00461613	-4.52836	0.000286565	0.0865107	0	0	0	
0.238167	0.0074359	4.58354	0.000278161	0.0871944	0	0	0	
0.238333	-0.0101757	-4.49457	0.000259165	0.0870282	0	0	0	
0.2385	0.0158017	4.55945	0.000284369	0.0874644	0	0	0	
0.238667	-0.0205528	-4.47643	0.000362016	0.0870324	0	0	0	
0.238833	0.0254851	4.52571	0.000468762	0.0872635	0	0	0	
0.239	-0.0197935	-4.42075	0.000554333	0.0864546	0	0	0	
0.239167	0.0119787	4.53896	0.000609649	0.0865675	0	0	0	
0.239333	-0.00987078	-4.47484	0.000615168	0.085988	0	0	0	
0.2395	0.0181158	4.59814	0.000591569	0.0870063	0	0	0	
0.239667	-0.0170523	-4.54105	0.000531311	0.0872425	0	0	0	
0.239833	0.0177048	4.54279	0.000452829	0.0880932	0	0	0	
0.24	-0.025671	-4.42909	0.000418574	0.0873763	0	0	0	
0.240167	0.033069	4.50689	0.000476256	0.0873003	0	0	0	
0.240333	-0.0356595	-4.41906	0.000548573	0.0865468	0	0	0	
0.2405	0.0295051	4.57357	0.000653017	0.0871447	0	0	0	
0.240667	-0.0156757	-4.47292	0.000658792	0.0869417	0	0	0	
0.240833	0.0105518	4.44634	0.000585883	0.0873018	0	0	0	
0.241	-0.00985148	-4.1801	0.000405348	0.0862716	0	0	0	
0.241167	0.0154489	4.43644	0.000307357	0.0843619	0	0	0	
0.241333	-0.0269813	-4.59723	0.000302546	0.0840415	0	0	0	
0.2415	0.000161576	4.47908	0.000463739	0.0854678	0	0	0	
0.241667	0.0741821	-3.52427	0.000747183	0.0856281	0	0	0	
0.241833	-0.1443	3.36703	0.00134734	0.082675	0	0	0	
0.242	0.0229064	-2.44012	0.00160464	0.0682723	0	0	0	
0.242167	0.0514897	3.51739	0.00165643	0.0603193	0	0	0	
0.242333	-0.0379042	-3.33958	0.00121919	0.0565843	0	0	0	
0.2425	0.0153636	3.13556	0.000921285	0.0614125	0	0	0	
0.242667	-0.0397633	-2.2669	0.000737145	0.0590516	0	0	0	
0.242833	0.00822547	2.8308	0.000776435	0.0513781	0	0	0	
0.243	-0.00985843	-3.39925	0.000849964	0.0532727	0	0	0	
0.243167	0.0077025	3.39645	0.000700145	0.0585306	0	0	0	
0.243333	0.000744141	-2.11123	0.000431379	0.0621367	0	0	0	
0.2435	0.00957772	1.42739	0.000194115	0.0521951	0	0	0	
0.243667	-0.0175041	-1.59289	0.000158621	0.0403066	0	0	0	
0.243833	0.025538	3.10334	0.000252646	0.0387767	0	0	0	
0.244	-0.0249949	-2.40451	0.000384603	0.0463337	0	0	0	
0.244167	0.0214561	2.31246	0.000471706	0.049072	0	0	0	
0.244333	-0.0115983	-2.66957	0.000481021	0.051697	0	0	0	
0.2445	0.00467111	1.49108	0.000418688	0.0452023	0	0	0	
0.244667	-0.00156471	-1.15695	0.00030281	0.0414033	0	0	0	
0.244833	0.00457743	1.42345	0.00017552	0.0307184	0	0	0	
0.245	-0.00999266	-1.62368	0.00012234	0.0266872	0	0	0	
0.245167	0.0173452	2.65881	0.000173719	0.032172	0	0	0	
0.245333	-0.0196954	-3.27337	0.000261988	0.0434704	0	0	0	
0.2455	0.0117768	1.84197	0.000326139	0.0521963	0	0	0	
0.245667	-0.00313066	-1.12588	0.000295247	0.0476976	0	0	0	
0.245833	0.00352645	1.2191	0.000230568	0.0359082	0	0	0	
0.246	-0.00906031	-1.3777	0.000157813	0.0298949	0	0	0	
0.246167	0.0134173	2.25643	0.000154826	0.02887	0	0	0	
0.246333	-0.018035	-3.09532	0.000216596	0.0358737	0	0	0	
0.2465	0.0160889	2.95742	0.000304466	0.0465754	0	0	0	
0.246667	-0.00834913	-1.66669	0.000318404	0.0519314	0	0	0	
0.246833	0.0077254	1.14629	0.000279041	0.0473868	0	0	0	
0.247	-0.0117357	-0.673014	0.000221188	0.032259	0	0	0	
0.247167	0.0151376	1.73968	0.00022556	0.027227	0	0	0	
0.247333	-0.0199037	-2.7547	0.000288131	0.0348442	0	0	0	
0.2475	0.0171514	2.78427	0.000367574	0.0461631	0	0	0	
0.247667	-0.00945422	-1.92144	0.000398975	0.0522422	0	0	0	
0.247833	0.00547906	1.30803	0.000337093	0.0449993	0	0	0	
0.248	-0.00542133	-1.47494	0.000233799	0.0352887	0	0	0	
0.248167	0.00193056	2.99395	0.000157377	0.0339587	0	0	0	
0.248333	-0.000272745	-2.47199	0.000157653	0.0429943	0	0	0	
0.2485	0.00217829	1.94739	0.00016999	0.0461639	0	0	0	
0.248667	-0.00170845	-2.71071	0.000151304	0.05009	0	0	0	
0.248833	-0.0013497	1.50754	9.63244E-05	0.0445775	0	0	0	
0.249	-0.00143494	-1.15468	5.88747E-05	0.0418008	0	0	0	
0.249167	0.00577977	1.5059	7.67271E-05	0.0323322	0	0	0	
0.249333	-0.0104299	-1.51809	0.000165661	0.0276419	0	0	0	
0.2495	0.009718	2.77347	0.000310993	0.0325074	0	0	0	
0.249667	-0.00318734	-3.22698	0.000436737	0.0442662	0	0	0	
0.249833	0.00426768	1.85195	0.000462974	0.0535997	0	0	0	
0.25	-0.00783347	-1.02684	0.00037626	0.049589	0	0	0	
0.250167	0.0122267	1.11208	0.00028508	0.036553	0	0	0	
0.250333	-0.0206345	-2.10573	0.000271757	0.0306479	0	0	0	
0.2505	0.0239798	2.52438	0.000366688	0.0318587	0	0	0	
0.250667	-0.0185293	-2.9647	0.000428272	0.0389689	0	0	0	
0.250833	0.0129916	2.99776	0.00043866	0.0485206	0	0	0	
0.251	-0.0031692	-1.59963	0.000358203	0.0526962	0	0	0	
0.251167	0.0010237	0.959817	0.00027006	0.0488125	0	0	0	
0.251333	-0.00340898	-0.412274	0.00017254	0.0330281	0	0	0	
0.2515	0.00648908	0.437055	0.000124241	0.0236765	0	0	0	
0.251667	-0.00585213	-2.15842	0.000145186	0.0253704	0	0	0	
0.251833	0.00493672	2.75909	0.000200204	0.0361048	0	0	0	
0.252	-0.00610755	-2.05457	0.000257573	0.0459275	0	0	0	
0.252167	0.00440767	1.32471	0.000279021	0.0450386	0	0	0	
0.252333	-0.00362632	-1.35453	0.000258371	0.0367832	0	0	0	
0.2525	0.00903827	2.73761	0.000203186	0.0331369	0	0	0	
0.252667	-0.0172962	-2.71022	0.000203365	0.041957	0	0	0	
0.252833	0.0243797	1.78165	0.000289604	0.0459064	0	0	0	
0.253	-0.0284479	-2.58912	0.000416776	0.0508352	0	0	0	
0.253167	0.0158061	1.49849	0.000516453	0.0457867	0	0	0	
0.253333	0.000637047	-1.11181	0.000521017	0.0423495	0	0	0	
0.2535	-0.0103892	1.54689	0.000435262	0.0336094	0	0	0	
0.253667	0.00160109	-1.52526	0.000336329	0.0296229	0	0	0	
0.253833	0.0116825	2.497	0.000265245	0.032526	0	0	0	
0.254	-0.00422144	-3.07314	0.000207013	0.0447503	0	0	0	
0.254167	0.0084425	1.94357	0.000191672	0.0538856	0	0	0	
0.254333	-0.0146454	-1.26493	0.000169239	0.0524386	0	0	0	
0.2545	0.0103524	1.34467	0.000249209	0.0406373	0	0	0	
0.254667	-0.00992055	-2.05452	0.000347163	0.0317063	0	0	0	
0.254833	0.0184646	2.99764	0.000455677	0.0387156	0	0	0	
0.255	-0.0134461	-2.53852	0.000451087	0.0470644	0	0	0	
0.255167	0.0107495	2.77008	0.000378104	0.056684	0	0	0	
0.255333	-0.0049887	-1.56983	0.000302479	0.0539627	0	0	0	
0.2555	-0.000729472	1.14226	0.000265039	0.0468867	0	0	0	
0.255667	0.00251262	-1.38646	0.000180795	0.0347245	0	0	0	
0.255833	0.00781667	1.94378	0.000112439	0.029757	0	0	0	
0.256	-0.0114886	-2.36917	0.000131122	0.033755	0	0	0	
0.256167	0.0101037	2.6453	0.000171805	0.0436912	0	0	0	
0.256333	-0.010668	-2.0427	0.000239085	0.0500897	0	0	0	
0.2565	0.00844039	1.45408	0.000217744	0.0478606	0	0	0	
0.256667	-0.00797975	-1.21196	0.000248008	0.0394422	0	0	0	
0.256833	0.0109739	1.27747	0.000319592	0.0339469	0	0	0	
0.257	-0.0178011	-0.685045	0.000474831	0.0317226	0	0	0	
0.257167	0.0140424	0.959778	0.000564453	0.0304211	0	0	0	
0.257333	-0.0152698	-2.3633	0.000561452	0.0324761	0	0	0	
0.2575	0.00850169	1.70974	0.000430664	0.0381016	0	0	0	
0.257667	-0.0102669	-1.33022	0.000318783	0.0399412	0	0	0	
0.257833	0.0142067	1.52221	0.000230263	0.0366568	0	0	0	
0.258	-0.0275324	-0.854354	0.000287959	0.0313727	0	0	0	
0.258167	0.0211523	2.36449	0.000392269	0.0409285	0	0	0	
0.258333	-0.0137494	-2.63798	0.000443897	0.0542864	0	0	0	
0.2585	-0.00297917	1.93131	0.000395648	0.0647129	0	0	0	
0.258667	0.00723674	-1.30095	0.000280932	0.0554987	0	0	0	
0.258833	8.04602E-05	1.26369	0.000183292	0.0415346	0	0	0	
0.259	-0.0129316	-1.57291	0.000133302	0.0315916	0	0	0	
0.259167	0.0199987	2.83575	0.000178358	0.0378942	0	0	0	
0.259333	-0.0230657	-2.39952	0.000302824	0.0470539	0	0	0	
0.2595	0.0224571	2.69353	0.000449509	0.056501	0	0	0	
0.259667	-0.0121255	-1.55368	0.000545251	0.0549584	0	0	0	
0.259833	0.000340916	1.08062	0.000518836	0.0470109	0	0	0	
0.26	0.00124126	-1.35373	0.000386314	0.0357031	0	0	0	
0.260167	0.00357767	2.04667	0.000230666	0.03199	0	0	0	
0.260333	-0.011682	-2.06055	0.00019151	0.0352339	0	0	0	
0.2605	0.0111818	2.4913	0.00023868	0.0438833	0	0	0	
0.260667	-0.00710765	-2.01398	0.000301574	0.0492367	0	0	0	
0.260833	0.00288538	1.31445	0.000263782	0.0475939	0	0	0	
0.261	-0.00685535	-1.24619	0.000204591	0.039792	0	0	0	
0.261167	0.010755	1.64707	0.000195995	0.0327599	0	0	0	
0.261333	-0.0169396	-2.26637	0.000327428	0.0374576	0	0	0	
0.2615	0.0149873	1.64206	0.000467432	0.0427209	0	0	0	
0.261667	-0.0123282	-2.23093	0.00053958	0.0483728	0	0	0	
0.261833	0.00710495	1.50894	0.000484104	0.0477998	0	0	0	
0.262	-0.00546473	-1.08404	0.000367571	0.0432059	0	0	0	
0.262167	0.00823554	1.42054	0.000253904	0.0359115	0	0	0	
0.262333	-0.0132513	-1.79786	0.000206828	0.0326534	0	0	0	
0.2625	0.0187516	1.86001	0.000284992	0.0341543	0	0	0	
0.262667	-0.00795885	-2.55638	0.000378468	0.0454599	0	0	0	
0.262833	0.00232391	2.16289	0.000397292	0.0545702	0	0	0	
0.263	-0.000934029	-1.26907	0.000279074	0.0552358	0	0	0	
0.263167	0.0038875	1.16424	0.00015378	0.0445853	0	0	0	
0.263333	-0.0102464	-1.34517	0.000104297	0.0321997	0	0	0	
0.2635	0.0176968	2.71019	0.000172857	0.0362815	0	0	0	
0.263667	-0.0173443	-2.57422	0.000302855	0.0480309	0	0	0	
0.263833	0.0145251	2.5921	0.000449275	0.058507	0	0	0	
0.264	-0.00634853	-1.48609	0.00052278	0.0580188	0	0	0	
0.264167	0.00153367	1.05091	0.000460566	0.0473924	0	0	0	
0.264333	-0.00701494	-1.3719	0.000310879	0.0361003	0	0	0	
0.2645	0.0153443	2.18804	0.000208987	0.0337617	0	0	0	
0.264667	-0.0231259	-1.8858	0.000287101	0.0378743	0	0	0	
0.264833	0.0233107	2.08297	0.000437995	0.0440899	0	0	0	
0.265	-0.0152131	-2.01797	0.000537518	0.0475213	0	0	0	
0.265167	0.00691842	1.31252	0.000446022	0.0455308	0	0	0	
0.265333	-0.00580871	-1.16439	0.000303069	0.0402641	0	0	0	
0.2655	0.00448858	1.27474	0.000186617	0.0329521	0	0	0	
0.265667	-0.0073318	-1.88523	0.000186656	0.0347149	0	0	0	
0.265833	0.00668593	1.69508	0.000197671	0.0399509	0	0	0	
0.266	-0.00639271	-2.08033	0.000194924	0.0462755	0	0	0	
0.266167	0.00407045	1.46573	0.00015974	0.0485145	0	0	0	
0.266333	-0.00230606	-1.04121	0.000118298	0.0438238	0	0	0	
0.2665	0.00798998	1.34334	9.51418E-05	0.0365854	0	0	0	
0.266667	-0.0156107	-2.03053	0.00014467	0.0335605	0	0	0	
0.266833	0.0102804	1.62672	0.000295096	0.0354171	0	0	0	
0.267	-0.00122672	-2.19219	0.000466398	0.045672	0	0	0	
0.267167	-0.00608213	2.23788	0.000502328	0.0545534	0	0	0	
0.267333	0.00072609	-1.17242	0.000369448	0.0556027	0	0	0	
0.2675	0.00464342	0.999021	0.000187166	0.045733	0	0	0	
0.267667	-0.0042242	-1.19318	8.96234E-05	0.0316786	0	0	0	
0.267833	0.00780387	2.15902	0.000143776	0.0297311	0	0	0	
0.268	-0.00156199	-2.73887	0.00025513	0.0420469	0	0	0	
0.268167	0.00160809	2.58585	0.000352927	0.0541884	0	0	0	
0.268333	-0.00392196	-1.48197	0.000346146	0.0598317	0	0	0	
0.2685	0.000856634	0.9411	0.000258133	0.0492329	0	0	0	
0.268667	0.00154686	-1.06784	0.000150663	0.0371046	0	0	0	
0.268833	-0.00151703	1.89511	8.00188E-05	0.0310694	0	0	0	
0.269	-0.0101632	-1.72457	9.23292E-05	0.0352652	0	0	0	
0.269167	0.00881907	1.82804	0.000176005	0.0400725	0	0	0	
0.269333	-0.00398056	-2.11041	0.000226695	0.0467367	0	0	0	
0.2695	0.00524602	1.25776	0.000211771	0.0451251	0	0	0	
0.269667	-0.00639413	-1.00161	0.000140287	0.0418374	0	0	0	
0.269833	0.00976058	1.01442	0.000137286	0.0330621	0	0	0	
0.27	-0.0117924	-1.53819	0.000225097	0.0313861	0	0	0	
0.270167	0.0153528	1.99841	0.000397836	0.0368715	0	0	0	
0.270333	-0.0140202	-2.05456	0.000590454	0.0457698	0	0	0	
0.2705	0.00533347	1.44878	0.000731299	0.0521043	0	0	0	
0.270667	0.0125944	-0.958536	0.000718952	0.0475636	0	0	0	
0.270833	-0.00494556	1.23648	0.000498356	0.0386097	0	0	0	
0.271	-0.00464062	-2.16569	0.000404603	0.0341765	0	0	0	
0.271167	0.0330644	1.52232	0.000319971	0.0364407	0	0	0	
0.271333	-0.033312	-1.85185	0.000554821	0.0456145	0	0	0	
0.2715	0.0255521	2.35388	0.000585646	0.0544685	0	0	0	
0.271667	-0.0152432	-1.24522	0.000610097	0.0557036	0	0	0	
0.271833	0.00352089	0.971789	0.000418179	0.0478488	0	0	0	
0.272	0.0119703	-0.937438	0.000302728	0.0342521	0	0	0	
0.272167	0.00473439	1.67204	0.000270453	0.0322873	0	0	0	
0.272333	-0.0163659	-2.69248	0.000339907	0.0436086	0	0	0	
0.2725	0.00599928	2.41715	0.000383518	0.055262	0	0	0	
0.272667	0.00247397	-1.47423	0.000433584	0.0600375	0	0	0	
0.272833	-0.003412	0.944483	0.000366998	0.0496567	0	0	0	
0.273	-0.0016238	-1.19979	0.000257421	0.0379361	0	0	0	
0.273167	0.00190785	2.46571	0.000142917	0.0346805	0	0	0	
0.273333	-0.00237403	-2.1235	0.000136396	0.0422321	0	0	0	
0.2735	-0.00515222	1.52493	0.000204207	0.046669	0	0	0	
0.273667	0.0036649	-2.02479	0.00027758	0.0502511	0	0	0	
0.273833	0.00151596	1.19021	0.000274224	0.0458773	0	0	0	
0.274	-0.00338122	-0.921732	0.000236006	0.0426533	0	0	0	
0.274167	-0.00542951	0.952631	0.000213845	0.0338801	0	0	0	
0.274333	0.00235068	-1.22495	0.000288513	0.0298508	0	0	0	
0.2745	-0.000687228	1.9618	0.000384263	0.0342645	0	0	0	
0.274667	-0.000611136	-1.87951	0.000409487	0.0434659	0	0	0	
0.274833	0.00669765	1.46589	0.000334802	0.0518546	0	0	0	
0.275	-0.00602358	-0.918667	0.000232205	0.0484834	0	0	0	
0.275167	0.00281616	1.10804	0.000175444	0.0394169	0	0	0	
0.275333	-0.00131423	-2.00376	0.000127609	0.033751	0	0	0	
0.2755	0.016792	1.5664	0.000155934	0.0369258	0	0	0	
0.275667	-0.0137541	-1.45647	0.000254372	0.0448094	0	0	0	
0.275833	0.00317788	2.23698	0.000499639	0.0537594	0	0	0	
0.276	0.00502044	-1.15159	0.000634228	0.0545064	0	0	0	
0.276167	0.00558117	0.862223	0.000577879	0.0480066	0	0	0	
0.276333	0.00566405	-0.890172	0.000397169	0.0349342	0	0	0	
0.2765	-0.0149278	1.25085	0.000349147	0.030842	0	0	0	
0.276667	0.0121713	-2.6767	0.000345036	0.041022	0	0	0	
0.276833	0.008944	2.29295	0.000324493	0.0534479	0	0	0	
0.277	-0.0305094	-1.45276	0.000319084	0.0599934	0	0	0	
0.277167	0.0159337	0.89056	0.000402774	0.0509159	0	0	0	
0.277333	-0.00392757	-1.10155	0.000413717	0.0387094	0	0	0	
0.2775	0.0113427	2.3014	0.000461191	0.0346649	0	0	0	
0.277667	-0.0272488	-2.46898	0.000472623	0.0433857	0	0	0	
0.277833	0.0273698	1.25998	0.000612293	0.047598	0	0	0	
0.278	-0.0130071	-1.81603	0.00067885	0.050904	0	0	0	
0.278167	0.00276654	1.1048	0.000622168	0.0459135	0	0	0	
0.278333	0.00963389	-0.787557	0.000449676	0.0429734	0	0	0	
0.2785	-0.0383146	0.98376	0.000302917	0.0346491	0	0	0	
0.278667	0.0365377	-1.10287	0.000471285	0.0286124	0	0	0	
0.278833	0.00794664	1.78513	0.000520771	0.0318663	0	0	0	
0.279	-0.0137267	-1.68947	0.000450281	0.0424797	0	0	0	
0.279167	0.0109415	1.43088	0.000340139	0.0528686	0	0	0	
0.279333	0.00460879	-0.856664	0.000378936	0.0508404	0	0	0	
0.2795	-0.00617735	1.00249	0.000449236	0.0408496	0	0	0	
0.279667	0.0091061	-1.78221	0.000499097	0.0340777	0	0	0	
0.279833	-0.00585107	1.73444	0.000579622	0.0390878	0	0	0	
0.28	-0.00768214	-1.17603	0.000515971	0.0463481	0	0	0	
0.280167	0.0271591	2.05039	0.000441585	0.054419	0	0	0	
0.280333	-0.0111193	-1.07732	0.000367333	0.0536737	0	0	0	
0.2805	0.004934	0.775474	0.000399236	0.0479236	0	0	0	
0.280667	-0.018298	-0.947051	0.000331565	0.036022	0	0	0	
0.280833	0.0197693	1.03192	0.000400091	0.0301632	0	0	0	
0.281	-0.0063815	-2.15422	0.000591802	0.037012	0	0	0	
0.281167	-0.00917759	2.0525	0.00064694	0.0484188	0	0	0	
0.281333	0.00693805	-1.39281	0.000515836	0.0560418	0	0	0	
0.2815	0.00636996	0.859317	0.000322798	0.0503313	0	0	0	
0.281667	-0.010039	-1.00924	0.000225915	0.0392916	0	0	0	
0.281833	0.0068325	1.87763	0.000238788	0.0347427	0	0	0	
0.282	-0.00601053	-2.35473	0.000261317	0.0430724	0	0	0	
0.282167	0.00933379	1.01702	0.000335334	0.0475752	0	0	0	
0.282333	-0.0123473	-1.46006	0.000422539	0.0510594	0	0	0	
0.2825	0.00755128	1.04096	0.000517252	0.0468672	0	0	0	
0.282667	-0.000697197	-0.689333	0.00053714	0.0437477	0	0	0	
0.282833	0.00408688	0.930619	0.00041379	0.0358092	0	0	0	
0.283	-0.0100123	-0.965465	0.000283284	0.0289628	0	0	0	
0.283167	0.0120163	1.27518	0.000194532	0.0300974	0	0	0	
0.283333	-0.00635104	-1.45564	0.000258853	0.0408326	0	0	0	
0.2835	-0.00221945	1.43788	0.000287498	0.0521623	0	0	0	
0.283667	0.000236243	-0.792598	0.000260453	0.0525628	0	0	0	
0.283833	4.12785E-05	0.860702	0.00015287	0.0427319	0	0	0	
0.284	0.00285469	-1.24561	0.000117644	0.0345264	0	0	0	
0.284167	-0.00440072	1.72403	0.000221192	0.0396512	0	0	0	
0.284333	-0.0141127	-1.05468	0.000386104	0.0470506	0	0	0	
0.2845	0.0233386	1.85866	0.00054738	0.0550163	0	0	0	
0.284667	-0.0117926	-1.02803	0.000649949	0.0541365	0	0	0	
0.284833	-0.00811912	0.682344	0.00066631	0.048383	0	0	0	
0.285	0.0047241	-0.874576	0.000537542	0.0372836	0	0	0	
0.285167	0.00753332	0.887293	0.000344134	0.0306872	0	0	0	
0.285333	-0.0211485	-1.65157	0.000263566	0.0349885	0	0	0	
0.2855	0.0232599	1.8505	0.000329732	0.0455299	0	0	0	
0.285667	-0.0148304	-1.304	0.000420035	0.0531395	0	0	0	
0.285833	0.00482848	0.796302	0.000405172	0.0499881	0	0	0	
0.286	-0.000732031	-0.896183	0.00036235	0.039879	0	0	0	
0.286167	-0.00535207	1.28587	0.000359362	0.0347413	0	0	0	
0.286333	-0.00143619	-2.33762	0.000390318	0.0428359	0	0	0	
0.2865	-0.00836837	0.951821	0.000400721	0.0486263	0	0	0	
0.286667	0.00569155	-1.02651	0.000388407	0.0523336	0	0	0	
0.286833	-0.00623871	0.949426	0.000294873	0.0484114	0	0	0	
0.287	-0.00315529	-0.584663	0.000191405	0.0440314	0	0	0	
0.287167	-0.00553181	0.873212	9.2766E-05	0.036407	0	0	0	
0.287333	0.0180977	-1.1986	0.00013945	0.0303219	0	0	0	
0.2875	0.000973727	0.916841	0.00015931	0.0305696	0	0	0	
0.287667	-0.0262419	-1.1482	0.00025612	0.0418976	0	0	0	
0.287833	0.0169698	1.31425	0.000361713	0.0531381	0	0	0	
0.288	0.00246576	-0.501656	0.000478341	0.0549389	0	0	0	
0.288167	-0.0121478	0.685143	0.000482229	0.0432017	0	0	0	
0.288333	0.0144187	-1.86995	0.000422184	0.0309253	0	0	0	
0.2885	-0.0095312	1.96466	0.000405004	0.0306201	0	0	0	
0.288667	0.00425322	-1.49586	0.000433522	0.0391629	0	0	0	
0.288833	0.00251453	1.78578	0.000407379	0.0514263	0	0	0	
0.289	-0.000598561	-0.872363	0.000300156	0.0574913	0	0	0	
0.289167	0.00027943	0.343863	0.000221827	0.0531271	0	0	0	
0.289333	0.00550372	-0.415	0.000219445	0.0394199	0	0	0	
0.2895	-0.012933	-0.610064	0.00024738	0.0257368	0	0	0	
0.289667	-0.0087538	-0.828493	0.000220103	0.0224295	0	0	0	
0.289833	0.0199295	1.64418	0.000257581	0.0305964	0	0	0	
0.29	-0.0199973	-1.31191	0.000317551	0.0430454	0	0	0	
0.290167	0.00875362	0.711913	0.000363724	0.0474744	0	0	0	
0.290333	-0.0041564	-0.638766	0.000278375	0.0413734	0	0	0	
0.2905	-0.000841256	0.52375	0.000219955	0.0349291	0	0	0	
0.290667	0.00464059	-1.44566	0.000270802	0.0378446	0	0	0	
0.290833	-0.019375	0.818388	0.000370261	0.0429498	0	0	0	
0.291	0.00785124	-0.647026	0.000415683	0.0471736	0	0	0	
0.291167	-0.0105648	0.84084	0.000326791	0.0473384	0	0	0	
0.291333	0.0163059	-0.462924	0.000265817	0.0431962	0	0	0	
0.2915	0.0110346	0.832961	0.00027704	0.0358684	0	0	0	
0.291667	-0.0750414	-1.35306	0.00054231	0.0304101	0	0	0	
0.291833	0.150008	0.852139	0.00120091	0.035486	0	0	0	
0.292	-0.026805	-1.84319	0.00161031	0.0588638	0	0	0	
0.292167	-0.0579725	0.992649	0.00187714	0.0814665	0	0	0	
0.292333	0.0429483	0.105758	0.00153918	0.0925942	0	0	0	
0.2925	-0.0172171	0.0909128	0.0011795	0.0822889	0	0	0	
0.292667	0.0464595	-0.823663	0.000874562	0.0686834	0	0	0	
0.292833	0.00320204	1.84075	0.00100349	0.066345	0	0	0	
0.293	0.00294812	-1.85327	0.0012655	0.0735294	0	0	0	
0.293167	0.00183591	1.68469	0.00126443	0.0822119	0	0	0	
0.293333	-0.0114096	-1.76454	0.00095504	0.0850127	0	0	0	
0.2935	0.00382937	1.93035	0.000753206	0.0835063	0	0	0	
0.293667	0.0124172	-1.99873	0.000658342	0.0826594	0	0	0	
0.293833	-0.0139713	1.9082	0.000490279	0.084035	0	0	0	
0.294	0.000465927	-1.75871	0.000311639	0.0869828	0	0	0	
0.294167	0.000882049	1.68034	0.000139295	0.0883143	0	0	0	
0.294333	0.00722384	-1.69191	0.000156252	0.0878628	0	0	0	
0.2945	-0.00635887	1.72047	0.000188651	0.0864867	0	0	0	
0.294667	0.00202529	-1.73315	0.000272119	0.0862503	0	0	0	
0.294833	0.00373318	1.70565	0.000371433	0.0866968	0	0	0	
0.295	0.00417998	-1.65456	0.000524893	0.0872372	0	0	0	
0.295167	-0.00889956	1.66684	0.000671924	0.0868744	0	0	0	
0.295333	0.00575576	-1.65273	0.000718392	0.0866396	0	0	0	
0.2955	-0.014181	1.60449	0.000682593	0.0866586	0	0	0	
0.295667	0.0135127	-1.55153	0.000624243	0.0871407	0	0	0	
0.295833	-0.00383245	1.56983	0.000471925	0.0871708	0	0	0	
0.296	-0.0042939	-1.59282	0.000280768	0.0866541	0	0	0	
0.296167	0.0124793	1.53235	0.000190912	0.0854877	0	0	0	
0.296333	-0.0020252	-1.54388	0.000300069	0.0852489	0	0	0	
0.2965	-0.00744303	1.54222	0.000462168	0.0857784	0	0	0	
0.296667	-0.000719151	-1.51354	0.000523048	0.0869227	0	0	0	
0.296833	-0.0022238	1.53016	0.000522547	0.0873797	0	0	0	
0.297	0.0189004	-1.4539	0.000568278	0.0870985	0	0	0	
0.297167	-0.0175579	1.35464	0.000601019	0.0862105	0	0	0	
0.297333	0.00152071	-1.43854	0.000495049	0.0857738	0	0	0	
0.2975	0.0149682	1.50424	0.00034042	0.085966	0	0	0	
0.297667	-0.0180808	-1.47229	0.000328182	0.0867689	0	0	0	
0.297833	0.0103281	1.46653	0.000388558	0.0872137	0	0	0	
0.298	-0.010157	-1.40307	0.000382828	0.0871586	0	0	0	
0.298167	0.00545391	1.35653	0.000303862	0.086609	0	0	0	
0.298333	0.00750548	-1.39977	0.000341325	0.0862693	0	0	0	
0.2985	-0.0202863	1.43878	0.000426983	0.0864211	0	0	0	
0.298667	0.0117079	-1.37712	0.000465574	0.0869974	0	0	0	
0.298833	-0.014531	1.37114	0.000392831	0.0872571	0	0	0	
0.299	0.00852759	-1.3314	0.000365844	0.0870011	0	0	0	
0.299167	0.00181726	1.28823	0.000275667	0.0864547	0	0	0	
0.299333	-0.00535241	-1.32798	0.000223505	0.0863031	0	0	0	
0.2995	-0.00691322	1.34318	0.000263352	0.086474	0	0	0	
0.299667	0.00961109	-1.31705	0.000425927	0.0868677	0	0	0	
0.299833	-0.00756335	1.31922	0.000530811	0.0870133	0	0	0	
0.3	0.00394904	-1.25527	0.000504795	0.087187	0	0	0	
0.300167	-0.0128981	1.21562	0.000424553	0.0873322	0	0	0	
0.300333	0.0185769	-1.23942	0.000405177	0.0874059	0	0	0	
0.3005	-0.00498742	1.25156	0.000355599	0.0872531	0	0	0	
0.300667	-0.00460321	-1.23453	0.000330272	0.0869518	0	0	0	
0.300833	-0.000471237	1.21366	0.00035671	0.0864179	0	0	0	
0.301	-0.00139692	-1.21782	0.000410346	0.0862826	0	0	0	
0.301167	0.00703894	1.21658	0.000444913	0.086592	0	0	0	
0.301333	-0.00494786	-1.18217	0.000464751	0.0872108	0	0	0	
0.3015	0.00280551	1.1574	0.000521946	0.0875075	0	0	0	
0.301667	0.00349643	-1.10839	0.000524041	0.0874454	0	0	0	
0.301833	-0.0047917	1.10941	0.000423932	0.0871717	0	0	0	
0.302	-0.00514797	-1.12629	0.000312932	0.0868443	0	0	0	
0.302167	0.00840437	1.12237	0.000312997	0.0864416	0	0	0	
0.302333	-0.00243552	-1.1199	0.000397214	0.086226	0	0	0	
0.3025	-0.00543612	1.07506	0.000468423	0.0861126	0	0	0	
0.302667	0.0191667	-1.08772	0.000441232	0.0861967	0	0	0	
0.302833	-0.00707659	1.06986	0.000362975	0.0861109	0	0	0	
0.303	-0.00814758	-1.01854	0.00026094	0.0862812	0	0	0	
0.303167	0.0064297	0.978384	0.000290485	0.0865933	0	0	0	
0.303333	0.000727139	-0.97821	0.000327011	0.0868233	0	0	0	
0.3035	0.00399198	0.93194	0.000339938	0.0865545	0	0	0	
0.303667	0.00759061	-0.952846	0.000323866	0.0863155	0	0	0	
0.303833	-0.0103005	0.919051	0.000393416	0.0862764	0	0	0	
0.304	0.0107742	-0.935094	0.000461065	0.0866181	0	0	0	
0.304167	0.00565483	0.962677	0.000425812	0.0868405	0	0	0	
0.304333	-0.00353789	-0.931962	0.000323106	0.087141	0	0	0	
0.3045	0.00415169	0.871549	0.000321074	0.0872691	0	0	0	
0.304667	-0.00757963	-0.903263	0.000386867	0.0870417	0	0	0	
0.304833	0.0133012	0.874602	0.00046595	0.0864086	0	0	0	
0.305	-0.00911211	-0.887957	0.000577031	0.0862383	0	0	0	
0.305167	-0.00842144	0.877195	0.000755216	0.0866465	0	0	0	
0.305333	0.0200926	-0.819173	0.000798443	0.0872394	0	0	0	
0.3055	-0.000482485	0.819226	0.000605904	0.0871409	0	0	0	
0.305667	-0.014193	-0.839149	0.000395938	0.0864672	0	0	0	
0.305833	0.0165478	0.774045	0.000296473	0.0858809	0	0	0	
0.306	-0.0263241	-0.78101	0.000360049	0.0860093	0	0	0	
0.306167	0.0186416	0.776815	0.000426679	0.0865396	0	0	0	
0.306333	0.00327198	-0.767569	0.000585115	0.0871164	0	0	0	
0.3065	-0.025217	0.761952	0.000744907	0.0874484	0	0	0	
0.306667	0.0278332	-0.68495	0.000797732	0.0876738	0	0	0	
0.306833	-0.0096575	0.649512	0.000668523	0.0875372	0	0	0	
0.307	-0.0112789	-0.726107	0.000434373	0.0868848	0	0	0	
0.307167	0.0191773	0.715155	0.000338566	0.0862651	0	0	0	
0.307333	-0.00408541	-0.694219	0.00040635	0.0864268	0	0	0	
0.3075	-0.00240175	0.64558	0.000500753	0.0869309	0	0	0	
0.307667	-0.00600119	-0.652119	0.000440764	0.0870084	0	0	0	
0.307833	-0.00451732	0.625849	0.000317372	0.0863681	0	0	0	
0.308	0.0113955	-0.65469	0.000239957	0.0858145	0	0	0	
0.308167	-0.0051352	0.551427	0.000195507	0.085696	0	0	0	
0.308333	0.0148044	-0.589595	0.000183905	0.0861041	0	0	0	
0.3085	-0.018133	0.575369	0.0002596	0.0866048	0	0	0	
0.308667	0.0108878	-0.542858	0.00035042	0.0872583	0	0	0	
0.308833	-0.00582623	0.470954	0.000431807	0.0876075	0	0	0	
0.309	0.00732539	-0.509037	0.000505162	0.0874022	0	0	0	
0.309167	-0.00481273	0.451036	0.000585657	0.0864724	0	0	0	
0.309333	0.0108561	-0.592742	0.000647741	0.0854686	0	0	0	
0.3095	-0.0154087	0.505453	0.000688706	0.0848775	0	0	0	
0.309667	0.0143266	-0.535036	0.000665877	0.0852437	0	0	0	
0.309833	-0.00527106	0.454967	0.000543029	0.0858327	0	0	0	
0.31	-0.00626634	-0.474924	0.000326679	0.0863061	0	0	0	
0.310167	0.0175821	0.352127	0.000219345	0.0862487	0	0	0	
0.310333	-0.0120789	-0.361124	0.000255661	0.0862352	0	0	0	
0.3105	0.0013177	0.278419	0.000362898	0.0863359	0	0	0	
0.310667	0.00112982	-0.355036	0.000461534	0.0866239	0	0	0	
0.310833	-0.0026961	0.326169	0.000489659	0.0867398	0	0	0	
0.311	0.0111192	-0.38757	0.000484416	0.0866774	0	0	0	
0.311167	-0.00903134	0.275943	0.000389609	0.0862936	0	0	0	
0.311333	-0.000455148	-0.319636	0.000264915	0.0861523	0	0	0	
0.3115	0.000946589	0.339983	0.000169369	0.0863047	0	0	0	
0.311667	0.000964042	-0.361604	0.000253565	0.0866042	0	0	0	
0.311833	-0.0093546	0.282579	0.000346634	0.0866432	0	0	0	
0.312	0.0115191	-0.266849	0.000359497	0.0866809	0	0	0	
0.312167	-0.00270816	0.205927	0.000285633	0.0867515	0	0	0	
0.312333	0.00283774	-0.297332	0.000307269	0.0867425	0	0	0	
0.3125	-0.00452736	0.263357	0.000379735	0.0867876	0	0	0	
0.312667	-0.0047589	-0.222551	0.000385184	0.0873629	0	0	0	
0.312833	-0.00328222	0.121248	0.000395978	0.0880118	0	0	0	
0.313	0.0220388	-0.203322	0.000498859	0.0879151	0	0	0	
0.313167	-0.0185792	0.169724	0.000622564	0.0869193	0	0	0	
0.313333	0.00682235	-0.236873	0.000576695	0.0859714	0	0	0	
0.3135	-0.00171855	0.14961	0.000421454	0.0857	0	0	0	
0.313667	0.00792581	-0.201174	0.000320974	0.0862031	0	0	0	
0.313833	-0.0133818	0.162247	0.000345573	0.0870048	0	0	0	
0.314	0.00857796	-0.087011	0.000366251	0.0877776	0	0	0	
0.314167	-0.00589441	-0.00885817	0.000326406	0.0880051	0	0	0	
0.314333	0.00852629	-0.0935213	0.000320573	0.0874687	0	0	0	
0.3145	-0.00372514	0.0210651	0.000350038	0.0864768	0	0	0	
0.314667	-0.00609552	-0.128463	0.000396731	0.0857387	0	0	0	
0.314833	0.00249921	0.0564615	0.000481103	0.0856967	0	0	0	
0.315	0.00445031	-0.0525452	0.000613227	0.0863664	0	0	0	
0.315167	-0.0129979	0.00465961	0.000692031	0.0871663	0	0	0	
0.315333	0.00737792	0.00451353	0.000653312	0.0876678	0	0	0	
0.3155	-0.00759872	-0.0991255	0.000528357	0.0876611	0	0	0	
0.315667	0.0084009	0.0545587	0.000443399	0.0873508	0	0	0	
0.315833	-0.0156179	-0.12775	0.000374807	0.0871162	0	0	0	
0.316	0.0173836	0.0749505	0.000348742	0.0870954	0	0	0	
0.316167	0.000593798	-0.0903699	0.000308986	0.087077	0	0	0	
0.316333	-0.00410752	0.0285477	0.000250543	0.0868213	0	0	0	
0.3165	-0.00435593	-0.107541	0.000237992	0.0864545	0	0	0	
0.316667	0.0100292	0.0907848	0.000277268	0.0864093	0	0	0	
0.316833	-0.00654159	-0.127853	0.000364177	0.0867784	0	0	0	
0.317	0.00344729	0.125087	0.000413118	0.0872471	0	0	0	
0.317167	-0.00160532	-0.171661	0.000446268	0.0874579	0	0	0	
0.317333	0.00496976	0.130473	0.000406471	0.0872268	0	0	0	
0.3175	-0.00402973	-0.272812	0.000299392	0.0867347	0	0	0	
0.317667	0.00153574	0.207476	0.000215207	0.0864524	0	0	0	
0.317833	-0.00269568	-0.22903	0.000256037	0.0866429	0	0	0	
0.318	0.0139162	0.225722	0.000343164	0.0871528	0	0	0	
0.318167	-0.0243907	-0.2719	0.000422475	0.0873998	0	0	0	
0.318333	0.0191934	0.221299	0.000451767	0.0870932	0	0	0	
0.3185	-0.0141288	-0.35745	0.000430645	0.0864682	0	0	0	
0.318667	0.00706657	0.29648	0.000352925	0.0861805	0	0	0	
0.318833	-0.00272648	-0.321038	0.000291252	0.0864345	0	0	0	
0.319	0.016818	0.305937	0.000305625	0.0870095	0	0	0	
0.319167	-0.011838	-0.34935	0.000365032	0.0873603	0	0	0	
0.319333	-0.00213047	0.32351	0.000361135	0.0872526	0	0	0	
0.3195	-0.00563037	-0.453359	0.000373532	0.0866737	0	0	0	
0.319667	0.00428001	0.321375	0.000372662	0.0860231	0	0	0	
0.319833	-0.00311957	-0.402385	0.000347708	0.0857291	0	0	0	
0.32	0.010442	0.356815	0.000276608	0.0860744	0	0	0	
0.320167	-0.00509699	-0.439007	0.000263548	0.0864823	0	0	0	
0.320333	0.00435437	0.381977	0.000293507	0.0865726	0	0	0	
0.3205	-0.00905074	-0.52015	0.000309436	0.0862211	0	0	0	
0.320667	0.0041899	0.460022	0.000252735	0.0861195	0	0	0	
0.320833	-0.0169016	-0.563374	0.000227616	0.0864496	0	0	0	
0.321	0.0217345	0.519188	0.000301482	0.0870434	0	0	0	
0.321167	-0.0159525	-0.593915	0.000415213	0.08722	0	0	0	
0.321333	0.0152129	0.490723	0.000506644	0.0870728	0	0	0	
0.3215	-0.0177975	-0.628758	0.000507929	0.0867201	0	0	0	
0.321667	0.0136349	0.562785	0.000477751	0.0866562	0	0	0	
0.321833	-0.0149519	-0.565669	0.000457231	0.0866126	0	0	0	
0.322	0.015755	0.503268	0.000492307	0.0866251	0	0	0	
0.322167	-0.0109027	-0.61976	0.000495254	0.086489	0	0	0	
0.322333	-0.00145351	0.539392	0.000397802	0.0863374	0	0	0	
0.3225	0.00966871	-0.648448	0.000268387	0.0859735	0	0	0	
0.322667	-0.00358291	0.555473	0.0002304	0.0858804	0	0	0	
0.322833	-0.00927391	-0.651967	0.000332757	0.0861445	0	0	0	
0.323	0.00919566	0.661289	0.000408763	0.0868396	0	0	0	
0.323167	-0.015646	-0.771835	0.000400274	0.0871798	0	0	0	
0.323333	0.0170196	0.665756	0.00036964	0.0870593	0	0	0	
0.3235	-0.015481	-0.792131	0.000362071	0.0864478	0	0	0	
0.323667	0.009007	0.713742	0.000339229	0.0861652	0	0	0	
0.323833	-0.00827885	-0.790124	0.000295372	0.0862464	0	0	0	
0.324	0.00765239	0.752781	0.000290843	0.0868402	0	0	0	
0.324167	-0.018573	-0.788065	0.000367937	0.0871704	0	0	0	
0.324333	0.0206241	0.725488	0.000465719	0.087097	0	0	0	
0.3245	-0.0171006	-0.874293	0.000499233	0.0864502	0	0	0	
0.324667	0.010061	0.733685	0.000467048	0.0859068	0	0	0	
0.324833	-0.00675341	-0.821326	0.000381049	0.0856717	0	0	0	
0.325	0.00283485	0.802483	0.000347726	0.0862537	0	0	0	
0.325167	-0.00744215	-0.861075	0.000395617	0.0868884	0	0	0	
0.325333	0.00987462	0.800044	0.000484665	0.0872124	0	0	0	
0.3255	-0.00575798	-0.962483	0.000505462	0.0867656	0	0	0	
0.325667	0.00874621	0.900124	0.000434373	0.0864476	0	0	0	
0.325833	-0.00842493	-0.989824	0.000347605	0.0864244	0	0	0	
0.326	0.00464826	0.873652	0.000278229	0.086737	0	0	0	
0.326167	-0.00315231	-0.95384	0.000255779	0.0865764	0	0	0	
0.326333	0.00718809	0.873975	0.000323061	0.0863848	0	0	0	
0.3265	-0.0117715	-1.04054	0.000423762	0.0859787	0	0	0	
0.326667	0.0124288	0.916115	0.00045901	0.0859488	0	0	0	
0.326833	-0.0106654	-1.00712	0.000422005	0.085813	0	0	0	
0.327	0.0150135	0.954057	0.000379495	0.0859737	0	0	0	
0.327167	-0.014437	-1.11126	0.000378912	0.0858825	0	0	0	
0.327333	0.00238028	1.0043	0.000341429	0.0861438	0	0	0	
0.3275	0.00233401	-1.13831	0.000318002	0.0861955	0	0	0	
0.327667	0.00904001	1.01237	0.000346609	0.0863543	0	0	0	
0.327833	-0.0123721	-1.17482	0.000379795	0.0860737	0	0	0	
0.328	0.0161789	1.10967	0.000421861	0.0864007	0	0	0	
0.328167	-0.0267607	-1.21105	0.000488295	0.0867162	0	0	0	
0.328333	0.0277523	1.08298	0.000600474	0.0870292	0	0	0	
0.3285	-0.00970344	-1.17802	0.000596639	0.0864193	0	0	0	
0.328667	0.00198239	1.07978	0.000437475	0.0859517	0	0	0	
0.328833	-0.00769499	-1.25005	0.000308775	0.0856498	0	0	0	
0.329	0.0127442	1.16956	0.000331939	0.0862019	0	0	0	
0.329167	-0.00959347	-1.22148	0.000439936	0.0865932	0	0	0	
0.329333	0.00671291	1.15239	0.000489959	0.0869116	0	0	0	
0.3295	-0.00550579	-1.30802	0.000496103	0.0865747	0	0	0	
0.329667	0.00752935	1.22128	0.000493501	0.0865134	0	0	0	
0.329833	-0.00476571	-1.33356	0.000465561	0.086471	0	0	0	
0.33	0.0030397	1.25483	0.000424693	0.0869317	0	0	0	
0.330167	-0.00976799	-1.31405	0.000442933	0.0870998	0	0	0	
0.330333	0.0138715	1.22362	0.000478824	0.087239	0	0	0	
0.3305	-0.0100608	-1.37714	0.000447945	0.0867232	0	0	0	
0.330667	-0.00530855	1.28782	0.000321167	0.0865225	0	0	0	
0.330833	0.00916166	-1.34722	0.000228433	0.0864167	0	0	0	
0.331	-0.00251806	1.31844	0.000203429	0.0868256	0	0	0	
0.331167	-0.00366919	-1.39568	0.000228442	0.0870022	0	0	0	
0.331333	0.0115075	1.36514	0.000239461	0.0872797	0	0	0	
0.3315	-0.0257134	-1.48949	0.000314098	0.0872508	0	0	0	
0.331667	0.0226928	1.39465	0.000431159	0.0872724	0	0	0	
0.331833	-0.0176247	-1.43146	0.000504417	0.0870261	0	0	0	
0.332	0.0124375	1.35934	0.000500858	0.0869383	0	0	0	
0.332167	-0.0132639	-1.45995	0.000464659	0.0864553	0	0	0	
0.332333	0.0120923	1.31591	0.00047328	0.0860961	0	0	0	
0.3325	-0.0116947	-1.46461	0.000473798	0.0853717	0	0	0	
0.332667	0.0119901	1.39217	0.000475295	0.0854189	0	0	0	
0.332833	-0.0105831	-1.50593	0.000465806	0.0856941	0	0	0	
0.333	0.00514395	1.49188	0.000418922	0.0866495	0	0	0	
0.333167	-0.0031961	-1.64255	0.000327837	0.0870442	0	0	0	
0.333333	0.0067742	1.57712	0.000256191	0.0873229	0	0	0	
0.3335	-0.0157539	-1.73679	0.000252509	0.0869035	0	0	0	
0.333667	0.0154359	1.52671	0.000310925	0.0867163	0	0	0	
0.333833	-0.0078152	-1.62783	0.000351518	0.0860615	0	0	0	
0.334	0.00741495	1.55669	0.000365058	0.086249	0	0	0	
0.334167	-0.0114678	-1.62675	0.000349101	0.0863587	0	0	0	
0.334333	0.0062943	1.59277	0.000319878	0.0869698	0	0	0	
0.3345	-0.00314212	-1.6553	0.000288199	0.0870958	0	0	0	
0.334667	0.00941424	1.62666	0.00027205	0.0872013	0	0	0	
0.334833	-0.0153964	-1.76232	0.000271679	0.0869402	0	0	0	
0.335	0.0168439	1.63626	0.000289188	0.0867518	0	0	0	
0.335167	-0.0207388	-1.71433	0.000336388	0.0861482	0	0	0	
0.335333	0.0300233	1.6163	0.00042663	0.0860411	0	0	0	
0.3355	-0.0303922	-1.72806	0.000559255	0.0858273	0	0	0	
0.335667	0.0216718	1.69298	0.000617572	0.0863492	0	0	0	
0.335833	-0.0216102	-1.7707	0.000632042	0.0867079	0	0	0	
0.336	0.0187599	1.73957	0.000641936	0.0872809	0	0	0	
0.336167	-0.0143365	-1.8776	0.000644569	0.0873458	0	0	0	
0.336333	0.00840814	1.8	0.000597948	0.0874883	0	0	0	
0.3365	-0.00270256	-1.90227	0.000497032	0.0872134	0	0	0	
0.336667	-0.000932006	1.79728	0.000425661	0.0872894	0	0	0	
0.336833	-0.0066911	-1.8569	0.000377545	0.087041	0	0	0	
0.337	0.00542761	1.77245	0.000334093	0.0870571	0	0	0	
0.337167	-0.00924503	-1.86095	0.00024655	0.0863391	0	0	0	
0.337333	0.00968542	1.72022	0.000219562	0.0857801	0	0	0	
0.3375	-0.00575192	-1.84941	0.000214648	0.0849568	0	0	0	
0.337667	0.0175239	1.81957	0.000277637	0.0853681	0	0	0	
0.337833	-0.0234234	-1.93301	0.00034887	0.086065	0	0	0	
0.338	0.0131953	1.91555	0.000387575	0.0872713	0	0	0	
0.338167	-0.00778529	-2.06983	0.0003662	0.0874801	0	0	0	
0.338333	0.0106075	1.93134	0.000390888	0.0873873	0	0	0	
0.3385	-0.0189075	-2.09701	0.000498909	0.0862983	0	0	0	
