0	-0.00290112	0.00786118	2.90112E-07	7.86118E-07	0	0	0	
0.000166667	-0.00907737	-0.000639716	0.000148995	0.000153151	0	0	0	
0.000333333	0.026854	-0.0167308	0.000422747	0.000393569	0	0	0	
0.0005	-0.0535922	0.0275106	0.000751908	0.00060228	0	0	0	
0.000666667	0.0638288	-0.0145311	0.000991898	0.0006227	0	0	0	
0.000833333	-0.0459536	0.0111091	0.00108145	0.000535263	0	0	0	
0.001	0.0509105	-0.00674643	0.00107657	0.000522156	0	0	0	
0.00116667	-0.0553828	0.00867435	0.00118015	0.000536898	0	0	0	
0.00133333	0.0402756	0.00345941	0.00127989	0.000591655	0	0	0	
0.0015	-0.025381	0.00712842	0.0012979	0.00062309	0	0	0	
0.00166667	0.0280842	0.000766222	0.00113915	0.000597124	0	0	0	
0.00183333	-0.0292017	-0.0194659	0.00110525	0.00052312	0	0	0	
0.002	0.0342354	0.028795	0.00127609	0.00057365	0	0	0	
0.00216667	-0.0222091	0.00769263	0.00155292	0.00079358	0	0	0	
0.00233333	0.0163358	-0.000623894	0.00165656	0.00102656	0	0	0	
0.0025	-0.025021	0.0168292	0.00156008	0.00101969	0	0	0	
0.00266667	0.0399959	-0.0151742	0.00135326	0.000897562	0	0	0	
0.00283333	-0.0413087	0.000366637	0.00121633	0.000728162	0	0	0	
0.003	0.0179921	0.00572895	0.00113852	0.000603485	0	0	0	
0.00316667	-0.0144385	-0.00332829	0.00113496	0.000576794	0	0	0	
0.00333333	0.0413617	0.00491215	0.0012896	0.00066847	0	0	0	
0.0035	-0.0609518	0.00265697	0.00151651	0.000751331	0	0	0	
0.00366667	0.0511323	0.00773293	0.00161136	0.000759118	0	0	0	
0.00383333	-0.0399296	-0.0137317	0.0014583	0.000799779	0	0	0	
0.004	0.0330935	0.000708683	0.00125697	0.000902769	0	0	0	
0.00416667	-0.0318558	0.00285203	0.00112438	0.000946755	0	0	0	
0.00433333	0.0240165	-0.00646657	0.0011257	0.000822048	0	0	0	
0.0045	-0.023652	-0.000205857	0.00119639	0.000619574	0	0	0	
0.00466667	0.0341796	0.0179117	0.00128587	0.000460934	0	0	0	
0.00483333	-0.0403136	-0.0201499	0.0013346	0.000505913	0	0	0	
0.005	0.0571947	-0.0342821	0.00142871	0.000995451	0	0	0	
0.00516667	-0.0896426	0.12505	0.00167371	0.00177182	0	0	0	
0.00533333	0.0983809	-0.136553	0.0019005	0.0023647	0	0	0	
0.0055	-0.0420386	0.0363123	0.00181939	0.00232089	0	0	0	
0.00566667	0.000212883	0.0423662	0.00127181	0.00174411	0	0	0	
0.00583333	-0.0133048	-0.0355379	0.000928616	0.00122357	0	0	0	
0.006	0.0329082	0.0167457	0.00104964	0.00117891	0	0	0	
0.00616667	-0.0270787	-0.0203486	0.0014725	0.00151093	0	0	0	
0.00633333	0.0319581	-0.0179168	0.00174376	0.00208578	0	0	0	
0.0065	-0.0515115	0.0674018	0.0018665	0.00240716	0	0	0	
0.00666667	0.0703285	-0.0495505	0.00190521	0.00219666	0	0	0	
0.00683333	-0.0547656	0.00178234	0.00179663	0.00144699	0	0	0	
0.007	0.0296222	0.0132218	0.00140528	0.000628505	0	0	0	
0.00716667	-0.00466943	-0.002633	0.000932182	0.000373172	0	0	0	
0.00733333	-0.0217259	-0.0164483	0.000563326	0.000398168	0	0	0	
0.0075	0.0164228	0.0274992	0.000627347	0.000609068	0	0	0	
0.00766667	0.0127632	-0.0202869	0.00109943	0.000726897	0	0	0	
0.00783333	-0.0264302	0.0312573	0.00158664	0.00077664	0	0	0	
0.008	0.0429081	-0.00280915	0.00172754	0.000710147	0	0	0	
0.00816667	-0.0526232	0.000173724	0.0016046	0.000511925	0	0	0	
0.00833333	0.0462557	-0.00743517	0.00140088	0.00047671	0	0	0	
0.0085	-0.0260098	0.0239437	0.0011138	0.000520963	0	0	0	
0.00866667	0.0135471	-0.0171362	0.000835625	0.000674887	0	0	0	
0.00883333	-0.0217395	0.0398731	0.000806241	0.000835834	0	0	0	
0.009	0.0357857	-0.0358483	0.000868396	0.00103006	0	0	0	
0.00916667	-0.0148376	0.0266537	0.000836821	0.00090184	0	0	0	
0.00933333	-0.0296721	0.0148384	0.000622465	0.000904584	0	0	0	
0.0095	0.0238501	-0.0429272	0.000600779	0.000619552	0	0	0	
0.00966667	0.00969449	0.0168428	0.000967891	0.00091963	0	0	0	
0.00983333	-0.0351011	0.00792175	0.00139807	0.00110743	0	0	0	
0.01	0.0575298	-0.0124315	0.00166782	0.00135264	0	0	0	
0.0101667	-0.0798353	0.0193046	0.00166612	0.00115495	0	0	0	
0.0103333	0.056426	-0.0266548	0.00159455	0.000837335	0	0	0	
0.0105	-0.0268895	-0.0126188	0.00139356	0.00066119	0	0	0	
0.0106667	0.0400326	0.0112386	0.00126771	0.000592152	0	0	0	
0.0108333	-0.0640874	0.00648669	0.00138685	0.0005263	0	0	0	
0.011	0.0554206	-0.00741116	0.00166057	0.000527909	0	0	0	
0.0111667	-0.0333957	-0.00602486	0.00163286	0.00057809	0	0	0	
0.0113333	0.0147919	-0.0121	0.00131481	0.00062346	0	0	0	
0.0115	-0.00925926	-0.00561407	0.00114461	0.000609489	0	0	0	
0.0116667	0.0392744	-0.00287504	0.0014113	0.000460543	0	0	0	
0.0118333	-0.0446944	0.0451173	0.00201837	0.000487058	0	0	0	
0.012	0.0617267	0.0245976	0.00251816	0.000692504	0	0	0	
0.0121667	-0.100035	0.00676566	0.00263586	0.000956178	0	0	0	
0.0123333	0.0663067	-0.0491283	0.00240871	0.00116065	0	0	0	
0.0125	0.00926499	0.0374842	0.00193358	0.00122825	0	0	0	
0.0126667	-0.0659766	-0.0471112	0.00187515	0.00148123	0	0	0	
0.0128333	0.00822332	0.0375206	0.00213406	0.00169654	0	0	0	
0.013	0.0489807	-0.0135887	0.00259445	0.00190281	0	0	0	
0.0131667	-0.0674662	0.0482092	0.00252532	0.00178504	0	0	0	
0.0133333	0.0576277	-0.0621357	0.00216191	0.00163033	0	0	0	
0.0135	-0.00108986	0.00930385	0.00185923	0.00125406	0	0	0	
0.0136667	-0.0158326	0.0211682	0.00169872	0.000997326	0	0	0	
0.0138333	-0.052291	-0.0456763	0.00151354	0.000986036	0	0	0	
0.014	0.0414588	0.00700302	0.00159545	0.000911295	0	0	0	
0.0141667	-0.0554989	-0.0299377	0.00184293	0.00105793	0	0	0	
0.0143333	0.0954852	0.0223161	0.002138	0.00106992	0	0	0	
0.0145	-0.0589919	0.0251333	0.00215828	0.00142339	0	0	0	
0.0146667	0.0139378	-0.0730271	0.00175406	0.00153539	0	0	0	
0.0148333	0.022091	0.0443272	0.00128854	0.00152128	0	0	0	
0.015	-0.0154334	-0.00708886	0.00111597	0.00128762	0	0	0	
0.0151667	-0.0346201	-0.0104295	0.00158098	0.00126623	0	0	0	
0.0153333	0.0749992	-0.000492586	0.00202224	0.00106971	0	0	0	
0.0155	-0.0575772	0.0115735	0.00207409	0.000850254	0	0	0	
0.0156667	0.0321848	0.0087111	0.00176994	0.000514961	0	0	0	
0.0158333	-0.0534882	-0.0320745	0.00168722	0.000922293	0	0	0	
0.016	0.0930042	-0.00248725	0.00178246	0.00185095	0	0	0	
0.0161667	-0.0689264	0.043499	0.00188127	0.00250211	0	0	0	
0.0163333	0.0364522	-0.0603397	0.00157858	0.00214648	0	0	0	
0.0165	-0.0108499	0.0233108	0.00117739	0.00136918	0	0	0	
0.0166667	0.0183756	0.00129115	0.00100261	0.000721246	0	0	0	
0.0168333	-0.0265125	-0.0523394	0.00121442	0.000593861	0	0	0	
0.017	0.0249359	0.0641722	0.0013852	0.000690511	0	0	0	
0.0171667	-0.0316023	-0.0334715	0.00144354	0.000982176	0	0	0	
0.0173333	0.0495954	-0.0194974	0.00151809	0.00135773	0	0	0	
0.0175	-0.0494299	0.0208246	0.00162243	0.00136564	0	0	0	
0.0176667	0.013291	0.0130503	0.00145859	0.00104726	0	0	0	
0.0178333	0.0230682	-0.0374533	0.00107375	0.000615538	0	0	0	
0.018	-0.00371576	0.0076492	0.00100609	0.000554003	0	0	0	
0.0181667	-0.0480059	0.011653	0.00146083	0.000889217	0	0	0	
0.0183333	0.0677787	-0.0182774	0.00192388	0.00108857	0	0	0	
0.0185	-0.047995	0.0237716	0.0018714	0.00107948	0	0	0	
0.0186667	0.0260801	-0.0232339	0.00145145	0.000926365	0	0	0	
0.0188333	-0.0262203	0.017128	0.00113545	0.000722021	0	0	0	
0.019	0.023609	0.01181	0.00104681	0.000516238	0	0	0	
0.0191667	-0.0135111	-0.00601092	0.00100608	0.000442525	0	0	0	
0.0193333	0.0127532	-0.0112237	0.00100612	0.000579333	0	0	0	
0.0195	-0.0245966	0.00527377	0.00111163	0.000671119	0	0	0	
0.0196667	0.032043	0.00895417	0.00130657	0.000592264	0	0	0	
0.0198333	-0.0275849	-0.0184845	0.00140038	0.000511475	0	0	0	
0.02	0.0112654	0.0230919	0.00132306	0.000610735	0	0	0	
0.0201667	-0.0165056	-0.00744797	0.00122722	0.000820391	0	0	0	
0.0203333	0.0349879	-0.0201346	0.00134372	0.00105965	0	0	0	
0.0205	-0.0370939	0.0189869	0.00169349	0.00120744	0	0	0	
0.0206667	0.0556782	-0.035095	0.00195514	0.00103584	0	0	0	
0.0208333	-0.0381908	0.00180777	0.00193486	0.000758176	0	0	0	
0.021	0.0222676	0.00786295	0.00160297	0.000501316	0	0	0	
0.0211667	-0.0156817	0.00519082	0.00136535	0.000709867	0	0	0	
0.0213333	0.0189304	-9.08306E-05	0.00129208	0.000852774	0	0	0	
0.0215	0.000686432	-0.0201427	0.00138561	0.000935786	0	0	0	
0.0216667	0.0164236	-0.0104964	0.00148444	0.000926526	0	0	0	
0.0218333	-0.0329301	0.0188553	0.00160857	0.00111916	0	0	0	
0.022	0.0675042	-0.0101392	0.00180635	0.00131814	0	0	0	
0.0221667	-0.0861848	-0.00380794	0.00209307	0.00138931	0	0	0	
0.0223333	0.0962368	-0.00534308	0.00217813	0.00137938	0	0	0	
0.0225	-0.0403219	0.0216752	0.00192567	0.00131424	0	0	0	
0.0226667	-0.0138801	-4.05434E-05	0.00128686	0.0011189	0	0	0	
0.0228333	0.00594507	-0.0199921	0.00103802	0.000817022	0	0	0	
0.023	0.0218443	0.0193675	0.00123947	0.000707121	0	0	0	
0.0231667	-0.0171626	-0.010895	0.00176402	0.000838421	0	0	0	
0.0233333	0.0312186	0.010993	0.00213047	0.00101589	0	0	0	
0.0235	-0.0624048	-0.00461058	0.00233533	0.00103391	0	0	0	
0.0236667	0.0770839	0.00598161	0.00238667	0.000963138	0	0	0	
0.0238333	-0.0740465	-7.34927E-05	0.00218332	0.000921037	0	0	0	
0.024	0.0504126	-0.015652	0.00184582	0.000953751	0	0	0	
0.0241667	-0.026045	0.0137665	0.00156064	0.000988331	0	0	0	
0.0243333	0.0343621	-0.00306257	0.00149775	0.000962312	0	0	0	
0.0245	-0.0477848	0.00550438	0.00148227	0.00088993	0	0	0	
0.0246667	0.0233234	-0.00485906	0.00138198	0.000781377	0	0	0	
0.0248333	0.00493371	-0.0106938	0.00114484	0.000651586	0	0	0	
0.025	0.00441549	0.00467783	0.00120831	0.00057968	0	0	0	
0.0251667	-0.0348472	0.00891038	0.00155444	0.000693327	0	0	0	
0.0253333	0.0409387	-0.013747	0.00182744	0.000866086	0	0	0	
0.0255	-0.0192851	0.00297	0.00169379	0.000903022	0	0	0	
0.0256667	0.0128121	0.0129321	0.00142525	0.00080983	0	0	0	
0.0258333	-0.0309825	-0.00829444	0.00139344	0.000784882	0	0	0	
0.026	0.0378458	-0.00569185	0.00149866	0.000889364	0	0	0	
0.0261667	-0.0319067	0.0114259	0.00153368	0.000999304	0	0	0	
0.0263333	0.0265823	-0.0103849	0.00142552	0.00101887	0	0	0	
0.0265	-0.0169341	0.00749913	0.00124788	0.00095021	0	0	0	
0.0266667	0.00481253	-0.0024445	0.00104793	0.000821207	0	0	0	
0.0268333	-0.00648986	0.00478605	0.000969189	0.000689834	0	0	0	
0.027	0.0215153	-0.00101987	0.00112718	0.000580832	0	0	0	
0.0271667	-0.0274258	-0.0122795	0.0014107	0.000522335	0	0	0	
0.0273333	0.0265332	0.0184276	0.00152225	0.000594853	0	0	0	
0.0275	-0.0215594	-0.00530198	0.0014059	0.000775173	0	0	0	
0.0276667	0.0240054	0.000300956	0.00126392	0.000929747	0	0	0	
0.0278333	-0.0215793	-0.0031931	0.00122205	0.00093022	0	0	0	
0.028	0.0202518	0.00670937	0.0011894	0.000872304	0	0	0	
0.0281667	-0.00822403	-0.00656954	0.00116031	0.000876318	0	0	0	
0.0283333	0.0125076	-0.00285533	0.00119016	0.000924235	0	0	0	
0.0285	-0.0203662	0.01031	0.00127642	0.000874288	0	0	0	
0.0286667	0.0152237	0.00442997	0.00127506	0.000702246	0	0	0	
0.0288333	-0.00981941	0.00357175	0.0012436	0.000577364	0	0	0	
0.029	0.000250908	-0.0124597	0.00144503	0.000591459	0	0	0	
0.0291667	-0.0169983	0.0160214	0.00180663	0.000572362	0	0	0	
0.0293333	0.0226348	0.0239271	0.00185675	0.000483061	0	0	0	
0.0295	-0.0191344	-0.0217308	0.00144217	0.000484355	0	0	0	
0.0296667	0.016347	0.00696147	0.00100554	0.000678739	0	0	0	
0.0298333	-0.0268661	-0.00072834	0.000964769	0.000759393	0	0	0	
0.03	0.0118562	0.0110811	0.00105891	0.00067654	0	0	0	
0.0301667	-0.00486612	0.0114784	0.000960288	0.000685939	0	0	0	
0.0303333	0.0360604	-0.00660864	0.000841629	0.000864556	0	0	0	
0.0305	-0.0605203	0.00275079	0.00101646	0.00084279	0	0	0	
0.0306667	0.0156654	0.0325858	0.00130011	0.00066979	0	0	0	
0.0308333	0.0060555	-0.0216584	0.0014161	0.000594276	0	0	0	
0.031	0.0184348	0.000965746	0.00152221	0.000845883	0	0	0	
0.0311667	-0.0388025	0.00133056	0.00176058	0.00101008	0	0	0	
0.0313333	0.0388558	0.000555672	0.00198283	0.00102481	0	0	0	
0.0315	-0.0291448	0.03681	0.00194497	0.000953342	0	0	0	
0.0316667	0.0197917	-0.0864264	0.00168923	0.00100032	0	0	0	
0.0318333	-0.0764553	0.0359055	0.00134823	0.00155089	0	0	0	
0.032	0.0334145	0.0778191	0.00123869	0.00181727	0	0	0	
0.0321667	0.0142572	-0.0832651	0.000964814	0.00199879	0	0	0	
0.0323333	-0.0194614	0.0298489	0.00119105	0.00176333	0	0	0	
0.0325	-0.0265548	-0.00175595	0.00141796	0.00153047	0	0	0	
0.0326667	0.0405616	-0.0495185	0.00175788	0.00139013	0	0	0	
0.0328333	-0.0685918	0.0895717	0.00184638	0.00169741	0	0	0	
0.033	0.0384795	-0.0611268	0.00200344	0.00213296	0	0	0	
0.0331667	-0.0398963	-0.000322396	0.002184	0.00185868	0	0	0	
0.0333333	0.0292962	0.0327396	0.00199303	0.0011241	0	0	0	
0.0335	-0.0103528	-0.00903472	0.00139722	0.000541124	0	0	0	
0.0336667	0.00206589	-0.0163718	0.00103165	0.000779535	0	0	0	
0.0338333	-0.00827032	0.0121253	0.00117999	0.000747322	0	0	0	
0.034	0.0195188	0.0285316	0.0014475	0.000632078	0	0	0	
0.0341667	0.000164789	-0.0417412	0.0014305	0.000476815	0	0	0	
0.0343333	-0.0175915	0.0202769	0.00122653	0.000724244	0	0	0	
0.0345	-0.00634785	0.00302833	0.00128867	0.000965805	0	0	0	
0.0346667	0.0437765	0.0112631	0.00159903	0.00088928	0	0	0	
0.0348333	-0.0407284	-0.0182988	0.00173792	0.000682196	0	0	0	
0.035	0.0102186	0.00595935	0.00147618	0.000746533	0	0	0	
0.0351667	-0.00293222	0.0166116	0.00115842	0.000982273	0	0	0	
0.0353333	0.0281689	-0.0148554	0.00110607	0.000962119	0	0	0	
0.0355	-0.0398858	0.00880979	0.00119837	0.000694373	0	0	0	
0.0356667	0.0134261	0.000178582	0.00124202	0.000500264	0	0	0	
0.0358333	-0.00150793	-0.00396203	0.00124788	0.000584653	0	0	0	
0.036	0.0217235	0.0122556	0.00146569	0.000723517	0	0	0	
0.0361667	-0.0390274	-0.0149378	0.00165408	0.000772124	0	0	0	
0.0363333	0.0249769	0.0139003	0.00160056	0.000760939	0	0	0	
0.0365	-0.0107988	-0.00510366	0.00131274	0.000816699	0	0	0	
0.0366667	0.013542	0.000395209	0.00123453	0.000935329	0	0	0	
0.0368333	-0.0275859	0.00167982	0.001398	0.000984554	0	0	0	
0.037	0.0280699	-0.00152688	0.00150053	0.000900704	0	0	0	
0.0371667	-0.00791519	0.00161837	0.00133099	0.000739146	0	0	0	
0.0373333	0.000906977	0.00636226	0.0011363	0.000607805	0	0	0	
0.0375	-0.0194675	-0.0108013	0.00123891	0.000576146	0	0	0	
0.0376667	0.0296005	0.00896495	0.00148777	0.000664371	0	0	0	
0.0378333	-0.0220653	-0.00461615	0.00159547	0.000814163	0	0	0	
0.038	0.0159125	0.00548241	0.0014996	0.000907093	0	0	0	
0.0381667	-0.0220076	-0.00770762	0.0014266	0.000905802	0	0	0	
0.0383333	0.0264036	0.0034814	0.00142604	0.000854502	0	0	0	
0.0385	-0.0169943	-0.0033093	0.00136969	0.000785937	0	0	0	
0.0386667	0.00403045	0.0103175	0.00120766	0.000704723	0	0	0	
0.0388333	-0.00681681	-0.0137293	0.00113542	0.000680556	0	0	0	
0.039	0.020657	0.00192124	0.0012595	0.000747759	0	0	0	
0.0391667	-0.0287228	0.00146613	0.00142966	0.00082578	0	0	0	
0.0393333	0.0213583	0.0019193	0.0014357	0.000780853	0	0	0	
0.0395	-0.0101491	-0.0114751	0.00129626	0.000679329	0	0	0	
0.0396667	0.00511096	0.0163227	0.00120799	0.00063387	0	0	0	
0.0398333	-0.00779746	-0.0164003	0.00126184	0.000702456	0	0	0	
0.04	0.0279812	-6.95053E-05	0.00147348	0.000855304	0	0	0	
0.0401667	-0.0882896	0.0306165	0.00179974	0.00104162	0	0	0	
0.0403333	0.112798	-0.0299159	0.00223611	0.00113585	0	0	0	
0.0405	-0.0605365	0.00213433	0.00238598	0.0009969	0	0	0	
0.0406667	0.0308203	0.0171329	0.00207331	0.000783778	0	0	0	
0.0408333	-0.0289311	-0.0114084	0.00159602	0.000680811	0	0	0	
0.041	0.0146425	0.0112653	0.00128474	0.000700345	0	0	0	
0.0411667	-0.00888658	-0.0128243	0.00127247	0.000761971	0	0	0	
0.0413333	0.0100797	0.00497272	0.001492	0.000877537	0	0	0	
0.0415	-0.00560253	-0.000841429	0.00184707	0.000974002	0	0	0	
0.0416667	-0.000157608	0.0278314	0.0020396	0.000914862	0	0	0	
0.0418333	0.00433931	-0.0342192	0.00188948	0.000735683	0	0	0	
0.042	-0.000578782	0.0195599	0.00170209	0.000670852	0	0	0	
0.0421667	-0.0164116	-0.0116235	0.00170568	0.000751628	0	0	0	
0.0423333	0.026097	0.0100186	0.00173561	0.00082935	0	0	0	
0.0425	-0.0418079	-0.00822308	0.00165708	0.000839098	0	0	0	
0.0426667	0.0479712	-0.00330568	0.00150952	0.000787579	0	0	0	
0.0428333	-0.0334561	-0.001145	0.00126764	0.000651627	0	0	0	
0.043	-0.00394846	0.00711925	0.000970417	0.000468711	0	0	0	
0.0431667	0.0157569	-0.0115493	0.000833729	0.000410463	0	0	0	
0.0433333	0.00593199	0.00437275	0.000995171	0.000522013	0	0	0	
0.0435	-0.0212413	-0.00181948	0.00121254	0.000612684	0	0	0	
0.0436667	0.028121	0.0025183	0.00135992	0.000560916	0	0	0	
0.0438333	-0.0316531	-0.0127875	0.00147877	0.000505625	0	0	0	
0.044	0.0311074	0.00279197	0.00159613	0.000554183	0	0	0	
0.0441667	-0.0204316	-0.00526784	0.00154456	0.000643961	0	0	0	
0.0443333	0.0171521	0.0126704	0.00133278	0.000666679	0	0	0	
0.0445	-0.000458943	-0.015905	0.00119691	0.000714534	0	0	0	
0.0446667	0.0115538	0.0105898	0.00121972	0.000830654	0	0	0	
0.0448333	-0.0204682	-0.0113338	0.00128572	0.000935452	0	0	0	
0.045	0.0282879	-0.00508027	0.0012837	0.000936466	0	0	0	
0.0451667	-0.0303475	-0.00648439	0.00132312	0.000921627	0	0	0	
0.0453333	0.0189826	0.00300611	0.0014554	0.000933933	0	0	0	
0.0455	-0.0121669	-0.00700621	0.00157525	0.000937392	0	0	0	
0.0456667	0.0114683	0.0179149	0.00153355	0.000869065	0	0	0	
0.0458333	-0.0166477	-0.0227326	0.00140666	0.000802587	0	0	0	
0.046	0.0311941	0.00340577	0.00142405	0.000759089	0	0	0	
0.0461667	-0.0317711	-0.0212	0.00157731	0.00082866	0	0	0	
0.0463333	-0.00134774	0.018758	0.00155163	0.000861065	0	0	0	
0.0465	0.0261976	-0.0206758	0.00130865	0.000916331	0	0	0	
0.0466667	-0.0256781	0.0170494	0.00122317	0.000905874	0	0	0	
0.0468333	-0.0137469	-0.00674698	0.00144928	0.000878413	0	0	0	
0.047	0.0275259	0.0039336	0.00168035	0.000798939	0	0	0	
0.0471667	-0.0187788	-0.00731245	0.00165693	0.000739338	0	0	0	
0.0473333	0.0270784	0.000582445	0.00157361	0.000770371	0	0	0	
0.0475	-0.0318488	-0.00224259	0.00154919	0.000811224	0	0	0	
0.0476667	0.00779995	0.0130571	0.00135113	0.00071734	0	0	0	
0.0478333	0.0178266	-0.0204458	0.000970449	0.000578566	0	0	0	
0.048	-0.0180411	0.0151021	0.000825419	0.000542754	0	0	0	
0.0481667	-0.00783451	-0.00701131	0.00116272	0.000641484	0	0	0	
0.0483333	0.0271834	0.00847654	0.00161766	0.000744968	0	0	0	
0.0485	-0.0177881	-0.0103075	0.0016828	0.000807788	0	0	0	
0.0486667	0.00288503	0.00434509	0.00138966	0.000806854	0	0	0	
0.0488333	-0.00300109	-0.00845083	0.00118438	0.000752238	0	0	0	
0.049	0.00512419	0.0167315	0.00124164	0.000706651	0	0	0	
0.0491667	-0.00301178	-0.0146656	0.00142361	0.000760876	0	0	0	
0.0493333	0.0134449	0.0141707	0.00158878	0.000901034	0	0	0	
0.0495	-0.0185868	-0.0183841	0.00174931	0.00098904	0	0	0	
0.0496667	0.0226614	0.0195078	0.00183193	0.000977088	0	0	0	
0.0498333	-0.0121669	-0.0154395	0.001692	0.000902862	0	0	0	
0.05	-0.00423982	0.0153874	0.00135289	0.000782534	0	0	0	
0.0501667	0.0132876	-0.0296698	0.00115425	0.000705738	0	0	0	
0.0503333	-0.0176334	0.0209305	0.0013019	0.000705389	0	0	0	
0.0505	0.0112415	-0.0277157	0.0016255	0.000876109	0	0	0	
0.0506667	0.000753952	0.0112684	0.00177034	0.000885954	0	0	0	
0.0508333	-0.00948747	-0.0202058	0.00164721	0.000792084	0	0	0	
0.051	0.010731	0.0120725	0.00145946	0.000625835	0	0	0	
0.0511667	-0.0119031	-0.00864154	0.00138329	0.000675163	0	0	0	
0.0513333	0.00206202	0.00194421	0.00140004	0.000777361	0	0	0	
0.0515	-0.00213897	-0.0227929	0.00137677	0.000869554	0	0	0	
0.0516667	0.0029864	0.00839007	0.00131011	0.000837408	0	0	0	
0.0518333	-0.00595805	-0.0101211	0.00129771	0.00079317	0	0	0	
0.052	0.0084823	0.0140841	0.00137081	0.000710104	0	0	0	
0.0521667	-0.00927007	-0.018649	0.00140451	0.000671214	0	0	0	
0.0523333	-0.00116364	0.0193467	0.00136781	0.000707817	0	0	0	
0.0525	0.000542162	-0.0131327	0.00140244	0.000817408	0	0	0	
0.0526667	0.0171483	0.0105179	0.00153504	0.000910548	0	0	0	
0.0528333	-0.0185905	-0.00539103	0.00155023	0.000876392	0	0	0	
0.053	0.00493694	0.00779972	0.00136314	0.000757727	0	0	0	
0.0531667	0.0011492	-0.0140728	0.00120544	0.000624467	0	0	0	
0.0533333	-0.00549859	0.0327032	0.00127563	0.000639074	0	0	0	
0.0535	0.0052303	-0.0288529	0.00146344	0.000840257	0	0	0	
0.0536667	0.011435	-0.000320726	0.00166402	0.00113579	0	0	0	
0.0538333	-0.0374443	0.0160909	0.00184246	0.00125499	0	0	0	
0.054	0.0447546	-0.00883034	0.0019114	0.00108119	0	0	0	
0.0541667	-0.0246964	-0.00681513	0.00171663	0.00078205	0	0	0	
0.0543333	-0.00258314	0.0172515	0.00132719	0.000608096	0	0	0	
0.0545	0.00961134	-0.0206542	0.00105176	0.000592233	0	0	0	
0.0546667	-0.0108412	0.0251174	0.00100754	0.000643503	0	0	0	
0.0548333	0.0148921	-0.0253542	0.00118366	0.000719878	0	0	0	
0.055	-0.000450889	0.013763	0.00151896	0.000892994	0	0	0	
0.0551667	-0.0261428	-0.00177441	0.00192949	0.00110035	0	0	0	
0.0553333	0.0330927	0.0072406	0.00212276	0.00114452	0	0	0	
0.0555	-0.0301701	-0.0174255	0.00188667	0.00100162	0	0	0	
0.0556667	0.00759964	0.00855049	0.00140922	0.000835688	0	0	0	
0.0558333	0.0167195	0.00660391	0.00103772	0.00087301	0	0	0	
0.056	-0.0241832	-0.00120149	0.00095254	0.00101233	0	0	0	
0.0561667	0.0292469	-0.0182934	0.00105317	0.00106816	0	0	0	
0.0563333	-0.0224968	0.0259218	0.00130559	0.00099334	0	0	0	
0.0565	-0.00574892	-0.021444	0.00163677	0.00091279	0	0	0	
0.0566667	0.0174934	0.0141796	0.00187257	0.000859079	0	0	0	
0.0568333	-0.0258457	-0.0301863	0.00181804	0.000860303	0	0	0	
0.057	0.0328897	0.0360273	0.00153369	0.000943936	0	0	0	
0.0571667	-0.0286236	-0.0228372	0.00122084	0.00109513	0	0	0	
0.0573333	0.00498501	0.0084602	0.00100533	0.00105548	0	0	0	
0.0575	0.00984924	-0.014942	0.00091389	0.000835266	0	0	0	
0.0576667	-0.00318557	0.0152507	0.000976775	0.000622046	0	0	0	
0.0578333	-0.006578	-0.00963968	0.00115363	0.000615833	0	0	0	
0.058	0.00268335	0.00398089	0.00133578	0.000708576	0	0	0	
0.0581667	-0.00913159	-0.00646168	0.00142804	0.000758142	0	0	0	
0.0583333	0.0124239	0.0101401	0.00149137	0.000715497	0	0	0	
0.0585	-0.0165104	-0.0132671	0.00151467	0.000656142	0	0	0	
0.0586667	0.00915752	0.0131705	0.00148634	0.000653369	0	0	0	
0.0588333	0.0057625	-0.0173395	0.00144887	0.000719046	0	0	0	
0.059	0.00115057	0.0180053	0.00148235	0.000818319	0	0	0	
0.0591667	-0.0110269	-0.0087914	0.00152737	0.000910962	0	0	0	
0.0593333	0.00256399	0.00077296	0.0014742	0.000929144	0	0	0	
0.0595	-0.00114502	-0.00633431	0.00136161	0.000805712	0	0	0	
0.0596667	-0.000834777	0.0187125	0.00131673	0.000633192	0	0	0	
0.0598333	0.0058402	-0.0234923	0.00132497	0.000554746	0	0	0	
0.06	0.00195441	0.0161731	0.00136379	0.000651409	0	0	0	
0.0601667	-0.0174999	-0.00182807	0.0014706	0.000817928	0	0	0	
0.0603333	0.026215	-0.00375528	0.00155013	0.000875888	0	0	0	
0.0605	-0.00581423	-0.0184888	0.00136799	0.000719687	0	0	0	
0.0606667	-0.0451087	0.0499793	0.00103818	0.000603304	0	0	0	
0.0608333	0.0493776	-0.0600138	0.0011418	0.000758768	0	0	0	
0.061	0.024397	0.0327341	0.00207141	0.00144426	0	0	0	
0.0611667	-0.121242	0.00443795	0.00316342	0.002245	0	0	0	
0.0613333	0.149636	-0.0485258	0.00360233	0.00255914	0	0	0	
0.0615	-0.108865	0.0620486	0.00319359	0.00223835	0	0	0	
0.0616667	0.0453034	-0.0286486	0.00234297	0.00156859	0	0	0	
0.0618333	0.0337988	-0.0203342	0.00167034	0.000937786	0	0	0	
0.062	-0.095013	0.0706963	0.00121375	0.000724161	0	0	0	
0.0621667	0.0612489	-0.0974123	0.00156096	0.000943782	0	0	0	
0.0623333	0.0204007	0.0442611	0.00244761	0.00142021	0	0	0	
0.0625	-0.0567242	0.00308061	0.00326209	0.00174355	0	0	0	
0.0626667	0.0430847	0.0218401	0.00316142	0.00155946	0	0	0	
0.0628333	-0.0153718	-0.0520461	0.00244199	0.00134935	0	0	0	
0.063	0.0216357	0.0258859	0.00207734	0.00131818	0	0	0	
0.0631667	-0.0462303	1.96468E-05	0.00227763	0.00169471	0	0	0	
0.0633333	0.0425119	-0.0202296	0.00243501	0.00187455	0	0	0	
0.0635	-0.0238692	0.0126601	0.00213275	0.00166425	0	0	0	
0.0636667	0.0156207	-0.0138601	0.00158438	0.00124389	0	0	0	
0.0638333	0.00670147	0.00115937	0.0010952	0.000918944	0	0	0	
0.064	-0.0464449	0.0328272	0.000906329	0.000708498	0	0	0	
0.0641667	0.0485959	-0.0598007	0.00112504	0.000722268	0	0	0	
0.0643333	-0.0081742	0.0331712	0.00159576	0.000872106	0	0	0	
0.0645	-0.012279	-0.0147322	0.00179948	0.00110295	0	0	0	
0.0646667	0.00217098	0.0185158	0.00147033	0.00108334	0	0	0	
0.0648333	0.0154528	-0.0211476	0.00101752	0.000972627	0	0	0	
0.065	-0.0255108	0.0208096	0.00092722	0.000894931	0	0	0	
0.0651667	0.00990683	-0.00847214	0.00122482	0.000887337	0	0	0	
0.0653333	0.0183533	0.000850309	0.00158304	0.000882528	0	0	0	
0.0655	-0.0312352	0.00109284	0.00171136	0.000768677	0	0	0	
0.0656667	0.0249484	0.011018	0.00162168	0.000631445	0	0	0	
0.0658333	-0.00404954	-0.0127288	0.00140676	0.000581974	0	0	0	
0.066	-0.00108806	0.0148251	0.00121104	0.000634785	0	0	0	
0.0661667	-0.00366361	-0.00927068	0.00111305	0.000664733	0	0	0	
0.0663333	0.00143707	0.00921782	0.00109968	0.000644128	0	0	0	
0.0665	0.00994051	-0.0139706	0.00117789	0.000597624	0	0	0	
0.0666667	-0.00924667	0.0160935	0.00139041	0.000648609	0	0	0	
0.0668333	-0.00909099	-0.0157919	0.00168695	0.000791801	0	0	0	
0.067	0.0225418	0.00908955	0.00181482	0.000890033	0	0	0	
0.0671667	-0.0118614	-0.0152996	0.00163763	0.000884574	0	0	0	
0.0673333	-0.00279888	0.0142365	0.00133488	0.000809584	0	0	0	
0.0675	0.00624579	-0.012376	0.00123777	0.000775621	0	0	0	
0.0676667	-0.0052126	0.0136814	0.00133623	0.000761402	0	0	0	
0.0678333	0.00710219	-0.0206227	0.00142866	0.000783237	0	0	0	
0.068	-0.00783128	0.0171	0.00143005	0.000822991	0	0	0	
0.0681667	0.000557718	-0.0183727	0.00144951	0.000837266	0	0	0	
0.0683333	0.00638354	0.0212923	0.00148865	0.000788189	0	0	0	
0.0685	0.00291886	-0.0206866	0.00141615	0.000771395	0	0	0	
0.0686667	-0.0162349	0.0246303	0.0012618	0.000843382	0	0	0	
0.0688333	0.0177985	-0.0224678	0.00118877	0.000886569	0	0	0	
0.069	-0.0230934	0.0279252	0.00126195	0.000856948	0	0	0	
0.0691667	0.0229237	-0.0220809	0.00141292	0.000746775	0	0	0	
0.0693333	-0.00135072	0.0343998	0.00163501	0.000720687	0	0	0	
0.0695	-0.0241025	-0.056381	0.0018608	0.000864252	0	0	0	
0.0696667	0.0213629	0.0325589	0.00185524	0.000902489	0	0	0	
0.0698333	-0.00695197	-0.02136	0.00153882	0.000980958	0	0	0	
0.07	0.0030308	0.00815582	0.00113177	0.000867783	0	0	0	
0.0701667	0.00463438	-0.00337964	0.000914254	0.000833172	0	0	0	
0.0703333	-0.0285221	0.0108646	0.000961504	0.000719306	0	0	0	
0.0705	0.0306058	-0.019735	0.00119717	0.00065937	0	0	0	
0.0706667	-0.0120949	0.00296901	0.00151678	0.000501239	0	0	0	
0.0708333	-0.00312154	-0.0288579	0.00173008	0.0005001	0	0	0	
0.071	0.00521153	0.0231585	0.00168967	0.000520999	0	0	0	
0.0711667	0.0043832	-0.0220349	0.00150158	0.000733461	0	0	0	
0.0713333	-0.00776782	0.0175861	0.00135839	0.000768465	0	0	0	
0.0715	-0.000724977	-0.0161837	0.00131808	0.000763968	0	0	0	
0.0716667	0.000963741	0.0173285	0.00130088	0.000698657	0	0	0	
0.0718333	0.0092007	-0.0198174	0.00127263	0.000680281	0	0	0	
0.072	-0.0106839	0.0235754	0.00127543	0.000708213	0	0	0	
0.0721667	0.00436284	-0.0197835	0.00130668	0.00075508	0	0	0	
0.0723333	-0.000167327	0.0114792	0.0013409	0.000767755	0	0	0	
0.0725	-0.000461126	-0.0101247	0.00137711	0.000767632	0	0	0	
0.0726667	-0.00283404	0.0147396	0.00140944	0.000775329	0	0	0	
0.0728333	0.00619054	-0.0166344	0.00140088	0.000774634	0	0	0	
0.073	-0.00853434	0.0172554	0.00135155	0.000730521	0	0	0	
0.0731667	0.000664182	-0.0195881	0.00134497	0.000705591	0	0	0	
0.0733333	0.010374	0.0119798	0.00142197	0.000740125	0	0	0	
0.0735	-0.0127909	-0.00782989	0.00145163	0.000788251	0	0	0	
0.0736667	-0.00726644	0.0149862	0.00132118	0.000774577	0	0	0	
0.0738333	0.0162506	-0.0220675	0.00116739	0.000732947	0	0	0	
0.074	-0.00828696	0.0214571	0.00122799	0.000724057	0	0	0	
0.0741667	0.00168925	-0.0211274	0.00145962	0.000786376	0	0	0	
0.0743333	0.00486258	0.0111773	0.00158476	0.000822482	0	0	0	
0.0745	-0.00746286	-0.0107942	0.00153914	0.000813167	0	0	0	
0.0746667	0.00642351	0.0134365	0.00144745	0.000722626	0	0	0	
0.0748333	-0.0015292	-0.021825	0.00133483	0.000664877	0	0	0	
0.075	-0.0199317	0.0233549	0.00117161	0.0006425	0	0	0	
0.0751667	0.0312092	-0.0256982	0.00111093	0.000687995	0	0	0	
0.0753333	-0.00919181	0.0198782	0.0013049	0.000743129	0	0	0	
0.0755	-0.00763012	-0.0158076	0.00164011	0.00085031	0	0	0	
0.0756667	0.0073152	0.00487822	0.00174583	0.000865299	0	0	0	
0.0758333	-0.00646682	-0.00984423	0.00163149	0.000797736	0	0	0	
0.076	0.0110191	0.0143404	0.00147168	0.000704275	0	0	0	
0.0761667	-0.00933215	-0.00759304	0.00135758	0.000683593	0	0	0	
0.0763333	-0.0149385	0.0112359	0.00122356	0.000688071	0	0	0	
0.0765	0.023954	-0.0221067	0.00114189	0.000649935	0	0	0	
0.0766667	-0.00794649	0.0183743	0.00122393	0.000610283	0	0	0	
0.0768333	0.00146974	-0.0155379	0.00142039	0.000635272	0	0	0	
0.077	-0.00455326	0.0208986	0.00153767	0.000720455	0	0	0	
0.0771667	-0.0038447	-0.0204393	0.00156411	0.00079083	0	0	0	
0.0773333	0.000228519	0.0238298	0.00151499	0.000850584	0	0	0	
0.0775	0.00438779	-0.0184847	0.00140221	0.000876956	0	0	0	
0.0776667	-0.00516854	0.0081519	0.00128808	0.000879868	0	0	0	
0.0778333	0.00885312	-0.00949211	0.00127596	0.000788147	0	0	0	
0.078	-0.00323819	0.0177429	0.00135865	0.000660971	0	0	0	
0.0781667	-0.00246575	-0.0200241	0.00141302	0.000618871	0	0	0	
0.0783333	-0.00525074	0.015483	0.00134831	0.000641596	0	0	0	
0.0785	0.0147015	-0.0246178	0.00123447	0.000663055	0	0	0	
0.0786667	-0.0148231	0.0302543	0.00118681	0.000655082	0	0	0	
0.0788333	0.0150429	-0.0267474	0.00124593	0.000709263	0	0	0	
0.079	-0.0101002	0.0141153	0.00138385	0.000809402	0	0	0	
0.0791667	-0.0119377	-0.0077513	0.00160946	0.000944492	0	0	0	
0.0793333	0.0351784	0.00190298	0.00172296	0.000936305	0	0	0	
0.0795	0.00357301	-0.00425811	0.00143436	0.00069365	0	0	0	
0.0796667	-0.0627585	0.0363255	0.00104542	0.000400417	0	0	0	
0.0798333	0.0349382	-0.0645913	0.00115101	0.000585425	0	0	0	
0.08	0.0351395	0.0144001	0.00192832	0.0012096	0	0	0	
0.0801667	-0.0293442	0.00288744	0.0022757	0.00201639	0	0	0	
0.0803333	-0.0276944	-0.00834559	0.00181688	0.00224314	0	0	0	
0.0805	0.021267	0.0305214	0.0011643	0.00187091	0	0	0	
0.0806667	0.01257	-0.0029003	0.00101844	0.00115543	0	0	0	
0.0808333	0.0236073	-0.0475202	0.00100166	0.000646652	0	0	0	
0.081	-0.0725464	0.0736905	0.00103084	0.000742649	0	0	0	
0.0811667	0.0363191	-0.100297	0.00132802	0.0011458	0	0	0	
0.0813333	0.0319786	0.0782316	0.00204858	0.00172677	0	0	0	
0.0815	-0.0417375	-0.0197572	0.00216628	0.00184609	0	0	0	
0.0816667	-0.000381554	0.00516224	0.0016666	0.00160456	0	0	0	
0.0818333	0.019549	-0.0144313	0.00114068	0.00102412	0	0	0	
0.082	0.00363616	0.0286601	0.00122432	0.000748757	0	0	0	
0.0821667	-0.00354071	-0.0195492	0.00141628	0.000693218	0	0	0	
0.0823333	-0.0150215	0.0172718	0.00138581	0.000824642	0	0	0	
0.0825	0.0129715	-0.0159794	0.00130054	0.000866949	0	0	0	
0.0826667	-0.00165524	0.0103703	0.00135899	0.000875801	0	0	0	
0.0828333	0.0227004	-0.0198503	0.00136768	0.000862068	0	0	0	
0.083	-0.0434545	0.0215553	0.00132053	0.00086205	0	0	0	
0.0831667	0.0355016	-0.0193809	0.00138925	0.000881831	0	0	0	
0.0833333	-0.0156893	0.00770579	0.00159069	0.000865966	0	0	0	
0.0835	0.00919729	-0.0080696	0.00177085	0.000852503	0	0	0	
0.0836667	0.00473016	0.0215296	0.00192368	0.000871388	0	0	0	
0.0838333	-0.0108453	-0.0355152	0.00194037	0.000943612	0	0	0	
0.084	-0.00356365	0.0286045	0.00156772	0.000986171	0	0	0	
0.0841667	0.0235776	-0.0207261	0.00100807	0.000895827	0	0	0	
0.0843333	-0.0311424	0.0212764	0.000726137	0.000747331	0	0	0	
0.0845	0.0351839	-0.0307558	0.000933554	0.000693685	0	0	0	
0.0846667	-0.0354566	0.0356533	0.00132446	0.00083723	0	0	0	
0.0848333	0.0126901	-0.0291532	0.00161828	0.000958565	0	0	0	
0.085	0.00931403	0.0201521	0.00169984	0.000952356	0	0	0	
0.0851667	-0.00704602	-0.011084	0.00153669	0.000821139	0	0	0	
0.0853333	-0.00907432	0.00911611	0.00129893	0.000733425	0	0	0	
0.0855	0.00681028	-0.0179864	0.00120191	0.000699447	0	0	0	
0.0856667	-0.00668626	0.023404	0.00126501	0.000726501	0	0	0	
0.0858333	0.0111216	-0.0189135	0.00132267	0.000752865	0	0	0	
0.086	-0.0142716	0.0145572	0.00134544	0.000756711	0	0	0	
0.0861667	0.00511248	-0.0175881	0.00139752	0.000722213	0	0	0	
0.0863333	-0.00440597	0.0193097	0.00144189	0.000706598	0	0	0	
0.0865	0.00689588	-0.0197022	0.00139006	0.000725277	0	0	0	
0.0866667	-0.0152802	0.0210035	0.00131466	0.000756107	0	0	0	
0.0868333	0.0138856	-0.0210973	0.00131953	0.000768461	0	0	0	
0.087	-0.0121826	0.0250649	0.00140012	0.000813024	0	0	0	
0.0871667	0.0128305	-0.0220102	0.00143847	0.000876621	0	0	0	
0.0873333	-0.0172275	0.0143688	0.001402	0.000894761	0	0	0	
0.0875	0.011135	-0.014754	0.00135068	0.000793248	0	0	0	
0.0876667	-0.00659214	0.0242497	0.00136954	0.000671766	0	0	0	
0.0878333	6.41159E-05	-0.0280109	0.00142743	0.000668357	0	0	0	
0.088	-0.00428845	0.0252013	0.0014709	0.000793041	0	0	0	
0.0881667	0.00599328	-0.0165018	0.00144888	0.000895199	0	0	0	
0.0883333	-0.0163007	0.0201954	0.00134833	0.000893743	0	0	0	
0.0885	0.0263213	-0.0230669	0.0012137	0.000792329	0	0	0	
0.0886667	-0.0315444	0.0249864	0.0011909	0.00071878	0	0	0	
0.0888333	0.0255478	-0.0257048	0.00137809	0.000710252	0	0	0	
0.089	-0.0197292	0.0300741	0.00165486	0.000759053	0	0	0	
0.0891667	0.00861468	-0.0294672	0.00177375	0.000798528	0	0	0	
0.0893333	-0.0037852	0.0268778	0.00169059	0.000855694	0	0	0	
0.0895	-0.00485811	-0.0104204	0.00148397	0.000869282	0	0	0	
0.0896667	-0.00712515	0.00441282	0.00122302	0.00080354	0	0	0	
0.0898333	0.0302168	-0.0148926	0.00103198	0.000632301	0	0	0	
0.09	-0.0258567	0.0241539	0.00105696	0.000538328	0	0	0	
0.0901667	0.0021431	-0.0173325	0.00132706	0.000568982	0	0	0	
0.0903333	0.00193894	0.0188621	0.00151598	0.000682305	0	0	0	
0.0905	0.0153756	-0.023841	0.00144424	0.000742931	0	0	0	
0.0906667	-0.0244072	0.0263303	0.0013352	0.00078196	0	0	0	
0.0908333	0.0106081	-0.0208073	0.00139976	0.0008119	0	0	0	
0.091	0.00097689	0.0165303	0.00151863	0.000813287	0	0	0	
0.0911667	0.0115184	-0.0181298	0.0014783	0.00076188	0	0	0	
0.0913333	-0.00956811	0.0224938	0.00141187	0.000694061	0	0	0	
0.0915	-0.000748498	-0.029524	0.00147308	0.000703869	0	0	0	
0.0916667	-0.00175432	0.0294151	0.00150065	0.000763469	0	0	0	
0.0918333	0.0185872	-0.0248212	0.00133379	0.000837376	0	0	0	
0.092	-0.0337949	0.0231252	0.00115638	0.000823478	0	0	0	
0.0921667	0.0348291	-0.0401386	0.00123636	0.000822279	0	0	0	
0.0923333	-0.0126833	0.031542	0.00152965	0.000822985	0	0	0	
0.0925	-0.00568594	-0.0193532	0.00174027	0.000864411	0	0	0	
0.0926667	-0.0052547	0.0147278	0.00161983	0.000787792	0	0	0	
0.0928333	0.0275491	-0.030778	0.00135256	0.000690289	0	0	0	
0.093	-0.0287467	0.038717	0.001238	0.00068298	0	0	0	
0.0931667	0.00867804	-0.0287692	0.0013461	0.000782519	0	0	0	
0.0933333	-0.0106013	0.01278	0.00143203	0.000838062	0	0	0	
0.0935	0.0183909	-0.0156763	0.00139841	0.000777108	0	0	0	
0.0936667	-0.0103924	0.0209755	0.00140242	0.000694284	0	0	0	
0.0938333	0.00511588	-0.022496	0.00143899	0.000667699	0	0	0	
0.094	-0.0119311	0.0202911	0.00134094	0.000662381	0	0	0	
0.0941667	0.0192634	-0.0214277	0.00120258	0.000656095	0	0	0	
0.0943333	-0.0128899	0.026323	0.0012632	0.000692114	0	0	0	
0.0945	-0.00331112	-0.0179486	0.00143915	0.000769976	0	0	0	
0.0946667	-0.00731775	0.00475305	0.00138113	0.000797086	0	0	0	
0.0948333	0.0307393	-0.00994238	0.00114461	0.000668113	0	0	0	
0.095	-0.0257141	0.0233367	0.00106215	0.000511624	0	0	0	
0.0951667	0.0169397	-0.0347658	0.00131255	0.000533203	0	0	0	
0.0953333	-0.0111025	0.0257561	0.00158559	0.00073484	0	0	0	
0.0955	0.00248803	-0.0184893	0.00168893	0.000930937	0	0	0	
0.0956667	-0.00241878	0.0184764	0.00159971	0.000979083	0	0	0	
0.0958333	0.0159521	-0.0178248	0.00141392	0.000918487	0	0	0	
0.096	-0.0215812	0.015997	0.00127925	0.000822519	0	0	0	
0.0961667	0.0162547	-0.0203311	0.00130424	0.000739729	0	0	0	
0.0963333	-0.00999725	0.0195757	0.00141483	0.00069666	0	0	0	
0.0965	0.0162749	-0.0250582	0.00145088	0.0006982	0	0	0	
0.0966667	-0.0147678	0.0281912	0.00141084	0.000724972	0	0	0	
0.0968333	0.0107812	-0.0260558	0.00137779	0.000739265	0	0	0	
0.097	-0.0156432	0.0213115	0.00133583	0.000760299	0	0	0	
0.0971667	0.0239218	-0.0192102	0.00129412	0.000767271	0	0	0	
0.0973333	-0.0201131	0.0252385	0.00132414	0.000773449	0	0	0	
0.0975	0.00793016	-0.0296837	0.00146265	0.000781495	0	0	0	
0.0976667	0.0122192	0.0187086	0.00158455	0.00082983	0	0	0	
0.0978333	-0.00612429	-0.00146248	0.00145251	0.000855625	0	0	0	
0.098	-0.0525032	0.0247899	0.00115815	0.000840413	0	0	0	
0.0981667	0.0865107	-0.0577213	0.0012234	0.000941336	0	0	0	
0.0983333	-0.0267516	0.0446982	0.00200805	0.00110162	0	0	0	
0.0985	-0.0387653	-0.0302282	0.00300378	0.00118549	0	0	0	
0.0986667	0.0319114	0.030646	0.0029819	0.00104823	0	0	0	
0.0988333	0.0044915	-0.0260508	0.00203487	0.00083126	0	0	0	
0.099	-0.0139136	0.0378181	0.00111171	0.00080987	0	0	0	
0.0991667	0.0276483	-0.0409651	0.000870897	0.000900336	0	0	0	
0.0993333	-0.0771171	0.0234581	0.00105984	0.000911858	0	0	0	
0.0995	0.097808	-0.0289122	0.00141291	0.000774495	0	0	0	
0.0996667	-0.025935	0.0268516	0.00191863	0.000628075	0	0	0	
0.0998333	-0.0380161	-0.0158508	0.00237318	0.000638597	0	0	0	
0.1	0.0184995	0.0112034	0.00218342	0.000724069	0	0	0	
0.100167	0.0291173	-0.0214084	0.00160146	0.000743	0	0	0	
0.100333	-0.0309329	0.0313117	0.00118804	0.000763608	0	0	0	
0.1005	0.0119737	-0.0264795	0.00131255	0.000783524	0	0	0	
0.100667	-0.00241001	0.0172327	0.00164827	0.000818995	0	0	0	
0.100833	0.00391484	-0.0211366	0.0017306	0.000831082	0	0	0	
0.101	-0.0144734	0.0243346	0.00156119	0.00081747	0	0	0	
0.101167	0.0269273	-0.0285162	0.00135788	0.000806284	0	0	0	
0.101333	-0.0291281	0.0268145	0.00128653	0.000784167	0	0	0	
0.1015	0.0194945	-0.0201373	0.00138081	0.000751473	0	0	0	
0.101667	-0.00840408	0.0189688	0.00152563	0.000742367	0	0	0	
0.101833	0.007379	-0.020768	0.00150835	0.000715087	0	0	0	
0.102	-0.0246588	0.0253527	0.00131484	0.000703819	0	0	0	
0.102167	0.0299115	-0.0237037	0.00118195	0.000676165	0	0	0	
0.102333	-0.014316	0.0207876	0.00129163	0.000705439	0	0	0	
0.1025	0.00494195	-0.0215959	0.00145901	0.000753881	0	0	0	
0.102667	-0.0194495	0.0282727	0.00142764	0.000829402	0	0	0	
0.102833	0.0280643	-0.0253043	0.00128981	0.00084676	0	0	0	
0.103	-0.0231313	0.0247591	0.00127271	0.000835459	0	0	0	
0.103167	0.0152311	-0.0234212	0.00140029	0.000780044	0	0	0	
0.103333	-0.0171912	0.0288066	0.00149143	0.000779386	0	0	0	
0.1035	0.0240147	-0.0313555	0.00149276	0.000823754	0	0	0	
0.103667	-0.0193551	0.0288143	0.00146211	0.000896628	0	0	0	
0.103833	0.00786771	-0.0179937	0.00140677	0.000861488	0	0	0	
0.104	-0.0115803	0.0146568	0.00129414	0.00073062	0	0	0	
0.104167	0.0212817	-0.0189142	0.00118217	0.000597875	0	0	0	
0.104333	-0.0269355	0.0242742	0.00116722	0.000566624	0	0	0	
0.1045	0.0290944	-0.0301627	0.00124672	0.000619972	0	0	0	
0.104667	-0.0189661	0.026416	0.00133969	0.000670141	0	0	0	
0.104833	0.00740922	-0.015131	0.00141779	0.000702123	0	0	0	
0.105	-0.00498442	0.0101372	0.00143996	0.000718318	0	0	0	
0.105167	0.0129022	-0.0153667	0.0013991	0.000688356	0	0	0	
0.105333	-0.0207544	0.0268527	0.00134973	0.000664099	0	0	0	
0.1055	0.0140808	-0.0291394	0.00137283	0.000671665	0	0	0	
0.105667	-0.0095701	0.0243855	0.00142582	0.000764293	0	0	0	
0.105833	0.0211346	-0.0229584	0.00137187	0.000840145	0	0	0	
0.106	-0.0312899	0.0206743	0.00127947	0.000841071	0	0	0	
0.106167	0.0296032	-0.0174508	0.00131598	0.000788859	0	0	0	
0.106333	-0.0202778	0.0201948	0.00148849	0.000755054	0	0	0	
0.1065	0.0143562	-0.0208286	0.00160686	0.000722314	0	0	0	
0.106667	-0.0115158	0.0266544	0.00159879	0.000711503	0	0	0	
0.106833	-0.00412801	-0.0229202	0.00153381	0.000691528	0	0	0	
0.107	-0.000204372	0.013101	0.00144158	0.000722626	0	0	0	
0.107167	0.0247353	-0.0218002	0.00129947	0.000789399	0	0	0	
0.107333	-0.0355461	0.0229902	0.00122155	0.000830881	0	0	0	
0.1075	0.0221572	-0.0211767	0.00131569	0.000787018	0	0	0	
0.107667	-0.00905842	0.0273084	0.00150151	0.000706811	0	0	0	
0.107833	0.0113974	-0.02973	0.00152639	0.000690043	0	0	0	
0.108	-0.0339375	0.0332386	0.0014676	0.000797203	0	0	0	
0.108167	0.0340411	-0.0422811	0.0015061	0.000915806	0	0	0	
0.108333	-0.0112603	0.0348339	0.00167362	0.000979276	0	0	0	
0.1085	-0.00185275	-0.017083	0.00173546	0.000935786	0	0	0	
0.108667	-0.0120896	0.0125642	0.00154199	0.00084626	0	0	0	
0.108833	0.0309077	-0.0275096	0.00130063	0.00071383	0	0	0	
0.109	-0.0412951	0.0459509	0.00125973	0.000716058	0	0	0	
0.109167	0.029981	-0.0355191	0.00146239	0.000806761	0	0	0	
0.109333	-0.017568	0.0150406	0.00169503	0.000970848	0	0	0	
0.1095	0.017462	-0.011999	0.00173592	0.000941272	0	0	0	
0.109667	-0.0172706	0.0227898	0.00161193	0.000797654	0	0	0	
0.109833	0.0127785	-0.027022	0.00143351	0.000666113	0	0	0	
0.11	-0.0198377	0.0268005	0.00127895	0.000649662	0	0	0	
0.110167	0.0347251	-0.0340663	0.00119588	0.000678803	0	0	0	
0.110333	-0.0409408	0.045175	0.00124134	0.000746152	0	0	0	
0.1105	0.0348586	-0.045014	0.00143896	0.000864768	0	0	0	
0.110667	-0.0103396	0.0264021	0.0016346	0.00100338	0	0	0	
0.110833	-0.00194239	-0.0124142	0.00163017	0.000991401	0	0	0	
0.111	-0.0198521	0.0156845	0.00136162	0.000803094	0	0	0	
0.111167	0.0396675	-0.0268299	0.00112857	0.000607814	0	0	0	
0.111333	-0.0295444	0.0250143	0.00114431	0.000543311	0	0	0	
0.1115	0.0154946	-0.0219904	0.00135579	0.00059496	0	0	0	
0.111667	-0.0178302	0.0220774	0.00139481	0.000602863	0	0	0	
0.111833	0.0316697	-0.0307128	0.00132144	0.000595514	0	0	0	
0.112	-0.0219861	0.0292645	0.00134351	0.00066026	0	0	0	
0.112167	0.00386164	-0.0230945	0.0015047	0.000805306	0	0	0	
0.112333	-0.00431877	0.0111992	0.00154066	0.000912829	0	0	0	
0.1125	0.0175777	-0.0104855	0.00140261	0.000899309	0	0	0	
0.112667	-0.0222096	0.0166936	0.00129822	0.000802633	0	0	0	
0.112833	0.0276805	-0.0308361	0.00134626	0.000746428	0	0	0	
0.113	-0.0275768	0.0330366	0.00142034	0.000769074	0	0	0	
0.113167	0.0272408	-0.0342568	0.00143365	0.000812994	0	0	0	
0.113333	-0.02511	0.0316617	0.00141445	0.000839429	0	0	0	
0.1135	0.028088	-0.0329319	0.00141871	0.000844418	0	0	0	
0.113667	-0.0275492	0.0317697	0.00143231	0.000877595	0	0	0	
0.113833	0.0239528	-0.0267096	0.00142611	0.000870175	0	0	0	
0.114	-0.029098	0.0268972	0.00134822	0.000790871	0	0	0	
0.114167	0.0517976	-0.0486869	0.0013188	0.000739697	0	0	0	
0.114333	-0.0295813	0.04726	0.00158957	0.000891938	0	0	0	
0.1145	-0.0688468	-0.0158506	0.00246072	0.00148585	0	0	0	
0.114667	0.173067	0.0200884	0.00345113	0.00217137	0	0	0	
0.114833	-0.111204	-0.0344248	0.00376658	0.00242505	0	0	0	
0.115	0.0273579	0.0345515	0.00291279	0.00207611	0	0	0	
0.115167	0.0687341	-0.0105985	0.00202926	0.00136668	0	0	0	
0.115333	-0.110712	0.0428366	0.00148587	0.000879631	0	0	0	
0.1155	0.10473	-0.0948567	0.00197429	0.000850194	0	0	0	
0.115667	-0.0658426	0.127671	0.00269817	0.0013702	0	0	0	
0.115833	0.0329318	-0.0837204	0.00364439	0.00199946	0	0	0	
0.116	0.0489296	0.0423144	0.00382245	0.00201736	0	0	0	
0.116167	-0.0364622	-0.0287705	0.00306749	0.00147364	0	0	0	
0.116333	-0.0125815	0.033791	0.00184549	0.000922202	0	0	0	
0.1165	0.025556	-0.0213532	0.00117855	0.000822525	0	0	0	
0.116667	-0.00303467	0.0178931	0.00129611	0.000975799	0	0	0	
0.116833	-0.0128606	-0.0223374	0.00167572	0.00101553	0	0	0	
0.117	0.00805178	0.0230724	0.00170948	0.000949646	0	0	0	
0.117167	0.00689419	-0.0267881	0.00128926	0.000876099	0	0	0	
0.117333	-0.0464549	0.0233532	0.000887785	0.000799799	0	0	0	
0.1175	0.0636723	-0.0347533	0.000886714	0.000772428	0	0	0	
0.117667	-0.0328096	0.0361156	0.00140705	0.000775597	0	0	0	
0.117833	-0.00957594	-0.0344875	0.00194363	0.000875485	0	0	0	
0.118	0.00187826	0.0215804	0.00191825	0.00096106	0	0	0	
0.118167	0.0226376	-0.014646	0.0014412	0.000930415	0	0	0	
0.118333	-0.0286384	0.0192826	0.00106989	0.000778066	0	0	0	
0.1185	0.0188422	-0.0307352	0.00113183	0.000636972	0	0	0	
0.118667	-0.025496	0.0367312	0.00134265	0.00065158	0	0	0	
0.118833	0.033973	-0.0377756	0.00139847	0.000773361	0	0	0	
0.119	-0.0348031	0.0345408	0.00139732	0.000889723	0	0	0	
0.119167	0.0180498	-0.0265597	0.00143847	0.000882806	0	0	0	
0.119333	-0.0140332	0.0192947	0.0014447	0.000819849	0	0	0	
0.1195	0.0344826	-0.0251377	0.00133669	0.000714223	0	0	0	
0.119667	-0.0680427	0.0520702	0.00130704	0.000728468	0	0	0	
0.119833	0.0472632	-0.045778	0.00136699	0.000783629	0	0	0	
0.12	-0.0346876	0.0461492	0.0015009	0.000906646	0	0	0	
0.120167	0.0237485	-0.0313316	0.00158066	0.000985905	0	0	0	
0.120333	-0.0147158	0.0226822	0.00161526	0.000993415	0	0	0	
0.1205	0.0116401	-0.0183139	0.00148093	0.000870557	0	0	0	
0.120667	-0.0280458	0.0161808	0.0011694	0.000660151	0	0	0	
0.120833	0.0220515	-0.00711042	0.000870503	0.000452866	0	0	0	
0.121	-0.035119	0.0315083	0.000883512	0.000401054	0	0	0	
0.121167	0.0298141	-0.0384987	0.00115599	0.000514455	0	0	0	
0.121333	-0.016256	0.0334278	0.00142969	0.000701615	0	0	0	
0.1215	0.00830936	-0.0172054	0.0014412	0.000757771	0	0	0	
0.121667	-0.0210433	0.0186281	0.00121108	0.000672654	0	0	0	
0.121833	0.0446326	-0.0252671	0.00106989	0.000574312	0	0	0	
0.122	-0.0500565	0.037513	0.00122154	0.000599505	0	0	0	
0.122167	0.0328266	-0.0380353	0.00157112	0.000749321	0	0	0	
0.122333	-0.0201114	0.0323954	0.00183624	0.000861603	0	0	0	
0.1225	0.0257064	-0.027581	0.00185583	0.000930692	0	0	0	
0.122667	-0.0285152	0.0278656	0.00171903	0.000878484	0	0	0	
0.122833	0.0263955	-0.0276956	0.00150947	0.000823941	0	0	0	
0.123	-0.0339297	0.0311428	0.00131319	0.00075686	0	0	0	
0.123167	0.0485812	-0.034405	0.00122842	0.000760536	0	0	0	
0.123333	-0.0483971	0.0311672	0.00131929	0.000738741	0	0	0	
0.1235	0.0404933	-0.0379584	0.0015089	0.000784994	0	0	0	
0.123667	-0.0316625	0.0336052	0.00160423	0.000776864	0	0	0	
0.123833	0.0345559	-0.0306549	0.00148872	0.000802768	0	0	0	
0.124	-0.0458312	0.0410377	0.00131761	0.000786898	0	0	0	
0.124167	0.0454474	-0.0685458	0.0013064	0.000845638	0	0	0	
0.124333	-0.0294284	0.0584312	0.00151996	0.00112769	0	0	0	
0.1245	0.00439905	0.101398	0.00177383	0.00217302	0	0	0	
0.124667	0.0137223	-0.333431	0.001716	0.0029323	0	0	0	
0.124833	-0.252807	1.11535	0.002029	0.00821839	0	0	0	
0.125	0.0291241	-0.371627	0.00194855	0.0123774	0	0	0	
0.125167	-0.00170292	-0.0599967	0.00170769	0.0139071	0	0	0	
0.125333	-0.054751	0.161197	0.000956801	0.00911503	0	0	0	
0.1255	0.0821774	-0.128264	0.000820151	0.00446147	0	0	0	
0.125667	-0.0516351	-0.0218804	0.00119522	0.00307564	0	0	0	
0.125833	-0.142603	0.735533	0.00215585	0.00514699	0	0	0	
0.126	0.00911301	-0.262624	0.00312504	0.0108726	0	0	0	
0.126167	-0.0267632	0.190213	0.00307267	0.0122295	0	0	0	
0.126333	-0.0147648	-0.0477877	0.00227894	0.0097252	0	0	0	
0.1265	0.00268599	-0.0243811	0.00135328	0.00352772	0	0	0	
0.126667	-0.00144344	0.0063539	0.00135348	0.00131251	0	0	0	
0.126833	0.0177514	0.0585657	0.00141326	0.00124889	0	0	0	
0.127	-0.0220024	-0.0958566	0.00131476	0.00137099	0	0	0	
0.127167	0.0294107	0.0056144	0.00124366	0.00146422	0	0	0	
0.127333	-0.0299671	0.0593877	0.00123514	0.00129347	0	0	0	
0.1275	0.0455518	-0.0570099	0.00118519	0.00117061	0	0	0	
0.127667	-0.0579719	0.0367145	0.00117156	0.00107748	0	0	0	
0.127833	0.0358383	-0.0193327	0.00129396	0.000986586	0	0	0	
0.128	-0.0862373	0.183566	0.00165707	0.00126666	0	0	0	
0.128167	0.19751	-0.414532	0.0021235	0.00256904	0	0	0	
0.128333	-0.130389	0.186007	0.0024241	0.00435194	0	0	0	
0.1285	0.0898505	-0.109672	0.00238931	0.00452852	0	0	0	
0.128667	-0.0391774	0.0441782	0.00202477	0.00338059	0	0	0	
0.128833	0.0151913	-0.0247751	0.00168104	0.00160586	0	0	0	
0.129	-0.0329593	0.0847651	0.00140836	0.00107067	0	0	0	
0.129167	0.0348211	-0.0505201	0.0014028	0.001654	0	0	0	
0.129333	0.0111239	-0.140585	0.00138495	0.00275894	0	0	0	
0.1295	-0.000726702	0.0325405	0.0010985	0.00332691	0	0	0	
0.129667	-0.017821	0.0330338	0.00072824	0.00261894	0	0	0	
0.129833	0.011369	-0.0348737	0.000649305	0.00143311	0	0	0	
0.13	0.00115545	0.0205558	0.00100099	0.000828964	0	0	0	
0.130167	0.0174662	-0.0269708	0.00123487	0.000717537	0	0	0	
0.130333	-0.0495868	0.0339191	0.00127778	0.000834393	0	0	0	
0.1305	0.00785492	-0.0499613	0.00121678	0.000929142	0	0	0	
0.130667	-0.037937	0.0398819	0.00112292	0.000955752	0	0	0	
0.130833	0.048286	-0.0317053	0.00114822	0.000929242	0	0	0	
0.131	-0.0401784	0.0317947	0.00130433	0.000876932	0	0	0	
0.131167	0.0264958	-0.0410743	0.00164421	0.000878226	0	0	0	
0.131333	-0.00180817	0.0318181	0.00174859	0.000902739	0	0	0	
0.1315	-0.051245	-0.0410474	0.00151117	0.000973408	0	0	0	
0.131667	-0.0168337	0.0258343	0.00133713	0.000994044	0	0	0	
0.131833	0.0267176	-0.0240488	0.00121927	0.000908643	0	0	0	
0.132	-0.0317191	0.0330641	0.00134028	0.000783984	0	0	0	
0.132167	0.044784	-0.031967	0.00132426	0.000716809	0	0	0	
0.132333	-0.0400524	0.0241268	0.00142332	0.00074	0	0	0	
0.1325	0.0298817	-0.0327027	0.00158714	0.000774166	0	0	0	
0.132667	-0.0159532	0.038753	0.00161666	0.000810517	0	0	0	
0.132833	0.0263383	-0.0344173	0.00146375	0.00083913	0	0	0	
0.133	-0.0497499	0.0392035	0.0013363	0.000890426	0	0	0	
0.133167	0.0449407	-0.0382586	0.00141788	0.00091218	0	0	0	
0.133333	-0.0334894	0.0360566	0.00158348	0.000955826	0	0	0	
0.1335	0.0325154	-0.0378042	0.00158253	0.000962271	0	0	0	
0.133667	-0.0312815	0.0298497	0.00142411	0.000925702	0	0	0	
0.133833	0.0334965	-0.0260685	0.00135365	0.000823304	0	0	0	
0.134	-0.0367829	0.0385241	0.00140814	0.000753854	0	0	0	
0.134167	0.0354513	-0.0463961	0.00148772	0.000762137	0	0	0	
0.134333	-0.0290888	0.0344525	0.00143974	0.00088052	0	0	0	
0.1345	0.0256878	-0.018664	0.00133871	0.000906338	0	0	0	
0.134667	-0.0289555	0.0156622	0.00127288	0.00080307	0	0	0	
0.134833	0.036411	-0.0262138	0.00133335	0.000654228	0	0	0	
0.135	-0.0411773	0.0382347	0.00145402	0.000665114	0	0	0	
0.135167	0.0436183	-0.0346523	0.00159887	0.000765035	0	0	0	
0.135333	-0.0338414	0.0434611	0.00167336	0.000904842	0	0	0	
0.1355	0.0216376	-0.037416	0.001664	0.00094915	0	0	0	
0.135667	-0.0219418	0.0267634	0.00153706	0.000968494	0	0	0	
0.135833	0.0356467	-0.0212557	0.0013673	0.00093517	0	0	0	
0.136	-0.0503594	0.0328208	0.00129213	0.000854791	0	0	0	
0.136167	0.0417888	-0.0439644	0.00134618	0.0007992	0	0	0	
0.136333	-0.0328593	0.0493104	0.00145511	0.000837389	0	0	0	
0.1365	0.0317287	-0.0318202	0.00144703	0.000918734	0	0	0	
0.136667	-0.0311403	0.0195888	0.00135729	0.000914058	0	0	0	
0.136833	0.0283672	-0.019319	0.00129181	0.000775695	0	0	0	
0.137	-0.0252378	0.0270735	0.00130156	0.000636903	0	0	0	
0.137167	0.0213106	-0.0306157	0.00130605	0.000601484	0	0	0	
0.137333	-0.0330591	0.0324486	0.00126891	0.00065631	0	0	0	
0.1375	0.0430959	-0.036936	0.00124671	0.000722863	0	0	0	
0.137667	-0.039451	0.0372055	0.00131523	0.000781825	0	0	0	
0.137833	0.0307739	-0.0315814	0.00140642	0.000852864	0	0	0	
0.138	-0.0306914	0.0184924	0.00142619	0.000906213	0	0	0	
0.138167	0.031778	-0.0154944	0.00139398	0.000879487	0	0	0	
0.138333	-0.023071	0.0182868	0.00139264	0.000743859	0	0	0	
0.1385	0.0195444	-0.0257726	0.00134791	0.000602779	0	0	0	
0.138667	-0.0405481	0.0336987	0.00121224	0.000542887	0	0	0	
0.138833	0.053222	-0.0343755	0.00110504	0.000630205	0	0	0	
0.139	-0.0449841	0.0286673	0.00120128	0.0007175	0	0	0	
0.139167	0.0319199	-0.0383923	0.00140648	0.000775443	0	0	0	
0.139333	-0.0327914	0.0424245	0.00149476	0.000805896	0	0	0	
0.1395	0.0349643	-0.031266	0.00146178	0.000878427	0	0	0	
0.139667	-0.0276982	0.0253564	0.00141858	0.000895466	0	0	0	
0.139833	0.0264983	-0.0333601	0.00136587	0.000831721	0	0	0	
0.14	-0.0385023	0.0341507	0.00127022	0.000763085	0	0	0	
0.140167	0.0413643	-0.0267126	0.00121547	0.000747875	0	0	0	
0.140333	-0.0272693	0.0181698	0.00125028	0.000703078	0	0	0	
0.1405	0.0323986	-0.0179755	0.00128034	0.000591621	0	0	0	
0.140667	-0.0505249	0.0297779	0.00125499	0.000503267	0	0	0	
0.140833	0.0536602	-0.0477803	0.00130708	0.000560532	0	0	0	
0.141	-0.030793	0.0399937	0.00152247	0.000735549	0	0	0	
0.141167	0.0156959	-0.0026825	0.00166971	0.00084344	0	0	0	
0.141333	-0.0209445	0.00718348	0.00148617	0.000687064	0	0	0	
0.1415	0.0508224	-0.0456097	0.00117488	0.000617119	0	0	0	
0.141667	-0.0737739	0.0559089	0.00109736	0.000702225	0	0	0	
0.141833	0.0809441	-0.0458971	0.00132391	0.00091336	0	0	0	
0.142	-0.0682728	0.0461225	0.00172077	0.00108334	0	0	0	
0.142167	0.0143179	-0.0302396	0.0022467	0.00117103	0	0	0	
0.142333	0.041546	0.00491277	0.002683	0.00135361	0	0	0	
0.1425	-0.0307199	0.0266326	0.00243956	0.00126571	0	0	0	
0.142667	-0.0143626	-0.0194341	0.00153108	0.000939504	0	0	0	
0.142833	0.0411054	-0.030624	0.000740408	0.000650704	0	0	0	
0.143	-0.0725092	0.0732949	0.000712707	0.000630108	0	0	0	
0.143167	0.114193	-0.0832607	0.00131984	0.00103683	0	0	0	
0.143333	-0.115445	0.0656919	0.00220324	0.00137403	0	0	0	
0.1435	0.0575678	-0.0365695	0.00298217	0.00155535	0	0	0	
0.143667	-0.0243153	0.0402441	0.00310966	0.00149474	0	0	0	
0.143833	0.054631	-0.0394902	0.00250639	0.0012015	0	0	0	
0.144	-0.0627001	0.0422179	0.00183081	0.000993888	0	0	0	
0.144167	0.0347868	-0.0472655	0.00155354	0.000863793	0	0	0	
0.144333	-0.0474191	0.0468833	0.00151858	0.000938598	0	0	0	
0.1445	0.0735121	-0.0489475	0.00143574	0.000908535	0	0	0	
0.144667	-0.0678161	0.0556974	0.00139735	0.00101607	0	0	0	
0.144833	0.0509513	-0.0375691	0.0014963	0.00100676	0	0	0	
0.145	-0.0364569	0.0275893	0.00149642	0.00103307	0	0	0	
0.145167	0.0370673	-0.025837	0.00139817	0.000783245	0	0	0	
0.145333	-0.0393803	0.0149975	0.00130572	0.000605433	0	0	0	
0.1455	0.0401687	-0.0239943	0.00135568	0.000471897	0	0	0	
0.145667	-0.0421583	0.0414251	0.00145151	0.000554695	0	0	0	
0.145833	0.0463844	-0.0527977	0.00147712	0.000779621	0	0	0	
0.146	-0.0435169	0.0388838	0.00141782	0.000919176	0	0	0	
0.146167	0.0404173	-0.0387925	0.00139726	0.000923289	0	0	0	
0.146333	-0.0357516	0.0308397	0.00142982	0.000848848	0	0	0	
0.1465	0.037389	-0.0324092	0.00145228	0.000866475	0	0	0	
0.146667	-0.0422821	0.0263581	0.00145093	0.00088368	0	0	0	
0.146833	0.0452384	-0.0219071	0.00150118	0.000883801	0	0	0	
0.147	-0.0368594	0.0201321	0.00157891	0.000791422	0	0	0	
0.147167	0.0357621	-0.0292438	0.00155689	0.000696352	0	0	0	
0.147333	-0.0437021	0.0351778	0.00141312	0.000646172	0	0	0	
0.1475	0.0491335	-0.0390828	0.00128488	0.000689588	0	0	0	
0.147667	-0.0547469	0.0457604	0.00131305	0.000767464	0	0	0	
0.147833	0.0561962	-0.0521702	0.00143915	0.000878068	0	0	0	
0.148	-0.0439791	0.0385157	0.00150726	0.000950634	0	0	0	
0.148167	0.0359763	-0.0311024	0.00145095	0.000946945	0	0	0	
0.148333	-0.0367805	0.0280822	0.00134413	0.000826538	0	0	0	
0.1485	0.0453091	-0.0345969	0.00130955	0.000747744	0	0	0	
0.148667	-0.0464093	0.0325276	0.00137413	0.000720955	0	0	0	
0.148833	0.0364739	-0.0347056	0.00145687	0.000754257	0	0	0	
0.149	-0.0260298	0.0338991	0.00147891	0.00076671	0	0	0	
0.149167	0.0292751	-0.029861	0.00139331	0.000775919	0	0	0	
0.149333	-0.0422822	0.0236213	0.00126857	0.00073587	0	0	0	
0.1495	0.0481584	-0.0294418	0.00121736	0.000692662	0	0	0	
0.149667	-0.0414718	0.0269361	0.00125749	0.000630848	0	0	0	
0.149833	0.0402229	-0.0319943	0.00138393	0.000633139	0	0	0	
0.15	-0.0395411	0.0405433	0.00147516	0.000689405	0	0	0	
0.150167	0.039018	-0.0420187	0.00149694	0.000796304	0	0	0	
0.150333	-0.0400123	0.0377276	0.00142268	0.000857053	0	0	0	
0.1505	0.0420683	-0.0370034	0.00135248	0.000856283	0	0	0	
0.150667	-0.0457801	0.0318124	0.00133096	0.000819018	0	0	0	
0.150833	0.0511348	-0.0307714	0.0013937	0.000797831	0	0	0	
0.151	-0.0404064	0.0348346	0.00147143	0.000789021	0	0	0	
0.151167	0.0247257	-0.0345109	0.00151029	0.000787064	0	0	0	
0.151333	-0.0245688	0.0296731	0.00141513	0.000781746	0	0	0	
0.1515	0.0383472	-0.027484	0.00126477	0.000746171	0	0	0	
0.151667	-0.0405149	0.0256653	0.00116362	0.00069513	0	0	0	
0.151833	0.0341024	-0.0241698	0.00115179	0.000635163	0	0	0	
0.152	-0.038935	0.027162	0.00119865	0.00059254	0	0	0	
0.152167	0.0533274	-0.0397723	0.00128234	0.000629481	0	0	0	
0.152333	-0.0565041	0.0431066	0.00143432	0.000746987	0	0	0	
0.1525	0.0451714	-0.0382224	0.00160023	0.000852887	0	0	0	
0.152667	-0.0311284	0.0342096	0.00166271	0.000870057	0	0	0	
0.152833	0.0328387	-0.0332613	0.00155096	0.000818314	0	0	0	
0.153	-0.042809	0.0327816	0.00136937	0.000779369	0	0	0	
0.153167	0.0477212	-0.0333946	0.00129928	0.000780269	0	0	0	
0.153333	-0.0384855	0.0315146	0.0013587	0.000772329	0	0	0	
0.1535	0.035181	-0.0324338	0.00136683	0.00074973	0	0	0	
0.153667	-0.0515163	0.0367122	0.0013011	0.000734431	0	0	0	
0.153833	0.0572144	-0.0350376	0.00130474	0.00075366	0	0	0	
0.154	-0.0423223	0.0385281	0.00142326	0.000780579	0	0	0	
0.154167	0.0363225	-0.03615	0.00147966	0.000780961	0	0	0	
0.154333	-0.040892	0.0279406	0.00137908	0.000740762	0	0	0	
0.1545	0.0412483	-0.0243315	0.00128758	0.000702157	0	0	0	
0.154667	-0.0410629	0.032965	0.0013446	0.000677648	0	0	0	
0.154833	0.0448988	-0.0392958	0.00142897	0.000713546	0	0	0	
0.155	-0.0540913	0.0360427	0.00145108	0.000774951	0	0	0	
0.155167	0.0495396	-0.0267919	0.00142772	0.000780214	0	0	0	
0.155333	-0.0367372	0.0317402	0.00146619	0.000722784	0	0	0	
0.1555	0.0349173	-0.0412658	0.00149945	0.000709539	0	0	0	
0.155667	-0.0447334	0.0373859	0.00146063	0.000792926	0	0	0	
0.155833	0.0513987	-0.0278101	0.00138646	0.000855912	0	0	0	
0.156	-0.0488555	0.026069	0.00137826	0.000805935	0	0	0	
0.156167	0.0363065	-0.0312604	0.00138733	0.000677232	0	0	0	
0.156333	-0.0412904	0.0396723	0.00139457	0.000661093	0	0	0	
0.1565	0.0503929	-0.0428328	0.00138897	0.00076125	0	0	0	
0.156667	-0.0475836	0.0433118	0.00142671	0.000896563	0	0	0	
0.156833	0.0486595	-0.0454909	0.00146815	0.00094987	0	0	0	
0.157	-0.0516438	0.0406643	0.00149777	0.00095372	0	0	0	
0.157167	0.0390847	-0.0271515	0.00152991	0.000927912	0	0	0	
0.157333	-0.0271108	0.0293062	0.0015373	0.000876239	0	0	0	
0.1575	0.0347149	-0.0409354	0.0013983	0.000811074	0	0	0	
0.157667	-0.0484563	0.0429885	0.00122177	0.000795262	0	0	0	
0.157833	0.0550504	-0.0389174	0.00119071	0.000811836	0	0	0	
0.158	-0.0491724	0.0424993	0.00136799	0.000838606	0	0	0	
0.158167	0.0389931	-0.0296718	0.00156164	0.000862318	0	0	0	
0.158333	-0.0510679	-0.00147783	0.001667	0.00095263	0	0	0	
0.1585	0.0705701	-0.113347	0.0021891	0.00118047	0	0	0	
0.158667	0.00598107	-0.00783104	0.00202558	0.00149009	0	0	0	
0.158833	0.041901	-0.0512245	0.00164934	0.00154771	0	0	0	
0.159	-0.0563195	0.039764	0.000993558	0.00138955	0	0	0	
0.159167	0.036957	-0.0276935	0.00100656	0.000981833	0	0	0	
0.159333	-0.000454718	-0.0228351	0.00115492	0.000727584	0	0	0	
0.1595	0.035489	-0.00108457	0.00113574	0.00046129	0	0	0	
0.159667	-0.0415354	0.0372661	0.00114908	0.000435053	0	0	0	
0.159833	0.044953	-0.0370307	0.00130187	0.000578984	0	0	0	
0.16	-0.0246554	0.0194386	0.00134737	0.000739217	0	0	0	
0.160167	0.00943972	-0.0128387	0.00123971	0.00071953	0	0	0	
0.160333	-0.00933347	0.0138422	0.000958194	0.000533526	0	0	0	
0.1605	0.0196666	-0.0251895	0.000695388	0.000463665	0	0	0	
0.160667	-0.0392774	0.0357939	0.000643043	0.000549908	0	0	0	
0.160833	0.0602687	-0.0253735	0.000831451	0.00064113	0	0	0	
0.161	-0.0565496	0.019772	0.00117026	0.000640162	0	0	0	
0.161167	0.0241393	-0.00955537	0.00130137	0.000499083	0	0	0	
0.161333	-0.0175224	0.00960723	0.00113219	0.0003452	0	0	0	
0.1615	0.021248	-0.0180612	0.000834415	0.000247897	0	0	0	
0.161667	-0.039783	0.0334232	0.00085705	0.000351236	0	0	0	
0.161833	0.0326536	-0.032577	0.00110015	0.000584696	0	0	0	
0.162	-0.0364589	0.0282391	0.00132847	0.0007913	0	0	0	
0.162167	0.0258491	-0.0125998	0.00124328	0.000769376	0	0	0	
0.162333	-0.0212332	0.00904593	0.000947122	0.000547036	0	0	0	
0.1625	0.0322999	-0.0207791	0.000713693	0.00035742	0	0	0	
0.162667	-0.0535872	0.0383011	0.000764155	0.000389094	0	0	0	
0.162833	0.0407166	-0.0355539	0.00104561	0.000623075	0	0	0	
0.163	-0.0395621	0.0293366	0.00132663	0.00076684	0	0	0	
0.163167	0.0327498	-0.033616	0.00138356	0.00077518	0	0	0	
0.163333	-0.0183161	0.0207418	0.00116345	0.00062719	0	0	0	
0.1635	0.0227506	-0.0157903	0.000854539	0.0005086	0	0	0	
0.163667	-0.0286942	0.020751	0.000642934	0.000392491	0	0	0	
0.163833	0.049182	-0.0370326	0.000770762	0.00045698	0	0	0	
0.164	-0.0529887	0.0299073	0.00106109	0.000606531	0	0	0	
0.164167	0.0412677	-0.0171695	0.00136998	0.000707102	0	0	0	
0.164333	-0.0183802	0.00364101	0.00137264	0.000574251	0	0	0	
0.1645	0.0138605	-0.00865232	0.00108769	0.000345753	0	0	0	
0.164667	-0.02387	0.0191711	0.000736237	0.000216306	0	0	0	
0.164833	0.0393722	-0.0369751	0.000660942	0.000301715	0	0	0	
0.165	-0.0350002	0.0403463	0.000852968	0.000541114	0	0	0	
0.165167	0.043722	-0.0369918	0.00109094	0.000715754	0	0	0	
0.165333	-0.0440716	0.0363642	0.00121314	0.000818952	0	0	0	
0.1655	0.0248253	-0.0198382	0.00114976	0.000719428	0	0	0	
0.165667	-0.01879	0.013733	0.000963882	0.000582222	0	0	0	
0.165833	0.0264564	-0.017937	0.000758582	0.000412076	0	0	0	
0.166	-0.0456733	0.032331	0.00081701	0.000427386	0	0	0	
0.166167	0.0409087	-0.0327036	0.00108839	0.000544496	0	0	0	
0.166333	-0.0255641	0.0248463	0.00133422	0.000655331	0	0	0	
0.1665	0.0191308	-0.0122902	0.00125934	0.000604486	0	0	0	
0.166667	-0.0184947	0.00719137	0.000924522	0.000425249	0	0	0	
0.166833	0.0246818	-0.012988	0.000639533	0.000274307	0	0	0	
0.167	-0.032983	0.0237728	0.000583997	0.000238939	0	0	0	
0.167167	0.0438169	-0.0379929	0.000783382	0.000375112	0	0	0	
0.167333	-0.0514436	0.0396777	0.00103058	0.000571041	0	0	0	
0.1675	0.0453167	-0.040082	0.001272	0.000730986	0	0	0	
0.167667	-0.0189891	0.0165318	0.0012589	0.000722644	0	0	0	
0.167833	0.0172828	-0.00978227	0.00102961	0.000572309	0	0	0	
0.168	-0.023174	0.0144897	0.000714292	0.000381699	0	0	0	
0.168167	0.0387539	-0.0290619	0.000702363	0.000351871	0	0	0	
0.168333	-0.0393261	0.0282001	0.000958601	0.000446815	0	0	0	
0.1685	0.0380589	-0.0295289	0.00122733	0.000589189	0	0	0	
0.168667	-0.0320869	0.0196982	0.00124959	0.000637608	0	0	0	
0.168833	0.024476	-0.0116167	0.00102662	0.000545719	0	0	0	
0.169	-0.0255926	0.0140182	0.000800401	0.000409911	0	0	0	
0.169167	0.0381313	-0.0304787	0.000722291	0.000335012	0	0	0	
0.169333	-0.0446068	0.0421304	0.000875958	0.00047018	0	0	0	
0.1695	0.0477928	-0.0397457	0.00104572	0.000643431	0	0	0	
0.169667	-0.0433922	0.0360488	0.00118722	0.000785553	0	0	0	
0.169833	0.0213565	-0.0156737	0.00110285	0.000702285	0	0	0	
0.17	-0.0202482	0.0134585	0.000918474	0.000540739	0	0	0	
0.170167	0.0303933	-0.0230803	0.000695339	0.000374034	0	0	0	
0.170333	-0.0467192	0.0341171	0.000738061	0.000411111	0	0	0	
0.1705	0.0382163	-0.0295061	0.000970988	0.000525821	0	0	0	
0.170667	-0.0292396	0.0252236	0.00121265	0.000617573	0	0	0	
0.170833	0.022546	-0.0152252	0.00118918	0.000555654	0	0	0	
0.171	-0.022139	0.0120886	0.000945907	0.000429397	0	0	0	
0.171167	0.0328824	-0.0177517	0.000700876	0.000323876	0	0	0	
0.171333	-0.0505122	0.0290661	0.000700987	0.000328494	0	0	0	
0.1715	0.0411621	-0.0290606	0.000950359	0.000422314	0	0	0	
0.171667	-0.0310486	0.0255978	0.00113887	0.000518542	0	0	0	
0.171833	0.035617	-0.0313667	0.00118316	0.000565603	0	0	0	
0.172	-0.0222406	0.0173183	0.0010072	0.000548013	0	0	0	
0.172167	0.0194537	-0.00753404	0.000804379	0.000451547	0	0	0	
0.172333	-0.031664	0.0094556	0.000630009	0.000316758	0	0	0	
0.1725	0.0501875	-0.029992	0.000686869	0.000268654	0	0	0	
0.172667	-0.0385883	0.0296982	0.000969307	0.000403121	0	0	0	
0.172833	0.0262027	-0.0198509	0.00127738	0.000548862	0	0	0	
0.173	-0.0180276	0.00735076	0.00123728	0.000556401	0	0	0	
0.173167	0.0237433	-0.0156127	0.000922022	0.00041364	0	0	0	
0.173333	-0.0285431	0.0193028	0.000616499	0.000311538	0	0	0	
0.1735	0.0324977	-0.0245497	0.000631773	0.000335645	0	0	0	
0.173667	-0.0371215	0.0296955	0.000874395	0.000467057	0	0	0	
0.173833	0.0358476	-0.031124	0.00106052	0.000595836	0	0	0	
0.174	-0.0320115	0.0264264	0.00115236	0.000704726	0	0	0	
0.174167	0.0193655	-0.0109307	0.00107287	0.000675771	0	0	0	
0.174333	-0.0216459	0.00951365	0.00089297	0.000533259	0	0	0	
0.1745	0.0355355	-0.020705	0.000710629	0.000372058	0	0	0	
0.174667	-0.0493504	0.0398187	0.000754865	0.000378873	0	0	0	
0.174833	0.04419	-0.0433587	0.00103098	0.000567909	0	0	0	
0.175	-0.0431341	0.0411775	0.00130594	0.000784098	0	0	0	
0.175167	0.0395506	-0.0243333	0.00132868	0.000834063	0	0	0	
0.175333	-0.0285975	0.0147297	0.00109718	0.000678456	0	0	0	
0.1755	0.0235059	-0.0142835	0.000820268	0.000458661	0	0	0	
0.175667	-0.0331409	0.0271584	0.000660468	0.000337262	0	0	0	
0.175833	0.0615958	-0.0327207	0.000788742	0.000416802	0	0	0	
0.176	-0.0571201	0.0327704	0.00104325	0.000558223	0	0	0	
0.176167	0.0340829	-0.0243679	0.00129301	0.000635753	0	0	0	
0.176333	-0.0127718	0.0121639	0.00125783	0.000576649	0	0	0	
0.1765	0.0169326	-0.0107308	0.000967643	0.000425348	0	0	0	
0.176667	-0.0276771	0.0191666	0.00066896	0.000318258	0	0	0	
0.176833	0.0446865	-0.0329197	0.000614342	0.000341163	0	0	0	
0.177	-0.0457186	0.034641	0.000838717	0.000472552	0	0	0	
0.177167	0.0438518	-0.0321445	0.00109802	0.000627736	0	0	0	
0.177333	-0.0384693	0.0194066	0.00119956	0.00065939	0	0	0	
0.1775	0.0307326	-0.0114446	0.00107397	0.000548139	0	0	0	
0.177667	-0.0301745	0.0105354	0.000882089	0.000374535	0	0	0	
0.177833	0.0371021	-0.0234463	0.000807554	0.000271913	0	0	0	
0.178	-0.0498559	0.0373681	0.00102196	0.000369862	0	0	0	
0.178167	0.0403732	-0.0372278	0.00123715	0.000553338	0	0	0	
0.178333	-0.0335307	0.0179669	0.00133959	0.000725922	0	0	0	
0.1785	0.0181901	-0.00268787	0.00116603	0.000698331	0	0	0	
0.178667	-0.0176672	0.00540538	0.000881384	0.000488022	0	0	0	
0.178833	0.0443097	-0.0166166	0.000667625	0.000289616	0	0	0	
0.179	-0.0759316	0.0289456	0.000795729	0.000259382	0	0	0	
0.179167	0.060112	-0.044443	0.00118023	0.000477956	0	0	0	
0.179333	-0.0401	0.04081	0.00156311	0.000726364	0	0	0	
0.1795	0.0320886	-0.024695	0.00154041	0.000856389	0	0	0	
0.179667	-0.0282128	0.0110001	0.00122038	0.000731857	0	0	0	
0.179833	0.0325844	-0.0115701	0.000872896	0.000504203	0	0	0	
0.18	-0.0383611	0.0226766	0.000745597	0.000332623	0	0	0	
0.180167	0.0540244	-0.0443189	0.000923837	0.000454104	0	0	0	
0.180333	-0.0538916	0.0420811	0.00111584	0.000650978	0	0	0	
0.1805	0.0488952	-0.025458	0.00127366	0.000787812	0	0	0	
0.180667	-0.0255619	0.00857415	0.00120297	0.000641591	0	0	0	
0.180833	0.0186829	-0.00885568	0.000987658	0.000416091	0	0	0	
0.181	-0.0313744	0.0195372	0.000728018	0.000258903	0	0	0	
0.181167	0.0558821	-0.034015	0.000714954	0.000330938	0	0	0	
0.181333	-0.0561515	0.0368102	0.000931897	0.000497751	0	0	0	
0.1815	0.048307	-0.026243	0.00125825	0.000645477	0	0	0	
0.181667	-0.0312126	0.0139707	0.0013657	0.000625419	0	0	0	
0.181833	0.0200208	-0.00980131	0.00118467	0.000485762	0	0	0	
0.182	-0.0282601	0.0124291	0.000863257	0.000333096	0	0	0	
0.182167	0.0347895	-0.0164515	0.000685954	0.000265934	0	0	0	
0.182333	-0.0461036	0.0307406	0.000844484	0.000393459	0	0	0	
0.1825	0.0405612	-0.0255959	0.00102854	0.000516908	0	0	0	
0.182667	-0.0448669	0.0168892	0.00113408	0.000571917	0	0	0	
0.182833	0.0299359	-0.0104668	0.00106366	0.000461934	0	0	0	
0.183	-0.0196171	0.0114562	0.000915637	0.000335855	0	0	0	
0.183167	0.0294786	-0.0209686	0.000745657	0.000279395	0	0	0	
0.183333	-0.0591045	0.0377167	0.00074044	0.000366203	0	0	0	
0.1835	0.0535763	-0.036808	0.000956059	0.000544475	0	0	0	
0.183667	-0.0450447	0.0339381	0.00127131	0.000703131	0	0	0	
0.183833	0.0292558	-0.0256483	0.00137739	0.000749249	0	0	0	
0.184	-0.0166415	0.0146029	0.00116102	0.0006213	0	0	0	
0.184167	0.0249289	-0.013957	0.000818227	0.000454687	0	0	0	
0.184333	-0.0398823	0.0186109	0.000596855	0.000301646	0	0	0	
0.1845	0.0572064	-0.0337803	0.000772574	0.000386161	0	0	0	
0.184667	-0.0473178	0.0251906	0.0010539	0.00049452	0	0	0	
0.184833	0.0355209	-0.0181538	0.00127583	0.000583212	0	0	0	
0.185	-0.0198999	0.00687888	0.00117276	0.000462092	0	0	0	
0.185167	0.0170763	-0.0100626	0.0008989	0.000319702	0	0	0	
0.185333	-0.0275839	0.0196856	0.00062615	0.000235764	0	0	0	
0.1855	0.0540448	-0.0365932	0.000619839	0.000333854	0	0	0	
0.185667	-0.0494243	0.0304097	0.000835649	0.000514022	0	0	0	
0.185833	0.0429895	-0.020275	0.00112144	0.000639558	0	0	0	
0.186	-0.027496	0.00557009	0.00122211	0.000559493	0	0	0	
0.186167	0.0157473	-0.00512821	0.00104735	0.00035578	0	0	0	
0.186333	-0.02647	0.00944847	0.00075198	0.000190688	0	0	0	
0.1865	0.0402748	-0.0183075	0.000568641	0.00016043	0	0	0	
0.186667	-0.052446	0.040442	0.000764235	0.000329601	0	0	0	
0.186833	0.0415396	-0.0391902	0.00107618	0.000542216	0	0	0	
0.187	-0.0308066	0.0189386	0.00124661	0.000680652	0	0	0	
0.187167	0.0213842	-0.00606333	0.00108615	0.000583936	0	0	0	
0.187333	-0.0206993	0.0106112	0.000782456	0.000375873	0	0	0	
0.1875	0.0318498	-0.0214869	0.000580349	0.000254474	0	0	0	
0.187667	-0.0651046	0.0467547	0.000672704	0.000390885	0	0	0	
0.187833	0.0544545	-0.0376209	0.00100818	0.000646736	0	0	0	
0.188	-0.0259193	0.020677	0.00133795	0.00079255	0	0	0	
0.188167	0.000142852	0.0027848	0.00137966	0.000661807	0	0	0	
0.188333	-0.00984605	0.00125463	0.001008	0.000368765	0	0	0	
0.1885	0.0311846	-0.0116919	0.000644681	0.000173712	0	0	0	
0.188667	-0.0351265	0.0171742	0.000499721	0.00014654	0	0	0	
0.188833	0.050968	-0.0295535	0.000797551	0.000304395	0	0	0	
0.189	-0.055456	0.0371193	0.00109878	0.000488278	0	0	0	
0.189167	0.049577	-0.0285751	0.00129589	0.000611366	0	0	0	
0.189333	-0.0348839	0.0181457	0.0012527	0.000598725	0	0	0	
0.1895	0.0226434	-0.011962	0.00105974	0.000482511	0	0	0	
0.189667	-0.0299347	0.0137692	0.000820399	0.00036419	0	0	0	
0.189833	0.0585031	-0.0145073	0.000736331	0.000275532	0	0	0	
0.19	-0.0461898	0.0112104	0.000924163	0.000293364	0	0	0	
0.190167	-0.00326448	-0.00889492	0.0011735	0.000347599	0	0	0	
0.190333	0.0522711	0.00758161	0.00114528	0.000360235	0	0	0	
0.1905	-0.0149978	-0.0110096	0.000920298	0.000346088	0	0	0	
0.190667	-0.0326949	0.00376897	0.000699543	0.000249881	0	0	0	
0.190833	0.0397314	0.0122861	0.000641693	0.000201165	0	0	0	
0.191	-0.0586143	0.0179199	0.000810851	0.000161386	0	0	0	
0.191167	0.0613749	-0.043965	0.00107626	0.000333533	0	0	0	
0.191333	-0.0311659	0.0206	0.00137847	0.000525654	0	0	0	
0.1915	0.0162419	0.000217381	0.00161048	0.000580653	0	0	0	
0.191667	0.00431521	0.00261032	0.00152701	0.000384581	0	0	0	
0.191833	0.00508691	-0.007349	0.00111634	0.000195261	0	0	0	
0.192	-0.0381348	0.00919764	0.000649859	0.000152078	0	0	0	
0.192167	0.0369849	-0.0215349	0.000582258	0.000266762	0	0	0	
0.192333	-0.0274033	0.0208594	0.000785463	0.000372166	0	0	0	
0.1925	0.0331606	-0.0274991	0.000945397	0.000462116	0	0	0	
0.192667	-0.0288131	0.0139871	0.000852352	0.00045174	0	0	0	
0.192833	0.0313604	-0.00916924	0.000769835	0.000386433	0	0	0	
0.193	-0.0301144	0.0169689	0.00069774	0.000288361	0	0	0	
0.193167	0.0510643	-0.0371675	0.000809766	0.000340426	0	0	0	
0.193333	-0.0625291	0.0461778	0.00102986	0.000539688	0	0	0	
0.1935	0.0591295	-0.0417489	0.0012685	0.000749089	0	0	0	
0.193667	-0.0393562	0.0207736	0.00134058	0.000790334	0	0	0	
0.193833	0.0209819	-0.0106215	0.00116102	0.000631404	0	0	0	
0.194	-0.0235878	0.0110548	0.000865089	0.000421063	0	0	0	
0.194167	0.0454267	-0.0210475	0.000691628	0.000297144	0	0	0	
0.194333	-0.0468341	0.0259552	0.000814133	0.000337269	0	0	0	
0.1945	0.0493969	-0.0384939	0.00100188	0.000467612	0	0	0	
0.194667	-0.0498568	0.0439653	0.00115693	0.000631218	0	0	0	
0.194833	0.0289109	-0.0234733	0.00108378	0.000684716	0	0	0	
0.195	-0.0220552	0.0138533	0.000930845	0.000595306	0	0	0	
0.195167	0.0322257	-0.0270609	0.000729424	0.000453022	0	0	0	
0.195333	-0.0550722	0.0388096	0.00073619	0.000461341	0	0	0	
0.1955	0.0620925	-0.0387793	0.000950281	0.000594767	0	0	0	
0.195667	-0.0496403	0.0323134	0.00126508	0.000724699	0	0	0	
0.195833	0.0247614	-0.0170642	0.00137121	0.000702822	0	0	0	
0.196	-0.015197	0.00854159	0.00116274	0.00055305	0	0	0	
0.196167	0.0269696	-0.0153209	0.000808581	0.000380658	0	0	0	
0.196333	-0.0509887	0.0350429	0.000643076	0.000326613	0	0	0	
0.1965	0.0617826	-0.0418744	0.000848246	0.000483935	0	0	0	
0.196667	-0.0604972	0.042484	0.00110154	0.000683415	0	0	0	
0.196833	0.0495392	-0.0365555	0.0013287	0.000795609	0	0	0	
0.197	-0.0121476	0.0204367	0.00128006	0.000720128	0	0	0	
0.197167	0.0210289	-0.0251688	0.00107824	0.000622257	0	0	0	
0.197333	-0.0530817	0.0412137	0.000855816	0.000571966	0	0	0	
0.1975	0.0711386	-0.0369454	0.00086629	0.00067989	0	0	0	
0.197667	-0.0617649	0.0415147	0.00113572	0.000725612	0	0	0	
0.197833	0.0460591	-0.0342941	0.00144811	0.000779552	0	0	0	
0.198	-0.0295834	0.0191137	0.00147389	0.000682556	0	0	0	
0.198167	0.0320863	-0.0114509	0.00124543	0.000588434	0	0	0	
0.198333	-0.025044	0.00650621	0.000888354	0.000408253	0	0	0	
0.1985	0.032559	-0.0174532	0.000642927	0.000279581	0	0	0	
0.198667	-0.0496415	0.0306846	0.000687177	0.000309328	0	0	0	
0.198833	0.0563906	-0.0283617	0.000815593	0.000449567	0	0	0	
0.199	-0.0504281	0.0179169	0.0010816	0.000550812	0	0	0	
0.199167	0.0265755	-0.0120636	0.00115062	0.000513718	0	0	0	
0.199333	-0.0204675	0.0120473	0.00102039	0.000368467	0	0	0	
0.1995	0.0416989	-0.0229761	0.0008018	0.000305305	0	0	0	
0.199667	-0.0571644	0.031139	0.000775836	0.000363384	0	0	0	
0.199833	0.0462571	-0.0411215	0.00101863	0.000513067	0	0	0	
0.2	-0.0369434	0.0377986	0.00131178	0.000679858	0	0	0	
0.200167	0.0286717	-0.0227788	0.0013217	0.000740167	0	0	0	
0.200333	-0.0266247	0.00906433	0.00106527	0.000635197	0	0	0	
0.2005	0.0299353	-0.0107251	0.00075985	0.000434853	0	0	0	
0.200667	-0.0402624	0.0272449	0.000662675	0.000296761	0	0	0	
0.200833	0.0581791	-0.0420593	0.000857202	0.000404216	0	0	0	
0.201	-0.0551917	0.0314804	0.00104751	0.000582189	0	0	0	
0.201167	0.0498707	-0.0215422	0.00121365	0.00066304	0	0	0	
0.201333	-0.030366	0.011223	0.00116995	0.00055948	0	0	0	
0.2015	0.024688	-0.0131105	0.00100059	0.00039057	0	0	0	
0.201667	-0.0374816	0.0228013	0.000789228	0.000314708	0	0	0	
0.201833	0.0555887	-0.0358216	0.000783656	0.000377836	0	0	0	
0.202	-0.0448612	0.0394376	0.000983363	0.000549046	0	0	0	
0.202167	0.0385001	-0.0370803	0.00122157	0.000700878	0	0	0	
0.202333	-0.0311736	0.0201927	0.00123148	0.000757933	0	0	0	
0.2025	0.0280987	-0.00826441	0.00101913	0.00061896	0	0	0	
0.202667	-0.0313626	0.01326	0.000763623	0.000430311	0	0	0	
0.202833	0.0436542	-0.0271497	0.00070696	0.000302285	0	0	0	
0.203	-0.0508328	0.0345861	0.000947808	0.000431781	0	0	0	
0.203167	0.0504048	-0.0425091	0.00115549	0.000625272	0	0	0	
0.203333	-0.0567396	0.0495976	0.00128159	0.000810017	0	0	0	
0.2035	0.0392375	-0.0302858	0.00117597	0.000843249	0	0	0	
0.203667	-0.0265337	0.0158673	0.00101654	0.000730619	0	0	0	
0.203833	0.0366155	-0.0304168	0.000812324	0.000560633	0	0	0	
0.204	-0.0648417	0.0529995	0.000837531	0.000578109	0	0	0	
0.204167	0.0682819	-0.0424567	0.00101837	0.000739739	0	0	0	
0.204333	-0.0548357	0.0253531	0.00129853	0.000854269	0	0	0	
0.2045	0.0267073	-0.00860337	0.00134109	0.000717028	0	0	0	
0.204667	-0.0152296	0.00545186	0.00112469	0.000445944	0	0	0	
0.204833	0.0256801	-0.0128732	0.000775734	0.000255841	0	0	0	
0.205	-0.0379172	0.0217869	0.000601319	0.000195089	0	0	0	
0.205167	0.0467299	-0.0335315	0.00076357	0.000349875	0	0	0	
0.205333	-0.046484	0.0391382	0.00097359	0.000521139	0	0	0	
0.2055	0.0519459	-0.0373709	0.0011187	0.000679993	0	0	0	
0.205667	-0.0357888	0.0189348	0.00108016	0.000667497	0	0	0	
0.205833	0.0276227	-0.0103364	0.000960601	0.000550775	0	0	0	
0.206	-0.0302184	0.0142556	0.000790436	0.00038285	0	0	0	
0.206167	0.0526785	-0.0317523	0.000753059	0.000347412	0	0	0	
0.206333	-0.0678241	0.0390572	0.000921219	0.000459395	0	0	0	
0.2065	0.074604	-0.0369559	0.00122787	0.000624289	0	0	0	
0.206667	-0.0530864	0.0251571	0.00145711	0.000695535	0	0	0	
0.206833	0.0237573	-0.0165004	0.00136987	0.000594552	0	0	0	
0.207	-0.0184661	0.00875874	0.00104514	0.000450045	0	0	0	
0.207167	0.0278078	-0.00332049	0.000733969	0.000372577	0	0	0	
0.207333	-0.0506289	0.0223184	0.000784046	0.000400048	0	0	0	
0.2075	0.0634787	-0.036245	0.00103805	0.000476658	0	0	0	
0.207667	-0.0623897	0.0423978	0.00126867	0.000619375	0	0	0	
0.207833	0.0317094	-0.018369	0.00122053	0.000645318	0	0	0	
0.208	-0.0200782	0.00710092	0.000969773	0.000549312	0	0	0	
0.208167	0.0345765	-0.0246906	0.000702692	0.000371417	0	0	0	
0.208333	-0.0518484	0.0691441	0.000732793	0.000523887	0	0	0	
0.2085	0.0462469	0.0519953	0.00109248	0.00103377	0	0	0	
0.208667	-0.093672	0.0674438	0.00207837	0.00163286	0	0	0	
0.208833	0.0429845	-0.00268117	0.00241313	0.00185014	0	0	0	
0.209	-0.0216225	0.0212085	0.00218333	0.00162214	0	0	0	
0.209167	0.0306794	-0.013469	0.00122823	0.00103922	0	0	0	
0.209333	-0.082699	0.0631679	0.00094463	0.000698994	0	0	0	
0.2095	0.0734839	-0.0691204	0.00108597	0.000760429	0	0	0	
0.209667	-0.0625408	0.0505169	0.00131117	0.00101505	0	0	0	
0.209833	0.0700867	-0.0350768	0.00140467	0.00108251	0	0	0	
0.21	-0.0577201	0.0352886	0.00144534	0.000952005	0	0	0	
0.210167	0.044833	-0.026285	0.00146956	0.000756175	0	0	0	
0.210333	-0.051474	0.0307789	0.00143839	0.000666917	0	0	0	
0.2105	0.0652637	-0.0319909	0.00139852	0.000594186	0	0	0	
0.210667	-0.0684928	0.0387705	0.00142489	0.00063675	0	0	0	
0.210833	0.0627051	-0.0524466	0.00147431	0.000747598	0	0	0	
0.211	-0.0553261	0.0509078	0.00149844	0.000859207	0	0	0	
0.211167	0.0616682	-0.0402023	0.0014709	0.000934877	0	0	0	
0.211333	-0.0664735	0.0361496	0.00142173	0.000890422	0	0	0	
0.2115	0.0585902	-0.0310146	0.00138027	0.000773466	0	0	0	
0.211667	-0.0561101	0.0191671	0.00135705	0.000638241	0	0	0	
0.211833	0.0567723	-0.00125648	0.00127185	0.000469021	0	0	0	
0.212	-0.060813	0.0126518	0.00122816	0.000417792	0	0	0	
0.212167	0.0627592	-0.046419	0.00122942	0.000565785	0	0	0	
0.212333	-0.0733429	0.0616793	0.00136017	0.000813758	0	0	0	
0.2125	0.0621252	-0.0482386	0.00147199	0.000996179	0	0	0	
0.212667	-0.0429013	0.0357849	0.00146273	0.000989686	0	0	0	
0.212833	0.0440013	-0.0329743	0.00133646	0.00093593	0	0	0	
0.213	-0.0565958	0.0207889	0.00124488	0.000851919	0	0	0	
0.213167	0.0638642	-0.0125449	0.00131199	0.000772365	0	0	0	
0.213333	-0.0623761	0.0250463	0.00144881	0.000644597	0	0	0	
0.2135	0.0510992	-0.0441764	0.00143173	0.000626469	0	0	0	
0.213667	-0.065353	0.0495202	0.00133538	0.000684077	0	0	0	
0.213833	0.076635	-0.0436018	0.00131444	0.000830139	0	0	0	
0.214	-0.0662671	0.0312053	0.00142462	0.000835475	0	0	0	
0.214167	0.0583945	-0.0368432	0.00151498	0.000759941	0	0	0	
0.214333	-0.0532649	0.045513	0.00143153	0.000716976	0	0	0	
0.2145	0.0543948	-0.0446609	0.00137594	0.0007642	0	0	0	
0.214667	-0.0492718	0.0278766	0.00136368	0.000797911	0	0	0	
0.214833	0.0527734	-0.0271266	0.00137575	0.00074631	0	0	0	
0.215	-0.0613434	0.0315742	0.00133747	0.000657701	0	0	0	
0.215167	0.0594068	-0.0416217	0.00133852	0.000632607	0	0	0	
0.215333	-0.0559366	0.0572349	0.00134851	0.000744226	0	0	0	
0.2155	0.0701594	-0.0509367	0.00138536	0.00089172	0	0	0	
0.215667	-0.0744373	0.0307019	0.00139358	0.000921276	0	0	0	
0.215833	0.0654807	-0.0274855	0.00150329	0.0008187	0	0	0	
0.216	-0.0453918	0.0240627	0.00155078	0.000665288	0	0	0	
0.216167	0.0423416	-0.0292991	0.0014618	0.000591794	0	0	0	
0.216333	-0.0446259	0.0462678	0.00129158	0.000669412	0	0	0	
0.2165	0.0229517	-0.0776734	0.00107692	0.000874372	0	0	0	
0.216667	-0.0855708	0.027314	0.00126086	0.00126687	0	0	0	
0.216833	-0.128697	-0.224288	0.00301046	0.00372015	0	0	0	
0.217	-0.0237426	0.074778	0.00303019	0.00410028	0	0	0	
0.217167	0.0860483	-0.0277342	0.00300912	0.00422519	0	0	0	
0.217333	-0.086188	0.0514973	0.00186383	0.00202349	0	0	0	
0.2175	0.0538701	-0.0887792	0.00265113	0.00182397	0	0	0	
0.217667	0.0262243	0.132564	0.0032539	0.0018046	0	0	0	
0.217833	-0.160934	-0.240385	0.00406392	0.00370479	0	0	0	
0.218	-0.00515796	0.0625052	0.00460267	0.00388283	0	0	0	
0.218167	0.0600646	-0.0547252	0.00399812	0.0036628	0	0	0	
0.218333	-0.127737	0.0895538	0.00288843	0.00186638	0	0	0	
0.2185	0.174929	-0.0832162	0.00221367	0.00173496	0	0	0	
0.218667	-0.176822	0.10295	0.00274745	0.00193756	0	0	0	
0.218833	0.130133	-0.135669	0.00309919	0.00205315	0	0	0	
0.219	-0.035249	0.105534	0.00295119	0.00224869	0	0	0	
0.219167	0.014103	-0.0673094	0.00241782	0.00207705	0	0	0	
0.219333	-0.0440524	0.0644232	0.0016906	0.00182806	0	0	0	
0.2195	0.068221	-0.0399407	0.00125362	0.00134758	0	0	0	
0.219667	-0.0764767	0.0414382	0.00120097	0.00115126	0	0	0	
0.219833	0.0836671	-0.0412044	0.00142688	0.000900449	0	0	0	
0.22	-0.0870649	0.0418642	0.00163939	0.00083322	0	0	0	
0.220167	0.0692614	-0.0497339	0.00179478	0.000832026	0	0	0	
0.220333	-0.0333065	0.0581446	0.00184437	0.000942343	0	0	0	
0.2205	0.0325301	-0.0471245	0.00155236	0.000994912	0	0	0	
0.220667	-0.0740067	0.0452514	0.00125589	0.000991781	0	0	0	
0.220833	0.0953393	-0.0516209	0.0011754	0.00092956	0	0	0	
0.221	-0.0462019	0.0425193	0.00162388	0.000948638	0	0	0	
0.221167	-0.0246379	-0.00506696	0.00212189	0.00093469	0	0	0	
0.221333	0.00689256	-0.0129577	0.00197862	0.000686741	0	0	0	
0.2215	0.0639957	-0.0157915	0.00144757	0.000406159	0	0	0	
0.221667	-0.062555	0.0279579	0.00102672	0.000304087	0	0	0	
0.221833	0.0212578	-0.0121433	0.00110812	0.000486017	0	0	0	
0.222	-0.035001	0.0280972	0.00121912	0.000613951	0	0	0	
0.222167	0.0787202	-0.0422505	0.001181	0.000739659	0	0	0	
0.222333	-0.0868393	0.0375728	0.00133475	0.000673182	0	0	0	
0.2225	0.0524903	-0.0527356	0.0015816	0.000826279	0	0	0	
0.222667	-0.0365906	0.0468881	0.00155675	0.000817163	0	0	0	
0.222833	0.0584449	-0.0696241	0.00126673	0.00101786	0	0	0	
0.223	-0.0661514	0.069024	0.00123588	0.00115206	0	0	0	
0.223167	0.030034	-0.0444068	0.00163244	0.00131202	0	0	0	
0.223333	0.00870024	0.021012	0.0019266	0.00123968	0	0	0	
0.2235	0.0146712	-0.0139067	0.0015375	0.000901263	0	0	0	
0.223667	-0.0654603	0.00873692	0.00103572	0.000519358	0	0	0	
0.223833	0.0586865	-0.037217	0.00091804	0.000423582	0	0	0	
0.224	-0.0259647	0.0309667	0.00125519	0.00049318	0	0	0	
0.224167	0.0415153	-0.0407605	0.0012934	0.000649041	0	0	0	
0.224333	-0.0811555	0.0448196	0.00122655	0.000731016	0	0	0	
0.2245	0.0916864	-0.0423119	0.00126557	0.000787804	0	0	0	
0.224667	-0.0685147	0.0378548	0.00154967	0.000831862	0	0	0	
0.224833	0.0539334	-0.0379839	0.00165911	0.00078938	0	0	0	
0.225	-0.0557578	0.0335576	0.00153974	0.000743966	0	0	0	
0.225167	0.0542005	-0.0297467	0.00132743	0.000695535	0	0	0	
0.225333	-0.0489741	0.030383	0.00120954	0.000628579	0	0	0	
0.2255	0.0479542	-0.038498	0.0011765	0.000617666	0	0	0	
0.225667	-0.0600537	0.0387261	0.00117453	0.000632815	0	0	0	
0.225833	0.0656569	-0.0394317	0.00118694	0.000702641	0	0	0	
0.226	-0.0561054	0.038983	0.00128287	0.00074461	0	0	0	
0.226167	0.0509766	-0.0424648	0.00136639	0.000785077	0	0	0	
0.226333	-0.0628237	0.041599	0.0013628	0.000799858	0	0	0	
0.2265	0.0735682	-0.0381199	0.00134108	0.000793515	0	0	0	
0.226667	-0.0683159	0.034713	0.00141028	0.00075671	0	0	0	
0.226833	0.0526874	-0.0352881	0.00146939	0.000741627	0	0	0	
0.227	-0.0612446	0.039633	0.00144617	0.000724824	0	0	0	
0.227167	0.0720346	-0.0455186	0.00137629	0.000767479	0	0	0	
0.227333	-0.0717194	0.043351	0.00137523	0.000804311	0	0	0	
0.2275	0.0636842	-0.0387159	0.00142395	0.000821241	0	0	0	
0.227667	-0.0576302	0.037656	0.00144986	0.000778514	0	0	0	
0.227833	0.0570052	-0.04086	0.00141661	0.000748883	0	0	0	
0.228	-0.0605118	0.039211	0.00135845	0.000745822	0	0	0	
0.228167	0.0614641	-0.0360804	0.00131578	0.000743575	0	0	0	
0.228333	-0.0601632	0.0361803	0.00132507	0.000723446	0	0	0	
0.2285	0.0597834	-0.0362932	0.0013679	0.000695288	0	0	0	
0.228667	-0.0652968	0.0425961	0.00141155	0.00069703	0	0	0	
0.228833	0.0692049	-0.0474395	0.00146989	0.00076727	0	0	0	
0.229	-0.06111	0.0393156	0.0014686	0.000812205	0	0	0	
0.229167	0.0621327	-0.0305153	0.00141167	0.000805466	0	0	0	
0.229333	-0.0722818	0.0353328	0.00136599	0.000706616	0	0	0	
0.2295	0.0763902	-0.0429795	0.0014195	0.000673795	0	0	0	
0.229667	-0.0763314	0.045026	0.00153076	0.00072857	0	0	0	
0.229833	0.0630369	-0.0415112	0.00158791	0.000800043	0	0	0	
0.23	-0.0516349	0.0352761	0.00151588	0.000800174	0	0	0	
0.230167	0.0542117	-0.0350346	0.00136561	0.000753276	0	0	0	
0.230333	-0.064969	0.035805	0.00125828	0.000697386	0	0	0	
0.2305	0.0674578	-0.0367623	0.0012911	0.000704581	0	0	0	
0.230667	-0.0680842	0.0389698	0.00140687	0.00073226	0	0	0	
0.230833	0.0650256	-0.0454525	0.00148041	0.000784314	0	0	0	
0.231	-0.066245	0.0451717	0.00145444	0.000841735	0	0	0	
0.231167	0.0617453	-0.0428135	0.00140082	0.000847943	0	0	0	
0.231333	-0.0564125	0.0405181	0.0013393	0.000824323	0	0	0	
0.2315	0.0658993	-0.0438144	0.00133679	0.00078246	0	0	0	
0.231667	-0.0706339	0.0411184	0.00138001	0.000789737	0	0	0	
0.231833	0.0632756	-0.0375046	0.00146141	0.000793114	0	0	0	
0.232	-0.0518139	0.0330203	0.00142566	0.000761106	0	0	0	
0.232167	0.0527374	-0.0333605	0.00131262	0.00069738	0	0	0	
0.232333	-0.056822	0.0367736	0.0012011	0.000660248	0	0	0	
0.2325	0.0609766	-0.0367163	0.00122133	0.000659993	0	0	0	
0.232667	-0.0629618	0.0375985	0.00130601	0.000684487	0	0	0	
0.232833	0.066564	-0.0410815	0.00139449	0.000729468	0	0	0	
0.233	-0.0594531	0.037303	0.00138639	0.000742725	0	0	0	
0.233167	0.0532112	-0.0302253	0.0013428	0.000720069	0	0	0	
0.233333	-0.0535582	0.0332045	0.00128531	0.000645715	0	0	0	
0.2335	0.0648283	-0.0413053	0.0012966	0.000640861	0	0	0	
0.233667	-0.0725176	0.0443862	0.00133468	0.000705277	0	0	0	
0.233833	0.0679975	-0.0391852	0.00141729	0.000789032	0	0	0	
0.234	-0.0525959	0.0365002	0.00148179	0.00077587	0	0	0	
0.234167	0.0510233	-0.0446864	0.0014478	0.0007601	0	0	0	
0.234333	-0.0565139	0.0409122	0.00135345	0.000756514	0	0	0	
0.2345	0.0531761	-0.0345617	0.00127906	0.000800073	0	0	0	
0.234667	-0.0551533	0.0323201	0.00121618	0.000746116	0	0	0	
0.234833	0.076529	-0.0412796	0.00123905	0.000725765	0	0	0	
0.235	-0.0830418	0.0436207	0.00134601	0.000727075	0	0	0	
0.235167	0.065584	-0.0475682	0.00152873	0.000797107	0	0	0	
0.235333	-0.0509891	0.0436025	0.00159222	0.000844069	0	0	0	
0.2355	0.0574318	-0.0466776	0.00147924	0.000846585	0	0	0	
0.235667	-0.0698041	0.0455812	0.00138271	0.000859474	0	0	0	
0.235833	0.0654683	-0.0314951	0.00135478	0.000835213	0	0	0	
0.236	-0.0473143	0.0098519	0.00133473	0.000724583	0	0	0	
0.236167	0.0653399	0.027735	0.00132812	0.00070237	0	0	0	
0.236333	-0.185112	0.149958	0.00238026	0.00120551	0	0	0	
0.2365	0.0883661	-0.0910427	0.0026482	0.00167172	0	0	0	
0.236667	-0.0493402	0.0638794	0.00267067	0.0019818	0	0	0	
0.236833	0.0382415	-0.0204422	0.00144414	0.00146247	0	0	0	
0.237	-0.0519228	0.0324922	0.00106835	0.00102631	0	0	0	
0.237167	0.0441031	-0.0314862	0.000837776	0.00084741	0	0	0	
0.237333	-0.0606894	0.0376673	0.000901585	0.0008564	0	0	0	
0.2375	0.0661771	-0.0467412	0.0010511	0.000912105	0	0	0	
0.237667	-0.0511722	0.026605	0.00128537	0.000813905	0	0	0	
0.237833	0.028096	-0.00753203	0.00123319	0.000689284	0	0	0	
0.238	-0.0260392	0.0070615	0.00101835	0.000508752	0	0	0	
0.238167	0.0421442	-0.0147334	0.000780325	0.000269507	0	0	0	
0.238333	-0.0639665	0.0366292	0.000833166	0.000297096	0	0	0	
0.2385	0.0752899	-0.0543839	0.0010557	0.000530699	0	0	0	
0.238667	-0.0731017	0.0448722	0.00131974	0.000773385	0	0	0	
0.238833	0.0480807	-0.0203336	0.00137633	0.000813162	0	0	0	
0.239	-0.02735	0.0100307	0.00120202	0.000615192	0	0	0	
0.239167	0.0250387	-0.0129966	0.000906557	0.00038107	0	0	0	
0.239333	-0.0474374	0.0278757	0.000750651	0.000304256	0	0	0	
0.2395	0.0483482	-0.0399774	0.000816251	0.000432705	0	0	0	
0.239667	-0.0550878	0.0457051	0.00101451	0.000639879	0	0	0	
0.239833	0.0465008	-0.0398461	0.00111735	0.000821975	0	0	0	
0.24	-0.0298472	0.0172051	0.00101299	0.000745025	0	0	0	
0.240167	0.0285383	-0.0122738	0.000811667	0.00055669	0	0	0	
0.240333	-0.0387675	0.0319425	0.000665308	0.000379138	0	0	0	
0.2405	0.0543782	-0.0517792	0.000756289	0.000503613	0	0	0	
0.240667	-0.0671745	0.054362	0.000964904	0.000759142	0	0	0	
0.240833	0.0631171	-0.0431085	0.00118929	0.000925493	0	0	0	
0.241	-0.0386664	0.019493	0.00123706	0.000839127	0	0	0	
0.241167	0.0217485	-0.00609396	0.0010646	0.000592954	0	0	0	
0.241333	-0.0262912	0.00915651	0.000795357	0.000348473	0	0	0	
0.2415	0.0523581	-0.0294628	0.000666869	0.000299197	0	0	0	
0.241667	-0.0561005	0.0467677	0.000803827	0.000466052	0	0	0	
0.241833	0.0667781	-0.0492277	0.00107196	0.000707868	0	0	0	
0.242	-0.0539835	0.0386323	0.00126995	0.000852846	0	0	0	
0.242167	0.0296477	-0.0174368	0.00120606	0.000743766	0	0	0	
0.242333	-0.0245288	0.0146017	0.000981496	0.000550714	0	0	0	
0.2425	0.0314252	-0.0281549	0.000727451	0.000392528	0	0	0	
0.242667	-0.048229	0.0373402	0.000716975	0.000453008	0	0	0	
0.242833	0.060796	-0.0402453	0.000888616	0.00059335	0	0	0	
0.243	-0.0609524	0.0364231	0.00111836	0.000699205	0	0	0	
0.243167	0.0414512	-0.0196731	0.00118795	0.000682955	0	0	0	
0.243333	-0.0285684	0.0114387	0.00103406	0.000536373	0	0	0	
0.2435	0.0311864	-0.015626	0.000811424	0.000384396	0	0	0	
0.243667	-0.0527155	0.033628	0.000718476	0.000328678	0	0	0	
0.243833	0.0495548	-0.039485	0.000871197	0.000465439	0	0	0	
0.244	-0.0495863	0.0414095	0.00103082	0.000633088	0	0	0	
0.244167	0.0437103	-0.0344738	0.00111838	0.000740505	0	0	0	
0.244333	-0.0289323	0.0160694	0.000991501	0.000651963	0	0	0	
0.2445	0.0272678	-0.0141021	0.000828014	0.000498447	0	0	0	
0.244667	-0.0381886	0.0323048	0.000672631	0.000388802	0	0	0	
0.244833	0.055013	-0.039382	0.000742635	0.000494373	0	0	0	
0.245	-0.0636488	0.0409434	0.000961224	0.000638909	0	0	0	
0.245167	0.060604	-0.0368816	0.00124086	0.000757234	0	0	0	
0.245333	-0.0385263	0.0206056	0.0013003	0.000700059	0	0	0	
0.2455	0.0240671	-0.0128768	0.0011025	0.000557275	0	0	0	
0.245667	-0.0255136	0.013534	0.000785955	0.000375659	0	0	0	
0.245833	0.0468934	-0.027299	0.000633259	0.000299673	0	0	0	
0.246	-0.0574015	0.035541	0.000796112	0.000401474	0	0	0	
0.246167	0.0667245	-0.0373334	0.00104077	0.000567302	0	0	0	
0.246333	-0.0599732	0.0256387	0.00125479	0.000652761	0	0	0	
0.2465	0.0301033	-0.00942154	0.00120721	0.000560313	0	0	0	
0.246667	-0.0226808	0.0105015	0.000999945	0.000380337	0	0	0	
0.246833	0.0355557	-0.0281069	0.000740111	0.000292682	0	0	0	
0.247	-0.0601681	0.0430036	0.000745613	0.000421919	0	0	0	
0.247167	0.0627198	-0.0464251	0.000937558	0.000634935	0	0	0	
0.247333	-0.0563631	0.0371623	0.00117358	0.000774156	0	0	0	
0.2475	0.0349853	-0.0182468	0.00118354	0.0007132	0	0	0	
0.247667	-0.0254159	0.00884012	0.000990722	0.000520708	0	0	0	
0.247833	0.0318875	-0.00960461	0.000754488	0.000327377	0	0	0	
0.248	-0.0537667	0.0221472	0.000682661	0.000237202	0	0	0	
0.248167	0.055851	-0.0427339	0.000877218	0.000363295	0	0	0	
0.248333	-0.0580316	0.0450995	0.0010638	0.000595027	0	0	0	
0.2485	0.0531818	-0.035787	0.0012051	0.000765184	0	0	0	
0.248667	-0.0314667	0.015769	0.00111335	0.000710064	0	0	0	
0.248833	0.024312	-0.0124355	0.000939255	0.000507827	0	0	0	
0.249	-0.0316043	0.0209543	0.000705118	0.00034373	0	0	0	
0.249167	0.0521054	-0.0392371	0.000686015	0.000385624	0	0	0	
0.249333	-0.0612775	0.0377456	0.000859006	0.000537105	0	0	0	
0.2495	0.0610023	-0.0388681	0.00114477	0.000685165	0	0	0	
0.249667	-0.0377998	0.0199169	0.00124518	0.000679569	0	0	0	
0.249833	0.0207323	-0.00933348	0.00109269	0.000534635	0	0	0	
0.25	-0.0265096	0.0148201	0.000790015	0.000370902	0	0	0	
0.250167	0.0583744	-0.0401407	0.000659451	0.000345347	0	0	0	
0.250333	-0.0800048	0.0578982	0.000914911	0.000560768	0	0	0	
0.2505	0.0743229	-0.0541772	0.00124193	0.000827041	0	0	0	
0.250667	-0.0537345	0.0387961	0.00146638	0.000966837	0	0	0	
0.250833	0.0275543	-0.016317	0.00131021	0.000820207	0	0	0	
0.251	-0.0254742	0.015295	0.00102548	0.000576073	0	0	0	
0.251167	0.0363533	-0.0319244	0.000748412	0.000409698	0	0	0	
0.251333	-0.0553698	0.0450261	0.000726616	0.000492638	0	0	0	
0.2515	0.0634173	-0.0348805	0.000892724	0.000631107	0	0	0	
0.251667	-0.0628372	0.0330736	0.00114035	0.000720922	0	0	0	
0.251833	0.043874	-0.0178628	0.00126485	0.000642462	0	0	0	
0.252	-0.0271867	0.00974099	0.00116434	0.000496225	0	0	0	
0.252167	0.0298101	-0.0126608	0.00090757	0.000342759	0	0	0	
0.252333	-0.0560462	0.0335051	0.000745416	0.000331078	0	0	0	
0.2525	0.0708976	-0.0487955	0.000915955	0.000506165	0	0	0	
0.252667	-0.0675028	0.0516081	0.00116027	0.000727036	0	0	0	
0.252833	0.061324	-0.0342773	0.00138715	0.000853521	0	0	0	
0.253	-0.0296504	0.0147053	0.00131249	0.000750468	0	0	0	
0.253167	0.0229043	-0.0111046	0.00107018	0.000534204	0	0	0	
0.253333	-0.0448938	0.017618	0.000786737	0.000333984	0	0	0	
0.2535	0.0630799	-0.0222609	0.000773568	0.000300727	0	0	0	
0.253667	-0.061903	0.0239539	0.000996385	0.000369203	0	0	0	
0.253833	0.0621562	-0.0298521	0.00126796	0.000451016	0	0	0	
0.254	-0.0462944	0.0231663	0.00134698	0.000509801	0	0	0	
0.254167	0.029553	-0.0155827	0.0011825	0.000474021	0	0	0	
0.254333	-0.0294416	0.014837	0.000913616	0.000397392	0	0	0	
0.2545	0.0471883	-0.0265303	0.000729797	0.000322254	0	0	0	
0.254667	-0.0667671	0.0341923	0.000867077	0.000403	0	0	0	
0.254833	0.0653573	-0.037296	0.00107779	0.000540285	0	0	0	
0.255	-0.0564929	0.0263187	0.00128126	0.000640474	0	0	0	
0.255167	0.0311809	-0.0115987	0.0012051	0.000559965	0	0	0	
0.255333	-0.0265286	0.00895117	0.000987824	0.000391879	0	0	0	
0.2555	0.0358071	-0.0163247	0.000739479	0.00025227	0	0	0	
0.255667	-0.0506308	0.0326395	0.000713802	0.000281266	0	0	0	
0.255833	0.0599763	-0.0468933	0.000888	0.000487266	0	0	0	
0.256	-0.0729555	0.0487848	0.00117215	0.000714197	0	0	0	
0.256167	0.0586787	-0.0313347	0.0013659	0.000863321	0	0	0	
0.256333	-0.0313238	0.0144111	0.00128299	0.000733817	0	0	0	
0.2565	0.0235803	-0.00697087	0.000994903	0.00050037	0	0	0	
0.256667	-0.0436528	0.0197818	0.000714551	0.000275831	0	0	0	
0.256833	0.0743449	-0.0370195	0.000823137	0.000347634	0	0	0	
0.257	-0.0729729	0.043955	0.00111711	0.000539376	0	0	0	
0.257167	0.0496599	-0.0320071	0.0013683	0.000722522	0	0	0	
0.257333	-0.023916	0.0143857	0.00124246	0.000642069	0	0	0	
0.2575	0.0248038	-0.0096344	0.000917737	0.000449709	0	0	0	
0.257667	-0.0336138	0.0169575	0.000654677	0.000281549	0	0	0	
0.257833	0.0504933	-0.0308561	0.000665204	0.000300751	0	0	0	
0.258	-0.059251	0.0383899	0.000856955	0.000446707	0	0	0	
0.258167	0.0644821	-0.0381139	0.00107617	0.0006111	0	0	0	
0.258333	-0.0506772	0.0239235	0.00121413	0.000686184	0	0	0	
0.2585	0.0272044	-0.013399	0.00113671	0.000575475	0	0	0	
0.258667	-0.0252791	0.011968	0.000926533	0.000408856	0	0	0	
0.258833	0.0452258	-0.0278163	0.000710804	0.000295284	0	0	0	
0.259	-0.0655838	0.0426089	0.000827728	0.000419829	0	0	0	
0.259167	0.0613339	-0.042314	0.00106134	0.000589932	0	0	0	
0.259333	-0.0524132	0.0273506	0.00128843	0.000708417	0	0	0	
0.2595	0.0327259	-0.0116821	0.00120217	0.000620513	0	0	0	
0.259667	-0.0285871	0.00877969	0.000985724	0.000443568	0	0	0	
0.259833	0.0345801	-0.0177113	0.000747134	0.000306297	0	0	0	
0.26	-0.0533608	0.0313923	0.000721298	0.00032308	0	0	0	
0.260167	0.0546489	-0.0402529	0.000830997	0.000464553	0	0	0	
0.260333	-0.059505	0.0430195	0.00104963	0.000639232	0	0	0	
0.2605	0.0449639	-0.0324493	0.00117189	0.000759144	0	0	0	
0.260667	-0.0260527	0.0179234	0.00109631	0.00068758	0	0	0	
0.260833	0.0252984	-0.0127038	0.000858135	0.000514748	0	0	0	
0.261	-0.0430352	0.0266118	0.000644068	0.00035763	0	0	0	
0.261167	0.0663809	-0.0402412	0.000763551	0.000443351	0	0	0	
0.261333	-0.0707015	0.044032	0.00106318	0.000607088	0	0	0	
0.2615	0.0568147	-0.0371165	0.00134696	0.000748281	0	0	0	
0.261667	-0.0307025	0.0173344	0.00129206	0.000684561	0	0	0	
0.261833	0.0246693	-0.0091471	0.00101179	0.000514636	0	0	0	
0.262	-0.0305998	0.0126898	0.000705507	0.00032238	0	0	0	
0.262167	0.0474182	-0.0289292	0.000637114	0.000275204	0	0	0	
0.262333	-0.0530031	0.0336731	0.000766934	0.000381557	0	0	0	
0.2625	0.0650728	-0.0361243	0.00101736	0.000537679	0	0	0	
0.262667	-0.0562522	0.0282208	0.00122125	0.000646323	0	0	0	
0.262833	0.0332163	-0.0160855	0.00120602	0.000583938	0	0	0	
0.263	-0.0290836	0.0142986	0.000997501	0.000449538	0	0	0	
0.263167	0.0469024	-0.0307983	0.000783868	0.000351633	0	0	0	
0.263333	-0.0742219	0.0446659	0.000910342	0.000467554	0	0	0	
0.2635	0.0732372	-0.0467307	0.00122395	0.000670158	0	0	0	
0.263667	-0.0584462	0.0345888	0.00147255	0.000802969	0	0	0	
0.263833	0.0318464	-0.0158657	0.00137072	0.000717505	0	0	0	
0.264	-0.0268113	0.0112027	0.00103324	0.00050084	0	0	0	
0.264167	0.0392339	-0.0207054	0.000752317	0.0003414	0	0	0	
0.264333	-0.0669292	0.0493056	0.000751553	0.000404703	0	0	0	
0.2645	0.0621459	-0.0588779	0.00100636	0.000693562	0	0	0	
0.264667	-0.0678692	0.0482105	0.00123002	0.000908989	0	0	0	
0.264833	0.0574695	-0.0365155	0.00134394	0.000966731	0	0	0	
0.265	-0.0316523	0.0183021	0.0011981	0.000763066	0	0	0	
0.265167	0.0195957	-0.00153439	0.000991187	0.000573765	0	0	0	
0.265333	-0.0245194	-0.0128017	0.00070671	0.000360978	0	0	0	
0.2655	0.0573824	-0.00633858	0.00070753	0.000348846	0	0	0	
0.265667	-0.0867117	0.0354248	0.000939918	0.000561834	0	0	0	
0.265833	0.0571052	-0.0311899	0.00126633	0.000903499	0	0	0	
0.266	-0.0137733	0.0122983	0.00134765	0.00101492	0	0	0	
0.266167	0.0107504	-0.0220425	0.00102272	0.000803446	0	0	0	
0.266333	-0.043263	0.0181539	0.000690131	0.000503482	0	0	0	
0.2665	0.0815915	-0.0135663	0.000721864	0.000422961	0	0	0	
0.266667	-0.0393106	0.00567224	0.00104043	0.000460758	0	0	0	
0.266833	0.0315707	0.00523425	0.00118331	0.000426682	0	0	0	
0.267	-0.0636364	-0.000244639	0.00109906	0.00032719	0	0	0	
0.267167	0.0470838	-0.0075297	0.00102343	0.000250876	0	0	0	
0.267333	-0.019298	0.00388673	0.00103304	0.000226957	0	0	0	
0.2675	0.0229198	-0.00886019	0.000903906	0.000188054	0	0	0	
0.267667	-0.0519638	0.039098	0.000765849	0.000259921	0	0	0	
0.267833	0.0895795	-0.0522028	0.00090263	0.000511589	0	0	0	
0.268	-0.0693003	0.044474	0.0012733	0.000774476	0	0	0	
0.268167	0.028424	-0.0214196	0.00146266	0.000821318	0	0	0	
0.268333	-0.0227338	0.0134258	0.00119328	0.000624557	0	0	0	
0.2685	0.0419644	-0.0154726	0.000820402	0.000410495	0	0	0	
0.268667	-0.066933	0.0307974	0.000729282	0.000345944	0	0	0	
0.268833	0.0463465	-0.0372976	0.000976029	0.000459977	0	0	0	
0.269	-0.0448845	0.0434782	0.00110492	0.000637449	0	0	0	
0.269167	0.0567495	-0.0381241	0.00111761	0.000747962	0	0	0	
0.269333	-0.0420674	0.0171011	0.00100821	0.000688381	0	0	0	
0.2695	0.0327294	-0.0121214	0.0009281	0.000513164	0	0	0	
0.269667	-0.0337208	0.0232582	0.000811994	0.000365086	0	0	0	
0.269833	0.0497024	-0.0388014	0.000798513	0.000395797	0	0	0	
0.27	-0.060708	0.0415975	0.000913757	0.000571644	0	0	0	
0.270167	0.0607631	-0.0329769	0.00109665	0.000698888	0	0	0	
0.270333	-0.0413484	0.0188532	0.00116464	0.000673625	0	0	0	
0.2705	0.0276819	-0.0148233	0.00102826	0.000500661	0	0	0	
0.270667	-0.0288225	0.0175459	0.00080876	0.000363544	0	0	0	
0.270833	0.0540844	-0.0396084	0.000708008	0.000357106	0	0	0	
0.271	-0.0537951	0.0471967	0.000871468	0.000544487	0	0	0	
0.271167	0.0512674	-0.0362637	0.00105744	0.00070749	0	0	0	
0.271333	-0.0444468	0.0187719	0.00117636	0.000740907	0	0	0	
0.2715	0.0261639	-0.0051881	0.00103994	0.000536212	0	0	0	
0.271667	-0.0251984	0.0083576	0.000835529	0.000323845	0	0	0	
0.271833	0.0374779	-0.025033	0.000641842	0.000254635	0	0	0	
0.272	-0.0571336	0.0505632	0.0007086	0.000425069	0	0	0	
0.272167	0.071119	-0.0515004	0.000919769	0.000697332	0	0	0	
0.272333	-0.0628296	0.0333562	0.0012109	0.000842363	0	0	0	
0.2725	0.0338668	-0.0131697	0.00128145	0.000753363	0	0	0	
0.272667	-0.0218774	0.00743708	0.00111357	0.000505385	0	0	0	
0.272833	0.0328589	-0.0114271	0.000807464	0.000292572	0	0	0	
0.273	-0.0602593	0.0392026	0.000730452	0.000274032	0	0	0	
0.273167	0.0591753	-0.0488721	0.000948716	0.000508052	0	0	0	
0.273333	-0.0570455	0.0431409	0.00115154	0.000722957	0	0	0	
0.2735	0.058506	-0.0279302	0.0012387	0.000825317	0	0	0	
0.273667	-0.0353288	0.00736643	0.0011142	0.000638242	0	0	0	
0.273833	0.0256114	-0.00704384	0.00094818	0.000416435	0	0	0	
0.274	-0.0370981	0.0201009	0.000750531	0.000265232	0	0	0	
0.274167	0.0583693	-0.0371218	0.000760366	0.000345696	0	0	0	
0.274333	-0.0621869	0.0478486	0.000922306	0.000550288	0	0	0	
0.2745	0.0543285	-0.041871	0.00115489	0.000735018	0	0	0	
0.274667	-0.0326651	0.0205717	0.00117794	0.000738754	0	0	0	
0.274833	0.0251344	-0.0115015	0.000997067	0.000585142	0	0	0	
0.275	-0.03738	0.00702267	0.000758145	0.000374033	0	0	0	
0.275167	0.0670832	-0.020309	0.000731277	0.000267628	0	0	0	
0.275333	-0.104496	0.011838	0.00118046	0.000499188	0	0	0	
0.2755	0.0424517	-0.0081095	0.00147087	0.00077275	0	0	0	
0.275667	-0.0161487	0.00758707	0.00133988	0.000866783	0	0	0	
0.275833	0.0225874	-0.0158275	0.000818139	0.00059704	0	0	0	
0.276	-0.0386691	0.0106491	0.000515453	0.000344823	0	0	0	
0.276167	0.0602807	-0.0192061	0.000615163	0.000242705	0	0	0	
0.276333	-0.0973275	0.0156081	0.00100844	0.000369024	0	0	0	
0.2765	0.0350746	0.00618596	0.00122402	0.000427122	0	0	0	
0.276667	-0.0197436	0.00495853	0.00126301	0.000497603	0	0	0	
0.276833	0.0158546	-0.00833483	0.00110927	0.000409014	0	0	0	
0.277	-0.012197	0.00555008	0.000873798	0.000312621	0	0	0	
0.277167	0.0291608	-0.00838552	0.000679261	0.000205746	0	0	0	
0.277333	-0.0571453	0.0227812	0.000559481	0.000269274	0	0	0	
0.2775	0.0639304	-0.0428943	0.000803919	0.000476733	0	0	0	
0.277667	-0.0515416	0.0593861	0.00107454	0.000741687	0	0	0	
0.277833	0.0421177	-0.0444046	0.00127763	0.000900577	0	0	0	
0.278	-0.0215862	0.0154467	0.00119255	0.000898348	0	0	0	
0.278167	0.0185197	-0.000919747	0.000947493	0.000681544	0	0	0	
0.278333	-0.0340858	0.00937546	0.000661116	0.000427075	0	0	0	
0.2785	0.0582632	-0.0325392	0.000625267	0.000336764	0	0	0	
0.278667	-0.0714598	0.0512888	0.000870413	0.000508609	0	0	0	
0.278833	0.0779241	-0.0515612	0.00125243	0.000781331	0	0	0	
0.279	-0.0551231	0.0293943	0.00144262	0.000933406	0	0	0	
0.279167	0.0303839	-0.0175957	0.00132079	0.000792615	0	0	0	
0.279333	-0.0248765	0.0128612	0.000976493	0.000544496	0	0	0	
0.2795	0.046612	-0.0270382	0.000731176	0.000327691	0	0	0	
0.279667	-0.0641023	0.0377956	0.000852248	0.000417814	0	0	0	
0.279833	0.0637554	-0.0391945	0.00110689	0.000577123	0	0	0	
0.28	-0.0458409	0.0265927	0.00127887	0.000692762	0	0	0	
0.280167	0.0215648	-0.0125005	0.00116183	0.000603937	0	0	0	
0.280333	-0.0135027	0.00709567	0.000859042	0.000420802	0	0	0	
0.2805	0.0232854	-0.0123417	0.000582624	0.000266654	0	0	0	
0.280667	-0.0363021	0.036062	0.000481709	0.00028914	0	0	0	
0.280833	0.0514239	-0.036217	0.000595057	0.000452033	0	0	0	
0.281	-0.0626701	0.0470371	0.000854712	0.000651163	0	0	0	
0.281167	0.0543747	-0.0285597	0.0011151	0.000779602	0	0	0	
0.281333	-0.0227315	0.0137586	0.00111918	0.000671336	0	0	0	
0.2815	0.0222808	-0.00747646	0.000911671	0.000475693	0	0	0	
0.281667	-0.0513539	0.0293923	0.00067976	0.000309049	0	0	0	
0.281833	0.0870578	-0.0344769	0.000833641	0.000425678	0	0	0	
0.282	-0.0762458	0.0374868	0.00121251	0.000567795	0	0	0	
0.282167	0.0459825	-0.00829021	0.00155694	0.000637339	0	0	0	
0.282333	-0.0089681	-0.00219083	0.00141011	0.000438171	0	0	0	
0.2825	0.0162177	-0.00587882	0.000970945	0.000297102	0	0	0	
0.282667	-0.0223525	0.0144993	0.00054964	0.000178336	0	0	0	
0.282833	0.0272606	-0.0239099	0.000418043	0.000266496	0	0	0	
0.283	-0.0459524	0.0323162	0.000515498	0.000376382	0	0	0	
0.283167	0.0767037	-0.0358852	0.000776338	0.00049699	0	0	0	
0.283333	-0.0759974	0.0298447	0.0011449	0.000606364	0	0	0	
0.2835	0.0393537	-0.0164923	0.00131019	0.000565952	0	0	0	
0.283667	-0.0237794	0.0116216	0.0011462	0.000467348	0	0	0	
0.283833	0.0479394	-0.0243788	0.000841792	0.000362346	0	0	0	
0.284	-0.0850644	0.0441795	0.000870543	0.000470779	0	0	0	
0.284167	0.0685476	-0.0497312	0.00114329	0.00064057	0	0	0	
0.284333	-0.043247	0.0328502	0.00141919	0.000804716	0	0	0	
0.2845	0.0191408	-0.00871437	0.0012899	0.000696278	0	0	0	
0.284667	-0.022759	0.00896716	0.000920781	0.000500824	0	0	0	
0.284833	0.0369169	-0.0211963	0.000613657	0.00030716	0	0	0	
0.285	-0.0541079	0.0363688	0.000619488	0.000356876	0	0	0	
0.285167	0.0497202	-0.0361017	0.000825064	0.000524443	0	0	0	
0.285333	-0.0572055	0.0379741	0.00105476	0.000639688	0	0	0	
0.2855	0.0522944	-0.0281184	0.00119425	0.000708628	0	0	0	
0.285667	-0.0293448	0.0130616	0.00114286	0.000598974	0	0	0	
0.285833	0.0335394	-0.0236614	0.000936235	0.000511423	0	0	0	
0.286	-0.0771034	0.0572171	0.000800639	0.000473552	0	0	0	
0.286167	0.0877773	-0.116695	0.00127553	0.000796161	0	0	0	
0.286333	0.0200438	-0.0543218	0.00167667	0.00145662	0	0	0	
0.2865	0.0380033	0.00685351	0.00207391	0.0015682	0	0	0	
0.286667	-0.0618389	0.00142977	0.00182214	0.00125562	0	0	0	
0.286833	0.0879967	-0.0394346	0.00180398	0.000680374	0	0	0	
0.287	-0.0956988	0.0349293	0.00188573	0.00063659	0	0	0	
0.287167	0.110034	-0.0433555	0.00226536	0.000876317	0	0	0	
0.287333	-0.087123	0.04345	0.00234574	0.00097546	0	0	0	
0.2875	0.0739932	-0.038265	0.00210286	0.00102181	0	0	0	
0.287667	-0.0877852	0.0495433	0.00171781	0.000932632	0	0	0	
0.287833	0.094325	-0.0607669	0.00165519	0.00100542	0	0	0	
0.288	-0.0943295	0.054251	0.00173341	0.000986515	0	0	0	
0.288167	0.0675276	-0.0447501	0.00172004	0.00104706	0	0	0	
0.288333	-0.057734	0.0393807	0.00156121	0.000929493	0	0	0	
0.2885	0.0661386	-0.0318984	0.00139737	0.000827699	0	0	0	
0.288667	-0.0733683	0.0413696	0.0013832	0.000718424	0	0	0	
0.288833	0.0702411	-0.0475519	0.00140519	0.000742512	0	0	0	
0.289	-0.0819868	0.0515691	0.00145658	0.000828725	0	0	0	
0.289167	0.0908613	-0.061953	0.00158113	0.000963676	0	0	0	
0.289333	-0.0770083	0.0579889	0.00170435	0.00106438	0	0	0	
0.2895	0.0582199	-0.0448477	0.00165023	0.00107777	0	0	0	
0.289667	-0.05825	0.031789	0.00144407	0.00094198	0	0	0	
0.289833	0.0616467	-0.0306897	0.00124761	0.000750966	0	0	0	
0.29	-0.0685863	0.0316059	0.00123449	0.000642889	0	0	0	
0.290167	0.0733409	-0.0378222	0.00129196	0.000653622	0	0	0	
0.290333	-0.0838755	0.0459964	0.00141644	0.000759948	0	0	0	
0.2905	0.0759802	-0.0536674	0.00147676	0.00091054	0	0	0	
0.290667	-0.0643548	0.0493178	0.00149978	0.000964957	0	0	0	
0.290833	0.0534641	-0.0392832	0.00140973	0.000937625	0	0	0	
0.291	-0.0442238	0.0312811	0.00133841	0.000814034	0	0	0	
0.291167	0.0397725	-0.031236	0.00120332	0.000735247	0	0	0	
0.291333	-0.0595255	0.0291774	0.00115965	0.000638701	0	0	0	
0.2915	0.058715	-0.0353543	0.00111123	0.000635012	0	0	0	
0.291667	-0.0663059	0.034574	0.00118398	0.000617971	0	0	0	
0.291833	0.0621067	-0.0380803	0.00122005	0.000660435	0	0	0	
0.292	-0.0625918	0.0370799	0.00130844	0.000664017	0	0	0	
0.292167	0.0655321	-0.0349683	0.00135435	0.000701582	0	0	0	
0.292333	-0.0754701	0.0420507	0.00145745	0.000713589	0	0	0	
0.2925	0.067829	-0.0529659	0.00146775	0.000799647	0	0	0	
0.292667	-0.0690664	0.0430543	0.00145773	0.000864818	0	0	0	
0.292833	0.0655627	-0.0381521	0.00138612	0.000867765	0	0	0	
0.293	-0.0684274	0.0368551	0.00137384	0.000790306	0	0	0	
0.293167	0.0724894	-0.0402188	0.0014326	0.000725288	0	0	0	
0.293333	-0.0692419	0.0419291	0.00149604	0.000745019	0	0	0	
0.2935	0.0622955	-0.0423317	0.00149937	0.000769624	0	0	0	
0.293667	-0.0586149	0.0366433	0.00142089	0.000788392	0	0	0	
0.293833	0.0630797	-0.0405604	0.0013371	0.000760028	0	0	0	
0.294	-0.0672055	0.0425609	0.00133692	0.00074923	0	0	0	
0.294167	0.0681803	-0.0446716	0.00137199	0.000770649	0	0	0	
0.294333	-0.0605516	0.0349759	0.00139289	0.000787766	0	0	0	
0.2945	0.058684	-0.0371361	0.00136372	0.000756036	0	0	0	
0.294667	-0.0693114	0.030119	0.00135773	0.000710733	0	0	0	
0.294833	0.0868317	-0.0522619	0.00142618	0.000726839	0	0	0	
0.295	-0.0818681	0.0623449	0.00164914	0.000829812	0	0	0	
0.295167	0.0546959	-0.0618077	0.00183333	0.00102455	0	0	0	
0.295333	-0.0395882	0.0452588	0.00176042	0.00110861	0	0	0	
0.2955	0.0610898	-0.0324125	0.00146818	0.00101889	0	0	0	
0.295667	-0.0716709	0.0324727	0.00126241	0.000817165	0	0	0	
0.295833	0.0677651	-0.0349144	0.00127545	0.00067432	0	0	0	
0.296	-0.0837552	0.0510681	0.00139239	0.000720529	0	0	0	
0.296167	0.10439	-0.064325	0.00153946	0.000927389	0	0	0	
0.296333	-0.0915345	0.0585245	0.0017347	0.00109208	0	0	0	
0.2965	0.0622323	-0.0393772	0.0018533	0.00111407	0	0	0	
0.296667	-0.0440288	0.0350972	0.00172056	0.000939372	0	0	0	
0.296833	0.0494026	-0.0214239	0.00143661	0.000743545	0	0	0	
0.297	-0.0650736	0.0323426	0.00123562	0.000635965	0	0	0	
0.297167	0.0718233	-0.036129	0.00128096	0.000597698	0	0	0	
0.297333	-0.0652618	0.0489873	0.00141619	0.000679269	0	0	0	
0.2975	0.0545838	-0.0481636	0.00148436	0.000798805	0	0	0	
0.297667	-0.0543958	0.0521009	0.00138044	0.000888054	0	0	0	
0.297833	0.0523981	-0.0525311	0.0012279	0.000958043	0	0	0	
0.298	-0.0614788	0.0380008	0.00117386	0.000887197	0	0	0	
0.298167	0.0608131	-0.0453609	0.00125757	0.000850438	0	0	0	
0.298333	-0.0628652	0.0461691	0.00133769	0.000823978	0	0	0	
0.2985	0.0839829	-0.037796	0.00141776	0.00085698	0	0	0	
0.298667	-0.0980479	0.0395373	0.00153274	0.000813579	0	0	0	
0.298833	0.0760951	-0.0363108	0.0016778	0.000788721	0	0	0	
0.299	-0.0748817	0.0242048	0.0017432	0.000695996	0	0	0	
0.299167	0.070009	-0.045241	0.0017019	0.000736725	0	0	0	
0.299333	-0.0442711	0.0339987	0.00159582	0.000676886	0	0	0	
0.2995	0.0500407	-0.0440952	0.00143082	0.000684541	0	0	0	
0.299667	-0.0872102	0.0580013	0.00132446	0.000829431	0	0	0	
0.299833	0.0889487	-0.058971	0.00143073	0.000996042	0	0	0	
0.3	-0.0805544	0.0138514	0.00155167	0.00106092	0	0	0	
0.300167	0.0907521	-0.0388358	0.00171704	0.000903837	0	0	0	
0.300333	-0.0881766	0.0450923	0.00174482	0.000862631	0	0	0	
0.3005	0.0665817	-0.0457779	0.00175129	0.000875243	0	0	0	
0.300667	-0.0561663	0.0583229	0.00156464	0.00104638	0	0	0	
0.300833	0.0682284	-0.0444341	0.00139218	0.000959357	0	0	0	
0.301	-0.0839077	0.0214526	0.00132185	0.000943273	0	0	0	
0.301167	0.0893369	-0.0568967	0.00150144	0.000687974	0	0	0	
0.301333	-0.0596748	0.0513387	0.00158758	0.000871111	0	0	0	
0.3015	0.0375919	-0.0225043	0.00144109	0.000828196	0	0	0	
0.301667	-0.0557461	0.0291119	0.00117693	0.000813023	0	0	0	
0.301833	0.0746208	-0.0421951	0.00111946	0.000599489	0	0	0	
0.302	-0.0765502	0.0396175	0.00130497	0.000653233	0	0	0	
0.302167	0.0807316	-0.0372027	0.00147317	0.000765695	0	0	0	
0.302333	-0.0709273	0.0300149	0.00157155	0.000806319	0	0	0	
0.3025	0.0545109	-0.0335364	0.00152375	0.00075674	0	0	0	
0.302667	-0.0622155	0.0295535	0.00141997	0.000683163	0	0	0	
0.302833	0.0685464	-0.0306155	0.00131137	0.000605551	0	0	0	
0.303	-0.0630844	0.0189746	0.00131973	0.000554387	0	0	0	
0.303167	0.0634389	-0.0268987	0.00137272	0.000492756	0	0	0	
0.303333	-0.0533378	0.0179147	0.00140813	0.000455334	0	0	0	
0.3035	0.0318842	-0.00639213	0.00139357	0.000504832	0	0	0	
0.303667	-0.0129674	0.0139731	0.00118534	0.000742679	0	0	0	
0.303833	0.0157347	-0.0218036	0.000814644	0.000856804	0	0	0	
0.304	-0.0346938	0.0203155	0.000549106	0.000793271	0	0	0	
0.304167	0.0700813	-0.0327674	0.000634347	0.000576052	0	0	0	
0.304333	-0.0977392	0.0395031	0.0010337	0.000516883	0	0	0	
0.3045	0.0934862	-0.0694109	0.00149605	0.000737366	0	0	0	
0.304667	-0.0541296	0.0878929	0.00187212	0.00114957	0	0	0	
0.304833	0.0274709	-0.0658426	0.00202338	0.00149791	0	0	0	
0.305	-0.025278	0.0294416	0.00184988	0.00144807	0	0	0	
0.305167	0.0404643	-0.0290723	0.0014605	0.00110142	0	0	0	
0.305333	-0.0555562	0.0353847	0.00113583	0.000745221	0	0	0	
0.3055	0.0677961	-0.0383069	0.0010995	0.000666194	0	0	0	
0.305667	-0.0683326	0.0365431	0.00127796	0.000661526	0	0	0	
0.305833	0.0566368	-0.0364644	0.00140902	0.000689841	0	0	0	
0.306	-0.0463327	0.0346651	0.00139378	0.000666105	0	0	0	
0.306167	0.0510704	-0.0368271	0.00126655	0.000673871	0	0	0	
0.306333	-0.0630497	0.0389181	0.00118581	0.000673369	0	0	0	
0.3065	0.0814608	-0.0428218	0.00125893	0.000723963	0	0	0	
0.306667	-0.0830488	0.0488862	0.00143994	0.000783783	0	0	0	
0.306833	0.0679724	-0.0426264	0.00158157	0.000837701	0	0	0	
0.307	-0.0591958	0.0365406	0.00158489	0.000825837	0	0	0	
0.307167	0.0573582	-0.0343016	0.00144524	0.000746735	0	0	0	
0.307333	-0.0626309	0.0437554	0.00131749	0.00071799	0	0	0	
0.3075	0.0722328	-0.0397764	0.0012853	0.00073031	0	0	0	
0.307667	-0.0744002	0.0409824	0.00136326	0.000775468	0	0	0	
0.307833	0.0695415	-0.0412998	0.00147289	0.000781648	0	0	0	
0.308	-0.054281	0.0377525	0.00150188	0.000768982	0	0	0	
0.308167	0.0498017	-0.0320925	0.00140362	0.000721733	0	0	0	
0.308333	-0.0627611	0.0414263	0.00129284	0.00070103	0	0	0	
0.3085	0.0698439	-0.0493642	0.00126657	0.000738507	0	0	0	
0.308667	-0.0667929	0.0507688	0.00134218	0.00085675	0	0	0	
0.308833	0.0717502	-0.0392145	0.00139758	0.000907834	0	0	0	
0.309	-0.0699693	0.0328112	0.00142441	0.000839166	0	0	0	
0.309167	0.0647761	-0.0360733	0.00142266	0.000732053	0	0	0	
0.309333	-0.0594259	0.0398171	0.00140196	0.000683163	0	0	0	
0.3095	0.0646163	-0.0396457	0.0013536	0.000712739	0	0	0	
0.309667	-0.069515	0.0461824	0.00135594	0.000777612	0	0	0	
0.309833	0.0634444	-0.0426633	0.00136378	0.000820441	0	0	0	
0.31	-0.0570258	0.0415048	0.00139096	0.000812684	0	0	0	
0.310167	0.0615047	-0.0406171	0.00137547	0.000803992	0	0	0	
0.310333	-0.0666065	0.0382456	0.00137657	0.000782106	0	0	0	
0.3105	0.0701401	-0.038713	0.0013694	0.000783523	0	0	0	
0.310667	-0.0692633	0.041774	0.00138935	0.00076166	0	0	0	
0.310833	0.0692579	-0.0422332	0.00142938	0.000751862	0	0	0	
0.311	-0.0673276	0.0423212	0.00147733	0.000770827	0	0	0	
0.311167	0.0672141	-0.0415297	0.00147051	0.000795381	0	0	0	
0.311333	-0.069363	0.0398593	0.00145253	0.000797841	0	0	0	
0.3115	0.0669562	-0.0404287	0.00138804	0.000788117	0	0	0	
0.311667	-0.0676511	0.0388695	0.00137336	0.000761004	0	0	0	
0.311833	0.0684753	-0.0452395	0.0013936	0.000760732	0	0	0	
0.312	-0.0550161	0.0391534	0.00140182	0.000774682	0	0	0	
0.312167	0.0514486	-0.0345857	0.00132549	0.000762402	0	0	0	
0.312333	-0.0622193	0.0354009	0.00122724	0.000717696	0	0	0	
0.3125	0.0712962	-0.0462746	0.00122238	0.000719741	0	0	0	
0.312667	-0.0768375	0.04473	0.00133486	0.000780372	0	0	0	
0.312833	0.0765263	-0.0443472	0.00145237	0.000850154	0	0	0	
0.313	-0.0740058	0.0453665	0.00152459	0.000845586	0	0	0	
0.313167	0.0605875	-0.0400978	0.00155998	0.000831836	0	0	0	
0.313333	-0.0428674	0.0269874	0.0015085	0.000780302	0	0	0	
0.3135	0.0520695	-0.0343059	0.00137609	0.00072297	0	0	0	
0.313667	-0.0711089	0.0416224	0.00124556	0.000687156	0	0	0	
0.313833	0.0770718	-0.0444649	0.00127361	0.000727091	0	0	0	
0.314	-0.0658085	0.0394309	0.00139269	0.000781365	0	0	0	
0.314167	0.0600408	-0.0378967	0.00144478	0.000798051	0	0	0	
0.314333	-0.0704936	0.0466938	0.00139002	0.000794798	0	0	0	
0.3145	0.0755513	-0.0538616	0.00138721	0.000837036	0	0	0	
0.314667	-0.0644556	0.0466388	0.00145485	0.000894917	0	0	0	
0.314833	0.0627155	-0.0427566	0.00149973	0.000926287	0	0	0	
0.315	-0.0716256	0.0453482	0.00146278	0.000903065	0	0	0	
0.315167	0.0766379	-0.0442877	0.00145835	0.00085246	0	0	0	
0.315333	-0.0579228	0.0289579	0.00149075	0.000807416	0	0	0	
0.3155	0.0396618	-0.0255097	0.00144384	0.000724926	0	0	0	
0.315667	-0.0486786	0.0340998	0.0012861	0.000648853	0	0	0	
0.315833	0.0611223	-0.0419877	0.0011526	0.000637207	0	0	0	
0.316	-0.0717092	0.0458986	0.00119236	0.000702293	0	0	0	
0.316167	0.0758314	-0.051557	0.00134113	0.00081331	0	0	0	
0.316333	-0.0767207	0.0517939	0.00146417	0.000910769	0	0	0	
0.3165	0.0767546	-0.0555234	0.00152959	0.000969552	0	0	0	
0.316667	-0.0720436	0.0486242	0.00157028	0.000995019	0	0	0	
0.316833	0.0657679	-0.0434989	0.00158985	0.000947906	0	0	0	
0.317	-0.067124	0.0415626	0.00155723	0.000899239	0	0	0	
0.317167	0.0655463	-0.0452763	0.00147376	0.000850177	0	0	0	
0.317333	-0.0616983	0.0398831	0.00139912	0.00083907	0	0	0	
0.3175	0.0552826	-0.0362299	0.0013359	0.000800053	0	0	0	
0.317667	-0.0623232	0.0345901	0.00129021	0.00073841	0	0	0	
0.317833	0.0696943	-0.0386719	0.00128629	0.000684295	0	0	0	
0.318	-0.070016	0.0455429	0.0013482	0.000723267	0	0	0	
0.318167	0.0588798	-0.0423838	0.00138665	0.000792371	0	0	0	
0.318333	-0.0603965	0.0333917	0.00132817	0.000808429	0	0	0	
0.3185	0.072513	-0.0364978	0.00128124	0.000740449	0	0	0	
0.318667	-0.0773202	0.0471995	0.00134643	0.000705224	0	0	0	
0.318833	0.0676233	-0.0463375	0.00148796	0.000777779	0	0	0	
0.319	-0.0647199	0.0350111	0.00154124	0.000855395	0	0	0	
0.319167	0.0627183	-0.028231	0.0014693	0.000794753	0	0	0	
0.319333	-0.0566358	0.0252898	0.00134817	0.000640461	0	0	0	
0.3195	0.0609752	-0.0311132	0.00128599	0.000532276	0	0	0	
0.319667	-0.0641807	0.0431882	0.00127983	0.00058319	0	0	0	
0.319833	0.0721588	-0.0593135	0.0013632	0.000747216	0	0	0	
0.32	-0.0744327	0.0602119	0.00145922	0.000946313	0	0	0	
0.320167	0.0712988	-0.0523244	0.00151759	0.0010468	0	0	0	
0.320333	-0.0620793	0.0428231	0.00148092	0.00103574	0	0	0	
0.3205	0.0618722	-0.0366365	0.00138407	0.00090358	0	0	0	
0.320667	-0.0713653	0.0356475	0.00135467	0.000785069	0	0	0	
0.320833	0.0764065	-0.0398193	0.00140766	0.000718965	0	0	0	
0.321	-0.0677893	0.0393785	0.00148606	0.00074597	0	0	0	
0.321167	0.0554202	-0.036382	0.00145832	0.000768377	0	0	0	
0.321333	-0.0520265	0.0367255	0.00133611	0.000758083	0	0	0	
0.3215	0.0588629	-0.0394313	0.00120996	0.000706683	0	0	0	
0.321667	-0.0763225	0.0469659	0.00123526	0.000724681	0	0	0	
0.321833	0.0806656	-0.0514596	0.00138563	0.000801332	0	0	0	
0.322	-0.0670019	0.0486511	0.00154369	0.000908651	0	0	0	
0.322167	0.0551498	-0.037617	0.00155801	0.000900811	0	0	0	
0.322333	-0.0522146	0.0312835	0.00145103	0.000810804	0	0	0	
0.3225	0.0531632	-0.0332149	0.00129569	0.000682943	0	0	0	
0.322667	-0.0614338	0.0375294	0.0012254	0.000659669	0	0	0	
0.322833	0.0661407	-0.0429868	0.00124123	0.000685648	0	0	0	
0.323	-0.0650217	0.0422781	0.00131178	0.000770801	0	0	0	
0.323167	0.070629	-0.041132	0.00137793	0.000807637	0	0	0	
0.323333	-0.0713716	0.0442405	0.00143526	0.000821057	0	0	0	
0.3235	0.0672572	-0.0448099	0.00145695	0.000810977	0	0	0	
0.323667	-0.0620557	0.0399076	0.00144342	0.000814879	0	0	0	
0.323833	0.0609583	-0.0335484	0.0013817	0.000775514	0	0	0	
0.324	-0.065982	0.0351833	0.00137386	0.000719053	0	0	0	
0.324167	0.0655666	-0.0385172	0.00138366	0.000675198	0	0	0	
0.324333	-0.0589718	0.0347188	0.00138897	0.000677948	0	0	0	
0.3245	0.0564732	-0.0350187	0.00131779	0.00067928	0	0	0	
0.324667	-0.0617086	0.0364606	0.00125538	0.000663957	0	0	0	
0.324833	0.0622569	-0.03757	0.001266	0.000665406	0	0	0	
0.325	-0.0578191	0.0358656	0.00133277	0.000679929	0	0	0	
0.325167	0.058348	-0.0370199	0.00134341	0.00069156	0	0	0	
0.325333	-0.0658606	0.038286	0.0013232	0.000709047	0	0	0	
0.3255	0.0701011	-0.0421474	0.00132499	0.000720698	0	0	0	
0.325667	-0.0753273	0.0445855	0.00140147	0.000764854	0	0	0	
0.325833	0.0688601	-0.0434326	0.001476	0.000806654	0	0	0	
0.326	-0.0602542	0.0387773	0.00147125	0.0008263	0	0	0	
0.326167	0.0567841	-0.0394197	0.00140612	0.000790843	0	0	0	
0.326333	-0.0573004	0.0359467	0.00130378	0.00075343	0	0	0	
0.3265	0.0650998	-0.036999	0.0012586	0.00071651	0	0	0	
0.326667	-0.0682387	0.0411904	0.00127171	0.000725834	0	0	0	
0.326833	0.064375	-0.0451954	0.00133825	0.000755609	0	0	0	
0.327	-0.0646979	0.0447177	0.00137014	0.000819902	0	0	0	
0.327167	0.059423	-0.0328814	0.00135509	0.000807208	0	0	0	
0.327333	-0.0489488	0.0268041	0.00128917	0.000713523	0	0	0	
0.3275	0.0449573	-0.0281092	0.00120626	0.000591555	0	0	0	
0.327667	-0.0545958	0.0289211	0.00111025	0.000538495	0	0	0	
0.327833	0.0687805	-0.0366405	0.00111408	0.00056936	0	0	0	
0.328	-0.0709133	0.0461437	0.00120612	0.000669122	0	0	0	
0.328167	0.0641122	-0.0463373	0.00133859	0.000761126	0	0	0	
0.328333	-0.0629884	0.0415165	0.00140807	0.000833012	0	0	0	
0.3285	0.0601424	-0.0361937	0.00143701	0.000850659	0	0	0	
0.328667	-0.0612755	0.0393504	0.0014147	0.000826032	0	0	0	
0.328833	0.0598998	-0.0386763	0.00141571	0.000801479	0	0	0	
0.329	-0.05292	0.0314723	0.0014019	0.00076291	0	0	0	
0.329167	0.0571728	-0.037264	0.00136928	0.000747316	0	0	0	
0.329333	-0.0734759	0.0461747	0.00132686	0.000762745	0	0	0	
0.3295	0.0756712	-0.0514127	0.00135731	0.000826913	0	0	0	
0.329667	-0.0604695	0.043741	0.00141571	0.000884934	0	0	0	
0.329833	0.0608942	-0.0391769	0.00141974	0.000870058	0	0	0	
0.33	-0.0720509	0.0393075	0.0013464	0.000800582	0	0	0	
0.330167	0.0753706	-0.0435404	0.00136563	0.000777783	0	0	0	
0.330333	-0.0636519	0.0369304	0.00142884	0.000762964	0	0	0	
0.3305	0.0590275	-0.0364029	0.00145453	0.000752037	0	0	0	
0.330667	-0.0686448	0.0376583	0.00139358	0.000722968	0	0	0	
0.330833	0.0723932	-0.0414221	0.00136132	0.000727588	0	0	0	
0.331	-0.0579474	0.0391002	0.00138647	0.000734475	0	0	0	
0.331167	0.050917	-0.0342182	0.00138675	0.000729636	0	0	0	
0.331333	-0.0617488	0.0331197	0.00130524	0.000690239	0	0	0	
0.3315	0.0695469	-0.0438609	0.00128167	0.00068721	0	0	0	
0.331667	-0.0624589	0.0479635	0.00132345	0.000752466	0	0	0	
0.331833	0.0557814	-0.0381075	0.00137205	0.000802559	0	0	0	
