0	0.00190467	-3.53389E-05	1.90467E-07	3.53389E-09	0	5	0	
0.000166667	-0.0204864	0.000688667	0.000149975	5.42042E-06	0	5	0	
0.000333333	0.0133793	-0.0012036	0.000317644	1.10613E-05	0	5	0	
0.0005	0.0247017	0.00036038	0.000425008	1.92623E-05	0	5	0	
0.000666667	-0.0359261	3.83368E-05	0.000497546	2.28567E-05	0	5	0	
0.000833333	0.0220561	-0.000222025	0.000531745	2.13204E-05	0	5	0	
0.001	-0.0164286	0.00260756	0.000560939	2.3192E-05	0	5	0	
0.00116667	0.0157649	-0.0028884	0.000488281	3.5362E-05	0	5	0	
0.00133333	-0.0150144	0.00217376	0.000413085	4.82098E-05	0	5	0	
0.0015	0.0321939	-0.00145241	0.000428819	4.86382E-05	0	5	0	
0.00166667	-0.0388981	0.000877672	0.000574563	3.64592E-05	0	5	0	
0.00183333	0.0256628	-0.000637106	0.00071195	2.96287E-05	0	5	0	
0.002	-0.00736371	0.00227488	0.000680811	2.86506E-05	0	5	0	
0.00216667	-0.013381	-0.00180453	0.00044312	4.0497E-05	0	5	0	
0.00233333	0.0291644	0.000675555	0.000349127	5.04544E-05	0	5	0	
0.0025	-0.0208707	-0.000933231	0.000458517	5.97955E-05	0	5	0	
0.00266667	-0.00188824	0.00161011	0.000590073	5.6532E-05	0	5	0	
0.00283333	0.0117703	-0.00122799	0.000493801	5.03097E-05	0	5	0	
0.003	-0.00669258	0.00132654	0.000354923	3.81776E-05	0	5	0	
0.00316667	0.000443581	-0.0012972	0.000261708	2.98684E-05	0	5	0	
0.00333333	-0.00244275	-0.00028853	0.000217147	2.44726E-05	0	5	0	
0.0035	0.00360597	0.000707888	0.000149066	2.4847E-05	0	5	0	
0.00366667	-0.00106237	0.000559526	8.98032E-05	2.04213E-05	0	5	0	
0.00383333	0.00655319	-0.000847501	9.19648E-05	1.63353E-05	0	5	0	
0.004	-0.0146966	0.00203085	0.000146499	2.23072E-05	0	5	0	
0.00416667	0.0125065	-0.00219845	0.000198718	3.4791E-05	0	5	0	
0.00433333	-0.00181989	0.00169422	0.000214066	4.69569E-05	0	5	0	
0.0045	-0.00442548	-0.000761564	0.000164769	4.52664E-05	0	5	0	
0.00466667	0.00468724	0.000496819	0.000111365	3.66239E-05	0	5	0	
0.00483333	-0.00407646	-0.000110412	0.0001069	2.26237E-05	0	5	0	
0.005	0.00335921	0.00061272	0.000117445	1.43357E-05	0	5	0	
0.00516667	-0.00110404	-0.00114722	0.000104031	1.26658E-05	0	5	0	
0.00533333	-0.000309883	0.000836106	7.61781E-05	1.73567E-05	0	5	0	
0.0055	-0.00109945	-0.000134637	7.17793E-05	1.8904E-05	0	5	0	
0.00566667	0.00209196	-0.000544322	0.000101624	1.60491E-05	0	5	0	
0.00583333	-0.0029949	0.00112397	0.000131055	1.65114E-05	0	5	0	
0.006	0.000103868	-0.00103344	0.000131872	2.15486E-05	0	5	0	
0.00616667	0.0021472	0.000542788	0.000123544	2.56117E-05	0	5	0	
0.00633333	-0.000962686	1.73228E-05	0.000131884	1.96543E-05	0	5	0	
0.0065	-0.0002968	0.000544015	0.000147351	1.80511E-05	0	5	0	
0.00666667	0.00427026	-0.00152475	0.000150216	2.19166E-05	0	5	0	
0.00683333	-0.0039949	0.00150864	0.00013199	3.15343E-05	0	5	0	
0.007	-0.00223744	-0.000809057	9.30617E-05	3.18337E-05	0	5	0	
0.00716667	0.00481055	0.00060247	7.12714E-05	2.82119E-05	0	5	0	
0.00733333	-0.00162283	-0.000301125	8.30679E-05	2.70828E-05	0	5	0	
0.0075	-0.00279975	0.00157635	0.000125095	3.09173E-05	0	5	0	
0.00766667	0.00383477	-0.00271224	0.000145845	3.89037E-05	0	5	0	
0.00783333	-0.0033197	0.00290741	0.000152123	4.8779E-05	0	5	0	
0.008	0.00302569	-0.00219773	0.000146058	5.3196E-05	0	5	0	
0.00816667	-0.000182889	0.000929172	0.000125688	4.4508E-05	0	5	0	
0.00833333	-0.000578198	-0.000695702	9.1444E-05	3.43833E-05	0	5	0	
0.0085	-0.00169825	0.000997007	8.18202E-05	2.8337E-05	0	5	0	
0.00866667	0.0025611	-0.000384189	9.70861E-05	2.61138E-05	0	5	0	
0.00883333	0.000788043	0.000670093	0.000105641	2.18102E-05	0	5	0	
0.009	-0.00203039	-0.000213105	9.66311E-05	1.66957E-05	0	5	0	
0.00916667	-0.00204846	8.702E-05	9.83647E-05	1.59214E-05	0	5	0	
0.00933333	0.00580969	0.000103704	0.000110289	2.75012E-05	0	5	0	
0.0095	-0.00727777	-0.00023118	0.00012318	4.38418E-05	0	5	0	
0.00966667	0.00614526	0.000342056	0.000128612	5.54414E-05	0	5	0	
0.00983333	-0.00419784	-0.000662927	0.000125218	4.56775E-05	0	5	0	
0.01	0.00339045	0.0005972	0.000102997	2.86787E-05	0	5	0	
0.0101667	-0.00394471	0.000232728	8.11166E-05	2.06909E-05	0	5	0	
0.0103333	0.00321041	-0.0010003	7.46137E-05	2.80256E-05	0	5	0	
0.0105	-0.00502422	0.0015107	9.05819E-05	4.32621E-05	0	5	0	
0.0106667	0.00698399	-0.00171075	0.000134896	5.60419E-05	0	5	0	
0.0108333	-0.00640702	0.00118241	0.00019288	5.74102E-05	0	5	0	
0.011	0.00538204	0.00025203	0.000236281	4.09202E-05	0	5	0	
0.0111667	-0.00516535	-2.08065E-05	0.000235778	2.46957E-05	0	5	0	
0.0113333	0.00534846	-0.00115743	0.000205908	1.54622E-05	0	5	0	
0.0115	-0.00451755	0.00141803	0.000167917	2.10194E-05	0	5	0	
0.0116667	0.00124783	-0.00181538	0.000130983	2.82046E-05	0	5	0	
0.0118333	0.00129065	0.00105834	0.000108885	3.19309E-05	0	5	0	
0.012	-0.00399956	4.76188E-06	0.000111973	2.56567E-05	0	5	0	
0.0121667	0.00640717	-0.000384592	0.000126267	1.69041E-05	0	5	0	
0.0123333	-0.00714804	-0.000334904	0.000140185	1.24216E-05	0	5	0	
0.0125	0.00424585	-0.000517021	0.000138329	1.38085E-05	0	5	0	
0.0126667	-0.000824211	0.000208572	0.00013135	1.38954E-05	0	5	0	
0.0128333	-0.00208324	0.000919102	0.000123028	1.59816E-05	0	5	0	
0.013	0.000916858	-0.00146152	0.00010751	1.94952E-05	0	5	0	
0.0131667	0.0003665	0.00081122	7.07732E-05	2.41839E-05	0	5	0	
0.0133333	-0.00237166	0.000229045	4.50267E-05	2.24217E-05	0	5	0	
0.0135	-0.00157116	-0.000836249	2.81779E-05	1.77997E-05	0	5	0	
0.0136667	0.00372798	-0.000102116	6.10485E-05	1.4976E-05	0	5	0	
0.0138333	0.00374069	0.000577469	9.48275E-05	1.79262E-05	0	5	0	
0.014	-0.00924354	-0.000791938	0.000159524	1.83398E-05	0	5	0	
0.0141667	0.00717447	4.16425E-05	0.000193402	2.02738E-05	0	5	0	
0.0143333	-0.00897367	0.000221073	0.000201787	2.07321E-05	0	5	0	
0.0145	0.0144294	-0.000761369	0.000201718	2.82772E-05	0	5	0	
0.0146667	-0.0145434	0.000721299	0.00022056	3.35562E-05	0	5	0	
0.0148333	0.0111224	-0.00148809	0.000283484	2.8639E-05	0	5	0	
0.015	-0.00849763	0.00103744	0.000307414	2.75697E-05	0	5	0	
0.0151667	0.00640664	0.000441251	0.000276139	2.04087E-05	0	5	0	
0.0153333	-0.00323693	-0.000526846	0.000193777	3.0887E-05	0	5	0	
0.0155	0.0011212	6.85575E-05	0.000128582	3.47496E-05	0	5	0	
0.0156667	-0.00456626	-0.000624769	0.000138456	3.27409E-05	0	5	0	
0.0158333	0.00937633	0.000321202	0.000180994	2.45126E-05	0	5	0	
0.016	-0.0111112	0.000368143	0.000204168	1.2179E-05	0	5	0	
0.0161667	0.00869292	-0.000967691	0.000208568	2.13411E-05	0	5	0	
0.0163333	-0.00389318	0.000583554	0.000210376	2.80145E-05	0	5	0	
0.0165	0.00149897	-0.000809276	0.00022705	3.07473E-05	0	5	0	
0.0166667	3.05981E-05	0.000981239	0.000215094	2.38997E-05	0	5	0	
0.0168333	0.000951365	-0.00179687	0.000181157	1.85546E-05	0	5	0	
0.017	-0.00328024	0.0014998	0.000149743	2.71713E-05	0	5	0	
0.0171667	0.0060372	-0.00122289	0.000138608	3.47706E-05	0	5	0	
0.0173333	-0.00495548	0.000235556	0.000127791	4.02829E-05	0	5	0	
0.0175	0.0073299	-0.00102542	0.00012813	3.85466E-05	0	5	0	
0.0176667	-0.00969488	0.00169862	0.000142875	3.50074E-05	0	5	0	
0.0178333	0.00892257	-0.00131587	0.00018825	3.0774E-05	0	5	0	
0.018	-0.00443149	0.000483332	0.000221084	2.56823E-05	0	5	0	
0.0181667	0.000884969	0.00062836	0.000199119	1.9834E-05	0	5	0	
0.0183333	0.00211756	-0.000827344	0.000150216	1.9357E-05	0	5	0	
0.0185	-0.00509842	0.000524149	0.000138165	2.3579E-05	0	5	0	
0.0186667	0.00555508	0.000324023	0.000157027	2.44257E-05	0	5	0	
0.0188333	0.000478199	-0.0008087	0.00013467	2.32523E-05	0	5	0	
0.019	-0.00674335	0.000945634	0.000110032	1.9106E-05	0	5	0	
0.0191667	0.00512341	-0.000946542	8.27689E-05	2.13306E-05	0	5	0	
0.0193333	-0.00220472	-0.000403167	0.000134348	1.62369E-05	0	5	0	
0.0195	0.00134058	0.0011645	0.000185711	1.7468E-05	0	5	0	
0.0196667	-0.00325907	-0.000694362	0.000256514	2.06548E-05	0	5	0	
0.0198333	-0.000721853	-0.000776928	0.000288539	2.33767E-05	0	5	0	
0.02	0.00435076	0.000338393	0.000257093	2.12394E-05	0	5	0	
0.0201667	-0.00265741	0.000176621	0.000187617	1.35023E-05	0	5	0	
0.0203333	-0.000558779	-0.000211199	0.000112652	1.14325E-05	0	5	0	
0.0205	0.00641017	-0.0001556	8.58228E-05	8.33002E-06	0	5	0	
0.0206667	-0.00974259	0.000768609	0.000106356	9.77866E-06	0	5	0	
0.0208333	0.00821579	-0.000832721	0.000147358	1.35433E-05	0	5	0	
0.021	-0.00456639	0.000424197	0.000155501	1.71114E-05	0	5	0	
0.0211667	0.00231867	0.000119918	0.000129321	2.04416E-05	0	5	0	
0.0213333	-0.00169674	-0.000298938	0.000102866	1.77524E-05	0	5	0	
0.0215	0.00112983	-0.000523854	8.9889E-05	1.62359E-05	0	5	0	
0.0216667	-0.00194731	0.000634224	7.76348E-05	1.3105E-05	0	5	0	
0.0218333	0.00407422	-0.000930348	7.86092E-05	1.4589E-05	0	5	0	
0.022	-0.00373369	0.000480901	8.23077E-05	1.60393E-05	0	5	0	
0.0221667	0.00169651	-0.00118891	8.25364E-05	1.92914E-05	0	5	0	
0.0223333	-6.58272E-05	0.000907032	7.8498E-05	2.09099E-05	0	5	0	
0.0225	-0.001618	-0.00200552	7.38592E-05	2.41723E-05	0	5	0	
0.0226667	0.00252626	0.00178699	6.75591E-05	3.06673E-05	0	5	0	
0.0228333	0.00126258	-0.00184197	5.73246E-05	3.65892E-05	0	5	0	
0.023	-0.00496249	-2.66148E-05	5.19809E-05	3.35024E-05	0	5	0	
0.0231667	0.00491964	-0.000320073	7.61634E-05	2.21167E-05	0	5	0	
0.0233333	0.000435808	-0.000134386	0.000102578	1.25905E-05	0	5	0	
0.0235	-0.00345065	-0.000362681	0.000132821	1.16811E-05	0	5	0	
0.0236667	0.00532845	0.000606329	0.000132084	1.453E-05	0	5	0	
0.0238333	-0.0044899	-0.000994538	0.000114751	1.68959E-05	0	5	0	
0.024	0.000753315	-0.0010188	8.58283E-05	2.09476E-05	0	5	0	
0.0241667	0.00525349	0.000612874	7.67401E-05	2.32558E-05	0	5	0	
0.0243333	-0.00721558	-0.000321475	9.36494E-05	1.92767E-05	0	5	0	
0.0245	0.00646755	8.67486E-05	0.000125659	1.17208E-05	0	5	0	
0.0246667	-0.00218806	8.40617E-07	0.000140354	5.28639E-06	0	5	0	
0.0248333	-0.00395802	-0.000716479	0.000109162	5.85556E-06	0	5	0	
0.025	0.00674445	-0.000331777	9.85112E-05	1.45191E-05	0	5	0	
0.0251667	-0.00299605	0.000530757	0.000104617	2.21647E-05	0	5	0	
0.0253333	0.000595142	-0.000181249	0.000130957	2.48956E-05	0	5	0	
0.0255	-0.000127393	0.00011354	0.000115126	2.55032E-05	0	5	0	
0.0256667	-5.21211E-05	-0.000110007	7.31347E-05	2.71999E-05	0	5	0	
0.0258333	-9.16736E-05	-0.000183309	3.84197E-05	3.11894E-05	0	5	0	
0.026	-0.00105542	-0.000828026	4.57407E-05	2.93253E-05	0	5	0	
0.0261667	0.0024003	0.00147309	9.83065E-05	2.6946E-05	0	5	0	
0.0263333	-0.00484911	-0.000805166	0.000162957	2.43858E-05	0	5	0	
0.0265	0.00491013	-0.000596654	0.000208674	1.82841E-05	0	5	0	
0.0266667	-0.00266185	0.00131011	0.00021923	1.76551E-05	0	5	0	
0.0268333	0.00190017	-0.000206577	0.000187398	1.87374E-05	0	5	0	
0.027	-0.00575109	4.19485E-05	0.000144685	2.11086E-05	0	5	0	
0.0271667	0.00313512	0.000148205	0.000116971	1.52729E-05	0	5	0	
0.0273333	-0.00229054	9.17186E-05	0.000109701	8.09177E-06	0	5	0	
0.0275	0.000192689	0.000505412	9.68516E-05	5.03284E-06	0	5	0	
0.0276667	-0.00105359	-0.00122425	7.14986E-05	9.01904E-06	0	5	0	
0.0278333	0.000412634	0.00119859	4.98177E-05	1.53356E-05	0	5	0	
0.028	-0.00265649	-0.00145383	5.51203E-05	2.29629E-05	0	5	0	
0.0281667	0.00415666	0.000415294	8.60648E-05	2.42802E-05	0	5	0	
0.0283333	-0.00585686	0.000634789	0.00012319	2.0663E-05	0	5	0	
0.0285	0.00374123	-0.000124566	0.000142117	1.57172E-05	0	5	0	
0.0286667	0.00115642	-0.000587372	0.000153564	1.16346E-05	0	5	0	
0.0288333	-0.00422547	0.000378416	0.000153743	1.27835E-05	0	5	0	
0.029	0.00161664	5.57442E-05	0.000138748	1.37066E-05	0	5	0	
0.0291667	0.00192	-0.000399827	9.94565E-05	1.43047E-05	0	5	0	
0.0293333	-0.00555362	0.00159815	8.16523E-05	1.54494E-05	0	5	0	
0.0295	0.00266686	-0.00115075	8.00994E-05	2.27774E-05	0	5	0	
0.0296667	-0.00189389	2.42837E-06	8.04241E-05	2.79666E-05	0	5	0	
0.0298333	0.000425996	-9.16658E-06	6.64051E-05	2.91582E-05	0	5	0	
0.03	0.0032443	0.000591283	8.03713E-05	2.67181E-05	0	5	0	
0.0301667	-0.00621771	-0.000693352	0.000109597	3.0788E-05	0	5	0	
0.0303333	0.00568189	0.00138704	0.000129489	3.45417E-05	0	5	0	
0.0305	-0.00341368	-0.00100719	0.000112945	3.54378E-05	0	5	0	
0.0306667	0.00278007	0.00142628	9.48051E-05	3.24923E-05	0	5	0	
0.0308333	-0.00354703	-0.00105411	8.92204E-05	3.34381E-05	0	5	0	
0.031	-0.000603161	0.00138683	7.9496E-05	3.21493E-05	0	5	0	
0.0311667	0.000909287	-0.000446787	8.93779E-05	3.01634E-05	0	5	0	
0.0313333	0.00107414	0.00151245	0.000113135	2.3954E-05	0	5	0	
0.0315	-0.00203293	-0.00103277	0.000137076	2.50223E-05	0	5	0	
0.0316667	0.00269386	0.000710828	0.000133727	2.39081E-05	0	5	0	
0.0318333	-0.00642994	-6.84431E-05	0.000126709	2.5329E-05	0	5	0	
0.032	0.00559197	-1.33275E-05	0.000150405	2.21124E-05	0	5	0	
0.0321667	-0.000897307	-0.000213525	0.000155848	2.15409E-05	0	5	0	
0.0323333	-0.00320529	0.000530998	0.000129431	1.70542E-05	0	5	0	
0.0325	0.00182086	-0.000541784	8.95084E-05	1.31996E-05	0	5	0	
0.0326667	0.00131236	-0.000576429	8.19409E-05	9.55411E-06	0	5	0	
0.0328333	0.00217217	0.00164251	9.85127E-05	1.56582E-05	0	5	0	
0.033	-0.000842367	-0.00181824	0.000143869	2.32106E-05	0	5	0	
0.0331667	-0.00306106	0.000373071	0.000223874	2.77976E-05	0	5	0	
0.0333333	0.00778014	9.97454E-05	0.000254912	2.35325E-05	0	5	0	
0.0335	-0.0017686	-0.00123955	0.000214718	1.53816E-05	0	5	0	
0.0336667	-0.00580221	0.000134631	0.000159615	1.32919E-05	0	5	0	
0.0338333	0.0107108	0.00162314	0.000138342	1.53262E-05	0	5	0	
0.034	-0.00750918	-0.00191555	0.000198121	2.73315E-05	0	5	0	
0.0341667	0.000272453	0.0020675	0.00024995	3.54869E-05	0	5	0	
0.0343333	0.00548702	-0.00123294	0.000305716	3.78338E-05	0	5	0	
0.0345	-0.00782776	0.000313	0.000283804	2.91403E-05	0	5	0	
0.0346667	0.00649067	-0.0011551	0.000222393	2.04549E-05	0	5	0	
0.0348333	0.000735051	0.00157738	0.000136374	2.23645E-05	0	5	0	
0.035	-0.00719273	-0.00211161	8.83383E-05	2.88955E-05	0	5	0	
0.0351667	0.00932951	0.00168388	0.000109287	3.80244E-05	0	5	0	
0.0353333	-0.00445501	-0.000327028	0.000189745	3.25956E-05	0	5	0	
0.0355	0.000295503	0.000489513	0.000259072	2.21958E-05	0	5	0	
0.0356667	-0.00149508	-0.000212706	0.000231265	1.24379E-05	0	5	0	
0.0358333	0.0101796	-0.000125182	0.000177666	1.09691E-05	0	5	0	
0.036	-0.0125513	0.00055935	0.000161886	1.3285E-05	0	5	0	
0.0361667	0.0120931	-0.000549034	0.000217926	1.60811E-05	0	5	0	
0.0363333	-0.00725696	0.000440799	0.00024305	1.78319E-05	0	5	0	
0.0365	0.00630083	0.000803523	0.00021152	1.83747E-05	0	5	0	
0.0366667	-0.00420676	0.000470576	0.000149844	1.54421E-05	0	5	0	
0.0368333	0.00811729	-0.000232178	0.000116474	1.05802E-05	0	5	0	
0.037	-0.00750808	0.000551023	0.000130554	9.96759E-06	0	5	0	
0.0371667	0.00663484	-0.000301262	0.00013833	1.04956E-05	0	5	0	
0.0373333	-0.0022948	0.000113085	0.000132973	1.2099E-05	0	5	0	
0.0375	-0.000487885	9.45515E-05	8.15895E-05	8.98606E-06	0	5	0	
0.0376667	0.000140057	0.000332117	5.16295E-05	1.22779E-05	0	5	0	
0.0378333	0.00341546	-0.00011875	4.07481E-05	1.54905E-05	0	5	0	
0.038	-0.0033139	0.00126576	5.66683E-05	1.99432E-05	0	5	0	
0.0381667	0.00242344	-0.000602381	7.42994E-05	1.76227E-05	0	5	0	
0.0383333	0.000638652	0.00044661	0.000109394	1.65944E-05	0	5	0	
0.0385	-0.00454962	-0.000206313	0.000138693	1.42334E-05	0	5	0	
0.0386667	0.00536026	-6.09446E-05	0.000151889	1.15215E-05	0	5	0	
0.0388333	-0.000597104	-8.88293E-05	0.000122527	9.95838E-06	0	5	0	
0.039	-0.00510758	-0.000147365	8.62971E-05	7.43919E-06	0	5	0	
0.0391667	0.0103188	0.000623358	9.58445E-05	8.84339E-06	0	5	0	
0.0393333	-0.00874357	-0.000271521	0.000152714	1.05999E-05	0	5	0	
0.0395	0.00399577	-0.000134273	0.000237606	1.19815E-05	0	5	0	
0.0396667	0.00152043	0.000202078	0.000268446	1.30322E-05	0	5	0	
0.0398333	-0.00164253	0.00149124	0.000221647	1.22392E-05	0	5	0	
0.04	-0.00389777	-0.00178193	0.000136783	1.90776E-05	0	5	0	
0.0401667	0.00449107	0.000577776	8.13965E-05	2.323E-05	0	5	0	
0.0403333	-0.00358027	-0.000265353	7.42512E-05	2.59803E-05	0	5	0	
0.0405	0.00434128	-0.000229603	8.94967E-05	1.95572E-05	0	5	0	
0.0406667	-0.00193688	0.00021849	8.77998E-05	1.38712E-05	0	5	0	
0.0408333	0.00165508	0.00104449	8.82688E-05	1.14429E-05	0	5	0	
0.041	-0.00355439	-0.0018805	9.8727E-05	1.71693E-05	0	5	0	
0.0411667	0.00414035	0.00113748	0.000134263	2.44048E-05	0	5	0	
0.0413333	0.00119087	-0.000416576	0.000183236	3.3767E-05	0	5	0	
0.0415	-0.00560959	8.33146E-05	0.000208417	3.92879E-05	0	5	0	
0.0416667	0.00456713	-0.000526366	0.000188323	3.67557E-05	0	5	0	
0.0418333	0.000187014	0.000871017	0.000125537	2.92685E-05	0	5	0	
0.042	-0.00577804	5.02014E-05	9.16733E-05	1.94375E-05	0	5	0	
0.0421667	0.00987546	0.000509064	0.000115988	1.56907E-05	0	5	0	
0.0423333	-0.0103475	-0.000638503	0.000159398	2.07822E-05	0	5	0	
0.0425	-5.12144E-05	0.000765764	0.000236678	3.2654E-05	0	5	0	
0.0426667	0.0108383	-0.000385617	0.000294271	4.38567E-05	0	5	0	
0.0428333	-0.00577299	-0.00246667	0.000277488	4.29449E-05	0	5	0	
0.043	-0.00388274	0.00284262	0.000231671	4.58202E-05	0	5	0	
0.0431667	0.000446019	-0.000800229	0.000115601	4.25275E-05	0	5	0	
0.0433333	0.00615609	-0.000728269	0.000141799	3.8164E-05	0	5	0	
0.0435	-0.00253214	0.00201412	0.000134752	2.90122E-05	0	5	0	
0.0436667	-0.00586355	0.000141761	0.000173526	2.90176E-05	0	5	0	
0.0438333	0.00456006	-0.00238889	0.000155452	3.48183E-05	0	5	0	
0.044	-0.00614165	0.00282835	0.000135345	4.61411E-05	0	5	0	
0.0441667	0.0100795	-0.00215982	0.00013597	4.93421E-05	0	5	0	
0.0443333	-0.00946428	0.00238822	0.000157346	5.03334E-05	0	5	0	
0.0445	0.00488683	-0.000989572	0.000208913	4.12939E-05	0	5	0	
0.0446667	3.86916E-05	0.00103944	0.000219579	3.37884E-05	0	5	0	
0.0448333	-0.0014832	-0.00101262	0.00015935	3.56227E-05	0	5	0	
0.045	-0.00138691	0.00176225	0.000120159	4.08016E-05	0	5	0	
0.0451667	0.00376168	-0.00176701	0.000107497	4.80186E-05	0	5	0	
0.0453333	-0.00251207	0.000811918	0.000114305	4.58363E-05	0	5	0	
0.0455	-5.00149E-05	0.000339977	9.83984E-05	3.9689E-05	0	5	0	
0.0456667	0.00411044	-0.000122444	0.000104715	3.94983E-05	0	5	0	
0.0458333	-0.0050988	-0.000222081	0.00012817	3.85773E-05	0	5	0	
0.046	0.000262152	9.98723E-05	0.000108946	2.86315E-05	0	5	0	
0.0461667	0.00183403	0.000799616	6.27655E-05	1.73451E-05	0	5	0	
0.0463333	0.000679308	-0.00145741	4.8889E-05	1.23839E-05	0	5	0	
0.0465	-0.00206488	0.00169704	6.95639E-05	2.5198E-05	0	5	0	
0.0466667	0.000394902	-0.00116555	0.000106642	3.57315E-05	0	5	0	
0.0468333	0.00516812	-0.000158599	0.000140725	3.31374E-05	0	5	0	
0.047	-0.00704033	0.000361918	0.000171532	2.48467E-05	0	5	0	
0.0471667	0.00525925	0.000370278	0.000180534	1.44605E-05	0	5	0	
0.0473333	2.19286E-05	-0.0011743	0.000143241	2.10975E-05	0	5	0	
0.0475	-0.00391477	-7.87247E-05	9.29361E-05	3.0508E-05	0	5	0	
0.0476667	0.00149405	0.000853786	5.96088E-05	3.90835E-05	0	5	0	
0.0478333	0.00626295	-0.00107818	5.47776E-05	3.33132E-05	0	5	0	
0.048	-0.00667534	0.000597496	8.95869E-05	2.493E-05	0	5	0	
0.0481667	0.00457405	0.000837416	0.000107449	1.65061E-05	0	5	0	
0.0483333	-0.00240413	-0.00300583	0.000112582	2.26928E-05	0	5	0	
0.0485	0.00196783	0.00228173	0.000104516	3.42324E-05	0	5	0	
0.0486667	0.00263269	0.000498421	0.000137498	4.55452E-05	0	5	0	
0.0488333	-0.00515237	-0.000693283	0.0001613	4.84356E-05	0	5	0	
0.049	-0.000704272	-0.000302463	0.00013393	3.17118E-05	0	5	0	
0.0491667	0.00555541	0.00186251	8.53693E-05	2.69477E-05	0	5	0	
0.0493333	-0.00652425	-0.000619547	8.05128E-05	2.38648E-05	0	5	0	
0.0495	0.00380712	-0.000407483	0.000109084	2.48957E-05	0	5	0	
0.0496667	-0.00219867	0.000786814	0.000125182	2.03277E-05	0	5	0	
0.0498333	0.00270363	-0.000316864	0.0001104	1.38957E-05	0	5	0	
0.05	-0.00423471	0.00045284	9.36735E-05	1.76351E-05	0	5	0	
0.0501667	0.00712386	-0.00194942	0.000104183	1.88224E-05	0	5	0	
0.0503333	-0.00343893	0.00152375	0.000108952	2.68607E-05	0	5	0	
0.0505	-0.000733227	-0.000881778	0.000124296	3.52999E-05	0	5	0	
0.0506667	0.00175684	0.0012012	0.000128135	4.59691E-05	0	5	0	
0.0508333	-0.00235978	-0.00116758	0.000152274	4.60843E-05	0	5	0	
0.051	0.00383599	8.17197E-05	0.000167909	4.206E-05	0	5	0	
0.0511667	-0.00226577	-0.00019815	0.000161937	4.11499E-05	0	5	0	
0.0513333	-0.00247624	0.00309266	0.000126484	4.87991E-05	0	5	0	
0.0515	0.00387192	-0.00314772	0.000101474	5.82489E-05	0	5	0	
0.0516667	-0.00268555	0.000793958	0.00010582	5.34401E-05	0	5	0	
0.0518333	0.00415935	7.22112E-05	0.000135285	4.16387E-05	0	5	0	
0.052	-0.00667253	0.000480471	0.000169743	3.81852E-05	0	5	0	
0.0521667	0.00385473	-0.000949404	0.000215689	3.91745E-05	0	5	0	
0.0523333	-0.00386072	0.00299729	0.000253367	4.31603E-05	0	5	0	
0.0525	0.00507806	-0.00405585	0.00023625	5.34269E-05	0	5	0	
0.0526667	-0.00330151	0.00256194	0.000164724	6.59134E-05	0	5	0	
0.0528333	0.00188373	-0.000635878	9.39623E-05	6.36052E-05	0	5	0	
0.053	-0.0052844	-3.07766E-06	6.3066E-05	3.80319E-05	0	5	0	
0.0531667	0.00880222	-0.00158847	8.41556E-05	1.82169E-05	0	5	0	
0.0533333	-0.00734048	0.00334816	0.000124594	2.60061E-05	0	5	0	
0.0535	0.00352754	-0.00317733	0.000156588	4.40255E-05	0	5	0	
0.0536667	-0.0003754	0.00163642	0.000130207	5.62103E-05	0	5	0	
0.0538333	0.00252849	-0.00110588	9.33946E-05	4.45397E-05	0	5	0	
0.054	-0.00263301	0.00104252	6.90613E-05	3.24797E-05	0	5	0	
0.0541667	0.00400219	-0.0019846	7.57014E-05	2.75437E-05	0	5	0	
0.0543333	-0.00602223	0.00162665	8.38911E-05	3.52731E-05	0	5	0	
0.0545	0.00665294	-0.000801175	9.51726E-05	4.32219E-05	0	5	0	
0.0546667	-0.00255466	-0.000388419	0.000129283	3.85811E-05	0	5	0	
0.0548333	-0.000207758	0.00141773	0.000179702	3.19031E-05	0	5	0	
0.055	-0.000949398	-0.00134365	0.000205943	2.29569E-05	0	5	0	
0.0551667	0.00216603	-0.000500652	0.000176401	2.39648E-05	0	5	0	
0.0553333	-0.00249895	0.00011479	0.000111167	2.61034E-05	0	5	0	
0.0555	0.0041682	0.00145718	8.09864E-05	2.79506E-05	0	5	0	
0.0556667	-0.00167242	-0.00198639	9.53123E-05	2.96081E-05	0	5	0	
0.0558333	0.00352059	0.00189389	0.000124671	3.10511E-05	0	5	0	
0.056	-0.00824358	-0.00134272	0.000146789	3.46287E-05	0	5	0	
0.0561667	0.0107645	0.00103177	0.000182319	3.13992E-05	0	5	0	
0.0563333	-0.00895155	-0.000806124	0.000211232	2.67218E-05	0	5	0	
0.0565	0.00382459	-0.000869874	0.000214702	1.73887E-05	0	5	0	
0.0566667	0.00530789	0.00180359	0.000189891	2.18906E-05	0	5	0	
0.0568333	-0.00834182	0.00201198	0.000170815	2.5864E-05	0	5	0	
0.057	0.0022696	-0.00486044	0.000138617	4.92414E-05	0	5	0	
0.0571667	0.00978398	0.00315229	0.000115344	6.44113E-05	0	5	0	
0.0573333	-0.0139304	-0.000888264	0.000136289	6.48441E-05	0	5	0	
0.0575	0.00851165	-0.00135072	0.000181431	5.29115E-05	0	5	0	
0.0576667	-0.00429119	0.00189452	0.000216701	4.19022E-05	0	5	0	
0.0578333	0.00411441	-0.00127403	0.00022243	4.13431E-05	0	5	0	
0.058	0.00189509	0.000278131	0.000205833	3.91548E-05	0	5	0	
0.0581667	-0.0126227	0.00171424	0.000206566	4.69408E-05	0	5	0	
0.0583333	-0.00351483	-0.00163574	0.000162254	5.84257E-05	0	5	0	
0.0585	0.011898	0.00103692	0.000167525	5.43214E-05	0	5	0	
0.0586667	-0.0079776	-0.000235013	0.000154405	3.54045E-05	0	5	0	
0.0588333	0.00322517	0.000669012	0.000187448	3.20062E-05	0	5	0	
0.059	0.00550273	-0.00472443	0.000152681	5.39089E-05	0	5	0	
0.0591667	-0.00232702	0.0053462	0.000165061	7.34343E-05	0	5	0	
0.0593333	-0.012304	0.000199022	0.00024117	0.000101	0	5	0	
0.0595	0.00665437	-0.00559524	0.000433609	0.000117191	0	5	0	
0.0596667	0.00275198	0.00501571	0.000518506	0.000119487	0	5	0	
0.0598333	0.00874841	-0.00133573	0.000434685	0.000117939	0	5	0	
0.06	-0.0157427	-0.00154137	0.00029819	0.000104223	0	5	0	
0.0601667	0.0192705	0.00129913	0.00026536	9.2577E-05	0	5	0	
0.0603333	-0.0259179	-0.00140056	0.000410386	5.59567E-05	0	5	0	
0.0605	0.0230327	0.000321432	0.000505509	4.21162E-05	0	5	0	
0.0606667	-0.0187786	0.00222846	0.000547152	5.02789E-05	0	5	0	
0.0608333	0.0107498	-0.00334612	0.000476795	5.84469E-05	0	5	0	
0.061	-0.00568052	-0.000394709	0.000374472	6.23749E-05	0	5	0	
0.0611667	0.00941226	0.00364532	0.000285757	5.46579E-05	0	5	0	
0.0613333	-0.0148242	-0.00143548	0.000271228	6.04596E-05	0	5	0	
0.0615	0.0147937	-0.00227625	0.000295661	7.76885E-05	0	5	0	
0.0616667	-0.0133594	0.0037173	0.000310457	9.24521E-05	0	5	0	
0.0618333	0.0104361	-0.00305902	0.000261449	9.08865E-05	0	5	0	
0.062	-0.00826658	0.00140848	0.000215492	6.56719E-05	0	5	0	
0.0621667	0.00930741	0.000486731	0.000188044	4.98127E-05	0	5	0	
0.0623333	-0.0114134	-9.94571E-06	0.000183194	4.15503E-05	0	5	0	
0.0625	0.00559348	-0.000140898	0.000177546	3.14078E-05	0	5	0	
0.0626667	0.00415177	-0.000934039	0.000185345	2.01218E-05	0	5	0	
0.0628333	-0.00679231	0.0018639	0.000156629	1.89718E-05	0	5	0	
0.063	-0.0014331	-0.00136228	0.000130282	2.61965E-05	0	5	0	
0.0631667	0.00510866	-0.00141819	8.88463E-05	3.53975E-05	0	5	0	
0.0633333	-0.000669756	0.00261723	6.58465E-05	3.85491E-05	0	5	0	
0.0635	0.00266919	-0.00036439	5.13022E-05	3.86421E-05	0	5	0	
0.0636667	-0.00438018	-0.00196477	4.38957E-05	3.36697E-05	0	5	0	
0.0638333	0.00659397	0.000230541	7.59059E-05	2.83858E-05	0	5	0	
0.064	-0.0067505	0.00197778	0.000142027	2.43728E-05	0	5	0	
0.0641667	0.00320024	-0.00168598	0.000178194	2.84451E-05	0	5	0	
0.0643333	0.000603878	0.000221078	0.000151745	2.91406E-05	0	5	0	
0.0645	0.00227683	0.00119312	0.000101333	2.90773E-05	0	5	0	
0.0646667	-0.00315663	-0.00156237	9.1019E-05	2.9406E-05	0	5	0	
0.0648333	0.00397828	-0.000107029	0.000123822	2.58019E-05	0	5	0	
0.065	-0.00469039	0.00139804	0.000144457	2.36392E-05	0	5	0	
0.0651667	0.00393072	-0.000984074	0.000132337	2.14778E-05	0	5	0	
0.0653333	-0.00200121	-0.000127579	9.77949E-05	1.79778E-05	0	5	0	
0.0655	0.000447793	0.00120495	7.87473E-05	2.01804E-05	0	5	0	
0.0656667	-0.00270669	-0.000873802	6.73611E-05	2.01986E-05	0	5	0	
0.0658333	0.00471582	-0.000355815	6.82563E-05	2.21097E-05	0	5	0	
0.066	-0.0077492	0.0013593	8.47517E-05	2.03289E-05	0	5	0	
0.0661667	0.0108065	-0.00105372	0.000124405	1.8126E-05	0	5	0	
0.0663333	-0.0118818	3.55987E-05	0.000193372	1.88009E-05	0	5	0	
0.0665	0.00849335	-0.000590638	0.000248966	1.77398E-05	0	5	0	
0.0666667	-0.00494877	0.00100111	0.000270649	1.40622E-05	0	5	0	
0.0668333	0.00227987	-0.000489111	0.000219912	1.83029E-05	0	5	0	
0.067	-0.00600367	-0.000651764	0.000147878	2.44131E-05	0	5	0	
0.0671667	0.0129493	0.00085311	0.000125264	2.61378E-05	0	5	0	
0.0673333	-0.0173636	0.000171824	0.000187967	1.9538E-05	0	5	0	
0.0675	0.0119902	4.05852E-05	0.000254759	1.14356E-05	0	5	0	
0.0676667	-0.00904278	1.52096E-05	0.000262135	1.11317E-05	0	5	0	
0.0678333	0.0090946	-0.00104364	0.000222479	1.47515E-05	0	0	0	
0.068	-0.00699097	0.000701903	0.000187915	1.78664E-05	0	0	0	
0.0681667	0.00872319	-0.000381203	0.000169197	1.58316E-05	0	0	0	
0.0683333	-0.00708583	0.00103238	0.000157505	1.44785E-05	0	0	0	
0.0685	0.00105094	-0.000926542	0.000124995	1.97529E-05	0	0	0	
0.0686667	0.00236545	0.00109013	0.00010851	2.84546E-05	0	0	0	
0.0688333	-0.00467201	-0.000969314	8.56673E-05	3.29765E-05	0	0	0	
0.069	0.00204204	4.78623E-05	8.25763E-05	2.56774E-05	0	0	0	
0.0691667	0.00867265	0.0006624	9.43387E-05	1.65442E-05	0	0	0	
0.0693333	-0.00938867	-0.000799993	0.000126523	1.46686E-05	0	0	0	
0.0695	-0.00123218	0.000685353	0.000155972	2.14775E-05	0	0	0	
0.0696667	0.00772406	-0.00108598	0.000162407	2.93299E-05	0	0	0	
0.0698333	-0.000686104	0.000867765	0.000127978	2.943E-05	0	0	0	
0.07	-0.00973877	-0.000336681	0.000115648	2.95235E-05	0	0	0	
0.0701667	0.00897457	-0.000628649	0.000125904	3.09152E-05	0	0	0	
0.0703333	-0.000238332	0.000872382	0.000180058	3.30546E-05	0	0	0	
0.0705	-0.00843382	0.000433038	0.000206371	2.90746E-05	0	0	0	
0.0706667	0.00859809	-0.00146019	0.000209122	2.89114E-05	0	0	0	
0.0708333	-0.000999649	-0.000123511	0.000158165	3.16699E-05	0	0	0	
0.071	-0.00677301	0.000184345	0.000121661	3.54871E-05	0	0	0	
0.0711667	0.0097257	0.000483556	0.000115053	3.11727E-05	0	0	0	
0.0713333	-0.0088482	-0.00169362	0.000143602	3.1301E-05	0	0	0	
0.0715	0.00322152	0.0014002	0.000213378	3.52829E-05	0	0	0	
0.0716667	0.00376442	-0.000709837	0.000273126	3.67592E-05	0	0	0	
0.0718333	-0.00611935	0.000462842	0.000274369	2.93237E-05	0	0	0	
0.072	-0.000863932	-0.000978493	0.000213956	1.83652E-05	0	0	0	
0.0721667	0.00911383	-0.000185976	0.000171849	1.35026E-05	0	0	0	
0.0723333	-0.00699813	-0.000106283	0.000168812	1.51988E-05	0	0	0	
0.0725	0.00357654	0.000129843	0.000167139	1.3161E-05	0	0	0	
0.0726667	-0.000412725	0.000382897	0.000114008	1.22377E-05	0	0	0	
0.0728333	0.00124169	-0.00048779	6.67027E-05	9.15381E-06	0	0	0	
0.073	-0.00209633	0.00090331	3.98408E-05	1.22128E-05	0	0	0	
0.0731667	0.000394618	-0.000974084	3.58181E-05	1.43444E-05	0	0	0	
0.0733333	0.00185465	0.000694045	4.88005E-05	1.91078E-05	0	0	0	
0.0735	0.00124696	0.00118419	8.76441E-05	2.07599E-05	0	0	0	
0.0736667	-0.00130558	-0.00183717	9.2831E-05	3.06747E-05	0	0	0	
0.0738333	0.000550322	0.00160146	9.13523E-05	3.80908E-05	0	0	0	
0.074	-0.0026994	-0.00108417	7.15333E-05	4.29917E-05	0	0	0	
0.0741667	0.00383786	0.000114063	7.7718E-05	3.18319E-05	0	0	0	
0.0743333	-0.00530496	-8.35873E-05	9.42854E-05	1.6858E-05	0	0	0	
0.0745	0.0117583	0.00108697	0.000141107	1.01059E-05	0	0	0	
0.0746667	-0.0165673	-0.00199142	0.000207752	1.81092E-05	0	0	0	
0.0748333	0.010245	0.00270886	0.000255299	3.65347E-05	0	0	0	
0.075	0.00251224	-0.00272276	0.000220593	5.25872E-05	0	0	0	
0.0751667	-0.00478497	0.00200498	0.00016576	5.85888E-05	0	0	0	
0.0753333	-0.00165914	-0.00155083	0.00016673	4.86163E-05	0	0	0	
0.0755	0.0091217	0.0015076	0.000203357	3.76345E-05	0	0	0	
0.0756667	-0.0127469	-0.000382989	0.000244897	2.7019E-05	0	0	0	
0.0758333	0.0111494	0.000543493	0.00024715	2.03013E-05	0	0	0	
0.076	-0.00271812	0.000517887	0.000214034	1.43611E-05	0	0	0	
0.0761667	-0.00384226	0.00116416	0.000147989	1.07536E-05	0	0	0	
0.0763333	0.00379753	-0.00176278	9.41876E-05	2.0587E-05	0	0	0	
0.0765	0.00101298	0.00305297	8.02948E-05	3.22263E-05	0	0	0	
0.0766667	-0.00612558	-0.00312525	9.55113E-05	5.0764E-05	0	0	0	
0.0768333	0.0104617	0.00246345	0.000121128	5.52164E-05	0	0	0	
0.077	-0.00264094	-0.00161087	0.000148409	5.2919E-05	0	0	0	
0.0771667	-0.0111849	0.00255436	0.000184826	4.36152E-05	0	0	0	
0.0773333	0.00683973	-0.00227617	0.000185934	4.63083E-05	0	0	0	
0.0775	0.0122931	0.0023825	0.000240227	5.09995E-05	0	0	0	
0.0776667	-0.0217161	-0.00295098	0.000282427	5.96372E-05	0	0	0	
0.0778333	0.0148948	0.00151536	0.000340922	5.72321E-05	0	0	0	
0.078	-0.0063244	-0.00137238	0.000330987	4.92122E-05	0	0	0	
0.0781667	-0.00046448	0.0017744	0.000309052	3.52373E-05	0	0	0	
0.0783333	0.00627457	-0.00235001	0.000268807	3.4535E-05	0	0	0	
0.0785	-0.00518629	0.00128029	0.000200996	4.00301E-05	0	0	0	
0.0786667	-0.00191003	-0.00144371	0.000179152	4.0453E-05	0	0	0	
0.0788333	0.0126313	0.00145871	0.00018503	3.59125E-05	0	0	0	
0.079	-0.0144287	-0.00137445	0.000228941	3.00811E-05	0	0	0	
0.0791667	0.00938377	0.00177471	0.000255155	3.1541E-05	0	0	0	
0.0793333	-0.00187012	-0.00274996	0.000264214	3.60675E-05	0	0	0	
0.0795	2.63458E-05	0.002111	0.000241603	4.10893E-05	0	0	0	
0.0796667	-0.00169907	-0.00123301	0.000160336	3.99666E-05	0	0	0	
0.0798333	0.00579499	0.00239099	8.76536E-05	3.86992E-05	0	0	0	
0.08	-0.00913676	-0.00170303	8.2047E-05	3.81084E-05	0	0	0	
0.0801667	0.00734239	0.000973649	0.000130487	3.88829E-05	0	0	0	
0.0803333	-0.00691479	-0.00125146	0.000170775	2.94984E-05	0	0	0	
0.0805	0.00732387	0.00118155	0.000173433	2.5848E-05	0	0	0	
0.0806667	-0.0058503	-0.00036003	0.000164369	2.16688E-05	0	0	0	
0.0808333	0.00691	0.00115862	0.000145059	1.98007E-05	0	0	0	
0.081	-0.0100426	-0.00168181	0.000150797	1.98107E-05	0	0	0	
0.0811667	0.0137901	0.000696726	0.00018066	2.33734E-05	0	0	0	
0.0813333	-0.00997289	-0.000321229	0.000212322	2.22889E-05	0	0	0	
0.0815	0.00472072	0.000896278	0.000199825	1.78567E-05	0	0	0	
0.0816667	-0.00306826	0.000596936	0.000150279	1.23097E-05	0	0	0	
0.0818333	0.00196108	0.000211297	0.000111772	1.7682E-05	0	0	0	
0.082	-0.00376727	-0.00111711	8.92498E-05	1.93274E-05	0	0	0	
0.0821667	0.00407751	0.002148	7.99019E-05	2.87583E-05	0	0	0	
0.0823333	-0.00448951	-0.00163844	7.54174E-05	3.13603E-05	0	0	0	
0.0825	0.00231949	0.000808462	7.43416E-05	3.3925E-05	0	0	0	
0.0826667	0.00142181	3.83838E-05	8.12489E-05	2.33697E-05	0	0	0	
0.0828333	-0.00239062	-3.16927E-05	6.51583E-05	1.54293E-05	0	0	0	
0.083	-0.00459374	-0.000795797	7.22836E-05	9.84312E-06	0	0	0	
0.0831667	0.0106121	0.000815863	0.00010614	1.45055E-05	0	0	0	
0.0833333	-0.0158221	0.000377998	0.000180492	1.83713E-05	0	0	0	
0.0835	0.0151757	-0.00108751	0.00024521	2.06868E-05	0	0	0	
0.0836667	-0.00695612	0.00172672	0.000271477	2.43994E-05	0	0	0	
0.0838333	-0.00682753	-0.00116296	0.000258589	2.63917E-05	0	0	0	
0.084	-0.00748673	0.000795317	0.00022223	2.71573E-05	0	0	0	
0.0841667	0.0367294	-0.00127317	0.000340697	2.21682E-05	0	0	0	
0.0843333	-0.0260393	0.000507382	0.000543575	1.99118E-05	0	0	0	
0.0845	-0.00942118	-0.000429612	0.000611674	1.68702E-05	0	0	0	
0.0846667	0.0242082	0.00166514	0.000544426	2.21575E-05	0	0	0	
0.0848333	-0.0302604	-0.000582065	0.00044453	2.67552E-05	0	0	0	
0.085	0.0299779	-0.00182941	0.000524033	3.56982E-05	0	0	0	
0.0851667	-0.00916928	0.00115133	0.000525833	4.00419E-05	0	0	0	
0.0853333	0.00321018	-6.34198E-05	0.000527113	3.64142E-05	0	0	0	
0.0855	-0.0137745	-0.000634078	0.000452089	2.64162E-05	0	0	0	
0.0856667	0.0217816	0.00218738	0.000469548	1.96413E-05	0	0	0	
0.0858333	-0.0245703	-0.00150123	0.000522072	2.95575E-05	0	0	0	
0.086	0.0204795	-0.000705586	0.00061319	3.39087E-05	0	0	0	
0.0861667	-0.00616158	0.00102351	0.000593759	3.69285E-05	0	0	0	
0.0863333	-0.0113685	-0.000296512	0.000439775	3.37806E-05	0	0	0	
0.0865	0.0188323	0.000487603	0.000346834	3.30383E-05	0	0	0	
0.0866667	-0.0145013	-0.000840578	0.000355078	2.46963E-05	0	0	0	
0.0868333	0.00748669	0.00216274	0.000377197	2.12659E-05	0	0	0	
0.087	-0.00772358	-0.00178112	0.000316894	3.13262E-05	0	0	0	
0.0871667	0.0109003	-7.07373E-05	0.00023258	3.71391E-05	0	0	0	
0.0873333	-0.0119849	0.000957149	0.0002064	2.83598E-05	0	0	0	
0.0875	0.0090879	-0.00102972	0.000213772	2.10121E-05	0	0	0	
0.0876667	-0.00646059	-0.00093964	0.000200152	1.62347E-05	0	0	0	
0.0878333	0.00514565	0.00288755	0.00016466	2.63537E-05	0	0	0	
0.088	-0.00402202	-0.00280986	0.000113842	3.72611E-05	0	0	0	
0.0881667	0.00625614	0.00165906	9.46547E-05	4.81364E-05	0	0	0	
0.0883333	-0.0123693	-0.00054824	0.000119416	4.29448E-05	0	0	0	
0.0885	0.0107186	0.000152735	0.000173929	2.34344E-05	0	0	0	
0.0886667	-0.00267869	-0.00159328	0.00018449	1.54892E-05	0	0	0	
0.0888333	0.00151069	0.00297618	0.000135748	2.44488E-05	0	0	0	
0.089	-0.00467776	-0.00225322	7.79271E-05	4.27079E-05	0	0	0	
0.0891667	0.00649479	0.00078228	8.62668E-05	4.61856E-05	0	0	0	
0.0893333	-0.00622234	-0.000252022	0.000130079	3.50011E-05	0	0	0	
0.0895	0.00443554	0.000843272	0.000152103	1.84848E-05	0	0	0	
0.0896667	-0.00136458	-0.00167815	0.000123609	1.69228E-05	0	0	0	
0.0898333	0.000216524	0.00183041	7.66363E-05	2.45931E-05	0	0	0	
0.09	-0.0017288	-0.00168776	4.93139E-05	3.64716E-05	0	0	0	
0.0901667	0.00497852	0.00034948	5.83574E-05	3.94202E-05	0	0	0	
0.0903333	-0.00753091	6.36655E-05	0.000103759	2.80916E-05	0	0	0	
0.0905	0.00660244	0.000178642	0.000147098	2.11642E-05	0	0	0	
0.0906667	-0.000575583	-0.00138798	0.000142945	1.863E-05	0	0	0	
0.0908333	0.00108955	0.000957737	8.80727E-05	2.7816E-05	0	0	0	
0.091	-0.00426915	0.00028705	4.66786E-05	2.75563E-05	0	0	0	
0.0911667	0.00187078	-0.000735666	5.40568E-05	2.49545E-05	0	0	0	
0.0913333	0.00303493	-0.000124303	0.000103718	2.10293E-05	0	0	0	
0.0915	-0.00126121	0.00113485	0.000116849	2.17344E-05	0	0	0	
0.0916667	0.00024894	-0.00195866	9.3678E-05	2.5747E-05	0	0	0	
0.0918333	-0.000954978	0.00104454	7.92434E-05	3.15113E-05	0	0	0	
0.092	0.00511841	-0.000480303	9.15516E-05	2.63169E-05	0	0	0	
0.0921667	-0.000569559	-0.000820044	9.56808E-05	2.08582E-05	0	0	0	
0.0923333	-0.00824291	0.00075156	0.000101451	1.63582E-05	0	0	0	
0.0925	0.0131417	-0.000752274	0.000122504	2.20292E-05	0	0	0	
0.0926667	-0.0106845	0.00107195	0.000188487	2.5137E-05	0	0	0	
0.0928333	0.00707566	-0.000479292	0.000217121	2.3027E-05	0	0	0	
0.093	-0.00180189	-0.000402976	0.000224639	1.70126E-05	0	0	0	
0.0931667	-0.00380161	0.000134788	0.000217082	1.07048E-05	0	0	0	
0.0933333	0.0054351	-0.000318149	0.000179432	1.11998E-05	0	0	0	
0.0935	0.000447186	0.000146305	0.000147537	1.36215E-05	0	0	0	
0.0936667	-0.00813165	-0.000372419	0.000148782	1.34736E-05	0	0	0	
0.0938333	0.0144012	0.000683519	0.000199839	1.10035E-05	0	0	0	
0.094	-0.0115227	-0.000985009	0.000238196	1.29837E-05	0	0	0	
0.0941667	0.00395633	0.00033141	0.000222126	1.59116E-05	0	0	0	
0.0943333	0.00258925	-0.00056083	0.000174599	1.66179E-05	0	0	0	
0.0945	-0.00206589	0.000200557	0.000115858	1.69048E-05	0	0	0	
0.0946667	-0.000839399	0.000731632	0.000109615	2.3187E-05	0	0	0	
0.0948333	0.00542473	-0.00175771	0.00011104	3.06833E-05	0	0	0	
0.095	-0.00204199	0.00120261	0.000121071	3.1632E-05	0	0	0	
0.0951667	-0.000304057	-0.000250469	8.38574E-05	2.54201E-05	0	0	0	
0.0953333	-0.0013358	-0.000206661	6.06399E-05	1.56777E-05	0	0	0	
0.0955	0.0039828	-0.000150683	5.46595E-05	8.83237E-06	0	0	0	
0.0956667	-0.00295127	-6.59508E-05	6.90864E-05	4.2722E-06	0	0	0	
0.0958333	0.00397216	0.000369408	7.72487E-05	4.84349E-06	0	0	0	
0.096	-0.00388998	-4.57807E-05	8.66126E-05	5.91652E-06	0	0	0	
0.0961667	0.00671375	-0.000875715	9.70457E-05	8.45152E-06	0	0	0	
0.0963333	-0.00772432	0.00076388	0.000117511	1.09882E-05	0	0	0	
0.0965	0.00827909	-0.00117237	0.000141437	1.60372E-05	0	0	0	
0.0966667	-0.00546513	0.00089991	0.000152965	1.86406E-05	0	0	0	
0.0968333	0.00180446	-0.000236727	0.000138062	1.97104E-05	0	0	0	
0.097	0.000700842	-0.000284637	8.75793E-05	1.42341E-05	0	0	0	
0.0971667	4.78932E-05	0.000147155	4.07895E-05	1.42433E-05	0	0	0	
0.0973333	-0.0030508	0.000395997	3.67499E-05	1.15429E-05	0	0	0	
0.0975	0.00523424	-0.000409297	7.35846E-05	1.49254E-05	0	0	0	
0.0976667	-0.0037723	-0.000514663	0.000103844	1.65756E-05	0	0	0	
0.0978333	0.00262036	0.00101808	9.98273E-05	2.20378E-05	0	0	0	
0.098	-0.000145836	-0.00138156	7.5346E-05	2.7632E-05	0	0	0	
0.0981667	0.00137502	0.000938349	6.50576E-05	2.86454E-05	0	0	0	
0.0983333	-0.000532243	-0.000331	5.61905E-05	2.37396E-05	0	0	0	
0.0985	1.75719E-05	0.00116904	3.79673E-05	1.85732E-05	0	0	0	
0.0986667	-0.0012249	-0.00125809	2.13934E-05	1.99995E-05	0	0	0	
0.0988333	0.00473152	0.000795446	2.83032E-05	2.4161E-05	0	0	0	
0.099	-0.00524118	-0.00035744	6.57734E-05	2.31714E-05	0	0	0	
0.0991667	0.004621	1.96795E-05	9.0264E-05	1.61907E-05	0	0	0	
0.0993333	-0.00429531	0.000143476	9.75194E-05	1.16517E-05	0	0	0	
0.0995	0.00353626	-3.09512E-05	8.42485E-05	8.64037E-06	0	0	0	
0.0996667	-0.00329812	8.69915E-05	8.09165E-05	8.20325E-06	0	0	0	
0.0998333	0.000586187	0.000319402	7.64992E-05	1.0957E-05	0	0	0	
0.1	0.00182742	-0.000412285	8.0862E-05	2.25556E-05	0	0	0	
0.100167	-0.000801874	-0.000164758	9.19112E-05	3.6419E-05	0	0	0	
0.100333	-0.00229808	0.00073168	0.00010491	3.81307E-05	0	0	0	
0.1005	0.00298172	6.08202E-05	9.48085E-05	2.74764E-05	0	0	0	
0.100667	-0.00179117	-0.000999392	7.23579E-05	1.86771E-05	0	0	0	
0.100833	-7.72282E-05	0.000682726	4.4288E-05	2.27486E-05	0	0	0	
0.101	-0.000730946	-0.000440575	4.6044E-05	2.76787E-05	0	0	0	
0.101167	0.00299991	0.00115936	6.4818E-05	2.85823E-05	0	0	0	
0.101333	-0.00502875	-0.000680115	9.50557E-05	2.30016E-05	0	0	0	
0.1015	0.00443031	-1.91874E-05	9.90078E-05	2.09006E-05	0	0	0	
0.101667	-0.00427598	-0.000200886	9.78463E-05	1.67887E-05	0	0	0	
0.101833	0.002303	0.000363664	0.000123701	1.46659E-05	0	0	0	
0.102	0.00168855	-0.000115977	0.000175393	1.17232E-05	0	0	0	
0.102167	-0.00583987	0.000537365	0.000186963	1.09237E-05	0	0	0	
0.102333	0.004038	-0.00031895	0.000152317	8.8097E-06	0	0	0	
0.1025	0.00194206	0.00128898	0.000110085	1.36909E-05	0	0	0	
0.102667	-0.010127	-0.00130367	0.000109171	1.8539E-05	0	0	0	
0.102833	0.0123756	0.000530082	0.000143577	2.32392E-05	0	0	0	
0.103	-0.010169	-0.00088541	0.000188638	2.48013E-05	0	0	0	
0.103167	0.0056379	0.00133963	0.000222234	2.7074E-05	0	0	0	
0.103333	-0.00293803	-0.00116371	0.000233022	2.93894E-05	0	0	0	
0.1035	0.00213408	0.00121052	0.000200949	2.71554E-05	0	0	0	
0.103667	-0.00334645	-0.00104688	0.000149242	2.27785E-05	0	0	0	
0.103833	0.00380088	0.000634005	0.000127958	2.03952E-05	0	0	0	
0.104	-0.00595241	-0.000101622	0.000139603	1.45928E-05	0	0	0	
0.104167	0.00450955	0.000968657	0.00016254	1.31782E-05	0	0	0	
0.104333	-0.00312794	-0.0012565	0.000137024	1.25801E-05	0	0	0	
0.1045	0.0014173	0.00212456	9.01376E-05	2.42709E-05	0	0	0	
0.104667	0.00154012	-0.00138952	5.41024E-05	3.16507E-05	0	0	0	
0.104833	-0.00273998	0.000595233	4.76155E-05	3.31898E-05	0	0	0	
0.105	-0.00140365	5.43372E-05	8.95159E-05	2.34291E-05	0	0	0	
0.105167	0.00623342	-6.61725E-05	0.000141048	1.20766E-05	0	0	0	
0.105333	-0.00646161	3.55032E-05	0.000164716	4.9782E-06	0	0	0	
0.1055	0.00220395	0.000787158	0.00015259	8.26298E-06	0	0	0	
0.105667	0.00086805	-0.000898946	0.000148434	2.5281E-05	0	0	0	
0.105833	-0.00422788	0.0014326	0.000144797	4.24116E-05	0	0	0	
0.106	0.00713754	-0.00229255	0.00014196	4.70062E-05	0	0	0	
0.106167	-0.00812438	0.00165408	0.000127814	4.2436E-05	0	0	0	
0.106333	-0.00139208	-2.4695E-05	0.000133039	3.32621E-05	0	0	0	
0.1065	0.00856931	-0.000813327	0.000129467	2.46426E-05	0	0	0	
0.106667	-0.00757658	0.000637704	0.00014219	1.83999E-05	0	0	0	
0.106833	0.00493131	-0.000192471	0.000165536	1.99576E-05	0	0	0	
0.107	-0.00592146	-0.00101712	0.000180298	3.29546E-05	0	0	0	
0.107167	0.00631662	0.00128204	0.000170389	4.05521E-05	0	0	0	
0.107333	-0.00196508	-0.00101697	0.000160775	3.70506E-05	0	0	0	
0.1075	-0.00146475	0.000226509	0.000155418	2.61893E-05	0	0	0	
0.107667	-0.0026253	-0.000193446	0.000117401	1.55388E-05	0	0	0	
0.107833	0.00820559	0.000724656	9.14994E-05	1.9873E-05	0	0	0	
0.108	-0.0108462	0.000434848	0.000116069	2.98514E-05	0	0	0	
0.108167	0.00837575	-0.00028479	0.000179291	3.24857E-05	0	0	0	
0.108333	-0.0069972	-1.47091E-05	0.000207726	2.48772E-05	0	0	0	
0.1085	0.0027732	6.41159E-05	0.000162389	1.71483E-05	0	0	0	
0.108667	0.0036624	0.000235406	0.000125812	1.50731E-05	0	0	0	
0.108833	-0.00614348	-0.000466381	9.27184E-05	1.38943E-05	0	0	0	
0.109	-0.00147653	0.00118858	0.000137217	1.39765E-05	0	0	0	
0.109167	0.00509466	0.000190438	0.000171316	1.34385E-05	0	0	0	
0.109333	-0.00359092	-0.000824045	0.000162783	1.33644E-05	0	0	0	
0.1095	-0.00036945	0.000731727	0.000128237	1.35275E-05	0	0	0	
0.109667	-0.00132097	0.000134576	8.07789E-05	1.88328E-05	0	0	0	
0.109833	0.00355608	-0.000150386	9.64127E-05	2.51663E-05	0	0	0	
0.11	-0.000990197	0.000179942	0.000117535	2.04214E-05	0	0	0	
0.110167	-0.00349286	0.000156382	0.000124621	1.35185E-05	0	0	0	
0.110333	-0.00100971	-0.000623191	0.000105662	7.29518E-06	0	0	0	
0.1105	0.00346695	0.00123877	6.59869E-05	1.20844E-05	0	0	0	
0.110667	-0.00272904	-0.00138698	6.62728E-05	1.72385E-05	0	0	0	
0.110833	0.00647918	0.00167537	9.44438E-05	2.61262E-05	0	0	0	
0.111	-0.0106949	-0.00149305	0.000138918	3.13783E-05	0	0	0	
0.111167	0.0107347	0.000627624	0.000173071	3.05371E-05	0	0	0	
0.111333	-0.00706006	-0.00111133	0.00019988	2.45661E-05	0	0	0	
0.1115	0.000997089	0.00132018	0.000208337	2.13576E-05	0	0	0	
0.111667	-0.00414844	-0.000468928	0.000183463	2.04331E-05	0	0	0	
0.111833	0.00913597	0.000231381	0.000159819	1.77338E-05	0	0	0	
0.112	-0.0125018	-0.000120105	0.000163612	1.47107E-05	0	0	0	
0.112167	0.0109085	-0.000149439	0.000197737	1.86744E-05	0	0	0	
0.112333	-0.0109429	0.000147392	0.000219875	2.45316E-05	0	0	0	
0.1125	0.00716688	-0.000136436	0.00021141	2.32106E-05	0	0	0	
0.112667	-0.00521541	-0.000260179	0.000175762	1.46017E-05	0	0	0	
0.112833	0.00437631	0.000407334	0.000143714	9.26133E-06	0	0	0	
0.113	-0.00184966	6.73916E-05	0.000109015	8.65597E-06	0	0	0	
0.113167	0.000364139	-0.000635599	9.51937E-05	1.47236E-05	0	0	0	
0.113333	-0.0013389	-0.000270924	7.97265E-05	2.07672E-05	0	0	0	
0.1135	-0.00244662	-3.80641E-05	6.97289E-05	2.31343E-05	0	0	0	
0.113667	0.0065219	-0.000625545	8.64429E-05	2.13326E-05	0	0	0	
0.113833	0.00306685	0.000820338	0.000120641	1.85643E-05	0	0	0	
0.114	-0.0254624	0.000781	0.000226307	1.59139E-05	0	0	0	
0.114167	0.0367774	-0.00128901	0.000378729	1.93866E-05	0	0	0	
0.114333	-0.0181466	0.000347321	0.000520628	1.91853E-05	0	0	0	
0.1145	0.0039517	0.000687761	0.00052825	1.84404E-05	0	0	0	
0.114667	0.00487712	-0.000395347	0.000486063	1.14006E-05	0	0	0	
0.114833	-0.0267895	0.000471467	0.000462719	1.51083E-05	0	0	0	
0.115	0.0305638	-0.000582114	0.000625732	2.43565E-05	0	0	0	
0.115167	-0.00287096	-0.000805084	0.000903407	3.63487E-05	0	0	0	
0.115333	-0.00860136	0.00103804	0.0011377	4.90105E-05	0	0	0	
0.1155	-0.0129431	-8.77317E-05	0.00107263	5.99907E-05	0	0	0	
0.115667	0.0312393	-0.000357514	0.000849766	5.95198E-05	0	0	0	
0.115833	-0.0341708	0.00121931	0.00067978	4.78522E-05	0	0	0	
0.116	0.0329548	-0.0020914	0.000670997	4.1109E-05	0	0	0	
0.116167	-0.0363895	0.0019179	0.000680007	4.4725E-05	0	0	0	
0.116333	0.0340762	-0.00125082	0.00066227	4.36184E-05	0	0	0	
0.1165	-0.0223591	0.00209553	0.000626424	4.04423E-05	0	0	0	
0.116667	0.00932377	-0.00202023	0.000525823	4.02243E-05	0	0	0	
0.116833	0.000788214	0.00141625	0.000339263	4.37118E-05	0	0	0	
0.117	-0.00826643	-0.000175213	0.000201438	4.02841E-05	0	0	0	
0.117167	0.00906682	-0.000673238	0.000154231	4.0532E-05	0	0	0	
0.117333	-0.00362993	0.000526986	0.000171324	4.39795E-05	0	0	0	
0.1175	-0.000560848	-6.42897E-05	0.00016461	4.16355E-05	0	0	0	
0.117667	-0.00468385	8.51337E-05	0.000146317	2.77608E-05	0	0	0	
0.117833	0.00933933	-0.000195754	0.000161824	1.27071E-05	0	0	0	
0.118	-0.00750891	0.00162234	0.000212873	1.13578E-05	0	0	0	
0.118167	0.0093429	-0.00320905	0.000244686	2.27304E-05	0	0	0	
0.118333	-0.00236786	0.00328069	0.00025463	4.32594E-05	0	0	0	
0.1185	-0.00557683	-0.0022108	0.000236389	5.52406E-05	0	0	0	
0.118667	0.00181333	0.00109311	0.000245445	5.80064E-05	0	0	0	
0.118833	0.00317506	-0.000153073	0.000266517	5.09029E-05	0	0	0	
0.119	-0.0022955	-0.000209022	0.000290087	3.80259E-05	0	0	0	
0.119167	0.00267616	0.000281694	0.00025508	2.52676E-05	0	0	0	
0.119333	0.00218403	-1.65659E-05	0.000198906	2.06749E-05	0	0	0	
0.1195	-0.0110017	7.78469E-05	0.000213391	2.56938E-05	0	0	0	
0.119667	0.00987771	0.000630827	0.000223675	2.83163E-05	0	0	0	
0.119833	0.00793201	-0.00105589	0.000262797	2.66764E-05	0	0	0	
0.12	-0.018867	0.000904206	0.000238178	2.75774E-05	0	0	0	
0.120167	0.0137443	0.000184529	0.000281354	3.56399E-05	0	0	0	
0.120333	-0.00590038	-5.30003E-05	0.000286716	4.56967E-05	0	0	0	
0.1205	0.00770078	0.00164864	0.000238966	4.74407E-05	0	0	0	
0.120667	-0.0102833	-0.00178758	0.000192255	4.36981E-05	0	0	0	
0.120833	0.00628597	0.00106464	0.000159838	3.40835E-05	0	0	0	
0.121	-0.00899563	-0.000666626	0.000201271	2.69451E-05	0	0	0	
0.121167	0.0205863	-9.35181E-05	0.000269927	1.6903E-05	0	0	0	
0.121333	-0.0220744	-6.85208E-05	0.00035525	1.41503E-05	0	0	0	
0.1215	0.0132969	0.0014425	0.00038542	2.27215E-05	0	0	0	
0.121667	-0.00957432	-0.00413669	0.00032351	4.06221E-05	0	0	0	
0.121833	0.0124701	0.00323408	0.000251376	5.73188E-05	0	0	0	
0.122	-0.0107704	-0.00123654	0.000222815	5.849E-05	0	0	0	
0.122167	0.0054612	-0.00066567	0.000218572	4.68705E-05	0	0	0	
0.122333	-0.0022863	0.00066867	0.000205187	2.80883E-05	0	0	0	
0.1225	0.00309533	-0.00013913	0.000185736	1.53228E-05	0	0	0	
0.122667	-0.00504602	-0.000653303	0.000210113	1.06687E-05	0	0	0	
0.122833	0.00770206	0.00102387	0.000250791	1.25043E-05	0	0	0	
0.123	-0.00461597	-0.000595773	0.000260429	1.3126E-05	0	0	0	
0.123167	-0.00193844	0.000912487	0.000209896	2.26907E-05	0	0	0	
0.123333	0.00723339	-0.000397898	0.000161442	2.92087E-05	0	0	0	
0.1235	-0.00561288	0.00065998	0.000139126	3.57451E-05	0	0	0	
0.123667	-0.00106555	-0.00147022	0.000155609	3.60364E-05	0	0	0	
0.123833	0.00730149	0.00223327	0.000157902	4.06371E-05	0	0	0	
0.124	-0.00336649	-0.000895437	0.000148381	4.39738E-05	0	0	0	
0.124167	-0.00853447	0.00088315	0.000174818	4.50512E-05	0	0	0	
0.124333	0.00432137	-0.000730888	0.000160535	4.12747E-05	0	0	0	
0.1245	0.00830641	-0.000338828	0.00020376	3.39865E-05	0	0	0	
0.124667	-0.00926354	-0.000152819	0.000204141	2.44034E-05	0	0	0	
0.124833	0.00102422	0.000584803	0.000211828	1.43313E-05	0	0	0	
0.125	-0.00234135	-7.89726E-05	0.000168428	1.37542E-05	0	0	0	
0.125167	0.00876758	-0.000495976	0.000121584	1.38094E-05	0	0	0	
0.125333	-0.00294494	-0.000374666	0.000140187	1.29218E-05	0	0	0	
0.1255	-0.00761865	0.000186577	0.000187392	1.04804E-05	0	0	0	
0.125667	0.00425149	-0.000500659	0.000188791	8.47007E-06	0	0	0	
0.125833	0.00729773	0.000629928	0.000172043	1.11691E-05	0	0	0	
0.126	-0.00943356	0.0002193	0.000136797	1.29773E-05	0	0	0	
0.126167	0.00659492	-0.000585734	0.000155831	1.6115E-05	0	0	0	
0.126333	-0.00844895	0.000198065	0.000165777	1.46226E-05	0	0	0	
0.1265	0.013533	0.000320107	0.000189421	1.10252E-05	0	0	0	
0.126667	-0.0142348	-0.000322426	0.000211825	7.90048E-06	0	0	0	
0.126833	0.0109891	-0.000306572	0.000248472	7.16692E-06	0	0	0	
0.127	-0.0107447	0.00098434	0.000246574	1.174E-05	0	0	0	
0.127167	0.0101603	-0.000732853	0.000244277	1.6929E-05	0	0	0	
0.127333	-0.00516535	0.000300562	0.000197689	2.39269E-05	0	0	0	
0.1275	0.00106102	-9.69216E-05	0.000145399	3.27296E-05	0	0	0	
0.127667	-0.00447534	-0.000997121	8.51332E-05	3.99935E-05	0	0	0	
0.127833	0.00999447	0.000304643	8.86487E-05	4.06284E-05	0	0	0	
0.128	-0.0113351	0.00050636	0.000135361	2.88515E-05	0	0	0	
0.128167	0.00463708	-0.000787157	0.000173311	1.87471E-05	0	0	0	
0.128333	-0.00106028	0.000672398	0.000151448	1.41954E-05	0	0	0	
0.1285	0.00247512	-0.000214699	9.85577E-05	2.24969E-05	0	0	0	
0.128667	-0.00801205	-0.000248699	9.30396E-05	2.60668E-05	0	0	0	
0.128833	0.0113804	-7.54851E-05	0.000149802	2.1897E-05	0	0	0	
0.129	-0.0103423	0.000545572	0.000219999	1.40696E-05	0	0	0	
0.129167	0.00560056	-0.00041009	0.000242255	1.28746E-05	0	0	0	
0.129333	-0.00163295	0.000265453	0.000197912	1.2585E-05	0	0	0	
0.1295	-0.00308896	0.00143156	0.000132229	1.39438E-05	0	0	0	
0.129667	0.00500198	-0.000901344	8.3675E-05	1.77284E-05	0	0	0	
0.129833	-0.00571417	0.00163501	8.29154E-05	2.24758E-05	0	0	0	
0.13	-0.00236277	-0.00118386	0.000108811	3.07805E-05	0	0	0	
0.130167	0.0101473	0.000269454	0.000140285	2.93523E-05	0	0	0	
0.130333	-0.00987833	-0.000207152	0.000166799	3.02198E-05	0	0	0	
0.1305	0.00495797	0.000607824	0.000163286	2.04368E-05	0	0	0	
0.130667	-0.00633319	-0.000554081	0.00014708	1.60973E-05	0	0	0	
0.130833	0.00268019	0.000425909	0.000120349	1.38861E-05	0	0	0	
0.131	-0.00394376	0.00053813	0.00010991	1.48388E-05	0	0	0	
0.131167	0.00962322	-0.0019533	0.000157219	2.07563E-05	0	0	0	
0.131333	-0.0125697	0.00108402	0.000234766	2.4427E-05	0	0	0	
0.1315	0.00470558	0.00071913	0.000274541	2.57769E-05	0	0	0	
0.131667	0.00439552	-0.00194579	0.000217774	2.52408E-05	0	0	0	
0.131833	-0.00419568	0.00171801	0.000200138	2.99624E-05	0	0	0	
0.132	-0.0046495	-0.000124617	0.000282234	3.56731E-05	0	0	0	
0.132167	0.00790346	0.000264465	0.000370261	3.69018E-05	0	0	0	
0.132333	-0.00252916	-0.00137096	0.000329509	3.62387E-05	0	0	0	
0.1325	0.000591826	0.00169089	0.000178842	3.74265E-05	0	0	0	
0.132667	0.00445182	-0.0018885	0.000103499	3.94907E-05	0	0	0	
0.132833	-0.0110077	0.000595092	0.000106932	3.42136E-05	0	0	0	
0.133	0.0111632	-6.12134E-05	0.000165335	2.41394E-05	0	0	0	
0.133167	-0.00408208	0.00113348	0.000214487	1.28398E-05	0	0	0	
0.133333	-0.00277773	-0.00111842	0.000247262	1.27582E-05	0	0	0	
0.1335	0.00459887	0.00182725	0.000222664	2.03632E-05	0	0	0	
0.133667	-0.00285907	-0.00165346	0.000160332	3.09114E-05	0	0	0	
0.133833	-0.000326996	0.00125674	0.000105831	3.38625E-05	0	0	0	
0.134	-0.000873596	-0.00136397	8.69621E-05	3.19606E-05	0	0	0	
0.134167	0.00283233	0.000547737	9.65572E-05	2.88845E-05	0	0	0	
0.134333	-0.00408122	-0.00030643	0.000116859	2.73404E-05	0	0	0	
0.1345	0.00416322	-1.85569E-05	0.000125006	2.1491E-05	0	0	0	
0.134667	-0.00234656	-6.60068E-05	0.000110137	1.50578E-05	0	0	0	
0.134833	0.00671337	-0.000892998	8.97733E-05	1.096E-05	0	0	0	
0.135	-0.00874709	0.000514867	0.000122099	1.55646E-05	0	0	0	
0.135167	-0.00130555	0.000260496	0.00012441	1.31282E-05	0	0	0	
0.135333	0.0123363	-0.0017213	0.00012724	1.65969E-05	0	0	0	
0.1355	-0.0058383	0.00122176	0.000144826	2.25694E-05	0	0	0	
0.135667	-0.00371932	-0.000320674	0.000218277	2.66664E-05	0	0	0	
0.135833	0.0057425	0.000717042	0.000233704	2.36059E-05	0	0	0	
0.136	2.31264E-05	-0.00112472	0.000185019	1.9126E-05	0	0	0	
0.136167	-0.00577088	0.0011321	0.000116238	2.33548E-05	0	0	0	
0.136333	0.00642119	-0.00212762	0.000101856	3.2449E-05	0	0	0	
0.1365	-0.00529536	0.00213742	0.000113402	4.142E-05	0	0	0	
0.136667	8.59838E-05	-0.001865	0.000132115	4.27377E-05	0	0	0	
0.136833	0.00674827	0.00177318	0.000145065	4.00424E-05	0	0	0	
0.137	-0.00268442	-0.00131262	0.00013564	3.49954E-05	0	0	0	
0.137167	-0.00461099	0.000350838	0.000126448	3.2673E-05	0	0	0	
0.137333	0.00744039	-0.00162761	0.00011834	2.85154E-05	0	0	0	
0.1375	-0.00443038	0.00126442	0.000119881	3.16765E-05	0	0	0	
0.137667	-0.000850233	-0.000457807	0.000127562	3.74816E-05	0	0	0	
0.137833	0.00502455	0.0012245	0.000144248	4.03241E-05	0	0	0	
0.138	-0.00396403	-0.000328296	0.000172641	3.10516E-05	0	0	0	
0.138167	0.00190981	0.000309576	0.00014132	1.97933E-05	0	0	0	
0.138333	0.00142413	-0.000681004	0.000106503	1.33969E-05	0	0	0	
0.1385	-0.00397248	0.000833024	8.05743E-05	1.45735E-05	0	0	0	
0.138667	0.00601185	-0.000227869	9.34576E-05	1.92695E-05	0	0	0	
0.138833	-0.00262525	0.000420851	9.68968E-05	2.16918E-05	0	0	0	
0.139	-0.000451976	0.000220296	9.99312E-05	1.98805E-05	0	0	0	
0.139167	-0.000740084	0.000618516	9.12269E-05	1.53155E-05	0	0	0	
0.139333	0.0010777	-0.000651159	6.98028E-05	1.37164E-05	0	0	0	
0.1395	3.53582E-05	0.00170669	5.22653E-05	1.78553E-05	0	0	0	
0.139667	-0.00153236	-0.000501495	4.70429E-05	2.66041E-05	0	0	0	
0.139833	0.00369397	0.000270931	4.76497E-05	2.72621E-05	0	0	0	
0.14	-0.00465918	0.00011672	5.97422E-05	1.89984E-05	0	0	0	
0.140167	0.00477694	0.000387946	7.347E-05	9.59098E-06	0	0	0	
0.140333	-0.00563266	-0.000645757	9.42618E-05	8.89807E-06	0	0	0	
0.1405	0.00387152	0.000867606	9.18451E-05	1.30077E-05	0	0	0	
0.140667	-0.00149344	-0.000141127	8.9344E-05	1.78386E-05	0	0	0	
0.140833	0.000207926	-1.00737E-05	7.63635E-05	1.97776E-05	0	0	0	
0.141	-0.00199409	-0.00049275	0.000105691	1.52861E-05	0	0	0	
0.141167	-0.000901993	0.00175943	0.000131641	1.74438E-05	0	0	0	
0.141333	0.000537765	-0.00158577	0.000128638	2.32396E-05	0	0	0	
0.1415	0.0032304	9.25285E-05	8.92961E-05	2.60151E-05	0	0	0	
0.141667	-0.00572573	0.00124399	8.77471E-05	2.62145E-05	0	0	0	
0.141833	0.00458287	-0.00201685	0.000116799	2.73953E-05	0	0	0	
0.142	0.00141894	0.000856891	0.000113592	3.49707E-05	0	0	0	
0.142167	-0.00641038	0.000233554	9.7312E-05	2.86128E-05	0	0	0	
0.142333	0.00386939	-0.000312037	0.000100258	2.04557E-05	0	0	0	
0.1425	0.00347032	-0.000551562	0.000112795	1.5453E-05	0	0	0	
0.142667	-0.00333015	0.00044174	0.000114669	1.78274E-05	0	0	0	
0.142833	0.00125771	-0.00014269	9.74993E-05	1.71715E-05	0	0	0	
0.143	-0.0018305	-0.000507376	9.21277E-05	1.91492E-05	0	0	0	
0.143167	0.00473999	0.000266182	8.08119E-05	1.98802E-05	0	0	0	
0.143333	-0.00539161	0.00102165	0.000112364	2.26378E-05	0	0	0	
0.1435	0.00279746	-0.000870322	0.00012824	2.04267E-05	0	0	0	
0.143667	-0.00326248	0.00177177	0.000141506	2.35152E-05	0	0	0	
0.143833	0.00464396	-0.00189923	0.000127085	2.70011E-05	0	0	0	
0.144	-0.00198578	0.001126	0.000111006	3.08859E-05	0	0	0	
0.144167	0.000281414	-0.00119094	8.65251E-05	2.90893E-05	0	0	0	
0.144333	-0.00377976	0.00179448	5.87273E-05	2.78813E-05	0	0	0	
0.1445	0.00224339	-0.00143329	8.28304E-05	3.09629E-05	0	0	0	
0.144667	-0.00221441	0.000680615	0.000130344	3.15392E-05	0	0	0	
0.144833	0.00457191	-0.00101382	0.00016484	2.89086E-05	0	0	0	
0.145	-0.00682814	0.00112262	0.000155114	2.15642E-05	0	0	0	
0.145167	0.00576052	-0.00103185	0.000131504	2.38908E-05	0	0	0	
0.145333	-0.00405683	0.00115977	0.000108782	2.72752E-05	0	0	0	
0.1455	-0.00137122	-0.00198293	8.66457E-05	3.44337E-05	0	0	0	
0.145667	0.00720837	0.000979063	8.76931E-05	3.48577E-05	0	0	0	
0.145833	-0.00516091	0.000290817	0.000128439	3.13902E-05	0	0	0	
0.146	-0.00332356	-0.000110286	0.000226007	2.35769E-05	0	0	0	
0.146167	0.00749884	-0.0009683	0.000292284	1.65531E-05	0	0	0	
0.146333	-0.00714874	0.00141088	0.00027933	1.88726E-05	0	0	0	
0.1465	0.00417715	-0.000893778	0.000202725	2.5078E-05	0	0	0	
0.146667	-0.00117888	0.00110874	0.000118222	3.34612E-05	0	0	0	
0.146833	-0.00139565	-0.0015548	6.48246E-05	3.58515E-05	0	0	0	
0.147	0.00441952	0.0015515	6.36008E-05	3.78525E-05	0	0	0	
0.147167	-0.00296295	-0.000573628	0.000110281	3.42567E-05	0	0	0	
0.147333	-0.00271864	-0.000579027	0.000163943	2.85381E-05	0	0	0	
0.1475	0.00662363	8.17704E-05	0.00016377	2.50136E-05	0	0	0	
0.147667	-0.0032959	0.000537695	0.000134533	2.80314E-05	0	0	0	
0.147833	-0.000261368	-0.000345639	9.43468E-05	3.02041E-05	0	0	0	
0.148	0.00436536	-0.000433624	9.22982E-05	2.2865E-05	0	0	0	
0.148167	-0.00604574	0.000844179	0.000103186	1.76428E-05	0	0	0	
0.148333	0.00510823	-0.000669394	0.000130983	1.64795E-05	0	0	0	
0.1485	0.0021089	-0.00101053	0.000154192	1.77882E-05	0	0	0	
0.148667	-0.00468796	0.00130546	0.000205201	2.13084E-05	0	0	0	
0.148833	0.00589838	0.00025189	0.000244584	1.98985E-05	0	0	0	
0.149	-0.0031831	-0.000670805	0.000211474	2.08307E-05	0	0	0	
0.149167	0.00116633	0.000960965	0.000146635	2.12042E-05	0	0	0	
0.149333	-0.00417637	-0.000767657	0.000100078	2.91069E-05	0	0	0	
0.1495	0.00371525	0.000376469	0.000130819	3.32078E-05	0	0	0	
0.149667	0.00818852	-0.00043375	0.000137504	2.53729E-05	0	0	0	
0.149833	-0.011542	0.00071357	0.000162851	2.20258E-05	0	0	0	
0.15	0.000576195	-1.72156E-05	0.000161551	1.99686E-05	0	0	0	
0.150167	0.00984507	-0.00125964	0.000153726	2.32373E-05	0	0	0	
0.150333	-0.0124779	0.00139104	0.000161795	2.85747E-05	0	0	0	
0.1505	0.0135959	-0.000865978	0.000206844	3.9262E-05	0	0	0	
0.150667	-0.00985264	-0.000550947	0.000259569	4.21158E-05	0	0	0	
0.150833	0.00709771	0.000418132	0.000231853	3.26409E-05	0	0	0	
0.151	-0.00577888	0.000795854	0.000179632	2.39745E-05	0	0	0	
0.151167	0.00774182	-0.00205202	0.000147083	2.95483E-05	0	0	0	
0.151333	-0.00682335	0.00235703	0.000174462	4.07288E-05	0	0	0	
0.1515	0.00731421	-0.00150418	0.000219168	4.36359E-05	0	0	0	
0.151667	-0.0044497	0.000150104	0.000239717	3.54734E-05	0	0	0	
0.151833	0.00342944	0.000427449	0.000199466	2.32158E-05	0	0	0	
0.152	-0.000848523	0.000313082	0.000130664	1.57912E-05	0	0	0	
0.152167	0.00051556	-0.00178286	8.64134E-05	1.94302E-05	0	0	0	
0.152333	0.00124335	0.00150597	9.7083E-05	2.58242E-05	0	0	0	
0.1525	-0.00203804	-6.50707E-05	0.000125979	3.05093E-05	0	0	0	
0.152667	0.000331282	0.000239974	0.000154966	2.36196E-05	0	0	0	
0.152833	0.00178056	-0.000260004	0.000176067	1.58364E-05	0	0	0	
0.153	-0.00277227	-0.00012213	0.000176835	1.06945E-05	0	0	0	
0.153167	0.00386255	-0.000538778	0.000147954	9.82345E-06	0	0	0	
0.153333	-0.00175532	-8.37871E-05	0.000113032	8.22034E-06	0	0	0	
0.1535	0.00227473	5.30836E-05	0.000100091	7.12583E-06	0	0	0	
0.153667	-0.00127884	-0.00100554	0.000116757	1.39051E-05	0	0	0	
0.153833	-0.000390224	0.00112114	0.00012535	1.95752E-05	0	0	0	
0.154	0.0010405	-0.000886314	0.000113572	2.4141E-05	0	0	0	
0.154167	-0.00177627	0.000283731	8.67658E-05	1.96798E-05	0	0	0	
0.154333	0.00186083	0.000773584	7.75665E-05	1.76113E-05	0	0	0	
0.1545	-0.00373361	-0.000702892	0.000114848	1.48934E-05	0	0	0	
0.154667	0.00413728	-0.000932888	0.000189183	1.38452E-05	0	0	0	
0.154833	-0.000616663	0.000792628	0.000262091	1.59287E-05	0	0	0	
0.155	-0.0010246	0.000226124	0.000291924	1.48785E-05	0	0	0	
0.155167	0.00226401	-0.000666094	0.000258554	1.56445E-05	0	0	0	
0.155333	-0.00268712	0.000934103	0.000179209	1.51095E-05	0	0	0	
0.1555	-0.000634954	-0.000438324	9.9513E-05	1.79944E-05	0	0	0	
0.155667	0.00430497	-0.00019587	6.20958E-05	1.56212E-05	0	0	0	
0.155833	-0.00417916	1.17851E-05	7.08356E-05	1.24646E-05	0	0	0	
0.156	0.00487314	0.000699046	9.20978E-05	1.17598E-05	0	0	0	
0.156167	-0.00628766	-0.00111979	0.000112989	1.69441E-05	0	0	0	
0.156333	-3.18819E-05	0.00135162	0.000133035	2.02565E-05	0	0	0	
0.1565	0.00404707	-0.00168278	0.000152536	2.40309E-05	0	0	0	
0.156667	0.0075842	0.00117033	0.000131786	2.96755E-05	0	0	0	
0.156833	-0.0246049	-0.000436945	0.000193169	3.15963E-05	0	0	0	
0.157	0.0269379	0.000801684	0.000463215	2.85702E-05	0	0	0	
0.157167	0.00154427	-0.00190315	0.000697073	2.43654E-05	0	0	0	
0.157333	-0.00332738	0.00239304	0.000715239	3.07181E-05	0	0	0	
0.1575	-0.0193097	0.00129289	0.000794841	3.92448E-05	0	0	0	
0.157667	0.0190371	-0.00202705	0.000861848	4.95219E-05	0	0	0	
0.157833	-0.0153092	-0.000146576	0.000889169	4.54476E-05	0	0	0	
0.158	0.0307061	-0.000212769	0.000616748	3.57271E-05	0	0	0	
0.158167	-0.0234062	6.64065E-06	0.000487083	2.88511E-05	0	0	0	
0.158333	-0.01052	0.00159595	0.000417816	3.36526E-05	0	0	0	
0.1585	0.0277494	0.000243047	0.000405187	3.87509E-05	0	0	0	
0.158667	-0.0266777	-0.00121084	0.000487685	4.58652E-05	0	0	0	
0.158833	0.00798766	-0.00102056	0.00064798	5.49755E-05	0	0	0	
0.159	0.00229528	0.00119492	0.000608103	6.15275E-05	0	0	0	
0.159167	0.00224332	-0.00186919	0.000415843	5.32524E-05	0	0	0	
0.159333	1.5679E-06	0.00203294	0.000263861	4.1696E-05	0	0	0	
0.1595	-0.00760409	-0.000840708	0.000230917	3.88207E-05	0	0	0	
0.159667	0.00811099	0.000109265	0.000227018	4.88897E-05	0	0	0	
0.159833	-0.00173023	-0.000763988	0.000152826	5.48161E-05	0	0	0	
0.16	-0.00319313	0.000985532	0.000159796	5.20085E-05	0	0	0	
0.160167	0.00290788	-0.000407655	0.000136475	3.87156E-05	0	0	0	
0.160333	0.00376673	-0.000714102	0.000142082	2.46262E-05	0	0	0	
0.1605	-0.00621429	0.00063109	0.000128646	2.00582E-05	0	0	0	
0.160667	-0.00642875	-0.000229753	0.000118369	2.15538E-05	0	0	0	
0.160833	0.0146286	-0.000177568	0.000218926	2.37759E-05	0	0	0	
0.161	-0.00769676	0.000252419	0.000299842	2.16407E-05	0	0	0	
0.161167	-0.00176529	0.000810977	0.00029672	1.6119E-05	0	0	0	
0.161333	0.00775479	-0.0018416	0.000221556	1.89952E-05	0	0	0	
0.1615	-0.0056117	0.00223637	0.000179558	2.58272E-05	0	0	0	
0.161667	-0.00737502	-0.00284479	0.000170064	3.88648E-05	0	0	0	
0.161833	0.0122722	0.000967967	0.000187266	4.24614E-05	0	0	0	
0.162	-0.0070243	9.20971E-05	0.000166211	3.65696E-05	0	0	0	
0.162167	0.00564707	-0.000162625	0.000174634	2.52803E-05	0	0	0	
0.162333	-0.000834523	-0.000744718	0.000149535	1.54607E-05	0	0	0	
0.1625	-0.00270873	-0.000109248	0.00016181	1.35163E-05	0	0	0	
0.162667	0.00190863	-0.000700552	0.000161673	1.12808E-05	0	0	0	
0.162833	0.00351771	-0.000386933	0.000127227	1.17704E-05	0	0	0	
0.163	-0.0141158	0.00141782	0.000112457	1.8378E-05	0	0	0	
0.163167	0.0243312	-0.00113028	0.000192041	2.75971E-05	0	0	0	
0.163333	-0.0106904	-6.78674E-05	0.000309146	2.8954E-05	0	0	0	
0.1635	-0.0030994	0.000419212	0.000317228	2.50591E-05	0	0	0	
0.163667	-0.000819836	-0.00155996	0.00024503	2.36259E-05	0	0	0	
0.163833	0.0121337	0.00138643	0.000144552	3.22901E-05	0	0	0	
0.164	0.00175694	0.00016197	0.000211958	3.02652E-05	0	0	0	
0.164167	-0.0109207	8.63346E-05	0.000256688	2.89006E-05	0	0	0	
0.164333	-0.00384411	0.000282537	0.000304357	2.36996E-05	0	0	0	
0.1645	0.0195862	-0.000459144	0.000279689	2.26508E-05	0	0	0	
0.164667	-0.0120249	0.001182	0.000280056	2.2107E-05	0	0	0	
0.164833	0.00475774	-0.000922711	0.000289756	2.41045E-05	0	0	0	
0.165	-0.00416294	0.000317748	0.000233684	2.90229E-05	0	0	0	
0.165167	-0.000992714	0.00054301	0.000156491	2.26363E-05	0	0	0	
0.165333	0.0076987	-9.22647E-05	9.91972E-05	1.3433E-05	0	0	0	
0.1655	-0.00377659	-0.000104055	0.000114408	1.05745E-05	0	0	0	
0.165667	-0.00718779	0.00066551	0.000233245	1.24128E-05	0	0	0	
0.165833	0.0122137	-0.000338509	0.000296866	1.31893E-05	0	0	0	
0.166	-0.00657293	-0.000945718	0.000302016	1.09571E-05	0	0	0	
0.166167	-0.00440116	0.000882528	0.000301121	1.63781E-05	0	0	0	
0.166333	0.014819	0.000520126	0.000314775	1.93908E-05	0	0	0	
0.1665	-0.0139007	-0.000238655	0.000327119	2.24618E-05	0	0	0	
0.166667	0.00393886	-0.00103103	0.000263625	1.60957E-05	0	0	0	
0.166833	0.00744418	0.000658141	0.00023895	1.43832E-05	0	0	0	
0.167	-0.0135954	-0.000740723	0.000218697	1.35185E-05	0	0	0	
0.167167	0.0178299	0.000946143	0.000249591	2.11366E-05	0	0	0	
0.167333	-0.0125709	-0.000836687	0.000275999	2.81736E-05	0	0	0	
0.1675	0.0053092	0.00149659	0.00027941	3.08441E-05	0	0	0	
0.167667	-0.00518594	-0.000869253	0.000217573	2.9885E-05	0	0	0	
0.167833	0.00459601	0.00123092	0.000180018	2.50086E-05	0	0	0	
0.168	0.000852306	-0.00151249	0.00017397	2.58131E-05	0	0	0	
0.168167	-0.00352325	0.0009446	0.000167552	2.61444E-05	0	0	0	
0.168333	0.00363994	-0.000707691	0.000133972	2.41884E-05	0	0	0	
0.1685	-0.00149619	0.000974245	0.000132107	2.35609E-05	0	0	0	
0.168667	0.0138925	-0.000913782	0.000165203	2.41685E-05	0	0	0	
0.168833	-0.0514147	0.00220828	0.000339122	2.98406E-05	0	0	0	
0.169	0.0538254	-0.0017444	0.000661884	3.80978E-05	0	0	0	
0.169167	-0.00644322	-0.0007029	0.000805339	3.18183E-05	0	0	0	
0.169333	-0.0225481	0.0017276	0.000821566	2.81991E-05	0	0	0	
0.1695	0.00316933	-0.000617995	0.000994766	2.51071E-05	0	0	0	
0.169667	0.00949684	0.00115549	0.00120826	3.48812E-05	0	0	0	
0.169833	0.0102897	-0.000744041	0.00107051	3.23892E-05	0	0	0	
0.17	-0.0233951	0.00253515	0.000697406	4.02103E-05	0	0	0	
0.170167	0.0196886	-0.00192349	0.000692647	5.35639E-05	0	0	0	
0.170333	-0.0255945	6.51693E-05	0.000878827	5.57455E-05	0	0	0	
0.1705	0.0671089	-0.00239293	0.00102497	4.4328E-05	0	0	0	
0.170667	-0.0786646	0.00458005	0.00108083	3.976E-05	0	0	0	
0.170833	0.0416643	-0.0012598	0.00119587	5.4014E-05	0	0	0	
0.171	-0.0155634	0.00288181	0.00108414	5.55725E-05	0	0	0	
0.171167	0.0248893	-0.00401141	0.000894166	5.91092E-05	0	0	0	
0.171333	-0.0260132	0.00207954	0.000769855	5.56569E-05	0	0	0	
0.1715	-0.000910313	-0.00197245	0.000641115	6.11996E-05	0	0	0	
0.171667	0.0249243	0.000891452	0.000443882	4.95618E-05	0	0	0	
0.171833	-0.0173068	-0.000790743	0.000355669	3.85699E-05	0	0	0	
0.172	0.0029136	0.0007701	0.000451012	2.5178E-05	0	0	0	
0.172167	0.00193886	-0.000817169	0.000448883	1.92561E-05	0	0	0	
0.172333	-0.00437556	-0.00046478	0.00028443	2.11091E-05	0	0	0	
0.1725	0.00683044	-0.000452396	0.000141085	2.21379E-05	0	0	0	
0.172667	-0.00551029	0.00152421	0.000103652	2.06498E-05	0	0	0	
0.172833	0.00519764	-0.00145527	0.000125921	2.47524E-05	0	0	0	
0.173	0.00505104	0.000288692	0.000109705	3.01559E-05	0	0	0	
0.173167	-0.020638	9.16896E-05	0.000150333	2.53269E-05	0	0	0	
0.173333	0.0193234	0.00018557	0.000240377	1.50313E-05	0	0	0	
0.1735	-0.00026331	-0.00180787	0.000344677	1.62084E-05	0	0	0	
0.173667	-0.00858843	0.00155672	0.000410482	2.79967E-05	0	0	0	
0.173833	-0.00260909	-0.000875017	0.000319177	3.75089E-05	0	0	0	
0.174	0.0200288	4.08831E-05	0.000296456	3.34192E-05	0	0	0	
0.174167	-0.0265752	-0.000224469	0.000282975	2.15024E-05	0	0	0	
0.174333	0.0161822	0.000402602	0.000388929	1.20576E-05	0	0	0	
0.1745	-0.00665002	-0.00120868	0.000362818	1.18602E-05	0	0	0	
0.174667	0.00761405	0.00122018	0.000261036	2.08345E-05	0	0	0	
0.174833	-0.00912279	-0.000161521	0.000180152	2.11219E-05	0	0	0	
0.175	0.00868208	-0.000559819	0.000180917	1.96761E-05	0	0	0	
0.175167	-0.00710992	0.000418315	0.000227558	1.31511E-05	0	0	0	
0.175333	0.00578211	-0.000411889	0.000221584	1.26354E-05	0	0	0	
0.1755	-0.00131413	-0.000515616	0.000166667	9.53905E-06	0	0	0	
0.175667	-0.00524497	0.00167601	0.000141849	1.6598E-05	0	0	0	
0.175833	0.00557884	-0.000106474	0.000139472	3.0264E-05	0	0	0	
0.176	-0.000970427	-0.000628684	0.000136718	4.80837E-05	0	0	0	
0.176167	-0.00620918	0.00145221	8.96013E-05	5.05551E-05	0	0	0	
0.176333	0.00300695	-0.00108217	0.000102802	4.47192E-05	0	0	0	
0.1765	0.00396447	0.000315981	0.000187469	3.04456E-05	0	0	0	
0.176667	-0.00130045	0.000471145	0.000253462	1.87774E-05	0	0	0	
0.176833	-0.000687299	-0.000265541	0.000227563	1.24179E-05	0	0	0	
0.177	4.57557E-05	0.000827729	0.00014623	1.00761E-05	0	0	0	
0.177167	-0.00938699	-9.3856E-05	0.000108831	1.15581E-05	0	0	0	
0.177333	0.0142346	-0.000735534	0.000153451	9.93494E-06	0	0	0	
0.1775	-0.00745063	0.000507513	0.000233105	1.13525E-05	0	0	0	
0.177667	-0.00353934	-0.000114241	0.000314222	8.46149E-06	0	0	0	
0.177833	0.00754768	-0.000124674	0.00030563	1.05803E-05	0	0	0	
0.178	-0.00139378	0.000260496	0.000233512	9.54203E-06	0	0	0	
0.178167	-0.00297197	0.0003842	0.000121804	1.01165E-05	0	0	0	
0.178333	0.000528572	-0.00107842	7.05304E-05	1.52781E-05	0	0	0	
0.1785	-0.00361888	0.00168911	0.000103227	2.39511E-05	0	0	0	
0.178667	0.00994209	-0.00116763	0.000176618	3.08775E-05	0	0	0	
0.178833	-0.0117485	0.00165312	0.000220506	3.10371E-05	0	0	0	
0.179	0.00899659	-0.000629729	0.000225984	3.0751E-05	0	0	0	
0.179167	-0.00518698	-0.000397613	0.000193155	3.47269E-05	0	0	0	
0.179333	0.000387134	0.00145475	0.000144759	2.93929E-05	0	0	0	
0.1795	0.00851499	-0.000552917	0.00010689	2.55081E-05	0	0	0	
0.179667	-0.0154127	-0.000182358	0.000139861	1.78088E-05	0	0	0	
0.179833	0.0112518	0.000606049	0.0002048	1.71127E-05	0	0	0	
0.18	-0.00505432	-0.00100856	0.000217865	1.82428E-05	0	0	0	
0.180167	0.00302435	-0.0002513	0.00017108	1.8531E-05	0	0	0	
0.180333	0.00126852	0.000467001	0.000104761	1.88188E-05	0	0	0	
0.1805	-0.000256394	-0.000324904	7.29834E-05	1.34572E-05	0	0	0	
0.180667	0.000204938	-0.00018087	4.0226E-05	1.39851E-05	0	0	0	
0.180833	-0.00504511	0.00137384	5.04239E-05	1.50938E-05	0	0	0	
0.181	0.00473301	-0.0021985	7.60631E-05	2.83039E-05	0	0	0	
0.181167	-0.00288455	0.00019127	9.01699E-05	3.37111E-05	0	0	0	
0.181333	0.00639547	0.00052284	0.000100272	3.46931E-05	0	0	0	
0.1815	-0.00264846	-0.000853299	0.000100194	2.17149E-05	0	0	0	
0.181667	-0.00190812	-3.42925E-05	0.000107482	1.90774E-05	0	0	0	
0.181833	0.00250761	0.0019435	9.08349E-05	2.42931E-05	0	0	0	
0.182	-0.00245709	-0.00299077	6.73256E-05	3.58513E-05	0	0	0	
0.182167	0.0016173	0.00150479	5.58758E-05	4.26281E-05	0	0	0	
0.182333	-0.00022555	0.00022939	4.40498E-05	3.6269E-05	0	0	0	
0.1825	0.000448341	-0.000589654	3.24547E-05	2.46309E-05	0	0	0	
0.182667	0.00143506	-0.000318327	2.32418E-05	1.17456E-05	0	0	0	
0.182833	-0.00116698	0.000268784	2.99249E-05	8.93111E-06	0	0	0	
0.183	-0.000229696	-3.62331E-05	7.76719E-05	7.97405E-06	0	0	0	
0.183167	0.000979212	-0.000316893	0.000120123	8.73764E-06	0	0	0	
0.183333	0.000950907	0.000989809	0.000125119	1.27287E-05	0	0	0	
0.1835	-0.00602591	-0.000469138	0.00010576	1.57087E-05	0	0	0	
0.183667	0.00752869	-0.000531632	0.000116995	1.49599E-05	0	0	0	
0.183833	-0.0068748	0.000475148	0.000170344	1.27675E-05	0	0	0	
0.184	0.00621735	-0.00111689	0.000201496	1.48646E-05	0	0	0	
0.184167	-0.00243286	0.000734073	0.000173448	2.06472E-05	0	0	0	
0.184333	0.00146804	0.000278002	0.00011226	2.14821E-05	0	0	0	
0.1845	-0.00800099	0.000410908	7.49742E-05	1.80317E-05	0	0	0	
0.184667	0.00731952	-0.000926372	9.79794E-05	1.67389E-05	0	0	0	
0.184833	-0.00507364	0.000482698	0.000123162	1.54417E-05	0	0	0	
0.185	0.000227556	-0.000302904	0.000120773	1.60635E-05	0	0	0	
0.185167	0.00354894	0.000485139	8.18849E-05	1.45744E-05	0	0	0	
0.185333	-0.00417597	0.00051771	7.55556E-05	1.4567E-05	0	0	0	
0.1855	-0.00104768	-0.000149267	6.98282E-05	1.26134E-05	0	0	0	
0.185667	0.00187509	-0.000148115	6.72334E-05	7.13991E-06	0	0	0	
0.185833	0.00353111	-0.000605905	5.02467E-05	6.64525E-06	0	0	0	
0.186	-0.0104839	0.000754366	8.79306E-05	6.29607E-06	0	0	0	
0.186167	0.0130145	-0.000919576	0.0001693	1.29282E-05	0	0	0	
0.186333	-0.00659545	0.000446496	0.000239309	1.54723E-05	0	0	0	
0.1865	-0.00127138	0.000147263	0.000223781	1.87206E-05	0	0	0	
0.186667	0.00500231	-0.000277328	0.000159401	1.28357E-05	0	0	0	
0.186833	-0.00393674	0.000171369	0.000110987	1.37344E-05	0	0	0	
0.187	0.00107872	0.000153212	0.000104771	1.21285E-05	0	0	0	
0.187167	-0.0020196	0.000122335	0.000112053	1.20531E-05	0	0	0	
0.187333	0.0028107	-0.000578227	0.000130131	9.74169E-06	0	0	0	
0.1875	-0.000375028	0.00033126	0.000159719	9.77756E-06	0	0	0	
0.187667	0.00040511	-0.000262957	0.000165123	1.24154E-05	0	0	0	
0.187833	-0.00461172	0.000256512	0.000142527	1.05616E-05	0	0	0	
0.188	0.00562262	-0.00018797	0.000116904	7.64327E-06	0	0	0	
0.188167	-0.00614524	-6.10934E-05	0.000114687	9.38815E-06	0	0	0	
0.188333	0.00577084	0.000370259	0.000112913	2.01583E-05	0	0	0	
0.1885	-0.000260527	-2.32489E-05	0.000137386	3.51106E-05	0	0	0	
0.188667	-0.00133112	-0.000637973	0.000185626	4.69284E-05	0	0	0	
0.188833	-0.00541078	0.000190885	0.000212243	4.57574E-05	0	0	0	
0.189	0.0112939	0.00072106	0.00022172	3.43186E-05	0	0	0	
0.189167	-0.00812283	-0.00221056	0.000229328	2.88916E-05	0	0	0	
0.189333	0.00643394	0.00210236	0.000268846	3.47034E-05	0	0	0	
0.1895	-0.0106917	-0.00125111	0.000279265	4.45453E-05	0	0	0	
0.189667	0.0131341	0.000202063	0.000273124	4.32561E-05	0	0	0	
0.189833	-0.00843265	-0.000939222	0.000277416	3.41232E-05	0	0	0	
0.19	0.00753933	0.000764209	0.000281468	2.37264E-05	0	0	0	
0.190167	-0.00961417	-0.00188896	0.00025294	2.19198E-05	0	0	0	
0.190333	0.0105814	0.00204452	0.000220717	2.70852E-05	0	0	0	
0.1905	-0.0100387	-0.00120699	0.000206511	3.24066E-05	0	0	0	
0.190667	0.00621405	8.2379E-05	0.000194953	2.9902E-05	0	0	0	
0.190833	-0.0048836	0.000109337	0.000163803	2.18102E-05	0	0	0	
0.191	0.00632488	0.000435587	0.000123781	1.50774E-05	0	0	0	
0.191167	-0.00164798	-0.00174184	0.000124956	1.59226E-05	0	0	0	
0.191333	-0.00880251	0.00254354	0.000159412	2.55639E-05	0	0	0	
0.1915	0.010296	-0.00176235	0.000199506	3.50848E-05	0	0	0	
0.191667	-0.00315231	0.000567355	0.000193549	3.972E-05	0	0	0	
0.191833	-0.000604338	-7.91954E-05	0.000144364	3.72557E-05	0	0	0	
0.192	-0.00353231	0.000723287	0.000125653	3.29115E-05	0	0	0	
0.192167	0.00574458	-0.000400924	0.000121086	2.48724E-05	0	0	0	
0.192333	-0.000646058	0.00123372	0.000124608	2.01792E-05	0	0	0	
0.1925	-0.0159894	-0.00257539	0.000143475	2.53136E-05	0	0	0	
0.192667	0.0241396	0.00550295	0.000220828	4.39999E-05	0	0	0	
0.192833	-0.0378661	-0.0164958	0.000749785	0.00010709	0	0	0	
0.193	0.0585935	0.0162031	0.00173948	0.000210976	0	0	0	
0.193167	-0.000456932	-0.00143895	0.00243983	0.000287211	0	0	0	
0.193333	-0.0289406	-0.00621488	0.00210689	0.000281505	0	0	0	
0.1935	0.0269837	0.0100331	0.00122593	0.000239504	0	0	0	
0.193667	-0.0298406	-0.00857304	0.000753171	0.000234777	0	0	0	
0.193833	0.00523848	0.00217566	0.000807178	0.000267677	0	0	0	
0.194	0.0402205	0.00444443	0.000827243	0.00027502	0	0	0	
0.194167	-0.0606067	-0.0026611	0.00112953	0.00024842	0	0	0	
0.194333	-0.0243663	-0.00608176	0.000993852	0.000228298	0	0	0	
0.1945	0.0455229	0.00619785	0.00103974	0.000247791	0	0	0	
0.194667	-0.0508261	-0.00354701	0.000712788	0.000276696	0	0	0	
0.194833	0.0408612	-0.00164178	0.000894612	0.00028697	0	0	0	
0.195	-0.0405304	0.00343515	0.00100149	0.000279813	0	0	0	
0.195167	0.058243	-0.000663403	0.00121731	0.000282144	0	0	0	
0.195333	-0.0935065	-9.86504E-06	0.00154825	0.000286999	0	0	0	
0.1955	0.098461	0.000792264	0.00180329	0.000270357	0	0	0	
0.195667	-0.0376092	-0.00370689	0.00170118	0.000239013	0	0	0	
0.195833	-0.00969956	0.00747734	0.00116433	0.00020664	0	0	0	
0.196	0.0395554	-0.00480233	0.000834748	0.000166567	0	0	0	
0.196167	0.0511251	0.0150375	0.000922961	0.000221613	0	0	0	
0.196333	-0.0979689	-0.0157845	0.00111884	0.000233065	0	0	0	
0.1965	0.0345047	0.002725	0.00144727	0.000250477	0	0	0	
0.196667	-0.0205074	-0.000891401	0.00129932	0.000134605	0	0	0	
0.196833	-0.01905	0.00278398	0.00115181	8.23148E-05	0	0	0	
0.197	0.0568272	-0.0033579	0.00080841	4.48475E-05	0	0	0	
0.197167	0.0513416	0.0201045	0.000781174	0.000103645	0	0	0	
0.197333	0.0364507	-0.00438576	0.00112057	0.00016139	0	0	0	
0.1975	-0.0193279	-0.00242861	0.00127698	0.000190736	0	0	0	
0.197667	0.0201314	0.00167835	0.00120531	0.000147925	0	0	0	
0.197833	-0.0235903	0.00205248	0.00085572	7.93299E-05	0	0	0	
0.198	0.018912	-0.00222768	0.00058155	4.88945E-05	0	0	0	
0.198167	-0.00196614	0.00279617	0.000373749	3.99839E-05	0	0	0	
0.198333	-0.0087887	-0.00332035	0.000278781	5.27106E-05	0	0	0	
0.1985	-0.0283846	-0.00206318	0.000293933	5.52964E-05	0	0	0	
0.198667	-0.000398248	-0.000331688	0.000464893	5.2183E-05	0	0	0	
0.198833	-0.00582933	-0.00205523	0.000492462	4.35473E-05	0	0	0	
0.199	0.00274381	0.0055172	0.000392027	4.76859E-05	0	0	0	
0.199167	-0.00960039	-0.00679357	0.000292466	7.91489E-05	0	0	0	
0.199333	0.0116887	0.00446162	0.000365186	0.000104127	0	0	0	
0.1995	-0.0128153	-0.0050834	0.000458902	0.000103894	0	0	0	
0.199667	-0.0108865	0.00260712	0.000481687	0.000103847	0	0	0	
0.199833	0.000502154	-0.004306	0.000422635	8.92165E-05	0	0	0	
0.2	0.0101256	0.00293732	0.000359152	8.92492E-05	0	0	0	
0.200167	-0.0179507	-0.00309793	0.000294889	7.5242E-05	0	0	0	
0.200333	0.0251689	0.00198933	0.000348091	8.41049E-05	0	0	0	
0.2005	-0.0271879	-0.000914011	0.000426027	8.65186E-05	0	0	0	
0.200667	0.0271606	0.00155167	0.00050201	7.65503E-05	0	0	0	
0.200833	-0.0241719	-0.00143294	0.000507346	6.13857E-05	0	0	0	
0.201	0.0193659	0.00121399	0.000475207	5.15793E-05	0	0	0	
0.201167	-0.0128024	-0.000628931	0.000407419	4.84645E-05	0	0	0	
0.201333	0.00630266	0.00102641	0.000305121	3.52485E-05	0	0	0	
0.2015	-0.0061403	-0.00128153	0.000207248	2.99882E-05	0	0	0	
0.201667	0.00332659	0.00145631	0.000132434	2.99873E-05	0	0	0	
0.201833	1.91459E-05	-0.00174607	8.23E-05	4.00824E-05	0	0	0	
0.202	0.000140798	0.000314001	5.4199E-05	3.69731E-05	0	0	0	
0.202167	-0.00107866	0.000916074	2.95751E-05	2.50215E-05	0	0	0	
0.202333	-0.00113978	-0.000213663	3.81949E-05	1.78265E-05	0	0	0	
0.2025	0.000879498	-0.000696585	5.21333E-05	1.83438E-05	0	0	0	
0.202667	0.00117973	0.000434779	7.35509E-05	3.06178E-05	0	0	0	
0.202833	-0.00504838	0.00124913	7.95428E-05	3.33646E-05	0	0	0	
0.203	0.00920275	-0.00265206	9.9148E-05	3.77869E-05	0	0	0	
0.203167	-0.00864365	0.00189561	0.000128578	3.83367E-05	0	0	0	
0.203333	0.0076033	-0.00153188	0.000154353	4.09816E-05	0	0	0	
0.2035	-0.00802163	0.00111895	0.000158515	3.68542E-05	0	0	0	
0.203667	0.00815018	-0.000115738	0.000152951	2.60438E-05	0	0	0	
0.203833	-0.00878842	0.000520392	0.000151917	1.81838E-05	0	0	0	
0.204	0.00642032	-0.0011988	0.000158071	1.61688E-05	0	0	0	
0.204167	-0.00213203	0.00193386	0.000142987	2.2781E-05	0	0	0	
0.204333	-0.000380572	-0.00166189	0.00012227	2.96894E-05	0	0	0	
0.2045	-0.00208648	0.000944598	9.86301E-05	3.20534E-05	0	0	0	
0.204667	0.00186355	-0.000663974	8.31228E-05	2.61954E-05	0	0	0	
0.204833	-0.000907469	0.000851149	9.18087E-05	1.99767E-05	0	0	0	
0.205	0.0036937	0.000341831	0.000114521	1.44532E-05	0	0	0	
0.205167	-0.00660883	0.000121766	0.000140442	1.17312E-05	0	0	0	
0.205333	0.00524686	-0.00109795	0.000139165	1.19604E-05	0	0	0	
0.2055	-0.00273119	0.00037771	0.000118373	1.3814E-05	0	0	0	
0.205667	-0.000294174	0.000492894	0.000119061	1.70968E-05	0	0	0	
0.205833	0.00158093	-0.000258432	0.000122324	1.40235E-05	0	0	0	
0.206	-0.000297103	0.000394574	9.16712E-05	1.52673E-05	0	0	0	
0.206167	-0.00308504	-0.000472491	7.14581E-05	1.54332E-05	0	0	0	
0.206333	0.00755251	0.000205857	8.5593E-05	1.66338E-05	0	0	0	
0.2065	-0.0107915	0.000400573	0.00014036	1.62569E-05	0	0	0	
0.206667	0.00883705	-0.000963408	0.000173934	1.89069E-05	0	0	0	
0.206833	-0.00212751	0.000364715	0.000200056	1.93308E-05	0	0	0	
0.207	0.00420324	-9.6367E-05	0.000179922	1.90293E-05	0	0	0	
0.207167	-0.00794005	-0.000430703	0.000176568	1.89385E-05	0	0	0	
0.207333	0.0074104	0.000933267	0.000155885	2.04248E-05	0	0	0	
0.2075	-0.00102795	-0.0010957	0.000142163	2.05377E-05	0	0	0	
0.207667	0.000577192	0.000687016	9.43295E-05	1.73749E-05	0	0	0	
0.207833	-0.00642232	-0.000650672	6.15498E-05	1.80398E-05	0	0	0	
0.208	0.0108982	-0.00128826	9.19182E-05	1.56143E-05	0	0	0	
0.208167	-0.00943846	0.00256873	0.000147974	2.33092E-05	0	0	0	
0.208333	0.00839045	-0.00183706	0.000183445	3.47667E-05	0	0	0	
0.2085	-0.00381748	-0.000234377	0.000186118	4.2585E-05	0	0	0	
0.208667	-0.000601204	0.000183267	0.000167813	3.83375E-05	0	0	0	
0.208833	0.000289356	2.24769E-05	0.000126635	2.52804E-05	0	0	0	
0.209	0.00398967	-0.000129841	8.37693E-05	1.69027E-05	0	0	0	
0.209167	-0.00590794	-0.000360613	6.45043E-05	1.04605E-05	0	0	0	
0.209333	0.00505707	0.000833872	9.5057E-05	1.13252E-05	0	0	0	
0.2095	-0.00211144	-0.000593722	0.000153407	1.48134E-05	0	0	0	
0.209667	-0.0011713	-0.000386398	0.000201972	1.94769E-05	0	0	0	
0.209833	0.00178569	0.00090127	0.000195246	2.19454E-05	0	0	0	
0.21	0.00193965	-8.79238E-05	0.000133192	1.96993E-05	0	0	0	
0.210167	-0.00388915	0.000408062	7.55781E-05	1.40626E-05	0	0	0	
0.210333	0.00151381	-0.000198487	5.54681E-05	9.21522E-06	0	0	0	
0.2105	-0.00307114	0.000902615	9.69962E-05	1.04046E-05	0	0	0	
0.210667	0.00600054	-0.00116948	0.000138797	1.73447E-05	0	0	0	
0.210833	-0.00687072	0.00112593	0.000186294	2.35425E-05	0	0	0	
0.211	0.00417327	-0.000228015	0.000188137	2.14301E-05	0	0	0	
0.211167	0.00192757	0.000168295	0.000164129	1.57962E-05	0	0	0	
0.211333	-0.00622956	-0.000169765	0.000137094	9.33646E-06	0	0	0	
0.2115	0.00105846	-0.000395433	0.000118143	1.00859E-05	0	0	0	
0.211667	0.00674298	7.21109E-05	0.000101327	1.24987E-05	0	0	0	
0.211833	-0.0105761	4.76115E-05	0.000121631	1.43216E-05	0	0	0	
0.212	0.00632549	-1.18033E-05	0.000140744	1.24294E-05	0	0	0	
0.212167	-0.00213834	0.000897697	0.000149794	1.15811E-05	0	0	0	
0.212333	0.000526368	-0.000837126	9.25895E-05	1.72563E-05	0	0	0	
0.2125	-0.00292312	0.000291113	5.3728E-05	2.11084E-05	0	0	0	
0.212667	0.00488207	-0.000238365	5.57127E-05	2.0226E-05	0	0	0	
0.212833	-0.00485979	0.00022394	9.17033E-05	1.95188E-05	0	0	0	
0.213	0.00252219	0.000661946	0.000106208	2.21879E-05	0	0	0	
0.213167	-0.000704055	-0.000623232	0.0001039	2.64072E-05	0	0	0	
0.213333	-0.00183283	0.000331078	7.19363E-05	2.00934E-05	0	0	0	
0.2135	0.000889284	-0.000537005	7.80925E-05	1.57622E-05	0	0	0	
0.213667	0.00425657	0.000441464	9.03038E-05	1.37755E-05	0	0	0	
0.213833	-0.00635256	0.00110236	0.00011165	1.635E-05	0	0	0	
0.214	0.00157947	-0.000935945	0.000121335	2.12668E-05	0	0	0	
0.214167	0.00205013	0.000531221	0.000104915	2.29657E-05	0	0	0	
0.214333	0.000359818	0.000124898	9.75003E-05	1.85766E-05	0	0	0	
0.2145	-0.00263426	-0.000285368	9.70897E-05	1.38581E-05	0	0	0	
0.214667	-0.00119677	0.000831148	9.59841E-05	1.54578E-05	0	0	0	
0.214833	0.00271431	0.000248333	8.97389E-05	1.77209E-05	0	0	0	
0.215	-0.0016891	-0.00034777	6.26183E-05	1.73329E-05	0	0	0	
0.215167	0.00261678	-0.000532655	4.93318E-05	1.69021E-05	0	0	0	
0.215333	-0.00391401	0.00102383	6.25223E-05	2.36961E-05	0	0	0	
0.2155	-0.00200925	-0.00127633	6.60188E-05	2.83347E-05	0	0	0	
0.215667	0.00310326	0.000717332	7.4365E-05	2.60291E-05	0	0	0	
0.215833	-0.00290008	9.52453E-05	6.36594E-05	1.92388E-05	0	0	0	
0.216	-0.00291816	-0.000680016	8.79852E-05	1.36533E-05	0	0	0	
0.216167	0.00355751	-1.62195E-05	0.000127483	1.06369E-05	0	0	0	
0.216333	-0.00165069	0.000866212	0.000146425	1.29322E-05	0	0	0	
0.2165	-0.00494209	-0.000526315	0.000121844	1.28954E-05	0	0	0	
0.216667	0.00818083	-0.000324726	0.000108338	1.83296E-05	0	0	0	
0.216833	-0.00699092	0.000586514	0.000119459	2.0217E-05	0	0	0	
0.217	0.00586227	-0.000752666	0.000147689	2.34656E-05	0	0	0	
0.217167	-0.00739288	0.00132188	0.000147612	2.32883E-05	0	0	0	
0.217333	0.00694891	-0.000429713	0.00017081	2.17102E-05	0	0	0	
0.2175	-0.00317579	0.000734021	0.000189921	2.23536E-05	0	0	0	
0.217667	0.00062177	0.000231447	0.000171804	1.83131E-05	0	0	0	
0.217833	-0.0016871	-0.000954755	0.000106171	2.00038E-05	0	0	0	
0.218	0.000711399	0.00102686	4.79889E-05	2.67065E-05	0	0	0	
0.218167	0.000229124	-0.000792666	3.77177E-05	3.46178E-05	0	0	0	
0.218333	0.00460775	0.000808465	5.41872E-05	3.4291E-05	0	0	0	
0.2185	-0.00836826	9.78401E-05	8.9985E-05	2.41088E-05	0	0	0	
0.218667	0.00419471	-0.00113535	0.00011937	1.88886E-05	0	0	0	
0.218833	-0.000120582	0.000605159	0.000111406	2.1308E-05	0	0	0	
0.219	-0.00112158	0.000557042	8.03161E-05	2.31904E-05	0	0	0	
0.219167	-0.00266083	-0.000399969	4.25569E-05	2.03682E-05	0	0	0	
0.219333	0.000917489	0.000168754	7.63687E-05	1.24773E-05	0	0	0	
0.2195	0.00357107	0.00163552	0.000112499	1.25768E-05	0	0	0	
0.219667	-0.00505857	-0.00180875	0.000130932	1.99239E-05	0	0	0	
0.219833	-0.00142563	0.00031802	0.00015711	2.35355E-05	0	0	0	
0.22	-0.000138372	0.00159793	0.000117973	2.58248E-05	0	0	0	
0.220167	0.0178795	-0.00170465	0.000214703	2.70459E-05	0	0	0	
0.220333	-0.0229765	0.00145294	0.000245912	3.18637E-05	0	0	0	
0.2205	-0.0114175	0.00077424	0.000547274	4.18869E-05	0	0	0	
0.220667	0.0349233	-0.00112652	0.00072681	4.73809E-05	0	0	0	
0.220833	0.000776545	0.00102794	0.000757325	4.22421E-05	0	0	0	
0.221	-0.0443993	-0.00154433	0.000720461	3.54623E-05	0	0	0	
0.221167	0.0366895	-0.000339089	0.00067105	2.55807E-05	0	0	0	
0.221333	-0.0262613	6.71608E-05	0.000735061	3.13051E-05	0	0	0	
0.2215	0.0402605	-9.40756E-05	0.000667547	2.75827E-05	0	0	0	
0.221667	-0.0265234	0.000608681	0.000644227	2.06997E-05	0	0	0	
0.221833	-0.0144111	-0.00216298	0.000681463	2.08441E-05	0	0	0	
0.222	0.00667128	0.00323125	0.000582428	2.89615E-05	0	0	0	
0.222167	0.023183	-0.00397357	0.000685482	5.07682E-05	0	0	0	
0.222333	-0.0237773	0.0020707	0.000674229	7.23788E-05	0	0	0	
0.2225	0.00123301	0.000416647	0.000656124	7.44846E-05	0	0	0	
0.222667	0.0130855	0.000426326	0.000382617	5.97488E-05	0	0	0	
0.222833	-0.0159777	-0.00173957	0.000257784	3.69387E-05	0	0	0	
0.223	0.0105274	0.0025351	0.000265364	3.70019E-05	0	0	0	
0.223167	-2.66552E-05	-0.0034035	0.000277629	4.98428E-05	0	0	0	
0.223333	-0.0040429	0.0039108	0.000198392	6.10429E-05	0	0	0	
0.2235	-0.00460159	-0.00206675	0.000135347	6.26327E-05	0	0	0	
0.223667	0.00984684	0.00173546	0.000115452	5.33874E-05	0	0	0	
0.223833	-0.00481544	-0.00155927	0.000142327	4.33975E-05	0	0	0	
0.224	0.000246403	0.00235446	0.000119488	3.84227E-05	0	0	0	
0.224167	-0.000412698	-0.00186243	6.86458E-05	3.87365E-05	0	0	0	
0.224333	0.0060959	0.00050326	4.12753E-05	3.48544E-05	0	0	0	
0.2245	-0.0127195	-1.17413E-05	8.83084E-05	2.46256E-05	0	0	0	
0.224667	0.014823	-3.6765E-05	0.000172268	1.88432E-05	0	0	0	
0.224833	-0.0150534	0.000137022	0.000244037	2.47076E-05	0	0	0	
0.225	0.0138032	0.00124267	0.00027282	3.66097E-05	0	0	0	
0.225167	-0.0150587	-0.000573506	0.000282531	4.61519E-05	0	0	0	
0.225333	0.0116337	0.000769621	0.000274238	3.902E-05	0	0	0	
0.2255	-0.00702599	0.000314611	0.000246699	2.91274E-05	0	0	0	
0.225667	0.000378563	-0.00092219	0.000174315	2.47243E-05	0	0	0	
0.225833	0.00131248	0.00142496	0.000124619	2.82784E-05	0	0	0	
0.226	0.00316138	-0.00163672	0.00013352	3.16175E-05	0	0	0	
0.226167	-0.00727312	0.0011363	0.000179704	2.76857E-05	0	0	0	
0.226333	0.00610795	0.00034287	0.000206237	2.57402E-05	0	0	0	
0.2265	-0.00226488	-0.00155253	0.000164143	2.10821E-05	0	0	0	
0.226667	-0.00276881	0.00235777	0.000136233	2.94133E-05	0	0	0	
0.226833	0.0167823	0.000798896	0.000166712	4.16721E-05	0	0	0	
0.227	-0.130387	-0.0176136	0.000550292	9.22189E-05	0	0	0	
0.227167	0.0283838	0.00677982	0.00140753	0.000201686	0	0	0	
0.227333	-0.0159174	-0.00491714	0.0014804	0.000222579	0	0	0	
0.2275	0.00693393	0.00358279	0.00117765	0.00018515	0	0	0	
0.227667	-0.00807837	-0.00249838	0.00033948	9.44144E-05	0	0	0	
0.227833	-0.0158954	0.00410837	0.000239695	0.000125612	0	0	0	
0.228	-0.0191634	-0.0116184	0.000333025	0.000208523	0	0	0	
0.228167	0.0231417	0.010982	0.000554458	0.000281815	0	0	0	
0.228333	-0.0146715	-0.0097445	0.000651522	0.000295928	0	0	0	
0.2285	0.0136938	0.00680249	0.00055935	0.000260032	0	0	0	
0.228667	-0.00552953	-0.00407189	0.000336431	0.000185312	0	0	0	
0.228833	-0.0076383	0.00321165	0.000232355	0.000122247	0	0	0	
0.229	0.0211396	-0.0040261	0.000213251	8.05803E-05	0	0	0	
0.229167	-0.0289233	0.0050307	0.000305738	7.45853E-05	0	0	0	
0.229333	0.0304293	-0.00499389	0.000460165	8.34877E-05	0	0	0	
0.2295	-0.0226538	0.00333274	0.000583027	8.74568E-05	0	0	0	
0.229667	0.0141434	-0.000758353	0.000624595	7.10657E-05	0	0	0	
0.229833	-0.00386415	-0.000517037	0.000513206	4.89026E-05	0	0	0	
0.23	0.00574994	0.00101486	0.000337292	2.50565E-05	0	0	0	
0.230167	-0.0157363	-0.000988001	0.000236147	2.50519E-05	0	0	0	
0.230333	0.0178231	0.00060837	0.000265273	3.37105E-05	0	0	0	
0.2305	-0.0103819	-0.000391957	0.000317347	4.70845E-05	0	0	0	
0.230667	0.00360068	0.000224435	0.000292721	4.78157E-05	0	0	0	
0.230833	0.00206487	0.000180212	0.000222538	3.82503E-05	0	0	0	
0.231	-0.000906361	-0.000390155	0.000145986	2.58787E-05	0	0	0	
0.231167	-0.00545456	-0.000205535	9.75314E-05	1.61127E-05	0	0	0	
0.231333	0.00622482	-9.90399E-05	9.45725E-05	9.10961E-06	0	0	0	
0.2315	-0.000613173	0.000869659	0.000153507	1.13529E-05	0	0	0	
0.231667	0.00166863	-0.000792641	0.000204229	2.3736E-05	0	0	0	
0.231833	-0.00856024	0.000432081	0.000192995	3.52324E-05	0	0	0	
0.232	0.0106599	-0.00026535	0.000174733	3.48474E-05	0	0	0	
0.232167	-0.00782971	0.000171717	0.000168425	2.48931E-05	0	0	0	
0.232333	0.000741737	-0.000554834	0.000202895	2.07442E-05	0	0	0	
0.2325	0.00228717	-3.17257E-05	0.000269336	2.6956E-05	0	0	0	
0.232667	-0.011884	-0.000718857	0.000312154	3.43506E-05	0	0	0	
0.232833	0.0114481	0.000333017	0.000315592	4.21797E-05	0	0	0	
0.233	-0.00492163	-0.000521426	0.00024474	4.78089E-05	0	0	0	
0.233167	-0.00169231	0.00196575	0.000165938	4.8241E-05	0	0	0	
0.233333	0.00345824	-0.00331305	8.90369E-05	4.71269E-05	0	0	0	
0.2335	-0.0123478	0.00388358	0.000109273	5.41798E-05	0	0	0	
0.233667	0.0193799	-0.00268937	0.000216975	6.05781E-05	0	0	0	
0.233833	-0.00844984	0.00153637	0.00030249	6.15466E-05	0	0	0	
0.234	0.00778658	-0.000545693	0.000289861	4.70289E-05	0	0	0	
0.234167	-0.00462986	0.000200759	0.000190794	3.0923E-05	0	0	0	
0.234333	0.00279178	-0.00134503	0.000120351	1.82011E-05	0	0	0	
0.2345	-0.00431716	0.00160636	8.58534E-05	1.9513E-05	0	0	0	
0.234667	0.0130679	-0.000238158	0.000132832	2.83026E-05	0	0	0	
0.234833	-0.00497457	0.000251904	0.000240339	2.65139E-05	0	0	0	
0.235	0.00916879	-0.00372844	0.000279848	3.83366E-05	0	0	0	
0.235167	-0.00416577	0.00154502	0.000239361	4.60079E-05	0	0	0	
0.235333	-0.00150686	-0.000514518	0.000117974	4.86654E-05	0	0	0	
0.2355	0.00467736	0.000867087	7.7578E-05	2.9531E-05	0	0	0	
0.235667	-0.00451366	-3.58842E-05	0.000107499	1.34388E-05	0	0	0	
0.235833	0.0070923	0.00015926	0.000245008	1.61793E-05	0	0	0	
0.236	0.0114966	-0.00233046	0.00035269	2.55069E-05	0	0	0	
0.236167	-0.0102811	0.000577762	0.000352739	3.7922E-05	0	0	0	
0.236333	0.00305687	0.000235701	0.000246032	3.83647E-05	0	0	0	
0.2365	-0.00206505	0.000709212	0.000144664	2.63557E-05	0	0	0	
0.236667	0.00349597	-0.000517703	8.62099E-05	1.8824E-05	0	0	0	
0.236833	-0.00517784	-0.000189869	8.51491E-05	2.27682E-05	0	0	0	
0.237	-0.00274189	0.000734664	0.000106179	2.86691E-05	0	0	0	
0.237167	0.00320466	-0.00152853	0.00010109	3.05454E-05	0	0	0	
0.237333	0.00148402	0.000977293	0.000125032	2.67232E-05	0	0	0	
0.2375	-0.00659944	-0.000403635	0.000135383	2.23372E-05	0	0	0	
0.237667	0.007364	-0.000257999	0.000175807	1.41803E-05	0	0	0	
0.237833	-0.0124242	0.000236142	0.000168902	8.89664E-06	0	0	0	
0.238	0.0145772	0.00259089	0.000189579	1.50856E-05	0	0	0	
0.238167	-0.00851415	-0.00210605	0.000213941	3.13779E-05	0	0	0	
0.238333	0.00243785	0.000659976	0.000221006	3.45796E-05	0	0	0	
0.2385	0.00163694	0.000123357	0.000151236	3.22968E-05	0	0	0	
0.238667	5.04742E-05	-9.12033E-05	0.000101169	2.12535E-05	0	0	0	
0.238833	-0.00287293	1.10413E-06	6.56289E-05	1.52924E-05	0	0	0	
0.239	0.00390488	0.00081894	8.09071E-05	1.22731E-05	0	0	0	
0.239167	-0.005734	-0.00051888	8.00851E-05	1.30005E-05	0	0	0	
0.239333	-0.00454239	0.000192997	8.15025E-05	1.78904E-05	0	0	0	
0.2395	0.00149472	-0.000377198	6.90224E-05	2.35201E-05	0	0	0	
0.239667	0.000820434	0.000302534	6.39193E-05	2.22638E-05	0	0	0	
0.239833	-0.00222975	0.000379735	4.20405E-05	2.01193E-05	0	0	0	
0.24	0.00133308	-0.00103467	5.21889E-05	1.32131E-05	0	0	0	
0.240167	-0.000541465	0.00142862	4.71184E-05	1.78765E-05	0	0	0	
0.240333	-0.00243521	0.000411687	5.94427E-05	2.1085E-05	0	0	0	
0.2405	-0.00412252	-0.0014375	6.15154E-05	2.46756E-05	0	0	0	
0.240667	0.00421947	0.000321195	8.34443E-05	2.20199E-05	0	0	0	
0.240833	-0.00225275	0.000273351	9.33081E-05	1.75902E-05	0	0	0	
0.241	0.00168825	-0.00079831	8.59272E-05	1.48482E-05	0	0	0	
0.241167	-0.00150909	0.00093122	5.95154E-05	1.12525E-05	0	0	0	
0.241333	-0.0018295	-0.000495063	4.15927E-05	1.554E-05	0	0	0	
0.2415	0.000598156	0.000179407	3.53927E-05	1.28706E-05	0	0	0	
0.241667	0.0043552	-0.000710658	3.62653E-05	1.21191E-05	0	0	0	
0.241833	-0.00558239	0.000882448	6.36008E-05	1.29531E-05	0	0	0	
0.242	0.00410647	-0.000672179	8.02628E-05	1.71523E-05	0	0	0	
0.242167	-0.00311174	0.000573028	8.92014E-05	1.68813E-05	0	0	0	
0.242333	0.000554189	-0.000972316	7.44733E-05	1.4604E-05	0	0	0	
0.2425	0.00655583	4.23391E-05	8.35187E-05	1.3025E-05	0	0	0	
0.242667	-0.0105263	-0.000185873	0.000128509	1.43833E-05	0	0	0	
0.242833	-0.00128198	-0.000287391	0.000157618	1.23174E-05	0	0	0	
0.243	0.00506934	0.000112192	0.000195104	9.61215E-06	0	0	0	
0.243167	-0.00444873	-0.000201269	0.000168961	5.47632E-06	0	0	0	
0.243333	0.0021443	0.000468096	0.000135196	7.22715E-06	0	0	0	
0.2435	0.00163396	-0.00128685	8.13254E-05	1.33222E-05	0	0	0	
0.243667	-0.00159884	0.000764776	0.000100328	2.22699E-05	0	0	0	
0.243833	-0.00121545	0.000250336	0.000158398	2.11822E-05	0	0	0	
0.244	9.61034E-05	-0.000197008	0.000203444	2.12591E-05	0	0	0	
0.244167	0.000659359	-2.52054E-05	0.000170616	1.77474E-05	0	0	0	
0.244333	-0.00298691	0.000338069	0.000107122	1.70295E-05	0	0	0	
0.2445	0.00553806	-0.00132156	6.17534E-05	1.80888E-05	0	0	0	
0.244667	-0.00655383	0.00165375	0.000117968	2.34598E-05	0	0	0	
0.244833	0.00800209	-0.000999375	0.000248257	2.91018E-05	0	0	0	
0.245	-0.00167339	0.00210049	0.000336768	3.02928E-05	0	0	0	
0.245167	-0.00365921	-0.00241632	0.000288026	3.71141E-05	0	0	0	
0.245333	0.00466246	0.000824475	0.000175975	3.90654E-05	0	0	0	
0.2455	-0.00368272	0.000260884	0.000117544	3.26215E-05	0	0	0	
0.245667	0.00318993	-0.000897852	0.000132425	2.40167E-05	0	0	0	
0.245833	0.0020396	0.000286476	0.000122603	2.71629E-05	0	0	0	
0.246	-0.00156981	0.000413513	9.14599E-05	2.84859E-05	0	0	0	
0.246167	-0.00302633	-0.00107443	5.44057E-05	2.6235E-05	0	0	0	
0.246333	0.00449725	-0.000378792	6.20559E-05	1.61908E-05	0	0	0	
0.2465	-0.00146339	0.000484915	6.07755E-05	1.59453E-05	0	0	0	
0.246667	6.0691E-06	-0.000550559	5.94699E-05	1.21284E-05	0	0	0	
0.246833	0.000775463	0.000693457	6.21154E-05	1.7484E-05	0	0	0	
0.247	-0.00440661	0.000206204	9.85801E-05	2.19063E-05	0	0	0	
0.247167	-0.00734075	-0.000411271	0.000130852	2.34113E-05	0	0	0	
0.247333	0.0148369	-0.000436016	0.000169082	1.96192E-05	0	0	0	
0.2475	-0.00830396	0.000754407	0.000192119	1.58468E-05	0	0	0	
0.247667	0.00229371	8.46869E-05	0.000233087	1.34372E-05	0	0	0	
0.247833	0.00616919	-0.00031038	0.00024426	1.447E-05	0	0	0	
0.248	-0.00263933	-0.000460326	0.000239787	1.88883E-05	0	0	0	
0.248167	-0.00227889	0.00205129	0.000193523	2.56585E-05	0	0	0	
0.248333	0.00517627	-0.00170949	0.000141292	3.731E-05	0	0	0	
0.2485	-0.008029	0.00147505	0.000134079	4.25008E-05	0	0	0	
0.248667	0.00554289	-0.000347615	0.000135038	4.119E-05	0	0	0	
0.248833	8.98743E-05	-0.000234688	0.000136041	2.86899E-05	0	0	0	
0.249	0.00107288	-0.00129331	7.60272E-05	2.22047E-05	0	0	0	
0.249167	-0.00441004	0.000818038	0.000124382	3.02875E-05	0	0	0	
0.249333	0.00710822	0.00179409	0.000179275	4.8188E-05	0	0	0	
0.2495	-0.000588361	-0.000938849	0.00019402	6.02283E-05	0	0	0	
0.249667	-0.00535748	0.00108945	0.000142519	5.73376E-05	0	0	0	
0.249833	0.00525697	-0.00199434	0.00010034	4.69556E-05	0	0	0	
0.25	-0.00199721	0.00215352	0.000107751	4.22709E-05	0	0	0	
0.250167	0.00121393	-0.00271681	9.18954E-05	4.35624E-05	0	0	0	
0.250333	-0.0007366	0.00252812	8.58391E-05	5.40702E-05	0	0	0	
0.2505	0.00276161	-0.00144446	0.000123218	6.26488E-05	0	0	0	
0.250667	-0.00490954	0.00105509	0.000169737	7.14683E-05	0	0	0	
0.250833	0.00352737	-0.000214793	0.000173133	6.21967E-05	0	0	0	
0.251	-0.00114971	0.000586965	0.000128976	4.40742E-05	0	0	0	
0.251167	0.000938918	-0.000455204	7.39362E-05	2.43199E-05	0	0	0	
0.251333	0.000278063	0.00160641	5.63482E-05	2.56059E-05	0	0	0	
0.2515	-0.00746872	-0.000730272	9.17489E-05	4.5524E-05	0	0	0	
0.251667	0.00193422	0.00174834	0.000119623	7.73439E-05	0	0	0	
0.251833	-0.00485458	0.000392177	0.000124527	9.28643E-05	0	0	0	
0.252	0.00722787	-0.000584415	0.000100776	8.72187E-05	0	0	0	
0.252167	-0.00642158	-0.000199742	0.000112595	6.11996E-05	0	0	0	
0.252333	0.00236526	-0.00045098	0.000179299	3.69311E-05	0	0	0	
0.2525	-0.00436888	0.000110121	0.000262871	3.35397E-05	0	0	0	
0.252667	-0.00486067	-0.000446979	0.000278966	5.23207E-05	0	0	0	
0.252833	-0.00201946	0.00166788	0.000205605	7.31489E-05	0	0	0	
0.253	0.00386939	-0.0015278	0.000123	7.15543E-05	0	0	0	
0.253167	-0.00739174	0.00091914	0.000100536	5.11978E-05	0	0	0	
0.253333	0.0112847	-0.00152178	0.00013138	3.04396E-05	0	0	0	
0.2535	-0.0126918	0.00216714	0.000189056	3.03119E-05	0	0	0	
0.253667	0.00261405	-0.000792016	0.000238	3.39379E-05	0	0	0	
0.253833	-0.00773294	0.00116737	0.000290248	3.51871E-05	0	0	0	
0.254	0.00365469	-0.00181568	0.000251969	3.02077E-05	0	0	0	
0.254167	-0.0049951	0.00164193	0.000190522	3.02749E-05	0	0	0	
0.254333	0.00781299	-0.000748755	0.000124876	2.93723E-05	0	0	0	
0.2545	-0.00570909	2.8302E-05	0.000113031	2.5238E-05	0	0	0	
0.254667	-0.00158425	-0.000701904	0.00012094	1.76133E-05	0	0	0	
0.254833	-0.00649974	0.00067606	0.000130141	1.55527E-05	0	0	0	
0.255	0.0050021	-0.00137773	0.000150908	1.97177E-05	0	0	0	
0.255167	-0.00292304	0.000273177	0.000174546	2.19469E-05	0	0	0	
0.255333	0.00268324	0.000219422	0.000155885	2.00609E-05	0	0	0	
0.2555	-0.00124464	0.000133808	0.000102771	1.39636E-05	0	0	0	
0.255667	-0.00117593	2.19978E-05	4.86561E-05	1.47433E-05	0	0	0	
0.255833	-0.0016735	6.94493E-05	3.64089E-05	2.08472E-05	0	0	0	
0.256	-0.00132777	0.000268215	4.18118E-05	2.37677E-05	0	0	0	
0.256167	-0.00134379	-0.000588443	3.80184E-05	2.3195E-05	0	0	0	
0.256333	0.00326759	0.00044262	3.72934E-05	2.221E-05	0	0	0	
0.2565	-0.00358889	-0.000244099	4.39532E-05	2.17818E-05	0	0	0	
0.256667	-0.0039622	0.000609853	8.8972E-05	2.09959E-05	0	0	0	
0.256833	0.0136312	-0.00138446	0.000148178	2.18159E-05	0	0	0	
0.257	-0.00793018	0.00129678	0.000194057	2.44204E-05	0	0	0	
0.257167	-0.000663637	1.41907E-05	0.000205439	2.4573E-05	0	0	0	
0.257333	0.00812945	-0.000943379	0.00019123	1.99068E-05	0	0	0	
0.2575	-0.00529808	0.000612335	0.000164216	1.47839E-05	0	0	0	
0.257667	2.88523E-05	-8.99951E-05	0.000120053	1.09603E-05	0	0	0	
0.257833	0.000991386	-0.000114775	6.78415E-05	8.56086E-06	0	0	0	
0.258	0.00430985	2.12347E-05	4.59543E-05	5.56344E-06	0	0	0	
0.258167	0.00347877	-0.000832701	7.32803E-05	7.8785E-06	0	0	0	
0.258333	0.00129832	0.000110742	8.78908E-05	1.03016E-05	0	0	0	
0.2585	-0.00135932	-0.00113972	7.84043E-05	1.89881E-05	0	0	0	
0.258667	0.0011595	0.000126587	5.20808E-05	1.86195E-05	0	0	0	
0.258833	0.00015919	0.000240892	5.40329E-05	1.58007E-05	0	0	0	
0.259	0.000351475	-0.000422976	5.24744E-05	1.02842E-05	0	0	0	
0.259167	-0.000725453	-6.83462E-05	4.96909E-05	9.73905E-06	0	0	0	
0.259333	0.0134714	-0.000172194	8.57905E-05	1.21996E-05	0	0	0	
0.2595	-0.00700716	-0.00130987	0.000129973	1.21068E-05	0	0	0	
0.259667	0.00466574	0.000608285	0.000169873	1.89381E-05	0	0	0	
0.259833	-0.001969	-0.000534526	0.000150053	2.17895E-05	0	0	0	
0.26	0.00177808	7.20983E-05	0.00012494	2.09319E-05	0	0	0	
0.260167	-0.00092553	0.000416878	7.99423E-05	1.21619E-05	0	0	0	
0.260333	0.0100476	-0.000307244	7.49811E-05	8.87797E-06	0	0	0	
0.2605	-0.00722058	-0.000763509	0.000108817	8.15837E-06	0	0	0	
0.260667	0.00871963	0.000583616	0.000143526	1.28988E-05	0	0	0	
0.260833	-0.00683647	0.000120606	0.000156747	1.08719E-05	0	0	0	
0.261	0.00514486	-0.000435398	0.000136121	1.04028E-05	0	0	0	
0.261167	-0.00117925	0.000121039	0.000126105	6.46725E-06	0	0	0	
0.261333	-0.00565423	-0.000704031	0.000131553	8.97326E-06	0	0	0	
0.2615	0.0095293	0.000203617	0.000139989	1.31593E-05	0	0	0	
0.261667	-0.00576205	-0.000105379	0.000163324	1.20157E-05	0	0	0	
0.261833	-0.00108399	0.000398177	0.000130681	1.42092E-05	0	0	0	
0.262	0.00254682	-0.000446775	9.96013E-05	1.52298E-05	0	0	0	
0.262167	-0.000277487	7.94963E-05	5.69123E-05	1.75047E-05	0	0	0	
0.262333	-0.00214429	-0.000637895	8.44541E-05	2.18138E-05	0	0	0	
0.2625	0.00457986	0.000889905	0.000128169	2.84052E-05	0	0	0	
0.262667	0.00328657	-0.00249318	0.000175661	2.99646E-05	0	0	0	
0.262833	-0.00508241	0.00305754	0.000189464	4.04026E-05	0	0	0	
0.263	0.00189202	-0.00287533	0.000181251	4.90319E-05	0	0	0	
0.263167	-0.000237885	0.0018896	0.000145323	5.90127E-05	0	0	0	
0.263333	0.00483851	-0.00148233	9.78029E-05	4.95962E-05	0	0	0	
0.2635	-0.019723	0.00248361	0.000120132	3.87425E-05	0	0	0	
0.263667	0.0285877	-0.00490631	0.000261836	4.69203E-05	0	0	0	
0.263833	-0.0186432	0.00523149	0.000417467	7.02726E-05	0	0	0	
0.264	0.00504729	-0.00363148	0.000409453	8.59389E-05	0	0	0	
0.264167	0.000490824	0.00204904	0.000260288	7.90375E-05	0	0	0	
0.264333	-0.00238807	-0.00213117	0.000107519	5.74841E-05	0	0	0	
0.2645	0.00194243	0.00232217	5.84272E-05	4.1228E-05	0	0	0	
0.264667	-0.00200517	-0.00450847	6.29737E-05	4.97522E-05	0	0	0	
0.264833	0.00272676	0.000642219	8.22326E-05	5.6645E-05	0	0	0	
0.265	-0.0051152	0.0010065	0.000103095	6.85209E-05	0	0	0	
0.265167	-0.00122513	-0.000725732	9.74589E-05	6.08521E-05	0	0	0	
0.265333	-0.00223368	0.000297711	7.28349E-05	4.48587E-05	0	0	0	
0.2655	-0.00180583	0.000415452	4.3616E-05	2.42773E-05	0	0	0	
0.265667	0.00501904	-0.00149809	5.03161E-05	1.22341E-05	0	0	0	
0.265833	-0.0087856	0.00233219	0.000122802	2.50655E-05	0	0	0	
0.266	-0.0049847	-0.00309166	0.000281315	4.88992E-05	0	0	0	
0.266167	0.00849032	0.00263952	0.000393024	7.36606E-05	0	0	0	
0.266333	-0.00531554	-0.00135034	0.000338712	7.74965E-05	0	0	0	
0.2665	-0.00336092	0.000831188	0.000205951	6.58693E-05	0	0	0	
0.266667	0.000755913	9.24273E-05	9.02137E-05	4.7732E-05	0	0	0	
0.266833	0.0143699	0.000647403	0.000102526	3.89923E-05	0	0	0	
0.267	-0.0087506	-0.00241072	0.000165926	4.22445E-05	0	0	0	
0.267167	-0.00408126	0.00224002	0.000186294	4.7535E-05	0	0	0	
0.267333	0.00867358	-0.00159188	0.000177051	4.73851E-05	0	0	0	
0.2675	-0.00525953	0.00148817	0.000127104	4.10044E-05	0	0	0	
0.267667	0.00246504	-0.00112852	0.00011411	3.24951E-05	0	0	0	
0.267833	-0.000914166	0.000445488	9.37807E-05	2.74232E-05	0	0	0	
0.268	0.00043847	-0.000672818	5.48284E-05	2.40411E-05	0	0	0	
0.268167	-0.0017516	0.000530985	6.50243E-05	2.23711E-05	0	0	0	
0.268333	0.00464159	-0.00168954	0.000114487	2.74612E-05	0	0	0	
0.2685	0.0020382	0.00122158	0.000145692	3.16341E-05	0	0	0	
0.268667	-0.000961676	-0.000822552	0.000125487	3.35982E-05	0	0	0	
0.268833	-0.00312361	0.00112343	0.000116954	3.5668E-05	0	0	0	
0.269	-0.0014515	0.000105412	0.000127603	4.43708E-05	0	0	0	
0.269167	0.00662521	-0.000540469	0.000173077	6.51161E-05	0	0	0	
0.269333	0.00569576	0.00200907	0.000195072	8.1047E-05	0	0	0	
0.2695	-0.00490209	-0.00141603	0.000222033	8.39158E-05	0	0	0	
0.269667	0.00174545	0.000651193	0.000202567	6.58312E-05	0	0	0	
0.269833	-0.00394246	-0.000244231	0.000165494	4.11267E-05	0	0	0	
0.27	0.00323096	0.000760017	0.00013192	2.17601E-05	0	0	0	
0.270167	0.00122292	-0.0017657	9.7519E-05	2.09032E-05	0	0	0	
0.270333	-0.00237253	0.00205379	0.00010202	2.63245E-05	0	0	0	
0.2705	0.00580148	-0.00139785	7.98097E-05	3.3862E-05	0	0	0	
0.270667	-0.00316789	-0.000166505	0.000109195	2.75698E-05	0	0	0	
0.270833	-0.00177802	0.000201777	9.3177E-05	1.92505E-05	0	0	0	
0.271	0.00739297	0.000363601	0.000115195	8.27012E-06	0	0	0	
0.271167	-0.00779963	-0.00176205	0.000114349	1.18576E-05	0	0	0	
0.271333	-0.00414055	0.00199748	0.000195744	2.29757E-05	0	0	0	
0.2715	0.0065191	-0.00176094	0.000265807	3.58968E-05	0	0	0	
0.271667	-0.00565186	0.000380777	0.000262287	3.30231E-05	0	0	0	
0.271833	-0.00127145	0.00023284	0.000197199	2.09458E-05	0	0	0	
0.272	0.00213838	0.000465477	0.000109369	9.36703E-06	0	0	0	
0.272167	-0.00127182	-0.00121445	9.68572E-05	1.05716E-05	0	0	0	
0.272333	0.00713627	0.000794922	8.53953E-05	1.77955E-05	0	0	0	
0.2725	-0.0147134	9.04817E-05	0.000119521	1.93749E-05	0	0	0	
0.272667	0.0177216	-0.000493995	0.000219566	1.47256E-05	0	0	0	
0.272833	-0.0123217	0.00139158	0.000289427	1.22868E-05	0	0	0	
0.273	0.00632264	-0.00110511	0.000292144	1.89192E-05	0	0	0	
0.273167	-0.00367567	2.31454E-05	0.00020121	2.16717E-05	0	0	0	
0.273333	0.00220078	0.000231588	0.000111611	2.1286E-05	0	0	0	
0.2735	-0.00421179	0.000391745	7.77012E-05	1.40979E-05	0	0	0	
0.273667	0.0115351	-0.000967557	0.000108252	1.83482E-05	0	0	0	
0.273833	-0.00535761	0.00114003	0.000169564	2.77521E-05	0	0	0	
0.274	0.00293179	-0.0017451	0.000201551	3.92525E-05	0	0	0	
0.274167	-0.00460745	0.000906231	0.000175367	3.94262E-05	0	0	0	
0.274333	0.00471709	-0.000270463	0.000129713	2.74237E-05	0	0	0	
0.2745	-0.00654155	-0.00024527	9.57563E-05	1.89081E-05	0	0	0	
0.274667	0.00997739	0.00060394	0.000127336	2.03743E-05	0	0	0	
0.274833	-0.00958266	-0.00213513	0.000206642	2.9809E-05	0	0	0	
0.275	0.00333698	0.00189796	0.000239012	3.9308E-05	0	0	0	
0.275167	0.00266788	-0.000940893	0.000214008	3.77661E-05	0	0	0	
0.275333	0.00113758	-0.000236896	0.000177622	2.70561E-05	0	0	0	
0.2755	-0.00352612	0.000664525	0.000166772	1.3595E-05	0	0	0	
0.275667	0.00306875	-0.000578177	0.00015164	1.00063E-05	0	0	0	
0.275833	-0.0116451	0.000677409	0.00019167	1.68251E-05	0	0	0	
0.276	0.00186233	-0.000104334	0.000235192	2.4788E-05	0	0	0	
0.276167	0.0053834	-0.000203459	0.000239364	3.28911E-05	0	0	0	
0.276333	-0.00742963	-0.000466198	0.000168126	3.59331E-05	0	0	0	
0.2765	0.00612208	0.000492064	0.000120167	3.13024E-05	0	0	0	
0.276667	0.0021268	0.000547608	0.000167027	2.47552E-05	0	0	0	
0.276833	-0.0217177	-0.00342641	0.000190866	2.98443E-05	0	0	0	
0.277	0.129487	0.0190948	0.000670522	8.99597E-05	0	0	0	
0.277167	-0.0184722	-0.00944571	0.00136702	0.000219997	0	0	0	
0.277333	0.00118857	0.00852594	0.00135605	0.000256865	0	0	0	
0.2775	0.00404447	-0.00757478	0.00087439	0.000239492	0	0	0	
0.277667	0.00937783	0.00577545	0.000130977	0.000149396	0	0	0	
0.277833	0.00953071	-0.006376	0.000158288	0.000163594	0	0	0	
0.278	0.0314083	0.011588	0.00032996	0.00021275	0	0	0	
0.278167	-0.0292112	-0.0118757	0.000656891	0.000271527	0	0	0	
0.278333	0.0144211	0.0119182	0.000897303	0.000299673	0	0	0	
0.2785	-0.00504878	-0.00978219	0.000883602	0.000282065	0	0	0	
0.278667	0.00336057	0.00819328	0.000607388	0.000231336	0	0	0	
0.278833	-0.0061401	-0.00661345	0.000332188	0.000181401	0	0	0	
0.279	0.00835762	0.00662874	0.000195846	0.000145654	0	0	0	
0.279167	-0.00264969	-0.00701627	0.000168704	0.000130084	0	0	0	
0.279333	-0.00203476	0.00737293	0.000132329	0.000130975	0	0	0	
0.2795	0.00403482	-0.00437736	8.77631E-05	0.00012612	0	0	0	
0.279667	-0.00242166	0.00228148	6.27391E-05	0.000116008	0	0	0	
0.279833	-0.00245531	-0.00121497	0.000106082	8.70693E-05	0	0	0	
0.28	0.00469063	0.000812284	0.000148022	5.58245E-05	0	0	0	
0.280167	-0.00557934	-0.00110509	0.000184759	3.61843E-05	0	0	0	
0.280333	0.00652022	0.00197354	0.000199575	3.07118E-05	0	0	0	
0.2805	-0.00728109	-0.00171065	0.000187819	3.81152E-05	0	0	0	
0.280667	0.00659605	0.000266928	0.000166681	3.84773E-05	0	0	0	
0.280833	-0.00392544	-0.000420009	0.000131684	3.56152E-05	0	0	0	
0.281	0.00856523	0.000458445	0.000127472	3.64589E-05	0	0	0	
0.281167	-0.00964588	-0.00139382	0.000137613	4.31077E-05	0	0	0	
0.281333	0.000516425	0.00224149	0.000147369	4.55966E-05	0	0	0	
0.2815	0.00767369	-0.0015646	0.000157402	4.01246E-05	0	0	0	
0.281667	-0.00579272	0.000405152	0.000148356	3.18197E-05	0	0	0	
0.281833	0.000711126	-0.000232264	0.000123493	2.6501E-05	0	0	0	
0.282	0.00546721	-6.59537E-05	7.96192E-05	1.94044E-05	0	0	0	
0.282167	-0.00715327	0.000271035	8.04198E-05	1.98175E-05	0	0	0	
0.282333	0.00820451	0.000838204	0.000106708	2.37185E-05	0	0	0	
0.2825	-0.00571256	-0.00118669	0.000138594	2.7615E-05	0	0	0	
0.282667	0.00145356	0.000244487	0.000121458	2.17098E-05	0	0	0	
0.282833	-0.000436574	-0.000585635	8.39677E-05	1.69783E-05	0	0	0	
0.283	0.000726793	0.00068832	7.02375E-05	1.46877E-05	0	0	0	
0.283167	0.00109072	-0.000482294	7.42587E-05	1.45539E-05	0	0	0	
0.283333	-0.00344207	0.00196068	0.000100704	1.7186E-05	0	0	0	
0.2835	-0.000367548	-0.00198253	9.19967E-05	2.46121E-05	0	0	0	
0.283667	0.0039826	0.00165049	7.49135E-05	3.19891E-05	0	0	0	
0.283833	0.00031115	-0.00209451	6.32575E-05	3.70875E-05	0	0	0	
0.284	-0.000917827	0.0018609	6.14353E-05	3.93501E-05	0	0	0	
0.284167	-0.000364714	-0.00183787	7.07627E-05	4.01489E-05	0	0	0	
0.284333	0.00207144	0.00201513	5.88538E-05	4.04231E-05	0	0	0	
0.2845	-0.00505995	-0.00209517	6.14128E-05	4.02201E-05	0	0	0	
0.284667	0.00722212	0.00102249	7.91962E-05	3.79792E-05	0	0	0	
0.284833	-0.00555095	-0.000671559	0.000118025	3.20911E-05	0	0	0	
0.285	-0.000111639	-0.000272148	0.000128576	1.8736E-05	0	0	0	
0.285167	0.000139938	-0.000148925	0.00013521	1.3792E-05	0	0	0	
0.285333	0.00150062	0.0007288	0.000162248	1.0968E-05	0	0	0	
0.2855	-0.00722171	-0.00158211	0.000200095	1.45219E-05	0	0	0	
0.285667	0.00941021	0.00246424	0.000199798	2.33768E-05	0	0	0	
0.285833	-0.00388015	-0.00229625	0.000176037	3.36445E-05	0	0	0	
0.286	-0.0126445	-0.00184432	0.000187608	5.11462E-05	0	0	0	
0.286167	0.0168646	0.0035158	0.000236046	5.33686E-05	0	0	0	
0.286333	0.0792428	0.0160657	0.000731671	0.000127334	0	0	0	
0.2865	0.194673	0.038692	0.00263953	0.00049265	0	0	0	
0.286667	-0.007922	-0.00407775	0.00356048	0.000694568	0	0	0	
0.286833	-0.0570376	0.00156454	0.00324265	0.00072109	0	0	0	
0.287	0.103378	-0.0161444	0.00178408	0.000474243	0	0	0	
0.287167	-0.0996743	0.0331115	0.00149091	0.000507532	0	0	0	
0.287333	0.0960231	-0.0365144	0.0019902	0.000714308	0	0	0	
0.2875	-0.0512516	0.0386617	0.00271351	0.000973579	0	0	0	
0.287667	-0.000290404	-0.0440902	0.00345349	0.00132051	0	0	0	
0.287833	-0.110137	0.0279885	0.00324015	0.00130181	0	0	0	
0.288	0.146976	-0.0229539	0.0028464	0.00113521	0	0	0	
0.288167	-0.119377	0.0343203	0.00232266	0.000783697	0	0	0	
0.288333	0.0613053	-0.0389994	0.00246202	0.00074427	0	0	0	
0.2885	-0.0221689	0.0322197	0.00218701	0.000738816	0	0	0	
0.288667	0.0059533	-0.0235615	0.00197946	0.000664684	0	0	0	
0.288833	-0.00662117	0.0187996	0.0021161	0.000562017	0	0	0	
0.289	0.0292825	-0.0154389	0.00219441	0.000452111	0	0	0	
0.289167	-0.0386333	0.0113411	0.00193245	0.000367547	0	0	0	
0.289333	0.0410655	-0.00851513	0.00143942	0.000280688	0	0	0	
0.2895	-0.0258232	0.00512391	0.000966968	0.000242608	0	0	0	
0.289667	0.00873093	-0.00102371	0.000611915	0.000235145	0	0	0	
0.289833	-0.0118592	-0.000324031	0.000403407	0.000238525	0	0	0	
0.29	0.0236394	0.00164824	0.000334014	0.000235708	0	0	0	
0.290167	-0.0229722	-0.00360588	0.000385991	0.000215602	0	0	0	
0.290333	0.0143003	0.00412793	0.000471715	0.000168524	0	0	0	
0.2905	0.00100414	-0.00326768	0.000517519	0.000114177	0	0	0	
0.290667	-0.0156095	0.00109802	0.000517239	6.9897E-05	0	0	0	
0.290833	0.0265774	-0.000690469	0.000506027	5.43521E-05	0	0	0	
0.291	-0.0257525	0.00151259	0.000490602	4.4233E-05	0	0	0	
0.291167	0.0121025	-5.50473E-06	0.000458396	3.68222E-05	0	0	0	
0.291333	0.001441	-0.00156605	0.000402283	2.84109E-05	0	0	0	
0.2915	-0.0107785	0.00245552	0.000312816	2.97049E-05	0	0	0	
0.291667	0.0158488	-0.00267875	0.000258919	3.92402E-05	0	0	0	
0.291833	-0.0157489	0.0016588	0.000247771	5.8027E-05	0	0	0	
0.292	0.0124685	0.000220334	0.000275066	7.56392E-05	0	0	0	
0.292167	-0.0100934	-0.00021359	0.000278608	8.57892E-05	0	0	0	
0.292333	0.00864709	-0.0018168	0.00025982	7.66142E-05	0	0	0	
0.2925	-0.00958089	0.00239946	0.000232394	5.88951E-05	0	0	0	
0.292667	0.00908397	-0.00233238	0.000213348	4.78535E-05	0	0	0	
0.292833	-0.00478582	0.00328582	0.000190237	5.06592E-05	0	0	0	
0.293	0.00036052	-0.00320561	0.000162827	6.25001E-05	0	0	0	
0.293167	-0.00252018	0.00280819	0.000139836	7.35096E-05	0	0	0	
0.293333	0.0062641	-0.00158707	0.000150597	7.13254E-05	0	0	0	
0.2935	-0.0085211	0.00153591	0.000188552	5.62126E-05	0	0	0	
0.293667	0.00913217	-0.00148994	0.000201236	3.93975E-05	0	0	0	
0.293833	-0.00370448	0.000897046	0.000171048	3.14023E-05	0	0	0	
0.294	-0.00132967	-0.00062555	0.000124077	3.10262E-05	0	0	0	
0.294167	0.00330921	0.000114784	7.94062E-05	2.53138E-05	0	0	0	
0.294333	-0.00350143	0.000436202	6.99407E-05	1.78963E-05	0	0	0	
0.2945	0.000569651	-8.57588E-05	6.3564E-05	1.15822E-05	0	0	0	
0.294667	0.00216517	-4.11505E-05	6.78996E-05	1.31947E-05	0	0	0	
0.294833	-0.00637729	0.000994553	6.81637E-05	1.87215E-05	0	0	0	
0.295	0.00572247	-0.00139681	9.00926E-05	2.15593E-05	0	0	0	
0.295167	-0.00503272	0.00030754	0.00011961	2.72991E-05	0	0	0	
0.295333	0.00499754	0.000766012	0.000145963	3.85462E-05	0	0	0	
0.2955	-0.00729087	-0.00255433	0.000133753	4.52563E-05	0	0	0	
0.295667	0.00233485	0.0029289	0.000154204	4.77258E-05	0	0	0	
0.295833	0.00627189	-0.0013331	0.000175036	4.92059E-05	0	0	0	
0.296	-0.00706755	-0.000806179	0.000176006	4.95191E-05	0	0	0	
0.296167	-0.000317276	0.00100367	0.000188667	4.50274E-05	0	0	0	
0.296333	0.00379771	-0.00143347	0.000186704	3.23304E-05	0	0	0	
0.2965	-0.00729007	0.000324092	0.000195341	2.47926E-05	0	0	0	
0.296667	0.00609544	0.000581175	0.000158748	1.65796E-05	0	0	0	
0.296833	-0.0010926	-0.00102427	0.000107604	1.81994E-05	0	0	0	
0.297	-0.0027186	-0.000228244	0.000100071	2.54067E-05	0	0	0	
0.297167	0.00226653	-0.000144759	7.43683E-05	3.52899E-05	0	0	0	
0.297333	0.00345579	-0.000515849	7.47961E-05	3.10053E-05	0	0	0	
0.2975	-0.00686881	-0.000202116	7.73249E-05	2.13762E-05	0	0	0	
0.297667	0.0042512	0.000988389	0.000101882	1.78811E-05	0	0	0	
0.297833	0.00185658	-0.00142789	9.20295E-05	2.76778E-05	0	0	0	
0.298	0.00166466	0.00111135	6.60049E-05	4.1024E-05	0	0	0	
0.298167	-0.00952274	-3.70245E-05	6.4614E-05	4.56695E-05	0	0	0	
0.298333	0.0140799	-0.000580467	0.000131381	3.95588E-05	0	0	0	
0.2985	-0.010676	-0.000972706	0.00019657	3.19342E-05	0	0	0	
0.298667	0.00525197	0.000701249	0.000209055	2.97415E-05	0	0	0	
0.298833	0.00242124	-0.000298513	0.000155004	3.29632E-05	0	0	0	
0.299	-0.000318359	-0.000357605	0.000138826	3.57259E-05	0	0	0	
0.299167	-0.00595623	0.000187047	0.000179674	3.40131E-05	0	0	0	
0.299333	0.00879062	-0.00046274	0.000252299	2.79569E-05	0	0	0	
0.2995	-0.00720258	-0.000584846	0.000268224	2.33644E-05	0	0	0	
0.299667	0.00505336	9.5547E-05	0.000214903	2.14698E-05	0	0	0	
0.299833	0.00199059	0.000176197	0.00013255	1.84968E-05	0	0	0	
0.3	-0.00383705	0.000436203	7.99365E-05	1.73757E-05	0	0	0	
0.300167	0.00395296	-0.00146357	7.55699E-05	2.21865E-05	0	0	0	
0.300333	-0.00217991	0.000835731	9.90212E-05	2.67786E-05	0	0	0	
0.3005	-0.000262392	-0.00108487	9.05181E-05	2.61192E-05	0	0	0	
0.300667	0.00019373	0.00158062	6.51221E-05	2.49813E-05	0	0	0	
0.300833	-0.000610779	-0.000401703	3.882E-05	2.86294E-05	0	0	0	
0.301	0.00432199	-0.000320154	3.71726E-05	3.42198E-05	0	0	0	
0.301167	-0.00835357	-0.000434601	8.26541E-05	3.0117E-05	0	0	0	
0.301333	0.00885685	0.000481853	0.000129526	2.55253E-05	0	0	0	
0.3015	-0.0080613	-0.000591102	0.000168425	1.97017E-05	0	0	0	
0.301667	0.00564225	0.000388915	0.0001584	1.55677E-05	0	0	0	
0.301833	-0.00200595	-0.000708498	0.000124181	1.32538E-05	0	0	0	
0.302	-0.00459502	0.00143535	8.8203E-05	1.44961E-05	0	0	0	
0.302167	0.00768502	-0.00155934	8.68426E-05	2.6674E-05	0	0	0	
0.302333	-0.00928458	0.00164824	0.000131511	3.96896E-05	0	0	0	
0.3025	0.00355456	-0.000310204	0.000176661	4.04441E-05	0	0	0	
0.302667	0.00564677	-0.000160711	0.000190636	2.74489E-05	0	0	0	
0.302833	-0.00906096	0.000355812	0.00017618	1.26775E-05	0	0	0	
0.303	0.00400981	0.000321693	0.000148588	8.11698E-06	0	0	0	
0.303167	0.00303955	-0.00164841	0.000134494	1.67855E-05	0	0	0	
0.303333	-0.00450695	0.00111105	0.000131619	2.38584E-05	0	0	0	
0.3035	0.00228034	-0.000897086	0.000136807	2.86324E-05	0	0	0	
0.303667	0.00120471	2.78507E-05	0.000103656	2.28384E-05	0	0	0	
0.303833	-0.00659437	0.000799611	0.000117694	1.739E-05	0	0	0	
0.304	0.011374	-0.000849834	0.000190545	1.72608E-05	0	0	0	
0.304167	-0.0157628	-0.000578138	0.000280283	2.23265E-05	0	0	0	
0.304333	0.0123471	0.00118948	0.000296249	2.83012E-05	0	0	0	
0.3045	-0.00329115	-0.000287999	0.000246196	2.30786E-05	0	0	0	
0.304667	-0.00141057	-0.00070571	0.000155623	2.43448E-05	0	0	0	
0.304833	0.00118163	0.000905199	0.000119307	2.59601E-05	0	0	0	
0.305	-0.00581776	-0.0022073	0.000131678	3.21628E-05	0	0	0	
0.305167	0.00724276	0.00157413	0.00023379	3.23602E-05	0	0	0	
0.305333	0.0358923	0.00550026	0.000473154	5.57671E-05	0	0	0	
0.3055	0.0824764	0.00929122	0.00114435	0.000146705	0	0	0	
0.305667	-0.00608338	-0.00100145	0.00150881	0.000208087	0	0	0	
0.305833	-0.00392402	-0.00317211	0.00138219	0.000200197	0	0	0	
0.306	0.0078864	-0.00294589	0.000717201	0.000115839	0	0	0	
0.306167	-0.00138915	0.00811495	0.000332523	7.81318E-05	0	0	0	
0.306333	0.0388842	-0.00811894	0.000328911	9.94115E-05	0	0	0	
0.3065	-0.0516735	0.0100468	0.00056471	0.000171972	0	0	0	
0.306667	0.0418024	-0.0081485	0.000807398	0.000224182	0	0	0	
0.306833	-0.0254544	0.00496826	0.000866314	0.000242869	0	0	0	
0.307	0.0105478	-0.00239716	0.000656204	0.000199439	0	0	0	
0.307167	-0.00126346	0.000579744	0.000362925	0.00013589	0	0	0	
0.307333	0.00082163	0.000997673	0.000153372	8.85152E-05	0	0	0	
0.3075	-0.00699815	3.0654E-05	8.56019E-05	7.73253E-05	0	0	0	
0.307667	0.00299853	-0.000979032	9.73812E-05	9.23578E-05	0	0	0	
0.307833	0.000436161	-0.00301167	0.000107027	9.68205E-05	0	0	0	
0.308	-0.000233723	0.00214315	8.41125E-05	8.46483E-05	0	0	0	
0.308167	-0.000793772	-0.000294669	5.27397E-05	5.32004E-05	0	0	0	
0.308333	-0.00198626	-0.00042634	6.12192E-05	3.68892E-05	0	0	0	
0.3085	0.00160939	0.00186833	8.97292E-05	2.9066E-05	0	0	0	
0.308667	-0.00756364	-0.00269802	0.000169619	4.3299E-05	0	0	0	
0.308833	0.0106453	0.00170624	0.000284572	5.29469E-05	0	0	0	
0.309	-0.00607768	-0.00163146	0.000342023	5.135E-05	0	0	0	
0.309167	0.003847	0.000762768	0.000300203	3.53633E-05	0	0	0	
0.309333	-0.000918699	-0.0003199	0.000202225	2.22998E-05	0	0	0	
0.3095	-0.00151193	-0.000117828	0.00014409	1.60117E-05	0	0	0	
0.309667	-0.000396049	-0.000892837	0.000119376	2.3973E-05	0	0	0	
0.309833	0.00872561	0.00131991	0.000132178	3.71378E-05	0	0	0	
0.31	-0.00926713	-0.00338828	0.000172597	4.90034E-05	0	0	0	
0.310167	0.00493117	0.00160885	0.000210667	5.18018E-05	0	0	0	
0.310333	0.00184097	-0.00111602	0.000203615	4.23882E-05	0	0	0	
0.3105	-0.00206957	0.000524698	0.000132746	3.27355E-05	0	0	0	
0.310667	-0.000310014	-0.000229688	7.02737E-05	1.88395E-05	0	0	0	
0.310833	0.0028055	0.00177988	5.26489E-05	1.91007E-05	0	0	0	
0.311	-0.00319619	-0.00225583	7.60548E-05	2.68506E-05	0	0	0	
0.311167	0.00526324	0.00184088	9.7697E-05	3.68748E-05	0	0	0	
0.311333	-0.00103879	-0.00123361	9.4661E-05	4.09683E-05	0	0	0	
0.3115	-0.00224782	2.04539E-05	7.18132E-05	3.6777E-05	0	0	0	
0.311667	0.000999662	0.000187702	5.48519E-05	2.88503E-05	0	0	0	
0.311833	0.00193326	0.000473822	5.09139E-05	1.92553E-05	0	0	0	
0.312	-0.000570879	-0.000529005	7.9595E-05	9.57628E-06	0	0	0	
0.312167	-0.00987889	0.0011765	8.73543E-05	2.16296E-05	0	0	0	
0.312333	0.00926284	-0.000549531	0.000136494	4.17044E-05	0	0	0	
0.3125	-0.00371306	1.2263E-05	0.000186788	6.00146E-05	0	0	0	
0.312667	-0.00291739	0.000420895	0.000221716	5.60044E-05	0	0	0	
0.312833	0.00103758	-0.000445777	0.000160493	3.85521E-05	0	0	0	
0.313	0.00942232	-9.02881E-05	0.000110236	2.30964E-05	0	0	0	
0.313167	-0.0216933	0.00150971	0.000160421	2.29118E-05	0	0	0	
0.313333	0.0182606	-0.00086925	0.000283976	3.60895E-05	0	0	0	
0.3135	-0.0127255	0.00101741	0.000338553	5.57221E-05	0	0	0	
0.313667	0.00554883	2.14144E-05	0.000308761	6.28274E-05	0	0	0	
0.313833	-0.000762554	-0.000754092	0.000200317	5.47875E-05	0	0	0	
0.314	0.00711894	0.000803514	0.000161198	3.94184E-05	0	0	0	
0.314167	-0.0198064	-0.00214846	0.000210912	3.44266E-05	0	0	0	
0.314333	0.0139715	0.0023015	0.000331919	4.57706E-05	0	0	0	
0.3145	-0.00982396	-0.00236034	0.000351975	5.53275E-05	0	0	0	
0.314667	-6.66229E-05	0.00125631	0.000271847	5.27896E-05	0	0	0	
0.314833	0.00431877	-0.000436611	0.000146226	3.65019E-05	0	0	0	
0.315	-0.00439246	-0.000244963	0.000104067	2.44827E-05	0	0	0	
0.315167	-0.00273292	0.000758369	0.000130207	1.78291E-05	0	0	0	
