0	-0.00033667	0.00111468	3.3667E-08	1.11468E-07	0	5	0	
0.000166667	0.00321358	-0.00479948	1.6069E-05	1.43633E-05	0	5	0	
0.000333333	0.000489806	0.00693332	3.4671E-05	5.7912E-05	0	5	0	
0.0005	0.0022217	-0.00259481	5.14732E-05	9.04977E-05	0	5	0	
0.000666667	0.00257352	0.000565805	5.02819E-05	8.86595E-05	0	5	0	
0.000833333	0.00371732	-0.00229576	4.87327E-05	6.50339E-05	0	5	0	
0.001	-0.00529439	0.00653045	5.67993E-05	6.29046E-05	0	5	0	
0.00116667	-0.00211786	-0.010207	6.92684E-05	9.85073E-05	0	5	0	
0.00133333	0.00467812	0.0135891	8.01021E-05	0.000165287	0	5	0	
0.0015	-0.00293923	-0.00517103	8.44915E-05	0.000198385	0	5	0	
0.00166667	0.00344226	0.00373155	0.000109596	0.000176962	0	5	0	
0.00183333	0.00927296	-0.00395774	0.000117556	0.000120582	0	5	0	
0.002	-0.0038255	0.00829393	0.000134534	9.76657E-05	0	5	0	
0.00216667	-0.00431173	-0.00796657	0.000121084	0.000122004	0	5	0	
0.00233333	0.000760071	0.0105236	0.000111927	0.000156079	0	5	0	
0.0025	-0.00402083	-0.00683385	8.40218E-05	0.000176304	0	5	0	
0.00266667	0.00858802	0.00722243	0.000114591	0.000170983	0	5	0	
0.00283333	-0.00755226	-0.0079453	0.000142495	0.000152671	0	5	0	
0.003	0.00587395	0.0119266	0.00017984	0.000156902	0	5	0	
0.00316667	-0.00385004	-0.0146009	0.000208093	0.000199118	0	5	0	
0.00333333	0.00110447	0.0173866	0.000235412	0.000255873	0	5	0	
0.0035	-0.000509277	-0.0110165	0.000233041	0.000282814	0	5	0	
0.00366667	-0.000804069	0.00561959	0.000151128	0.000254245	0	5	0	
0.00383333	0.00325388	-0.00763484	0.000105475	0.000205113	0	5	0	
0.004	0.00449503	0.0120834	0.000100713	0.000210549	0	5	0	
0.00416667	-0.0158958	-0.0161506	0.000168006	0.000253846	0	5	0	
0.00433333	0.0130971	0.0130373	0.000215636	0.000299233	0	5	0	
0.0045	-0.00750857	-0.00862555	0.000236318	0.00026752	0	5	0	
0.00466667	-1.54139E-05	0.00368921	0.000203117	0.000208196	0	5	0	
0.00483333	0.00387007	-0.00464704	0.000130763	0.000153085	0	5	0	
0.005	0.00422655	0.00825016	8.39634E-05	0.000138189	0	5	0	
0.00516667	-0.00425306	-0.0094615	8.24649E-05	0.00014893	0	5	0	
0.00533333	-0.00510871	0.00397619	9.62201E-05	0.000170221	0	5	0	
0.0055	0.00223468	-0.0046524	0.000110976	0.000178624	0	5	0	
0.00566667	0.00256828	0.00545481	0.000106662	0.00019498	0	5	0	
0.00583333	-0.000155659	-0.00799909	8.94429E-05	0.000182502	0	5	0	
0.006	-0.00368507	0.010609	7.78631E-05	0.000178269	0	5	0	
0.00616667	-0.00299868	-0.0107116	5.62537E-05	0.000179578	0	5	0	
0.00633333	0.00456693	0.00400829	7.15853E-05	0.000171103	0	5	0	
0.0065	0.00166002	0.00404617	9.65991E-05	0.000157956	0	5	0	
0.00666667	-0.00296822	-0.00283674	0.000103686	0.000114756	0	5	0	
0.00683333	0.00896784	-0.00164863	0.000143054	0.000116251	0	5	0	
0.007	-0.0049988	0.0105828	0.000151803	0.000144977	0	5	0	
0.00716667	-0.000175004	-0.0150383	0.000168539	0.000195511	0	5	0	
0.00733333	-0.00539423	0.0108808	0.000149391	0.000231627	0	5	0	
0.0075	0.00116894	-0.00266238	0.000112573	0.000209803	0	5	0	
0.00766667	0.00523826	-0.00168665	0.000149552	0.000147152	0	5	0	
0.00783333	0.00623285	-0.000429007	0.000187489	0.000111539	0	5	0	
0.008	-0.00612124	0.0107056	0.000214935	0.0001446	0	5	0	
0.00816667	0.00554237	-0.013609	0.000162775	0.000220676	0	5	0	
0.00833333	0.00252214	0.00325743	0.000100425	0.000238828	0	5	0	
0.0085	-0.00165126	0.00512605	7.60085E-05	0.000179848	0	5	0	
0.00866667	-0.00563352	-0.00510621	8.343E-05	0.000126535	0	5	0	
0.00883333	0.0101765	-0.00227348	0.000129934	8.50662E-05	0	5	0	
0.009	-0.00438139	0.00362634	0.000152023	8.84543E-05	0	5	0	
0.00916667	0.00456338	-0.000661927	0.000156094	7.8455E-05	0	5	0	
0.00933333	0.000712011	0.00131032	0.000151561	6.89471E-05	0	5	0	
0.0095	0.00333087	-0.00514229	0.000118635	8.26377E-05	0	5	0	
0.00966667	0.00374526	0.00776062	9.2113E-05	0.000129279	0	5	0	
0.00983333	-0.00213269	-0.012436	6.39954E-05	0.000200086	0	5	0	
0.01	-0.000545513	0.0103016	8.7173E-05	0.000244635	0	5	0	
0.0101667	-0.0028582	-0.0103123	8.60359E-05	0.000245126	0	5	0	
0.0103333	0.00888608	0.013109	0.00010439	0.000248901	0	5	0	
0.0105	-0.00195975	-0.0180433	0.000121396	0.000271443	0	5	0	
0.0106667	0.00292619	0.0137914	0.000122071	0.000293348	0	5	0	
0.0108333	-0.00835762	-0.00773433	0.000118532	0.000276692	0	5	0	
0.011	0.00906888	0.00304101	0.000114878	0.000224994	0	5	0	
0.0111667	0.00356668	-0.00409039	0.000134855	0.000196872	0	5	0	
0.0113333	-0.00228946	0.00250429	0.00012046	0.000198046	0	5	0	
0.0115	0.00278435	-0.00750942	9.51958E-05	0.000203224	0	5	0	
0.0116667	0.00514444	0.0127747	8.31378E-05	0.000200013	0	5	0	
0.0118333	-0.00383873	-0.0127962	9.21056E-05	0.000211607	0	5	0	
0.012	-0.00278502	0.0047595	7.93717E-05	0.000211622	0	5	0	
0.0121667	0.00983374	0.00256804	0.000118321	0.000165443	0	5	0	
0.0123333	0.00373762	0.000254082	0.000119426	0.000134245	0	5	0	
0.0125	-0.00547408	-0.00835286	0.000155248	0.000165297	0	5	0	
0.0126667	0.00764982	0.0182846	0.000126719	0.000254367	0	5	0	
0.0128333	-0.00792223	-0.019318	0.000150206	0.000323249	0	5	0	
0.013	-0.000334348	0.0123205	0.000126093	0.00032954	0	5	0	
0.0131667	0.00430501	-0.00638287	0.000114113	0.000279967	0	5	0	
0.0133333	0.000770356	0.00634769	7.02515E-05	0.000206432	0	5	0	
0.0135	-0.00350181	-0.00722542	7.36323E-05	0.00016727	0	5	0	
0.0136667	0.000760495	0.0112514	7.86647E-05	0.000166571	0	5	0	
0.0138333	-0.001413	-0.0121429	6.08647E-05	0.000192822	0	5	0	
0.014	0.00144846	0.0115596	4.55835E-05	0.000213225	0	5	0	
0.0141667	-0.00172762	-0.00917502	2.73327E-05	0.0002298	0	5	0	
0.0143333	-0.000777118	0.0109571	3.28779E-05	0.000241436	0	5	0	
0.0145	0.00335952	-0.0100421	4.05048E-05	0.000237902	0	5	0	
0.0146667	-0.00122296	0.00593212	5.28416E-05	0.000216044	0	5	0	
0.0148333	-0.0034967	-0.00712075	8.77805E-05	0.000184762	0	5	0	
0.015	0.00547221	0.0117173	0.000135025	0.000187469	0	5	0	
0.0151667	-0.00726663	-0.00936744	0.000164248	0.000215467	0	5	0	
0.0153333	0.00446438	0.00729413	0.000170158	0.000220722	0	5	0	
0.0155	0.00150455	-0.0097234	0.000124078	0.000199943	0	5	0	
0.0156667	0.00612319	0.0133609	9.65082E-05	0.000188921	0	5	0	
0.0158333	-0.00563157	-0.0139234	8.36474E-05	0.000213155	0	5	0	
0.016	-0.000890173	0.0162738	8.36248E-05	0.000254296	0	5	0	
0.0161667	-0.000482393	-0.0131665	9.97234E-05	0.000278314	0	5	0	
0.0163333	0.00195395	0.00892008	8.66186E-05	0.000260922	0	5	0	
0.0165	0.000821156	-0.00971276	7.63241E-05	0.00022094	0	5	0	
0.0166667	0.00286401	0.0120049	6.6346E-05	0.000202574	0	5	0	
0.0168333	0.00730921	-0.0120199	6.95274E-05	0.000232633	0	5	0	
0.017	-0.00638854	0.0107108	9.79089E-05	0.000277025	0	5	0	
0.0171667	-0.00563303	-0.00830949	0.00012322	0.000308707	0	5	0	
0.0173333	0.0133187	0.0100682	0.000165363	0.000299584	0	5	0	
0.0175	-0.00865834	-0.0104173	0.00021418	0.000260431	0	5	0	
0.0176667	0.00396003	0.0073914	0.000202604	0.000210074	0	5	0	
0.0178333	-0.000215572	-0.00530914	0.000141084	0.000161467	0	5	0	
0.018	0.00605717	0.00521462	8.70384E-05	0.000144057	0	5	0	
0.0181667	0.00204539	-3.16933E-05	8.37362E-05	0.000144852	0	5	0	
0.0183333	-0.00214336	-0.00343417	0.000110098	0.000176991	0	5	0	
0.0185	0.00651489	-0.0204994	0.000102627	0.000182739	0	5	0	
0.0186667	-0.00834734	0.0404078	0.000141005	0.000374673	0	5	0	
0.0188333	0.00156972	-0.0259892	0.000150068	0.000604137	0	5	0	
0.019	0.00258507	0.000559504	0.000137602	0.000761176	0	5	0	
0.0191667	-0.00351767	0.0161727	0.000112398	0.000593995	0	5	0	
0.0193333	0.0021335	-0.0129219	0.000144948	0.000389004	0	5	0	
0.0195	0.000768533	-0.0165167	0.000199934	0.000253046	0	5	0	
0.0196667	-0.0045256	0.045185	0.00018997	0.000436688	0	5	0	
0.0198333	-0.000867774	-0.0509302	0.000140594	0.000698274	0	5	0	
0.02	0.00231362	0.0399783	8.44746E-05	0.000896701	0	5	0	
0.0201667	-0.0078783	-0.0214301	8.18983E-05	0.000831139	0	5	0	
0.0203333	0.0063368	0.00591787	0.000107099	0.000645847	0	5	0	
0.0205	-0.0123584	0.000178702	0.000171543	0.00045989	0	5	0	
0.0206667	0.0110116	0.00306387	0.000222028	0.00029882	0	5	0	
0.0208333	-0.00247856	-0.010809	0.000237319	0.000228402	0	5	0	
0.021	0.00125724	0.0118939	0.000181905	0.00024452	0	5	0	
0.0211667	0.00160549	-0.0104516	0.000106969	0.000294159	0	5	0	
0.0213333	-0.00120927	0.0118653	5.85417E-05	0.000299267	0	5	0	
0.0215	0.00620936	-0.0129511	5.62366E-05	0.000288414	0	5	0	
0.0216667	-0.00996648	0.0132121	0.000106192	0.00027681	0	5	0	
0.0218333	0.0140861	-0.00606184	0.000188687	0.000294288	0	5	0	
0.022	0.00206351	-0.00362596	0.000225646	0.000299363	0	5	0	
0.0221667	-0.0115317	0.00376668	0.000201521	0.000235832	0	5	0	
0.0223333	0.0176327	0.00614516	0.000217669	0.000176915	0	5	0	
0.0225	-0.0127345	-0.0121824	0.000261375	0.000149373	0	5	0	
0.0226667	0.00104207	0.0223479	0.000338542	0.000239166	0	5	0	
0.0228333	0.00622537	-0.028094	0.00028658	0.000341883	0	5	0	
0.023	0.00599971	0.0219736	0.000212575	0.00042749	0	5	0	
0.0231667	-0.0106409	-0.010145	0.000177799	0.000438729	0	5	0	
0.0233333	0.00730945	0.0032333	0.000204856	0.000326861	0	5	0	
0.0235	-0.00594913	-0.00188227	0.000241713	0.000198006	0	5	0	
0.0236667	0.00137785	0.00317782	0.000221368	0.000115496	0	5	0	
0.0238333	0.00781913	-0.0046546	0.000174254	0.000134421	0	5	0	
0.024	-0.0089123	0.0048194	0.000182761	0.000227727	0	5	0	
0.0241667	0.00155401	-0.0122314	0.000187353	0.000285569	0	5	0	
0.0243333	0.00407749	0.0114367	0.000253124	0.000267897	0	5	0	
0.0245	-0.00640678	-0.0182035	0.000244063	0.000252434	0	5	0	
0.0246667	0.0015475	0.0181791	0.000195716	0.000278827	0	5	0	
0.0248333	0.00286533	-0.00601552	0.000110899	0.000341406	0	5	0	
0.025	-0.00238575	-0.0130931	9.24963E-05	0.000367219	0	5	0	
0.0251667	0.00448614	0.00381686	0.000100286	0.000300861	0	5	0	
0.0253333	-0.00686671	0.012495	0.00012454	0.000294283	0	5	0	
0.0255	-0.000828873	-0.0232223	0.000109652	0.000310662	0	5	0	
0.0256667	-0.000997588	0.0202828	0.000122978	0.000406513	0	5	0	
0.0258333	0.00339254	-0.020251	0.000115812	0.000412483	0	5	0	
0.026	-0.00542956	0.0164926	0.000117348	0.000382997	0	5	0	
0.0261667	-0.00434639	-0.00862057	0.000139498	0.00033682	0	5	0	
0.0263333	0.0098847	-2.32739E-05	0.000138203	0.000267278	0	5	0	
0.0265	-0.00913802	0.000284995	0.000166283	0.000176461	0	5	0	
0.0266667	0.0112428	0.00628559	0.000182732	0.000145984	0	5	0	
0.0268333	-0.0102628	-0.0131322	0.000225311	0.000186409	0	5	0	
0.027	-0.00162519	0.0179761	0.000208661	0.000251394	0	5	0	
0.0271667	0.0027409	-0.0142207	0.000156222	0.000289814	0	5	0	
0.0273333	0.00280959	0.00974403	8.32282E-05	0.000287928	0	5	0	
0.0275	-0.00839307	-0.0134477	0.000100959	0.000286301	0	5	0	
0.0276667	0.0107195	0.0178672	0.000151213	0.000297541	0	5	0	
0.0278333	-0.00851774	-0.0191673	0.000199787	0.000338979	0	5	0	
0.028	0.00942362	0.00822688	0.00021372	0.000339355	0	5	0	
0.0281667	-0.0061428	-0.0125221	0.000185232	0.000319228	0	5	0	
0.0283333	0.00808113	0.0213486	0.000163548	0.000331189	0	5	0	
0.0285	-0.0029284	-0.019119	0.000124526	0.000374289	0	5	0	
0.0286667	-0.00243098	0.00255612	0.000104478	0.000339467	0	5	0	
0.0288333	0.0039759	-0.00144514	9.51427E-05	0.000226971	0	5	0	
0.029	-0.000376661	0.0024747	7.98621E-05	0.000185665	0	5	0	
0.0291667	0.00194704	-0.0116576	9.13338E-05	0.000196418	0	5	0	
0.0293333	0.0038731	0.00694527	0.000101986	0.000226842	0	5	0	
0.0295	-0.00355369	-0.00463174	0.000122534	0.000176966	0	5	0	
0.0296667	0.0138683	0.00316288	0.000151528	0.000134534	0	5	0	
0.0298333	-0.00291952	-0.00795668	0.000155414	0.000119628	0	5	0	
0.03	-0.00535244	0.0101612	0.000173607	0.000136271	0	5	0	
0.0301667	0.00370301	-0.0123282	0.000141009	0.0001744	0	5	0	
0.0303333	0.000224105	0.0141139	0.000133368	0.000233074	0	5	0	
0.0305	0.00249167	-0.0138722	0.00012245	0.000290637	0	5	0	
0.0306667	0.00425168	0.0117135	0.000127995	0.000306899	0	5	0	
0.0308333	-0.00307958	-0.00975859	0.000147111	0.000270311	0	5	0	
0.031	0.00956815	0.0102862	0.000139149	0.000225593	0	5	0	
0.0311667	-0.000382548	-0.014018	0.000120572	0.000239746	0	5	0	
0.0313333	-0.0114328	0.0134609	9.07453E-05	0.000296271	0	5	0	
0.0315	0.00914031	-0.00565706	0.000149436	0.000294769	0	5	0	
0.0316667	-0.00472278	0.00117428	0.000172866	0.000220086	0	5	0	
0.0318333	0.00511339	0.0017589	0.000195139	0.000130343	0	5	0	
0.032	-0.00505728	0.0021532	0.000120567	7.14277E-05	0	5	0	
0.0321667	0.00518167	-0.00807216	0.000114481	9.95929E-05	0	5	0	
0.0323333	-0.00174795	0.012578	8.74229E-05	0.00014403	0	5	0	
0.0325	-0.0110734	-0.0132624	0.000124949	0.000207611	0	5	0	
0.0326667	0.0100055	0.0102698	0.000183096	0.000237097	0	5	0	
0.0328333	-0.00748522	-0.00469215	0.000230936	0.000211534	0	5	0	
0.033	0.000995836	0.0106023	0.000211013	0.000188797	0	5	0	
0.0331667	-0.00699621	-0.0185081	0.000131416	0.000204517	0	5	0	
0.0333333	0.0069062	0.0188028	0.000105063	0.000281621	0	5	0	
0.0335	-0.00939282	-0.0124336	0.000119155	0.000318911	0	5	0	
0.0336667	0.00532902	0.0113438	0.000164583	0.000301352	0	5	0	
0.0338333	5.11549E-05	-0.00805979	0.000134217	0.000234701	0	5	0	
0.034	-0.00565011	0.0122815	9.89795E-05	0.000216444	0	5	0	
0.0341667	0.00971228	-0.0150554	0.000106869	0.000229145	0	5	0	
0.0343333	-0.00145267	0.0134229	0.000125395	0.000268663	0	5	0	
0.0345	-0.0149111	-0.0134168	0.000162038	0.000272878	0	5	0	
0.0346667	0.00587115	0.0170794	0.000170434	0.000276849	0	5	0	
0.0348333	0.00164407	-0.012526	0.00017977	0.000268937	0	5	0	
0.035	-0.000449531	0.00949978	0.000164107	0.000267812	0	5	0	
0.0351667	-0.000799665	-0.00918094	0.000107842	0.000248288	0	5	0	
0.0353333	0.0115097	0.0138273	0.000117021	0.000264816	0	5	0	
0.0355	-0.00717082	-0.0167919	0.000137917	0.000301529	0	5	0	
0.0356667	-0.00794271	0.0107992	0.000150913	0.000308004	0	5	0	
0.0358333	0.00601212	-0.00139418	0.000172863	0.000238227	0	5	0	
0.036	-0.00373929	-0.000414879	0.000139503	0.00014961	0	5	0	
0.0361667	0.00451671	-0.00394862	0.00012595	0.000131281	0	5	0	
0.0363333	-0.0105508	0.00872564	0.00012857	0.000154511	0	5	0	
0.0365	0.00560264	-0.009947	0.000186561	0.000192629	0	5	0	
0.0366667	0.0106714	0.00956461	0.00020216	0.00018767	0	5	0	
0.0368333	-0.0105665	-0.00707523	0.000209115	0.000174148	0	5	0	
0.037	-0.00136107	0.00591274	0.000184733	0.000159565	0	5	0	
0.0371667	0.00107412	-0.010389	0.000193706	0.000151602	0	5	0	
0.0373333	0.00279787	0.0186367	0.000122476	0.000200982	0	5	0	
0.0375	-0.00517479	-0.018906	7.95449E-05	0.000271142	0	5	0	
0.0376667	0.00629643	0.00862457	9.71741E-05	0.000313789	0	5	0	
0.0378333	0.0043293	0.00369352	0.000149059	0.000273987	0	5	0	
0.038	-0.0111681	-0.00200674	0.000179538	0.000176041	0	5	0	
0.0381667	0.00193121	-0.00657346	0.000164614	0.000175004	0	5	0	
0.0383333	0.00598189	0.018359	0.000149386	0.000248438	0	5	0	
0.0385	0.0017633	-0.0215466	0.000132763	0.000360392	0	5	0	
0.0386667	4.55797E-05	0.0177082	9.69193E-05	0.000388329	0	5	0	
0.0388333	-0.00493622	-0.00219034	9.19171E-05	0.000370165	0	5	0	
0.039	0.0025245	-0.00336264	9.67657E-05	0.000299368	0	5	0	
0.0391667	0.00234018	-0.000714398	0.000103575	0.000242297	0	5	0	
0.0393333	0.000711865	0.013073	8.04358E-05	0.000241739	0	5	0	
0.0395	-0.00492772	-0.0193055	6.41278E-05	0.000285175	0	5	0	
0.0396667	0.00462322	0.0193105	8.22543E-05	0.000340182	0	5	0	
0.0398333	0.00411724	-0.0135043	8.10229E-05	0.000336003	0	5	0	
0.04	-0.0036933	0.00883643	9.20944E-05	0.000317693	0	5	0	
0.0401667	-0.0017542	-0.00336146	7.39319E-05	0.000235277	0	5	0	
0.0403333	0.000368756	0.0041962	8.56246E-05	0.000165484	0	5	0	
0.0405	0.00412178	-0.0105091	6.92937E-05	0.000153764	0	5	0	
0.0406667	0.00301282	0.0132359	8.55918E-05	0.000188683	0	5	0	
0.0408333	-0.00409926	-0.0109873	7.14981E-05	0.000223674	0	5	0	
0.041	0.00186014	0.00709988	9.63995E-05	0.00022059	0	5	0	
0.0411667	0.00224085	-0.00826695	7.86707E-05	0.000220852	0	5	0	
0.0413333	-0.000303233	0.0110525	7.55101E-05	0.00022173	0	5	0	
0.0415	-0.00282758	-0.0136372	6.19961E-05	0.00022884	0	5	0	
0.0416667	0.00214595	0.0102494	0.00010401	0.00025341	0	5	0	
0.0418333	0.00255616	-0.00638399	0.000107019	0.000251742	0	5	0	
0.042	0.00249247	0.00642483	0.000125623	0.00022872	0	5	0	
0.0421667	-0.00524203	-0.00983371	0.000105374	0.000208348	0	5	0	
0.0423333	0.00357587	0.0156667	0.000126211	0.000215262	0	5	0	
0.0425	-0.0047889	-0.0181439	0.000114122	0.000264391	0	5	0	
0.0426667	0.00787254	0.0118377	0.000125431	0.000291371	0	5	0	
0.0428333	-0.0078626	-0.00258426	0.000140129	0.000264444	0	5	0	
0.043	0.00371686	0.000326516	0.000149727	0.000213954	0	5	0	
0.0431667	-0.000813925	-0.00993426	0.000132272	0.000194499	0	5	0	
0.0433333	-0.000169127	0.016154	9.22469E-05	0.000217241	0	5	0	
0.0435	-0.00352716	-0.00976771	6.10123E-05	0.00025435	0	5	0	
0.0436667	-0.00170612	-0.000268724	4.04481E-05	0.000204742	0	5	0	
0.0438333	0.000480881	0.00034182	3.99391E-05	0.000171292	0	5	0	
0.044	0.00152592	0.0129891	7.57803E-05	0.000189231	0	5	0	
0.0441667	-0.0040356	-0.0251001	0.000139594	0.000272293	0	5	0	
0.0443333	0.00936714	0.0180613	0.000190894	0.000360374	0	5	0	
0.0445	-0.0100478	-0.00400124	0.000184341	0.000398049	0	5	0	
0.0446667	0.00075678	-0.00787315	0.000157345	0.000373334	0	5	0	
0.0448333	0.00260805	0.00432169	0.00011964	0.00027517	0	5	0	
0.045	0.00275331	0.00925963	0.000100016	0.000257577	0	5	0	
0.0451667	0.0036684	-0.020765	8.57308E-05	0.000316875	0	5	0	
0.0453333	0.00393102	0.0256336	9.25225E-05	0.000418432	0	5	0	
0.0455	-0.00249813	-0.0195472	9.16091E-05	0.000441516	0	5	0	
0.0456667	-0.00606939	0.00292258	7.64378E-05	0.000408051	0	5	0	
0.0458333	0.011688	0.00818156	0.000130348	0.000334047	0	5	0	
0.046	-0.00236524	-0.00419147	0.000155714	0.000242343	0	5	0	
0.0461667	0.00230579	-0.0123223	0.000163928	0.000241814	0	5	0	
0.0463333	0.00451734	0.023325	0.000118252	0.000302853	0	5	0	
0.0465	-0.000407986	-0.0192666	0.000110028	0.000374545	0	5	0	
0.0466667	-0.000244319	0.00621911	9.32743E-05	0.000366059	0	5	0	
0.0468333	-0.00276859	0.00260116	7.99737E-05	0.000302715	0	5	0	
0.047	0.00625348	0.00493242	9.3055E-05	0.000213433	0	5	0	
0.0471667	-0.00499003	-0.0176607	0.000121989	0.000197289	0	5	0	
0.0473333	0.0032609	0.0222197	0.000144874	0.000261242	0	5	0	
0.0475	-0.0023672	-0.0156251	0.000106202	0.000336004	0	5	0	
0.0476667	0.00247356	0.0102591	0.000116145	0.000338328	0	5	0	
0.0478333	-0.00524577	-0.00605422	0.000130835	0.000273125	0	5	0	
0.048	0.00186171	0.00696882	0.000142261	0.000209434	0	5	0	
0.0481667	0.00130219	-0.0101581	0.000122746	0.00017183	0	5	0	
0.0483333	-0.00314639	0.0129024	9.4232E-05	0.00018192	0	5	0	
0.0485	-0.0054691	-0.0109303	0.000110195	0.00021636	0	5	0	
0.0486667	0.00506044	0.0104544	0.000124667	0.000230689	0	5	0	
0.0488333	-0.00104753	-0.00560811	0.000119801	0.000209859	0	5	0	
0.049	-0.000725642	0.00639065	8.50184E-05	0.000161629	0	5	0	
0.0491667	0.00155726	-0.00740722	5.73221E-05	0.000131547	0	5	0	
0.0493333	0.00161869	0.00879471	4.0147E-05	0.000138153	0	5	0	
0.0495	-0.00887707	-0.0122526	8.14999E-05	0.000172065	0	5	0	
0.0496667	0.00731963	0.0111168	0.000146626	0.000205104	0	5	0	
0.0498333	-0.00632426	-0.0100711	0.000166072	0.000205893	0	5	0	
0.05	0.0123573	0.013239	0.000197137	0.000223021	0	5	0	
0.0501667	-0.00992554	-0.0125396	0.000182667	0.000236556	0	5	0	
0.0503333	0.00575543	0.0104897	0.000210096	0.000262588	0	5	0	
0.0505	0.000138747	-0.00878269	0.000150311	0.000237133	0	5	0	
0.0506667	-0.00432131	0.00415459	9.30807E-05	0.000202336	0	5	0	
0.0508333	0.00159804	-0.00622909	5.29473E-05	0.000163076	0	5	0	
0.051	0.00436539	0.0113937	5.75478E-05	0.000157585	0	5	0	
0.0511667	-0.000849073	-0.0141299	5.43409E-05	0.000187916	0	5	0	
0.0513333	-0.000472595	0.0134962	5.24805E-05	0.000240583	0	5	0	
0.0515	-0.00447873	-0.00956818	5.49666E-05	0.00025526	0	5	0	
0.0516667	-0.000210771	0.00763783	7.60444E-05	0.000217822	0	5	0	
0.0518333	-0.000908198	-0.00663384	6.96013E-05	0.00018042	0	5	0	
0.052	0.00705389	0.00685029	7.19186E-05	0.000173256	0	5	0	
0.0521667	-0.00509259	-0.00719792	7.31582E-05	0.00017926	0	5	0	
0.0523333	0.00486468	0.00840455	0.000120063	0.000168759	0	5	0	
0.0525	-0.00524762	-0.0120282	0.000152729	0.000166782	0	5	0	
0.0526667	0.00287835	0.0170112	0.000150641	0.000202525	0	5	0	
0.0528333	-0.00645502	-0.0170628	0.000136252	0.000269314	0	5	0	
0.053	0.00496385	0.0200206	0.000112307	0.000330181	0	5	0	
0.0531667	-0.00380311	-0.0144163	0.000105671	0.00034008	0	5	0	
0.0533333	0.00212061	0.00540844	7.41241E-05	0.000317865	0	5	0	
0.0535	-0.000677068	-0.00217205	5.70711E-05	0.000257116	0	5	0	
0.0536667	0.00204658	0.00274593	4.75071E-05	0.000198266	0	5	0	
0.0538333	-0.00056118	-0.00545792	6.50401E-05	0.000222647	0	5	0	
0.054	-0.00251563	0.0198042	9.27613E-05	0.000296982	0	5	0	
0.0541667	-0.00115453	-0.0285303	0.000128109	0.000395306	0	5	0	
0.0543333	0.00475933	0.0233669	0.000139849	0.000457146	0	5	0	
0.0545	-0.00695394	-0.00125575	0.000126544	0.000497503	0	5	0	
0.0546667	0.00608341	-0.00930429	0.000165002	0.000453571	0	5	0	
0.0548333	0.00600695	0.000700886	0.000164848	0.000331165	0	5	0	
0.055	-0.00510543	0.0149084	0.000184364	0.000264987	0	5	0	
0.0551667	-0.00442184	-0.020914	0.000141779	0.00028506	0	5	0	
0.0553333	0.00419478	0.0179094	0.000134477	0.000349004	0	5	0	
0.0555	0.00125586	-0.0119342	9.80086E-05	0.000333234	0	5	0	
0.0556667	0.00501208	0.00557901	7.83247E-05	0.000300884	0	5	0	
0.0558333	0.00220475	-0.00106832	8.39231E-05	0.000248046	0	5	0	
0.056	-0.0039614	0.00323404	0.000144415	0.000177883	0	5	0	
0.0561667	0.00285096	-0.0157321	0.000144073	0.00018444	0	5	0	
0.0563333	0.00263331	0.0223473	0.000148798	0.000230671	0	5	0	
0.0565	-0.00380263	-0.0183374	9.15039E-05	0.000351637	0	5	0	
0.0566667	0.0088558	0.00749839	0.000130372	0.000380897	0	5	0	
0.0568333	-0.00626466	-0.0088521	0.000134686	0.000331792	0	5	0	
0.057	0.00982507	0.0132618	0.000173583	0.000271411	0	5	0	
0.0571667	-0.00309865	-0.0162662	0.000146319	0.000247916	0	5	0	
0.0573333	-0.00164072	0.0123979	0.000139218	0.000267206	0	5	0	
0.0575	-0.00130467	-0.0100728	0.000103565	0.000261679	0	5	0	
0.0576667	0.00283111	0.00872199	8.50332E-05	0.000231218	0	5	0	
0.0578333	0.00127022	-0.0114472	6.2012E-05	0.000230099	0	5	0	
0.058	-0.000317678	0.0113823	4.95992E-05	0.000232479	0	5	0	
0.0581667	-0.0012391	-0.0115751	4.38024E-05	0.000230602	0	5	0	
0.0583333	0.00582879	0.00822824	5.97053E-05	0.000212873	0	5	0	
0.0585	-0.00783787	-0.00400576	0.000101648	0.000184581	0	5	0	
0.0586667	0.000536804	0.00332181	0.000107467	0.000152662	0	5	0	
0.0588333	-0.00173498	-0.0112567	9.75416E-05	0.000167695	0	5	0	
0.059	-0.00157951	0.0170487	7.786E-05	0.000204688	0	5	0	
0.0591667	-0.00125897	-0.0104181	9.26783E-05	0.000255453	0	5	0	
0.0593333	-0.00347625	-0.000710607	9.40255E-05	0.000245953	0	5	0	
0.0595	0.00624701	0.00131968	0.000111805	0.000172322	0	5	0	
0.0596667	-0.00392926	0.0106651	0.000118713	0.000177978	0	5	0	
0.0598333	0.00128407	-0.0196485	0.000120417	0.00020987	0	5	0	
0.06	0.000173209	0.0141068	8.93893E-05	0.000299436	0	5	0	
0.0601667	0.000267541	-0.0010266	9.4919E-05	0.000296354	0	5	0	
0.0603333	-0.00549867	-0.00615355	0.000136794	0.000234458	0	5	0	
0.0605	0.00776626	0.0032881	0.000169978	0.00016276	0	5	0	
0.0606667	0.000698169	0.00861064	0.000146934	0.000122037	0	5	0	
0.0608333	-8.37884E-05	-0.0204053	8.10782E-05	0.000187556	0	5	0	
0.061	0.00320401	0.0259196	4.40018E-05	0.000291578	0	5	0	
0.0611667	-0.00618543	-0.0172256	5.20993E-05	0.000388684	0	5	0	
0.0613333	0.012744	8.08303E-05	0.000125903	0.000432584	0	5	0	
0.0615	-0.00187623	0.00765608	0.00017146	0.000398198	0	5	0	
0.0616667	-0.00634834	0.00394799	0.000170609	0.000300912	0	5	0	
0.0618333	0.00705115	-0.0222726	0.000141518	0.000315376	0	5	0	
0.062	-0.00522312	0.0303195	0.000141816	0.000404233	0	5	0	
0.0621667	-0.00375226	-0.0232495	0.000158576	0.000517512	0	5	0	
0.0623333	0.00971791	0.0105766	0.000167493	0.000478952	0	5	0	
0.0625	-0.0015455	-0.00235763	0.000158213	0.0003726	0	5	0	
0.0626667	-0.00589166	0.00441106	0.000149645	0.000247976	0	5	0	
0.0628333	0.00442158	-0.011311	0.00014009	0.000217133	0	5	0	
0.063	0.00187819	0.0146943	0.000104611	0.000242592	0	5	0	
0.0631667	-0.00661644	-0.0146652	0.000110683	0.000302545	0	5	0	
0.0633333	0.00255681	0.00800007	9.97063E-05	0.000273195	0	5	0	
0.0635	0.00231829	-0.0010642	9.62454E-05	0.000206136	0	5	0	
0.0636667	0.00202267	0.00332664	9.49857E-05	0.000130077	0	5	0	
0.0638333	-0.0028095	-0.00914073	0.000123882	0.000127413	0	5	0	
0.064	-0.0037678	0.0134103	0.000141293	0.000155431	0	5	0	
0.0641667	0.00720741	-0.00900817	0.000121374	0.000201964	0	5	0	
0.0643333	-0.00286899	0.00492918	0.000102453	0.000182044	0	5	0	
0.0645	0.00366818	-0.00394166	9.90939E-05	0.000148581	0	5	0	
0.0646667	0.00311411	0.00819527	9.64146E-05	0.000127029	0	5	0	
0.0648333	-0.00482635	-0.00946757	6.9279E-05	0.000153764	0	5	0	
0.065	0.00213471	0.0106844	6.67609E-05	0.00018096	0	5	0	
0.0651667	-0.00161044	-0.00567611	7.23686E-05	0.000187719	0	5	0	
0.0653333	0.00101519	0.00880557	7.93143E-05	0.000181191	0	5	0	
0.0655	0.00434449	-0.00852869	0.000121254	0.000172286	0	5	0	
0.0656667	-0.000844729	0.00972183	0.00017762	0.000189653	0	5	0	
0.0658333	0.00430787	-0.011639	0.000193215	0.000201418	0	5	0	
0.066	0.00153822	0.0153866	0.000137706	0.00023028	0	5	0	
0.0661667	-0.00156582	-0.0144285	8.30739E-05	0.000252093	0	5	0	
0.0663333	0.00267735	0.0118424	4.81178E-05	0.000272371	0	5	0	
0.0665	-0.00454888	-0.00762123	7.06122E-05	0.000251316	0	5	0	
0.0666667	0.00720065	0.00926652	7.82747E-05	0.000227183	0	5	0	
0.0668333	-0.00675421	-0.0096509	0.000123782	0.000195973	0	5	0	
0.067	0.00615335	0.00763625	0.000135741	0.000183592	0	5	0	
0.0671667	0.00174668	-0.0076311	0.000143599	0.000159148	0	5	0	
0.0673333	-0.00256625	0.0103262	0.000117892	0.000154573	0	5	0	
0.0675	-0.00300906	-0.0116854	8.97023E-05	0.000171214	0	5	0	
0.0676667	-0.000854081	0.0100885	5.77485E-05	0.000207123	0	5	0	
0.0678333	0.00191859	-0.00585736	5.66803E-05	0.000199695	0	5	0	
0.068	-0.00030556	0.00392408	5.10502E-05	0.000151126	0	5	0	
0.0681667	-0.00247479	-0.0068001	7.20163E-05	0.00011584	0	5	0	
0.0683333	-0.00274441	0.00740919	8.54629E-05	0.000120802	0	5	0	
0.0685	-0.00149381	-0.00571089	8.46442E-05	0.000157942	0	5	0	
0.0686667	-0.000630796	0.00204	6.67802E-05	0.00014749	0	5	0	
0.0688333	-0.00183182	-0.00253626	5.37219E-05	0.000106304	0	5	0	
0.069	0.00209486	0.00863006	6.72087E-05	8.29879E-05	0	5	0	
0.0691667	-0.00249151	-0.0136135	7.58391E-05	0.000120774	0	5	0	
0.0693333	0.00585139	0.0159862	7.81045E-05	0.000196785	0	5	0	
0.0695	-0.0104235	-0.0169669	0.000118003	0.000284472	0	5	0	
0.0696667	0.0059289	0.00948842	0.000189289	0.000338477	0	5	0	
0.0698333	-0.00199503	-0.000536584	0.000246582	0.000340411	0	5	0	
0.07	-0.00191908	-0.00328841	0.00023415	0.00023959	0	5	0	
0.0701667	0.00139281	-0.00219932	0.000160609	0.000186675	0	5	0	
0.0703333	-0.000137182	0.0203254	9.97018E-05	0.000193486	0	5	0	
0.0705	-0.0010271	-0.025059	0.000118931	0.000302127	0	5	0	
0.0706667	0.010923	0.0102764	0.000162248	0.000366341	0	5	0	
0.0708333	-0.0113618	0.00264125	0.000193342	0.000384967	0	5	0	
0.071	0.0032691	-0.00434524	0.000205392	0.00027488	0	5	0	
0.0711667	0.00173321	-0.00640722	0.000192346	0.000208101	0	5	0	
0.0713333	-0.000712385	0.0183057	0.000163933	0.000168906	0	5	0	
0.0715	-0.000445108	-0.0189108	0.00010092	0.000268444	0	5	0	
0.0716667	0.00713776	0.0172846	8.15853E-05	0.000314122	0	5	0	
0.0718333	-0.00968007	-0.0123258	0.000126279	0.000335802	0	5	0	
0.072	0.00509205	0.00229213	0.000155719	0.000296789	0	5	0	
0.0721667	0.000883218	-0.00266493	0.000175957	0.000209356	0	5	0	
0.0723333	-0.00349523	0.00861806	0.000149679	0.000162956	0	5	0	
0.0725	-0.00252013	-0.0150837	0.000120855	0.00016946	0	5	0	
0.0726667	0.00989705	0.0121316	0.000121377	0.000220589	0	5	0	
0.0728333	-0.00368784	-0.00904914	0.000124149	0.000237473	0	5	0	
0.073	-0.000638307	0.00611786	0.000126993	0.000194486	0	5	0	
0.0731667	-0.0016221	-0.00721251	0.000100116	0.000158391	0	5	0	
0.0733333	0.00133836	0.00874448	7.98494E-05	0.000137376	0	5	0	
0.0735	-0.00459324	-0.00921753	0.000108382	0.000156368	0	5	0	
0.0736667	-0.000719312	0.00459299	0.000111249	0.000172041	0	5	0	
0.0738333	0.00180459	-0.00461651	0.000113838	0.000154221	0	5	0	
0.074	0.00319311	0.00625764	8.83542E-05	0.00013174	0	5	0	
0.0741667	-0.00236964	-0.0101744	8.90516E-05	0.000124384	0	5	0	
0.0743333	0.000354532	0.0134476	0.000113218	0.000173416	0	5	0	
0.0745	-0.00213838	-0.0127044	0.000108546	0.000223268	0	5	0	
0.0746667	0.000630342	0.0115107	0.000116386	0.000263607	0	5	0	
0.0748333	-0.0040651	-0.00677467	8.76732E-05	0.000244264	0	5	0	
0.075	0.00448706	0.00731653	7.98997E-05	0.000205722	0	5	0	
0.0751667	-0.00596541	-0.0158341	7.88834E-05	0.000189437	0	5	0	
0.0753333	0.00898166	0.0196586	0.000117186	0.000238224	0	5	0	
0.0755	-0.0012605	-0.00939356	0.00014885	0.000327765	0	5	0	
0.0756667	0.000521053	-0.000795514	0.000164043	0.000353746	0	5	0	
0.0758333	0.00170087	-0.00287912	0.000144309	0.000266617	0	5	0	
0.076	-0.00698073	0.0108941	0.000117026	0.000218805	0	5	0	
0.0761667	0.00392501	-0.015543	0.000111667	0.000203626	0	5	0	
0.0763333	0.00202732	0.0154394	9.20703E-05	0.000273338	0	5	0	
0.0765	-0.00499725	-0.0175581	0.000114354	0.000285623	0	5	0	
0.0766667	0.0067285	0.0126128	0.000105207	0.000302055	0	5	0	
0.0768333	-0.00249698	-0.00510539	0.000110925	0.000278583	0	5	0	
0.077	-0.00441326	0.00186007	0.000105612	0.000199672	0	5	0	
0.0771667	0.00638381	-0.0112469	0.000147281	0.0001477	0	5	0	
0.0773333	-0.00465255	0.0159081	0.000169829	0.000168589	0	5	0	
0.0775	-0.00519266	-0.0120206	0.000162431	0.000227301	0	5	0	
0.0776667	0.00566577	0.00576557	0.000117477	0.000245421	0	5	0	
0.0778333	8.42065E-05	-0.00862425	8.52629E-05	0.000205792	0	5	0	
0.078	-0.000279864	0.0136395	0.000118636	0.000190969	0	5	0	
0.0781667	-0.0011823	-0.014305	0.000159693	0.000209847	0	5	0	
0.0783333	-0.00114163	0.00875208	0.000205946	0.000232612	0	5	0	
0.0785	0.0023404	-0.00606041	0.000198736	0.000217451	0	5	0	
0.0786667	0.000448017	0.00624335	0.000151355	0.000174757	0	5	0	
0.0788333	-0.00029445	-0.00783713	9.90672E-05	0.000146376	0	5	0	
0.079	0.00430011	0.00714177	6.29241E-05	0.000131901	0	5	0	
0.0791667	-0.00576733	-0.00548202	7.04031E-05	0.000138647	0	5	0	
0.0793333	0.0013716	0.00775834	0.000105407	0.000130479	0	5	0	
0.0795	-0.00266363	-0.0140301	0.000133613	0.000157648	0	5	0	
0.0796667	0.00709948	0.0112815	0.000140397	0.000188701	0	5	0	
0.0798333	-0.00346378	-0.00525667	0.000130919	0.000216277	0	5	0	
0.08	-0.000697303	0.00453993	9.44221E-05	0.000175688	0	5	0	
0.0801667	0.00201541	-0.00993928	6.1871E-05	0.000162294	0	5	0	
0.0803333	0.00191696	0.0116144	3.05279E-05	0.000153086	0	5	0	
0.0805	-0.00482151	-0.00889626	4.88005E-05	0.000193209	0	5	0	
0.0806667	0.00441052	0.00836178	7.1464E-05	0.000195367	0	5	0	
0.0808333	-0.00248312	-0.00892447	9.36984E-05	0.000201743	0	5	0	
0.081	0.00463727	0.00613568	8.56946E-05	0.00018657	0	5	0	
0.0811667	0.000242374	-0.00149801	0.000102117	0.000173336	0	5	0	
0.0813333	-0.00177744	0.00045435	0.000136639	0.000141355	0	5	0	
0.0815	0.00190756	-0.00378313	0.000136792	0.000108501	0	5	0	
0.0816667	0.000525387	0.00897122	0.000107304	9.15078E-05	0	5	0	
0.0818333	0.000863149	-0.00925046	6.40604E-05	0.000122572	0	5	0	
0.082	0.00460776	0.0133828	8.15645E-05	0.000166837	0	5	0	
0.0821667	-0.00494091	-0.0152699	9.75941E-05	0.000218067	0	5	0	
0.0823333	0.00520465	0.0130431	0.000108905	0.000253804	0	5	0	
0.0825	-0.0083947	-0.00847768	0.000135943	0.000279165	0	5	0	
0.0826667	0.00234605	0.00779304	0.000146915	0.000252683	0	5	0	
0.0828333	-0.00481317	-0.00403575	0.000143897	0.000209738	0	5	0	
0.083	0.00786395	0.000857446	0.00013303	0.000160989	0	5	0	
0.0831667	-0.00177527	-0.00433039	0.000140509	0.000113873	0	5	0	
0.0833333	0.00329354	0.00606005	0.000197947	0.000113278	0	5	0	
0.0835	-0.00385613	-0.0151277	0.000203859	0.000150272	0	5	0	
0.0836667	-0.00621803	0.00176321	0.000209016	0.000339817	0	5	0	
0.0838333	0.00058756	0.0134847	0.000177319	0.000543539	0	5	0	
0.084	0.00752029	-0.0186046	0.000147487	0.000625224	0	5	0	
0.0841667	-0.00805626	0.0138764	0.000140308	0.000509854	0	5	0	
0.0843333	0.00366848	-0.0105254	0.000155216	0.000380597	0	5	0	
0.0845	0.00599599	-0.017683	0.000146854	0.000383405	0	5	0	
0.0846667	-0.00163636	0.0396088	0.000165175	0.000498421	0	5	0	
0.0848333	-0.00672181	-0.0458898	0.000165797	0.000620236	0	5	0	
0.085	0.008053	0.0286575	0.00019004	0.00075683	0	5	0	
0.0851667	0.00231147	-0.00299389	0.000142657	0.000820592	0	5	0	
0.0853333	-0.00442828	-0.0147387	0.000110148	0.000787174	0	5	0	
0.0855	0.00285169	0.0181145	0.000100318	0.000633952	0	5	0	
0.0856667	-0.00243593	-0.0113787	0.000123763	0.000471513	0	5	0	
0.0858333	0.00648843	0.0139231	0.000113458	0.000312023	0	5	0	
0.086	0.00598375	-0.00938165	0.000149253	0.000262735	0	5	0	
0.0861667	-0.00394708	-0.00232807	0.000200733	0.000318707	0	5	0	
0.0863333	0.00147088	0.0260798	0.000194498	0.000510185	0	5	0	
0.0865	-4.45884E-05	-0.0422897	0.000140802	0.000673446	0	5	0	
0.0866667	0.0026186	0.0406639	5.40733E-05	0.000761574	0	5	0	
0.0868333	-0.00599132	-0.0190599	5.59334E-05	0.000706868	0	5	0	
0.087	0.0080698	0.00242704	0.000113588	0.000628733	0	5	0	
0.0871667	0.00623227	0.0139966	0.000164566	0.000594831	0	5	0	
0.0873333	-0.00510753	-0.0249432	0.000185756	0.000566555	0	5	0	
0.0875	0.00159046	0.0200256	0.000129559	0.000511085	0	5	0	
0.0876667	-0.000303995	-0.00509581	9.3853E-05	0.000522196	0	5	0	
0.0878333	-0.00743747	-0.00974083	8.56652E-05	0.000597678	0	5	0	
0.088	0.00692239	0.0237105	0.000116631	0.000560421	0	5	0	
0.0881667	0.00223214	-0.0237813	0.000119571	0.000558238	0	5	0	
0.0883333	-0.00718105	-0.00257166	0.000127487	0.000549056	0	5	0	
0.0885	0.00575278	-0.00300222	0.000113928	0.000562939	0	5	0	
0.0886667	-0.0041431	0.0105968	0.000128066	0.000420338	0	5	0	
0.0888333	-0.00350969	0.00811091	0.000133595	0.000351703	0	5	0	
0.089	0.00113235	-0.00285458	0.00012163	0.000366884	0	5	0	
0.0891667	-0.00422763	-0.0230764	0.000108682	0.000400767	0	5	0	
0.0893333	0.000986929	0.0329157	8.09496E-05	0.000432277	0	5	0	
0.0895	-0.00245632	-0.0287871	8.58688E-05	0.000509516	0	5	0	
0.0896667	-0.00155681	0.0165781	9.36769E-05	0.000603184	0	5	0	
0.0898333	0.00501972	-0.00953369	9.88865E-05	0.000538085	0	5	0	
0.09	-0.00132346	0.0119385	8.17471E-05	0.000467236	0	5	0	
0.0901667	-0.0103234	-0.002591	7.68748E-05	0.000350281	0	5	0	
0.0903333	0.0100344	0.00853976	0.000118214	0.000264813	0	5	0	
0.0905	-0.00594963	-0.0229478	0.000169305	0.000243204	0	5	0	
0.0906667	0.0023351	0.0289691	0.000189137	0.000311983	0	5	0	
0.0908333	-0.000435929	-0.012996	0.00016052	0.000460721	0	5	0	
0.091	0.00522295	-0.00453485	0.000138874	0.000517717	0	5	0	
0.0911667	-0.0056076	0.00158855	0.000127546	0.000369893	0	5	0	
0.0913333	0.00594087	0.010873	0.000122662	0.00028282	0	5	0	
0.0915	-0.00147906	-0.0205055	0.000119056	0.000241151	0	5	0	
0.0916667	0.00573078	0.0233442	9.59591E-05	0.000355231	0	5	0	
0.0918333	-0.0029547	-0.018385	9.89356E-05	0.00038407	0	5	0	
0.092	0.00804374	0.00868917	8.83068E-05	0.000379954	0	5	0	
0.0921667	-0.00641408	0.00268094	0.000117215	0.000328074	0	5	0	
0.0923333	-0.000851531	-0.00243165	0.00010461	0.000206118	0	5	0	
0.0925	0.000585184	-0.0116082	9.75053E-05	0.000159562	0	5	0	
0.0926667	0.00782734	0.0247806	7.72192E-05	0.0001939	0	5	0	
0.0928333	-0.0080732	-0.018203	0.000110199	0.000324655	0	5	0	
0.093	0.00390832	0.00431666	0.000139563	0.000393295	0	5	0	
0.0931667	-0.00170657	0.00513291	0.00014576	0.000357882	0	5	0	
0.0933333	0.00421474	0.00403652	0.000105547	0.000233242	0	5	0	
0.0935	-0.00657699	-0.0127633	0.000105958	0.000160331	0	5	0	
0.0936667	0.00302739	0.0169547	0.000110757	0.000177196	0	5	0	
0.0938333	-0.00409474	-0.0119383	0.000133611	0.000249635	0	5	0	
0.094	0.00442251	0.00461227	0.000108368	0.000249834	0	5	0	
0.0941667	-0.00389564	-0.00204943	0.000104255	0.000197762	0	5	0	
0.0943333	0.00344944	0.00715995	9.41722E-05	0.000151194	0	5	0	
0.0945	-0.00156116	-0.0088926	8.94683E-05	0.000141051	0	5	0	
0.0946667	0.00595231	0.0112187	7.09426E-05	0.00016515	0	5	0	
0.0948333	-0.00817203	-0.00877729	9.35464E-05	0.000185543	0	5	0	
0.095	0.00365395	0.00340305	0.000105544	0.000182435	0	5	0	
0.0951667	0.00114849	-0.00365176	0.000120683	0.000173656	0	5	0	
0.0953333	-0.0012604	0.00598124	8.95074E-05	0.000161667	0	5	0	
0.0955	0.00041042	-0.00926891	6.59322E-05	0.00016233	0	5	0	
0.0956667	0.00296465	0.0121855	5.55521E-05	0.00017648	0	5	0	
0.0958333	0.00258414	-0.0129044	4.43769E-05	0.000201941	0	5	0	
0.096	-0.00830533	0.00779382	8.13897E-05	0.000213714	0	5	0	
0.0961667	0.000417995	-0.0041133	0.00011197	0.000210594	0	5	0	
0.0963333	0.00338986	0.00263574	0.000121045	0.000215723	0	5	0	
0.0965	-0.00179678	-0.000380581	0.000117234	0.000225331	0	5	0	
0.0966667	0.00512258	0.000960273	0.00011542	0.000195768	0	5	0	
0.0968333	-0.00177267	-0.00252711	0.000135155	0.000129714	0	5	0	
0.097	-0.00222268	0.00891276	0.000102316	9.90989E-05	0	5	0	
0.0971667	0.00126494	-0.0145639	0.00011223	0.000127679	0	5	0	
0.0973333	0.00128263	0.0146819	0.000128315	0.000224112	0	5	0	
0.0975	-0.00118564	-0.00853045	0.000147217	0.000298786	0	5	0	
0.0976667	0.00230243	0.00602152	0.000100676	0.000324196	0	5	0	
0.0978333	-0.00201008	-0.00339449	7.32381E-05	0.000252586	0	5	0	
0.098	0.00138859	0.00607659	5.29906E-05	0.000175599	0	5	0	
0.0981667	-0.000399808	-0.0087705	7.84475E-05	0.00013414	0	5	0	
0.0983333	0.00063283	0.00934451	9.22403E-05	0.000146745	0	5	0	
0.0985	0.00147245	-0.00974687	0.000109511	0.000180948	0	5	0	
0.0986667	-0.00306644	0.00713338	9.27683E-05	0.000220942	0	5	0	
0.0988333	0.0017047	-0.00289393	7.44391E-05	0.00023213	0	5	0	
0.099	0.00121245	0.00475699	8.5122E-05	0.000202023	0	5	0	
0.0991667	-0.00277987	-0.00677306	8.61022E-05	0.000159357	0	5	0	
0.0993333	0.00792273	0.00517348	0.000130386	0.000168053	0	5	0	
0.0995	-0.000687093	-0.00507412	0.000184676	0.000206923	0	5	0	
0.0996667	-0.00261353	0.00711196	0.000206396	0.000207064	0	5	0	
0.0998333	-0.0025212	-0.0153895	0.000157924	0.000209116	0	5	0	
0.1	0.00701848	0.0185978	0.000118447	0.000222691	0	5	0	
0.100167	-0.00486825	-0.0114366	0.000102364	0.000287539	0	5	0	
0.100333	0.00429181	0.00287029	0.000121715	0.000350558	0	5	0	
0.1005	0.00614089	0.0100942	9.72763E-05	0.000372925	0	5	0	
0.100667	-0.00172412	-0.0112162	0.000113348	0.000337675	0	5	0	
0.100833	0.000280883	-0.00138031	8.93775E-05	0.000265496	0	5	0	
0.101	-0.00282413	0.0161877	8.63867E-05	0.00024807	0	5	0	
0.101167	-0.000401113	-0.0217377	9.11473E-05	0.000281684	0	5	0	
0.101333	0.00362908	0.0111508	8.02373E-05	0.000400652	0	5	0	
0.1015	0.00023972	0.00660983	0.000122543	0.000513395	0	5	0	
0.101667	0.00202539	-0.00626111	0.000133638	0.000525761	0	5	0	
0.101833	-0.00326663	-0.00400909	0.000154623	0.000363768	0	5	0	
0.102	0.00428238	0.0121898	0.000109692	0.000194098	0	5	0	
0.102167	-0.000199782	-0.0153524	0.000116972	0.000167831	0	5	0	
0.102333	-0.00260898	0.0143958	0.000141002	0.000279972	0	5	0	
0.1025	0.00241523	-0.00796133	0.000130356	0.000373935	0	5	0	
0.102667	-0.00409525	0.000789709	7.97564E-05	0.00037385	0	5	0	
0.102833	0.0062833	-0.000945735	7.0003E-05	0.000255984	0	5	0	
0.103	0.00925916	0.0127888	9.18064E-05	0.000172161	0	5	0	
0.103167	-0.0121933	-0.0230941	0.000147915	0.000176307	0	5	0	
0.103333	0.00343892	0.0218457	0.000178266	0.000328449	0	5	0	
0.1035	-0.000592234	-0.00775603	0.000244807	0.000458264	0	5	0	
0.103667	0.004295	-0.00159546	0.000252132	0.000462151	0	5	0	
0.103833	-0.00447048	-0.00262438	0.000236211	0.00030742	0	5	0	
0.104	0.00339375	0.0123781	0.00018014	0.000168227	0	5	0	
0.104167	0.00137091	-0.0161121	0.000125629	0.00014845	0	5	0	
0.104333	0.00244393	0.0173521	9.26214E-05	0.000248201	0	5	0	
0.1045	-0.00401995	-0.0114649	7.50712E-05	0.00030602	0	5	0	
0.104667	0.00677442	0.00394178	8.94605E-05	0.000285982	0	5	0	
0.104833	-0.00249524	-0.000541614	9.22305E-05	0.000198939	0	5	0	
0.105	-0.00120198	0.00292806	7.36291E-05	0.000121075	0	5	0	
0.105167	-0.00200783	-0.00938085	5.19922E-05	0.000107882	0	5	0	
0.105333	0.00188135	0.0132416	4.38962E-05	0.000145217	0	5	0	
0.1055	-0.00311004	-0.00927465	4.64041E-05	0.000201904	0	5	0	
0.105667	0.00297715	0.00477038	5.39221E-05	0.000227313	0	5	0	
0.105833	-0.000720696	-0.00295726	6.26669E-05	0.000243284	0	5	0	
0.106	0.00263174	-0.000201289	8.00225E-05	0.000278535	0	5	0	
0.106167	-0.000123219	0.00630483	7.1651E-05	0.0003102	0	5	0	
0.106333	0.000263924	-0.00305818	5.34063E-05	0.000248542	0	5	0	
0.1065	-0.00426269	-0.0113643	5.00398E-05	0.00022706	0	5	0	
0.106667	0.00412204	0.0244901	7.62939E-05	0.000240291	0	5	0	
0.106833	-0.0061797	-0.0255735	0.000101742	0.000369445	0	5	0	
0.107	-0.000171362	0.0146639	0.000107924	0.000485298	0	5	0	
0.107167	0.00960459	0.00123118	8.52977E-05	0.000555509	0	5	0	
0.107333	-0.00748602	-0.00798259	0.000111867	0.000494066	0	5	0	
0.1075	0.00531851	0.00110683	0.00014327	0.000327391	0	5	0	
0.107667	-0.00318812	0.0146076	0.00017305	0.000246519	0	5	0	
0.107833	0.000600864	-0.0271974	0.000130269	0.000288008	0	5	0	
0.108	0.00326171	0.0260858	8.67519E-05	0.000412285	0	5	0	
0.108167	-0.0014762	-0.0114486	6.67547E-05	0.000504319	0	5	0	
0.108333	-0.00160886	-0.00635087	0.000106	0.000542942	0	5	0	
0.1085	-0.00362642	0.0119913	0.000157995	0.000444524	0	5	0	
0.108667	0.00142826	-5.56306E-06	0.000179145	0.00029052	0	5	0	
0.108833	-0.00207585	-0.017009	0.000163099	0.000195795	0	5	0	
0.109	0.00357624	0.0216496	0.00012087	0.000237222	0	5	0	
0.109167	-0.0104315	-0.0174199	0.000131703	0.000331574	0	5	0	
0.109333	0.0123353	0.00671897	0.000169641	0.000373441	0	5	0	
0.1095	-0.0100511	-0.00115026	0.000226606	0.00033565	0	5	0	
0.109667	0.00364527	0.0058745	0.000205025	0.000243045	0	5	0	
0.109833	-0.0111446	-0.0125613	0.000178226	0.000192628	0	5	0	
0.11	0.00614735	0.0127248	0.00014397	0.000209797	0	5	0	
0.110167	-0.00996498	-0.0125471	0.00015953	0.00024803	0	5	0	
0.110333	0.00636698	0.00697547	0.000174524	0.000256738	0	5	0	
0.1105	-0.00587495	-0.00240067	0.000152114	0.00021494	0	5	0	
0.110667	0.00137164	0.00514556	0.00012842	0.000164998	0	5	0	
0.110833	-0.000327109	-0.0106894	8.82699E-05	0.000146749	0	5	0	
0.111	0.000199552	0.0138985	0.000111032	0.000188296	0	5	0	
0.111167	-0.00960358	-0.0118636	0.000121737	0.000222018	0	5	0	
0.111333	0.00985935	0.00836925	0.000160479	0.00023826	0	5	0	
0.1115	-0.00574863	-0.00959562	0.00016105	0.00020317	0	5	0	
0.111667	-0.00468486	0.0102601	0.000141417	0.000198283	0	5	0	
0.111833	0.00317977	-0.0103269	0.000110676	0.000210832	0	5	0	
0.112	-0.00107843	0.00785186	9.18414E-05	0.000225633	0	5	0	
0.112167	-0.0051401	-0.004468	0.000100628	0.000200799	0	5	0	
0.112333	0.00495669	0.00242217	9.08362E-05	0.000149101	0	5	0	
0.1125	-0.00104155	-0.00556367	9.28529E-05	9.79899E-05	0	5	0	
0.112667	-0.00309481	0.00897397	7.04372E-05	0.000100008	0	5	0	
0.112833	0.00216048	-0.0113706	7.73802E-05	0.000137909	0	5	0	
0.113	-0.000982543	0.00633648	7.19179E-05	0.000183593	0	5	0	
0.113167	-0.00169043	0.000489673	7.80429E-05	0.000189722	0	5	0	
0.113333	-0.000208681	-0.00162889	6.14331E-05	0.00014725	0	5	0	
0.1135	4.78056E-05	-0.00828117	3.87659E-05	0.000113648	0	5	0	
0.113667	0.00689225	0.0156591	5.45014E-05	0.000145814	0	5	0	
0.113833	-0.00115327	-0.00955631	7.73088E-05	0.000209784	0	5	0	
0.114	-0.00373393	0.00683779	9.63588E-05	0.000249237	0	5	0	
0.114167	0.000620985	-0.00564344	8.46434E-05	0.000224696	0	5	0	
0.114333	-0.00229411	0.00771294	5.86781E-05	0.00020347	0	5	0	
0.1145	0.00355658	-0.00794756	6.44425E-05	0.000219119	0	5	0	
0.114667	-0.000478496	0.0059634	8.42012E-05	0.000223386	0	5	0	
0.114833	0.00408603	-0.00640677	9.12018E-05	0.000199257	0	5	0	
0.115	0.00295173	0.010851	9.12377E-05	0.000178502	0	5	0	
0.115167	-0.0118211	-0.00911251	9.82485E-05	0.00021242	0	5	0	
0.115333	0.0025542	0.00411137	0.000136016	0.000247566	0	5	0	
0.1155	0.00388349	-0.00592102	0.000173235	0.000229377	0	5	0	
0.115667	0.00278721	0.0119382	0.000164202	0.000188372	0	5	0	
0.115833	-0.00978634	-0.0185196	0.000158383	0.000199539	0	5	0	
0.116	0.00727891	0.0213166	0.000142143	0.000283223	0	5	0	
0.116167	-0.000718628	-0.0121405	0.000143301	0.000367345	0	5	0	
0.116333	-0.000780385	-0.00696753	0.000130915	0.000431726	0	5	0	
0.1165	-0.00252727	0.0131755	0.000112156	0.000388022	0	5	0	
0.116667	-0.0033824	-0.00168523	8.73731E-05	0.000349771	0	5	0	
0.116833	0.00632503	-0.0200052	8.76441E-05	0.000362045	0	5	0	
0.117	8.95562E-05	0.027778	0.000109903	0.00040317	0	5	0	
0.117167	-0.00453344	-0.0122542	0.00011637	0.000463919	0	5	0	
0.117333	0.00403393	0.000576821	0.000138617	0.000470303	0	5	0	
0.1175	0.00644204	0.001089	0.000132806	0.000458646	0	5	0	
0.117667	-0.00437435	0.00151267	0.000149498	0.000344445	0	5	0	
0.117833	-0.000505111	-0.00741175	0.00010897	0.000207057	0	5	0	
0.118	0.00106399	0.0151019	7.51728E-05	0.000159857	0	5	0	
0.118167	-0.0043194	-0.0203079	6.15727E-05	0.000224328	0	5	0	
0.118333	0.0112159	0.0171466	9.42163E-05	0.000306896	0	5	0	
0.1185	-0.00181201	-0.00841828	0.000119557	0.000345969	0	5	0	
0.118667	5.04924E-05	0.00577443	0.00010936	0.00029157	0	5	0	
0.118833	0.00567313	-0.00976917	9.84139E-05	0.000262482	0	5	0	
0.119	-0.00230086	0.0121965	0.000114502	0.000258328	0	5	0	
0.119167	0.000646368	-0.00949722	0.000147046	0.000256766	0	5	0	
0.119333	0.00249214	0.00110905	0.000128971	0.000246813	0	5	0	
0.1195	-0.000850281	0.0034334	7.86634E-05	0.000210926	0	5	0	
0.119667	-0.00265892	-0.000912119	7.36212E-05	0.000160945	0	5	0	
0.119833	0.0029415	-0.00493613	0.000106787	0.000126814	0	5	0	
0.12	-0.00123454	0.00797213	0.000123342	8.81732E-05	0	5	0	
0.120167	-0.00177791	-0.00678558	9.88986E-05	0.00016865	0	5	0	
0.120333	0.0085004	0.00269834	9.03052E-05	0.000237159	0	5	0	
0.1205	-0.00614461	-0.00178845	0.000105373	0.000282494	0	5	0	
0.120667	0.00881141	0.00544188	0.000139439	0.00022528	0	5	0	
0.120833	-0.00963566	-0.00744036	0.000164502	0.000158387	0	5	0	
0.121	0.00368865	0.0106622	0.000181625	0.000145366	0	5	0	
0.121167	-0.005714	-0.0102465	0.000169593	0.000203111	0	5	0	
0.121333	0.00657968	0.0141276	0.000154087	0.000240781	0	5	0	
0.1215	-0.00612818	-0.0162368	0.0001715	0.000277579	0	5	0	
0.121667	0.0061464	0.0156268	0.000186121	0.000306802	0	5	0	
0.121833	-0.00811513	-0.00370149	0.000182743	0.000356795	0	5	0	
0.122	0.0114261	-0.00500854	0.000165299	0.000372004	0	5	0	
0.122167	-0.00808995	0.00684083	0.000182697	0.00028795	0	5	0	
0.122333	-0.00407457	0.0056632	0.0001565	0.000221002	0	5	0	
0.1225	0.00217819	-0.0193913	0.000126311	0.000221721	0	5	0	
0.122667	-0.00064366	0.0293765	6.36606E-05	0.00033908	0	5	0	
0.122833	-0.0032101	-0.018351	5.24758E-05	0.000423458	0	5	0	
0.123	-0.000126636	-0.000256437	5.36799E-05	0.000482113	0	5	0	
0.123167	0.00667643	0.0120046	7.92399E-05	0.00047604	0	5	0	
0.123333	-0.00706501	-0.00393233	0.000119797	0.000367742	0	5	0	
0.1235	-0.00263978	-0.0138284	0.000116189	0.000296983	0	5	0	
0.123667	0.00810052	0.0234984	0.00011558	0.00028552	0	5	0	
0.123833	-0.00955604	-0.0155329	0.000113114	0.000350014	0	5	0	
0.124	0.00368147	0.0026828	0.000135089	0.000402459	0	5	0	
0.124167	0.00294077	0.0055511	0.000158908	0.000415202	0	5	0	
0.124333	-0.00326495	-0.00278106	0.000159489	0.000350775	0	5	0	
0.1245	-0.00214172	-0.00730884	0.00016961	0.000257026	0	5	0	
0.124667	0.00103683	0.0156054	0.000156258	0.000198079	0	5	0	
0.124833	0.00277628	-0.0165305	0.00011013	0.000246762	0	5	0	
0.125	0.0041474	0.0114379	0.000105016	0.000316764	0	5	0	
0.125167	-0.00764545	-0.00437902	0.000117013	0.00035835	0	5	0	
0.125333	0.00908337	0.000709025	0.000162834	0.000338573	0	5	0	
0.1255	-0.00461473	-0.000684587	0.000157452	0.000221352	0	5	0	
0.125667	0.00330841	0.00406562	0.000140829	0.000118159	0	5	0	
0.125833	0.00158889	-0.01219	9.60424E-05	9.46166E-05	0	5	0	
0.126	0.00173168	0.0111732	7.69062E-05	0.000151528	0	5	0	
0.126167	0.00206603	-0.00807078	5.6584E-05	0.000214303	0	5	0	
0.126333	0.000438567	0.00507244	7.67555E-05	0.000229686	0	5	0	
0.1265	-0.000569037	-0.00633871	9.56148E-05	0.000205208	0	5	0	
0.126667	0.00541177	0.00512429	9.15399E-05	0.000161825	0	5	0	
0.126833	-0.00274842	-0.00591594	0.000107874	0.000170015	0	5	0	
0.127	0.00434805	0.00224953	0.000122668	0.00019729	0	5	0	
0.127167	-0.00176131	-0.00411889	0.000133637	0.000212368	0	5	0	
0.127333	0.000993701	0.00447265	9.74798E-05	0.000176148	0	5	0	
0.1275	-0.00228675	-0.00631884	5.72092E-05	0.000139948	0	5	0	
0.127667	0.0033973	0.00714295	4.53718E-05	0.00011986	0	5	0	
0.127833	-0.00472913	-0.00703732	6.47841E-05	0.000126761	0	5	0	
0.128	-0.000325569	0.00656424	8.44027E-05	0.000142635	0	5	0	
0.128167	0.00106461	-0.00706554	0.000106187	0.000171332	0	5	0	
0.128333	0.000177831	0.00517377	8.97106E-05	0.000196865	0	5	0	
0.1285	-0.00188812	-0.00162462	5.45962E-05	0.000195343	0	5	0	
0.128667	0.000306672	0.00110825	3.26412E-05	0.000172043	0	5	0	
0.128833	0.00126435	-0.00338256	2.51625E-05	0.000137928	0	5	0	
0.129	-0.00421107	0.00548335	4.42067E-05	0.000127828	0	5	0	
0.129167	0.0063386	-0.00587426	7.93414E-05	0.000145936	0	5	0	
0.129333	-0.00742962	0.00309603	0.000117779	0.000187659	0	5	0	
0.1295	-0.00252037	-0.000155587	0.000136085	0.000202841	0	5	0	
0.129667	0.00504357	0.0031807	0.000122648	0.000170705	0	5	0	
0.129833	-0.000879387	-0.00702084	0.000102377	0.000129963	0	5	0	
0.13	-0.0017691	0.00877518	9.05616E-05	0.000118098	0	5	0	
0.130167	0.00570476	-0.0129494	0.0001038	0.000161866	0	5	0	
0.130333	-0.00813451	0.00818015	0.000128315	0.000211014	0	5	0	
0.1305	-0.00411783	0.00043657	0.000137026	0.000259361	0	5	0	
0.130667	0.00299436	-0.00594376	0.000118167	0.000274091	0	5	0	
0.130833	0.00432873	0.00555745	0.00013122	0.000241751	0	5	0	
0.131	-0.00700541	0.00269405	0.000159835	0.000163382	0	5	0	
0.131167	0.00262007	-0.0132436	0.000148304	0.00012939	0	5	0	
0.131333	0.0022199	0.0132084	0.00010047	0.000154718	0	5	0	
0.1315	-0.00403432	-0.00786513	7.47222E-05	0.000223949	0	5	0	
0.131667	0.00291528	0.00159224	0.000105484	0.000289643	0	5	0	
0.131833	-0.00727637	-0.000678078	0.000136707	0.00033503	0	5	0	
0.132	0.00799031	0.000235615	0.000139424	0.000320123	0	5	0	
0.132167	-2.94476E-05	-0.00857595	0.000154965	0.0002373	0	5	0	
0.132333	-0.00184266	0.0160584	0.000160588	0.000203135	0	5	0	
0.1325	-0.00112514	-0.0125959	0.000132498	0.000215525	0	5	0	
0.132667	0.00914263	0.00306655	0.000100607	0.000298694	0	5	0	
0.132833	-0.00495149	-0.00152775	0.000108125	0.00031726	0	5	0	
0.133	-0.00403752	0.00383528	0.000111303	0.000268256	0	5	0	
0.133167	-0.00419392	-0.00626149	0.000121813	0.000185582	0	5	0	
0.133333	0.00881832	0.00387561	9.80564E-05	0.000110031	0	5	0	
0.1335	-0.00267116	-0.00386985	0.000132967	9.55123E-05	0	5	0	
0.133667	0.000494869	0.0092532	0.000105661	0.000101126	0	5	0	
0.133833	-0.00107854	-0.0091065	0.000130521	0.000172642	0	5	0	
0.134	0.000146297	0.00100829	0.000117287	0.000256945	0	5	0	
0.134167	-0.000834155	-6.63695E-05	0.000128052	0.000257132	0	5	0	
0.134333	0.00294384	0.00498123	9.7617E-05	0.000170962	0	5	0	
0.1345	-0.00641093	-0.00578025	9.79918E-05	0.000128476	0	5	0	
0.134667	-0.000210537	0.00313595	9.60135E-05	0.000176066	0	5	0	
0.134833	0.00360134	-0.00112468	7.8692E-05	0.000210355	0	5	0	
0.135	-0.0024744	0.00796526	7.857E-05	0.000178186	0	5	0	
0.135167	-0.00450112	-0.013434	8.18506E-05	0.000152987	0	5	0	
0.135333	0.00538627	0.0151734	0.000108042	0.000190272	0	5	0	
0.1355	0.00114182	-0.00838262	8.78227E-05	0.000297639	0	5	0	
0.135667	-0.00678546	-0.00270235	9.90091E-05	0.000372696	0	5	0	
0.135833	0.00518595	0.0084935	0.000106699	0.000340825	0	5	0	
0.136	-0.00329874	0.00198772	0.000125608	0.000235298	0	5	0	
0.136167	-0.00715096	-0.00872872	0.000111952	0.000131771	0	5	0	
0.136333	0.00234928	0.00936446	9.5391E-05	0.000139884	0	5	0	
0.1365	-0.000922172	-0.00343094	7.9673E-05	0.000203459	0	5	0	
0.136667	0.00197834	0.00104984	9.55025E-05	0.000236643	0	5	0	
0.136833	-0.00106835	-0.000627709	0.000116549	0.000187193	0	5	0	
0.137	0.00243988	0.00776233	0.000138755	0.000115175	0	5	0	
0.137167	-0.00508643	-0.00857859	0.000139248	0.000112223	0	5	0	
0.137333	0.00325177	0.00371409	0.000115838	0.000251758	0	5	0	
0.1375	-0.000960676	0.00659578	9.16075E-05	0.00040484	0	5	0	
0.137667	-0.00324042	-0.00696009	0.000118612	0.000440501	0	5	0	
0.137833	0.00618506	0.0036246	0.000170285	0.000303672	0	5	0	
0.138	-0.00215242	0.00658727	0.000183078	0.000162763	0	5	0	
0.138167	0.00259275	-0.0124181	0.00014284	0.000106864	0	5	0	
0.138333	-0.000874613	0.0191518	8.7236E-05	0.000214743	0	5	0	
0.1385	0.00381331	-0.0126865	7.85906E-05	0.000319034	0	5	0	
0.138667	0.00168452	0.00285753	7.25151E-05	0.000403477	0	5	0	
0.138833	-0.00184753	0.00727036	7.72321E-05	0.000366599	0	5	0	
0.139	-0.00171104	-0.00148523	0.000120213	0.000258199	0	5	0	
0.139167	0.00185854	-0.00752847	0.000151032	0.00015523	0	5	0	
0.139333	0.00273078	0.0111463	0.000139535	0.000132734	0	5	0	
0.1395	0.000272729	-0.00150422	8.5605E-05	0.000211203	0	5	0	
0.139667	-0.00390654	-0.00477319	9.88838E-05	0.000271482	0	5	0	
0.139833	0.00530228	0.000620795	0.000143241	0.000227149	0	5	0	
0.14	-0.000294134	0.00732538	0.000169134	0.000142487	0	5	0	
0.140167	2.58133E-05	-0.00533402	0.000142338	9.37158E-05	0	5	0	
0.140333	-0.00124372	0.00366596	0.000125714	0.000154709	0	5	0	
0.1405	0.00122861	-0.000821668	9.49159E-05	0.000227002	0	5	0	
0.140667	0.00316845	-0.00183731	7.07321E-05	0.000250501	0	5	0	
0.140833	-0.00246034	0.00106436	5.65921E-05	0.000194507	0	5	0	
0.141	-0.000975498	0.00236788	6.58674E-05	0.000118398	0	5	0	
0.141167	0.00219612	-0.00176638	7.53742E-05	8.26453E-05	0	5	0	
0.141333	3.61965E-05	0.00404824	6.67148E-05	0.000105233	0	5	0	
0.1415	-0.00149745	-0.00562625	7.1848E-05	0.000141751	0	5	0	
0.141667	-0.000877551	0.00831099	8.04728E-05	0.000176098	0	5	0	
0.141833	-0.000507949	-0.00842108	9.56297E-05	0.00018958	0	5	0	
0.142	0.00536347	0.00705788	8.68496E-05	0.000219547	0	5	0	
0.142167	1.95684E-05	-0.000103895	7.82853E-05	0.000236742	0	5	0	
0.142333	-0.00226185	-0.00316861	8.10004E-05	0.00023272	0	5	0	
0.1425	-0.0012992	0.000845255	9.79177E-05	0.000180373	0	5	0	
0.142667	-0.00281737	0.00805701	8.71561E-05	0.000138857	0	5	0	
0.142833	0.0013275	-0.00844268	6.38073E-05	0.000135075	0	5	0	
0.143	0.000990361	0.00738886	4.32652E-05	0.000159502	0	5	0	
0.143167	0.00334062	-0.00335406	4.51686E-05	0.000172497	0	5	0	
0.143333	6.85204E-05	0.00214864	5.3834E-05	0.000178455	0	5	0	
0.1435	-0.00233649	-0.00142374	7.00923E-05	0.00018715	0	5	0	
0.143667	-0.00458365	0.00679214	7.26636E-05	0.000195895	0	5	0	
0.143833	0.00764015	-0.00778492	8.60665E-05	0.000185083	0	5	0	
0.144	-0.0038587	0.00748395	0.000110441	0.000165975	0	5	0	
0.144167	0.000661143	-0.00643143	0.0001056	0.000171916	0	5	0	
0.144333	0.00496801	0.00434912	8.90549E-05	0.000187004	0	5	0	
0.1445	-0.00159923	-0.00228302	7.19026E-05	0.000184273	0	5	0	
0.144667	0.0013332	0.00425157	6.97796E-05	0.000152395	0	5	0	
0.144833	-0.00179666	-0.00619948	6.34915E-05	0.000129656	0	5	0	
0.145	0.00542253	0.00364044	8.2146E-05	0.000135686	0	5	0	
0.145167	-0.00461117	-0.00516044	0.000123526	0.00016142	0	5	0	
0.145333	0.00497914	0.00510408	0.000145816	0.000176485	0	5	0	
0.1455	0.000502535	-0.00545938	0.000125537	0.000194485	0	5	0	
0.145667	0.00194683	0.00314681	8.8109E-05	0.000205689	0	5	0	
0.145833	0.000185859	-0.00351331	9.01676E-05	0.000212765	0	5	0	
0.146	-0.00121605	0.00210723	9.38732E-05	0.000209141	0	5	0	
0.146167	0.00239832	-0.0040608	0.000107591	0.000214344	0	5	0	
0.146333	-0.00361169	0.00344859	8.94725E-05	0.000219502	0	5	0	
0.1465	0.00783319	-0.00160615	9.26717E-05	0.00019554	0	5	0	
0.146667	-0.002846	0.00288337	0.000100715	0.000138479	0	5	0	
0.146833	-0.00337539	-0.0138218	0.000151977	0.000125392	0	5	0	
0.147	0.0100901	0.0220402	0.000162718	0.000185404	0	5	0	
0.147167	-0.0110447	-0.0164589	0.000203834	0.00031438	0	5	0	
0.147333	0.0014192	0.00397526	0.000199891	0.000423247	0	5	0	
0.1475	0.0075919	0.00921927	0.000196631	0.000449341	0	5	0	
0.147667	-0.00662499	-0.0108403	0.000166084	0.000367753	0	5	0	
0.147833	0.00411122	0.0050538	0.000131637	0.000247632	0	5	0	
0.148	-0.00106094	0.00130261	9.58311E-05	0.000157378	0	5	0	
0.148167	0.00101568	-0.00807031	7.89141E-05	0.000125541	0	5	0	
0.148333	0.000382575	0.0141243	0.000102538	0.000140686	0	5	0	
0.1485	-0.00813819	-0.00842414	0.000125245	0.000181735	0	5	0	
0.148667	0.00674836	0.0050522	0.000135462	0.000246367	0	5	0	
0.148833	-0.00176759	-0.00302	0.000117956	0.000318148	0	5	0	
0.149	0.00458975	-8.21839E-05	0.000123112	0.000369996	0	5	0	
0.149167	-0.00271533	-0.00137853	0.000120052	0.000351241	0	5	0	
0.149333	-0.00124966	0.00430436	0.000140388	0.000265021	0	5	0	
0.1495	0.00326542	-0.00198144	0.000137966	0.000183019	0	5	0	
0.149667	-0.00727893	0.000747526	0.000143195	0.000152078	0	5	0	
0.149833	0.00113564	-0.00513911	0.000107151	0.000131254	0	5	0	
0.15	0.00477128	0.0151743	9.41327E-05	0.0001472	0	5	0	
0.150167	-0.00541838	-0.0135951	8.64045E-05	0.000203303	0	5	0	
0.150333	0.0052111	0.00149095	9.45003E-05	0.000310129	0	5	0	
0.1505	-0.00258773	0.00808587	0.000111911	0.000347418	0	5	0	
0.150667	0.00629874	-0.00311754	0.000104841	0.000290287	0	5	0	
0.150833	-0.00649924	-0.00903368	0.000120507	0.000190356	0	5	0	
0.151	0.000380784	0.0159034	0.000129149	0.000195242	0	5	0	
0.151167	0.00454781	-0.00960647	0.000138924	0.000275665	0	5	0	
0.151333	-0.00303392	0.00321353	0.000112845	0.000355182	0	5	0	
0.1515	0.00282775	0.00343816	7.88741E-05	0.000336506	0	5	0	
0.151667	0.00018655	-0.0021227	4.91905E-05	0.000286292	0	5	0	
0.151833	-0.000544137	-0.00157272	3.09737E-05	0.000237755	0	5	0	
0.152	0.00100003	0.00239093	2.55717E-05	0.000191994	0	5	0	
0.152167	0.00597038	-0.0043323	5.16026E-05	0.000144655	0	5	0	
0.152333	-0.0037262	0.0113258	9.12528E-05	0.000140133	0	5	0	
0.1525	-0.000718467	-0.0129783	9.22132E-05	0.000183562	0	5	0	
0.152667	0.00678901	0.013544	8.88373E-05	0.0002524	0	5	0	
0.152833	-0.00735806	-0.0094132	7.86589E-05	0.00034807	0	5	0	
0.153	0.00337239	-0.000189962	0.000132795	0.000464673	0	5	0	
0.153167	0.00395791	0.00870777	0.00018848	0.000535979	0	5	0	
0.153333	0.00105246	-0.00578064	0.000225775	0.000455514	0	5	0	
0.1535	0.00594554	-0.000392076	0.000179288	0.000304226	0	5	0	
0.153667	-0.00262201	0.00747309	0.000135491	0.000207142	0	5	0	
0.153833	-0.00378923	-0.0137859	9.61068E-05	0.000187529	0	5	0	
0.154	0.00750679	0.0131576	0.000104454	0.000243727	0	5	0	
0.154167	-0.00702072	-0.0083404	0.000117063	0.000272552	0	5	0	
0.154333	0.00526273	0.00608563	0.000116633	0.000320514	0	5	0	
0.1545	0.00142717	-0.000904614	0.00011836	0.000318528	0	5	0	
0.154667	-0.00723833	0.000181928	0.000112431	0.000282527	0	5	0	
0.154833	-0.00245767	-0.00571264	0.000120539	0.000216347	0	5	0	
0.155	0.00669449	0.00686567	0.00012659	0.000172402	0	5	0	
0.155167	-0.00395022	-0.00274657	0.000113943	0.00019638	0	5	0	
0.155333	-0.00602376	0.00233332	0.000127121	0.000221225	0	5	0	
0.1555	0.00209908	-0.00694203	0.000122188	0.000194046	0	5	0	
0.155667	0.00182696	0.0108544	0.000109955	0.000159034	0	5	0	
0.155833	-0.00770079	-0.00632664	8.06182E-05	0.000154254	0	5	0	
0.156	0.000739015	0.00152656	8.15644E-05	0.000225637	0	5	0	
0.156167	0.00108834	0.00345228	7.02942E-05	0.000275032	0	5	0	
0.156333	-0.00195108	-0.00261988	6.46627E-05	0.000283383	0	5	0	
0.1565	0.00423799	0.00194076	6.01347E-05	0.000201898	0	5	0	
0.156667	-0.00789603	0.00177267	9.29005E-05	0.000103128	0	5	0	
0.156833	0.00821159	-0.00521993	0.000129949	6.38626E-05	0	5	0	
0.157	-0.00081871	0.00740992	0.00012493	0.000115201	0	5	0	
0.157167	-0.0017404	-0.00128353	9.1439E-05	0.000203886	0	5	0	
0.157333	0.00333533	0.00208418	6.96325E-05	0.000277525	0	5	0	
0.1575	0.00269798	-0.00467052	0.000111474	0.000281762	0	5	0	
0.157667	-0.00125373	0.00656827	0.000168841	0.000257685	0	5	0	
0.157833	-0.0036961	-0.00364782	0.000187154	0.000231061	0	5	0	
0.158	0.00297841	0.00176828	0.000155402	0.00023727	0	5	0	
0.158167	0.0051263	-0.000875114	0.000108609	0.000238514	0	5	0	
0.158333	-0.00193419	0.00494779	9.63563E-05	0.000229769	0	5	0	
0.1585	0.000696434	-0.00527074	8.18653E-05	0.000210109	0	5	0	
0.158667	0.00151947	0.00353846	8.20798E-05	0.000199717	0	5	0	
0.158833	-6.07122E-05	-0.00424677	6.81795E-05	0.000186059	0	5	0	
0.159	-0.00584275	0.00672777	8.21731E-05	0.000171589	0	5	0	
0.159167	0.00301673	-0.00878494	0.000105391	0.000170072	0	5	0	
0.159333	0.00328909	0.00823446	9.22862E-05	0.00019914	0	5	0	
0.1595	-0.00526133	-0.00249928	0.000117137	0.000244604	0	5	0	
0.159667	0.00443432	-0.00255286	0.000164539	0.000292289	0	5	0	
0.159833	0.00370713	0.00451793	0.000224639	0.000295586	0	5	0	
0.16	-0.00957574	-0.00042163	0.00020052	0.000236621	0	5	0	
0.160167	0.0077196	-0.00675354	0.000167063	0.000148973	0	5	0	
0.160333	0.00037054	0.0104534	0.00013271	0.000120187	0	5	0	
0.1605	-0.00999316	-0.00704917	0.000143441	0.000155321	0	5	0	
0.160667	0.0165137	0.00223045	0.000167655	0.000232114	0	5	0	
0.160833	-0.00570302	-0.000886248	0.0001964	0.000291337	0	5	0	
0.161	-0.00538925	0.00265059	0.000244482	0.000330645	0	5	0	
0.161167	0.00984233	-0.00251754	0.00023183	0.000313375	0	5	0	
0.161333	-0.00601214	0.00632292	0.000209687	0.000256156	0	5	0	
0.1615	0.000262834	-0.00594901	0.000158533	0.000196487	0	5	0	
0.161667	0.00275672	0.00303634	0.000125668	0.000178855	0	5	0	
0.161833	0.00147988	-0.00464382	0.000132149	0.000180169	0	5	0	
0.162	0.00429571	0.0117683	0.00015009	0.000191595	0	5	0	
0.162167	-0.00761113	-0.0163585	0.000147516	0.000213395	0	5	0	
0.162333	0.0020686	0.0123935	0.000152813	0.000283675	0	5	0	
0.1625	0.0051289	0.00069931	0.000200343	0.00038195	0	5	0	
0.162667	-0.00665097	-0.0090983	0.00022261	0.000421144	0	5	0	
0.162833	0.00428113	0.00360544	0.000199057	0.000332851	0	5	0	
0.163	-0.00154939	0.00796525	0.000124858	0.000225369	0	5	0	
0.163167	0.00124222	-0.0173296	0.000103384	0.000178681	0	5	0	
0.163333	0.00140554	0.0169799	8.686E-05	0.000247034	0	5	0	
0.1635	-0.00725809	-0.00876544	8.50269E-05	0.000350259	0	5	0	
0.163667	0.00247222	-0.00634146	8.08711E-05	0.000438964	0	5	0	
0.163833	0.00519661	0.0101861	0.000132496	0.000403546	0	5	0	
0.164	-0.0102209	-0.000947946	0.000153892	0.000293356	0	5	0	
0.164167	0.00250948	-0.0127794	0.000165038	0.000194523	0	5	0	
0.164333	0.00250758	0.0123319	0.000121647	0.000189252	0	5	0	
0.1645	-0.00417021	-0.00498516	9.61931E-05	0.000248549	0	5	0	
0.164667	0.00185625	-0.00726696	7.13413E-05	0.000328167	0	5	0	
0.164833	-0.00548902	0.0115297	6.82972E-05	0.000369192	0	5	0	
0.165	0.00404752	-0.00367645	0.000113651	0.000311565	0	5	0	
0.165167	0.00478827	-0.00987082	0.000165798	0.000197329	0	5	0	
0.165333	-0.00155637	0.0132888	0.000173647	0.000160977	0	5	0	
0.1655	-0.00365016	-0.0043705	0.000121168	0.000263315	0	5	0	
0.165667	-0.00515402	-0.00886126	8.66075E-05	0.00041946	0	5	0	
0.165833	0.00790015	0.011242	0.000109089	0.000462849	0	5	0	
0.166	0.00342323	-0.00355626	0.000120981	0.000350693	0	5	0	
0.166167	-0.00101665	-0.012112	9.69272E-05	0.000207676	0	5	0	
0.166333	-0.00281887	0.0171889	9.58046E-05	0.000175938	0	5	0	
0.1665	0.00394559	-0.0134381	0.000107121	0.000260031	0	5	0	
0.166667	-0.00164776	0.00173554	0.000111442	0.000357881	0	5	0	
0.166833	-0.0040612	0.00614201	8.65792E-05	0.000402512	0	5	0	
0.167	0.00138179	-0.00933184	7.87626E-05	0.000345585	0	5	0	
0.167167	0.00449363	0.000448352	7.60016E-05	0.000220771	0	5	0	
0.167333	-0.00677869	0.00561515	9.47623E-05	0.000114356	0	5	0	
0.1675	0.00356743	-0.00857847	0.000102865	9.82677E-05	0	5	0	
0.167667	0.00425302	0.00676146	0.000102682	0.000167115	0	5	0	
0.167833	-0.0111407	-0.00323298	0.000122551	0.000242793	0	5	0	
0.168	0.00547312	-0.00419114	0.000127931	0.000292463	0	5	0	
0.168167	0.00297226	0.0112152	0.000170546	0.00030669	0	5	0	
0.168333	-0.00744369	-0.0125115	0.000182924	0.000292472	0	5	0	
0.1685	0.00662529	0.00146157	0.000192924	0.000232336	0	5	0	
0.168667	-0.00116506	0.012604	0.000152171	0.000193629	0	5	0	
0.168833	-0.00496486	-0.0154326	0.000124895	0.000191811	0	5	0	
0.169	0.00153188	0.00601506	0.000116557	0.000270704	0	5	0	
0.169167	-0.000838533	0.0034702	0.000111813	0.000370465	0	5	0	
0.169333	0.00246962	-0.0111416	7.6445E-05	0.000418701	0	5	0	
0.1695	-0.00182165	0.00905007	4.58929E-05	0.000388167	0	5	0	
0.169667	-0.00528786	-0.00296921	7.19494E-05	0.000259706	0	5	0	
0.169833	0.00860467	-0.00729796	0.000108739	0.000150704	0	5	0	
0.17	-0.00671037	0.0133546	0.000136715	0.000120173	0	5	0	
0.170167	-0.0051136	-0.0126831	0.000140016	0.000207987	0	5	0	
0.170333	0.00550185	-0.000432839	0.000126205	0.000331693	0	5	0	
0.1705	-0.0033849	0.00444339	0.000127738	0.000384741	0	5	0	
0.170667	0.0040092	-0.000839941	0.000126597	0.000299012	0	5	0	
0.170833	-0.0037953	-0.00657927	0.000118558	0.000178264	0	5	0	
0.171	-5.95432E-05	0.00911926	8.64391E-05	0.000106704	0	5	0	
0.171167	0.0045686	-0.0064977	8.62338E-05	0.000135531	0	5	0	
0.171333	-0.00249047	0.000763039	7.12727E-05	0.000202404	0	5	0	
0.1715	0.000127874	0.00510562	8.30337E-05	0.000258218	0	5	0	
0.171667	-0.000550502	-0.00428426	6.8694E-05	0.000242385	0	5	0	
0.171833	0.0026829	0.00036431	9.47862E-05	0.00016127	0	5	0	
0.172	0.00041596	0.00470686	0.000111345	7.47231E-05	0	5	0	
0.172167	-0.00331054	-0.0051075	9.20638E-05	8.517E-05	0	5	0	
0.172333	0.00129041	0.00104633	9.84722E-05	0.000169289	0	5	0	
0.1725	0.00223218	0.00164863	9.41593E-05	0.000259758	0	5	0	
0.172667	-0.00644144	-0.00176856	0.00011833	0.000285916	0	5	0	
0.172833	0.004236	0.00473789	0.000135441	0.000270123	0	5	0	
0.173	-0.00903163	-0.0045119	0.000142568	0.000245871	0	5	0	
0.173167	0.00175152	-0.000374324	0.000151589	0.000209784	0	5	0	
0.173333	0.0013844	0.00297859	0.000107397	0.000179057	0	5	0	
0.1735	-0.000517947	-0.00035067	8.25099E-05	0.000191884	0	5	0	
0.173667	-0.00528095	-0.00437564	8.39275E-05	0.00024256	0	5	0	
0.173833	-0.00169207	0.0032386	9.62483E-05	0.000254535	0	5	0	
0.174	0.0051802	0.00313591	0.000102853	0.000199122	0	5	0	
0.174167	-0.00365163	-0.00518943	9.75739E-05	0.000156761	0	5	0	
0.174333	0.000639605	0.00107693	0.000121526	0.00018254	0	5	0	
0.1745	0.00278445	0.000513693	0.000133654	0.000250462	0	5	0	
0.174667	-0.00260187	-8.6934E-05	0.000136646	0.000290445	0	5	0	
0.174833	0.0010225	0.00107768	0.000118454	0.000284865	0	5	0	
0.175	-0.00170177	0.000636365	0.000102117	0.000240474	0	5	0	
0.175167	0.00336969	0.000122957	9.02178E-05	0.000195567	0	5	0	
0.175333	-0.000935276	-0.00202452	0.000102492	0.000186194	0	5	0	
0.1755	0.00364747	0.000178862	0.000125942	0.000195353	0	5	0	
0.175667	-0.00397191	0.00159851	0.000130654	0.000174642	0	5	0	
0.175833	2.53532E-05	-0.00172822	0.000103928	0.000120074	0	5	0	
0.176	0.00226904	0.00083484	8.26359E-05	8.61413E-05	0	5	0	
0.176167	-0.00128308	0.00150854	8.72621E-05	0.000130671	0	5	0	
0.176333	0.00107694	-0.00219546	0.000108994	0.000239606	0	5	0	
0.1765	-0.00311232	0.00484851	0.000152688	0.000346771	0	5	0	
0.176667	-0.00187876	-0.00392037	0.000203465	0.00037411	0	5	0	
0.176833	0.00401237	0.0012711	0.000232273	0.000300377	0	5	0	
0.177	-0.00215961	0.00405904	0.000196962	0.000211674	0	5	0	
0.177167	0.00129179	-0.00534424	0.00011765	0.00020811	0	5	0	
0.177333	-0.000191262	0.0050466	6.67823E-05	0.000284872	0	5	0	
0.1775	0.00336178	-0.00164787	7.91167E-05	0.000308168	0	5	0	
0.177667	0.00218808	0.00831236	0.000100238	0.00023843	0	5	0	
0.177833	-0.00952039	-0.0154322	0.000123619	0.000183427	0	5	0	
0.178	0.0062146	0.0175886	0.000124247	0.000216091	0	5	0	
0.178167	0.00300916	-0.00959246	0.000144443	0.000327627	0	5	0	
0.178333	-0.000784621	-0.00328709	0.000151118	0.000392002	0	5	0	
0.1785	-0.000391353	0.0167547	0.000130192	0.000370529	0	5	0	
0.178667	0.00553112	-0.0137567	0.000135483	0.00031934	0	5	0	
0.178833	0.00128384	-0.00697651	0.000128262	0.0003027	0	5	0	
0.179	-0.00184521	0.0255444	0.000119596	0.000323146	0	5	0	
0.179167	-0.0069848	-0.0155468	9.41657E-05	0.000375408	0	5	0	
0.179333	0.00697296	-0.0103284	0.000101529	0.000484225	0	5	0	
0.1795	0.00617671	0.0239862	0.000173379	0.000551739	0	5	0	
0.179667	-0.00750944	-0.0150285	0.000203793	0.000520721	0	5	0	
0.179833	0.00433473	-0.00113009	0.000183023	0.000339592	0	5	0	
0.18	-0.00360108	0.00915573	0.000129099	0.000208125	0	5	0	
0.180167	0.00336231	-0.00913686	8.70524E-05	0.00016567	0	5	0	
0.180333	0.00207449	0.00734902	0.000101335	0.000204759	0	5	0	
0.1805	-0.00584203	-0.00128923	0.000100097	0.000293315	0	5	0	
0.180667	0.00453141	-0.0050182	0.000133379	0.000348405	0	5	0	
0.180833	0.00346123	-0.000436094	0.000150427	0.000305905	0	5	0	
0.181	-0.00395327	0.00718517	0.000150464	0.000205902	0	5	0	
0.181167	0.0018821	-0.0104118	0.00012151	0.000140582	0	5	0	
0.181333	-0.00433486	0.00396595	7.29197E-05	0.00018377	0	5	0	
0.1815	0.00579654	-0.000162292	7.8332E-05	0.000244091	0	5	0	
0.181667	-0.00244611	-0.00106699	9.74161E-05	0.000237795	0	5	0	
0.181833	0.00573218	-0.00317354	0.000123044	0.000179014	0	5	0	
0.182	-0.00214429	0.00416013	0.000127767	0.000129632	0	5	0	
0.182167	0.0028377	-0.00329369	9.87727E-05	0.000147259	0	5	0	
0.182333	-0.00488364	-0.00301745	8.10257E-05	0.000200556	0	5	0	
0.1825	0.0014726	0.00294679	8.26486E-05	0.0002214	0	5	0	
0.182667	0.000200151	-0.0030878	0.000104111	0.000191467	0	5	0	
0.182833	0.000529842	-0.00336342	0.000112203	0.000150963	0	5	0	
0.183	0.00478291	0.00460063	0.000109487	0.000137582	0	5	0	
0.183167	0.0010468	-6.1513E-05	0.000111158	0.000142051	0	5	0	
0.183333	-0.00496715	-0.00310571	0.000112435	0.000149274	0	5	0	
0.1835	0.00443886	-0.0044197	0.000112684	0.000157791	0	5	0	
0.183667	-0.00307279	0.00284531	0.000117499	0.000195965	0	5	0	
0.183833	0.00581258	0.00626818	0.000136179	0.000281088	0	5	0	
0.184	-0.00348982	-0.0201803	0.000146137	0.000333362	0	5	0	
0.184167	0.0062618	0.0161073	0.000134162	0.000357864	0	5	0	
0.184333	-0.00454255	0.00392089	0.000127413	0.000320439	0	5	0	
0.1845	-0.000720449	-0.022686	9.42688E-05	0.000288715	0	5	0	
0.184667	0.00365681	0.0156534	8.40386E-05	0.000359293	0	5	0	
0.184833	-0.00220087	0.00504902	9.25489E-05	0.000505877	0	5	0	
0.185	-0.00152067	-0.0230611	0.000154095	0.000647877	0	5	0	
0.185167	0.00442209	0.023395	0.00020483	0.000633113	0	5	0	
0.185333	-0.00299028	-0.0078489	0.000202484	0.000473196	0	5	0	
0.1855	0.00221142	-0.0131027	0.0001534	0.000353873	0	5	0	
0.185667	-0.000310885	0.0246438	9.63047E-05	0.00029722	0	5	0	
0.185833	-0.00437394	-0.0185709	6.91071E-05	0.000389753	0	5	0	
0.186	0.0023766	-0.0064171	5.78395E-05	0.000535882	0	5	0	
0.186167	0.00745985	0.0240934	9.88163E-05	0.000615066	0	5	0	
0.186333	-0.00774843	-0.0181745	0.000126485	0.000557053	0	5	0	
0.1865	0.000123943	-0.00359296	0.000160181	0.000435308	0	5	0	
0.186667	0.00651187	0.0194365	0.000143825	0.000324539	0	5	0	
0.186833	-0.0013263	-0.0161785	0.000138011	0.000330323	0	5	0	
0.187	8.4365E-06	0.00152708	0.000141526	0.000382334	0	5	0	
0.187167	0.00473977	0.00855667	0.000127052	0.00046211	0	5	0	
0.187333	-0.00123413	-0.011402	0.000102559	0.000431386	0	5	0	
0.1875	0.00296641	0.00311284	6.23245E-05	0.000300644	0	5	0	
0.187667	-0.00408272	0.00420274	6.40588E-05	0.000164883	0	5	0	
0.187833	0.000331272	-0.0046179	7.13391E-05	0.000135173	0	5	0	
0.188	0.00349806	0.00187271	7.99515E-05	0.000191443	0	5	0	
0.188167	0.000271119	0.000289426	7.74607E-05	0.000248281	0	5	0	
0.188333	-0.000696357	0.00361974	5.31682E-05	0.000207503	0	5	0	
0.1885	-0.00187579	-0.00997608	3.26879E-05	0.00015026	0	5	0	
0.188667	-0.00046492	0.00942427	2.60184E-05	0.000139718	0	5	0	
0.188833	0.00140767	-0.00183598	4.79785E-05	0.000242213	0	5	0	
0.189	-0.00459167	-0.0064546	0.000111377	0.000336894	0	5	0	
0.189167	0.00702577	0.00887896	0.000174565	0.000334575	0	5	0	
0.189333	-0.00802298	0.000246036	0.000184307	0.000256791	0	5	0	
0.1895	-0.00157616	-0.00520592	0.000157082	0.000177069	0	5	0	
0.189667	0.00484813	0.00804298	0.000113144	0.000156268	0	5	0	
0.189833	0.000671716	-0.00373003	0.000111662	0.000209115	0	5	0	
0.19	-0.00137181	-0.00414796	0.000124007	0.000265644	0	5	0	
0.190167	0.00408882	0.00954967	0.000108912	0.000310565	0	5	0	
0.190333	0.00200869	-0.00674198	9.29174E-05	0.000268926	0	5	0	
0.1905	-0.00546874	0.00165926	5.80079E-05	0.000184125	0	5	0	
0.190667	0.00455288	0.00637566	7.96936E-05	0.000138427	0	5	0	
0.190833	-0.00151704	-0.00419985	8.75666E-05	0.000154748	0	5	0	
0.191	0.00368381	-0.00364412	0.000113398	0.000208187	0	5	0	
0.191167	0.00500236	0.0026696	0.000127436	0.000232837	0	5	0	
0.191333	-0.00359726	-0.00265339	0.000154439	0.000200077	0	5	0	
0.1915	1.69948E-05	-0.000808034	0.000121542	0.000155384	0	5	0	
0.191667	0.00531161	0.00344342	9.97248E-05	0.000149409	0	5	0	
0.191833	-0.00198088	0.000181441	7.26177E-05	0.000200998	0	5	0	
0.192	-0.00129043	-0.00891268	0.000104482	0.00027235	0	5	0	
0.192167	0.00294818	0.00902704	0.000101177	0.000295669	0	5	0	
0.192333	-0.00117259	-0.00381368	9.77971E-05	0.000233238	0	5	0	
0.1925	0.00192	-0.00690332	6.18519E-05	0.000142154	0	5	0	
0.192667	1.67411E-06	0.0101785	5.42E-05	0.000114849	0	5	0	
0.192833	-0.00423553	-0.00649571	7.29606E-05	0.000186849	0	5	0	
0.193	0.00388712	-0.00235457	7.40245E-05	0.000305328	0	5	0	
0.193167	-0.00586149	0.00835982	0.000131479	0.00037081	0	5	0	
0.193333	0.00366945	-0.00736069	0.000174917	0.000344839	0	5	0	
0.1935	0.00185495	0.00428534	0.000219681	0.000253333	0	5	0	
0.193667	-0.00427382	-0.00172608	0.00018905	0.000166112	0	5	0	
0.193833	0.00274052	-0.00306515	0.00012006	0.000124747	0	5	0	
0.194	0.00107673	0.00534789	9.34558E-05	0.000130482	0	5	0	
0.194167	-0.00540156	-0.00429019	6.31913E-05	0.000186926	0	5	0	
0.194333	0.00281972	-0.00110537	8.62915E-05	0.000283623	0	5	0	
0.1945	0.00222956	0.00900632	6.85452E-05	0.00035353	0	5	0	
0.194667	-6.44435E-05	-0.00930974	6.12056E-05	0.00033331	0	5	0	
0.194833	0.00378826	-0.00150135	5.09333E-05	0.000227329	0	5	0	
0.195	-0.00796347	0.0110413	7.43654E-05	0.000148867	0	5	0	
0.195167	0.00376844	-0.00771775	0.000116058	0.000145444	0	5	0	
0.195333	0.00694705	-0.00040786	0.000123621	0.000264379	0	5	0	
0.1955	-0.00321533	0.00719233	0.000139974	0.000348013	0	5	0	
0.195667	-0.0020148	-0.00471424	0.000151515	0.000347543	0	5	0	
0.195833	-0.00115908	0.00126507	0.000127302	0.000251969	0	5	0	
0.196	0.00501346	-0.00432381	9.46594E-05	0.000189327	0	5	0	
0.196167	0.000950898	0.00584388	8.74246E-05	0.000184912	0	5	0	
0.196333	-0.00368127	-0.000692934	0.000130668	0.000189349	0	5	0	
0.1965	0.00267599	-0.000844084	0.00013782	0.000185871	0	5	0	
0.196667	-0.00165593	-0.00227747	0.000106008	0.000178472	0	5	0	
0.196833	0.00562993	-0.00327769	7.23751E-05	0.000143591	0	5	0	
0.197	-0.00144873	0.00828975	7.62002E-05	0.000118949	0	5	0	
0.197167	-0.00388927	-0.0108428	8.50692E-05	0.000142506	0	5	0	
0.197333	0.0057379	0.00208731	9.94404E-05	0.000263283	0	5	0	
0.1975	0.000700181	0.00808616	0.000126651	0.000383569	0	5	0	
0.197667	0.000539016	-0.0143139	0.000133116	0.000398658	0	5	0	
0.197833	-0.000797562	0.00567966	0.000104591	0.000312852	0	5	0	
0.198	0.00216332	0.00134626	5.84457E-05	0.000185071	0	5	0	
0.198167	-0.00340861	-0.00449749	6.14016E-05	0.000130404	0	5	0	
0.198333	0.000191256	-0.000741538	8.2537E-05	0.00016646	0	5	0	
0.1985	-0.00022772	0.00530662	8.11909E-05	0.000224123	0	5	0	
0.198667	0.00244311	-0.00599487	4.7543E-05	0.000248005	0	5	0	
0.198833	-0.00220228	0.00337286	3.66911E-05	0.000206625	0	5	0	
0.199	0.00124824	-6.8374E-05	4.41991E-05	0.000173602	0	5	0	
0.199167	-0.00312264	-0.00254144	6.86728E-05	0.000195779	0	5	0	
0.199333	-0.000470264	-0.000622294	6.65092E-05	0.000255665	0	5	0	
0.1995	-0.00208809	0.00333082	7.41137E-05	0.000281312	0	5	0	
0.199667	-0.00230311	0.00349021	7.51797E-05	0.000230571	0	5	0	
0.199833	0.00512067	-0.00584422	0.000103826	0.000195723	0	5	0	
0.2	-0.00307558	-0.00313427	0.000104782	0.000325288	0	5	0	
0.200167	0.000243295	0.0168296	7.90527E-05	0.000554368	0	5	0	
0.200333	-0.00717477	-0.019402	7.0615E-05	0.00062727	0	5	0	
0.2005	0.00580467	0.00505511	9.23611E-05	0.000507309	0	5	0	
0.200667	-0.00197805	0.0165642	0.000121092	0.000358743	0	5	0	
0.200833	-0.00611013	-0.0256412	0.000104598	0.000335544	0	5	0	
0.201	0.00205489	0.0184523	0.000122412	0.000459509	0	5	0	
0.201167	0.00408456	0.00109742	0.000147942	0.000585932	0	5	0	
0.201333	-0.000769262	-0.0167703	0.000162436	0.000652754	0	5	0	
0.2015	-0.00220949	0.0179257	0.00013554	0.000559283	0	5	0	
0.201667	-0.00316639	-0.00286057	0.000131976	0.000389758	0	5	0	
0.201833	0.000999044	-0.0183565	0.000124193	0.00031188	0	5	0	
0.202	0.00386927	0.0229829	0.000103501	0.000309461	0	5	0	
0.202167	-0.00333289	-0.000262701	7.98507E-05	0.000455107	0	5	0	
0.202333	-0.0011122	-0.0218359	0.000126148	0.000618633	0	5	0	
0.2025	0.00559343	0.0225317	0.000127482	0.000671252	0	5	0	
0.202667	-0.000398048	-0.00832857	0.000118249	0.000550392	0	5	0	
0.202833	-0.00234526	-0.00739931	7.27462E-05	0.000385752	0	5	0	
0.203	-0.0139383	0.0152299	0.000148195	0.000276286	0	5	0	
0.203167	-0.00217334	-0.00967826	0.000253725	0.000333143	0	5	0	
0.203333	-0.00160957	-0.00503195	0.000283535	0.000411264	0	5	0	
0.2035	0.00392796	0.010717	0.000233429	0.000473043	0	5	0	
0.203667	-0.00516201	-0.00959008	0.0001484	0.000379775	0	5	0	
0.203833	-0.00130745	-0.00204982	0.000106032	0.000223695	0	5	0	
0.204	0.00662949	0.00861724	0.000114059	0.000164743	0	5	0	
0.204167	-0.0322431	-0.00552594	0.000182678	0.00020554	0	5	0	
0.204333	0.0439379	-0.003234	0.000411985	0.000278818	0	5	0	
0.2045	-0.0144978	0.00644566	0.000563105	0.000302831	0	5	0	
0.204667	-0.00234073	-0.00829273	0.00055349	0.000262197	0	5	0	
0.204833	0.0091178	-0.00193616	0.000361915	0.000188755	0	5	0	
0.205	-0.0109537	0.00646549	0.000214938	0.00013825	0	5	0	
0.205167	0.00531656	-0.00132045	0.00017125	0.000149499	0	5	0	
0.205333	0.017078	-0.00543604	0.000188097	0.000226011	0	5	0	
0.2055	-0.0039412	0.00551691	0.000319498	0.000276584	0	5	0	
0.205667	0.0139324	-0.000442842	0.000345616	0.000230058	0	5	0	
0.205833	-0.00536325	-0.00624095	0.000389617	0.000134852	0	5	0	
0.206	-0.0123233	0.00814697	0.000507226	0.000104093	0	5	0	
0.206167	0.013787	-0.000148282	0.000632592	0.000175741	0	5	0	
0.206333	-0.0218658	-0.00674196	0.000686615	0.000285413	0	5	0	
0.2065	-0.00483125	0.00577395	0.000538839	0.000327411	0	5	0	
0.206667	0.00848906	-0.00626167	0.000363031	0.000281729	0	5	0	
0.206833	-0.0105876	0.00753089	0.000271903	0.00020595	0	5	0	
0.207	0.0220601	-0.00216082	0.000201771	0.00015608	0	5	0	
0.207167	-0.0235562	-0.00226262	0.000379019	0.000130565	0	5	0	
0.207333	-0.0203222	0.00268247	0.00042186	0.000134854	0	5	0	
0.2075	0.0154377	-0.000677267	0.00049214	0.000180806	0	5	0	
0.207667	-0.00721784	-0.00501019	0.000339575	0.000246696	0	5	0	
0.207833	-0.00720039	0.000488765	0.000276359	0.000260657	0	5	0	
0.208	0.0106966	0.00619314	0.000169058	0.000227906	0	5	0	
0.208167	-0.00483588	-0.00504321	0.000185078	0.000214945	0	5	0	
0.208333	-0.00742567	-0.00330444	0.000206056	0.00023877	0	5	0	
0.2085	0.00965663	0.00452222	0.000217647	0.000266303	0	5	0	
0.208667	0.000195918	-0.00163413	0.000177626	0.000241682	0	5	0	
0.208833	-0.00316449	-0.00337361	0.000117718	0.000180857	0	5	0	
0.209	0.00256554	0.000866365	7.71159E-05	0.000127683	0	5	0	
0.209167	0.00245147	0.00104154	4.83242E-05	0.000121408	0	5	0	
0.209333	0.000473922	0.00117881	4.64842E-05	0.000117873	0	5	0	
0.2095	-0.00914128	-0.0076543	5.74958E-05	0.000122733	0	5	0	
0.209667	0.0135089	0.00577056	0.000128543	0.000155021	0	5	0	
0.209833	-0.00204901	0.00304056	0.000168639	0.000255269	0	5	0	
0.21	-0.00113378	-0.00895175	0.00015937	0.0003261	0	5	0	
0.210167	-0.00491753	0.00268919	0.000100613	0.000304139	0	5	0	
0.210333	0.00677736	0.0037267	9.20371E-05	0.000191949	0	5	0	
0.2105	0.000996196	-0.00682896	0.000142607	0.000127	0	5	0	
0.210667	-0.00519135	0.0039884	0.000161857	0.000141894	0	5	0	
0.210833	0.00355101	0.00140165	0.000149761	0.000235418	0	5	0	
0.211	-0.000817416	-0.00402636	0.000100156	0.000290834	0	5	0	
0.211167	0.00193726	0.00570779	6.90511E-05	0.000262445	0	5	0	
0.211333	0.00246609	-0.00242667	8.39229E-05	0.00017707	0	5	0	
0.2115	-0.00994173	-0.00229022	0.000103543	8.59713E-05	0	5	0	
0.211667	0.00747666	0.00622751	0.000169134	6.79054E-05	0	5	0	
0.211833	0.00166089	-0.00877463	0.00020954	0.000111008	0	5	0	
0.212	-0.00385655	0.00434722	0.000183413	0.000200852	0	5	0	
0.212167	-0.00279001	0.00965906	0.0001371	0.000295654	0	5	0	
0.212333	-0.00285453	-0.0133798	6.6776E-05	0.000324456	0	5	0	
0.2125	0.00465456	0.00644278	7.14562E-05	0.000277963	0	5	0	
0.212667	0.00421483	0.00181976	9.89463E-05	0.000187774	0	5	0	
0.212833	-0.00763385	-0.000812891	0.000146591	9.54156E-05	0	5	0	
0.213	-0.000292816	-0.00123446	0.000148384	7.65779E-05	0	5	0	
0.213167	0.00467363	0.00238237	0.000142963	9.9539E-05	0	5	0	
0.213333	-0.00477813	-0.00298528	0.00010633	0.00016479	0	5	0	
0.2135	0.00272522	0.00531734	9.9613E-05	0.000205079	0	5	0	
0.213667	-0.00807201	-0.00793016	8.59383E-05	0.000230334	0	5	0	
0.213833	0.0104668	0.00855952	0.000108697	0.000231673	0	5	0	
0.214	-0.00404816	-0.00202729	0.000156482	0.000191055	0	5	0	
0.214167	-0.00205955	-0.00300771	0.000136099	0.000119356	0	5	0	
0.214333	0.0122032	0.00315655	0.000120421	8.60073E-05	0	5	0	
0.2145	-0.011181	0.00170389	0.0001418	0.000127154	0	5	0	
0.214667	0.0054229	-0.00417766	0.000171367	0.000216753	0	5	0	
0.214833	-0.00241045	0.00509117	0.000212216	0.000264471	0	5	0	
0.215	0.000956603	-0.00276172	0.000176657	0.000237385	0	5	0	
0.215167	-0.000312613	0.00073203	0.000152113	0.000160232	0	5	0	
0.215333	-0.00164528	0.00114469	0.00011218	0.000132657	0	5	0	
0.2155	0.00906954	0.0086582	9.40333E-05	0.000219652	0	5	0	
0.215667	-0.00700607	-0.0192784	0.000136058	0.000351148	0	5	0	
0.215833	0.00119573	0.0175985	0.000143754	0.000402186	0	5	0	
0.216	0.00166048	-0.00154923	0.000145302	0.000350765	0	5	0	
0.216167	-0.00105431	-0.00906277	8.83122E-05	0.000264215	0	5	0	
0.216333	0.00361525	0.0108626	6.53059E-05	0.000233198	0	5	0	
0.2165	-0.0042985	0.000381573	6.32968E-05	0.000294748	0	5	0	
0.216667	0.0043131	-0.0103882	9.99946E-05	0.00039619	0	5	0	
0.216833	0.00347631	0.0133629	0.00015068	0.000467672	0	5	0	
0.217	-0.0112917	-0.00863905	0.000173857	0.000430481	0	5	0	
0.217167	0.044029	0.000913915	0.000330433	0.000315357	0	5	0	
0.217333	-0.0202183	0.0105013	0.000539114	0.000216314	0	5	0	
0.2175	-0.00209508	-0.0110686	0.000595923	0.000200011	0	5	0	
0.217667	0.00726137	0.00372233	0.000427401	0.000275594	0	5	0	
0.217833	-0.0049565	0.00739322	0.000178508	0.000339477	0	5	0	
0.218	-0.000371403	-0.00905415	0.000102419	0.000296776	0	5	0	
0.218167	0.0271539	0.000211163	0.000166446	0.000224803	0	5	0	
0.218333	-0.01586	0.00734555	0.000418603	0.000156954	0	5	0	
0.2185	0.00711881	-0.00411955	0.00048373	0.00015407	0	5	0	
0.218667	-0.00355557	-0.00372464	0.000420687	0.000178349	0	5	0	
0.218833	0.00514547	0.0125172	0.000169385	0.000189908	0	5	0	
0.219	-0.00598107	-0.0114589	9.75982E-05	0.000219897	0	5	0	
0.219167	0.00310563	0.00732972	0.000125359	0.00019904	0	5	0	
0.219333	0.000877656	-0.00550182	0.000136734	0.000190827	0	5	0	
0.2195	0.0193393	0.00279347	0.000194111	0.000167316	0	5	0	
0.219667	-0.0610038	-0.0018821	0.000343938	0.000169156	0	5	0	
0.219833	0.150501	0.0025601	0.00104357	0.000165199	0	5	0	
0.22	-0.0487018	0.000781942	0.00164734	0.000131126	0	5	0	
0.220167	-0.00308271	0.0019237	0.00180097	8.37163E-05	0	5	0	
0.220333	0.0153648	-0.00542098	0.00117513	7.75594E-05	0	5	0	
0.2205	-0.00923934	0.00776223	0.000556409	0.000113738	0	5	0	
0.220667	-0.00985956	-0.00613875	0.000308497	0.000146113	0	5	0	
0.220833	0.0730156	0.00263796	0.000611112	0.000134222	0	5	0	
0.221	-0.0292342	-0.00424014	0.00132786	0.000100774	0	5	0	
0.221167	0.0354401	0.00986738	0.00157032	9.31432E-05	0	5	0	
0.221333	-0.0149276	-0.0113318	0.0012878	0.00014654	0	5	0	
0.2215	-0.00174751	0.0120543	0.000589373	0.000218403	0	5	0	
0.221667	-0.00538019	-0.0108184	0.000277676	0.000275942	0	5	0	
0.221833	0.0189335	0.00692014	0.000258074	0.000256643	0	5	0	
0.222	-0.021019	-0.000589747	0.000283507	0.000187516	0	5	0	
0.222167	0.000754826	-0.00238682	0.000368663	0.000118125	0	5	0	
0.222333	0.0125986	-0.000200613	0.000343995	0.000144776	0	5	0	
0.2225	-0.00949553	0.00450574	0.000308055	0.000256069	0	5	0	
0.222667	-0.00427337	-0.00453355	0.000255588	0.000358896	0	5	0	
0.222833	0.00618035	0.00681873	0.000205643	0.000348528	0	5	0	
0.223	-0.00426311	-0.00534906	0.000155745	0.000257782	0	5	0	
0.223167	-0.00115413	0.00422071	0.000102915	0.000163238	0	5	0	
0.223333	0.00404939	0.00214425	7.54136E-05	0.000125534	0	5	0	
0.2235	-0.00173723	-0.00458918	7.45852E-05	0.000137178	0	5	0	
0.223667	-0.000831961	0.00567857	6.66031E-05	0.000175472	0	5	0	
0.223833	-0.00109096	-0.00105658	9.47515E-05	0.000196158	0	5	0	
0.224	0.001008	0.00146446	0.000112847	0.000196961	0	5	0	
0.224167	0.00120607	-0.00114633	0.000124616	0.000186706	0	5	0	
0.224333	0.00128434	0.000166641	9.17093E-05	0.000200746	0	5	0	
0.2245	-0.00677673	0.00385583	8.07952E-05	0.000227109	0	5	0	
0.224667	0.00357979	-0.00575069	0.000100098	0.000255334	0	5	0	
0.224833	-0.00202961	0.00556896	0.000157315	0.00025958	0	5	0	
0.225	0.000513495	0.001139	0.000139207	0.000213265	0	5	0	
0.225167	-0.00235374	-0.00635105	0.000130955	0.000152725	0	5	0	
0.225333	0.00855289	0.0067859	9.29885E-05	0.000142777	0	5	0	
0.2255	-0.00726717	0.00149621	0.000135936	0.000216445	0	5	0	
0.225667	-0.00361655	-0.00737816	0.000124714	0.000283124	0	5	0	
0.225833	0.000268609	0.00371975	0.000112796	0.00025174	0	5	0	
0.226	0.0055968	0.00339977	0.000123442	0.000173854	0	5	0	
0.226167	-0.0101756	-0.00679641	0.000147547	0.00011232	0	5	0	
0.226333	0.00310611	0.00517284	0.00016486	0.000110976	0	5	0	
0.2265	0.000168832	0.000113011	0.000111368	0.000147469	0	5	0	
0.226667	-0.000517253	-0.00625955	6.08636E-05	0.000215581	0	5	0	
0.226833	0.00702547	0.0100449	7.89037E-05	0.000274122	0	5	0	
0.227	-0.0110851	-0.0111526	0.000143327	0.000267175	0	5	0	
0.227167	0.00263369	0.0053415	0.000182362	0.00021831	0	5	0	
0.227333	0.00443716	-0.00185684	0.000222962	0.000143222	0	5	0	
0.2275	-0.0035182	-0.00410071	0.000178278	9.14727E-05	0	5	0	
0.227667	-0.00252596	0.00469607	0.000160466	6.65923E-05	0	5	0	
0.227833	-0.000513842	0.0021985	7.95528E-05	0.000107469	0	5	0	
0.228	0.0129179	-0.00790289	9.49149E-05	0.000167368	0	5	0	
0.228167	-0.0094592	0.00327003	0.000139855	0.000192595	0	5	0	
0.228333	0.00414733	-0.00289638	0.000266821	0.000165605	0	5	0	
0.2285	-0.00188527	0.0103058	0.000412056	0.000157732	0	5	0	
0.228667	-0.0116789	-0.0170429	0.000501987	0.000192837	0	5	0	
0.228833	0.0137305	0.0140952	0.000446745	0.000255116	0	5	0	
0.229	-0.00816133	-0.00520883	0.000325746	0.000254709	0	5	0	
0.229167	-0.00268178	0.00135611	0.000265006	0.00020661	0	5	0	
0.229333	0.0182208	-0.00235152	0.000246242	0.000195049	0	5	0	
0.2295	-0.0234392	0.0040285	0.000349907	0.000238948	0	5	0	
0.229667	0.00935376	-0.00799785	0.000332768	0.000296771	0	5	0	
0.229833	-0.000559931	0.00741819	0.00036591	0.000296286	0	5	0	
0.23	-0.00769062	-0.00243097	0.00026737	0.000251657	0	5	0	
0.230167	0.0108646	-0.00377995	0.000248785	0.000225139	0	5	0	
0.230333	-0.00416413	0.00390568	0.000192995	0.000259361	0	5	0	
0.2305	0.00268363	0.00116411	0.000138789	0.000288671	0	5	0	
0.230667	-0.00036142	-0.00264513	0.000119791	0.000222268	0	5	0	
0.230833	0.000425343	-0.00458487	0.000100659	0.000147508	0	5	0	
0.231	0.00443375	0.00279991	9.57973E-05	9.40261E-05	0	5	0	
0.231167	0.00297607	0.00541705	8.56426E-05	0.000211252	0	5	0	
0.231333	-0.00184789	-0.0122861	0.000113385	0.000283396	0	5	0	
0.2315	0.00173502	0.0139683	0.000116313	0.000321364	0	5	0	
0.231667	-0.000988873	-0.0102492	0.000109479	0.000270951	0	5	0	
0.231833	0.00541518	0.00242782	9.32727E-05	0.000203083	0	5	0	
0.232	0.00288155	0.00182907	8.92959E-05	0.000142633	0	5	0	
0.232167	-0.00167136	-0.00706408	0.000115149	0.000121289	0	5	0	
0.232333	0.00166708	0.00550691	0.000107314	0.000176846	0	5	0	
0.2325	0.0058176	0.0108075	0.000100297	0.000321949	0	5	0	
0.232667	-0.00920604	-0.0277118	0.00010104	0.0004272	0	5	0	
0.232833	0.00835015	0.020212	0.000127425	0.000475783	0	5	0	
0.233	-0.00545037	0.00106611	0.000163855	0.00039832	0	5	0	
0.233167	-0.00065834	-0.0101844	0.000203932	0.000267832	0	5	0	
0.233333	0.000157187	0.000646918	0.000235559	0.000226646	0	5	0	
0.2335	8.23539E-05	0.0134832	0.000194912	0.000280792	0	5	0	
0.233667	-0.00369733	-0.0159091	0.000151783	0.000374174	0	5	0	
0.233833	0.00100116	0.00587399	0.000104621	0.000351406	0	5	0	
0.234	-1.87971E-05	0.00687798	0.000116638	0.000252691	0	5	0	
0.234167	0.00338435	-0.00877206	8.56294E-05	0.000199575	0	5	0	
0.234333	-0.00960219	0.00179683	8.81465E-05	0.000195018	0	5	0	
0.2345	0.00169739	0.00741268	0.000111124	0.000248811	0	5	0	
0.234667	-0.00174952	-0.0101627	0.000101265	0.000261898	0	5	0	
0.234833	0.00283376	0.00982664	6.9679E-05	0.000242078	0	5	0	
0.235	-0.00341988	-0.00467987	5.19442E-05	0.000198043	0	5	0	
0.235167	0.0053845	-0.000851385	0.000106276	0.000126917	0	5	0	
0.235333	0.00358817	0.0111691	0.000161692	0.000101144	0	5	0	
0.2355	-0.00589351	-0.0129612	0.000178175	0.00012901	0	5	0	
0.235667	0.00452776	0.00661451	0.00015344	0.000184095	0	5	0	
0.235833	0.000326985	0.00497886	0.000158536	0.000211726	0	5	0	
0.236	-0.00385858	-0.0106894	0.000182605	0.000210835	0	5	0	
0.236167	0.00867436	0.0163708	0.000212747	0.000240207	0	5	0	
0.236333	-0.00630583	-0.0158175	0.000209607	0.000267877	0	5	0	
0.2365	0.00696864	0.0149406	0.000169407	0.000297324	0	5	0	
0.236667	0.00104253	-0.00948933	0.000128559	0.000320269	0	5	0	
0.236833	-0.00345233	0.00529103	8.38261E-05	0.000302721	0	5	0	
0.237	0.00610607	-0.00392798	7.97825E-05	0.000259904	0	5	0	
0.237167	-0.00739988	0.00660807	9.34764E-05	0.00027536	0	5	0	
0.237333	0.00318775	-0.00910687	0.000107689	0.000352427	0	5	0	
0.2375	-0.00142058	0.00971246	0.00010017	0.000404711	0	5	0	
0.237667	0.00540972	-0.00637856	7.03144E-05	0.00034313	0	5	0	
0.237833	-0.00815126	-0.000525867	7.35065E-05	0.000228105	0	5	0	
0.238	0.0091168	0.00382845	0.000130826	0.000149079	0	5	0	
0.238167	-0.00328425	-0.00364596	0.000168684	0.000140418	0	5	0	
0.238333	-0.0021624	-0.000529296	0.000143295	0.000184823	0	5	0	
0.2385	0.00172413	0.00583314	9.51614E-05	0.000218143	0	5	0	
0.238667	-0.00242284	-0.00588908	5.91742E-05	0.0002039	0	5	0	
0.238833	-0.00101548	0.00175588	8.01023E-05	0.000145727	0	5	0	
0.239	0.00620885	-0.000852548	0.000125071	9.15681E-05	0	5	0	
0.239167	-0.00256737	0.00519306	0.000161238	7.28929E-05	0	5	0	
0.239333	-0.000640959	-0.00822248	0.00013514	9.82328E-05	0	5	0	
0.2395	0.00369238	0.00886282	8.55425E-05	0.000145077	0	5	0	
0.239667	-0.00403145	-0.00750104	6.41569E-05	0.000184516	0	5	0	
0.239833	0.0024137	0.006848	9.55844E-05	0.000210103	0	5	0	
0.24	-0.00119926	-0.00620215	0.000123359	0.000214573	0	5	0	
0.240167	-0.000729239	0.00388567	0.000132417	0.000201024	0	5	0	
0.240333	0.00147832	-0.00591303	9.43544E-05	0.000196394	0	5	0	
0.2405	0.00256367	0.00805074	9.17736E-05	0.000231336	0	5	0	
0.240667	-0.00561213	-0.00686457	0.000127063	0.000256377	0	5	0	
0.240833	0.00968458	0.000479348	0.000184586	0.000207905	0	5	0	
0.241	-0.00469149	0.00493632	0.000184178	0.00011711	0	5	0	
0.241167	0.00182467	-0.00453478	0.000158533	9.96169E-05	0	5	0	
0.241333	-0.00414407	-0.00716945	0.000121043	0.000206791	0	5	0	
0.2415	0.0063013	0.0162274	0.00011575	0.000340289	0	5	0	
0.241667	0.000486958	-0.0199919	8.71035E-05	0.000404144	0	5	0	
0.241833	0.0040806	0.019064	8.39729E-05	0.0003922	0	5	0	
0.242	-0.0090966	-0.0092474	9.25262E-05	0.000339731	0	5	0	
0.242167	0.0112601	-0.0050452	0.000133752	0.000274812	0	5	0	
0.242333	-0.00339249	0.00932544	0.000188087	0.00019884	0	5	0	
0.2425	0.000532228	-0.000129571	0.000168438	0.000210676	0	5	0	
0.242667	-1.23996E-05	-0.0130851	0.000153175	0.00029556	0	5	0	
0.242833	0.0098527	0.0177961	0.000135404	0.000380836	0	5	0	
0.243	-0.00868562	-0.00979685	0.00018157	0.000365725	0	5	0	
0.243167	0.00714728	0.00110838	0.000186451	0.00026347	0	5	0	
0.243333	-0.00427561	-0.0067707	0.000182128	0.00021389	0	5	0	
0.2435	0.00524777	0.0163544	0.000159887	0.000259968	0	5	0	
0.243667	-0.0012053	-0.019744	0.000174953	0.000351398	0	5	0	
0.243833	-0.000306161	0.010744	0.00017054	0.000367512	0	5	0	
0.244	0.000438201	-0.00393089	0.000142703	0.000286585	0	5	0	
0.244167	-0.000453301	0.000717418	9.45652E-05	0.000200447	0	5	0	
0.244333	0.00250296	-0.00373323	6.05817E-05	0.0001919	0	5	0	
0.2445	-0.0016087	0.00583323	5.67199E-05	0.000238392	0	5	0	
0.244667	0.00343044	-0.00861302	6.99895E-05	0.000281145	0	5	0	
0.244833	-0.00542216	0.00948369	8.92329E-05	0.000270884	0	5	0	
0.245	0.00122139	-0.00667837	8.92627E-05	0.000235146	0	5	0	
0.245167	0.00616146	0.00307576	9.3352E-05	0.000203534	0	5	0	
0.245333	-0.00676747	-0.00292949	0.000101714	0.000213915	0	5	0	
0.2455	-0.00182145	0.00642876	0.000118413	0.000245255	0	5	0	
0.245667	-0.00199955	-0.0082441	0.000105687	0.000256895	0	5	0	
0.245833	0.00736241	0.00735496	0.000108491	0.000222175	0	5	0	
0.246	-0.00747512	-0.0019877	0.00013441	0.000153564	0	5	0	
0.246167	0.00418772	-5.42294E-05	0.000153964	0.000113836	0	5	0	
0.246333	-0.0041688	-0.00226158	0.000137926	0.000128946	0	5	0	
0.2465	-0.00135492	0.0057626	8.80183E-05	0.000164598	0	5	0	
0.246667	-0.000683726	-0.00632772	6.66166E-05	0.000197939	0	5	0	
0.246833	0.00518863	0.0134711	6.30967E-05	0.000231357	0	5	0	
0.247	-0.00727758	-0.0209793	0.000119738	0.000303213	0	5	0	
0.247167	0.00315025	0.0189853	0.000153744	0.00037622	0	5	0	
0.247333	-0.00383298	-0.00843955	0.000143117	0.000352354	0	5	0	
0.2475	0.000360033	-0.00367655	8.45627E-05	0.000253031	0	5	0	
0.247667	0.000960912	0.00974042	3.25292E-05	0.000165628	0	5	0	
0.247833	0.00409267	-0.00178881	4.65899E-05	0.000206452	0	5	0	
0.248	-0.00708071	-0.011902	0.000101864	0.000334467	0	5	0	
0.248167	0.00631051	0.0186003	0.000141822	0.000427231	0	5	0	
0.248333	-0.00265795	-0.0154412	0.000154357	0.000411263	0	5	0	
0.2485	-0.0018861	0.00380009	0.000124391	0.000315545	0	5	0	
0.248667	0.00552683	0.00847234	0.000105824	0.000232228	0	5	0	
0.248833	-0.0037533	-0.0100964	9.03362E-05	0.000183055	0	5	0	
0.249	0.000571146	-0.00157676	7.07321E-05	0.000232679	0	5	0	
0.249167	0.00561007	0.0155489	0.000108774	0.000355961	0	5	0	
0.249333	-0.00911505	-0.0246844	0.000163275	0.000465241	0	5	0	
0.2495	0.00880104	0.0179946	0.000202525	0.000468748	0	5	0	
0.249667	-0.00162554	-0.00629665	0.000163185	0.000380626	0	5	0	
0.249833	0.00456274	-0.00269619	0.000117021	0.000277998	0	5	0	
0.25	-0.00749427	0.0023478	0.000109867	0.000186579	0	5	0	
0.250167	0.00157156	0.00424388	0.000125973	0.00018869	0	5	0	
0.250333	0.00481478	-0.0112167	0.000105235	0.000237226	0	5	0	
0.2505	-0.000778835	0.0127789	7.51828E-05	0.000291023	0	5	0	
0.250667	-0.0003414	-0.00762884	6.77281E-05	0.000255666	0	5	0	
0.250833	-0.0016305	0.000965229	7.20341E-05	0.000190697	0	5	0	
0.251	-0.00186419	-0.00159697	6.82924E-05	0.000173576	0	5	0	
0.251167	0.00468991	0.00720044	7.99984E-05	0.000199999	0	5	0	
0.251333	-0.000573854	-0.00821354	0.000109278	0.000232487	0	5	0	
0.2515	-0.000597533	0.00663726	0.000120887	0.000223406	0	5	0	
0.251667	0.00132684	-0.00579769	0.000116983	0.000187662	0	5	0	
0.251833	0.0029704	0.00739156	0.000102731	0.000170744	0	5	0	
0.252	-0.00870437	-0.00680263	0.000114819	0.000153618	0	5	0	
0.252167	0.00291435	0.00308444	0.000119751	0.000136001	0	5	0	
0.252333	0.00567004	-0.0030286	0.000104653	0.000124006	0	5	0	
0.2525	-0.00395174	0.00723006	0.000114124	0.000166373	0	5	0	
0.252667	-0.00161743	-0.00977867	0.000123245	0.000208933	0	5	0	
0.252833	0.0042031	0.00669475	0.000130192	0.000214821	0	5	0	
0.253	-0.00445764	-0.00298618	0.00010171	0.000161813	0	5	0	
0.253167	-0.00145063	-0.00392361	6.7069E-05	0.000117151	0	5	0	
0.253333	0.00386512	0.0111916	6.62075E-05	0.000175927	0	5	0	
0.2535	-0.000856146	-0.0121246	6.17983E-05	0.000314395	0	5	0	
0.253667	-0.00343658	0.00336926	6.47898E-05	0.000469735	0	5	0	
0.253833	0.00203103	0.011259	7.36061E-05	0.000519402	0	5	0	
0.254	-0.00153204	-0.0213061	7.7354E-05	0.00044648	0	5	0	
0.254167	0.00256029	0.012896	7.92333E-05	0.000369056	0	5	0	
0.254333	-0.00448461	0.00173861	5.55656E-05	0.000292907	0	5	0	
0.2545	0.00807918	-0.00928403	9.16201E-05	0.000267394	0	5	0	
0.254667	-0.00269421	0.00940357	0.0001109	0.000226177	0	5	0	
0.254833	0.00169674	-0.00227253	0.000120427	0.000169906	0	5	0	
0.255	-0.00128223	-0.00678418	7.95603E-05	0.000172832	0	5	0	
0.255167	0.00117022	0.0110564	4.90856E-05	0.000198054	0	5	0	
0.255333	-0.00196029	-0.00702825	5.38439E-05	0.000235139	0	5	0	
0.2555	0.00112907	0.00131435	6.2442E-05	0.000185553	0	5	0	
0.255667	-0.000795407	-0.00237291	7.1027E-05	0.000134609	0	5	0	
0.255833	0.00220597	0.0120537	6.28489E-05	0.000169148	0	5	0	
0.256	-0.00465752	-0.0203065	7.3485E-05	0.00026395	0	5	0	
0.256167	0.00519982	0.0198849	8.55376E-05	0.000346563	0	5	0	
0.256333	-0.000565594	-0.0123379	9.61168E-05	0.000342154	0	5	0	
0.2565	-0.00454897	0.00368667	9.31797E-05	0.000302102	0	5	0	
0.256667	-0.00368813	-0.00432143	7.92851E-05	0.000225465	0	5	0	
0.256833	0.00960604	0.00701582	9.39619E-05	0.000187521	0	5	0	
0.257	-0.00469087	-0.0113552	0.000109809	0.000206462	0	5	0	
0.257167	0.000406285	0.0118817	0.000103837	0.000281866	0	5	0	
0.257333	-0.00434548	-0.010731	9.20726E-05	0.000342262	0	5	0	
0.2575	0.011342	0.0112414	9.56963E-05	0.000328959	0	5	0	
0.257667	-0.000825195	-0.0122584	0.000140263	0.000278357	0	5	0	
0.257833	-0.000678381	0.013376	0.000164255	0.00026857	0	5	0	
0.258	-0.00120196	-0.0170568	0.000156169	0.000298529	0	5	0	
0.258167	0.0081226	0.0115608	0.00016259	0.000311833	0	5	0	
0.258333	-0.00419778	-0.00034604	0.000149159	0.000243635	0	5	0	
0.2585	-0.00132816	-0.00231373	0.000127648	0.000154448	0	5	0	
0.258667	-0.00722829	-0.00177536	0.000130398	0.000154479	0	5	0	
0.258833	0.0177782	0.0106521	0.000172307	0.000232236	0	5	0	
0.259	-0.00372743	-0.0137132	0.00022419	0.000309647	0	5	0	
0.259167	-0.00447404	0.0105929	0.00017967	0.000303261	0	5	0	
0.259333	0.0045512	-0.00659748	0.000130938	0.000251842	0	5	0	
0.2595	-0.004584	0.00533081	9.12704E-05	0.000217366	0	5	0	
0.259667	0.000860239	-0.00480256	0.000113382	0.000196114	0	5	0	
0.259833	-0.000166603	0.00250898	0.000123132	0.000166854	0	5	0	
0.26	0.00108857	0.00117694	0.000111472	0.000149739	0	5	0	
0.260167	-0.0026055	0.00406241	8.79571E-05	0.000184405	0	5	0	
0.260333	0.000495066	-0.00931725	7.70952E-05	0.000226652	0	5	0	
0.2605	-0.00316352	0.00262531	7.74321E-05	0.000214868	0	5	0	
0.260667	0.00509688	0.0021521	8.63626E-05	0.000140954	0	5	0	
0.260833	-0.000230605	-0.000768105	8.33623E-05	0.00011013	0	5	0	
0.261	-0.00373966	-0.00481202	7.37956E-05	0.000164445	0	5	0	
0.261167	0.000402075	0.0048307	9.71868E-05	0.00018123	0	5	0	
0.261333	-0.000620262	-0.00322531	0.000131761	0.000181234	0	5	0	
0.2615	-0.00213557	-0.000800904	0.000160774	0.000107004	0	5	0	
0.261667	0.0015523	-0.0089541	0.000114254	0.000105555	0	5	0	
0.261833	0.00335107	0.0156676	7.60069E-05	0.000133886	0	5	0	
0.262	-0.00328342	-0.00983656	5.08745E-05	0.000200567	0	5	0	
0.262167	0.00523444	0.0021176	8.8508E-05	0.000251328	0	5	0	
0.262333	-0.00405253	-0.00309174	0.000115345	0.000216295	0	5	0	
0.2625	0.00199949	0.00716862	0.000141463	0.000164153	0	5	0	
0.262667	0.00192643	-0.00838259	0.000125693	0.000128135	0	5	0	
0.262833	-0.000995977	0.00123913	8.4209E-05	0.000127179	0	5	0	
0.263	0.0035453	0.0029439	5.97037E-05	0.00013521	0	5	0	
0.263167	-0.00371288	0.0107482	6.18077E-05	0.000232446	0	5	0	
0.263333	-0.000201007	-0.0279235	7.27862E-05	0.000407253	0	5	0	
0.2635	0.00544622	0.0323075	9.7795E-05	0.000558184	0	5	0	
0.263667	-0.00943107	-0.0110851	0.000111299	0.000552911	0	5	0	
0.263833	0.00525579	-0.0168674	0.000178035	0.000485723	0	5	0	
0.264	0.00294405	0.0235106	0.000165335	0.000415288	0	5	0	
0.264167	0.000545539	-0.0015301	0.000137349	0.000473787	0	5	0	
0.264333	-0.00107383	-0.0193635	6.72185E-05	0.000547511	0	5	0	
0.2645	0.00306992	0.0270042	4.72655E-05	0.000596217	0	5	0	
0.264667	-0.0103213	-0.023628	8.51511E-05	0.00053907	0	5	0	
0.264833	0.00442785	0.0111335	0.000137753	0.000452562	0	5	0	
0.265	0.0046049	0.0039744	0.00015805	0.000355238	0	5	0	
0.265167	-0.00410084	-0.00889863	0.00013279	0.000273016	0	5	0	
0.265333	0.0011385	-0.00166128	0.000106194	0.000323334	0	5	0	
0.2655	0.00872524	0.0232402	0.00015136	0.000482644	0	5	0	
0.265667	-0.0119404	-0.0301002	0.000204909	0.000625645	0	5	0	
0.265833	0.00467703	0.0189432	0.000217138	0.000589905	0	5	0	
0.266	0.000836042	0.00521106	0.000157668	0.000419256	0	5	0	
0.266167	0.00177149	-0.0169226	0.000111924	0.000299683	0	5	0	
0.266333	0.000735316	0.00389132	7.28449E-05	0.00034818	0	5	0	
0.2665	-0.00189584	0.0175382	9.95785E-05	0.000516844	0	5	0	
0.266667	-0.00827026	-0.0227705	0.000156106	0.000585278	0	5	0	
0.266833	0.00790773	0.0126346	0.000224446	0.000493741	0	5	0	
0.267	0.00333905	-3.64259E-05	0.000218122	0.000315827	0	5	0	
0.267167	-0.00121629	-0.000330912	0.000149329	0.000189173	0	5	0	
0.267333	-0.00226563	-0.00511189	8.18619E-05	0.000190626	0	5	0	
0.2675	0.00300207	0.0128811	6.43511E-05	0.000261281	0	5	0	
0.267667	0.000869286	-0.0140007	5.39201E-05	0.000331801	0	5	0	
0.267833	-0.00230707	0.00966926	5.00299E-05	0.000304014	0	5	0	
0.268	0.00191014	-0.00384767	5.24022E-05	0.000225862	0	5	0	
0.268167	0.000993304	0.00704395	5.89536E-05	0.000183325	0	5	0	
0.268333	0.00286401	-0.00940564	6.63891E-05	0.000192761	0	5	0	
0.2685	-0.00100922	0.00866019	8.14702E-05	0.000232452	0	5	0	
0.268667	-0.00820418	-0.00908317	0.000104287	0.000242606	0	5	0	
0.268833	0.014905	0.0072288	0.000152528	0.000212009	0	5	0	
0.269	-0.00482381	-0.00215499	0.000182664	0.00016317	0	5	0	
0.269167	-0.00748758	0.00269873	0.000185774	0.000124527	0	5	0	
0.269333	0.00952034	-0.00495901	0.000169689	0.000125746	0	5	0	
0.2695	-0.00637916	0.00755223	0.000161219	0.000155343	0	5	0	
0.269667	-0.00056055	-0.0103877	0.000150455	0.000199269	0	5	0	
0.269833	0.000194122	0.00929344	0.000121343	0.000229077	0	5	0	
0.27	-0.00332889	-0.0077866	8.72001E-05	0.000273499	0	5	0	
0.270167	0.00530672	0.0104818	8.9119E-05	0.000304379	0	5	0	
0.270333	-0.00630977	-0.0100103	0.000100959	0.000287187	0	5	0	
0.2705	-0.000140366	0.00336509	0.000118467	0.000213129	0	5	0	
0.270667	0.00502464	-0.00063636	0.000129259	0.000130847	0	5	0	
0.270833	-6.18434E-05	-0.00467247	0.000103835	7.83692E-05	0	5	0	
0.271	-0.00325025	0.00871517	0.0001086	8.28011E-05	0	5	0	
0.271167	0.00362457	-0.00555492	9.67162E-05	0.000118731	0	5	0	
0.271333	-0.00103928	-0.00786511	0.000111256	0.00019417	0	5	0	
0.2715	0.00357405	0.0213728	0.000100417	0.000258454	0	5	0	
0.271667	-0.00640995	-0.0225576	0.000122267	0.000335046	0	5	0	
0.271833	0.00166383	0.0110958	0.000137028	0.00036632	0	5	0	
0.272	0.00611005	-0.00751242	0.000127699	0.00034878	0	5	0	
0.272167	0.000150058	0.0106458	9.764E-05	0.000266211	0	5	0	
0.272333	-0.00653482	-0.0113924	9.76634E-05	0.000214841	0	5	0	
0.2725	0.00265095	-0.000116292	9.13749E-05	0.000217038	0	5	0	
0.272667	0.00617316	0.00524351	0.000123185	0.000178172	0	5	0	
0.272833	-0.0120183	0.00809349	0.000136583	0.000276755	0	5	0	
0.273	0.00494065	-0.0324592	0.000177431	0.000404801	0	5	0	
0.273167	0.00559139	0.0352622	0.000189011	0.0005928	0	5	0	
0.273333	-0.0107382	-0.0180939	0.000216486	0.000601165	0	5	0	
0.2735	0.0147606	0.00102618	0.00022966	0.000477027	0	5	0	
0.273667	-0.00855378	0.00149956	0.000253871	0.000291909	0	5	0	
0.273833	-0.00521336	-0.00188665	0.000289193	0.00020276	0	5	0	
0.274	0.0106567	-0.0104288	0.000287563	0.000242374	0	5	0	
0.274167	-0.00822586	0.0197462	0.000253619	0.000384406	0	5	0	
0.274333	-9.4949E-05	-0.0236636	0.000230261	0.000484372	0	5	0	
0.2745	0.011636	0.0190568	0.00024621	0.000510438	0	5	0	
0.274667	-0.00860148	-0.00902454	0.000256203	0.00042726	0	5	0	
0.274833	0.00763085	0.000989446	0.000206689	0.000282224	0	5	0	
0.275	-0.00490103	-0.00698959	0.000159563	0.000244547	0	5	0	
0.275167	0.00271503	0.0125998	0.000124913	0.000310719	0	5	0	
0.275333	0.00329194	0.00371137	9.68118E-05	0.000317159	0	5	0	
0.2755	0.00207423	-0.0191519	0.000101546	0.000273008	0	5	0	
0.275667	-0.000747323	0.00973128	0.00013194	0.000290436	0	5	0	
0.275833	0.00176397	0.0117639	0.000148977	0.000442162	0	5	0	
0.276	0.00257648	-0.0137691	0.000119224	0.000515969	0	5	0	
0.276167	0.00307886	0.0114299	7.02921E-05	0.000431354	0	5	0	
0.276333	0.0019402	-0.00150906	6.57381E-05	0.000295172	0	5	0	
0.2765	-0.00135486	-0.00577322	6.32034E-05	0.000250187	0	5	0	
0.276667	0.00552084	0.00781754	6.91448E-05	0.000242902	0	5	0	
0.276833	-0.00055737	-0.00351151	6.78182E-05	0.00022425	0	5	0	
0.277	-0.00207722	-0.00642771	6.1614E-05	0.000223136	0	5	0	
0.277167	0.000994531	0.0193425	7.85477E-05	0.000256258	0	5	0	
0.277333	-0.000665244	-0.0199742	9.64855E-05	0.000317314	0	5	0	
0.2775	0.00325963	0.00940576	0.000117429	0.000346379	0	5	0	
0.277667	0.000835849	-0.0012996	0.000102598	0.000422248	0	5	0	
0.277833	-0.00526353	-0.0035036	9.19716E-05	0.000412639	0	5	0	
0.278	0.00159699	-0.00528323	9.70812E-05	0.000317746	0	5	0	
0.278167	0.00703608	0.0170648	0.000103692	0.000263884	0	5	0	
0.278333	-0.00768662	-0.0169721	0.000109831	0.0003019	0	5	0	
0.2785	0.0038048	0.00738391	0.000128256	0.000358119	0	5	0	
0.278667	0.00280362	-0.0190169	0.000111631	0.000330529	0	5	0	
0.278833	0.00300965	0.0320428	0.000107398	0.000367418	0	5	0	
0.279	-0.0192173	-0.0301138	0.000121803	0.000463675	0	5	0	
0.279167	0.0113543	0.0124743	0.000213163	0.000540902	0	5	0	
0.279333	0.00195988	0.00307025	0.000259273	0.000499064	0	5	0	
0.2795	-0.00554935	-0.00199067	0.000230644	0.000339592	0	5	0	
0.279667	0.00138171	-0.00645371	0.000170009	0.000195818	0	5	0	
0.279833	0.00496879	0.0100845	0.000126799	0.00013468	0	5	0	
0.28	-0.00485394	-0.0163401	0.000125944	0.000214607	0	5	0	
0.280167	-0.00130232	0.0244897	0.000126028	0.000328781	0	5	0	
0.280333	-0.00276578	-0.0216107	0.000137703	0.00039728	0	5	0	
0.2805	-0.000771271	0.0102575	0.000107515	0.000390096	0	5	0	
0.280667	0.00201743	-0.00203049	9.56589E-05	0.000286851	0	5	0	
0.280833	0.00578411	0.00399148	6.43161E-05	0.000210035	0	5	0	
0.281	-0.0136645	-0.0122507	0.000147068	0.000209327	0	5	0	
0.281167	0.0122713	0.0204102	0.000203843	0.000303357	0	5	0	
0.281333	-0.00293014	-0.0235009	0.000224205	0.000362892	0	5	0	
0.2815	-0.00391555	0.013769	0.000169425	0.000397552	0	5	0	
0.281667	-0.000470382	-0.00322976	8.6629E-05	0.000363855	0	5	0	
0.281833	0.00331364	0.00741494	8.45435E-05	0.000285433	0	5	0	
0.282	-0.00225783	-0.0138025	7.96344E-05	0.000246771	0	5	0	
0.282167	-0.00597664	0.013286	0.000106161	0.000259534	0	5	0	
0.282333	0.000822794	-0.0123019	0.000103618	0.000291607	0	5	0	
0.2825	-0.00152886	0.0108985	9.06249E-05	0.000266959	0	5	0	
0.282667	0.00289267	-0.00402419	7.25666E-05	0.00020961	0	5	0	
0.282833	0.00663207	0.00121677	7.09022E-05	0.00015437	0	5	0	
0.283	-0.00976576	-0.00408386	0.000123127	0.000116797	0	5	0	
0.283167	0.00176576	0.0104325	0.000124638	0.000140702	0	5	0	
0.283333	-0.00365617	-0.0110467	0.000158728	0.000203114	0	5	0	
0.2835	-0.000452001	0.0167096	0.000113972	0.000251296	0	5	0	
0.283667	-0.00239561	-0.01334	0.000149953	0.000271229	0	5	0	
0.283833	0.0118936	0.0133794	0.00013406	0.000317549	0	5	0	
0.284	0.00125241	-0.0143044	0.000156906	0.000352981	0	5	0	
0.284167	-0.0106067	0.0153592	0.000154622	0.000376259	0	5	0	
0.284333	0.00319869	-0.0118597	0.00016771	0.000348564	0	5	0	
0.2845	-0.00271971	0.0185407	0.000127142	0.000327745	0	5	0	
0.284667	0.00075374	-0.0202521	9.20536E-05	0.00032523	0	5	0	
0.284833	-0.00257311	0.0235427	5.5431E-05	0.000360429	0	5	0	
0.285	0.00132915	-0.0204736	9.23293E-05	0.000415468	0	5	0	
0.285167	0.00677212	0.0151473	9.34718E-05	0.000426233	0	5	0	
0.285333	-0.0174722	-0.00742444	0.000167859	0.000391736	0	5	0	
0.2855	0.0119659	0.0105084	0.000252616	0.000305063	0	5	0	
0.285667	-0.00241705	-0.0118744	0.000280844	0.000250483	0	5	0	
0.285833	-0.000466117	0.0163881	0.000187025	0.000236227	0	5	0	
0.286	-0.00109355	-0.0164553	7.93855E-05	0.000282723	0	5	0	
0.286167	-0.000189681	0.0136533	7.78609E-05	0.000309773	0	5	0	
0.286333	-3.12299E-05	-0.0141173	8.86291E-05	0.00032402	0	5	0	
0.2865	-0.000803977	0.0131538	0.000115979	0.000287501	0	5	0	
0.286667	-0.00232283	-0.00646288	0.000135176	0.000251785	0	5	0	
0.286833	0.0106967	0.0061584	0.000153998	0.000195162	0	5	0	
0.287	-0.00738609	-0.00973092	0.000155967	0.000185053	0	5	0	
0.287167	0.00635766	0.0147419	0.000142846	0.000223601	0	5	0	
0.287333	-0.00724324	-0.0135992	0.000173374	0.000277521	0	5	0	
0.2875	0.000891499	0.0109426	0.000178663	0.000290332	0	5	0	
0.287667	0.00348428	-0.0110512	0.000161081	0.000264041	0	5	0	
0.287833	0.00368407	0.0117576	0.00012	0.000265011	0	5	0	
0.288	-0.0102469	-0.0131854	0.000136957	0.000294524	0	5	0	
0.288167	0.0154346	0.0134642	0.000176012	0.000292071	0	5	0	
0.288333	-0.00774243	-0.00612935	0.000239605	0.000267323	0	5	0	
0.2885	-0.00376436	0.000333255	0.000202779	0.000215093	0	5	0	
0.288667	6.2328E-05	-0.000619141	0.000209859	0.000167602	0	5	0	
0.288833	0.0122489	0.00963353	0.000244831	0.000192744	0	5	0	
0.289	-0.0100983	-0.0213174	0.000287268	0.000273234	0	5	0	
0.289167	0.00325037	0.0289013	0.000250387	0.00039709	0	5	0	
0.289333	-0.00226393	-0.0269428	0.000146829	0.000470607	0	5	0	
0.2895	0.00723102	0.0148731	0.000121132	0.000473924	0	5	0	
0.289667	-0.012189	-0.00592595	0.000139752	0.000403795	0	5	0	
0.289833	0.0017371	0.00619244	0.000204722	0.0002851	0	5	0	
0.29	-0.00568181	-0.0123972	0.000217954	0.000248075	0	5	0	
0.290167	0.0130496	0.0177703	0.000209924	0.000291212	0	5	0	
0.290333	-0.00964288	-0.0190073	0.000206877	0.000363146	0	5	0	
0.2905	-0.00449624	0.0130556	0.000222239	0.000348976	0	5	0	
0.290667	0.00758585	-0.00838477	0.000196536	0.000298156	0	5	0	
0.290833	-0.0145277	0.00757693	0.000228342	0.0002332	0	5	0	
0.291	-0.00121603	-0.015577	0.000260109	0.000252441	0	5	0	
0.291167	0.0108466	0.0198601	0.000318485	0.000301564	0	5	0	
0.291333	-0.0136833	-0.0150193	0.000279367	0.00034325	0	5	0	
0.2915	0.0116423	0.00767173	0.000242915	0.000301244	0	5	0	
0.291667	-0.0126305	-0.00847117	0.000241221	0.000230893	0	5	0	
0.291833	0.00517096	0.0118656	0.000216834	0.00019669	0	5	0	
0.292	-0.00575952	-0.0127109	0.00019466	0.000213845	0	5	0	
0.292167	0.00295252	0.0104512	0.000162072	0.000234368	0	5	0	
0.292333	0.000791891	-0.00757446	0.000155072	0.000213945	0	5	0	
0.2925	-0.0027407	0.00457509	0.000112814	0.00017195	0	5	0	
0.292667	-0.00265858	-0.00348291	7.30616E-05	0.000131009	0	5	0	
0.292833	0.00304833	0.00677994	6.46934E-05	0.00011934	0	5	0	
0.293	-0.00669574	-0.00624575	8.6289E-05	0.000119585	0	5	0	
0.293167	0.00253056	0.00649301	0.000101075	0.000124274	0	5	0	
0.293333	0.00262172	-0.00857391	7.45771E-05	0.00013428	0	5	0	
0.2935	-0.00212603	0.0135448	8.1504E-05	0.000168768	0	5	0	
0.293667	-0.0107397	-0.0153864	9.8669E-05	0.000218132	0	5	0	
0.293833	0.0084921	0.0120177	0.000153918	0.00025559	0	5	0	
0.294	-0.000506454	-0.00735757	0.000197263	0.000254481	0	5	0	
0.294167	-0.00561253	0.00757777	0.000220262	0.000227697	0	5	0	
0.294333	0.00187695	-0.00860773	0.000194196	0.000198695	0	5	0	
0.2945	-0.00276751	0.00644837	0.000146658	0.000173471	0	5	0	
0.294667	-0.00198289	-0.00666599	0.00011804	0.000172661	0	5	0	
0.294833	0.00921288	0.009618	0.000125768	0.000195292	0	5	0	
0.295	-0.0181074	-0.0130602	0.000167251	0.000221484	0	5	0	
0.295167	0.00800006	0.00980469	0.000314905	0.000226075	0	5	0	
0.295333	-0.00930773	-0.00549422	0.000589039	0.000205081	0	5	0	
0.2955	-0.0103098	0.00219905	0.000661887	0.000148184	0	5	0	
0.295667	0.00315971	-0.00317746	0.000511962	0.000111053	0	5	0	
0.295833	-0.00132325	0.00459535	0.000273167	8.64956E-05	0	5	0	
0.296	-0.00730726	-0.0116825	0.000208402	0.000122191	0	5	0	
0.296167	0.0215643	0.0134975	0.000260902	0.00016217	0	5	0	
0.296333	-0.043778	-0.0122417	0.000443142	0.000218594	0	5	0	
0.2965	0.00906784	0.013512	0.000492676	0.000242461	0	5	0	
0.296667	0.000221807	-0.0102448	0.000452251	0.000259988	0	5	0	
0.296833	-0.000637701	0.00607854	0.000214538	0.000215575	0	5	0	
0.297	-0.00525283	-0.00898391	0.000121816	0.000188028	0	5	0	
0.297167	0.0017221	0.0122741	0.00010419	0.000182322	0	5	0	
0.297333	-0.00142125	-0.0107925	8.13553E-05	0.000211991	0	5	0	
0.2975	-0.00123958	0.0104342	4.38727E-05	0.000227823	0	5	0	
0.297667	0.00182139	-0.00653243	1.69803E-05	0.000225846	0	5	0	
0.297833	-0.00559745	0.00854438	5.45412E-05	0.000206735	0	5	0	
0.298	0.00157768	-0.00922973	6.44933E-05	0.00019066	0	5	0	
0.298167	-0.0042705	0.0121784	8.2754E-05	0.000186837	0	5	0	
0.298333	0.00509712	-0.0111139	0.000102059	0.000194607	0	5	0	
0.2985	-0.00451905	0.00761265	0.00015967	0.000205726	0	5	0	
0.298667	0.00406375	-0.00285893	0.000173329	0.000171322	0	5	0	
0.298833	-0.00225528	0.00389509	0.00013588	0.000126418	0	5	0	
0.299	-0.00157757	-0.00593259	8.27511E-05	0.000104868	0	5	0	
0.299167	0.0028202	0.00721491	5.42174E-05	0.000122474	0	5	0	
0.299333	-0.00316186	-0.00691272	6.41199E-05	0.000154176	0	5	0	
0.2995	0.00515379	0.0101886	7.75518E-05	0.000163594	0	5	0	
0.299667	-0.000507988	-0.00907229	0.000104111	0.000176548	0	5	0	
0.299833	0.000536259	0.00626287	8.03519E-05	0.000169972	0	5	0	
0.3	0.00261899	-0.00328521	6.47613E-05	0.000142713	0	5	0	
0.300167	0.00313934	0.0047072	4.52067E-05	0.000101747	0	5	0	
0.300333	-0.000795199	-0.00728001	6.40439E-05	9.43654E-05	0	5	0	
0.3005	0.00101251	0.0068838	6.05526E-05	0.000109789	0	5	0	
0.300667	0.00507387	-0.00414193	8.54073E-05	0.000124499	0	5	0	
0.300833	-0.00266451	0.00427819	9.4086E-05	0.000104188	0	5	0	
0.301	8.73334E-05	-0.00416562	8.50824E-05	9.36429E-05	0	5	0	
0.301167	-0.0012254	0.00299705	5.33837E-05	9.4119E-05	0	5	0	
0.301333	0.00331811	-0.00229082	2.8839E-05	9.6519E-05	0	5	0	
0.3015	0.00167435	0.00812367	3.93582E-05	0.000104562	0	5	0	
0.301667	-0.00351571	-0.0117945	4.99166E-05	0.000128514	0	5	0	
0.301833	0.00104106	0.0103354	6.47667E-05	0.000173463	0	5	0	
0.302	9.58391E-06	-0.0125799	6.10772E-05	0.000205397	0	5	0	
0.302167	0.00273411	0.0176073	5.01232E-05	0.00023557	0	5	0	
0.302333	-0.00232341	-0.0145386	5.10374E-05	0.000281263	0	5	0	
0.3025	-0.00383368	0.00891746	7.46401E-05	0.000291789	0	5	0	
0.302667	0.00337958	-0.01217	8.6273E-05	0.000279987	0	5	0	
0.302833	0.00386208	0.0283099	7.49071E-05	0.000298942	0	5	0	
0.303	-0.00275418	-0.0278976	7.39485E-05	0.000394295	0	5	0	
0.303167	-0.010233	0.0129917	0.000103902	0.000463749	0	5	0	
0.303333	0.0038796	0.0229585	0.000157145	0.000511969	0	5	0	
0.3035	0.0148562	-0.0295722	0.00018535	0.000791289	0	5	0	
0.303667	-0.0198883	0.0136927	0.000258156	0.00117734	0	5	0	
0.303833	0.0175466	0.013839	0.000309001	0.00144939	0	5	0	
0.304	-0.00451665	-0.0303469	0.000328069	0.00129563	0	5	0	
0.304167	-0.0104039	0.0298486	0.000257266	0.000953325	0	5	0	
0.304333	-0.00663434	0.0103726	0.000169305	0.000592951	0	5	0	
0.3045	0.0208581	-0.0330368	0.000202274	0.000441984	0	5	0	
0.304667	-0.0092318	0.0472903	0.000247158	0.000505535	0	5	0	
0.304833	0.0040147	-0.0335005	0.000283388	0.000681534	0	5	0	
0.305	-0.00531444	0.0139914	0.000257582	0.000676096	0	5	0	
0.305167	0.00502797	0.00354897	0.000212646	0.0005552	0	5	0	
0.305333	0.00332854	-0.0103887	0.000165848	0.00042681	0	5	0	
0.3055	-0.00130017	0.00399894	0.000131042	0.00035684	0	5	0	
0.305667	-0.00582347	0.0107276	0.000159835	0.000267689	0	5	0	
0.305833	0.00199311	-0.00904429	0.000198811	0.00026782	0	5	0	
0.306	0.00413635	-0.0202965	0.000191519	0.000401887	0	5	0	
0.306167	0.00140791	0.0279554	0.000159351	0.000545143	0	5	0	
0.306333	-0.00234708	-0.0197114	0.000126149	0.000539514	0	5	0	
0.3065	-0.000998801	0.0133445	8.83161E-05	0.000490489	0	5	0	
0.306667	-0.000326611	-0.0192151	5.51357E-05	0.000451776	0	5	0	
0.306833	0.00301096	0.00697049	4.22828E-05	0.000394137	0	5	0	
0.307	-0.00385799	-0.00239453	7.39592E-05	0.000291751	0	5	0	
0.307167	-0.00191053	-0.00340168	0.000102434	0.000188995	0	5	0	
0.307333	0.00316473	-0.0141102	0.0001102	0.000259407	0	5	0	
0.3075	0.000206958	0.0332687	0.000122436	0.000379298	0	5	0	
0.307667	-0.00358352	-0.0400161	0.000101114	0.000558445	0	5	0	
0.307833	0.00211596	0.0280102	0.000106166	0.000619884	0	5	0	
0.308	-0.000785406	-0.0173755	8.85157E-05	0.000602605	0	5	0	
0.308167	-0.00631202	0.0103507	8.39398E-05	0.000463889	0	5	0	
0.308333	0.0060267	-0.00784527	0.00011048	0.000334473	0	5	0	
0.3085	0.00473369	0.00754742	0.000101305	0.000231751	0	5	0	
0.308667	-0.00578311	-0.0090457	0.000123697	0.000188114	0	5	0	
0.308833	0.000849496	0.00611554	0.000117808	0.000154883	0	5	0	
0.309	-0.00223944	-0.00541422	0.000128614	0.000142521	0	5	0	
0.309167	0.0022131	0.00741373	0.00012183	0.000169456	0	5	0	
0.309333	-0.00371623	-0.0178262	0.000114953	0.000245258	0	5	0	
0.3095	0.00948151	0.0234706	0.000125479	0.000329555	0	5	0	
0.309667	-0.00673895	-0.0184307	0.000152968	0.000386216	0	5	0	
0.309833	0.00660926	0.00644601	0.000162967	0.000380747	0	5	0	
0.31	-0.00202294	-0.00180212	0.00014344	0.000312837	0	5	0	
0.310167	-0.00276902	0.0017847	9.89405E-05	0.000200371	0	5	0	
0.310333	0.00178784	-0.00853676	6.20569E-05	0.000140433	0	5	0	
0.3105	0.000817758	0.00946462	5.00391E-05	0.000152063	0	5	0	
0.310667	0.00214065	-0.0145297	4.59122E-05	0.000197127	0	5	0	
0.310833	-0.00120882	0.0151639	4.1178E-05	0.000235828	0	5	0	
0.311	0.0056514	-0.00969157	6.44159E-05	0.000248929	0	5	0	
0.311167	-0.00686124	-0.000767026	9.06477E-05	0.000206786	0	5	0	
0.311333	0.00334909	-0.00363227	0.000118757	0.000154062	0	5	0	
0.3115	0.000681502	0.0152579	0.000165709	0.000178057	0	5	0	
0.311667	-0.00328327	-0.0231244	0.000188712	0.000273232	0	5	0	
0.311833	0.0025513	0.0152081	0.000165995	0.00035586	0	5	0	
0.312	0.00485361	-0.00353877	9.72029E-05	0.000335202	0	5	0	
0.312167	-0.00137628	-0.00046427	5.67058E-05	0.000264776	0	5	0	
0.312333	-0.000790032	-0.00386426	6.62199E-05	0.000157759	0	5	0	
0.3125	-0.00274686	0.0109063	0.00011991	0.000120158	0	5	0	
0.312667	0.00497897	-0.0154067	0.000166827	0.000159712	0	5	0	
0.312833	-0.00300875	0.0144017	0.000172826	0.000234015	0	5	0	
0.313	0.00397043	-0.0101583	0.000115395	0.000260586	0	5	0	
0.313167	-0.00171348	0.00664728	8.09775E-05	0.000240995	0	5	0	
0.313333	0.00166396	-0.00553492	6.73825E-05	0.000194424	0	5	0	
0.3135	0.00429732	0.00845977	6.76734E-05	0.000165448	0	5	0	
0.313667	-0.00534324	-0.0107064	7.20929E-05	0.000170663	0	5	0	
0.313833	0.00282466	0.0131327	8.0201E-05	0.000213222	0	5	0	
0.314	-0.0016365	-0.0168874	8.5776E-05	0.000266839	0	5	0	
0.314167	0.00930381	0.0170545	8.63069E-05	0.000299046	0	5	0	
0.314333	-0.0113472	-0.0131354	0.000124043	0.000303536	0	5	0	
0.3145	0.0080754	0.00843418	0.000167344	0.000281013	0	5	0	
0.314667	-0.000714295	-0.00494944	0.000194101	0.000231897	0	5	0	
0.314833	0.00318603	0.00260755	0.000161039	0.00016956	0	5	0	
0.315	-0.00716132	-0.00254248	0.000147942	0.000126249	0	5	0	
0.315167	0.00202767	0.00579858	0.000119938	0.000135763	0	5	0	
0.315333	0.000793624	-0.0123678	9.69679E-05	0.000185682	0	5	0	
0.3155	0.00393579	0.0180595	6.34128E-05	0.00024764	0	5	0	
0.315667	-0.00463671	-0.0139953	6.02304E-05	0.000274053	0	5	0	
0.315833	0.00536147	0.00590484	7.70533E-05	0.000277085	0	5	0	
0.316	-0.00236594	-0.00078575	9.27641E-05	0.000208952	0	5	0	
0.316167	0.000369841	0.00595247	8.96761E-05	0.000157343	0	5	0	
0.316333	-0.00213836	-0.014784	9.30957E-05	0.000163736	0	5	0	
0.3165	4.71757E-05	0.0175624	8.02151E-05	0.000236545	0	5	0	
0.316667	0.00533749	-0.00971432	8.61654E-05	0.000276238	0	5	0	
0.316833	-0.00293202	0.00382223	8.48192E-05	0.000235212	0	5	0	
0.317	0.00263914	-0.00483595	8.59404E-05	0.000163263	0	5	0	
0.317167	-0.00269189	0.0093871	8.19872E-05	0.000139663	0	5	0	
0.317333	0.00324041	-0.00870546	8.8422E-05	0.000154694	0	5	0	
0.3175	-0.00212174	0.00726276	8.28006E-05	0.000170501	0	5	0	
0.317667	0.00136938	-0.00562311	7.75665E-05	0.000154306	0	5	0	
0.317833	0.000170066	0.00244478	8.28563E-05	0.000127157	0	5	0	
0.318	0.000781851	-0.0034186	0.000106868	0.0001139	0	5	0	
0.318167	-0.00203206	0.00808234	8.36497E-05	0.000121782	0	5	0	
0.318333	-0.00273755	-0.0183436	7.53427E-05	0.000184538	0	5	0	
0.3185	-0.00370853	0.0184973	5.95839E-05	0.000258946	0	5	0	
0.318667	0.0112431	-0.00728648	0.000122309	0.000325988	0	5	0	
