0	0.00238134	3.9076E-05	2.38134E-07	3.9076E-09	0	0	0	
0.000166667	-0.00078917	-0.000188959	1.90527E-05	2.23035E-06	0	0	0	
0.000333333	-0.00255096	0.000119423	5.95046E-05	5.02519E-06	0	0	0	
0.0005	0.00274167	0.0011176	7.81735E-05	8.81226E-06	0	0	0	
0.000666667	-0.00159575	-0.00171905	7.40312E-05	1.57545E-05	0	0	0	
0.000833333	0.00186571	-0.0002179	4.68191E-05	2.95887E-05	0	0	0	
0.001	0.00303083	0.00234445	3.87316E-05	5.5667E-05	0	0	0	
0.00116667	-0.0063849	-0.00226007	5.84193E-05	7.73055E-05	0	0	0	
0.00133333	-0.00123015	0.00211379	0.000121135	8.46997E-05	0	0	0	
0.0015	0.00447756	-0.00134554	0.000151814	7.29373E-05	0	0	0	
0.00166667	0.00658869	-0.00108688	0.00016345	4.79431E-05	0	0	0	
0.00183333	-0.0120589	0.00315264	0.000145995	3.97964E-05	0	0	0	
0.002	0.00519915	-0.00383379	0.00017617	4.17923E-05	0	0	0	
0.00216667	-0.0168781	0.00320493	0.000203559	6.81949E-05	0	0	0	
0.00233333	0.0231109	-0.00254897	0.000306254	8.49309E-05	0	0	0	
0.0025	-0.00990558	0.00187042	0.000339593	8.93089E-05	0	0	0	
0.00266667	-0.00163526	-0.000670974	0.000349936	7.29205E-05	0	0	0	
0.00283333	-0.00105229	-0.000138662	0.000199288	4.52156E-05	0	0	0	
0.003	0.00644335	0.000147779	0.000141961	2.80219E-05	0	0	0	
0.00316667	-0.00522039	0.000180544	8.6219E-05	2.09309E-05	0	0	0	
0.00333333	0.00708934	-0.000863265	0.000149712	1.9319E-05	0	0	0	
0.0035	-0.00198234	0.00135477	0.000207533	2.03896E-05	0	0	0	
0.00366667	0.0128928	-0.000375764	0.000304588	1.6682E-05	0	0	0	
0.00383333	-0.00920493	2.51289E-05	0.000300953	1.67718E-05	0	0	0	
0.004	0.00537061	-2.92255E-05	0.000253798	9.89544E-06	0	0	0	
0.00416667	-0.00375776	0.000247981	0.00019276	8.68749E-06	0	0	0	
0.00433333	-0.0026639	7.90642E-05	0.000208312	6.83055E-06	0	0	0	
0.0045	0.0102975	0.000954833	0.000229173	1.08704E-05	0	0	0	
0.00466667	-0.00741408	-0.000569783	0.000215396	1.35257E-05	0	0	0	
0.00483333	0.00130237	0.000679134	0.000170428	1.51325E-05	0	0	0	
0.005	-0.00467043	-1.13169E-05	0.000108465	1.37277E-05	0	0	0	
0.00516667	-0.000111023	-0.00108185	9.41989E-05	1.24338E-05	0	0	0	
0.00533333	0.00905051	0.0004786	9.93148E-05	1.63398E-05	0	0	0	
0.0055	-0.00415279	0.000480189	0.000142653	1.75475E-05	0	0	0	
0.00566667	-0.00434329	-0.00044553	0.000195601	1.55125E-05	0	0	0	
0.00583333	-0.000304021	0.00042007	0.000171762	1.22319E-05	0	0	0	
0.006	0.0146025	-8.36505E-06	0.000152786	9.58434E-06	0	0	0	
0.00616667	-0.00790672	-0.000238313	0.000153619	9.36633E-06	0	0	0	
0.00633333	0.00103056	-3.32701E-05	0.000207886	1.05737E-05	0	0	0	
0.0065	3.60783E-05	-0.00055176	0.000182489	9.59177E-06	0	0	0	
0.00666667	0.00689061	-0.000421774	0.00012046	9.70308E-06	0	0	0	
0.00683333	-0.00412506	0.00100824	7.85775E-05	1.06612E-05	0	0	0	
0.007	0.00344409	0.000291618	9.03348E-05	1.28577E-05	0	0	0	
0.00716667	-0.00946004	0.000274818	0.000138961	1.3378E-05	0	0	0	
0.00733333	0.00694648	-0.000927797	0.000185953	1.37601E-05	0	0	0	
0.0075	-0.00887018	0.000398598	0.000210219	1.58929E-05	0	0	0	
0.00766667	0.00159119	-0.00068476	0.000176461	1.57194E-05	0	0	0	
0.00783333	0.00132769	0.000178681	0.000118788	1.28423E-05	0	0	0	
0.008	-0.00293448	-4.93079E-05	7.9896E-05	8.09159E-06	0	0	0	
0.00816667	-0.00147563	0.000149671	5.26897E-05	6.36389E-06	0	0	0	
0.00833333	0.0042393	0.000210783	5.37796E-05	5.30839E-06	0	0	0	
0.0085	-0.0035925	7.96774E-05	7.03852E-05	9.82999E-06	0	0	0	
0.00866667	0.00469964	-0.000472766	9.26409E-05	1.59788E-05	0	0	0	
0.00883333	-0.00705105	0.000580874	0.000115697	1.70498E-05	0	0	0	
0.009	0.00686575	-0.00124689	0.000144527	1.85564E-05	0	0	0	
0.00916667	-0.00521434	0.000713205	0.000159068	1.86834E-05	0	0	0	
0.00933333	0.00717659	-0.000764311	0.000162671	2.0392E-05	0	0	0	
0.0095	-0.00676121	0.00057029	0.000148684	1.89002E-05	0	0	0	
0.00966667	0.00579434	-8.58887E-05	0.000137465	1.35791E-05	0	0	0	
0.00983333	-0.000675893	-1.94074E-06	0.000112639	9.46544E-06	0	0	0	
0.01	0.00447056	6.95393E-05	9.91834E-05	4.5919E-06	0	0	0	
0.0101667	-0.00887671	-3.16134E-05	0.000126563	4.93942E-06	0	0	0	
0.0103333	0.00574737	-0.000709731	0.000156031	6.30355E-06	0	0	0	
0.0105	-0.00455668	0.00099617	0.000161434	1.2004E-05	0	0	0	
0.0106667	0.00475288	-0.000224273	0.000184902	1.34567E-05	0	0	0	
0.0108333	-0.000572316	0.000459528	0.000201162	1.30187E-05	0	0	0	
0.011	0.0041015	-0.000132252	0.000194442	8.75827E-06	0	0	0	
0.0111667	0.00123662	8.26328E-05	0.00012148	6.81557E-06	0	0	0	
0.0113333	0.00275037	-0.000542911	9.07856E-05	8.39304E-06	0	0	0	
0.0115	-0.0062372	0.000823711	0.000117549	1.20074E-05	0	0	0	
0.0116667	0.00752108	-0.000278066	0.000152951	1.34775E-05	0	0	0	
0.0118333	0.0113615	-5.28399E-05	0.000175101	1.07114E-05	0	0	0	
0.012	0.00234588	-7.70665E-05	0.000153855	5.00805E-06	0	0	0	
0.0121667	-0.00356031	0.00101272	0.000148	5.11068E-06	0	0	0	
0.0123333	0.00557171	-0.000337075	0.000118839	9.18771E-06	0	0	0	
0.0125	0.0016861	0.00100164	0.000138096	1.28636E-05	0	0	0	
0.0126667	0.00359736	-0.000687549	0.000104871	1.78908E-05	0	0	0	
0.0128333	-0.0115906	-0.000324151	0.000118185	1.99653E-05	0	0	0	
0.013	0.00980416	-0.00110677	0.000137662	2.11059E-05	0	0	0	
0.0131667	-0.000720114	0.00136543	0.000194339	2.10683E-05	0	0	0	
0.0133333	-0.000910555	-0.00130307	0.00016533	2.22371E-05	0	0	0	
0.0135	-0.00229939	0.00177099	9.97025E-05	3.61031E-05	0	0	0	
0.0136667	-0.00177734	-0.00061052	7.78221E-05	4.29548E-05	0	0	0	
0.0138333	0.00601967	-0.00133733	0.000117025	4.28397E-05	0	0	0	
0.014	0.00688998	0.000821077	0.000136117	3.03433E-05	0	0	0	
0.0141667	-0.0192125	0.000629487	0.000167013	3.06719E-05	0	0	0	
0.0143333	0.0107583	-0.00245675	0.000220647	5.12306E-05	0	0	0	
0.0145	0.00493663	0.0039191	0.000291886	7.41299E-05	0	0	0	
0.0146667	-0.0056294	-0.00247974	0.000262764	8.29765E-05	0	0	0	
0.0148333	0.0028656	0.000761683	0.000198373	6.27898E-05	0	0	0	
0.015	-0.00172409	-0.00012552	0.000145722	4.42295E-05	0	0	0	
0.0151667	-0.00531902	-0.000391823	0.000120275	3.72402E-05	0	0	0	
0.0153333	0.010757	0.00109586	0.000154991	4.04118E-05	0	0	0	
0.0155	-0.00325681	-0.0014652	0.000159396	3.81366E-05	0	0	0	
0.0156667	-0.0050743	0.00130704	0.000152998	3.81293E-05	0	0	0	
0.0158333	0.00457133	-0.000195995	0.000100021	4.19993E-05	0	0	0	
0.016	-0.00030793	-0.000678382	8.19102E-05	4.16227E-05	0	0	0	
0.0161667	-0.00270662	0.00206058	0.000105779	3.12016E-05	0	0	0	
0.0163333	0.00532688	-0.00236122	0.000121405	3.21108E-05	0	0	0	
0.0165	-0.00474795	0.00181241	0.000113694	3.77232E-05	0	0	0	
0.0166667	-0.000626315	-0.00105458	0.00011807	4.22966E-05	0	0	0	
0.0168333	0.00708011	-0.000667344	0.000125954	2.97928E-05	0	0	0	
0.017	-0.00555442	0.000402264	0.000133718	2.07603E-05	0	0	0	
0.0171667	-0.00308529	-0.000126713	0.000140525	1.66801E-05	0	0	0	
0.0173333	0.00898965	5.85523E-05	0.000133862	1.88261E-05	0	0	0	
0.0175	-0.00474124	-1.93504E-05	0.00014392	1.52565E-05	0	0	0	
0.0176667	0.00401159	0.000123197	0.000121176	7.48083E-06	0	0	0	
0.0178333	-0.00603406	-0.000169072	0.000125976	3.39583E-06	0	0	0	
0.018	0.00655346	-0.000742416	0.000125688	6.55908E-06	0	0	0	
0.0181667	-0.00167024	0.000539988	0.000118742	1.2685E-05	0	0	0	
0.0183333	0.00147209	0.000173644	7.47141E-05	1.24753E-05	0	0	0	
0.0185	0.00154815	-3.07719E-05	4.59119E-05	9.20386E-06	0	0	0	
0.0186667	-0.00317954	0.000636956	3.41027E-05	6.07037E-06	0	0	0	
0.0188333	-0.00139167	-0.000609163	7.95985E-05	1.00951E-05	0	0	0	
0.019	0.00484598	-0.000445556	0.000115165	1.17085E-05	0	0	0	
0.0191667	-0.00364428	0.000756845	0.000126618	1.33895E-05	0	0	0	
0.0193333	0.00560088	-0.00101042	9.6935E-05	1.26617E-05	0	0	0	
0.0195	-0.00676784	-2.91275E-05	0.00010171	1.90589E-05	0	0	0	
0.0196667	0.0101604	0.00153085	0.000168538	1.99823E-05	0	0	0	
0.0198333	-0.00725339	-0.000703136	0.000253056	2.26055E-05	0	0	0	
0.02	0.0121767	-0.000139228	0.000294588	3.16562E-05	0	0	0	
0.0201667	-0.0178794	0.00271159	0.000285451	6.14963E-05	0	0	0	
0.0203333	0.0411024	-0.0099433	0.000417446	0.000107294	0	0	0	
0.0205	-0.0490285	0.0171126	0.000825761	0.000179736	0	0	0	
0.0206667	0.0364577	-0.015315	0.00130907	0.000258038	0	0	0	
0.0208333	-0.0321166	0.00636063	0.00146783	0.00028302	0	0	0	
0.021	0.0227497	-0.000227795	0.0011485	0.000225626	0	0	0	
0.0211667	-0.0137613	-0.00455928	0.000733222	0.000141109	0	0	0	
0.0213333	0.0288219	0.00411938	0.000516889	0.000102673	0	0	0	
0.0215	-0.0742681	0.00198808	0.000721311	0.0001189	0	0	0	
0.0216667	0.0822265	-0.00493998	0.00106353	0.000166857	0	0	0	
0.0218333	-0.042831	0.000699111	0.00129917	0.000208415	0	0	0	
0.022	0.0111039	0.00326725	0.00114563	0.000213885	0	0	0	
0.0221667	0.000142697	-0.0060124	0.00101128	0.000183111	0	0	0	
0.0223333	0.0132543	0.00674902	0.000989047	0.0001568	0	0	0	
0.0225	-0.0224595	-0.00170954	0.000984897	0.000129856	0	0	0	
0.0226667	0.00684501	-0.00190395	0.000684143	9.79542E-05	0	0	0	
0.0228333	0.014766	0.00466549	0.000488823	6.32871E-05	0	0	0	
0.023	-0.0370903	-0.0039207	0.000488278	6.35415E-05	0	0	0	
0.0231667	0.0475043	0.000105926	0.000682475	7.3583E-05	0	0	0	
0.0233333	-0.0284405	0.00500044	0.000741953	8.02548E-05	0	0	0	
0.0235	-0.0130862	-0.00534468	0.000822046	8.89536E-05	0	0	0	
0.0236667	0.0313831	0.00517345	0.000838886	9.64642E-05	0	0	0	
0.0238333	-0.0235356	-0.00144384	0.000731197	9.09927E-05	0	0	0	
0.024	0.00758237	-0.00190531	0.000544957	7.57678E-05	0	0	0	
0.0241667	0.00574103	0.00444882	0.000378832	6.17722E-05	0	0	0	
0.0243333	-0.0132696	-0.00287536	0.000286087	6.55026E-05	0	0	0	
0.0245	0.00614548	0.000595151	0.000264484	5.59187E-05	0	0	0	
0.0246667	0.00819298	0.000294507	0.000363967	4.06797E-05	0	0	0	
0.0248333	-0.0204844	-0.000597467	0.000458129	2.38481E-05	0	0	0	
0.025	0.0168466	-0.000283053	0.000458492	2.24203E-05	0	0	0	
0.0251667	-0.00885258	0.00153125	0.000360725	3.11155E-05	0	0	0	
0.0253333	-0.00147817	-0.00263028	0.000324692	3.6015E-05	0	0	0	
0.0255	0.00441227	0.00203858	0.000324072	4.01152E-05	0	0	0	
0.0256667	-0.0105106	-0.000527676	0.000285401	4.05918E-05	0	0	0	
0.0258333	0.00851068	-0.00102705	0.000229933	3.21362E-05	0	0	0	
0.026	0.000211458	0.000990118	0.000190223	2.42384E-05	0	0	0	
0.0261667	-0.0146645	-0.000227481	0.000235342	2.38059E-05	0	0	0	
0.0263333	0.0129716	-0.00147138	0.000253353	3.50576E-05	0	0	0	
0.0265	-0.00875625	0.00274496	0.000284329	4.34813E-05	0	0	0	
0.0266667	0.00557195	-0.00211565	0.00022901	4.70103E-05	0	0	0	
0.0268333	-0.00705928	0.000712926	0.000195544	3.95527E-05	0	0	0	
0.027	0.00309174	9.93304E-05	0.000141547	2.90012E-05	0	0	0	
0.0271667	-0.00173292	-0.000317713	0.000123005	1.65527E-05	0	0	0	
0.0273333	0.00562754	-0.000150824	9.7671E-05	8.63867E-06	0	0	0	
0.0275	-0.00453519	0.000483427	0.000117277	9.12718E-06	0	0	0	
0.0276667	0.00499651	-0.000915565	0.000134018	1.315E-05	0	0	0	
0.0278333	0.000233029	0.00119764	0.000167469	2.19017E-05	0	0	0	
0.028	0.00273481	-5.75387E-05	0.000122	2.66032E-05	0	0	0	
0.0281667	0.00826885	5.00657E-05	0.000108057	2.54953E-05	0	0	0	
0.0283333	0.00109429	-0.000457714	8.92428E-05	1.74882E-05	0	0	0	
0.0285	-0.00766298	0.000836749	0.000115096	1.18781E-05	0	0	0	
0.0286667	0.00698802	-0.0011608	0.00012169	1.33372E-05	0	0	0	
0.0288333	0.00726663	0.00107465	0.000117651	1.96475E-05	0	0	0	
0.029	-0.00121659	0.000369363	0.000122415	2.29881E-05	0	0	0	
0.0291667	-0.00705598	-0.000760649	0.000138565	2.4763E-05	0	0	0	
0.0293333	0.0103618	-0.000442305	0.000159658	2.1696E-05	0	0	0	
0.0295	-0.00835223	0.00115303	0.000182603	1.85284E-05	0	0	0	
0.0296667	0.00487784	-0.00126018	0.000162572	1.99312E-05	0	0	0	
0.0298333	-0.00617733	0.000682321	0.000144435	2.34089E-05	0	0	0	
0.03	-0.0038373	-5.55613E-05	0.000133768	2.2344E-05	0	0	0	
0.0301667	0.0137897	-0.000300355	0.000153503	1.32411E-05	0	0	0	
0.0303333	-0.0033285	0.00111921	0.000230579	1.37676E-05	0	0	0	
0.0305	-0.0398047	-0.00161826	0.000468606	2.58897E-05	0	0	0	
0.0306667	0.0897297	0.00187273	0.000857766	3.19145E-05	0	0	0	
0.0308333	-0.110863	-0.00145687	0.00135362	5.17615E-05	0	0	0	
0.031	0.0648981	-0.000321871	0.0017045	8.21908E-05	0	0	0	
0.0311667	0.00121524	0.00146597	0.00183398	0.000111927	0	0	0	
0.0313333	-0.0418415	-0.00245789	0.00155796	9.31803E-05	0	0	0	
0.0315	0.0307778	0.00419146	0.0011328	7.92136E-05	0	0	0	
0.0316667	0.0191721	-0.00327698	0.00108564	8.76545E-05	0	0	0	
0.0318333	-0.0753015	-0.000580095	0.00144055	0.000108279	0	0	0	
0.032	0.0928559	0.00476508	0.00185811	9.1038E-05	0	0	0	
0.0321667	-0.062	-0.00555161	0.00176117	8.67297E-05	0	0	0	
0.0323333	0.00544194	0.00254937	0.00144465	9.39546E-05	0	0	0	
0.0325	0.0312321	0.00174126	0.00111971	9.79905E-05	0	0	0	
0.0326667	-0.0301418	-0.00438732	0.000851912	7.72355E-05	0	0	0	
0.0328333	1.07441E-05	0.00431652	0.00067806	6.88774E-05	0	0	0	
0.033	0.0211425	-0.00246171	0.00048419	7.63205E-05	0	0	0	
0.0331667	-0.0142785	0.000422633	0.000451814	7.16063E-05	0	0	0	
0.0333333	-0.000105159	0.000704905	0.000434529	4.97232E-05	0	0	0	
0.0335	0.0107884	-0.00083937	0.000399349	3.08582E-05	0	0	0	
0.0336667	0.00229075	-8.91112E-06	0.000300354	2.32861E-05	0	0	0	
0.0338333	-0.0119006	0.000977081	0.000183427	2.53523E-05	0	0	0	
0.034	0.0184444	-0.00117763	0.000187272	2.86996E-05	0	0	0	
0.0341667	-0.00805362	8.44043E-05	0.000245362	2.6077E-05	0	0	0	
0.0343333	-0.00445782	0.000380722	0.000256041	2.15412E-05	0	0	0	
0.0345	0.0098231	-0.000226094	0.000215065	1.69981E-05	0	0	0	
0.0346667	0.00146622	-0.000408391	0.000204078	1.76502E-05	0	0	0	
0.0348333	-0.00725867	0.000689351	0.000180371	1.95517E-05	0	0	0	
0.035	0.00154851	-0.000521085	0.000148624	1.97346E-05	0	0	0	
0.0351667	-0.00042588	-0.00022746	7.89684E-05	1.56147E-05	0	0	0	
0.0353333	-0.000441646	0.000294814	3.83371E-05	1.4645E-05	0	0	0	
0.0355	0.00549015	0.000103013	4.51701E-05	1.67484E-05	0	0	0	
0.0356667	-0.00806259	8.73003E-05	7.26619E-05	1.91602E-05	0	0	0	
0.0358333	0.00143169	-0.000178588	0.000116356	1.52617E-05	0	0	0	
0.036	0.00761584	0.000350889	0.000168558	1.50102E-05	0	0	0	
0.0361667	-0.0101206	-0.000494435	0.000185631	2.07909E-05	0	0	0	
0.0363333	0.00616849	0.000334537	0.00018496	2.53088E-05	0	0	0	
0.0365	0.000464977	0.000131959	0.000164408	2.02524E-05	0	0	0	
0.0366667	-0.00364535	-0.000258422	0.000165513	1.71527E-05	0	0	0	
0.0368333	0.00572201	0.0004294	0.000175505	1.80963E-05	0	0	0	
0.037	-0.00746418	-0.000489497	0.000169703	2.06348E-05	0	0	0	
0.0371667	0.010179	-0.000398451	0.000166264	1.76918E-05	0	0	0	
0.0373333	-0.00464267	0.000756414	0.000180583	1.7332E-05	0	0	0	
0.0375	-0.00179455	-0.00025992	0.000207444	1.6671E-05	0	0	0	
0.0376667	0.00807709	-0.000224556	0.000175553	1.66128E-05	0	0	0	
0.0378333	-0.00276802	0.000327931	0.000173438	1.51636E-05	0	0	0	
0.038	-0.00441321	-0.000486018	0.000200156	1.47609E-05	0	0	0	
0.0381667	0.00803821	0.000308279	0.000204828	1.28791E-05	0	0	0	
0.0383333	-0.00326196	-0.000133874	0.000200234	9.5465E-06	0	0	0	
0.0385	0.00285132	0.000141412	0.000165183	7.29297E-06	0	0	0	
0.0386667	0.000246147	-0.000396629	0.000196778	7.87086E-06	0	0	0	
0.0388333	-0.00855116	0.000555366	0.000192085	8.54847E-06	0	0	0	
0.039	0.00965973	-0.000318099	0.000183258	9.80625E-06	0	0	0	
0.0391667	0.00190875	-0.000140449	0.000166726	8.68105E-06	0	0	0	
0.0393333	-0.00126088	-8.59074E-05	0.000130582	8.38289E-06	0	0	0	
0.0395	-0.00468222	0.000587753	0.000136196	9.2936E-06	0	0	0	
0.0396667	0.00137475	-0.000621338	0.000111726	1.32268E-05	0	0	0	
0.0398333	0.0057157	0.00037415	0.000139643	1.49014E-05	0	0	0	
0.04	0.00158188	-0.000211859	9.18024E-05	1.44327E-05	0	0	0	
0.0401667	-0.00435758	3.98252E-05	9.99321E-05	1.28942E-05	0	0	0	
0.0403333	-0.00100945	-2.31174E-05	6.00035E-05	1.15524E-05	0	0	0	
0.0405	0.00145097	0.000108407	6.904E-05	9.99336E-06	0	0	0	
0.0406667	0.0083658	0.000111526	0.000112889	8.72562E-06	0	0	0	
0.0408333	-0.00979857	0.000118661	0.00014696	7.28514E-06	0	0	0	
0.041	0.00121916	-0.000137071	0.000203193	6.56169E-06	0	0	0	
0.0411667	-0.00209151	-0.000452175	0.000151368	7.54348E-06	0	0	0	
0.0413333	0.0143183	0.00105431	0.000163842	1.08171E-05	0	0	0	
0.0415	-0.018893	-0.000145573	0.00019871	1.63423E-05	0	0	0	
0.0416667	0.0170109	-0.000546954	0.000374166	2.37552E-05	0	0	0	
0.0418333	-0.0140987	-0.000528993	0.000455375	2.57134E-05	0	0	0	
0.042	0.0126308	0.00346514	0.000574278	3.34315E-05	0	0	0	
0.0421667	-0.00246988	-0.00461498	0.000609641	5.57248E-05	0	0	0	
0.0423333	-0.00419068	0.003662	0.000659991	9.32975E-05	0	0	0	
0.0425	-0.00977831	0.000158793	0.00063003	0.000114859	0	0	0	
0.0426667	0.0236267	-0.00301569	0.000517632	0.000107387	0	0	0	
0.0428333	0.00516768	0.00232218	0.00040751	8.45686E-05	0	0	0	
0.043	-0.0416721	-0.000142563	0.000363298	6.33208E-05	0	0	0	
0.0431667	0.0319171	-0.000642036	0.000550334	4.48417E-05	0	0	0	
0.0433333	-0.0199514	0.000460106	0.000694972	3.88569E-05	0	0	0	
0.0435	0.0162395	0.00193047	0.000676403	4.95289E-05	0	0	0	
0.0436667	-0.00734194	-0.00395624	0.000452581	7.06712E-05	0	0	0	
0.0438333	-0.00873924	0.0039858	0.000269573	8.48598E-05	0	0	0	
0.044	0.00136626	-0.00154749	0.000268097	8.19873E-05	0	0	0	
0.0441667	0.00782174	-0.00118716	0.000354891	6.85685E-05	0	0	0	
0.0443333	-0.00293153	0.00261497	0.000348744	5.80864E-05	0	0	0	
0.0445	-0.00450023	-0.00254156	0.000236775	5.4031E-05	0	0	0	
0.0446667	0.00353852	0.000725808	0.000108146	5.26376E-05	0	0	0	
0.0448333	-0.00248	0.000914011	0.000118999	4.03217E-05	0	0	0	
0.045	0.0116221	-0.00168164	0.000188998	3.16846E-05	0	0	0	
0.0451667	-0.0145969	0.00171048	0.00023168	3.0216E-05	0	0	0	
0.0453333	0.00704498	-0.00106872	0.000251123	3.47825E-05	0	0	0	
0.0455	-0.0018234	0.00071413	0.00023393	3.25435E-05	0	0	0	
0.0456667	-0.00499582	-0.000362229	0.000232312	2.34389E-05	0	0	0	
0.0458333	0.0109906	-0.000304674	0.000236191	1.35684E-05	0	0	0	
0.046	-0.0140616	0.000660358	0.000232997	8.44454E-06	0	0	0	
0.0461667	0.00670851	-0.000128334	0.000226727	1.12075E-05	0	0	0	
0.0463333	0.00515054	-0.000420308	0.000259632	1.80711E-05	0	0	0	
0.0465	-0.0151835	0.00074548	0.000257594	1.91448E-05	0	0	0	
0.0466667	0.0100849	0.000283646	0.000264959	1.73769E-05	0	0	0	
0.0468333	0.00214542	-0.00119769	0.000269776	1.41308E-05	0	0	0	
0.047	-0.00778121	0.00129035	0.00025668	1.8946E-05	0	0	0	
0.0471667	0.00878633	-0.000334114	0.000219367	2.43607E-05	0	0	0	
0.0473333	-0.00672218	-0.000562184	0.000168502	2.41292E-05	0	0	0	
0.0475	-0.00617558	0.000400578	0.000210203	1.78154E-05	0	0	0	
0.0476667	0.0190044	-0.000530152	0.000251513	1.10901E-05	0	0	0	
0.0478333	-0.0113429	0.000508138	0.000299948	9.36986E-06	0	0	0	
0.048	0.00138093	0.000340449	0.000283538	1.23049E-05	0	0	0	
0.0481667	-0.00411936	-0.000789756	0.000221915	1.21583E-05	0	0	0	
0.0483333	0.00622443	-0.000448736	0.000152321	1.47007E-05	0	0	0	
0.0485	-0.000981833	0.001309	8.66607E-05	1.73196E-05	0	0	0	
0.0486667	0.00252649	-0.000663773	8.51704E-05	2.15715E-05	0	0	0	
0.0488333	-0.00778056	-0.000191164	8.02271E-05	1.82312E-05	0	0	0	
0.049	0.00246275	0.000473519	9.45078E-05	1.36533E-05	0	0	0	
0.0491667	0.00121805	-0.000104167	8.6386E-05	8.64507E-06	0	0	0	
0.0493333	0.00254347	-0.000580926	0.000124226	7.44421E-06	0	0	0	
0.0495	-0.00491951	0.000671586	0.000159096	8.65268E-06	0	0	0	
0.0496667	0.00381953	-0.000482224	0.000199285	1.09289E-05	0	0	0	
0.0498333	-0.00401017	0.000308331	0.0001675	1.45386E-05	0	0	0	
0.05	-0.00113927	0.000156451	0.000111075	1.53798E-05	0	0	0	
0.0501667	0.00529084	-0.000439652	7.9896E-05	1.86703E-05	0	0	0	
0.0503333	0.00135395	0.000181891	0.000101663	2.23821E-05	0	0	0	
0.0505	-0.0067521	7.07702E-05	0.000123992	2.18045E-05	0	0	0	
0.0506667	-0.00225582	-9.50357E-05	0.000162926	1.49834E-05	0	0	0	
0.0508333	0.0117647	0.000272943	0.000166239	7.52217E-06	0	0	0	
0.051	-0.00475822	2.63056E-05	0.000181619	4.91109E-06	0	0	0	
0.0511667	-0.000718005	-0.000194158	0.000143277	8.42466E-06	0	0	0	
0.0513333	-0.00516074	-8.44078E-05	0.000138699	9.63903E-06	0	0	0	
0.0515	0.00730888	0.000160422	0.000134667	8.75117E-06	0	0	0	
0.0516667	0.00191093	1.51847E-05	0.000148857	6.50463E-06	0	0	0	
0.0518333	-0.00480182	0.000280338	0.00011452	6.04394E-06	0	0	0	
0.052	0.00168482	-0.000456508	8.93911E-05	6.40304E-06	0	0	0	
0.0521667	-0.00240411	0.000900677	6.64886E-05	8.97489E-06	0	0	0	
0.0523333	0.00541504	-0.0013702	6.25407E-05	1.54051E-05	0	0	0	
0.0525	-0.000403547	0.00111172	6.58472E-05	2.54271E-05	0	0	0	
0.0526667	0.00305485	-0.000560531	6.47475E-05	2.91104E-05	0	0	0	
0.0528333	-0.00347278	8.13831E-05	7.42508E-05	2.34417E-05	0	0	0	
0.053	-0.00271628	0.000358007	6.91079E-05	1.40824E-05	0	0	0	
0.0531667	0.00900816	-0.000221973	8.60036E-05	1.21571E-05	0	0	0	
0.0533333	-0.000148716	-0.00023092	0.000124063	1.47075E-05	0	0	0	
0.0535	-0.00337417	0.000380909	0.000126994	1.56423E-05	0	0	0	
0.0536667	-0.000344418	-0.000145573	0.000152951	1.21103E-05	0	0	0	
0.0538333	0.00621807	-0.000163017	0.000101069	1.05576E-05	0	0	0	
0.054	0.00339601	0.000207711	0.000132158	1.03221E-05	0	0	0	
0.0541667	-0.00304901	0.000203851	9.07581E-05	8.1948E-06	0	0	0	
0.0543333	-0.00801315	-0.000797372	0.000140035	7.84024E-06	0	0	0	
0.0545	0.00824816	0.000841577	0.000136202	1.10974E-05	0	0	0	
0.0546667	0.00591575	0.000124742	0.000155469	1.55481E-05	0	0	0	
0.0548333	0.000337714	-0.000296934	0.000115608	1.52898E-05	0	0	0	
0.055	-0.00329431	-3.77726E-05	9.50715E-05	1.05704E-05	0	0	0	
0.0551667	0.00386495	0.000500399	7.89776E-05	8.2415E-06	0	0	0	
0.0553333	0.00427655	-0.000411085	8.9638E-05	8.41687E-06	0	0	0	
0.0555	-0.00411794	1.60262E-05	7.83214E-05	8.09644E-06	0	0	0	
0.0556667	-0.000881524	0.000919233	9.82499E-05	8.09679E-06	0	0	0	
0.0558333	0.00243051	-0.00090795	7.01384E-05	1.19159E-05	0	0	0	
0.056	0.00264819	0.00015261	0.00010473	1.52132E-05	0	0	0	
0.0561667	-0.00246754	0.000313265	7.82574E-05	1.41719E-05	0	0	0	
0.0563333	-0.00295665	-0.000318928	0.000116155	1.10598E-05	0	0	0	
0.0565	0.00363166	0.000484925	7.70767E-05	1.20381E-05	0	0	0	
0.0566667	0.00837508	-0.000404279	0.000120492	1.48932E-05	0	0	0	
0.0568333	-0.00307699	0.000594019	0.000124637	1.35649E-05	0	0	0	
0.057	-0.00265161	-0.000918384	0.000138973	1.15745E-05	0	0	0	
0.0571667	0.00355185	0.00192154	9.89158E-05	1.62867E-05	0	0	0	
0.0573333	0.00507992	-0.00205252	8.42851E-05	2.66747E-05	0	0	0	
0.0575	-0.00410882	0.000761661	9.07737E-05	3.23541E-05	0	0	0	
0.0576667	0.00355441	0.000626537	0.000102861	2.54553E-05	0	0	0	
0.0578333	-0.00694024	-0.00115578	0.000143664	1.92233E-05	0	0	0	
0.058	0.012644	0.000569827	0.000191418	1.59247E-05	0	0	0	
0.0581667	-0.00332269	0.000574084	0.000217628	1.56082E-05	0	0	0	
0.0583333	0.00013905	-0.00106786	0.000152824	1.60687E-05	0	0	0	
0.0585	-0.00067395	0.0008345	0.000125414	2.15105E-05	0	0	0	
0.0586667	0.00690407	-0.000146107	0.000159878	2.79362E-05	0	0	0	
0.0588333	-0.00561832	-0.000378445	0.000202469	2.38509E-05	0	0	0	
0.059	0.00297851	1.80044E-05	0.000179368	1.52866E-05	0	0	0	
0.0591667	0.004457	0.000671959	0.000131511	9.73074E-06	0	0	0	
0.0593333	-0.00170957	-0.00100826	0.0001107	1.23333E-05	0	0	0	
0.0595	0.00582213	0.000589739	9.74663E-05	1.48628E-05	0	0	0	
0.0596667	-0.00607113	-0.000156912	9.69133E-05	1.50025E-05	0	0	0	
0.0598333	0.00262686	-0.000105829	9.87381E-05	1.13853E-05	0	0	0	
0.06	0.00343483	-0.000220913	0.000111934	7.42925E-06	0	0	0	
0.0601667	-0.00402819	0.000315132	0.000109057	7.01744E-06	0	0	0	
0.0603333	0.00663298	-0.000454376	0.00010007	8.52006E-06	0	0	0	
0.0605	-0.00830327	0.000921432	0.000118398	1.19352E-05	0	0	0	
0.0606667	0.00459586	-0.00140853	0.000166944	1.66586E-05	0	0	0	
0.0608333	0.00018739	0.00129354	0.000207221	2.12805E-05	0	0	0	
0.061	-0.00559309	-0.000963834	0.000185295	2.45226E-05	0	0	0	
0.0611667	-0.00246397	0.000909174	0.000147936	2.51435E-05	0	0	0	
0.0613333	-0.00697859	-0.000987983	0.000122669	2.36106E-05	0	0	0	
0.0615	-0.00551268	0.00061029	0.000129044	2.17272E-05	0	0	0	
0.0616667	0.0205859	-0.00044179	0.000174039	2.00883E-05	0	0	0	
0.0618333	-0.0129262	0.000500104	0.000239447	1.6435E-05	0	0	0	
0.062	-0.00674778	0.000292167	0.000306424	1.2241E-05	0	0	0	
0.0621667	-0.00519861	-0.000480889	0.000246546	9.19756E-06	0	0	0	
0.0623333	0.0105244	-0.000441408	0.000213258	1.03968E-05	0	0	0	
0.0625	-0.00618092	0.000966857	0.000168252	1.44003E-05	0	0	0	
0.0626667	0.000243604	-0.000676026	0.000168444	1.7531E-05	0	0	0	
0.0628333	-0.00816562	0.00022266	0.000142073	1.89404E-05	0	0	0	
0.063	0.0116405	0.000741029	0.000145281	1.74917E-05	0	0	0	
0.0631667	-0.00718842	0.000986192	0.000175335	1.7854E-05	0	0	0	
0.0633333	0.0013983	3.01633E-05	0.000158091	2.02003E-05	0	0	0	
0.0635	0.000359505	-0.000151889	0.000113403	2.3701E-05	0	0	0	
0.0636667	0.00282972	-0.0013799	8.54449E-05	2.34633E-05	0	0	0	
0.0638333	-0.00890429	0.000211464	0.000101734	2.25726E-05	0	0	0	
0.064	0.0092215	0.000955782	0.000138285	1.95148E-05	0	0	0	
0.0641667	-0.00660624	0.000661413	0.000158274	2.0302E-05	0	0	0	
0.0643333	0.00655289	0.000153298	0.00015726	2.08512E-05	0	0	0	
0.0645	-0.00556564	-0.0014542	0.00014698	2.78142E-05	0	0	0	
0.0646667	0.00020047	-0.000467363	0.000115043	2.53081E-05	0	0	0	
0.0648333	-0.000430173	0.000327229	8.01404E-05	2.36254E-05	0	0	0	
0.065	0.00729426	-0.000474438	8.04091E-05	1.40356E-05	0	0	0	
0.0651667	-0.0107193	0.000864973	0.000106737	1.41506E-05	0	0	0	
0.0653333	0.00905032	1.56703E-06	0.000170486	1.19994E-05	0	0	0	
0.0655	-0.0112689	-0.000890911	0.000246439	1.35771E-05	0	0	0	
0.0656667	0.00638595	0.00046048	0.000243321	1.39326E-05	0	0	0	
0.0658333	-0.00876508	-0.000480777	0.000229107	1.30731E-05	0	0	0	
0.066	0.00660797	-0.000842181	0.000154734	1.4849E-05	0	0	0	
0.0661667	-0.0167403	0.000906864	0.000201981	1.80442E-05	0	0	0	
0.0663333	0.0354309	-0.000218131	0.000312085	1.87473E-05	0	0	0	
0.0665	-0.0276275	0.00011476	0.00045268	1.44831E-05	0	0	0	
0.0666667	-0.00278477	-0.000460256	0.00048055	1.06862E-05	0	0	0	
0.0668333	0.00709253	0.000440044	0.000351121	1.39224E-05	0	0	0	
0.067	0.000254836	-0.000150235	0.000254773	1.52609E-05	0	0	0	
0.0671667	0.00149639	0.000327135	0.000194981	1.57389E-05	0	0	0	
0.0673333	0.00826828	-0.000120846	0.000181979	1.70173E-05	0	0	0	
0.0675	0.000530993	0.00029452	0.000196773	1.92852E-05	0	0	0	
0.0676667	0.0209015	-0.000400965	0.000214013	1.64299E-05	0	0	0	
0.0678333	-0.00749521	0.000630733	0.000287635	1.15864E-05	0	0	0	
0.068	-0.00633238	-0.000521517	0.000278733	1.17274E-05	0	0	0	
0.0681667	0.0103002	0.000297159	0.000242416	1.17277E-05	0	0	0	
0.0683333	0.00995673	-0.000669931	0.000196248	1.24339E-05	0	0	0	
0.0685	-0.0061239	-0.000175902	0.000178821	1.15134E-05	0	0	0	
0.0686667	-0.00709099	7.94309E-05	0.000255571	1.1792E-05	0	0	0	
0.0688333	0.00898503	-1.73012E-05	0.000242704	1.05161E-05	0	0	0	
0.069	0.000737049	-2.74605E-05	0.000244981	6.89191E-06	0	0	0	
0.0691667	-0.00487539	-0.000251257	0.000158912	5.16385E-06	0	0	0	
0.0693333	-0.00116764	0.000620342	0.000149599	5.47796E-06	0	0	0	
0.0695	0.000183686	-0.000358902	8.05964E-05	9.71703E-06	0	0	0	
0.0696667	0.00323479	-0.000451173	5.9711E-05	1.68441E-05	0	0	0	
0.0698333	0.00279106	0.00119027	0.00010088	2.25774E-05	0	0	0	
0.07	-0.010311	-0.00195489	0.000162923	2.58936E-05	0	0	0	
0.0701667	0.00309673	0.00168098	0.000185897	3.08652E-05	0	0	0	
0.0703333	0.0015816	-0.000314642	0.000183407	2.97417E-05	0	0	0	
0.0705	-0.00445578	-0.000666689	0.000140732	2.59219E-05	0	0	0	
0.0706667	-0.00128423	0.00125436	0.000124366	1.86071E-05	0	0	0	
0.0708333	-0.00172803	-0.000525995	7.7855E-05	1.75678E-05	0	0	0	
0.071	0.00479124	-0.000628439	6.41892E-05	1.96904E-05	0	0	0	
0.0711667	-0.001319	0.00185914	9.0534E-05	2.19214E-05	0	0	0	
0.0713333	-0.00281897	-0.00141559	7.66578E-05	2.92293E-05	0	0	0	
0.0715	-0.0047655	0.000278161	0.000115422	3.21949E-05	0	0	0	
0.0716667	0.0144909	0.000361941	0.000122092	2.82121E-05	0	0	0	
0.0718333	-0.00354107	-0.000161466	0.000202055	1.64123E-05	0	0	0	
0.072	-0.00332371	1.3385E-05	0.000181012	9.13095E-06	0	0	0	
0.0721667	-0.00320202	0.000193096	0.00014711	8.75626E-06	0	0	0	
0.0723333	0.00334284	-0.00112356	6.74897E-05	1.41116E-05	0	0	0	
0.0725	0.0008883	0.000118487	5.21023E-05	1.94346E-05	0	0	0	
0.0726667	0.00398554	-0.000186062	5.09862E-05	2.07612E-05	0	0	0	
0.0728333	-0.0131942	-0.000131503	0.000111864	1.61817E-05	0	0	0	
0.073	-8.83757E-05	0.000882764	0.000140905	1.34543E-05	0	0	0	
0.0731667	-0.00136846	-0.000565723	0.000136468	1.53027E-05	0	0	0	
0.0733333	-0.00112698	4.00699E-05	8.18282E-05	1.42947E-05	0	0	0	
0.0735	-0.00125723	3.41364E-05	4.92631E-05	1.37207E-05	0	0	0	
0.0736667	0.000251108	-0.000423061	4.81545E-05	1.21079E-05	0	0	0	
0.0738333	-0.00290228	0.000224326	4.39859E-05	1.32333E-05	0	0	0	
0.074	0.00270944	8.85351E-05	4.36065E-05	1.06187E-05	0	0	0	
0.0741667	0.000269394	0.000656886	4.88671E-05	1.0687E-05	0	0	0	
0.0743333	7.75579E-05	-0.000777464	4.24519E-05	1.43787E-05	0	0	0	
0.0745	-0.00141098	-5.76452E-05	3.46546E-05	1.84739E-05	0	0	0	
0.0746667	-0.000115183	-0.000402963	4.43344E-05	1.67747E-05	0	0	0	
0.0748333	0.00228134	0.000433984	6.96759E-05	1.39729E-05	0	0	0	
0.075	0.00106298	0.000134316	7.19746E-05	9.08358E-06	0	0	0	
0.0751667	-0.00442872	0.000199707	6.66758E-05	8.49672E-06	0	0	0	
0.0753333	0.00517817	-0.000675507	6.36307E-05	8.94625E-06	0	0	0	
0.0755	-0.00325671	0.000315694	8.0235E-05	1.36483E-05	0	0	0	
0.0756667	0.00415416	-0.00055071	7.95162E-05	1.34442E-05	0	0	0	
0.0758333	-0.00342831	0.00113584	7.4016E-05	1.56222E-05	0	0	0	
0.076	0.000805423	-6.08556E-05	7.571E-05	1.59999E-05	0	0	0	
0.0761667	0.00102308	0.000284893	6.26398E-05	1.39585E-05	0	0	0	
0.0763333	9.68463E-05	-0.000350687	7.1539E-05	9.98878E-06	0	0	0	
0.0765	0.00224061	7.72684E-06	6.43963E-05	6.64546E-06	0	0	0	
0.0766667	-0.00380403	-0.000715265	7.74272E-05	7.72876E-06	0	0	0	
0.0768333	0.000166521	0.000552539	5.90675E-05	9.24912E-06	0	0	0	
0.077	0.00275945	-0.000343381	5.4441E-05	9.90904E-06	0	0	0	
0.0771667	0.000923319	0.000103677	6.58022E-05	1.0886E-05	0	0	0	
0.0773333	-0.00322553	0.000335547	6.20186E-05	8.64027E-06	0	0	0	
0.0775	0.00162989	0.000133215	6.68499E-05	6.51179E-06	0	0	0	
0.0776667	-0.000853451	0.000147898	5.64409E-05	5.32271E-06	0	0	0	
0.0778333	0.00230681	0.000665797	8.50324E-05	5.16251E-06	0	0	0	
0.078	0.00102267	-0.0010266	7.88431E-05	1.11515E-05	0	0	0	
0.0781667	-0.00348097	0.000542856	7.26791E-05	1.52812E-05	0	0	0	
0.0783333	-0.0022126	-0.000318834	4.5848E-05	1.53714E-05	0	0	0	
0.0785	0.00540703	5.4787E-05	6.67431E-05	1.10969E-05	0	0	0	
0.0786667	0.000112332	0.00135564	0.000113419	1.26089E-05	0	0	0	
0.0788333	-0.000963373	-0.00206563	0.000131755	3.03309E-05	0	0	0	
0.079	-0.00280075	0.000943472	0.00010774	4.36575E-05	0	0	0	
0.0791667	-0.00093527	-0.000742893	6.98787E-05	4.73478E-05	0	0	0	
0.0793333	0.00942329	-0.0010523	8.68122E-05	3.36342E-05	0	0	0	
0.0795	-0.00308014	0.000991941	0.000111072	2.85257E-05	0	0	0	
0.0796667	-0.00398744	-0.000404134	0.000109076	2.69682E-05	0	0	0	
0.0798333	0.000821441	-0.00117762	0.000107156	2.6194E-05	0	0	0	
0.08	0.00478895	0.00214221	0.000107784	2.69026E-05	0	0	0	
0.0801667	0.00127682	-0.0013458	0.00011529	2.8609E-05	0	0	0	
0.0803333	-0.0036511	4.54248E-05	7.92994E-05	2.85746E-05	0	0	0	
0.0805	-0.00271526	0.00113265	0.000116474	2.07004E-05	0	0	0	
0.0806667	0.0060372	-0.00177883	0.000154933	1.91445E-05	0	0	0	
0.0808333	-0.00118613	0.00170646	0.000174141	2.62943E-05	0	0	0	
0.081	-0.00132246	-0.000665295	0.000112072	3.20822E-05	0	0	0	
0.0811667	-0.000477338	-0.000856916	4.86081E-05	2.91553E-05	0	0	0	
0.0813333	-0.00252529	0.00142484	4.61316E-05	2.71094E-05	0	0	0	
0.0815	0.00439179	-0.00079243	6.81653E-05	2.61812E-05	0	0	0	
0.0816667	-0.00199081	-0.000464805	8.54596E-05	2.20042E-05	0	0	0	
0.0818333	-0.00228266	0.00023359	0.000100541	1.58932E-05	0	0	0	
0.082	0.00330283	-0.000700635	9.4038E-05	8.80437E-06	0	0	0	
0.0821667	-0.0039711	0.000714094	8.67515E-05	1.17232E-05	0	0	0	
0.0823333	0.00775743	-8.6959E-05	0.000104135	9.32857E-06	0	0	0	
0.0825	-0.00558628	-0.000483462	0.000149356	1.15941E-05	0	0	0	
0.0826667	-0.000144196	-0.000789004	0.000179941	8.9011E-06	0	0	0	
0.0828333	0.0123149	0.00205936	0.000183357	1.95586E-05	0	0	0	
0.083	-0.00691969	-0.00190004	0.000174191	2.87864E-05	0	0	0	
0.0831667	0.00363349	0.00161101	0.000196283	3.98262E-05	0	0	0	
0.0833333	0.0144019	-0.00094507	0.000195275	4.3483E-05	0	0	0	
0.0835	-0.00489642	0.000460747	0.000205574	4.14041E-05	0	0	0	
0.0836667	-0.00217442	4.82964E-07	0.000211326	3.00928E-05	0	0	0	
0.0838333	0.00407487	0.000779571	0.000180361	1.77089E-05	0	0	0	
0.084	0.00838367	-0.000802821	0.000189148	1.53459E-05	0	0	0	
0.0841667	0.0132278	0.000405231	0.000245807	1.9298E-05	0	0	0	
0.0843333	-0.00859356	0.000549768	0.000283735	2.33871E-05	0	0	0	
0.0845	-0.00490154	-0.000597885	0.000292733	2.39108E-05	0	0	0	
0.0846667	0.00702139	0.000813501	0.000189268	2.41692E-05	0	0	0	
0.0848333	0.00282852	4.3662E-05	0.000184322	2.02542E-05	0	0	0	
0.085	0.000687737	-0.00166746	0.000106784	1.73171E-05	0	0	0	
0.0851667	-0.0074111	0.0014523	0.000139446	2.09586E-05	0	0	0	
0.0853333	0.00470417	-0.00112189	0.000110602	2.48491E-05	0	0	0	
0.0855	0.00463864	-0.00011352	0.000132315	2.29086E-05	0	0	0	
0.0856667	-0.00522647	0.00072361	0.000103439	1.74814E-05	0	0	0	
0.0858333	0.000399474	-0.000563347	0.00010516	1.31042E-05	0	0	0	
0.086	-0.00264645	5.05705E-05	9.03844E-05	1.26453E-05	0	0	0	
0.0861667	0.00357281	0.000322511	9.71138E-05	1.63096E-05	0	0	0	
0.0863333	0.00226958	-0.000311357	0.000131384	2.26527E-05	0	0	0	
0.0865	-0.00390597	0.000786146	0.000147145	2.32116E-05	0	0	0	
0.0866667	-0.00377677	-0.000524236	0.000137323	1.89051E-05	0	0	0	
0.0868333	0.00683884	2.04205E-05	9.23729E-05	1.41836E-05	0	0	0	
0.087	-0.00273316	0.000484477	0.000108275	1.29307E-05	0	0	0	
0.0871667	-0.000884697	-0.000629307	0.000120597	1.15162E-05	0	0	0	
0.0873333	0.000662397	0.000636139	0.000124171	1.36609E-05	0	0	0	
0.0875	-0.00292132	0.000158918	0.000107836	2.26014E-05	0	0	0	
0.0876667	0.0136945	-0.00129157	0.000120046	2.99997E-05	0	0	0	
0.0878333	-0.0125734	0.000847025	0.000189761	2.84509E-05	0	0	0	
0.088	0.00956931	-0.000529792	0.000209884	2.19967E-05	0	0	0	
0.0881667	0.00422268	0.000240625	0.000269641	1.43385E-05	0	0	0	
0.0883333	-0.0173982	-0.000158777	0.0002814	1.1919E-05	0	0	0	
0.0885	0.00997052	-0.00120162	0.000301068	1.22881E-05	0	0	0	
0.0886667	0.00676766	0.00122419	0.000282605	1.72906E-05	0	0	0	
0.0888333	-0.00510034	2.44236E-06	0.000254571	2.27152E-05	0	0	0	
0.089	0.00426234	-0.000753533	0.000269754	2.34432E-05	0	0	0	
0.0891667	-0.0114523	3.74046E-05	0.000262147	2.05315E-05	0	0	0	
0.0893333	0.00485936	-0.000393052	0.000238448	1.69898E-05	0	0	0	
0.0895	0.00821095	0.000693439	0.000274391	1.48523E-05	0	0	0	
0.0896667	0.000661987	0.000236996	0.000241471	1.45746E-05	0	0	0	
0.0898333	-0.00240296	-0.000879083	0.000216532	1.44179E-05	0	0	0	
0.09	0.00469953	0.000678582	0.000136692	1.58966E-05	0	0	0	
0.0901667	-0.00150994	0.000146089	0.000150628	1.8621E-05	0	0	0	
0.0903333	0.0140362	-0.000870318	0.000149379	1.94939E-05	0	0	0	
0.0905	-0.00386227	0.00134608	0.000165619	2.21239E-05	0	0	0	
0.0906667	0.010976	-0.000727056	0.000149982	2.48948E-05	0	0	0	
0.0908333	-0.00116287	-0.00067257	0.000199478	2.49485E-05	0	0	0	
0.091	-0.00592788	0.00188696	0.000175486	2.6644E-05	0	0	0	
0.0911667	0.0102968	-0.001122	0.000193331	2.69184E-05	0	0	0	
0.0913333	0.00384028	-0.000147271	0.000228525	2.48341E-05	0	0	0	
0.0915	-0.0144872	0.00126087	0.000329734	1.95292E-05	0	0	0	
0.0916667	0.0144033	-0.000709766	0.000371522	1.95102E-05	0	0	0	
0.0918333	-0.00631909	-0.000515922	0.000326473	2.3615E-05	0	0	0	
0.092	-0.00193303	0.00125351	0.000223432	2.82468E-05	0	0	0	
0.0921667	0.00553505	-0.000927881	0.000143574	2.72946E-05	0	0	0	
0.0923333	-0.00307528	6.84654E-05	0.000110282	2.35304E-05	0	0	0	
0.0925	-0.00278394	0.000814833	0.00014317	1.59E-05	0	0	0	
0.0926667	0.00723005	-0.00143017	0.000187744	1.48453E-05	0	0	0	
0.0928333	-0.0100292	0.00115789	0.000239169	1.88735E-05	0	0	0	
0.093	0.0124045	-0.000853121	0.000266962	2.3342E-05	0	0	0	
0.0931667	-0.0101402	0.000196384	0.000274831	1.91956E-05	0	0	0	
0.0933333	0.0101198	0.000230862	0.000243208	1.46198E-05	0	0	0	
0.0935	-0.00986325	-0.000633591	0.000225951	1.52795E-05	0	0	0	
0.0936667	0.0098278	0.000140914	0.000202867	1.8357E-05	0	0	0	
0.0938333	-0.00860909	3.19112E-05	0.000201862	1.98673E-05	0	0	0	
0.094	0.00286691	-0.000215057	0.000159521	1.52207E-05	0	0	0	
0.0941667	0.00301585	0.000493633	0.000112212	1.04653E-05	0	0	0	
0.0943333	0.000216665	-0.000820908	0.000100169	9.37626E-06	0	0	0	
0.0945	-0.00561469	0.000263212	0.000164208	1.23823E-05	0	0	0	
0.0946667	0.00677275	-7.2683E-06	0.000244586	1.3527E-05	0	0	0	
0.0948333	-0.00954287	-0.000268759	0.000258288	1.3258E-05	0	0	0	
0.095	0.00920633	0.000402318	0.000212739	1.10073E-05	0	0	0	
0.0951667	-0.00792242	-0.000155701	0.000175783	9.55861E-06	0	0	0	
0.0953333	0.00282452	-0.0001854	0.000148653	6.60065E-06	0	0	0	
0.0955	0.00164494	0.000644919	0.000100907	6.52914E-06	0	0	0	
0.0956667	0.000475863	-0.000178014	5.85044E-05	9.2036E-06	0	0	0	
0.0958333	-0.00700706	-9.68263E-05	5.45219E-05	1.33408E-05	0	0	0	
0.096	-0.00135953	-4.86415E-05	8.77425E-05	1.41201E-05	0	0	0	
0.0961667	-0.000429786	0.000456034	8.6704E-05	1.26631E-05	0	0	0	
0.0963333	-0.00188246	-0.000470045	8.75806E-05	1.17397E-05	0	0	0	
0.0965	-0.000384709	0.000362261	9.31496E-05	8.79516E-06	0	0	0	
0.0966667	0.000661198	-0.000296278	0.000122359	9.46128E-06	0	0	0	
0.0968333	-0.00327705	-7.47865E-08	0.00012374	7.78891E-06	0	0	0	
0.097	-0.00239083	0.000222934	0.000116502	7.41767E-06	0	0	0	
0.0971667	0.00286165	0.0002137	0.000111619	8.27793E-06	0	0	0	
0.0973333	-0.00354735	-0.000477001	0.000106869	1.5078E-05	0	0	0	
0.0975	0.00351707	0.000337487	0.0001086	2.37949E-05	0	0	0	
0.0976667	-0.00477831	-0.00038601	0.000119235	2.47493E-05	0	0	0	
0.0978333	0.00304414	-6.27253E-05	0.000150286	1.93315E-05	0	0	0	
0.098	0.00143774	2.74738E-05	0.000172599	1.16313E-05	0	0	0	
0.0981667	-0.00328366	-0.000219332	0.000170823	7.70111E-06	0	0	0	
0.0983333	-0.000321244	-0.000219294	0.000130621	5.02186E-06	0	0	0	
0.0985	0.0025633	0.000200092	7.66005E-05	7.00523E-06	0	0	0	
0.0986667	-0.00533631	0.000291414	6.55238E-05	1.1578E-05	0	0	0	
0.0988333	0.00228053	-0.000472069	6.88754E-05	1.80739E-05	0	0	0	
0.099	-0.0050184	0.000329406	8.3127E-05	2.05744E-05	0	0	0	
0.0991667	0.00141925	-0.000184429	7.29418E-05	1.83284E-05	0	0	0	
0.0993333	0.00372025	-0.000298695	9.06979E-05	1.3614E-05	0	0	0	
0.0995	-0.00411673	0.00076402	8.70868E-05	1.1449E-05	0	0	0	
0.0996667	-0.0025545	-2.66096E-05	7.98865E-05	1.0855E-05	0	0	0	
0.0998333	-0.00159974	-0.000438196	7.92453E-05	1.04905E-05	0	0	0	
0.1	0.00659385	0.000224489	0.000110994	8.39553E-06	0	0	0	
0.100167	-0.00501753	5.95931E-05	0.000120088	7.48627E-06	0	0	0	
0.100333	-0.000827389	0.000135166	0.000123632	8.43975E-06	0	0	0	
0.1005	0.000330368	-4.73873E-05	8.21418E-05	9.22672E-06	0	0	0	
0.100667	0.0059515	0.000287183	0.000129943	1.05663E-05	0	0	0	
0.100833	-0.00758523	0.000329058	0.000164282	1.00201E-05	0	0	0	
0.101	0.00673828	-0.000545887	0.000197306	9.9115E-06	0	0	0	
0.101167	-0.00638589	0.000307366	0.000166357	9.07231E-06	0	0	0	
0.101333	0.00853072	0.000110493	0.000136116	7.72727E-06	0	0	0	
0.1015	-0.00444858	-0.000447051	0.000134689	8.68629E-06	0	0	0	
0.101667	-0.000935403	0.000185662	0.000109175	9.98472E-06	0	0	0	
0.101833	0.00148733	0.000183705	9.68318E-05	1.23674E-05	0	0	0	
0.102	0.000149071	-0.00025323	0.000107027	1.14026E-05	0	0	0	
0.102167	0.00114166	0.000299238	0.000126726	7.97919E-06	0	0	0	
0.102333	-0.000491382	-0.000319324	0.000145526	6.59583E-06	0	0	0	
0.1025	-0.00090879	0.000133986	0.000157343	5.68208E-06	0	0	0	
0.102667	0.00727528	0.000281958	0.000157185	7.01365E-06	0	0	0	
0.102833	-0.0069573	-0.000281272	0.00014621	9.49844E-06	0	0	0	
0.103	0.00492812	-3.11755E-06	0.000127941	1.3923E-05	0	0	0	
0.103167	0.00320098	-0.000105318	0.000162814	1.51101E-05	0	0	0	
0.103333	-0.00830431	5.51297E-05	0.000170644	1.13499E-05	0	0	0	
0.1035	0.0052415	-5.45386E-05	0.000165952	6.5171E-06	0	0	0	
0.103667	0.00571712	0.000189523	0.000171168	3.72025E-06	0	0	0	
0.103833	-0.0158678	-7.17802E-05	0.000232433	4.06252E-06	0	0	0	
0.104	0.0197764	-0.000184816	0.000300721	4.20605E-06	0	0	0	
0.104167	-0.0055635	0.000189202	0.000318709	8.65844E-06	0	0	0	
0.104333	-0.0126297	-9.67007E-05	0.000330373	8.37718E-06	0	0	0	
0.1045	0.0129047	-0.000480366	0.000296482	1.3047E-05	0	0	0	
0.104667	-0.00786781	0.000542916	0.000268967	1.67136E-05	0	0	0	
0.104833	0.0119709	0.000786812	0.000214474	2.41689E-05	0	0	0	
0.105	-0.00669297	-0.00189101	0.000241473	2.84558E-05	0	0	0	
0.105167	-0.00983394	0.00163818	0.000327606	3.35258E-05	0	0	0	
0.105333	0.0125491	-0.000880663	0.000312718	3.4809E-05	0	0	0	
0.1055	-0.00572186	0.000101986	0.00032408	2.81929E-05	0	0	0	
0.105667	-0.00370411	-0.000268375	0.000202023	1.59868E-05	0	0	0	
0.105833	-0.0136497	0.0014451	0.000220406	1.07322E-05	0	0	0	
0.106	0.00160871	-0.00205175	0.000171998	1.87492E-05	0	0	0	
0.106167	0.010804	0.00180927	0.000248799	3.25396E-05	0	0	0	
0.106333	-0.00723764	-0.000942346	0.000234498	3.69282E-05	0	0	0	
0.1065	-0.0032468	-0.00140249	0.000227332	3.10871E-05	0	0	0	
0.106667	-0.00961479	0.00142586	0.000175879	3.04243E-05	0	0	0	
0.106833	0.00436733	-0.000778189	0.00020889	2.93708E-05	0	0	0	
0.107	0.000855416	-0.000404778	0.000240487	2.75345E-05	0	0	0	
0.107167	-0.00344887	0.000985961	0.000199214	2.13308E-05	0	0	0	
0.107333	0.00165538	-0.00136276	0.000134584	1.97619E-05	0	0	0	
0.1075	-0.00591251	0.0010366	7.94831E-05	2.41654E-05	0	0	0	
0.107667	0.00351582	-0.000384746	9.20564E-05	2.76763E-05	0	0	0	
0.107833	0.00286467	0.000603077	0.000127049	3.0352E-05	0	0	0	
0.108	-0.00333817	-0.000107515	0.000129168	2.75927E-05	0	0	0	
0.108167	0.00383139	0.000938154	0.00014603	2.516E-05	0	0	0	
0.108333	-0.00620767	-0.0012783	0.000117232	2.24828E-05	0	0	0	
0.1085	0.0018809	0.000688984	0.000163073	2.4488E-05	0	0	0	
0.108667	0.00987728	0.00038594	0.00024964	2.27857E-05	0	0	0	
0.108833	-0.0137513	-0.000755596	0.000299529	1.93593E-05	0	0	0	
0.109	0.00988486	0.000583346	0.000286029	1.91721E-05	0	0	0	
0.109167	-0.00453363	0.000224073	0.000225622	2.12917E-05	0	0	0	
0.109333	-0.00357027	-0.00130913	0.000211206	2.78078E-05	0	0	0	
0.1095	0.00890174	0.00184852	0.000170563	3.11446E-05	0	0	0	
0.109667	-0.00593686	-0.00139039	0.000177286	3.0941E-05	0	0	0	
0.109833	0.000975125	0.000241527	0.000201221	2.75866E-05	0	0	0	
0.11	0.00590631	0.000991021	0.000263026	2.12934E-05	0	0	0	
0.110167	-0.0115848	-0.000736825	0.000264337	1.84106E-05	0	0	0	
0.110333	0.00408403	-0.000189123	0.000218476	2.4057E-05	0	0	0	
0.1105	0.00918622	0.000106291	0.000186177	2.69245E-05	0	0	0	
0.110667	-0.00616016	-0.000123933	0.000164411	2.20776E-05	0	0	0	
0.110833	0.000345802	0.0003554	0.000196364	1.19928E-05	0	0	0	
0.111	-0.00659825	0.000329421	0.000176318	5.9375E-06	0	0	0	
0.111167	0.00382239	-0.00069973	0.000196689	7.14576E-06	0	0	0	
0.111333	0.009871	0.00026739	0.000248403	1.25395E-05	0	0	0	
0.1115	-0.00747731	0.000263024	0.000253552	1.5329E-05	0	0	0	
0.111667	-0.00794628	-0.000994251	0.000260199	1.68526E-05	0	0	0	
0.111833	0.004842	0.00122559	0.000173019	1.78366E-05	0	0	0	
0.112	0.00531879	-0.000326065	0.000225517	2.02682E-05	0	0	0	
0.112167	-0.00104538	-0.000776593	0.000151496	2.23441E-05	0	0	0	
0.112333	-0.00887449	0.000836143	0.000154305	1.87067E-05	0	0	0	
0.1125	0.00322145	0.000269728	0.000118016	1.96665E-05	0	0	0	
0.112667	0.00724449	-0.00127923	0.000188916	2.01863E-05	0	0	0	
0.112833	-0.00410527	0.000865639	0.000175094	2.20345E-05	0	0	0	
0.113	-0.00263907	-0.000403282	0.000142837	1.85161E-05	0	0	0	
0.113167	-0.00214811	-0.000241229	0.000101444	1.42865E-05	0	0	0	
0.113333	0.00783981	4.96472E-05	0.0001145	1.01891E-05	0	0	0	
0.1135	-0.00348296	0.000199106	0.000127193	1.42861E-05	0	0	0	
0.113667	-0.000977318	-0.000237953	0.000116692	2.02337E-05	0	0	0	
0.113833	-0.00264067	0.000245628	9.2691E-05	2.44361E-05	0	0	0	
0.114	0.00506565	-0.000745703	7.85587E-05	1.92488E-05	0	0	0	
0.114167	0.000253403	0.000752352	7.07879E-05	1.41356E-05	0	0	0	
0.114333	-0.00344187	-0.000357403	6.62995E-05	1.20219E-05	0	0	0	
0.1145	-0.000964584	-0.000372393	6.20295E-05	1.06073E-05	0	0	0	
0.114667	0.00213968	0.00059066	5.51775E-05	9.60995E-06	0	0	0	
0.114833	0.00144903	-0.000244524	6.71251E-05	8.4906E-06	0	0	0	
0.115	-0.00582616	-0.000283379	6.59174E-05	8.5014E-06	0	0	0	
0.115167	0.00087002	0.000187875	7.99293E-05	7.67292E-06	0	0	0	
0.115333	0.00280204	-0.000331972	9.59852E-05	7.50802E-06	0	0	0	
0.1155	0.00478889	3.86043E-05	0.000112283	8.90553E-06	0	0	0	
0.115667	-0.000423211	-0.00073619	0.000101494	9.5825E-06	0	0	0	
0.115833	0.000574812	0.000948241	9.37563E-05	1.22851E-05	0	0	0	
0.116	0.00340612	-0.00108455	7.07047E-05	1.60027E-05	0	0	0	
0.116167	0.00254738	0.000586883	6.72836E-05	1.88943E-05	0	0	0	
0.116333	0.00340672	-0.000315726	5.73724E-05	1.54914E-05	0	0	0	
0.1165	0.014381	-0.000161138	0.000121139	9.81445E-06	0	0	0	
0.116667	-0.000975524	0.000405807	0.00017078	5.65314E-06	0	0	0	
0.116833	0.00071277	-0.000459769	0.000165196	6.81806E-06	0	0	0	
0.117	0.000335125	0.000117235	9.62599E-05	9.82167E-06	0	0	0	
0.117167	0.00341631	0.000186881	3.93864E-05	1.15584E-05	0	0	0	
0.117333	0.00167698	2.33381E-05	4.14221E-05	1.08075E-05	0	0	0	
0.1175	-0.000746605	0.000213747	5.90206E-05	1.0895E-05	0	0	0	
0.117667	-0.003828	-0.000281234	7.97856E-05	1.321E-05	0	0	0	
0.117833	-0.00127303	0.000259161	6.77007E-05	1.47591E-05	0	0	0	
0.118	0.0102597	1.11851E-05	0.000110572	1.21255E-05	0	0	0	
0.118167	-0.010643	-0.000230975	0.00014921	7.72579E-06	0	0	0	
0.118333	0.0039988	0.000392133	0.000189499	7.33381E-06	0	0	0	
0.1185	-0.00283328	7.67886E-05	0.000141902	1.12166E-05	0	0	0	
0.118667	0.00449759	-0.000485902	0.000135441	1.56775E-05	0	0	0	
0.118833	-0.00183844	0.000120668	0.000127121	1.79802E-05	0	0	0	
0.119	0.000821293	0.000338264	0.000126881	1.88089E-05	0	0	0	
0.119167	-0.00212453	-0.000333535	9.89202E-05	2.1279E-05	0	0	0	
0.119333	0.00286538	0.000175937	9.95683E-05	2.28257E-05	0	0	0	
0.1195	-0.000198	0.000469369	0.000124434	1.98044E-05	0	0	0	
0.119667	-0.00198632	-0.0011831	0.000141866	1.738E-05	0	0	0	
0.119833	0.00490311	0.000992947	0.000149361	1.88182E-05	0	0	0	
0.12	-0.000557026	-0.000556449	0.000125948	2.21313E-05	0	0	0	
0.120167	-0.00389576	-0.000634905	0.000120439	1.97176E-05	0	0	0	
0.120333	0.00672258	0.00139915	0.000139753	1.85133E-05	0	0	0	
0.1205	-0.00406336	-0.000405262	0.000184472	1.96029E-05	0	0	0	
0.120667	0.00257819	-0.000572124	0.000200651	2.23722E-05	0	0	0	
0.120833	-0.00350709	0.00050335	0.00018872	1.95342E-05	0	0	0	
0.121	0.0071948	-0.000604466	0.00015105	1.73577E-05	0	0	0	
0.121167	-0.00371936	0.000376927	0.000125968	1.80878E-05	0	0	0	
0.121333	-0.000725021	-0.000160184	8.75932E-05	1.78466E-05	0	0	0	
0.1215	0.00263935	-0.00014895	0.000113807	1.37213E-05	0	0	0	
0.121667	0.000404697	-0.000198415	0.000169382	8.64944E-06	0	0	0	
0.121833	-0.00107718	-7.87479E-05	0.000240541	5.78645E-06	0	0	0	
0.122	0.0010264	-0.000266904	0.000237065	8.59807E-06	0	0	0	
0.122167	-0.0018296	0.000369286	0.000179195	1.01233E-05	0	0	0	
0.122333	0.00644685	-0.000682112	0.000135313	1.17773E-05	0	0	0	
0.1225	-0.00623121	0.00038594	0.000121225	1.06517E-05	0	0	0	
0.122667	-0.00115214	-0.000309542	0.000112805	9.66052E-06	0	0	0	
0.122833	0.0072781	-0.000269946	8.93322E-05	8.36514E-06	0	0	0	
0.123	-0.00418033	0.000521596	9.89683E-05	9.38473E-06	0	0	0	
0.123167	0.000427742	-0.000220887	0.000100533	1.02537E-05	0	0	0	
0.123333	0.00026606	-0.000826423	7.96238E-05	1.0349E-05	0	0	0	
0.1235	-0.00327202	0.00073876	4.14778E-05	1.32362E-05	0	0	0	
0.123667	0.00720027	-9.76046E-05	5.06018E-05	1.6535E-05	0	0	0	
0.123833	-0.00691096	-0.000788474	9.46423E-05	2.17918E-05	0	0	0	
0.124	0.00443265	0.000658548	0.000123306	2.27855E-05	0	0	0	
0.124167	-0.00628285	-0.000199536	0.000126054	2.11007E-05	0	0	0	
0.124333	0.00915326	-0.000320753	0.000133491	1.61269E-05	0	0	0	
0.1245	-0.00522064	0.000495846	0.000140557	1.19312E-05	0	0	0	
0.124667	-0.00174532	-0.000406503	0.000136975	1.20929E-05	0	0	0	
0.124833	-0.00275035	-0.000215949	0.000147729	1.23458E-05	0	0	0	
0.125	0.0125415	0.00094485	0.000222872	1.22858E-05	0	0	0	
0.125167	-0.012539	-0.00122026	0.000298066	1.41421E-05	0	0	0	
0.125333	0.00647179	0.000625788	0.000314126	1.6871E-05	0	0	0	
0.1255	-0.0131081	-6.29189E-05	0.000234692	1.70306E-05	0	0	0	
0.125667	0.00731925	-0.000230267	0.00024181	1.28252E-05	0	0	0	
0.125833	-0.00220205	0.000554901	0.000181335	1.00724E-05	0	0	0	
0.126	-0.00651908	-0.000531803	0.000168377	9.31153E-06	0	0	0	
0.126167	0.00853146	-3.8173E-05	0.000114204	9.31435E-06	0	0	0	
0.126333	0.00240824	-1.40217E-05	0.000221303	7.56418E-06	0	0	0	
0.1265	-0.00871008	0.000446032	0.000263888	6.77526E-06	0	0	0	
0.126667	0.00117234	1.12448E-05	0.000261704	7.1594E-06	0	0	0	
0.126833	0.00830194	-0.000100004	0.000220458	9.73648E-06	0	0	0	
0.127	0.0138827	-0.000512697	0.000264918	1.28093E-05	0	0	0	
0.127167	-0.00755378	0.000646263	0.000266064	1.39672E-05	0	0	0	
0.127333	-0.00160262	-0.000220278	0.000227845	1.30886E-05	0	0	0	
0.1275	0.00235076	-0.000442769	0.00013732	1.37614E-05	0	0	0	
0.127667	0.00089493	0.000691	0.000122458	1.96229E-05	0	0	0	
0.127833	0.000618836	-0.00102779	9.57511E-05	2.44528E-05	0	0	0	
0.128	-0.00133526	0.00137757	0.000108658	3.09632E-05	0	0	0	
0.128167	0.00158916	-0.000374057	0.000115603	3.41085E-05	0	0	0	
0.128333	-0.00528202	-0.000417258	0.00014752	3.34309E-05	0	0	0	
0.1285	0.00323666	0.000182951	0.000169142	2.42857E-05	0	0	0	
0.128667	-0.000363766	-0.000417622	0.000171356	1.43754E-05	0	0	0	
0.128833	0.00360978	0.000594138	0.000145585	1.09754E-05	0	0	0	
0.129	-0.0073356	-0.000586658	0.000121276	1.10054E-05	0	0	0	
0.129167	0.00621121	0.00251669	0.000116027	1.81289E-05	0	0	0	
0.129333	-0.00400369	-0.0019368	0.000140555	2.62731E-05	0	0	0	
0.1295	0.00198291	0.00117827	0.000129009	3.53053E-05	0	0	0	
0.129667	-0.00459834	-0.000645662	0.000100633	3.01251E-05	0	0	0	
0.129833	0.00386532	-4.69249E-05	7.47465E-05	2.36165E-05	0	0	0	
0.13	0.00237027	0.00020168	7.04038E-05	1.75774E-05	0	0	0	
0.130167	0.000217148	1.46631E-05	8.04325E-05	1.6036E-05	0	0	0	
0.130333	-0.0098881	0.000141762	0.000124292	1.22499E-05	0	0	0	
0.1305	0.0116449	-0.000338597	0.000166405	1.14418E-05	0	0	0	
0.130667	-0.00604108	1.44989E-05	0.000199552	1.71228E-05	0	0	0	
0.130833	0.000323313	0.000368825	0.000183012	2.12515E-05	0	0	0	
0.131	-0.00455565	0.000156073	0.00023122	1.78306E-05	0	0	0	
0.131167	-0.0122906	-0.00057603	0.000283804	1.39748E-05	0	0	0	
0.131333	0.0107254	0.0012687	0.000311479	1.42467E-05	0	0	0	
0.1315	0.00304363	-0.00201954	0.000307775	2.23786E-05	0	0	0	
0.131667	-0.0157727	0.0024559	0.000297966	3.05767E-05	0	0	0	
0.131833	0.000990977	-0.00178226	0.000355478	3.86993E-05	0	0	0	
0.132	-0.0156997	-4.45025E-05	0.000306605	3.52932E-05	0	0	0	
0.132167	0.0157608	0.00111764	0.000342253	2.90452E-05	0	0	0	
0.132333	0.00108852	-0.000553898	0.000287868	2.27599E-05	0	0	0	
0.1325	-0.00467439	-0.000138413	0.000305924	1.99211E-05	0	0	0	
0.132667	0.00154372	0.000621599	0.000187116	1.61711E-05	0	0	0	
0.132833	-0.00496357	-0.000931542	0.000123325	1.36422E-05	0	0	0	
0.133	0.0137633	9.14227E-05	0.00015723	1.32606E-05	0	0	0	
0.133167	-0.00978151	0.000839376	0.00016923	1.29213E-05	0	0	0	
0.133333	0.00198265	-9.40375E-05	0.00022449	1.26656E-05	0	0	0	
0.1335	0.0082041	-0.000619777	0.000165207	1.43469E-05	0	0	0	
0.133667	-0.00282772	0.00116541	0.000173347	2.03695E-05	0	0	0	
0.133833	-0.0066773	-0.00104446	0.000158838	2.81203E-05	0	0	0	
0.134	-0.00213748	-0.000657662	0.000173108	4.32784E-05	0	0	0	
0.134167	0.0257889	0.00328717	0.000259754	5.48728E-05	0	0	0	
0.134333	-0.0429638	-0.00354732	0.000394599	6.22941E-05	0	0	0	
0.1345	0.036026	-0.000328527	0.000720504	9.26186E-05	0	0	0	
0.134667	-0.0102871	0.00359669	0.0011268	0.000143396	0	0	0	
0.134833	-0.00336057	-0.00784233	0.00154655	0.000189885	0	0	0	
0.135	0.0147235	0.0100772	0.00165263	0.000201568	0	0	0	
0.135167	-0.00830629	-0.00967747	0.0013227	0.00019252	0	0	0	
0.135333	-0.00608134	0.00302367	0.000832009	0.000167992	0	0	0	
0.1355	0.0183728	0.00666188	0.000616794	0.000134326	0	0	0	
0.135667	-0.0335106	-0.0123401	0.00065539	0.000133399	0	0	0	
0.135833	0.0635444	0.00906553	0.000809489	0.00016259	0	0	0	
0.136	-0.0746106	-0.00156403	0.000986582	0.000167769	0	0	0	
0.136167	0.0492425	-0.00439561	0.00120389	0.000147016	0	0	0	
0.136333	-0.0143719	0.00526115	0.00129174	0.00013086	0	0	0	
0.1365	-0.0306668	-0.00257958	0.00108247	0.000140968	0	0	0	
0.136667	0.0459924	0.000650175	0.000918022	0.000109635	0	0	0	
0.136833	-0.0388233	-0.00114474	0.000827803	7.4782E-05	0	0	0	
0.137	0.0168975	0.00288961	0.000748614	6.22426E-05	0	0	0	
0.137167	0.015273	-0.00417025	0.000584235	8.57936E-05	0	0	0	
0.137333	-0.0317567	0.00387975	0.000438866	9.63523E-05	0	0	0	
0.1375	0.0151476	-0.0017469	0.000463858	8.36811E-05	0	0	0	
0.137667	0.0138947	-0.000953137	0.000473946	5.70326E-05	0	0	0	
0.137833	-0.0140913	0.00273174	0.000422892	4.02211E-05	0	0	0	
0.138	-0.00139912	-0.00222427	0.000318051	3.88192E-05	0	0	0	
0.138167	0.00944418	0.000516965	0.000212554	4.32742E-05	0	0	0	
0.138333	-0.00555731	0.000845722	0.000184057	3.76944E-05	0	0	0	
0.1385	0.00107763	-0.00121753	0.000115121	3.17617E-05	0	0	0	
0.138667	0.000358919	0.000221492	0.000121476	2.70368E-05	0	0	0	
0.138833	-0.0105669	0.000261423	0.000188211	1.96245E-05	0	0	0	
0.139	0.0132475	0.000264621	0.000274601	1.21697E-05	0	0	0	
0.139167	-0.00370527	-0.000208414	0.000277674	1.07969E-05	0	0	0	
0.139333	-0.00858511	-0.000579591	0.000213542	1.56019E-05	0	0	0	
0.1395	0.00276251	0.000591038	0.000154603	1.8869E-05	0	0	0	
0.139667	0.00524336	-0.000703087	0.00017674	1.95027E-05	0	0	0	
0.139833	-0.000964741	0.000876382	0.000144546	2.04728E-05	0	0	0	
0.14	-0.00530586	-0.000263938	0.000117378	1.96585E-05	0	0	0	
0.140167	-0.00349754	-0.0007123	0.000116262	1.92823E-05	0	0	0	
0.140333	0.00761782	0.000613024	0.000144006	1.83177E-05	0	0	0	
0.1405	0.00273714	0.000418192	0.000182682	1.54537E-05	0	0	0	
0.140667	-0.00925222	-0.000717584	0.0001556	1.35081E-05	0	0	0	
0.140833	-0.00311801	-0.000191005	0.000188731	9.94001E-06	0	0	0	
0.141	0.0138525	0.00104789	0.0002081	1.02956E-05	0	0	0	
0.141167	-0.00716276	-0.00156815	0.000240006	1.61428E-05	0	0	0	
0.141333	-0.00351451	0.000840385	0.000250208	2.29625E-05	0	0	0	
0.1415	-0.000936768	0.000411942	0.000185826	2.24775E-05	0	0	0	
0.141667	0.0126043	-0.000720573	0.000186406	1.7522E-05	0	0	0	
0.141833	-0.00938101	0.000736475	0.000157568	1.50032E-05	0	0	0	
0.142	-0.00600803	0.000601568	0.000221182	1.68831E-05	0	0	0	
0.142167	0.00783768	-0.000935017	0.000182618	1.92808E-05	0	0	0	
0.142333	0.00669971	6.81129E-05	0.000220648	1.87456E-05	0	0	0	
0.1425	-0.011239	0.00139069	0.000204883	2.19716E-05	0	0	0	
0.142667	8.11968E-05	-0.000791904	0.000223437	2.39006E-05	0	0	0	
0.142833	0.00356379	0.000477631	0.000145612	2.75677E-05	0	0	0	
0.143	0.00310233	0.000810396	0.000118487	3.31623E-05	0	0	0	
0.143167	-0.00286519	-0.0014282	8.14977E-05	3.8056E-05	0	0	0	
0.143333	-0.00439099	0.000719442	0.000113757	3.61284E-05	0	0	0	
0.1435	0.000379686	-6.26929E-05	9.52656E-05	2.78903E-05	0	0	0	
0.143667	0.0101928	-0.000188863	0.000155445	2.06389E-05	0	0	0	
0.143833	-0.00996788	0.000552805	0.000164204	1.55772E-05	0	0	0	
0.144	-0.00051694	0.000322575	0.000187415	1.27914E-05	0	0	0	
0.144167	0.00362815	-0.000462097	0.000119408	1.02403E-05	0	0	0	
0.144333	0.00576178	0.00035645	0.000124871	1.16485E-05	0	0	0	
0.1445	-0.0036793	-0.00118224	0.000160449	1.34529E-05	0	0	0	
0.144667	0.00404307	0.00124888	0.000179692	1.96354E-05	0	0	0	
0.144833	0.00322676	-0.000409275	0.000136118	2.16441E-05	0	0	0	
0.145	-0.00513844	-4.67313E-05	0.000112303	1.75017E-05	0	0	0	
0.145167	0.00338973	-0.000102649	0.000147786	1.04422E-05	0	0	0	
0.145333	-0.000203067	-0.000176315	0.00015865	1.05728E-05	0	0	0	
0.1455	0.00816424	0.000245392	0.000147534	1.82326E-05	0	0	0	
0.145667	-0.00286516	-0.000177903	0.000146325	2.12447E-05	0	0	0	
0.145833	-0.000267456	0.00014006	0.000194951	1.55263E-05	0	0	0	
0.146	-0.00306574	0.000394653	0.000199524	1.04113E-05	0	0	0	
0.146167	0.00657257	-0.000772736	0.000176241	7.48985E-06	0	0	0	
0.146333	0.00062568	0.0010366	0.000156369	1.36604E-05	0	0	0	
0.1465	-0.0056114	-0.0010483	0.000137064	1.89947E-05	0	0	0	
0.146667	-0.00578435	0.00121329	0.0001536	2.56458E-05	0	0	0	
0.146833	0.0138916	-0.000962918	0.000142337	2.73289E-05	0	0	0	
0.147	-0.00994661	-0.000345094	0.000212693	2.23376E-05	0	0	0	
0.147167	0.00464384	0.000471275	0.00022936	1.69173E-05	0	0	0	
0.147333	-0.00297096	-6.93078E-05	0.000214887	9.73496E-06	0	0	0	
0.1475	-0.00456646	-4.11625E-05	0.000158572	7.65637E-06	0	0	0	
0.147667	0.00498752	0.000820165	0.000120369	1.05179E-05	0	0	0	
0.147833	0.00513001	-0.00105819	9.64159E-05	1.73036E-05	0	0	0	
0.148	-0.00956621	0.00092561	0.00012262	2.30343E-05	0	0	0	
0.148167	0.00150472	-2.87677E-06	0.000185314	1.94656E-05	0	0	0	
0.148333	0.00130145	-0.000595786	0.000198464	1.63209E-05	0	0	0	
0.1485	0.00491597	0.00163693	0.000185126	1.83099E-05	0	0	0	
0.148667	-0.00780618	-0.00117241	0.000123839	2.47419E-05	0	0	0	
0.148833	0.00155669	-0.00115183	0.000141985	2.50755E-05	0	0	0	
0.149	0.00235948	0.00230395	0.000114331	2.75819E-05	0	0	0	
0.149167	0.00989587	-0.00117628	0.000124396	2.94993E-05	0	0	0	
0.149333	-0.0161582	0.000315923	0.000165542	2.73468E-05	0	0	0	
0.1495	0.00393367	1.62635E-05	0.000223638	2.12756E-05	0	0	0	
0.149667	0.00750892	-0.00173601	0.00025851	1.75953E-05	0	0	0	
0.149833	0.000889575	0.00125828	0.000234859	2.4371E-05	0	0	0	
0.15	-0.00820513	0.000715432	0.000212636	2.73211E-05	0	0	0	
0.150167	-0.00673362	-0.000943591	0.000217999	2.80847E-05	0	0	0	
0.150333	0.011366	0.000635702	0.000210572	2.21002E-05	0	0	0	
0.1505	0.00379223	-0.000419046	0.000245121	1.70794E-05	0	0	0	
0.150667	-0.0106563	-0.000301684	0.000192285	1.51036E-05	0	0	0	
0.150833	-0.00492606	0.000995013	0.00023244	2.17348E-05	0	0	0	
0.151	0.00464081	-0.000869616	0.000158013	2.71036E-05	0	0	0	
0.151167	0.00706099	0.000249421	0.000201803	2.37681E-05	0	0	0	
0.151333	-0.00775922	0.000383971	0.0001474	1.65019E-05	0	0	0	
0.1515	0.00405151	-0.000317656	0.000169206	1.20446E-05	0	0	0	
0.151667	-0.00598075	0.00132097	0.000119628	1.36306E-05	0	0	0	
0.151833	0.00433735	-0.000612399	0.000135188	1.85232E-05	0	0	0	
0.152	0.00376756	-7.22329E-05	0.000170312	1.99546E-05	0	0	0	
0.152167	-0.00387097	5.08329E-05	0.000157176	2.23427E-05	0	0	0	
0.152333	-0.00260244	-0.00152266	0.000144326	1.96794E-05	0	0	0	
0.1525	0.00434503	0.00110382	8.69969E-05	2.12587E-05	0	0	0	
0.152667	0.00122201	0.000462298	8.88855E-05	2.44312E-05	0	0	0	
0.152833	0.00232325	-0.00131027	5.77639E-05	3.00414E-05	0	0	0	
0.153	-0.00687505	0.00055872	7.31185E-05	2.4972E-05	0	0	0	
0.153167	0.00624921	-0.00040735	0.000106919	2.08123E-05	0	0	0	
0.153333	-0.00391062	-0.0010725	0.000126256	1.53072E-05	0	0	0	
0.1535	0.00871407	0.00162388	0.000129543	2.60942E-05	0	0	0	
0.153667	-0.00711093	-0.00121635	0.000134266	3.01744E-05	0	0	0	
0.153833	7.54411E-05	0.000768338	0.000175955	3.05372E-05	0	0	0	
0.154	0.0160491	-0.000481195	0.000207489	2.07833E-05	0	0	0	
0.154167	-0.0161296	-0.000273673	0.000238437	1.83695E-05	0	0	0	
0.154333	0.00571524	-0.000802534	0.000256963	2.36002E-05	0	0	0	
0.1545	0.0159343	0.00188774	0.000339715	3.32998E-05	0	0	0	
0.154667	-0.0301915	-0.00159987	0.00038095	3.89178E-05	0	0	0	
0.154833	0.0177765	-0.000454726	0.000472944	3.67266E-05	0	0	0	
0.155	0.0167273	0.000560697	0.000516601	3.26432E-05	0	0	0	
0.155167	-0.0122817	8.159E-05	0.000556538	2.47094E-05	0	0	0	
0.155333	0.00792834	-0.00068377	0.000455145	1.89195E-05	0	0	0	
0.1555	-0.00887476	0.000616833	0.000290745	1.59171E-05	0	0	0	
0.155667	0.00233733	-0.000673132	0.000222674	1.50756E-05	0	0	0	
0.155833	0.0226696	5.43159E-05	0.000298043	1.65834E-05	0	0	0	
0.156	-0.019699	0.0010138	0.000395854	1.64627E-05	0	0	0	
0.156167	0.00560086	-0.00114963	0.000417551	2.0761E-05	0	0	0	
0.156333	0.00407121	0.000179558	0.000386927	2.03577E-05	0	0	0	
0.1565	0.00457284	-0.000123571	0.000305325	1.46812E-05	0	0	0	
0.156667	0.00299351	-6.13138E-05	0.000205922	8.695E-06	0	0	0	
0.156833	-0.00355376	0.000239137	0.000153204	1.08685E-05	0	0	0	
0.157	0.00993228	-7.37684E-05	0.000154475	1.6065E-05	0	0	0	
0.157167	-0.00287966	-0.000148106	0.000195281	1.58059E-05	0	0	0	
0.157333	-0.0104556	-0.000140833	0.00015858	1.06187E-05	0	0	0	
0.1575	0.0081067	8.09585E-05	0.000212089	7.30347E-06	0	0	0	
0.157667	0.00104558	-4.56655E-05	0.000223583	8.18663E-06	0	0	0	
0.157833	-0.000922572	0.000311294	0.000214222	1.19014E-05	0	0	0	
0.158	-0.00206535	-0.00037354	0.000143697	1.54287E-05	0	0	0	
0.158167	-0.00231894	0.000184645	0.0001135	1.86066E-05	0	0	0	
0.158333	-0.00461939	-0.000138875	0.000134823	2.10608E-05	0	0	0	
0.1585	-0.00130228	0.000245395	0.000132484	2.02362E-05	0	0	0	
0.158667	0.000776587	-0.000371158	0.000110529	1.6615E-05	0	0	0	
0.158833	0.000847849	0.000293674	8.03811E-05	1.43913E-05	0	0	0	
0.159	0.00302402	-0.000186223	9.11859E-05	1.79746E-05	0	0	0	
0.159167	-0.010734	4.24583E-05	9.79789E-05	2.20172E-05	0	0	0	
0.159333	0.000591469	0.000987244	0.000141682	2.13792E-05	0	0	0	
0.1595	-0.0043479	-0.00233957	0.000180725	2.24213E-05	0	0	0	
0.159667	0.0142279	0.002714	0.00027681	3.09634E-05	0	0	0	
0.159833	-0.00859673	-0.0022661	0.000278861	4.45002E-05	0	0	0	
0.16	-0.00417756	0.001281	0.00022396	5.04239E-05	0	0	0	
0.160167	-0.00372742	-0.000507322	0.000193384	4.26908E-05	0	0	0	
0.160333	0.0118693	0.000389328	0.000265215	2.75946E-05	0	0	0	
0.1605	0.00371221	-0.00107165	0.000290362	1.8463E-05	0	0	0	
0.160667	-0.00804163	0.00164441	0.000237392	2.14142E-05	0	0	0	
0.160833	0.0119222	-0.00169859	0.000237922	2.94788E-05	0	0	0	
0.161	0.00457827	0.00119945	0.000231288	3.26971E-05	0	0	0	
0.161167	0.00976252	-0.000372316	0.000224241	2.65935E-05	0	0	0	
0.161333	-0.005067	-0.000173305	0.000123475	1.68519E-05	0	0	0	
0.1615	0.000513643	-0.000126809	0.000124354	1.0241E-05	0	0	0	
0.161667	-0.0034635	0.000688013	9.90924E-05	8.26229E-06	0	0	0	
0.161833	0.0162816	-0.000997165	0.000122194	1.20504E-05	0	0	0	
0.162	-0.00320014	0.000793356	0.000161869	1.68174E-05	0	0	0	
0.162167	7.84176E-05	-7.81499E-05	0.000168114	1.68799E-05	0	0	0	
0.162333	0.00801017	-0.000610838	0.000140729	1.51496E-05	0	0	0	
0.1625	-0.0096826	0.000472106	0.000128895	1.25252E-05	0	0	0	
0.162667	0.0031445	5.16415E-05	0.000147641	1.34265E-05	0	0	0	
0.162833	0.0031371	-0.000892481	0.000126922	1.48618E-05	0	0	0	
0.163	-0.00202934	0.00082091	0.000101224	1.60096E-05	0	0	0	
0.163167	0.000492412	-0.000595497	0.000109925	1.59447E-05	0	0	0	
0.163333	0.000892412	0.000238653	0.00010035	1.60211E-05	0	0	0	
0.1635	0.00412616	-0.000236761	7.078E-05	1.80961E-05	0	0	0	
0.163667	-0.00651226	-5.25673E-05	8.30683E-05	1.95784E-05	0	0	0	
0.163833	0.0025227	-0.000122211	0.000151106	1.60383E-05	0	0	0	
0.164	0.00149577	0.00014488	0.000222627	1.50238E-05	0	0	0	
0.164167	-0.000280853	-0.000625437	0.000231757	1.71826E-05	0	0	0	
0.164333	-0.00319182	0.000694788	0.00018669	1.86821E-05	0	0	0	
0.1645	0.00100705	-0.000241894	0.000117206	1.89765E-05	0	0	0	
0.164667	0.000754912	-0.000331985	6.88394E-05	2.0357E-05	0	0	0	
0.164833	0.00343098	0.000399143	5.79077E-05	2.3124E-05	0	0	0	
0.165	-0.00550376	-0.000458101	6.61534E-05	1.83945E-05	0	0	0	
0.165167	0.00100991	0.00048495	0.000117134	1.20761E-05	0	0	0	
0.165333	-0.00109389	8.98955E-05	0.000155618	8.96757E-06	0	0	0	
0.1655	0.0069618	-0.000756182	0.000176197	1.17406E-05	0	0	0	
0.165667	-0.00229694	0.000720304	0.000145492	1.78706E-05	0	0	0	
0.165833	0.00562973	-0.000413608	0.000116797	2.21556E-05	0	0	0	
0.166	-0.00810725	8.1418E-05	0.00011143	2.16675E-05	0	0	0	
0.166167	0.00314848	0.000360561	0.000116158	1.75233E-05	0	0	0	
0.166333	-0.000329653	-0.000386433	0.000108406	1.3245E-05	0	0	0	
0.1665	0.0117573	-0.000298598	0.000100406	1.01072E-05	0	0	0	
0.166667	-0.0115692	0.000555066	0.000150521	9.64793E-06	0	0	0	
0.166833	0.00570012	-0.000325979	0.00017618	9.62247E-06	0	0	0	
0.167	-0.00500593	0.000439185	0.000186713	1.06022E-05	0	0	0	
0.167167	0.00928705	-0.000189957	0.000159362	1.27293E-05	0	0	0	
0.167333	-0.0103547	-0.000423197	0.000182876	1.4887E-05	0	0	0	
0.1675	0.00803057	0.000378767	0.000188618	1.4123E-05	0	0	0	
0.167667	-0.00148807	-3.73323E-05	0.000180937	1.0936E-05	0	0	0	
0.167833	-0.000442139	0.000345334	0.000146547	8.46827E-06	0	0	0	
0.168	-0.00295946	-6.19843E-05	0.000103898	9.15203E-06	0	0	0	
0.168167	0.00112912	0.000113461	7.10905E-05	9.36981E-06	0	0	0	
0.168333	0.00420258	0.00032062	7.54718E-05	1.08412E-05	0	0	0	
0.1685	-0.00406537	-0.000395955	9.08825E-05	1.05421E-05	0	0	0	
0.168667	-0.00177287	0.000450925	0.000104013	1.04243E-05	0	0	0	
0.168833	0.00614973	-0.000198018	8.35156E-05	1.14835E-05	0	0	0	
0.169	-0.00923137	-0.000170579	0.000113262	1.51444E-05	0	0	0	
0.169167	0.0105699	0.00028553	0.000154658	1.67272E-05	0	0	0	
0.169333	-0.00775904	0.000879751	0.000208997	1.5896E-05	0	0	0	
0.1695	0.00255164	-0.00143893	0.000203361	1.80498E-05	0	0	0	
0.169667	0.00142026	0.00152367	0.000177745	2.18339E-05	0	0	0	
0.169833	-0.00618519	-0.000878262	0.000176522	2.62487E-05	0	0	0	
0.17	0.0130416	0.000437746	0.000215054	2.23242E-05	0	0	0	
0.170167	-0.0165857	-0.000380258	0.000252037	1.69057E-05	0	0	0	
0.170333	0.0131447	0.00063098	0.00028347	1.37397E-05	0	0	0	
0.1705	0.0034989	-0.000653884	0.000382699	1.81377E-05	0	0	0	
0.170667	-0.0248765	-0.000142554	0.000489054	2.18549E-05	0	0	0	
0.170833	0.0252219	0.00040689	0.00052475	1.88014E-05	0	0	0	
0.171	-0.00363515	-0.000834306	0.000521092	1.56855E-05	0	0	0	
0.171167	-0.0090524	0.00025673	0.000501128	1.83483E-05	0	0	0	
0.171333	0.00857233	0.000901518	0.000464003	2.56637E-05	0	0	0	
0.1715	-0.0144766	-0.00174462	0.000375168	2.59738E-05	0	0	0	
0.171667	0.013859	0.00121062	0.000277491	3.19028E-05	0	0	0	
0.171833	0.00927625	0.00040696	0.000363484	4.06517E-05	0	0	0	
0.172	-0.0188727	-0.002099	0.000374988	4.60064E-05	0	0	0	
0.172167	-0.00203751	0.00161171	0.000413755	4.14967E-05	0	0	0	
0.172333	0.0118298	0.000720872	0.000286955	3.62609E-05	0	0	0	
0.1725	0.00224285	-0.00187871	0.000233657	3.39201E-05	0	0	0	
0.172667	-0.00481664	0.00154791	0.000161228	3.5181E-05	0	0	0	
0.172833	0.00102111	0.000364661	0.000147919	3.77763E-05	0	0	0	
0.173	-0.00755675	-0.00189447	0.000129788	4.05954E-05	0	0	0	
0.173167	0.00308521	0.00159403	0.00013662	3.74547E-05	0	0	0	
0.173333	0.00990309	3.86747E-05	0.0001878	3.28102E-05	0	0	0	
0.1735	-0.00467529	-0.00149141	0.000222017	3.1925E-05	0	0	0	
0.173667	-0.0168539	0.00180128	0.000250028	3.14045E-05	0	0	0	
0.173833	0.00616097	-0.000333997	0.000236835	3.51771E-05	0	0	0	
0.174	-0.00168441	-0.00129198	0.000227083	4.18534E-05	0	0	0	
0.174167	0.00308956	0.00161906	0.000161049	4.49626E-05	0	0	0	
0.174333	-0.00426898	-0.000688928	0.000105558	3.74444E-05	0	0	0	
0.1745	-0.00157316	-0.00116425	0.000107675	2.73726E-05	0	0	0	
0.174667	-0.00710117	0.00228104	0.000139825	2.65733E-05	0	0	0	
0.174833	0.0055499	-0.00162407	0.000155711	3.2817E-05	0	0	0	
0.175	0.000472122	-0.000226004	0.000129235	3.81959E-05	0	0	0	
0.175167	-0.00853144	0.00114838	0.000122577	3.83126E-05	0	0	0	
0.175333	-0.000101087	-0.000962276	0.000104735	3.215E-05	0	0	0	
0.1755	0.0119662	-0.000823774	0.000103982	2.31199E-05	0	0	0	
0.175667	-0.0109435	0.00225182	0.00015024	2.17203E-05	0	0	0	
0.175833	0.00298043	-0.00113971	0.000226485	2.47174E-05	0	0	0	
0.176	0.00142824	-0.000373853	0.00026811	3.11733E-05	0	0	0	
0.176167	-0.00174405	0.000689242	0.000252181	2.6833E-05	0	0	0	
0.176333	0.00775629	0.000270562	0.000257304	2.02978E-05	0	0	0	
0.1765	-0.00867017	-0.0014743	0.000247258	1.48531E-05	0	0	0	
0.176667	-0.0112048	0.00152684	0.000288087	1.94814E-05	0	0	0	
0.176833	0.0263913	-0.000772347	0.00030926	2.38036E-05	0	0	0	
0.177	-0.00910672	-0.000261854	0.000376826	2.45701E-05	0	0	0	
0.177167	-0.00306325	0.000810031	0.000362424	2.01866E-05	0	0	0	
0.177333	-0.0119254	-5.6712E-05	0.000264344	1.68424E-05	0	0	0	
0.1775	0.00645048	-0.00147927	0.000240907	2.26853E-05	0	0	0	
0.177667	0.0211205	0.00245616	0.000354513	3.04933E-05	0	0	0	
0.177833	-0.0150882	-0.00194958	0.000419271	3.89606E-05	0	0	0	
0.178	-0.00889877	0.00022388	0.000458562	4.08918E-05	0	0	0	
0.178167	0.00273495	0.00178742	0.000275092	4.61155E-05	0	0	0	
0.178333	0.0100531	-0.00232623	0.000286539	4.63512E-05	0	0	0	
0.1785	-0.00885915	-3.45061E-05	0.000262075	4.73474E-05	0	0	0	
0.178667	0.0290081	0.00386929	0.000498712	4.81528E-05	0	0	0	
0.178833	-0.0554402	-0.00611165	0.000742554	6.49112E-05	0	0	0	
0.179	0.0630251	0.00559903	0.000951543	9.85208E-05	0	0	0	
0.179167	-0.0310817	-0.00415918	0.00110444	0.00013655	0	0	0	
0.179333	-0.0107299	0.00254524	0.00112651	0.000151772	0	0	0	
0.1795	0.0335013	-0.00230646	0.000952926	0.000138917	0	0	0	
0.179667	-0.0202038	0.00145713	0.000798958	0.000101473	0	0	0	
0.179833	-0.0142265	-0.00368082	0.000892307	7.47382E-05	0	0	0	
0.18	0.0473356	0.00606963	0.00113981	7.33029E-05	0	0	0	
0.180167	-0.0553989	-0.00734782	0.00122397	9.86286E-05	0	0	0	
0.180333	0.030092	0.00579051	0.0010042	0.000123535	0	0	0	
0.1805	-0.000790377	-0.00547227	0.000754032	0.000126986	0	0	0	
0.180667	-0.014037	0.0034204	0.000470999	0.00011077	0	0	0	
0.180833	0.00719492	-0.00186775	0.000321548	8.13787E-05	0	0	0	
0.181	0.00394836	0.000398342	0.00028256	5.42176E-05	0	0	0	
0.181167	-0.00674938	0.00111795	0.000278802	2.84608E-05	0	0	0	
0.181333	0.00165234	-0.00163322	0.000202954	2.49518E-05	0	0	0	
0.1815	0.00757955	0.000529826	0.000123659	2.4323E-05	0	0	0	
0.181667	-0.0116344	3.64412E-05	0.000122761	2.34495E-05	0	0	0	
0.181833	0.00630627	0.000303123	0.000173397	2.31206E-05	0	0	0	
0.182	0.00137131	-0.000614974	0.000179723	2.50471E-05	0	0	0	
0.182167	0.0034903	0.00083994	0.000133259	2.70329E-05	0	0	0	
0.182333	-0.0131631	8.70891E-05	0.000110871	2.39252E-05	0	0	0	
0.1825	0.0192288	-0.00139349	0.00016719	2.04201E-05	0	0	0	
0.182667	-0.0120975	0.0022069	0.000282885	2.72204E-05	0	0	0	
0.182833	0.00111758	-0.00079036	0.000352421	3.19383E-05	0	0	0	
0.183	0.0026667	-0.000425428	0.00031737	3.57458E-05	0	0	0	
0.183167	-0.00162059	0.000905285	0.00022099	3.16542E-05	0	0	0	
0.183333	0.00135899	8.02632E-05	0.000114394	2.27821E-05	0	0	0	
0.1835	0.000369169	-0.00137517	7.40898E-05	1.62104E-05	0	0	0	
0.183667	-0.00378734	0.00157032	7.62431E-05	1.80824E-05	0	0	0	
0.183833	0.00243882	-0.00055056	8.01868E-05	2.75637E-05	0	0	0	
0.184	-0.00121759	-0.000534902	6.76868E-05	3.33754E-05	0	0	0	
0.184167	0.00333131	0.000304917	4.36311E-05	3.07377E-05	0	0	0	
0.184333	-0.00657249	0.000877501	6.77723E-05	2.09707E-05	0	0	0	
0.1845	0.00203766	-0.0024443	9.85267E-05	2.07176E-05	0	0	0	
0.184667	0.000491711	0.00311374	0.0001281	3.1222E-05	0	0	0	
0.184833	-0.00229467	-0.00218606	0.000115671	4.72091E-05	0	0	0	
0.185	0.00361465	-1.21398E-05	8.60507E-05	4.90376E-05	0	0	0	
0.185167	-0.00190343	0.000784918	6.95678E-05	3.85677E-05	0	0	0	
0.185333	-0.00626417	0.000271181	5.7593E-05	2.62082E-05	0	0	0	
0.1855	0.00806568	-0.00138512	8.70406E-05	2.83296E-05	0	0	0	
0.185667	-0.00855514	0.00167884	0.000126381	3.32161E-05	0	0	0	
0.185833	0.00033169	-0.000145877	0.000164181	3.25864E-05	0	0	0	
0.186	0.00864262	-0.00133067	0.000163792	2.39948E-05	0	0	0	
0.186167	-0.00724005	0.00164625	0.000150403	2.24145E-05	0	0	0	
0.186333	-0.00271434	-0.000911292	0.000131327	2.40753E-05	0	0	0	
0.1865	0.0048417	-0.000362842	0.000135676	2.3427E-05	0	0	0	
0.186667	-0.00466994	0.000641237	0.000105662	1.75544E-05	0	0	0	
0.186833	0.005892	-0.000174838	0.000113403	1.60495E-05	0	0	0	
0.187	-0.00215847	-0.000736345	8.88019E-05	2.46364E-05	0	0	0	
0.187167	9.30723E-05	0.00116587	0.00013608	3.46604E-05	0	0	0	
0.187333	-0.00201025	-0.000317471	0.000153864	3.38461E-05	0	0	0	
0.1875	0.00792182	-0.0012682	0.000214291	2.40754E-05	0	0	0	
0.187667	0.0069136	0.0021386	0.00023333	2.12236E-05	0	0	0	
0.187833	-0.00690634	-0.00122005	0.000228871	2.8311E-05	0	0	0	
0.188	0.00413993	0.000275953	0.000191018	3.74345E-05	0	0	0	
0.188167	0.00558535	8.59702E-05	0.000127396	3.63975E-05	0	0	0	
0.188333	-0.00400415	0.000291065	0.000111575	2.66444E-05	0	0	0	
0.1885	0.00704597	-0.000697543	0.000105413	1.93408E-05	0	0	0	
0.188667	-0.010018	0.00161454	0.000138795	1.68119E-05	0	0	0	
0.188833	0.00404379	-0.00224628	0.000153294	2.63886E-05	0	0	0	
0.189	0.00776878	0.00186658	0.00017158	3.33027E-05	0	0	0	
0.189167	-0.00384405	-0.00142341	0.000162219	3.66565E-05	0	0	0	
0.189333	-0.00278246	0.000895716	0.000125751	3.25535E-05	0	0	0	
0.1895	0.00580918	9.90235E-05	9.08175E-05	2.47156E-05	0	0	0	
0.189667	-0.00487261	-0.000877308	8.98057E-05	2.06687E-05	0	0	0	
0.189833	-0.00811651	0.000390075	0.000110932	1.84265E-05	0	0	0	
0.19	0.0024422	0.000565336	0.000174939	1.69005E-05	0	0	0	
0.190167	-0.00620643	-0.000748625	0.000156895	1.35605E-05	0	0	0	
0.190333	-0.0037656	0.000237107	0.000168883	1.17303E-05	0	0	0	
0.1905	0.00978769	0.000225982	0.000144406	1.08387E-05	0	0	0	
0.190667	-0.00796214	-0.000924932	0.000198992	1.3634E-05	0	0	0	
0.190833	0.00221233	0.000551989	0.000172418	1.7267E-05	0	0	0	
0.191	-0.0172785	0.000304249	0.000168845	2.23376E-05	0	0	0	
0.191167	0.00859018	-0.00124105	0.00022434	2.53047E-05	0	0	0	
0.191333	0.0149508	0.00122863	0.000341261	2.71542E-05	0	0	0	
0.1915	-0.0101736	-0.000952375	0.000354412	2.66383E-05	0	0	0	
0.191667	-0.0129222	0.000322738	0.000384807	2.33211E-05	0	0	0	
0.191833	0.00599011	6.91272E-05	0.000311397	1.53535E-05	0	0	0	
0.192	-0.00430001	-7.11354E-05	0.000292396	9.67133E-06	0	0	0	
0.192167	0.00814552	-0.000557154	0.000171806	6.02482E-06	0	0	0	
0.192333	-0.0153359	0.000854806	0.000173237	9.02798E-06	0	0	0	
0.1925	0.00220747	-0.00122511	0.000220306	1.35121E-05	0	0	0	
0.192667	0.0056894	0.000797871	0.000258958	1.89455E-05	0	0	0	
0.192833	-0.00237126	0.000629751	0.000207263	1.90439E-05	0	0	0	
0.193	-0.0045421	-0.00122213	0.000165207	2.47551E-05	0	0	0	
0.193167	0.0071746	0.00177265	0.000125969	2.53828E-05	0	0	0	
0.193333	-0.00454556	-0.000497591	0.000143047	2.85948E-05	0	0	0	
0.1935	0.0019448	-0.00053674	0.000120896	2.02621E-05	0	0	0	
0.193667	-0.00615723	0.00169108	0.000102725	2.32431E-05	0	0	0	
0.193833	0.00721396	-0.00152262	0.000108516	2.97755E-05	0	0	0	
0.194	-0.00188336	-0.000638639	0.000108586	3.83711E-05	0	0	0	
0.194167	-0.000605033	0.00133797	9.15874E-05	3.94686E-05	0	0	0	
0.194333	-0.0045341	-0.00103853	8.66598E-05	3.71914E-05	0	0	0	
0.1945	-0.00619985	0.000151049	8.41295E-05	2.93458E-05	0	0	0	
0.194667	0.00293096	0.000951636	0.000111075	2.28221E-05	0	0	0	
0.194833	0.00192306	-0.00149238	0.000119957	2.33533E-05	0	0	0	
0.195	-0.00710444	0.00102231	0.000135478	3.11332E-05	0	0	0	
0.195167	0.00569619	-0.000608936	0.000141293	3.22953E-05	0	0	0	
0.195333	-0.00588273	0.000859817	0.000130184	2.4317E-05	0	0	0	
0.1955	0.00172979	-0.000347009	0.000111156	1.5811E-05	0	0	0	
0.195667	-8.81584E-05	-0.00034888	0.000124251	1.32139E-05	0	0	0	
0.195833	-0.00526042	-7.76701E-05	0.000186937	1.2625E-05	0	0	0	
0.196	0.0110716	0.00132833	0.000223152	1.48635E-05	0	0	0	
0.196167	-0.0129332	-0.00221182	0.00026284	2.44791E-05	0	0	0	
0.196333	-0.0146141	0.00170014	0.000304097	3.51411E-05	0	0	0	
0.1965	0.0236944	-0.00121339	0.000371935	3.95084E-05	0	0	0	
0.196667	-0.0178825	0.000486078	0.000408175	3.03829E-05	0	0	0	
0.196833	0.00599137	8.17971E-05	0.000372897	2.07427E-05	0	0	0	
0.197	-0.0126112	3.8313E-05	0.000348675	1.54566E-05	0	0	0	
0.197167	-0.00585075	-0.00165711	0.000321875	1.78056E-05	0	0	0	
0.197333	0.00502104	0.00202794	0.000327087	2.59756E-05	0	0	0	
0.1975	-0.00322211	-0.000945394	0.000237753	3.04735E-05	0	0	0	
0.197667	-0.0103744	-0.000343948	0.000223038	2.83621E-05	0	0	0	
0.197833	0.0113949	0.000576717	0.000184649	2.06155E-05	0	0	0	
0.198	-0.0125134	-8.65741E-05	0.000247396	1.27668E-05	0	0	0	
0.198167	0.00706823	-0.000559267	0.000236193	8.81662E-06	0	0	0	
0.198333	-0.0121778	0.000983896	0.000218019	8.53938E-06	0	0	0	
0.1985	0.013292	-0.000501921	0.000214337	1.28263E-05	0	0	0	
0.198667	-0.00404808	-0.000120952	0.000235087	1.7381E-05	0	0	0	
0.198833	-0.00172862	0.000190397	0.00027067	1.60303E-05	0	0	0	
0.199	-0.00334716	0.000604166	0.000219789	1.36028E-05	0	0	0	
0.199167	0.00613331	-0.000378758	0.000156882	1.17669E-05	0	0	0	
0.199333	-0.00453713	0.000326961	0.000111629	9.8377E-06	0	0	0	
0.1995	0.00532474	-0.000100223	0.000115501	7.94837E-06	0	0	0	
0.199667	-0.00634135	-0.000130431	0.000111469	4.47162E-06	0	0	0	
0.199833	0.00299588	-0.000518207	0.000111449	3.80085E-06	0	0	0	
0.2	-0.00143207	0.00184589	0.000127165	9.80135E-06	0	0	0	
0.200167	0.00151478	-0.00202079	0.000131666	2.28383E-05	0	0	0	
0.200333	-0.00186849	0.000796499	0.000129063	3.0206E-05	0	0	0	
0.2005	-0.000364658	0.000447915	0.000117213	2.69772E-05	0	0	0	
0.200667	0.00247579	-0.00085334	0.000102725	1.90372E-05	0	0	0	
0.200833	-0.000202557	0.000483131	7.83484E-05	1.63259E-05	0	0	0	
0.201	-0.0044535	0.000340747	7.07616E-05	1.44083E-05	0	0	0	
0.201167	0.00412443	-0.000798768	0.000122316	1.41366E-05	0	0	0	
0.201333	-0.00186553	0.00165127	0.000196335	1.76637E-05	0	0	0	
0.2015	0.00104584	-0.00128287	0.000223058	2.5598E-05	0	0	0	
0.201667	0.000289767	0.000579911	0.000172775	2.50422E-05	0	0	0	
0.201833	-0.00349594	-0.000260148	9.2642E-05	1.91406E-05	0	0	0	
0.202	0.000762474	0.000201456	5.41458E-05	1.14065E-05	0	0	0	
0.202167	0.00265072	6.94416E-05	3.75275E-05	8.64176E-06	0	0	0	
0.202333	-0.000439546	0.000124162	7.33915E-05	7.67868E-06	0	0	0	
0.2025	-0.00205467	-0.000127174	9.41238E-05	6.55843E-06	0	0	0	
0.202667	-0.000641872	-4.97641E-05	9.08495E-05	7.08304E-06	0	0	0	
0.202833	0.000200209	-0.000461102	4.97441E-05	8.38756E-06	0	0	0	
0.203	0.00460734	0.000839819	3.25074E-05	9.92977E-06	0	0	0	
0.203167	-0.00373719	1.37635E-05	5.60889E-05	1.25175E-05	0	0	0	
0.203333	0.000693425	-7.72065E-05	7.14892E-05	1.47951E-05	0	0	0	
0.2035	-0.00213968	6.54372E-06	8.93989E-05	1.29361E-05	0	0	0	
0.203667	0.00413753	5.32338E-07	8.52771E-05	9.10172E-06	0	0	0	
0.203833	0.00364192	0.000158898	8.47875E-05	3.93163E-06	0	0	0	
0.204	-0.00520367	0.000150398	7.66381E-05	3.21666E-06	0	0	0	
0.204167	-0.00250889	-0.00116471	0.000105171	6.79101E-06	0	0	0	
0.204333	0.00441092	0.00215239	0.00011918	1.57985E-05	0	0	0	
0.2045	-0.0021602	-0.00188689	0.000111065	2.86179E-05	0	0	0	
0.204667	0.00246121	0.00102007	7.10619E-05	3.41281E-05	0	0	0	
0.204833	0.00190109	-0.000792385	6.33851E-05	3.17177E-05	0	0	0	
0.205	-0.00934247	0.000542427	9.21834E-05	2.33281E-05	0	0	0	
0.205167	0.00570173	-0.000251966	0.000124668	1.75118E-05	0	0	0	
0.205333	0.00106267	0.000192034	0.000142467	1.45874E-05	0	0	0	
0.2055	-0.00240198	-0.000699756	0.000116602	1.26533E-05	0	0	0	
0.205667	0.00266657	0.00143469	8.26208E-05	1.54557E-05	0	0	0	
0.205833	-0.00360643	-0.00155233	6.65735E-05	2.18271E-05	0	0	0	
0.206	0.000608354	0.000670522	8.44177E-05	2.90976E-05	0	0	0	
0.206167	0.00342046	-0.000189443	9.42533E-05	2.82193E-05	0	0	0	
0.206333	-0.000583673	0.000838009	0.000109619	1.93097E-05	0	0	0	
0.2065	-0.00397543	-0.0015338	0.000129873	1.98E-05	0	0	0	
0.206667	0.00446704	0.0019312	0.000136202	3.09855E-05	0	0	0	
0.206833	-1.77601E-05	-0.000999981	0.000108561	4.11437E-05	0	0	0	
0.207	-0.0013419	0.000309651	4.68657E-05	3.5697E-05	0	0	0	
0.207167	0.00134755	0.000107839	3.7348E-05	2.42864E-05	0	0	0	
0.207333	-0.00305611	0.00019039	4.03356E-05	1.87368E-05	0	0	0	
0.2075	0.00765994	-0.000907031	6.5456E-05	1.60617E-05	0	0	0	
0.207667	-0.00981101	0.00169219	0.000110879	1.84859E-05	0	0	0	
0.207833	0.00515356	-0.00130105	0.000145802	2.30536E-05	0	0	0	
0.208	-0.0064062	0.000292534	0.000161037	2.60268E-05	0	0	0	
0.208167	0.00756523	0.000851621	0.000138106	2.17586E-05	0	0	0	
0.208333	-0.000994524	-0.000959889	0.000128662	1.81156E-05	0	0	0	
0.2085	-0.00712143	-0.000532466	0.000145594	1.66025E-05	0	0	0	
0.208667	0.00525445	0.00207916	0.000140556	2.28626E-05	0	0	0	
0.208833	0.00300236	-0.00249485	0.000151626	3.56234E-05	0	0	0	
0.209	-0.0213927	0.00145362	0.000240939	4.91693E-05	0	0	0	
0.209167	0.0113933	0.00101278	0.000466774	4.5423E-05	0	0	0	
0.209333	0.00698683	-0.0036983	0.000556834	4.35277E-05	0	0	0	
0.2095	-0.0131514	0.00384997	0.000541567	5.65116E-05	0	0	0	
0.209667	0.0258531	-0.00109597	0.000507938	7.99253E-05	0	0	0	
0.209833	-0.0164922	-0.00240053	0.000576336	8.85512E-05	0	0	0	
0.21	-0.0247368	0.00596117	0.000584063	9.52547E-05	0	0	0	
0.210167	0.0228406	-0.00587806	0.000542417	0.000110696	0	0	0	
0.210333	-0.00713155	0.00191305	0.000425265	0.000118833	0	0	0	
0.2105	0.031846	0.00228415	0.00041727	9.78893E-05	0	0	0	
0.210667	-0.0456687	-0.00190335	0.00051899	7.17255E-05	0	0	0	
0.210833	0.00601018	0.0011602	0.000620405	6.15571E-05	0	0	0	
0.211	0.0163713	-0.00100924	0.000588364	7.43065E-05	0	0	0	
0.211167	0.0139596	-0.000440654	0.000461432	8.65605E-05	0	0	0	
0.211333	-0.0511534	0.0030319	0.000454461	8.64811E-05	0	0	0	
0.2115	0.0497039	-0.0029032	0.000717028	8.37546E-05	0	0	0	
0.211667	-0.0305825	0.00272064	0.000877637	7.34202E-05	0	0	0	
0.211833	0.0126937	-0.000169302	0.00107172	5.39637E-05	0	0	0	
0.212	0.0224665	-0.00312913	0.00103123	4.81756E-05	0	0	0	
0.212167	-0.0300388	0.000397953	0.000968766	6.35561E-05	0	0	0	
0.212333	0.00501039	0.00179352	0.000836698	9.52854E-05	0	0	0	
0.2125	0.0330503	-0.00332184	0.00072551	0.000107224	0	0	0	
0.212667	-0.0341438	0.00209036	0.000728516	9.66051E-05	0	0	0	
0.212833	0.0176729	-0.00135742	0.000668928	8.65326E-05	0	0	0	
0.213	-0.00498308	0.000594819	0.000676743	7.21858E-05	0	0	0	
0.213167	0.00122622	0.000539904	0.000630938	5.25167E-05	0	0	0	
0.213333	-0.00115721	-0.00280498	0.000484792	5.22891E-05	0	0	0	
0.2135	0.0067028	0.0048355	0.000488898	8.48752E-05	0	0	0	
0.213667	-0.0308843	-0.00478489	0.000480169	0.000135	0	0	0	
0.213833	0.0426356	0.00329018	0.000709699	0.000149316	0	0	0	
0.214	-0.0310386	-0.000151468	0.000766614	0.000110102	0	0	0	
0.214167	0.00195382	-0.00232654	0.000711164	8.10183E-05	0	0	0	
0.214333	0.0109736	0.00429214	0.00051525	8.08645E-05	0	0	0	
0.2145	0.000678862	-0.00265935	0.000301769	9.21595E-05	0	0	0	
0.214667	-0.0177161	0.00178745	0.000239214	9.08343E-05	0	0	0	
0.214833	0.0182682	7.79865E-05	0.000317887	9.04797E-05	0	0	0	
0.215	-0.00511675	-0.00242476	0.000401346	0.000107346	0	0	0	
0.215167	0.00497587	0.00258256	0.000343056	0.000113301	0	0	0	
0.215333	0.00507834	-0.00175031	0.000330044	8.82285E-05	0	0	0	
0.2155	-0.01664	0.0010313	0.000419188	5.75044E-05	0	0	0	
0.215667	0.0151315	0.00083972	0.000564497	3.39234E-05	0	0	0	
0.215833	-0.00278744	-0.000286067	0.00046457	2.60987E-05	0	0	0	
0.216	-0.0109783	0.000266273	0.000332601	1.84052E-05	0	0	0	
0.216167	0.0312233	-0.000695807	0.000288819	1.21377E-05	0	0	0	
0.216333	-0.039018	0.0023569	0.000467401	1.51239E-05	0	0	0	
0.2165	0.0258426	-0.00176904	0.00057784	2.59935E-05	0	0	0	
0.216667	-0.0104308	0.000659642	0.000635022	4.46314E-05	0	0	0	
0.216833	-0.00779866	0.000809123	0.000599603	5.61278E-05	0	0	0	
0.217	0.0239006	-0.00072473	0.000549676	5.15531E-05	0	0	0	
0.217167	-0.0192679	0.000786581	0.000479721	3.74856E-05	0	0	0	
0.217333	-0.00367305	-0.000920949	0.000483792	2.41894E-05	0	0	0	
0.2175	0.0165581	0.000628492	0.00044119	2.43659E-05	0	0	0	
0.217667	-0.0133281	0.000566535	0.000410664	2.49671E-05	0	0	0	
0.217833	0.0116553	-0.00148064	0.000311649	2.80912E-05	0	0	0	
0.218	-0.0134382	0.0025977	0.000319524	3.69347E-05	0	0	0	
0.218167	0.00337846	-0.00235398	0.000412084	4.62061E-05	0	0	0	
0.218333	0.00491122	0.00125016	0.000451496	4.75996E-05	0	0	0	
0.2185	-0.0079693	0.00108526	0.000362811	4.22891E-05	0	0	0	
0.218667	-0.00150218	-0.00159478	0.00023095	3.46546E-05	0	0	0	
0.218833	0.00943111	0.000903776	0.000170044	2.90046E-05	0	0	0	
0.219	-0.0183999	0.000156335	0.000214366	2.71759E-05	0	0	0	
0.219167	0.019072	-0.00125775	0.000276785	2.90522E-05	0	0	0	
0.219333	-0.0188305	0.0023957	0.00034534	3.46245E-05	0	0	0	
0.2195	0.0062113	-0.00138934	0.000337766	3.63832E-05	0	0	0	
0.219667	0.00102063	0.000676453	0.000280979	3.70041E-05	0	0	0	
0.219833	-0.00587078	-0.00096205	0.000167708	3.77465E-05	0	0	0	
0.22	-0.000271556	0.00166624	0.000113101	3.73684E-05	0	0	0	
0.220167	0.00641669	-0.00127004	9.99937E-05	3.801E-05	0	0	0	
0.220333	-0.00996857	0.00043575	0.000126965	3.35346E-05	0	0	0	
0.2205	0.0109159	0.000555997	0.00016073	2.72409E-05	0	0	0	
0.220667	-0.00301987	-0.000323333	0.000185372	2.04072E-05	0	0	0	
0.220833	-0.0034294	-0.00117131	0.000185927	1.67967E-05	0	0	0	
0.221	-0.00225271	0.00221185	0.00014086	2.41716E-05	0	0	0	
0.221167	0.00364349	-0.00163571	9.42567E-05	3.58105E-05	0	0	0	
0.221333	-0.00233336	0.000486449	9.09995E-05	4.1692E-05	0	0	0	
0.2215	0.00527375	0.000475422	0.000126787	3.5868E-05	0	0	0	
0.221667	-0.00491462	-0.000687761	0.000151428	2.35597E-05	0	0	0	
0.221833	0.00178324	0.000242303	0.000156525	1.48347E-05	0	0	0	
0.222	-0.00230707	0.000339431	0.000149588	1.08156E-05	0	0	0	
0.222167	0.00669395	-0.000567661	0.000136318	1.04074E-05	0	0	0	
0.222333	-0.00842718	0.000529648	0.00012804	1.2354E-05	0	0	0	
0.2225	0.00263825	6.52545E-06	0.000145742	1.58882E-05	0	0	0	
0.222667	0.00353642	-0.000705749	0.000128757	1.55828E-05	0	0	0	
0.222833	0.00536117	0.00135472	0.00013441	1.96399E-05	0	0	0	
0.223	-0.0102341	-0.00152207	0.000122777	2.46162E-05	0	0	0	
0.223167	0.00334877	-0.000163227	0.000154869	2.51325E-05	0	0	0	
0.223333	0.00234402	0.00120444	0.000116639	2.21527E-05	0	0	0	
0.2235	0.000663495	-0.00104052	9.16079E-05	1.89325E-05	0	0	0	
0.223667	-0.00125499	0.000350481	5.91503E-05	1.79584E-05	0	0	0	
0.223833	-0.0014113	-0.000110418	5.42557E-05	1.48657E-05	0	0	0	
0.224	0.00287645	0.000149242	4.16126E-05	1.10959E-05	0	0	0	
0.224167	-0.000997032	4.8516E-05	3.82092E-05	1.27454E-05	0	0	0	
0.224333	0.00126679	0.000100996	3.68691E-05	1.21763E-05	0	0	0	
0.2245	-0.00287272	-0.000435281	5.17747E-05	1.16696E-05	0	0	0	
0.224667	0.00254781	0.000887617	5.30908E-05	1.11E-05	0	0	0	
0.224833	0.00267735	-0.000821023	8.88448E-05	1.43449E-05	0	0	0	
0.225	-0.00783855	0.000424487	0.000115621	1.495E-05	0	0	0	
0.225167	0.00786844	3.3595E-05	0.000147474	1.10805E-05	0	0	0	
0.225333	-0.00424878	0.000485185	0.000145821	7.0121E-06	0	0	0	
0.2255	0.00366849	-0.000856712	0.000132235	7.84661E-06	0	0	0	
0.225667	-0.00345655	0.000950766	0.000117082	1.2194E-05	0	0	0	
0.225833	0.00748157	-0.000927681	0.000109137	1.70454E-05	0	0	0	
0.226	-0.00541053	0.000671563	0.000106942	1.75329E-05	0	0	0	
0.226167	-2.26343E-05	-3.88948E-05	0.000100681	1.47032E-05	0	0	0	
0.226333	0.00185191	-0.000115705	6.96995E-05	1.07117E-05	0	0	0	
0.2265	0.00444714	7.67825E-05	6.94152E-05	9.25186E-06	0	0	0	
0.226667	-0.0102197	0.000257199	0.000103017	8.63396E-06	0	0	0	
0.226833	0.0117117	-0.000944018	0.000169314	9.96192E-06	0	0	0	
0.227	-0.00770941	0.000990442	0.000186501	1.26969E-05	0	0	0	
0.227167	0.0038254	-0.000698535	0.000173203	1.5835E-05	0	0	0	
0.227333	-0.00217075	0.000426048	0.000118157	1.53491E-05	0	0	0	
0.2275	0.000785566	-0.000385103	7.74017E-05	1.20283E-05	0	0	0	
0.227667	-0.00259876	0.000802522	5.48001E-05	1.26453E-05	0	0	0	
0.227833	0.0109614	-0.000985499	0.00010402	1.62386E-05	0	0	0	
0.228	-0.00870647	0.00096707	0.000147611	2.0306E-05	0	0	0	
0.228167	0.00493893	-0.000408824	0.000193751	1.96124E-05	0	0	0	
0.228333	0.00315152	0.000209418	0.000164228	1.54768E-05	0	0	0	
0.2285	0.00422936	-5.53037E-05	0.000145824	1.01545E-05	0	0	0	
0.228667	-0.00888324	0.000684353	0.000119879	8.00617E-06	0	0	0	
0.228833	0.00657029	-0.000872416	0.000141767	1.29049E-05	0	0	0	
0.229	-0.00100399	0.000558574	0.000137429	1.86966E-05	0	0	0	
0.229167	0.00551806	-0.000471788	0.000123334	2.03339E-05	0	0	0	
0.229333	-0.0050225	0.000843939	0.000104788	1.69326E-05	0	0	0	
0.2295	0.00554597	-0.000812478	0.000108662	1.43506E-05	0	0	0	
0.229667	-0.00707911	0.00107982	0.000129571	1.57942E-05	0	0	0	
0.229833	0.0112749	-0.000990295	0.000141273	1.91856E-05	0	0	0	
0.23	-0.00488615	0.00102855	0.000171477	2.35142E-05	0	0	0	
0.230167	-0.000802816	-0.00115061	0.000137225	2.66056E-05	0	0	0	
0.230333	0.00317948	0.00146406	9.81849E-05	2.77495E-05	0	0	0	
0.2305	-0.00237066	-0.00166178	5.93067E-05	2.8855E-05	0	0	0	
0.230667	-0.00273538	0.00181808	8.44401E-05	2.9689E-05	0	0	0	
0.230833	0.00440156	-0.00145801	9.03618E-05	3.20754E-05	0	0	0	
0.231	-0.000972429	0.000938106	8.99224E-05	3.12413E-05	0	0	0	
0.231167	-0.000479786	-0.000515614	7.65711E-05	2.80607E-05	0	0	0	
0.231333	-0.0230128	2.84147E-05	0.000129282	1.90941E-05	0	0	0	
0.2315	0.005479	-0.000536838	0.000199602	1.34645E-05	0	0	0	
0.231667	0.00439646	0.0019552	0.000283491	1.68428E-05	0	0	0	
0.231833	-0.00856551	-0.00216957	0.000252473	2.65517E-05	0	0	0	
0.232	-0.00684606	0.000193441	0.000241	3.66681E-05	0	0	0	
0.232167	0.0166415	0.00230605	0.000236717	4.53432E-05	0	0	0	
0.232333	-0.0214926	-0.00274199	0.000307015	4.79367E-05	0	0	0	
0.2325	0.0106108	0.00139146	0.000349486	4.93963E-05	0	0	0	
0.232667	0.00346245	0.00108406	0.000301124	5.00801E-05	0	0	0	
0.232833	-0.00439189	-0.00280692	0.00023622	5.18787E-05	0	0	0	
0.233	0.00354623	0.00279633	0.0001356	5.24008E-05	0	0	0	
0.233167	-0.00388925	-0.00034176	9.3611E-05	6.23113E-05	0	0	0	
0.233333	-0.00617402	-0.00214593	0.000143363	8.09013E-05	0	0	0	
0.2335	0.024177	0.003137	0.000235727	8.61401E-05	0	0	0	
0.233667	-0.0131367	-0.00148764	0.000343532	7.05393E-05	0	0	0	
0.233833	-0.0101591	-0.00155559	0.000412811	5.88223E-05	0	0	0	
0.234	0.00253258	0.00357553	0.000317467	5.83825E-05	0	0	0	
0.234167	0.0129187	-0.00271344	0.000270481	6.27289E-05	0	0	0	
0.234333	-0.00464489	2.43946E-05	0.000178081	6.41502E-05	0	0	0	
0.2345	-0.000591634	0.00188966	0.000196973	6.14426E-05	0	0	0	
0.234667	-0.0120927	-0.00123303	0.000192377	5.23237E-05	0	0	0	
0.234833	0.0129882	-0.00081363	0.000197525	4.7579E-05	0	0	0	
0.235	-0.00167309	0.00205312	0.00022216	4.40576E-05	0	0	0	
0.235167	0.000389015	-0.000958587	0.00017874	4.288E-05	0	0	0	
0.235333	-0.00480032	-0.000445657	0.000119138	4.1843E-05	0	0	0	
0.2355	0.00347574	0.00152948	9.0855E-05	4.4234E-05	0	0	0	
0.235667	0.00107616	-0.000910999	7.754E-05	4.29069E-05	0	0	0	
0.235833	0.00512489	-0.000656729	0.000101521	3.80413E-05	0	0	0	
0.236	-0.00680711	0.00219073	0.000105888	3.64798E-05	0	0	0	
0.236167	0.00961691	-0.00197577	0.000141915	4.13087E-05	0	0	0	
0.236333	-0.007368	0.000286233	0.00015639	4.58639E-05	0	0	0	
0.2365	0.00577706	0.00129301	0.000152293	5.07323E-05	0	0	0	
0.236667	-0.00184356	-0.00125466	0.000133968	4.79615E-05	0	0	0	
0.236833	0.00603046	0.000124006	0.000103677	4.05979E-05	0	0	0	
0.237	-0.00465362	0.00160103	0.000104115	3.68207E-05	0	0	0	
0.237167	0.00107801	-0.00275553	9.14319E-05	4.13393E-05	0	0	0	
0.237333	-0.00443181	0.00110162	0.000118453	4.42862E-05	0	0	0	
0.2375	0.0151152	0.00125657	0.000148233	4.93185E-05	0	0	0	
0.237667	-0.010424	-0.00188607	0.000267185	4.69121E-05	0	0	0	
0.237833	-0.0139912	-9.16212E-05	0.000649239	4.77382E-05	0	0	0	
0.238	0.0586987	0.00286154	0.00109637	4.83186E-05	0	0	0	
0.238167	-0.0785884	-0.00503237	0.00139371	6.51567E-05	0	0	0	
0.238333	0.0364383	0.00497135	0.00134278	8.54092E-05	0	0	0	
0.2385	0.0156123	-0.004146	0.0012336	9.20467E-05	0	0	0	
0.238667	-0.0420143	0.00100113	0.00098785	8.40182E-05	0	0	0	
0.238833	0.0484291	0.00285224	0.000916522	5.95392E-05	0	0	0	
0.239	-0.0323612	-0.00313327	0.000991965	5.09962E-05	0	0	0	
0.239167	-0.0226865	0.00125232	0.00139067	6.26974E-05	0	0	0	
0.239333	0.0506653	0.00144458	0.0015238	9.22022E-05	0	0	0	
0.2395	-0.0309446	-0.00240686	0.00125385	0.000110554	0	0	0	
0.239667	-0.0117897	0.00203587	0.000922292	0.000104416	0	0	0	
0.239833	0.0264541	0.00118191	0.000630878	7.10637E-05	0	0	0	
0.24	-0.008712	-0.00289861	0.000521783	5.32173E-05	0	0	0	
0.240167	0.0042717	0.00401132	0.000347171	5.05835E-05	0	0	0	
0.240333	0.00650479	-0.00211136	0.000271974	6.15836E-05	0	0	0	
0.2405	-0.000469997	-0.000351985	0.000180391	6.2964E-05	0	0	0	
0.240667	-0.0124806	0.00246153	0.000188558	6.17754E-05	0	0	0	
0.240833	0.0114374	-0.00240211	0.000176118	5.75246E-05	0	0	0	
0.241	0.00898425	0.000597358	0.00025765	4.93353E-05	0	0	0	
0.241167	-0.0111686	0.00128317	0.00025748	4.3919E-05	0	0	0	
0.241333	0.000567143	-0.00153351	0.00023839	3.84587E-05	0	0	0	
0.2415	0.0044343	0.000387129	0.000165349	3.64693E-05	0	0	0	
0.241667	-0.000889095	0.00153352	9.65184E-05	3.66736E-05	0	0	0	
0.241833	0.0018172	-0.00170927	5.63175E-05	3.72739E-05	0	0	0	
0.242	-0.00170692	0.000232789	3.8556E-05	3.78237E-05	0	0	0	
0.242167	-0.000114581	0.00145807	2.99194E-05	3.50268E-05	0	0	0	
0.242333	-0.00400997	-0.00175699	7.29272E-05	3.50237E-05	0	0	0	
0.2425	0.0110357	0.000399602	0.000128519	3.56936E-05	0	0	0	
0.242667	-0.00852712	0.00108568	0.000172757	3.70679E-05	0	0	0	
0.242833	0.00207686	-0.00149865	0.000195629	3.71298E-05	0	0	0	
0.243	0.0111312	0.00122172	0.000235943	3.25362E-05	0	0	0	
0.243167	-0.0146048	-0.000321149	0.000279622	2.81085E-05	0	0	0	
0.243333	0.00863411	-0.000371206	0.000272261	2.75557E-05	0	0	0	
0.2435	-0.00170382	0.000222974	0.000220348	2.32971E-05	0	0	0	
0.243667	0.000899678	0.000520406	0.000167049	1.50843E-05	0	0	0	
0.243833	8.27886E-05	-0.00115315	0.00015002	1.19631E-05	0	0	0	
0.244	0.00203819	0.000935966	0.00013	1.36055E-05	0	0	0	
0.244167	-0.00209579	-0.000690337	0.000102315	1.75976E-05	0	0	0	
0.244333	-0.00194034	0.000603217	7.84828E-05	1.67442E-05	0	0	0	
0.2445	0.00510125	-0.000759947	8.47603E-05	1.48474E-05	0	0	0	
0.244667	-0.00608014	0.000773583	0.000101562	1.47519E-05	0	0	0	
0.244833	0.00407861	-0.000662406	0.000107913	1.45197E-05	0	0	0	
0.245	-0.0017885	0.000571219	8.99085E-05	1.46624E-05	0	0	0	
0.245167	-0.00263779	-0.000178773	7.37219E-05	1.18175E-05	0	0	0	
0.245333	0.0033851	0.000635088	5.5969E-05	1.08834E-05	0	0	0	
0.2455	0.00153644	-0.000910914	6.53458E-05	1.16012E-05	0	0	0	
0.245667	-0.00507068	0.00121758	6.63207E-05	1.5101E-05	0	0	0	
0.245833	0.00291171	-0.000745712	8.05912E-05	1.93625E-05	0	0	0	
0.246	-0.00471888	0.000287345	8.72246E-05	2.0893E-05	0	0	0	
0.246167	0.0108611	4.94862E-05	0.000120921	1.63809E-05	0	0	0	
0.246333	-0.00948009	0.000846735	0.000156543	1.48321E-05	0	0	0	
0.2465	0.0027698	-0.00181544	0.000171355	1.86511E-05	0	0	0	
0.246667	0.000477094	0.00205012	0.000129736	2.90421E-05	0	0	0	
0.246833	0.00485991	-0.00171092	8.56703E-05	3.44261E-05	0	0	0	
0.247	-0.00254999	0.00067796	6.69073E-05	3.26339E-05	0	0	0	
0.247167	-0.00348792	-0.000114933	0.000110059	2.61975E-05	0	0	0	
0.247333	-0.00123602	0.000330612	0.00011185	2.59486E-05	0	0	0	
0.2475	0.00893145	-0.00079896	0.000145932	3.06645E-05	0	0	0	
0.247667	-0.00435285	0.00100428	0.000125491	3.66036E-05	0	0	0	
0.247833	0.00187792	-0.000830812	0.00014802	3.38557E-05	0	0	0	
0.248	-0.00723352	0.000654088	0.000115536	2.59175E-05	0	0	0	
0.248167	0.00685797	0.000386358	0.000129761	1.75861E-05	0	0	0	
0.248333	0.000624082	-0.000829	0.000168153	1.63673E-05	0	0	0	
0.2485	-0.00678212	0.000368152	0.000182245	2.01722E-05	0	0	0	
0.248667	0.00248135	2.34162E-05	0.000167793	2.20425E-05	0	0	0	
0.248833	0.00557607	-2.52298E-05	0.000154208	1.57323E-05	0	0	0	
0.249	-0.0127403	-0.000248326	0.000172963	8.77307E-06	0	0	0	
0.249167	0.0114093	0.000145925	0.000209597	4.13536E-06	0	0	0	
0.249333	-0.00346456	-0.000272292	0.000212032	6.20728E-06	0	0	0	
0.2495	-0.00550774	0.000409118	0.000194894	8.37085E-06	0	0	0	
0.249667	0.0025086	-9.33658E-05	0.000142967	1.17785E-05	0	0	0	
0.249833	0.00178816	-0.000511496	0.000128434	1.1799E-05	0	0	0	
0.25	-0.0071332	0.000472256	0.000134764	1.04949E-05	0	0	0	
0.250167	0.0104621	0.000285982	0.000169472	1.06326E-05	0	0	0	
0.250333	-0.0084018	-0.000518847	0.000173418	1.0283E-05	0	0	0	
0.2505	-0.00117232	-0.00043278	0.000205923	1.68989E-05	0	0	0	
0.250667	0.0115442	0.00202855	0.000237156	2.03634E-05	0	0	0	
0.250833	-0.0135094	-0.00187297	0.000262442	3.15364E-05	0	0	0	
0.251	-0.00373223	-0.000377239	0.000315396	4.30965E-05	0	0	0	
0.251167	0.0162945	0.00255299	0.000335908	5.69886E-05	0	0	0	
0.251333	-0.013202	-0.00295767	0.000339054	5.80292E-05	0	0	0	
0.2515	0.00742829	0.000323365	0.000273188	6.23514E-05	0	0	0	
0.251667	-0.0282059	0.00355852	0.000350828	7.72248E-05	0	0	0	
0.251833	-0.00466096	-0.00547398	0.000430138	9.13252E-05	0	0	0	
0.252	0.0115855	0.00333436	0.00049338	9.50096E-05	0	0	0	
0.252167	-0.00312215	0.000667993	0.000357699	9.63506E-05	0	0	0	
0.252333	-0.0123342	-0.00383093	0.000263051	9.72959E-05	0	0	0	
0.2525	0.00409459	0.00362969	0.000169046	8.83129E-05	0	0	0	
0.252667	-0.0154266	0.000313594	0.000168678	8.76153E-05	0	0	0	
0.252833	0.0199686	-0.00455803	0.000257359	9.87728E-05	0	0	0	
0.253	-0.0174681	0.00522209	0.000303015	0.000107296	0	0	0	
0.253167	0.00527012	-0.00142958	0.000354259	9.86864E-05	0	0	0	
0.253333	-0.00608106	-0.00265726	0.000226688	9.22341E-05	0	0	0	
0.2535	0.00445021	0.00427605	0.000178567	8.30156E-05	0	0	0	
0.253667	0.00169865	-0.00190905	9.75988E-05	8.19778E-05	0	0	0	
0.253833	-0.00203748	-0.00167587	9.08137E-05	8.23188E-05	0	0	0	
0.254	-0.00319715	0.0032758	8.12711E-05	8.19287E-05	0	0	0	
0.254167	0.00229506	-0.00197835	9.27566E-05	7.2804E-05	0	0	0	
0.254333	-0.00155404	-0.000584465	8.79059E-05	6.66404E-05	0	0	0	
0.2545	0.00457103	0.00247443	7.80706E-05	6.69955E-05	0	0	0	
0.254667	-0.00240835	-0.0019838	7.13747E-05	6.19402E-05	0	0	0	
0.254833	-0.00322569	-0.000846592	7.48065E-05	6.08765E-05	0	0	0	
0.255	0.00275927	0.00361032	7.84198E-05	6.71178E-05	0	0	0	
0.255167	0.00295489	-0.00354848	7.55851E-05	7.37788E-05	0	0	0	
0.255333	-0.000165564	0.000869406	9.92175E-05	6.91619E-05	0	0	0	
0.2555	0.00135468	0.00191626	9.45755E-05	6.52634E-05	0	0	0	
0.255667	-0.00359856	-0.00222898	0.000112221	5.51384E-05	0	0	0	
0.255833	0.00452339	0.000490801	0.000113556	5.66635E-05	0	0	0	
0.256	-0.0067257	0.00169467	0.00014906	6.4485E-05	0	0	0	
0.256167	0.00972418	-0.00166246	0.000164988	6.7414E-05	0	0	0	
0.256333	-0.00821	-7.35271E-05	0.000172252	5.44829E-05	0	0	0	
0.2565	-0.00406538	0.00188757	0.000219685	3.81656E-05	0	0	0	
0.256667	-0.000858554	-0.00180902	0.000264619	3.69796E-05	0	0	0	
0.256833	-0.0123635	0.000724703	0.000252546	3.49264E-05	0	0	0	
0.257	-0.0063221	0.00114005	0.000255807	3.69272E-05	0	0	0	
0.257167	0.0138799	-0.00245765	0.000270952	3.6419E-05	0	0	0	
0.257333	-0.0134195	0.00103044	0.000302481	4.14153E-05	0	0	0	
0.2575	0.00344076	0.00166769	0.000249449	4.58333E-05	0	0	0	
0.257667	-0.0191865	-0.00207865	0.000203657	4.44264E-05	0	0	0	
0.257833	0.0114708	0.000187997	0.000277391	4.95179E-05	0	0	0	
0.258	0.00394445	0.000814986	0.00036272	5.3796E-05	0	0	0	
0.258167	-0.0090803	-0.000554046	0.00034023	5.81974E-05	0	0	0	
0.258333	-0.00322154	-3.89694E-05	0.000286881	3.96843E-05	0	0	0	
0.2585	0.00794536	0.000744274	0.000223186	2.50019E-05	0	0	0	
0.258667	-0.00191023	-0.000550678	0.00021467	2.06673E-05	0	0	0	
0.258833	0.00890932	-7.77439E-05	0.000182675	2.13955E-05	0	0	0	
0.259	-0.0139763	-0.000393284	0.000186995	1.8863E-05	0	0	0	
0.259167	0.0151383	0.00123242	0.000239105	1.58642E-05	0	0	0	
0.259333	-0.00338545	-0.00186406	0.000241098	2.62946E-05	0	0	0	
0.2595	-0.00243766	0.00111088	0.000178661	3.26214E-05	0	0	0	
0.259667	-0.000860126	0.000448734	0.000121388	3.22633E-05	0	0	0	
0.259833	0.00316306	-0.00145366	9.19142E-05	2.74999E-05	0	0	0	
0.26	-0.00679456	0.0017633	0.000120945	2.68797E-05	0	0	0	
0.260167	0.00615616	-0.000803369	0.000123974	3.18731E-05	0	0	0	
0.260333	0.00210298	-0.000385612	0.000122766	2.7425E-05	0	0	0	
0.2605	-0.00223271	0.00041787	0.000109903	2.07105E-05	0	0	0	
0.260667	-0.00300523	0.000389819	0.000152185	1.56281E-05	0	0	0	
0.260833	-0.0015999	-0.00085461	0.000134621	1.90558E-05	0	0	0	
0.261	0.0117955	0.000720793	0.000151429	1.88813E-05	0	0	0	
0.261167	-0.00209157	-0.000163257	0.000142592	1.64257E-05	0	0	0	
0.261333	-0.0064447	-0.000350305	0.000202871	1.14173E-05	0	0	0	
0.2615	0.0139375	0.000256542	0.000231908	8.63984E-06	0	0	0	
0.261667	-0.00218348	-9.76151E-05	0.000225469	1.09584E-05	0	0	0	
0.261833	0.00697086	-0.000393997	0.000180629	1.82442E-05	0	0	0	
0.262	-0.00230758	0.00117277	0.000140201	2.41215E-05	0	0	0	
0.262167	-0.00459359	-0.00149139	0.000129543	2.80399E-05	0	0	0	
0.262333	0.00797451	0.00109459	0.000128633	2.86035E-05	0	0	0	
0.2625	0.00880262	-0.000186005	0.000129158	2.66873E-05	0	0	0	
0.262667	-0.00696293	0.000287357	0.000146495	1.91051E-05	0	0	0	
0.262833	0.00155685	-0.00029943	0.000130024	1.12934E-05	0	0	0	
0.263	-0.00279685	0.000615759	0.000113836	9.04315E-06	0	0	0	
0.263167	0.00272948	-0.000747034	7.9003E-05	1.17787E-05	0	0	0	
0.263333	0.00697795	0.00105723	9.12351E-05	1.68935E-05	0	0	0	
0.2635	-0.00870255	-0.000759945	0.000109441	1.83183E-05	0	0	0	
0.263667	0.00160351	0.000188383	0.00012795	1.61007E-05	0	0	0	
0.263833	0.00408339	0.000167991	0.000127914	1.01609E-05	0	0	0	
0.264	-0.00115865	-0.000277263	0.00010152	6.0711E-06	0	0	0	
0.264167	0.00254626	1.06825E-05	6.52733E-05	5.29983E-06	0	0	0	
0.264333	0.000447598	0.00107038	4.98847E-05	1.00171E-05	0	0	0	
0.2645	0.000261996	-0.00125196	7.45519E-05	1.7031E-05	0	0	0	
0.264667	0.00401698	0.00118468	9.9615E-05	2.56935E-05	0	0	0	
0.264833	0.00212812	-0.000665856	0.000103724	3.01046E-05	0	0	0	
0.265	-0.00231278	9.63407E-05	7.8295E-05	2.61012E-05	0	0	0	
0.265167	0.00171493	9.03177E-05	6.011E-05	1.62733E-05	0	0	0	
0.265333	-0.00293004	-0.000258455	6.69749E-05	8.36277E-06	0	0	0	
0.2655	0.00342918	0.000319496	0.000104945	7.6229E-06	0	0	0	
0.265667	-0.00581244	0.000610514	0.000116953	1.19702E-05	0	0	0	
0.265833	0.00246729	-0.00146005	0.000122601	1.80794E-05	0	0	0	
0.266	-0.00177953	0.00152499	8.69182E-05	2.46811E-05	0	0	0	
0.266167	-0.000339486	-0.000846684	5.81759E-05	2.85088E-05	0	0	0	
0.266333	0.000707023	-0.000676806	3.93615E-05	2.64832E-05	0	0	0	
0.2665	0.000344425	0.000933694	7.60353E-05	2.35795E-05	0	0	0	
0.266667	-0.00630655	0.000261368	0.000121581	1.98295E-05	0	0	0	
0.266833	0.00353602	-0.00159652	0.000138116	2.16388E-05	0	0	0	
0.267	0.00206686	0.00258248	0.000131417	2.88861E-05	0	0	0	
0.267167	-0.0045144	-0.00133838	0.000130175	3.95197E-05	0	0	0	
0.267333	0.00234551	-3.85373E-05	0.000133771	4.09743E-05	0	0	0	
0.2675	0.000557406	0.000911725	9.85114E-05	3.39921E-05	0	0	0	
0.267667	-0.00442165	-0.000374408	8.62225E-05	2.3358E-05	0	0	0	
0.267833	0.00605917	-0.000185874	9.91411E-05	1.83762E-05	0	0	0	
0.268	-0.00526376	0.000682968	0.000124929	1.63827E-05	0	0	0	
0.268167	0.00573514	-0.000702477	0.000117995	1.67751E-05	0	0	0	
0.268333	-0.00779548	0.000591728	0.000117531	1.75203E-05	0	0	0	
0.2685	0.00980671	-0.000100175	0.000140066	1.64204E-05	0	0	0	
0.268667	-0.00954982	-0.000551994	0.000169684	1.51383E-05	0	0	0	
0.268833	0.00566376	0.000461734	0.000171134	1.52406E-05	0	0	0	
0.269	-0.000986266	0.000178552	0.000133503	1.39418E-05	0	0	0	
0.269167	0.00387448	-0.000595465	9.51135E-05	1.09209E-05	0	0	0	
0.269333	-0.00662619	0.000376395	8.14978E-05	9.82289E-06	0	0	0	
0.2695	0.00620072	-0.000154299	0.000100766	8.83724E-06	0	0	0	
0.269667	-0.00827183	0.000720137	0.00012545	1.04007E-05	0	0	0	
0.269833	0.00594895	-0.000659216	0.00013431	1.19267E-05	0	0	0	
0.27	0.00147346	0.000621944	0.000119998	1.40068E-05	0	0	0	
0.270167	0.00179494	-0.000677003	0.000111627	1.53132E-05	0	0	0	
0.270333	-0.0155157	0.000478777	0.000134503	1.38162E-05	0	0	0	
0.2705	0.00302641	-2.2567E-05	0.000168985	1.05978E-05	0	0	0	
0.270667	0.00945146	-0.000110059	0.000211012	1.27411E-05	0	0	0	
0.270833	-0.00252325	0.000269651	0.000221003	1.70121E-05	0	0	0	
0.271	-0.0131169	-0.000136755	0.000304336	1.84395E-05	0	0	0	
0.271167	0.0111523	-0.00055197	0.000299586	1.67735E-05	0	0	0	
0.271333	0.00159428	0.00101448	0.000256917	1.60897E-05	0	0	0	
0.2715	0.00072082	-0.000366801	0.000149424	1.85509E-05	0	0	0	
0.271667	-0.0103319	0.000304137	0.000119608	1.55525E-05	0	0	0	
0.271833	-0.000403216	-0.000919612	0.000172128	1.2118E-05	0	0	0	
0.272	0.0179477	0.0009594	0.000241152	1.61098E-05	0	0	0	
0.272167	-0.00567637	-0.000404153	0.000285559	2.10824E-05	0	0	0	
0.272333	-0.0109748	0.000746033	0.00033032	2.13993E-05	0	0	0	
0.2725	-0.0012774	-0.000759896	0.000284829	1.90837E-05	0	0	0	
0.272667	0.0119953	0.000273489	0.000253126	1.6028E-05	0	0	0	
0.272833	0.0069346	1.88801E-05	0.000274499	1.27355E-05	0	0	0	
0.273	-0.020756	0.000245138	0.00033513	6.1938E-06	0	0	0	
0.273167	0.00620449	-9.83882E-05	0.000376237	4.38869E-06	0	0	0	
0.273333	-0.00290219	-0.00141007	0.000280282	1.46332E-05	0	0	0	
0.2735	0.0104869	0.00383886	0.00019883	2.90619E-05	0	0	0	
0.273667	0.035888	0.00302393	0.000286297	7.62937E-05	0	0	0	
0.273833	-0.101501	0.0234594	0.000937084	0.000244258	0	0	0	
0.274	-0.0352028	0.0090708	0.00167004	0.000373686	0	0	0	
0.274167	0.0085879	-0.00816728	0.00161976	0.000395618	0	0	0	
0.274333	0.00312798	0.00310133	0.000958651	0.000248675	0	0	0	
0.2745	-0.00815545	0.0015687	0.000245508	0.000125752	0	0	0	
0.274667	0.00243561	-0.004979	0.000185244	7.5761E-05	0	0	0	
0.274833	0.0234651	0.0211975	0.000268374	0.000103516	0	0	0	
0.275	-0.213514	0.0080492	0.00108973	0.000263887	0	0	0	
0.275167	0.0392071	0.00622079	0.00169495	0.000353174	0	0	0	
0.275333	-0.0403475	0.00180282	0.00183063	0.00036929	0	0	0	
0.2755	0.0310848	-0.00141248	0.00115715	0.000215138	0	0	0	
0.275667	-0.0169164	0.000675232	0.000660628	0.000110912	0	0	0	
0.275833	0.0146659	-0.00154587	0.000532911	4.52956E-05	0	0	0	
0.276	-0.0145967	0.00344009	0.000445563	3.66783E-05	0	0	0	
0.276167	0.0113099	-0.00277116	0.000385254	4.78648E-05	0	0	0	
0.276333	-0.0154985	-0.000269415	0.000352431	5.21038E-05	0	0	0	
0.2765	0.0243465	0.00131166	0.000383379	4.26071E-05	0	0	0	
0.276667	-0.015786	0.000276199	0.000402798	2.93605E-05	0	0	0	
0.276833	0.0260508	0.002879	0.000485408	2.56279E-05	0	0	0	
0.277	-0.0711087	-0.0016958	0.00102411	0.000115517	0	0	0	
0.277167	0.108762	-0.000993753	0.00154762	0.000183917	0	0	0	
0.277333	-0.0443575	0.00489773	0.00199256	0.000209078	0	0	0	
0.2775	0.0459366	-0.00237999	0.00159783	0.000128125	0	0	0	
0.277667	-0.0396193	0.00259772	0.00122654	7.22422E-05	0	0	0	
0.277833	0.0176926	-0.00269152	0.00084704	5.30703E-05	0	0	0	
0.278	-0.0219817	-0.00330037	0.000690627	6.78621E-05	0	0	0	
0.278167	-0.0525845	-0.0158815	0.000913373	0.000183457	0	0	0	
0.278333	0.021536	0.00598012	0.00109102	0.000209284	0	0	0	
0.2785	-0.00338973	-0.00157002	0.00120802	0.000222124	0	0	0	
0.278667	-0.00157237	0.00129999	0.000735686	9.98008E-05	0	0	0	
0.278833	0.0122412	-0.000622552	0.00043937	6.20475E-05	0	0	0	
0.279	-0.0178278	-0.000339138	0.000326472	2.20463E-05	0	0	0	
0.279167	0.0161323	0.00149132	0.000385633	1.82228E-05	0	0	0	
0.279333	-0.0271606	0.00242285	0.000392497	3.29269E-05	0	0	0	
0.2795	-0.0200594	0.00513847	0.000562187	9.04101E-05	0	0	0	
0.279667	-0.00483278	0.000312202	0.000560582	0.000104314	0	0	0	
0.279833	0.00696881	-0.000909045	0.000456772	8.76634E-05	0	0	0	
0.28	-0.00273765	0.00125964	0.000215692	3.17188E-05	0	0	0	
0.280167	0.00095668	-0.000268592	0.000154252	1.84563E-05	0	0	0	
0.280333	0.000865141	-9.34541E-05	0.000139293	2.06505E-05	0	0	0	
0.2805	-0.0575449	0.0103639	0.000158285	4.17665E-05	0	0	0	
0.280667	0.0321952	-0.00189924	0.000500069	9.40041E-05	0	0	0	
0.280833	-0.0160799	0.000528596	0.000613955	9.7864E-05	0	0	0	
0.281	-0.00307445	0.000277055	0.000672561	7.31761E-05	0	0	0	
0.281167	0.00618535	1.31652E-05	0.000349634	1.73851E-05	0	0	0	
0.281333	0.00157844	-0.000196014	0.000233433	9.09307E-06	0	0	0	
0.2815	0.00118067	0.000423834	0.000135947	9.36842E-06	0	0	0	
0.281667	-0.0094328	-0.000208069	0.000139194	1.6248E-05	0	0	0	
0.281833	0.00482678	-0.000595049	0.00015796	2.62271E-05	0	0	0	
0.282	0.00185229	0.00134627	0.000151711	2.91359E-05	0	0	0	
0.282167	-0.00355086	-0.00145206	0.000111432	2.72662E-05	0	0	0	
0.282333	0.00769159	0.00085666	0.000116543	2.67282E-05	0	0	0	
0.2825	-0.0124486	-0.000442885	0.000132116	2.85354E-05	0	0	0	
0.282667	0.0119626	0.000303574	0.000181289	2.53714E-05	0	0	0	
0.282833	-0.00972683	0.000170282	0.000214588	1.64521E-05	0	0	0	
0.283	0.00437799	-0.000394391	0.000243691	1.05486E-05	0	0	0	
0.283167	0.00160025	0.000233173	0.000252798	8.76758E-06	0	0	0	
0.283333	-0.000155174	0.00033765	0.000196503	8.8411E-06	0	0	0	
0.2835	-0.00184947	-0.000609772	0.000110748	8.9903E-06	0	0	0	
0.283667	-0.00123666	0.00114636	4.10399E-05	1.22838E-05	0	0	0	
0.283833	0.000168369	-0.000913219	3.87072E-05	1.88453E-05	0	0	0	
0.284	0.00442646	0.000847934	5.98988E-05	2.12872E-05	0	0	0	
0.284167	0.00292278	-0.000570504	7.75356E-05	1.917E-05	0	0	0	
0.284333	-0.00505459	0.000427926	7.99676E-05	1.46279E-05	0	0	0	
0.2845	-0.00738747	-0.000173245	0.000146992	1.24404E-05	0	0	0	
0.284667	0.0122115	0.000192241	0.000173818	1.20727E-05	0	0	0	
0.284833	0.00185867	-0.000651825	0.000247494	1.25136E-05	0	0	0	
0.285	-0.0075858	0.000762607	0.000205874	1.46514E-05	0	0	0	
0.285167	0.00181103	-0.00049908	0.00018209	1.63544E-05	0	0	0	
0.285333	-0.00488341	0.000242992	0.000118018	1.61852E-05	0	0	0	
0.2855	0.0104505	0.00020052	0.000109391	1.27718E-05	0	0	0	
0.285667	0.000276364	-5.96116E-05	0.000172865	9.94317E-06	0	0	0	
0.285833	-0.0105855	-0.000594409	0.000258287	8.28668E-06	0	0	0	
0.286	0.00331209	0.000451652	0.000251055	9.51145E-06	0	0	0	
0.286167	0.00489492	0.000476841	0.000182998	8.20257E-06	0	0	0	
0.286333	-0.00163828	-0.00071532	9.87203E-05	1.04586E-05	0	0	0	
0.2865	0.000921084	0.000202314	7.36075E-05	1.29435E-05	0	0	0	
0.286667	-0.00651685	0.000387425	8.31411E-05	1.64284E-05	0	0	0	
0.286833	0.00854082	-0.000816446	9.45658E-05	1.48529E-05	0	0	0	
0.287	-0.0032437	0.000727323	0.000144451	1.34233E-05	0	0	0	
0.287167	0.00292351	-0.000555996	0.000130636	1.31072E-05	0	0	0	
0.287333	-0.0088324	0.000404362	0.000128537	1.42528E-05	0	0	0	
0.2875	0.00487985	-0.000350568	0.000110177	1.1657E-05	0	0	0	
0.287667	0.0044137	0.000348538	0.000115049	1.10291E-05	0	0	0	
0.287833	-7.20328E-05	9.38071E-05	0.000118037	1.30147E-05	0	0	0	
0.288	-0.00881408	-8.47143E-05	0.000126976	1.65832E-05	0	0	0	
0.288167	0.00205817	-0.000379087	0.000152246	1.39143E-05	0	0	0	
0.288333	0.00662458	0.00037503	0.000180603	1.06107E-05	0	0	0	
0.2885	-0.00024312	-5.45948E-05	0.000166386	6.53056E-06	0	0	0	
0.288667	-0.00600888	2.54653E-05	0.000162531	6.42746E-06	0	0	0	
0.288833	-0.000715424	0.000705824	0.000109784	5.80137E-06	0	0	0	
0.289	0.0021296	-0.000483022	8.31204E-05	9.22673E-06	0	0	0	
0.289167	0.00807993	-0.000548182	9.44223E-05	9.90069E-06	0	0	0	
0.289333	-0.00965399	0.000791057	0.000126097	1.28295E-05	0	0	0	
0.2895	0.000635064	-0.000413793	0.000188938	1.14126E-05	0	0	0	
0.289667	0.000881348	0.000362212	0.000147963	1.21912E-05	0	0	0	
0.289833	0.0034968	-0.000391763	0.000137094	1.24014E-05	0	0	0	
0.29	-0.00267242	0.000212859	8.55687E-05	1.18753E-05	0	0	0	
0.290167	-0.00100893	-0.000601649	6.90407E-05	1.20935E-05	0	0	0	
0.290333	9.2786E-06	0.000435164	5.15425E-05	1.11698E-05	0	0	0	
0.2905	0.00138324	0.000231218	3.38609E-05	1.03651E-05	0	0	0	
0.290667	-0.000567656	-0.000631017	4.84348E-05	1.13453E-05	0	0	0	
0.290833	0.00730678	-0.000133085	5.56246E-05	9.7733E-06	0	0	0	
0.291	-0.00531554	0.00105045	0.000111304	1.22812E-05	0	0	0	
0.291167	0.00108941	-0.0015287	0.000108059	1.7413E-05	0	0	0	
0.291333	0.00073081	0.000785725	0.000100875	2.33765E-05	0	0	0	
0.2915	0.00280463	8.40741E-05	8.35638E-05	2.20864E-05	0	0	0	
0.291667	-0.00497265	-0.000342859	0.000102178	1.50048E-05	0	0	0	
0.291833	0.0110389	-2.95186E-05	0.000144367	7.6606E-06	0	0	0	
0.292	-0.0137452	0.000617201	0.00021259	7.02828E-06	0	0	0	
0.292167	0.00119378	-0.000987515	0.000219045	1.14702E-05	0	0	0	
0.292333	0.0114727	0.000628392	0.000193933	1.7554E-05	0	0	0	
0.2925	-0.00928777	0.000460461	0.000169554	1.72697E-05	0	0	0	
0.292667	-0.00594605	-0.000443384	0.000274359	1.4955E-05	0	0	0	
0.292833	0.0125019	-0.000154354	0.000347182	8.83083E-06	0	0	0	
0.293	-0.00861705	0.00044717	0.000344173	8.95488E-06	0	0	0	
0.293167	0.00931744	-0.000287012	0.000268029	7.0633E-06	0	0	0	
0.293333	-0.0111525	0.000319166	0.000212994	8.0557E-06	0	0	0	
0.2935	-0.00900501	-0.000729692	0.000208168	9.20983E-06	0	0	0	
0.293667	0.0172187	0.000523533	0.000219209	1.08364E-05	0	0	0	
0.293833	-0.000239749	0.000345504	0.000305599	1.05131E-05	0	0	0	
0.294	-0.0131896	-0.000749595	0.000350348	1.23832E-05	0	0	0	
0.294167	-0.00793273	0.000185895	0.000309405	1.27355E-05	0	0	0	
0.294333	0.0144954	0.00023032	0.000256443	1.22194E-05	0	0	0	
0.2945	0.00528677	-0.000376991	0.000296726	9.10228E-06	0	0	0	
0.294667	-0.005081	0.000179986	0.000341446	6.57948E-06	0	0	0	
0.294833	-0.00313607	-0.000171674	0.000268481	5.47219E-06	0	0	0	
0.295	-0.0075371	0.000253129	0.000180436	4.15384E-06	0	0	0	
0.295167	0.0114188	-0.000427411	0.000183248	4.17761E-06	0	0	0	
0.295333	0.0052706	0.000493598	0.000243282	7.09156E-06	0	0	0	
0.2955	-0.00379597	-0.000592505	0.000234366	1.01263E-05	0	0	0	
0.295667	0.00167769	0.000344237	0.000189737	1.29909E-05	0	0	0	
0.295833	-0.000377192	-0.000201385	0.000143512	1.3678E-05	0	0	0	
0.296	4.19183E-05	0.000356245	9.57257E-05	1.26213E-05	0	0	0	
0.296167	0.00340649	-0.000450658	9.82004E-05	1.42009E-05	0	0	0	
0.296333	0.000148883	0.000931763	7.93698E-05	1.97635E-05	0	0	0	
0.2965	-0.00297042	-0.00135674	7.31944E-05	2.70882E-05	0	0	0	
0.296667	0.000404276	0.00114344	0.000104698	3.03091E-05	0	0	0	
0.296833	0.0322888	0.000375126	0.000208134	2.72485E-05	0	0	0	
0.297	-0.0682845	-0.000694992	0.000500949	2.79998E-05	0	0	0	
0.297167	0.125415	0.000805507	0.00102623	3.89977E-05	0	0	0	
0.297333	-0.159225	-0.000996673	0.00181198	6.52168E-05	0	0	0	
0.2975	0.104726	0.000682434	0.00248346	0.000107895	0	0	0	
0.297667	0.00910578	0.000887664	0.00262575	0.000159619	0	0	0	
0.297833	-0.0586957	-0.000656437	0.0019938	0.000194317	0	0	0	
0.298	0.0175161	0.00027083	0.00150154	0.00017769	0	0	0	
0.298167	0.0697511	0.00205627	0.00162516	0.000116755	0	0	0	
0.298333	-0.131827	-0.00574908	0.00232573	7.85838E-05	0	0	0	
0.2985	0.132823	0.0102411	0.00278584	9.15769E-05	0	0	0	
0.298667	-0.0691546	-0.0115033	0.0025281	0.000147434	0	0	0	
0.298833	-0.0172795	0.00858264	0.00185906	0.000195159	0	0	0	
0.299	0.06562	-0.00220296	0.00120426	0.000209169	0	0	0	
0.299167	-0.0457809	-0.00231755	0.000951284	0.000173542	0	0	0	
0.299333	-0.00678657	0.00233432	0.00105197	0.000114174	0	0	0	
0.2995	0.0359043	0.000613383	0.000995311	8.86272E-05	0	0	0	
0.299667	-0.0236236	-0.00237254	0.000843302	9.02588E-05	0	0	0	
0.299833	-0.0135431	0.00202416	0.000724193	8.49561E-05	0	0	0	
0.3	0.0299833	0.000875674	0.000660385	6.5055E-05	0	0	0	
0.300167	-0.0190744	-0.00364073	0.000607986	5.41206E-05	0	0	0	
0.300333	0.00176663	0.00386417	0.000473148	6.34214E-05	0	0	0	
0.3005	0.000229325	-0.0010865	0.000358987	6.94641E-05	0	0	0	
0.300667	0.00211175	-0.00162498	0.000227351	7.19159E-05	0	0	0	
0.300833	-0.00260695	0.0027457	9.96807E-05	6.14136E-05	0	0	0	
0.301	-0.00184813	-0.0014241	0.000108673	5.74155E-05	0	0	0	
0.301167	0.00622287	-0.000976564	0.000150527	5.42964E-05	0	0	0	
0.301333	-0.0101072	0.00209199	0.000193966	5.39232E-05	0	0	0	
0.3015	0.00821593	-0.0012302	0.00018291	4.31356E-05	0	0	0	
0.301667	0.00162253	2.44834E-05	0.000179717	3.04015E-05	0	0	0	
0.301833	-0.00866705	0.000410216	0.000168982	2.05879E-05	0	0	0	
0.302	0.0103729	0.000205345	0.000174052	1.75703E-05	0	0	0	
0.302167	-0.00502273	-0.000874782	0.000194526	1.39309E-05	0	0	0	
0.302333	-0.00437961	0.00102978	0.000232364	2.05391E-05	0	0	0	
0.3025	0.00908272	0.000509767	0.000232732	2.52907E-05	0	0	0	
0.302667	-0.00608071	-0.00171616	0.00019781	3.11376E-05	0	0	0	
0.302833	0.00299274	0.00144622	0.000134239	3.17212E-05	0	0	0	
0.303	-0.00141607	6.12459E-05	9.55053E-05	3.52918E-05	0	0	0	
0.303167	-0.00380101	-0.0016267	9.01488E-05	3.98993E-05	0	0	0	
0.303333	0.00974464	0.00199783	0.000114789	4.22683E-05	0	0	0	
0.3035	-0.00875106	-0.000983769	0.000149482	3.72408E-05	0	0	0	
0.303667	0.00261935	-0.000690951	0.000177385	3.40059E-05	0	0	0	
0.303833	0.00293998	0.00132971	0.000194816	3.28819E-05	0	0	0	
0.304	-0.0035105	-0.000909426	0.000179604	2.82312E-05	0	0	0	
0.304167	0.0028379	-0.000355989	0.000128494	2.68196E-05	0	0	0	
0.304333	0.00108089	0.00170459	7.10702E-05	2.86968E-05	0	0	0	
0.3045	3.21219E-05	-0.00163651	3.78371E-05	3.40311E-05	0	0	0	
0.304667	0.00135483	0.000322887	3.04633E-05	2.90285E-05	0	0	0	
0.304833	-0.00419343	0.00126686	5.31801E-05	2.15441E-05	0	0	0	
0.305	0.00137228	-0.00105108	6.03096E-05	1.78274E-05	0	0	0	
0.305167	0.00897818	-8.58212E-05	7.87018E-05	2.48796E-05	0	0	0	
0.305333	-0.0100913	0.00112994	0.000111471	3.58575E-05	0	0	0	
0.3055	0.000457131	-0.00102578	0.000187923	3.78829E-05	0	0	0	
0.305667	0.00522649	-0.000225902	0.000217995	2.74072E-05	0	0	0	
0.305833	-0.00646465	0.00098021	0.000191796	1.83371E-05	0	0	0	
0.306	-0.00150298	-0.00133514	0.00015423	1.54977E-05	0	0	0	
0.306167	0.00677254	0.000411921	0.000190602	2.26749E-05	0	0	0	
0.306333	-0.0175991	0.000557683	0.000283615	3.44673E-05	0	0	0	
0.3065	0.0196269	-0.00124113	0.000353431	4.53885E-05	0	0	0	
0.306667	-0.00876616	0.00101061	0.000347605	4.42133E-05	0	0	0	
0.306833	-0.0106147	0.000174747	0.000327921	3.10567E-05	0	0	0	
0.307	0.0123375	-0.00139184	0.000305166	1.82535E-05	0	0	0	
0.307167	-0.0148787	0.00116768	0.000285389	1.90879E-05	0	0	0	
0.307333	0.0131541	0.000132308	0.000281247	2.92105E-05	0	0	0	
0.3075	-0.00229451	-0.00109953	0.000333871	4.09803E-05	0	0	0	
0.307667	-0.012758	0.00181643	0.000448467	4.72534E-05	0	0	0	
0.307833	0.019454	-0.00217036	0.000456486	4.47979E-05	0	0	0	
0.308	-0.0126195	0.000224002	0.000413749	4.24321E-05	0	0	0	
0.308167	-0.018498	0.00724745	0.000379186	6.33935E-05	0	0	0	
0.308333	-0.0860906	-0.0216319	0.000838614	0.000224762	0	0	0	
0.3085	-0.00759749	0.00071001	0.00121965	0.00036353	0	0	0	
0.308667	0.00707547	-0.00422055	0.00117568	0.000367467	0	0	0	
0.308833	-0.00458964	-0.000469551	0.000693598	0.000211307	0	0	0	
0.309	-0.000967811	0.00145132	0.000304824	6.44601E-05	0	0	0	
0.309167	-0.00781013	-0.00505739	0.000340531	5.60079E-05	0	0	0	
0.309333	-0.0173884	3.8813E-05	0.000339983	4.95124E-05	0	0	0	
0.3095	0.0117957	0.000219368	0.000369611	5.67815E-05	0	0	0	
0.309667	-0.00128117	0.000988138	0.000403083	4.54923E-05	0	0	0	
0.309833	-0.00609089	-0.00169778	0.000445938	4.82152E-05	0	0	0	
0.31	0.00871688	0.0012241	0.000431738	4.28897E-05	0	0	0	
0.310167	-0.0129528	0.000159856	0.000398288	3.44325E-05	0	0	0	
0.310333	0.0178477	-0.000704376	0.000389253	3.32277E-05	0	0	0	
0.3105	-0.0122771	-7.54786E-05	0.000375294	3.3379E-05	0	0	0	
0.310667	0.0049102	0.000169716	0.000285558	2.40169E-05	0	0	0	
0.310833	-0.00779101	-0.000307468	0.000208875	1.78697E-05	0	0	0	
0.311	0.00751658	0.000663405	0.000162474	1.69466E-05	0	0	0	
0.311167	-0.00479702	-0.000632122	0.000141574	1.82818E-05	0	0	0	
0.311333	0.0047839	-6.82597E-05	0.000132824	1.39741E-05	0	0	0	
0.3115	-0.00344199	0.000723422	0.000143736	8.6045E-06	0	0	0	
0.311667	-0.00705293	-0.000968852	0.000190571	1.37583E-05	0	0	0	
0.311833	0.00798956	0.000695425	0.000201099	2.84648E-05	0	0	0	
0.312	0.000213576	0.000404607	0.00018027	4.05373E-05	0	0	0	
0.312167	-0.0118443	-0.000804568	0.000174281	3.70849E-05	0	0	0	
0.312333	0.0163542	0.000458835	0.0002054	2.41314E-05	0	0	0	
0.3125	-0.00578702	0.000803387	0.000311139	1.68104E-05	0	0	0	
0.312667	-0.00781962	-0.00179654	0.000383067	1.94735E-05	0	0	0	
0.312833	0.0117439	0.0020521	0.000367457	2.82893E-05	0	0	0	
0.313	-0.0107839	-0.00072057	0.000282156	3.6795E-05	0	0	0	
0.313167	0.00619151	-0.000783977	0.000214929	4.6086E-05	0	0	0	
0.313333	0.00611621	0.00202755	0.000254877	4.59283E-05	0	0	0	
0.3135	-0.0152803	-0.00106525	0.000280877	4.00606E-05	0	0	0	
0.313667	0.0111713	-0.00201951	0.000282259	4.7083E-05	0	0	0	
0.313833	0.00719147	0.00442422	0.000330974	6.34447E-05	0	0	0	
0.314	-0.0201425	-0.00298575	0.00039887	7.51902E-05	0	0	0	
0.314167	0.0148539	0.000655079	0.000419573	6.88584E-05	0	0	0	
0.314333	0.0119098	0.00171971	0.000430708	5.65747E-05	0	0	0	
0.3145	-0.0141498	-0.0021367	0.000347257	4.67726E-05	0	0	0	
0.314667	-0.000923609	0.000296661	0.000364261	4.09591E-05	0	0	0	
0.314833	0.00541217	0.00250179	0.000227175	5.00249E-05	0	0	0	
0.315	0.000583637	-0.00287524	0.000193022	5.9765E-05	0	0	0	
0.315167	0.00320628	0.00173981	0.000117802	6.56895E-05	0	0	0	
