0	0.000102551	0.002702	1.02551E-08	2.702E-07	0	0	0	
0.000166667	-0.00591356	-0.00512078	8.05318E-05	3.00684E-05	0	0	0	
0.000333333	0.00461997	-0.00315529	0.000153843	5.58305E-05	0	0	0	
0.0005	-8.27596E-05	0.00211848	0.000204531	0.000105551	0	0	0	
0.000666667	0.000532055	0.00834014	0.000208744	0.000167662	0	0	0	
0.000833333	-0.00444998	-0.0125787	0.00024534	0.000199732	0	0	0	
0.001	0.00280249	-0.000611318	0.000285689	0.000258777	0	0	0	
0.00116667	0.00120275	0.0116806	0.000294832	0.000241265	0	0	0	
0.00133333	-0.00214668	-0.012938	0.000304396	0.000263011	0	0	0	
0.0015	0.00287816	-0.00096695	0.000319244	0.000221819	0	0	0	
0.00166667	-0.00955277	0.0150061	0.000312846	0.000225727	0	0	0	
0.00183333	0.0136484	-0.0260812	0.000304186	0.000290452	0	0	0	
0.002	-0.00864083	0.00485514	0.000343717	0.000329229	0	0	0	
0.00216667	0.00376536	0.0174252	0.000425654	0.000408078	0	0	0	
0.00233333	-0.00334431	-0.0120766	0.000463589	0.00037728	0	0	0	
0.0025	0.00392928	-0.00277802	0.0004452	0.000337201	0	0	0	
0.00266667	-0.00392627	0.00625399	0.000391673	0.000254789	0	0	0	
0.00283333	0.00648676	-0.00608508	0.000341709	0.000212749	0	0	0	
0.003	-0.00946885	0.00382421	0.000331826	0.000183914	0	0	0	
0.00316667	0.0099705	-0.0034601	0.000392084	0.000221018	0	0	0	
0.00333333	-0.00941583	0.00116265	0.00048464	0.000295592	0	0	0	
0.0035	0.0101277	-0.00966753	0.000527049	0.000346347	0	0	0	
0.00366667	-0.00883824	0.0357172	0.000499131	0.000463263	0	0	0	
0.00383333	0.00558978	-0.0395913	0.000435822	0.000553729	0	0	0	
0.004	-0.01238	0.00863706	0.000390041	0.000664019	0	0	0	
0.00416667	0.0131089	0.001632	0.000392222	0.000554924	0	0	0	
0.00433333	-0.00820993	0.0115513	0.000449048	0.000384441	0	0	0	
0.0045	0.00276545	0.00716463	0.00047948	0.000245533	0	0	0	
0.00466667	0.00713025	-0.0625134	0.000481697	0.000431241	0	0	0	
0.00483333	-0.0307818	0.0843021	0.000486897	0.000777155	0	0	0	
0.005	0.0276812	-0.0533843	0.000527809	0.00131435	0	0	0	
0.00516667	-0.000639981	0.0281007	0.000490629	0.00146144	0	0	0	
0.00533333	-0.0109867	-0.0425887	0.000338249	0.00142013	0	0	0	
0.0055	-0.00128853	0.010292	0.000307312	0.0013292	0	0	0	
0.00566667	-0.000211837	0.0489384	0.000308129	0.00129917	0	0	0	
0.00583333	0.0044987	-0.0195956	0.000416753	0.00121181	0	0	0	
0.006	0.00651621	-0.048731	0.000555404	0.00135075	0	0	0	
0.00616667	-0.0143104	0.0601994	0.000737673	0.00137119	0	0	0	
0.00633333	0.00831927	-0.0396025	0.000790069	0.00140337	0	0	0	
0.0065	-0.003738	0.0423906	0.000659003	0.00104279	0	0	0	
0.00666667	0.00344375	-0.0475678	0.000537993	0.000929049	0	0	0	
0.00683333	-0.003469	0.0339154	0.000514638	0.000865256	0	0	0	
0.007	0.00637	-0.00953481	0.000511231	0.00071235	0	0	0	
0.00716667	-0.00318726	0.0136724	0.000438433	0.000442387	0	0	0	
0.00733333	-0.00682964	-0.0121686	0.000334277	0.000274682	0	0	0	
0.0075	0.00995031	-0.00728322	0.000311139	0.000327912	0	0	0	
0.00766667	-0.00376317	0.0210175	0.000391308	0.000400128	0	0	0	
0.00783333	0.00157069	-0.00867903	0.000482235	0.000465696	0	0	0	
0.008	-0.00338153	0.00519605	0.000468243	0.000388471	0	0	0	
0.00816667	0.00934677	-0.0358239	0.000401553	0.000389052	0	0	0	
0.00833333	-0.0125441	0.041551	0.000403954	0.000503211	0	0	0	
0.0085	0.00630494	0.0161064	0.000496012	0.000820697	0	0	0	
0.00866667	-0.0118481	-0.0415682	0.000538816	0.000967781	0	0	0	
0.00883333	0.0467759	-0.0883583	0.000591262	0.00103651	0	0	0	
0.009	-0.0645451	0.152112	0.000750536	0.00158396	0	0	0	
0.00916667	0.0311661	-0.0768309	0.000910554	0.00210977	0	0	0	
0.00933333	0.000854589	0.00622089	0.000890775	0.00201889	0	0	0	
0.0095	0.00117436	0.00230002	0.000660504	0.00129518	0	0	0	
0.00966667	-0.0126538	0.0187965	0.000492902	0.000953826	0	0	0	
0.00983333	0.0130372	-0.0791119	0.000454355	0.00119845	0	0	0	
0.01	9.55328E-05	0.0488563	0.000405998	0.00177879	0	0	0	
0.0101667	-0.0080035	0.0223333	0.00043058	0.00216564	0	0	0	
0.0103333	-0.00327138	-0.00890363	0.000352311	0.00216341	0	0	0	
0.0105	0.0124853	-0.0501606	0.000423231	0.0015291	0	0	0	
0.0106667	-0.0117806	0.0677846	0.000493092	0.001224	0	0	0	
0.0108333	0.0119085	-0.0370695	0.000555643	0.00116669	0	0	0	
0.011	-0.0141149	-0.00468272	0.000478295	0.00113722	0	0	0	
0.0111667	0.00780316	0.00684979	0.000360861	0.000716852	0	0	0	
0.0113333	0.000823551	0.0029835	0.000416093	0.000348184	0	0	0	
0.0115	0.00187252	-0.0106629	0.000472434	0.000325236	0	0	0	
0.0116667	-0.0112371	0.00948122	0.000440217	0.000297954	0	0	0	
0.0118333	0.0126333	-0.0184816	0.000352814	0.00038033	0	0	0	
0.012	-0.00789926	0.0142415	0.000338219	0.00041616	0	0	0	
0.0121667	0.00447236	-0.0157968	0.000390784	0.000396324	0	0	0	
0.0123333	-0.00539143	0.0126859	0.000436583	0.000364173	0	0	0	
0.0125	0.0043732	-0.0047577	0.000476446	0.000304493	0	0	0	
0.0126667	0.0030101	-0.00717947	0.000508629	0.000285631	0	0	0	
0.0128333	-0.00621112	0.00702581	0.000484211	0.000222197	0	0	0	
0.013	0.000103035	-0.0107289	0.000378378	0.000170891	0	0	0	
0.0131667	0.0054747	0.0115085	0.000275401	0.000196213	0	0	0	
0.0133333	-0.00448272	0.00172256	0.000276914	0.000218632	0	0	0	
0.0135	0.00638103	-0.00857871	0.000346586	0.000207531	0	0	0	
0.0136667	-0.00841132	0.00679364	0.000415003	0.000212384	0	0	0	
0.0138333	0.0027752	0.000921389	0.000484372	0.000281112	0	0	0	
0.014	0.00595214	0.000329852	0.00055781	0.000295133	0	0	0	
0.0141667	-0.0036192	-0.00626282	0.000555371	0.000289267	0	0	0	
0.0143333	-0.00561091	-0.000205325	0.0004693	0.000296799	0	0	0	
0.0145	0.00828701	0.0101344	0.000414647	0.000351707	0	0	0	
0.0146667	-0.00401218	-0.00335089	0.000473604	0.000370854	0	0	0	
0.0148333	-0.00498164	0.00836638	0.00057464	0.000289878	0	0	0	
0.015	0.0101882	-0.0122827	0.000554514	0.000277381	0	0	0	
0.0151667	-0.0013035	-0.0181065	0.000396081	0.000481838	0	0	0	
0.0153333	-0.015841	0.0465441	0.000230371	0.00071663	0	0	0	
0.0155	0.0236053	-0.0278271	0.000239408	0.000809889	0	0	0	
0.0156667	-0.0191908	-0.0141712	0.00044003	0.000782971	0	0	0	
0.0158333	-0.00860989	0.0336683	0.000761696	0.000625937	0	0	0	
0.016	0.0369028	-0.0225223	0.000968091	0.000684131	0	0	0	
0.0161667	-0.0320211	0.00247265	0.000942234	0.000666136	0	0	0	
0.0163333	0.00236083	0.000732613	0.000676778	0.000651103	0	0	0	
0.0165	0.0116751	-0.00149352	0.000366174	0.000436433	0	0	0	
0.0166667	-0.0165064	-0.00158755	0.00025728	0.000197315	0	0	0	
0.0168333	0.015641	0.0235623	0.000318367	0.000249617	0	0	0	
0.017	-0.00162998	-0.0564045	0.000537799	0.000455344	0	0	0	
0.0171667	-0.0194991	0.0496988	0.000726639	0.000770962	0	0	0	
0.0173333	0.0213791	-0.00828205	0.000758841	0.000962792	0	0	0	
0.0175	-0.0073583	-0.0243323	0.000600084	0.000943736	0	0	0	
0.0176667	-0.00213571	0.0144336	0.000369271	0.000745725	0	0	0	
0.0178333	0.000368372	0.0165787	0.000301653	0.000629373	0	0	0	
0.018	0.00385479	-0.0259393	0.000359526	0.000552204	0	0	0	
0.0181667	-0.00573942	0.0153999	0.000420285	0.000552805	0	0	0	
0.0183333	0.00148841	0.0023519	0.000385675	0.000395179	0	0	0	
0.0185	0.00304227	-0.00699638	0.000345561	0.000285109	0	0	0	
0.0186667	-0.00164492	0.00431871	0.000395584	0.00026026	0	0	0	
0.0188333	-0.00382524	-0.00650555	0.000492466	0.000255992	0	0	0	
0.019	0.00432585	0.00593748	0.000521995	0.000282787	0	0	0	
0.0191667	-0.000224465	0.00785942	0.000460767	0.000264174	0	0	0	
0.0193333	-0.000450891	-0.01294	0.000413681	0.00028687	0	0	0	
0.0195	-0.00274248	-0.000280993	0.000447734	0.000246865	0	0	0	
0.0196667	0.00345418	0.00735493	0.000497546	0.000172536	0	0	0	
0.0198333	-0.000592263	-0.0058727	0.000484294	0.000141732	0	0	0	
0.02	-0.00794431	0.00333306	0.000425867	0.000214411	0	0	0	
0.0201667	0.0127967	-0.0221699	0.000407358	0.000308762	0	0	0	
0.0203333	-0.0100698	0.0240261	0.000451875	0.000389413	0	0	0	
0.0205	0.0039718	-0.00425394	0.000498564	0.000474689	0	0	0	
0.0206667	0.000502801	-0.0159888	0.000488181	0.000512194	0	0	0	
0.0208333	-0.00266022	0.010094	0.000449507	0.000453136	0	0	0	
0.021	0.00205934	0.0214587	0.000408394	0.000489165	0	0	0	
0.0211667	0.00472709	-0.0402037	0.000342407	0.000564533	0	0	0	
0.0213333	-0.0116997	0.0220639	0.000290477	0.000644579	0	0	0	
0.0215	0.00387798	-0.00162835	0.000306031	0.000568443	0	0	0	
0.0216667	0.0115384	-0.0135943	0.000416664	0.000465946	0	0	0	
0.0218333	-0.0180519	0.034355	0.000492947	0.000426163	0	0	0	
0.022	0.0147223	-0.0312937	0.000488123	0.000555851	0	0	0	
0.0221667	-0.00381614	0.00557348	0.000401221	0.000658935	0	0	0	
0.0223333	-0.0110396	0.0212646	0.000315778	0.000610127	0	0	0	
0.0225	0.031275	-0.0383259	0.00038483	0.000574119	0	0	0	
0.0226667	-0.0352967	0.10848	0.000619382	0.00112077	0	0	0	
0.0228333	0.0117441	-0.0496854	0.000853542	0.00165522	0	0	0	
0.023	0.0158943	-0.0404969	0.000881768	0.001581	0	0	0	
0.0231667	-0.0182641	0.0718057	0.00076012	0.00124	0	0	0	
0.0233333	0.00397476	-0.0103396	0.000628222	0.000997065	0	0	0	
0.0235	0.0185358	-0.0497071	0.000542291	0.0010527	0	0	0	
0.0236667	-0.0167807	0.0968355	0.000477794	0.00127498	0	0	0	
0.0238333	-0.00368765	0.00381348	0.000371544	0.00147804	0	0	0	
0.024	0.0107085	-0.0423022	0.000319291	0.00175734	0	0	0	
0.0241667	0.00499702	0.00787623	0.000241395	0.00137874	0	0	0	
0.0243333	-0.00754431	0.0380923	0.000360086	0.00113438	0	0	0	
0.0245	0.00204313	-0.0160913	0.000477371	0.000952928	0	0	0	
0.0246667	-0.00107168	0.00168556	0.000519418	0.000794207	0	0	0	
0.0248333	-0.000956818	-0.00574065	0.000451019	0.000624071	0	0	0	
0.025	0.0139571	0.00616687	0.00044347	0.000317975	0	0	0	
0.0251667	-0.0174479	0.00302798	0.000506661	0.00034873	0	0	0	
0.0253333	0.00566826	-0.00207895	0.000482295	0.000297685	0	0	0	
0.0255	0.00225221	0.0122956	0.000361089	0.000374173	0	0	0	
0.0256667	0.000504736	-0.0188764	0.000342641	0.000363474	0	0	0	
0.0258333	-0.00839781	0.020145	0.000442535	0.000375888	0	0	0	
0.026	0.0128962	-0.00942157	0.00054778	0.000371047	0	0	0	
0.0261667	-0.00831011	0.00543681	0.000530859	0.000302239	0	0	0	
0.0263333	0.00343626	-0.0124802	0.000434896	0.000251116	0	0	0	
0.0265	-0.00236727	-0.00250382	0.000359727	0.000253726	0	0	0	
0.0266667	-0.00321036	0.0464245	0.000330326	0.000344882	0	0	0	
0.0268333	0.00867562	-0.0455303	0.000393192	0.000596958	0	0	0	
0.027	-0.00145785	0.00225618	0.000557581	0.00104417	0	0	0	
0.0271667	-0.00727648	0.012031	0.000713537	0.00124732	0	0	0	
0.0273333	0.00550936	-0.000651465	0.000703918	0.00108615	0	0	0	
0.0275	-0.00523368	0.0164441	0.000581584	0.000831643	0	0	0	
0.0276667	0.0107819	-0.0288304	0.000491528	0.000679222	0	0	0	
0.0278333	-6.38979E-05	-0.0146973	0.000418316	0.000763152	0	0	0	
0.028	-0.0165922	0.063751	0.000332537	0.000840528	0	0	0	
0.0281667	0.0136843	-0.0512409	0.000304699	0.00097565	0	0	0	
0.0283333	0.000251995	0.0100787	0.000413177	0.00107678	0	0	0	
0.0285	-0.00355682	-0.00959078	0.000491008	0.000871175	0	0	0	
0.0286667	7.81842E-05	0.0233152	0.000441358	0.000655571	0	0	0	
0.0288333	0.000676304	-0.02305	0.000352947	0.00042324	0	0	0	
0.029	0.00158774	0.0119534	0.00034557	0.000413147	0	0	0	
0.0291667	-0.0048242	-0.00306773	0.000407681	0.000398213	0	0	0	
0.0293333	0.00625486	0.00569771	0.000447144	0.000333293	0	0	0	
0.0295	-0.00437266	-0.0107331	0.000424246	0.000271314	0	0	0	
0.0296667	0.00365979	-0.00428141	0.000383694	0.000261312	0	0	0	
0.0298333	-0.00622795	0.00970062	0.000380827	0.000287757	0	0	0	
0.03	0.0069683	-0.00363125	0.000407827	0.000241716	0	0	0	
0.0301667	-0.00653921	-0.00874774	0.000417458	0.000228628	0	0	0	
0.0303333	0.00520894	0.0167229	0.000389596	0.000213744	0	0	0	
0.0305	-0.0029204	-0.0112622	0.000344569	0.000267771	0	0	0	
0.0306667	0.00209781	0.00139214	0.000322877	0.000224528	0	0	0	
0.0308333	-0.0068292	0.0003548	0.000341802	0.000157501	0	0	0	
0.031	0.00926081	-0.00205276	0.000376955	7.71771E-05	0	0	0	
0.0311667	-0.00661137	0.00591608	0.000387668	6.13621E-05	0	0	0	
0.0313333	0.00474608	-0.00261269	0.000375837	7.27312E-05	0	0	0	
0.0315	-0.0083817	-9.41791E-06	0.000376891	8.62334E-05	0	0	0	
0.0316667	0.00987785	-0.00441053	0.000386579	6.48026E-05	0	0	0	
0.0318333	-0.00908639	0.010708	0.000386375	9.98195E-05	0	0	0	
0.032	0.00909522	-0.00472023	0.000391522	0.000122007	0	0	0	
0.0321667	-0.00960188	0.00343451	0.000414153	0.000135375	0	0	0	
0.0323333	0.00755903	0.00136017	0.000422551	9.53289E-05	0	0	0	
0.0325	-0.00565843	-0.00167004	0.000401893	9.71207E-05	0	0	0	
0.0326667	0.00676596	-0.000272571	0.000384573	0.000129608	0	0	0	
0.0328333	-0.00723069	-0.0021219	0.000383387	0.000129681	0	0	0	
0.033	0.00611048	0.000309433	0.000371828	9.13698E-05	0	0	0	
0.0331667	-0.00662271	0.00860458	0.00035627	6.1866E-05	0	0	0	
0.0333333	0.00776023	-0.00399839	0.000356594	9.19024E-05	0	0	0	
0.0335	-0.00421911	-0.0131906	0.000351159	0.000184956	0	0	0	
0.0336667	-0.00341388	0.0188565	0.000327843	0.000241927	0	0	0	
0.0338333	0.00199727	-0.0107733	0.00035353	0.000338332	0	0	0	
0.034	0.00752308	-0.00252107	0.000460729	0.000348801	0	0	0	
0.0341667	-0.0130732	0.00571644	0.000576506	0.000334558	0	0	0	
0.0343333	0.0185397	-0.0322035	0.000612894	0.000310571	0	0	0	
0.0345	-0.0269866	0.050085	0.000588086	0.000438029	0	0	0	
0.0346667	0.0235922	-0.0229861	0.000554497	0.000702951	0	0	0	
0.0348333	-0.0118178	-0.042232	0.000462666	0.00105915	0	0	0	
0.035	-0.00841254	0.0575969	0.000367896	0.00111586	0	0	0	
0.0351667	0.0215609	-0.00215193	0.000275695	0.00117344	0	0	0	
0.0353333	-0.00438186	-0.0603717	0.000389229	0.00112993	0	0	0	
0.0355	-0.0182009	0.0498188	0.000595791	0.00116816	0	0	0	
0.0356667	0.0184186	-0.014279	0.000750992	0.000986952	0	0	0	
0.0358333	-0.0160628	0.00262853	0.000730436	0.000608226	0	0	0	
0.036	0.0201467	0.002366	0.000616655	0.000279585	0	0	0	
0.0361667	-0.0162597	-0.0152682	0.000516764	0.00013405	0	0	0	
0.0363333	0.00655553	0.0130283	0.000412778	0.000175103	0	0	0	
0.0365	-0.00637735	0.0131651	0.000340186	0.00040352	0	0	0	
0.0366667	0.012877	-0.0308999	0.000361649	0.000537069	0	0	0	
0.0368333	-0.0140933	0.0067314	0.000422566	0.000558658	0	0	0	
0.037	0.00965135	0.025578	0.000434074	0.000505627	0	0	0	
0.0371667	-0.00710946	-0.0167911	0.000377164	0.000427334	0	0	0	
0.0373333	0.00718022	-0.0129678	0.000349141	0.000543023	0	0	0	
0.0375	-0.00991926	0.0247893	0.000385111	0.000510169	0	0	0	
0.0376667	0.0135136	-0.0126911	0.000459799	0.000507704	0	0	0	
0.0378333	-0.013677	-0.00816487	0.000500065	0.000357137	0	0	0	
0.038	0.00912495	0.00742918	0.000462257	0.000258139	0	0	0	
0.0381667	-0.00588749	0.00614645	0.000380684	0.000227979	0	0	0	
0.0383333	0.0104284	-0.00629326	0.000353976	0.000196338	0	0	0	
0.0385	-0.0140327	-0.00743766	0.000400982	0.000177979	0	0	0	
0.0386667	0.0106386	0.00796932	0.000434591	0.000146313	0	0	0	
0.0388333	-0.00581608	0.00356677	0.000393045	0.000220204	0	0	0	
0.039	0.00954308	-0.00516976	0.000348775	0.000269509	0	0	0	
0.0391667	-0.0148086	-0.00167581	0.000371021	0.000234704	0	0	0	
0.0393333	0.0143655	-0.000605486	0.000412524	0.00012613	0	0	0	
0.0395	-0.00909203	-0.000152315	0.000405238	6.77477E-05	0	0	0	
0.0396667	0.00852121	0.00825529	0.000374937	0.00013298	0	0	0	
0.0398333	-0.0118572	-0.0158473	0.000384817	0.000168773	0	0	0	
0.04	0.01397	0.00230442	0.000416376	0.00029829	0	0	0	
0.0401667	-0.0136708	0.016518	0.000437708	0.000379153	0	0	0	
0.0403333	0.0126508	-0.0119546	0.000430798	0.000414449	0	0	0	
0.0405	-0.00918882	-0.0119586	0.000402913	0.000421191	0	0	0	
0.0406667	0.00655269	0.00703539	0.000372767	0.000300488	0	0	0	
0.0408333	-0.00995131	0.0112976	0.000381018	0.000350943	0	0	0	
0.041	0.0116854	-0.00490144	0.000399526	0.000232921	0	0	0	
0.0411667	-0.00472953	-0.0149376	0.000389842	0.000283794	0	0	0	
0.0413333	0.00574398	0.00223308	0.000397066	0.000257728	0	0	0	
0.0415	-0.0204982	0.0354553	0.000506982	0.000447991	0	0	0	
0.0416667	0.0254937	-0.0318277	0.000617075	0.000539846	0	0	0	
0.0418333	-0.0113747	-0.00208658	0.0005876	0.00059466	0	0	0	
0.042	0.00299556	0.0106328	0.000407712	0.000387291	0	0	0	
0.0421667	-0.00838594	0.0139734	0.000312539	0.000293352	0	0	0	
0.0423333	0.010624	-0.0113057	0.000317337	0.000224439	0	0	0	
0.0425	-0.00495417	-0.0117228	0.000366498	0.000335925	0	0	0	
0.0426667	0.00446121	0.0170061	0.000383367	0.00033452	0	0	0	
0.0428333	-0.0101007	0.00227656	0.000418868	0.000451207	0	0	0	
0.043	0.0168194	-0.00633605	0.000472208	0.000393011	0	0	0	
0.0431667	-0.0166158	-0.00464306	0.000490604	0.000386834	0	0	0	
0.0433333	0.00836566	0.0127109	0.000434702	0.000209985	0	0	0	
0.0435	-0.00272689	0.00537279	0.00036902	0.000269451	0	0	0	
0.0436667	0.0111211	-0.0174093	0.000393174	0.000285473	0	0	0	
0.0438333	-0.0178213	0.00554596	0.000471062	0.000320619	0	0	0	
0.044	0.0121252	0.00330227	0.000495214	0.000265001	0	0	0	
0.0441667	-0.0054172	0.001116	0.000407803	0.000172704	0	0	0	
0.0443333	0.00741691	-0.00230742	0.000345265	0.00011509	0	0	0	
0.0445	-0.0118245	0.000569036	0.000372409	8.76083E-05	0	0	0	
0.0446667	0.0160272	0.00806919	0.000437945	0.00012844	0	0	0	
0.0448333	-0.0150483	-0.00546593	0.000455322	0.00015736	0	0	0	
0.045	0.0120748	-0.0039243	0.00041437	0.000163426	0	0	0	
0.0451667	-0.0118964	0.00979883	0.000372678	0.000198062	0	0	0	
0.0453333	0.0129114	-0.00763133	0.000362938	0.000209033	0	0	0	
0.0455	-0.0103163	-0.000293093	0.00037484	0.00021048	0	0	0	
0.0456667	0.0109247	0.00897171	0.000385005	0.000187192	0	0	0	
0.0458333	-0.0135079	-0.00326946	0.000396885	0.000161293	0	0	0	
0.046	0.0123112	-0.00449619	0.000404367	0.0001785	0	0	0	
0.0461667	-0.0087037	0.00164623	0.000393416	0.000155876	0	0	0	
0.0463333	0.00899343	0.00240807	0.000370433	0.000142273	0	0	0	
0.0465	-0.0118478	0.00250874	0.000374842	7.25765E-05	0	0	0	
0.0466667	0.0144543	-0.0095409	0.000399552	6.06205E-05	0	0	0	
0.0468333	-0.0142795	0.00391938	0.000408326	0.000108942	0	0	0	
0.047	0.0141124	0.00246736	0.000392609	0.000154732	0	0	0	
0.0471667	-0.0149934	0.00184646	0.000382934	0.000132626	0	0	0	
0.0473333	0.014717	-0.00417105	0.000373846	0.000113811	0	0	0	
0.0475	-0.0124193	0.00681581	0.000366223	7.57028E-05	0	0	0	
0.0476667	0.0124471	-0.00865551	0.000373423	0.000136811	0	0	0	
0.0478333	-0.0185431	0.00258045	0.000414477	0.000128644	0	0	0	
0.048	0.0184305	-0.00806536	0.000452826	0.000160266	0	0	0	
0.0481667	-0.0126816	0.0166543	0.000437867	0.000162957	0	0	0	
0.0483333	0.0122162	-0.00764303	0.000386059	0.00020251	0	0	0	
0.0485	-0.0138191	0.00358758	0.000360204	0.000189115	0	0	0	
0.0486667	0.0131135	-0.0112955	0.00036687	0.000191462	0	0	0	
0.0488333	-0.0119076	0.0161413	0.000376972	0.000203798	0	0	0	
0.049	0.0115515	-0.00866461	0.00037303	0.000255398	0	0	0	
0.0491667	-0.0146398	-0.00155037	0.000387541	0.000255581	0	0	0	
0.0493333	0.0200484	0.00670736	0.000423512	0.000207382	0	0	0	
0.0495	-0.0173608	0.00152755	0.000447234	0.000212666	0	0	0	
0.0496667	0.0140005	-0.00369786	0.000432729	0.000190172	0	0	0	
0.0498333	-0.0137602	0.00352337	0.000410007	0.000180343	0	0	0	
0.05	0.0156475	-0.00535237	0.000399673	0.0001554	0	0	0	
0.0501667	-0.014998	0.0156259	0.000409949	0.000171206	0	0	0	
0.0503333	0.014523	-0.00757814	0.000415789	0.000215124	0	0	0	
0.0505	-0.014728	-0.00322352	0.000416515	0.000225973	0	0	0	
0.0506667	0.0151504	0.00519068	0.000402329	0.000224489	0	0	0	
0.0508333	-0.0110778	-0.00403744	0.000367555	0.0001891	0	0	0	
0.051	0.00953245	0.0032056	0.000330368	0.00013726	0	0	0	
0.0511667	-0.0126814	0.00710767	0.000348274	0.000174297	0	0	0	
0.0513333	0.0160466	-0.0114914	0.000401123	0.000292801	0	0	0	
0.0515	-0.014318	0.0116058	0.000422778	0.000348415	0	0	0	
0.0516667	0.0135185	-0.0165594	0.00039463	0.000337977	0	0	0	
0.0518333	-0.0170179	0.0123875	0.000373012	0.000292391	0	0	0	
0.052	0.0167892	0.000759904	0.000384436	0.000327822	0	0	0	
0.0521667	-0.0112826	-0.0203539	0.000386328	0.000318831	0	0	0	
0.0523333	0.0139757	0.0197	0.000388408	0.000362786	0	0	0	
0.0525	-0.0206723	0.000493576	0.000418154	0.000471639	0	0	0	
0.0526667	0.0199008	-0.0165587	0.000452752	0.000524964	0	0	0	
0.0528333	-0.0150168	0.00474954	0.00044377	0.000432698	0	0	0	
0.053	0.0134222	-0.000934065	0.00041006	0.000240619	0	0	0	
0.0531667	-0.0139638	0.00204302	0.000395618	0.000113736	0	0	0	
0.0533333	0.0161749	-0.000753299	0.000407875	6.87704E-05	0	0	0	
0.0535	-0.0198103	-0.00543298	0.000417668	0.000116821	0	0	0	
0.0536667	0.0134476	0.0210929	0.000399571	0.000253273	0	0	0	
0.0538333	-0.000248955	-0.0308526	0.000321495	0.00038197	0	0	0	
0.054	-0.000185905	0.0160194	0.000298621	0.000495904	0	0	0	
0.0541667	-0.00903329	0.0246795	0.000407324	0.000666326	0	0	0	
0.0543333	0.029602	-0.0506776	0.000613105	0.000802678	0	0	0	
0.0545	-0.0450962	0.0394196	0.000797998	0.000894344	0	0	0	
0.0546667	0.041798	0.0203645	0.000834781	0.00100949	0	0	0	
0.0548333	-0.0141462	-0.0506501	0.000760871	0.00104953	0	0	0	
0.055	-0.00790529	0.0409105	0.000603562	0.00104684	0	0	0	
0.0551667	0.0126379	0.00262921	0.000418244	0.000984563	0	0	0	
0.0553333	0.00172615	-0.0280804	0.000428147	0.00100309	0	0	0	
0.0555	-0.0147847	0.0480715	0.000557465	0.00104746	0	0	0	
0.0556667	0.0314827	-0.045129	0.000783532	0.000972512	0	0	0	
0.0558333	-0.036165	0.0176547	0.000837858	0.000876986	0	0	0	
0.056	0.0212646	0.0418067	0.000737637	0.000868868	0	0	0	
0.0561667	-0.00443547	-0.0561599	0.000525986	0.00085172	0	0	0	
0.0563333	0.005007	0.013002	0.00036849	0.00105594	0	0	0	
0.0565	-0.010636	0.0268156	0.000355741	0.00120395	0	0	0	
0.0566667	0.0177952	-0.0151014	0.000450047	0.00110758	0	0	0	
0.0568333	-0.0237766	-0.0116721	0.000529783	0.000754318	0	0	0	
0.057	0.0186898	0.0216216	0.000511068	0.000380666	0	0	0	
0.0571667	-0.00972575	-0.012937	0.00042332	0.00034498	0	0	0	
0.0573333	0.00859343	0.0069256	0.000344209	0.000367178	0	0	0	
0.0575	-0.0120324	-0.00934953	0.000345419	0.000393249	0	0	0	
0.0576667	0.0165463	-0.00338356	0.000396087	0.000423322	0	0	0	
0.0578333	-0.0198006	0.0238597	0.000451951	0.000453744	0	0	0	
0.058	0.0214714	-0.0227123	0.00047759	0.000483325	0	0	0	
0.0581667	-0.024417	0.0225986	0.000502292	0.00042575	0	0	0	
0.0583333	0.0212788	-0.00341598	0.000483156	0.000506742	0	0	0	
0.0585	0.00256238	-0.0739606	0.000437111	0.000977827	0	0	0	
0.0586667	-0.0301912	0.148806	0.000452451	0.00172115	0	0	0	
0.0588333	0.0270511	-0.150361	0.00047065	0.00242923	0	0	0	
0.059	-0.00326736	0.14153	0.000542626	0.00267999	0	0	0	
0.0591667	-0.00226923	-0.139931	0.000475756	0.00274404	0	0	0	
0.0593333	-0.00374298	0.0667905	0.00035232	0.00269634	0	0	0	
0.0595	-0.0113784	0.0538583	0.000257776	0.00265615	0	0	0	
0.0596667	0.0346827	-0.0807982	0.000271146	0.00208001	0	0	0	
0.0598333	-0.0290205	0.00371386	0.000470479	0.00218211	0	0	0	
0.06	0.00653296	0.0523541	0.000578544	0.00228157	0	0	0	
0.0601667	-0.00688518	-0.0454158	0.000510505	0.00257515	0	0	0	
0.0603333	0.0187534	0.05895	0.000356816	0.00232235	0	0	0	
0.0605	-0.0142643	-0.0933679	0.000266645	0.00217155	0	0	0	
0.0606667	0.00398137	0.080847	0.000301029	0.00205662	0	0	0	
0.0608333	-0.00287922	-0.0254963	0.00025502	0.00165882	0	0	0	
0.061	0.00789515	0.0192092	0.00020777	0.00103556	0	0	0	
0.0611667	-0.0107245	-0.0437432	0.000185586	0.00079079	0	0	0	
0.0613333	0.00977644	0.0355812	0.000232802	0.000682855	0	0	0	
0.0615	-0.00929849	-0.00186431	0.000230044	0.000685034	0	0	0	
0.0616667	0.0138393	0.00506547	0.000232465	0.000463007	0	0	0	
0.0618333	-0.0175689	-0.0239747	0.000266228	0.000471399	0	0	0	
0.062	0.0168065	0.0200514	0.000306432	0.000438133	0	0	0	
0.0621667	-0.0124867	0.00138734	0.00032033	0.000494217	0	0	0	
0.0623333	0.0117304	-0.00648652	0.000289971	0.00027196	0	0	0	
0.0625	-0.0155912	-0.00664211	0.000287676	0.000247811	0	0	0	
0.0626667	0.0197706	0.00111626	0.000327104	0.000156712	0	0	0	
0.0628333	-0.022417	0.00956882	0.000399512	0.000164204	0	0	0	
0.063	0.0218963	0.00625981	0.000444493	0.000175673	0	0	0	
0.0631667	-0.017748	-0.0209132	0.000439714	0.000243887	0	0	0	
0.0633333	0.015273	-0.00180442	0.000396664	0.000376376	0	0	0	
0.0635	-0.0184642	0.0280101	0.000382046	0.000441066	0	0	0	
0.0636667	0.0222659	-0.0130114	0.000414985	0.000466597	0	0	0	
0.0638333	-0.0230014	-0.00733244	0.000467563	0.000434381	0	0	0	
0.064	0.0220397	-0.000340953	0.000483069	0.00028495	0	0	0	
0.0641667	-0.0186201	0.0180787	0.000456123	0.000261884	0	0	0	
0.0643333	0.0201991	-0.0181127	0.000414505	0.000234954	0	0	0	
0.0645	-0.0242989	0.00331045	0.000413575	0.000366792	0	0	0	
0.0646667	0.0206197	0.0124727	0.000425595	0.000353067	0	0	0	
0.0648333	-0.0134762	0.00114979	0.000417912	0.000335191	0	0	0	
0.065	0.0126478	-0.014667	0.000377499	0.000270404	0	0	0	
0.0651667	-0.0192985	0.013507	0.000374174	0.00027823	0	0	0	
0.0653333	0.0282348	-0.0222765	0.000435295	0.000344093	0	0	0	
0.0655	-0.0312575	0.038738	0.000547959	0.000526427	0	0	0	
0.0656667	0.0283747	-0.0312988	0.000602439	0.000643217	0	0	0	
0.0658333	-0.0217138	0.00655087	0.000576753	0.000717921	0	0	0	
0.066	0.0178909	0.0128829	0.000478311	0.000639014	0	0	0	
0.0661667	-0.0168285	-0.0049635	0.000402093	0.000507651	0	0	0	
0.0663333	0.0158716	-0.00855347	0.000389009	0.000566412	0	0	0	
0.0665	-0.0147835	0.011213	0.000433623	0.000659349	0	0	0	
0.0666667	0.024455	-0.0149253	0.000505951	0.000789448	0	0	0	
0.0668333	-0.0316684	0.0254596	0.000568337	0.000611288	0	0	0	
0.067	0.0268083	-0.0142806	0.00058469	0.000464047	0	0	0	
0.0671667	-0.0176719	-0.00757077	0.000535453	0.000309296	0	0	0	
0.0673333	0.0151024	0.014914	0.000457951	0.000313293	0	0	0	
0.0675	-0.0154349	-0.0057629	0.000396105	0.000314024	0	0	0	
0.0676667	0.0167254	-0.00403817	0.000369242	0.000374181	0	0	0	
0.0678333	-0.0176754	0.00893084	0.000376586	0.000325827	0	0	0	
0.068	0.0196615	-0.000548693	0.000391287	0.000231007	0	0	0	
0.0681667	-0.0196824	-0.0104668	0.000410729	0.000159376	0	0	0	
0.0683333	0.0185571	0.0123578	0.000414937	0.000179258	0	0	0	
0.0685	-0.0172152	-0.0010259	0.000398355	0.000196412	0	0	0	
0.0686667	0.0184541	-0.00826134	0.000377677	0.000251809	0	0	0	
0.0688333	-0.0181786	0.0101256	0.000367583	0.000223445	0	0	0	
0.069	0.019063	0.0058961	0.000370938	0.000261152	0	0	0	
0.0691667	-0.0200362	-0.0136786	0.000386986	0.000283444	0	0	0	
0.0693333	0.0200724	0.00873006	0.00039417	0.000293559	0	0	0	
0.0695	-0.0178245	0.00242784	0.00039314	0.000248651	0	0	0	
0.0696667	0.0215602	-0.00910889	0.000392936	0.000170383	0	0	0	
0.0698333	-0.0231018	0.0132445	0.000416878	0.000177644	0	0	0	
0.07	0.0208974	-0.0104339	0.000436234	0.000197929	0	0	0	
0.0701667	-0.0188452	0.00980183	0.000434921	0.000219058	0	0	0	
0.0703333	0.0203417	-0.00272031	0.000414515	0.000187696	0	0	0	
0.0705	-0.0211294	-0.00150861	0.000413951	0.000115535	0	0	0	
0.0706667	0.0214295	-0.00290347	0.000421669	0.000113876	0	0	0	
0.0708333	-0.0200738	0.00949422	0.000425828	0.000196839	0	0	0	
0.071	0.0198253	-0.00636956	0.000411893	0.000281734	0	0	0	
0.0711667	-0.0200788	-0.00342192	0.00040365	0.000262621	0	0	0	
0.0713333	0.0198889	-0.00146842	0.000394555	0.000186819	0	0	0	
0.0715	-0.0181325	0.00777907	0.00039071	0.000123009	0	0	0	
0.0716667	0.0190254	0.00280593	0.000383831	0.000126467	0	0	0	
0.0718333	-0.0208822	-0.0172343	0.000395104	0.000136041	0	0	0	
0.072	0.0197047	0.013473	0.000408402	0.000221073	0	0	0	
0.0721667	-0.0175741	0.00185238	0.000412371	0.000333434	0	0	0	
0.0723333	0.0219629	-0.0221234	0.000411838	0.000361385	0	0	0	
0.0725	-0.0265744	0.00746567	0.000430719	0.000352288	0	0	0	
0.0726667	0.0193208	0.0165956	0.000438577	0.000392208	0	0	0	
0.0728333	-0.00803093	-0.0367218	0.000401205	0.000466426	0	0	0	
0.073	0.00180196	0.0219753	0.000294029	0.000560705	0	0	0	
0.0731667	-0.00871928	-0.000351745	0.000277551	0.000665899	0	0	0	
0.0733333	0.0204286	-0.03251	0.000373216	0.000831313	0	0	0	
0.0735	-0.038429	0.0366383	0.000584377	0.000842079	0	0	0	
0.0736667	0.0487764	-0.00893793	0.000739124	0.0008186	0	0	0	
0.0738333	-0.034721	-0.0446299	0.000800564	0.000903757	0	0	0	
0.074	0.00683348	0.0536743	0.000735202	0.000981512	0	0	0	
0.0741667	0.00509957	-0.0286072	0.000529366	0.00103487	0	0	0	
0.0743333	-0.00219969	0.0038492	0.000327952	0.000879592	0	0	0	
0.0745	-0.00731183	0.00851548	0.000252894	0.000671228	0	0	0	
0.0746667	0.0211025	-0.0155362	0.000357134	0.000415944	0	0	0	
0.0748333	-0.0301888	0.00884713	0.000496879	0.00027227	0	0	0	
0.075	0.0252645	0.0205683	0.000542088	0.000440948	0	0	0	
0.0751667	-0.0154401	-0.0371289	0.000494071	0.000562816	0	0	0	
0.0753333	0.0157688	0.0105863	0.000394109	0.000620328	0	0	0	
0.0755	-0.0205132	0.0209568	0.00035629	0.000567728	0	0	0	
0.0756667	0.0241428	-0.0151633	0.000380605	0.000480729	0	0	0	
0.0758333	-0.0250241	-0.00561878	0.000442634	0.00043413	0	0	0	
0.076	0.0193886	0.00745459	0.00044677	0.000297946	0	0	0	
0.0761667	-0.0142973	-0.00208096	0.000403599	0.000237073	0	0	0	
0.0763333	0.0160886	-0.00777255	0.000348248	0.000170855	0	0	0	
0.0765	-0.0208991	-0.000447185	0.000347763	0.00013616	0	0	0	
0.0766667	0.0209983	0.0101995	0.000375544	0.000118889	0	0	0	
0.0768333	-0.0190899	-0.012397	0.000401165	0.000152494	0	0	0	
0.077	0.0173026	-0.00269019	0.000387408	0.00022056	0	0	0	
0.0771667	-0.0172081	0.00808487	0.000360692	0.000230214	0	0	0	
0.0773333	0.0207686	-0.00335878	0.000356476	0.00021536	0	0	0	
0.0775	-0.024802	-0.00573537	0.000388078	0.000180145	0	0	0	
0.0776667	0.0212889	0.00990614	0.000422927	0.000197209	0	0	0	
0.0778333	-0.0167137	-0.00392383	0.000418073	0.000179672	0	0	0	
0.078	0.0172518	0.00123444	0.00037824	0.000136187	0	0	0	
0.0781667	-0.020879	0.00355428	0.000359801	8.34554E-05	0	0	0	
0.0783333	0.0224404	-0.0136702	0.000378551	9.33196E-05	0	0	0	
0.0785	-0.0205749	0.0118463	0.000407701	0.000157747	0	0	0	
0.0786667	0.0193131	0.00735233	0.000412103	0.000238542	0	0	0	
0.0788333	-0.0188654	-0.0130029	0.000394288	0.000248719	0	0	0	
0.079	0.0169745	0.00546877	0.00037343	0.000245894	0	0	0	
0.0791667	-0.0152174	0.00160072	0.000354936	0.000224289	0	0	0	
0.0793333	0.0159857	0.00359835	0.000341109	0.000192024	0	0	0	
0.0795	-0.0187605	-0.0111513	0.00034082	0.00017614	0	0	0	
0.0796667	0.0226589	0.00810527	0.000362234	0.00019456	0	0	0	
0.0798333	-0.0214486	-0.0132	0.000386754	0.000254342	0	0	0	
0.08	0.0123343	0.0289304	0.00038651	0.00037343	0	0	0	
0.0801667	-0.00842976	-0.0268296	0.000330848	0.00044206	0	0	0	
0.0803333	0.016819	-0.00940443	0.000283946	0.000522474	0	0	0	
0.0805	-0.0231041	0.0296583	0.000295346	0.000457298	0	0	0	
0.0806667	0.023399	-0.00889371	0.000368127	0.000495392	0	0	0	
0.0808333	-0.02849	-0.00650476	0.000449673	0.000504061	0	0	0	
0.081	0.0305543	-0.00303674	0.000506597	0.000444706	0	0	0	
0.0811667	-0.0241393	-0.00305005	0.000527717	0.000298977	0	0	0	
0.0813333	0.0149689	0.0175103	0.000486959	0.000202708	0	0	0	
0.0815	-0.0128515	-0.015175	0.000396196	0.000249864	0	0	0	
0.0816667	0.0185564	-0.00724159	0.000348136	0.000390915	0	0	0	
0.0818333	-0.0237392	0.0195185	0.000375474	0.000384197	0	0	0	
0.082	0.0237745	-0.00565582	0.000433625	0.000381915	0	0	0	
0.0821667	-0.0220615	-0.0102007	0.000453475	0.000257247	0	0	0	
0.0823333	0.0230647	0.0115565	0.000438158	0.000243019	0	0	0	
0.0825	-0.0228789	-0.00379302	0.000431315	0.000212921	0	0	0	
0.0826667	0.0198764	-0.00399213	0.000423307	0.000164497	0	0	0	
0.0828333	-0.018851	0.00262902	0.000408668	0.000117704	0	0	0	
0.083	0.0211509	0.0047378	0.0003884	6.26369E-05	0	0	0	
0.0831667	-0.0200145	-9.63707E-05	0.0003875	0.000104311	0	0	0	
0.0833333	0.0208098	-0.00506923	0.00039505	0.000113005	0	0	0	
0.0835	-0.0217625	-0.0227527	0.000403017	0.000329542	0	0	0	
0.0836667	0.0118288	0.0931147	0.000376685	0.000735498	0	0	0	
0.0838333	0.00701333	-0.147177	0.000334482	0.00143649	0	0	0	
0.084	-0.0107923	0.140326	0.00029353	0.0021731	0	0	0	
0.0841667	0.0126389	-0.114148	0.000246875	0.00273741	0	0	0	
0.0843333	-0.0147482	0.0780051	0.000257668	0.00295597	0	0	0	
0.0845	0.0040481	-0.0153999	0.00035601	0.00295227	0	0	0	
0.0846667	0.0160278	-0.0269968	0.000510231	0.0026535	0	0	0	
0.0848333	-0.0256212	-0.000772253	0.000526464	0.0017835	0	0	0	
0.085	0.0288928	0.0553935	0.000531812	0.00150674	0	0	0	
0.0851667	-0.0192097	-0.0934526	0.000553332	0.00166099	0	0	0	
0.0853333	0.00384589	0.114103	0.000606762	0.00238483	0	0	0	
0.0855	0.00432451	-0.12391	0.000526697	0.00241954	0	0	0	
0.0856667	-0.00237787	0.0998408	0.000369002	0.00224315	0	0	0	
0.0858333	-0.0027389	-0.0564221	0.000251134	0.00196566	0	0	0	
0.086	0.00865781	0.0292152	0.000179362	0.00150938	0	0	0	
0.0861667	-0.0143308	-0.0335861	0.000180021	0.000984899	0	0	0	
0.0863333	0.0120518	0.0392914	0.000207221	0.000698367	0	0	0	
0.0865	-0.00641722	-0.0411168	0.00022092	0.000728685	0	0	0	
0.0866667	0.0119828	0.0314164	0.000206512	0.000842897	0	0	0	
0.0868333	-0.0221758	-0.0112236	0.000232172	0.000842989	0	0	0	
0.087	0.0213062	-0.00389912	0.000309067	0.000746904	0	0	0	
0.0871667	-0.0176027	0.00759127	0.000368335	0.00054019	0	0	0	
0.0873333	0.018333	0.00191836	0.00037887	0.000315821	0	0	0	
0.0875	-0.0191353	-0.0112852	0.000363111	0.000154177	0	0	0	
0.0876667	0.019316	0.00334196	0.000359515	0.000119334	0	0	0	
0.0878333	-0.0205674	-0.000756453	0.000371889	0.00015202	0	0	0	
0.088	0.0208726	0.00163483	0.00038582	0.000137994	0	0	0	
0.0881667	-0.0215247	-0.00218018	0.000401176	9.58027E-05	0	0	0	
0.0883333	0.0218131	0.00720743	0.000407312	7.12895E-05	0	0	0	
0.0885	-0.0202002	-0.00611274	0.000405356	8.93178E-05	0	0	0	
0.0886667	0.0196853	-0.00548346	0.000395906	0.000115444	0	0	0	
0.0888333	-0.0210914	0.0063731	0.000392041	0.000147736	0	0	0	
0.089	0.0204764	-0.00686725	0.000390723	0.000143111	0	0	0	
0.0891667	-0.0210317	0.000222916	0.000398262	0.000132915	0	0	0	
0.0893333	0.0226544	0.00304372	0.000403275	0.000100823	0	0	0	
0.0895	-0.0222453	0.000671584	0.000414965	6.81951E-05	0	0	0	
0.0896667	0.02078	-0.0103924	0.000416951	7.69446E-05	0	0	0	
0.0898333	-0.0221225	0.0121021	0.00041669	0.000121047	0	0	0	
0.09	0.0215738	-0.00807132	0.000413027	0.000175165	0	0	0	
0.0901667	-0.0199428	0.00472002	0.0004105	0.000188453	0	0	0	
0.0903333	0.0196104	-0.0043133	0.000399364	0.000165108	0	0	0	
0.0905	-0.0200527	0.00343465	0.000387178	0.000133389	0	0	0	
0.0906667	0.0191903	0.000319679	0.00037828	0.000106211	0	0	0	
0.0908333	-0.0204177	-0.00222997	0.00037937	8.13612E-05	0	0	0	
0.091	0.0221385	0.000155403	0.00038554	5.68728E-05	0	0	0	
0.0911667	-0.0213395	-0.00198247	0.000395822	4.86881E-05	0	0	0	
0.0913333	0.0197295	-0.00932578	0.000400269	9.67903E-05	0	0	0	
0.0915	-0.0200492	0.0124471	0.000393245	0.000239329	0	0	0	
0.0916667	0.0191344	-0.00867446	0.000382418	0.00029149	0	0	0	
0.0918333	-0.0160688	-0.000312367	0.000364896	0.000320439	0	0	0	
0.092	0.0155677	-0.000291617	0.000340131	0.000216426	0	0	0	
0.0921667	-0.0208511	0.0047442	0.000336341	0.000237478	0	0	0	
0.0923333	0.0267163	-0.010019	0.000378405	0.000208414	0	0	0	
0.0925	-0.029553	-0.00706901	0.000455463	0.000224658	0	0	0	
0.0926667	0.0278902	-0.00144981	0.000514584	0.000202548	0	0	0	
0.0928333	-0.0248982	0.0105676	0.000522051	0.000186694	0	0	0	
0.093	0.0163899	0.0238956	0.00051413	0.000461182	0	0	0	
0.0931667	-0.00423567	-0.0689886	0.000486057	0.000856566	0	0	0	
0.0933333	-0.00186718	0.0485508	0.000421597	0.00114861	0	0	0	
0.0935	-0.00267974	0.00892902	0.000279506	0.00112063	0	0	0	
0.0936667	0.0169325	-0.0206672	0.000259568	0.000773579	0	0	0	
0.0938333	-0.026889	-0.00400401	0.000295377	0.000716121	0	0	0	
0.094	0.0239693	0.0165401	0.00043094	0.000667625	0	0	0	
0.0941667	-0.0215712	0.00591303	0.00045217	0.000601031	0	0	0	
0.0943333	0.0266688	-0.0274087	0.000475884	0.000440073	0	0	0	
0.0945	-0.0216547	0.017878	0.000473832	0.000331807	0	0	0	
0.0946667	0.0145527	-0.00448546	0.000447778	0.000367418	0	0	0	
0.0948333	-0.0192883	0.0221133	0.00040149	0.000292858	0	0	0	
0.095	0.0263891	-0.0209621	0.000382721	0.000343598	0	0	0	
0.0951667	-0.0206975	-0.0220454	0.000414716	0.000552997	0	0	0	
0.0953333	0.0136351	0.0390845	0.00043018	0.000721734	0	0	0	
0.0955	-0.011218	-0.0177522	0.000380557	0.000711495	0	0	0	
0.0956667	0.0126096	-0.00681048	0.000303473	0.00059283	0	0	0	
0.0958333	-0.017085	0.0092593	0.000273609	0.000456685	0	0	0	
0.096	0.0213401	-0.00623068	0.000300888	0.000304246	0	0	0	
0.0961667	-0.0185194	-0.00591327	0.000345561	0.000157355	0	0	0	
0.0963333	0.0142277	0.0027232	0.000353007	0.000141986	0	0	0	
0.0965	-0.0164402	-0.00721075	0.000333212	0.000199525	0	0	0	
0.0966667	0.0221112	0.0174286	0.000327077	0.000268026	0	0	0	
0.0968333	-0.0203706	-0.0172767	0.000366485	0.000297157	0	0	0	
0.097	0.0152253	0.00847574	0.000385334	0.00031976	0	0	0	
0.0971667	-0.0168477	0.0008815	0.000368228	0.000354516	0	0	0	
0.0973333	0.0211375	-0.0182388	0.000337731	0.000322313	0	0	0	
0.0975	-0.0220979	0.0177316	0.000358452	0.00030972	0	0	0	
0.0976667	0.0190236	-0.00767051	0.000402518	0.000346533	0	0	0	
0.0978333	-0.0163144	-0.000949214	0.000417313	0.00043715	0	0	0	
0.098	0.0166082	0.0112826	0.00038541	0.000363902	0	0	0	
0.0981667	-0.0153416	0.000552739	0.000343293	0.000243175	0	0	0	
0.0983333	0.0163275	-0.00876785	0.000318615	0.000141541	0	0	0	
0.0985	-0.0219637	-0.00224279	0.000334524	0.000193914	0	0	0	
0.0986667	0.0211058	0.00450464	0.000376731	0.000220588	0	0	0	
0.0988333	-0.0159159	-0.00222113	0.000414227	0.000174957	0	0	0	
0.099	0.0203478	-0.0133021	0.000416546	0.000169535	0	0	0	
0.0991667	-0.0272256	0.0270315	0.000421874	0.000217016	0	0	0	
0.0993333	0.0230581	-0.0143608	0.000452825	0.000356326	0	0	0	
0.0995	-0.0140718	0.00125156	0.000468968	0.000349731	0	0	0	
0.0996667	0.0233	-0.0119988	0.000446233	0.00026932	0	0	0	
0.0998333	-0.0377601	0.0157554	0.000469648	0.000210917	0	0	0	
0.1	0.0307191	0.0048194	0.000540354	0.00032142	0	0	0	
0.100167	-0.0138309	-0.0164064	0.000590988	0.000349512	0	0	0	
0.100333	0.0154733	-0.00772069	0.000501768	0.000428371	0	0	0	
0.1005	-0.021664	0.0224889	0.000409907	0.000376914	0	0	0	
0.100667	0.0176719	-0.00549098	0.000356734	0.000407618	0	0	0	
0.100833	-0.0134628	-0.00581314	0.000354658	0.000308623	0	0	0	
0.101	0.0178611	-0.0112904	0.000328936	0.000244655	0	0	0	
0.101167	-0.0214737	0.0210238	0.000328182	0.000232334	0	0	0	
0.101333	0.02469	-0.010005	0.000369033	0.000312264	0	0	0	
0.1015	-0.023195	-0.00860959	0.000432702	0.000390475	0	0	0	
0.101667	0.0145667	0.00301592	0.000445086	0.000337787	0	0	0	
0.101833	-0.0151506	0.0121854	0.000404786	0.000325048	0	0	0	
0.102	0.0278244	-0.0196301	0.000381382	0.000266985	0	0	0	
0.102167	-0.0267559	0.00596094	0.000414351	0.00033639	0	0	0	
0.102333	0.01442	-0.00422717	0.000476131	0.000234559	0	0	0	
0.1025	-0.013358	0.0157723	0.000440648	0.000240499	0	0	0	
0.102667	0.0224988	-0.0158299	0.000383866	0.000246445	0	0	0	
0.102833	-0.0215485	0.00622452	0.000357558	0.000273462	0	0	0	
0.103	0.0182103	-0.00046332	0.000397319	0.000264164	0	0	0	
0.103167	-0.0197951	-0.00284585	0.000413229	0.000203503	0	0	0	
0.103333	0.0197919	-0.000252474	0.000410138	0.000174177	0	0	0	
0.1035	-0.0177257	0.0073441	0.000394652	0.000154041	0	0	0	
0.103667	0.0197696	-0.00129545	0.000386933	0.000138421	0	0	0	
0.103833	-0.0189169	-0.00432836	0.000382306	0.000118106	0	0	0	
0.104	0.0176316	-0.000892443	0.000386046	9.74335E-05	0	0	0	
0.104167	-0.0184783	0.014142	0.000388125	0.000151325	0	0	0	
0.104333	0.0202561	-0.016447	0.000386076	0.0002371	0	0	0	
0.1045	-0.0223509	0.0117685	0.000398381	0.00028401	0	0	0	
0.104667	0.0222177	-0.00178049	0.000421009	0.000268398	0	0	0	
0.104833	-0.0200049	0.0019664	0.000446996	0.000223128	0	0	0	
0.105	0.0192187	-0.00805434	0.000442396	0.000174405	0	0	0	
0.105167	-0.021703	0.0118467	0.000434649	0.00018465	0	0	0	
0.105333	0.0213153	-0.00636507	0.00041935	0.000190168	0	0	0	
0.1055	-0.0202103	0.00397599	0.000424665	0.000189696	0	0	0	
0.105667	0.0214385	-0.00331453	0.000421573	0.000121656	0	0	0	
0.105833	-0.0238109	0.00751605	0.000427921	0.000110673	0	0	0	
0.106	0.0212074	-0.00116695	0.000434584	0.000105369	0	0	0	
0.106167	-0.0200318	-0.0025392	0.000440226	0.000117633	0	0	0	
0.106333	0.0204303	0.00698071	0.000421714	0.00013408	0	0	0	
0.1065	-0.02204	-0.00559047	0.000409706	0.000159544	0	0	0	
0.106667	0.0216095	1.08235E-05	0.000411368	0.000198818	0	0	0	
0.106833	-0.0212363	0.00905281	0.000423252	0.000203542	0	0	0	
0.107	0.0204669	-0.00884403	0.000427169	0.000199324	0	0	0	
0.107167	-0.0199386	0.00341719	0.000420076	0.000183306	0	0	0	
0.107333	0.0173041	0.00478897	0.00040586	0.000189114	0	0	0	
0.1075	-0.0140186	-0.0107807	0.0003703	0.000196883	0	0	0	
0.107667	0.0150425	0.00948452	0.000327241	0.000238	0	0	0	
0.107833	-0.018897	-0.00553555	0.000308053	0.000192427	0	0	0	
0.108	0.0178987	-0.00161138	0.000330023	0.00017306	0	0	0	
0.108167	-0.0155659	0.000398097	0.000355881	8.72575E-05	0	0	0	
0.108333	0.0174906	0.00478717	0.000360043	0.000102853	0	0	0	
0.1085	-0.0187977	-0.0101813	0.000353189	9.53418E-05	0	0	0	
0.108667	0.0168203	0.00141167	0.000368156	0.000145867	0	0	0	
0.108833	-0.0174456	-0.00171509	0.000393229	0.000137679	0	0	0	
0.109	0.0197904	0.00393503	0.000405742	0.000146496	0	0	0	
0.109167	-0.018236	-0.0072835	0.000400687	0.000121837	0	0	0	
0.109333	0.0172026	0.00146967	0.000390468	0.000150948	0	0	0	
0.1095	-0.0179505	0.00407681	0.00037869	0.000148695	0	0	0	
0.109667	0.0199578	-0.00308578	0.000377778	0.000134632	0	0	0	
0.109833	-0.0206809	0.00055031	0.000394764	0.000112095	0	0	0	
0.11	0.0202493	-0.0058264	0.000416474	0.000127825	0	0	0	
0.110167	-0.0184689	-0.00551468	0.000427205	0.000184174	0	0	0	
0.110333	0.0177991	0.0115569	0.000419183	0.000216316	0	0	0	
0.1105	-0.0166975	-0.010142	0.000401656	0.000211705	0	0	0	
0.110667	0.0184177	0.00275948	0.000387626	0.000231091	0	0	0	
0.110833	-0.0198451	0.0091809	0.000386517	0.000202052	0	0	0	
0.111	0.0216896	-0.0110912	0.000403915	0.000234201	0	0	0	
0.111167	-0.01964	-0.00792187	0.00042325	0.000235013	0	0	0	
0.111333	0.0168072	0.00576376	0.0004198	0.000233896	0	0	0	
0.1115	-0.0155181	0.00217939	0.000392701	0.000187181	0	0	0	
0.111667	0.0165211	0.000799037	0.000353634	0.000102774	0	0	0	
0.111833	-0.0194817	-0.012255	0.000340335	0.000124902	0	0	0	
0.112	0.021593	0.0133572	0.000359496	0.000146904	0	0	0	
0.112167	-0.0157703	-0.00507713	0.000393172	0.000305608	0	0	0	
0.112333	0.0123186	-0.0100265	0.000386701	0.000430566	0	0	0	
0.1125	-0.0220467	0.0210201	0.000368532	0.00055209	0	0	0	
0.112667	0.0332842	-0.0331757	0.000402989	0.000573665	0	0	0	
0.112833	-0.0334965	0.0241157	0.000504341	0.000540452	0	0	0	
0.113	0.0227217	0.0128376	0.000617947	0.000678075	0	0	0	
0.113167	-0.0134705	-0.0643312	0.000652244	0.000853479	0	0	0	
0.113333	-0.00224848	0.0665997	0.000653011	0.00107696	0	0	0	
0.1135	0.0147307	0.00115899	0.000548442	0.00125099	0	0	0	
0.113667	0.00240362	-0.0548719	0.000445862	0.00129993	0	0	0	
0.113833	-0.0342016	0.0317895	0.000426121	0.00117217	0	0	0	
0.114	0.0399294	0.00282857	0.000525108	0.000917056	0	0	0	
0.114167	-0.0321996	-0.00270713	0.000661668	0.000577126	0	0	0	
0.114333	0.0261936	0.0021443	0.000714355	0.000444714	0	0	0	
0.1145	-0.0146741	-0.0291137	0.000726714	0.000434776	0	0	0	
0.114667	0.00300773	0.0215468	0.000684832	0.00052586	0	0	0	
0.114833	-0.00773394	0.0309491	0.000522745	0.000845079	0	0	0	
0.115	0.0215474	-0.0484816	0.000383211	0.000860395	0	0	0	
0.115167	-0.0279948	-0.00181839	0.000334894	0.00100225	0	0	0	
0.115333	0.0256742	0.0271085	0.000440123	0.000784465	0	0	0	
0.1155	-0.0192113	-0.000242665	0.000528561	0.000709278	0	0	0	
0.115667	0.016175	-0.028651	0.000525482	0.000625159	0	0	0	
0.115833	-0.0201247	0.0167025	0.000466488	0.000528576	0	0	0	
0.116	0.0204547	0.00110603	0.000419436	0.000479218	0	0	0	
0.116167	-0.0163286	-0.0011726	0.000410161	0.000270363	0	0	0	
0.116333	0.0168109	-0.0107888	0.000414674	0.000176977	0	0	0	
0.1165	-0.0199449	0.00546304	0.000414022	0.000113675	0	0	0	
0.116667	0.0183364	0.00100159	0.000409915	0.00014692	0	0	0	
0.116833	-0.0174627	0.00184282	0.000412	0.000117986	0	0	0	
0.117	0.0172951	-0.00469099	0.000402807	8.60756E-05	0	0	0	
0.117167	-0.0181063	0.00186637	0.000406342	5.9189E-05	0	0	0	
0.117333	0.0168458	0.00021704	0.000416778	6.3899E-05	0	0	0	
0.1175	-0.0179749	0.00366898	0.00042716	5.17815E-05	0	0	0	
0.117667	0.0185919	-0.0147643	0.00042237	9.94111E-05	0	0	0	
0.117833	-0.0180365	0.0143661	0.000416882	0.000188542	0	0	0	
0.118	0.0174022	-0.00965497	0.00041667	0.000245784	0	0	0	
0.118167	-0.0218901	0.0168002	0.000425142	0.000253939	0	0	0	
0.118333	0.0230943	-0.00371087	0.000456414	0.00033774	0	0	0	
0.1185	-0.00440615	-0.0460017	0.000533067	0.000736221	0	0	0	
0.118667	-0.0220134	0.0905631	0.000639825	0.00116754	0	0	0	
0.118833	0.0158362	-0.0866387	0.000621055	0.00155024	0	0	0	
0.119	0.00683026	0.0932631	0.000449225	0.00160661	0	0	0	
0.119167	-0.0100547	-0.10698	0.000289469	0.00174773	0	0	0	
0.119333	-0.00170329	0.0440276	0.000272936	0.00192316	0	0	0	
0.1195	-0.00804379	0.0608999	0.000288429	0.00216308	0	0	0	
0.119667	0.0252895	-0.0773007	0.000309193	0.00188727	0	0	0	
0.119833	-0.0293184	0.00408612	0.000440067	0.0019005	0	0	0	
0.12	0.0155985	0.0470857	0.000680891	0.00183314	0	0	0	
0.120167	-0.0121234	-0.0591954	0.000782233	0.00197661	0	0	0	
0.120333	0.0146155	0.0666571	0.000680511	0.00177185	0	0	0	
0.1205	-0.0115986	-0.0731193	0.0005816	0.00153706	0	0	0	
0.120667	0.00122863	0.0362731	0.000554173	0.00134806	0	0	0	
0.120833	-0.00199011	0.000131438	0.000474398	0.00107539	0	0	0	
0.121	0.0117705	0.00941448	0.000325774	0.000692075	0	0	0	
0.121167	-0.0162217	-0.0453069	0.000243629	0.00066082	0	0	0	
0.121333	0.0115752	0.0434449	0.000293357	0.000642822	0	0	0	
0.1215	-0.00954707	-0.0200397	0.000359264	0.00078183	0	0	0	
0.121667	0.0115871	0.00893071	0.00036157	0.000620214	0	0	0	
0.121833	-0.0118049	-0.00442221	0.000338201	0.00039772	0	0	0	
0.122	0.0142478	9.41458E-05	0.000325034	0.000216428	0	0	0	
0.122167	-0.018352	-0.00358912	0.000345328	0.000106025	0	0	0	
0.122333	0.013708	0.0103108	0.000386585	0.000166394	0	0	0	
0.1225	-0.00832999	-0.0128905	0.000424265	0.000220533	0	0	0	
0.122667	0.0116952	0.00561245	0.000393624	0.00027626	0	0	0	
0.122833	-0.0170546	-0.000171219	0.000342555	0.000208567	0	0	0	
0.123	0.0190359	0.00346551	0.000325109	0.000125099	0	0	0	
0.123167	-0.0190752	-0.00549256	0.000382474	9.73739E-05	0	0	0	
0.123333	0.0153579	0.00565496	0.000430898	0.000116437	0	0	0	
0.1235	-0.0127924	-9.10033E-05	0.000436065	0.000132583	0	0	0	
0.123667	0.0146385	-0.00557697	0.000392609	0.000134268	0	0	0	
0.123833	-0.0164192	0.00141487	0.000359487	0.000104654	0	0	0	
0.124	0.0152399	0.00412239	0.000369322	0.000145536	0	0	0	
0.124167	-0.0163003	-0.00396523	0.000399909	0.000112632	0	0	0	
0.124333	0.017149	-0.00570858	0.000409422	0.000179829	0	0	0	
0.1245	-0.0150152	0.00638386	0.000394684	0.000173309	0	0	0	
0.124667	0.0136626	0.00178933	0.000375295	0.000214151	0	0	0	
0.124833	-0.0148364	-0.0103797	0.000366319	0.000181767	0	0	0	
0.125	0.014189	0.00117087	0.000369496	0.000182657	0	0	0	
0.125167	-0.014321	0.0051413	0.000368117	0.000183327	0	0	0	
0.125333	0.0155267	0.0102943	0.000359755	0.000161475	0	0	0	
0.1255	-0.0141515	-0.0146981	0.000347291	0.000173813	0	0	0	
0.125667	0.0133655	-0.000874762	0.000351464	0.000189865	0	0	0	
0.125833	-0.0155961	0.00660761	0.000364829	0.000235216	0	0	0	
0.126	0.0161578	-0.00507485	0.000385792	0.000189324	0	0	0	
0.126167	-0.012853	-0.00515271	0.000397772	0.000186219	0	0	0	
0.126333	0.0120901	0.012709	0.000394054	0.000167534	0	0	0	
0.1265	-0.0138185	-0.00304163	0.000376419	0.000191738	0	0	0	
0.126667	0.0149604	-0.000499142	0.000370483	0.000128573	0	0	0	
0.126833	-0.0161727	0.00254136	0.000383673	8.07849E-05	0	0	0	
0.127	0.0176895	-0.00781492	0.00040052	7.51449E-05	0	0	0	
0.127167	-0.0177759	0.00988176	0.00041083	0.000135507	0	0	0	
0.127333	0.0165518	-0.00566911	0.000416297	0.000181805	0	0	0	
0.1275	-0.0139364	-0.00162566	0.000423362	0.000149773	0	0	0	
0.127667	0.0122289	-0.00146913	0.000416245	9.78213E-05	0	0	0	
0.127833	-0.0140924	0.0131796	0.000396365	9.32685E-05	0	0	0	
0.128	0.0148752	-0.00546314	0.00037063	0.000155472	0	0	0	
0.128167	-0.012529	-0.00229531	0.000358193	0.000150629	0	0	0	
0.128333	0.0126856	0.0127936	0.000355157	0.00014199	0	0	0	
0.1285	-0.0138492	-0.0106839	0.000354098	0.000141023	0	0	0	
0.128667	0.0144715	0.00598961	0.000360339	0.000179249	0	0	0	
0.128833	-0.0128103	0.00891778	0.000376532	0.000175726	0	0	0	
0.129	0.0111817	-0.00419818	0.000386087	0.000137109	0	0	0	
0.129167	-0.0114739	-0.000984336	0.00038205	0.000194525	0	0	0	
0.129333	0.0132608	0.0110169	0.000368928	0.000258344	0	0	0	
0.1295	-0.0132766	-0.00456863	0.000366887	0.000262661	0	0	0	
0.129667	0.0121198	0.00250037	0.000372064	0.000202586	0	0	0	
0.129833	-0.0145405	0.00699947	0.000381858	0.000120456	0	0	0	
0.13	0.0165201	-0.0107615	0.000392913	0.000147608	0	0	0	
0.130167	-0.0139214	0.00699212	0.000414461	0.000155576	0	0	0	
0.130333	0.0107307	0.00496207	0.000431182	0.000220121	0	0	0	
0.1305	-0.0111017	-0.0124864	0.000425666	0.000261305	0	0	0	
0.130667	0.0126005	0.00723917	0.000406135	0.000260841	0	0	0	
0.130833	-0.0128808	0.0057437	0.000393151	0.00021283	0	0	0	
0.131	0.012185	-0.0075024	0.000384046	0.000150867	0	0	0	
0.131167	-0.01323	-0.00157061	0.000371398	0.000129371	0	0	0	
0.131333	0.0146402	-0.0041196	0.00036299	0.000111016	0	0	0	
0.1315	-0.0160103	0.00900569	0.000375705	0.000110633	0	0	0	
0.131667	0.0180224	-0.00121879	0.000406738	0.000161263	0	0	0	
0.131833	-0.0150209	-0.00954558	0.000452035	0.000282776	0	0	0	
0.132	0.00525187	0.0208536	0.000509811	0.000385219	0	0	0	
0.132167	0.00187409	-0.0215758	0.000541008	0.000415446	0	0	0	
0.132333	-0.000250677	0.00747614	0.000462327	0.000406092	0	0	0	
0.1325	-0.00845656	0.0146495	0.000303478	0.000453978	0	0	0	
0.132667	0.0250473	-0.0287789	0.00024242	0.000494278	0	0	0	
0.132833	-0.0409893	0.0248958	0.000349909	0.000549486	0	0	0	
0.133	0.0401381	0.0114817	0.000587559	0.000685692	0	0	0	
0.133167	-0.0158102	-0.0405474	0.000820602	0.000752838	0	0	0	
0.133333	-0.00683377	0.0180424	0.000934984	0.000780213	0	0	0	
0.1335	0.00910792	0.0131112	0.000798911	0.000798341	0	0	0	
0.133667	-0.0011844	-0.0165756	0.000494513	0.00073681	0	0	0	
0.133833	-0.00418326	0.00840294	0.000203066	0.000587807	0	0	0	
0.134	0.016865	-0.00562602	0.000133559	0.000294035	0	0	0	
0.134167	-0.0254799	-0.00143848	0.000220545	0.000171582	0	0	0	
0.134333	0.0168507	0.0222243	0.000393539	0.000257018	0	0	0	
0.1345	-0.00487253	-0.0379922	0.000520666	0.000388564	0	0	0	
0.134667	0.00819756	0.00872596	0.000501007	0.000510338	0	0	0	
0.134833	-0.0156889	0.0169887	0.000414836	0.000556273	0	0	0	
0.135	0.0167112	-0.00861314	0.000357745	0.000454497	0	0	0	
0.135167	-0.0154928	-0.00701267	0.000402546	0.000393447	0	0	0	
0.135333	0.00996295	0.0152538	0.000476921	0.000275665	0	0	0	
0.1355	-0.0024126	-0.00961422	0.000516403	0.00026846	0	0	0	
0.135667	0.00543056	0.00366808	0.000476496	0.000203606	0	0	0	
0.135833	-0.00991139	-0.00614929	0.000390167	0.000190807	0	0	0	
0.136	0.0104625	0.0132119	0.000331655	0.000208902	0	0	0	
0.136167	-0.0111904	-0.00549402	0.000340294	0.000249841	0	0	0	
0.136333	0.0147028	-0.000164018	0.00037986	0.000189588	0	0	0	
0.1365	-0.0134529	0.00694034	0.000418744	0.000107543	0	0	0	
0.136667	0.0117644	-0.00309669	0.000457893	0.000111129	0	0	0	
0.136833	-0.011118	-0.00390455	0.000473148	0.000200454	0	0	0	
0.137	0.0132504	0.00911227	0.000467337	0.000225962	0	0	0	
0.137167	-0.0125209	0.0140979	0.000453397	0.000189575	0	0	0	
0.137333	0.0113777	-0.0199718	0.000446324	0.000215062	0	0	0	
0.1375	-0.0108185	0.0141676	0.000424427	0.000293289	0	0	0	
0.137667	0.013435	-0.00345594	0.000403183	0.000324164	0	0	0	
0.137833	-0.0134238	0.0021132	0.000404422	0.00023663	0	0	0	
0.138	0.01035	-0.00166265	0.000431307	0.000171692	0	0	0	
0.138167	-0.00859434	0.0100717	0.000442026	0.000126533	0	0	0	
0.138333	0.00836069	0.00377745	0.000422573	0.000135943	0	0	0	
0.1385	-0.00901017	-0.0110826	0.00039716	0.000125696	0	0	0	
0.138667	0.00938788	0.00762362	0.000385211	0.00018765	0	0	0	
0.138833	-0.0100243	0.00118351	0.000380007	0.000228162	0	0	0	
0.139	0.0106644	0.00262738	0.000376806	0.000198658	0	0	0	
0.139167	-0.0111785	-0.00861369	0.000393514	0.000182868	0	0	0	
0.139333	0.00852838	0.0162287	0.000423281	0.000171815	0	0	0	
0.1395	-0.00797144	-0.00598271	0.00042216	0.00025569	0	0	0	
0.139667	0.01102	-0.0130658	0.000373237	0.00032235	0	0	0	
0.139833	-0.0144013	0.0154369	0.000332304	0.000338492	0	0	0	
0.14	0.0133598	-0.00626945	0.000345494	0.000307247	0	0	0	
0.140167	-0.0118528	0.00606555	0.000398846	0.000211409	0	0	0	
0.140333	0.0092162	-0.00434048	0.00043879	0.000163235	0	0	0	
0.1405	-0.00510992	-0.0101122	0.000446032	0.00019332	0	0	0	
0.140667	0.00323925	0.0210534	0.00043275	0.00027051	0	0	0	
0.140833	-0.00360311	-0.0108978	0.000407618	0.000328769	0	0	0	
0.141	0.00718735	-0.00648812	0.000366158	0.000371404	0	0	0	
0.141167	-0.0134431	0.0143041	0.000327667	0.000314328	0	0	0	
0.141333	0.0167452	0.00417075	0.000338263	0.000317761	0	0	0	
0.1415	-0.0120525	-0.0110155	0.000404446	0.000234645	0	0	0	
0.141667	0.0081185	0.00162978	0.000467656	0.000220793	0	0	0	
0.141833	-0.0110358	0.00159443	0.000460135	0.000175997	0	0	0	
0.142	0.0130229	0.00410541	0.000413489	0.000170209	0	0	0	
0.142167	-0.0106856	0.00965132	0.000377722	0.000208527	0	0	0	
0.142333	0.0109112	-0.0139444	0.000372571	0.000277884	0	0	0	
0.1425	-0.0126083	0.0146404	0.000366641	0.000305975	0	0	0	
0.142667	0.0135189	-0.00130064	0.000375315	0.000296285	0	0	0	
0.142833	-0.0114857	-0.00966211	0.000408561	0.000227511	0	0	0	
0.143	0.0064942	0.00836957	0.000437651	0.000208274	0	0	0	
0.143167	-0.00514903	0.0070326	0.000417965	0.00022042	0	0	0	
0.143333	0.00689386	-0.012055	0.000361386	0.000242138	0	0	0	
0.1435	-0.00784694	0.0059228	0.000323162	0.000248863	0	0	0	
0.143667	0.00814536	0.00921746	0.000327215	0.00027869	0	0	0	
0.143833	-0.00847224	-0.0120556	0.00035988	0.000275727	0	0	0	
0.144	0.00474615	0.00600752	0.000398471	0.000273786	0	0	0	
0.144167	-0.00336031	0.00596782	0.000405013	0.000175131	0	0	0	
0.144333	0.00998334	-0.000726981	0.000372863	0.000150095	0	0	0	
0.1445	-0.0148751	-0.00231007	0.000361365	0.000138023	0	0	0	
0.144667	0.0102504	0.00160597	0.000411584	0.000129581	0	0	0	
0.144833	-0.00690584	0.00401546	0.000483464	0.000107667	0	0	0	
0.145	0.010098	-0.000956938	0.000498502	9.22714E-05	0	0	0	
0.145167	-0.0100701	0.00667407	0.000469917	9.88643E-05	0	0	0	
0.145333	0.00825298	-0.0123921	0.000449632	0.00013252	0	0	0	
0.1455	-0.00775986	0.00525754	0.000435686	0.000169902	0	0	0	
0.145667	0.0105239	0.00905172	0.000411983	0.000273902	0	0	0	
0.145833	-0.0117186	-0.00552766	0.000389691	0.000287561	0	0	0	
0.146	0.0110982	-0.010549	0.000393217	0.000300983	0	0	0	
0.146167	-0.00839128	0.0194872	0.000404464	0.00030588	0	0	0	
0.146333	0.0100043	-0.0155131	0.000402958	0.000326603	0	0	0	
0.1465	-0.0114098	0.00113197	0.000389853	0.000352306	0	0	0	
0.146667	0.0117203	0.00132735	0.000392349	0.000293418	0	0	0	
0.146833	-0.00741328	0.00121674	0.000399636	0.000202848	0	0	0	
0.147	0.00386703	0.00170474	0.000397853	0.000116009	0	0	0	
0.147167	-0.00319951	-0.00631119	0.000373877	7.38348E-05	0	0	0	
0.147333	0.00471892	0.00903596	0.000343984	0.000123215	0	0	0	
0.1475	-0.00739181	-0.0060946	0.000324627	0.000140446	0	0	0	
0.147667	0.00877274	0.00484457	0.000332235	0.000141454	0	0	0	
0.147833	-0.00763181	-0.0063442	0.000370202	0.000138628	0	0	0	
0.148	0.00782451	-0.000771216	0.000415366	0.000114979	0	0	0	
0.148167	-0.00828235	0.00332592	0.000438163	0.000101649	0	0	0	
0.148333	0.00778493	-0.0032288	0.000437816	6.67131E-05	0	0	0	
0.1485	-0.00657516	-0.001803	0.000423448	9.8831E-05	0	0	0	
0.148667	0.00901177	0.00818013	0.000405549	0.000118538	0	0	0	
0.148833	-0.0107145	-0.00126972	0.000391958	0.000138413	0	0	0	
0.149	0.00810596	-0.0125941	0.000386839	0.000123835	0	0	0	
0.149167	-0.0054177	0.00153949	0.000383361	0.000135386	0	0	0	
0.149333	0.00523657	0.00575348	0.000366941	0.000146865	0	0	0	
0.1495	-0.00498833	-0.00991271	0.000358151	0.000140497	0	0	0	
0.149667	0.00417009	-0.000748742	0.000374029	0.000140798	0	0	0	
0.149833	-0.00350481	0.0027899	0.000387201	0.00012354	0	0	0	
0.15	0.00514411	0.00713402	0.000367616	0.000124852	0	0	0	
0.150167	-0.0063832	-0.0126121	0.000339962	0.000132166	0	0	0	
0.150333	0.00466743	0.00743185	0.000348561	0.000181404	0	0	0	
0.1505	-0.00410679	-0.000202763	0.000380969	0.000220359	0	0	0	
0.150667	0.00601915	-0.0119987	0.000397657	0.000191631	0	0	0	
0.150833	-0.00530208	0.00674601	0.00040219	0.000186027	0	0	0	
0.151	0.00104987	0.00783091	0.0004098	0.000201491	0	0	0	
0.151167	-0.00142489	-0.00725089	0.000399087	0.000220145	0	0	0	
0.151333	0.00594516	0.00163434	0.000366614	0.000182935	0	0	0	
0.1515	-0.00548019	-0.00655168	0.000362084	0.000129479	0	0	0	
0.151667	-0.000871225	0.0147866	0.000412086	0.000137171	0	0	0	
0.151833	0.00309282	-0.00534235	0.000449847	0.000203081	0	0	0	
0.152	0.00180258	-0.00955498	0.000410452	0.000302573	0	0	0	
0.152167	-0.0062077	0.00793234	0.000334437	0.000290523	0	0	0	
0.152333	0.00817481	-0.00170113	0.000298688	0.00024591	0	0	0	
0.1525	-0.0116213	0.00381797	0.000326569	0.000138393	0	0	0	
0.152667	0.0151337	-0.00282257	0.000389187	0.000136208	0	0	0	
0.152833	-0.0122644	-0.0218181	0.00050482	0.000243961	0	0	0	
0.153	-0.00534	0.0382509	0.00067514	0.00040455	0	0	0	
0.153167	0.0166346	-0.0046331	0.000752327	0.000637283	0	0	0	
0.153333	-0.00386149	-0.0480424	0.000617549	0.000854368	0	0	0	
0.1535	-0.0127255	0.0458171	0.00037286	0.000926002	0	0	0	
0.153667	0.0106898	0.00323001	0.00028132	0.000995121	0	0	0	
0.153833	-0.00559783	-0.035676	0.000347722	0.00082692	0	0	0	
0.154	0.00263189	0.0256512	0.000420433	0.000773398	0	0	0	
0.154167	0.00192292	0.000702744	0.000426882	0.000530432	0	0	0	
0.154333	0.0032475	0.00285431	0.00039142	0.000340486	0	0	0	
0.1545	-0.0127801	0.00863137	0.000360069	0.000185095	0	0	0	
0.154667	0.0125763	-0.0323463	0.000363953	0.000292022	0	0	0	
0.154833	-0.00342543	0.0329443	0.000430626	0.000457673	0	0	0	
0.155	0.0038262	0.0110892	0.000489401	0.000700849	0	0	0	
0.155167	-0.00444466	-0.0240372	0.000522769	0.00069406	0	0	0	
0.155333	-0.00312477	0.00038911	0.000580393	0.000672589	0	0	0	
0.1555	0.00638587	0.0323032	0.000573913	0.000575878	0	0	0	
0.155667	0.00916084	-0.00665639	0.000432781	0.000487955	0	0	0	
0.155833	-0.0151586	-0.0222663	0.000296187	0.000445617	0	0	0	
0.156	0.00348302	0.0138381	0.000358821	0.00037662	0	0	0	
0.156167	0.00284689	0.0210053	0.000513405	0.000497635	0	0	0	
0.156333	0.00535131	-0.0310744	0.000510721	0.000527487	0	0	0	
0.1565	-0.0107536	0.0100286	0.000410838	0.000600372	0	0	0	
0.156667	0.00521457	0.00844348	0.000366802	0.000547019	0	0	0	
0.156833	0.0011088	-0.000915801	0.000426244	0.000421638	0	0	0	
0.157	-0.000182629	-0.0124129	0.000449573	0.00029136	0	0	0	
0.157167	-0.00542656	0.00130197	0.000407857	0.000147539	0	0	0	
0.157333	0.00915486	0.00558426	0.000369	0.000129656	0	0	0	
0.1575	-0.00530036	0.00541723	0.000403431	0.000137321	0	0	0	
0.157667	-0.00310838	-0.0237086	0.000505382	0.000169258	0	0	0	
0.157833	0.00434445	0.0169006	0.000569132	0.000362029	0	0	0	
0.158	0.00346864	0.00915448	0.000533223	0.000574864	0	0	0	
0.158167	-0.00837933	-0.0192179	0.000445836	0.000643367	0	0	0	
0.158333	0.0069218	0.00799447	0.000404501	0.000511761	0	0	0	
0.1585	-0.0040189	0.00331519	0.00042695	0.000306778	0	0	0	
0.158667	0.00747386	-0.0169975	0.000435398	0.000281393	0	0	0	
0.158833	-0.0145771	0.042857	0.000431391	0.000390896	0	0	0	
0.159	0.00903371	-0.0347068	0.000470231	0.000569939	0	0	0	
0.159167	0.00597537	0.0141464	0.000550893	0.000603622	0	0	0	
0.159333	-0.00429783	-0.0152129	0.000502441	0.000502064	0	0	0	
0.1595	-0.0127076	0.0228976	0.000349237	0.00035656	0	0	0	
0.159667	0.0152064	0.00163269	0.000261258	0.000359069	0	0	0	
0.159833	-0.000803775	-0.000265405	0.000388154	0.000344879	0	0	0	
0.16	-0.00336054	-0.0126523	0.000524843	0.000318903	0	0	0	
0.160167	-0.00196709	0.0154303	0.00049846	0.000234422	0	0	0	
0.160333	0.00154877	0.00590259	0.000395165	0.000371666	0	0	0	
0.1605	0.00310664	-0.0171128	0.000366418	0.000411488	0	0	0	
0.160667	-0.00362209	0.00121692	0.000392411	0.000497971	0	0	0	
0.160833	-0.00241263	0.0214357	0.000352445	0.000484912	0	0	0	
0.161	0.0111621	-0.0144881	0.00028096	0.000458386	0	0	0	
0.161167	-0.00966184	0.00161442	0.000294422	0.000388803	0	0	0	
0.161333	-0.00493324	-0.00526249	0.000444611	0.000215535	0	0	0	
0.1615	0.00832518	0.0169268	0.000546156	0.000187392	0	0	0	
0.161667	0.00513384	-0.00524299	0.000473247	0.000188929	0	0	0	
0.161833	-0.0110203	-0.0103585	0.000358614	0.000262637	0	0	0	
0.162	-0.00336876	0.0040578	0.000399521	0.000220735	0	0	0	
0.162167	0.00907788	0.0111253	0.000511269	0.00022464	0	0	0	
0.162333	0.00158538	-0.0115239	0.000472662	0.000196385	0	0	0	
0.1625	-0.00848328	-0.00400666	0.000344624	0.000273183	0	0	0	
0.162667	0.00371521	0.0145215	0.00032056	0.00025396	0	0	0	
0.162833	-0.000840816	-0.00897519	0.000400711	0.000272315	0	0	0	
0.163	0.00330524	0.00499549	0.00043506	0.000194035	0	0	0	
0.163167	-0.00592173	0.0023721	0.000402827	0.000146397	0	0	0	
0.163333	0.00234648	-0.00958259	0.000387066	8.89486E-05	0	0	0	
0.1635	0.00206476	0.000155633	0.000415552	0.000110662	0	0	0	
0.163667	-0.00106066	0.00921492	0.000417418	0.000166996	0	0	0	
0.163833	-0.0022408	-0.0118498	0.00037925	0.000194827	0	0	0	
0.164	0.00198751	0.00219023	0.00035762	0.000208484	0	0	0	
0.164167	0.00184302	0.0060026	0.000380769	0.000172753	0	0	0	
0.164333	-0.00183582	-0.00449615	0.000402721	0.000168203	0	0	0	
0.1645	0.000732892	-0.00229963	0.000392479	0.000176865	0	0	0	
0.164667	-0.00127141	0.00577164	0.000378507	0.000195293	0	0	0	
0.164833	0.000602066	-0.00338521	0.000379082	0.000185151	0	0	0	
0.165	0.00221595	0.00186819	0.000386021	0.000133205	0	0	0	
0.165167	-0.000816711	-0.00372244	0.00040209	0.000102707	0	0	0	
0.165333	-0.000567031	-0.000552098	0.000422549	9.20841E-05	0	0	0	
0.1655	0.000192787	0.00558007	0.000417952	8.88842E-05	0	0	0	
0.165667	0.0010963	-0.00755525	0.00039762	0.000107143	0	0	0	
0.165833	0.000830673	0.00471662	0.000400433	0.000155155	0	0	0	
0.166	-0.00231739	0.00503638	0.000420146	0.000205559	0	0	0	
0.166167	0.00152483	-0.0118455	0.000418135	0.000205591	0	0	0	
0.166333	-0.000188586	0.00496078	0.000396436	0.000195874	0	0	0	
0.1665	0.00136038	-0.00105129	0.000388299	0.000173105	0	0	0	
0.166667	-0.00117403	-0.0015825	0.000403157	0.000134615	0	0	0	
0.166833	0.00168056	0.00201357	0.000428217	9.90482E-05	0	0	0	
0.167	-0.00419473	-0.00325692	0.000448028	7.02086E-05	0	0	0	
0.167167	0.00431104	-0.000663749	0.000443231	7.24634E-05	0	0	0	
0.167333	-0.00027099	0.00430445	0.000403846	6.10146E-05	0	0	0	
0.1675	-0.00300493	-0.00504403	0.000374346	7.61922E-05	0	0	0	
0.167667	0.0111052	-0.00391981	0.000429008	0.000107902	0	0	0	
0.167833	-0.00463017	0.00242323	0.000523028	0.000169425	0	0	0	
0.168	0.00101811	0.00357067	0.000578789	0.000264665	0	0	0	
0.168167	0.00303765	-0.00908192	0.000551676	0.000319978	0	0	0	
0.168333	-0.00518085	0.0136256	0.000492182	0.000296126	0	0	0	
0.1685	0.00292039	-0.0081505	0.000433193	0.000255581	0	0	0	
0.168667	0.00543458	-0.0027699	0.000374019	0.000220137	0	0	0	
0.168833	-0.00565294	0.0121939	0.000329643	0.000198279	0	0	0	
0.169	0.00369192	-0.012669	0.000323588	0.000197489	0	0	0	
0.169167	0.0020414	0.005718	0.000366981	0.000240919	0	0	0	
0.169333	-0.0037043	0.0111192	0.000410669	0.00030691	0	0	0	
0.1695	0.00243506	-0.00941609	0.00042348	0.00029141	0	0	0	
0.169667	-0.00014653	-0.00355185	0.000408986	0.00022646	0	0	0	
0.169833	0.00135743	0.0102679	0.000411098	0.000215749	0	0	0	
0.17	-0.000950403	-0.00172531	0.000421732	0.000277417	0	0	0	
0.170167	0.000816798	-0.00240208	0.000420266	0.000334914	0	0	0	
0.170333	-0.00205911	0.00104885	0.000423486	0.000272642	0	0	0	
0.1705	0.00473779	0.00568572	0.00043827	0.000151826	0	0	0	
0.170667	-0.00302501	-0.0105583	0.000431434	0.000109928	0	0	0	
0.170833	0.00125626	0.0138437	0.0003947	0.00015623	0	0	0	
0.171	-0.00208423	-0.0104983	0.000378135	0.000224837	0	0	0	
0.171167	0.00421452	0.00801962	0.000394505	0.000213699	0	0	0	
0.171333	-0.00216299	-0.00697609	0.000397158	0.000185934	0	0	0	
0.1715	-0.00529554	-0.00382071	0.000353775	0.000199143	0	0	0	
0.171667	0.0045905	0.011291	0.000368391	0.000192631	0	0	0	
0.171833	0.042332	0.00475282	0.000642304	0.000234078	0	0	0	
0.172	-0.082647	-0.000558986	0.000886497	0.000230655	0	0	0	
0.172167	-0.0971339	-0.0833783	0.00190725	0.00074682	0	0	0	
0.172333	0.583972	0.208718	0.00344687	0.00135021	0	0	0	
0.1725	-1.36302	-0.288278	0.0104766	0.0042765	0	0	0	
0.172667	0.488667	0.0545858	0.0150078	0.00491126	0	0	0	
0.172833	-0.0391972	0.0464724	0.0155832	0.00493021	0	0	0	
0.173	-0.112998	-0.0104644	0.00972261	0.00210204	0	0	0	
0.173167	0.160407	0.00210693	0.0049118	0.00103546	0	0	0	
0.173333	-0.0601732	0.00293552	0.00332949	0.000465616	0	0	0	
0.1735	-0.476978	-0.173028	0.00601244	0.00176133	0	0	0	
0.173667	-0.0804103	0.10594	0.0116378	0.00364029	0	0	0	
0.173833	-0.173756	-0.0792655	0.0138793	0.00427462	0	0	0	
0.174	0.102641	0.00326114	0.0103916	0.00300003	0	0	0	
0.174167	0.0126842	-0.00681072	0.00463811	0.00107629	0	0	0	
0.174333	-0.00874046	0.0688343	0.00164609	0.000642307	0	0	0	
0.1745	-0.0879978	-0.0627632	0.00127021	0.000819834	0	0	0	
0.174667	0.140272	-0.0137458	0.00122741	0.0014794	0	0	0	
0.174833	-0.0576228	0.0557598	0.00183027	0.00161852	0	0	0	
0.175	-0.0168393	-0.0123589	0.00214133	0.00143487	0	0	0	
0.175167	0.0222207	-0.0318915	0.00169561	0.000957673	0	0	0	
0.175333	-0.0145522	0.017656	0.00110378	0.000646926	0	0	0	
0.1755	0.038049	0.00633063	0.000663452	0.000582433	0	0	0	
0.175667	-0.152371	-0.146186	0.0014266	0.000868106	0	0	0	
0.175833	0.222225	0.208405	0.00303912	0.00190147	0	0	0	
0.176	0.011284	-0.115824	0.00483489	0.00263563	0	0	0	
0.176167	0.0473378	0.0442765	0.00453438	0.00245681	0	0	0	
0.176333	-0.00741167	0.0232927	0.00289016	0.00172871	0	0	0	
0.1765	-0.00790951	-0.0294401	0.000950793	0.00104736	0	0	0	
0.176667	-0.0649723	-0.102353	0.000774289	0.000919889	0	0	0	
0.176833	-0.114629	0.0767648	0.00173445	0.00150927	0	0	0	
0.177	0.310898	-0.0126641	0.00375907	0.00198714	0	0	0	
0.177167	-0.0771023	-0.0480394	0.00409428	0.00230986	0	0	0	
0.177333	0.00355635	-0.00499357	0.00345013	0.00160469	0	0	0	
0.1775	0.0250344	0.0274065	0.00171425	0.00107622	0	0	0	
0.177667	-0.0177965	-0.0100527	0.000986697	0.000669122	0	0	0	
0.177833	0.0131424	0.00817875	0.000676985	0.000446723	0	0	0	
0.178	-0.00465264	-0.0335733	0.000543295	0.000456258	0	0	0	
0.178167	0.0622505	-0.0207542	0.00072347	0.000638222	0	0	0	
0.178333	-0.0209257	0.00640562	0.000802048	0.000572514	0	0	0	
0.1785	-0.00111168	0.00327057	0.000656066	0.000437217	0	0	0	
0.178667	0.00448501	-0.0107767	0.000388897	0.000144777	0	0	0	
0.178833	0.0016223	0.00317581	0.000309739	0.000166148	0	0	0	
0.179	-0.00999993	0.0284335	0.000415937	0.000318881	0	0	0	
0.179167	0.0981904	-0.105511	0.000612012	0.000606531	0	0	0	
0.179333	-0.0284643	0.012662	0.00095513	0.000757982	0	0	0	
0.1795	0.0209156	0.00683972	0.000970823	0.000718483	0	0	0	
0.179667	-0.00120261	-0.0132189	0.000764112	0.00046231	0	0	0	
0.179833	-0.000927987	0.00992734	0.00035516	0.000317991	0	0	0	
0.18	-0.00553497	0.013056	0.000325728	0.000355727	0	0	0	
0.180167	0.00661627	-0.0312282	0.000373582	0.000468122	0	0	0	
0.180333	-0.00762358	0.0264535	0.000406543	0.000527853	0	0	0	
0.1805	0.00996917	-0.00516183	0.000402017	0.00057575	0	0	0	
0.180667	-0.00780239	-0.00944878	0.00040264	0.000557816	0	0	0	
0.180833	0.00563578	0.00315273	0.000383441	0.000417275	0	0	0	
0.181	-0.00775798	0.006158	0.000358816	0.000265558	0	0	0	
0.181167	0.00795138	-0.012277	0.000352763	0.000166306	0	0	0	
0.181333	-0.00456597	0.0205243	0.00035639	0.000251293	0	0	0	
0.1815	0.00623868	-0.0167477	0.000361066	0.000292234	0	0	0	
0.181667	-0.00781028	-0.00150956	0.000374427	0.00038723	0	0	0	
0.181833	0.00525665	0.0123677	0.000384066	0.000388052	0	0	0	
0.182	-0.00526549	-0.0118129	0.000389503	0.000355871	0	0	0	
0.182167	0.00782778	0.00484169	0.00041179	0.00025925	0	0	0	
0.182333	-0.0094952	-0.00159908	0.00044233	0.000173521	0	0	0	
0.1825	0.0106745	-0.0014736	0.000448724	0.000130812	0	0	0	
0.182667	-0.00972361	0.00825038	0.000420067	9.13151E-05	0	0	0	
0.182833	0.00604	-0.00419952	0.000382776	0.000118645	0	0	0	
0.183	-0.00750458	-0.00190065	0.000365772	9.46421E-05	0	0	0	
0.183167	0.0105728	-0.00731684	0.000367295	9.31628E-05	0	0	0	
0.183333	-0.00770646	0.0131874	0.000360081	9.98093E-05	0	0	0	
0.1835	0.00436792	-0.00962826	0.000341135	0.000182664	0	0	0	
0.183667	-0.00856204	-0.000729283	0.000353715	0.000207624	0	0	0	
0.183833	0.010162	0.00307629	0.000397875	0.000178573	0	0	0	
0.184	-0.0104501	-6.1734E-05	0.000433181	0.00016249	0	0	0	
0.184167	0.012199	-0.00263916	0.00044045	0.000182204	0	0	0	
0.184333	-0.0119665	0.0077745	0.000433325	0.000227102	0	0	0	
0.1845	0.00963225	-0.0109822	0.000417168	0.000232868	0	0	0	
0.184667	-0.0095422	0.00471282	0.000398048	0.000211278	0	0	0	
0.184833	0.00894219	0.00146228	0.00039156	0.000152427	0	0	0	
0.185	-0.00851406	-0.00225635	0.000389244	8.53777E-05	0	0	0	
0.185167	0.00902309	0.000614089	0.000390688	8.88451E-05	0	0	0	
0.185333	-0.0105782	0.00308704	0.000405676	0.000143597	0	0	0	
0.1855	0.0126037	-0.00643864	0.000436654	0.000199849	0	0	0	
0.185667	-0.0119259	-0.00037754	0.00045376	0.000198683	0	0	0	
0.185833	0.0100366	0.00489378	0.000444123	0.000155972	0	0	0	
0.186	-0.0104524	-0.00277223	0.000424648	0.000137782	0	0	0	
0.186167	0.00988455	-0.00571931	0.000417639	0.000215445	0	0	0	
0.186333	-0.00825028	0.00890013	0.000418347	0.000314984	0	0	0	
0.1865	0.0082904	-0.00639589	0.000423584	0.000302152	0	0	0	
0.186667	-0.00997384	-0.0125334	0.000435028	0.000244993	0	0	0	
0.186833	0.0105214	0.017461	0.000451834	0.000211508	0	0	0	
0.187	-0.0100955	-0.00774366	0.000453171	0.000261968	0	0	0	
0.187167	0.00763172	0.0011873	0.000434478	0.000291755	0	0	0	
0.187333	-0.0093103	0.00177915	0.000411986	0.00028862	0	0	0	
0.1875	0.0112072	-0.00798998	0.000399275	0.000281096	0	0	0	
0.187667	-0.00930537	0.0137732	0.000382174	0.000244666	0	0	0	
0.187833	0.00796788	-0.00188166	0.000361962	0.000222737	0	0	0	
0.188	-0.00915561	-0.00744916	0.000363293	0.000233234	0	0	0	
0.188167	0.00834372	0.00798125	0.000377535	0.000202471	0	0	0	
0.188333	-0.0081595	0.00323389	0.000384807	0.000192129	0	0	0	
0.1885	0.0113502	-0.00140923	0.000391073	0.000120082	0	0	0	
0.188667	-0.0137325	-0.00145811	0.000411696	9.67041E-05	0	0	0	
0.188833	0.0136971	0.00469868	0.00043645	7.79104E-05	0	0	0	
0.189	-0.012131	0.00642609	0.000444882	0.000117026	0	0	0	
0.189167	0.0123	-0.00627873	0.00043225	0.000157658	0	0	0	
0.189333	-0.0112711	0.00128873	0.00041593	0.000139709	0	0	0	
0.1895	0.0109965	0.00126087	0.000402729	9.8705E-05	0	0	0	
0.189667	-0.0101725	0.00621672	0.000405516	0.000106117	0	0	0	
0.189833	0.0099685	-0.00570131	0.000409629	0.000120691	0	0	0	
0.19	-0.00905404	-0.000582879	0.000409269	0.000130909	0	0	0	
0.190167	0.0105894	0.00351134	0.000408822	9.52267E-05	0	0	0	
0.190333	-0.0123808	0.00177848	0.000427253	0.000121892	0	0	0	
0.1905	0.0118256	-0.00142201	0.000439329	0.000100181	0	0	0	
0.190667	-0.00953975	-0.0014611	0.000424691	0.000103528	0	0	0	
0.190833	0.00956028	0.00295764	0.000399471	0.000105134	0	0	0	
0.191	-0.0125008	0.00473859	0.00040853	0.000242851	0	0	0	
0.191167	0.0181938	-0.0195979	0.000459469	0.000328725	0	0	0	
0.191333	-0.0229401	0.0163247	0.000512517	0.000367628	0	0	0	
0.1915	0.0212451	0.00250957	0.000501733	0.000387284	0	0	0	
0.191667	-0.00949758	-0.025913	0.000425305	0.000432977	0	0	0	
0.191833	-0.00619946	0.0327974	0.000283402	0.00049137	0	0	0	
0.192	0.0112249	-0.0121281	0.000264618	0.000602421	0	0	0	
0.192167	-0.00418187	-0.0324833	0.000412968	0.000791735	0	0	0	
0.192333	-0.0194516	0.0470184	0.000738907	0.000893865	0	0	0	
0.1925	0.0430354	-0.0224247	0.000964474	0.000891544	0	0	0	
0.192667	-0.0373969	-0.0262396	0.000975975	0.000955618	0	0	0	
0.192833	0.0123332	0.0456972	0.00075646	0.000954216	0	0	0	
0.193	0.00121021	-0.030715	0.000453465	0.000921481	0	0	0	
0.193167	-0.00589254	0.0126742	0.000241256	0.000728188	0	0	0	
0.193333	0.00596731	0.00592098	0.000192243	0.000673169	0	0	0	
0.1935	0.00481032	-0.0373414	0.000332546	0.000633714	0	0	0	
0.193667	-0.0198373	0.0360954	0.000514637	0.000627806	0	0	0	
0.193833	0.0209492	0.00286938	0.000596832	0.000709579	0	0	0	
0.194	-0.0127975	-0.0438656	0.000541397	0.000804052	0	0	0	
0.194167	0.00948841	0.0334784	0.000431521	0.000813257	0	0	0	
0.194333	-0.00844364	0.0107784	0.00038331	0.000841242	0	0	0	
0.1945	0.0107534	-0.0228856	0.000398536	0.000681554	0	0	0	
0.194667	-0.0177178	-0.0120226	0.00044651	0.000617323	0	0	0	
0.194833	0.0170477	0.0242367	0.000463305	0.000428462	0	0	0	
0.195	-0.0092853	-0.00142099	0.000418227	0.000452762	0	0	0	
0.195167	0.00737259	-0.0215816	0.000352757	0.000446316	0	0	0	
0.195333	-0.0116933	0.00239889	0.000350597	0.000393684	0	0	0	
0.1955	0.0129303	0.0199226	0.000394267	0.000400298	0	0	0	
0.195667	-0.0107224	-0.0249629	0.000411077	0.000398091	0	0	0	
0.195833	0.00889727	0.00857866	0.000378732	0.000428756	0	0	0	
0.196	-0.0108558	-0.00527158	0.000363621	0.000288798	0	0	0	
0.196167	0.0162932	0.00952189	0.000404121	0.000197213	0	0	0	
0.196333	-0.017169	0.00324564	0.000463487	0.00024574	0	0	0	
0.1965	0.0140349	-0.0166674	0.000472691	0.000361783	0	0	0	
0.196667	-0.0110381	0.011368	0.000417307	0.000405815	0	0	0	
0.196833	0.0112086	0.00904095	0.000351314	0.000452473	0	0	0	
0.197	-0.0129754	-0.0133843	0.000337615	0.000353811	0	0	0	
0.197167	0.0127897	-0.00190597	0.000373253	0.000395557	0	0	0	
0.197333	-0.011566	0.00924518	0.000404381	0.000303561	0	0	0	
0.1975	0.0119623	0.00499404	0.000402601	0.000281765	0	0	0	
0.197667	-0.011858	-0.00601552	0.00038781	0.000182433	0	0	0	
0.197833	0.0129439	-0.0018246	0.000391034	0.000158906	0	0	0	
0.198	-0.0123683	0.0101357	0.000426721	0.000233773	0	0	0	
0.198167	0.0130307	0.00301523	0.000453587	0.00021929	0	0	0	
0.198333	-0.0142952	-0.0145245	0.000441693	0.000251591	0	0	0	
0.1985	0.0154959	0.00719437	0.000400845	0.000235929	0	0	0	
0.198667	-0.0127037	0.000238259	0.000360985	0.000233852	0	0	0	
0.198833	0.00783911	0.013385	0.000329025	0.000168297	0	0	0	
0.199	-0.00295699	-0.021756	0.000300916	0.000203229	0	0	0	
0.199167	0.00657962	0.0105336	0.000297569	0.000329269	0	0	0	
0.199333	-0.0127524	0.0176383	0.000333393	0.000415127	0	0	0	
0.1995	0.0172243	-0.015875	0.000394918	0.00040578	0	0	0	
0.199667	-0.0157924	-0.0120032	0.000432689	0.000334155	0	0	0	
0.199833	0.0126789	0.0152942	0.000419026	0.000299546	0	0	0	
0.2	-0.0100699	0.00448199	0.000367328	0.000240897	0	0	0	
0.200167	0.0130515	0.00337542	0.000333053	0.000230269	0	0	0	
0.200333	-0.0128717	-0.0213142	0.00032636	0.000208831	0	0	0	
0.2005	0.00810441	0.0102692	0.000315961	0.000286254	0	0	0	
0.200667	-0.00921471	0.0039068	0.000300134	0.000338059	0	0	0	
0.200833	0.0167536	-0.000540452	0.000315789	0.000333969	0	0	0	
0.201	-0.0160446	-0.012317	0.000348604	0.000357815	0	0	0	
0.201167	0.0104076	0.0161699	0.000342636	0.000298292	0	0	0	
0.201333	-0.00806207	-0.0142181	0.000298909	0.000325002	0	0	0	
0.2015	0.0115214	0.0140396	0.000285641	0.000263387	0	0	0	
0.201667	-0.016194	-0.00793627	0.000319158	0.000279327	0	0	0	
0.201833	0.0185008	-0.00983328	0.000371183	0.000248656	0	0	0	
0.202	-0.0171796	0.0161673	0.000410494	0.000243093	0	0	0	
0.202167	0.0202309	-0.000587082	0.000445232	0.000281339	0	0	0	
0.202333	-0.0241942	-0.00826316	0.000495424	0.000295385	0	0	0	
0.2025	0.0234763	0.00323169	0.000521581	0.000279765	0	0	0	
0.202667	-0.0169774	0.0108891	0.000503287	0.000323697	0	0	0	
0.202833	0.013803	-0.0174936	0.000436467	0.000352064	0	0	0	
0.203	-0.0135146	0.00707051	0.000392355	0.000355707	0	0	0	
0.203167	0.0139778	0.00526339	0.000377851	0.000245199	0	0	0	
0.203333	-0.0127161	0.00641526	0.000389101	0.000171486	0	0	0	
0.2035	0.015016	-0.0181487	0.000399679	0.000229099	0	0	0	
0.203667	-0.0183044	0.0188823	0.000440198	0.000309178	0	0	0	
0.203833	0.0215121	-0.0137486	0.00048973	0.000370716	0	0	0	
0.204	-0.0179968	0.00679547	0.000516634	0.000299513	0	0	0	
0.204167	0.0130282	0.00133758	0.000476692	0.000201845	0	0	0	
0.204333	-0.0132378	-0.00297267	0.000421908	0.000148807	0	0	0	
0.2045	0.0168278	0.00190979	0.000403397	0.000168495	0	0	0	
0.204667	-0.0152738	0.00223114	0.000423335	0.00025155	0	0	0	
0.204833	0.0122163	-0.00473368	0.000425256	0.000343334	0	0	0	
0.205	-0.0103574	0.00174159	0.000402621	0.000364538	0	0	0	
0.205167	0.0128906	0.00442268	0.000372734	0.000279891	0	0	0	
0.205333	-0.0149601	-0.00728599	0.000363526	0.000185355	0	0	0	
0.2055	0.0174434	-0.00326862	0.000371759	0.000128813	0	0	0	
0.205667	-0.0173452	0.00943368	0.000392677	0.000149715	0	0	0	
0.205833	0.0158732	-0.00296469	0.000406188	0.000143778	0	0	0	
0.206	-0.0157897	-0.00443288	0.000410795	0.000151759	0	0	0	
0.206167	0.0197954	0.00509246	0.000423185	0.000118466	0	0	0	
0.206333	-0.0136935	0.00640804	0.000403507	0.000162939	0	0	0	
0.2065	-0.00474962	-0.0119173	0.000313668	0.000174407	0	0	0	
0.206667	-0.00461818	-0.00590871	0.000386365	0.000195832	0	0	0	
0.206833	0.121596	-0.0397915	0.00102456	0.000230569	0	0	0	
0.207	-0.0146897	-0.0939712	0.00213449	0.00106525	0	0	0	
0.207167	0.043226	0.0459778	0.00234405	0.00175302	0	0	0	
0.207333	-0.0145781	-0.0293555	0.00180045	0.00188607	0	0	0	
0.2075	-0.000659474	0.0111356	0.000708446	0.00111606	0	0	0	
0.207667	-0.00814737	-0.0162719	0.000433194	0.000513299	0	0	0	
0.207833	0.0366695	-0.0155733	0.00048752	0.000777983	0	0	0	
0.208	-0.0548325	0.00814191	0.000730149	0.00127869	0	0	0	
0.208167	0.0328493	0.0484186	0.000845527	0.0014915	0	0	0	
0.208333	-0.00588542	-0.0561165	0.000721606	0.00127594	0	0	0	
0.2085	-0.00152692	0.0189015	0.000461086	0.000864701	0	0	0	
0.208667	-0.0037942	-0.0138045	0.000221278	0.000644225	0	0	0	
0.208833	0.0105046	0.051532	0.000142879	0.000529862	0	0	0	
0.209	-0.00938848	-0.0794214	0.000181553	0.00077149	0	0	0	
0.209167	0.00202897	0.0449684	0.000244026	0.00112576	0	0	0	
0.209333	-0.0108956	-0.0106293	0.000321715	0.00129052	0	0	0	
0.2095	0.0128797	-0.0139179	0.000378083	0.00112392	0	0	0	
0.209667	-0.0106113	0.00280731	0.000363985	0.000756853	0	0	0	
0.209833	0.00748375	0.0101512	0.000282827	0.00043955	0	0	0	
0.21	-0.0124369	-0.00249925	0.000209084	0.000407741	0	0	0	
0.210167	0.0125949	-0.0216493	0.000235586	0.000680379	0	0	0	
0.210333	-0.0149935	0.0297413	0.000288591	0.00079426	0	0	0	
0.2105	0.0118435	-0.0298069	0.000322941	0.00077057	0	0	0	
0.210667	-0.00694514	0.00135494	0.000278674	0.000573309	0	0	0	
0.210833	0.00561505	-8.89518E-05	0.000214743	0.000436766	0	0	0	
0.211	-0.013001	0.0283187	0.000180333	0.000320609	0	0	0	
0.211167	0.0201374	-0.0466211	0.000269226	0.00038553	0	0	0	
0.211333	-0.0218265	0.0398853	0.000393121	0.000739102	0	0	0	
0.2115	0.0269046	-0.0128911	0.000508187	0.000925375	0	0	0	
0.211667	-0.0189365	-0.00460628	0.000529277	0.000862019	0	0	0	
0.211833	0.00919138	-0.00223126	0.000447635	0.000513045	0	0	0	
0.212	-0.0123891	0.016355	0.000338332	0.000252136	0	0	0	
0.212167	0.0247182	0.00504251	0.000296995	0.000355226	0	0	0	
0.212333	-0.0205067	-0.0343784	0.000353385	0.000754007	0	0	0	
0.2125	-0.00927872	0.0512328	0.000396248	0.000977559	0	0	0	
0.212667	0.022363	-0.0144498	0.000345055	0.00116594	0	0	0	
0.212833	-0.00673247	-0.0194529	0.000402724	0.00110317	0	0	0	
0.213	-0.0132451	0.00133372	0.000464049	0.000892334	0	0	0	
0.213167	0.020332	0.0201998	0.000512855	0.000475153	0	0	0	
0.213333	-0.030488	-0.0120156	0.000501452	0.000401219	0	0	0	
0.2135	0.0336487	-0.00674578	0.000534446	0.000602508	0	0	0	
0.213667	-0.0251325	-0.0183514	0.000576917	0.000642837	0	0	0	
0.213833	0.0041946	0.0201203	0.000541858	0.000490567	0	0	0	
0.214	0.00693533	0.0128412	0.000409757	0.00043199	0	0	0	
0.214167	0.00292397	-0.0119322	0.000324699	0.000396388	0	0	0	
0.214333	-0.0219153	-0.0409427	0.000380054	0.000645665	0	0	0	
0.2145	0.0284066	0.0634888	0.000550674	0.000864606	0	0	0	
0.214667	-0.017584	-0.021904	0.000612528	0.000996211	0	0	0	
0.214833	0.0122921	-0.0238704	0.000499674	0.000930213	0	0	0	
0.215	-0.00995016	0.0273013	0.000325619	0.000667616	0	0	0	
0.215167	0.00885692	-0.00618392	0.000236185	0.000607929	0	0	0	
0.215333	-0.00461025	0.00374212	0.000183976	0.000389748	0	0	0	
0.2155	0.00255255	-0.0131703	0.0001714	0.000349706	0	0	0	
0.215667	-0.011988	0.000393098	0.000255413	0.000280272	0	0	0	
0.215833	0.0182851	0.0054075	0.000352608	0.000212623	0	0	0	
0.216	-0.0129463	-0.00235997	0.000388558	0.00015381	0	0	0	
0.216167	0.00635765	-0.00151497	0.000300872	0.000144666	0	0	0	
0.216333	-0.00608665	0.00335809	0.000203382	0.000152215	0	0	0	
0.2165	0.00966053	-0.00685226	0.000168572	0.0001501	0	0	0	
0.216667	-0.00715597	0.0162863	0.000198339	0.000173505	0	0	0	
0.216833	0.0121073	-0.0144618	0.000226812	0.000250165	0	0	0	
0.217	-0.0140306	0.00705028	0.000259345	0.00025539	0	0	0	
0.217167	0.00870418	0.00212881	0.000249783	0.000216029	0	0	0	
0.217333	-0.00612787	0.00241793	0.000225714	0.000121783	0	0	0	
0.2175	0.00861299	-0.00874193	0.000178514	0.000110744	0	0	0	
0.217667	-0.0142143	0.0128921	0.000192516	0.000130182	0	0	0	
0.217833	0.016242	0.00263026	0.00022568	0.000250053	0	0	0	
0.218	-0.0128453	-0.0130622	0.000279888	0.00034205	0	0	0	
0.218167	0.00478904	0.0149188	0.000249246	0.000372489	0	0	0	
0.218333	-0.00569135	0.00182296	0.000207804	0.00032443	0	0	0	
0.2185	0.00699024	-0.00848328	0.000153667	0.000238234	0	0	0	
0.218667	-0.00842033	0.00460921	0.000141479	0.000190877	0	0	0	
0.218833	0.00876353	-0.00285749	0.000160081	0.000141848	0	0	0	
0.219	-0.0184454	0.0284272	0.000209705	0.000172317	0	0	0	
0.219167	0.0163939	-0.0330719	0.000278473	0.000303662	0	0	0	
0.219333	-0.00581794	0.0166454	0.000289607	0.000513657	0	0	0	
0.2195	0.00327429	0.00799861	0.000219361	0.000601533	0	0	0	
0.219667	-0.00457363	-0.00439794	0.000136082	0.000452367	0	0	0	
0.219833	0.0114152	-0.000626163	0.000129247	0.000269071	0	0	0	
0.22	-0.0241063	-0.0013109	0.000203316	0.000162483	0	0	0	
0.220167	0.0187213	-0.00657092	0.000307959	0.000260813	0	0	0	
0.220333	-0.00196189	0.00197136	0.000328365	0.000288534	0	0	0	
0.2205	0.000864373	-0.00800725	0.00025878	0.000290655	0	0	0	
0.220667	-0.00580334	-0.00335849	0.000148244	0.000245885	0	0	0	
0.220833	0.0066087	0.0276823	9.63048E-05	0.00028671	0	0	0	
0.221	-0.0123684	-0.0145292	0.000126422	0.000366248	0	0	0	
0.221167	0.023628	-0.0132861	0.000224515	0.000416328	0	0	0	
0.221333	-0.0257485	0.00147402	0.000350796	0.000352126	0	0	0	
0.2215	0.0150212	0.000585513	0.000413532	0.000293706	0	0	0	
0.221667	-0.00657962	-0.00114584	0.000357986	0.000188313	0	0	0	
0.221833	0.00677575	-0.00477025	0.000243672	0.000132784	0	0	0	
0.222	-0.0162036	0.0223056	0.000200792	0.000127297	0	0	0	
0.222167	0.0224973	-0.0194105	0.000261324	0.000269757	0	0	0	
0.222333	-0.0226423	0.0125852	0.000354261	0.000344195	0	0	0	
0.2225	0.0135684	-0.00448999	0.000383407	0.000314121	0	0	0	
0.222667	-0.00594415	0.00208975	0.000320167	0.000169388	0	0	0	
0.222833	0.00484544	-0.000390574	0.000222209	0.000134694	0	0	0	
0.223	-0.00596879	-0.0130743	0.000138146	0.00014553	0	0	0	
0.223167	0.00721144	0.0133519	0.000124477	0.000200168	0	0	0	
0.223333	-0.0159355	-0.00751077	0.000159754	0.00020043	0	0	0	
0.2235	0.0178306	0.00314762	0.000250104	0.000167326	0	0	0	
0.223667	-0.0119924	0.000278788	0.000302528	0.000115386	0	0	0	
0.223833	0.00973252	-0.00518015	0.000298082	8.79202E-05	0	0	0	
0.224	-0.011069	0.00718139	0.000242996	8.58244E-05	0	0	0	
0.224167	0.0213495	-0.0151027	0.00024192	0.000170341	0	0	0	
0.224333	-0.0237198	0.00215414	0.000321489	0.000218559	0	0	0	
0.2245	0.0202851	0.00363613	0.000400079	0.000224813	0	0	0	
0.224667	-0.00843068	-0.00750145	0.000391287	0.000153043	0	0	0	
0.224833	0.00413401	0.0042169	0.000277557	0.000109338	0	0	0	
0.225	-0.00584882	0.00481852	0.00016871	0.000127496	0	0	0	
0.225167	0.0109801	-0.0163156	0.000133157	0.000160495	0	0	0	
0.225333	-0.0163235	0.00668599	0.000200976	0.000217798	0	0	0	
0.2255	0.023069	-0.00129606	0.00028381	0.000283279	0	0	0	
0.225667	-0.0186443	-0.0135575	0.000355388	0.000344944	0	0	0	
0.225833	0.00970604	0.00820588	0.000344124	0.00035053	0	0	0	
0.226	-0.00839011	0.000628178	0.000281854	0.000252209	0	0	0	
0.226167	0.0113974	-0.00651634	0.000210107	0.000138703	0	0	0	
0.226333	-0.0211029	0.00891322	0.00022267	0.000124034	0	0	0	
0.2265	0.0214503	-0.00733815	0.000309382	0.000239462	0	0	0	
0.226667	-0.0198228	-0.00577739	0.000386487	0.000357482	0	0	0	
0.226833	0.0172578	0.0117259	0.000409707	0.000373077	0	0	0	
0.227	-0.0106845	-0.00532703	0.000348362	0.000272701	0	0	0	
0.227167	0.00801943	-0.00354689	0.000270048	0.000188977	0	0	0	
0.227333	-0.013119	0.00449612	0.000211775	0.000121092	0	0	0	
0.2275	0.01633	-0.00150348	0.000245973	0.000124119	0	0	0	
0.227667	-0.0172258	-0.0017619	0.000290779	0.000122872	0	0	0	
0.227833	0.0167496	-0.00120376	0.000334343	0.000113499	0	0	0	
0.228	-0.0108008	0.000793371	0.000313398	8.46315E-05	0	0	0	
0.228167	0.0087631	4.47762E-05	0.000270346	4.17616E-05	0	0	0	
0.228333	-0.00894975	-0.00114453	0.000210938	3.11312E-05	0	0	0	
0.2285	0.0153187	-0.0010312	0.00019308	3.47718E-05	0	0	0	
0.228667	-0.0173711	0.00290254	0.000246744	4.35919E-05	0	0	0	
0.228833	0.0216883	-0.00459628	0.000315186	5.36114E-05	0	0	0	
0.229	-0.0166579	0.00232979	0.000360046	6.26075E-05	0	0	0	
0.229167	0.00829601	-0.001715	0.000320952	5.45402E-05	0	0	0	
0.229333	-0.00675287	0.00103245	0.000245603	5.53566E-05	0	0	0	
0.2295	0.0102315	-0.00242276	0.000178613	4.40331E-05	0	0	0	
0.229667	-0.0148657	0.00487529	0.000193713	5.46245E-05	0	0	0	
0.229833	0.0198368	-0.0202556	0.000258242	0.000116517	0	0	0	
0.23	-0.0210106	0.0129881	0.000335716	0.000216578	0	0	0	
0.230167	0.0141077	-0.00582469	0.000357923	0.000259009	0	0	0	
0.230333	-0.00784269	0.00299361	0.000312369	0.000212586	0	0	0	
0.2305	0.00924159	-0.00444643	0.000232784	0.000113886	0	0	0	
0.230667	-0.0200973	0.0116151	0.000212452	0.000143869	0	0	0	
0.230833	0.019259	-0.00805845	0.000275398	0.000284994	0	0	0	
0.231	-0.0171876	-0.00529384	0.000334486	0.000402848	0	0	0	
0.231167	0.0130988	0.00935847	0.000342956	0.000356823	0	0	0	
0.231333	-0.0076944	-0.00175938	0.000280261	0.000234564	0	0	0	
0.2315	0.0116917	-0.0122832	0.000236429	0.00017247	0	0	0	
0.231667	-0.0213141	0.0222509	0.000240683	0.000225358	0	0	0	
0.231833	0.0213155	0.00152024	0.000305236	0.000407111	0	0	0	
0.232	-0.0082533	-0.0258296	0.000362288	0.000613864	0	0	0	
0.232167	0.00276261	0.0263848	0.000319862	0.000641159	0	0	0	
0.232333	-0.00221086	-0.0041962	0.000270972	0.000738826	0	0	0	
0.2325	0.00976	-0.0304263	0.000278297	0.000771787	0	0	0	
0.232667	-0.0212187	0.0307978	0.000347929	0.000810418	0	0	0	
0.232833	0.0425725	0.00152378	0.000440446	0.000791477	0	0	0	
0.233	-0.0318968	-0.0254729	0.000576317	0.000889617	0	0	0	
0.233167	0.011063	0.0481315	0.000632294	0.00101974	0	0	0	
0.233333	0.00491258	-0.0691193	0.000554672	0.00104759	0	0	0	
0.2335	-0.00646202	0.035561	0.000328291	0.000970188	0	0	0	
0.233667	-0.00501729	0.0047626	0.00022919	0.000950567	0	0	0	
0.233833	0.0299835	-0.0341713	0.000274837	0.000770528	0	0	0	
0.234	-0.0347129	0.0339789	0.000470137	0.000708764	0	0	0	
0.234167	0.0209796	0.0079813	0.000517363	0.000819842	0	0	0	
0.234333	-0.0099735	-0.032534	0.000503657	0.00093497	0	0	0	
0.2345	0.00714994	0.0153831	0.000356562	0.000856294	0	0	0	
0.234667	-0.0104052	3.0117E-05	0.000311413	0.000515117	0	0	0	
0.234833	0.0145713	-0.00198583	0.000267317	0.000275269	0	0	0	
0.235	-0.0222175	0.000714287	0.000298249	0.000107499	0	0	0	
0.235167	0.0227864	0.00360016	0.000358574	0.000117995	0	0	0	
0.235333	-0.0142063	0.00720361	0.000379215	0.000177161	0	0	0	
0.2355	0.00739951	-0.0108568	0.000336648	0.000227953	0	0	0	
0.235667	-0.00589341	0.0066272	0.00023355	0.000225678	0	0	0	
0.235833	0.00873518	0.0015656	0.000178903	0.000171032	0	0	0	
0.236	-0.0142427	-0.011184	0.000173445	0.000124344	0	0	0	
0.236167	0.0223726	0.017299	0.000256369	0.000200444	0	0	0	
0.236333	-0.0219691	0.00302232	0.000319774	0.000291873	0	0	0	
0.2365	0.0213876	0.00440468	0.000389836	0.000302861	0	0	0	
0.236667	-0.0137563	-0.00693776	0.000378637	0.00023333	0	0	0	
0.236833	0.00816992	0.00266572	0.000329024	0.000168099	0	0	0	
0.237	-0.00861706	0.00014438	0.000237932	0.000183239	0	0	0	
0.237167	0.0147163	-0.00942282	0.000186062	0.000195815	0	0	0	
0.237333	-0.0198777	0.0146657	0.000231764	0.000233407	0	0	0	
0.2375	0.0166008	-0.00562322	0.000289176	0.000249704	0	0	0	
0.237667	-0.0147975	-0.00675068	0.000320675	0.000248505	0	0	0	
0.237833	0.0105601	0.00914844	0.000285787	0.000229246	0	0	0	
0.238	-0.0074799	-0.00499593	0.000239895	0.000193968	0	0	0	
0.238167	0.00497872	-0.00752957	0.000188342	0.000167449	0	0	0	
0.238333	-0.0123762	0.0195058	0.000168482	0.000181368	0	0	0	
0.2385	0.0169528	-0.0146117	0.000189325	0.000216104	0	0	0	
0.238667	-0.0185708	0.0168497	0.000258992	0.000277043	0	0	0	
0.238833	0.0112654	-0.0111447	0.000304952	0.000300608	0	0	0	
0.239	-0.00992393	-0.00249626	0.000289682	0.000266763	0	0	0	
0.239167	0.00772061	0.00126302	0.000227092	0.000223051	0	0	0	
0.239333	-0.012708	0.0244593	0.000190318	0.000359197	0	0	0	
0.2395	0.0151048	-0.0248542	0.000218452	0.000595828	0	0	0	
0.239667	-0.025331	0.0167377	0.000336732	0.000628523	0	0	0	
0.239833	0.0107752	0.00379502	0.000406648	0.000484245	0	0	0	
0.24	-0.00214741	-0.013358	0.000380936	0.000273982	0	0	0	
0.240167	0.00431709	0.0080165	0.000230856	0.000248339	0	0	0	
0.240333	-0.0126058	0.000994011	0.000146201	0.000177779	0	0	0	
0.2405	0.0228668	-0.0131088	0.000201471	0.00014659	0	0	0	
0.240667	-0.0276274	0.0255119	0.000329836	0.00022053	0	0	0	
0.240833	0.0207497	-0.0175269	0.000429929	0.000355277	0	0	0	
0.241	-0.00916654	-0.00348364	0.000419786	0.000474789	0	0	0	
0.241167	0.00304805	0.0117854	0.000335836	0.000447059	0	0	0	
0.241333	-0.00404606	-0.00303115	0.000215518	0.000308361	0	0	0	
0.2415	0.0154964	-0.0151328	0.000171727	0.000278552	0	0	0	
0.241667	-0.0267812	0.0236866	0.000227776	0.000340174	0	0	0	
0.241833	0.0264156	-0.0252011	0.000377683	0.000446469	0	0	0	
0.242	-0.0111052	0.0294045	0.000467277	0.000478614	0	0	0	
0.242167	0.00334816	-0.0212844	0.000416471	0.000510484	0	0	0	
0.242333	-0.00666969	0.00431962	0.000271531	0.000512663	0	0	0	
0.2425	0.00816503	0.017002	0.000153704	0.000506045	0	0	0	
0.242667	-0.0110981	-0.0210235	0.000163185	0.000392253	0	0	0	
0.242833	0.0214706	-0.0100339	0.000327059	0.000637934	0	0	0	
0.243	-0.0407962	0.0814079	0.000641597	0.00114685	0	0	0	
0.243167	0.042083	-0.0673432	0.000918307	0.00168768	0	0	0	
0.243333	-0.0221003	0.0522447	0.000902927	0.00165217	0	0	0	
0.2435	0.0130311	-0.0440664	0.000649529	0.00128778	0	0	0	
0.243667	-0.0244767	0.00957807	0.000407841	0.000907507	0	0	0	
0.243833	0.0157587	0.0267966	0.000359051	0.00100467	0	0	0	
0.244	0.0180664	-0.0431695	0.000350521	0.000967234	0	0	0	
0.244167	-0.0258958	0.0407369	0.000389646	0.00129425	0	0	0	
0.244333	0.00728142	0.00473015	0.000526014	0.00142173	0	0	0	
0.2445	0.0121797	-0.013102	0.000602324	0.00147709	0	0	0	
0.244667	-0.0111876	0.0151317	0.000518423	0.00106434	0	0	0	
0.244833	0.0153629	-0.0470034	0.000340126	0.000687115	0	0	0	
0.245	-0.0153449	0.0245179	0.000273604	0.000656727	0	0	0	
0.245167	0.0195409	-0.000159126	0.000321463	0.000606637	0	0	0	
0.245333	-0.0112009	-0.00558845	0.000332482	0.000505239	0	0	0	
0.2455	0.00745243	-0.00379922	0.000279854	0.000342491	0	0	0	
0.245667	-0.0100246	0.00862299	0.00021538	0.00030339	0	0	0	
0.245833	0.0205991	-0.00989914	0.000198196	0.000279763	0	0	0	
0.246	-0.0291207	-0.00564907	0.000304596	0.000307856	0	0	0	
0.246167	0.0173728	-0.00216996	0.000390161	0.000340795	0	0	0	
0.246333	-0.0134794	0.00282857	0.00041013	0.000283479	0	0	0	
0.2465	0.00693162	0.00234498	0.000321989	0.000216058	0	0	0	
0.246667	-0.00898506	-0.00188123	0.000232271	0.000108638	0	0	0	
0.246833	0.0151001	-0.00270008	0.000195877	0.000139487	0	0	0	
0.247	-0.0237785	0.00452067	0.000253097	8.23656E-05	0	0	0	
0.247167	0.0144516	-0.00248197	0.000325666	0.000137426	0	0	0	
0.247333	-0.0183408	-0.0056641	0.000385823	0.00017037	0	0	0	
0.2475	0.0158832	0.00962342	0.000379809	0.000227939	0	0	0	
0.247667	-0.00937692	-0.00614426	0.000330358	0.000206153	0	0	0	
0.247833	0.00889609	0.00267423	0.000256009	0.000156349	0	0	0	
0.248	-0.0127135	0.0025958	0.00019637	0.000132775	0	0	0	
0.248167	0.017699	0.00309213	0.00023054	0.000175746	0	0	0	
0.248333	-0.0185607	-0.0109411	0.000302273	0.000243716	0	0	0	
0.2485	0.0171339	0.000579162	0.000358377	0.00028184	0	0	0	
0.248667	-0.00997633	0.000181173	0.000336142	0.000303388	0	0	0	
0.248833	0.00808129	0.00199825	0.000261868	0.000228823	0	0	0	
0.249	-0.00936361	0.00390122	0.000197799	0.000180203	0	0	0	
0.249167	0.0166035	-0.00825734	0.000201895	0.000105419	0	0	0	
0.249333	-0.0196124	0.012572	0.000263824	0.000211851	0	0	0	
0.2495	0.0213996	-0.00448634	0.000337505	0.00033808	0	0	0	
0.249667	-0.0206797	-0.000552169	0.00038513	0.000421054	0	0	0	
0.249833	0.0097248	0.000557586	0.000369792	0.000309568	0	0	0	
0.25	-0.00529788	0.00186027	0.000302808	0.00015706	0	0	0	
0.250167	0.00771076	0.0101832	0.000209832	0.000144348	0	0	0	
0.250333	-0.0166118	0.0013796	0.000204502	0.00025787	0	0	0	
0.2505	0.0161767	0.0174646	0.000249473	0.000302941	0	0	0	
0.250667	-0.0134182	0.00397955	0.000307268	0.000282858	0	0	0	
0.250833	0.00986604	-0.0111689	0.000300426	0.000227648	0	0	0	
0.251	-0.0176569	0.0188848	0.000279237	0.000249627	0	0	0	
0.251167	0.0218933	-0.0157645	0.000292203	0.000294834	0	0	0	
0.251333	-0.0252763	0.00234219	0.000407921	0.00043596	0	0	0	
0.2515	0.0135244	0.0234424	0.000538005	0.000625003	0	0	0	
0.251667	0.00125842	-0.0332295	0.000597725	0.000730028	0	0	0	
0.251833	-0.0103296	0.0357464	0.000500447	0.000735702	0	0	0	
0.252	0.00410068	0.00485507	0.00031717	0.000661209	0	0	0	
0.252167	0.0129159	-0.0303357	0.000248925	0.000570855	0	0	0	
0.252333	-0.0275124	0.0184118	0.000264089	0.000522495	0	0	0	
0.2525	0.0296069	-0.0135852	0.000420316	0.000667636	0	0	0	
0.252667	-0.0233132	0.00636988	0.000568736	0.000780491	0	0	0	
0.252833	0.011257	-0.00922097	0.000669696	0.000819578	0	0	0	
0.253	-0.00350039	0.0132343	0.000596816	0.000801701	0	0	0	
0.253167	0.00740111	0.00282906	0.00037684	0.000739749	0	0	0	
0.253333	-0.0149481	0.012088	0.000216958	0.000562475	0	0	0	
0.2535	0.028489	-0.0399994	0.000286531	0.000383315	0	0	0	
0.253667	-0.0308508	0.008108	0.000498906	0.000446364	0	0	0	
0.253833	0.0229267	0.00672854	0.000658587	0.00048592	0	0	0	
0.254	-0.0107773	0.00995961	0.000626914	0.00049063	0	0	0	
0.254167	0.00255766	-0.0181407	0.000460032	0.000393086	0	0	0	
0.254333	-0.006747	0.00370314	0.000273416	0.000391193	0	0	0	
0.2545	0.012135	0.0290393	0.000174861	0.000372876	0	0	0	
0.254667	-0.013326	-0.0354156	0.000200232	0.0004084	0	0	0	
0.254833	0.0125614	0.000569625	0.000275302	0.000516569	0	0	0	
0.255	-0.0137459	0.00552629	0.000308564	0.00044858	0	0	0	
0.255167	0.0133798	0.00344944	0.000294454	0.00031699	0	0	0	
0.255333	-0.0114603	-0.00412268	0.000256779	0.000162057	0	0	0	
0.2555	0.0092388	0.00438649	0.000233037	0.000125744	0	0	0	
0.255667	-0.0156343	-0.000842742	0.000230569	0.000126643	0	0	0	
0.255833	0.0197586	-0.0112303	0.000295428	0.000194585	0	0	0	
0.256	-0.0172862	0.0022877	0.000363791	0.000217643	0	0	0	
0.256167	0.0113682	0.00414471	0.000407202	0.000184965	0	0	0	
0.256333	-0.00981215	-0.000660203	0.000342913	9.17444E-05	0	0	0	
0.2565	0.0273039	-0.00725185	0.000324467	7.57342E-05	0	0	0	
0.256667	-0.018811	0.000719766	0.000385041	0.000130683	0	0	0	
0.256833	-0.103993	0.10759	0.00107207	0.000592944	0	0	0	
0.257	0.00341363	0.0378359	0.00210666	0.00196992	0	0	0	
0.257167	-0.0247182	0.0262056	0.00229856	0.00220947	0	0	0	
0.257333	-0.00663633	-0.004883	0.00160626	0.00270758	0	0	0	
0.2575	0.0222832	-0.0254708	0.000543329	0.00206541	0	0	0	
0.257667	-0.00965881	0.0506784	0.000314324	0.00223901	0	0	0	
0.257833	-0.00916662	-0.0157512	0.000410125	0.00229211	0	0	0	
0.258	0.00885654	0.0289213	0.000381202	0.00243181	0	0	0	
0.258167	0.0155754	-0.0370948	0.000331837	0.00222785	0	0	0	
0.258333	-0.0323018	0.0255566	0.000329383	0.00138068	0	0	0	
0.2585	0.0272196	-0.00564568	0.000455703	0.000624009	0	0	0	
0.258667	-0.0144559	-0.00230657	0.000502304	0.000371021	0	0	0	
0.258833	0.0117303	-0.0304726	0.000443664	0.000381154	0	0	0	
0.259	-0.0196555	0.0420706	0.000369712	0.000469904	0	0	0	
0.259167	0.0223058	-0.00154845	0.000351847	0.000673245	0	0	0	
0.259333	-0.0202124	-0.0248028	0.000393305	0.000739061	0	0	0	
0.2595	0.0182979	0.0154552	0.000419034	0.000604624	0	0	0	
0.259667	-0.0170489	0.0156814	0.000422035	0.000581195	0	0	0	
0.259833	0.0141023	-0.0113062	0.000412116	0.000399227	0	0	0	
0.26	-0.013385	-0.0204949	0.000397013	0.000473519	0	0	0	
0.260167	0.0128432	0.0163622	0.00036627	0.000396611	0	0	0	
0.260333	-0.0162459	0.00757328	0.000341608	0.000411804	0	0	0	
0.2605	0.0205086	6.10429E-05	0.000341812	0.000274955	0	0	0	
0.260667	-0.0204665	-0.00905074	0.000365774	0.000163471	0	0	0	
0.260833	0.0144769	0.0130634	0.000385427	0.000154677	0	0	0	
0.261	-0.0136598	-0.017803	0.000380788	0.000212096	0	0	0	
0.261167	0.0182073	0.01732	0.000366837	0.000287392	0	0	0	
0.261333	-0.0216914	0.00173998	0.000391672	0.000387705	0	0	0	
0.2615	0.0178455	-0.0352985	0.000445345	0.000549527	0	0	0	
0.261667	-0.0142773	0.046824	0.000471628	0.00067789	0	0	0	
0.261833	0.0161763	-0.0142371	0.000431768	0.000775941	0	0	0	
0.262	-0.0188238	-0.018078	0.0003919	0.000777682	0	0	0	
0.262167	0.0108333	0.015163	0.000386716	0.000652298	0	0	0	
0.262333	-0.00925188	-0.00199773	0.000378403	0.000495048	0	0	0	
0.2625	0.0202604	-0.00400039	0.000350259	0.000388541	0	0	0	
0.262667	-0.0262955	0.0119549	0.000358592	0.00048916	0	0	0	
0.262833	0.0204122	-0.0209137	0.00040604	0.000608847	0	0	0	
0.263	-0.0149794	0.0169495	0.000444367	0.000572201	0	0	0	
0.263167	0.0147513	0.0046207	0.000423572	0.000485254	0	0	0	
0.263333	-0.0166945	-0.0266656	0.000415552	0.000379031	0	0	0	
0.2635	0.0131144	0.0220007	0.000422927	0.000411096	0	0	0	
0.263667	-0.0107649	-0.00099052	0.000419334	0.000416191	0	0	0	
0.263833	0.0134828	-0.00655983	0.000384338	0.000344084	0	0	0	
0.264	-0.0164758	0.00833714	0.00035634	0.000260893	0	0	0	
0.264167	0.0164774	0.00488094	0.000363428	0.000220168	0	0	0	
0.264333	-0.0170901	-0.0139377	0.000383013	0.000224962	0	0	0	
0.2645	0.0178416	0.00666652	0.000390144	0.00022169	0	0	0	
0.264667	-0.0165831	0.00826148	0.000407545	0.000238509	0	0	0	
0.264833	0.0112662	-0.0112068	0.000429692	0.000253469	0	0	0	
0.265	-0.0137691	0.00821125	0.000424008	0.000252627	0	0	0	
0.265167	0.0206713	-0.00033227	0.00040184	0.000195969	0	0	0	
0.265333	-0.0230198	0.0026689	0.000414886	0.000131278	0	0	0	
0.2655	0.00849818	-0.00239565	0.000517864	7.70707E-05	0	0	0	
0.265667	0.0361792	-0.00282989	0.000674755	8.51254E-05	0	0	0	
0.265833	-0.480465	-0.093676	0.00152135	0.000287202	0	0	0	
0.266	0.0785216	0.00970068	0.00341385	0.000712299	0	0	0	
0.266167	-0.0147572	-0.0218874	0.00334813	0.000791321	0	0	0	
0.266333	-0.0300428	-0.010863	0.00256117	0.000787331	0	0	0	
0.2665	0.0487613	0.0449494	0.000677374	0.000662352	0	0	0	
0.266667	-0.0406512	-0.0866621	0.000748929	0.000905805	0	0	0	
0.266833	-0.0609946	0.0556876	0.00102449	0.00115115	0	0	0	
0.267	-0.223094	-0.086776	0.00275191	0.00180792	0	0	0	
0.267167	0.0401702	-0.0406364	0.00361421	0.00248202	0	0	0	
0.267333	0.00259165	0.0956095	0.00350868	0.00279882	0	0	0	
0.2675	0.00632449	-0.101203	0.00161458	0.00243941	0	0	0	
0.267667	-0.0202104	0.0392364	0.000560501	0.00191386	0	0	0	
0.267833	0.00718035	0.00482165	0.000287036	0.00180385	0	0	0	
0.268	0.0139058	-0.0653549	0.000400047	0.00179945	0	0	0	
0.268167	-0.0101564	0.0941275	0.000424071	0.00177071	0	0	0	
0.268333	-0.00831619	-0.0746544	0.000336995	0.00162802	0	0	0	
0.2685	0.0161847	0.0208559	0.000237849	0.00156653	0	0	0	
0.268667	-0.0199004	0.0200735	0.00022967	0.00148503	0	0	0	
0.268833	0.0234113	-0.0101646	0.000331727	0.00107026	0	0	0	
0.269	-0.0289234	-0.0207772	0.000414863	0.000608874	0	0	0	
0.269167	0.0298535	0.0261027	0.000499067	0.000361541	0	0	0	
0.269333	-0.0227646	0.00300231	0.000581107	0.000568711	0	0	0	
0.2695	0.00956823	-0.0312801	0.000642584	0.000783884	0	0	0	
0.269667	-0.00304105	0.0282228	0.000619577	0.000794357	0	0	0	
0.269833	0.00695452	-0.00839814	0.000503678	0.000617872	0	0	0	
0.27	-0.0103164	-0.00466548	0.00039399	0.00043208	0	0	0	
0.270167	0.00726798	0.0040082	0.000366166	0.000299224	0	0	0	
0.270333	-0.00744477	-0.000156927	0.000379881	0.000223359	0	0	0	
0.2705	0.0140929	0.00573252	0.000366391	0.00022014	0	0	0	
0.270667	-0.0157568	-0.017707	0.000352176	0.000260634	0	0	0	
0.270833	0.0101123	0.00760187	0.000407819	0.000286168	0	0	0	
0.271	-0.00796714	-0.00117286	0.000461387	0.000207834	0	0	0	
0.271167	0.0134855	0.00535395	0.000438192	0.000208291	0	0	0	
0.271333	-0.0224334	-0.00708627	0.000392503	0.000181474	0	0	0	
0.2715	0.0263193	-0.00829106	0.000417726	0.000233256	0	0	0	
0.271667	-0.0220102	0.0170483	0.000515456	0.000227103	0	0	0	
0.271833	0.0142739	0.00467579	0.000633836	0.00035201	0	0	0	
0.272	0.00411128	-0.0385857	0.000726671	0.00052088	0	0	0	
0.272167	-0.0182816	0.0211666	0.00071849	0.000607849	0	0	0	
0.272333	0.00469706	0.0358597	0.00052464	0.000769663	0	0	0	
0.2725	0.025787	-0.0538892	0.000421255	0.000778252	0	0	0	
0.272667	-0.0396357	0.0120284	0.000415858	0.000964914	0	0	0	
0.272833	0.0339437	0.0228336	0.000623296	0.000940972	0	0	0	
0.273	-0.0207023	-0.014579	0.000743962	0.00081325	0	0	0	
0.273167	0.0048694	0.00166825	0.000849779	0.000536738	0	0	0	
0.273333	0.00694283	-0.00980845	0.000846021	0.000332035	0	0	0	
0.2735	-0.00169011	-0.00100907	0.000670292	0.000255858	0	0	0	
0.273667	-0.012777	0.0289445	0.000432068	0.000369017	0	0	0	
0.273833	0.0164104	-0.0250882	0.000291863	0.000415376	0	0	0	
0.274	-0.0142053	-0.01645	0.000320883	0.000710622	0	0	0	
0.274167	0.0139591	0.0349131	0.000400523	0.000767085	0	0	0	
0.274333	-0.0112592	-0.00535555	0.000432091	0.000735468	0	0	0	
0.2745	0.011438	-0.0241306	0.000416269	0.000525986	0	0	0	
0.274667	-0.0195322	0.00885512	0.000395203	0.000391482	0	0	0	
0.274833	0.0234441	0.0148656	0.000408749	0.000422118	0	0	0	
0.275	-0.0150097	-0.00781765	0.000476424	0.000358848	0	0	0	
0.275167	0.00751699	-0.00918747	0.000539867	0.000316989	0	0	0	
0.275333	-0.00758632	0.0107042	0.000511606	0.000208288	0	0	0	
0.2755	0.0117616	-0.00179414	0.000428189	0.000259486	0	0	0	
0.275667	-0.0148929	-0.00638864	0.000369433	0.000293502	0	0	0	
0.275833	0.0170863	0.0038614	0.000383809	0.000273851	0	0	0	
0.276	-0.0150807	0.0134321	0.000422281	0.000185367	0	0	0	
0.276167	0.0128549	-0.0206626	0.000440891	0.000198225	0	0	0	
0.276333	-0.0135219	0.0140797	0.000426876	0.000279002	0	0	0	
0.2765	0.0148084	-0.00309008	0.000409447	0.000346887	0	0	0	
0.276667	-0.0131642	-0.00462022	0.000411611	0.000250993	0	0	0	
0.276833	0.00913911	0.00354466	0.000411261	0.000195467	0	0	0	
0.277	-0.00980709	-0.000287808	0.000380024	0.000151373	0	0	0	
0.277167	0.0148782	0.0018665	0.000338762	0.00023106	0	0	0	
0.277333	-0.0159918	0.00431852	0.000341813	0.000322409	0	0	0	
0.2775	0.00924981	-0.0039121	0.000391398	0.000384735	0	0	0	
0.277667	-0.00449821	0.00258021	0.000417274	0.000354695	0	0	0	
0.277833	0.00844082	-0.00664564	0.00036906	0.000240292	0	0	0	
0.278	-0.015081	0.00597459	0.000328845	0.0001713	0	0	0	
0.278167	0.0133716	0.00433003	0.000358784	0.000237249	0	0	0	
0.278333	-0.00965586	-0.0138121	0.000425614	0.000294794	0	0	0	
0.2785	0.0126119	0.00630599	0.000428633	0.000305993	0	0	0	
0.278667	-0.0152898	-0.00044204	0.000407501	0.000184777	0	0	0	
0.278833	0.00704191	0.00366529	0.000434562	0.000103393	0	0	0	
0.279	-0.00168675	-0.00646968	0.000474115	7.69E-05	0	0	0	
0.279167	0.00796767	-0.0075232	0.000423759	0.000152507	0	0	0	
0.279333	-0.0116267	0.0124789	0.000338312	0.000229748	0	0	0	
0.2795	0.00996603	-0.00531545	0.000294566	0.000233948	0	0	0	
0.279667	-0.0112332	-0.00374114	0.000313463	0.000207483	0	0	0	
0.279833	0.0117804	-0.00237554	0.000339474	0.000166549	0	0	0	
0.28	-0.00985655	0.0149176	0.000365315	0.000207135	0	0	0	
0.280167	0.0110689	-0.00504136	0.000392223	0.000233909	0	0	0	
0.280333	-0.00929344	-0.0165586	0.000417346	0.000369989	0	0	0	
0.2805	0.00272863	0.01858	0.000434532	0.000367367	0	0	0	
0.280667	-0.00302107	-0.000416863	0.000401931	0.000426555	0	0	0	
0.280833	0.0100361	-0.0023066	0.000339193	0.000329667	0	0	0	
0.281	-0.00910306	-0.00659957	0.000311213	0.000270334	0	0	0	
0.281167	0.00456549	0.00815049	0.000341575	0.000163728	0	0	0	
0.281333	-0.00933383	0.00220587	0.000357715	0.000115852	0	0	0	
0.2815	0.0125801	-0.00588213	0.00034816	0.00014178	0	0	0	
0.281667	-0.00893102	0.00542863	0.000364842	0.000148581	0	0	0	
0.281833	0.00677917	-0.00109614	0.000408656	0.000123555	0	0	0	
0.282	-0.00893252	-2.47256E-05	0.000419961	0.000107413	0	0	0	
0.282167	0.00823373	-0.00192061	0.000407897	8.90864E-05	0	0	0	
0.282333	-0.0083082	0.000531565	0.000407256	8.32413E-05	0	0	0	
0.2825	0.00889408	0.00375045	0.000412056	6.48445E-05	0	0	0	
0.282667	-0.00991054	-0.00802768	0.000404258	9.64569E-05	0	0	0	
0.282833	0.0105332	0.00471838	0.00039495	0.000179907	0	0	0	
0.283	-0.00912543	0.00276765	0.000401238	0.000224243	0	0	0	
0.283167	0.00765849	0.000777221	0.000411856	0.00016577	0	0	0	
0.283333	-0.00954106	-0.0103262	0.000405983	0.00012023	0	0	0	
0.2835	0.0103016	0.00592539	0.000396342	8.87017E-05	0	0	0	
0.283667	-0.00851879	-0.000671411	0.000400215	0.000167329	0	0	0	
0.283833	0.00739421	-0.00346248	0.000402285	0.000181846	0	0	0	
0.284	-0.0101051	0.00228991	0.000389311	0.000168382	0	0	0	
0.284167	0.0113652	-0.00100536	0.000379442	9.48876E-05	0	0	0	
0.284333	-0.00851549	0.000766513	0.000392514	4.56096E-05	0	0	0	
0.2845	0.00974106	5.1506E-05	0.000414232	3.68821E-05	0	0	0	
0.284667	-0.0101965	-0.0039832	0.000421166	5.05397E-05	0	0	0	
0.284833	0.00717315	-0.00123002	0.000424289	7.84821E-05	0	0	0	
0.285	-0.00634875	0.00467226	0.000426594	8.33993E-05	0	0	0	
0.285167	0.00712247	-0.00467963	0.000407739	0.000123746	0	0	0	
0.285333	-0.00749692	-0.00694003	0.000388412	0.000164552	0	0	0	
0.2855	0.00668861	0.00905524	0.000394438	0.000201586	0	0	0	
0.285667	-0.00385043	-0.00483048	0.00041007	0.000180653	0	0	0	
0.285833	0.00602772	0.00417964	0.000390626	0.000144043	0	0	0	
0.286	-0.010949	-0.0017573	0.000353879	0.000115787	0	0	0	
0.286167	0.00982992	-0.00468343	0.000356239	8.85943E-05	0	0	0	
0.286333	-0.0062295	0.00425557	0.000413077	6.51878E-05	0	0	0	
0.2865	0.00461027	-0.00271871	0.000454716	0.000100703	0	0	0	
0.286667	-0.0031468	-0.00751204	0.000444591	0.000137217	0	0	0	
0.286833	0.00775315	0.00363376	0.000374465	0.000148078	0	0	0	
0.287	-0.0279545	0.014167	0.00034178	0.000171936	0	0	0	
0.287167	0.0356384	-0.0258073	0.00048058	0.000219598	0	0	0	
0.287333	0.0318348	-0.0378857	0.00128457	0.000561244	0	0	0	
0.2875	0.0158477	-0.162748	0.00230866	0.00158206	0	0	0	
0.287667	0.0311304	0.029109	0.00262317	0.00200789	0	0	0	
0.287833	-0.00975685	-0.00615433	0.00192199	0.00174784	0	0	0	
0.288	-0.0165542	-0.0140647	0.000830245	0.000701991	0	0	0	
0.288167	0.0177	0.00143936	0.000381245	0.000344585	0	0	0	
0.288333	0.0106279	-0.0323951	0.000453332	0.00081948	0	0	0	
0.2885	-0.0261829	0.00737058	0.000651333	0.00131033	0	0	0	
0.288667	0.00682141	0.0352373	0.000657357	0.00133204	0	0	0	
0.288833	0.011914	-0.0430422	0.000448249	0.00101553	0	0	0	
0.289	-0.00742955	0.010821	0.000292553	0.00064191	0	0	0	
0.289167	0.00148521	-0.004613	0.000239842	0.000499684	0	0	0	
0.289333	0.000623168	0.0597484	0.000249988	0.000451366	0	0	0	
0.2895	0.00855062	-0.0844406	0.000237414	0.000790727	0	0	0	
0.289667	-0.00944149	0.0615093	0.000245808	0.00115288	0	0	0	
0.289833	0.0111931	-0.030194	0.000308647	0.00125755	0	0	0	
0.29	-0.0058143	0.00943536	0.000362557	0.00103895	0	0	0	
0.290167	-1.48275E-05	0.00303114	0.000363573	0.000783659	0	0	0	
0.290333	0.000432381	0.00536689	0.000294731	0.00048879	0	0	0	
0.2905	0.00185757	-0.0205379	0.000230277	0.000295109	0	0	0	
0.290667	-0.00244558	0.0180608	0.000251336	0.000324188	0	0	0	
0.290833	-0.00165444	0.014178	0.000343158	0.000553838	0	0	0	
0.291	0.00433092	-0.0357122	0.000403188	0.000730563	0	0	0	
0.291167	-0.00363313	0.022347	0.000348584	0.00070963	0	0	0	
0.291333	-0.00098764	0.002645	0.000213546	0.000574238	0	0	0	
0.2915	0.00832569	-0.000329763	0.00011429	0.000320488	0	0	0	
0.291667	-0.02377	-0.015121	0.000175545	0.000328657	0	0	0	
0.291833	0.0179804	0.0256725	0.000391166	0.000442355	0	0	0	
0.292	0.00231706	-0.0381179	0.00072808	0.000620023	0	0	0	
0.292167	-0.0157684	0.0188811	0.000943711	0.000653014	0	0	0	
0.292333	0.0185558	0.00960944	0.000872379	0.000653332	0	0	0	
0.2925	-0.0076444	-0.0231522	0.000577642	0.000588353	0	0	0	
0.292667	-0.0122274	0.0242849	0.000394867	0.000549199	0	0	0	
0.292833	0.0322573	0.00650613	0.000392136	0.0005907	0	0	0	
0.293	-0.034137	-0.017345	0.000539002	0.000673258	0	0	0	
0.293167	0.0159495	0.00831463	0.00071386	0.000589239	0	0	0	
0.293333	0.00436147	-0.00277986	0.000811368	0.000385134	0	0	0	
0.2935	-0.0142541	-0.0111098	0.000728515	0.000310063	0	0	0	
0.293667	0.025281	0.0658631	0.000520436	0.00046202	0	0	0	
0.293833	-0.0117719	-0.0906603	0.000383156	0.000909981	0	0	0	
0.294	-0.0144562	0.0511578	0.000305235	0.00126728	0	0	0	
0.294167	0.0136116	0.0189543	0.0003424	0.00148685	0	0	0	
0.294333	0.00122903	-0.0260997	0.000479867	0.00116363	0	0	0	
0.2945	-0.00902402	0.00172613	0.000584655	0.000776326	0	0	0	
0.294667	0.00336164	0.015177	0.000483515	0.000417636	0	0	0	
0.294833	0.00794552	0.00335307	0.00028929	0.000283077	0	0	0	
0.295	-0.0111787	-0.0101517	0.000249413	0.000270064	0	0	0	
0.295167	0.00456364	0.0188777	0.000350805	0.00026861	0	0	0	
0.295333	0.00245183	-0.0164292	0.000457477	0.00033889	0	0	0	
0.2955	-0.00359299	0.00306378	0.000440071	0.000330432	0	0	0	
0.295667	0.00101491	0.00567072	0.000323743	0.000308037	0	0	0	
0.295833	-0.00502604	-0.00465571	0.000215809	0.000192346	0	0	0	
0.296	0.00508873	0.00534112	0.000212271	0.000216328	0	0	0	
0.296167	-0.00350219	0.00196469	0.000258443	0.000294688	0	0	0	
0.296333	-0.000240896	-0.00514114	0.00029177	0.000391565	0	0	0	
0.2965	0.000806365	-0.00150857	0.000301311	0.000378682	0	0	0	
0.296667	0.00105915	-0.00184442	0.000291033	0.000292866	0	0	0	
0.296833	0.000912234	0.00530245	0.000246098	0.000224785	0	0	0	
0.297	-0.00358088	-0.00528342	0.000218777	0.000160761	0	0	0	
0.297167	-0.00377789	-0.00291221	0.000260152	0.000132262	0	0	0	
0.297333	0.00519905	0.0142029	0.000333389	0.000160083	0	0	0	
0.2975	-0.00151407	-0.0191072	0.000344018	0.000206146	0	0	0	
0.297667	-0.00128014	0.0072529	0.000282985	0.00025706	0	0	0	
0.297833	-0.000143534	0.00450777	0.000216216	0.000260579	0	0	0	
0.298	0.00458573	-0.00732366	0.000181843	0.000196359	0	0	0	
0.298167	-0.000297137	-0.00269333	0.000177855	0.000243367	0	0	0	
0.298333	-0.000903928	0.0110695	0.000182888	0.000306831	0	0	0	
0.2985	0.000609516	0.00124389	0.000234806	0.000356338	0	0	0	
0.298667	0.00095709	-0.00501496	0.000300373	0.000254445	0	0	0	
0.298833	-0.00229696	0.00209931	0.000313889	0.000131606	0	0	0	
0.299	0.00261602	-0.011318	0.000256164	0.000121325	0	0	0	
0.299167	-0.00691439	0.0262471	0.000197536	0.00027417	0	0	0	
0.299333	0.00802693	-0.0227908	0.000176496	0.000406437	0	0	0	
0.2995	-0.000383909	0.00805542	0.000186374	0.00041146	0	0	0	
0.299667	-0.0110522	0.00967684	0.000221701	0.00028326	0	0	0	
0.299833	0.00862445	0.00155796	0.000320484	0.000264528	0	0	0	
0.3	0.00373632	-0.00668845	0.000398275	0.000282191	0	0	0	
0.300167	-0.0165753	-0.0114069	0.000416872	0.000254195	0	0	0	
0.300333	0.0175672	0.0259327	0.00041851	0.000289631	0	0	0	
0.3005	-0.0123003	-0.0105973	0.0004076	0.000292811	0	0	0	
0.300667	0.00271493	0.000867933	0.000398368	0.000329931	0	0	0	
0.300833	0.00277804	0.00252901	0.000327829	0.000230909	0	0	0	
0.301	-0.00143281	0.00616726	0.00024811	0.000232914	0	0	0	
0.301167	0.000146503	-0.00139594	0.000199356	0.000203055	0	0	0	
0.301333	0.00495513	0.00145887	0.000224344	0.000215898	0	0	0	
0.3015	-0.00441456	-0.00965233	0.000293046	0.000265501	0	0	0	
0.301667	-0.00350066	0.0102011	0.000324203	0.000309427	0	0	0	
0.301833	0.00889888	0.00123884	0.000331238	0.000320284	0	0	0	
0.302	-0.00312493	-0.00694058	0.000350614	0.000262559	0	0	0	
0.302167	-0.00440462	0.00646897	0.000368767	0.000217915	0	0	0	
0.302333	0.00728668	-0.00211548	0.000317842	0.000166562	0	0	0	
0.3025	-0.00285201	-0.00128444	0.000264839	0.000132914	0	0	0	
0.302667	0.000821575	0.00151223	0.000264289	0.000170421	0	0	0	
0.302833	-0.000983151	-0.000841951	0.000334764	0.000198622	0	0	0	
0.303	0.00173471	0.00405905	0.000365427	0.000206609	0	0	0	
0.303167	-0.00172799	-0.00468695	0.000319039	0.000165417	0	0	0	
0.303333	0.000420742	0.00214277	0.000224262	0.000119474	0	0	0	
0.3035	-0.00137647	0.0138993	0.000171102	0.000136653	0	0	0	
0.303667	-0.00219526	-0.0310453	0.000205104	0.000256639	0	0	0	
0.303833	0.0026428	0.0183721	0.000291706	0.000360812	0	0	0	
0.304	0.00184727	-0.00494821	0.000368929	0.000432117	0	0	0	
0.304167	-0.00337391	-0.000472661	0.000372306	0.00038298	0	0	0	
0.304333	0.00256941	0.000295971	0.000296568	0.00026597	0	0	0	
0.3045	-0.00619765	0.00559175	0.000211024	0.000140307	0	0	0	
0.304667	0.00918957	-0.00818616	0.000208085	9.89815E-05	0	0	0	
0.304833	-0.00589937	0.00796633	0.000242657	0.000146119	0	0	0	
0.305	0.00349846	-0.0141722	0.000258924	0.000220388	0	0	0	
0.305167	-0.000179482	0.00588641	0.000238474	0.00026295	0	0	0	
0.305333	0.00152499	0.00591426	0.000219788	0.000281179	0	0	0	
0.3055	-0.00209902	-0.00145911	0.00020307	0.000205251	0	0	0	
0.305667	0.0024459	-0.00689169	0.000199755	0.000141424	0	0	0	
0.305833	0.000573361	0.00984297	0.000254361	0.000105069	0	0	0	
0.306	0.00856827	-0.00054659	0.000353385	0.000163246	0	0	0	
0.306167	-0.0088939	-0.00391487	0.000407374	0.000151711	0	0	0	
0.306333	0.00378584	0.00212355	0.000342887	0.000128245	0	0	0	
0.3065	9.27285E-05	-0.000923737	0.000218449	6.31256E-05	0	0	0	
0.306667	0.00215104	0.00158656	0.000148539	5.08519E-05	0	0	0	
0.306833	-0.00518559	0.00431115	0.000176457	6.0735E-05	0	0	0	
0.307	0.00505828	-0.00970076	0.00025247	0.000118051	0	0	0	
0.307167	-0.00572023	0.00794686	0.000310519	0.000236828	0	0	0	
0.307333	0.00404655	0.00351546	0.000327441	0.000338588	0	0	0	
0.3075	-0.00258429	-0.00723882	0.000287792	0.000332124	0	0	0	
0.307667	0.000909992	0.00225533	0.000222384	0.000234922	0	0	0	
0.307833	-0.00303018	0.00932258	0.000199507	0.000163116	0	0	0	
0.308	0.00191732	-0.0289025	0.000255766	0.000212173	0	0	0	
0.308167	-0.00917835	0.0136378	0.000327699	0.000319869	0	0	0	
0.308333	0.00747622	-0.00228232	0.000351	0.000324561	0	0	0	
0.3085	-0.00323456	-0.000686937	0.000293017	0.000230363	0	0	0	
0.308667	0.00149994	-0.000655894	0.000213488	0.0001159	0	0	0	
0.308833	-0.00205067	0.00724722	0.000155035	9.8066E-05	0	0	0	
0.309	0.0048259	-0.0184693	0.000167959	0.000157813	0	0	0	
0.309167	-0.00787165	0.0107627	0.000249884	0.000244588	0	0	0	
0.309333	0.00918736	0.00295574	0.000350389	0.000247324	0	0	0	
0.3095	-0.00518628	-0.00571191	0.000392706	0.000202649	0	0	0	
0.309667	0.00321932	0.00301144	0.000337788	0.000108834	0	0	0	
0.309833	-0.00392092	-0.00109537	0.000252384	7.42783E-05	0	0	0	
0.31	0.00810474	0.00290733	0.00021612	6.22721E-05	0	0	0	
0.310167	-0.00289384	-0.000911711	0.000236846	6.95045E-05	0	0	0	
0.310333	0.000982553	0.00528565	0.00025024	8.89729E-05	0	0	0	
0.3105	-0.000767738	-0.00307614	0.000265045	0.000117056	0	0	0	
0.310667	0.0019666	0.00180398	0.000280533	0.000110429	0	0	0	
0.310833	-0.00320016	-0.000136276	0.000275871	8.38458E-05	0	0	0	
0.311	0.00167973	0.000909256	0.000229401	4.47237E-05	0	0	0	
0.311167	-0.00296981	-0.0029865	0.000204743	3.81789E-05	0	0	0	
0.311333	0.00963838	-5.9855E-05	0.00026016	3.7956E-05	0	0	0	
0.3115	-0.012586	0.0104909	0.000347417	5.61362E-05	0	0	0	
0.311667	0.00738732	-0.0083729	0.000372814	0.000108343	0	0	0	
0.311833	-0.00177129	0.00106899	0.000294258	0.000123273	0	0	0	
0.312	0.00053105	0.000742061	0.000195049	0.000103113	0	0	0	
0.312167	-0.00625208	0.00442289	0.000172415	5.31424E-05	0	0	0	
0.312333	0.00254705	-0.010852	0.000240595	8.09237E-05	0	0	0	
0.3125	-0.000297223	-0.006172	0.000302417	0.000119162	0	0	0	
0.312667	0.000944318	0.00529106	0.000331909	0.000135003	0	0	0	
0.312833	-0.000251988	-0.0081897	0.000330315	0.000136436	0	0	0	
0.313	-0.00121926	0.00561463	0.000292791	0.000183508	0	0	0	
0.313167	0.00352749	0.01716	0.000267702	0.000349006	0	0	0	
0.313333	0.00899677	-0.0491547	0.000389447	0.000534799	0	0	0	
0.3135	-0.0257332	0.00273661	0.000625778	0.000654824	0	0	0	
0.313667	0.0276023	0.0285947	0.000717289	0.000797913	0	0	0	
0.313833	-0.00454774	-0.0497513	0.000593426	0.000809923	0	0	0	
0.314	-0.00986365	0.015151	0.000374789	0.00080722	0	0	0	
0.314167	0.00965896	-0.0140321	0.000261451	0.000577195	0	0	0	
0.314333	-0.00215757	0.0558089	0.000280452	0.000520703	0	0	0	
0.3145	-0.00123546	-0.0655142	0.000423987	0.000686777	0	0	0	
0.314667	0.0174144	0.00389478	0.000635808	0.000876501	0	0	0	
0.314833	-0.0271615	-0.00511434	0.000732228	0.000776565	0	0	0	
0.315	0.015914	0.0129513	0.00064382	0.000505652	0	0	0	
0.315167	0.00176545	-0.0056556	0.00041337	0.000253706	0	0	0	
0.315333	-0.0082367	-0.0089749	0.00023328	0.000229336	0	0	0	
0.3155	0.00454765	0.0206701	0.000304638	0.000339275	0	0	0	
0.315667	0.00915309	-0.00446779	0.000533786	0.000660548	0	0	0	
0.315833	-0.0181053	-0.0145492	0.00066579	0.000785804	0	0	0	
0.316	0.0089243	-0.00262161	0.000556594	0.00062645	0	0	0	
0.316167	-0.000946919	0.00799929	0.000321932	0.000344842	0	0	0	
0.316333	0.00109497	-0.00505274	0.000197232	0.000189166	0	0	0	
0.3165	-0.00532606	0.0117058	0.000181353	0.000179246	0	0	0	
0.316667	0.00932152	-0.00995536	0.000243269	0.000168773	0	0	0	
0.316833	-0.0122247	-0.004226	0.000292052	0.000151173	0	0	0	
0.317	0.00909509	0.00854233	0.000315144	0.000170787	0	0	0	
0.317167	-0.00418469	-0.00767858	0.000289909	0.000211195	0	0	0	
0.317333	0.00213415	-0.00216234	0.000233259	0.000283956	0	0	0	
0.3175	-0.00259528	0.00326327	0.000182979	0.000256866	0	0	0	
0.317667	0.00827389	-0.00211207	0.000218068	0.000164951	0	0	0	
0.317833	-0.0117755	0.00310877	0.000335836	0.000123534	0	0	0	
0.318	0.0151692	-0.0105633	0.000430946	0.000153038	0	0	0	
0.318167	-0.00903998	0.00860443	0.000433644	0.000178858	0	0	0	
0.318333	0.00321591	-0.00312419	0.000325742	0.000168501	0	0	0	
0.3185	-0.0015325	0.000111454	0.000217365	0.000112294	0	0	0	
0.318667	0.00852531	-0.00703766	0.000187704	8.03269E-05	0	0	0	
0.318833	-0.01176	0.0167634	0.000274572	0.000117497	0	0	0	
0.319	0.0158595	-0.0173124	0.000345657	0.000200802	0	0	0	
0.319167	-0.00843561	0.00389008	0.000347665	0.000272169	0	0	0	
0.319333	0.000729192	0.00159274	0.000236914	0.0003031	0	0	0	
0.3195	-0.00079577	0.00021307	0.000152511	0.000241797	0	0	0	
0.319667	0.0033165	-0.00331106	0.000117746	0.000162177	0	0	0	
0.319833	-0.00812579	0.00102066	0.000158336	7.32335E-05	0	0	0	
0.32	0.0150961	0.0054193	0.000235619	7.50426E-05	0	0	0	
0.320167	-0.0175392	0.018161	0.000333164	0.000222518	0	0	0	
0.320333	0.0131185	-0.0449595	0.000392846	0.000406869	0	0	0	
0.3205	-0.00585828	0.0235753	0.000360297	0.000578428	0	0	0	
0.320667	0.0038555	0.00115196	0.000254582	0.000492515	0	0	0	
0.320833	-0.00590791	0.00811361	0.000171815	0.000334149	0	0	0	
0.321	0.0113564	-0.0195146	0.000190564	0.000235963	0	0	0	
0.321167	-0.0123863	0.0107605	0.000299304	0.000275336	0	0	0	
0.321333	0.0130884	0.0330933	0.000385928	0.000370072	0	0	0	
0.3215	-0.00631387	-0.0233438	0.000360621	0.000446818	0	0	0	
0.321667	0.00376253	-0.00486583	0.000239888	0.000490741	0	0	0	
0.321833	-0.0050963	0.00529289	0.000144206	0.000371063	0	0	0	
0.322	0.00983089	0.00425665	0.000128063	0.000315289	0	0	0	
0.322167	-0.00506126	0.0104156	0.000189476	0.000191653	0	0	0	
0.322333	0.00957499	-0.0192857	0.00029305	0.000294345	0	0	0	
0.3225	-0.0143054	0.0271737	0.000402909	0.000361285	0	0	0	
0.322667	0.0106822	-0.000501415	0.0004136	0.0005207	0	0	0	
0.322833	-0.0048628	-0.00739063	0.000321303	0.000458146	0	0	0	
0.323	0.00554484	-0.0112303	0.000211118	0.000338308	0	0	0	
0.323167	-0.00989589	0.0295657	0.000220177	0.000318567	0	0	0	
