0	-0.0150784	-0.0045551	1.50784E-06	4.5551E-07	0	0	0	
0.000166667	0.0170358	0.00886188	0.000192903	6.94986E-05	0	0	0	
0.000333333	-0.0182061	-0.0084503	0.000650158	0.0001859	0	0	0	
0.0005	0.00517577	-0.00277282	0.00122824	0.000309075	0	0	0	
0.000666667	0.00262619	0.00501358	0.00159847	0.00042052	0	0	0	
0.000833333	-0.00153244	-0.00634073	0.00164552	0.000533642	0	0	0	
0.001	-0.00351145	0.00220246	0.00153027	0.000643181	0	0	0	
0.00116667	0.0248462	0.00869222	0.00140319	0.000674759	0	0	0	
0.00133333	-0.0665472	-0.0158919	0.00141781	0.000652503	0	0	0	
0.0015	0.0868789	0.016118	0.00159694	0.000622088	0	0	0	
0.00166667	-0.0842629	-0.0266553	0.00190906	0.000660556	0	0	0	
0.00183333	0.0748273	0.0362159	0.00216523	0.000777459	0	0	0	
0.002	-0.072379	-0.0379008	0.00224233	0.000932538	0	0	0	
0.00216667	0.0792725	0.0344508	0.00221483	0.00105093	0	0	0	
0.00233333	-0.0763532	-0.0286448	0.00219803	0.00105921	0	0	0	
0.0025	0.0707478	0.0268992	0.00223538	0.00100526	0	0	0	
0.00266667	-0.0722316	-0.0292957	0.00222834	0.000939151	0	0	0	
0.00283333	0.0793201	0.0293152	0.0021953	0.000906567	0	0	0	
0.003	-0.0767529	-0.031337	0.00219459	0.000910714	0	0	0	
0.00316667	0.0761481	0.0322573	0.00226192	0.000919619	0	0	0	
0.00333333	-0.0756015	-0.0291557	0.0022857	0.000945462	0	0	0	
0.0035	0.0777031	0.0277231	0.00227286	0.000968308	0	0	0	
0.00366667	-0.0746412	-0.030311	0.00224154	0.000986633	0	0	0	
0.00383333	0.0747784	0.0318928	0.0022545	0.000973773	0	0	0	
0.004	-0.0763589	-0.0322702	0.00226408	0.000962704	0	0	0	
0.00416667	0.0790262	0.0297938	0.00229039	0.00095145	0	0	0	
0.00433333	-0.0758474	-0.0296563	0.00230362	0.000963172	0	0	0	
0.0045	0.0756324	0.0335106	0.00232157	0.000968265	0	0	0	
0.00466667	-0.0764988	-0.0345755	0.00229935	0.0010056	0	0	0	
0.00483333	0.0817483	0.0291487	0.00229805	0.00102259	0	0	0	
0.005	-0.0789415	-0.0236377	0.00229465	0.00092414	0	0	0	
0.00516667	0.0753939	0.0648799	0.00232244	0.000861838	0	0	0	
0.00533333	-0.0721824	-0.0826996	0.0023242	0.00107499	0	0	0	
0.0055	0.0741933	0.0593915	0.00229582	0.00131865	0	0	0	
0.00566667	-0.0806416	-0.0299042	0.00223087	0.00127907	0	0	0	
0.00583333	0.0844365	0.0182693	0.00221264	0.000938161	0	0	0	
0.006	-0.0777174	-0.0099095	0.00224358	0.000742343	0	0	0	
0.00616667	0.0785408	0.00353892	0.00229296	0.000754157	0	0	0	
0.00633333	-0.0826192	0.0220528	0.00229901	0.000630236	0	0	0	
0.0065	0.0792061	-0.0260903	0.00231487	0.000538711	0	0	0	
0.00666667	-0.0745821	0.00212119	0.00232425	0.00041251	0	0	0	
0.00683333	0.0785133	0.0250545	0.00231097	0.000548914	0	0	0	
0.007	-0.0826069	-0.0352451	0.00227369	0.000714603	0	0	0	
0.00716667	0.0776442	0.0414052	0.00227328	0.000927818	0	0	0	
0.00733333	-0.0654836	-0.0511057	0.00225864	0.00105904	0	0	0	
0.0075	0.0697713	0.0475894	0.00221576	0.0011074	0	0	0	
0.00766667	-0.0775385	-0.0364633	0.00214717	0.00107955	0	0	0	
0.00783333	0.0838464	0.0360778	0.00215927	0.00104567	0	0	0	
0.008	-0.0815677	-0.029069	0.00221322	0.000959906	0	0	0	
0.00816667	0.0804092	0.0246311	0.00228642	0.000922163	0	0	0	
0.00833333	-0.0757652	-0.0320978	0.00230179	0.000868626	0	0	0	
0.0085	0.0770509	0.0349241	0.00231681	0.000845335	0	0	0	
0.00866667	-0.0728949	-0.0295546	0.00229932	0.000818359	0	0	0	
0.00883333	0.0746242	0.0290341	0.00227014	0.000828393	0	0	0	
0.009	-0.0775575	-0.0320933	0.0022143	0.000820213	0	0	0	
0.00916667	0.082848	0.0319244	0.00220004	0.000857823	0	0	0	
0.00933333	-0.0821132	-0.0226307	0.00221949	0.000895493	0	0	0	
0.0095	0.0830081	-0.00704978	0.00225936	0.000773628	0	0	0	
0.00966667	-0.0826392	0.0197834	0.00227029	0.000590807	0	0	0	
0.00983333	0.0822125	0.00501507	0.00227589	0.000428683	0	0	0	
0.01	-0.0791864	-0.0266986	0.00228662	0.00057449	0	0	0	
0.0101667	0.0769135	0.0322884	0.00228702	0.000834234	0	0	0	
0.0103333	-0.0766454	-0.0308205	0.00225614	0.00102601	0	0	0	
0.0105	0.0796627	0.00612145	0.00221431	0.00104183	0	0	0	
0.0106667	-0.079509	0.00819476	0.00219354	0.00109189	0	0	0	
0.0108333	0.0778689	0.0173733	0.00219942	0.00119491	0	0	0	
0.011	-0.0785055	-0.0403251	0.00220437	0.00129449	0	0	0	
0.0111667	0.0813735	0.046509	0.00221224	0.00127839	0	0	0	
0.0113333	-0.0814373	-0.0333955	0.0022346	0.00117327	0	0	0	
0.0115	0.0809761	0.0227581	0.00227112	0.0010443	0	0	0	
0.0116667	-0.080166	-0.0210573	0.0022809	0.000888862	0	0	0	
0.0118333	0.0821898	0.0258785	0.00227658	0.000805422	0	0	0	
0.012	-0.0809293	-0.0299099	0.00226989	0.000798828	0	0	0	
0.0121667	0.0794894	0.0338787	0.00228799	0.000863042	0	0	0	
0.0123333	-0.0796789	-0.0292713	0.00227812	0.000883043	0	0	0	
0.0125	0.084277	0.0301016	0.00226038	0.000896869	0	0	0	
0.0126667	-0.083041	-0.0318977	0.00225302	0.000908825	0	0	0	
0.0128333	0.0799794	0.0316408	0.00229075	0.000967669	0	0	0	
0.013	-0.0785026	-0.0313644	0.00230786	0.000996051	0	0	0	
0.0131667	0.0803762	0.0290543	0.00230111	0.000978823	0	0	0	
0.0133333	-0.0803203	-0.0269715	0.00226469	0.000922065	0	0	0	
0.0135	0.0812889	0.0293814	0.00224506	0.000876253	0	0	0	
0.0136667	-0.0820405	-0.0327488	0.00222848	0.00084728	0	0	0	
0.0138333	0.0842754	0.0364952	0.00224871	0.00089055	0	0	0	
0.014	-0.0839309	-0.0348012	0.00227166	0.000948793	0	0	0	
0.0141667	0.0824312	0.0331882	0.00230274	0.000993079	0	0	0	
0.0143333	-0.0799283	-0.0303554	0.00229059	0.000962085	0	0	0	
0.0145	0.0808304	0.0281602	0.00226497	0.00088466	0	0	0	
0.0146667	-0.0822309	-0.0292014	0.00222845	0.000822213	0	0	0	
0.0148333	0.0849327	0.0342804	0.00223728	0.000851327	0	0	0	
0.015	-0.0809178	-0.0305928	0.00225022	0.000919691	0	0	0	
0.0151667	0.0793437	0.0335371	0.00226756	0.000941758	0	0	0	
0.0153333	-0.0773193	-0.0372749	0.00224079	0.000893318	0	0	0	
0.0155	0.0791883	0.0324479	0.00221591	0.000862611	0	0	0	
0.0156667	-0.0818296	-0.0236808	0.00218662	0.000882547	0	0	0	
0.0158333	0.0854587	0.0268932	0.0022028	0.000874046	0	0	0	
0.016	-0.0798701	-0.0398181	0.0022252	0.000852763	0	0	0	
0.0161667	0.0769328	0.0576858	0.00224984	0.000885889	0	0	0	
0.0163333	-0.0786177	-0.0568901	0.00221988	0.00105206	0	0	0	
0.0165	0.0878477	0.0433187	0.00222397	0.00113289	0	0	0	
0.0166667	-0.084001	-0.0250036	0.0022354	0.00111939	0	0	0	
0.0168333	0.0813005	0.0145685	0.00227688	0.000964095	0	0	0	
0.017	-0.0806525	-0.0180872	0.00225578	0.000864791	0	0	0	
0.0171667	0.0824831	0.0257438	0.00223831	0.00076391	0	0	0	
0.0173333	-0.0808376	-0.0304911	0.00222548	0.000722103	0	0	0	
0.0175	0.0811038	0.035614	0.00224609	0.000656841	0	0	0	
0.0176667	-0.0804368	-0.0370937	0.00222035	0.000724776	0	0	0	
0.0178333	0.085411	0.029974	0.00220437	0.000822746	0	0	0	
0.018	-0.0851637	-0.0396525	0.00219795	0.000969427	0	0	0	
0.0181667	0.0882402	0.0261431	0.00225959	0.000955146	0	0	0	
0.0183333	-0.0796891	-0.0247972	0.00225293	0.000818695	0	0	0	
0.0185	0.0846368	0.0457202	0.00223558	0.000882095	0	0	0	
0.0186667	-0.0862868	-0.0435442	0.00221832	0.00105384	0	0	0	
0.0188333	0.083021	0.034123	0.002261	0.00122322	0	0	0	
0.019	-0.0808443	-0.0293072	0.00228002	0.00111326	0	0	0	
0.0191667	0.0831977	0.0111594	0.00226017	0.000861378	0	0	0	
0.0193333	-0.0769315	-0.0231524	0.00218958	0.000706868	0	0	0	
0.0195	0.0846827	0.0568242	0.00216396	0.00082017	0	0	0	
0.0196667	-0.0870003	-0.0491493	0.00217058	0.00104712	0	0	0	
0.0198333	0.0864717	0.0380275	0.00223027	0.00117346	0	0	0	
0.02	-0.0840629	-0.0318152	0.00226451	0.00107692	0	0	0	
0.0201667	0.0818963	0.0281784	0.00226446	0.000907388	0	0	0	
0.0203333	-0.0829522	-0.0293488	0.00223276	0.00079925	0	0	0	
0.0205	0.0862129	0.0372643	0.00221405	0.000761736	0	0	0	
0.0206667	-0.0869476	-0.0376897	0.00221551	0.000821809	0	0	0	
0.0208333	0.0861775	0.0326179	0.00224918	0.000893306	0	0	0	
0.021	-0.085036	-0.0297967	0.00226531	0.000909529	0	0	0	
0.0211667	0.0839401	0.0261086	0.00227908	0.000865687	0	0	0	
0.0213333	-0.0821098	-0.0246213	0.0022682	0.000839908	0	0	0	
0.0215	0.0826535	0.0270264	0.00224885	0.000836446	0	0	0	
0.0216667	-0.0842875	-0.0296465	0.00220981	0.000827151	0	0	0	
0.0218333	0.085597	0.0296698	0.00219915	0.000819088	0	0	0	
0.022	-0.0865139	-0.0325218	0.00220891	0.000831399	0	0	0	
0.0221667	0.0867406	0.0327725	0.00224467	0.000891975	0	0	0	
0.0223333	-0.0856236	-0.0356983	0.00225763	0.00094045	0	0	0	
0.0225	0.0846272	0.0368258	0.00226138	0.00096818	0	0	0	
0.0226667	-0.0846331	-0.0326755	0.00224265	0.000922315	0	0	0	
0.0228333	0.0855814	0.0344866	0.00224624	0.000905859	0	0	0	
0.023	-0.0871662	-0.0350014	0.00224851	0.000883686	0	0	0	
0.0231667	0.0883257	0.0352176	0.00225833	0.000927115	0	0	0	
0.0233333	-0.0874971	-0.0343271	0.00226016	0.000930641	0	0	0	
0.0235	0.0839178	0.0317661	0.00226999	0.00092676	0	0	0	
0.0236667	-0.0829693	-0.0311836	0.00225108	0.000877918	0	0	0	
0.0238333	0.0867612	0.0329471	0.00223493	0.000854615	0	0	0	
0.024	-0.0857634	-0.0317968	0.00221643	0.000831371	0	0	0	
0.0241667	0.0853241	0.0332997	0.00222514	0.000866787	0	0	0	
0.0243333	-0.0886754	-0.0331249	0.00222313	0.000887825	0	0	0	
0.0245	0.0897592	0.0364117	0.00224002	0.000917686	0	0	0	
0.0246667	-0.085991	-0.0363717	0.00226621	0.00093008	0	0	0	
0.0248333	0.0828308	0.0302928	0.00228326	0.000958952	0	0	0	
0.025	-0.0840455	-0.0313686	0.00225001	0.000967499	0	0	0	
0.0251667	0.0891867	0.0381088	0.00221569	0.000968218	0	0	0	
0.0253333	-0.0910577	-0.0407345	0.0022104	0.000977761	0	0	0	
0.0255	0.088922	0.0363199	0.00225016	0.001016	0	0	0	
0.0256667	-0.0873221	-0.0362473	0.00228313	0.00102214	0	0	0	
0.0258333	0.0868819	0.0401068	0.00229624	0.00100443	0	0	0	
0.026	-0.0858216	-0.037148	0.00227376	0.00096802	0	0	0	
0.0261667	0.0856502	0.0312564	0.00224469	0.000945682	0	0	0	
0.0263333	-0.0868574	-0.0347064	0.00221602	0.000908269	0	0	0	
0.0265	0.0882743	0.0371326	0.00221415	0.000878347	0	0	0	
0.0266667	-0.0907601	-0.0394873	0.00222429	0.000881757	0	0	0	
0.0268333	0.0912154	0.0375954	0.00225674	0.000930456	0	0	0	
0.027	-0.08647	-0.0353896	0.00226706	0.000966497	0	0	0	
0.0271667	0.0841632	0.0370505	0.00225436	0.000979433	0	0	0	
0.0273333	-0.0884855	-0.0361094	0.00221895	0.00095677	0	0	0	
0.0275	0.0900306	0.0328723	0.00221566	0.000927539	0	0	0	
0.0276667	-0.087137	-0.0339763	0.00223281	0.000894781	0	0	0	
0.0278333	0.0873988	0.0349027	0.00225226	0.000879018	0	0	0	
0.028	-0.0886284	-0.0347191	0.00223816	0.000878686	0	0	0	
0.0281667	0.0894208	0.0381667	0.00222902	0.000901229	0	0	0	
0.0283333	-0.0894196	-0.033824	0.00222715	0.000912531	0	0	0	
0.0285	0.0893393	0.0316889	0.0022471	0.000894986	0	0	0	
0.0286667	-0.0886288	-0.0328903	0.00225938	0.000847946	0	0	0	
0.0288333	0.0878355	0.0332707	0.00226511	0.000822138	0	0	0	
0.029	-0.0862765	-0.0331245	0.0022449	0.000841695	0	0	0	
0.0291667	0.0878103	0.035868	0.00222806	0.00088716	0	0	0	
0.0293333	-0.0888494	-0.036409	0.00221158	0.000913241	0	0	0	
0.0295	0.089659	0.0341179	0.00222326	0.000906245	0	0	0	
0.0296667	-0.0883957	-0.0327465	0.00223106	0.000881283	0	0	0	
0.0298333	0.088838	0.0318831	0.00224037	0.000865521	0	0	0	
0.03	-0.0890816	-0.0330532	0.00223695	0.000868145	0	0	0	
0.0301667	0.0905996	0.03814	0.00224742	0.000910829	0	0	0	
0.0303333	-0.0899687	-0.0381897	0.0022557	0.000953246	0	0	0	
0.0305	0.0870973	0.033475	0.00226217	0.00097137	0	0	0	
0.0306667	-0.0857122	-0.0307901	0.00223544	0.000917665	0	0	0	
0.0308333	0.0856301	0.0326711	0.00221037	0.000873501	0	0	0	
0.031	-0.0853416	-0.0301739	0.00217308	0.000846191	0	0	0	
0.0311667	0.0882618	0.0387153	0.00216122	0.000886282	0	0	0	
0.0313333	-0.0909855	-0.0422711	0.00214082	0.000913015	0	0	0	
0.0315	0.0965404	0.0401824	0.00216182	0.000965021	0	0	0	
0.0316667	-0.100329	-0.0320896	0.00221515	0.000959891	0	0	0	
0.0318333	0.0955642	0.0374175	0.00231675	0.000963697	0	0	0	
0.032	-0.0844506	-0.0387428	0.00237002	0.000957719	0	0	0	
0.0321667	0.0799385	0.0372647	0.00234786	0.000996576	0	0	0	
0.0323333	-0.0781334	-0.0332129	0.00222612	0.000991702	0	0	0	
0.0325	0.0813834	0.0354094	0.00212878	0.000946575	0	0	0	
0.0326667	-0.0853107	-0.0379009	0.00207351	0.000891156	0	0	0	
0.0328333	0.0908212	0.0386343	0.0020919	0.000896813	0	0	0	
0.033	-0.0932691	-0.0373508	0.0021322	0.000933544	0	0	0	
0.0331667	0.0944351	0.0387333	0.00220419	0.000940525	0	0	0	
0.0333333	-0.0915283	-0.0366904	0.00225222	0.000926459	0	0	0	
0.0335	0.091412	0.0366863	0.00227887	0.000925359	0	0	0	
0.0336667	-0.0912118	-0.0388481	0.00226791	0.000959837	0	0	0	
0.0338333	0.0911778	0.0368917	0.0022652	0.000954338	0	0	0	
0.034	-0.0912809	-0.0384612	0.00225747	0.000956553	0	0	0	
0.0341667	0.0896749	0.0375947	0.00225699	0.000922413	0	0	0	
0.0343333	-0.0876391	-0.0337044	0.00223517	0.000909795	0	0	0	
0.0345	0.0903269	0.0354675	0.00221943	0.000886041	0	0	0	
0.0346667	-0.0937289	-0.0340177	0.00220936	0.000887082	0	0	0	
0.0348333	0.0935876	0.0364828	0.00223938	0.00089075	0	0	0	
0.035	-0.0919348	-0.0384993	0.00225911	0.000909973	0	0	0	
0.0351667	0.0898607	0.0358601	0.00226569	0.000915237	0	0	0	
0.0353333	-0.0897225	-0.0331356	0.00224488	0.000908368	0	0	0	
0.0355	0.091182	0.0379226	0.00223782	0.000897688	0	0	0	
0.0356667	-0.0927736	-0.0392671	0.0022254	0.000916528	0	0	0	
0.0358333	0.0935421	0.0401587	0.00224025	0.000957528	0	0	0	
0.036	-0.0922738	-0.0380817	0.00223805	0.00097212	0	0	0	
0.0361667	0.0926961	0.0369069	0.00225094	0.000959291	0	0	0	
0.0363333	-0.0928079	-0.0341006	0.00224269	0.000924804	0	0	0	
0.0365	0.0918527	0.0355213	0.00225562	0.000907739	0	0	0	
0.0366667	-0.0908756	-0.0366523	0.00224977	0.000898974	0	0	0	
0.0368333	0.0916728	0.0361423	0.00224389	0.000899594	0	0	0	
0.037	-0.0909662	-0.0359275	0.00221865	0.000887427	0	0	0	
0.0371667	0.0901962	0.0380606	0.00221463	0.000891813	0	0	0	
0.0373333	-0.0907592	-0.0384527	0.0022042	0.00090976	0	0	0	
0.0375	0.0936094	0.0385234	0.00221597	0.000942449	0	0	0	
0.0376667	-0.094363	-0.0386873	0.00222287	0.000964281	0	0	0	
0.0378333	0.09294	0.0375775	0.00224734	0.000977678	0	0	0	
0.038	-0.0927373	-0.036884	0.00224951	0.00095919	0	0	0	
0.0381667	0.0942922	0.0417611	0.00225989	0.000956595	0	0	0	
0.0383333	-0.0946423	-0.03891	0.00226199	0.00094889	0	0	0	
0.0385	0.0925205	0.03818	0.00227337	0.000952984	0	0	0	
0.0386667	-0.0919388	-0.0385953	0.00225253	0.000931022	0	0	0	
0.0388333	0.0941256	0.0395112	0.00224248	0.000930891	0	0	0	
0.039	-0.0940972	-0.0387877	0.00222711	0.000938258	0	0	0	
0.0391667	0.0927536	0.0381941	0.00224063	0.000941654	0	0	0	
0.0393333	-0.0920893	-0.0345193	0.00223609	0.000909579	0	0	0	
0.0395	0.0920962	0.0350919	0.00223564	0.000876942	0	0	0	
0.0396667	-0.094061	-0.0368912	0.00222267	0.00088312	0	0	0	
0.0398333	0.0936288	0.0379662	0.00223021	0.00092098	0	0	0	
0.04	-0.0917454	-0.0406675	0.00222877	0.000961398	0	0	0	
0.0401667	0.0928567	0.0349654	0.00223458	0.000950279	0	0	0	
0.0403333	-0.0968645	-0.0360938	0.00223138	0.000919896	0	0	0	
0.0405	0.0960112	0.0380337	0.00224713	0.000909208	0	0	0	
0.0406667	-0.0937825	-0.0402358	0.00225095	0.000931602	0	0	0	
0.0408333	0.0929681	0.0387752	0.00224659	0.000952273	0	0	0	
0.041	-0.0930671	-0.0366407	0.00222926	0.000937678	0	0	0	
0.0411667	0.0940285	0.031087	0.00222863	0.000888837	0	0	0	
0.0413333	-0.0962344	-0.0370397	0.00222747	0.000866001	0	0	0	
0.0415	0.09521	0.037944	0.00224513	0.000882417	0	0	0	
0.0416667	-0.0904481	-0.0380012	0.00224673	0.000924791	0	0	0	
0.0418333	0.0886804	0.0342033	0.00223317	0.000942274	0	0	0	
0.042	-0.093812	-0.0324794	0.00218985	0.000918469	0	0	0	
0.0421667	0.0992888	0.0317979	0.00218529	0.000884855	0	0	0	
0.0423333	-0.100163	-0.0320057	0.00222692	0.000871937	0	0	0	
0.0425	0.0975599	0.0387606	0.00229135	0.000881551	0	0	0	
0.0426667	-0.0975821	-0.054702	0.00230362	0.00093766	0	0	0	
0.0428333	0.0939056	0.0688107	0.00228902	0.00108674	0	0	0	
0.043	-0.0912264	-0.0541373	0.00226648	0.00127055	0	0	0	
0.0431667	0.0882668	0.0349276	0.00223031	0.001307	0	0	0	
0.0433333	-0.0959199	-0.0372579	0.00218136	0.00120177	0	0	0	
0.0435	0.097683	0.0388318	0.00216593	0.00103636	0	0	0	
0.0436667	-0.0953488	-0.039838	0.0021912	0.000959016	0	0	0	
0.0438333	0.0948685	0.0466334	0.00223338	0.000937188	0	0	0	
0.044	-0.0967692	-0.0454371	0.00224727	0.000940376	0	0	0	
0.0441667	0.0930003	0.044572	0.0022439	0.000925344	0	0	0	
0.0443333	-0.09584	-0.0432901	0.00223469	0.000943627	0	0	0	
0.0445	0.097192	0.033174	0.00223803	0.000923732	0	0	0	
0.0446667	-0.0960183	-0.037489	0.0022554	0.000923823	0	0	0	
0.0448333	0.0933652	0.0438437	0.00226903	0.000916404	0	0	0	
0.045	-0.094395	-0.0452342	0.0022505	0.000959305	0	0	0	
0.0451667	0.0958389	0.039326	0.00223638	0.00100316	0	0	0	
0.0453333	-0.0977764	-0.035056	0.00222692	0.000960613	0	0	0	
0.0455	0.0982148	0.0365065	0.00224202	0.000898595	0	0	0	
0.0456667	-0.0966985	-0.0390067	0.00224725	0.000865427	0	0	0	
0.0458333	0.0958381	0.0420479	0.00225239	0.00090136	0	0	0	
0.046	-0.0977102	-0.0421009	0.00224426	0.000939675	0	0	0	
0.0461667	0.0967767	0.0338528	0.00224726	0.000937491	0	0	0	
0.0463333	-0.0947949	-0.0334096	0.0022328	0.000878167	0	0	0	
0.0465	0.0953842	0.0379957	0.00222904	0.000841299	0	0	0	
0.0466667	-0.0972993	-0.0383553	0.00221311	0.000840911	0	0	0	
0.0468333	0.0983446	0.0400195	0.00223324	0.000887942	0	0	0	
0.047	-0.0971835	-0.0410057	0.00224653	0.000919053	0	0	0	
0.0471667	0.0958739	0.0404334	0.00227131	0.000956405	0	0	0	
0.0473333	-0.0953299	-0.0358748	0.00225121	0.000942674	0	0	0	
0.0475	0.0966803	0.0398233	0.00224742	0.000931353	0	0	0	
0.0476667	-0.0957258	-0.0372891	0.00222663	0.000902762	0	0	0	
0.0478333	0.0945526	0.038943	0.00223592	0.00089986	0	0	0	
0.048	-0.0958585	-0.0459481	0.00221881	0.000907254	0	0	0	
0.0481667	0.103506	0.0495816	0.00222791	0.000965607	0	0	0	
0.0483333	-0.118581	-0.0174739	0.00227619	0.00116466	0	0	0	
0.0485	0.110654	0.0200274	0.00237381	0.00163838	0	0	0	
0.0486667	-0.0939103	-0.0187221	0.00239545	0.0019726	0	0	0	
0.0488333	0.0876942	0.0473874	0.00235539	0.00192775	0	0	0	
0.049	-0.0917726	-0.0660603	0.00223624	0.00156626	0	0	0	
0.0491667	0.0937145	0.0697238	0.00217071	0.00131506	0	0	0	
0.0493333	-0.0955292	-0.0788179	0.00211558	0.00135035	0	0	0	
0.0495	0.0924637	0.132419	0.00209331	0.00169148	0	0	0	
0.0496667	-0.101694	-0.121104	0.00208142	0.00214152	0	0	0	
0.0498333	0.104555	0.0825157	0.00218192	0.00237965	0	0	0	
0.05	-0.0954265	-0.0482504	0.00228704	0.00206903	0	0	0	
0.0501667	0.0891713	0.0450675	0.00233149	0.00147957	0	0	0	
0.0503333	-0.0952402	-0.050792	0.00223148	0.00107178	0	0	0	
0.0505	0.103037	0.051829	0.00217927	0.000992776	0	0	0	
0.0506667	-0.103421	-0.0411048	0.00221044	0.00105774	0	0	0	
0.0508333	0.10008	0.0391709	0.00228976	0.00107633	0	0	0	
0.051	-0.0977161	-0.0420576	0.0023018	0.00100756	0	0	0	
0.0511667	0.0959077	0.0464537	0.00227195	0.000959381	0	0	0	
0.0513333	-0.0962649	-0.0459938	0.00221689	0.000959946	0	0	0	
0.0515	0.0989429	0.0425729	0.00220112	0.000975681	0	0	0	
0.0516667	-0.101677	-0.0374568	0.00220927	0.000958107	0	0	0	
0.0518333	0.100813	0.0372504	0.00225323	0.000916911	0	0	0	
0.052	-0.0976823	-0.0358659	0.00226331	0.000882104	0	0	0	
0.0521667	0.0960056	0.0389832	0.00225489	0.000883496	0	0	0	
0.0523333	-0.0964471	-0.0387489	0.00222131	0.000911218	0	0	0	
0.0525	0.0981122	0.0395468	0.00221459	0.000942356	0	0	0	
0.0526667	-0.097772	-0.0390377	0.00221938	0.000954356	0	0	0	
0.0528333	0.0979711	0.0417402	0.00223772	0.000957086	0	0	0	
0.053	-0.099167	-0.0405265	0.00223814	0.000965449	0	0	0	
0.0531667	0.0996034	0.0429456	0.0022452	0.000983173	0	0	0	
0.0533333	-0.0986823	-0.0374648	0.00223933	0.000975627	0	0	0	
0.0535	0.0989352	0.0400023	0.00224522	0.000947631	0	0	0	
0.0536667	-0.097987	-0.0498534	0.0022393	0.000931802	0	0	0	
0.0538333	0.0975021	0.04826	0.00223943	0.000989997	0	0	0	
0.054	-0.0981069	-0.0117077	0.00222572	0.00115333	0	0	0	
0.0541667	0.0992505	-0.00993963	0.0022143	0.00142193	0	0	0	
0.0543333	-0.100742	0.00537182	0.0022095	0.00146183	0	0	0	
0.0545	0.0993862	0.0248819	0.00222244	0.00123199	0	0	0	
0.0546667	-0.0984754	-0.0455088	0.00223781	0.000941274	0	0	0	
0.0548333	0.0991157	0.0472366	0.00225197	0.000877549	0	0	0	
0.055	-0.101358	-0.0558541	0.00225407	0.00100277	0	0	0	
0.0551667	0.100295	0.0773118	0.00225955	0.00120826	0	0	0	
0.0553333	-0.097218	-0.0759851	0.0022576	0.00142875	0	0	0	
0.0555	0.0951421	0.059266	0.00223751	0.00159038	0	0	0	
0.0556667	-0.100628	-0.0503368	0.00221272	0.00149788	0	0	0	
0.0558333	0.103894	0.0483393	0.0022262	0.00127956	0	0	0	
0.056	-0.10126	-0.0421369	0.00225791	0.00108425	0	0	0	
0.0561667	0.100558	0.0236745	0.00228001	0.00100004	0	0	0	
0.0563333	-0.103456	-0.0101253	0.00225976	0.000919621	0	0	0	
0.0565	0.103063	0.00904599	0.00225577	0.000738306	0	0	0	
0.0566667	-0.102704	-0.0246119	0.00226988	0.000531247	0	0	0	
0.0568333	0.100992	0.0518729	0.00229645	0.000512488	0	0	0	
0.057	-0.0999493	-0.0703769	0.00229172	0.00078209	0	0	0	
0.0571667	0.0979588	0.0641142	0.00226198	0.0011381	0	0	0	
0.0573333	-0.0985822	-0.0509916	0.00221562	0.00132869	0	0	0	
0.0575	0.0991082	0.0357855	0.0022005	0.00127763	0	0	0	
0.0576667	-0.102805	-0.0149045	0.00220726	0.00108041	0	0	0	
0.0578333	0.103838	0.00552956	0.00223823	0.000792986	0	0	0	
0.058	-0.105394	-0.0270783	0.00226874	0.000587803	0	0	0	
0.0581667	0.100637	0.0447288	0.00228987	0.000605694	0	0	0	
0.0583333	-0.0996264	-0.0470671	0.0022817	0.000739433	0	0	0	
0.0585	0.100259	0.0409321	0.00226272	0.000874027	0	0	0	
0.0586667	-0.102067	-0.0385017	0.00224255	0.000835657	0	0	0	
0.0588333	0.100941	0.0327539	0.00224236	0.000807801	0	0	0	
0.059	-0.100213	-0.0246699	0.00223997	0.000840762	0	0	0	
0.0591667	0.0974936	0.0194747	0.00223426	0.000883348	0	0	0	
0.0593333	-0.0973823	-0.0289032	0.00220106	0.000883052	0	0	0	
0.0595	0.0984926	0.028013	0.00217023	0.000836443	0	0	0	
0.0596667	-0.106304	-0.0171979	0.00216417	0.00078523	0	0	0	
0.0598333	0.122567	0.0275875	0.00226567	0.00072049	0	0	0	
0.06	-0.120505	-0.0500379	0.00243295	0.000707141	0	0	0	
0.0601667	0.0975293	0.0550893	0.00255043	0.000809418	0	0	0	
0.0603333	-0.0818961	-0.045131	0.00245273	0.000995059	0	0	0	
0.0605	0.090107	0.0352696	0.00221172	0.00104869	0	0	0	
0.0606667	-0.10742	-0.0373562	0.00205646	0.000986108	0	0	0	
0.0608333	0.114136	0.0331937	0.00213083	0.000914194	0	0	0	
0.061	-0.108533	-0.0312018	0.00227854	0.000851368	0	0	0	
0.0611667	0.108911	0.0426037	0.00235024	0.000818053	0	0	0	
0.0613333	-0.106505	-0.0488354	0.00232479	0.00081636	0	0	0	
0.0615	0.0950237	0.0365117	0.00229514	0.000881188	0	0	0	
0.0616667	-0.0928406	-0.0328227	0.00224129	0.000928278	0	0	0	
0.0618333	0.102012	0.0374689	0.00218663	0.000896847	0	0	0	
0.062	-0.108068	-0.0473645	0.00216472	0.000863316	0	0	0	
0.0621667	0.104489	0.0398584	0.00222727	0.000871115	0	0	0	
0.0623333	-0.0943431	-0.0187436	0.00226707	0.000854782	0	0	0	
0.0625	0.0895194	0.0131789	0.00221113	0.000723963	0	0	0	
0.0626667	-0.10054	-0.0366815	0.00209884	0.000594011	0	0	0	
0.0628333	0.116127	0.0447146	0.00211793	0.000622111	0	0	0	
0.063	-0.105773	-0.0399803	0.00225752	0.000727826	0	0	0	
0.0631667	0.092296	0.0343154	0.00237727	0.000823118	0	0	0	
0.0633333	-0.092219	-0.0346564	0.00231229	0.000791411	0	0	0	
0.0635	0.0939216	0.0282869	0.00217591	0.00080837	0	0	0	
0.0636667	-0.0971273	-0.0191773	0.002094	0.000811372	0	0	0	
0.0638333	0.106325	0.0148423	0.00214223	0.00075458	0	0	0	
0.064	-0.110528	-0.0284038	0.00222556	0.00065348	0	0	0	
0.0641667	0.112688	0.0430332	0.0023143	0.000665498	0	0	0	
0.0643333	-0.106195	-0.038029	0.0023479	0.000794545	0	0	0	
0.0645	0.0977509	0.0337877	0.00234511	0.000928551	0	0	0	
0.0646667	-0.0979309	-0.0338403	0.00227877	0.000912121	0	0	0	
0.0648333	0.101851	0.0449758	0.00221811	0.000862429	0	0	0	
0.065	-0.105005	-0.0559363	0.00219046	0.000906224	0	0	0	
0.0651667	0.102671	0.050545	0.00222965	0.000998201	0	0	0	
0.0653333	-0.0999879	-0.0394711	0.00223158	0.00102191	0	0	0	
0.0655	0.104672	0.0376745	0.00223461	0.000987595	0	0	0	
0.0656667	-0.108167	-0.0348791	0.00222664	0.000911992	0	0	0	
0.0658333	0.106176	0.0425006	0.00227067	0.000886905	0	0	0	
0.066	-0.10341	-0.0438583	0.00229055	0.000871177	0	0	0	
0.0661667	0.101666	0.0353357	0.00229072	0.00084793	0	0	0	
0.0663333	-0.100824	-0.0398932	0.00224277	0.000822065	0	0	0	
0.0665	0.102263	0.0508044	0.00221854	0.00085352	0	0	0	
0.0666667	-0.103609	-0.0462338	0.00219616	0.000946783	0	0	0	
0.0668333	0.103802	0.0374422	0.00221824	0.000998667	0	0	0	
0.067	-0.103291	-0.0363367	0.00222348	0.000928018	0	0	0	
0.0671667	0.103876	0.0422743	0.00223492	0.000845498	0	0	0	
0.0673333	-0.10472	-0.0421714	0.00223399	0.000851977	0	0	0	
0.0675	0.102901	0.0403453	0.00223696	0.000888978	0	0	0	
0.0676667	-0.103499	-0.041374	0.00223393	0.000917227	0	0	0	
0.0678333	0.104735	0.0383072	0.00224311	0.000887402	0	0	0	
0.068	-0.104254	-0.0403178	0.00224299	0.000864154	0	0	0	
0.0681667	0.101619	0.0448578	0.00224723	0.000860426	0	0	0	
0.0683333	-0.102031	-0.0435321	0.00222801	0.00090145	0	0	0	
0.0685	0.103022	0.0420676	0.00221958	0.00092074	0	0	0	
0.0686667	-0.105303	-0.04255	0.00221814	0.000922188	0	0	0	
0.0688333	0.103597	0.0403443	0.00223998	0.000894913	0	0	0	
0.069	-0.101875	-0.0396197	0.00224091	0.000891469	0	0	0	
0.0691667	0.102334	0.0411287	0.0022366	0.000884251	0	0	0	
0.0693333	-0.104144	-0.0403487	0.00221763	0.000889816	0	0	0	
0.0695	0.103629	0.0423192	0.00222833	0.000895096	0	0	0	
0.0696667	-0.104492	-0.0413368	0.00223201	0.000907715	0	0	0	
0.0698333	0.104862	0.041939	0.0022376	0.000910439	0	0	0	
0.07	-0.108525	-0.0456787	0.00223821	0.00092786	0	0	0	
0.0701667	0.108466	0.0465774	0.002263	0.000939832	0	0	0	
0.0703333	-0.105479	-0.043478	0.00227482	0.000962929	0	0	0	
0.0705	0.102127	0.0421543	0.00227605	0.000957611	0	0	0	
0.0706667	-0.100435	-0.0412764	0.00224074	0.000950893	0	0	0	
0.0708333	0.100022	0.0456315	0.00220518	0.000942672	0	0	0	
0.071	-0.107782	-0.0510193	0.00218204	0.000966309	0	0	0	
0.0711667	0.112531	0.0561371	0.00221952	0.0010063	0	0	0	
0.0713333	-0.111516	-0.0583477	0.00228528	0.00107495	0	0	0	
0.0715	0.103607	0.0569787	0.00234095	0.00113526	0	0	0	
0.0716667	-0.0997429	-0.0521537	0.00230986	0.00118286	0	0	0	
0.0718333	0.101641	0.0459275	0.00225341	0.00116503	0	0	0	
0.072	-0.103381	-0.0395677	0.0021988	0.00107759	0	0	0	
0.0721667	0.104715	0.0395531	0.00219939	0.000952392	0	0	0	
0.0723333	-0.112319	-0.0461047	0.0022187	0.000870307	0	0	0	
0.0725	0.112048	0.0514724	0.00227367	0.000887447	0	0	0	
0.0726667	-0.106964	-0.0536906	0.00230338	0.000959787	0	0	0	
0.0728333	0.10491	0.0490844	0.00232289	0.00102043	0	0	0	
0.073	-0.106651	-0.0410555	0.00229105	0.00099885	0	0	0	
0.0731667	0.108228	0.0383574	0.00228308	0.000934021	0	0	0	
0.0733333	-0.110205	-0.0416972	0.00227931	0.000872513	0	0	0	
0.0735	0.10675	0.0405935	0.00230492	0.000868122	0	0	0	
0.0736667	-0.103743	-0.0398216	0.00228661	0.000868065	0	0	0	
0.0738333	0.104365	0.0369077	0.00226106	0.000852437	0	0	0	
0.074	-0.107281	-0.0399876	0.00222897	0.000832232	0	0	0	
0.0741667	0.109661	0.0421416	0.00224744	0.000857633	0	0	0	
0.0743333	-0.110565	-0.0468244	0.00227579	0.000931988	0	0	0	
0.0745	0.107865	0.0430472	0.00230231	0.000984555	0	0	0	
0.0746667	-0.107998	-0.0426066	0.00229052	0.000982325	0	0	0	
0.0748333	0.106588	0.0408781	0.00228285	0.000937271	0	0	0	
0.075	-0.106761	-0.0455785	0.00226944	0.000911529	0	0	0	
0.0751667	0.107351	0.0477262	0.00227462	0.000943207	0	0	0	
0.0753333	-0.107905	-0.046228	0.00226445	0.000981571	0	0	0	
0.0755	0.104996	0.04045	0.0022537	0.000988281	0	0	0	
0.0756667	-0.104646	-0.0389042	0.00223007	0.000936803	0	0	0	
0.0758333	0.105987	0.0406591	0.00222168	0.000880339	0	0	0	
0.076	-0.108013	-0.0435889	0.00221876	0.000862071	0	0	0	
0.0761667	0.104921	0.0428468	0.00223979	0.000890531	0	0	0	
0.0763333	-0.104373	-0.0392031	0.00223431	0.000907569	0	0	0	
0.0765	0.107569	0.0390802	0.00223591	0.00089075	0	0	0	
0.0766667	-0.108828	-0.0416432	0.00223618	0.00085637	0	0	0	
0.0768333	0.105042	0.047465	0.00225939	0.000849853	0	0	0	
0.077	-0.102771	-0.0523319	0.00225531	0.000921705	0	0	0	
0.0771667	0.104444	0.0483959	0.00223302	0.000992219	0	0	0	
0.0773333	-0.110603	-0.046955	0.00221329	0.0010318	0	0	0	
0.0775	0.109594	0.0411427	0.00224318	0.00099961	0	0	0	
0.0776667	-0.10801	-0.0336005	0.00227287	0.000929516	0	0	0	
0.0778333	0.109935	0.0360372	0.00230012	0.000860443	0	0	0	
0.078	-0.108226	-0.0417361	0.00228651	0.000820757	0	0	0	
0.0781667	0.103716	0.0446156	0.00226845	0.000831864	0	0	0	
0.0783333	-0.105349	-0.0419483	0.00223288	0.000857546	0	0	0	
0.0785	0.107733	0.040911	0.00222049	0.000873151	0	0	0	
0.0786667	-0.110737	-0.0430807	0.00222994	0.000861364	0	0	0	
0.0788333	0.110342	0.0452558	0.00227165	0.000890686	0	0	0	
0.079	-0.106397	-0.0425783	0.00227183	0.000902135	0	0	0	
0.0791667	0.103711	0.0472159	0.00226018	0.000937399	0	0	0	
0.0793333	-0.105817	-0.0452408	0.00221709	0.00094862	0	0	0	
0.0795	0.109413	0.0422617	0.0022188	0.000955235	0	0	0	
0.0796667	-0.109954	-0.0418071	0.00223643	0.000925567	0	0	0	
0.0798333	0.10564	0.0451425	0.00226202	0.000911771	0	0	0	
0.08	-0.106024	-0.0481051	0.00224473	0.000913313	0	0	0	
0.0801667	0.10858	0.0489785	0.00223298	0.00096064	0	0	0	
0.0803333	-0.109229	-0.0440476	0.0022309	0.000964771	0	0	0	
0.0805	0.107057	0.0398316	0.00225705	0.000937776	0	0	0	
0.0806667	-0.108335	-0.0428324	0.00225638	0.000892178	0	0	0	
0.0808333	0.108815	0.0449195	0.00225732	0.000897341	0	0	0	
0.081	-0.108355	-0.0426064	0.00224918	0.000927228	0	0	0	
0.0811667	0.105463	0.0412276	0.00225339	0.000943279	0	0	0	
0.0813333	-0.107931	-0.0382512	0.0022361	0.000900074	0	0	0	
0.0815	0.110475	0.0421559	0.00224013	0.000873887	0	0	0	
0.0816667	-0.112817	-0.0451549	0.00225437	0.000877557	0	0	0	
0.0818333	0.109708	0.0465103	0.00228892	0.000919509	0	0	0	
0.082	-0.10763	-0.0497203	0.00228781	0.000960241	0	0	0	
0.0821667	0.105738	0.0479678	0.00226786	0.000994583	0	0	0	
0.0823333	-0.108722	-0.0440385	0.00223238	0.000986465	0	0	0	
0.0825	0.111695	0.0437457	0.00224383	0.000959379	0	0	0	
0.0826667	-0.111278	-0.0443728	0.0022551	0.000913728	0	0	0	
0.0828333	0.110516	0.0529939	0.00228155	0.000928976	0	0	0	
0.083	-0.111235	-0.0562069	0.00227975	0.00100098	0	0	0	
0.0831667	0.110701	0.0456888	0.00229103	0.00107756	0	0	0	
0.0833333	-0.107797	-0.0415915	0.00228926	0.00104818	0	0	0	
0.0835	0.101777	0.0465982	0.00226793	0.000984205	0	0	0	
0.0836667	-0.102766	-0.0446094	0.00220284	0.000919751	0	0	0	
0.0838333	0.111765	0.0445207	0.00217239	0.000940999	0	0	0	
0.084	-0.113332	-0.0477395	0.00219639	0.000944507	0	0	0	
0.0841667	0.10921	0.0478886	0.00226139	0.00095254	0	0	0	
0.0843333	-0.110583	-0.0432565	0.00228545	0.000933536	0	0	0	
0.0845	0.110091	0.0399044	0.00228122	0.000909097	0	0	0	
0.0846667	-0.10818	-0.0413519	0.00226661	0.000856292	0	0	0	
0.0848333	0.106559	0.0455944	0.00225564	0.000853985	0	0	0	
0.085	-0.108373	-0.0440342	0.00223096	0.000870012	0	0	0	
0.0851667	0.107825	0.0411533	0.00222149	0.000903003	0	0	0	
0.0853333	-0.108387	-0.0424322	0.00221743	0.000890219	0	0	0	
0.0855	0.109014	0.0413086	0.00223349	0.000886041	0	0	0	
0.0856667	-0.111274	-0.0397726	0.00224007	0.000875207	0	0	0	
0.0858333	0.110129	0.0394839	0.00226304	0.000898044	0	0	0	
0.086	-0.107363	-0.0366545	0.00226142	0.000863529	0	0	0	
0.0861667	0.105893	0.0386277	0.00225324	0.000842491	0	0	0	
0.0863333	-0.109568	-0.0412467	0.00222564	0.000792321	0	0	0	
0.0865	0.110275	0.0481078	0.00223189	0.00083861	0	0	0	
0.0866667	-0.1091	-0.0463061	0.00223698	0.000886971	0	0	0	
0.0868333	0.109822	0.0474114	0.00225279	0.00097174	0	0	0	
0.087	-0.112813	-0.041041	0.002254	0.000969531	0	0	0	
0.0871667	0.110735	0.0385301	0.00227831	0.000953594	0	0	0	
0.0873333	-0.106863	-0.0392789	0.00227367	0.000883061	0	0	0	
0.0875	0.106266	0.0455521	0.00225318	0.000881463	0	0	0	
0.0876667	-0.110852	-0.044981	0.0022206	0.000891644	0	0	0	
0.0878333	0.111267	0.0456472	0.00223077	0.00092819	0	0	0	
0.088	-0.111748	-0.0432882	0.00225639	0.000916564	0	0	0	
0.0881667	0.109164	0.0422719	0.00228209	0.000909469	0	0	0	
0.0883333	-0.109114	-0.045106	0.00226551	0.000886511	0	0	0	
0.0885	0.109916	0.0476831	0.00225328	0.000922583	0	0	0	
0.0886667	-0.111311	-0.04285	0.00224006	0.000918169	0	0	0	
0.0888333	0.109501	0.0410762	0.00225488	0.00093226	0	0	0	
0.089	-0.111017	-0.0409634	0.00225491	0.000880034	0	0	0	
0.0891667	0.110595	0.0465882	0.00226427	0.000892218	0	0	0	
0.0893333	-0.111057	-0.0486574	0.00225654	0.000918869	0	0	0	
0.0895	0.110769	0.047837	0.00226401	0.000975958	0	0	0	
0.0896667	-0.110244	-0.0438237	0.00225644	0.000965503	0	0	0	
0.0898333	0.110242	0.0446425	0.00226652	0.000942241	0	0	0	
0.09	-0.11026	-0.0425464	0.00225842	0.000895456	0	0	0	
0.0901667	0.106971	0.0432668	0.00224615	0.000881495	0	0	0	
0.0903333	-0.107846	-0.0470472	0.002217	0.000898059	0	0	0	
0.0905	0.110489	0.042321	0.00221157	0.000900496	0	0	0	
0.0906667	-0.115157	-0.0448792	0.00222865	0.00091653	0	0	0	
0.0908333	0.113934	0.0395286	0.00227348	0.000890005	0	0	0	
0.091	-0.11107	-0.0427706	0.00229576	0.000878678	0	0	0	
0.0911667	0.107017	0.0420328	0.002286	0.000877102	0	0	0	
0.0913333	-0.111411	-0.0474622	0.00225535	0.000899013	0	0	0	
0.0915	0.113688	0.044263	0.00225281	0.000935575	0	0	0	
0.0916667	-0.11446	-0.0473069	0.00226572	0.000952641	0	0	0	
0.0918333	0.111549	0.042572	0.00228518	0.000939653	0	0	0	
0.092	-0.113039	-0.0445564	0.0022807	0.000912597	0	0	0	
0.0921667	0.110549	0.0426586	0.00227951	0.000904819	0	0	0	
0.0923333	-0.108638	-0.0443865	0.00225492	0.000891512	0	0	0	
0.0925	0.10524	0.0453505	0.00222182	0.000914001	0	0	0	
0.0926667	-0.108183	-0.0430993	0.00217345	0.000910082	0	0	0	
0.0928333	0.112829	0.0399623	0.00217441	0.000905318	0	0	0	
0.093	-0.114203	-0.0430917	0.00220831	0.000876826	0	0	0	
0.0931667	0.110166	0.0430795	0.00226095	0.000861377	0	0	0	
0.0933333	-0.110052	-0.044746	0.0022596	0.000873735	0	0	0	
0.0935	0.110842	0.0476639	0.00224791	0.000911232	0	0	0	
0.0936667	-0.109576	-0.0468667	0.00222912	0.000949509	0	0	0	
0.0938333	0.108723	0.0441183	0.00223175	0.00095644	0	0	0	
0.094	-0.111644	-0.0461971	0.00222429	0.000931776	0	0	0	
0.0941667	0.110071	0.0450309	0.00223085	0.000915906	0	0	0	
0.0943333	-0.108967	-0.0428122	0.00222799	0.000928116	0	0	0	
0.0945	0.11308	0.0420858	0.00223551	0.000928818	0	0	0	
0.0946667	-0.118172	-0.04334	0.00225311	0.000909694	0	0	0	
0.0948333	0.116016	0.0426307	0.00230033	0.000885103	0	0	0	
0.095	-0.113046	-0.0421309	0.0023269	0.000857288	0	0	0	
0.0951667	0.109485	0.0442188	0.00231979	0.000864205	0	0	0	
0.0953333	-0.108244	-0.0457475	0.00227744	0.00087124	0	0	0	
0.0955	0.106591	0.0465459	0.0022321	0.000903766	0	0	0	
0.0956667	-0.110701	-0.045617	0.00220054	0.000935875	0	0	0	
0.0958333	0.113305	0.0425416	0.00220866	0.00094864	0	0	0	
0.096	-0.116348	-0.047636	0.00223542	0.000931724	0	0	0	
0.0961667	0.114059	0.0518813	0.00227767	0.000944571	0	0	0	
0.0963333	-0.114842	-0.0466724	0.00229131	0.00096454	0	0	0	
0.0965	0.113703	0.0442779	0.00230159	0.000980839	0	0	0	
0.0966667	-0.111244	-0.0472799	0.00228606	0.000951917	0	0	0	
0.0968333	0.108833	0.043896	0.00226474	0.000918121	0	0	0	
0.097	-0.111948	-0.0450518	0.00223423	0.000906048	0	0	0	
0.0971667	0.110457	0.0451822	0.0022288	0.000896977	0	0	0	
0.0973333	-0.107216	-0.0445504	0.0022141	0.000893447	0	0	0	
0.0975	0.108078	0.0454216	0.00220232	0.000903712	0	0	0	
0.0976667	-0.112251	-0.0450986	0.00218565	0.000897198	0	0	0	
0.0978333	0.112756	0.0439944	0.00221225	0.000895829	0	0	0	
0.098	-0.112981	-0.0469958	0.00224355	0.000901854	0	0	0	
0.0981667	0.112639	0.0497669	0.00226616	0.00093135	0	0	0	
0.0983333	-0.110999	-0.0464799	0.00225612	0.000970457	0	0	0	
0.0985	0.110263	0.0411549	0.00224881	0.000957496	0	0	0	
0.0986667	-0.113424	-0.0314686	0.00224236	0.000868954	0	0	0	
0.0988333	0.112331	0.0304226	0.00225664	0.000748295	0	0	0	
0.099	-0.109756	-0.035498	0.00225307	0.000681452	0	0	0	
0.0991667	0.109331	0.0456514	0.00223932	0.000720192	0	0	0	
0.0993333	-0.113298	-0.047258	0.00221997	0.000831906	0	0	0	
0.0995	0.114641	0.0462819	0.00223369	0.000911587	0	0	0	
0.0996667	-0.113836	-0.0506089	0.00225398	0.000955731	0	0	0	
0.0998333	0.112628	0.0528715	0.00227062	0.000984811	0	0	0	
0.1	-0.114446	-0.050517	0.00227113	0.00103312	0	0	0	
0.100167	0.112629	0.0473814	0.00227319	0.00104945	0	0	0	
0.100333	-0.113073	-0.0498684	0.00226477	0.00103429	0	0	0	
0.1005	0.112683	0.0458946	0.00225687	0.00100053	0	0	0	
0.100667	-0.113076	-0.0438807	0.00224474	0.000956614	0	0	0	
0.100833	0.1123	0.0458541	0.00224767	0.00092191	0	0	0	
0.101	-0.114431	-0.0474925	0.00225334	0.000901144	0	0	0	
0.101167	0.115083	0.0435314	0.00226869	0.000914739	0	0	0	
0.101333	-0.114299	-0.0441113	0.00227692	0.000909282	0	0	0	
0.1015	0.108979	0.0476755	0.00227061	0.000912388	0	0	0	
0.101667	-0.109049	-0.0464055	0.00223401	0.00090834	0	0	0	
0.101833	0.111606	0.0475741	0.00221401	0.000925807	0	0	0	
0.102	-0.111805	-0.0530137	0.0022101	0.000954373	0	0	0	
0.102167	0.108696	0.0552636	0.00222148	0.0010006	0	0	0	
0.102333	-0.114985	-0.0507419	0.00222254	0.0010296	0	0	0	
0.1025	0.119757	0.0468828	0.00225246	0.00101848	0	0	0	
0.102667	-0.116936	-0.0443236	0.00229112	0.000964483	0	0	0	
0.102833	0.113259	0.0490426	0.00231992	0.000933012	0	0	0	
0.103	-0.113279	-0.0474152	0.00229761	0.000938063	0	0	0	
0.103167	0.111288	0.0441027	0.00226578	0.00094505	0	0	0	
0.103333	-0.11253	-0.047864	0.00223786	0.000940338	0	0	0	
0.1035	0.113532	0.0523478	0.00223688	0.00093771	0	0	0	
0.103667	-0.117064	-0.0564777	0.00224559	0.000986576	0	0	0	
0.103833	0.116535	0.0580285	0.00227856	0.00104972	0	0	0	
0.104	-0.108346	-0.0500138	0.00228059	0.00109103	0	0	0	
0.104167	0.101991	0.0427611	0.0022384	0.00106275	0	0	0	
0.104333	-0.109912	-0.0373509	0.00216917	0.000979872	0	0	0	
0.1045	0.115854	0.0367067	0.00215866	0.000872402	0	0	0	
0.104667	-0.115742	-0.0402796	0.0022079	0.000811557	0	0	0	
0.104833	0.11218	0.0454442	0.0022567	0.000809223	0	0	0	
0.105	-0.117515	-0.0521736	0.002265	0.000859029	0	0	0	
0.105167	0.116272	0.0562926	0.00227789	0.000950581	0	0	0	
0.105333	-0.109008	-0.0554696	0.00227762	0.00103243	0	0	0	
0.1055	0.106246	0.0534116	0.00224364	0.00108718	0	0	0	
0.105667	-0.114286	-0.0504904	0.00219928	0.00107659	0	0	0	
0.105833	0.116934	0.045503	0.00220608	0.00103059	0	0	0	
0.106	-0.116166	-0.0431352	0.00225339	0.000955508	0	0	0	
0.106167	0.111518	0.0426738	0.00228028	0.000902443	0	0	0	
0.106333	-0.111579	-0.0466844	0.00226116	0.000887283	0	0	0	
0.1065	0.111812	0.0418963	0.00223821	0.000889387	0	0	0	
0.106667	-0.114927	-0.0445465	0.00222575	0.00088331	0	0	0	
0.106833	0.11366	0.0435453	0.00223686	0.000869462	0	0	0	
0.107	-0.112108	-0.0478927	0.00223518	0.000879567	0	0	0	
0.107167	0.110263	0.0462513	0.00222666	0.000909147	0	0	0	
0.107333	-0.1134	-0.0492247	0.00221096	0.000931987	0	0	0	
0.1075	0.113024	0.0464777	0.00222111	0.000944324	0	0	0	
0.107667	-0.114664	-0.0481122	0.00223119	0.000942251	0	0	0	
0.107833	0.113035	0.0471123	0.00224512	0.000943685	0	0	0	
0.108	-0.115393	-0.0486462	0.00224143	0.000946972	0	0	0	
0.108167	0.113963	0.0454117	0.00225573	0.000944404	0	0	0	
0.108333	-0.115324	-0.0470275	0.00226122	0.000928303	0	0	0	
0.1085	0.112539	0.0472302	0.00226707	0.000923627	0	0	0	
0.108667	-0.112981	-0.0447673	0.00225007	0.000917715	0	0	0	
0.108833	0.111796	0.0458784	0.00223521	0.000919287	0	0	0	
0.109	-0.115561	-0.0488826	0.00222367	0.000916914	0	0	0	
0.109167	0.115403	0.0493301	0.00224661	0.000936983	0	0	0	
0.109333	-0.116844	-0.0495282	0.00226219	0.000959476	0	0	0	
0.1095	0.115332	0.0490396	0.00228115	0.000966649	0	0	0	
0.109667	-0.115375	-0.0481851	0.0022716	0.00096554	0	0	0	
0.109833	0.113204	0.0481157	0.00226827	0.000958432	0	0	0	
0.11	-0.115854	-0.0465506	0.00225393	0.000956133	0	0	0	
0.110167	0.114381	0.0437528	0.00225841	0.000938675	0	0	0	
0.110333	-0.113391	-0.0475014	0.00224912	0.000917085	0	0	0	
0.1105	0.111644	0.0497143	0.00224525	0.00092465	0	0	0	
0.110667	-0.114158	-0.0500334	0.00222425	0.000940246	0	0	0	
0.110833	0.114551	0.0508656	0.0022319	0.000977938	0	0	0	
0.111	-0.113215	-0.05179	0.00223161	0.000989526	0	0	0	
0.111167	0.110181	0.0490028	0.00222819	0.00099682	0	0	0	
0.111333	-0.113584	-0.0484065	0.00220676	0.000981702	0	0	0	
0.1115	0.114633	0.04753	0.0022146	0.000972229	0	0	0	
0.111667	-0.112423	-0.0451988	0.00222148	0.000933791	0	0	0	
0.111833	0.112753	0.0476935	0.00222964	0.000924397	0	0	0	
0.112	-0.114891	-0.0491075	0.00222371	0.000914399	0	0	0	
0.112167	0.114763	0.0483004	0.00223444	0.000940404	0	0	0	
0.112333	-0.116039	-0.0461472	0.00224811	0.000943064	0	0	0	
0.1125	0.117678	0.0497842	0.00227131	0.000951053	0	0	0	
0.112667	-0.117863	-0.0498845	0.00228485	0.000958467	0	0	0	
0.112833	0.115478	0.0539432	0.00229541	0.000984338	0	0	0	
0.113	-0.110567	-0.0501967	0.00227591	0.00100894	0	0	0	
0.113167	0.105401	0.0498515	0.0022239	0.00101492	0	0	0	
0.113333	-0.108554	-0.0535449	0.00215942	0.00101634	0	0	0	
0.1135	0.113393	0.0504616	0.00214282	0.00101855	0	0	0	
0.113667	-0.11697	-0.04421	0.00217423	0.000997099	0	0	0	
0.113833	0.118949	0.0453255	0.00224304	0.000948619	0	0	0	
0.114	-0.120792	-0.0487125	0.00228838	0.00089743	0	0	0	
0.114167	0.116329	0.0503338	0.00232151	0.000910056	0	0	0	
0.114333	-0.114526	-0.0486253	0.00230829	0.000949416	0	0	0	
0.1145	0.11254	0.0482825	0.00227965	0.000967763	0	0	0	
0.114667	-0.113585	-0.0471717	0.00223465	0.000954979	0	0	0	
0.114833	0.115798	0.0455552	0.00223475	0.000927895	0	0	0	
0.115	-0.117207	-0.0478523	0.00224188	0.000913128	0	0	0	
0.115167	0.113802	0.0507677	0.00226668	0.000936531	0	0	0	
0.115333	-0.112681	-0.0459125	0.00224908	0.00094841	0	0	0	
0.1155	0.113815	0.0459069	0.00223475	0.000949641	0	0	0	
0.115667	-0.117994	-0.0453752	0.00223101	0.000920983	0	0	0	
0.115833	0.116005	0.0450585	0.0022594	0.000900523	0	0	0	
0.116	-0.114265	-0.0476297	0.00226157	0.000892756	0	0	0	
0.116167	0.113843	0.0498864	0.00225671	0.000921199	0	0	0	
0.116333	-0.11514	-0.0452828	0.00223655	0.000932886	0	0	0	
0.1165	0.115626	0.0492826	0.00224531	0.000947474	0	0	0	
0.116667	-0.116653	-0.0472974	0.0022461	0.000930609	0	0	0	
0.116833	0.113991	0.0458096	0.00225485	0.000927928	0	0	0	
0.117	-0.115103	-0.0438813	0.00224401	0.000908774	0	0	0	
0.117167	0.115911	0.0482649	0.00224818	0.000901951	0	0	0	
0.117333	-0.115216	-0.0436963	0.00224106	0.000901629	0	0	0	
0.1175	0.112922	0.0454646	0.00224588	0.000898689	0	0	0	
0.117667	-0.115439	-0.0464369	0.00222815	0.000896027	0	0	0	
0.117833	0.117004	0.0481389	0.00224164	0.000899592	0	0	0	
0.118	-0.116916	-0.0442059	0.00225099	0.000912582	0	0	0	
0.118167	0.114521	0.0469389	0.00226648	0.000900392	0	0	0	
0.118333	-0.115017	-0.0502147	0.00225472	0.000922386	0	0	0	
0.1185	0.114861	0.04823	0.00225352	0.000943176	0	0	0	
0.118667	-0.117433	-0.044912	0.00224449	0.000955392	0	0	0	
0.118833	0.115012	0.0421437	0.00225386	0.000913863	0	0	0	
0.119	-0.113744	-0.0443649	0.00224136	0.000863198	0	0	0	
0.119167	0.114522	0.0468857	0.00224363	0.000847125	0	0	0	
0.119333	-0.116888	-0.0481187	0.00223908	0.000876466	0	0	0	
0.1195	0.114956	0.0492976	0.00224866	0.000927472	0	0	0	
0.119667	-0.116421	-0.0511357	0.00224515	0.000965099	0	0	0	
0.119833	0.116346	0.0455493	0.00225071	0.000961875	0	0	0	
0.12	-0.11839	-0.0436694	0.00225825	0.000934353	0	0	0	
0.120167	0.114985	0.0500797	0.00227555	0.000914212	0	0	0	
0.120333	-0.114294	-0.0547097	0.00225986	0.000949521	0	0	0	
0.1205	0.113604	0.0485746	0.00224125	0.000989475	0	0	0	
0.120667	-0.116276	-0.0421896	0.00222119	0.000981495	0	0	0	
0.120833	0.114143	0.0424819	0.00222751	0.000900578	0	0	0	
0.121	-0.116153	-0.0453058	0.00223179	0.000848139	0	0	0	
0.121167	0.116079	0.0450167	0.00224426	0.000841177	0	0	0	
0.121333	-0.115911	-0.0459524	0.00224771	0.000868539	0	0	0	
0.1215	0.111659	0.0423614	0.00224472	0.000881228	0	0	0	
0.121667	-0.115026	-0.0444194	0.00222134	0.000866177	0	0	0	
0.121833	0.116827	0.0449473	0.00222306	0.00086145	0	0	0	
0.122	-0.117116	-0.0489818	0.0022353	0.000869398	0	0	0	
0.122167	0.115029	0.0511277	0.00225826	0.000925437	0	0	0	
0.122333	-0.115912	-0.0520562	0.00225577	0.00097459	0	0	0	
0.1225	0.113793	0.0477298	0.00225029	0.00100942	0	0	0	
0.122667	-0.116312	-0.0445358	0.00223666	0.000954815	0	0	0	
0.122833	0.115885	0.0426774	0.00223774	0.000902795	0	0	0	
0.123	-0.115048	-0.0455709	0.00223527	0.000849559	0	0	0	
0.123167	0.114029	0.0472103	0.00224138	0.000878143	0	0	0	
0.123333	-0.115593	-0.0470647	0.00223058	0.000897375	0	0	0	
0.1235	0.113826	0.0454891	0.00222679	0.000910678	0	0	0	
0.123667	-0.116338	-0.0458929	0.00221887	0.000888028	0	0	0	
0.123833	0.116577	0.0496258	0.00223008	0.000909997	0	0	0	
0.124	-0.117228	-0.053874	0.00224509	0.000937732	0	0	0	
0.124167	0.116614	0.0532939	0.00226473	0.00101408	0	0	0	
0.124333	-0.117401	-0.0526908	0.00226345	0.00102523	0	0	0	
0.1245	0.115119	0.0476395	0.00226012	0.00102571	0	0	0	
0.124667	-0.115805	-0.0498836	0.00224715	0.000974651	0	0	0	
0.124833	0.113933	0.0478497	0.00224133	0.000959611	0	0	0	
0.125	-0.114674	-0.0500483	0.00222076	0.000940115	0	0	0	
0.125167	0.113585	0.0457727	0.00221588	0.00095445	0	0	0	
0.125333	-0.115311	-0.0462536	0.00220804	0.00091484	0	0	0	
0.1255	0.115088	0.041578	0.0022221	0.00089438	0	0	0	
0.125667	-0.118135	-0.0475977	0.00222951	0.000851647	0	0	0	
0.125833	0.117244	0.0438134	0.00225152	0.000867793	0	0	0	
0.126	-0.118557	-0.049149	0.00226081	0.000886361	0	0	0	
0.126167	0.116147	0.0458181	0.00227904	0.000912438	0	0	0	
0.126333	-0.115814	-0.0500559	0.00226599	0.000915088	0	0	0	
0.1265	0.113932	0.0497128	0.00225456	0.000934079	0	0	0	
0.126667	-0.11654	-0.0535078	0.0022313	0.000960166	0	0	0	
0.126833	0.116816	0.0511784	0.00223823	0.000995673	0	0	0	
0.127	-0.118304	-0.0525428	0.00225081	0.00101117	0	0	0	
0.127167	0.114099	0.044647	0.00226042	0.000987341	0	0	0	
0.127333	-0.115108	-0.0471605	0.00224194	0.00094176	0	0	0	
0.1275	0.115349	0.04694	0.00223215	0.000901997	0	0	0	
0.127667	-0.116728	-0.0486325	0.00222992	0.000908302	0	0	0	
0.127833	0.115562	0.0481118	0.00224441	0.000921611	0	0	0	
0.128	-0.117736	-0.0451227	0.0022445	0.000935713	0	0	0	
0.128167	0.115656	0.0410045	0.00224742	0.000889503	0	0	0	
0.128333	-0.114415	-0.0443725	0.00223836	0.000857606	0	0	0	
0.1285	0.11563	0.0481472	0.00223306	0.000835941	0	0	0	
0.128667	-0.119534	-0.0500897	0.00223726	0.000895916	0	0	0	
0.128833	0.116483	0.0502387	0.00225662	0.000940444	0	0	0	
0.129	-0.116918	-0.0485727	0.00225964	0.000977614	0	0	0	
0.129167	0.116344	0.0478193	0.00225697	0.00094885	0	0	0	
0.129333	-0.116871	-0.0448333	0.00224473	0.000930217	0	0	0	
0.1295	0.114241	0.0464952	0.00224199	0.000889192	0	0	0	
0.129667	-0.116635	-0.0493476	0.0022327	0.000901864	0	0	0	
0.129833	0.115024	0.0512055	0.00223546	0.000925246	0	0	0	
0.13	-0.116689	-0.0510278	0.00223186	0.000971984	0	0	0	
0.130167	0.113327	0.0441326	0.00223325	0.000964016	0	0	0	
0.130333	-0.115101	-0.043	0.00221424	0.000916454	0	0	0	
0.1305	0.114404	0.048896	0.00221549	0.000876876	0	0	0	
0.130667	-0.113918	-0.0539875	0.00220084	0.00089564	0	0	0	
0.130833	0.111492	0.054875	0.002199	0.00098112	0	0	0	
0.131	-0.115329	-0.0507628	0.00218864	0.00102137	0	0	0	
0.131167	0.117186	0.0480343	0.0022038	0.00101847	0	0	0	
0.131333	-0.118849	-0.0458653	0.00222992	0.00095253	0	0	0	
0.1315	0.116535	0.0431493	0.00225402	0.000905963	0	0	0	
0.131667	-0.116531	-0.0432716	0.00225702	0.000866031	0	0	0	
0.131833	0.114565	0.0528229	0.00224498	0.000881865	0	0	0	
0.132	-0.111465	-0.0526223	0.00221549	0.000929146	0	0	0	
0.132167	0.110201	0.0507427	0.00218138	0.000983519	0	0	0	
0.132333	-0.116403	-0.0442161	0.00216952	0.000976563	0	0	0	
0.1325	0.116914	0.0474719	0.00219056	0.000927247	0	0	0	
0.132667	-0.118055	-0.0493172	0.00222886	0.000905209	0	0	0	
0.132833	0.116729	0.0493169	0.00225196	0.000919524	0	0	0	
0.133	-0.115479	-0.046637	0.00224958	0.000947915	0	0	0	
0.133167	0.112573	0.0481405	0.0022313	0.000933272	0	0	0	
0.133333	-0.115768	-0.0462988	0.00220579	0.000911347	0	0	0	
0.1335	0.119138	0.0509118	0.00222057	0.000913642	0	0	0	
0.133667	-0.120325	-0.0533033	0.00224674	0.000959963	0	0	0	
0.133833	0.117771	0.0529379	0.0022803	0.00100669	0	0	0	
0.134	-0.115491	-0.0458375	0.00226887	0.0010006	0	0	0	
0.134167	0.114294	0.0448608	0.00224544	0.00094111	0	0	0	
0.134333	-0.114811	-0.0469432	0.00221538	0.000891591	0	0	0	
0.1345	0.115549	0.0493893	0.00221459	0.000902011	0	0	0	
0.134667	-0.117997	-0.0449701	0.00222349	0.000919912	0	0	0	
0.134833	0.119584	0.0434292	0.00225285	0.000908267	0	0	0	
0.135	-0.118942	-0.0417122	0.00226895	0.000854995	0	0	0	
0.135167	0.118125	0.0455853	0.0022811	0.000823284	0	0	0	
0.135333	-0.117731	-0.0438931	0.00227089	0.000826946	0	0	0	
0.1355	0.114996	0.0483473	0.00225675	0.000856787	0	0	0	
0.135667	-0.115623	-0.0491951	0.00223686	0.000901594	0	0	0	
0.135833	0.116422	0.0513609	0.00222915	0.000936326	0	0	0	
0.136	-0.117734	-0.0468737	0.00223086	0.000949408	0	0	0	
0.136167	0.116206	0.0478462	0.00224155	0.000929525	0	0	0	
0.136333	-0.115708	-0.0476746	0.00224032	0.000918699	0	0	0	
0.1365	0.115609	0.0525378	0.00223635	0.000927007	0	0	0	
0.136667	-0.117407	-0.0504129	0.00223108	0.000972347	0	0	0	
0.136833	0.116155	0.0485187	0.00223719	0.000964812	0	0	0	
0.137	-0.119082	-0.0414171	0.00224509	0.000941254	0	0	0	
0.137167	0.118262	0.0421821	0.00225872	0.00085699	0	0	0	
0.137333	-0.116668	-0.0530972	0.00225724	0.0008642	0	0	0	
0.1375	0.115131	0.0539633	0.00224726	0.00091196	0	0	0	
0.137667	-0.118458	-0.0474993	0.0022367	0.000984476	0	0	0	
0.137833	0.117962	0.0450043	0.00224763	0.000968853	0	0	0	
0.138	-0.115122	-0.0506436	0.00224869	0.000933475	0	0	0	
0.138167	0.113646	0.0472711	0.00223299	0.000908288	0	0	0	
0.138333	-0.118041	-0.0472304	0.00221567	0.000925829	0	0	0	
0.1385	0.116495	0.0484964	0.00221942	0.000931556	0	0	0	
0.138667	-0.114925	-0.0544383	0.00222772	0.000959741	0	0	0	
0.138833	0.114895	0.0503856	0.00222627	0.000986183	0	0	0	
0.139	-0.117537	-0.0472516	0.00222032	0.000980161	0	0	0	
0.139167	0.117591	0.0481833	0.00222958	0.000953107	0	0	0	
0.139333	-0.118512	-0.0501393	0.00224536	0.000924669	0	0	0	
0.1395	0.117283	0.0504939	0.00226126	0.000941613	0	0	0	
0.139667	-0.117993	-0.0491419	0.00225934	0.000953888	0	0	0	
0.139833	0.115996	0.0479758	0.00225098	0.000958841	0	0	0	
0.14	-0.117054	-0.0442807	0.00223664	0.000930097	0	0	0	
0.140167	0.116785	0.0461378	0.00224008	0.00090298	0	0	0	
0.140333	-0.116808	-0.0530743	0.00223992	0.000901081	0	0	0	
0.1405	0.115906	0.0574309	0.002248	0.000962494	0	0	0	
0.140667	-0.119592	-0.0498944	0.0022433	0.0010079	0	0	0	
0.140833	0.121869	0.0419454	0.00226384	0.000987863	0	0	0	
0.141	-0.116155	-0.0319198	0.00227108	0.000860103	0	0	0	
0.141167	0.105879	0.0380997	0.00223911	0.000758109	0	0	0	
0.141333	-0.112398	-0.0496557	0.0021747	0.000774495	0	0	0	
0.1415	0.123018	0.0532054	0.00217535	0.000925588	0	0	0	
0.141667	-0.124273	-0.0528101	0.00224213	0.00104896	0	0	0	
0.141833	0.115586	0.0537986	0.00230017	0.00107898	0	0	0	
0.142	-0.114132	-0.056627	0.00227366	0.00103605	0	0	0	
0.142167	0.114677	0.0493862	0.0022226	0.00103285	0	0	0	
0.142333	-0.114796	-0.0324025	0.00219021	0.000963624	0	0	0	
0.1425	0.111878	0.0246771	0.0021859	0.000817059	0	0	0	
0.142667	-0.119591	-0.0315865	0.00220149	0.00063975	0	0	0	
0.142833	0.124607	0.0410096	0.00225191	0.000619523	0	0	0	
0.143	-0.123177	-0.0507974	0.00230707	0.000714652	0	0	0	
0.143167	0.11403	0.048622	0.00231769	0.000863589	0	0	0	
0.143333	-0.112702	-0.0451978	0.0022636	0.000904926	0	0	0	
0.1435	0.115552	0.0448105	0.00221602	0.000899398	0	0	0	
0.143667	-0.12036	-0.047103	0.00221412	0.000859654	0	0	0	
0.143833	0.116898	0.0474224	0.0022453	0.000885901	0	0	0	
0.144	-0.116108	-0.0491628	0.00224958	0.000912425	0	0	0	
0.144167	0.115006	0.04926	0.00223601	0.000948345	0	0	0	
0.144333	-0.11711	-0.0493673	0.00222043	0.000939502	0	0	0	
0.1445	0.117641	0.0507325	0.00222911	0.000947761	0	0	0	
0.144667	-0.119394	-0.0524141	0.00224134	0.000957494	0	0	0	
0.144833	0.11692	0.0516527	0.00225715	0.000978554	0	0	0	
0.145	-0.118373	-0.0498782	0.00225693	0.000985319	0	0	0	
0.145167	0.115323	0.0456694	0.00225433	0.000955454	0	0	0	
0.145333	-0.116338	-0.0474762	0.00223485	0.000917337	0	0	0	
0.1455	0.116844	0.0477166	0.00223025	0.000902766	0	0	0	
0.145667	-0.118011	-0.0459117	0.00222787	0.000897769	0	0	0	
0.145833	0.11462	0.046999	0.00223379	0.000898923	0	0	0	
0.146	-0.115623	-0.0509245	0.00222148	0.0009046	0	0	0	
0.146167	0.114607	0.0523	0.00221175	0.000936348	0	0	0	
0.146333	-0.118064	-0.0524114	0.00220779	0.00097932	0	0	0	
0.1465	0.117679	0.0497312	0.00222273	0.000995164	0	0	0	
0.146667	-0.118059	-0.0519585	0.00223691	0.000987249	0	0	0	
0.146833	0.117744	0.0501248	0.00225261	0.000983616	0	0	0	
0.147	-0.119677	-0.0496396	0.0022595	0.000967842	0	0	0	
0.147167	0.116579	0.0457112	0.00226013	0.000953527	0	0	0	
0.147333	-0.118078	-0.0445092	0.00225272	0.000906971	0	0	0	
0.1475	0.116734	0.0423928	0.00224967	0.000870201	0	0	0	
0.147667	-0.119452	-0.0449981	0.00225211	0.000835107	0	0	0	
0.147833	0.116383	0.0458967	0.00225063	0.000848618	0	0	0	
0.148	-0.117589	-0.0499242	0.00224271	0.000866996	0	0	0	
0.148167	0.117422	0.0528433	0.0022434	0.000932365	0	0	0	
0.148333	-0.118258	-0.0520843	0.0022465	0.000953707	0	0	0	
0.1485	0.114299	0.044632	0.00225109	0.000973978	0	0	0	
0.148667	-0.116318	-0.0416009	0.00222781	0.000896292	0	0	0	
0.148833	0.117066	0.0504913	0.00222544	0.000880135	0	0	0	
0.149	-0.116906	-0.0483197	0.00222605	0.000881029	0	0	0	
0.149167	0.113748	0.0467166	0.00223445	0.000933144	0	0	0	
0.149333	-0.116172	-0.0408931	0.00221915	0.000904626	0	0	0	
0.1495	0.120814	0.0457039	0.0022352	0.000864104	0	0	0	
0.149667	-0.123485	-0.0470626	0.00227118	0.000834793	0	0	0	
0.149833	0.120177	0.0493023	0.0023135	0.000873848	0	0	0	
0.15	-0.117564	-0.045413	0.00230039	0.000910995	0	0	0	
0.150167	0.115115	0.0493395	0.00226891	0.000931432	0	0	0	
0.150333	-0.119001	-0.0505205	0.00224228	0.00092765	0	0	0	
0.1505	0.131161	0.0587621	0.00227994	0.000949252	0	0	0	
0.150667	-0.184872	-0.0804196	0.00251345	0.00109049	0	0	0	
0.150833	0.137461	0.0627067	0.00277187	0.00123019	0	0	0	
0.151	-0.116163	-0.049325	0.00277569	0.00125685	0	0	0	
0.151167	0.110862	0.042175	0.0025257	0.00110703	0	0	0	
0.151333	-0.112382	-0.0418278	0.00223579	0.000928119	0	0	0	
0.1515	0.117272	0.0482398	0.00218867	0.000863033	0	0	0	
0.151667	-0.160168	-0.0664955	0.00234204	0.000929628	0	0	0	
0.151833	0.128288	0.0529173	0.00266839	0.00108913	0	0	0	
0.152	-0.131243	-0.0537476	0.00273833	0.00112943	0	0	0	
0.152167	0.120546	0.047128	0.00264749	0.00108526	0	0	0	
0.152333	-0.115726	-0.0427102	0.00234982	0.000931727	0	0	0	
0.1525	0.115448	0.0426312	0.00227797	0.00086403	0	0	0	
0.152667	-0.118535	-0.0517228	0.00223719	0.000844165	0	0	0	
0.152833	0.120803	0.0545581	0.00225349	0.000908609	0	0	0	
0.153	-0.123845	-0.0516856	0.00228951	0.000978275	0	0	0	
0.153167	0.117598	0.046643	0.00230585	0.000998181	0	0	0	
0.153333	-0.121127	-0.0486508	0.00228985	0.00095337	0	0	0	
0.1535	0.119042	0.0469158	0.00229007	0.000920342	0	0	0	
0.153667	-0.116653	-0.0506473	0.00227041	0.000903512	0	0	0	
0.153833	0.113792	0.0504828	0.00225752	0.000931593	0	0	0	
0.154	-0.113693	-0.0486674	0.00220565	0.000950949	0	0	0	
0.154167	0.112089	0.0441948	0.00219278	0.000936277	0	0	0	
0.154333	-0.124959	-0.0325512	0.00221434	0.000855367	0	0	0	
0.1545	0.124177	0.0199197	0.00229452	0.000679795	0	0	0	
0.154667	-0.115865	-0.0255242	0.0023139	0.000532732	0	0	0	
0.154833	0.110932	0.036099	0.00227681	0.000496419	0	0	0	
0.155	-0.0900025	-0.0699797	0.00210858	0.000706801	0	0	0	
0.155167	0.0629969	0.0979629	0.0019063	0.0010573	0	0	0	
0.155333	-0.176258	-0.00433233	0.00230075	0.00157529	0	0	0	
0.1555	0.532827	-0.311677	0.00389635	0.00244587	0	0	0	
0.155667	-0.775085	0.437167	0.00911334	0.00592062	0	0	0	
0.155833	0.352225	-0.143071	0.0108175	0.0063778	0	0	0	
0.156	-0.133669	-0.0485159	0.0102154	0.00618328	0	0	0	
0.156167	0.0555106	0.117901	0.00522079	0.00300399	0	0	0	
0.156333	-0.0323607	-0.118213	0.00274278	0.00254607	0	0	0	
0.1565	0.0748798	0.0817746	0.00189023	0.00219176	0	0	0	
0.156667	-0.230644	0.0353031	0.00406084	0.00369991	0	0	0	
0.156833	0.0301317	0.0682623	0.00735712	0.00585379	0	0	0	
0.157	-0.204627	0.032732	0.00823432	0.00637581	0	0	0	
0.157167	0.165136	0.0174805	0.00640941	0.0042416	0	0	0	
0.157333	-0.102727	-0.0554225	0.0036084	0.00175355	0	0	0	
0.1575	0.113674	0.0544523	0.00268018	0.000848566	0	0	0	
0.157667	-0.175448	0.0130679	0.00253995	0.000983892	0	0	0	
0.157833	0.197488	-0.0252769	0.00291097	0.000774115	0	0	0	
0.158	-0.149985	-0.0227233	0.00324596	0.000657604	0	0	0	
0.158167	0.104647	0.0595514	0.00306749	0.000687047	0	0	0	
0.158333	-0.103074	-0.0549163	0.00253821	0.000866438	0	0	0	
0.1585	0.112929	0.0498584	0.00219049	0.00101042	0	0	0	
0.158667	-0.0974918	-0.0764642	0.00209591	0.00105836	0	0	0	
0.158833	0.118236	0.150621	0.00194915	0.00190777	0	0	0	
0.159	-0.0248452	-0.157235	0.00217691	0.00330155	0	0	0	
0.159167	0.194285	0.0436391	0.0032812	0.00447662	0	0	0	
0.159333	-0.110623	-0.0950077	0.00369825	0.00387458	0	0	0	
0.1595	0.106396	0.0691002	0.00344936	0.00263982	0	0	0	
0.159667	-0.113032	-0.0500461	0.00233938	0.00147025	0	0	0	
0.159833	0.160822	0.0706859	0.00203606	0.0014586	0	0	0	
0.16	-0.225299	0.0801585	0.00267587	0.00179372	0	0	0	
0.160167	0.316859	-0.164161	0.00389164	0.00303205	0	0	0	
0.160333	-0.156407	0.0206928	0.00455044	0.0028415	0	0	0	
0.1605	0.130698	0.040064	0.00408571	0.00233007	0	0	0	
0.160667	-0.113879	-0.0637845	0.0029332	0.00107119	0	0	0	
0.160833	0.111088	0.0609476	0.0023565	0.00106718	0	0	0	
0.161	-0.117738	-0.0502299	0.00221012	0.00113123	0	0	0	
0.161167	0.115022	0.0604724	0.00217337	0.00117097	0	0	0	
0.161333	-0.13453	-0.0277273	0.00228317	0.00119962	0	0	0	
0.1615	0.113978	0.0584455	0.00234791	0.00114131	0	0	0	
0.161667	-0.111255	-0.0478156	0.00234256	0.00109847	0	0	0	
0.161833	0.113102	0.048463	0.00223744	0.00096552	0	0	0	
0.162	-0.116633	-0.0451061	0.0021898	0.000968551	0	0	0	
0.162167	0.11652	0.0386632	0.00221235	0.000885628	0	0	0	
0.162333	-0.13732	-0.0039875	0.00226532	0.000784594	0	0	0	
0.1625	0.114949	0.0459598	0.00231199	0.000768262	0	0	0	
0.162667	-0.116501	-0.036776	0.00230903	0.000773692	0	0	0	
0.162833	0.115853	0.0463393	0.0022719	0.000834624	0	0	0	
0.163	-0.117525	-0.0496195	0.00223333	0.000842905	0	0	0	
0.163167	0.116854	0.0435746	0.00224204	0.000841731	0	0	0	
0.163333	-0.118083	-0.0491339	0.00224822	0.000885333	0	0	0	
0.1635	0.117346	0.0447265	0.00225445	0.000873967	0	0	0	
0.163667	-0.11771	-0.0451044	0.00225663	0.000904371	0	0	0	
0.163833	0.116713	0.0412412	0.00225804	0.000896403	0	0	0	
0.164	-0.115445	-0.0432756	0.00224028	0.000881963	0	0	0	
0.164167	0.110521	0.0455978	0.0022113	0.000882973	0	0	0	
0.164333	-0.113141	-0.0525036	0.00217734	0.000903987	0	0	0	
0.1645	0.116527	0.0514174	0.00218446	0.0009656	0	0	0	
0.164667	-0.11894	-0.0485339	0.0022179	0.000987826	0	0	0	
0.164833	0.117367	0.0450625	0.00226062	0.000967788	0	0	0	
0.165	-0.118674	-0.0420463	0.00226746	0.000899216	0	0	0	
0.165167	0.116281	0.0425617	0.00226382	0.000837009	0	0	0	
0.165333	-0.115078	-0.0416614	0.00224381	0.000811578	0	0	0	
0.1655	0.113744	0.0436455	0.00223137	0.000812857	0	0	0	
0.165667	-0.116977	-0.040434	0.00222136	0.000811586	0	0	0	
0.165833	0.117488	0.0411695	0.00223827	0.000804269	0	0	0	
0.166	-0.119441	-0.0407738	0.00225463	0.000785578	0	0	0	
0.166167	0.116441	0.044683	0.00226999	0.000788092	0	0	0	
0.166333	-0.115436	-0.0428125	0.00225856	0.000802739	0	0	0	
0.1665	0.114557	0.046546	0.00224028	0.000831032	0	0	0	
0.166667	-0.118347	-0.0490048	0.00223123	0.000864578	0	0	0	
0.166833	0.11748	0.0546847	0.00224429	0.000924283	0	0	0	
0.167	-0.11399	-0.0511583	0.00224542	0.000947302	0	0	0	
0.167167	0.110385	0.0462182	0.00222423	0.000962154	0	0	0	
0.167333	-0.11386	-0.0422778	0.00219655	0.000911313	0	0	0	
0.1675	0.117875	0.0467127	0.00221108	0.000888056	0	0	0	
0.167667	-0.12386	-0.0435209	0.00226267	0.000874547	0	0	0	
0.167833	0.123827	0.0494304	0.00232429	0.000905311	0	0	0	
0.168	-0.119283	-0.0598137	0.00234087	0.000973398	0	0	0	
0.168167	0.113221	0.0693877	0.00230287	0.00108833	0	0	0	
0.168333	-0.112874	-0.0659222	0.00223658	0.00119825	0	0	0	
0.1685	0.113586	0.05224	0.00220026	0.00121972	0	0	0	
0.168667	-0.116933	-0.0435728	0.00220742	0.00111454	0	0	0	
0.168833	0.116877	0.0430596	0.0022435	0.000966037	0	0	0	
0.169	-0.119251	-0.0421382	0.00227549	0.000864626	0	0	0	
0.169167	0.117937	0.048193	0.00229431	0.000855319	0	0	0	
0.169333	-0.117496	-0.0473151	0.0022873	0.000888568	0	0	0	
0.1695	0.114102	0.0426013	0.00226721	0.000908547	0	0	0	
0.169667	-0.11745	-0.0418588	0.0022492	0.000872439	0	0	0	
0.169833	0.116603	0.0436263	0.00225441	0.000838422	0	0	0	
0.17	-0.117781	-0.0465804	0.00225977	0.000830134	0	0	0	
0.170167	0.114774	0.0500626	0.00225868	0.000874791	0	0	0	
0.170333	-0.116904	-0.0489928	0.00224367	0.000915788	0	0	0	
0.1705	0.11515	0.0497656	0.00224483	0.000945173	0	0	0	
0.170667	-0.117841	-0.0523515	0.00225234	0.000958383	0	0	0	
0.170833	0.115183	0.050354	0.00226218	0.000975544	0	0	0	
0.171	-0.115476	-0.0497788	0.00225281	0.000980192	0	0	0	
0.171167	0.114798	0.0524688	0.00224488	0.000991143	0	0	0	
0.171333	-0.118915	-0.0526306	0.00224596	0.00100249	0	0	0	
0.1715	0.117472	0.0523084	0.002268	0.00102106	0	0	0	
0.171667	-0.115135	-0.0519271	0.00226589	0.00101599	0	0	0	
0.171833	0.110003	0.0482895	0.00223268	0.000997714	0	0	0	
0.172	-0.112064	-0.0467927	0.00219237	0.000960265	0	0	0	
0.172167	0.113594	0.047889	0.00218509	0.000938764	0	0	0	
0.172333	-0.115911	-0.0432416	0.00220677	0.000916915	0	0	0	
0.1725	0.115242	0.0445079	0.00223073	0.000901017	0	0	0	
0.172667	-0.116759	-0.0456985	0.0022397	0.000887858	0	0	0	
0.172833	0.114326	0.0494837	0.00223908	0.000882359	0	0	0	
0.173	-0.113475	-0.0539085	0.00222711	0.000931103	0	0	0	
0.173167	0.111678	0.04988	0.00221537	0.000968762	0	0	0	
0.173333	-0.115745	-0.0409651	0.00221252	0.00096291	0	0	0	
0.1735	0.116675	0.0427373	0.00222578	0.000874934	0	0	0	
0.173667	-0.117162	-0.0493458	0.00224053	0.000849022	0	0	0	
0.173833	0.112747	0.0547724	0.00223705	0.000872279	0	0	0	
0.174	-0.112263	-0.0500798	0.00221154	0.000975807	0	0	0	
0.174167	0.109733	0.0440215	0.00218566	0.000967317	0	0	0	
0.174333	-0.113253	-0.046997	0.00217521	0.00095243	0	0	0	
0.1745	0.116548	0.0504908	0.00220238	0.000894308	0	0	0	
0.174667	-0.120499	-0.0465902	0.0022441	0.000916618	0	0	0	
0.174833	0.11653	0.0477422	0.00227694	0.000914414	0	0	0	
0.175	-0.116773	-0.0528639	0.00228037	0.00095873	0	0	0	
0.175167	0.116085	0.0508124	0.0022715	0.000962174	0	0	0	
0.175333	-0.116263	-0.0478744	0.00226706	0.000979841	0	0	0	
0.1755	0.11387	0.0465775	0.00225499	0.000939946	0	0	0	
0.175667	-0.117338	-0.0473847	0.00225021	0.000925667	0	0	0	
0.175833	0.115136	0.0451077	0.00225063	0.000909453	0	0	0	
0.176	-0.113864	-0.0458779	0.00225463	0.000908838	0	0	0	
0.176167	0.112258	0.0445242	0.00224484	0.000897024	0	0	0	
0.176333	-0.11782	-0.0494708	0.00225058	0.000903186	0	0	0	
0.1765	0.116707	0.0463515	0.00226564	0.000922933	0	0	0	
0.176667	-0.118809	-0.0489922	0.00228762	0.000930664	0	0	0	
0.176833	0.118321	0.045135	0.00229859	0.000931203	0	0	0	
0.177	-0.121105	-0.0461367	0.00230872	0.000903066	0	0	0	
0.177167	0.11595	0.0455114	0.00230706	0.000893145	0	0	0	
0.177333	-0.113412	-0.0490207	0.00227654	0.000889268	0	0	0	
0.1775	0.110531	0.0443966	0.00223496	0.000920216	0	0	0	
0.177667	-0.115258	-0.0442976	0.00221321	0.000917282	0	0	0	
0.177833	0.114014	0.0428104	0.00222762	0.000911939	0	0	0	
0.178	-0.115904	-0.043612	0.00225256	0.000874004	0	0	0	
0.178167	0.115617	0.044909	0.00227821	0.000868272	0	0	0	
0.178333	-0.116935	-0.0429609	0.0022856	0.000852407	0	0	0	
0.1785	0.114906	0.0426284	0.00228101	0.000853897	0	0	0	
0.178667	-0.115069	-0.0415578	0.00226222	0.000832692	0	0	0	
0.178833	0.113535	0.0431047	0.00224617	0.00081793	0	0	0	
0.179	-0.116796	-0.0465631	0.0022404	0.000818761	0	0	0	
0.179167	0.115826	0.0490227	0.00224929	0.000857693	0	0	0	
0.179333	-0.114963	-0.0470501	0.0022512	0.000899134	0	0	0	
0.1795	0.11348	0.0488137	0.0022477	0.00092338	0	0	0	
0.179667	-0.116542	-0.0476666	0.00223887	0.000930117	0	0	0	
0.179833	0.11474	0.0462556	0.00224727	0.00093046	0	0	0	
0.18	-0.114573	-0.048719	0.00225313	0.000931483	0	0	0	
0.180167	0.112012	0.0465121	0.0022533	0.000936665	0	0	0	
0.180333	-0.112711	-0.0464936	0.00223848	0.000929538	0	0	0	
0.1805	0.113464	0.0468398	0.00223809	0.000933254	0	0	0	
0.180667	-0.117264	-0.0458234	0.00224311	0.000922674	0	0	0	
0.180833	0.114329	0.0458221	0.00226651	0.000922425	0	0	0	
0.181	-0.11499	-0.0474319	0.00227184	0.000901851	0	0	0	
0.181167	0.112804	0.0486479	0.00225948	0.000907751	0	0	0	
0.181333	-0.11444	-0.0469148	0.00223656	0.000911787	0	0	0	
0.1815	0.11264	0.0455658	0.00222797	0.000927011	0	0	0	
0.181667	-0.115007	-0.041534	0.00223065	0.000899326	0	0	0	
0.181833	0.114079	0.0488204	0.00224256	0.000887215	0	0	0	
0.182	-0.11548	-0.0507933	0.00224988	0.000901798	0	0	0	
0.182167	0.111804	0.049221	0.00224827	0.000942865	0	0	0	
0.182333	-0.111237	-0.0476331	0.002224	0.000960067	0	0	0	
0.1825	0.110307	0.0503236	0.00221485	0.000958355	0	0	0	
0.182667	-0.113434	-0.0452902	0.00222335	0.000944135	0	0	0	
0.182833	0.114488	0.048444	0.00224574	0.000935277	0	0	0	
0.183	-0.115067	-0.044078	0.00225452	0.000928245	0	0	0	
0.183167	0.111734	0.0436597	0.00225061	0.00090119	0	0	0	
0.183333	-0.114976	-0.0497121	0.00224092	0.000898852	0	0	0	
0.1835	0.113411	0.0475962	0.00225017	0.000911238	0	0	0	
0.183667	-0.111234	-0.0426629	0.0022393	0.000923956	0	0	0	
0.183833	0.112227	0.0457256	0.00222634	0.000916461	0	0	0	
0.184	-0.116113	-0.0446163	0.00221763	0.000889075	0	0	0	
0.184167	0.113434	0.0457501	0.00223511	0.000876156	0	0	0	
0.184333	-0.113935	-0.0471432	0.00224459	0.000878695	0	0	0	
0.1845	0.111094	0.0463824	0.00224215	0.000886661	0	0	0	
0.184667	-0.113749	-0.0501242	0.00222858	0.000909731	0	0	0	
0.184833	0.113974	0.052152	0.00224131	0.000946634	0	0	0	
0.185	-0.113549	-0.0449593	0.00224399	0.000949544	0	0	0	
0.185167	0.111472	0.0416907	0.00225381	0.000920473	0	0	0	
0.185333	-0.116397	-0.043962	0.00226035	0.00086906	0	0	0	
0.1855	0.118224	0.0478656	0.0022698	0.000863952	0	0	0	
0.185667	-0.115497	-0.0453446	0.00227483	0.00088401	0	0	0	
0.185833	0.10955	0.0435719	0.00225293	0.000907486	0	0	0	
0.186	-0.110608	-0.0496892	0.00221756	0.000914659	0	0	0	
0.186167	0.112953	0.0503169	0.00219549	0.000943574	0	0	0	
0.186333	-0.111224	-0.0454682	0.00220583	0.000935762	0	0	0	
0.1865	0.110016	0.0455327	0.00221047	0.000924443	0	0	0	
0.186667	-0.115845	-0.0476794	0.00224616	0.000907384	0	0	0	
0.186833	0.112057	0.0465109	0.00225582	0.000917671	0	0	0	
0.187	-0.11699	-0.0454167	0.00227282	0.000908495	0	0	0	
0.187167	0.116753	0.0446028	0.00227691	0.000909684	0	0	0	
0.187333	-0.112188	-0.047386	0.00228651	0.000908637	0	0	0	
0.1875	0.110028	0.0507631	0.00226978	0.000940383	0	0	0	
0.187667	-0.114424	-0.0451535	0.00224708	0.000942258	0	0	0	
0.187833	0.109582	0.0427896	0.00222106	0.000931034	0	0	0	
0.188	-0.109812	-0.0513015	0.00222232	0.000931187	0	0	0	
0.188167	0.114879	0.0541625	0.002257	0.000961321	0	0	0	
0.188333	-0.140933	-0.0336241	0.00236873	0.000924321	0	0	0	
0.1885	0.219228	0.00921496	0.00256065	0.000768692	0	0	0	
0.188667	-0.274094	0.00114849	0.00338013	0.000808871	0	0	0	
0.188833	0.108786	-0.00360075	0.00366057	0.00127259	0	0	0	
0.189	-0.0825691	-0.0499104	0.0033986	0.00162592	0	0	0	
0.189167	0.0521122	0.0420419	0.00237219	0.00158141	0	0	0	
0.189333	-0.0656927	-0.0271759	0.00182104	0.00105753	0	0	0	
0.1895	0.0517787	0.0259248	0.00172006	0.000733346	0	0	0	
0.189667	-0.0965897	-0.0619252	0.00169715	0.000713312	0	0	0	
0.189833	0.0950413	0.0744432	0.00175532	0.000958455	0	0	0	
0.19	-0.0932393	-0.060703	0.00184567	0.0011847	0	0	0	
0.190167	0.0592565	0.0290586	0.00183622	0.00113071	0	0	0	
0.190333	-0.0492169	-0.0187781	0.00153537	0.000835584	0	0	0	
0.1905	0.0509984	0.0201083	0.0011961	0.000545694	0	0	0	
0.190667	-0.0920858	-0.0297713	0.00111398	0.00047175	0	0	0	
0.190833	0.0981949	0.0444359	0.00145639	0.000560569	0	0	0	
0.191	-0.108344	-0.045236	0.00179533	0.00072921	0	0	0	
0.191167	0.0790391	0.0377915	0.00195188	0.000817962	0	0	0	
0.191333	-0.0399011	-0.0233375	0.00161015	0.000763057	0	0	0	
0.1915	0.0310824	0.016067	0.00119178	0.000585534	0	0	0	
0.191667	-0.0668012	-0.0212479	0.000940022	0.000432459	0	0	0	
0.191833	0.100091	0.0381004	0.00125435	0.000481574	0	0	0	
0.192	-0.112705	-0.0481733	0.00177195	0.000661003	0	0	0	
0.192167	0.0979386	0.0495898	0.00210074	0.000859853	0	0	0	
0.192333	-0.0506564	-0.0281265	0.00194126	0.000881458	0	0	0	
0.1925	0.0345533	0.0182539	0.00145633	0.000722134	0	0	0	
0.192667	-0.0394504	-0.0228193	0.00102328	0.000539639	0	0	0	
0.192833	0.087674	0.0436272	0.000970934	0.000490388	0	0	0	
0.193	-0.110717	-0.0416805	0.00143677	0.000649577	0	0	0	
0.193167	0.111607	0.0498754	0.00186857	0.000783475	0	0	0	
0.193333	-0.0813714	-0.0361937	0.00204903	0.000861678	0	0	0	
0.1935	0.0382047	0.0189304	0.00166339	0.000726928	0	0	0	
0.193667	-0.0298361	-0.0166724	0.00119584	0.000577219	0	0	0	
0.193833	0.0597563	0.0349538	0.000919954	0.000477236	0	0	0	
0.194	-0.100267	-0.0468132	0.00120299	0.000567646	0	0	0	
0.194167	0.117222	0.0286574	0.00175254	0.000691487	0	0	0	
0.194333	-0.106779	-0.00903078	0.00214177	0.000633382	0	0	0	
0.1945	0.0538147	0.00550108	0.00203971	0.000432481	0	0	0	
0.194667	-0.0353705	-0.0129759	0.00153564	0.000240628	0	0	0	
0.194833	0.0369514	0.0241071	0.00105046	0.000233841	0	0	0	
0.195	-0.0848357	-0.0515077	0.000933833	0.000403246	0	0	0	
0.195167	0.104945	0.0587172	0.00138323	0.000698741	0	0	0	
0.195333	-0.112652	-0.0511439	0.00184704	0.00090834	0	0	0	
0.1955	0.0855828	0.0376188	0.00207755	0.00100479	0	0	0	
0.195667	-0.0415038	-0.0191729	0.00172583	0.000861548	0	0	0	
0.195833	0.0295532	0.0199529	0.00124081	0.000670168	0	0	0	
0.196	-0.0644179	-0.0395993	0.000953777	0.000555349	0	0	0	
0.196167	0.101019	0.0563997	0.00123043	0.000723661	0	0	0	
0.196333	-0.115781	-0.0409236	0.0017485	0.000993481	0	0	0	
0.1965	0.104097	0.0399477	0.00212285	0.00105745	0	0	0	
0.196667	-0.0557364	-0.0256358	0.00201369	0.000884994	0	0	0	
0.196833	0.0362399	0.0198017	0.00154597	0.000618126	0	0	0	
0.197	-0.0378345	-0.0231706	0.00107581	0.000480641	0	0	0	
0.197167	0.0823143	0.0404539	0.000938992	0.00048137	0	0	0	
0.197333	-0.104539	-0.0391752	0.00135433	0.000580881	0	0	0	
0.1975	0.105835	0.0441477	0.00180379	0.000706416	0	0	0	
0.197667	-0.0821258	-0.0337259	0.00203041	0.000753785	0	0	0	
0.197833	0.0425214	0.0190621	0.0017091	0.000676699	0	0	0	
0.198	-0.0327692	-0.0169294	0.0012482	0.000538336	0	0	0	
0.198167	0.0614896	0.0276344	0.000958697	0.000460466	0	0	0	
0.198333	-0.0986513	-0.0435556	0.00120825	0.000588168	0	0	0	
0.1985	0.109022	0.0454767	0.00169277	0.000818963	0	0	0	
0.198667	-0.105822	-0.0429714	0.00209051	0.000936005	0	0	0	
0.198833	0.0574568	0.027256	0.0020188	0.000882703	0	0	0	
0.199	-0.0367187	-0.0188698	0.00157701	0.000675795	0	0	0	
0.199167	0.0358081	0.015047	0.00109294	0.000495706	0	0	0	
0.199333	-0.079374	-0.0289932	0.000932098	0.000422693	0	0	0	
0.1995	0.0959084	0.0226424	0.00131346	0.000529107	0	0	0	
0.199667	-0.10085	-0.0427569	0.00174666	0.000671261	0	0	0	
0.199833	0.0790496	0.0368257	0.0019703	0.000787376	0	0	0	
0.2	-0.0430883	-0.0209106	0.00167888	0.000710769	0	0	0	
0.200167	0.0313048	0.0158823	0.00123744	0.000572136	0	0	0	
0.200333	-0.0579527	-0.0274824	0.0009449	0.000449588	0	0	0	
0.2005	0.0970636	0.0404975	0.00118228	0.000521029	0	0	0	
0.200667	-0.109017	-0.0522217	0.00166649	0.000719122	0	0	0	
0.200833	0.109748	0.0477485	0.00207866	0.00090247	0	0	0	
0.201	-0.0609833	-0.0311548	0.00204051	0.000924163	0	0	0	
0.201167	0.0363987	0.0240892	0.00160954	0.00077992	0	0	0	
0.201333	-0.0342059	-0.0175651	0.00111368	0.000561615	0	0	0	
0.2015	0.0714652	0.0156429	0.000903655	0.000393293	0	0	0	
0.201667	-0.0950864	-0.00475654	0.00125793	0.000360956	0	0	0	
0.201833	0.0985483	0.0316875	0.00171449	0.000499184	0	0	0	
0.202	-0.078454	-0.0371674	0.00197524	0.000693317	0	0	0	
0.202167	0.041634	0.0239582	0.00170236	0.00074516	0	0	0	
0.202333	-0.0334764	-0.0202349	0.00125402	0.00062613	0	0	0	
0.2025	0.0552786	0.0394052	0.000944858	0.000528932	0	0	0	
0.202667	-0.0975059	-0.0667662	0.00116419	0.000687282	0	0	0	
0.202833	0.101534	0.0640624	0.00163529	0.000934813	0	0	0	
0.203	-0.108728	-0.0490188	0.00203321	0.00108672	0	0	0	
0.203167	0.0605966	0.028186	0.00201497	0.000991878	0	0	0	
0.203333	-0.0380999	-0.022317	0.00159926	0.000764246	0	0	0	
0.2035	0.0337086	0.0192381	0.00112944	0.000547068	0	0	0	
0.203667	-0.0680513	-0.0289596	0.000916635	0.000428652	0	0	0	
0.203833	0.0900411	0.027079	0.00125418	0.000521557	0	0	0	
0.204	-0.0950016	-0.0410239	0.00171291	0.000712027	0	0	0	
0.204167	0.0798415	0.0414385	0.0019822	0.000888288	0	0	0	
0.204333	-0.0444556	-0.0220289	0.00174644	0.000830893	0	0	0	
0.2045	0.035767	0.0118332	0.00130688	0.000613913	0	0	0	
0.204667	-0.0550833	-0.0251651	0.000988836	0.000465067	0	0	0	
0.204833	0.0935941	0.0520121	0.0011499	0.000606196	0	0	0	
0.205	-0.0929137	-0.0567024	0.00154972	0.000855321	0	0	0	
0.205167	0.10365	0.0515901	0.00190512	0.00105654	0	0	0	
0.205333	-0.0637074	-0.0280139	0.00194419	0.000987529	0	0	0	
0.2055	0.0402259	0.0211358	0.00160297	0.000786981	0	0	0	
0.205667	-0.0346419	-0.0149301	0.00118703	0.000538452	0	0	0	
0.205833	0.0664469	0.0263424	0.000960958	0.000387397	0	0	0	
0.206	-0.09187	-0.0414546	0.00127179	0.000515874	0	0	0	
0.206167	0.0936086	0.0572344	0.0017193	0.000826544	0	0	0	
0.206333	-0.0769351	-0.0385436	0.00197281	0.00104722	0	0	0	
0.2065	0.039898	0.0154085	0.00173779	0.000926666	0	0	0	
0.206667	-0.0343016	-0.011323	0.00129474	0.000593452	0	0	0	
0.206833	0.0504902	0.0239894	0.000969491	0.000398335	0	0	0	
0.207	-0.0936159	-0.0516807	0.00110996	0.000524592	0	0	0	
0.207167	0.0939333	0.0473185	0.00152037	0.000817714	0	0	0	
0.207333	-0.100726	-0.0469722	0.00186195	0.000998847	0	0	0	
0.2075	0.0600548	0.0263344	0.00187324	0.000947786	0	0	0	
0.207667	-0.0359227	-0.0164417	0.00149378	0.000684943	0	0	0	
0.207833	0.029916	0.0151345	0.00107628	0.00046182	0	0	0	
0.208	-0.0631123	-0.0339447	0.000893454	0.000364323	0	0	0	
0.208167	0.0933902	0.0447144	0.00125529	0.000549576	0	0	0	
0.208333	-0.101405	-0.057523	0.00178111	0.000824237	0	0	0	
0.2085	0.0876233	0.0408347	0.00207417	0.00102788	0	0	0	
0.208667	-0.0439236	-0.0228918	0.0018434	0.000917013	0	0	0	
0.208833	0.0322012	0.0171477	0.00133975	0.000672625	0	0	0	
0.209	-0.0464866	-0.0200095	0.000965535	0.000456126	0	0	0	
0.209167	0.0922357	0.0300308	0.00106419	0.000491368	0	0	0	
0.209333	-0.0932893	-0.029695	0.00150547	0.000700987	0	0	0	
0.2095	0.103185	0.0334894	0.00186497	0.000923385	0	0	0	
0.209667	-0.0667137	-0.0351571	0.00193517	0.000967839	0	0	0	
0.209833	0.03785	0.0222088	0.0015578	0.000812805	0	0	0	
0.21	-0.0296097	-0.0138357	0.00114319	0.000589	0	0	0	
0.210167	0.0595149	0.0269094	0.000913757	0.00046077	0	0	0	
0.210333	-0.0904808	-0.0242431	0.00124459	0.000513296	0	0	0	
0.2105	0.103274	0.0286738	0.00178271	0.000601241	0	0	0	
0.210667	-0.0947183	-0.0339067	0.00212568	0.00069988	0	0	0	
0.210833	0.0468279	0.021104	0.00194032	0.000676469	0	0	0	
0.211	-0.0337957	-0.0167674	0.00143044	0.000606308	0	0	0	
0.211167	0.0427741	0.0248846	0.00100082	0.000519285	0	0	0	
0.211333	-0.088614	-0.0449463	0.00101938	0.000591418	0	0	0	
0.2115	0.089219	0.0483133	0.00145008	0.000792783	0	0	0	
0.211667	-0.105151	-0.0463169	0.00183279	0.000949924	0	0	0	
0.211833	0.0728056	0.0261171	0.00198247	0.000904738	0	0	0	
0.212	-0.0398512	-0.0138157	0.0016266	0.000689099	0	0	0	
0.212167	0.028374	0.0125479	0.00120261	0.000477659	0	0	0	
0.212333	-0.0615404	-0.0250842	0.000948398	0.000421275	0	0	0	
0.2125	0.0903448	0.02946	0.00128124	0.000606517	0	0	0	
0.212667	-0.10588	-0.0415924	0.0018231	0.000793661	0	0	0	
0.212833	0.0920699	0.0425553	0.00216748	0.000905569	0	0	0	
0.213	-0.0483651	-0.0246879	0.00198227	0.000809931	0	0	0	
0.213167	0.0327921	0.015874	0.00147353	0.000649065	0	0	0	
0.213333	-0.0397527	-0.019418	0.00102335	0.000484934	0	0	0	
0.2135	0.0840391	0.0282158	0.00100728	0.000461163	0	0	0	
0.213667	-0.0927748	-0.0327564	0.00144639	0.000539289	0	0	0	
0.213833	0.101678	0.0442672	0.00184946	0.000676097	0	0	0	
0.214	-0.0756126	-0.0337528	0.00199722	0.000756622	0	0	0	
0.214167	0.0390155	0.0176897	0.00163393	0.000710698	0	0	0	
0.214333	-0.027255	-0.0156088	0.00119012	0.000551567	0	0	0	
0.2145	0.058133	0.0281615	0.000941119	0.00045024	0	0	0	
0.214667	-0.0899695	-0.0449227	0.00126178	0.000559787	0	0	0	
0.214833	0.103626	0.0586068	0.00180734	0.000801742	0	0	0	
0.215	-0.0961785	-0.0442684	0.00216823	0.000970914	0	0	0	
0.215167	0.0482707	0.0229786	0.00201694	0.000921289	0	0	0	
0.215333	-0.0337862	-0.0166012	0.00151574	0.000699473	0	0	0	
0.2155	0.0384703	0.0193936	0.00105562	0.000497602	0	0	0	
0.215667	-0.0823381	-0.0347539	0.000993992	0.00048581	0	0	0	
0.215833	0.0915119	0.0430972	0.0014079	0.000667923	0	0	0	
0.216	-0.100214	-0.0407131	0.00180581	0.000840695	0	0	0	
0.216167	0.0698067	0.0281574	0.00194126	0.000870627	0	0	0	
0.216333	-0.0356746	-0.0142119	0.00157306	0.000693601	0	0	0	
0.2165	0.0262318	0.012223	0.0011333	0.000480789	0	0	0	
0.216667	-0.0591694	-0.0236507	0.000921147	0.000390206	0	0	0	
0.216833	0.0898933	0.0355123	0.00126504	0.000511875	0	0	0	
0.217	-0.106663	-0.0441423	0.00180722	0.000710698	0	0	0	
0.217167	0.097235	0.0395787	0.00215554	0.000851089	0	0	0	
0.217333	-0.0504572	-0.0211492	0.0020009	0.000798644	0	0	0	
0.2175	0.0334001	0.0162377	0.0015076	0.000617931	0	0	0	
0.217667	-0.0364462	-0.0190312	0.00105036	0.00045458	0	0	0	
0.217833	0.079461	0.0413475	0.000977608	0.000481089	0	0	0	
0.218	-0.0943402	-0.0484023	0.00140127	0.000724275	0	0	0	
0.218167	0.100953	0.0447265	0.00183566	0.000942503	0	0	0	
0.218333	-0.0741333	-0.0320323	0.00201402	0.000975123	0	0	0	
0.2185	0.0375219	0.0185857	0.00166532	0.000766974	0	0	0	
0.218667	-0.028313	-0.0128933	0.00120576	0.000529554	0	0	0	
0.218833	0.0611244	0.0250091	0.000968005	0.000435477	0	0	0	
0.219	-0.0913298	-0.0370629	0.00128937	0.000615366	0	0	0	
0.219167	0.104972	0.0294176	0.00180872	0.000879741	0	0	0	
0.219333	-0.0970686	-0.0408148	0.00216462	0.00100797	0	0	0	
0.2195	0.0495434	0.0252027	0.00201394	0.000918264	0	0	0	
0.219667	-0.0314364	-0.0186085	0.00152359	0.0006792	0	0	0	
0.219833	0.0330519	0.0154202	0.0010481	0.000496955	0	0	0	
0.22	-0.0752495	-0.0245292	0.000968052	0.000437157	0	0	0	
0.220167	0.0909009	0.0236736	0.0014021	0.000582221	0	0	0	
0.220333	-0.0959258	-0.0352842	0.00185529	0.000783394	0	0	0	
0.2205	0.0716237	0.0306559	0.0020262	0.000869594	0	0	0	
0.220667	-0.0390383	-0.0206489	0.00168133	0.000747717	0	0	0	
0.220833	0.0290336	0.0136528	0.00121213	0.000548375	0	0	0	
0.221	-0.0559061	-0.027224	0.000947245	0.000457372	0	0	0	
0.221167	0.0844694	0.0401917	0.00121565	0.000642196	0	0	0	
0.221333	-0.0984729	-0.052639	0.00169856	0.00087855	0	0	0	
0.2215	0.0956247	0.0427039	0.00207581	0.000998809	0	0	0	
0.221667	-0.0522038	-0.0210652	0.0019846	0.00085526	0	0	0	
0.221833	0.0350942	0.0112871	0.00154729	0.000608472	0	0	0	
0.222	-0.032234	-0.0184573	0.00106963	0.000455367	0	0	0	
0.222167	0.0668963	0.0439348	0.000899698	0.000537091	0	0	0	
0.222333	-0.0822214	-0.0643643	0.00125036	0.000874152	0	0	0	
0.2225	0.0870699	0.0649586	0.00169429	0.00119776	0	0	0	
0.222667	-0.0692695	-0.0533746	0.00193302	0.00127052	0	0	0	
0.222833	0.038003	0.0219526	0.00166029	0.00104853	0	0	0	
0.223	-0.0310274	-0.0141695	0.00122873	0.000693729	0	0	0	
0.223167	0.06133	0.0393613	0.000981536	0.000557878	0	0	0	
0.223333	-0.0916133	-0.0482003	0.00126985	0.000735022	0	0	0	
0.2235	0.095325	0.049734	0.00172683	0.000999847	0	0	0	
0.223667	-0.0974599	-0.0515691	0.00208286	0.00116633	0	0	0	
0.223833	0.0523861	0.0331202	0.00196564	0.00109513	0	0	0	
0.224	-0.0312274	-0.0195365	0.00152414	0.000887057	0	0	0	
0.224167	0.0279102	0.0147142	0.00104889	0.000652665	0	0	0	
0.224333	-0.0639031	-0.027491	0.000929786	0.000592069	0	0	0	
0.2245	0.0851254	0.049655	0.00133732	0.000770234	0	0	0	
0.224667	-0.093201	-0.0471964	0.00183159	0.000981608	0	0	0	
0.224833	0.0743065	0.0337768	0.00205159	0.000991655	0	0	0	
0.225	-0.0403818	-0.019119	0.0017539	0.000811662	0	0	0	
0.225167	0.0264991	0.0178378	0.00125461	0.000575298	0	0	0	
0.225333	-0.0454731	-0.0253798	0.000926311	0.000448578	0	0	0	
0.2255	0.0825794	0.0287752	0.00113978	0.000465362	0	0	0	
0.225667	-0.0947765	-0.029743	0.00164466	0.000579802	0	0	0	
0.225833	0.0998577	0.0324211	0.0020657	0.000677572	0	0	0	
0.226	-0.054981	-0.0243902	0.00203846	0.000748582	0	0	0	
0.226167	0.0330826	0.0208239	0.00158958	0.000679975	0	0	0	
0.226333	-0.027498	-0.0179603	0.00110079	0.000576854	0	0	0	
0.2265	0.0601228	0.0283885	0.000917817	0.000487472	0	0	0	
0.226667	-0.0810629	-0.0304972	0.00128676	0.000581668	0	0	0	
0.226833	0.0853406	0.0334675	0.00176244	0.000691815	0	0	0	
0.227	-0.0689602	-0.0251846	0.00199936	0.000783462	0	0	0	
0.227167	0.0371083	0.0126619	0.00171707	0.000679999	0	0	0	
0.227333	-0.0274096	-0.0126217	0.00124191	0.000536275	0	0	0	
0.2275	0.0447393	0.0162189	0.000921888	0.000394982	0	0	0	
0.227667	-0.0821431	-0.0186996	0.00111517	0.000399535	0	0	0	
0.227833	0.0852716	0.0320165	0.00158162	0.00046914	0	0	0	
0.228	-0.096453	-0.0317641	0.00196589	0.00061267	0	0	0	
0.228167	0.0526536	0.0203853	0.0019482	0.000660149	0	0	0	
0.228333	-0.032966	-0.0155043	0.00152896	0.000600878	0	0	0	
0.2285	0.0278847	0.0157985	0.00108633	0.000449811	0	0	0	
0.228667	-0.0575777	-0.0342348	0.000914391	0.000422728	0	0	0	
0.228833	0.075078	0.0509461	0.00126183	0.000609364	0	0	0	
0.229	-0.0843921	-0.0382793	0.00173202	0.000836007	0	0	0	
0.229167	0.0687211	0.0199792	0.00199756	0.000892627	0	0	0	
0.229333	-0.0377714	-0.0119904	0.00175741	0.000747941	0	0	0	
0.2295	0.0271203	0.0155738	0.00128861	0.000544535	0	0	0	
0.229667	-0.0401514	-0.0233654	0.000933856	0.000466793	0	0	0	
0.229833	0.0761051	0.0422865	0.0010728	0.000587233	0	0	0	
0.23	-0.081823	-0.0487972	0.00152654	0.000839729	0	0	0	
0.230167	0.0924521	0.0404094	0.00191621	0.0009887	0	0	0	
0.230333	-0.0557433	-0.0209992	0.00194288	0.000892112	0	0	0	
0.2305	0.0335667	0.0112486	0.0015378	0.000601379	0	0	0	
0.230667	-0.0253913	-0.00989151	0.00108799	0.000371786	0	0	0	
0.230833	0.0529603	0.0229667	0.000885398	0.000343758	0	0	0	
0.231	-0.0759576	-0.0314751	0.00122431	0.000547426	0	0	0	
0.231167	0.0807922	0.0403513	0.00173019	0.000810396	0	0	0	
0.231333	-0.0706885	-0.0356666	0.00202961	0.000949575	0	0	0	
0.2315	0.0364803	0.019252	0.00181988	0.000839885	0	0	0	
0.231667	-0.0285731	-0.0167933	0.00134078	0.000617094	0	0	0	
0.231833	0.0405295	0.0257642	0.000974659	0.000467253	0	0	0	
0.232	-0.0790714	-0.0339643	0.00108901	0.00051686	0	0	0	
0.232167	0.0789235	0.0325759	0.00154487	0.000649801	0	0	0	
0.232333	-0.0923997	-0.0324051	0.00191193	0.000763369	0	0	0	
0.2325	0.0541931	0.0263127	0.00192873	0.00075905	0	0	0	
0.232667	-0.0313265	-0.0181709	0.00150272	0.00064713	0	0	0	
0.232833	0.024257	0.0169669	0.00107327	0.000523504	0	0	0	
0.233	-0.0518244	-0.0301726	0.00090595	0.000506134	0	0	0	
0.233167	0.0729475	0.0386216	0.00127691	0.00067955	0	0	0	
0.233333	-0.0862681	-0.044908	0.00180392	0.00087499	0	0	0	
0.2335	0.0768298	0.0355323	0.00211341	0.000958506	0	0	0	
0.233667	-0.0405594	-0.0187277	0.00190843	0.000824171	0	0	0	
0.233833	0.0284882	0.0140431	0.00141064	0.000617797	0	0	0	
0.234	-0.0365728	-0.0201576	0.000993065	0.000463434	0	0	0	
0.234167	0.0733592	0.030183	0.00104193	0.000520041	0	0	0	
0.234333	-0.0758821	-0.0420033	0.00147743	0.000684857	0	0	0	
0.2345	0.0868697	0.0381096	0.00185875	0.000867195	0	0	0	
0.234667	-0.0556714	-0.0260747	0.00192976	0.000868026	0	0	0	
0.234833	0.0329488	0.0130632	0.00154011	0.000719898	0	0	0	
0.235	-0.0246331	-0.00814859	0.00111649	0.000539363	0	0	0	
0.235167	0.0513862	0.0163232	0.00093532	0.000595368	0	0	0	
0.235333	-0.0755524	-0.0183378	0.00129244	0.000858814	0	0	0	
0.2355	0.0856963	0.0268593	0.00180908	0.00105746	0	0	0	
0.235667	-0.0763597	-0.0281659	0.00210275	0.00101232	0	0	0	
0.235833	0.0385937	0.0162814	0.00189697	0.000776056	0	0	0	
0.236	-0.0277539	-0.0065179	0.00140695	0.000517176	0	0	0	
0.236167	0.0346072	0.00147405	0.00100292	0.00033806	0	0	0	
0.236333	-0.0730979	-0.00530409	0.00104401	0.000290936	0	0	0	
0.2365	0.0773341	0.0365716	0.0014933	0.000371207	0	0	0	
0.236667	-0.088467	-0.0373955	0.00188919	0.000576721	0	0	0	
0.236833	0.0565329	0.0314249	0.00196385	0.000697601	0	0	0	
0.237	-0.0306767	-0.0186889	0.00154849	0.000682752	0	0	0	
0.237167	0.0217994	0.0129967	0.00108939	0.000530739	0	0	0	
0.237333	-0.0459314	-0.0232601	0.000891459	0.000532742	0	0	0	
0.2375	0.0704211	0.0310101	0.00125132	0.000808118	0	0	0	
0.237667	-0.088011	-0.0425763	0.00181066	0.00112857	0	0	0	
0.237833	0.080557	0.0386595	0.00216603	0.00123432	0	0	0	
0.238	-0.0449424	-0.0179697	0.00200091	0.00100563	0	0	0	
0.238167	0.0286638	0.00837907	0.00146675	0.000670374	0	0	0	
0.238333	-0.00704179	-0.0208199	0.000890575	0.000548841	0	0	0	
0.2385	-0.039166	0.0363319	0.000861729	0.000735583	0	0	0	
0.238667	0.0921126	-0.0699964	0.00161929	0.00091757	0	0	0	
0.238833	0.0792865	0.069415	0.00232273	0.00144018	0	0	0	
0.239	-0.0840225	-0.0205941	0.00260989	0.00126845	0	0	0	
0.239167	0.0870924	0.0210682	0.00219218	0.00110878	0	0	0	
0.239333	-0.0716324	-0.0331072	0.00186695	0.000618498	0	0	0	
0.2395	0.113946	0.0476379	0.00177007	0.000700945	0	0	0	
0.239667	-0.0897924	-0.0341214	0.00209862	0.000857782	0	0	0	
0.239833	0.0941666	0.0213204	0.00244134	0.000801338	0	0	0	
0.24	-0.087727	-0.0221049	0.00256577	0.000725599	0	0	0	
0.240167	0.0763597	0.0325199	0.00234219	0.00074297	0	0	0	
0.240333	-0.0734011	-0.0385786	0.00213904	0.0008847	0	0	0	
0.2405	0.0751966	0.0342527	0.00205414	0.000980306	0	0	0	
0.240667	-0.0789443	-0.0317426	0.00209513	0.000968482	0	0	0	
0.240833	0.0789913	0.036584	0.00216285	0.000953703	0	0	0	
0.241	-0.0784682	-0.0432917	0.00222307	0.00100248	0	0	0	
0.241167	0.0800988	0.037805	0.0022649	0.00103509	0	0	0	
0.241333	-0.0864526	-0.0239782	0.00231813	0.000974917	0	0	0	
0.2415	0.0897684	0.0254044	0.00235674	0.000941917	0	0	0	
0.241667	-0.0878982	-0.072544	0.00235012	0.00119215	0	0	0	
0.241833	0.0872736	0.0841441	0.00227303	0.00183303	0	0	0	
0.242	-0.0826082	-0.0363732	0.00220098	0.00233398	0	0	0	
0.242167	0.0760118	0.00786209	0.00214359	0.00220448	0	0	0	
0.242333	-0.0759629	-0.0114526	0.00215294	0.00149728	0	0	0	
0.2425	0.0787911	0.0205056	0.00218738	0.00080253	0	0	0	
0.242667	-0.0828484	-0.0154101	0.00224631	0.000567003	0	0	0	
0.242833	0.0855445	-0.0230226	0.00229112	0.000774124	0	0	0	
0.243	-0.0847133	0.0420178	0.00233382	0.00121743	0	0	0	
0.243167	0.0849983	-0.00615648	0.00235763	0.00136774	0	0	0	
0.243333	-0.0830493	-0.0329401	0.00234986	0.00110751	0	0	0	
0.2435	0.0779165	0.0449095	0.00228	0.000798805	0	0	0	
0.243667	-0.0771107	-0.0416975	0.00221314	0.000776688	0	0	0	
0.243833	0.0764616	0.0444368	0.0021792	0.00101842	0	0	0	
0.244	-0.0779307	-0.044838	0.00217901	0.00112619	0	0	0	
0.244167	0.074614	0.0174706	0.0021796	0.00101826	0	0	0	
0.244333	-0.0749209	-0.00111979	0.00216999	0.000646317	0	0	0	
0.2445	0.071299	0.0123122	0.00219208	0.000325777	0	0	0	
0.244667	-0.0776217	-0.0363062	0.00223334	0.000315656	0	0	0	
0.244833	0.0815984	0.0452588	0.00229518	0.00061237	0	0	0	
0.245	-0.0827398	-0.0425035	0.00232097	0.000858604	0	0	0	
0.245167	0.0816936	0.0464242	0.00231278	0.000938814	0	0	0	
0.245333	-0.0810518	-0.0590304	0.00226016	0.000937354	0	0	0	
0.2455	0.0714764	0.0586557	0.0021965	0.0010113	0	0	0	
0.245667	-0.0709862	-0.0452493	0.00214437	0.00105887	0	0	0	
0.245833	0.0736836	0.0450863	0.00215695	0.00110619	0	0	0	
0.246	-0.0770766	-0.0484045	0.0021957	0.00113091	0	0	0	
0.246167	0.0762355	0.0485157	0.00223229	0.00114842	0	0	0	
0.246333	-0.0775083	-0.0435028	0.00222982	0.00111006	0	0	0	
0.2465	0.0769234	0.0260076	0.00222056	0.000930206	0	0	0	
0.246667	-0.0708283	0.0212044	0.00220014	0.000673359	0	0	0	
0.246833	-0.0215293	-0.462818	0.00207318	0.00154714	0	0	0	
0.247	-0.079035	0.0593303	0.00184853	0.00317496	0	0	0	
0.247167	0.0717865	-0.0070563	0.00181722	0.00327617	0	0	0	
0.247333	-0.0803414	-0.0467647	0.00190803	0.00240891	0	0	0	
0.2475	0.0877933	0.0870286	0.00211731	0.00102759	0	0	0	
0.247667	-0.0811458	-0.0506314	0.00219693	0.00130916	0	0	0	
0.247833	0.0695346	-0.0468363	0.00217818	0.00122818	0	0	0	
0.248	-0.14089	-0.227413	0.00210459	0.00252323	0	0	0	
0.248167	0.0885366	0.0451076	0.0021751	0.00292574	0	0	0	
0.248333	-0.0771899	-0.0224861	0.00219482	0.0029483	0	0	0	
0.2485	0.0724352	0.0415727	0.0022423	0.0016484	0	0	0	
0.248667	-0.0641849	-0.0257349	0.00216138	0.00127943	0	0	0	
0.248833	0.0720112	0.0370291	0.00225706	0.00137087	0	0	0	
0.249	-0.0933694	0.00041552	0.00242935	0.00121862	0	0	0	
0.249167	0.101031	-0.00914283	0.00259351	0.000955742	0	0	0	
0.249333	-0.0929873	0.00145922	0.00262107	0.000850602	0	0	0	
0.2495	0.0836487	0.0110785	0.00244862	0.000743141	0	0	0	
0.249667	-0.0693195	-0.00792046	0.00217619	0.000635908	0	0	0	
0.249833	0.0546857	0.0106282	0.0019923	0.000548616	0	0	0	
0.25	-0.0568772	-0.0191422	0.00201173	0.000584215	0	0	0	
0.250167	0.0740061	0.0253886	0.00217776	0.000719457	0	0	0	
0.250333	-0.0831418	-0.0251396	0.00238221	0.000862953	0	0	0	
0.2505	0.0852538	0.0302887	0.00246782	0.000935875	0	0	0	
0.250667	-0.0785096	-0.0272946	0.00242359	0.000954145	0	0	0	
0.250833	0.0706609	0.0340818	0.00229904	0.000925079	0	0	0	
0.251	-0.0656054	-0.0432613	0.00218948	0.000953169	0	0	0	
0.251167	0.06715	0.0561444	0.00213701	0.00107878	0	0	0	
0.251333	-0.0723077	-0.0706806	0.0021869	0.00122488	0	0	0	
0.2515	0.0692049	0.0785241	0.00225492	0.00130481	0	0	0	
0.251667	-0.0657717	-0.0634993	0.00224673	0.00137278	0	0	0	
0.251833	0.0646884	0.039461	0.0022072	0.00131841	0	0	0	
0.252	-0.0717748	-0.0244139	0.00223566	0.0012551	0	0	0	
0.252167	0.0789894	0.0204835	0.00233871	0.0011496	0	0	0	
0.252333	-0.0799026	-0.0242198	0.00239689	0.00116064	0	0	0	
0.2525	0.0732201	0.0609641	0.00235125	0.00127244	0	0	0	
0.252667	-0.0726684	-0.085564	0.002244	0.00153966	0	0	0	
0.252833	0.0654358	0.0655668	0.00216889	0.00182853	0	0	0	
0.253	-0.0637331	-0.0361576	0.00214612	0.00183767	0	0	0	
0.253167	0.0672153	0.026341	0.00218139	0.00154608	0	0	0	
0.253333	-0.06955	-0.0285663	0.00222571	0.00123759	0	0	0	
0.2535	0.0688511	0.0352286	0.00225294	0.0010861	0	0	0	
0.253667	-0.069576	-0.0332188	0.00225811	0.000990984	0	0	0	
0.253833	0.0676332	0.0271746	0.00224934	0.000864044	0	0	0	
0.254	-0.0676896	-0.02506	0.00223587	0.000792556	0	0	0	
0.254167	0.068005	0.0225928	0.00221725	0.000817487	0	0	0	
0.254333	-0.0681144	-0.0202137	0.00220818	0.000893495	0	0	0	
0.2545	0.0672956	0.0213471	0.00221148	0.000927782	0	0	0	
0.254667	-0.0681152	-0.0318021	0.00222207	0.000891739	0	0	0	
0.254833	0.067272	0.0301147	0.00222734	0.000863635	0	0	0	
0.255	-0.0686857	-0.030541	0.0022453	0.00085907	0	0	0	
0.255167	0.0694089	0.0271087	0.00226691	0.000875186	0	0	0	
0.255333	-0.0703589	-0.0254664	0.00228543	0.000860811	0	0	0	
0.2555	0.0692076	0.0246588	0.00228717	0.0008499	0	0	0	
0.255667	-0.068391	-0.030669	0.00226684	0.000855097	0	0	0	
0.255833	0.0674736	0.0285325	0.00223354	0.000902983	0	0	0	
0.256	-0.0668387	-0.0315215	0.00221723	0.000940646	0	0	0	
0.256167	0.0644757	0.0301951	0.00222048	0.000951623	0	0	0	
0.256333	-0.0648302	-0.0305688	0.00223145	0.000908639	0	0	0	
0.2565	0.0651322	0.0301659	0.00224481	0.000875029	0	0	0	
0.256667	-0.0669931	-0.0303013	0.00226758	0.000868687	0	0	0	
0.256833	0.0690877	0.0317037	0.00228803	0.000896821	0	0	0	
0.257	-0.0688759	-0.0309608	0.00228931	0.000929903	0	0	0	
0.257167	0.0661331	0.028389	0.00226514	0.000943249	0	0	0	
0.257333	-0.0636293	-0.0281871	0.00223531	0.000949069	0	0	0	
0.2575	0.061773	0.0301564	0.00222321	0.000943693	0	0	0	
0.257667	-0.065299	-0.0285698	0.00224625	0.000932666	0	0	0	
0.257833	0.0667394	0.0277963	0.00227377	0.000892358	0	0	0	
0.258	-0.0649229	-0.0271748	0.0022633	0.000867861	0	0	0	
0.258167	0.0634147	0.0311037	0.0022288	0.000888577	0	0	0	
0.258333	-0.0644709	-0.0306231	0.00220863	0.000948527	0	0	0	
0.2585	0.0624068	0.0295058	0.00220692	0.000963446	0	0	0	
0.258667	-0.0605348	-0.0233153	0.00220869	0.000925118	0	0	0	
0.258833	0.063438	0.0291566	0.00223017	0.00087441	0	0	0	
0.259	-0.0686549	-0.0336354	0.00228596	0.000891603	0	0	0	
0.259167	0.073048	0.0326404	0.00232861	0.000910652	0	0	0	
0.259333	-0.0696242	-0.0224126	0.0023096	0.000907202	0	0	0	
0.2595	0.062848	0.0277752	0.00222586	0.000885296	0	0	0	
0.259667	-0.0597593	-0.0332242	0.00215838	0.000919123	0	0	0	
0.259833	0.058201	0.0324821	0.00213776	0.000949644	0	0	0	
0.26	-0.0566276	-0.0260804	0.00216365	0.000962361	0	0	0	
0.260167	0.0603739	0.0283537	0.00220514	0.000962924	0	0	0	
0.260333	-0.0630167	-0.0311279	0.00227269	0.0010095	0	0	0	
0.2605	0.0666557	0.0309129	0.00232835	0.00101719	0	0	0	
0.260667	-0.0670405	-0.0243827	0.00235017	0.000973177	0	0	0	
0.260833	0.0616703	0.0226304	0.00230436	0.000898018	0	0	0	
0.261	-0.0580303	-0.0257504	0.00223985	0.000870092	0	0	0	
0.261167	0.0592946	0.0274088	0.00219001	0.000867684	0	0	0	
0.261333	-0.0591706	-0.0272227	0.00218468	0.000881081	0	0	0	
0.2615	0.0587748	0.0251267	0.00219195	0.000882748	0	0	0	
0.261667	-0.0592493	-0.0264965	0.00220071	0.00085238	0	0	0	
0.261833	0.0603209	0.0287346	0.00219951	0.00081801	0	0	0	
0.262	-0.0611611	-0.0293915	0.0022042	0.000825932	0	0	0	
0.262167	0.0606905	0.0281847	0.00220733	0.000899243	0	0	0	
0.262333	-0.0587176	-0.0233721	0.00221649	0.000967672	0	0	0	
0.2625	0.0586472	0.0237558	0.00222592	0.00097165	0	0	0	
0.262667	-0.0587557	-0.0297508	0.00223932	0.000922507	0	0	0	
0.262833	0.0589884	0.0312156	0.0022459	0.000882728	0	0	0	
0.263	-0.0613925	-0.0297955	0.00225074	0.000871882	0	0	0	
0.263167	0.0605205	0.0224652	0.00226163	0.000894044	0	0	0	
0.263333	-0.0557373	-0.0207445	0.00226117	0.000898962	0	0	0	
0.2635	0.0579611	0.0246272	0.00224916	0.000907227	0	0	0	
0.263667	-0.0590571	-0.0281177	0.00224592	0.000902508	0	0	0	
0.263833	0.0606041	0.0272037	0.00225214	0.000902487	0	0	0	
0.264	-0.0608284	-0.0256832	0.00225175	0.000892437	0	0	0	
0.264167	0.0564023	0.0186754	0.00222042	0.000903913	0	0	0	
0.264333	-0.0530357	-0.015027	0.00219684	0.00092637	0	0	0	
0.2645	0.0580176	0.016457	0.00221465	0.000953408	0	0	0	
0.264667	-0.0591236	-0.0203266	0.0022507	0.000941524	0	0	0	
0.264833	0.0554285	0.0238584	0.00225549	0.000917663	0	0	0	
0.265	-0.0562776	-0.0257574	0.00224685	0.000891899	0	0	0	
0.265167	0.0595168	0.0211081	0.00224666	0.000862161	0	0	0	
0.265333	-0.0594952	-0.0171759	0.00226946	0.000802356	0	0	0	
0.2655	0.0625605	0.0157289	0.00230727	0.000739547	0	0	0	
0.265667	-0.0715923	-0.0103192	0.00233469	0.000670708	0	0	0	
0.265833	0.0328389	-0.00477	0.00211206	0.000691967	0	0	0	
0.266	-0.0671999	-0.105186	0.00166857	0.000950923	0	0	0	
0.266167	0.0583243	0.0515568	0.0017996	0.00193151	0	0	0	
0.266333	-0.0346126	-0.0735188	0.00188494	0.00231817	0	0	0	
0.2665	0.0249416	0.028289	0.00223123	0.00215693	0	0	0	
0.266667	-0.0181242	0.0059032	0.0018858	0.0010679	0	0	0	
0.266833	0.0290846	0.00560386	0.00178874	0.000689686	0	0	0	
0.267	-0.0197473	-0.0317115	0.00173321	0.000753902	0	0	0	
0.267167	0.0287718	0.0496988	0.00188542	0.00100758	0	0	0	
0.267333	-0.0614749	-0.0343337	0.00210996	0.00104267	0	0	0	
0.2675	0.0498596	0.0155919	0.0021188	0.000868032	0	0	0	
0.267667	-0.0324257	-0.0101483	0.00173862	0.000662699	0	0	0	
0.267833	0.0156063	0.0141021	0.00121354	0.000507243	0	0	0	
0.268	-0.0248963	-0.0290284	0.000984904	0.000496099	0	0	0	
0.268167	0.0400377	0.0398069	0.00137675	0.000655974	0	0	0	
0.268333	-0.0636967	-0.0285974	0.00199838	0.000818378	0	0	0	
0.2685	0.0569437	0.0180724	0.00232784	0.000882819	0	0	0	
0.268667	-0.0279333	-0.0102567	0.0020379	0.000782144	0	0	0	
0.268833	0.0159529	0.00852505	0.00142679	0.000603318	0	0	0	
0.269	-0.0189657	-0.0113886	0.00095354	0.000484061	0	0	0	
0.269167	0.0411694	0.0237671	0.00100306	0.000577886	0	0	0	
0.269333	-0.0445661	-0.0261851	0.00147737	0.000846527	0	0	0	
0.2695	0.0561782	0.0321746	0.00191834	0.00105373	0	0	0	
0.269667	-0.0358569	-0.0221076	0.00199095	0.00102313	0	0	0	
0.269833	0.0196345	0.0103695	0.001578	0.000763744	0	0	0	
0.27	-0.00896104	-0.00441226	0.00108672	0.000503642	0	0	0	
0.270167	0.0254879	0.00872791	0.000926461	0.000421633	0	0	0	
0.270333	-0.0382433	-0.0218535	0.00132349	0.000582265	0	0	0	
0.2705	0.0550391	0.0370529	0.00189453	0.000841969	0	0	0	
0.270667	-0.047924	-0.0283988	0.00219975	0.000983691	0	0	0	
0.270833	0.0249848	0.0137049	0.00197167	0.000879695	0	0	0	
0.271	-0.0180151	-0.00979557	0.00145066	0.000642891	0	0	0	
0.271167	0.0193551	0.00925351	0.00100359	0.000456031	0	0	0	
0.271333	-0.0381293	-0.0179687	0.0010013	0.000512561	0	0	0	
0.2715	0.0390141	0.0273763	0.00142936	0.000788637	0	0	0	
0.271667	-0.0543402	-0.0208569	0.00187576	0.0010624	0	0	0	
0.271833	0.0377997	0.0214834	0.00198099	0.00107992	0	0	0	
0.272	-0.0192267	-0.0118157	0.00158866	0.000833617	0	0	0	
0.272167	0.00873071	0.00825979	0.00109194	0.000536508	0	0	0	
0.272333	-0.0288121	-0.0153116	0.000927511	0.000446647	0	0	0	
0.2725	0.0394795	0.0256436	0.00131787	0.000549498	0	0	0	
0.272667	-0.0576488	-0.0212485	0.00188039	0.000735426	0	0	0	
0.272833	0.0481166	0.024223	0.00218748	0.000817124	0	0	0	
0.273	-0.0249682	-0.0136749	0.00196953	0.000771068	0	0	0	
0.273167	0.0176926	0.00945202	0.00145913	0.000599581	0	0	0	
0.273333	-0.0166763	-0.0106168	0.00100199	0.000498357	0	0	0	
0.2735	0.0332625	0.0273688	0.000967638	0.000584333	0	0	0	
0.273667	-0.0332911	-0.0295477	0.00137335	0.000859273	0	0	0	
0.273833	0.0491275	0.0290859	0.00183271	0.00105262	0	0	0	
0.274	-0.0381072	-0.0181382	0.00199334	0.0010152	0	0	0	
0.274167	0.0215814	0.00867152	0.00165668	0.000757443	0	0	0	
0.274333	-0.00994679	-0.00567412	0.00116386	0.000525515	0	0	0	
0.2745	0.0312592	0.0144312	0.000954182	0.000472283	0	0	0	
0.274667	-0.0396475	-0.0274125	0.00129983	0.00064915	0	0	0	
0.274833	0.05547	0.0262865	0.00183306	0.000894903	0	0	0	
0.275	-0.0443351	-0.0188388	0.00215041	0.000989604	0	0	0	
0.275167	0.022131	0.00762761	0.00195989	0.000848651	0	0	0	
0.275333	-0.0160281	-0.0039898	0.00147751	0.000593073	0	0	0	
0.2755	0.0128079	0.00675643	0.00102199	0.000423988	0	0	0	
0.275667	-0.0292765	-0.0225661	0.000984216	0.000467661	0	0	0	
0.275833	0.0331335	0.0223494	0.00140693	0.000696551	0	0	0	
0.276	-0.0448478	-0.0332396	0.00186259	0.000884315	0	0	0	
0.276167	0.0310823	0.0302927	0.00196591	0.000921213	0	0	0	
0.276333	-0.0173891	-0.0143799	0.00158377	0.00073796	0	0	0	
0.2765	0.00819856	0.00403071	0.00109977	0.000514622	0	0	0	
0.276667	-0.0285031	-0.0115536	0.000918957	0.000434511	0	0	0	
0.276833	0.0353214	0.0256432	0.00126874	0.000613651	0	0	0	
0.277	-0.0563604	-0.0394399	0.00180046	0.000925891	0	0	0	
0.277167	0.0498285	0.0311192	0.00213419	0.00111309	0	0	0	
0.277333	-0.0243706	-0.011864	0.00194361	0.00101452	0	0	0	
0.2775	0.0139259	0.00562521	0.00144333	0.000734228	0	0	0	
0.277667	-0.0103431	-0.00383909	0.000976527	0.000471135	0	0	0	
0.277833	0.0276847	0.0101057	0.000925371	0.000413819	0	0	0	
0.278	-0.0325047	-0.0254017	0.00133511	0.000600826	0	0	0	
0.278167	0.043176	0.035177	0.00181399	0.000877786	0	0	0	
0.278333	-0.0303653	-0.0301731	0.00197891	0.000995978	0	0	0	
0.2785	0.016696	0.00420138	0.00164069	0.000803265	0	0	0	
0.278667	-0.00650302	0.018162	0.0011568	0.000502315	0	0	0	
0.278833	0.033075	-0.00660808	0.00096205	0.000325108	0	0	0	
0.279	-0.0404021	-0.0355041	0.00130895	0.000387009	0	0	0	
0.279167	0.0517879	0.0330116	0.00180438	0.000714413	0	0	0	
0.279333	-0.0462642	-0.0318789	0.00210519	0.0010333	0	0	0	
0.2795	0.0217309	0.0178827	0.00192882	0.00119039	0	0	0	
0.279667	-0.0109238	-0.0191566	0.00146164	0.000913547	0	0	0	
0.279833	0.00520078	0.031913	0.00099689	0.000640083	0	0	0	
0.28	-0.0184593	-0.0430597	0.000947138	0.000640378	0	0	0	
0.280167	0.0275799	0.0145204	0.0014006	0.000946384	0	0	0	
0.280333	-0.0390281	-0.0107858	0.00193576	0.00119882	0	0	0	
0.2805	0.0246479	0.00144124	0.00209438	0.00117548	0	0	0	
0.280667	-0.0145407	-0.00325744	0.00171428	0.000900681	0	0	0	
0.280833	0.00696248	0.00177522	0.00117387	0.000575588	0	0	0	
0.281	-0.0224965	-0.00614434	0.00090682	0.000406835	0	0	0	
0.281167	0.0287723	0.0120745	0.00117198	0.000499222	0	0	0	
0.281333	-0.0411476	-0.0196606	0.00166581	0.000729058	0	0	0	
0.2815	0.0452741	0.0174586	0.00201783	0.000889025	0	0	0	
0.281667	-0.0238617	-0.0113702	0.00192744	0.00083956	0	0	0	
0.281833	0.0148853	0.00678276	0.00147768	0.000633961	0	0	0	
0.282	-0.00540974	-0.00455981	0.00100365	0.000417693	0	0	0	
0.282167	0.015879	0.00986944	0.000897609	0.000362664	0	0	0	
0.282333	-0.0224394	-0.0111923	0.0012979	0.000509991	0	0	0	
0.2825	0.0330396	0.0153708	0.00182033	0.000738325	0	0	0	
0.282667	-0.020041	-0.0116819	0.00204111	0.000852025	0	0	0	
0.282833	0.0138606	0.00887977	0.00175813	0.000742546	0	0	0	
0.283	-0.0107714	-0.00675613	0.00128365	0.000526664	0	0	0	
0.283167	0.0324035	0.00738315	0.00102232	0.00039085	0	0	0	
0.283333	-0.0417303	-0.0113384	0.00126965	0.000490956	0	0	0	
0.2835	0.0423471	0.0205777	0.00170783	0.000758355	0	0	0	
0.283667	-0.0413846	-0.0336489	0.0019864	0.000900505	0	0	0	
0.283833	0.0190102	0.0214094	0.00182775	0.000807057	0	0	0	
0.284	-0.0100297	-0.00945783	0.00137002	0.000543459	0	0	0	
0.284167	-0.000927017	0.0162479	0.000938409	0.00037113	0	0	0	
0.284333	-0.00648249	-0.0342885	0.000947038	0.000345973	0	0	0	
0.2845	0.0212021	0.0187531	0.00150347	0.000493085	0	0	0	
0.284667	-0.0397933	-0.0122533	0.00212121	0.000507434	0	0	0	
0.284833	0.0269906	-0.0226129	0.00227528	0.000444794	0	0	0	
0.285	-0.0158784	0.0506025	0.00183758	0.000485172	0	0	0	
0.285167	0.00937659	-0.0154351	0.00124082	0.000694633	0	0	0	
0.285333	-0.0149587	-0.0375524	0.000895186	0.000919937	0	0	0	
0.2855	0.0184772	0.0207639	0.00107076	0.000808226	0	0	0	
0.285667	-0.0268049	0.0020437	0.00156926	0.000830401	0	0	0	
0.285833	0.047223	-0.0115606	0.00199817	0.000798374	0	0	0	
0.286	-0.0268303	0.0110639	0.00199807	0.000808787	0	0	0	
0.286167	0.0140464	-0.00930435	0.00152683	0.000686287	0	0	0	
0.286333	0.000417116	0.00476798	0.000991827	0.000487739	0	0	0	
0.2865	0.000862131	0.0269731	0.000823642	0.000496592	0	0	0	
0.286667	-0.00532064	-0.0677543	0.0012434	0.000601883	0	0	0	
0.286833	0.0258601	0.0674779	0.00189355	0.000914647	0	0	0	
0.287	-0.0230218	-0.0333898	0.00225931	0.00106418	0	0	0	
0.287167	0.0175964	0.00359696	0.00202737	0.00085432	0	0	0	
0.287333	-0.011764	-0.0110536	0.00144633	0.000598666	0	0	0	
0.2875	0.0177114	0.0269465	0.000981887	0.000405603	0	0	0	
0.287667	-0.0186635	-0.00756363	0.00103751	0.000428675	0	0	0	
0.287833	0.0189398	-0.00222379	0.00147638	0.000383678	0	0	0	
0.288	-0.037716	0.00823576	0.00190837	0.000435548	0	0	0	
0.288167	0.0228775	-0.00125333	0.00195365	0.000611114	0	0	0	
0.288333	-0.012319	-0.00888353	0.00154285	0.000753281	0	0	0	
0.2885	0.00170469	0.00495934	0.00104788	0.000669526	0	0	0	
0.288667	-0.00649755	0.00114202	0.000904751	0.000522309	0	0	0	
0.288833	0.0147349	0.00158273	0.00129768	0.000592629	0	0	0	
0.289	-0.0288082	-0.013044	0.00187189	0.000814757	0	0	0	
0.289167	0.0220828	0.0139876	0.00216179	0.000946589	0	0	0	
0.289333	-0.013883	-0.00996384	0.00191844	0.000836734	0	0	0	
0.2895	0.00690218	0.00653121	0.00137709	0.000595855	0	0	0	
0.289667	-0.0127823	-0.0049977	0.000962203	0.000405656	0	0	0	
0.289833	0.0223867	-0.00220088	0.00105229	0.000429339	0	0	0	
0.29	-0.0211842	-0.000340333	0.00152967	0.000645905	0	0	0	
0.290167	0.0375237	0.00797368	0.0019638	0.000899	0	0	0	
0.290333	-0.0220133	-0.00961283	0.00199542	0.000984049	0	0	0	
0.2905	0.0110925	0.00898179	0.00155336	0.000831116	0	0	0	
0.290667	0.00147334	-0.00493316	0.00103925	0.000585253	0	0	0	
0.290833	0.00616229	0.00557995	0.000906998	0.000445419	0	0	0	
0.291	-0.014738	-0.00959206	0.00134779	0.000475477	0	0	0	
0.291167	0.0316676	0.00210925	0.00196637	0.00057014	0	0	0	
0.291333	-0.0239575	0.00198024	0.00225447	0.000628004	0	0	0	
0.2915	0.0145118	0.000878629	0.00196703	0.000615312	0	0	0	
0.291667	-0.00670858	-0.00330065	0.00138254	0.000541788	0	0	0	
0.291833	0.00866136	0.00783618	0.000929132	0.000474461	0	0	0	
0.292	-0.0127715	-0.00752183	0.000983262	0.000524405	0	0	0	
0.292167	0.0102937	0.0122207	0.00145519	0.000709999	0	0	0	
0.292333	-0.029087	-0.012024	0.0019248	0.000908259	0	0	0	
0.2925	0.0207783	0.0119488	0.00199597	0.000931526	0	0	0	
0.292667	-0.0109335	-0.0063726	0.00157887	0.000754187	0	0	0	
0.292833	-0.000591837	0.00200063	0.00106486	0.000523028	0	0	0	
0.293	-0.00620619	-0.000588029	0.000930456	0.000451616	0	0	0	
0.293167	0.0128872	0.000858942	0.00134581	0.000585278	0	0	0	
0.293333	-0.0342396	-0.0022664	0.00193967	0.000771275	0	0	0	
0.2935	0.0259481	0.0055505	0.00223317	0.000842728	0	0	0	
0.293667	-0.0143612	-0.00471009	0.00197289	0.000750544	0	0	0	
0.293833	0.00572009	0.00408467	0.00140531	0.000577512	0	0	0	
0.294	-0.00493317	-0.00602459	0.000943915	0.000456536	0	0	0	
0.294167	0.0152398	0.0102381	0.000988085	0.000491004	0	0	0	
0.294333	-0.0113374	-0.0102167	0.00147104	0.000632259	0	0	0	
0.2945	0.0257939	0.0124904	0.00193374	0.000755997	0	0	0	
0.294667	-0.0159842	-0.00380896	0.00198238	0.000752537	0	0	0	
0.294833	0.00873201	0.00228192	0.0015541	0.000626548	0	0	0	
0.295	0.00110689	0.00196173	0.00105603	0.000486303	0	0	0	
0.295167	0.0104882	0.00142229	0.000926016	0.000468051	0	0	0	
0.295333	-0.0110508	-0.000942369	0.00131767	0.000624153	0	0	0	
0.2955	0.0353018	0.00435367	0.0018734	0.000809226	0	0	0	
0.295667	-0.0277463	-0.0047067	0.00214995	0.000868275	0	0	0	
0.295833	0.0152007	0.00712542	0.00188896	0.000756265	0	0	0	
0.296	-0.00392138	-0.00662498	0.00133522	0.000567046	0	0	0	
0.296167	0.000182727	0.00545699	0.000886828	0.000406728	0	0	0	
0.296333	-0.0063124	-0.00153689	0.000929671	0.000384159	0	0	0	
0.2965	0.00689795	0.00475658	0.00140447	0.000526809	0	0	0	
0.296667	-0.0230623	-0.0127488	0.00189224	0.000726188	0	0	0	
0.296833	0.0149913	0.00859385	0.00198963	0.00079531	0	0	0	
0.297	-0.00962396	-0.00237751	0.00160622	0.000659716	0	0	0	
0.297167	-0.000256424	0.000883562	0.00109531	0.000485226	0	0	0	
0.297333	-0.00942014	-0.00853268	0.000898052	0.000489662	0	0	0	
0.2975	0.00688686	0.00637806	0.00122157	0.000709864	0	0	0	
0.297667	-0.0333594	-0.0126729	0.00176929	0.000959179	0	0	0	
0.297833	0.0265951	0.0126112	0.0021054	0.00104251	0	0	0	
0.298	-0.0157829	-0.0124672	0.00191351	0.00087797	0	0	0	
0.298167	0.00503377	0.00735356	0.00137834	0.000596802	0	0	0	
0.298333	0.000975398	-0.00504606	0.000904453	0.000367965	0	0	0	
0.2985	0.00451127	0.000414555	0.000915041	0.000358304	0	0	0	
0.298667	-0.00526196	-0.00406207	0.00139551	0.00053236	0	0	0	
0.298833	0.0203162	0.00588275	0.0019203	0.000764401	0	0	0	
0.299	-0.0137642	-0.0111479	0.00205084	0.000887337	0	0	0	
0.299167	0.0095734	0.0111495	0.0016688	0.000809358	0	0	0	
0.299333	0.000483492	-0.00542351	0.00113238	0.000584943	0	0	0	
0.2995	0.0109869	-0.00500069	0.000906802	0.000355163	0	0	0	
0.299667	-0.00251861	-0.000915451	0.00121152	0.00029786	0	0	0	
0.299833	0.0274369	0.00747082	0.00175946	0.000471556	0	0	0	
0.3	-0.0223295	-0.006637	0.00213066	0.000725827	0	0	0	
0.300167	0.0136038	0.00621756	0.0019968	0.000823619	0	0	0	
0.300333	-0.00467651	-0.00834059	0.00148323	0.000705718	0	0	0	
0.3005	-0.00359076	0.010984	0.000974963	0.000523796	0	0	0	
0.300667	0.0013909	-0.0196121	0.000913261	0.000481627	0	0	0	
0.300833	0.00166325	0.00654354	0.00135358	0.000592976	0	0	0	
0.301	-0.0118626	0.000175387	0.00188886	0.000735852	0	0	0	
0.301167	0.00789832	0.00482798	0.00205512	0.000791636	0	0	0	
0.301333	-0.00783204	-0.00572911	0.00170468	0.000690228	0	0	0	
0.3015	-0.000528584	0.000747573	0.00116218	0.00052294	0	0	0	
0.301667	-0.0109357	-0.00352201	0.000898647	0.000430999	0	0	0	
0.301833	0.00408478	0.00336338	0.00115365	0.000515595	0	0	0	
0.302	-0.0195296	-0.00211944	0.00166899	0.000702417	0	0	0	
0.302167	0.0209554	0.0055309	0.00203925	0.000829851	0	0	0	
0.302333	-0.0129074	-0.00534722	0.00195024	0.000791418	0	0	0	
0.3025	0.00434503	0.00346054	0.00147196	0.000616754	0	0	0	
0.302667	0.00706427	0.00345756	0.000982606	0.000436776	0	0	0	
0.302833	-0.0051839	-0.00883901	0.000923203	0.000418848	0	0	0	
0.303	-0.00045738	0.00129367	0.00137752	0.000620352	0	0	0	
0.303167	0.0107825	0.00746617	0.00192139	0.0008899	0	0	0	
0.303333	-0.00235692	-0.010628	0.00209327	0.000965977	0	0	0	
0.3035	0.00696919	0.00482087	0.00175985	0.000772671	0	0	0	
0.303667	0.00111437	0.00260226	0.00122638	0.000494172	0	0	0	
0.303833	0.00820288	0.00334552	0.000924282	0.000396918	0	0	0	
0.304	0.000184244	-0.00200156	0.00112856	0.000553186	0	0	0	
0.304167	0.0130015	0.00600768	0.00163833	0.000808431	0	0	0	
0.304333	-0.0168379	-0.0107999	0.00202997	0.000970474	0	0	0	
0.3045	0.0101661	0.00629677	0.00196236	0.000936802	0	0	0	
0.304667	-0.00310292	-0.00257996	0.0014882	0.000730561	0	0	0	
0.304833	-0.00750356	-0.00297828	0.000996071	0.000505265	0	0	0	
0.305	0.012403	0.00229109	0.000917098	0.000449385	0	0	0	
0.305167	-0.0068236	0.00413972	0.00135465	0.000624499	0	0	0	
0.305333	-0.00696112	-0.0130262	0.00192218	0.000850442	0	0	0	
0.3055	0.0023216	0.00298202	0.00213461	0.000916414	0	0	0	
0.305667	-0.00461011	-0.00114154	0.00181483	0.000752892	0	0	0	
0.305833	-0.00150023	-0.00141372	0.00125766	0.000521017	0	0	0	
0.306	-0.00779915	0.00228368	0.000925313	0.000404274	0	0	0	
0.306167	-0.00163332	-0.00930038	0.00109661	0.000510419	0	0	0	
0.306333	-0.00505706	-0.00702723	0.0015737	0.000741183	0	0	0	
0.3065	0.0145987	0.00763502	0.00195286	0.00092337	0	0	0	
0.306667	-0.00675573	-0.00653928	0.00192207	0.000899737	0	0	0	
0.306833	0.00397128	0.00369172	0.00149027	0.000692254	0	0	0	
0.307	0.0080676	0.00398452	0.00100181	0.000459412	0	0	0	
0.307167	-0.0144579	-0.00424335	0.000867463	0.000387153	0	0	0	
0.307333	0.0144466	0.00369049	0.00126275	0.000512327	0	0	0	
0.3075	0.00151057	0.0062589	0.00185088	0.000691567	0	0	0	
0.307667	0.00189864	-0.00172928	0.00214517	0.000771704	0	0	0	
0.307833	0.00562062	0.00133436	0.0018893	0.000682492	0	0	0	
0.308	0.000576042	0.00137669	0.00132854	0.000516445	0	0	0	
0.308167	0.00720753	0.00430216	0.000933401	0.000438836	0	0	0	
0.308333	0.0042778	-0.00468949	0.0010461	0.000574579	0	0	0	
0.3085	0.000447193	0.0149902	0.00151078	0.000828487	0	0	0	
0.308667	-0.013261	-0.0119948	0.00192066	0.000984146	0	0	0	
0.308833	0.008959	0.00616495	0.0019241	0.000885934	0	0	0	
0.309	-0.00349711	-0.00367287	0.00149766	0.000614316	0	0	0	
0.309167	-0.0102637	0.000440524	0.00100085	0.000377528	0	0	0	
0.309333	0.0173287	0.00077631	0.0008852	0.000341377	0	0	0	
0.3095	-0.0135372	-0.00496456	0.00131975	0.00050537	0	0	0	
0.309667	-0.00205182	-0.00266802	0.00194279	0.000714039	0	0	0	
0.309833	0.000101471	0.00258528	0.00224201	0.000824093	0	0	0	
0.31	-0.00447916	-0.00262101	0.00197181	0.000756056	0	0	0	
0.310167	-0.00171384	-0.00255242	0.00137848	0.000579768	0	0	0	
0.310333	-0.00114881	0.00224956	0.00093808	0.00046579	0	0	0	
0.3105	-0.0102772	0.00123247	0.0010182	0.00057977	0	0	0	
0.310667	0.0104692	-0.0115866	0.00150809	0.000842011	0	0	0	
0.310833	0.00841779	0.0129898	0.00198159	0.00101228	0	0	0	
0.311	-0.00639968	-0.00297746	0.00204371	0.000922275	0	0	0	
0.311167	0.00417087	-0.00212478	0.00161695	0.000643872	0	0	0	
0.311333	0.0109647	0.00872982	0.00107325	0.000420895	0	0	0	
0.3115	-0.0177148	-0.0114399	0.000906653	0.000440886	0	0	0	
0.311667	0.0181624	0.0128179	0.00131158	0.000733684	0	0	0	
0.311833	-0.00301944	-0.00346166	0.0019111	0.0010505	0	0	0	
0.312	0.00830009	0.00145726	0.00220541	0.00114822	0	0	0	
0.312167	0.000841951	0.00249642	0.0019584	0.000942494	0	0	0	
0.312333	0.00242521	0.00214898	0.00140849	0.000610417	0	0	0	
0.3125	3.72338E-05	-0.00796284	0.000975558	0.000392739	0	0	0	
0.312667	0.0086398	0.0113936	0.0010318	0.000443743	0	0	0	
0.312833	-0.00724109	-0.00745964	0.00149392	0.000680588	0	0	0	
0.313	-0.00739442	-0.00149313	0.00192551	0.000860704	0	0	0	
0.313167	0.00361927	0.00308126	0.00193084	0.000823323	0	0	0	
0.313333	-0.000733372	-0.00226027	0.00149182	0.000614497	0	0	0	
0.3135	-0.011117	-0.00469531	0.000999688	0.000414779	0	0	0	
0.313667	0.0193194	0.00832102	0.000887059	0.000375157	0	0	0	
0.313833	-0.0194131	-0.0109541	0.00130935	0.000570486	0	0	0	
0.314	0.000229068	5.0088E-05	0.00194687	0.000889539	0	0	0	
0.314167	0.000823536	0.00289478	0.00229739	0.00106466	0	0	0	
0.314333	-0.00552953	0.0107206	0.00205573	0.000906476	0	0	0	
0.3145	-0.00135471	-0.0251879	0.00144056	0.000643702	0	0	0	
0.314667	0.00121047	0.0173209	0.000939512	0.000498705	0	0	0	
0.314833	-0.0106681	-0.0140026	0.00095682	0.000593584	0	0	0	
0.315	0.0173573	0.0182458	0.00141405	0.000700152	0	0	0	
0.315167	0.00288115	-0.0124631	0.00189968	0.000755707	0	0	0	
0.315333	-0.0056359	0.00464184	0.0020189	0.000731317	0	0	0	
0.3155	-0.00254311	0.00387451	0.00160329	0.000591256	0	0	0	
0.315667	0.0283973	-0.0131266	0.00107545	0.000403277	0	0	0	
0.315833	0.00530774	0.0254668	0.00114884	0.000283548	0	0	0	
0.316	0.0327545	0.088195	0.00234884	0.000374086	0	0	0	
0.316167	-0.00736761	-0.0250406	0.00359235	0.00106549	0	0	0	
0.316333	-0.0124038	0.0459894	0.00380067	0.00107239	0	0	0	
0.3165	0.0175692	-0.014082	0.00290356	0.0012349	0	0	0	
0.316667	-0.0177633	-0.0165436	0.00198465	0.000852376	0	0	0	
0.316833	0.0126304	0.00755268	0.00166963	0.000938607	0	0	0	
0.317	-0.0209324	0.0104447	0.00171496	0.000699131	0	0	0	
0.317167	0.00757339	-0.0285786	0.00187123	0.000626634	0	0	0	
0.317333	0.0111318	0.0147058	0.00197035	0.000869542	0	0	0	
0.3175	-0.0237707	0.00157132	0.00201191	0.00118428	0	0	0	
0.317667	0.0291298	-0.00489404	0.00204942	0.00123047	0	0	0	
0.317833	-0.0198821	-0.00185324	0.00216876	0.00106272	0	0	0	
0.318	0.0134727	0.00846755	0.00228255	0.000913417	0	0	0	
0.318167	-0.0125204	-0.013025	0.00229524	0.000924929	0	0	0	
0.318333	0.0184894	0.00738751	0.00225253	0.00101559	0	0	0	
0.3185	-0.0153089	-0.0028358	0.0022312	0.00104868	0	0	0	
0.318667	0.0131005	0.00545901	0.00225014	0.000997708	0	0	0	
0.318833	-0.0142219	-0.00710915	0.00225619	0.00094005	0	0	0	
0.319	0.017094	0.00649466	0.00224705	0.000932824	0	0	0	
0.319167	-0.0142693	-0.00569806	0.00225474	0.000956829	0	0	0	
0.319333	0.0137352	0.0055638	0.00228652	0.000967721	0	0	0	
0.3195	-0.0115541	-0.00750738	0.00229231	0.000959252	0	0	0	
0.319667	0.0118881	0.00996195	0.00225988	0.000961863	0	0	0	
0.319833	-0.0138132	-0.0042062	0.00221452	0.000980508	0	0	0	
0.32	0.0170772	-0.0028176	0.00218535	0.00100635	0	0	0	
0.320167	-0.0194619	0.00245985	0.00218529	0.000992687	0	0	0	
0.320333	0.0177658	0.00398882	0.002215	0.000900253	0	0	0	
0.3205	-0.0136268	-0.0115466	0.00224501	0.000788941	0	0	0	
0.320667	0.0159033	0.0105512	0.00223425	0.000758364	0	0	0	
0.320833	-0.0186616	0.00248594	0.00219333	0.0008144	0	0	0	
0.321	0.0189134	-0.000648345	0.00218162	0.000847856	0	0	0	
0.321167	-0.0191067	-0.00179465	0.00221575	0.000825743	0	0	0	
0.321333	0.0184879	0.00247879	0.00225382	0.000825532	0	0	0	
0.3215	-0.0148662	-0.00146793	0.00227196	0.00085801	0	0	0	
0.321667	0.0128988	0.0118167	0.0022765	0.000881025	0	0	0	
0.321833	-0.0124019	-0.00726347	0.00225802	0.000887523	0	0	0	
0.322	0.0163467	0.00334604	0.0022144	0.000931538	0	0	0	
0.322167	-0.0174987	0.00365456	0.00217631	0.000978772	0	0	0	
0.322333	0.0197115	-0.00226088	0.0021789	0.000989164	0	0	0	
0.3225	-0.021255	0.000272619	0.00220653	0.000949774	0	0	0	
0.322667	0.0198803	0.00756808	0.00223517	0.000897632	0	0	0	
0.322833	-0.0179469	-0.00778846	0.00225075	0.000852706	0	0	0	
0.323	0.0192761	0.00772995	0.00225161	0.000823379	0	0	0	
0.323167	-0.0178353	-0.00339766	0.00224502	0.00080021	0	0	0	
0.323333	0.0191981	0.00611021	0.00224772	0.000799821	0	0	0	
0.3235	-0.018932	-0.00791645	0.00224635	0.000838824	0	0	0	
0.323667	0.0204374	0.00670531	0.00223113	0.000915931	0	0	0	
0.323833	-0.0191918	-0.00480621	0.00221102	0.000975374	0	0	0	
0.324	0.0201472	0.00262141	0.00221279	0.000969714	0	0	0	
0.324167	-0.019828	-0.00327038	0.00222501	0.000923241	0	0	0	
0.324333	0.0215448	0.00987813	0.00223584	0.000899635	0	0	0	
0.3245	-0.0190338	-0.00784529	0.00223957	0.000925229	0	0	0	
0.324667	0.018964	0.009847	0.00224303	0.000983013	0	0	0	
0.324833	-0.0185389	-0.00617329	0.00223809	0.00101891	0	0	0	
0.325	0.0230432	0.00973886	0.00223412	0.001037	0	0	0	
0.325167	-0.0221992	-0.00795525	0.00223189	0.00103483	0	0	0	
0.325333	0.0218874	0.00900351	0.00224157	0.00102054	0	0	0	
0.3255	-0.0203534	-0.00458008	0.00225026	0.000971662	0	0	0	
0.325667	0.0212573	0.00823173	0.00225489	0.000917705	0	0	0	
0.325833	-0.022108	-0.00794241	0.00225203	0.000880648	0	0	0	
0.326	0.0248209	0.0146174	0.00225085	0.000894062	0	0	0	
0.326167	-0.0204988	-0.0114003	0.0022451	0.000926731	0	0	0	
0.326333	0.022893	0.0112994	0.00224268	0.000979025	0	0	0	
0.3265	-0.0219136	-0.00686007	0.00223784	0.00101723	0	0	0	
0.326667	0.0228037	0.00832838	0.00224498	0.00104344	0	0	0	
0.326833	-0.0235287	-0.00772019	0.00224711	0.0010371	0	0	0	
0.327	0.0259124	0.00620076	0.00224699	0.00101129	0	0	0	
0.327167	-0.0224802	-0.00666158	0.00224856	0.000978413	0	0	0	
0.327333	0.0243322	0.0085202	0.00226354	0.000957914	0	0	0	
0.3275	-0.0229089	-0.00938346	0.00226613	0.000959009	0	0	0	
0.327667	0.0260819	0.0103819	0.00225849	0.000966399	0	0	0	
0.327833	-0.0261264	-0.0083031	0.00224399	0.000952535	0	0	0	
0.328	0.0280454	0.00909417	0.0022484	0.000921189	0	0	0	
0.328167	-0.0254621	-0.0096935	0.00225479	0.000911183	0	0	0	
0.328333	0.0265746	0.0102663	0.00226367	0.000949045	0	0	0	
0.3285	-0.0252059	-0.0102362	0.00226582	0.000996136	0	0	0	
0.328667	0.0250412	0.0108192	0.00226398	0.000998439	0	0	0	
0.328833	-0.023571	-0.0118716	0.00224443	0.000963779	0	0	0	
0.329	0.0269583	0.0102937	0.00222485	0.000938497	0	0	0	
0.329167	-0.0266784	-0.00703639	0.00221012	0.000946788	0	0	0	
0.329333	0.0287117	0.00931053	0.00221658	0.000964734	0	0	0	
0.3295	-0.0273522	-0.0098805	0.00223536	0.000960414	0	0	0	
0.329667	0.0266381	0.00578941	0.0022615	0.000933004	0	0	0	
0.329833	-0.0251961	-0.00818451	0.00227072	0.000910612	0	0	0	
0.33	0.0296248	0.00776535	0.00227311	0.000906489	0	0	0	
0.330167	-0.0287437	-0.0109385	0.0022727	0.000927039	0	0	0	
0.330333	0.0277189	0.0138049	0.00227812	0.000945982	0	0	0	
0.3305	-0.0252741	-0.0120815	0.0022694	0.000941672	0	0	0	
0.330667	0.0271437	0.00732618	0.00225499	0.000908641	0	0	0	
0.330833	-0.0283252	-0.0103028	0.00224277	0.000885423	0	0	0	
0.331	0.0301181	0.0100843	0.00224145	0.000898691	0	0	0	
0.331167	-0.0296593	-0.0123656	0.00223203	0.000937774	0	0	0	
0.331333	0.0325387	0.0145574	0.00221928	0.000942313	0	0	0	
0.3315	-0.0306223	-0.0115483	0.00222051	0.00090507	0	0	0	
0.331667	0.0300869	0.00770046	0.00225755	0.00089419	0	0	0	
0.331833	-0.0280753	-0.0015222	0.00229224	0.000937712	0	0	0	
0.332	0.0308438	0.00117393	0.00230278	0.000972586	0	0	0	
0.332167	-0.0294293	-0.0121876	0.00228613	0.000932623	0	0	0	
0.332333	0.0304277	0.0152898	0.00228018	0.000866895	0	0	0	
0.3325	-0.0273508	-0.0168686	0.00228121	0.00085388	0	0	0	
0.332667	0.0265117	0.0166273	0.00227765	0.000872752	0	0	0	
0.332833	-0.0263268	-0.0167045	0.00224285	0.000918245	0	0	0	
0.333	0.0332118	0.00450624	0.00220581	0.000998273	0	0	0	
0.333167	-0.0326014	-0.00143994	0.00219014	0.00107365	0	0	0	
0.333333	0.034161	0.00597998	0.00221874	0.00102991	0	0	0	
0.3335	-0.0323685	-0.0155161	0.00224701	0.000912437	0	0	0	
0.333667	0.0336704	0.00959058	0.00227559	0.000819959	0	0	0	
0.333833	-0.0287189	-0.0127519	0.00230179	0.000829751	0	0	0	
0.334	0.0285115	0.0116947	0.00232398	0.000875897	0	0	0	
0.334167	-0.0303633	-0.0108797	0.00229474	0.000941157	0	0	0	
0.334333	0.0360317	0.00893809	0.00224749	0.000981302	0	0	0	
0.3345	-0.0339323	-0.0135905	0.0022292	0.000976957	0	0	0	
0.334667	0.0340578	0.0151759	0.00225779	0.000937433	0	0	0	
0.334833	-0.0331148	-0.01522	0.00227178	0.000919276	0	0	0	
0.335	0.0344162	0.0131491	0.00226484	0.000933865	0	0	0	
0.335167	-0.0327484	-0.0149037	0.0022538	0.000958759	0	0	0	
