0	0.00854718	-0.00143772	8.54718E-07	1.43772E-07	0	0	0	
0.000166667	-0.00256514	0.000617874	0.000238799	2.69114E-05	0	0	0	
0.000333333	-0.00225592	0.00150144	0.00056022	7.3737E-05	0	0	0	
0.0005	0.00167737	-0.00246171	0.00089313	0.000123728	0	0	0	
0.000666667	-0.00955834	0.00339263	0.00110541	0.000138005	0	0	0	
0.000833333	0.0309583	-0.00341005	0.00130248	0.000127343	0	0	0	
0.001	-0.0259441	0.000789338	0.00137929	0.000107017	0	0	0	
0.00116667	0.00375387	0.00124062	0.00124215	9.11622E-05	0	0	0	
0.00133333	0.0138379	-0.00210716	0.00115122	9.62019E-05	0	0	0	
0.0015	-0.015027	0.00274444	0.00128744	0.000130601	0	0	0	
0.00166667	0.0218877	-0.00147803	0.00153691	0.000176198	0	0	0	
0.00183333	-0.017264	-0.000461121	0.00173863	0.000198385	0	0	0	
0.002	0.000324964	-0.000558783	0.00191055	0.000189178	0	0	0	
0.00216667	0.013439	0.0011704	0.00203006	0.000168357	0	0	0	
0.00233333	-0.0118415	-0.000337365	0.00198491	0.000161938	0	0	0	
0.0025	0.00164035	-7.92191E-05	0.00179782	0.00017902	0	0	0	
0.00266667	0.00923747	5.97629E-05	0.00164106	0.000197657	0	0	0	
0.00283333	-0.0147606	0.000306813	0.00165499	0.000192148	0	0	0	
0.003	0.00285775	-0.00103049	0.00184724	0.000173902	0	0	0	
0.00316667	0.0126075	-8.9602E-05	0.00209564	0.000172977	0	0	0	
0.00333333	-0.0141804	0.000952325	0.00219319	0.000183546	0	0	0	
0.0035	0.0103047	0.000983197	0.00211829	0.00018116	0	0	0	
0.00366667	-0.017027	-0.00209751	0.00201491	0.000172714	0	0	0	
0.00383333	0.0107629	-0.00019301	0.00192071	0.000181316	0	0	0	
0.004	0.0103399	0.00140168	0.00175616	0.000201302	0	0	0	
0.00416667	-0.0154215	0.000237732	0.00165543	0.000195304	0	0	0	
0.00433333	0.00307589	-0.0019626	0.00177119	0.000153873	0	0	0	
0.0045	-0.000733149	0.00706327	0.00196523	0.000137073	0	0	0	
0.00466667	0.0108509	-0.00523397	0.00198141	0.000190878	0	0	0	
0.00483333	-0.00867241	-0.00645599	0.00190796	0.00028284	0	0	0	
0.005	-0.00175679	0.0128728	0.00192551	0.000321092	0	0	0	
0.00516667	-0.0023375	-0.0096304	0.0019456	0.000291803	0	0	0	
0.00533333	0.0108854	0.00365599	0.00188433	0.000208801	0	0	0	
0.0055	-0.00165367	0.00372892	0.00185778	0.000131301	0	0	0	
0.00566667	-0.000976151	-0.0120051	0.00193015	0.000106353	0	0	0	
0.00583333	0.00448892	0.00541993	0.00194452	0.000131681	0	0	0	
0.006	-0.00166321	0.00196936	0.0018695	0.000209496	0	0	0	
0.00616667	0.00471313	-0.00526724	0.00182906	0.0002487	0	0	0	
0.00633333	-0.0106138	0.000788668	0.00184891	0.000255306	0	0	0	
0.0065	0.00452783	0.00457002	0.00184208	0.00021353	0	0	0	
0.00666667	-0.00123537	-0.00516551	0.00183304	0.000191779	0	0	0	
0.00683333	0.00594293	0.00155587	0.00189136	0.000215972	0	0	0	
0.007	-0.0101557	0.00167063	0.00195924	0.000233279	0	0	0	
0.00716667	0.00752643	0.00129601	0.00197769	0.000171537	0	0	0	
0.00733333	-0.0142501	-0.00703644	0.00196602	0.000100546	0	0	0	
0.0075	0.0126634	0.00789857	0.00194847	9.57135E-05	0	0	0	
0.00766667	-0.00397167	3.81087E-05	0.00188258	0.00018458	0	0	0	
0.00783333	-0.00485826	-0.00642886	0.00178944	0.000234123	0	0	0	
0.008	-0.000977835	0.00103281	0.00175752	0.000191794	0	0	0	
0.00816667	0.00538751	0.0168754	0.00183111	0.000140695	0	0	0	
0.00833333	-0.012919	-0.02285	0.0019513	0.000203765	0	0	0	
0.0085	0.0133419	0.0147953	0.00201317	0.00035624	0	0	0	
0.00866667	-0.00394225	-0.00611991	0.00193862	0.000503938	0	0	0	
0.00883333	-0.00400381	-0.00698978	0.00178495	0.000542683	0	0	0	
0.009	0.00953923	0.0140292	0.00169571	0.000499096	0	0	0	
0.00916667	-0.00529784	-0.00607553	0.00173292	0.000398712	0	0	0	
0.00933333	0.00161529	-0.00255619	0.00182859	0.000254396	0	0	0	
0.0095	0.00143347	0.00379096	0.0019119	0.000144838	0	0	0	
0.00966667	-0.00837367	-0.00627967	0.00196254	8.70059E-05	0	0	0	
0.00983333	0.0177011	-0.00148741	0.00191683	0.000124355	0	0	0	
0.01	-0.00459533	0.0116444	0.00176464	0.00019357	0	0	0	
0.0101667	-0.00469941	-0.00802431	0.00160908	0.000220844	0	0	0	
0.0103333	0.00697172	-0.00487714	0.00160602	0.000203739	0	0	0	
0.0105	-0.00517283	0.00465738	0.00173496	0.000142811	0	0	0	
0.0106667	0.00722659	0.00186077	0.00188764	0.000144463	0	0	0	
0.0108333	-0.00461298	-0.0087554	0.00197488	0.000185702	0	0	0	
0.011	-0.00475312	0.017132	0.00198634	0.000268254	0	0	0	
0.0111667	-0.00283905	-0.0248113	0.00194878	0.000330162	0	0	0	
0.0113333	0.00372567	0.0148059	0.00196817	0.000371212	0	0	0	
0.0115	0.0164905	0.00158753	0.0021016	0.000369891	0	0	0	
0.0116667	-0.00926563	-0.00237042	0.00216017	0.000274564	0	0	0	
0.0118333	-0.0312427	-0.0029209	0.00199512	0.000202819	0	0	0	
0.012	0.0344903	0.00537315	0.00178474	0.000175413	0	0	0	
0.0121667	-0.0204663	-0.0125621	0.00182254	0.000248886	0	0	0	
0.0123333	-0.00011694	0.021244	0.00201401	0.00031792	0	0	0	
0.0125	-0.00923064	-0.0137111	0.00206766	0.000331411	0	0	0	
0.0126667	0.0258984	-0.0111961	0.00200313	0.000387166	0	0	0	
0.0128333	-0.0247898	0.0198959	0.00197371	0.000348941	0	0	0	
0.013	0.0185119	-0.00724902	0.00193253	0.000394582	0	0	0	
0.0131667	-0.0252539	-0.00841346	0.00179789	0.00039016	0	0	0	
0.0133333	0.0211788	0.00664961	0.001743	0.000351726	0	0	0	
0.0135	0.00471699	0.0019874	0.00193981	0.000229835	0	0	0	
0.0136667	-0.0184866	-0.00171641	0.002145	0.000114209	0	0	0	
0.0138333	0.0209867	0.000120871	0.00200318	0.000141454	0	0	0	
0.014	-0.00335049	-0.00225173	0.00158413	0.000183992	0	0	0	
0.0141667	-0.0166548	0.00207776	0.0013036	0.00020437	0	0	0	
0.0143333	0.018916	0.00199041	0.00142636	0.000206455	0	0	0	
0.0145	-0.0109784	-0.00107442	0.00177337	0.000196392	0	0	0	
0.0146667	-0.00372307	-0.00960232	0.00208758	0.000169307	0	0	0	
0.0148333	0.0120912	0.0160023	0.00224579	0.000168407	0	0	0	
0.015	-0.012627	-0.012731	0.00225539	0.000224567	0	0	0	
0.0151667	0.00202821	0.00815664	0.00212251	0.000286543	0	0	0	
0.0153333	0.0117931	-0.00889425	0.00191719	0.000277113	0	0	0	
0.0155	-0.015503	0.00751707	0.00178309	0.000240647	0	0	0	
0.0156667	0.0123018	-0.00553097	0.00181826	0.000219644	0	0	0	
0.0158333	-0.00319641	0.00514092	0.00198342	0.000198879	0	0	0	
0.016	-0.00234212	-0.00694296	0.00212526	0.000166529	0	0	0	
0.0161667	0.00200811	0.00841828	0.00209504	0.000143394	0	0	0	
0.0163333	0.0103636	-0.00914341	0.00190517	0.000149183	0	0	0	
0.0165	-0.0177427	0.00842409	0.00174115	0.000198257	0	0	0	
0.0166667	0.0134351	-0.00380666	0.00175842	0.000262457	0	0	0	
0.0168333	-0.00358326	0.00364501	0.0018934	0.00028955	0	0	0	
0.017	0.00425987	-0.0104948	0.00196093	0.000265238	0	0	0	
0.0171667	-0.0104271	0.0119392	0.00192283	0.000254406	0	0	0	
0.0173333	0.0119801	-0.0039522	0.00188372	0.00030659	0	0	0	
0.0175	-0.0118855	0.00208401	0.00188678	0.000362426	0	0	0	
0.0176667	0.0167274	-0.00657008	0.00189461	0.000340183	0	0	0	
0.0178333	-0.012979	0.0103579	0.00188794	0.000282409	0	0	0	
0.018	0.00945552	-0.0142429	0.00189062	0.000246105	0	0	0	
0.0181667	-0.0101317	0.0211049	0.00190772	0.000292877	0	0	0	
0.0183333	0.00872652	-0.0181309	0.0019384	0.000402983	0	0	0	
0.0185	-0.00514691	0.00393631	0.00194048	0.000567034	0	0	0	
0.0186667	0.00606074	0.0107614	0.00188272	0.000661549	0	0	0	
0.0188333	-0.00814063	-0.0109993	0.00181416	0.000581911	0	0	0	
0.019	0.00702971	-0.00303261	0.00180657	0.000363438	0	0	0	
0.0191667	-0.0105445	0.0186404	0.00184872	0.000207574	0	0	0	
0.0193333	0.0165588	-0.0218809	0.00186099	0.000230169	0	0	0	
0.0195	-0.02011	0.0166414	0.00186848	0.000373772	0	0	0	
0.0196667	0.00764945	-0.0066182	0.00193881	0.000468984	0	0	0	
0.0198333	-0.00144533	-0.000546809	0.00203207	0.000460514	0	0	0	
0.02	0.0094862	-0.00108992	0.00201673	0.000357644	0	0	0	
0.0201667	-0.0208434	0.00556179	0.00192918	0.000248674	0	0	0	
0.0203333	0.0188878	-0.00625079	0.00190001	0.000204222	0	0	0	
0.0205	-0.00879994	0.00399209	0.00194932	0.000225529	0	0	0	
0.0206667	0.014685	-0.00238291	0.00194489	0.000247894	0	0	0	
0.0208333	-0.0209136	0.00355932	0.00187842	0.000228699	0	0	0	
0.021	0.0172955	-0.00484118	0.0018779	0.000200224	0	0	0	
0.0211667	-0.00693267	0.00433442	0.00194682	0.000201283	0	0	0	
0.0213333	0.0145104	-0.00548664	0.0019397	0.000233957	0	0	0	
0.0215	-0.0244851	0.00403122	0.00182577	0.000252963	0	0	0	
0.0216667	0.0335403	-0.0039272	0.00179275	0.000239164	0	0	0	
0.0218333	-0.0234614	0.00597985	0.0018674	0.000206213	0	0	0	
0.022	0.0232609	-0.00805907	0.00188844	0.000197519	0	0	0	
0.0221667	-0.0322167	0.00790771	0.00178618	0.000217869	0	0	0	
0.0223333	0.0252922	-0.00437924	0.00176088	0.000234103	0	0	0	
0.0225	-0.00937043	0.000760249	0.0018129	0.000230875	0	0	0	
0.0226667	0.0305806	-0.00372494	0.00170309	0.000214124	0	0	0	
0.0228333	-0.0538665	0.00726188	0.00150045	0.000205139	0	0	0	
0.023	0.0393756	-0.00913658	0.00150801	0.000204369	0	0	0	
0.0231667	-0.00805668	0.0100233	0.00185573	0.000214638	0	0	0	
0.0233333	-0.00150656	-0.00886096	0.00210098	0.000237318	0	0	0	
0.0235	0.00172494	0.0040829	0.00203813	0.000263727	0	0	0	
0.0236667	-0.000740263	-0.00245957	0.00179478	0.000272976	0	0	0	
0.0238333	-0.00857922	0.004655	0.00155396	0.000242055	0	0	0	
0.024	0.027134	-0.0060374	0.00138077	0.000189086	0	0	0	
0.0241667	-0.0411858	0.00675608	0.00136514	0.000149601	0	0	0	
0.0243333	0.0377007	-0.00641474	0.00162276	0.000153071	0	0	0	
0.0245	-0.0162771	0.00403307	0.00202843	0.000171545	0	0	0	
0.0246667	0.00932823	-0.00355208	0.00225696	0.000181138	0	0	0	
0.0248333	-0.0154494	0.00294465	0.00217356	0.000173478	0	0	0	
0.025	0.0164331	-0.00348254	0.00197412	0.000169246	0	0	0	
0.0251667	-0.0121668	0.00314222	0.00189236	0.000168264	0	0	0	
0.0253333	0.0104933	-0.00380414	0.00191176	0.000173651	0	0	0	
0.0255	-0.016642	0.00452748	0.00188237	0.000182786	0	0	0	
0.0256667	0.024079	-0.0052145	0.00181364	0.000201422	0	0	0	
0.0258333	-0.0209755	0.00450832	0.00181447	0.000226978	0	0	0	
0.026	0.0231284	-0.00294562	0.0018961	0.000255799	0	0	0	
0.0261667	-0.025049	-0.000550458	0.00196237	0.000275066	0	0	0	
0.0263333	0.022086	0.00416329	0.00200324	0.000274651	0	0	0	
0.0265	-0.0119332	-0.00839175	0.0020215	0.000238789	0	0	0	
0.0266667	0.015884	0.00614787	0.00199568	0.000191516	0	0	0	
0.0268333	-0.0194253	0.0125245	0.00192639	0.000207816	0	0	0	
0.027	0.020159	-0.0300917	0.00189924	0.000270316	0	0	0	
0.0271667	-0.0141251	0.0271804	0.00194359	0.000448822	0	0	0	
0.0273333	0.00883227	-0.00192479	0.00198212	0.000698373	0	0	0	
0.0275	-0.0145379	-0.0224254	0.00192346	0.000899495	0	0	0	
0.0276667	0.0199605	0.0226701	0.00180423	0.000844638	0	0	0	
0.0278333	-0.0135287	-0.00570452	0.00174931	0.000590136	0	0	0	
0.028	0.00975066	-0.0251609	0.0018354	0.000508938	0	0	0	
0.0281667	-0.0247391	0.0589011	0.00196042	0.000672439	0	0	0	
0.0283333	0.0160125	-0.0728038	0.00196407	0.000960269	0	0	0	
0.0285	-0.00753524	0.0368392	0.00190679	0.00120994	0	0	0	
0.0286667	0.0192445	0.0119635	0.0018962	0.00144932	0	0	0	
0.0288333	-0.0250223	-0.0427456	0.00193992	0.00143832	0	0	0	
0.029	0.0226384	0.0381929	0.00200064	0.00116751	0	0	0	
0.0291667	-0.0308595	-0.00873448	0.00211773	0.000897017	0	0	0	
0.0293333	0.0190887	-0.0342879	0.00220842	0.000928236	0	0	0	
0.0295	-0.00209886	0.0589625	0.00214121	0.00103406	0	0	0	
0.0296667	0.0307033	-0.0498042	0.00197111	0.00105722	0	0	0	
0.0298333	-0.0408658	0.0216139	0.00187013	0.000983152	0	0	0	
0.03	0.0358341	0.000312183	0.00185717	0.000930539	0	0	0	
0.0301667	-0.0390777	-0.0105631	0.00187444	0.000783578	0	0	0	
0.0303333	0.0395793	0.00955903	0.00194314	0.000534502	0	0	0	
0.0305	-0.0279831	-0.00132539	0.00203073	0.000306861	0	0	0	
0.0306667	0.0213676	-0.00941083	0.00201222	0.000188463	0	0	0	
0.0308333	-0.0257691	0.00724488	0.00187496	0.000158421	0	0	0	
0.031	0.0289347	0.0030681	0.00173223	0.000196852	0	0	0	
0.0311667	-0.0342059	-0.00871777	0.00169355	0.000196979	0	0	0	
0.0313333	0.0337155	-0.00104297	0.00173276	0.000173241	0	0	0	
0.0315	-0.0311222	0.0171029	0.0017936	0.000139346	0	0	0	
0.0316667	0.0245938	-0.0135	0.00184484	0.000210407	0	0	0	
0.0318333	-0.0085871	-0.0180957	0.00191346	0.000452739	0	0	0	
0.032	-0.00491807	0.0414985	0.00198791	0.0007071	0	0	0	
0.0321667	0.00531118	-0.0398938	0.00193801	0.000813133	0	0	0	
0.0323333	0.0197924	0.0213911	0.00169648	0.000763302	0	0	0	
0.0325	-0.0395696	0.00639459	0.00143964	0.000700204	0	0	0	
0.0326667	0.0451758	-0.0315476	0.00142971	0.000680591	0	0	0	
0.0328333	-0.0319387	0.0384441	0.00166907	0.000667002	0	0	0	
0.033	0.0249423	-0.0203469	0.00190859	0.000686351	0	0	0	
0.0331667	-0.0156711	-0.0104956	0.00200563	0.000888709	0	0	0	
0.0333333	0.00455527	0.0349239	0.00202772	0.00102264	0	0	0	
0.0335	-0.00511739	-0.0288391	0.00194904	0.000966875	0	0	0	
0.0336667	0.0219411	0.0101997	0.00174313	0.000664102	0	0	0	
0.0338333	-0.0323009	0.000699682	0.0015503	0.000373301	0	0	0	
0.034	0.0287396	-0.00195328	0.00154449	0.000182674	0	0	0	
0.0341667	-0.0191427	0.00810847	0.00166925	9.70723E-05	0	0	0	
0.0343333	0.0167918	-0.0109118	0.00173862	0.000107984	0	0	0	
0.0345	-0.0206838	0.0136663	0.00172813	0.00017539	0	0	0	
0.0346667	0.028214	-0.00929256	0.00172432	0.000275676	0	0	0	
0.0348333	-0.028535	0.00644969	0.00177019	0.000357206	0	0	0	
0.035	0.0259948	-0.00473879	0.0018567	0.00037686	0	0	0	
0.0351667	-0.0268956	0.00327019	0.00191527	0.000313328	0	0	0	
0.0353333	0.0306013	0.000991836	0.00190631	0.00022229	0	0	0	
0.0355	-0.0309532	0.00272609	0.0018646	0.000157417	0	0	0	
0.0356667	0.0302662	-0.0110944	0.00187473	0.000148474	0	0	0	
0.0358333	-0.0275325	0.0135867	0.00192056	0.000199517	0	0	0	
0.036	0.0288176	-0.00641533	0.00193721	0.000287519	0	0	0	
0.0361667	-0.0264463	-2.90086E-06	0.00190013	0.000346232	0	0	0	
0.0363333	0.0330857	-0.00299563	0.00186434	0.000322475	0	0	0	
0.0365	-0.032634	0.00797569	0.00182355	0.000271073	0	0	0	
0.0366667	0.0371644	-0.0077056	0.00182623	0.000242567	0	0	0	
0.0368333	-0.0366092	0.00432538	0.00188706	0.000260614	0	0	0	
0.037	0.0318816	-0.00119135	0.00199539	0.000252435	0	0	0	
0.0371667	-0.0258028	0.00462325	0.00201508	0.000189368	0	0	0	
0.0373333	0.0160963	-0.0134969	0.00182831	0.000145997	0	0	0	
0.0375	-0.000921489	0.0115616	0.00149315	0.000212359	0	0	0	
0.0376667	0.0183923	0.0010336	0.00127115	0.000311487	0	0	0	
0.0378333	-0.0459331	-0.00165041	0.00135958	0.000266976	0	0	0	
0.038	0.0307947	-0.0128624	0.00161873	0.000215563	0	0	0	
0.0381667	0.0152324	0.010978	0.00184602	0.000168846	0	0	0	
0.0383333	-0.00870898	-0.0142496	0.00179127	0.000235818	0	0	0	
0.0385	-0.000541503	0.035309	0.00150855	0.000313009	0	0	0	
0.0386667	0.0331415	-0.0351117	0.00131727	0.000452079	0	0	0	
0.0388333	-0.0491882	0.00610755	0.00149987	0.000587802	0	0	0	
0.039	0.0224983	0.00496962	0.00186887	0.000623171	0	0	0	
0.0391667	-0.0128727	0.000718047	0.00207023	0.000465683	0	0	0	
0.0393333	0.0195901	-0.00659335	0.00207505	0.000295655	0	0	0	
0.0395	-0.0174231	0.00633931	0.00203138	0.000154185	0	0	0	
0.0396667	0.038051	-0.0126503	0.00188348	0.000165666	0	0	0	
0.0398333	-0.0542207	0.0175467	0.00167507	0.000219432	0	0	0	
0.04	0.0538152	-0.0183883	0.00167719	0.000285619	0	0	0	
0.0401667	-0.0342191	0.0149544	0.00187776	0.000347236	0	0	0	
0.0403333	0.0322372	-0.0176241	0.00198129	0.000372286	0	0	0	
0.0405	-0.0393449	0.0197819	0.0018523	0.000384549	0	0	0	
0.0406667	0.0509468	-0.0144966	0.00170227	0.000378651	0	0	0	
0.0408333	-0.0642298	0.0086787	0.00169914	0.000377999	0	0	0	
0.041	0.0667522	-0.00763421	0.00186766	0.000339971	0	0	0	
0.0411667	-0.0407731	0.00951183	0.00209952	0.000290526	0	0	0	
0.0413333	0.0209678	-0.0104984	0.00220323	0.000260321	0	0	0	
0.0415	-0.0295179	0.00776577	0.00201486	0.000250255	0	0	0	
0.0416667	0.0554081	-0.00512216	0.00174846	0.000241065	0	0	0	
0.0418333	-0.0531708	0.00478134	0.00161859	0.000214882	0	0	0	
0.042	0.0527664	-0.00571405	0.00171045	0.000186928	0	0	0	
0.0421667	-0.053133	0.00857863	0.00180896	0.000168883	0	0	0	
0.0423333	0.0514195	-0.0148632	0.001875	0.000178483	0	0	0	
0.0425	-0.0359003	0.0123302	0.00187015	0.000217378	0	0	0	
0.0426667	0.0472936	-0.00369374	0.00187799	0.000285861	0	0	0	
0.0428333	-0.0472342	-0.00462754	0.00186968	0.000339889	0	0	0	
0.043	0.0457678	0.00627052	0.00189511	0.000325124	0	0	0	
0.0431667	-0.0439192	-0.0035275	0.00192234	0.000229526	0	0	0	
0.0433333	0.0423016	-0.00673778	0.00194433	0.000163983	0	0	0	
0.0435	-0.0355327	0.0261303	0.00190628	0.000205968	0	0	0	
0.0436667	0.0473941	-0.0244184	0.00180715	0.00032427	0	0	0	
0.0438333	-0.060739	0.0162423	0.00175824	0.000412208	0	0	0	
0.044	0.0568799	-0.00528113	0.00184354	0.000470776	0	0	0	
0.0441667	-0.0469817	-0.00162937	0.00201677	0.000469935	0	0	0	
0.0443333	0.0412787	0.00166527	0.00209916	0.00039446	0	0	0	
0.0445	-0.0442262	0.00365584	0.00203368	0.000238258	0	0	0	
0.0446667	0.048853	-0.00211548	0.0019003	0.000143075	0	0	0	
0.0448333	-0.0465832	0.00747562	0.00183487	9.60878E-05	0	0	0	
0.045	0.0452751	-0.0109202	0.00187419	0.000140317	0	0	0	
0.0451667	-0.0452184	0.00886725	0.00191972	0.000176747	0	0	0	
0.0453333	0.0468279	-0.00594583	0.00192584	0.00022785	0	0	0	
0.0455	-0.0428835	0.00715387	0.00189508	0.000224898	0	0	0	
0.0456667	0.0440414	-0.00957172	0.00186988	0.000206201	0	0	0	
0.0458333	-0.0480937	0.00949287	0.00185135	0.000210272	0	0	0	
0.046	0.050993	-0.00497613	0.00187324	0.000235529	0	0	0	
0.0461667	-0.0476001	0.00180589	0.00188997	0.000232146	0	0	0	
0.0463333	0.0543605	-0.00350582	0.00189918	0.000174325	0	0	0	
0.0465	-0.0524438	0.00702627	0.00190151	0.000115058	0	0	0	
0.0466667	0.0455033	-0.00655725	0.00196235	0.000107444	0	0	0	
0.0468333	-0.0416844	0.00330296	0.00200001	0.000155955	0	0	0	
0.047	0.046346	-0.00358206	0.00194831	0.000183604	0	0	0	
0.0471667	-0.0504098	0.00596096	0.0018603	0.000192184	0	0	0	
0.0473333	0.0510548	-0.00341858	0.00182459	0.00019455	0	0	0	
0.0475	-0.051184	0.00093483	0.00184866	0.000197331	0	0	0	
0.0476667	0.050715	-0.00498346	0.00187967	0.000182023	0	0	0	
0.0478333	-0.0482755	0.00966216	0.00190769	0.000182683	0	0	0	
0.048	0.0455401	-0.00730903	0.00189678	0.000228348	0	0	0	
0.0481667	-0.0525915	-0.00110544	0.00185532	0.000285788	0	0	0	
0.0483333	0.0526389	0.00265863	0.00182169	0.000257383	0	0	0	
0.0485	-0.0462466	0.0261187	0.00183407	0.000268172	0	0	0	
0.0486667	0.0479057	-0.0374362	0.00186588	0.00040541	0	0	0	
0.0488333	-0.0469987	0.043954	0.00188005	0.000600709	0	0	0	
0.049	0.0446886	-0.0438345	0.00189702	0.000760177	0	0	0	
0.0491667	-0.0448075	0.0326891	0.00187044	0.000786939	0	0	0	
0.0493333	0.0515574	-0.0161902	0.00180898	0.000761135	0	0	0	
0.0495	-0.0538036	0.0160678	0.0017509	0.000669382	0	0	0	
0.0496667	0.0593683	-0.00706888	0.0017209	0.000501735	0	0	0	
0.0498333	-0.0840925	0.0155112	0.00173528	0.000407506	0	0	0	
0.05	0.137425	-0.0262087	0.00193728	0.000375606	0	0	0	
0.0501667	-0.123279	0.0235041	0.00241653	0.000434529	0	0	0	
0.0503333	0.0630435	-0.00789356	0.00234382	0.000417601	0	0	0	
0.0505	-0.0614939	0.00281063	0.00214916	0.000314776	0	0	0	
0.0506667	0.034993	-0.0152149	0.0018039	0.000254644	0	0	0	
0.0508333	-0.0226643	0.0232946	0.0018994	0.000285181	0	0	0	
0.051	0.0561243	-0.0203762	0.0017549	0.000363979	0	0	0	
0.0511667	-0.0789183	0.016041	0.0015834	0.000396412	0	0	0	
0.0513333	0.011918	-0.0110758	0.00118199	0.000423035	0	0	0	
0.0515	-0.0357208	0.00291993	0.00109248	0.000456872	0	0	0	
0.0516667	0.0477081	0.000181145	0.00107994	0.000444125	0	0	0	
0.0518333	-0.0534827	0.00222683	0.00150496	0.000343996	0	0	0	
0.052	0.0437009	-0.0059017	0.00187804	0.000240378	0	0	0	
0.0521667	-0.0440296	0.00487077	0.00203789	0.000196365	0	0	0	
0.0523333	0.0573171	-0.0109986	0.00200996	0.00022859	0	0	0	
0.0525	-0.0612597	0.0180613	0.00193426	0.000282232	0	0	0	
0.0526667	0.0503636	-0.0142537	0.00197731	0.000312339	0	0	0	
0.0528333	-0.0443375	0.0122203	0.00209866	0.00030678	0	0	0	
0.053	0.0456473	-0.0133323	0.00213223	0.00027631	0	0	0	
0.0531667	-0.0431305	0.0119488	0.00204209	0.000275968	0	0	0	
0.0533333	0.0366827	-0.00743656	0.00191508	0.000287443	0	0	0	
0.0535	-0.0376352	0.00701456	0.0018557	0.000256953	0	0	0	
0.0536667	0.0422263	-0.0141003	0.00187839	0.000228221	0	0	0	
0.0538333	-0.0536132	0.0175191	0.00188163	0.000229006	0	0	0	
0.054	0.0632477	-0.0110736	0.00184919	0.000276947	0	0	0	
0.0541667	-0.0570219	0.00855247	0.00185331	0.000276564	0	0	0	
0.0543333	0.0370116	-0.0132885	0.0019411	0.000248487	0	0	0	
0.0545	-0.027629	0.0165732	0.00195432	0.000241391	0	0	0	
0.0546667	0.0357868	-0.0130558	0.00187795	0.000270634	0	0	0	
0.0548333	-0.0337907	0.00626049	0.00178863	0.000300309	0	0	0	
0.055	0.0436674	0.000922739	0.00178647	0.000286592	0	0	0	
0.0551667	-0.0619941	-0.00605456	0.00181066	0.000214966	0	0	0	
0.0553333	0.0709772	0.00427176	0.0018867	0.000152637	0	0	0	
0.0555	-0.0589344	0.00411235	0.001972	0.000161305	0	0	0	
0.0556667	0.0648708	-0.00925305	0.0020782	0.000244198	0	0	0	
0.0558333	-0.0705305	0.0131169	0.00210864	0.000309658	0	0	0	
0.056	0.0683068	-0.0147298	0.00219066	0.000309897	0	0	0	
0.0561667	-0.0531467	0.00856788	0.00228242	0.00026563	0	0	0	
0.0563333	0.0527744	0.00126701	0.00233639	0.000215946	0	0	0	
0.0565	-0.0557645	-0.00337837	0.00225246	0.000139786	0	0	0	
0.0566667	0.0567439	-0.00175089	0.00210771	0.000118906	0	0	0	
0.0568333	-0.0575002	0.00563293	0.00192423	9.192E-05	0	0	0	
0.057	0.0709489	0.000135463	0.00178356	0.000131573	0	0	0	
0.0571667	-0.077746	-0.00907299	0.0017212	0.000151905	0	0	0	
0.0573333	0.0793944	0.00760506	0.00184785	0.000162171	0	0	0	
0.0575	-0.0750918	0.00479725	0.00200853	0.000214131	0	0	0	
0.0576667	0.0713173	-0.0154448	0.00209362	0.000266161	0	0	0	
0.0578333	-0.059886	0.0144393	0.00206139	0.000341169	0	0	0	
0.058	0.0595295	-0.0106952	0.00201227	0.000329636	0	0	0	
0.0581667	-0.0582264	0.00352859	0.00191226	0.000263389	0	0	0	
0.0583333	0.0574431	0.000595766	0.00177225	0.000177291	0	0	0	
0.0585	-0.05987	0.00508364	0.00167637	0.000166531	0	0	0	
0.0586667	0.0537567	-0.0271831	0.00164151	0.000268958	0	0	0	
0.0588333	-0.0543311	0.0345255	0.00165173	0.000426661	0	0	0	
0.059	0.0618917	-0.0211164	0.00171036	0.000573089	0	0	0	
0.0591667	-0.0671373	-0.00788933	0.00185375	0.000683306	0	0	0	
0.0593333	0.0517144	0.0216581	0.00195959	0.000666882	0	0	0	
0.0595	-0.0588099	-0.0161692	0.00196259	0.000546803	0	0	0	
0.0596667	0.0587076	-0.000300412	0.00187457	0.00038389	0	0	0	
0.0598333	-0.0562778	0.0231171	0.00183937	0.000401334	0	0	0	
0.06	0.0609301	-0.0425195	0.00185277	0.000503919	0	0	0	
0.0601667	-0.0604003	0.0376153	0.00183115	0.000650768	0	0	0	
0.0603333	0.0692197	-0.0151587	0.00183084	0.000675259	0	0	0	
0.0605	-0.0725533	0.00691232	0.00189194	0.000603297	0	0	0	
0.0606667	0.0674666	-0.00899582	0.00203773	0.000412945	0	0	0	
0.0608333	-0.0643289	0.00942846	0.00206815	0.000271286	0	0	0	
0.061	0.0684241	-0.000970646	0.00200732	0.000191027	0	0	0	
0.0611667	-0.0676754	-0.00445831	0.0019756	0.000206727	0	0	0	
0.0613333	0.056415	-0.00278855	0.00201769	0.000165876	0	0	0	
0.0615	-0.0570707	0.0137374	0.00205721	0.000159969	0	0	0	
0.0616667	0.0587571	-0.0137708	0.00202663	0.000180046	0	0	0	
0.0618333	-0.0570626	0.0060428	0.00196436	0.000244512	0	0	0	
0.062	0.0593695	0.00126212	0.00188055	0.000265256	0	0	0	
0.0621667	-0.0650306	0.000913578	0.0017966	0.000242539	0	0	0	
0.0623333	0.0723581	-0.00348915	0.00178769	0.000249743	0	0	0	
0.0625	-0.0749674	0.00373736	0.0018573	0.000256139	0	0	0	
0.0626667	0.0660296	-0.00910837	0.00197635	0.000232849	0	0	0	
0.0628333	-0.0579602	0.0154801	0.0020357	0.00021054	0	0	0	
0.063	0.0621923	-0.0177842	0.00199505	0.000242572	0	0	0	
0.0631667	-0.0692803	0.0121904	0.00190853	0.000315578	0	0	0	
0.0633333	0.0700656	-0.00573709	0.00191017	0.000342114	0	0	0	
0.0635	-0.0602489	0.00671325	0.00198755	0.000301506	0	0	0	
0.0636667	0.0664287	-0.0106958	0.00201432	0.000250459	0	0	0	
0.0638333	-0.0881685	0.00789807	0.00197043	0.000236238	0	0	0	
0.064	0.0943711	-0.00258007	0.00202108	0.000230009	0	0	0	
0.0641667	-0.0852915	0.00578294	0.00219784	0.000188792	0	0	0	
0.0643333	0.0892213	-0.0141908	0.00233751	0.000173537	0	0	0	
0.0645	-0.0922122	0.0190466	0.00237331	0.000206392	0	0	0	
0.0646667	0.0677441	-0.0189383	0.00238516	0.000299988	0	0	0	
0.0648333	-0.053963	0.0158039	0.00231265	0.000342804	0	0	0	
0.065	0.0764072	-0.0128566	0.00208383	0.000343876	0	0	0	
0.0651667	-0.0946427	0.00752237	0.00188899	0.000294881	0	0	0	
0.0653333	0.0884785	-0.00482569	0.00190652	0.000227438	0	0	0	
0.0655	-0.0833127	0.00920088	0.0020335	0.000177298	0	0	0	
0.0656667	0.0797017	-0.0131067	0.00207644	0.000178327	0	0	0	
0.0658333	-0.0654612	0.0101877	0.00204491	0.000198133	0	0	0	
0.066	0.065848	-0.0060425	0.00203574	0.000203897	0	0	0	
0.0661667	-0.0724148	0.00716671	0.00203864	0.00014967	0	0	0	
0.0663333	0.0709427	-0.00944148	0.00208806	0.000139815	0	0	0	
0.0665	-0.0650578	0.0112736	0.00212678	0.000158637	0	0	0	
0.0666667	0.0683319	-0.0152042	0.00211759	0.000210091	0	0	0	
0.0668333	-0.0614973	0.0172591	0.00200826	0.000260073	0	0	0	
0.067	0.0647638	-0.0108396	0.0019018	0.000338063	0	0	0	
0.0671667	-0.0833355	0.00463135	0.00184852	0.00036508	0	0	0	
0.0673333	0.0868062	-0.015076	0.00189864	0.000352495	0	0	0	
0.0675	-0.0756376	0.0182943	0.00198138	0.00031937	0	0	0	
0.0676667	0.076641	-0.0173932	0.00201387	0.000323244	0	0	0	
0.0678333	-0.0818981	0.0239896	0.00193679	0.000356086	0	0	0	
0.068	0.0738454	-0.0202875	0.00188776	0.000392697	0	0	0	
0.0681667	-0.0634503	0.0146491	0.00188258	0.000445127	0	0	0	
0.0683333	0.063162	-0.00646914	0.00187401	0.000395203	0	0	0	
0.0685	-0.0639566	0.0102925	0.00177248	0.000308838	0	0	0	
0.0686667	0.0622558	-0.0146245	0.0017017	0.000253034	0	0	0	
0.0688333	-0.0569148	0.0178784	0.00164932	0.000274543	0	0	0	
0.069	0.0705087	-0.0121932	0.00166396	0.000296815	0	0	0	
0.0691667	-0.0781284	0.0116264	0.00168512	0.000282339	0	0	0	
0.0693333	0.0712541	-0.00618521	0.00179615	0.000242144	0	0	0	
0.0695	-0.0662093	0.00992991	0.00185767	0.000210178	0	0	0	
0.0696667	0.069203	-0.0136895	0.00185398	0.000196528	0	0	0	
0.0698333	-0.0632031	0.0142048	0.00178973	0.000220799	0	0	0	
0.07	0.0655069	-0.0152956	0.0017694	0.000253688	0	0	0	
0.0701667	-0.0770863	0.0151834	0.00183212	0.000277362	0	0	0	
0.0703333	0.0766938	-0.00859476	0.00191741	0.000335221	0	0	0	
0.0705	-0.0699238	5.6995E-05	0.00198678	0.000369819	0	0	0	
0.0706667	0.0689049	0.000823966	0.00197301	0.000293465	0	0	0	
0.0708333	-0.0690197	0.00438973	0.00193106	0.000162985	0	0	0	
0.071	0.0656597	-0.00578935	0.00189509	7.92477E-05	0	0	0	
0.0711667	-0.0751992	0.00682422	0.00190907	0.000101693	0	0	0	
0.0713333	0.0718945	-0.0148899	0.00189814	0.000159725	0	0	0	
0.0715	-0.0758249	0.0225065	0.00190054	0.000239294	0	0	0	
0.0716667	0.0778199	-0.0146994	0.00192475	0.000308344	0	0	0	
0.0718333	-0.0712803	0.00640065	0.00197776	0.000340161	0	0	0	
0.072	0.0702535	-0.0100785	0.00195743	0.000302166	0	0	0	
0.0721667	-0.0766143	0.0143317	0.00185274	0.000272895	0	0	0	
0.0723333	0.0845824	-0.0106645	0.00180228	0.000248152	0	0	0	
0.0725	-0.0858284	0.00373922	0.00184588	0.000272081	0	0	0	
0.0726667	0.0894068	0.00368163	0.00195422	0.000292197	0	0	0	
0.0728333	-0.0817187	-0.000854145	0.00202561	0.000268606	0	0	0	
0.073	0.0692216	-0.00778401	0.0020063	0.00019924	0	0	0	
0.0731667	-0.0705281	0.0110197	0.00188226	0.000165285	0	0	0	
0.0733333	0.0750232	-0.00516316	0.00172729	0.000182632	0	0	0	
0.0735	-0.0898503	0.00929989	0.00165218	0.000214996	0	0	0	
0.0736667	0.116837	-0.024082	0.00178106	0.000263647	0	0	0	
0.0738333	-0.126878	0.0286632	0.00215501	0.000376491	0	0	0	
0.074	0.076907	-0.0136676	0.00271671	0.000501766	0	0	0	
0.0741667	-0.0134564	0.00399988	0.00302902	0.000521244	0	0	0	
0.0743333	0.0138206	-0.00618507	0.00265499	0.000402864	0	0	0	
0.0745	-0.0524368	0.00804102	0.0018507	0.000264819	0	0	0	
0.0746667	0.0900123	-0.0105228	0.00134268	0.000196369	0	0	0	
0.0748333	-0.125896	0.0188138	0.00154234	0.000227378	0	0	0	
0.075	0.153959	-0.0259865	0.00220572	0.000314897	0	0	0	
0.0751667	-0.124398	0.00676598	0.00282391	0.000365183	0	0	0	
0.0753333	0.0777649	0.0207914	0.00315223	0.00041964	0	0	0	
0.0755	-0.0587369	-0.0285255	0.00308227	0.000424268	0	0	0	
0.0756667	0.0552637	0.00474458	0.00259867	0.000570923	0	0	0	
0.0758333	-0.0886441	0.0206544	0.002081	0.000773599	0	0	0	
0.076	0.10923	-0.0443886	0.00179039	0.000910922	0	0	0	
0.0761667	-0.107814	0.0426247	0.00190325	0.000910007	0	0	0	
0.0763333	0.0756989	-0.0144115	0.00206895	0.000761718	0	0	0	
0.0765	-0.0750064	-0.0194997	0.00208056	0.000707656	0	0	0	
0.0766667	0.0716608	0.0305583	0.00193683	0.000602933	0	0	0	
0.0768333	-0.0582695	-0.0226892	0.00179463	0.00058065	0	0	0	
0.077	0.0455812	-0.00150028	0.00161635	0.000560968	0	0	0	
0.0771667	-0.0686631	0.0284891	0.00142825	0.000548221	0	0	0	
0.0773333	0.0886411	-0.0365367	0.00142934	0.000570157	0	0	0	
0.0775	-0.0888168	0.0355089	0.0016304	0.000587932	0	0	0	
0.0776667	0.0712614	-0.0288444	0.0019306	0.000638929	0	0	0	
0.0778333	-0.0596404	0.0223119	0.00203464	0.000597776	0	0	0	
0.078	0.0694577	-0.0256507	0.00195079	0.000535317	0	0	0	
0.0781667	-0.0984626	0.0315702	0.00185008	0.000575592	0	0	0	
0.0783333	0.110519	-0.0253517	0.00191216	0.000668556	0	0	0	
0.0785	-0.109333	0.0157397	0.00208419	0.000683929	0	0	0	
0.0786667	0.110636	-0.0173016	0.0022475	0.00057475	0	0	0	
0.0788333	-0.0973548	0.0344257	0.00227337	0.000536132	0	0	0	
0.079	0.0755573	-0.041127	0.0023118	0.000585174	0	0	0	
0.0791667	-0.0634123	0.0354639	0.00212861	0.000701133	0	0	0	
0.0793333	0.0781575	-0.0203592	0.00191745	0.000699845	0	0	0	
0.0795	-0.0900666	0.013797	0.00175113	0.000623021	0	0	0	
0.0796667	0.0795589	-0.0109345	0.00173607	0.000479698	0	0	0	
0.0798333	-0.108722	0.0191399	0.0017897	0.000430271	0	0	0	
0.08	0.119211	-0.0310599	0.00198108	0.000451748	0	0	0	
0.0801667	-0.0700886	0.0166288	0.00220937	0.000487277	0	0	0	
0.0803333	0.0542917	-0.00798994	0.00229245	0.000406669	0	0	0	
0.0805	-0.0896725	0.0181471	0.00207102	0.000322114	0	0	0	
0.0806667	0.0973104	-0.0189942	0.00191245	0.000300389	0	0	0	
0.0808333	-0.0937419	-0.00972965	0.00196663	0.000352687	0	0	0	
0.081	0.0948658	0.0114659	0.00219124	0.000326044	0	0	0	
0.0811667	-0.101217	0.00751691	0.00229446	0.000365856	0	0	0	
0.0813333	0.0889604	-0.0156883	0.00223524	0.000332605	0	0	0	
0.0815	-0.0868285	0.00972886	0.00213935	0.000359978	0	0	0	
0.0816667	0.0556629	-0.0217594	0.0019396	0.000309192	0	0	0	
0.0818333	-0.0989704	0.0256522	0.00168664	0.00035377	0	0	0	
0.082	0.131523	0.000774554	0.00174042	0.000379151	0	0	0	
0.0821667	-0.110688	-0.0101592	0.00208267	0.000412935	0	0	0	
0.0823333	0.0603432	-0.00726924	0.00233366	0.000296413	0	0	0	
0.0825	-0.0792728	0.0343905	0.00214601	0.000359369	0	0	0	
0.0826667	0.0775884	-0.0465004	0.00186015	0.000483706	0	0	0	
0.0828333	-0.0590388	0.0343828	0.0016704	0.000693935	0	0	0	
0.083	0.0814067	-0.00976064	0.00168575	0.000704929	0	0	0	
0.0831667	-0.104571	-0.00438493	0.00173079	0.000592348	0	0	0	
0.0833333	0.100362	-0.00559265	0.00198494	0.000387851	0	0	0	
0.0835	-0.0796655	0.019376	0.00211956	0.000324143	0	0	0	
0.0836667	0.0777948	-0.0220955	0.00212117	0.000376778	0	0	0	
0.0838333	-0.0899066	0.0169531	0.0019977	0.000500857	0	0	0	
0.084	0.0841674	-0.0158316	0.00189904	0.000481594	0	0	0	
0.0841667	-0.0694598	0.0106407	0.00189077	0.000355536	0	0	0	
0.0843333	0.0647481	-0.00684255	0.0018772	0.000237928	0	0	0	
0.0845	-0.0769011	0.0129886	0.00176498	0.000233928	0	0	0	
0.0846667	0.109416	-0.014053	0.00172885	0.000263599	0	0	0	
0.0848333	-0.106628	0.0151335	0.00185666	0.000310029	0	0	0	
0.085	0.078476	-0.0234563	0.00209698	0.000323926	0	0	0	
0.0851667	-0.0862136	0.0254017	0.002126	0.000366043	0	0	0	
0.0853333	0.12585	-0.0170791	0.00210446	0.000430583	0	0	0	
0.0855	-0.132042	0.00723381	0.00222774	0.000502421	0	0	0	
0.0856667	0.115301	0.00720672	0.00256133	0.000495092	0	0	0	
0.0858333	-0.11562	-0.00379661	0.00267639	0.000367862	0	0	0	
0.086	0.159665	-0.0209745	0.00272769	0.000376242	0	0	0	
0.0861667	-0.137213	0.0441281	0.00274536	0.000488744	0	0	0	
0.0863333	0.133754	-0.0394403	0.00285805	0.00070219	0	0	0	
0.0865	-0.103364	0.00262963	0.00268632	0.000759485	0	0	0	
0.0866667	0.11414	0.0250561	0.00243658	0.000769465	0	0	0	
0.0868333	-0.120272	-0.0163134	0.00230411	0.000659003	0	0	0	
0.087	0.138091	-0.00654645	0.00279339	0.000541135	0	0	0	
0.0871667	-0.211398	0.0230487	0.00371343	0.000463653	0	0	0	
0.0873333	0.19256	-0.0348406	0.00441467	0.000547603	0	0	0	
0.0875	-0.15929	0.0333104	0.00432851	0.000611413	0	0	0	
0.0876667	0.132955	-0.00282594	0.00360805	0.000642942	0	0	0	
0.0878333	-0.126569	-0.0282333	0.00302473	0.000696445	0	0	0	
0.088	0.158863	0.0271225	0.00315027	0.000630853	0	0	0	
0.0881667	-0.223909	-0.00133151	0.00365078	0.000669041	0	0	0	
0.0883333	0.174744	-0.0202622	0.00421142	0.000623689	0	0	0	
0.0885	-0.0480826	0.0250702	0.00364222	0.000649664	0	0	0	
0.0886667	0.057717	-0.0187015	0.00256977	0.000529737	0	0	0	
0.0888333	-0.0597662	0.0101093	0.00137401	0.000387945	0	0	0	
0.089	0.0849044	0.00345871	0.00119218	0.000336955	0	0	0	
0.0891667	-0.0837819	-0.0148922	0.00146819	0.000275258	0	0	0	
0.0893333	0.0937629	0.0087959	0.00187707	0.00026564	0	0	0	
0.0895	-0.105291	0.00594221	0.00200962	0.000254056	0	0	0	
0.0896667	0.108014	-0.0115415	0.00201605	0.000264406	0	0	0	
0.0898333	-0.0943879	0.0066062	0.00199254	0.000246496	0	0	0	
0.09	0.0823762	-0.00488665	0.00194125	0.000178763	0	0	0	
0.0901667	-0.0898212	0.00625863	0.00195389	0.000124124	0	0	0	
0.0903333	0.10368	-0.00737527	0.00192588	0.000109515	0	0	0	
0.0905	-0.0899819	0.00817376	0.00192771	0.000128709	0	0	0	
0.0906667	0.0720645	-0.00898751	0.00180369	0.000152446	0	0	0	
0.0908333	-0.0859803	0.00796259	0.00169142	0.000166292	0	0	0	
0.091	0.0876431	-0.00669184	0.00165897	0.000164442	0	0	0	
0.0911667	-0.0846036	0.00697363	0.00171726	0.000157305	0	0	0	
0.0913333	0.0901777	-0.00849256	0.0017642	0.000153212	0	0	0	
0.0915	-0.111128	0.0116375	0.00183944	0.000167861	0	0	0	
0.0916667	0.111321	-0.0132406	0.00198217	0.00019314	0	0	0	
0.0918333	-0.0989878	0.0129985	0.00214638	0.000227313	0	0	0	
0.092	0.095106	-0.0107735	0.00217391	0.000242004	0	0	0	
0.0921667	-0.0914578	0.0093937	0.0021133	0.000237745	0	0	0	
0.0923333	0.0709473	-0.00834387	0.00197853	0.000211663	0	0	0	
0.0925	-0.0710042	0.00945297	0.00178862	0.00019025	0	0	0	
0.0926667	0.0903011	-0.0106073	0.001615	0.000185906	0	0	0	
0.0928333	-0.115438	0.0148051	0.00166846	0.000208573	0	0	0	
0.093	0.115964	-0.0192261	0.00193244	0.000257949	0	0	0	
0.0931667	-0.123863	0.017202	0.00222396	0.000302505	0	0	0	
0.0933333	0.114112	-0.00910839	0.00236943	0.000347984	0	0	0	
0.0935	-0.0646994	0.0048557	0.00234985	0.000337109	0	0	0	
0.0936667	0.0312481	-0.00567534	0.00214168	0.000273585	0	0	0	
0.0938333	-0.0620889	0.00643678	0.0016897	0.000185047	0	0	0	
0.094	0.108122	-0.00867873	0.00151027	0.000140015	0	0	0	
0.0941667	-0.126606	0.0142736	0.00165001	0.000167922	0	0	0	
0.0943333	0.114823	-0.021229	0.00206647	0.000234358	0	0	0	
0.0945	-0.0992189	0.0204348	0.00221954	0.000319682	0	0	0	
0.0946667	0.0893505	-0.0134834	0.00221388	0.000378138	0	0	0	
0.0948333	-0.0804594	0.00973848	0.00209209	0.000376842	0	0	0	
0.095	0.0873679	-0.00983904	0.00196464	0.000316751	0	0	0	
0.0951667	-0.0960373	0.00909099	0.0018772	0.000249173	0	0	0	
0.0953333	0.102965	-0.00789409	0.00188082	0.000199385	0	0	0	
0.0955	-0.100948	0.0108089	0.00195466	0.000183427	0	0	0	
0.0956667	0.0799362	-0.0156121	0.00198113	0.000201386	0	0	0	
0.0958333	-0.0785557	0.0193347	0.00190928	0.000253685	0	0	0	
0.096	0.0944171	-0.0184363	0.00181581	0.000312715	0	0	0	
0.0961667	-0.1123	0.0106531	0.00178537	0.000341637	0	0	0	
0.0963333	0.10012	0.00595534	0.0019099	0.000336336	0	0	0	
0.0965	-0.0816771	-0.0151781	0.00202289	0.000271839	0	0	0	
0.0966667	0.0778871	0.00479286	0.00203874	0.00027359	0	0	0	
0.0968333	-0.0860238	0.0152213	0.00188873	0.000337677	0	0	0	
0.097	0.0951716	-0.0219417	0.00180475	0.000419699	0	0	0	
0.0971667	-0.0951839	0.0186506	0.00177685	0.000427565	0	0	0	
0.0973333	0.105999	-0.0138022	0.001892	0.0003612	0	0	0	
0.0975	-0.100361	0.00816718	0.00198857	0.000298748	0	0	0	
0.0976667	0.100057	0.00362088	0.00211331	0.00026475	0	0	0	
0.0978333	-0.0936913	-0.00505068	0.00211852	0.000213013	0	0	0	
0.098	0.0943603	-0.00295476	0.00205657	0.000195131	0	0	0	
0.0981667	-0.0902011	0.0115604	0.00193616	0.000195152	0	0	0	
0.0983333	0.0862028	-0.0143229	0.00184641	0.000231067	0	0	0	
0.0985	-0.0920234	0.0100255	0.00182753	0.000249351	0	0	0	
0.0986667	0.0919054	-0.00474695	0.00183202	0.000205094	0	0	0	
0.0988333	-0.0970404	0.00593262	0.00185804	0.000155479	0	0	0	
0.099	0.106514	-0.00813147	0.00192857	0.000132029	0	0	0	
0.0991667	-0.101168	0.0117679	0.00198608	0.000154536	0	0	0	
0.0993333	0.0929107	-0.0137673	0.00200399	0.000199337	0	0	0	
0.0995	-0.0925492	0.0124179	0.00194306	0.000229686	0	0	0	
0.0996667	0.095721	-0.0110633	0.00188787	0.000237452	0	0	0	
0.0998333	-0.100958	0.00982932	0.00189204	0.000221381	0	0	0	
0.1	0.0997596	-0.0083825	0.00193276	0.000200026	0	0	0	
0.100167	-0.0918973	0.00803488	0.00193412	0.000176844	0	0	0	
0.100333	0.0954864	-0.0123667	0.00188189	0.00017951	0	0	0	
0.1005	-0.0965955	0.0150171	0.001828	0.000208518	0	0	0	
0.100667	0.0971879	-0.0133476	0.00185079	0.000243545	0	0	0	
0.100833	-0.0978791	0.0100892	0.00190582	0.000255383	0	0	0	
0.101	0.097034	-0.00961424	0.00193722	0.000229569	0	0	0	
0.101167	-0.0920754	0.0117747	0.00191462	0.000215635	0	0	0	
0.101333	0.0928546	-0.0132863	0.00187471	0.000218846	0	0	0	
0.1015	-0.101904	0.0122924	0.00186069	0.000234511	0	0	0	
0.101667	0.102075	-0.00865267	0.00190074	0.00022676	0	0	0	
0.101833	-0.0886852	0.00882597	0.00194562	0.000203224	0	0	0	
0.102	0.0920967	-0.00926814	0.00191862	0.000187921	0	0	0	
0.102167	-0.103448	0.00962159	0.00189472	0.000189214	0	0	0	
0.102333	0.0984511	-0.0101893	0.0018923	0.000197497	0	0	0	
0.1025	-0.0950165	0.0113848	0.00193332	0.000194769	0	0	0	
0.102667	0.093416	-0.0119044	0.00187172	0.000203943	0	0	0	
0.102833	-0.0983452	0.0120095	0.00189771	0.000214432	0	0	0	
0.103	0.102498	-0.0117712	0.00188355	0.000229306	0	0	0	
0.103167	-0.101232	0.0121151	0.00196439	0.000228228	0	0	0	
0.103333	0.100685	-0.0128057	0.00194672	0.000232535	0	0	0	
0.1035	-0.109572	0.0130412	0.00198529	0.000238328	0	0	0	
0.103667	0.0874252	-0.0138091	0.00198772	0.000250802	0	0	0	
0.103833	-0.065736	0.0134125	0.00189183	0.00025622	0	0	0	
0.104	0.0508365	-0.0142213	0.00156207	0.000264002	0	0	0	
0.104167	-0.0819832	0.0149525	0.00133925	0.000270316	0	0	0	
0.104333	0.112108	-0.0138314	0.00140296	0.000277237	0	0	0	
0.1045	-0.107538	0.0116567	0.0017469	0.000266852	0	0	0	
0.104667	0.088109	-0.0104734	0.00194732	0.000242976	0	0	0	
0.104833	-0.0747937	0.0100178	0.00186908	0.000216161	0	0	0	
0.105	0.0725338	-0.0111435	0.00166034	0.000210361	0	0	0	
0.105167	-0.07705	0.0129071	0.0014951	0.000227479	0	0	0	
0.105333	0.0915222	-0.0136809	0.00149189	0.000249262	0	0	0	
0.1055	-0.101687	0.0113115	0.00162675	0.000250555	0	0	0	
0.105667	0.0975526	-0.0091026	0.00179222	0.000229829	0	0	0	
0.105833	-0.0775465	0.00954234	0.00186092	0.000203607	0	0	0	
0.106	0.0619799	-0.0102096	0.00172448	0.000192851	0	0	0	
0.106167	-0.0759816	0.00889522	0.00153185	0.000190732	0	0	0	
0.106333	0.0992833	-0.00862875	0.0014828	0.000186992	0	0	0	
0.1065	-0.105332	0.00952834	0.00165268	0.000183475	0	0	0	
0.106667	0.105484	-0.01085	0.00187445	0.000185153	0	0	0	
0.106833	-0.0997022	0.00825597	0.0019792	0.000186221	0	0	0	
0.107	0.0858816	-0.00391806	0.00195302	0.000166371	0	0	0	
0.107167	-0.0815335	0.0107199	0.0018348	0.000169168	0	0	0	
0.107333	0.0903144	-0.0316283	0.0017224	0.000262675	0	0	0	
0.1075	-0.103226	0.0441646	0.00172642	0.000458681	0	0	0	
0.107667	0.104546	-0.0316287	0.00183768	0.000635691	0	0	0	
0.107833	-0.101135	0.0116486	0.00194925	0.000677434	0	0	0	
0.108	0.0978752	-0.00062487	0.00196909	0.000553103	0	0	0	
0.108167	-0.0966714	-0.000571503	0.0019296	0.000329139	0	0	0	
0.108333	0.0986473	-0.00919607	0.00189657	0.000219002	0	0	0	
0.1085	-0.100177	0.0277471	0.00190218	0.0003047	0	0	0	
0.108667	0.0956857	-0.03703	0.00190982	0.000539391	0	0	0	
0.108833	-0.0961507	0.0317015	0.00188232	0.000664023	0	0	0	
0.109	0.0994864	-0.0170029	0.0018669	0.000616553	0	0	0	
0.109167	-0.0930502	0.00556163	0.00186364	0.000456898	0	0	0	
0.109333	0.0859309	-0.00433699	0.00184317	0.000286528	0	0	0	
0.1095	-0.088708	0.0113138	0.00178102	0.00020741	0	0	0	
0.109667	0.0983146	-0.0164588	0.00174799	0.000211773	0	0	0	
0.109833	-0.106609	0.014421	0.00180785	0.000264339	0	0	0	
0.11	0.104435	-0.0082663	0.00191219	0.000270282	0	0	0	
0.110167	-0.0986615	0.00451114	0.00197533	0.000215635	0	0	0	
0.110333	0.0978019	-0.00688631	0.00197265	0.000164845	0	0	0	
0.1105	-0.10267	0.0103116	0.00194293	0.000149687	0	0	0	
0.110667	0.0981692	-0.0111735	0.00191447	0.000171064	0	0	0	
0.110833	-0.0927323	0.00977145	0.00188553	0.000194184	0	0	0	
0.111	0.0954729	-0.0087674	0.00184342	0.000192477	0	0	0	
0.111167	-0.100107	0.00842142	0.00183154	0.000180382	0	0	0	
0.111333	0.0982318	-0.00851155	0.0018584	0.000171453	0	0	0	
0.1115	-0.102737	0.00844799	0.00189206	0.000165843	0	0	0	
0.111667	0.10312	-0.00948126	0.00192584	0.000167089	0	0	0	
0.111833	-0.0953723	0.0122631	0.0019385	0.000181366	0	0	0	
0.112	0.0890566	-0.0127668	0.00189127	0.000207164	0	0	0	
0.112167	-0.092468	0.00967373	0.00181032	0.000220926	0	0	0	
0.112333	0.0955095	-0.0098687	0.0017689	0.000214634	0	0	0	
0.1125	-0.0967801	0.0103341	0.00179234	0.000199205	0	0	0	
0.112667	0.0949153	-0.0105258	0.00183216	0.000198161	0	0	0	
0.112833	-0.0958469	0.0103914	0.00183006	0.000204799	0	0	0	
0.113	0.0904014	-0.0109256	0.00180558	0.000209117	0	0	0	
0.113167	-0.0910547	0.00923949	0.00177786	0.000206344	0	0	0	
0.113333	0.0938092	-0.00760259	0.00177449	0.00018868	0	0	0	
0.1135	-0.0987226	0.00742375	0.00180101	0.000169106	0	0	0	
0.113667	0.0994087	-0.00822708	0.00184642	0.000158443	0	0	0	
0.113833	-0.0967863	0.00844491	0.00186522	0.000162143	0	0	0	
0.114	0.0927719	-0.0082002	0.00186311	0.000162291	0	0	0	
0.114167	-0.09876	0.00833744	0.00183667	0.000160128	0	0	0	
0.114333	0.0991733	-0.00736179	0.0018561	0.00015493	0	0	0	
0.1145	-0.0980466	0.00884483	0.00185492	0.000155712	0	0	0	
0.114667	0.100181	-0.0106051	0.00188569	0.000167696	0	0	0	
0.114833	-0.102455	0.0113924	0.00187619	0.000188995	0	0	0	
0.115	0.0957311	-0.0128842	0.00191085	0.00021362	0	0	0	
0.115167	-0.0909412	0.0125995	0.0018764	0.000228919	0	0	0	
0.115333	0.0896666	-0.0108868	0.00183604	0.000233224	0	0	0	
0.1155	-0.0875565	0.0128401	0.00175516	0.000229004	0	0	0	
0.115667	0.0907185	-0.0126739	0.00173552	0.00023196	0	0	0	
0.115833	-0.0975348	0.00891101	0.00173834	0.000227571	0	0	0	
0.116	0.113473	-0.00672715	0.00185511	0.000206628	0	0	0	
0.116167	-0.114591	0.00636984	0.00199989	0.000176715	0	0	0	
0.116333	0.105456	-0.0070769	0.00210205	0.000168516	0	0	0	
0.1165	-0.0991014	0.0114991	0.0020781	0.00019833	0	0	0	
0.116667	0.0982972	-0.0146808	0.00198066	0.000236111	0	0	0	
0.116833	-0.102109	0.00994738	0.00192349	0.000248951	0	0	0	
0.117	0.0878252	-0.00423077	0.00187264	0.000218043	0	0	0	
0.117167	-0.0557331	0.00640099	0.00177726	0.000179952	0	0	0	
0.117333	0.0388821	-0.0113901	0.0014664	0.00017684	0	0	0	
0.1175	-0.0889091	0.0112008	0.00135679	0.00020266	0	0	0	
0.117667	0.145106	-0.0114451	0.00159953	0.000221864	0	0	0	
0.117833	-0.148471	0.0101861	0.00217809	0.000227127	0	0	0	
0.118	0.10411	-0.00885866	0.00250838	0.000219531	0	0	0	
0.118167	-0.0831426	0.00990388	0.00239508	0.000213666	0	0	0	
0.118333	0.0677989	-0.0103972	0.00200369	0.0001997	0	0	0	
0.1185	-0.0751334	0.00698654	0.00165287	0.000189263	0	0	0	
0.118667	0.0835508	-0.00551058	0.00151928	0.000174031	0	0	0	
0.118833	-0.111145	0.00830114	0.00166511	0.000196211	0	0	0	
0.119	0.136593	-0.00995921	0.0019694	0.000247357	0	0	0	
0.119167	-0.111805	0.0138145	0.00222826	0.000304233	0	0	0	
0.119333	0.076191	-0.0149532	0.00224201	0.00032925	0	0	0	
0.1195	-0.0553592	0.0124461	0.00189443	0.000312003	0	0	0	
0.119667	0.0886334	-0.00717048	0.00160546	0.000271498	0	0	0	
0.119833	-0.123223	0.00342828	0.00160275	0.000204306	0	0	0	
0.12	0.114606	-0.00397788	0.00192052	0.000162473	0	0	0	
0.120167	-0.086435	0.00875198	0.00209404	0.000164855	0	0	0	
0.120333	0.0915175	-0.0112786	0.0019373	0.000194928	0	0	0	
0.1205	-0.0981529	0.00699459	0.00180368	0.000199085	0	0	0	
0.120667	0.0996832	-0.0012239	0.00173828	0.000156691	0	0	0	
0.120833	-0.0969754	0.00150927	0.00184895	0.000103214	0	0	0	
0.121	0.0972007	-0.00843897	0.00185901	0.000105827	0	0	0	
0.121167	-0.0999525	0.0148193	0.00188451	0.000159032	0	0	0	
0.121333	0.100909	-0.0134714	0.00189912	0.000231427	0	0	0	
0.1215	-0.0982797	0.00994812	0.00190699	0.000247003	0	0	0	
0.121667	0.0922936	-0.00957969	0.0018833	0.000231618	0	0	0	
0.121833	-0.0969528	0.0110778	0.00185812	0.000212524	0	0	0	
0.122	0.0997389	-0.0120135	0.00185537	0.00021981	0	0	0	
0.122167	-0.0987196	0.0121039	0.00187117	0.000237192	0	0	0	
0.122333	0.0975148	-0.0108991	0.00187636	0.000244273	0	0	0	
0.1225	-0.0960028	0.00921723	0.00187115	0.000239597	0	0	0	
0.122667	0.0913648	-0.00981005	0.00184385	0.000227496	0	0	0	
0.122833	-0.0920164	0.0114201	0.00181301	0.000221303	0	0	0	
0.123	0.0949549	-0.0108815	0.00180051	0.00022467	0	0	0	
0.123167	-0.0984835	0.0102966	0.00182442	0.000230536	0	0	0	
0.123333	0.0976735	-0.00998774	0.00185635	0.000232444	0	0	0	
0.1235	-0.0992071	0.0100105	0.00186877	0.000233188	0	0	0	
0.123667	0.0993178	-0.00858889	0.00188081	0.000231993	0	0	0	
0.123833	-0.100271	0.00873389	0.00190502	0.000224192	0	0	0	
0.124	0.095062	-0.00988136	0.00191332	0.000222614	0	0	0	
0.124167	-0.0935836	0.0102366	0.00188692	0.000223028	0	0	0	
0.124333	0.0970296	-0.00877083	0.00185889	0.00021959	0	0	0	
0.1245	-0.0963354	0.00586983	0.00183574	0.000195919	0	0	0	
0.124667	0.0992436	-0.0038793	0.00186023	0.000168766	0	0	0	
0.124833	-0.102914	0.0057851	0.00189867	0.000155356	0	0	0	
0.125	0.1025	-0.00915827	0.00195008	0.00015594	0	0	0	
0.125167	-0.0944065	0.0078671	0.00195756	0.000165159	0	0	0	
0.125333	0.0958375	-0.00612948	0.00191207	0.000161676	0	0	0	
0.1255	-0.101456	0.00673504	0.00188749	0.00015877	0	0	0	
0.125667	0.10259	-0.00665533	0.0018987	0.000152353	0	0	0	
0.125833	-0.0983486	0.0069759	0.0019372	0.000146569	0	0	0	
0.126	0.0952919	-0.00817169	0.00192195	0.000146034	0	0	0	
0.126167	-0.0931511	0.0090768	0.00189311	0.000155723	0	0	0	
0.126333	0.0928124	-0.00770195	0.00183717	0.000163586	0	0	0	
0.1265	-0.0964385	0.00635351	0.00183655	0.000157701	0	0	0	
0.126667	0.102166	-0.00419399	0.0018696	0.000132378	0	0	0	
0.126833	-0.106754	0.0052352	0.0019513	0.000113253	0	0	0	
0.127	0.10109	-0.00904244	0.0019865	0.000123875	0	0	0	
0.127167	-0.10007	0.0127911	0.00197096	0.000163023	0	0	0	
0.127333	0.0940495	-0.0140931	0.00190472	0.000213942	0	0	0	
0.1275	-0.0828549	0.0133128	0.00180764	0.00024535	0	0	0	
0.127667	0.0742987	-0.0104721	0.00168135	0.000249187	0	0	0	
0.127833	-0.0873246	0.00973148	0.00161817	0.000231667	0	0	0	
0.128	0.10639	-0.00999639	0.00170766	0.000212686	0	0	0	
0.128167	-0.116043	0.00849496	0.00189857	0.000203917	0	0	0	
0.128333	0.117065	-0.00955572	0.00210557	0.000215692	0	0	0	
0.1285	-0.123752	0.0114122	0.00220723	0.000247259	0	0	0	
0.128667	0.118494	-0.0122811	0.00227446	0.000286031	0	0	0	
0.128833	-0.0986686	0.0116987	0.00221848	0.000308	0	0	0	
0.129	0.088199	-0.0112876	0.00207612	0.00029154	0	0	0	
0.129167	-0.0887657	0.00962323	0.00188182	0.00025806	0	0	0	
0.129333	0.0940654	-0.0058634	0.00179772	0.000217316	0	0	0	
0.1295	-0.0962587	0.00482247	0.00181371	0.000181122	0	0	0	
0.129667	0.100364	-0.00545039	0.00189815	0.000158496	0	0	0	
0.129833	-0.109139	0.00738131	0.00199567	0.000165326	0	0	0	
0.13	0.117305	-0.00937307	0.00211217	0.00019943	0	0	0	
0.130167	-0.108874	0.0122108	0.0021559	0.000232122	0	0	0	
0.130333	0.087573	-0.0103001	0.00206119	0.000249765	0	0	0	
0.1305	-0.0791407	0.00774913	0.0018532	0.000235537	0	0	0	
0.130667	0.0832703	-0.00957727	0.00169123	0.000221063	0	0	0	
0.130833	-0.0911328	0.0120037	0.00166633	0.000224732	0	0	0	
0.131	0.0924422	-0.0110256	0.00174112	0.00024453	0	0	0	
0.131167	-0.0970554	0.00858938	0.00181707	0.000245936	0	0	0	
0.131333	0.097016	-0.00935134	0.00185253	0.000236003	0	0	0	
0.1315	-0.0920412	0.0111603	0.0018479	0.000236015	0	0	0	
0.131667	0.0860476	-0.0109569	0.00180494	0.000244141	0	0	0	
0.131833	-0.0910847	0.0100458	0.00176826	0.00023648	0	0	0	
0.132	0.0952647	-0.009712	0.00179329	0.00021906	0	0	0	
0.132167	-0.100907	0.0101616	0.00186539	0.000219678	0	0	0	
0.132333	0.0991199	-0.0116128	0.00193815	0.000237037	0	0	0	
0.1325	-0.101021	0.0103068	0.00196578	0.000253817	0	0	0	
0.132667	0.0954027	-0.00999557	0.00196283	0.000252684	0	0	0	
0.132833	-0.0958048	0.0117925	0.00193445	0.000250405	0	0	0	
0.133	0.0929173	-0.0128156	0.00190127	0.000255746	0	0	0	
0.133167	-0.0917738	0.0104425	0.0018435	0.000261553	0	0	0	
0.133333	0.0874918	-0.00632558	0.00179987	0.000246265	0	0	0	
0.1335	-0.0934079	0.005927	0.00177759	0.000219897	0	0	0	
0.133667	0.0948773	-0.00746671	0.00185556	0.000202398	0	0	0	
0.133833	-0.0984593	0.00681446	0.00191868	0.000194832	0	0	0	
0.134	0.100238	-0.00643336	0.0019716	0.000184792	0	0	0	
0.134167	-0.105717	0.0078547	0.00196658	0.000183527	0	0	0	
0.134333	0.101168	-0.00973747	0.00197977	0.000202814	0	0	0	
0.1345	-0.0983581	0.00984673	0.00196826	0.000220335	0	0	0	
0.134667	0.0921077	-0.0089779	0.00194685	0.000213145	0	0	0	
0.134833	-0.0869202	0.0078682	0.00187977	0.000190698	0	0	0	
0.135	0.0899594	-0.00904877	0.00183823	0.000181926	0	0	0	
0.135167	-0.0964593	0.0103296	0.00182863	0.000200858	0	0	0	
0.135333	0.0988603	-0.00985812	0.00189289	0.000221776	0	0	0	
0.1355	-0.105606	0.00913764	0.00196715	0.000231401	0	0	0	
0.135667	0.103186	-0.0091943	0.00203778	0.00022707	0	0	0	
0.135833	-0.0938695	0.0101484	0.00201252	0.000231086	0	0	0	
0.136	0.0862692	-0.00973677	0.00191854	0.00024737	0	0	0	
0.136167	-0.085494	0.00999036	0.00179483	0.000261881	0	0	0	
0.136333	0.0932183	-0.0100028	0.00176188	0.00026422	0	0	0	
0.1365	-0.0993973	0.00874526	0.00183557	0.000253204	0	0	0	
0.136667	0.0971326	-0.00778111	0.00192917	0.000236968	0	0	0	
0.136833	-0.091599	0.00755972	0.00194849	0.000225413	0	0	0	
0.137	0.0936017	-0.0073285	0.00190912	0.000223969	0	0	0	
0.137167	-0.0933065	0.00839622	0.00186025	0.000230161	0	0	0	
0.137333	0.0931222	-0.00963926	0.00185541	0.000234776	0	0	0	
0.1375	-0.095524	0.00873842	0.00187703	0.000233941	0	0	0	
0.137667	0.100426	-0.00721823	0.0019185	0.000225699	0	0	0	
0.137833	-0.10086	0.00838727	0.0019542	0.000221999	0	0	0	
0.138	0.0913221	-0.00954869	0.00193007	0.000227522	0	0	0	
0.138167	-0.0728925	0.00760515	0.0018112	0.000229276	0	0	0	
0.138333	0.0801939	-0.00576637	0.00171356	0.000215858	0	0	0	
0.1385	-0.10108	0.005856	0.00181201	0.000202535	0	0	0	
0.138667	0.111028	-0.00549133	0.00204799	0.000202717	0	0	0	
0.138833	-0.110286	0.00392227	0.00226442	0.000205213	0	0	0	
0.139	0.116057	-0.00486684	0.00233272	0.000201159	0	0	0	
0.139167	-0.113745	0.00574948	0.00231398	0.000201941	0	0	0	
0.139333	0.0888147	-0.00625018	0.00218865	0.000199704	0	0	0	
0.1395	-0.0738945	0.00550881	0.00196429	0.000184905	0	0	0	
0.139667	0.0775705	-0.00507767	0.00176704	0.000156016	0	0	0	
0.139833	-0.0781739	0.00392105	0.00171805	0.000135609	0	0	0	
0.14	0.0819394	-0.0044776	0.00177197	0.000115257	0	0	0	
0.140167	-0.0925669	0.00434336	0.0018826	0.000105266	0	0	0	
0.140333	0.0985755	-0.00478179	0.00197956	0.000101883	0	0	0	
0.1405	-0.0986607	0.00711017	0.00203895	0.000124029	0	0	0	
0.140667	0.098683	-0.00901797	0.00202795	0.000151914	0	0	0	
0.140833	-0.096861	0.00763836	0.00200485	0.000177788	0	0	0	
0.141	0.0940087	-0.00743784	0.00197355	0.000176994	0	0	0	
0.141167	-0.0916941	0.00864713	0.00195201	0.000175552	0	0	0	
0.141333	0.0948105	-0.0084533	0.0019183	0.000177388	0	0	0	
0.1415	-0.0967402	0.00870244	0.00192798	0.0001935	0	0	0	
0.141667	0.0914919	-0.00873984	0.00191273	0.000204849	0	0	0	
0.141833	-0.0865348	0.00942205	0.00189405	0.00021217	0	0	0	
0.142	0.0871456	-0.00960281	0.00187012	0.000209514	0	0	0	
0.142167	-0.0971131	0.0080169	0.00190337	0.00019815	0	0	0	
0.142333	0.101216	-0.00581856	0.0019622	0.000181384	0	0	0	
0.1425	-0.0981486	0.0061444	0.00202461	0.000179116	0	0	0	
0.142667	0.0959871	-0.00844106	0.00201697	0.000191622	0	0	0	
0.142833	-0.0892233	0.0101755	0.00196519	0.000213174	0	0	0	
0.143	0.0849288	-0.00911688	0.00189529	0.000222196	0	0	0	
0.143167	-0.0950103	0.00678601	0.00189505	0.00021273	0	0	0	
0.143333	0.0960249	-0.0069446	0.00192899	0.000201159	0	0	0	
0.1435	-0.0891153	0.00778828	0.00195071	0.000202986	0	0	0	
0.143667	0.0882821	-0.00871132	0.0019209	0.000211177	0	0	0	
0.143833	-0.0935706	0.0102834	0.00189421	0.000223125	0	0	0	
0.144	0.0883287	-0.00942321	0.00188855	0.000229109	0	0	0	
0.144167	-0.0855281	0.00778316	0.00187552	0.000223055	0	0	0	
0.144333	0.0894238	-0.00682717	0.0018615	0.000200976	0	0	0	
0.1445	-0.0924677	0.00821634	0.00185739	0.000187131	0	0	0	
0.144667	0.0852614	-0.00984775	0.0018656	0.000198277	0	0	0	
0.144833	-0.0872244	0.00989924	0.00185885	0.000223676	0	0	0	
0.145	0.0941494	-0.00851728	0.00189629	0.000235556	0	0	0	
0.145167	-0.0948166	0.00879868	0.00194064	0.00022958	0	0	0	
0.145333	0.0855919	-0.00915698	0.00192643	0.000221771	0	0	0	
0.1455	-0.0801472	0.0083673	0.00183168	0.000223531	0	0	0	
0.145667	0.0997485	-0.00763391	0.00187971	0.000240426	0	0	0	
0.145833	-0.140143	0.00924596	0.00221949	0.000268827	0	0	0	
0.146	0.155068	-0.012412	0.00263974	0.000292472	0	0	0	
0.146167	-0.126073	0.0109064	0.00281474	0.000299821	0	0	0	
0.146333	0.0868959	-0.00709192	0.00254923	0.000269786	0	0	0	
0.1465	-0.0727197	0.00378246	0.00210044	0.000226405	0	0	0	
0.146667	0.0674949	-0.00170929	0.00177858	0.000190193	0	0	0	
0.146833	-0.0723621	0.00180292	0.0017907	0.000183298	0	0	0	
0.147	0.103377	-0.00558899	0.0021401	0.000193773	0	0	0	
0.147167	-0.13741	0.00593719	0.00257676	0.000225949	0	0	0	
0.147333	0.127872	-0.00547944	0.00280176	0.000259618	0	0	0	
0.1475	-0.0989164	0.0069688	0.00262806	0.000277696	0	0	0	
0.147667	0.07564	-0.005193	0.00220347	0.00026539	0	0	0	
0.147833	-0.0788377	0.00516965	0.00186732	0.000244471	0	0	0	
0.148	0.0862066	-0.00858214	0.00177767	0.000234294	0	0	0	
0.148167	-0.0833168	0.00722135	0.001816	0.000222169	0	0	0	
0.148333	0.0747801	-0.00114104	0.00180948	0.000189702	0	0	0	
0.1485	-0.0777389	0.00427684	0.00171838	0.000183034	0	0	0	
0.148667	0.0821827	-0.0100901	0.00168684	0.000245626	0	0	0	
0.148833	-0.0933304	0.0144876	0.0017613	0.000328171	0	0	0	
0.149	0.0931116	-0.0130309	0.0019414	0.000347058	0	0	0	
0.149167	-0.0937789	0.00810855	0.00205685	0.000284221	0	0	0	
0.149333	0.083468	-0.00591691	0.00201915	0.000214688	0	0	0	
0.1495	-0.0807983	0.0068977	0.00188923	0.000191254	0	0	0	
0.149667	0.0912627	-0.00657063	0.00183587	0.000202101	0	0	0	
0.149833	-0.0895847	0.00753491	0.00190556	0.000226964	0	0	0	
0.15	0.0800156	-0.0107195	0.00197178	0.000243365	0	0	0	
0.150167	-0.0848569	0.00990408	0.00196142	0.000244367	0	0	0	
0.150333	0.080959	-0.00633871	0.00193841	0.000220322	0	0	0	
0.1505	-0.0837583	0.0049691	0.00189918	0.000191751	0	0	0	
0.150667	0.0812538	-0.00870449	0.00185775	0.000187551	0	0	0	
0.150833	-0.0777029	0.0131063	0.00181689	0.000217628	0	0	0	
0.151	0.0811012	-0.0134692	0.00182334	0.00024796	0	0	0	
0.151167	-0.0855425	0.0118567	0.00185573	0.000255575	0	0	0	
0.151333	0.0768733	-0.0076369	0.00183357	0.000225755	0	0	0	
0.1515	-0.0716937	0.00641461	0.00176871	0.000190771	0	0	0	
0.151667	0.0796613	-0.00770132	0.00174653	0.000168614	0	0	0	
0.151833	-0.0923651	0.00752125	0.00180787	0.000179281	0	0	0	
0.152	0.0856844	-0.00683322	0.00190021	0.000198855	0	0	0	
0.152167	-0.0829111	0.00959993	0.00191415	0.000220231	0	0	0	
0.152333	0.0845303	-0.0124631	0.00187183	0.000246667	0	0	0	
0.1525	-0.0883027	0.0137616	0.00184517	0.000270998	0	0	0	
0.152667	0.0878145	-0.0132903	0.00187748	0.000270827	0	0	0	
0.152833	-0.10215	0.00721717	0.00195412	0.00024103	0	0	0	
0.153	0.0946146	-0.00400851	0.00198102	0.000197738	0	0	0	
0.153167	-0.0511762	0.000119382	0.00179704	0.000199405	0	0	0	
0.153333	0.0142484	-0.00234534	0.0014228	0.000239451	0	0	0	
0.1535	-0.0380299	0.00917476	0.00143482	0.000284155	0	0	0	
0.153667	0.0913543	-0.0135541	0.00196453	0.0002891	0	0	0	
0.153833	-0.123458	0.0109349	0.0026617	0.000285149	0	0	0	
0.154	0.128412	-0.00768982	0.00293352	0.000269172	0	0	0	
0.154167	-0.122959	0.0053723	0.0027673	0.000254599	0	0	0	
0.154333	0.0841553	-0.00336114	0.00238442	0.000218396	0	0	0	
0.1545	-0.0266242	0.00315137	0.00181829	0.000199751	0	0	0	
0.154667	0.00831806	-0.00623627	0.00117331	0.000188318	0	0	0	
0.154833	-0.0391527	0.00729951	0.00109835	0.000191864	0	0	0	
0.155	0.0796261	-0.00493792	0.0015081	0.000187178	0	0	0	
0.155167	-0.101634	0.00215069	0.00211266	0.000166329	0	0	0	
0.155333	0.0981976	-0.00207088	0.00229871	0.000152098	0	0	0	
0.1555	-0.0972922	0.00284462	0.00220007	0.000179823	0	0	0	
0.155667	0.105694	-0.00470977	0.00207349	0.000227885	0	0	0	
0.155833	-0.114818	0.00761415	0.00210979	0.000256268	0	0	0	
0.156	0.0914865	-0.00804466	0.00217414	0.000252441	0	0	0	
0.156167	-0.0866711	0.00553169	0.00215258	0.00023044	0	0	0	
0.156333	0.102898	-0.00452589	0.00200675	0.000202004	0	0	0	
0.1565	-0.104448	0.00572855	0.00201157	0.000182193	0	0	0	
0.156667	0.0929241	-0.0058566	0.00204326	0.000180047	0	0	0	
0.156833	-0.084166	0.00547603	0.0020086	0.000187339	0	0	0	
0.157	-0.00674753	-0.00489976	0.00161952	0.000187332	0	0	0	
0.157167	0.00997963	0.0041249	0.00125315	0.000178148	0	0	0	
0.157333	0.071482	-0.00510404	0.00103507	0.000169687	0	0	0	
0.1575	-0.1405	0.00485467	0.00162371	0.000178542	0	0	0	
0.157667	0.133897	-0.00615553	0.00235787	0.000202957	0	0	0	
0.157833	-0.119082	0.00774437	0.00282941	0.000229782	0	0	0	
0.158	0.087028	-0.00688828	0.00251072	0.000228796	0	0	0	
0.158167	-0.032981	0.00522384	0.00188958	0.000202582	0	0	0	
0.158333	0.0507495	-0.00564378	0.00163864	0.000181793	0	0	0	
0.1585	0.0096393	0.00647816	0.00162224	0.000198897	0	0	0	
0.158667	0.106444	-0.00792807	0.00244796	0.000230436	0	0	0	
0.158833	-0.14264	0.007403	0.00305514	0.000242158	0	0	0	
0.159	0.167026	-0.00535814	0.00331449	0.000214891	0	0	0	
0.159167	-0.127689	0.00454548	0.00312324	0.000186752	0	0	0	
0.159333	0.085299	-0.0068231	0.00274018	0.000186575	0	0	0	
0.1595	-0.0136429	0.00976287	0.00232544	0.000209562	0	0	0	
0.159667	0.0162876	-0.0103929	0.00156493	0.000218095	0	0	0	
0.159833	0.0453984	0.00865597	0.00150025	0.000210224	0	0	0	
0.16	0.0383496	-0.000152213	0.00180966	0.000158635	0	0	0	
0.160167	-0.0809309	-0.0019968	0.00218918	0.000102967	0	0	0	
0.160333	0.109272	-0.00400341	0.0022997	9.31419E-05	0	0	0	
0.1605	-0.147122	0.0106668	0.00285593	0.000159609	0	0	0	
0.160667	0.132417	-0.0127493	0.00355365	0.000245176	0	0	0	
0.160833	-0.0749437	0.011509	0.00346971	0.000270259	0	0	0	
0.161	0.0400502	-0.00515142	0.00242355	0.000236909	0	0	0	
0.161167	-0.0395312	0.00471578	0.00132334	0.000185113	0	0	0	
0.161333	0.072438	-0.00927822	0.000983167	0.000173899	0	0	0	
0.1615	-0.102205	0.0102581	0.0016388	0.000208626	0	0	0	
0.161667	0.0723044	-0.00970578	0.00248527	0.000249326	0	0	0	
0.161833	-0.0583489	0.00819353	0.00285519	0.000250627	0	0	0	
0.162	0.0612154	-0.00496758	0.00255632	0.000211828	0	0	0	
0.162167	-0.0497481	0.00307311	0.00198232	0.000175433	0	0	0	
0.162333	-0.00630903	-0.00259577	0.00156848	0.000156715	0	0	0	
0.1625	-0.000729934	0.003934	0.00148988	0.000169071	0	0	0	
0.162667	0.0554987	-0.00740717	0.00199418	0.000200334	0	0	0	
0.162833	-0.119692	0.0057277	0.00265204	0.000218616	0	0	0	
0.163	0.103315	0.00100281	0.00291701	0.000191909	0	0	0	
0.163167	-0.0734892	7.42337E-05	0.0024814	0.000168403	0	0	0	
0.163333	0.0595728	-0.00611066	0.00193631	0.000181854	0	0	0	
0.1635	-0.0408723	0.00800069	0.00148293	0.00022556	0	0	0	
0.163667	0.032433	-0.00456504	0.00126072	0.000256692	0	0	0	
0.163833	-0.045285	0.00661555	0.0012817	0.000266561	0	0	0	
0.164	0.0867412	-0.00811273	0.0014973	0.000258733	0	0	0	
0.164167	-0.0876272	0.00718817	0.00180392	0.000222707	0	0	0	
0.164333	0.0690303	-0.00494446	0.00185494	0.000179782	0	0	0	
0.1645	-0.0752191	0.00430429	0.00188721	0.00016842	0	0	0	
0.164667	0.0753631	-0.00114405	0.0018857	0.000185899	0	0	0	
0.164833	-0.0657421	-0.00187381	0.00199371	0.000174073	0	0	0	
0.165	0.100311	-0.00536618	0.00205526	0.000133091	0	0	0	
0.165167	-0.10919	0.0103643	0.00216744	0.000133998	0	0	0	
0.165333	0.0768918	-0.0091361	0.00219846	0.000169369	0	0	0	
0.1655	-0.0676263	0.00402321	0.00212738	0.00019031	0	0	0	
0.165667	0.0746414	-0.00160859	0.00199866	0.000159928	0	0	0	
0.165833	-0.0868705	0.00419287	0.00199528	0.000152015	0	0	0	
0.166	0.0755045	-0.0133409	0.00189953	0.000173756	0	0	0	
0.166167	-0.0189007	0.0149691	0.00160962	0.000237456	0	0	0	
0.166333	0.0276951	-0.0101783	0.00121313	0.000257281	0	0	0	
0.1665	-0.0551836	0.0082937	0.00129573	0.000257664	0	0	0	
0.166667	0.0762759	-0.00747119	0.00159886	0.000229669	0	0	0	
0.166833	-0.0827071	0.0071831	0.00197481	0.000219737	0	0	0	
0.167	0.0784941	-0.00611805	0.00203499	0.000216964	0	0	0	
0.167167	-0.0713025	0.0059419	0.00187417	0.000206278	0	0	0	
0.167333	0.0636785	-0.00796283	0.00161987	0.000201045	0	0	0	
0.1675	-0.0728237	0.0087409	0.00159028	0.000205477	0	0	0	
0.167667	0.0980545	-0.00489185	0.00190706	0.000202183	0	0	0	
0.167833	-0.0879736	0.0027027	0.00228604	0.000175995	0	0	0	
0.168	0.0772441	-0.00363662	0.00230169	0.000158211	0	0	0	
0.168167	-0.0597986	0.00487283	0.00200633	0.000169994	0	0	0	
0.168333	0.0494715	-0.00603773	0.00171749	0.000203979	0	0	0	
0.1685	-0.0640028	0.00748123	0.00171315	0.000227643	0	0	0	
0.168667	0.076249	-0.00767125	0.00188083	0.000233786	0	0	0	
0.168833	-0.0626804	0.00586071	0.0020441	0.000231336	0	0	0	
0.169	0.0704416	-0.0040712	0.00204901	0.000226397	0	0	0	
0.169167	-0.0797652	0.0048291	0.00200434	0.000219065	0	0	0	
0.169333	0.093472	-0.00430288	0.00195442	0.000198033	0	0	0	
0.1695	-0.0371006	0.00464355	0.0019207	0.000148585	0	0	0	
0.169667	0.0150925	-0.0104622	0.00153739	0.000128995	0	0	0	
0.169833	-0.0389326	0.0122517	0.0010971	0.000153981	0	0	0	
0.17	0.0704901	-0.0103076	0.000968869	0.000205278	0	0	0	
0.170167	-0.0732485	0.00734982	0.00136083	0.000212393	0	0	0	
0.170333	0.0830454	-0.00641376	0.00183802	0.000186628	0	0	0	
0.1705	-0.0690231	0.00980138	0.00210585	0.000177937	0	0	0	
0.170667	0.0755705	-0.0166292	0.00202643	0.000206957	0	0	0	
0.170833	-0.114152	0.0165766	0.00195126	0.000274455	0	0	0	
0.171	0.165501	-0.0135794	0.00209649	0.000325982	0	0	0	
0.171167	-0.114988	0.0112089	0.00252546	0.000355858	0	0	0	
0.171333	0.0617114	-0.00819321	0.00249837	0.000341205	0	0	0	
0.1715	-0.0474696	0.00562843	0.00212704	0.00030626	0	0	0	
0.171667	0.0459103	-0.00351934	0.00162774	0.000250043	0	0	0	
0.171833	-0.0492896	0.00387969	0.00166383	0.000196261	0	0	0	
0.172	0.0821724	-0.00345388	0.00196455	0.000173184	0	0	0	
0.172167	-0.133093	0.00193395	0.00254284	0.000180804	0	0	0	
0.172333	0.116145	-0.00136615	0.00303304	0.000198681	0	0	0	
0.1725	-0.0937038	0.00165085	0.00303464	0.000195321	0	0	0	
0.172667	0.0631955	0.00133805	0.0025205	0.000165817	0	0	0	
0.172833	-0.0608886	-0.000694187	0.00197613	0.000137859	0	0	0	
0.173	0.0668909	-0.0028845	0.00172842	0.000152286	0	0	0	
0.173167	-0.0561065	0.00590175	0.00163405	0.000199139	0	0	0	
0.173333	0.0366449	-0.0086032	0.00152556	0.000234752	0	0	0	
0.1735	-0.0385833	0.0119662	0.0015458	0.000241966	0	0	0	
0.173667	0.0617161	-0.0162657	0.00178612	0.000243302	0	0	0	
0.173833	-0.0829819	0.0198822	0.00207426	0.000271925	0	0	0	
0.174	0.0750281	-0.025618	0.00221392	0.00039756	0	0	0	
0.174167	-0.0778337	0.0156149	0.00214676	0.000486758	0	0	0	
0.174333	0.0829468	-0.00687313	0.00221936	0.000498675	0	0	0	
0.1745	-0.10761	-0.000443251	0.00236995	0.000414456	0	0	0	
0.174667	0.099679	0.00860262	0.00259388	0.000330779	0	0	0	
0.174833	-0.0819683	-0.0116296	0.00251517	0.000272609	0	0	0	
0.175	0.0699342	-0.0132899	0.00232279	0.000358627	0	0	0	
0.175167	-0.0546322	0.0392183	0.0020525	0.000599684	0	0	0	
0.175333	0.0476487	-0.0520381	0.00192289	0.000865902	0	0	0	
0.1755	-0.0469169	0.045014	0.00195229	0.000946897	0	0	0	
0.175667	0.0708619	-0.0176024	0.00219224	0.000872304	0	0	0	
0.175833	-0.0714207	-0.00932834	0.00240188	0.000758059	0	0	0	
0.176	0.061268	0.0232797	0.00233284	0.000627375	0	0	0	
0.176167	-0.0556344	-0.0231791	0.00205011	0.000497853	0	0	0	
0.176333	0.0548667	0.00796691	0.0018371	0.000441302	0	0	0	
0.1765	-0.056971	0.0103613	0.00182056	0.000506664	0	0	0	
0.176667	0.0631525	-0.0156591	0.00192267	0.000543657	0	0	0	
0.176833	-0.0723003	0.00846698	0.00203091	0.000463943	0	0	0	
0.177	0.0752725	-0.00184995	0.00206055	0.000277154	0	0	0	
0.177167	-0.0674734	-0.000112964	0.00195526	0.00012199	0	0	0	
0.177333	0.054603	-0.000754814	0.00178573	9.50851E-05	0	0	0	
0.1775	-0.0539362	0.00303838	0.00169475	0.000128719	0	0	0	
0.177667	0.0618646	-0.00297385	0.00173837	0.000170257	0	0	0	
0.177833	-0.0618373	0.000469374	0.00183465	0.000162924	0	0	0	
0.178	0.0606114	-0.00117716	0.00188761	0.000162726	0	0	0	
0.178167	-0.0594549	0.0082597	0.00189381	0.000233631	0	0	0	
0.178333	0.0540529	-0.0136301	0.00186607	0.00034568	0	0	0	
0.1785	-0.0451176	0.012847	0.00182032	0.000402153	0	0	0	
0.178667	0.0490474	-0.00868478	0.0018269	0.000360902	0	0	0	
0.178833	-0.064489	0.0044219	0.00198427	0.000270841	0	0	0	
0.179	0.0787379	-0.00213366	0.00222315	0.000200183	0	0	0	
0.179167	-0.0817475	8.22654E-05	0.00234548	0.000174595	0	0	0	
0.179333	0.0690801	0.000945239	0.00218649	0.000218369	0	0	0	
0.1795	-0.0355996	0.00428565	0.00180393	0.000331589	0	0	0	
0.179667	0.00434752	-0.0127554	0.0014287	0.000440682	0	0	0	
0.179833	-0.0147091	0.0126933	0.00155787	0.00045564	0	0	0	
0.18	0.0795799	-0.00478221	0.00226346	0.000350448	0	0	0	
0.180167	-0.146764	-0.000338392	0.00312422	0.000209896	0	0	0	
0.180333	0.158412	-0.000939963	0.00346118	0.00015559	0	0	0	
0.1805	-0.0963869	0.00456943	0.00311002	0.000194135	0	0	0	
0.180667	0.0132899	-0.00533787	0.00224359	0.000251127	0	0	0	
0.180833	0.00015792	0.00497277	0.00159233	0.000258564	0	0	0	
0.181	0.0441561	-0.0076697	0.00174563	0.000243436	0	0	0	
0.181167	-0.0844359	0.00762299	0.00248928	0.000209823	0	0	0	
0.181333	0.114754	-0.00044492	0.00325928	0.000216191	0	0	0	
0.1815	-0.140346	-0.00555545	0.00350811	0.000237928	0	0	0	
0.181667	0.103345	0.00731896	0.00328957	0.00022295	0	0	0	
0.181833	-0.0249347	-0.0050257	0.00256807	0.000185689	0	0	0	
0.182	0.00711489	0.00501128	0.00191315	0.000126496	0	0	0	
0.182167	-0.0632014	-4.50553E-05	0.00202294	0.00018123	0	0	0	
0.182333	0.0853467	-0.0163551	0.00249453	0.000258162	0	0	0	
0.1825	-0.0579777	0.0265077	0.00264703	0.000342717	0	0	0	
0.182667	0.0474597	-0.0116762	0.00228399	0.000383677	0	0	0	
0.182833	-0.0688381	-0.00221402	0.00210325	0.000348575	0	0	0	
0.183	0.0716526	0.00136916	0.00211155	0.000227653	0	0	0	
0.183167	-0.0573932	0.00557937	0.00203315	0.000199631	0	0	0	
0.183333	0.0566912	-0.0121853	0.00184323	0.000244353	0	0	0	
0.1835	-0.0672668	0.0137851	0.00179107	0.000364422	0	0	0	
0.183667	0.0696666	-0.0123991	0.00187399	0.000384114	0	0	0	
0.183833	-0.0637386	0.00950541	0.00192868	0.000340627	0	0	0	
0.184	0.0577633	-0.00380718	0.00190036	0.000267809	0	0	0	
0.184167	-0.0532583	-0.00188186	0.00184561	0.000210979	0	0	0	
0.184333	0.0468082	-0.00149808	0.00179693	0.000261519	0	0	0	
0.1845	-0.0468608	0.0079263	0.00182673	0.000380695	0	0	0	
0.184667	0.0658257	-0.0102955	0.00200312	0.000472597	0	0	0	
0.184833	-0.0847314	0.00705509	0.00224159	0.000451601	0	0	0	
0.185	0.0797011	-0.00657807	0.00229848	0.000367272	0	0	0	
0.185167	-0.0580436	0.00579337	0.00208677	0.000306992	0	0	0	
0.185333	0.0432085	-0.00520694	0.00176147	0.000281969	0	0	0	
0.1855	-0.0395009	0.00284491	0.00160677	0.000267701	0	0	0	
0.185667	0.0793987	-0.00182115	0.001821	0.000250086	0	0	0	
0.185833	-0.151434	0.00362045	0.00244752	0.00025461	0	0	0	
0.186	0.186211	-0.00557519	0.00315291	0.000269091	0	0	0	
0.186167	-0.15498	0.00336792	0.00350166	0.000261442	0	0	0	
0.186333	0.106072	-0.000880982	0.00325674	0.000221437	0	0	0	
0.1865	-0.0863617	0.000811702	0.00276658	0.000181597	0	0	0	
0.186667	0.103386	0.00223792	0.00246411	0.000155504	0	0	0	
0.186833	-0.11685	-0.00484019	0.00257613	0.000179141	0	0	0	
0.187	0.123156	-0.00840096	0.00291257	0.000291838	0	0	0	
0.187167	-0.12066	0.0280551	0.00319038	0.000417126	0	0	0	
0.187333	0.0946872	-0.0190517	0.0031678	0.00047776	0	0	0	
0.1875	-0.0622339	-0.0208666	0.00284962	0.00053938	0	0	0	
0.187667	0.0509229	0.0442896	0.00253158	0.00057946	0	0	0	
0.187833	-0.0829019	-0.0384952	0.00255872	0.000707548	0	0	0	
0.188	0.119384	0.0210577	0.00283555	0.000860961	0	0	0	
0.188167	-0.103428	0.00644863	0.00288702	0.00105651	0	0	0	
0.188333	0.0443439	-0.0276763	0.00240194	0.00113173	0	0	0	
0.1885	-0.0210043	0.0296206	0.00173667	0.000956049	0	0	0	
0.188667	0.039237	-0.00530148	0.00156847	0.000748989	0	0	0	
0.188833	-0.0592859	-0.0523047	0.00181497	0.000853962	0	0	0	
0.189	0.0574912	0.0949074	0.00212192	0.00106022	0	0	0	
0.189167	-0.0552836	-0.0453316	0.00210756	0.00158171	0	0	0	
0.189333	0.048855	-0.0302464	0.00193326	0.00214076	0	0	0	
0.1895	-0.0315452	0.065204	0.00169595	0.00223975	0	0	0	
0.189667	0.0182308	-0.0530508	0.00154496	0.00188506	0	0	0	
0.189833	-0.0207096	-0.032504	0.00163467	0.00154823	0	0	0	
0.19	0.033152	0.201324	0.00195389	0.00191973	0	0	0	
0.190167	-0.0530639	-0.302671	0.00229302	0.00305199	0	0	0	
0.190333	0.0628275	0.199646	0.00237632	0.00498273	0	0	0	
0.1905	-0.0434616	0.0433404	0.00218011	0.00668465	0	0	0	
0.190667	0.0394942	-0.184659	0.00191926	0.00655072	0	0	0	
0.190833	-0.04679	0.113971	0.00177098	0.00480567	0	0	0	
0.191	0.0189255	0.124183	0.00153516	0.00351945	0	0	0	
0.191167	0.0229153	-0.377189	0.00123676	0.00404566	0	0	0	
0.191333	0.0121785	0.420877	0.00133605	0.00567283	0	0	0	
0.1915	-0.0566321	-0.202412	0.00186403	0.00653796	0	0	0	
0.191667	0.0590947	-0.0111412	0.00227443	0.0062541	0	0	0	
0.191833	-0.0537451	0.0728641	0.00212969	0.004758	0	0	0	
0.192	0.0566594	-0.0418226	0.00173338	0.00292585	0	0	0	
0.192167	-0.0379824	-0.0523018	0.00136934	0.00199891	0	0	0	
0.192333	0.0304623	0.104413	0.000991145	0.00197821	0	0	0	
0.1925	-0.0190262	-0.07574	0.000781632	0.00227864	0	0	0	
0.192667	0.00226351	0.0288219	0.000616022	0.00191745	0	0	0	
0.192833	0.0172609	-0.0109622	0.000898146	0.00126267	0	0	0	
0.193	0.0569745	0.0156811	0.00152755	0.000774643	0	0	0	
0.193167	-0.0854321	-0.0254105	0.00215364	0.000599622	0	0	0	
0.193333	0.0962183	0.00724941	0.00236451	0.000615625	0	0	0	
0.1935	-0.0861375	0.0338285	0.00224905	0.000951475	0	0	0	
0.193667	0.0861748	-0.0495621	0.00206907	0.00115831	0	0	0	
0.193833	-0.0288882	0.0251699	0.00194267	0.00103987	0	0	0	
0.194	0.0110345	-0.00809313	0.00163651	0.000681588	0	0	0	
0.194167	-0.0272773	-0.00362926	0.00174865	0.000371519	0	0	0	
0.194333	0.0441497	0.00555314	0.00200223	0.000237124	0	0	0	
0.1945	-0.0309386	0.0158619	0.00221228	0.00038623	0	0	0	
0.194667	-0.000657793	-0.0442295	0.00193041	0.000641373	0	0	0	
0.194833	-0.000585629	0.0144924	0.0015429	0.000789818	0	0	0	
0.195	0.0193498	0.0154166	0.00154429	0.000666844	0	0	0	
0.195167	-0.0561322	0.0302979	0.00196915	0.000837501	0	0	0	
0.195333	0.08554	-0.0338842	0.00243715	0.000800965	0	0	0	
0.1955	-0.0612714	-0.0534111	0.00268859	0.00147924	0	0	0	
0.195667	0.0338402	0.122191	0.0026683	0.00192206	0	0	0	
0.195833	-0.033022	-0.0917228	0.00262335	0.00236016	0	0	0	
0.196	0.0517534	0.124672	0.00254455	0.00218681	0	0	0	
0.196167	-0.0242042	-0.190448	0.00256609	0.002227	0	0	0	
0.196333	0.0193107	0.104223	0.00250151	0.00294317	0	0	0	
0.1965	-0.0326259	0.080616	0.00248587	0.00383888	0	0	0	
0.196667	-0.00332447	-0.132885	0.00247464	0.00370329	0	0	0	
0.196833	-0.0131424	0.0846703	0.00234137	0.00306351	0	0	0	
0.197	0.00568773	-0.0342142	0.00202549	0.00224985	0	0	0	
0.197167	0.0160697	-0.035256	0.00176046	0.00215652	0	0	0	
0.197333	-0.0161009	0.118222	0.00180441	0.00228763	0	0	0	
0.1975	-0.0467874	-0.150992	0.00194455	0.00242335	0	0	0	
0.197667	0.0418666	0.109292	0.00196215	0.00250771	0	0	0	
0.197833	-0.0193208	-0.032628	0.00183702	0.00252236	0	0	0	
0.198	0.0481424	-0.013635	0.001923	0.00220313	0	0	0	
0.198167	-0.0739373	0.00612731	0.00214951	0.00166879	0	0	0	
0.198333	0.0255655	-0.0123255	0.00210184	0.00107848	0	0	0	
0.1985	0.0262528	0.0279393	0.0017322	0.00078645	0	0	0	
0.198667	0.0190848	-0.0286862	0.00186587	0.000727863	0	0	0	
0.198833	-0.0963989	0.0214778	0.0025055	0.000666501	0	0	0	
0.199	0.0762517	-0.0195389	0.00283381	0.00057736	0	0	0	
0.199167	-0.0106757	0.0228712	0.00218322	0.000516186	0	0	0	
0.199333	-0.00367922	-0.0150817	0.00137723	0.00043977	0	0	0	
0.1995	-0.0188376	0.0064454	0.00120406	0.00035975	0	0	0	
0.199667	-0.0170335	0.00793175	0.00129829	0.000318052	0	0	0	
0.199833	0.0182635	-0.00969161	0.0015566	0.0002396	0	0	0	
0.2	0.0567438	0.00183444	0.00206334	0.000296525	0	0	0	
0.200167	-0.149421	0.00998716	0.00241103	0.000363151	0	0	0	
0.200333	0.0815078	-0.011299	0.00258508	0.000424649	0	0	0	
0.2005	0.021451	0.0117738	0.00181809	0.000355236	0	0	0	
0.200667	-0.0191575	0.0028778	0.00153802	0.000293535	0	0	0	
0.200833	-0.00426168	0.0178065	0.00156685	0.000599902	0	0	0	
0.201	-0.0274342	-0.0505857	0.00178071	0.00116802	0	0	0	
0.201167	0.0133284	0.0714384	0.00158622	0.0015659	0	0	0	
0.201333	0.0580943	-0.0413999	0.00126088	0.00150133	0	0	0	
0.2015	-0.0657712	0.0134651	0.00171928	0.00105139	0	0	0	
0.201667	0.0732209	-0.00235462	0.00255394	0.000708289	0	0	0	
0.201833	-0.0418942	0.0254277	0.00290249	0.000773543	0	0	0	
0.202	-0.0257925	-0.0558975	0.00219936	0.00109272	0	0	0	
0.202167	0.0389759	0.0599307	0.00137203	0.00141538	0	0	0	
0.202333	0.00383852	-0.0661675	0.000733639	0.00140438	0	0	0	
0.2025	0.00395576	0.0513671	0.000893459	0.00124896	0	0	0	
0.202667	-0.0374898	-0.0264753	0.00136062	0.00102352	0	0	0	
0.202833	0.0131743	0.0148644	0.00231111	0.000835085	0	0	0	
0.203	0.0333578	-0.0388264	0.00288833	0.000902698	0	0	0	
0.203167	-0.0387066	0.0632317	0.00253359	0.00118594	0	0	0	
0.203333	0.00221295	-0.0656704	0.00165872	0.00141462	0	0	0	
0.2035	-0.00026841	0.0496684	0.00124802	0.001367	0	0	0	
0.203667	0.0486889	-0.0175705	0.00179074	0.00106224	0	0	0	
0.203833	-0.077254	0.0232684	0.00243586	0.00079734	0	0	0	
0.204	0.0601546	-0.0191273	0.00247625	0.000602341	0	0	0	
0.204167	-0.0320508	0.0106361	0.00191836	0.000420676	0	0	0	
0.204333	0.0242676	0.00116495	0.00151891	0.000355509	0	0	0	
0.2045	-0.0214112	-0.00676556	0.00165107	0.000204283	0	0	0	
0.204667	0.0341511	0.00537801	0.00202488	0.000253692	0	0	0	
0.204833	-0.0383874	0.00566771	0.00220379	0.000288984	0	0	0	
0.205	0.0368307	-0.0176501	0.00208507	0.000387567	0	0	0	
0.205167	-0.0403824	0.00941522	0.00197344	0.000353663	0	0	0	
0.205333	0.0490421	0.03582	0.00199087	0.000459237	0	0	0	
0.2055	-0.0307546	-0.056299	0.00205846	0.000584382	0	0	0	
0.205667	0.0271302	0.0134624	0.00203802	0.00123136	0	0	0	
0.205833	-0.0318406	0.0223713	0.00199637	0.0018558	0	0	0	
0.206	0.0364286	-0.00776526	0.00192371	0.00203435	0	0	0	
0.206167	-0.0166443	-0.0169469	0.001811	0.00145243	0	0	0	
0.206333	-0.00348448	0.026821	0.00166219	0.000733024	0	0	0	
0.2065	-0.00955109	-0.0678929	0.00171759	0.000559215	0	0	0	
0.206667	0.0208451	0.0528919	0.00196128	0.00108841	0	0	0	
0.206833	-0.0309356	0.02724	0.0021926	0.00221532	0	0	0	
0.207	0.0400458	-0.0883985	0.00224299	0.00278638	0	0	0	
0.207167	-0.0480137	0.0149723	0.00213508	0.00255119	0	0	0	
0.207333	0.0221989	0.105893	0.00191277	0.00240115	0	0	0	
0.2075	-0.0357452	-0.176186	0.00168802	0.00269859	0	0	0	
0.207667	0.0347175	0.182815	0.00173909	0.00325787	0	0	0	
0.207833	-0.0361585	-0.0975308	0.0018732	0.00349754	0	0	0	
0.208	0.00487925	-0.06447	0.00186033	0.00390743	0	0	0	
0.208167	-0.0118479	0.142232	0.00176922	0.00380446	0	0	0	
0.208333	0.0407949	-0.104378	0.00204885	0.00315877	0	0	0	
0.2085	-0.0599641	0.0418643	0.00243679	0.00254663	0	0	0	
0.208667	0.0318241	0.0169168	0.0024552	0.00242463	0	0	0	
0.208833	-0.00767695	-0.0465017	0.00195878	0.00213072	0	0	0	
0.209	-0.0391458	0.0338555	0.00168872	0.00147812	0	0	0	
0.209167	-0.00374612	0.00245792	0.00182189	0.000870514	0	0	0	
0.209333	0.0370341	-0.0254952	0.00221312	0.000643896	0	0	0	
0.2095	-0.0409906	0.0167297	0.00231566	0.000615227	0	0	0	
0.209667	0.0470952	-0.00410709	0.00200391	0.000780284	0	0	0	
0.209833	-0.0165474	0.0392129	0.00144631	0.00101846	0	0	0	
0.21	-0.0352895	-0.0452113	0.00100833	0.00120654	0	0	0	
0.210167	0.0436485	0.0127763	0.0011004	0.00102537	0	0	0	
0.210333	0.000552293	0.0207905	0.00155713	0.000729632	0	0	0	
0.2105	-0.0508771	-0.0306009	0.00224571	0.00046299	0	0	0	
0.210667	0.0567824	0.0143452	0.00252323	0.000552919	0	0	0	
0.210833	-0.0228756	0.0078665	0.00221881	0.000696003	0	0	0	
0.211	-0.0174867	-0.0174488	0.00152361	0.000688843	0	0	0	
0.211167	0.0269253	-0.014925	0.00125257	0.000537924	0	0	0	
0.211333	0.0271949	0.0149505	0.00156323	0.000355976	0	0	0	
0.2115	-0.0247599	-0.00424237	0.00197958	0.000293636	0	0	0	
0.211667	0.00332812	-0.00167809	0.00202843	0.000246353	0	0	0	
0.211833	-0.0123866	-0.00756292	0.00186524	0.000177275	0	0	0	
0.212	0.0163874	0.00599224	0.00174056	0.000125495	0	0	0	
0.212167	-0.0129727	0.00383076	0.00174143	0.000218781	0	0	0	
0.212333	0.0195327	-0.00533881	0.00183888	0.000308758	0	0	0	
0.2125	-0.0292019	0.00641238	0.00196872	0.000319432	0	0	0	
0.212667	0.0163109	0.00915533	0.00196236	0.000234803	0	0	0	
0.212833	-0.00901156	-0.00711482	0.00174637	0.000218261	0	0	0	
0.213	-0.00848923	-0.0122269	0.00156879	0.000333027	0	0	0	
0.213167	0.00169305	0.0133894	0.0016526	0.000432524	0	0	0	
0.213333	0.0150622	-0.00182835	0.00195444	0.000386773	0	0	0	
0.2135	-0.035779	-0.00575261	0.00217	0.000270563	0	0	0	
0.213667	0.0259849	0.00669433	0.00217654	0.00026394	0	0	0	
0.213833	-0.0264406	0.00452175	0.00198019	0.000322249	0	0	0	
0.214	-0.00163287	-0.00832583	0.00177635	0.000345062	0	0	0	
0.214167	-0.0103126	0.00564156	0.00169869	0.000297675	0	0	0	
0.214333	0.0169436	0.00120559	0.00182121	0.000273012	0	0	0	
0.2145	-0.024822	-0.00271427	0.00193694	0.000257795	0	0	0	
0.214667	0.0155378	0.0075088	0.00197198	0.000221006	0	0	0	
0.214833	-0.016587	-0.00463007	0.00196995	0.000209816	0	0	0	
0.215	0.0205154	-0.00409192	0.00200888	0.000279145	0	0	0	
0.215167	-0.0172395	0.00953434	0.00198326	0.00037195	0	0	0	
0.215333	0.00646138	-0.00175392	0.00188583	0.000427302	0	0	0	
0.2155	-0.0120114	-1.28744E-05	0.00184171	0.000379949	0	0	0	
0.215667	0.0181997	-0.00289913	0.00194661	0.000264123	0	0	0	
0.215833	-0.0135734	0.00334454	0.00207854	0.00015711	0	0	0	
0.216	0.013413	-0.00166612	0.00208348	0.000127792	0	0	0	
0.216167	-0.013792	-0.00274331	0.00197221	0.00016767	0	0	0	
0.216333	0.0163398	0.0080038	0.00181725	0.000227159	0	0	0	
0.2165	-0.00812028	-0.00369804	0.00170534	0.000265546	0	0	0	
0.216667	-0.00515138	-0.00361106	0.00166742	0.000277391	0	0	0	
0.216833	0.0201218	-0.00245495	0.00173478	0.000189029	0	0	0	
0.217	-0.0142249	0.0316756	0.00190064	0.000184655	0	0	0	
0.217167	-0.00620898	-0.0343356	0.00218344	0.000419721	0	0	0	
0.217333	0.0390392	-0.060486	0.00242635	0.00115297	0	0	0	
0.2175	-0.0374212	0.161827	0.00241772	0.00182513	0	0	0	
0.217667	0.00892653	-0.129244	0.00212576	0.00242747	0	0	0	
0.217833	0.000117877	0.0427451	0.00183792	0.00245078	0	0	0	
0.218	0.00037368	-0.0044078	0.00168939	0.00212599	0	0	0	
0.218167	0.0166304	-0.0169576	0.00160704	0.00140691	0	0	0	
0.218333	-0.0155712	0.026726	0.00163712	0.000772104	0	0	0	
0.2185	-0.00604623	0.040376	0.001858	0.000928136	0	0	0	
0.218667	0.0170657	-0.115276	0.00208397	0.00161157	0	0	0	
0.218833	-0.00165769	0.097303	0.00206626	0.00221324	0	0	0	
0.219	-0.00315905	-0.038673	0.00188916	0.00205457	0	0	0	
0.219167	-0.00163044	0.0232796	0.00182072	0.00151479	0	0	0	
0.219333	0.00867093	-0.04513	0.00188575	0.0012648	0	0	0	
0.2195	-0.0159985	0.0345412	0.00191569	0.00116179	0	0	0	
0.219667	0.0153603	-0.0121162	0.00184001	0.000938795	0	0	0	
0.219833	-0.00730895	0.00291998	0.00174891	0.000505695	0	0	0	
0.22	0.0037829	0.0107479	0.00171311	0.000214709	0	0	0	
0.220167	-0.00457509	-0.0348807	0.00172572	0.00025575	0	0	0	
0.220333	0.00282776	0.0333801	0.0017694	0.00053101	0	0	0	
0.2205	-0.00685094	0.00259095	0.00184036	0.000863752	0	0	0	
0.220667	0.0108294	-0.0255094	0.00191885	0.000952858	0	0	0	
0.220833	-0.00753572	0.0170539	0.00195349	0.000732588	0	0	0	
0.221	0.00723466	0.00157412	0.00193094	0.000524435	0	0	0	
0.221167	-0.00448607	-0.00698302	0.00186305	0.000318443	0	0	0	
0.221333	-0.00172672	-0.00590361	0.0017695	0.000298974	0	0	0	
0.2215	0.0149105	0.000909171	0.00175092	0.000173186	0	0	0	
0.221667	-0.0074348	0.0143695	0.00185103	0.000160324	0	0	0	
0.221833	-3.34918E-05	-0.0153528	0.0019957	0.000215248	0	0	0	
0.222	0.00709361	-0.0096963	0.00203967	0.000466491	0	0	0	
0.222167	-0.00642595	0.0237993	0.00197092	0.000709449	0	0	0	
0.222333	0.00785017	-0.0212184	0.00186492	0.000756668	0	0	0	
0.2225	-0.00231317	0.007336	0.0017847	0.000578085	0	0	0	
0.222667	-0.00297943	-0.00528395	0.00174201	0.000352199	0	0	0	
0.222833	-0.0013706	0.00440753	0.0017565	0.000216633	0	0	0	
0.223	0.0030481	-0.000898109	0.00182763	0.000122609	0	0	0	
0.223167	-0.00252318	-0.0106654	0.00190151	0.000110789	0	0	0	
0.223333	0.00610669	0.0192307	0.00191202	0.000148345	0	0	0	
0.2235	-0.000625297	-0.0150209	0.00186235	0.000270012	0	0	0	
0.223667	-0.0035109	-0.00208481	0.0018318	0.000400223	0	0	0	
0.223833	0.00121747	0.00750398	0.0018739	0.0004495	0	0	0	
0.224	0.00423774	-0.00296312	0.0019431	0.000388039	0	0	0	
0.224167	-0.00157856	0.00122025	0.00197942	0.000257043	0	0	0	
0.224333	0.0031085	-0.00214044	0.00200548	0.00015088	0	0	0	
0.2245	-0.00421562	-0.00177375	0.00204112	9.03323E-05	0	0	0	
0.224667	0.00134442	0.00912677	0.0020283	8.77248E-05	0	0	0	
0.224833	-0.00313099	-0.0126511	0.00194137	0.000139918	0	0	0	
0.225	0.00590285	0.0100335	0.00184401	0.00025383	0	0	0	
0.225167	0.00446851	-0.00162145	0.00176909	0.000353739	0	0	0	
0.225333	-0.0013768	-0.00441389	0.00172767	0.000369866	0	0	0	
0.2255	0.00881938	0.000895117	0.00176958	0.000297233	0	0	0	
0.225667	-0.00627396	0.00113439	0.00188014	0.000191063	0	0	0	
0.225833	0.00148534	-0.00461797	0.00195273	0.000115146	0	0	0	
0.226	0.00138742	0.00495323	0.00194782	9.54682E-05	0	0	0	
0.226167	-0.00330892	-0.00347415	0.00196652	0.000118611	0	0	0	
0.226333	0.0268745	-0.00278807	0.00202641	0.000189753	0	0	0	
0.2265	-0.0148694	0.00300241	0.00200732	0.000214433	0	0	0	
0.226667	-0.01503	-0.000191036	0.00181484	0.000174537	0	0	0	
0.226833	0.0206082	-0.00252812	0.00167085	9.55241E-05	0	0	0	
0.227	-0.00491419	0.00137859	0.00177552	6.7134E-05	0	0	0	
0.227167	0.00838307	-0.000315683	0.00199555	9.83916E-05	0	0	0	
0.227333	-0.0142267	0.00463977	0.0019449	0.000158874	0	0	0	
0.2275	0.0370207	-0.00529825	0.00171474	0.000241662	0	0	0	
0.227667	-0.029506	-2.90233E-05	0.00164008	0.000318136	0	0	0	
0.227833	0.012487	-0.000425139	0.00183702	0.000328441	0	0	0	
0.228	-0.014216	0.00388708	0.00201471	0.000270372	0	0	0	
0.228167	0.0124976	-0.00175568	0.00206206	0.000201342	0	0	0	
0.228333	0.00751198	0.00129454	0.00200133	0.000163589	0	0	0	
0.2285	-0.00475046	-0.00706278	0.00177882	0.000153413	0	0	0	
0.228667	-0.0158307	0.011163	0.00143335	0.000174771	0	0	0	
0.228833	0.0286615	-0.00968949	0.00125747	0.000219333	0	0	0	
0.229	-0.0293362	0.00583267	0.00145075	0.000266397	0	0	0	
0.229167	0.0126569	-0.00153483	0.00183359	0.000267816	0	0	0	
0.229333	-0.000954711	-0.000955282	0.00207864	0.000231189	0	0	0	
0.2295	0.00571926	-0.00217706	0.00204215	0.000186452	0	0	0	
0.229667	-0.012317	0.0054287	0.00187141	0.000173796	0	0	0	
0.229833	0.0135539	-0.00558995	0.00179409	0.000190927	0	0	0	
0.23	-0.00577678	0.00325709	0.00188562	0.00021059	0	0	0	
0.230167	0.00345751	-0.001884	0.00198304	0.000214305	0	0	0	
0.230333	-0.0118365	0.0018868	0.00191742	0.000203676	0	0	0	
0.2305	0.0181603	-0.00395548	0.00179124	0.000194354	0	0	0	
0.230667	-0.00863499	0.00701463	0.00179298	0.000192173	0	0	0	
0.230833	0.00651938	-0.0107436	0.00191483	0.000205801	0	0	0	
0.231	-0.00960266	0.0114669	0.00197605	0.000222293	0	0	0	
0.231167	0.0113409	-0.0114837	0.00193826	0.000238465	0	0	0	
0.231333	-0.00918576	0.00928397	0.00188651	0.000247827	0	0	0	
0.2315	0.00887737	-0.0045012	0.00186422	0.000261689	0	0	0	
0.231667	-0.00970194	0.00204762	0.00185981	0.00025931	0	0	0	
0.231833	0.012957	-0.00456365	0.00188553	0.000217372	0	0	0	
0.232	-0.00989991	0.00308499	0.00191178	0.000156876	0	0	0	
0.232167	0.0176339	0.000331562	0.00187184	9.8426E-05	0	0	0	
0.232333	-0.022273	-0.00543665	0.00177702	0.000112056	0	0	0	
0.2325	0.0243916	0.00917807	0.00176922	0.000131061	0	0	0	
0.232667	-0.0246843	-0.0100579	0.00189597	0.000171623	0	0	0	
0.232833	0.0102555	0.00251429	0.00199857	0.000161774	0	0	0	
0.233	-0.0162132	0.00350173	0.00200619	0.000132506	0	0	0	
0.233167	0.0275042	-0.0058872	0.00197643	0.000101309	0	0	0	
0.233333	0.00203461	0.00635683	0.00196164	0.000141024	0	0	0	
0.2335	0.0123924	-0.00213479	0.00195263	0.000275758	0	0	0	
0.233667	-0.0190567	-0.0104234	0.0019401	0.000426828	0	0	0	
0.233833	0.0253374	0.0127595	0.00213294	0.000485354	0	0	0	
0.234	0.0903959	-0.00512553	0.00265009	0.000417887	0	0	0	
0.234167	-0.0888687	-0.000570263	0.00347878	0.000278359	0	0	0	
0.234333	0.0433168	0.00200464	0.00364489	0.000169758	0	0	0	
0.2345	0.01244	-0.00562945	0.00298275	0.000123436	0	0	0	
0.234667	-0.0859267	0.013264	0.00213273	0.000154916	0	0	0	
0.234833	0.0667106	-0.0151137	0.00180714	0.000217431	0	0	0	
0.235	-0.0235985	0.0104791	0.00191363	0.000275972	0	0	0	
0.235167	-0.0555448	-0.00610733	0.00211653	0.000294942	0	0	0	
0.235333	-0.0105866	0.00552188	0.00268015	0.000273743	0	0	0	
0.2355	-0.0735953	-0.00536683	0.00274911	0.000245825	0	0	0	
0.235667	-0.0114325	0.00477218	0.00233794	0.000217495	0	0	0	
0.235833	0.0590451	-0.00795035	0.00150063	0.000195599	0	0	0	
0.236	-0.0165395	0.0104284	0.00152094	0.000189453	0	0	0	
0.236167	-0.0807625	-0.00979026	0.00202701	0.000211566	0	0	0	
0.236333	0.107623	0.00569078	0.00266969	0.000249403	0	0	0	
0.2365	-0.0594381	-0.00371615	0.00283924	0.000266405	0	0	0	
0.236667	0.083523	0.00472799	0.00263854	0.000232832	0	0	0	
0.236833	0.0177898	-0.00836925	0.00211227	0.000186156	0	0	0	
0.237	-0.0591083	0.0096973	0.00169728	0.000169615	0	0	0	
0.237167	0.0584268	-0.00831903	0.00166242	0.000198802	0	0	0	
0.237333	-0.0202513	0.00687928	0.00195297	0.000223389	0	0	0	
0.2375	0.00952123	-0.00879409	0.00217895	0.000220555	0	0	0	
0.237667	-0.0237472	0.00966042	0.00202768	0.000211092	0	0	0	
0.237833	0.0235832	-0.00779294	0.00184041	0.000226218	0	0	0	
0.238	-0.0155063	0.00358782	0.00186148	0.000246788	0	0	0	
0.238167	0.0177368	-0.00234485	0.00196574	0.000243906	0	0	0	
0.238333	-0.0127527	-0.000845863	0.00200014	0.000219427	0	0	0	
0.2385	0.00902185	0.000690152	0.00197681	0.000205816	0	0	0	
0.238667	-0.0200737	0.00208275	0.00189044	0.000197894	0	0	0	
0.238833	0.0349919	-0.00597809	0.00180136	0.000191067	0	0	0	
0.239	-0.0300617	0.00623039	0.0018263	0.000191366	0	0	0	
0.239167	0.0170695	-0.00493113	0.00196935	0.000219443	0	0	0	
0.239333	-0.0146583	0.00125233	0.0020196	0.00025057	0	0	0	
0.2395	0.0203762	-0.00240565	0.00193307	0.000268141	0	0	0	
0.239667	-0.0177503	0.00550196	0.00186027	0.000269116	0	0	0	
0.239833	0.0172817	-0.00668051	0.00190137	0.00026109	0	0	0	
0.24	-0.0152285	0.00654107	0.00196168	0.000242052	0	0	0	
0.240167	0.0141134	-0.0072034	0.00195174	0.000224955	0	0	0	
0.240333	-0.0175157	0.0062911	0.0018835	0.000227106	0	0	0	
0.2405	0.0253622	-0.00547442	0.00183062	0.000247892	0	0	0	
0.240667	-0.0298405	0.00268652	0.00186639	0.000235208	0	0	0	
0.240833	0.0258676	-0.000233006	0.00198809	0.000165069	0	0	0	
0.241	-0.0172922	0.00188815	0.00208569	8.32387E-05	0	0	0	
0.241167	0.0149573	-0.00309141	0.00205065	4.6288E-05	0	0	0	
0.241333	-0.0176865	0.00176503	0.00190645	8.60778E-05	0	0	0	
0.2415	0.0241242	-0.00114249	0.00178756	0.000141894	0	0	0	
0.241667	-0.0265416	5.46575E-05	0.00179388	0.000166364	0	0	0	
0.241833	0.0239536	0.00213889	0.00188189	0.000143151	0	0	0	
0.242	-0.0160448	-0.00084006	0.0019222	0.00011824	0	0	0	
0.242167	0.0145155	-0.00143643	0.0018871	0.000128495	0	0	0	
0.242333	-0.0168789	0.00237909	0.00182147	0.000164614	0	0	0	
0.2425	0.0259726	-0.00368907	0.00178098	0.000192478	0	0	0	
0.242667	-0.0333986	0.00325575	0.00181422	0.000208696	0	0	0	
0.242833	0.0201321	-0.00326463	0.0019273	0.000216349	0	0	0	
0.243	-0.00597378	0.00687676	0.0020313	0.000208479	0	0	0	
0.243167	0.0149137	-0.0108875	0.00197202	0.000202231	0	0	0	
0.243333	-0.0288133	0.0101034	0.00182888	0.00020573	0	0	0	
0.2435	0.0299377	-0.00608928	0.00177093	0.000218884	0	0	0	
0.243667	-0.0273429	0.00381871	0.00184365	0.000206322	0	0	0	
0.243833	0.0246312	-0.00139555	0.00190383	0.000170704	0	0	0	
0.244	-0.0187838	-0.000368123	0.00189193	0.000129955	0	0	0	
0.244167	0.019759	0.0016337	0.00186923	8.95809E-05	0	0	0	
0.244333	-0.0215958	0.00331276	0.00185669	0.000108395	0	0	0	
0.2445	0.0286776	-0.00923888	0.001847	0.000130417	0	0	0	
0.244667	-0.0315521	0.0104005	0.00184126	0.000169855	0	0	0	
0.244833	0.0301292	-0.00722388	0.00187058	0.000196197	0	0	0	
0.245	-0.0204188	-0.00243542	0.00189319	0.0002594	0	0	0	
0.245167	0.02256	0.0119339	0.00186678	0.0003168	0	0	0	
0.245333	-0.0265762	-0.0122756	0.00180729	0.000319812	0	0	0	
0.2455	0.0285866	0.00429817	0.00179352	0.000250371	0	0	0	
0.245667	-0.0333684	0.00278176	0.00176944	0.00015344	0	0	0	
0.245833	0.0603961	-0.00749654	0.00173489	0.000111226	0	0	0	
0.246	-0.0668291	0.00530484	0.00184521	0.000137226	0	0	0	
0.246167	0.0300593	-0.00298557	0.00230523	0.000217849	0	0	0	
0.246333	0.0233636	0.00256854	0.00287565	0.000254631	0	0	0	
0.2465	-0.0288645	-0.00453651	0.0029454	0.000241015	0	0	0	
0.246667	-0.00193484	0.00778371	0.0023365	0.000221469	0	0	0	
0.246833	0.0429108	-0.00674616	0.00154836	0.000233593	0	0	0	
0.247	-0.0739312	0.00508619	0.00127531	0.000258984	0	0	0	
0.247167	0.0820411	-0.008267	0.00162658	0.00025466	0	0	0	
0.247333	-0.052932	0.0110453	0.00229173	0.00023451	0	0	0	
0.2475	0.0170476	-0.0106805	0.00280123	0.000232238	0	0	0	
0.247667	-0.000983458	0.00992277	0.00284116	0.000257098	0	0	0	
0.247833	0.0203133	-0.00814408	0.00238294	0.000267947	0	0	0	
0.248	-0.0465982	0.00704258	0.00183688	0.000250897	0	0	0	
0.248167	0.0566392	-0.0075664	0.00165489	0.000219855	0	0	0	
0.248333	-0.0391176	0.00577479	0.00189998	0.000184817	0	0	0	
0.2485	0.0223517	-0.00605346	0.00220592	0.000162143	0	0	0	
0.248667	-0.00891845	0.00753769	0.00221865	0.000151146	0	0	0	
0.248833	0.0191454	-0.00777441	0.00195842	0.000164093	0	0	0	
0.249	-0.0318508	0.006399	0.00168382	0.000189076	0	0	0	
0.249167	0.0374454	-0.00487096	0.00163525	0.000196814	0	0	0	
0.249333	-0.0349883	0.00453358	0.00177635	0.000187595	0	0	0	
0.2495	0.0327247	-0.00488933	0.00190633	0.000175213	0	0	0	
0.249667	-0.0293811	0.00541487	0.0019117	0.000179706	0	0	0	
0.249833	0.0308512	-0.00527564	0.00186537	0.00019197	0	0	0	
0.25	-0.0337769	0.00593856	0.00189125	0.000196858	0	0	0	
0.250167	0.0335443	-0.00591101	0.00198194	0.000186681	0	0	0	
0.250333	-0.0309717	0.00598308	0.00202006	0.000184267	0	0	0	
0.2505	0.0334273	-0.00397146	0.00195467	0.00019681	0	0	0	
0.250667	-0.038332	0.00293246	0.00188064	0.000209674	0	0	0	
0.250833	0.041913	-0.00350984	0.00189982	0.000195837	0	0	0	
0.251	-0.0351344	0.00537538	0.0019641	0.000169915	0	0	0	
0.251167	0.0360813	-0.00568128	0.0020203	0.000162289	0	0	0	
0.251333	-0.0259642	0.00479331	0.00200503	0.000183616	0	0	0	
0.2515	0.0261773	-0.00602562	0.001951	0.00021098	0	0	0	
0.251667	-0.0358678	0.00822603	0.00184957	0.000229522	0	0	0	
0.251833	0.0443519	-0.00746218	0.00177883	0.000244963	0	0	0	
0.252	-0.0428697	0.00718042	0.00178182	0.000261402	0	0	0	
0.252167	0.0430704	-0.00715475	0.0018693	0.000257487	0	0	0	
0.252333	-0.0406409	0.00806577	0.0019827	0.000234396	0	0	0	
0.2525	0.032276	-0.00934137	0.00206482	0.000214841	0	0	0	
0.252667	-0.0264167	0.00939421	0.00204513	0.00021385	0	0	0	
0.252833	0.0295062	-0.00905938	0.00192096	0.000217838	0	0	0	
0.253	-0.034361	0.00997499	0.00179815	0.000217765	0	0	0	
0.253167	0.0391734	-0.00830205	0.00176696	0.000217597	0	0	0	
0.253333	-0.041749	0.00600071	0.00180905	0.000209986	0	0	0	
0.2535	0.040023	-0.00633895	0.00186439	0.000191735	0	0	0	
0.253667	-0.0336607	0.00733084	0.00188522	0.000169774	0	0	0	
0.253833	0.0320869	-0.00687596	0.00186829	0.000163146	0	0	0	
0.254	-0.0373916	0.00629216	0.00184618	0.000169632	0	0	0	
0.254167	0.0329458	-0.00639096	0.0018859	0.000179539	0	0	0	
0.254333	-0.0221264	0.00668092	0.00197574	0.000177235	0	0	0	
0.2545	0.025103	-0.0104433	0.00195382	0.000173914	0	0	0	
0.254667	-0.0362976	0.0129742	0.00178757	0.000195347	0	0	0	
0.254833	0.0389385	-0.00205112	0.00166725	0.000292622	0	0	0	
0.255	-0.0262646	-0.0287001	0.00169819	0.000439383	0	0	0	
0.255167	0.0287322	0.0434587	0.00175648	0.000580713	0	0	0	
0.255333	-0.0464936	-0.0223413	0.00172741	0.000659137	0	0	0	
0.2555	0.0599608	-0.00714796	0.00171406	0.000678739	0	0	0	
0.255667	-0.0563367	0.0208087	0.0018142	0.00057492	0	0	0	
0.255833	0.0487615	-0.0204846	0.00199773	0.000470853	0	0	0	
0.256	-0.0350673	0.00450629	0.00213615	0.000421738	0	0	0	
0.256167	0.023497	0.0207457	0.00217931	0.000559001	0	0	0	
0.256333	-0.0218206	-0.0297374	0.00208478	0.000691108	0	0	0	
0.2565	0.0291997	0.0197397	0.00184167	0.000672565	0	0	0	
0.256667	-0.0456074	-0.00171757	0.00158327	0.00048227	0	0	0	
0.256833	0.05725	-0.00800203	0.00150307	0.000260386	0	0	0	
0.257	-0.0496816	0.00506909	0.00166159	0.000166299	0	0	0	
0.257167	0.04258	0.00143026	0.00190022	0.000173465	0	0	0	
0.257333	-0.0425332	-0.00181908	0.00202365	0.000168986	0	0	0	
0.2575	0.0424566	-0.00273329	0.00199571	0.000115275	0	0	0	
0.257667	-0.0477085	0.00628791	0.00189947	6.84239E-05	0	0	0	
0.257833	0.0539339	-0.00716912	0.00187823	9.05126E-05	0	0	0	
0.258	-0.043025	0.00707941	0.00199052	0.000146888	0	0	0	
0.258167	0.0353176	-0.00544511	0.00214853	0.000184014	0	0	0	
0.258333	-0.0447471	0.00445025	0.00218925	0.000185775	0	0	0	
0.2585	0.0405101	-0.0077595	0.00209663	0.000172515	0	0	0	
0.258667	-0.0368509	0.00942058	0.0019724	0.000168629	0	0	0	
0.258833	0.0438796	-0.00757127	0.00187601	0.000191167	0	0	0	
0.259	-0.047847	0.00533586	0.00182666	0.00021479	0	0	0	
0.259167	0.0459852	-0.00677677	0.00184755	0.00021246	0	0	0	
0.259333	-0.0446437	0.00945065	0.00191118	0.000198305	0	0	0	
0.2595	0.0415673	-0.00769508	0.00195409	0.000205081	0	0	0	
0.259667	-0.0373082	-0.000418465	0.00192302	0.000231592	0	0	0	
0.259833	0.0443792	0.00389819	0.00186579	0.000217652	0	0	0	
0.26	-0.0495946	0.00184109	0.00182124	0.000146033	0	0	0	
0.260167	0.0478319	-0.00963712	0.00184777	9.41982E-05	0	0	0	
0.260333	-0.0391739	0.0101675	0.00192164	0.000115874	0	0	0	
0.2605	0.0393753	-0.00688014	0.00197764	0.000183681	0	0	0	
0.260667	-0.0409656	0.00414131	0.00192936	0.000223772	0	0	0	
0.260833	0.0481805	-0.00154585	0.00185855	0.0002261	0	0	0	
0.261	-0.0432266	0.00154611	0.00182985	0.000211144	0	0	0	
0.261167	0.0417277	-0.00381564	0.00185181	0.000184428	0	0	0	
0.261333	-0.0401509	0.00685498	0.00181747	0.000167842	0	0	0	
0.2615	0.0419495	-0.00699503	0.00175384	0.000171497	0	0	0	
0.261667	-0.0387591	0.00584846	0.00168736	0.000191438	0	0	0	
0.261833	0.0402728	-0.00547989	0.00165471	0.000196417	0	0	0	
0.262	-0.0497197	0.00633594	0.00167082	0.000187103	0	0	0	
0.262167	0.049272	-0.00694801	0.00176283	0.000177853	0	0	0	
0.262333	-0.036443	0.00838242	0.00188763	0.000181548	0	0	0	
0.2625	0.0318989	-0.00951656	0.00193438	0.000199295	0	0	0	
0.262667	-0.0299803	0.00789263	0.00186159	0.000212725	0	0	0	
0.262833	0.0365282	-0.00545292	0.00173725	0.00020796	0	0	0	
0.263	-0.0442746	0.0070638	0.00166765	0.000192639	0	0	0	
0.263167	0.0538357	-0.00848515	0.00171361	0.000189846	0	0	0	
0.263333	-0.0558178	0.00664611	0.00181207	0.000204098	0	0	0	
0.2635	0.0605795	-0.00475687	0.00194333	0.000209797	0	0	0	
0.263667	-0.0439011	0.00599691	0.00197634	0.000191872	0	0	0	
0.263833	0.0507401	-0.00882257	0.00193203	0.000176152	0	0	0	
0.264	-0.0487766	0.00965294	0.0017863	0.000182683	0	0	0	
0.264167	0.0556132	-0.0109504	0.00169569	0.000220399	0	0	0	
0.264333	-0.0526274	0.00998276	0.00162544	0.000256157	0	0	0	
0.2645	0.0681044	-0.00544942	0.00162717	0.000260421	0	0	0	
0.264667	-0.0624788	0.00318278	0.0016671	0.000246102	0	0	0	
0.264833	0.0635914	-0.0043853	0.00177174	0.000221508	0	0	0	
0.265	-0.0642524	0.00675998	0.00188081	0.000203533	0	0	0	
0.265167	0.0562332	-0.0102941	0.00190975	0.000196491	0	0	0	
0.265333	-0.0405195	0.0109913	0.00187876	0.000211696	0	0	0	
0.2655	0.0371529	-0.00739813	0.00179905	0.000228891	0	0	0	
0.265667	-0.039701	0.00749192	0.00169723	0.000233957	0	0	0	
0.265833	0.0571047	-0.00922562	0.00159331	0.000227627	0	0	0	
0.266	-0.077568	0.0102441	0.00158117	0.000240623	0	0	0	
0.266167	0.0792217	-0.0109422	0.00172491	0.000262518	0	0	0	
0.266333	-0.0612896	0.0103532	0.00196139	0.00026868	0	0	0	
0.2665	0.0465032	-0.0106803	0.00215355	0.000253298	0	0	0	
0.266667	-0.0414703	0.0106236	0.00216177	0.00023329	0	0	0	
0.266833	0.0497832	-0.00870792	0.00200866	0.000220343	0	0	0	
0.267	-0.0607821	0.00902518	0.0018246	0.000216906	0	0	0	
0.267167	0.057687	-0.00985326	0.00174461	0.000214415	0	0	0	
0.267333	-0.0580515	0.0101437	0.00180064	0.00021594	0	0	0	
0.2675	0.0582317	-0.00915653	0.0018949	0.000212209	0	0	0	
0.267667	-0.0543196	0.00852922	0.00198896	0.000200757	0	0	0	
0.267833	0.0515112	-0.00736454	0.00202849	0.000190583	0	0	0	
0.268	-0.0525073	0.00765858	0.00196928	0.000189187	0	0	0	
0.268167	0.0558497	-0.00883501	0.00188466	0.000192588	0	0	0	
0.268333	-0.0567308	0.0104933	0.00187038	0.00019886	0	0	0	
0.2685	0.0485802	-0.0101243	0.00192342	0.000207611	0	0	0	
0.268667	-0.0465277	0.00907357	0.0019361	0.000209661	0	0	0	
0.268833	0.0500444	-0.00753765	0.00186664	0.000209624	0	0	0	
0.269	-0.0578464	0.0060626	0.00180768	0.000200687	0	0	0	
0.269167	0.058128	-0.00645617	0.00181807	0.000188834	0	0	0	
0.269333	-0.0593915	0.00836487	0.00188347	0.000176511	0	0	0	
0.2695	0.0547975	-0.00766519	0.00192943	0.000170553	0	0	0	
0.269667	-0.0544153	0.00956975	0.00193465	0.000177042	0	0	0	
0.269833	0.0552791	-0.0163547	0.00189618	0.00020699	0	0	0	
0.27	-0.0560807	0.0206408	0.00186995	0.000279941	0	0	0	
0.270167	0.0542711	-0.0133934	0.00191132	0.000364067	0	0	0	
0.270333	-0.0486713	0.00566643	0.0019461	0.000403201	0	0	0	
0.2705	0.0522173	-0.00370061	0.00195163	0.000354977	0	0	0	
0.270667	-0.0595667	0.0059502	0.00190241	0.000260111	0	0	0	
0.270833	0.0627847	-0.0115449	0.00187371	0.000194669	0	0	0	
0.271	-0.0588786	0.018867	0.00187359	0.00021049	0	0	0	
0.271167	0.0575906	-0.020047	0.00192917	0.000285895	0	0	0	
0.271333	-0.0522601	0.015529	0.00198148	0.000334016	0	0	0	
0.2715	0.0566858	-0.010988	0.00200304	0.000336681	0	0	0	
0.271667	-0.0578151	0.00755481	0.00195475	0.00029421	0	0	0	
0.271833	0.0555954	-0.00769652	0.00188953	0.000246918	0	0	0	
0.272	-0.0559643	0.0103618	0.00183092	0.000208364	0	0	0	
0.272167	0.0595119	-0.0111741	0.00181769	0.000200452	0	0	0	
0.272333	-0.0596093	0.00804124	0.00187096	0.000211935	0	0	0	
0.2725	0.0562066	-0.00490376	0.00193147	0.000205733	0	0	0	
0.272667	-0.0522869	0.00611353	0.00191644	0.000178401	0	0	0	
0.272833	0.0537216	-0.00824867	0.00184793	0.000158286	0	0	0	
0.273	-0.0554369	0.00994523	0.00180373	0.000162525	0	0	0	
0.273167	0.0574223	-0.00958671	0.0018299	0.000186534	0	0	0	
0.273333	-0.0574914	0.00814005	0.00189129	0.000204117	0	0	0	
0.2735	0.0555047	-0.00707001	0.0019317	0.00020189	0	0	0	
0.273667	-0.0609533	0.00758645	0.00192741	0.000178274	0	0	0	
0.273833	0.0628525	-0.00923723	0.00188593	0.000168733	0	0	0	
0.274	-0.059977	0.00973247	0.00185712	0.000177462	0	0	0	
0.274167	0.0535553	-0.00894508	0.00187392	0.000201164	0	0	0	
0.274333	-0.0496165	0.00767296	0.00188818	0.00020177	0	0	0	
0.2745	0.0533954	-0.00878093	0.00187443	0.000193094	0	0	0	
0.274667	-0.0592657	0.00786711	0.0018347	0.000178043	0	0	0	
0.274833	0.0630922	-0.00822248	0.00181604	0.000179104	0	0	0	
0.275	-0.0602622	0.0095143	0.0017662	0.000191698	0	0	0	
0.275167	0.0713559	-0.0115165	0.00172473	0.00021261	0	0	0	
0.275333	-0.0847585	0.011663	0.00178636	0.000227782	0	0	0	
0.2755	0.0726098	-0.0102917	0.00201856	0.000230664	0	0	0	
0.275667	-0.0489152	0.0087254	0.00225518	0.000232729	0	0	0	
0.275833	0.038271	-0.0074515	0.00221695	0.000228153	0	0	0	
0.276	-0.0449341	0.00828442	0.00189408	0.000220639	0	0	0	
0.276167	0.0637433	-0.0096585	0.00155502	0.000208788	0	0	0	
0.276333	-0.0823508	0.0117559	0.00148905	0.000205704	0	0	0	
0.2765	0.0844041	-0.0146019	0.001699	0.000225438	0	0	0	
0.276667	-0.0664834	0.0141384	0.00195224	0.000253513	0	0	0	
0.276833	0.0504125	-0.011792	0.00202623	0.000284956	0	0	0	
0.277	-0.050274	0.00892922	0.00190257	0.000292217	0	0	0	
0.277167	0.0592553	-0.00710895	0.00174078	0.000276237	0	0	0	
0.277333	-0.0667426	0.00632973	0.00167122	0.000239594	0	0	0	
0.2775	0.0748672	-0.00929326	0.00171197	0.000210394	0	0	0	
0.277667	-0.0728479	0.0113527	0.00182766	0.000201063	0	0	0	
0.277833	0.0500219	-0.0128864	0.00195786	0.000216345	0	0	0	
0.278	-0.0403304	0.0116832	0.001988	0.000232534	0	0	0	
0.278167	0.0569066	-0.0102827	0.0018278	0.000241336	0	0	0	
0.278333	-0.0730306	0.0102151	0.0016607	0.000240122	0	0	0	
0.2785	0.071121	-0.0102609	0.0016706	0.000237239	0	0	0	
0.278667	-0.067023	0.00940778	0.00183548	0.000231698	0	0	0	
0.278833	0.0649128	-0.00900512	0.00195663	0.000220024	0	0	0	
0.279	-0.0584101	0.00883307	0.00195741	0.000205354	0	0	0	
0.279167	0.0547903	-0.00860871	0.00193194	0.000198685	0	0	0	
0.279333	-0.0525506	0.00740852	0.00184535	0.000196019	0	0	0	
0.2795	0.0621262	-0.00691266	0.00176934	0.000189538	0	0	0	
0.279667	-0.0644671	0.00777922	0.00170476	0.000177011	0	0	0	
0.279833	0.0700362	-0.00849239	0.00174375	0.000171465	0	0	0	
0.28	-0.0670646	0.0105092	0.00179516	0.000185161	0	0	0	
0.280167	0.0624156	-0.0102864	0.00188308	0.000211612	0	0	0	
0.280333	-0.0483732	0.00761114	0.00193652	0.00022652	0	0	0	
0.2805	0.0524673	-0.00872449	0.00193214	0.000226697	0	0	0	
0.280667	-0.062841	0.0107579	0.0018243	0.000218745	0	0	0	
0.280833	0.0660939	-0.0107018	0.00174577	0.000221713	0	0	0	
0.281	-0.060876	0.00966319	0.00177669	0.000225913	0	0	0	
0.281167	0.0600493	-0.0100955	0.00185908	0.000225326	0	0	0	
0.281333	-0.0637168	0.0110855	0.00189359	0.000219125	0	0	0	
0.2815	0.0689639	-0.0105302	0.0018895	0.000216813	0	0	0	
0.281667	-0.0656745	0.00946053	0.00187086	0.000212622	0	0	0	
0.281833	0.0628667	-0.00818209	0.0018621	0.000201931	0	0	0	
0.282	-0.0618547	0.00786661	0.00183655	0.000185943	0	0	0	
0.282167	0.0629455	-0.00879211	0.00181796	0.000181985	0	0	0	
0.282333	-0.063458	0.00900802	0.0017972	0.000188272	0	0	0	
0.2825	0.0726551	-0.00876655	0.00181733	0.000194649	0	0	0	
0.282667	-0.0741094	0.00845357	0.00188496	0.00018574	0	0	0	
0.282833	0.0702509	-0.00923537	0.00197335	0.000181908	0	0	0	
0.283	-0.0652872	0.0105214	0.00199563	0.000189338	0	0	0	
0.283167	0.0613111	-0.0112422	0.00192537	0.000214364	0	0	0	
0.283333	-0.0601165	0.0107657	0.00181368	0.000234911	0	0	0	
0.2835	0.0694235	-0.00983356	0.00176088	0.000237307	0	0	0	
0.283667	-0.0840506	0.00909879	0.00183283	0.000217823	0	0	0	
0.283833	0.0832762	-0.00919285	0.00198973	0.000197675	0	0	0	
0.284	-0.0726464	0.00882666	0.00209369	0.0001896	0	0	0	
0.284167	0.0613304	-0.00964436	0.00207363	0.000193899	0	0	0	
0.284333	-0.0591715	0.011051	0.00198126	0.00019746	0	0	0	
0.2845	0.0610566	-0.0103237	0.00187997	0.00020274	0	0	0	
0.284667	-0.0741901	0.00758208	0.0018409	0.000197836	0	0	0	
0.284833	0.0763099	-0.00708362	0.00188714	0.000190077	0	0	0	
0.285	-0.071216	0.00747902	0.00194118	0.000174866	0	0	0	
0.285167	0.071996	-0.00843607	0.00195429	0.000174978	0	0	0	
0.285333	-0.0707859	0.0079186	0.00193016	0.000179967	0	0	0	
0.2855	0.0599102	-0.00830815	0.00194382	0.000191615	0	0	0	
0.285667	-0.0553299	0.0102474	0.00185114	0.000197082	0	0	0	
0.285833	0.0798038	-0.0113824	0.00173965	0.000209457	0	0	0	
0.286	-0.0906278	0.0102619	0.00167281	0.000223553	0	0	0	
0.286167	0.0878277	-0.00636426	0.00188624	0.000240992	0	0	0	
0.286333	-0.0676106	0.00354085	0.00208512	0.000226715	0	0	0	
0.2865	0.0639326	-0.00728136	0.00220258	0.000192932	0	0	0	
0.286667	-0.0420936	0.0126641	0.00210448	0.000173811	0	0	0	
0.286833	0.0430412	-0.0144462	0.00187859	0.00020362	0	0	0	
0.287	-0.088695	0.0122743	0.001623	0.000243263	0	0	0	
0.287167	0.0970617	-0.0112814	0.00171048	0.000266772	0	0	0	
0.287333	-0.113472	0.00966288	0.00184187	0.000260478	0	0	0	
0.2875	0.105477	-0.006997	0.00226979	0.000246703	0	0	0	
0.287667	-0.0760053	0.00818265	0.00249509	0.000217106	0	0	0	
0.287833	0.0257923	-0.0132141	0.00264643	0.000204634	0	0	0	
0.288	0.0259424	0.0153487	0.00239002	0.000223177	0	0	0	
0.288167	0.0322465	-0.0110706	0.00179206	0.000250444	0	0	0	
0.288333	-0.0541102	0.00347385	0.00114872	0.000247375	0	0	0	
0.2885	0.0988076	0.00033301	0.0010662	0.000181933	0	0	0	
0.288667	-0.112423	0.00493319	0.00147776	0.000131288	0	0	0	
0.288833	0.0853495	-0.0117327	0.00210956	0.000121792	0	0	0	
0.289	-0.0333227	0.0127983	0.00231521	0.000173118	0	0	0	
0.289167	0.075857	-0.00896572	0.00243839	0.000207507	0	0	0	
0.289333	-0.0704987	0.00646423	0.00239502	0.000207625	0	0	0	
0.2895	0.0765592	-0.00430772	0.00225298	0.000192526	0	0	0	
0.289667	-0.0791506	0.00311916	0.00200319	0.000176619	0	0	0	
0.289833	0.0698414	-0.0044493	0.0019274	0.000152932	0	0	0	
0.29	-0.0603813	0.00961531	0.00192768	0.000138701	0	0	0	
0.290167	0.0606007	-0.0110092	0.0018498	0.000151913	0	0	0	
0.290333	-0.0668098	0.00957177	0.00174686	0.000188522	0	0	0	
0.2905	0.0697326	-0.00865909	0.00171672	0.000212931	0	0	0	
0.290667	-0.0704095	0.00754489	0.00173176	0.000202093	0	0	0	
0.290833	0.0732351	-0.0087872	0.00176996	0.000183885	0	0	0	
0.291	-0.0758721	0.00995374	0.00179023	0.000174405	0	0	0	
0.291167	0.0782515	-0.0100197	0.00182954	0.000187866	0	0	0	
0.291333	-0.074048	0.0105491	0.00187194	0.000205074	0	0	0	
0.2915	0.0660844	-0.0108087	0.00189847	0.000215705	0	0	0	
0.291667	-0.0631689	0.00998228	0.00187307	0.00021697	0	0	0	
0.291833	0.0670815	-0.00937277	0.00182199	0.000205362	0	0	0	
0.292	-0.0743237	0.0103344	0.0017924	0.000199834	0	0	0	
0.292167	0.0760147	-0.0100592	0.00180233	0.000201894	0	0	0	
0.292333	-0.0727414	0.0110491	0.00181696	0.000220853	0	0	0	
0.2925	0.0717536	-0.0114153	0.00182204	0.000232725	0	0	0	
0.292667	-0.0756709	0.0104506	0.00183567	0.000234054	0	0	0	
0.292833	0.0773186	-0.00853245	0.00187944	0.000211467	0	0	0	
0.293	-0.0752352	0.00980744	0.00191108	0.000193946	0	0	0	
0.293167	0.0742	-0.0103517	0.00190262	0.000189602	0	0	0	
0.293333	-0.0719272	0.0109396	0.00185495	0.000203128	0	0	0	
0.2935	0.0719302	-0.0103579	0.00182724	0.00021058	0	0	0	
0.293667	-0.0699644	0.00920438	0.00182372	0.000206043	0	0	0	
0.293833	0.0718435	-0.00791425	0.00181409	0.000193289	0	0	0	
0.294	-0.075844	0.00970343	0.00179514	0.000181811	0	0	0	
0.294167	0.075088	-0.0111183	0.00180116	0.000186149	0	0	0	
0.294333	-0.0744422	0.00890128	0.00183947	0.000199076	0	0	0	
0.2945	0.074929	-0.00741109	0.00186927	0.000204338	0	0	0	
0.294667	-0.0765069	0.00945978	0.00186978	0.000188985	0	0	0	
0.294833	0.0729803	-0.0141633	0.00186507	0.000194131	0	0	0	
0.295	-0.0715569	0.0140996	0.00185499	0.000223749	0	0	0	
0.295167	0.0779066	-0.0111501	0.00183778	0.000267067	0	0	0	
0.295333	-0.077052	0.00854409	0.00183118	0.000279879	0	0	0	
0.2955	0.0712571	-0.00827167	0.00183667	0.000256531	0	0	0	
0.295667	-0.0679511	0.0082584	0.00180688	0.000216724	0	0	0	
0.295833	0.061552	-0.0107336	0.00176013	0.000191921	0	0	0	
0.296	-0.0586219	0.0121563	0.00169758	0.000197399	0	0	0	
0.296167	0.0651927	-0.0130685	0.00164209	0.000220345	0	0	0	
0.296333	-0.0716072	0.0146226	0.00164434	0.000245858	0	0	0	
0.2965	0.0628496	-0.0126667	0.00169829	0.000260394	0	0	0	
0.296667	-0.0559394	0.0113592	0.00172841	0.000260486	0	0	0	
0.296833	0.0667431	-0.0124372	0.00168727	0.00025095	0	0	0	
0.297	-0.0740763	0.0119469	0.00165729	0.000241007	0	0	0	
0.297167	0.0738422	-0.00840546	0.00174436	0.000231261	0	0	0	
0.297333	-0.0746142	0.00683295	0.00184552	0.000207166	0	0	0	
0.2975	0.0780435	-0.00834816	0.00190892	0.000180314	0	0	0	
0.297667	-0.0764418	0.0110137	0.00191394	0.000168385	0	0	0	
0.297833	0.0727067	-0.00998441	0.00193376	0.000178323	0	0	0	
0.298	-0.0619995	0.00873765	0.00191138	0.000184788	0	0	0	
0.298167	0.0655647	-0.0102023	0.00185417	0.000186805	0	0	0	
0.298333	-0.0725733	0.0110745	0.00175589	0.000187718	0	0	0	
0.2985	0.0810675	-0.00862451	0.00173199	0.000195896	0	0	0	
0.298667	-0.0757421	0.0068781	0.00172706	0.000193705	0	0	0	
0.298833	0.083157	-0.00654971	0.00176286	0.000179091	0	0	0	
0.299	-0.0839075	0.00726063	0.00179219	0.00015807	0	0	0	
0.299167	0.0848504	-0.00801865	0.001858	0.000151329	0	0	0	
0.299333	-0.0784082	0.00908743	0.00192073	0.000153006	0	0	0	
0.2995	0.0758849	-0.0110869	0.0019524	0.000170348	0	0	0	
0.299667	-0.0699609	0.0108045	0.00189792	0.00018974	0	0	0	
0.299833	0.076725	-0.0094766	0.00181627	0.000208495	0	0	0	
0.3	-0.0775198	0.00834133	0.00178587	0.000208645	0	0	0	
0.300167	0.0753313	-0.0088686	0.00181396	0.000197124	0	0	0	
0.300333	-0.0842755	0.01101	0.00186981	0.000186801	0	0	0	
0.3005	0.0877392	-0.0121539	0.00190825	0.000194178	0	0	0	
0.300667	-0.0825682	0.00973088	0.00198152	0.000209126	0	0	0	
0.300833	0.0750624	-0.00697559	0.00199765	0.000214731	0	0	0	
0.301	-0.0807181	0.00730563	0.00195477	0.000195045	0	0	0	
0.301167	0.0805547	-0.0103481	0.00188867	0.000178058	0	0	0	
0.301333	-0.079675	0.0111636	0.00186404	0.000176475	0	0	0	
0.3015	0.0821935	-0.0111417	0.00186477	0.000195279	0	0	0	
0.301667	-0.0893958	0.0098915	0.00187205	0.000208847	0	0	0	
0.301833	0.0842335	-0.00785249	0.00192443	0.000204719	0	0	0	
0.302	-0.0773545	0.0079417	0.0019241	0.000188992	0	0	0	
0.302167	0.0815677	-0.011506	0.00189502	0.000183347	0	0	0	
0.302333	-0.0879988	0.0126886	0.00185006	0.000202677	0	0	0	
0.3025	0.0833064	-0.0119752	0.00190131	0.000224627	0	0	0	
0.302667	-0.0782599	0.0120442	0.00194611	0.000238337	0	0	0	
0.302833	0.0873604	-0.0111732	0.00196605	0.000240014	0	0	0	
0.303	-0.0832248	0.010533	0.00198641	0.000237204	0	0	0	
0.303167	0.0628674	-0.0122709	0.00199306	0.000236149	0	0	0	
0.303333	-0.0700403	0.0128515	0.00188116	0.000239443	0	0	0	
0.3035	0.100104	-0.0139348	0.00177012	0.000252166	0	0	0	
0.303667	-0.113426	0.0158332	0.00183347	0.000262402	0	0	0	
0.303833	0.0923255	-0.0148892	0.002109	0.000276192	0	0	0	
0.304	-0.0760742	0.010326	0.00225439	0.000274686	0	0	0	
0.304167	0.0733186	-0.00823936	0.00214994	0.000248673	0	0	0	
0.304333	-0.0748803	0.00743001	0.00191107	0.000201598	0	0	0	
0.3045	0.0797398	-0.00786278	0.00175821	0.00016604	0	0	0	
0.304667	-0.0940798	0.00963758	0.00172023	0.000158186	0	0	0	
0.304833	0.111218	-0.00898158	0.00183235	0.00016187	0	0	0	
0.305	-0.105025	0.00731597	0.00197922	0.000166299	0	0	0	
0.305167	0.0883436	-0.00499659	0.00212432	0.000150381	0	0	0	
0.305333	-0.0737873	0.00635205	0.00212104	0.000130071	0	0	0	
0.3055	0.0711742	-0.00884959	0.00199089	0.000125607	0	0	0	
0.305667	-0.0772184	0.0102236	0.00179837	0.00014458	0	0	0	
0.305833	0.0824667	-0.0100266	0.00168927	0.0001719	0	0	0	
0.306	-0.0786951	0.00893932	0.00168699	0.000191181	0	0	0	
0.306167	0.0770514	-0.00444085	0.00173138	0.00019272	0	0	0	
0.306333	-0.0871035	0.00360954	0.00172492	0.000168179	0	0	0	
0.3065	0.0967181	-0.00644832	0.00176205	0.000134966	0	0	0	
0.306667	-0.0932425	0.00882467	0.00185388	0.000128244	0	0	0	
0.306833	0.0827843	-0.00863513	0.0019501	0.000140819	0	0	0	
0.307	-0.0775406	0.00872148	0.00193957	0.000159478	0	0	0	
0.307167	0.0815217	-0.00825498	0.00187427	0.000164508	0	0	0	
0.307333	-0.0810969	0.00837042	0.00178669	0.000168497	0	0	0	
0.3075	0.0840235	-0.00898871	0.0017776	0.000169501	0	0	0	
0.307667	-0.0814313	0.0100073	0.00177928	0.000171718	0	0	0	
0.307833	0.0815143	-0.00891123	0.00180674	0.000175664	0	0	0	
0.308	-0.0848669	0.00885359	0.00182306	0.000179038	0	0	0	
0.308167	0.0818183	-0.00807595	0.00186484	0.000178185	0	0	0	
0.308333	-0.0790875	0.00983149	0.00185388	0.000178193	0	0	0	
0.3085	0.0900627	-0.0107692	0.00184925	0.000184998	0	0	0	
0.308667	-0.091155	0.011201	0.00186742	0.000195739	0	0	0	
0.308833	0.0869289	-0.0107227	0.00192995	0.00020918	0	0	0	
0.309	-0.0879031	0.0116373	0.00196006	0.000215948	0	0	0	
0.309167	0.0903552	-0.0129889	0.0019442	0.000225185	0	0	0	
0.309333	-0.0893039	0.0131548	0.00193423	0.000233554	0	0	0	
0.3095	0.0766048	-0.0125078	0.00191183	0.000244652	0	0	0	
0.309667	-0.0572099	0.0123318	0.00182021	0.000245876	0	0	0	
0.309833	0.0581306	-0.0113297	0.00165152	0.000244465	0	0	0	
0.31	-0.081915	0.010565	0.00150658	0.000227297	0	0	0	
0.310167	0.0997032	-0.0105547	0.0015263	0.000216072	0	0	0	
0.310333	-0.0887881	0.00919626	0.00166771	0.000201705	0	0	0	
0.3105	0.080069	-0.00954651	0.00179323	0.000193842	0	0	0	
0.310667	-0.091883	0.0125447	0.00180744	0.000193869	0	0	0	
0.310833	0.103717	-0.0136849	0.00187674	0.000212559	0	0	0	
0.311	-0.093412	0.0126854	0.00202522	0.000237145	0	0	0	
0.311167	0.0780406	-0.0138943	0.00209001	0.000251927	0	0	0	
0.311333	-0.0780077	0.0114327	0.00197309	0.000252581	0	0	0	
0.3115	0.0827036	-0.00766657	0.00181558	0.000246481	0	0	0	
0.311667	-0.0671145	0.009217	0.00176454	0.000224097	0	0	0	
0.311833	0.0596288	-0.0121681	0.00168385	0.000210961	0	0	0	
0.312	-0.0837703	0.0125261	0.00156804	0.000215153	0	0	0	
0.312167	0.10842	-0.0104715	0.00158568	0.000224459	0	0	0	
0.312333	-0.10985	0.0114008	0.00179418	0.000220398	0	0	0	
0.3125	0.0987802	-0.0121115	0.00205242	0.000217402	0	0	0	
0.312667	-0.0896492	0.0102813	0.00211386	0.000221021	0	0	0	
0.312833	0.091051	-0.0103482	0.00206632	0.000224899	0	0	0	
0.313	-0.0882689	0.0125514	0.00199043	0.000219519	0	0	0	
0.313167	0.0783246	-0.0123646	0.00196028	0.00022255	0	0	0	
0.313333	-0.0791222	0.0108509	0.0018991	0.000224934	0	0	0	
0.3135	0.0915204	-0.0107416	0.00182565	0.000224168	0	0	0	
0.313667	-0.0950583	0.0119304	0.00181049	0.000217784	0	0	0	
0.313833	0.087423	-0.0127167	0.00187075	0.000221637	0	0	0	
0.314	-0.0822194	0.0110336	0.00189565	0.000227311	0	0	0	
0.314167	0.0859509	-0.00996951	0.00185238	0.000225747	0	0	0	
0.314333	-0.0847207	0.0106903	0.00179186	0.000211529	0	0	0	
0.3145	0.0864788	-0.0100876	0.00177134	0.000201106	0	0	0	
0.314667	-0.096279	0.0102984	0.00178897	0.000195918	0	0	0	
0.314833	0.099786	-0.0126903	0.00186899	0.00020616	0	0	0	
0.315	-0.0924795	0.0145286	0.00195921	0.000226959	0	0	0	
0.315167	0.0859322	-0.0125176	0.00202187	0.000246643	0	0	0	
0.315333	-0.0840345	0.00966384	0.00196645	0.000241476	0	0	0	
0.3155	0.0866178	-0.00836303	0.001889	0.000211773	0	0	0	
0.315667	-0.0833986	0.0103665	0.00180374	0.000186389	0	0	0	
0.315833	0.0914585	-0.0122965	0.00179392	0.00019248	0	0	0	
0.316	-0.0974344	0.0114929	0.00181458	0.000207423	0	0	0	
0.316167	0.100127	-0.0102047	0.00190216	0.000218926	0	0	0	
0.316333	-0.0918943	0.00913495	0.00195933	0.000209417	0	0	0	
0.3165	0.0894717	-0.00875442	0.00197568	0.000195071	0	0	0	
0.316667	-0.0901566	0.010875	0.00193509	0.000187479	0	0	0	
0.316833	0.086937	-0.0117758	0.00189631	0.000197683	0	0	0	
0.317	-0.0852257	0.0128446	0.00186671	0.000215345	0	0	0	
0.317167	0.0855607	-0.0149595	0.00182561	0.000237331	0	0	0	
0.317333	-0.0804434	0.0129074	0.00178159	0.000252312	0	0	0	
0.3175	0.0737437	-0.00882461	0.00172019	0.000246803	0	0	0	
0.317667	-0.0795945	0.00927854	0.00163331	0.000216527	0	0	0	
0.317833	0.107232	-0.0122885	0.00165688	0.000201189	0	0	0	
0.318	-0.125734	0.0143079	0.00183135	0.000215225	0	0	0	
0.318167	0.109915	-0.0164709	0.00210248	0.000260038	0	0	0	
0.318333	-0.0868019	0.0147437	0.00222889	0.000282409	0	0	0	
0.3185	0.06546	-0.0103758	0.00212848	0.000276709	0	0	0	
0.318667	-0.0528644	0.00761872	0.00182567	0.000240124	0	0	0	
0.318833	0.0621881	-0.00785704	0.00149705	0.00019934	0	0	0	
0.319	-0.0900139	0.00810718	0.00136317	0.000173268	0	0	0	
0.319167	0.112313	-0.0105818	0.0015265	0.000178776	0	0	0	
0.319333	-0.118459	0.0118172	0.00184827	0.000202776	0	0	0	
0.3195	0.105715	-0.0129228	0.00210436	0.000228792	0	0	0	
0.319667	-0.0848882	0.0127993	0.00214153	0.000237148	0	0	0	
0.319833	0.0782727	-0.0115622	0.00203572	0.00023608	0	0	0	
0.32	-0.0821704	0.00900579	0.00183172	0.000222366	0	0	0	
0.320167	0.0919683	-0.00761907	0.00173075	0.000198841	0	0	0	
0.320333	-0.100927	0.006889	0.00174165	0.000165776	0	0	0	
0.3205	0.0928178	-0.00760739	0.00183203	0.000147702	0	0	0	
0.320667	-0.086744	0.00874318	0.00184894	0.000146436	0	0	0	
0.320833	0.0915813	-0.0103253	0.0018265	0.000160132	0	0	0	
0.321	-0.0870491	0.0111673	0.00177625	0.000181755	0	0	0	
0.321167	0.0880319	-0.0111668	0.00176685	0.00019987	0	0	0	
0.321333	-0.0906703	0.0124317	0.00175531	0.000213399	0	0	0	
0.3215	0.0884006	-0.0121174	0.00177889	0.000225756	0	0	0	
0.321667	-0.086815	0.0110212	0.00178114	0.000228997	0	0	0	
0.321833	0.085905	-0.0106901	0.00179543	0.000223915	0	0	0	
0.322	-0.0824905	0.0113446	0.00179124	0.000216568	0	0	0	
0.322167	0.0855893	-0.010818	0.0017858	0.000216079	0	0	0	
0.322333	-0.0924547	0.0129009	0.00177116	0.000223462	0	0	0	
0.3225	0.103213	-0.0157479	0.00182039	0.000240079	0	0	0	
0.322667	-0.104894	0.0145538	0.00195694	0.000263264	0	0	0	
0.322833	0.0925365	-0.00761574	0.00208053	0.00025802	0	0	0	
0.323	-0.0785854	0.00796393	0.00204386	0.000224614	0	0	0	
0.323167	0.0836851	-0.014868	0.00186467	0.000205745	0	0	0	
0.323333	-0.105999	0.0191092	0.00174245	0.000245079	0	0	0	
0.3235	0.106524	-0.0155455	0.0018091	0.000294856	0	0	0	
0.323667	-0.0937631	0.0124778	0.00196179	0.000313901	0	0	0	
0.323833	0.0929139	-0.00987953	0.00199753	0.000280523	0	0	0	
0.324	-0.0934095	0.0128162	0.00193982	0.000242952	0	0	0	
0.324167	0.0769242	-0.0179798	0.00184036	0.000246544	0	0	0	
0.324333	-0.0734852	0.0195762	0.00172097	0.000295675	0	0	0	
0.3245	0.0911635	-0.0162069	0.00163782	0.000342813	0	0	0	
0.324667	-0.100535	0.0137831	0.00167513	0.000333243	0	0	0	
0.324833	0.088208	-0.00855408	0.00181468	0.000280528	0	0	0	
0.325	-0.0835789	0.00430188	0.00186657	0.000208117	0	0	0	
0.325167	0.0984553	-0.00589976	0.00183802	0.000164639	0	0	0	
0.325333	-0.128113	0.0129911	0.00188095	0.000162976	0	0	0	
0.3255	0.124913	-0.0138202	0.00212136	0.00020867	0	0	0	
0.325667	-0.0958587	0.0107	0.00230571	0.00023392	0	0	0	
0.325833	0.0863128	-0.00604296	0.00227101	0.000220619	0	0	0	
0.326	-0.0869467	0.00367784	0.00202713	0.000164555	0	0	0	
0.326167	0.0922004	-0.00625259	0.00185402	0.000129371	0	0	0	
0.326333	-0.0987432	0.00924989	0.00180161	0.000120117	0	0	0	
0.3265	0.111324	-0.0077032	0.00190493	0.00014477	0	0	0	
0.326667	-0.110444	0.00576462	0.00200338	0.000147103	0	0	0	
0.326833	0.106251	-0.00656126	0.00208821	0.000142087	0	0	0	
0.327	-0.0974397	0.00783627	0.00206384	0.000138546	0	0	0	
0.327167	0.0953796	-0.00843143	0.00197899	0.000145545	0	0	0	
0.327333	-0.106277	0.00538699	0.00194665	0.000148668	0	0	0	
0.3275	0.115203	-0.00359546	0.00196712	0.00012583	0	0	0	
0.327667	-0.102745	0.00545681	0.00204394	0.000105487	0	0	0	
0.327833	0.0826702	-0.00913155	0.0020206	0.000104924	0	0	0	
0.328	-0.0734536	0.00864496	0.00186041	0.000136716	0	0	0	
0.328167	0.0805632	-0.00699207	0.00167526	0.000164712	0	0	0	
0.328333	-0.0898262	0.0137867	0.00158543	0.00018283	0	0	0	
0.3285	0.0876498	-0.0127114	0.00162979	0.000217378	0	0	0	
0.328667	-0.0902584	0.00926193	0.00170147	0.000239163	0	0	0	
0.328833	0.0996149	-0.00956441	0.00176207	0.00023632	0	0	0	
0.329	-0.105342	0.0119255	0.00185032	0.000210536	0	0	0	
0.329167	0.092371	-0.0130729	0.00194578	0.000222136	0	0	0	
0.329333	-0.0841308	0.0133639	0.00194634	0.000256677	0	0	0	
0.3295	0.0965204	-0.0145061	0.001886	0.000292441	0	0	0	
0.329667	-0.1062	0.0155563	0.00184881	0.000294131	0	0	0	
0.329833	0.0999649	-0.0135544	0.00191495	0.00028856	0	0	0	
0.33	-0.0978142	0.00795629	0.00195335	0.00027115	0	0	0	
0.330167	0.0973841	-0.00296921	0.00195726	0.000270126	0	0	0	
0.330333	-0.0969991	0.000406066	0.00192338	0.000211332	0	0	0	
