0	-0.0027396	-0.000908448	2.7396E-07	9.08448E-08	0	5	0	
0.000166667	-0.0101247	0.00362082	0.000138883	1.79066E-05	0	5	0	
0.000333333	0.0201897	-0.00429365	0.000329461	4.59588E-05	0	5	0	
0.0005	-0.0200651	0.000467198	0.000496583	6.11462E-05	0	5	0	
0.000666667	0.0142937	0.00169872	0.0004909	7.03704E-05	0	5	0	
0.000833333	-0.0117899	-0.00317166	0.000424522	6.27134E-05	0	5	0	
0.001	0.00989972	0.00329135	0.000383466	7.18702E-05	0	5	0	
0.00116667	-0.00298499	0.000898137	0.000382083	9.87827E-05	0	5	0	
0.00133333	-0.00179858	-0.00470622	0.000439246	0.000143651	0	5	0	
0.0015	-0.00414977	0.00463301	0.000562542	0.000175826	0	5	0	
0.00166667	0.00898504	-0.00453864	0.000667122	0.00015301	0	5	0	
0.00183333	-0.0030412	0.000847421	0.000656492	0.000105954	0	5	0	
0.002	-0.00435239	0.00520627	0.00055938	6.35706E-05	0	5	0	
0.00216667	0.00351937	-0.00737498	0.000531638	7.48322E-05	0	5	0	
0.00233333	0.00181908	0.00732333	0.000609246	0.000108128	0	5	0	
0.0025	-0.00420199	-0.00391013	0.000692883	0.000151327	0	5	0	
0.00266667	0.00360637	0.00195489	0.000703675	0.000157261	0	5	0	
0.00283333	-0.00343789	0.000176924	0.000680622	0.000123395	0	5	0	
0.003	0.00323915	0.00312194	0.000668923	7.58965E-05	0	5	0	
0.00316667	-0.00188182	-0.00285387	0.000654344	4.70847E-05	0	5	0	
0.00333333	0.00049397	0.00327578	0.000635551	5.5015E-05	0	5	0	
0.0035	-0.00289191	0.00089981	0.000645322	7.28343E-05	0	5	0	
0.00366667	0.00596079	-0.000310167	0.000674898	8.8112E-05	0	5	0	
0.00383333	-0.0031243	0.00320323	0.000667361	0.000103163	0	5	0	
0.004	-0.00181595	-0.00152955	0.000618579	0.000127563	0	5	0	
0.00416667	-0.000160432	0.00265764	0.000601231	0.000127112	0	5	0	
0.00433333	0.00309504	0.00154896	0.000629924	0.000105264	0	5	0	
0.0045	-0.00227498	-0.000247602	0.000640991	7.20875E-05	0	5	0	
0.00466667	-0.0004327	0.00145157	0.000607002	8.40376E-05	0	5	0	
0.00483333	-1.97827E-05	0.0034464	0.000586523	0.000119891	0	5	0	
0.005	0.000176841	-0.00543653	0.000608332	0.000149018	0	5	0	
0.00516667	0.000634232	0.00652935	0.000629887	0.00014128	0	5	0	
0.00533333	-0.00145907	-0.00263976	0.000626084	0.000111978	0	5	0	
0.0055	-0.00262629	0.00220965	0.000624953	9.41973E-05	0	5	0	
0.00566667	0.00241219	0.00756663	0.000631908	9.07449E-05	0	5	0	
0.00583333	-2.74593E-05	-0.00707932	0.000612558	0.000107341	0	5	0	
0.006	-0.00582018	0.00337711	0.00057354	0.0001258	0	5	0	
0.00616667	0.00593298	0.000599096	0.000568107	0.000164533	0	5	0	
0.00633333	-0.00118302	-0.00198517	0.000625255	0.000178771	0	5	0	
0.0065	-0.00397446	0.00312406	0.000688757	0.000162663	0	5	0	
0.00666667	0.00224867	-0.00340131	0.00068793	0.000117345	0	5	0	
0.00683333	0.000546813	0.00620031	0.000630499	9.01652E-05	0	5	0	
0.007	-0.0020575	-0.00351925	0.000583975	8.52827E-05	0	5	0	
0.00716667	0.00146382	0.00111131	0.000574277	8.19741E-05	0	5	0	
0.00733333	-0.00371504	0.000219102	0.000578744	6.16945E-05	0	5	0	
0.0075	0.00358426	-0.000645516	0.000590862	4.16702E-05	0	5	0	
0.00766667	-0.00182994	0.00157888	0.000628113	3.07216E-05	0	5	0	
0.00783333	0.000689565	-0.00408059	0.000663425	4.6338E-05	0	5	0	
0.008	-0.000974616	0.00243813	0.000654968	7.68618E-05	0	5	0	
0.00816667	0.00265853	0.00287783	0.000618473	0.000103487	0	5	0	
0.00833333	-0.00240392	-0.000606028	0.000607275	0.00010404	0	5	0	
0.0085	0.00096228	-0.00180804	0.000633529	7.21869E-05	0	5	0	
0.00866667	-0.00145053	0.00371379	0.000654212	6.38517E-05	0	5	0	
0.00883333	0.00266297	0.00392731	0.00064197	8.21055E-05	0	5	0	
0.009	-0.00326021	-0.00186001	0.000618688	0.000180114	0	5	0	
0.00916667	0.00390603	-0.0117215	0.000619485	0.000308532	0	5	0	
0.00933333	-0.00259175	0.0086557	0.000645214	0.000424979	0	5	0	
0.0095	0.00315029	-0.000934821	0.000675607	0.00044133	0	5	0	
0.00966667	-0.00110663	-0.000182375	0.000697543	0.000344881	0	5	0	
0.00983333	-0.00302197	-0.00215013	0.000703402	0.000195431	0	5	0	
0.01	0.00320709	0.021029	0.000652977	0.000128742	0	5	0	
0.0101667	0.00671199	-0.0428022	0.000539332	0.000309859	0	5	0	
0.0103333	-0.0146666	0.0365197	0.000469077	0.000539636	0	5	0	
0.0105	0.0121529	-0.0243639	0.000535787	0.000680485	0	5	0	
0.0106667	-0.00227792	0.00531853	0.000696548	0.000587079	0	5	0	
0.0108333	-0.00177634	0.0114339	0.000783655	0.000478943	0	5	0	
0.011	0.0029438	-0.010944	0.000741758	0.000347248	0	5	0	
0.0111667	-1.4101E-05	-0.000217809	0.000646183	0.000298105	0	5	0	
0.0113333	-0.00439319	0.0132008	0.000574171	0.000269568	0	5	0	
0.0115	0.00980977	-0.0155267	0.000551051	0.000288712	0	5	0	
0.0116667	-0.0092977	0.00769819	0.000578463	0.000287666	0	5	0	
0.0118333	0.00441118	-0.00144851	0.000651467	0.000300046	0	5	0	
0.012	0.000530801	-0.00290988	0.000703077	0.000327924	0	5	0	
0.0121667	0.00248073	0.00781027	0.000684296	0.000294894	0	5	0	
0.0123333	-0.00551242	-0.00305901	0.000627823	0.000211735	0	5	0	
0.0125	0.00592446	-0.00632637	0.000593276	0.000120443	0	5	0	
0.0126667	-0.00644111	0.00946708	0.000597289	0.000109205	0	5	0	
0.0128333	0.00614054	-0.00562197	0.000622219	0.000161911	0	5	0	
0.013	-0.00138941	0.0010599	0.000650386	0.000223893	0	5	0	
0.0131667	0.00186005	0.00032053	0.000646177	0.000215205	0	5	0	
0.0133333	-0.0093622	0.00564872	0.000597851	0.000171106	0	5	0	
0.0135	0.0119958	-0.00983619	0.000571283	0.000163198	0	5	0	
0.0136667	-0.00728689	0.00810708	0.000621747	0.00020503	0	5	0	
0.0138333	0.00325916	-0.00432733	0.000696727	0.000250853	0	5	0	
0.014	-0.00351765	0.00188794	0.000705317	0.000260282	0	5	0	
0.0141667	0.00648033	-0.000109463	0.000660489	0.000249051	0	5	0	
0.0143333	-0.00815932	0.000482019	0.000629152	0.000224639	0	5	0	
0.0145	0.0072338	-0.000525412	0.000634353	0.000173882	0	5	0	
0.0146667	-0.00557142	0.00236179	0.00064567	0.000112908	0	5	0	
0.0148333	0.00608973	-0.00297414	0.00064584	7.1808E-05	0	5	0	
0.015	-0.006998	0.00485176	0.000639574	8.28734E-05	0	5	0	
0.0151667	0.00748175	-0.0060513	0.00063471	0.000113031	0	5	0	
0.0153333	-0.00690409	0.00659199	0.000634146	0.000148234	0	5	0	
0.0155	0.007205	-0.014432	0.000629192	0.00019272	0	5	0	
0.0156667	-0.00911246	0.012692	0.000613255	0.000273714	0	5	0	
0.0158333	0.00964666	-0.00303987	0.000620992	0.000296469	0	5	0	
0.016	-0.00379867	0.0043771	0.000679205	0.000276482	0	5	0	
0.0161667	-0.00014301	-0.00362929	0.000734271	0.000178733	0	5	0	
0.0163333	-0.00617927	0.000674729	0.000704192	0.000131955	0	5	0	
0.0165	0.0110414	-0.000315355	0.00063705	0.000117633	0	5	0	
0.0166667	-0.00566541	-0.00724422	0.000623778	0.00011847	0	5	0	
0.0168333	0.00285792	0.0198434	0.000661445	0.000213314	0	5	0	
0.017	-0.00780293	-0.0154876	0.000655061	0.000267962	0	5	0	
0.0171667	0.0111077	0.0112268	0.000619401	0.000332718	0	5	0	
0.0173333	-0.0101483	-0.000505468	0.00061742	0.00023392	0	5	0	
0.0175	0.0103131	-0.00420943	0.000650091	0.000137324	0	5	0	
0.0176667	-0.0100021	0.00555967	0.000670186	0.00010326	0	5	0	
0.0178333	0.0079736	0.00115016	0.000683808	0.00015661	0	5	0	
0.018	-0.005003	-0.0033431	0.000703486	0.000224688	0	5	0	
0.0181667	0.00498001	0.00317239	0.00070487	0.000217315	0	5	0	
0.0183333	-0.00740821	-0.00236798	0.000672274	0.000175953	0	5	0	
0.0185	0.010685	0.00336318	0.000634881	0.000135625	0	5	0	
0.0186667	-0.0122307	-0.000874867	0.000629917	0.000132325	0	5	0	
0.0188333	0.00947478	-0.000489676	0.000658392	0.000138339	0	5	0	
0.019	-0.0075777	3.42207E-05	0.000686235	0.000137213	0	5	0	
0.0191667	0.00956263	-0.0030987	0.000676832	0.000123197	0	5	0	
0.0193333	-0.0121458	0.00225245	0.000648876	0.000113552	0	5	0	
0.0195	0.0114631	-0.00264072	0.000641451	0.00012847	0	5	0	
0.0196667	-0.0088316	0.000800571	0.000656275	0.000150846	0	5	0	
0.0198333	0.00812313	0.00313341	0.000651225	0.000169213	0	5	0	
0.02	-0.0118918	-0.00356128	0.000625602	0.000161243	0	5	0	
0.0201667	0.0113535	0.00348509	0.000610884	0.000131644	0	5	0	
0.0203333	-0.0112664	4.8324E-05	0.000618942	8.67709E-05	0	5	0	
0.0205	0.0153127	-0.00259181	0.000628698	4.90775E-05	0	5	0	
0.0206667	-0.0131678	0.00166468	0.000645365	3.74991E-05	0	5	0	
0.0208333	0.00895631	-0.00375944	0.000688005	6.44001E-05	0	5	0	
0.021	-0.00595973	0.00340446	0.000706149	9.11105E-05	0	5	0	
0.0211667	0.0111636	-0.0042085	0.000656521	0.00011776	0	5	0	
0.0213333	-0.0169369	0.00247904	0.000590124	0.000133563	0	5	0	
0.0215	0.016436	-0.000991131	0.000596715	0.000148076	0	5	0	
0.0216667	-0.0108778	0.00106362	0.000660727	0.000144298	0	5	0	
0.0218333	0.012852	-0.00256415	0.000690317	0.000147306	0	5	0	
0.022	-0.0126965	-0.00445316	0.000664945	0.000160222	0	5	0	
0.0221667	0.0103524	0.00420011	0.000647147	0.000160659	0	5	0	
0.0223333	-0.00796835	-0.00274774	0.000640976	0.000132116	0	5	0	
0.0225	0.0119552	-0.00295816	0.00061424	8.73936E-05	0	5	0	
0.0226667	-0.0167756	0.003502	0.000578445	5.83406E-05	0	5	0	
0.0228333	0.0156177	-0.00332326	0.000587814	7.07343E-05	0	5	0	
0.023	-0.0117269	0.0031945	0.000647185	0.000100873	0	5	0	
0.0231667	0.00941635	-0.00114526	0.000685891	0.000125022	0	5	0	
0.0233333	-0.0112938	0.00140468	0.00067053	0.000111038	0	5	0	
0.0235	0.0136715	-0.00286284	0.000638484	8.829E-05	0	5	0	
0.0236667	-0.01258	0.00113773	0.000633499	7.19286E-05	0	5	0	
0.0238333	0.0118485	-0.00369251	0.000642617	8.0032E-05	0	5	0	
0.024	-0.0144649	0.00370514	0.000638619	9.28018E-05	0	5	0	
0.0241667	0.0157637	-0.00031729	0.00063738	0.00010637	0	5	0	
0.0243333	-0.0121411	-0.00246336	0.000660219	0.000110442	0	5	0	
0.0245	0.0110842	0.000962923	0.000679161	8.75802E-05	0	5	0	
0.0246667	-0.013642	0.00277702	0.000655057	7.24502E-05	0	5	0	
0.0248333	0.0175677	-0.007165	0.000615818	5.93837E-05	0	5	0	
0.025	-0.0167961	0.00347468	0.000614497	0.000100003	0	5	0	
0.0251667	0.0156837	-0.00112522	0.000662794	0.000138211	0	5	0	
0.0253333	-0.0109471	-6.26458E-05	0.000698504	0.000166665	0	5	0	
0.0255	0.0129379	-0.00138685	0.000691673	0.000154916	0	5	0	
0.0256667	-0.0145109	0.00106875	0.000655628	0.000133943	0	5	0	
0.0258333	0.0150198	-0.00268069	0.000640564	0.000122635	0	5	0	
0.026	-0.0123307	-0.0013344	0.000650543	0.000129178	0	5	0	
0.0261667	0.0138544	0.00236404	0.000669308	0.000157134	0	5	0	
0.0263333	-0.0122745	-0.00495698	0.00067215	0.00017418	0	5	0	
0.0265	0.0136647	0.00324179	0.000674209	0.000163418	0	5	0	
0.0266667	-0.0118613	0.0016072	0.000656205	0.000117533	0	5	0	
0.0268333	0.0152095	-0.0120798	0.000625779	9.73182E-05	0	5	0	
0.027	-0.0186408	0.0153702	0.000598987	0.000143479	0	5	0	
0.0271667	0.0211964	-0.0270334	0.000619703	0.000317272	0	5	0	
0.0273333	-0.0163169	0.00781162	0.000673968	0.000483063	0	5	0	
0.0275	0.0137054	0.0109877	0.000723801	0.000532591	0	5	0	
0.0276667	-0.0108747	-0.00828963	0.000706944	0.000424798	0	5	0	
0.0278333	0.0147403	-0.00254701	0.000655039	0.000260725	0	5	0	
0.028	-0.0166693	0.00731817	0.000621668	0.000173122	0	5	0	
0.0281667	0.0142284	-0.0147823	0.00064006	0.000151341	0	5	0	
0.0283333	-0.0128709	0.00740657	0.000657654	0.000226529	0	5	0	
0.0285	0.01504	0.00015676	0.000639458	0.000214925	0	5	0	
0.0286667	-0.0133111	0.00483009	0.000611866	0.000223593	0	5	0	
0.0288333	0.0138559	-0.009281	0.00060844	0.000178973	0	5	0	
0.029	-0.0134735	0.00889046	0.000593617	0.000218809	0	5	0	
0.0291667	0.0152902	-0.00850875	0.000563781	0.000209447	0	5	0	
0.0293333	-0.0162351	0.0179987	0.000539227	0.000246644	0	5	0	
0.0295	0.0153867	-0.0127054	0.000549414	0.000277145	0	5	0	
0.0296667	-0.0159665	0.00312855	0.000589418	0.000298763	0	5	0	
0.0298333	0.0166059	-0.00141343	0.000630561	0.000245366	0	5	0	
0.03	-0.0116699	0.00277776	0.000655175	0.000172254	0	5	0	
0.0301667	0.0110164	-0.00624813	0.000663783	0.000123837	0	5	0	
0.0303333	-0.0120851	0.00661502	0.000648746	0.000122333	0	5	0	
0.0305	0.0149605	-0.000294115	0.000630641	0.000133649	0	5	0	
0.0306667	-0.0174003	0.00494396	0.000619383	0.00014754	0	5	0	
0.0308333	0.0186196	-0.00853622	0.000623205	0.000126602	0	5	0	
0.031	-0.0180799	0.0082924	0.000632454	0.000149678	0	5	0	
0.0311667	0.0190211	-0.00523064	0.00064057	0.00015368	0	5	0	
0.0313333	-0.0184405	0.00514908	0.000650457	0.000163416	0	5	0	
0.0315	0.017145	-0.00702195	0.000659681	0.000136441	0	5	0	
0.0316667	-0.0171719	0.00865257	0.000646206	0.000133952	0	5	0	
0.0318333	0.020883	-0.00377439	0.000628782	0.000143963	0	5	0	
0.032	-0.0203414	-0.00150406	0.000638681	0.000147835	0	5	0	
0.0321667	0.017427	-0.00355438	0.000674058	0.000107008	0	5	0	
0.0323333	-0.0184025	0.0103782	0.000683075	0.000109404	0	5	0	
0.0325	0.0233243	-0.010353	0.000674651	0.000131595	0	5	0	
0.0326667	-0.0206957	0.00511707	0.000691049	0.000176985	0	5	0	
0.0328333	0.0142567	-0.00351738	0.000735791	0.000166521	0	5	0	
0.033	-0.014117	-0.000462647	0.000732934	0.000132271	0	5	0	
0.0331667	0.0167999	0.00296227	0.000663165	0.000105859	0	5	0	
0.0333333	-0.0192981	-0.00257932	0.000591248	7.35546E-05	0	5	0	
0.0335	0.022819	0.000417024	0.000581224	8.83788E-05	0	5	0	
0.0336667	-0.0238529	0.00400049	0.000616399	0.000101204	0	5	0	
0.0338333	0.0211335	-0.00351134	0.000655105	0.000122779	0	5	0	
0.034	-0.020923	0.00532061	0.000682946	0.000102146	0	5	0	
0.0341667	0.0180765	-0.00248675	0.000695064	8.12028E-05	0	5	0	
0.0343333	-0.0178053	0.00742266	0.000693432	8.3758E-05	0	5	0	
0.0345	0.0189356	-0.00588566	0.000666783	9.90151E-05	0	5	0	
0.0346667	-0.0211948	0.0086198	0.000647781	0.000136833	0	5	0	
0.0348333	0.0187578	-0.00129881	0.000646424	0.000153705	0	5	0	
0.035	-0.0190137	0.0013819	0.000660035	0.000155117	0	5	0	
0.0351667	0.0189893	0.00019212	0.000655802	0.000106482	0	5	0	
0.0353333	-0.0206948	0.0018316	0.000646599	7.10259E-05	0	5	0	
0.0355	0.0222152	-0.00439698	0.000645598	5.24306E-05	0	5	0	
0.0356667	-0.0207431	0.00111015	0.000660129	5.66065E-05	0	5	0	
0.0358333	0.0182821	0.00115622	0.000670342	6.46383E-05	0	5	0	
0.036	-0.0180521	-0.00108669	0.000652728	5.30202E-05	0	5	0	
0.0361667	0.0213404	0.00250553	0.000623921	8.5781E-05	0	5	0	
0.0363333	-0.0231426	0.00113637	0.000611745	9.20013E-05	0	5	0	
0.0365	0.022383	-0.00270811	0.000627767	0.000104283	0	5	0	
0.0366667	-0.0215686	0.00512301	0.000646312	0.000108665	0	5	0	
0.0368333	0.0250117	-0.0135429	0.000652041	0.000147769	0	5	0	
0.037	-0.025381	0.00962958	0.000657143	0.000199459	0	5	0	
0.0371667	0.0229483	-0.00269837	0.000688575	0.000213423	0	5	0	
0.0373333	-0.016793	8.08357E-05	0.000700843	0.000226164	0	5	0	
0.0375	0.0184993	0.00229445	0.000673505	0.0001936	0	5	0	
0.0376667	-0.022459	-0.000680574	0.000621017	0.000144409	0	5	0	
0.0378333	0.022297	0.00204357	0.000605663	7.11926E-05	0	5	0	
0.038	-0.0196727	0.000977318	0.000622981	5.12164E-05	0	5	0	
0.0381667	0.0210553	-0.00777731	0.000629191	6.11313E-05	0	5	0	
0.0383333	-0.0236116	0.00833512	0.000616533	0.0001043	0	5	0	
0.0385	0.024115	-0.00933544	0.000630932	0.000141192	0	5	0	
0.0386667	-0.0195179	0.00457803	0.00066493	0.000161327	0	5	0	
0.0388333	0.0199137	-0.00321837	0.000676575	0.000143369	0	5	0	
0.039	-0.0250105	0.00471186	0.00065145	0.000102339	0	5	0	
0.0391667	0.0265551	-0.00506189	0.000642601	9.07268E-05	0	5	0	
0.0393333	-0.0220135	0.00431214	0.000668663	8.57085E-05	0	5	0	
0.0395	0.0197619	-0.00237293	0.000686619	0.000107648	0	5	0	
0.0396667	-0.0219878	-0.000338021	0.000662422	9.77147E-05	0	5	0	
0.0398333	0.0245158	-0.000474821	0.000622879	7.88965E-05	0	5	0	
0.04	-0.027191	0.00480746	0.000606885	8.91256E-05	0	5	0	
0.0401667	0.0285036	-0.00922685	0.000626047	0.00011933	0	5	0	
0.0403333	-0.0252849	0.00629373	0.000657704	0.000150335	0	5	0	
0.0405	0.0236015	-0.0041107	0.000681675	0.000143321	0	5	0	
0.0406667	-0.023506	0.00356639	0.000670818	0.00011275	0	5	0	
0.0408333	0.0243391	-0.00153819	0.000650766	9.2091E-05	0	5	0	
0.041	-0.0216771	-0.00221048	0.000635119	7.63363E-05	0	5	0	
0.0411667	0.0204943	0.000627883	0.000621599	6.48807E-05	0	5	0	
0.0413333	-0.0239788	-0.00111007	0.000595928	6.68041E-05	0	5	0	
0.0415	0.0274799	-0.00610844	0.000592606	5.85768E-05	0	5	0	
0.0416667	-0.0249897	0.00327427	0.000619429	6.7759E-05	0	5	0	
0.0418333	0.0255306	-0.00385934	0.000658308	9.18393E-05	0	5	0	
0.042	-0.0247715	-0.00261522	0.000661373	0.000119721	0	5	0	
0.0421667	0.0240754	0.000543415	0.000652824	0.000128851	0	5	0	
0.0423333	-0.0232739	-0.0028166	0.000637344	8.9742E-05	0	5	0	
0.0425	0.0256487	-0.00376798	0.000638775	5.88831E-05	0	5	0	
0.0426667	-0.0233151	0.00124679	0.000630966	5.02584E-05	0	5	0	
0.0428333	0.0241786	-0.00724036	0.000628868	7.47113E-05	0	5	0	
0.043	-0.0234885	0.000886633	0.000612527	7.74084E-05	0	5	0	
0.0431667	0.024709	-0.00399767	0.000615025	9.48665E-05	0	5	0	
0.0433333	-0.0247246	0.00188702	0.000614298	8.69936E-05	0	5	0	
0.0435	0.0273368	-0.00796878	0.000633277	9.7513E-05	0	5	0	
0.0436667	-0.025196	0.00666457	0.000644901	0.000111034	0	5	0	
0.0438333	0.0260129	-0.00805435	0.000660422	0.000135918	0	5	0	
0.044	-0.0264608	0.00305689	0.000660548	0.000157305	0	5	0	
0.0441667	0.0271493	-0.00436845	0.000672111	0.000162362	0	5	0	
0.0443333	-0.0243747	-0.00123641	0.000678436	0.000144334	0	5	0	
0.0445	0.0239456	-0.00303219	0.000678425	0.000117583	0	5	0	
0.0446667	-0.0231943	0.0032856	0.000654228	9.13335E-05	0	5	0	
0.0448333	0.0234518	-0.00238706	0.000624559	7.13323E-05	0	5	0	
0.045	-0.0256048	0.00528145	0.000607429	7.61683E-05	0	5	0	
0.0451667	0.0264976	-0.00711505	0.00061143	9.20723E-05	0	5	0	
0.0453333	-0.0248813	0.0018366	0.000625405	0.000107456	0	5	0	
0.0455	0.0257245	-0.00840429	0.000627854	0.000120893	0	5	0	
0.0456667	-0.0264285	0.00600123	0.00062075	0.000120423	0	5	0	
0.0458333	0.0265116	-0.00562065	0.000627857	0.000136363	0	5	0	
0.046	-0.0243251	0.00581528	0.00064978	0.000155725	0	5	0	
0.0461667	0.0238374	-0.00337666	0.000660311	0.000145992	0	5	0	
0.0463333	-0.0258841	0.00242802	0.000647419	0.000124005	0	5	0	
0.0465	0.0271581	-0.00516586	0.00063388	8.86055E-05	0	5	0	
0.0466667	-0.0252376	0.00578028	0.00064568	8.54535E-05	0	5	0	
0.0468333	0.0241401	-0.00812979	0.000665292	0.000112929	0	5	0	
0.047	-0.0252187	0.00669741	0.000663196	0.000143671	0	5	0	
0.0471667	0.0293901	-0.00736141	0.000648512	0.000145815	0	5	0	
0.0473333	-0.0307923	0.0103671	0.000657493	0.000162659	0	5	0	
0.0475	0.02892	-0.0105275	0.000687176	0.000163826	0	5	0	
0.0476667	-0.0302517	0.0112614	0.00070852	0.000209242	0	5	0	
0.0478333	0.0326556	-0.00723059	0.000713102	0.000200796	0	5	0	
0.048	-0.0281668	0.00662442	0.000714113	0.000204274	0	5	0	
0.0481667	0.0270162	-0.0151889	0.000713124	0.000174911	0	5	0	
0.0483333	-0.0294125	0.018979	0.000699096	0.00024295	0	5	0	
0.0485	0.0288545	-0.0135885	0.000689535	0.000273414	0	5	0	
0.0486667	-0.0244894	0.00907788	0.000683074	0.000306907	0	5	0	
0.0488333	0.0263969	-0.00382414	0.000657941	0.000217549	0	5	0	
0.049	-0.0313825	0.00114463	0.000631363	0.000148547	0	5	0	
0.0491667	0.0329665	-0.0026169	0.000640446	8.28762E-05	0	5	0	
0.0493333	-0.0286548	0.00609656	0.000676257	0.000118074	0	5	0	
0.0495	0.0310615	-0.0135223	0.000699869	0.000157827	0	5	0	
0.0496667	-0.0313322	0.00749975	0.000696244	0.000205439	0	5	0	
0.0498333	0.0291763	-0.00394227	0.000695206	0.000222415	0	5	0	
0.05	-0.026369	0.000433663	0.000692963	0.00023845	0	5	0	
0.0501667	0.0259729	0.00386074	0.000668477	0.000194153	0	5	0	
0.0503333	-0.0281866	-0.00126984	0.000634399	0.000129288	0	5	0	
0.0505	0.0307105	-0.00826391	0.000624499	7.32231E-05	0	5	0	
0.0506667	-0.0289912	0.00786552	0.000641689	0.000106315	0	5	0	
0.0508333	0.0283589	-0.0139078	0.000668192	0.000148475	0	5	0	
0.051	-0.0266142	0.0115317	0.000670227	0.000222263	0	5	0	
0.0511667	0.0270589	-0.00685792	0.000658469	0.000239144	0	5	0	
0.0513333	-0.0277931	0.00249694	0.00064018	0.000247399	0	5	0	
0.0515	0.0291269	-0.00417168	0.000637244	0.000204504	0	5	0	
0.0516667	-0.0292803	0.00420591	0.000643431	0.000164981	0	5	0	
0.0518333	0.0297619	-0.00552614	0.000658117	0.00016695	0	5	0	
0.052	-0.0286973	-0.00281261	0.000659188	0.00021932	0	5	0	
0.0521667	0.0299	0.00483394	0.000671695	0.000258205	0	5	0	
0.0523333	-0.0277406	-0.00254857	0.000672524	0.00019368	0	5	0	
0.0525	0.0303711	-0.00563842	0.000674574	0.000116188	0	5	0	
0.0526667	-0.0307041	0.00607876	0.000658735	7.83618E-05	0	5	0	
0.0528333	0.0303338	-0.0098211	0.000660996	0.000123827	0	5	0	
0.053	-0.0294338	0.0102651	0.000665042	0.000149483	0	5	0	
0.0531667	0.0307723	-0.00857687	0.000676252	0.000200575	0	5	0	
0.0533333	-0.0311366	0.0016124	0.000668605	0.000226804	0	5	0	
0.0535	0.0312416	0.00289169	0.0006714	0.000231174	0	5	0	
0.0536667	-0.0272011	-0.00567788	0.000657552	0.000166345	0	5	0	
0.0538333	0.0237468	0.000307309	0.000632426	0.000181419	0	5	0	
0.054	-0.0259739	0.0136221	0.000579393	0.000308208	0	5	0	
0.0541667	0.0328067	-0.0249444	0.000561858	0.000491784	0	5	0	
0.0543333	-0.0385152	0.0223797	0.000592129	0.000545237	0	5	0	
0.0545	0.0358242	-0.0139577	0.000671177	0.000473621	0	5	0	
0.0546667	-0.0308088	0.00416473	0.000719595	0.000330377	0	5	0	
0.0548333	0.0272616	0.00621403	0.000717708	0.000233372	0	5	0	
0.055	-0.0251032	-0.0158414	0.000669594	0.000189763	0	5	0	
0.0551667	0.0232429	0.0156226	0.000619117	0.000224903	0	5	0	
0.0553333	-0.024217	-0.00854304	0.000567384	0.000302287	0	5	0	
0.0555	0.0309366	-0.00272818	0.000551078	0.000355387	0	5	0	
0.0556667	-0.0354213	0.00631983	0.000577329	0.000335504	0	5	0	
0.0558333	0.0337549	-0.00435133	0.00064968	0.000249377	0	5	0	
0.056	-0.0272819	0.00364121	0.000689703	0.000152391	0	5	0	
0.0561667	0.0268064	-0.00593954	0.000672266	0.000121273	0	5	0	
0.0563333	-0.0307831	0.00685471	0.000624339	0.000114912	0	5	0	
0.0565	0.0341434	-0.00302131	0.000615568	0.000132825	0	5	0	
0.0566667	-0.0338339	-0.0102843	0.000646093	0.000179632	0	5	0	
0.0568333	0.0347107	0.00982283	0.000682332	0.000252994	0	5	0	
0.057	-0.0345356	-0.00929791	0.000695819	0.000252635	0	5	0	
0.0571667	0.0340027	0.00374681	0.000699325	0.000204965	0	5	0	
0.0573333	-0.0342559	-0.00214976	0.000707302	0.000109136	0	5	0	
0.0575	0.0330059	0.00451271	0.000714201	8.44453E-05	0	5	0	
0.0576667	-0.0285348	-0.00148772	0.000707495	8.14938E-05	0	5	0	
0.0578333	0.0256658	-0.0173485	0.000669239	0.000112768	0	5	0	
0.058	-0.0308297	0.0154019	0.000624411	0.000219872	0	5	0	
0.0581667	0.0363922	-0.0101381	0.000612399	0.000285697	0	5	0	
0.0583333	-0.0344032	0.00669231	0.000657732	0.000351594	0	5	0	
0.0585	0.0285928	-0.000479883	0.000691771	0.000334169	0	5	0	
0.0586667	-0.0286155	-0.00461277	0.000672358	0.000330251	0	5	0	
0.0588333	0.0330333	0.00103961	0.000638004	0.000280958	0	5	0	
0.059	-0.0332318	0.00233019	0.000631575	0.000185708	0	5	0	
0.0591667	0.0295343	-0.00393663	0.000658478	0.000114347	0	5	0	
0.0593333	-0.0285107	0.00817608	0.000647826	9.40356E-05	0	5	0	
0.0595	0.0337216	-0.00809869	0.000629112	0.000150741	0	5	0	
0.0596667	-0.0364281	0.00364885	0.00063448	0.000166299	0	5	0	
0.0598333	0.0313729	-0.0050855	0.000683668	0.000188566	0	5	0	
0.06	-0.0281585	0.0100284	0.000694517	0.000200278	0	5	0	
0.0601667	0.0343089	-0.00942801	0.000679525	0.000228277	0	5	0	
0.0603333	-0.0351315	0.00421156	0.000649877	0.000201125	0	5	0	
0.0605	0.0302856	0.000508917	0.000667732	0.000131455	0	5	0	
0.0606667	-0.0280301	-0.00388111	0.000665095	7.05717E-05	0	5	0	
0.0608333	0.0312034	0.00592305	0.000648091	5.75177E-05	0	5	0	
0.061	-0.0346694	-0.00665958	0.00062905	9.52164E-05	0	5	0	
0.0611667	0.0348062	0.000674034	0.000644134	0.00013721	0	5	0	
0.0613333	-0.0302439	0.00505158	0.000656032	0.00016427	0	5	0	
0.0615	0.0300835	-0.00721198	0.000647981	0.000147007	0	5	0	
0.0616667	-0.0337425	0.00570165	0.000632218	0.000132749	0	5	0	
0.0618333	0.0343428	-0.00313379	0.000642251	0.000129416	0	5	0	
0.062	-0.0303272	-0.000574566	0.000655994	0.000165975	0	5	0	
0.0621667	0.0325069	0.00532301	0.00065707	0.000182285	0	5	0	
0.0623333	-0.0412849	-0.000362246	0.000665015	0.000155465	0	5	0	
0.0625	0.0335629	-0.010713	0.000691895	0.000166627	0	5	0	
0.0626667	-0.0294559	0.010133	0.000725086	0.000165368	0	5	0	
0.0628333	0.0280695	0.00451432	0.000698204	0.000248655	0	5	0	
0.063	-0.0288753	-0.0128897	0.000645067	0.000218929	0	5	0	
0.0631667	0.0301964	-0.00593963	0.00059331	0.000324714	0	5	0	
0.0633333	-0.041352	0.0451052	0.000621575	0.00049734	0	5	0	
0.0635	0.0510504	-0.0598712	0.000737093	0.000767356	0	5	0	
0.0636667	-0.0565635	0.041338	0.000883325	0.000923481	0	5	0	
0.0638333	0.0353521	-0.0208228	0.000981099	0.00100757	0	5	0	
0.064	-0.0189429	0.0015706	0.000913946	0.00103379	0	5	0	
0.0641667	0.0171375	0.0174208	0.000710919	0.000974785	0	5	0	
0.0643333	-0.0248789	-0.0206248	0.000518424	0.000730748	0	5	0	
0.0645	0.0326155	0.000504719	0.000457427	0.000574394	0	5	0	
0.0646667	-0.0386501	0.0259625	0.000541798	0.000606287	0	5	0	
0.0648333	0.0397216	-0.0443269	0.000650176	0.000730394	0	5	0	
0.065	-0.0386628	0.0315228	0.000724885	0.000763549	0	5	0	
0.0651667	0.0310594	-0.0153962	0.000739463	0.000635819	0	5	0	
0.0653333	-0.0272433	0.00991534	0.000701494	0.000474822	0	5	0	
0.0655	0.031037	-0.0194418	0.000644385	0.000349536	0	5	0	
0.0656667	-0.0377169	0.0178604	0.000632683	0.000292035	0	5	0	
0.0658333	0.0416022	-0.0121453	0.000672923	0.000326397	0	5	0	
0.066	-0.0350303	0.00123923	0.000725802	0.000315808	0	5	0	
0.0661667	0.0290571	-0.00396464	0.000730548	0.000257199	0	5	0	
0.0663333	-0.0329787	0.004923	0.000691545	0.000168861	0	5	0	
0.0665	0.0343142	-0.00832	0.000654174	0.000121776	0	5	0	
0.0666667	-0.0362372	0.00525955	0.000650522	0.000113628	0	5	0	
0.0668333	0.0348855	-0.00304454	0.000667163	0.000116876	0	5	0	
0.067	-0.0305777	0.00229697	0.00068091	9.06802E-05	0	5	0	
0.0671667	0.0303645	-0.00387164	0.000658817	6.83112E-05	0	5	0	
0.0673333	-0.0352266	0.00232298	0.000643256	5.05739E-05	0	5	0	
0.0675	0.0354597	0.000947948	0.000638744	5.82136E-05	0	5	0	
0.0676667	-0.0303953	-0.00485657	0.000658045	6.45072E-05	0	5	0	
0.0678333	0.0280092	0.0015013	0.000641937	6.62721E-05	0	5	0	
0.068	-0.042021	0.00510774	0.000644994	7.66492E-05	0	5	0	
0.0681667	0.0457671	-0.0085886	0.000694748	8.97649E-05	0	5	0	
0.0683333	-0.0345583	0.00306537	0.000774796	0.000137083	0	5	0	
0.0685	0.0230373	0.00578751	0.000770874	0.000160778	0	5	0	
0.0686667	-0.0263917	-0.0049804	0.000671118	0.000155567	0	5	0	
0.0688333	0.0334078	0.000513244	0.000583571	0.000119773	0	5	0	
0.069	-0.0368974	0.00061137	0.000581607	0.000101515	0	5	0	
0.0691667	0.0341873	-0.00624357	0.000642878	0.000104484	0	5	0	
0.0693333	-0.0377366	0.00768213	0.000679334	0.000119464	0	5	0	
0.0695	0.0352177	-0.00268855	0.000702975	0.000128631	0	5	0	
0.0696667	-0.0292873	-0.00187295	0.000696698	0.000157344	0	5	0	
0.0698333	0.0244013	0.00554136	0.000650062	0.000132817	0	5	0	
0.07	-0.0285229	0.00124551	0.00058649	0.000122846	0	5	0	
0.0701667	0.0330973	-0.0061971	0.000563029	9.70298E-05	0	5	0	
0.0703333	-0.0431403	0.0109226	0.000622634	0.000131492	0	5	0	
0.0705	0.0447518	-0.00689879	0.000718515	0.000146533	0	5	0	
0.0706667	-0.0362534	0.00517371	0.000781819	0.000171815	0	5	0	
0.0708333	0.0269284	0.00380967	0.000757408	0.000181403	0	5	0	
0.071	-0.0305654	-0.00201556	0.00066683	0.000158949	0	5	0	
0.0711667	0.034628	0.00240694	0.000605326	0.000114657	0	5	0	
0.0713333	-0.0323013	0.00214084	0.000611403	6.64703E-05	0	5	0	
0.0715	0.0268211	0.00352403	0.000619763	5.06628E-05	0	5	0	
0.0716667	-0.0304506	0.00186052	0.000606431	4.6513E-05	0	5	0	
0.0718333	0.0351479	2.54199E-05	0.000600925	8.08612E-05	0	5	0	
0.072	-0.0190897	0.00507365	0.000650449	0.000154195	0	5	0	
0.0721667	0.0426607	-0.0102825	0.000657529	0.000239716	0	5	0	
0.0723333	-0.0393987	0.00763823	0.000671366	0.000265201	0	5	0	
0.0725	0.0237267	0.00211052	0.00066561	0.000210239	0	5	0	
0.0726667	-0.0186464	-0.00512066	0.000608009	0.000146642	0	5	0	
0.0728333	0.0141466	0.0105236	0.000497493	0.000136616	0	5	0	
0.073	-0.0014158	0.000385747	0.00040336	0.000182831	0	5	0	
0.0731667	0.0447556	-0.00332333	0.000394101	0.000256748	0	5	0	
0.0733333	-0.0363289	0.00335787	0.000500986	0.000276263	0	5	0	
0.0735	0.042845	-0.00427672	0.000674024	0.000234422	0	5	0	
0.0736667	-0.02285	-0.00614665	0.000788108	0.000208938	0	5	0	
0.0738333	0.0172528	0.00695644	0.000749472	0.0001644	0	5	0	
0.074	-0.0248085	0.00432957	0.000574012	0.000156451	0	5	0	
0.0741667	0.0322017	0.0173382	0.000501525	0.000117781	0	5	0	
0.0743333	-0.0238225	-0.0459315	0.000490644	0.000285969	0	5	0	
0.0745	0.0446012	0.0437291	0.000585085	0.000548788	0	5	0	
0.0746667	-0.00290224	-0.024294	0.000569248	0.000998462	0	5	0	
0.0748333	0.00311728	0.00339343	0.000439233	0.00148395	0	5	0	
0.075	-0.0195561	-0.00704785	0.000260491	0.00173131	0	5	0	
0.0751667	0.0304056	0.0101365	0.00029239	0.00164454	0	5	0	
0.0753333	-0.0288412	0.0186979	0.000436591	0.00138152	0	5	0	
0.0755	0.0321301	-0.0389492	0.000572505	0.001124	0	5	0	
0.0756667	-0.0262092	-0.0133196	0.000557688	0.000840457	0	5	0	
0.0758333	0.0344629	0.0658062	0.000584005	0.00067233	0	5	0	
0.076	-0.0290328	-0.0573584	0.000628344	0.000771623	0	5	0	
0.0761667	0.0340625	0.0276937	0.000681344	0.000923902	0	5	0	
0.0763333	-0.0405468	-0.0496307	0.000712157	0.000935114	0	5	0	
0.0765	0.0378457	0.0691094	0.000713424	0.000907185	0	5	0	
0.0766667	-0.0160248	-0.0516041	0.000690857	0.00103719	0	5	0	
0.0768333	0.00627594	0.0100957	0.000542659	0.00115082	0	5	0	
0.077	-0.0255199	0.00981167	0.000452513	0.0010816	0	5	0	
0.0771667	0.0412156	-0.00322073	0.000476776	0.000810885	0	5	0	
0.0773333	-0.0341871	-0.00564706	0.000619235	0.000509941	0	5	0	
0.0775	0.0274182	-0.0136363	0.000651485	0.000275216	0	5	0	
0.0776667	-0.0278624	0.0171395	0.000602774	0.000228296	0	5	0	
0.0778333	0.0320212	-0.0107343	0.000558739	0.000250815	0	5	0	
0.078	-0.0339631	-0.000626082	0.000599082	0.0002485	0	5	0	
0.0781667	0.0363295	0.00230293	0.000641507	0.000218459	0	5	0	
0.0783333	-0.0350161	0.0101183	0.000669744	0.000218095	0	5	0	
0.0785	0.0346091	-0.013034	0.000673757	0.000251184	0	5	0	
0.0786667	-0.0368618	0.0112874	0.000672856	0.000271105	0	5	0	
0.0788333	0.0316797	-0.0248048	0.000671271	0.000276033	0	5	0	
0.079	-0.0204258	0.0313668	0.00062978	0.000401403	0	5	0	
0.0791667	0.0253634	-0.0286685	0.000553816	0.000482781	0	5	0	
0.0793333	-0.0372488	0.0118603	0.000543954	0.000579017	0	5	0	
0.0795	0.0376884	0.00434697	0.00060398	0.000560484	0	5	0	
0.0796667	-0.0311928	-0.0119871	0.000673676	0.000486305	0	5	0	
0.0798333	0.0306361	0.0052795	0.000656725	0.000323619	0	5	0	
0.08	-0.0370644	-0.00196335	0.000637171	0.00022806	0	5	0	
0.0801667	0.0366657	-0.00358096	0.00064455	0.000250001	0	5	0	
0.0803333	-0.0338925	0.00859258	0.000683206	0.000310829	0	5	0	
0.0805	0.0374928	-0.0143276	0.000697576	0.000339387	0	5	0	
0.0806667	-0.0377794	0.0196668	0.000704048	0.000360922	0	5	0	
0.0808333	0.0300081	-0.0216388	0.000686475	0.000381301	0	5	0	
0.081	-0.0287947	0.014595	0.000646849	0.000374369	0	5	0	
0.0811667	0.0324775	-0.00918539	0.000609069	0.000326076	0	5	0	
0.0813333	-0.0318453	0.00590866	0.000614795	0.000266241	0	5	0	
0.0815	0.0367018	-0.00587811	0.000641281	0.000177428	0	5	0	
0.0816667	-0.035326	0.000693575	0.000666367	0.000126322	0	5	0	
0.0818333	0.0291977	0.00573212	0.000654316	9.25626E-05	0	5	0	
0.082	-0.029127	0.00538176	0.000627699	0.000153879	0	5	0	
0.0821667	0.0352549	-0.00829692	0.000622108	0.000195801	0	5	0	
0.0823333	-0.0377634	0.00741506	0.000655514	0.000211951	0	5	0	
0.0825	0.0380763	0.00152206	0.000708283	0.000183029	0	5	0	
0.0826667	-0.0363015	-0.000243994	0.000735771	0.000119662	0	5	0	
0.0828333	0.038188	-0.00436288	0.000736653	0.000154304	0	5	0	
0.083	-0.0362586	0.01325	0.000715437	0.000182615	0	5	0	
0.0831667	0.0303121	-0.00898478	0.000686769	0.000226973	0	5	0	
0.0833333	-0.032111	0.00208727	0.000651048	0.000230531	0	5	0	
0.0835	0.0359958	0.0141101	0.000644224	0.000203459	0	5	0	
0.0836667	-0.0305587	-0.00738007	0.000644687	0.000215544	0	5	0	
0.0838333	0.0228412	0.00183828	0.000601607	0.000247088	0	5	0	
0.084	-0.0261135	0.00604334	0.000562632	0.000273235	0	5	0	
0.0841667	0.0335242	-0.00641023	0.000582868	0.000257243	0	5	0	
0.0843333	-0.0358545	0.00748549	0.000644669	0.000179106	0	5	0	
0.0845	0.0361918	-0.00994392	0.000683307	0.000160307	0	5	0	
0.0846667	-0.032238	0.00335691	0.00066998	0.000229602	0	5	0	
0.0848333	0.0279099	0.00780041	0.000630177	0.000314091	0	5	0	
0.085	-0.0266829	-0.00450843	0.000597247	0.000307219	0	5	0	
0.0851667	0.0268357	0.00101934	0.000554047	0.000212046	0	5	0	
0.0853333	-0.0304358	0.00628461	0.000557309	0.000110126	0	5	0	
0.0855	0.0353476	-0.00946387	0.000577919	0.0001006	0	5	0	
0.0856667	-0.0310563	0.00303178	0.000617208	0.000126255	0	5	0	
0.0858333	0.028904	7.05445E-05	0.000621455	0.00010801	0	5	0	
0.086	-0.0316389	0.00163931	0.000609141	0.000109309	0	5	0	
0.0861667	0.0311568	-0.00474564	0.000591185	0.000130712	0	5	0	
0.0863333	-0.0275511	0.00503394	0.000595449	0.000188788	0	5	0	
0.0865	0.0307187	0.00111012	0.000597063	0.000174216	0	5	0	
0.0866667	-0.0344399	-0.00770097	0.000617299	0.000134377	0	5	0	
0.0868333	0.0314906	0.00628098	0.000626874	0.000131656	0	5	0	
0.087	-0.0330167	-0.00172576	0.000642599	0.000137886	0	5	0	
0.0871667	0.0376249	0.000724321	0.000662588	0.000126789	0	5	0	
0.0873333	-0.0312029	-0.0159094	0.000672525	0.000156327	0	5	0	
0.0875	0.0210562	0.018579	0.000612471	0.000272688	0	5	0	
0.0876667	-0.0234492	-0.00826609	0.000546908	0.000326817	0	5	0	
0.0878333	0.0349705	-0.00291379	0.00053688	0.000259836	0	5	0	
0.088	-0.0344625	-0.000135451	0.000610049	0.000136677	0	5	0	
0.0881667	0.0320806	-4.57304E-06	0.000662861	7.98203E-05	0	5	0	
0.0883333	-0.0325651	0.00829484	0.000671838	8.89568E-05	0	5	0	
0.0885	0.0303027	-0.016399	0.00064637	0.000123791	0	5	0	
0.0886667	-0.0307234	0.00641927	0.000630258	0.000222303	0	5	0	
0.0888333	0.0320714	0.00736312	0.000590426	0.000272221	0	5	0	
0.089	-0.0296026	-0.0041137	0.000604326	0.000244514	0	5	0	
0.0891667	0.0328801	-0.00623097	0.000623771	0.000168022	0	5	0	
0.0893333	-0.0333209	0.00627114	0.00065985	0.00011932	0	5	0	
0.0895	0.0302203	-0.000641014	0.000649446	0.000108966	0	5	0	
0.0896667	-0.0288657	-0.000873289	0.000611048	7.67651E-05	0	5	0	
0.0898333	0.0294601	-0.00290507	0.000587105	6.9738E-05	0	5	0	
0.09	-0.0327976	0.00459216	0.00060843	5.32652E-05	0	5	0	
0.0901667	0.0343843	-0.00494357	0.000639469	9.21672E-05	0	5	0	
0.0903333	-0.0327033	0.00628815	0.000657339	0.000128789	0	5	0	
0.0905	0.0297198	-0.010245	0.000630523	0.000182879	0	5	0	
0.0906667	-0.0280823	0.0138244	0.000595686	0.000214008	0	5	0	
0.0908333	0.0287039	-0.00847068	0.000580456	0.000239433	0	5	0	
0.091	-0.0346447	0.00471238	0.000593684	0.000205227	0	5	0	
0.0911667	0.0347077	-0.00164045	0.000636902	0.000156212	0	5	0	
0.0913333	-0.0311435	-0.00105344	0.000664378	7.40241E-05	0	5	0	
0.0915	0.0263321	0.00854409	0.000647205	7.51862E-05	0	5	0	
0.0916667	-0.0305455	-0.00680095	0.000625722	0.000108495	0	5	0	
0.0918333	0.035025	0.00193726	0.000641144	0.000175705	0	5	0	
0.092	-0.0374135	0.00148428	0.000687001	0.000210841	0	5	0	
0.0921667	0.038379	-0.00372693	0.000743949	0.000212263	0	5	0	
0.0923333	-0.0427855	0.00821478	0.000776109	0.000191419	0	5	0	
0.0925	0.03391	-0.00638417	0.000777681	0.000170735	0	5	0	
0.0926667	-0.0266474	0.0079402	0.000708187	0.00015303	0	5	0	
0.0928333	0.0212693	-0.00894485	0.000597286	0.000172725	0	5	0	
0.093	-0.0238947	0.000220277	0.000516753	0.000163234	0	5	0	
0.0931667	0.0341524	-0.0029618	0.000552348	0.000125168	0	5	0	
0.0933333	-0.0384101	0.00818331	0.000647182	0.000105354	0	5	0	
0.0935	0.0299454	-0.017259	0.000709966	0.000151561	0	5	0	
0.0936667	-0.0286981	0.0160037	0.000691895	0.000243978	0	5	0	
0.0938333	0.0365118	-0.0123301	0.000675443	0.000365843	0	5	0	
0.094	-0.0351566	0.00334643	0.000683934	0.000480582	0	5	0	
0.0941667	0.0294303	0.00487541	0.000691411	0.000478308	0	5	0	
0.0943333	-0.0317669	-0.00783859	0.000684043	0.000325623	0	5	0	
0.0945	0.033429	0.00153667	0.000681907	0.000180785	0	5	0	
0.0946667	-0.024677	0.00640809	0.000656991	0.000161766	0	5	0	
0.0948333	0.0238096	-0.0298101	0.000593029	0.000232521	0	5	0	
0.095	-0.0294966	0.0310824	0.000572028	0.000420363	0	5	0	
0.0951667	0.0349976	-0.0157073	0.000623653	0.00045149	0	5	0	
0.0953333	-0.0352287	0.00937103	0.000704269	0.000458438	0	5	0	
0.0955	0.0325168	-0.00868825	0.000718137	0.000279565	0	5	0	
0.0956667	-0.0269007	0.00407377	0.000668405	0.000216079	0	5	0	
0.0958333	0.0286742	-0.0114838	0.000612139	0.000185885	0	5	0	
0.096	-0.030038	0.0064636	0.0005967	0.000172171	0	5	0	
0.0961667	0.0294175	-0.00243446	0.000605979	0.000167085	0	5	0	
0.0963333	-0.0219852	-0.00544573	0.000585432	0.000183095	0	5	0	
0.0965	0.0170403	0.0111476	0.0005181	0.000206791	0	5	0	
0.0966667	-0.0182528	-0.00892832	0.000462024	0.000237754	0	5	0	
0.0968333	0.0258551	-0.000359156	0.000485688	0.000187073	0	5	0	
0.097	-0.0347804	-0.00123743	0.000580665	0.000132495	0	5	0	
0.0971667	0.0359746	-0.00155716	0.000683078	7.59088E-05	0	5	0	
0.0973333	-0.0295938	0.0109782	0.000708873	8.11511E-05	0	5	0	
0.0975	0.0321992	-0.0121614	0.000680579	0.000139489	0	5	0	
0.0976667	-0.0349481	0.00633193	0.000644424	0.000200136	0	5	0	
0.0978333	0.0258945	0.000343632	0.0006158	0.000233616	0	5	0	
0.098	-0.022157	-0.00166307	0.000579831	0.000183386	0	5	0	
0.0981667	0.0304634	-0.00099314	0.000574763	0.000121854	0	5	0	
0.0983333	-0.0328898	0.00184515	0.000607266	7.10098E-05	0	5	0	
0.0985	0.022441	0.000862497	0.000608812	5.24322E-05	0	5	0	
0.0986667	-0.020635	0.00218893	0.000569313	5.60949E-05	0	5	0	
0.0988333	0.0336536	-0.00181252	0.000575168	4.28643E-05	0	5	0	
0.099	-0.0359896	0.00416218	0.000638421	5.80276E-05	0	5	0	
0.0991667	0.0293615	-0.00919477	0.000676999	7.06454E-05	0	5	0	
0.0993333	-0.0287531	0.00410815	0.000665061	0.000124821	0	5	0	
0.0995	0.0329606	5.50178E-05	0.000651166	0.000113912	0	5	0	
0.0996667	-0.0302994	0.00413287	0.000658151	0.000120787	0	5	0	
0.0998333	0.0289286	-0.00448498	0.00065598	0.000139883	0	5	0	
0.1	-0.0336536	0.0087387	0.00069056	0.000223157	0	5	0	
0.100167	0.0407462	-0.0128847	0.000745833	0.000297155	0	5	0	
0.100333	-0.0342056	0.0121841	0.00078227	0.000348556	0	5	0	
0.1005	0.0241603	-0.0120646	0.000711809	0.000354362	0	5	0	
0.100667	-0.018684	0.0120151	0.000598469	0.000302075	0	5	0	
0.100833	0.0234198	0.0132362	0.000558514	0.000225063	0	5	0	
0.101	-0.0292716	-0.0372903	0.000639245	0.000341567	0	5	0	
0.101167	0.0324744	-0.0157086	0.000729029	0.00048184	0	5	0	
0.101333	-0.0319108	0.0155849	0.000772209	0.000558928	0	5	0	
0.1015	0.0370464	-0.0108958	0.000769781	0.000438814	0	5	0	
0.101667	-0.034925	0.00752814	0.000767357	0.00027347	0	5	0	
0.101833	0.0238394	0.00329016	0.000709989	0.000182371	0	5	0	
0.102	-0.0205218	-0.00142673	0.000616924	0.00015195	0	5	0	
0.102167	0.0259729	-0.0438317	0.00057196	0.000341747	0	5	0	
0.102333	-0.0271033	0.0259828	0.000592597	0.00058194	0	5	0	
0.1025	0.0254693	-0.0202013	0.000627715	0.000703351	0	5	0	
0.102667	-0.0228548	0.0113854	0.000627447	0.000589728	0	5	0	
0.102833	0.0234716	-0.00794513	0.000614935	0.000365992	0	5	0	
0.103	-0.0297354	0.00714527	0.000647176	0.000219425	0	5	0	
0.103167	0.034128	0.0031171	0.000721203	0.000136443	0	5	0	
0.103333	-0.0379519	-0.00213717	0.00080715	0.00010152	0	5	0	
0.1035	0.0359476	0.000702028	0.000871787	0.000103006	0	5	0	
0.103667	-0.0367311	0.00081628	0.000847365	0.000162332	0	5	0	
0.103833	0.0258686	-0.015329	0.000745163	0.000206398	0	5	0	
0.104	-0.0162044	0.0140904	0.000609861	0.000258194	0	5	0	
0.104167	0.0158302	-0.0412263	0.000552661	0.000450582	0	5	0	
0.104333	-0.0245718	0.0113041	0.000620704	0.000536821	0	5	0	
0.1045	0.0251539	-0.00588453	0.000719712	0.000562157	0	5	0	
0.104667	-0.0336708	-0.00438179	0.000753515	0.000354168	0	5	0	
0.104833	0.0315348	-0.00563346	0.000743002	0.000255002	0	5	0	
0.105	-0.0266678	0.00568704	0.000704553	0.000197238	0	5	0	
0.105167	0.024416	-0.0355864	0.000661043	0.000267362	0	5	0	
0.105333	-0.0228762	0.00784546	0.000602559	0.00043773	0	5	0	
0.1055	0.0233973	-0.0131241	0.000581228	0.000478448	0	5	0	
0.105667	-0.03187	0.00890373	0.000643566	0.000424297	0	5	0	
0.105833	0.0340306	-0.00843867	0.000714469	0.0002761	0	5	0	
0.106	-0.0270546	0.00694971	0.000722626	0.000226337	0	5	0	
0.106167	0.0214535	-0.00866826	0.000659801	0.000182478	0	5	0	
0.106333	-0.0188165	0.00316886	0.000587186	0.000145982	0	5	0	
0.1065	0.0235589	0.0066682	0.000609534	0.000112338	0	5	0	
0.106667	-0.0346169	-0.0016014	0.00070252	8.98345E-05	0	5	0	
0.106833	0.0363138	-0.00251185	0.000776637	9.40085E-05	0	5	0	
0.107	-0.024087	0.00725908	0.000733099	0.000117667	0	5	0	
0.107167	0.0152508	-0.006171	0.000613947	0.000143558	0	5	0	
0.107333	-0.0250905	0.00181217	0.000553105	0.000116056	0	5	0	
0.1075	0.0303646	0.00415035	0.000589222	0.000103259	0	5	0	
0.107667	-0.024642	-0.00429861	0.000626938	8.97852E-05	0	5	0	
0.107833	0.0214548	-0.000894627	0.000611939	0.000108223	0	5	0	
0.108	-0.0320487	0.00628674	0.000631304	0.000136892	0	5	0	
0.108167	0.0362481	-0.00661305	0.000701919	0.000158113	0	5	0	
0.108333	-0.0249892	0.00334311	0.000713956	0.000146964	0	5	0	
0.1085	0.0150728	-0.00060946	0.000622205	0.000114728	0	5	0	
0.108667	-0.0274482	0.00495122	0.000586724	8.76517E-05	0	5	0	
0.108833	0.0336988	-0.000956448	0.000660029	9.76386E-05	0	5	0	
0.109	-0.0299247	0.00232845	0.000731251	9.47438E-05	0	5	0	
0.109167	0.0227294	-0.000996572	0.000701125	0.000116523	0	5	0	
0.109333	-0.024903	0.00479426	0.000637217	0.000131363	0	5	0	
0.1095	0.0225597	0.00271299	0.000632763	0.000133619	0	5	0	
0.109667	-0.0205951	-0.0110692	0.000624302	0.00013224	0	5	0	
0.109833	0.0190774	0.00930159	0.000626077	0.000161478	0	5	0	
0.11	-0.0332095	0.00594677	0.000669262	0.000316406	0	5	0	
0.110167	0.0353102	0.00282967	0.000751643	0.00039777	0	5	0	
0.110333	-0.0260134	0.0178095	0.000697318	0.000554202	0	5	0	
0.1105	0.000176117	0.047515	0.000534182	0.000891224	0	5	0	
0.110667	-0.00417353	-0.0857915	0.00028904	0.00141589	0	5	0	
0.110833	0.00943121	0.125944	0.000233053	0.00187487	0	5	0	
0.111	-0.011811	-0.147785	0.000286875	0.00223616	0	5	0	
0.111167	0.0223527	0.0484607	0.000474409	0.00228325	0	5	0	
0.111333	-0.0431344	0.0471198	0.000657271	0.00202959	0	5	0	
0.1115	0.0498593	-0.0584393	0.000832975	0.00155008	0	5	0	
0.111667	-0.0468261	0.0567152	0.000906071	0.0012712	0	5	0	
0.111833	0.0223419	0.00253302	0.00085071	0.00144322	0	5	0	
0.112	-0.0095609	-0.0763172	0.000659901	0.00185863	0	5	0	
0.112167	0.0284709	0.0459185	0.000581351	0.00226539	0	5	0	
0.112333	-0.027795	-0.055716	0.000666007	0.00191055	0	5	0	
0.1125	0.0388181	0.00235953	0.000779554	0.00126529	0	5	0	
0.112667	-0.0401556	0.00303817	0.000824883	0.000464809	0	5	0	
0.112833	0.0304302	0.00339586	0.000740407	0.000351272	0	5	0	
0.113	-0.0129318	-0.0177959	0.000620404	0.000349441	0	5	0	
0.113167	0.0090455	0.00150175	0.000445183	0.000455801	0	5	0	
0.113333	-0.00313176	-0.00240996	0.000408156	0.0003664	0	5	0	
0.1135	0.0272248	-0.012299	0.000529766	0.000251623	0	5	0	
0.113667	-0.0408518	0.00256152	0.000772565	0.0002325	0	5	0	
0.113833	0.0461033	0.00576507	0.000903218	0.000302883	0	5	0	
0.114	-0.0335684	-0.0143453	0.000911741	0.000311358	0	5	0	
0.114167	0.0175734	0.00748058	0.000782446	0.000256252	0	5	0	
0.114333	-0.0156084	-0.00158646	0.000656378	0.000243652	0	5	0	
0.1145	0.0270243	-0.0102247	0.000662035	0.000322774	0	5	0	
0.114667	-0.0369578	0.0174732	0.000777409	0.000383696	0	5	0	
0.114833	0.0352798	-0.0138571	0.000842391	0.000366072	0	5	0	
0.115	-0.0219109	0.00594989	0.000762918	0.000309513	0	5	0	
0.115167	0.0128215	0.0199266	0.000614571	0.000282352	0	5	0	
0.115333	-0.0173807	-0.0175155	0.000555572	0.000331765	0	5	0	
0.1155	0.0186743	0.0128594	0.000589281	0.00033168	0	5	0	
0.115667	-0.0211226	-0.00470031	0.000683315	0.000322993	0	5	0	
0.115833	0.0305367	-0.00175098	0.000762203	0.000243178	0	5	0	
0.116	-0.0315016	-0.00499243	0.000782941	0.000194624	0	5	0	
0.116167	0.0162019	0.0221043	0.0007095	0.000224958	0	5	0	
0.116333	-0.0118146	0.00250145	0.000589855	0.000281189	0	5	0	
0.1165	0.0238914	-0.0170972	0.000573313	0.000328124	0	5	0	
0.116667	-0.0299712	0.017071	0.000672001	0.000332924	0	5	0	
0.116833	0.0309421	-0.00238452	0.000768495	0.000423367	0	5	0	
0.117	-0.0213664	-0.0181851	0.000714126	0.000590167	0	5	0	
0.117167	0.00718816	0.0222408	0.00055667	0.000607247	0	5	0	
0.117333	-0.0104739	-0.0149289	0.000487434	0.000518791	0	5	0	
0.1175	0.0276026	0.00670968	0.000595478	0.000385261	0	5	0	
0.117667	-0.0299204	0.00656636	0.000771961	0.000363636	0	5	0	
0.117833	0.024991	-0.0192048	0.000841456	0.00038874	0	5	0	
0.118	-0.0285424	0.0259896	0.00080943	0.00040378	0	5	0	
0.118167	0.0340962	-0.0169794	0.000783375	0.000432236	0	5	0	
0.118333	-0.0247153	-0.00044357	0.000748738	0.000441163	0	5	0	
0.1185	0.0130579	0.0109325	0.000651165	0.000423896	0	5	0	
0.118667	-0.0142253	-0.00457259	0.000569411	0.000338638	0	5	0	
0.118833	0.0175341	0.000418243	0.000600069	0.000194355	0	5	0	
0.119	-0.0217254	-0.000733495	0.000673917	8.96499E-05	0	5	0	
0.119167	0.0179795	0.00270992	0.00067831	7.15609E-05	0	5	0	
0.119333	-0.0133363	0.000373959	0.000620159	7.78529E-05	0	5	0	
0.1195	0.0144038	-0.00633425	0.000605645	7.71514E-05	0	5	0	
0.119667	-0.0202912	0.00433877	0.000638973	7.26937E-05	0	5	0	
0.119833	0.0196039	0.00166347	0.000659401	7.67206E-05	0	5	0	
0.12	-0.0206615	-0.00145481	0.00062711	8.29076E-05	0	5	0	
0.120167	0.0156457	-0.00141268	0.000582397	0.000105391	0	5	0	
0.120333	-0.0141984	0.00600786	0.000547763	0.000159027	0	5	0	
0.1205	0.0155115	-0.00723791	0.000559971	0.000233169	0	5	0	
0.120667	-0.019752	0.0113996	0.000589998	0.000263804	0	5	0	
0.120833	0.0183684	-0.00995869	0.000634266	0.000249606	0	5	0	
0.121	-0.0190702	0.00247728	0.000645211	0.000214925	0	5	0	
0.121167	0.0151414	0.00814229	0.000631053	0.000181796	0	5	0	
0.121333	-0.0190342	-0.0105585	0.000617367	0.000169153	0	5	0	
0.1215	0.0189396	0.00938476	0.000633836	0.000197764	0	5	0	
0.121667	-0.0121663	0.00113953	0.000614647	0.000238095	0	5	0	
0.121833	0.00461652	-0.00814695	0.000573424	0.000283041	0	5	0	
0.122	-0.0153215	0.00616726	0.000617149	0.000248311	0	5	0	
0.122167	0.0270374	0.00170678	0.000732956	0.000172636	0	5	0	
0.122333	-0.0214867	-0.00680643	0.00076558	0.000103517	0	5	0	
0.1225	0.00554929	0.00684495	0.000644403	9.82452E-05	0	5	0	
0.122667	-0.0162924	-0.000203116	0.000571884	0.000148036	0	5	0	
0.122833	0.0240257	-0.012685	0.000615247	0.000212106	0	5	0	
0.123	-0.0129132	0.0123053	0.000625247	0.000232376	0	5	0	
0.123167	0.00880743	-0.00272533	0.000568696	0.000257348	0	5	0	
0.123333	-0.024771	-0.00463058	0.00059146	0.000277865	0	5	0	
0.1235	0.0277222	0.00841715	0.000680151	0.000296756	0	5	0	
0.123667	-0.0137836	-0.0177822	0.000671152	0.000302755	0	5	0	
0.123833	0.00835875	0.0261679	0.000570082	0.000323156	0	5	0	
0.124	-0.0182217	-0.0152227	0.000567083	0.000404541	0	5	0	
0.124167	0.025576	-0.0136757	0.000664678	0.000571803	0	5	0	
0.124333	-0.027354	0.0383697	0.000752472	0.00065026	0	5	0	
0.1245	0.0265977	-0.0448682	0.000759338	0.000733198	0	5	0	
0.124667	-0.0203209	0.0361605	0.000710536	0.00074164	0	5	0	
0.124833	0.0114247	-0.0252785	0.000630374	0.000789508	0	5	0	
0.125	-0.0131681	0.00517985	0.000582631	0.000781543	0	5	0	
0.125167	0.0233387	0.0204438	0.000626866	0.000710639	0	5	0	
0.125333	-0.0231372	-0.0191654	0.000708223	0.00055284	0	5	0	
0.1255	0.0171558	-0.000358921	0.000745601	0.000534305	0	5	0	
0.125667	-0.0223134	0.0161381	0.000732839	0.0006258	0	5	0	
0.125833	0.0206945	-0.0191736	0.000701434	0.000786143	0	5	0	
0.126	-0.0155055	0.0150787	0.000634714	0.000752346	0	5	0	
0.126167	0.0111209	-0.0104411	0.000581994	0.000568772	0	5	0	
0.126333	-0.0184333	0.00884424	0.000607234	0.000381202	0	5	0	
0.1265	0.0238536	-0.00793123	0.000695802	0.000239446	0	5	0	
0.126667	-0.0275402	0.00573604	0.000742784	0.000167935	0	5	0	
0.126833	0.0195087	0.000406403	0.000703273	0.000129387	0	5	0	
0.127	-0.0151449	-0.00195136	0.000632046	9.30596E-05	0	5	0	
0.127167	0.0146376	0.00344549	0.00062009	6.69596E-05	0	5	0	
0.127333	-0.0134465	-0.00758302	0.00064093	8.0288E-05	0	5	0	
0.1275	0.00947427	0.00579282	0.000648334	0.000131673	0	5	0	
0.127667	-0.0156717	-0.00676245	0.000627246	0.000178783	0	5	0	
0.127833	0.0134111	0.0108629	0.000641096	0.000222814	0	5	0	
0.128	-0.0132561	-0.00320739	0.000668199	0.000297839	0	5	0	
0.128167	0.0125385	-0.0144544	0.000695895	0.000444652	0	5	0	
0.128333	-0.0156118	0.0330664	0.000718633	0.000557244	0	5	0	
0.1285	0.0254411	-0.0383135	0.000758756	0.000621979	0	5	0	
0.128667	-0.0289372	0.0222135	0.000764225	0.000659734	0	5	0	
0.128833	0.0197617	-0.000246943	0.000707309	0.000694129	0	5	0	
0.129	-0.0135949	-0.0104071	0.00059809	0.000628555	0	5	0	
0.129167	0.00704565	0.0107288	0.000477147	0.000428465	0	5	0	
0.129333	0.000186795	-0.00327485	0.000441264	0.000292782	0	5	0	
0.1295	0.00901535	-0.00682413	0.000563697	0.00035872	0	5	0	
0.129667	-0.0166737	0.0223837	0.000769693	0.000573186	0	5	0	
0.129833	0.0213267	-0.0293895	0.000895634	0.000711469	0	5	0	
0.13	-0.0224814	0.0210552	0.00087771	0.000660357	0	5	0	
0.130167	0.0187439	-0.00760133	0.000763082	0.00048444	0	5	0	
0.130333	-0.011971	0.000593361	0.00067517	0.000294147	0	5	0	
0.1305	0.0136573	0.00214991	0.000633545	0.000151202	0	5	0	
0.130667	-0.0132352	0.000750112	0.000650152	9.46548E-05	0	5	0	
0.130833	0.0117976	-0.000419289	0.000639226	7.49938E-05	0	5	0	
0.131	-0.0117113	0.00105092	0.000614087	8.5025E-05	0	5	0	
0.131167	0.0114917	-0.00411077	0.000592728	9.00877E-05	0	5	0	
0.131333	-0.0128833	0.0125539	0.000593412	0.000117195	0	5	0	
0.1315	0.00985314	-0.011656	0.000608332	0.000165743	0	5	0	
0.131667	-0.0128266	0.00197207	0.000631768	0.000200111	0	5	0	
0.131833	0.0170178	0.00367066	0.00067308	0.000185059	0	5	0	
0.132	-0.0168413	0.00080415	0.000686598	0.000146294	0	5	0	
0.132167	0.0121411	-0.00625996	0.000663855	0.00012106	0	5	0	
0.132333	-0.0143625	0.00652708	0.00063519	0.000110236	0	5	0	
0.1325	0.0158623	-0.00186416	0.000648832	0.000114052	0	5	0	
0.132667	-0.0135539	0.00115853	0.000657378	8.35473E-05	0	5	0	
0.132833	0.0110118	-0.00373177	0.000638453	8.72647E-05	0	5	0	
0.133	-0.0092189	0.00695979	0.000619378	0.000102867	0	5	0	
0.133167	0.0139724	-0.00589341	0.000637872	0.000124811	0	5	0	
0.133333	-0.0137499	0.00203865	0.000670908	0.000115116	0	5	0	
0.1335	0.0117622	-0.00407203	0.000678787	9.74793E-05	0	5	0	
0.133667	-0.0103935	0.00809127	0.000693641	0.00011032	0	5	0	
0.133833	0.0178462	-0.00858613	0.000729936	0.000140546	0	5	0	
0.134	-0.0173215	0.00606669	0.00074866	0.000154068	0	5	0	
0.134167	0.0125888	-0.00616984	0.000694278	0.000146202	0	5	0	
0.134333	-0.00604602	0.00615723	0.000626248	0.000128592	0	5	0	
0.1345	0.00700584	-0.00499256	0.000627486	0.000119273	0	5	0	
0.134667	-0.0085687	0.00021262	0.000673393	9.54444E-05	0	5	0	
0.134833	0.0083225	-0.000167921	0.000690564	8.50393E-05	0	5	0	
0.135	-0.00920199	0.00137616	0.000682648	0.000102372	0	5	0	
0.135167	0.0139323	-0.00333047	0.000696062	0.000126636	0	5	0	
0.135333	-0.012932	0.00174159	0.000713468	0.000130369	0	5	0	
0.1355	0.0110796	-0.00151313	0.000681601	0.000109836	0	5	0	
0.135667	-0.00930071	0.00118069	0.000607379	0.000116892	0	5	0	
0.135833	0.00725681	-0.00792586	0.000567162	0.000134479	0	5	0	
0.136	-0.00910542	0.0121195	0.000631819	0.000155023	0	5	0	
0.136167	0.0171914	-0.0129584	0.000753349	0.000201807	0	5	0	
0.136333	-0.0130325	-0.0048992	0.000790022	0.000297737	0	5	0	
0.1365	0.00408705	0.0375851	0.00069344	0.000447326	0	5	0	
0.136667	-0.00538514	-0.056456	0.000627839	0.000701386	0	5	0	
0.136833	0.0149603	-0.000928534	0.000697382	0.000712773	0	5	0	
0.137	-0.0145803	0.0235997	0.000791324	0.000707768	0	5	0	
0.137167	0.00931925	-0.0284376	0.000755829	0.000555513	0	5	0	
0.137333	-0.00780158	0.0148252	0.00065466	0.000525313	0	5	0	
0.1375	0.0085466	-0.00802339	0.000617823	0.000405927	0	5	0	
0.137667	-0.00836738	-0.000377124	0.000629479	0.000392802	0	5	0	
0.137833	0.00499539	-0.0118523	0.000614538	0.000493605	0	5	0	
0.138	-0.00313544	-0.0127113	0.000596467	0.000504187	0	5	0	
0.138167	0.00526528	0.00195661	0.000640415	0.000504274	0	5	0	
0.138333	-0.00991697	0.00528132	0.000712133	0.00042447	0	5	0	
0.1385	0.0048629	-0.00165548	0.000737517	0.00036281	0	5	0	
0.138667	-0.00595997	-0.0066582	0.000694331	0.000220736	0	5	0	
0.138833	0.00491919	0.0119766	0.000646111	0.000123231	0	5	0	
0.139	-0.00701769	-0.00792877	0.000637136	0.000185699	0	5	0	
0.139167	0.011594	7.64787E-05	0.000662549	0.00022321	0	5	0	
0.139333	-0.0107154	0.00227105	0.000648579	0.000232541	0	5	0	
0.1395	-0.00275444	0.00216671	0.000587976	0.000196187	0	5	0	
0.139667	-0.00739967	0.00641344	0.000587413	0.000177295	0	5	0	
0.139833	0.0198605	-0.00889585	0.000689089	0.000191012	0	5	0	
0.14	-0.0199332	0.00672719	0.000738643	0.000178325	0	5	0	
0.140167	-0.00134179	0.00421534	0.000603319	0.000181424	0	5	0	
0.140333	0.0131871	-0.0118254	0.000438853	0.000146677	0	5	0	
0.1405	-0.00684207	0.00903896	0.000491231	0.000234291	0	5	0	
0.140667	-0.00916121	0.00243689	0.000704421	0.000343514	0	5	0	
0.140833	0.00997323	-0.00810939	0.00085083	0.000482659	0	5	0	
0.141	-0.00992057	0.0122069	0.000834657	0.000498368	0	5	0	
0.141167	0.0117596	-0.0089776	0.000764914	0.000404637	0	5	0	
0.141333	-0.0109919	-0.00215021	0.000689109	0.000254043	0	5	0	
0.1415	0.00430665	0.00348601	0.000591462	0.00015135	0	5	0	
0.141667	0.000298906	-0.00238742	0.000489297	0.000106176	0	5	0	
0.141833	-0.0114337	0.0287265	0.000454012	0.000224298	0	5	0	
0.142	0.0193392	-0.0722286	0.000568376	0.000464189	0	5	0	
0.142167	-0.0177843	0.0818261	0.000854769	0.0010995	0	5	0	
0.142333	-0.0145614	-0.011713	0.00114956	0.00210099	0	5	0	
0.1425	0.0237655	-0.0619201	0.00127094	0.00291972	0	5	0	
0.142667	-0.0302008	0.0869429	0.00118976	0.00286673	0	5	0	
0.142833	0.0260641	-0.0697668	0.00099512	0.00217971	0	5	0	
0.143	-0.00223987	0.0340625	0.000700282	0.00146373	0	5	0	
0.143167	-0.0318396	0.0456298	0.000462637	0.00140245	0	5	0	
0.143333	0.0161454	-0.115017	0.000392428	0.00165881	0	5	0	
0.1435	-0.00489433	0.116518	0.000622267	0.00196245	0	5	0	
0.143667	0.00186877	-0.0446781	0.000807281	0.00200444	0	5	0	
0.143833	-0.00528299	-0.0166011	0.000890021	0.00186767	0	5	0	
0.144	-0.00559883	0.0152534	0.000905127	0.00145035	0	5	0	
0.144167	0.0105151	-0.0116237	0.000934432	0.000904862	0	5	0	
0.144333	-0.00641953	0.0160163	0.000893375	0.000558262	0	5	0	
0.1445	0.00172067	-0.0226082	0.000775922	0.000654814	0	5	0	
0.144667	-0.00631172	0.0184977	0.000732631	0.000926274	0	5	0	
0.144833	0.00932382	-0.0165961	0.000772721	0.000850835	0	5	0	
0.145	-0.00311896	0.0099144	0.000749502	0.0005597	0	5	0	
0.145167	-0.00568183	-0.0189207	0.000647225	0.000345074	0	5	0	
0.145333	-0.00123576	0.0107602	0.000631014	0.000376685	0	5	0	
0.1455	0.0124958	0.00830706	0.000729547	0.000399055	0	5	0	
0.145667	-0.00869531	-0.0190225	0.000767934	0.000367582	0	5	0	
0.145833	-0.00489245	0.0101464	0.000642628	0.000317858	0	5	0	
0.146	0.00833738	-0.00100968	0.000529436	0.000244476	0	5	0	
0.146167	0.000420491	-0.00805261	0.000582493	0.000212644	0	5	0	
0.146333	-0.00606094	0.00832137	0.000726989	0.000149172	0	5	0	
0.1465	0.00837808	-0.00105697	0.000771357	0.000142162	0	5	0	
0.146667	-0.00218613	-0.00263028	0.000688118	0.000110686	0	5	0	
0.146833	-0.00146353	0.00189264	0.000591095	4.78428E-05	0	5	0	
0.147	0.000606948	-0.0026591	0.000595428	7.06585E-05	0	5	0	
0.147167	0.00567979	0.00890433	0.000677072	0.000121784	0	5	0	
0.147333	-0.00465871	0.000678962	0.000731691	0.000156733	0	5	0	
0.1475	0.001507	-0.00538407	0.000691449	0.000160601	0	5	0	
0.147667	0.000520801	0.00486221	0.000619793	0.000133736	0	5	0	
0.147833	-0.00199338	0.00182992	0.000608234	0.000115681	0	5	0	
0.148	-0.000764279	0.0020325	0.000666059	9.46013E-05	0	5	0	
0.148167	0.00551453	0.0035641	0.000730063	8.46945E-05	0	5	0	
0.148333	-0.00422562	0.00729008	0.000738734	8.36587E-05	0	5	0	
0.1485	0.001539	-0.00790547	0.000691884	0.000135709	0	5	0	
0.148667	-0.00285194	0.00663902	0.000643855	0.000174282	0	5	0	
0.148833	0.00169893	0.000393284	0.000621382	0.000193891	0	5	0	
0.149	0.000141426	0.00510003	0.000601875	0.000149254	0	5	0	
0.149167	-0.00128494	-0.000330278	0.000586647	0.000121104	0	5	0	
0.149333	0.00131658	-0.00262666	0.000607313	9.79496E-05	0	5	0	
0.1495	0.000182124	0.0029443	0.000642985	9.77233E-05	0	5	0	
0.149667	0.00376881	0.00333349	0.000649255	9.2973E-05	0	5	0	
0.149833	-0.00243244	-0.00710041	0.000653625	0.000108179	0	5	0	
0.15	-0.00182192	0.000104399	0.000685874	9.72403E-05	0	5	0	
0.150167	0.000279404	0.00467783	0.000682802	9.50967E-05	0	5	0	
0.150333	0.00653228	-0.00682327	0.000635939	9.49195E-05	0	5	0	
0.1505	-0.000714126	-0.00131844	0.00064583	0.000136078	0	5	0	
0.150667	-0.00697039	-0.000659191	0.000725738	0.00017349	0	5	0	
0.150833	0.0021488	-0.00716514	0.000732377	0.000207198	0	5	0	
0.151	0.00426548	0.00348662	0.000636537	0.000230673	0	5	0	
0.151167	0.00167192	-0.0100402	0.000570836	0.000205001	0	5	0	
0.151333	-0.00218795	0.00177201	0.000581243	0.000175921	0	5	0	
0.1515	-0.00443615	7.88005E-05	0.000583565	0.000113611	0	5	0	
0.151667	0.00667909	-0.00570429	0.000568103	0.000118621	0	5	0	
0.151833	-0.0011069	0.00319019	0.000610964	0.000124814	0	5	0	
0.152	-0.00413388	-0.00547565	0.00069109	0.000154763	0	5	0	
0.152167	-0.00631967	0.00704976	0.000704171	0.000157578	0	5	0	
0.152333	0.00480692	-0.00677093	0.000672294	0.000170928	0	5	0	
0.1525	0.00720759	0.000578688	0.000692537	0.000206544	0	5	0	
0.152667	-0.0117339	0.00305782	0.000715783	0.00022705	0	5	0	
0.152833	-0.00376659	-0.00222294	0.000614711	0.000182528	0	5	0	
0.153	0.0204654	-0.000109113	0.000480246	0.000105253	0	5	0	
0.153167	-0.0187301	0.00137146	0.000526391	4.22187E-05	0	5	0	
0.153333	-0.00465725	-0.000838033	0.000739532	3.0771E-05	0	5	0	
0.1535	0.00361809	0.00566031	0.000838729	5.23124E-05	0	5	0	
0.153667	0.00542723	-0.00518051	0.000753998	9.21024E-05	0	5	0	
0.153833	-3.70029E-05	-0.0227749	0.00068283	0.000155011	0	5	0	
0.154	-0.00666457	0.0174096	0.000699814	0.000307208	0	5	0	
0.154167	-0.00130416	-0.00589203	0.000655931	0.000348977	0	5	0	
0.154333	0.0143116	-0.00362439	0.000549255	0.000327612	0	5	0	
0.1545	-0.00718927	0.000772916	0.000543858	0.000195286	0	5	0	
0.154667	-0.00349705	0.00170704	0.000688437	0.000165234	0	5	0	
0.154833	0.00382897	-0.0185331	0.000737407	0.000188328	0	5	0	
0.155	0.0116964	-0.00171044	0.000630621	0.000288471	0	5	0	
0.155167	-0.0131701	0.00450307	0.000528972	0.000335905	0	5	0	
0.155333	0.00691889	0.000361949	0.000590687	0.000332467	0	5	0	
0.1555	-0.00188735	0.00930893	0.000707236	0.000253399	0	5	0	
0.155667	0.00383931	-0.00989701	0.000735016	0.000254229	0	5	0	
0.155833	-0.00313982	-0.0115516	0.000696407	0.000280222	0	5	0	
0.156	0.00104805	0.0195568	0.000677009	0.000310364	0	5	0	
0.156167	0.00167383	-0.0101743	0.000650125	0.000348902	0	5	0	
0.156333	0.0153379	0.00074126	0.000577592	0.000532523	0	5	0	
0.1565	-0.0267999	0.0211373	0.000538964	0.000505685	0	5	0	
0.156667	0.0198318	0.0102715	0.000631191	0.000531725	0	5	0	
0.156833	-0.0086015	-0.0418312	0.000863549	0.00044362	0	5	0	
0.157	-0.00847119	0.0340216	0.00105142	0.000647326	0	5	0	
0.157167	0.00736385	-0.0384927	0.00106118	0.000726408	0	5	0	
0.157333	0.000304308	0.0617349	0.000903826	0.000824168	0	5	0	
0.1575	0.00146502	-0.0242111	0.000726336	0.00084979	0	5	0	
0.157667	0.00342476	-0.00595853	0.000593745	0.000663517	0	5	0	
0.157833	-0.0203449	0.000792146	0.000528331	0.000547548	0	5	0	
0.158	0.0182152	0.0146016	0.000557274	0.000488475	0	5	0	
0.158167	-0.00661272	0.00521592	0.00071472	0.000522894	0	5	0	
0.158333	0.00319443	-0.00453083	0.000806967	0.00039884	0	5	0	
0.1585	-0.0165195	0.00667863	0.000736158	0.000248076	0	5	0	
0.158667	0.0216833	0.0101662	0.00064976	0.00029744	0	5	0	
0.158833	-0.00827556	-0.0094784	0.000699579	0.00039547	0	5	0	
0.159	0.000694818	0.0255816	0.000822253	0.000405745	0	5	0	
0.159167	-0.00365899	-0.0180444	0.000815901	0.000380676	0	5	0	
0.159333	0.00724437	0.0159255	0.000730179	0.000389846	0	5	0	
0.1595	-0.00482551	0.00715246	0.000669536	0.000354954	0	5	0	
0.159667	0.00476335	0.000876494	0.000653244	0.000276764	0	5	0	
0.159833	-0.00753017	-0.00235092	0.000623182	0.000224988	0	5	0	
0.16	0.00933747	0.00719793	0.00061008	0.000234866	0	5	0	
0.160167	-0.00482821	-0.00016745	0.000652821	0.000222454	0	5	0	
0.160333	0.00161234	-0.000121292	0.000702026	0.000122551	0	5	0	
0.1605	-0.00608091	0.00785169	0.000687686	8.66531E-05	0	5	0	
0.160667	0.00757044	-0.00269393	0.000640826	0.000113426	0	5	0	
0.160833	-0.00677516	-0.00230408	0.000623889	0.000173153	0	5	0	
0.161	0.00738761	0.00380988	0.000627138	0.00017452	0	5	0	
0.161167	-0.0102471	-0.00329508	0.000622862	0.000131129	0	5	0	
0.161333	0.0134157	-0.000747225	0.000637927	8.22699E-05	0	5	0	
0.1615	-0.0132969	0.00895903	0.000694737	6.66369E-05	0	5	0	
0.161667	0.00860248	-0.00627683	0.000749123	9.9658E-05	0	5	0	
0.161833	-0.00365303	0.00710771	0.000738675	0.000121209	0	5	0	
0.162	0.00940458	-0.0107237	0.00063959	0.000152019	0	5	0	
0.162167	-0.0218868	0.0104746	0.000560966	0.000156668	0	5	0	
0.162333	0.0235693	-0.0035679	0.000598163	0.000213649	0	5	0	
0.1625	-0.0110844	-0.00466174	0.000757444	0.000261726	0	5	0	
0.162667	-0.000913312	0.00939966	0.000874645	0.000272144	0	5	0	
0.162833	0.000596027	-0.00899831	0.000817479	0.000235896	0	5	0	
0.163	0.00890619	0.00299034	0.000655855	0.000158779	0	5	0	
0.163167	-0.0119418	0.000968101	0.000553237	0.000132389	0	5	0	
0.163333	0.00975209	-0.00886374	0.000541602	0.000107969	0	5	0	
0.1635	-0.0163786	0.00654996	0.00055925	0.000130308	0	5	0	
0.163667	0.0202205	-0.00163887	0.000600919	0.000174714	0	5	0	
0.163833	-0.00875693	-0.00576245	0.000709061	0.000232758	0	5	0	
0.164	-0.00134035	0.00327894	0.000810865	0.000230723	0	5	0	
0.164167	-0.005787	0.00176064	0.000744271	0.000162608	0	5	0	
0.164333	0.0168539	-0.00513466	0.000591708	0.000120192	0	5	0	
0.1645	-0.0154977	-0.00712561	0.000530089	0.000121487	0	5	0	
0.164667	0.00720357	0.00706767	0.000636677	0.000159223	0	5	0	
0.164833	-0.00385635	0.0132071	0.000706927	0.000262785	0	5	0	
0.165	0.0170101	-0.0283894	0.000651556	0.000329962	0	5	0	
0.165167	-0.0254506	0.01485	0.000599302	0.000506191	0	5	0	
0.165333	0.0192326	0.0150813	0.000704173	0.000745086	0	5	0	
0.1655	-0.00226327	-0.0391409	0.000906732	0.00094065	0	5	0	
0.165667	-0.00678913	0.0352409	0.000996321	0.000949102	0	5	0	
0.165833	0.00491914	-0.0177763	0.000877491	0.000718902	0	5	0	
0.166	0.00852653	0.00023571	0.000651174	0.000513064	0	5	0	
0.166167	-0.0163932	0.0125911	0.000492689	0.000323713	0	5	0	
0.166333	0.0228915	-0.0118804	0.000488951	0.000253643	0	5	0	
0.1665	-0.025458	0.00379495	0.000598556	0.000244277	0	5	0	
0.166667	0.0201614	-0.00922319	0.000728433	0.000236683	0	5	0	
0.166833	-0.0107213	0.0194496	0.00084046	0.000305587	0	5	0	
0.167	0.00574769	-0.0243446	0.00087138	0.000400708	0	5	0	
0.167167	-0.00765467	0.0277035	0.000786211	0.000529386	0	5	0	
0.167333	0.0167407	-0.0196645	0.000652436	0.000527014	0	5	0	
0.1675	-0.0175486	-0.0096014	0.00060179	0.000576392	0	5	0	
0.167667	0.0117999	0.0310806	0.000678523	0.000606389	0	5	0	
0.167833	-0.00862281	-0.0302984	0.000752711	0.000621466	0	5	0	
0.168	0.0116569	0.0163973	0.000714349	0.000629143	0	5	0	
0.168167	-0.0166064	-0.000989023	0.000633288	0.000589565	0	5	0	
0.168333	0.015063	-0.00239534	0.000614601	0.000487277	0	5	0	
0.1685	-0.0104484	0.00313684	0.000661616	0.000242409	0	5	0	
0.168667	0.0173199	0.00426153	0.000679748	0.00018221	0	5	0	
0.168833	-0.0289307	-0.0187919	0.000671438	0.00025614	0	5	0	
0.169	0.017989	0.0262435	0.000654595	0.000402734	0	5	0	
0.169167	-0.0134486	-0.00745791	0.000685223	0.000461384	0	5	0	
0.169333	0.00369162	-0.00962924	0.00065433	0.000496193	0	5	0	
0.1695	-0.0124725	0.00787898	0.000629875	0.000392331	0	5	0	
0.169667	0.00266123	0.00634976	0.000596169	0.000306765	0	5	0	
0.169833	-0.00477601	0.0040447	0.000538738	0.000195353	0	5	0	
0.17	0.0266977	-0.0406187	0.000469062	0.000418012	0	5	0	
0.170167	-0.00974854	0.0772346	0.000565163	0.000822521	0	5	0	
0.170333	0.0558504	-0.0652491	0.000657618	0.00110688	0	5	0	
0.1705	-0.0397572	0.03222	0.00102365	0.00123528	0	5	0	
0.170667	0.00404657	-0.00309127	0.0011731	0.00111277	0	5	0	
0.170833	-0.00424957	-0.0229288	0.00125544	0.00107238	0	5	0	
0.171	0.00135923	0.045653	0.00100204	0.000910625	0	5	0	
0.171167	0.0448959	-0.0491599	0.000737755	0.000853119	0	5	0	
0.171333	0.0146394	0.0137179	0.000731129	0.00108706	0	5	0	
0.1715	-0.0238021	0.0366585	0.000656634	0.00140691	0	5	0	
0.171667	0.036382	-0.0542104	0.000677882	0.00146684	0	5	0	
0.171833	-0.0325476	0.0429437	0.000637051	0.00117539	0	5	0	
0.172	0.0305094	-0.0422805	0.000784446	0.00099462	0	5	0	
0.172167	-0.0222931	0.0356314	0.000865886	0.00113373	0	5	0	
0.172333	0.0166859	-0.0260289	0.000888527	0.00146623	0	5	0	
0.1725	-0.010494	-0.00739715	0.000842993	0.0016495	0	5	0	
0.172667	0.0124759	0.0305072	0.000794882	0.00156008	0	5	0	
0.172833	-0.012487	-0.0280958	0.000733131	0.0011868	0	5	0	
0.173	0.0192169	-0.0124044	0.000684492	0.000761014	0	5	0	
0.173167	-0.0214578	0.0521474	0.000651523	0.000626186	0	5	0	
0.173333	0.0235004	-0.0737132	0.000651642	0.000799006	0	5	0	
0.1735	-0.0185886	0.0570726	0.000672394	0.00107145	0	5	0	
0.173667	0.0147251	-0.0310758	0.000708352	0.00110357	0	5	0	
0.173833	-0.0133069	0.0112145	0.000701265	0.00094122	0	5	0	
0.174	0.0217828	-0.00692877	0.000658785	0.000670424	0	5	0	
0.174167	-0.0312157	0.0107133	0.000672067	0.000462819	0	5	0	
0.174333	0.0216578	-0.0107452	0.000787928	0.000370372	0	5	0	
0.1745	-0.0120379	0.0047168	0.000884342	0.00037765	0	5	0	
0.174667	0.0106503	0.000593653	0.000841455	0.000411808	0	5	0	
0.174833	-0.0120526	-0.00142599	0.000697517	0.000380354	0	5	0	
0.175	0.0158367	0.00230451	0.000613721	0.000296871	0	5	0	
0.175167	-0.0191514	-0.00116317	0.000596572	0.000201939	0	5	0	
0.175333	0.0222532	-0.00256928	0.000624378	0.000132544	0	5	0	
0.1755	-0.0225203	0.00341176	0.0006061	9.02412E-05	0	5	0	
0.175667	0.0186531	-0.00628539	0.000632211	8.58534E-05	0	5	0	
0.175833	-0.0169805	0.00835441	0.000643174	0.000111853	0	5	0	
0.176	0.0191137	-0.00170704	0.000677501	0.000144673	0	5	0	
0.176167	-0.019219	-0.00100212	0.00067758	0.00015117	0	5	0	
0.176333	0.0210456	-0.00461833	0.000684989	0.000115975	0	5	0	
0.1765	-0.0197557	0.0059188	0.000689448	9.998E-05	0	5	0	
0.176667	0.0230267	-0.00819858	0.000702531	0.000110012	0	5	0	
0.176833	-0.0145352	0.00624612	0.000734802	0.000166817	0	5	0	
0.177	0.0263956	0.00207825	0.000870614	0.000210285	0	5	0	
0.177167	-0.00809049	0.000566042	0.000919457	0.000252111	0	5	0	
0.177333	0.00203653	0.00318782	0.000812524	0.000254497	0	5	0	
0.1775	-0.0200859	-0.00227074	0.000581686	0.000230654	0	5	0	
0.177667	0.026119	-0.000224616	0.000463992	0.000168909	0	5	0	
0.177833	-0.0262897	0.00253896	0.000520252	0.000113903	0	5	0	
0.178	0.0442826	0.000810582	0.000689905	8.97732E-05	0	5	0	
0.178167	-0.0178262	0.0047478	0.000748498	9.65592E-05	0	5	0	
0.178333	0.0125116	-0.00765559	0.000739118	0.000122099	0	5	0	
0.1785	-0.0283545	0.0199719	0.000637319	0.000162063	0	5	0	
0.178667	0.0282257	-0.0153021	0.000630639	0.000272642	0	5	0	
0.178833	-0.0213126	-0.000218103	0.000711323	0.000447911	0	5	0	
0.179	0.00953129	0.00758259	0.000795989	0.000537438	0	5	0	
0.179167	-0.0113932	-0.00228681	0.000771183	0.000455778	0	5	0	
0.179333	0.0156889	0.00389179	0.000648398	0.000280055	0	5	0	
0.1795	-0.0155449	-0.00309921	0.000557811	0.000153068	0	5	0	
0.179667	0.019039	-0.00903463	0.000524624	0.000130179	0	5	0	
0.179833	-0.0192236	0.0204024	0.000541851	0.000174521	0	5	0	
0.18	0.03925	-0.0112409	0.000548842	0.000237681	0	5	0	
0.180167	-0.0293559	0.00714366	0.000675523	0.000255433	0	5	0	
0.180333	0.00994599	-0.0119237	0.000803378	0.000235565	0	5	0	
0.1805	-0.0151171	0.00918654	0.000810369	0.000187061	0	5	0	
0.180667	0.0242006	-0.00181463	0.000703051	0.000189198	0	5	0	
0.180833	-0.00819889	-0.00110913	0.000584713	0.000174448	0	5	0	
0.181	0.011676	0.0126625	0.000615278	0.000189097	0	5	0	
0.181167	-0.00954806	-0.0140601	0.000619637	0.000221384	0	5	0	
0.181333	0.0216709	0.00940752	0.000599519	0.000225352	0	5	0	
0.1815	-0.0345968	0.000223495	0.000573932	0.000238956	0	5	0	
0.181667	0.0298439	-0.00790093	0.000640764	0.000203141	0	5	0	
0.181833	-0.0244377	0.0122	0.00071519	0.000205759	0	5	0	
0.182	0.0286711	-0.00507988	0.000750472	0.000240207	0	5	0	
0.182167	-0.0214149	-0.0104089	0.000744405	0.000302761	0	5	0	
0.182333	0.00928979	0.0261292	0.000746431	0.000342909	0	5	0	
0.1825	-0.00548759	-0.0174878	0.00070081	0.000407156	0	5	0	
0.182667	0.0141003	0.000833597	0.000579418	0.000413799	0	5	0	
0.182833	-0.0238621	0.00703884	0.000479663	0.000330591	0	5	0	
0.183	0.0247873	-0.00713977	0.000504094	0.000217541	0	5	0	
0.183167	-0.0133568	-0.000403742	0.000596602	0.000128767	0	5	0	
0.183333	0.016752	0.00914348	0.000636939	0.000230907	0	5	0	
0.1835	-0.0257459	-0.0204379	0.000627752	0.000399335	0	5	0	
0.183667	0.022522	0.0187503	0.00067279	0.000548717	0	5	0	
0.183833	-0.0133999	-0.0042453	0.000717866	0.000493692	0	5	0	
0.184	0.0218302	-0.00995042	0.000683973	0.00029983	0	5	0	
0.184167	-0.0311307	0.00435513	0.000623369	0.000156881	0	5	0	
0.184333	0.0257281	-0.00623911	0.000663288	0.000185181	0	5	0	
0.1845	-0.0143411	0.00230121	0.000744721	0.000204605	0	5	0	
0.184667	0.0178817	-0.0052692	0.000724508	0.000195043	0	5	0	
0.184833	-0.0270916	0.00600549	0.000625716	0.000126183	0	5	0	
0.185	0.0287369	-0.0117597	0.000613598	0.000135605	0	5	0	
0.185167	-0.018876	0.00257548	0.000689504	0.000133591	0	5	0	
0.185333	0.0181811	-0.00471407	0.000710191	0.000151137	0	5	0	
0.1855	-0.0249523	-0.0021432	0.000627012	0.000107065	0	5	0	
0.185667	0.0276759	-0.00593466	0.000581148	9.20176E-05	0	5	0	
0.185833	-0.023771	0.00100362	0.000603763	7.19034E-05	0	5	0	
0.186	0.026845	-0.00308404	0.000642454	6.39568E-05	0	5	0	
0.186167	-0.0284519	0.0049784	0.0006385	6.94093E-05	0	5	0	
0.186333	0.0221979	-0.0264085	0.000671424	0.000146545	0	5	0	
0.1865	-0.010536	0.0192032	0.000660854	0.000278161	0	5	0	
0.186667	0.0240079	-0.0256496	0.000601916	0.000453743	0	5	0	
0.186833	-0.0206249	-0.0272554	0.000570456	0.000467524	0	5	0	
0.187	0.0361161	0.0332835	0.000584997	0.000577818	0	5	0	
0.187167	-0.0300683	-0.0167931	0.000688684	0.000712546	0	5	0	
0.187333	0.0246881	-0.00168276	0.000709547	0.000857687	0	5	0	
0.1875	-0.0125477	-0.00177078	0.000681052	0.000775045	0	5	0	
0.187667	0.0047814	-0.00910831	0.000554004	0.000608634	0	5	0	
0.187833	0.0158899	-0.0152334	0.000421437	0.000491374	0	5	0	
0.188	0.00770291	0.026578	0.000384347	0.000505651	0	5	0	
0.188167	-0.0167387	-0.0398178	0.000376194	0.000639804	0	5	0	
0.188333	0.0257141	0.0278555	0.000417488	0.000751216	0	5	0	
0.1885	-0.0202752	-0.0075163	0.000492255	0.000712284	0	5	0	
0.188667	0.0128332	-0.000515306	0.000614879	0.000495506	0	5	0	
0.188833	-0.0162095	0.00115254	0.000630074	0.000315836	0	5	0	
0.189	0.0250865	0.00162441	0.000554741	0.000199377	0	5	0	
0.189167	-0.0274757	0.00434977	0.000519484	0.000125366	0	5	0	
0.189333	0.0271359	-0.0107708	0.000601721	0.000103206	0	5	0	
0.1895	-0.026665	0.0110121	0.00069484	0.000127066	0	5	0	
0.189667	0.0268079	-0.0109175	0.000726031	0.000200663	0	5	0	
0.189833	-0.0274454	0.0033244	0.000696843	0.000185471	0	5	0	
0.19	0.0331178	-0.00442596	0.000686463	0.000166029	0	5	0	
0.190167	-0.0262144	0.00709866	0.00069535	0.00011503	0	5	0	
0.190333	0.0206795	-0.00419557	0.000722704	0.000110064	0	5	0	
0.1905	-0.0241926	-9.01269E-05	0.00068951	0.000126376	0	5	0	
0.190667	0.0318176	-0.00160045	0.000643815	0.000123389	0	5	0	
0.190833	-0.0301618	0.00285962	0.000642841	0.00013051	0	5	0	
0.191	0.024013	-0.00546279	0.000690283	0.000144688	0	5	0	
0.191167	-0.0190173	0.00953583	0.000687217	0.00015203	0	5	0	
0.191333	0.0256552	-0.00958632	0.000643564	0.000176536	0	5	0	
0.1915	-0.0269314	0.00705626	0.000613068	0.000161548	0	5	0	
0.191667	0.0243333	-0.00146905	0.000628197	0.000174742	0	5	0	
0.191833	-0.0269472	-0.00654811	0.00064075	0.000162334	0	5	0	
0.192	0.0296409	0.0108144	0.000638968	0.000164239	0	5	0	
0.192167	-0.0271589	-0.000847327	0.000641488	0.000149705	0	5	0	
0.192333	0.0255074	-0.0021225	0.000666315	0.000123955	0	5	0	
0.1925	-0.0245937	0.00560496	0.000668238	8.94675E-05	0	5	0	
0.192667	0.0272607	-0.00374239	0.000654493	8.23829E-05	0	5	0	
0.192833	-0.0275848	0.00823641	0.000629345	0.000101624	0	5	0	
0.193	0.0240068	-0.00795624	0.00064426	0.000134432	0	5	0	
0.193167	-0.0199469	0.00669151	0.000643078	0.000156191	0	5	0	
0.193333	0.0247569	-0.0049947	0.00060503	0.000151554	0	5	0	
0.1935	-0.0292676	0.00317209	0.000570509	0.000152103	0	5	0	
0.193667	0.0254273	-0.000421403	0.000591831	0.000138135	0	5	0	
0.193833	-0.0192598	0.000207382	0.000604553	0.000112168	0	5	0	
0.194	0.028265	-0.00284769	0.000576762	6.78946E-05	0	5	0	
0.194167	-0.0362686	0.00650494	0.000586025	7.29526E-05	0	5	0	
0.194333	0.029946	-0.00505454	0.000651419	8.82676E-05	0	5	0	
0.1945	-0.0241753	0.0051806	0.000723748	0.000132701	0	5	0	
0.194667	0.0277073	-0.00313517	0.000718893	0.000130527	0	5	0	
0.194833	-0.0235231	0.000869801	0.000677817	0.00013062	0	5	0	
0.195	0.0223124	-0.00662825	0.000649029	9.97414E-05	0	5	0	
0.195167	-0.0245422	0.009214	0.000630693	0.000125854	0	5	0	
0.195333	0.0304887	-0.00844009	0.000615781	0.00014634	0	5	0	
0.1955	-0.0332411	0.0128172	0.000601206	0.000189838	0	5	0	
0.195667	0.0266655	-0.00567401	0.000633634	0.000198019	0	5	0	
0.195833	-0.0198523	-0.00278483	0.000675582	0.000218191	0	5	0	
0.196	0.0270365	0.00375147	0.000664296	0.000164883	0	5	0	
0.196167	-0.0336925	0.000237435	0.000626705	0.000168987	0	5	0	
0.196333	0.0290934	-0.00950985	0.0006396	0.000180872	0	5	0	
0.1965	-0.0164662	0.0159528	0.00070345	0.000243123	0	5	0	
0.196667	0.0162389	-0.0121712	0.00069991	0.000250413	0	5	0	
0.196833	-0.0311845	0.00599821	0.000646707	0.000228677	0	5	0	
0.197	0.0159484	0.00178451	0.000554949	0.000216999	0	5	0	
0.197167	-0.0282614	-0.00687134	0.000552245	0.000184272	0	5	0	
0.197333	0.0406347	0.0035076	0.000564187	0.000163566	0	5	0	
0.1975	-0.0358179	0.00132786	0.000680899	0.000124182	0	5	0	
0.197667	0.0292562	-0.00582999	0.000771327	0.000112387	0	5	0	
0.197833	-0.0251776	0.00779108	0.000816417	0.000110948	0	5	0	
0.198	0.00742246	-0.00434722	0.000707561	0.000127463	0	5	0	
0.198167	-0.0269467	0.00823745	0.000614366	0.00012826	0	5	0	
0.198333	0.0294145	-0.00390102	0.000534639	0.000132902	0	5	0	
0.1985	-0.0288548	0.0059107	0.000587245	0.000130622	0	5	0	
0.198667	0.0319717	-0.00404316	0.000620247	0.000118577	0	5	0	
0.198833	-0.0297655	0.00674558	0.000673403	0.000106733	0	5	0	
0.199	0.0249204	-0.00375478	0.000662944	0.000114434	0	5	0	
0.199167	-0.0267622	0.00157388	0.000625469	9.63111E-05	0	5	0	
0.199333	0.0336941	-0.00170843	0.000602715	8.61408E-05	0	5	0	
0.1995	-0.037075	0.00862332	0.000638186	6.0948E-05	0	5	0	
0.199667	0.0329197	-0.00572073	0.000716336	9.80749E-05	0	5	0	
0.199833	-0.0276585	0.00654673	0.000760946	0.000138886	0	5	0	
0.2	0.0271856	-0.00397251	0.000726886	0.000182129	0	5	0	
0.200167	-0.0290413	-0.00134386	0.000668752	0.00016159	0	5	0	
0.200333	0.0301345	-0.00413497	0.000637651	0.000125528	0	5	0	
0.2005	-0.0279834	-0.000504466	0.00063297	7.77433E-05	0	5	0	
0.200667	0.0313604	-0.00845068	0.000628623	8.62223E-05	0	5	0	
0.200833	-0.03792	0.00807091	0.000640187	0.000124877	0	5	0	
0.201	0.04028	-0.0102151	0.000681997	0.000168245	0	5	0	
0.201167	-0.0301012	0.00293347	0.000722455	0.000166216	0	5	0	
0.201333	0.0261049	-0.00456729	0.000727593	0.000147274	0	5	0	
0.2015	-0.0254929	-0.00314843	0.000677584	0.000117336	0	5	0	
0.201667	0.0285721	-0.00118645	0.000635207	9.90986E-05	0	5	0	
0.201833	-0.0303996	-0.00562905	0.000606449	8.52398E-05	0	5	0	
0.202	0.0307102	-0.00351843	0.000615191	9.17285E-05	0	5	0	
0.202167	-0.0284696	0.00500725	0.000618134	9.79356E-05	0	5	0	
0.202333	0.0272934	0.00122288	0.000643366	0.000152391	0	5	0	
0.2025	-0.0240004	-0.012758	0.000623904	0.000147267	0	5	0	
0.202667	0.0373597	-0.00436123	0.000625388	0.000326735	0	5	0	
0.202833	-0.0550463	-0.00824525	0.000683734	0.000700497	0	5	0	
0.203	0.0427165	0.0320844	0.000806515	0.00109323	0	5	0	
0.203167	-0.0526508	-0.040053	0.000925374	0.00124499	0	5	0	
0.203333	0.0541165	0.0598695	0.000958623	0.00138249	0	5	0	
0.2035	-0.0324174	-0.0700039	0.000986273	0.00159726	0	5	0	
0.203667	0.0162056	0.0716485	0.000931806	0.00172544	0	5	0	
0.203833	-0.0111884	-0.0925042	0.00072823	0.0015734	0	5	0	
0.204	0.00692889	0.0732205	0.000507359	0.00161455	0	5	0	
0.204167	-0.0351153	0.0201197	0.000392074	0.00138051	0	5	0	
0.204333	0.0419053	-0.0668996	0.000459027	0.00132968	0	5	0	
0.2045	-0.0382427	0.0542184	0.000620379	0.00119429	0	5	0	
0.204667	0.0421433	-0.0242909	0.000726221	0.00140985	0	5	0	
0.204833	-0.0362098	0.0102539	0.000793222	0.00123469	0	5	0	
0.205	0.0251872	0.00275871	0.000753253	0.000739563	0	5	0	
0.205167	-0.0299444	0.00282243	0.000676573	0.000340427	0	5	0	
0.205333	0.0400864	-1.68405E-05	0.000634227	0.000218675	0	5	0	
0.2055	-0.0366338	-0.0105637	0.000653473	0.000278684	0	5	0	
0.205667	0.0335184	0.015842	0.000706679	0.000317909	0	5	0	
0.205833	-0.0347701	-0.0138079	0.000717274	0.000287713	0	5	0	
0.206	0.0320341	0.00880259	0.00069138	0.00028017	0	5	0	
0.206167	-0.0257989	0.00717133	0.000659552	0.000211354	0	5	0	
0.206333	0.0280864	-0.00570362	0.000629221	0.00018652	0	5	0	
0.2065	-0.0369027	-0.00370542	0.000608305	0.000130893	0	5	0	
0.206667	0.0373695	0.0114884	0.000650324	0.000157616	0	5	0	
0.206833	-0.0314357	-0.00556058	0.000659814	0.000175712	0	5	0	
0.207	0.0222096	0.000350555	0.000665348	0.000165042	0	5	0	
0.207167	-0.0215107	0.00185291	0.000598597	0.000118618	0	5	0	
0.207333	0.0312906	-0.00297211	0.000573634	9.42141E-05	0	5	0	
0.2075	-0.0325558	0.00541364	0.000567929	7.73138E-05	0	5	0	
0.207667	0.0144862	-0.00307661	0.000579325	0.00010359	0	5	0	
0.207833	-0.0114832	0.00946449	0.000528489	0.00014165	0	5	0	
0.208	0.0278435	-0.0118094	0.000468907	0.000206775	0	5	0	
0.208167	-0.0407483	0.00525354	0.000498773	0.000236002	0	5	0	
0.208333	0.0329163	0.00213367	0.000616978	0.000230262	0	5	0	
0.2085	-0.0259922	-0.000997076	0.000674746	0.000186555	0	5	0	
0.208667	0.0366455	-0.00155765	0.000659844	0.000132812	0	5	0	
0.208833	-0.0457554	0.00139981	0.000669785	7.24784E-05	0	5	0	
0.209	0.0379956	-0.00518703	0.000755768	6.51217E-05	0	5	0	
0.209167	-0.0237024	0.00912703	0.000798183	7.80538E-05	0	5	0	
0.209333	0.0237279	-0.0159824	0.000729591	0.000160106	0	5	0	
0.2095	-0.0298759	0.00679636	0.000614417	0.000207747	0	5	0	
0.209667	0.0329088	-0.00721213	0.000569386	0.000238868	0	5	0	
0.209833	-0.0293655	0.00303114	0.000590388	0.000180073	0	5	0	
0.21	0.029329	-0.00665823	0.000613142	0.000139663	0	5	0	
0.210167	-0.0345732	0.00652823	0.00061442	0.000114197	0	5	0	
0.210333	0.0373583	-0.0101574	0.000639048	0.000147072	0	5	0	
0.2105	-0.0356118	0.00286203	0.000678302	0.000160593	0	5	0	
0.210667	0.0314687	-0.00896212	0.000701804	0.000161057	0	5	0	
0.210833	-0.0288044	0.0118927	0.000683473	0.000187406	0	5	0	
0.211	0.0313553	-0.016219	0.000647038	0.000218533	0	5	0	
0.211167	-0.0435965	-0.00160714	0.000654443	0.000245711	0	5	0	
0.211333	0.0482184	0.0236334	0.000733602	0.000293342	0	5	0	
0.2115	-0.0418971	-0.015705	0.000825369	0.000333806	0	5	0	
0.211667	0.0295745	0.00966748	0.000844037	0.000363865	0	5	0	
0.211833	-0.0278284	0.000134552	0.000752573	0.000325478	0	5	0	
0.212	0.0316136	-0.00370861	0.000658973	0.000283378	0	5	0	
0.212167	-0.0330881	0.00734828	0.000603536	0.000245066	0	5	0	
0.212333	0.0301776	-0.00837603	0.000606624	0.000196549	0	5	0	
0.2125	-0.0342068	0.0141006	0.000604073	0.000285481	0	5	0	
0.212667	0.0392148	0.00343501	0.000632103	0.000352855	0	5	0	
0.212833	-0.0387292	-0.00656456	0.000680273	0.000361337	0	5	0	
0.213	0.0321801	-0.000571293	0.000720653	0.000220352	0	5	0	
0.213167	-0.0285564	0.0080814	0.000694677	0.000138122	0	5	0	
0.213333	0.0365152	-0.00249619	0.000647063	0.00011985	0	5	0	
0.2135	-0.0410156	-0.00284679	0.000655027	0.000105931	0	5	0	
0.213667	0.0337455	0.00169896	0.000691663	8.28134E-05	0	5	0	
0.213833	-0.0289673	0.000407636	0.000698585	7.2201E-05	0	5	0	
0.214	0.0330543	-0.00760355	0.000654891	9.04069E-05	0	5	0	
0.214167	-0.035854	0.00227573	0.000631434	0.000118963	0	5	0	
0.214333	0.034449	0.00373654	0.000638167	0.000105085	0	5	0	
0.2145	-0.0343776	-0.0052337	0.000660394	0.00010912	0	5	0	
0.214667	0.0342378	0.000388026	0.000663064	8.35089E-05	0	5	0	
0.214833	-0.0330932	3.76441E-05	0.000658282	6.44657E-05	0	5	0	
0.215	0.0318797	-0.00148382	0.000645554	4.97235E-05	0	5	0	
0.215167	-0.0308462	-0.001547	0.000620025	7.09441E-05	0	5	0	
0.215333	0.034258	-0.00369222	0.000614442	0.00010364	0	5	0	
0.2155	-0.0303259	0.00418642	0.000638366	9.80476E-05	0	5	0	
0.215667	0.0298956	0.00295267	0.000633701	9.32374E-05	0	5	0	
0.215833	-0.0266004	-0.010135	0.000601821	0.000123584	0	5	0	
0.216	0.0314973	0.0155818	0.000555324	0.000182145	0	5	0	
0.216167	-0.037569	-0.0150864	0.000590242	0.000239339	0	5	0	
0.216333	0.0382613	0.0145631	0.000660914	0.000284494	0	5	0	
0.2165	-0.0220295	-0.0110488	0.000701762	0.000391922	0	5	0	
0.216667	0.0234772	-0.00797116	0.000611652	0.000487764	0	5	0	
0.216833	-0.0355656	0.0191908	0.000562025	0.000472244	0	5	0	
0.217	0.0419593	-0.012478	0.000583382	0.000393916	0	5	0	
0.217167	-0.03443	0.00279162	0.000707172	0.00030364	0	5	0	
0.217333	0.0354935	0.00868469	0.000728983	0.000317055	0	5	0	
0.2175	-0.0400622	-0.0235614	0.000707398	0.000340527	0	5	0	
0.217667	0.0331977	0.0204369	0.000690171	0.000371938	0	5	0	
0.217833	-0.0205166	-0.00759629	0.000662087	0.000370417	0	5	0	
0.218	0.022277	-0.000688802	0.00058217	0.000347805	0	5	0	
0.218167	-0.035224	0.00767638	0.000530336	0.000281909	0	5	0	
0.218333	0.0457133	-0.00809258	0.000592088	0.000225263	0	5	0	
0.2185	-0.0425897	0.00510562	0.000705609	0.000167692	0	5	0	
0.218667	0.0295944	0.000639146	0.000770191	0.00013998	0	5	0	
0.218833	-0.0153568	0.000624669	0.000681213	0.000111644	0	5	0	
0.219	0.0270898	0.0026957	0.000552094	8.87995E-05	0	5	0	
0.219167	-0.0365289	-0.00603197	0.000505681	6.22939E-05	0	5	0	
0.219333	0.0306006	-0.0128441	0.000547386	0.000187583	0	5	0	
0.2195	-0.0316069	0.0700888	0.000622586	0.000507159	0	5	0	
0.219667	0.0339838	-0.115471	0.00061938	0.00104399	0	5	0	
0.219833	-0.064616	0.102466	0.000801303	0.00183897	0	5	0	
0.22	0.0483574	0.0530507	0.000938259	0.00203752	0	5	0	
0.220167	-0.0148031	-0.0753322	0.000978584	0.00206794	0	5	0	
0.220333	0.0140481	-0.0161109	0.000782866	0.0016147	0	5	0	
0.2205	-0.0374462	0.0078043	0.000684959	0.00137915	0	5	0	
0.220667	0.0457304	0.0364808	0.000739168	0.00121887	0	5	0	
0.220833	-0.0454127	-0.0627555	0.000928767	0.00132897	0	5	0	
0.221	0.00432996	0.153873	0.000870204	0.00205232	0	5	0	
0.221167	-0.0231191	-0.0633793	0.000871479	0.0025475	0	5	0	
0.221333	0.0650628	-0.027742	0.000796633	0.00242662	0	5	0	
0.2215	-0.0353613	-0.00204993	0.000970363	0.00169772	0	5	0	
0.221667	0.0449559	0.00750301	0.000908458	0.00101349	0	5	0	
0.221833	-0.054777	0.0190487	0.000926651	0.000700673	0	5	0	
0.222	0.0314634	-0.0252835	0.000804006	0.000477977	0	5	0	
0.222167	-0.00946723	0.0339039	0.000732764	0.000508908	0	5	0	
0.222333	0.0169793	-0.0144358	0.000536867	0.000582559	0	5	0	
0.2225	-0.00926399	0.0091539	0.000422069	0.000687256	0	5	0	
0.222667	0.0243132	0.0155493	0.000376261	0.000491673	0	5	0	
0.222833	-0.0484863	-0.0387545	0.000576461	0.000424707	0	5	0	
0.223	0.0597239	0.0353726	0.000791615	0.000528292	0	5	0	
0.223167	-0.0353516	-0.0172054	0.000977673	0.000588626	0	5	0	
0.223333	0.024743	0.0232631	0.000851401	0.000619446	0	5	0	
0.2235	-0.0402204	-0.0139078	0.000714694	0.000467085	0	5	0	
0.223667	0.0421653	0.0183958	0.000680275	0.000481347	0	5	0	
0.223833	-0.0288132	-0.00420608	0.000708681	0.000375006	0	5	0	
0.224	0.0241724	-0.00591019	0.000677347	0.000282714	0	5	0	
0.224167	-0.0378269	0.0166473	0.000622279	0.000244781	0	5	0	
0.224333	0.0451342	-0.0113563	0.000653363	0.000253902	0	5	0	
0.2245	-0.0394101	0.0183696	0.000745596	0.000290024	0	5	0	
0.224667	0.0361487	-0.00860866	0.000771012	0.000278698	0	5	0	
0.224833	-0.033126	0.00340606	0.000721931	0.000223477	0	5	0	
0.225	0.0262689	-0.00469729	0.000652454	0.00016508	0	5	0	
0.225167	-0.0243497	0.00813134	0.000579983	0.000127512	0	5	0	
0.225333	0.0275172	0.00557029	0.000561223	0.000142423	0	5	0	
0.2255	-0.0400218	-0.0096545	0.000621469	0.000188456	0	5	0	
0.225667	0.0468118	0.0132778	0.00072761	0.000212002	0	5	0	
0.225833	-0.0363901	0.00667175	0.000789885	0.000193874	0	5	0	
0.226	0.0244793	-0.00918232	0.000743288	0.000179427	0	5	0	
0.226167	-0.0331827	0.0101064	0.000653907	0.000170582	0	5	0	
0.226333	0.0342039	-0.00273259	0.000610593	0.000179995	0	5	0	
0.2265	-0.0181541	0.00373275	0.000572101	0.000195475	0	5	0	
0.226667	0.0209949	0.000256167	0.00052183	0.000209107	0	5	0	
0.226833	-0.0445744	0.0097089	0.000550334	0.00021048	0	5	0	
0.227	0.0346481	-0.0167086	0.000632574	0.000248054	0	5	0	
0.227167	-0.0127488	0.021478	0.000644476	0.000263839	0	5	0	
0.227333	0.0171744	-0.0310131	0.000564694	0.000418068	0	5	0	
0.2275	-0.0322282	0.000144853	0.00054098	0.000463286	0	5	0	
0.227667	0.0261351	0.000957115	0.000566445	0.000468775	0	5	0	
0.227833	-0.0264899	0.0239697	0.00058306	0.000382988	0	5	0	
0.228	0.0360145	-0.0276515	0.000595753	0.000412887	0	5	0	
0.228167	-0.0448833	0.028193	0.000675019	0.000479078	0	5	0	
0.228333	0.0300833	-0.0249179	0.000731801	0.000531712	0	5	0	
0.2285	-0.0171274	-0.00761542	0.000669041	0.000452438	0	5	0	
0.228667	0.018223	0.00849885	0.000535174	0.00039118	0	5	0	
0.228833	-0.026437	0.0133293	0.00045608	0.00028077	0	5	0	
0.229	0.025876	-0.00984199	0.000453833	0.000274289	0	5	0	
0.229167	-0.0266525	0.0142479	0.000511677	0.00029422	0	5	0	
0.229333	0.0320315	-0.0162756	0.000566778	0.000368662	0	5	0	
0.2295	-0.040208	0.0217988	0.000649728	0.000385577	0	5	0	
0.229667	0.037889	-0.00748722	0.000717237	0.000366975	0	5	0	
0.229833	-0.0332771	0.0114665	0.000740061	0.000357967	0	5	0	
0.23	0.0356413	-0.0125001	0.000702541	0.000358781	0	5	0	
0.230167	-0.0365123	0.00667549	0.000688781	0.000361149	0	5	0	
0.230333	0.0318861	-0.00756051	0.000677423	0.000376686	0	5	0	
0.2305	-0.0302672	-0.00398442	0.000647678	0.000517285	0	5	0	
0.230667	0.0271503	0.00909343	0.000601996	0.00068476	0	5	0	
0.230833	-0.0251213	-0.00532944	0.000548503	0.000711918	0	5	0	
0.231	0.0288718	-0.00997141	0.000542338	0.000507429	0	5	0	
0.231167	-0.0386268	0.00131776	0.000589421	0.000285893	0	5	0	
0.231333	0.0378896	0.0162599	0.000658719	0.000195186	0	5	0	
0.2315	-0.0305227	-0.0385013	0.000687835	0.000284429	0	5	0	
0.231667	0.0306837	0.0286913	0.00066129	0.000519978	0	5	0	
0.231833	-0.0346802	-0.0125953	0.000628698	0.000540558	0	5	0	
0.232	0.0307886	-0.00378785	0.000624869	0.000454825	0	5	0	
0.232167	-0.0328728	0.00214692	0.000628199	0.000189738	0	5	0	
0.232333	0.036135	-0.00679943	0.000649762	0.000124527	0	5	0	
0.2325	-0.0326295	0.00721578	0.000668783	0.000104649	0	5	0	
0.232667	0.0300772	-0.00595226	0.000669645	0.000119258	0	5	0	
0.232833	-0.0393343	0.00144341	0.000670338	0.000115599	0	5	0	
0.233	0.036239	0.00315424	0.000688842	9.50579E-05	0	5	0	
0.233167	-0.0309005	0.00467649	0.00069733	0.000107388	0	5	0	
0.233333	0.0288904	-0.0112482	0.000681898	0.0001281	0	5	0	
0.2335	-0.0338645	-0.0280954	0.00065839	0.000203253	0	5	0	
0.233667	0.0302488	0.0187513	0.00067039	0.000363662	0	5	0	
0.233833	-0.0296603	-0.00624292	0.000656227	0.000375084	0	5	0	
0.234	0.0270909	-0.00269188	0.000630478	0.000390402	0	5	0	
0.234167	-0.0267106	-0.00109539	0.00059258	0.00021657	0	5	0	
0.234333	0.0278883	0.000114736	0.000583238	0.000209217	0	5	0	
0.2345	-0.0290015	0.00199264	0.000572561	0.000173663	0	5	0	
0.234667	0.0306567	-0.0312784	0.000588292	0.000295186	0	5	0	
0.234833	-0.038235	0.0205758	0.000618401	0.000511498	0	5	0	
0.235	0.0240127	-0.00758802	0.00062043	0.000532709	0	5	0	
0.235167	-0.0161647	0.00287963	0.000552753	0.000394906	0	5	0	
0.235333	0.0310367	0.00420778	0.000504056	0.000203356	0	5	0	
0.2355	-0.0376134	-0.0141561	0.000559303	0.000229909	0	5	0	
0.235667	0.0332248	0.0202347	0.000641133	0.000332103	0	5	0	
0.235833	-0.0381205	-0.0236655	0.000738057	0.000346806	0	5	0	
0.236	0.0318097	0.041533	0.000713035	0.000484495	0	5	0	
0.236167	-0.0248485	-0.0261548	0.000676961	0.000703426	0	5	0	
0.236333	0.0193335	-0.00658626	0.000558418	0.000969602	0	5	0	
0.2365	-0.0305226	0.0305926	0.000555873	0.000967023	0	5	0	
0.236667	0.043371	-0.0368124	0.000681047	0.000827221	0	5	0	
0.236833	-0.0525999	0.00859344	0.000854577	0.000904583	0	5	0	
0.237	0.033445	0.0302087	0.000880941	0.00108436	0	5	0	
0.237167	-0.0152459	-0.0463962	0.000757188	0.0011793	0	5	0	
0.237333	0.00891013	0.0388516	0.000528692	0.000980976	0	5	0	
0.2375	-0.0242099	-0.0257982	0.000470977	0.000767612	0	5	0	
0.237667	0.0324003	-0.00905342	0.000537422	0.000636461	0	5	0	
0.237833	-0.0358602	0.0291003	0.000678581	0.000553936	0	5	0	
0.238	0.0358513	-0.032228	0.000742619	0.000531786	0	5	0	
0.238167	-0.0389562	0.0102065	0.000724636	0.000594574	0	5	0	
0.238333	0.0313715	-0.000467174	0.000711491	0.0006025	0	5	0	
0.2385	-0.023217	-0.00223284	0.000636531	0.000465216	0	5	0	
0.238667	0.0261133	-0.00388432	0.000598096	0.000248329	0	5	0	
0.238833	-0.0396193	0.0136245	0.000626476	0.000125426	0	5	0	
0.239	0.0362192	-0.0166274	0.00069344	0.000179647	0	5	0	
0.239167	-0.0234349	0.00571459	0.000697709	0.000240578	0	5	0	
0.239333	0.0247634	0.000213561	0.000653338	0.000239259	0	5	0	
0.2395	-0.0344756	0.00459326	0.000656789	0.000239827	0	5	0	
0.239667	0.0319735	-0.0111207	0.000701747	0.000261926	0	5	0	
0.239833	-0.0272114	0.00973507	0.000716715	0.000280751	0	5	0	
0.24	0.0331917	-0.00134763	0.000699673	0.000206537	0	5	0	
0.240167	-0.030479	0.00270646	0.000671146	0.00014434	0	5	0	
0.240333	0.0190181	-0.00359763	0.00060452	0.000134269	0	5	0	
0.2405	-0.020332	0.00658644	0.00053105	0.000123348	0	5	0	
0.240667	0.0337471	-0.00567298	0.000560306	0.000121639	0	5	0	
0.240833	-0.0399092	0.00601982	0.00066822	0.000111657	0	5	0	
0.241	0.027582	-0.00302273	0.000717169	0.000106426	0	5	0	
0.241167	-0.0200148	0.00042363	0.000633221	8.91189E-05	0	5	0	
0.241333	0.0267319	0.00211025	0.000573911	5.87136E-05	0	5	0	
0.2415	-0.0316361	0.00357908	0.000593982	4.84884E-05	0	5	0	
0.241667	0.0287751	-0.00232119	0.000653777	6.23132E-05	0	5	0	
0.241833	-0.0298653	0.00522604	0.000676344	7.19743E-05	0	5	0	
0.242	0.0343629	-0.00340784	0.000716253	0.000109088	0	5	0	
0.242167	-0.033834	0.00283474	0.000728692	0.000103818	0	5	0	
0.242333	0.024818	-0.000290706	0.000714482	8.87974E-05	0	5	0	
0.2425	-0.0252301	0.00502936	0.000635157	5.6452E-05	0	5	0	
0.242667	0.0285675	-0.00559339	0.000628551	6.9307E-05	0	5	0	
0.242833	-0.0276042	0.0190467	0.00063668	0.000123368	0	5	0	
0.243	0.0266924	-0.0101375	0.000685113	0.000234176	0	5	0	
0.243167	-0.0311986	0.00100094	0.000686699	0.000225271	0	5	0	
0.243333	0.0301235	-0.00119324	0.000699163	0.00018286	0	5	0	
0.2435	-0.0221484	-0.00149251	0.000659198	7.1889E-05	0	5	0	
0.243667	0.0215109	0.00408675	0.000623087	5.73598E-05	0	5	0	
0.243833	-0.0257323	0.000102534	0.000602156	8.70216E-05	0	5	0	
0.244	0.0189473	0.00609335	0.000610488	0.000193625	0	5	0	
0.244167	-0.021578	-0.0014905	0.000635436	0.000303055	0	5	0	
0.244333	0.0370238	-0.00336509	0.000717319	0.00029605	0	5	0	
0.2445	-0.0378495	-0.00403518	0.000789801	0.000207524	0	5	0	
0.244667	0.0252239	0.0051567	0.000764545	0.000133467	0	5	0	
0.244833	-0.0189615	-0.00327783	0.000634671	0.000114085	0	5	0	
0.245	0.0208992	0.00151433	0.000554167	0.000110132	0	5	0	
0.245167	-0.0213849	0.00153024	0.000568803	7.53619E-05	0	5	0	
0.245333	0.026871	-0.0029428	0.000627981	6.51292E-05	0	5	0	
0.2455	-0.0276149	0.00560583	0.000667019	5.93982E-05	0	5	0	
0.245667	0.0243892	-0.00556346	0.00065598	8.74226E-05	0	5	0	
0.245833	-0.0169353	-0.00158566	0.000615414	0.000120188	0	5	0	
0.246	0.0164288	0.00366199	0.000571653	0.000121802	0	5	0	
0.246167	-0.0208918	-0.000909349	0.000581018	9.62544E-05	0	5	0	
0.246333	0.0269961	-0.00181508	0.000626862	7.94601E-05	0	5	0	
0.2465	-0.0312226	-0.00397741	0.000692333	6.82287E-05	0	5	0	
0.246667	0.0320139	0.0122847	0.000717684	0.000102761	0	5	0	
0.246833	-0.0199229	-0.00893847	0.000678339	0.000174853	0	5	0	
0.247	0.0150559	-0.000265974	0.000539333	0.000243357	0	5	0	
0.247167	-0.0172091	-0.000962642	0.00045705	0.00022775	0	5	0	
0.247333	0.0170765	0.00122291	0.000463264	0.000144664	0	5	0	
0.2475	-0.0234071	0.000800073	0.000551925	0.000117463	0	5	0	
0.247667	0.0251909	0.00752558	0.00061866	0.000190029	0	5	0	
0.247833	-0.0274059	-0.00945053	0.000638166	0.0002922	0	5	0	
0.248	0.0255952	-0.00505333	0.000614546	0.000267518	0	5	0	
0.248167	-0.023877	0.0374877	0.000573635	0.000268747	0	5	0	
0.248333	0.017576	-0.10255	0.000526649	0.000593662	0	5	0	
0.2485	-0.0148955	0.102258	0.000492397	0.00130145	0	5	0	
0.248667	0.0170132	-0.0607293	0.00046091	0.00180247	0	5	0	
0.248833	-0.0240799	0.0209244	0.000505977	0.00159584	0	5	0	
0.249	0.0252862	-0.00691526	0.000621688	0.00098714	0	5	0	
0.249167	-0.0349608	0.0098986	0.000746755	0.000485693	0	5	0	
0.249333	0.037523	-0.0406537	0.000814872	0.000533555	0	5	0	
0.2495	-0.027673	0.0351637	0.000775107	0.000997605	0	5	0	
0.249667	0.0212925	-0.0112311	0.000659291	0.00144386	0	5	0	
0.249833	-0.020982	-0.0105341	0.000579673	0.00147217	0	5	0	
0.25	0.0233302	0.00759015	0.000609563	0.0010201	0	5	0	
0.250167	-0.0302832	0.00526374	0.00069542	0.000565995	0	5	0	
0.250333	0.036273	-0.00772627	0.000753012	0.00034533	0	5	0	
0.2505	-0.033424	0.0123758	0.000773188	0.000267017	0	5	0	
0.250667	0.0254978	-0.0046107	0.000750499	0.000223696	0	5	0	
0.250833	-0.0153957	0.00232022	0.000677106	0.000152202	0	5	0	
0.251	0.0175626	0.00335149	0.000596407	0.00012018	0	5	0	
0.251167	-0.0203053	4.04899E-05	0.00060838	0.000103367	0	5	0	
0.251333	0.0230909	0.00542388	0.000684901	0.000141911	0	5	0	
0.2515	-0.017098	-0.00756806	0.000749742	0.000202261	0	5	0	
0.251667	0.00691821	-0.00717071	0.000730099	0.000316036	0	5	0	
0.251833	-0.0206282	0.0399551	0.000706074	0.000536569	0	5	0	
0.252	0.0276974	-0.0348165	0.000740993	0.000768836	0	5	0	
0.252167	-0.0262829	0.00829119	0.000777374	0.000805894	0	5	0	
0.252333	0.0131393	0.040642	0.000690517	0.0007403	0	5	0	
0.2525	-0.0107018	-0.034155	0.000567546	0.000713198	0	5	0	
0.252667	0.020194	0.0255544	0.000568632	0.00072733	0	5	0	
0.252833	-0.0294848	-0.0204646	0.000634397	0.000644302	0	5	0	
0.253	0.0118852	0.0316692	0.000649525	0.000636259	0	5	0	
0.253167	-0.0183557	-0.0258386	0.000561877	0.000723526	0	5	0	
0.253333	0.0239538	0.0397626	0.000586085	0.000874727	0	5	0	
0.2535	-0.0292815	-0.0162082	0.00066852	0.000802238	0	5	0	
0.253667	0.0204691	0.00346884	0.000711957	0.000591233	0	5	0	
0.253833	-0.00957547	0.0107977	0.000582537	0.000361588	0	5	0	
0.254	0.0139423	-0.0107412	0.000470543	0.000213782	0	5	0	
0.254167	-0.0322681	0.00446547	0.000543932	0.000190838	0	5	0	
0.254333	0.0288909	0.00642928	0.000707191	0.000173674	0	5	0	
0.2545	-0.0162222	-0.00778001	0.000746213	0.000137399	0	5	0	
0.254667	0.0167705	0.00943881	0.000680775	0.000189244	0	5	0	
0.254833	-0.0323335	-0.00239013	0.000701122	0.000274758	0	5	0	
0.255	0.0318678	0.00565378	0.000801007	0.000418224	0	5	0	
0.255167	-0.0182485	-0.00747599	0.000805259	0.000539102	0	5	0	
0.255333	0.0111686	0.0127528	0.00071211	0.000615672	0	5	0	
0.2555	-0.0183557	-0.0190869	0.000691428	0.000541228	0	5	0	
0.255667	0.0333272	0.0223837	0.000811162	0.000496072	0	5	0	
0.255833	-0.0364073	-0.0120184	0.000920854	0.00042759	0	5	0	
0.256	0.0228526	0.0128371	0.0008599	0.000400261	0	5	0	
0.256167	-0.0057982	-0.0236494	0.000647015	0.000355169	0	5	0	
0.256333	0.0108678	0.0186162	0.000523438	0.000367938	0	5	0	
0.2565	-0.020484	0.000187228	0.000533455	0.00036765	0	5	0	
0.256667	0.0216223	-0.0193331	0.000585254	0.000326892	0	5	0	
0.256833	-0.00982305	0.0190513	0.000556604	0.00037197	0	5	0	
0.257	0.0145985	-0.0131967	0.000507334	0.000437508	0	5	0	
0.257167	-0.0160314	0.00888728	0.000541284	0.000419711	0	5	0	
0.257333	0.0169721	-0.0117543	0.000569785	0.000321648	0	5	0	
0.2575	-0.0180186	0.00616411	0.000568374	0.000276943	0	5	0	
0.257667	0.0227233	0.00262433	0.000552038	0.000277493	0	5	0	
0.257833	-0.0276069	-0.00796529	0.000585541	0.00023051	0	5	0	
0.258	0.0255307	-0.00019126	0.000607557	0.000180587	0	5	0	
0.258167	-0.0120558	0.0164194	0.000571058	0.000215389	0	5	0	
0.258333	0.0138934	-0.0283099	0.000517992	0.000368046	0	5	0	
0.2585	-0.0248906	0.0308213	0.000571796	0.000525215	0	5	0	
0.258667	0.0308808	-0.0331298	0.000672965	0.000606704	0	5	0	
0.258833	-0.0278154	0.0219337	0.000713321	0.000578744	0	5	0	
0.259	0.0125766	-0.00942057	0.000627576	0.000490694	0	5	0	
0.259167	-0.00735461	0.00450871	0.000528746	0.000340116	0	5	0	
0.259333	0.0101795	-0.00297626	0.000536481	0.000240753	0	5	0	
0.2595	-0.0166098	0.00831386	0.000623556	0.000206467	0	5	0	
0.259667	0.0201677	-0.0195185	0.000736159	0.000267385	0	5	0	
0.259833	-0.0253739	0.0142234	0.000791381	0.000333227	0	5	0	
0.26	0.023819	0.00526814	0.000786559	0.000331168	0	5	0	
0.260167	-0.0156875	-0.0126192	0.000693601	0.000291425	0	5	0	
0.260333	0.00687642	0.0159159	0.000558414	0.000251491	0	5	0	
0.2605	-0.00807316	-0.00537189	0.00045015	0.000258925	0	5	0	
0.260667	0.00857196	-0.00125439	0.000460254	0.000305836	0	5	0	
0.260833	-0.013746	0.00434405	0.000558972	0.000321577	0	5	0	
0.261	0.013471	0.00198645	0.000659897	0.00030714	0	5	0	
0.261167	-0.0145821	0.000632797	0.00066304	0.000211332	0	5	0	
0.261333	0.018985	-0.00561207	0.000625739	0.000118005	0	5	0	
0.2615	-0.0204454	0.00585466	0.000605847	8.70859E-05	0	5	0	
0.261667	0.0194819	-0.00315939	0.000621005	8.99442E-05	0	5	0	
0.261833	-0.0162759	-0.00174582	0.000619231	8.50799E-05	0	5	0	
0.262	0.0155798	0.00808732	0.000587113	0.000106965	0	5	0	
0.262167	-0.0183076	-0.0111469	0.000570895	0.000207461	0	5	0	
0.262333	0.0175567	-0.00427149	0.000590354	0.000291109	0	5	0	
0.2625	-0.0176861	0.00639561	0.000628132	0.000328758	0	5	0	
0.262667	0.0249676	-0.0123099	0.000671	0.000267772	0	5	0	
0.262833	-0.0292195	0.000274334	0.000716616	0.000256875	0	5	0	
0.263	0.0291353	0.028822	0.000732673	0.000388422	0	5	0	
0.263167	-0.021585	-0.046187	0.000697598	0.000606653	0	5	0	
0.263333	0.0117848	0.0302348	0.000599733	0.000720915	0	5	0	
0.2635	-0.0072159	-0.0121847	0.000537078	0.000715741	0	5	0	
0.263667	0.0144977	-0.000513273	0.00057388	0.000587687	0	5	0	
0.263833	-0.0204694	0.00685858	0.000685088	0.000462085	0	5	0	
0.264	0.0233335	-0.0139988	0.000785082	0.000299703	0	5	0	
0.264167	-0.0221877	0.00642128	0.000817858	0.000230503	0	5	0	
0.264333	0.0271608	0.0151291	0.000791731	0.000335982	0	5	0	
0.2645	-0.022866	-0.00310458	0.000751026	0.000443848	0	5	0	
0.264667	0.0194903	0.00580055	0.000673437	0.000372419	0	5	0	
0.264833	-0.0150316	0.00475864	0.00062237	0.000246441	0	5	0	
0.265	0.0274982	-0.0129206	0.000640488	0.000136681	0	5	0	
0.265167	-0.0315181	0.0187672	0.000742731	0.000229714	0	5	0	
0.265333	0.0199882	0.00138577	0.000745598	0.000278241	0	5	0	
0.2655	-0.00877156	-0.00901561	0.000645463	0.000353324	0	5	0	
0.265667	0.0142433	0.0359211	0.000610465	0.000456686	0	5	0	
0.265833	-0.0652058	0.00306169	0.000808319	0.000829715	0	5	0	
0.266	0.0358905	-0.034331	0.00109783	0.00126688	0	5	0	
0.266167	-0.0191323	0.0519494	0.00112071	0.00151289	0	5	0	
0.266333	0.00513128	-0.0315897	0.000811719	0.00132412	0	5	0	
0.2665	0.0203781	0.0156755	0.000461396	0.00089979	0	5	0	
0.266667	-0.0137651	0.0130957	0.000425882	0.000617383	0	5	0	
0.266833	-0.0160385	-0.0416447	0.000843511	0.000564202	0	5	0	
0.267	-0.000217051	0.0500811	0.00123622	0.000665992	0	5	0	
0.267167	-0.0339461	-0.0279277	0.00130755	0.00077333	0	5	0	
0.267333	0.0497567	0.00740372	0.00102138	0.000750921	0	5	0	
0.2675	-0.0315031	-0.000521208	0.000902492	0.000578692	0	5	0	
0.267667	0.00840304	0.00214988	0.000704628	0.000325935	0	5	0	
0.267833	0.0170083	4.84205E-06	0.000597563	0.000170053	0	5	0	
0.268	0.0293921	-0.0310549	0.000422837	0.000216951	0	5	0	
0.268167	-0.0264918	0.0388179	0.000510103	0.000422332	0	5	0	
0.268333	0.0152534	-0.037108	0.00060404	0.000605856	0	5	0	
0.2685	-0.0127846	0.0243964	0.000607402	0.000677644	0	5	0	
0.268667	0.00934547	-0.0148149	0.000551441	0.000569136	0	5	0	
0.268833	-0.00159979	0.0130035	0.000522325	0.000427617	0	5	0	
0.269	0.0358817	-0.0192328	0.000625721	0.000323201	0	5	0	
0.269167	-0.013153	0.0120464	0.000837361	0.000316688	0	5	0	
0.269333	0.00866715	-0.0075347	0.000894248	0.000274906	0	5	0	
0.2695	-0.0112579	0.000451803	0.000805957	0.000206368	0	5	0	
0.269667	0.0133684	0.00312194	0.000673842	0.000123817	0	5	0	
0.269833	-0.015247	-0.00177218	0.000647876	0.000127717	0	5	0	
0.27	0.0146454	-0.00837811	0.000580906	0.000166967	0	5	0	
0.270167	-0.00473279	0.0126921	0.000541803	0.000195906	0	5	0	
0.270333	0.00929513	-0.00545615	0.000523413	0.000276926	0	5	0	
0.2705	-0.00630869	-0.0193621	0.000543552	0.000446994	0	5	0	
0.270667	0.0154873	0.00965125	0.000552872	0.000572188	0	5	0	
0.270833	-0.0189579	-0.00219051	0.00060712	0.000480367	0	5	0	
0.271	0.00897445	-0.00439034	0.000686742	0.000268129	0	5	0	
0.271167	-0.00387987	0.00384222	0.0006673	9.81966E-05	0	5	0	
0.271333	-0.00677573	-0.0112122	0.000592608	8.56918E-05	0	5	0	
0.2715	0.000788846	0.0146795	0.000579128	0.000155619	0	5	0	
0.271667	0.0215258	-0.0229614	0.000728219	0.000281932	0	5	0	
0.271833	-0.0202197	0.00638036	0.000870315	0.000349715	0	5	0	
0.272	0.00518907	-0.00783596	0.000842897	0.000308801	0	5	0	
0.272167	-0.00699015	0.0153918	0.000665112	0.000242773	0	5	0	
0.272333	0.00752853	-0.0178356	0.000577489	0.000230474	0	5	0	
0.2725	-0.0121269	-0.000247892	0.000610732	0.000311086	0	5	0	
0.272667	0.00813062	0.0416743	0.000639582	0.000448935	0	5	0	
0.272833	-0.00267292	-0.0424134	0.000571001	0.000711041	0	5	0	
0.273	-0.000633097	0.0503011	0.000546591	0.000866198	0	5	0	
0.273167	-0.0116451	-0.0433069	0.00064708	0.000942746	0	5	0	
0.273333	0.0133448	0.00537326	0.000794128	0.000935656	0	5	0	
0.2735	-0.00913379	0.0278435	0.000829254	0.00101307	0	5	0	
0.273667	0.00823283	-0.0292022	0.000737806	0.00090716	0	5	0	
0.273833	-0.00631215	0.0384165	0.000625979	0.000860348	0	5	0	
0.274	0.00295356	-0.00502689	0.000574212	0.000842946	0	5	0	
0.274167	-0.00826236	-0.0184903	0.000584108	0.000941337	0	5	0	
0.274333	0.00690865	0.0225159	0.000627341	0.000834074	0	5	0	
0.2745	-0.00622558	-0.0225972	0.000645037	0.0006167	0	5	0	
0.274667	0.00498589	0.0184816	0.000623582	0.000463526	0	5	0	
0.274833	-0.00281674	-0.0065595	0.000596394	0.000394977	0	5	0	
0.275	0.00613893	-0.0036316	0.000606382	0.000347858	0	5	0	
0.275167	-0.00738056	0.000962267	0.000619154	0.000226715	0	5	0	
0.275333	0.00151706	0.00692682	0.000612811	0.000153689	0	5	0	
0.2755	-0.00316462	-0.00431581	0.000628518	0.000103985	0	5	0	
0.275667	0.00610252	-0.00451538	0.000677227	0.000177956	0	5	0	
0.275833	-0.00499907	0.00717934	0.000696068	0.000198154	0	5	0	
0.276	0.00665879	-0.00463999	0.000675678	0.000219941	0	5	0	
0.276167	-0.00765995	0.00700078	0.000662932	0.000208469	0	5	0	
0.276333	0.0131339	-0.0131051	0.000653943	0.000233367	0	5	0	
0.2765	-0.006912	0.00734631	0.000595864	0.00023684	0	5	0	
0.276667	-0.00949312	0.01151	0.000450796	0.000232539	0	5	0	
0.276833	0.0213898	-0.0232319	0.000416019	0.000242875	0	5	0	
0.277	-0.00231083	0.0161746	0.000607487	0.000357511	0	5	0	
0.277167	-0.0205207	-0.00494934	0.000924506	0.000458433	0	5	0	
0.277333	0.0148927	-1.40001E-05	0.000980972	0.000464167	0	5	0	
0.2775	0.00278905	0.000663785	0.000774825	0.000342141	0	5	0	
0.277667	-0.000358316	0.00428278	0.000592734	0.000183516	0	5	0	
0.277833	-0.00244254	-0.0144901	0.000595392	0.00014399	0	5	0	
0.278	-0.00161113	0.0181326	0.000638106	0.000191375	0	5	0	
0.278167	0.00203067	-0.0157648	0.000634667	0.000281813	0	5	0	
0.278333	0.0031243	0.00713061	0.000657468	0.000301883	0	5	0	
0.2785	-0.00681351	-0.00292513	0.00072588	0.000259636	0	5	0	
0.278667	0.0057008	0.00345748	0.000747371	0.000185275	0	5	0	
0.278833	0.00485409	-0.00328593	0.000674486	0.000112769	0	5	0	
0.279	-0.0155471	0.00421331	0.000622475	8.01622E-05	0	5	0	
0.279167	0.00572733	-0.00542009	0.000718056	8.45166E-05	0	5	0	
0.279333	0.0177859	0.00254348	0.000921778	0.000140986	0	5	0	
0.2795	-0.0129083	-0.000297447	0.00094559	0.000235086	0	5	0	
0.279667	-0.0113995	0.00204912	0.000739839	0.000283933	0	5	0	
0.279833	0.0104064	-0.00219175	0.000607384	0.000237311	0	5	0	
0.28	0.00741291	0.00694384	0.000721496	0.00014361	0	5	0	
0.280167	-0.00449895	-0.00492859	0.000828623	0.000129513	0	5	0	
0.280333	-0.00211154	0.00411364	0.000764673	0.000212013	0	5	0	
0.2805	-0.0060603	-0.00915312	0.000718841	0.000305025	0	5	0	
0.280667	0.0121014	0.0123178	0.000754671	0.000338573	0	5	0	
0.280833	0.000672772	-0.00383473	0.000728473	0.000298882	0	5	0	
0.281	-0.00545633	-0.000842885	0.000638719	0.000214408	0	5	0	
0.281167	-0.0061271	-0.00473569	0.000625366	0.000145765	0	5	0	
0.281333	-0.00202061	0.0105352	0.000649765	0.000113852	0	5	0	
0.2815	0.00798633	-0.0159735	0.000644078	0.000163578	0	5	0	
0.281667	0.00123992	0.0101885	0.000668655	0.000229268	0	5	0	
0.281833	-0.00559756	0.00265455	0.00076237	0.00023003	0	5	0	
0.282	0.00583284	-0.00731538	0.000845132	0.00018076	0	5	0	
0.282167	-0.017074	0.000382748	0.000862714	0.000125752	0	5	0	
0.282333	0.00966158	0.00462568	0.000794765	0.000127219	0	5	0	
0.2825	0.0110428	-0.0033339	0.000656205	0.000121918	0	5	0	
0.282667	-0.00999349	-0.000645322	0.000623515	0.000123737	0	5	0	
0.282833	0.000366819	0.0011937	0.00072008	0.000112413	0	5	0	
0.283	-0.008211	-0.000935179	0.00077533	0.000110912	0	5	0	
0.283167	0.0198065	-0.000395114	0.000771665	9.75708E-05	0	5	0	
0.283333	0.00487083	0.00187128	0.000857115	9.48416E-05	0	5	0	
0.2835	-0.0158141	-0.00284597	0.000995937	0.000110565	0	5	0	
0.283667	0.00449916	0.000931337	0.000891127	0.00013259	0	5	0	
0.283833	0.00983854	-0.0104706	0.000574642	0.000142385	0	5	0	
0.284	-0.0321609	0.0572922	0.000388733	0.00033326	0	5	0	
0.284167	0.0861631	-0.118972	0.000579815	0.000760568	0	5	0	
0.284333	-0.0840411	0.139976	0.00108305	0.00170828	0	5	0	
0.2845	0.0695516	-0.112425	0.00165594	0.00243899	0	5	0	
0.284667	-0.00655926	0.0638592	0.0019455	0.00260818	0	5	0	
0.284833	0.000137429	-0.0417812	0.00170791	0.00205152	0	5	0	
0.285	-0.000350711	0.0106389	0.00116004	0.00141971	0	5	0	
0.285167	-0.00764932	-0.00779206	0.000686121	0.000867639	0	5	0	
0.285333	0.0140838	0.0546292	0.00041586	0.000854305	0	5	0	
0.2855	0.0424373	-0.0635356	0.000501148	0.00116979	0	5	0	
0.285667	-0.0345988	0.0231161	0.000584873	0.0015594	0	5	0	
0.285833	0.013886	-0.0150256	0.000784663	0.00141662	0	5	0	
0.286	0.00882051	0.0316789	0.00076506	0.00107374	0	5	0	
0.286167	0.0143217	-0.0467775	0.00058539	0.000873625	0	5	0	
0.286333	-0.0397377	0.0521586	0.000477487	0.000881194	0	5	0	
0.2865	0.0334474	-0.045359	0.000566036	0.00096291	0	5	0	
0.286667	-0.00891138	0.0252028	0.000879244	0.00099526	0	5	0	
0.286833	0.000823507	-0.00939196	0.00100365	0.000969593	0	5	0	
0.287	-0.00397511	-0.00273467	0.000909583	0.000803964	0	5	0	
0.287167	-0.00263586	0.00793473	0.00074173	0.000623965	0	5	0	
0.287333	0.00192256	-0.00265969	0.000632394	0.000449915	0	5	0	
0.2875	0.00115467	-0.00460452	0.000579225	0.000269623	0	5	0	
0.287667	-0.00473878	0.00520955	0.000528935	0.000181399	0	5	0	
0.287833	0.0115564	-0.0108099	0.000500745	0.00014468	0	5	0	
0.288	-0.0133973	-0.000199583	0.000549549	0.00018712	0	5	0	
0.288167	0.00175238	0.00424652	0.000672194	0.000213563	0	5	0	
0.288333	-0.00338599	-0.00236304	0.000792637	0.000185423	0	5	0	
0.2885	-0.000314878	-0.00139418	0.000833378	0.000125985	0	5	0	
0.288667	0.000668483	-0.00347668	0.000791925	7.05848E-05	0	5	0	
0.288833	0.00740785	-0.00109218	0.000687003	6.95536E-05	0	5	0	
0.289	-0.0160456	0.00531917	0.000616809	5.46001E-05	0	5	0	
0.289167	0.00525016	-0.00416621	0.000596814	7.95305E-05	0	5	0	
0.289333	-0.0111027	-0.00539504	0.00058002	8.98927E-05	0	5	0	
0.2895	0.0114813	0.00451687	0.000493926	0.000117425	0	5	0	
0.289667	-0.010194	0.00297651	0.000480164	9.41702E-05	0	5	0	
0.289833	-0.00193897	-0.00716771	0.000557347	0.000153792	0	5	0	
0.29	-0.00142254	0.0078259	0.000585064	0.000277445	0	5	0	
0.290167	0.00280543	0.0057724	0.000487417	0.000352487	0	5	0	
0.290333	-0.00218305	-0.00848671	0.000447274	0.000317	0	5	0	
0.2905	-0.00399927	-0.0016981	0.000570915	0.000197572	0	5	0	
0.290667	0.00456887	0.00859825	0.000724134	0.00013402	0	5	0	
0.290833	0.00353747	-0.0209068	0.00074285	0.000189811	0	5	0	
0.291	-0.00732951	0.0248984	0.000685386	0.000315575	0	5	0	
0.291167	-0.00393613	0.000393387	0.000691539	0.000412745	0	5	0	
0.291333	0.00424017	-0.0177393	0.000744037	0.000454513	0	5	0	
0.2915	0.00710423	0.00371621	0.000734132	0.000388292	0	5	0	
0.291667	-0.0152874	0.00743858	0.000691958	0.000330488	0	5	0	
0.291833	0.011787	-0.0143208	0.000672617	0.000307421	0	5	0	
0.292	-0.00685049	0.00735337	0.000647386	0.000277849	0	5	0	
0.292167	0.00856511	-0.0119068	0.000594198	0.00027364	0	5	0	
0.292333	-0.00380735	0.0107059	0.000612238	0.000266492	0	5	0	
0.2925	-0.00516314	-0.00797375	0.000736547	0.000387653	0	5	0	
0.292667	-0.00461866	-0.00840307	0.000766153	0.000461135	0	5	0	
0.292833	0.00270306	0.0119475	0.000612706	0.000389527	0	5	0	
0.293	-0.00548069	-0.000460713	0.000438262	0.000277488	0	5	0	
0.293167	0.0138543	-0.00788404	0.000398306	0.000225369	0	5	0	
0.293333	-0.0193767	-0.0225479	0.000551036	0.00044097	0	5	0	
0.2935	-0.0134306	0.0560296	0.000876526	0.000564831	0	5	0	
0.293667	0.0368842	0.0113184	0.00106206	0.00111985	0	5	0	
0.293833	-0.0186684	-0.178038	0.00118119	0.00227625	0	5	0	
0.294	-0.050824	0.263655	0.00146882	0.00387267	0	5	0	
0.294167	0.0755849	-0.222094	0.00150091	0.00474392	0	5	0	
0.294333	-0.0455956	0.105929	0.00160524	0.00432661	0	5	0	
0.2945	0.00870029	-0.00685674	0.00134188	0.00296761	0	5	0	
0.294667	0.0111977	-0.0501853	0.00136301	0.00163375	0	5	0	
0.294833	-0.0537771	0.0910275	0.00121815	0.00116089	0	5	0	
0.295	0.0643951	-0.106108	0.0011492	0.00192589	0	5	0	
0.295167	-0.0269022	0.0392244	0.00102108	0.00328708	0	5	0	
0.295333	-0.0177653	0.0139924	0.000819889	0.00396694	0	5	0	
0.2955	0.04249	-0.0083013	0.000596888	0.00322671	0	5	0	
0.295667	-0.030072	-0.0282061	0.000608768	0.00181437	0	5	0	
0.295833	-0.00521525	0.0227053	0.000858568	0.000849579	0	5	0	
0.296	0.0185364	0.0185193	0.000889258	0.000807868	0	5	0	
0.296167	0.0134809	-0.0458664	0.000691796	0.000979975	0	5	0	
0.296333	-0.0411743	0.0271615	0.000460079	0.000946282	0	5	0	
0.2965	0.0260782	0.00372956	0.000557491	0.000710963	0	5	0	
0.296667	0.00175865	-0.00820732	0.000793838	0.00046607	0	5	0	
0.296833	0.00463985	-0.0108802	0.000750116	0.000354809	0	5	0	
0.297	-0.0335412	0.0236802	0.000576123	0.000301879	0	5	0	
0.297167	0.0291362	-0.0160926	0.000486173	0.000366184	0	5	0	
0.297333	0.00104482	0.00763627	0.000699848	0.000350351	0	5	0	
0.2975	-0.00771512	0.00307601	0.000789156	0.000279134	0	5	0	
0.297667	-0.0180326	0.00259899	0.00062655	0.000205213	0	5	0	
0.297833	0.0285337	0.00113568	0.000472739	0.000149944	0	5	0	
0.298	-0.0179514	-0.00465819	0.000515524	0.000116087	0	5	0	
0.298167	0.002857	0.00676882	0.000743128	0.000116917	0	5	0	
0.298333	-0.0122326	-0.000812067	0.000766837	0.000130782	0	5	0	
0.2985	0.0281349	0.00374953	0.000762373	0.000134506	0	5	0	
0.298667	-0.013448	0.00158945	0.000791428	0.000152732	0	5	0	
0.298833	0.000813995	0.000940626	0.000902173	0.000196784	0	5	0	
0.299	-0.00958217	-0.000528849	0.000822436	0.000285694	0	5	0	
0.299167	0.0246805	0.00261817	0.000676342	0.000353236	0	5	0	
0.299333	-0.0259134	-0.00300474	0.000589314	0.00034383	0	5	0	
0.2995	0.0231001	-0.00541306	0.00064066	0.0002492	0	5	0	
0.299667	-0.0146509	0.00611462	0.000669835	0.000182	0	5	0	
0.299833	0.018701	-0.00689583	0.000665102	0.000162155	0	5	0	
0.3	-0.0150961	0.0086156	0.00062296	0.00018042	0	5	0	
0.300167	0.0158227	-0.0270143	0.000612193	0.0002195	0	5	0	
0.300333	-0.0364449	0.0979904	0.000686439	0.000561619	0	5	0	
0.3005	0.0279999	-0.0102054	0.000791626	0.00102434	0	5	0	
0.300667	-0.020203	0.00163978	0.000868967	0.00100724	0	5	0	
0.300833	0.0163644	0.0364733	0.000866195	0.000716368	0	5	0	
0.301	-0.00849229	-0.0250182	0.000803532	0.000446622	0	5	0	
0.301167	0.00905731	0.0126514	0.000757148	0.000443079	0	5	0	
0.301333	-0.0290903	0.0026275	0.000722843	0.000484606	0	5	0	
0.3015	0.0208317	0.0462401	0.00066352	0.000726968	0	5	0	
0.301667	-0.0180449	0.0266306	0.000578853	0.000913807	0	5	0	
0.301833	0.0182393	0.0108678	0.000571879	0.000928828	0	5	0	
0.302	-0.0126052	-0.0610759	0.000645117	0.000889019	0	5	0	
0.302167	0.0207654	0.122955	0.000743434	0.00104601	0	5	0	
0.302333	-0.0163687	-0.179007	0.000709573	0.00214621	0	5	0	
0.3025	0.0125097	0.0586658	0.000656821	0.00233851	0	5	0	
0.302667	-0.01774	-0.0456119	0.0006503	0.00235294	0	5	0	
0.302833	0.0238929	0.0269922	0.000680465	0.00139718	0	5	0	
0.303	-0.0305888	-0.00151889	0.000773641	0.000930751	0	5	0	
0.303167	0.0181159	0.055964	0.000848992	0.000885556	0	5	0	
0.303333	-0.00912814	-0.0959729	0.000855666	0.0015914	0	5	0	
0.3035	0.0225461	0.0277727	0.000770773	0.0024138	0	5	0	
0.303667	-0.0312944	-0.0389863	0.000737625	0.002553	0	5	0	
0.303833	0.0170082	0.0234245	0.000764453	0.00190895	0	5	0	
0.304	-0.0172397	-0.0176904	0.000796521	0.00112195	0	5	0	
0.304167	0.0171563	0.0468463	0.000651797	0.000774558	0	5	0	
0.304333	-0.0365568	0.0083559	0.000563304	0.000649151	0	5	0	
0.3045	0.0291392	-0.00892061	0.000516765	0.000587049	0	5	0	
0.304667	-0.0222432	0.0201112	0.000628427	0.000583176	0	5	0	
0.304833	0.0312114	-0.00478055	0.00066977	0.00053767	0	5	0	
0.305	-0.031793	-0.0238551	0.000695494	0.00050467	0	5	0	
0.305167	0.0190361	0.0309269	0.000690953	0.000506395	0	5	0	
0.305333	-0.00709305	-0.00482557	0.000703516	0.000444232	0	5	0	
0.3055	0.00768799	-0.00140699	0.000584295	0.000431523	0	5	0	
0.305667	-0.0288078	0.00432249	0.000511932	0.00031229	0	5	0	
0.305833	0.0280504	-0.00871088	0.000516467	0.000232404	0	5	0	
0.306	-0.00873616	-0.0129833	0.000619045	0.000189338	0	5	0	
0.306167	0.0257901	0.0260278	0.000593928	0.000238437	0	5	0	
0.306333	-0.0303758	-0.0185989	0.000579415	0.000309242	0	5	0	
0.3065	0.0155905	-0.00556386	0.000604321	0.000431763	0	5	0	
0.306667	-0.021789	0.0199162	0.000604854	0.000444562	0	5	0	
0.306833	0.0407048	-0.0157864	0.000565968	0.000436379	0	5	0	
0.307	-0.0284018	0.00694475	0.000630872	0.000326293	0	5	0	
0.307167	0.0148017	-0.0115771	0.00076578	0.000292737	0	5	0	
0.307333	-0.0204823	-0.00273625	0.000740675	0.000318174	0	5	0	
0.3075	0.0252046	0.0240342	0.000582813	0.000353792	0	5	0	
0.307667	-0.0210359	-0.0374068	0.000506275	0.000459306	0	5	0	
0.307833	0.0147156	0.00020258	0.00054695	0.000461825	0	5	0	
0.308	-0.022149	0.0170054	0.000582995	0.00043497	0	5	0	
0.308167	0.0313055	-0.00960265	0.000568838	0.000327174	0	5	0	
0.308333	-0.0298427	0.00628753	0.000625998	0.000294134	0	5	0	
0.3085	0.0192336	-0.0133284	0.000698226	0.000402888	0	5	0	
0.308667	-0.0204502	-0.00465497	0.000726889	0.000447998	0	5	0	
0.308833	0.0227289	-0.00908044	0.000652733	0.000410684	0	5	0	
0.309	-0.0205416	0.0196454	0.000598861	0.000360291	0	5	0	
0.309167	0.0251161	-0.020186	0.000552428	0.000367817	0	5	0	
0.309333	-0.0308853	0.0230767	0.000566066	0.000431872	0	5	0	
0.3095	0.0264222	-0.0248421	0.000569653	0.000459835	0	5	0	
0.309667	-0.0247745	0.0132675	0.000608388	0.000476494	0	5	0	
0.309833	0.0236855	-0.00385212	0.000598884	0.000425454	0	5	0	
0.31	-0.0192833	0.00733549	0.000651849	0.000285946	0	5	0	
0.310167	0.0122492	-0.00263966	0.000682082	0.00016319	0	5	0	
0.310333	-0.0197265	-0.00129505	0.000695252	0.000156448	0	5	0	
0.3105	0.0219008	0.0256891	0.000645698	0.000197602	0	5	0	
0.310667	-0.0102624	-0.0283493	0.000576099	0.000440392	0	5	0	
0.310833	0.0130757	-0.0270646	0.000455429	0.000997666	0	5	0	
0.311	-0.0412076	0.0883901	0.000450556	0.00154972	0	5	0	
0.311167	0.0579269	-0.0902224	0.000579502	0.00179815	0	5	0	
0.311333	-0.0538944	0.0611704	0.000875209	0.00167604	0	5	0	
0.3115	0.0253417	-0.0250864	0.00105194	0.00144184	0	5	0	
0.311667	-0.00292058	-0.0117445	0.00103119	0.0011672	0	5	0	
0.311833	0.00622117	0.0347881	0.000825464	0.000850677	0	5	0	
0.312	-0.0164245	-0.029231	0.000599184	0.000685595	0	5	0	
0.312167	0.0222832	-0.0125211	0.000463746	0.000883414	0	5	0	
0.312333	-0.0241385	0.0511992	0.000465881	0.00120668	0	5	0	
0.3125	0.0311786	-0.0515895	0.000535796	0.00137784	0	5	0	
0.312667	-0.0398355	0.0201678	0.000642033	0.0011082	0	5	0	
0.312833	0.040599	0.0141526	0.000763161	0.000891736	0	5	0	
0.313	-0.0285692	-0.0153573	0.000847799	0.000650004	0	5	0	
0.313167	0.0190052	-0.00956926	0.000800034	0.000607366	0	5	0	
0.313333	-0.0383237	0.0205643	0.000710025	0.000548827	0	5	0	
0.3135	0.0514602	-0.0288158	0.000699599	0.000632261	0	5	0	
0.313667	-0.0317314	0.0687454	0.000830317	0.000759374	0	5	0	
0.313833	0.0111542	-0.0968622	0.000907005	0.00107468	0	5	0	
0.314	-0.0207006	0.0800049	0.00077249	0.00140466	0	5	0	
0.314167	0.0332079	-0.0318522	0.000640138	0.00159868	0	5	0	
0.314333	-0.0339452	-0.00479379	0.000605946	0.00136006	0	5	0	
0.3145	0.0260161	0.00917076	0.000721036	0.000926892	0	5	0	
0.314667	-0.0278046	0.00773948	0.000741648	0.000501337	0	5	0	
0.314833	0.0310243	-0.0116842	0.000717984	0.000333208	0	5	0	
0.315	-0.030997	0.0178033	0.00070398	0.00042025	0	5	0	
0.315167	0.025438	-0.0225405	0.000722563	0.000556816	0	5	0	
0.315333	-0.0290547	0.0244735	0.000730708	0.000531092	0	5	0	
0.3155	0.0307096	-0.013317	0.000736273	0.000448539	0	5	0	
0.315667	-0.0249583	0.00409445	0.000741374	0.000357807	0	5	0	
0.315833	0.022703	-0.0059846	0.000716338	0.000263573	0	5	0	
0.316	-0.0321587	0.016947	0.000670287	0.000209472	0	5	0	
0.316167	0.0376491	-0.0148688	0.000685068	0.000218596	0	5	0	
0.316333	-0.0289286	0.0137567	0.000774013	0.000262706	0	5	0	
0.3165	0.0243176	-0.0156046	0.000796776	0.000292601	0	5	0	
0.316667	-0.0362059	0.0114762	0.000753155	0.000296655	0	5	0	
0.316833	0.0394776	-0.00606531	0.00071018	0.000281642	0	5	0	
0.317	-0.0264773	0.0055369	0.000771764	0.000234945	0	5	0	
0.317167	0.0232396	-0.00852409	0.00080716	0.000173475	0	5	0	
0.317333	-0.0297419	0.0103632	0.000759449	0.000197495	0	5	0	
0.3175	0.0362155	0.00175683	0.000702979	0.000305838	0	5	0	
0.317667	-0.0292191	-0.0119112	0.000718054	0.000418739	0	5	0	
0.317833	0.0170936	0.0139183	0.000736709	0.00040703	0	5	0	
0.318	-0.0163111	-0.00843977	0.000655092	0.00032647	0	5	0	
0.318167	0.0337781	-0.000808123	0.000561672	0.000275546	0	5	0	
0.318333	-0.0459712	0.0158404	0.00058574	0.000236263	0	5	0	
0.3185	0.0342393	-0.0127795	0.000728951	0.000251856	0	5	0	
0.318667	-0.0246022	0.0108694	0.00081218	0.000288811	0	5	0	
0.318833	0.0314688	0.000428273	0.000752998	0.000349782	0	5	0	
0.319	-0.0386152	-0.00465274	0.000676364	0.000313772	0	5	0	
0.319167	0.0272198	0.00345731	0.000696855	0.000183842	0	5	0	
0.319333	-0.0182179	0.0105324	0.000711121	0.000133335	0	5	0	
0.3195	0.0307567	-0.0136638	0.00065285	0.000151425	0	5	0	
0.319667	-0.0388821	0.00479481	0.000597274	0.000242204	0	5	0	
0.319833	0.031508	0.00515336	0.00063005	0.000228972	0	5	0	
0.32	-0.0303399	0.0143017	0.000682932	0.000306201	0	5	0	
0.320167	0.0359539	-0.0377259	0.000671285	0.00037337	0	5	0	
0.320333	-0.0377149	0.0210102	0.00066728	0.000509076	0	5	0	
0.3205	0.0308764	-0.0138027	0.000695255	0.000473302	0	5	0	
0.320667	-0.0247383	0.0100619	0.000688325	0.000379822	0	5	0	
0.320833	0.0343107	0.00843655	0.000655481	0.000330827	0	5	0	
0.321	-0.0329102	-0.0268993	0.00063871	0.000374468	0	5	0	
0.321167	0.0181709	0.0204563	0.000645637	0.000405874	0	5	0	
0.321333	-0.0104111	-0.0226247	0.000556205	0.000573494	0	5	0	
0.3215	0.0283607	-0.0194958	0.000461684	0.000543504	0	5	0	
0.321667	-0.0383393	0.0133856	0.000452835	0.000521598	0	5	0	
0.321833	0.0361822	-0.0142182	0.000590371	0.000347862	0	5	0	
0.322	-0.032196	0.00648807	0.000690447	0.00026176	0	5	0	
0.322167	0.0385883	-0.00511334	0.00073101	0.000243273	0	5	0	
0.322333	-0.0352377	-0.00408232	0.000721428	0.00022361	0	5	0	
0.3225	0.0293323	-0.0259707	0.000743252	0.000330942	0	5	0	
0.322667	-0.0243561	0.0253245	0.00070658	0.000439658	0	5	0	
0.322833	0.0351257	-0.0209514	0.000663351	0.000503479	0	5	0	
0.323	-0.0349109	0.00556257	0.000638371	0.000447997	0	5	0	
0.323167	0.0273454	-0.00633818	0.000663988	0.000349058	0	5	0	
