0	0.000851371	-0.000912679	8.51371E-08	9.12679E-08	0	0	0	
0.000166667	-0.00644719	0.00652178	5.26575E-05	4.18809E-05	0	0	0	
0.000333333	0.00504985	-0.00988466	9.17335E-05	8.94636E-05	0	0	0	
0.0005	-0.00108849	0.00631798	0.000111583	0.000142667	0	0	0	
0.000666667	0.00254584	-0.00205662	9.44961E-05	0.000127819	0	0	0	
0.000833333	-0.00908956	0.00119296	0.000122167	0.000114519	0	0	0	
0.001	0.00766536	0.00627989	0.000161002	9.32785E-05	0	0	0	
0.00116667	-0.000644989	-0.00250279	0.000158158	0.000174455	0	0	0	
0.00133333	-0.0017714	-0.00923366	0.000114168	0.000246123	0	0	0	
0.0015	-0.000337503	0.00955556	8.5502E-05	0.000282391	0	0	0	
0.00166667	-0.00298315	-0.00318421	7.70948E-05	0.000218733	0	0	0	
0.00183333	0.00330247	0.00397937	9.61371E-05	0.00014484	0	0	0	
0.002	0.00449896	0.00461494	0.000175805	9.81732E-05	0	0	0	
0.00216667	-0.0294366	-0.0112203	0.000334797	9.27412E-05	0	0	0	
0.00233333	0.0245058	0.00359162	0.00039772	0.000129564	0	0	0	
0.0025	-0.0113794	0.00547196	0.000528678	0.00021121	0	0	0	
0.00266667	-0.00578856	-0.000320218	0.000397969	0.000251003	0	0	0	
0.00283333	0.0123498	-0.00500594	0.000386957	0.000226791	0	0	0	
0.003	0.000700759	-0.00403845	0.000181826	0.000144844	0	0	0	
0.00316667	-0.00614568	0.00916216	0.000224127	0.000124209	0	0	0	
0.00333333	-0.0102015	-0.000393472	0.000371388	0.000120786	0	0	0	
0.0035	-0.0404351	-0.00908965	0.000699483	0.000136977	0	0	0	
0.00366667	0.0163804	0.00761924	0.00083623	0.000133227	0	0	0	
0.00383333	-0.0171765	0.00137178	0.000700552	0.000138759	0	0	0	
0.004	0.00380527	-0.0122954	0.00044634	0.000159323	0	0	0	
0.00416667	0.00425616	0.0103069	0.000238202	0.000176181	0	0	0	
0.00433333	-0.00804127	-0.000659113	0.000247596	0.00017627	0	0	0	
0.0045	-0.0162968	-0.00358821	0.000352028	0.000139751	0	0	0	
0.00466667	0.00136668	0.00645728	0.000552961	9.25424E-05	0	0	0	
0.00483333	-0.00674885	-0.00438365	0.000581193	8.37435E-05	0	0	0	
0.005	-0.00181645	0.00374853	0.00043267	0.000105741	0	0	0	
0.00516667	0.00772893	-0.00262787	0.000266827	0.000143327	0	0	0	
0.00533333	-0.0125089	-0.0065685	0.000215532	0.000171485	0	0	0	
0.0055	0.0295357	0.00457884	0.000293255	0.000171782	0	0	0	
0.00566667	-0.00311811	0.0027519	0.000339251	0.000128464	0	0	0	
0.00583333	0.00299292	0.000685308	0.000394322	8.55225E-05	0	0	0	
0.006	0.0125431	-0.00681268	0.000313997	9.95268E-05	0	0	0	
0.00616667	-0.00446661	0.00657943	0.000290731	0.000134656	0	0	0	
0.00633333	0.00460123	-0.00176242	0.00021503	0.00013843	0	0	0	
0.0065	-0.000890154	-0.00390704	0.00021687	9.37733E-05	0	0	0	
0.00666667	0.0126883	-0.0012246	0.000172042	6.55398E-05	0	0	0	
0.00683333	-0.00459601	-0.00177491	0.000185416	6.93964E-05	0	0	0	
0.007	-0.000190446	0.00483839	0.000168502	9.66133E-05	0	0	0	
0.00716667	-0.00243188	-0.00160013	0.000205548	0.0001342	0	0	0	
0.00733333	0.00299449	0.00290816	0.000175856	0.000161673	0	0	0	
0.0075	-0.000287761	-0.00578025	0.000156194	0.000166394	0	0	0	
0.00766667	0.00112043	0.00369349	0.000134227	0.000151076	0	0	0	
0.00783333	-0.00492361	-0.00482846	0.000156504	0.000183379	0	0	0	
0.008	0.0049861	-0.00389185	0.000187153	0.000203904	0	0	0	
0.00816667	-0.000887987	0.00411197	0.00016295	0.000191096	0	0	0	
0.00833333	-0.0022041	0.000416019	9.98453E-05	0.000132143	0	0	0	
0.0085	0.000592383	-0.000788015	7.77698E-05	8.65177E-05	0	0	0	
0.00866667	0.00498796	-0.00126797	0.000119102	8.02684E-05	0	0	0	
0.00883333	-0.00448349	0.00118878	0.000139138	8.45188E-05	0	0	0	
0.009	-0.00502536	-0.00803489	0.000138703	8.13205E-05	0	0	0	
0.00916667	0.00667575	0.00502463	0.000117674	0.0001024	0	0	0	
0.00933333	0.00354112	-0.00483142	0.000178969	9.83164E-05	0	0	0	
0.0095	-0.00326771	-0.00126167	0.000191635	0.000122595	0	0	0	
0.00966667	8.28551E-05	0.00722266	0.000166342	9.77043E-05	0	0	0	
0.00983333	-0.00547319	-0.00377923	0.000134109	0.00011634	0	0	0	
0.01	0.0103707	-0.00698798	0.000151187	0.000150357	0	0	0	
0.0101667	-0.00199219	0.00388767	0.000167566	0.000202198	0	0	0	
0.0103333	0.000264835	-0.00575617	0.000127911	0.000206572	0	0	0	
0.0105	-0.00344096	0.00429237	0.000123351	0.000199874	0	0	0	
0.0106667	0.00725378	-0.00442779	0.000132505	0.000184584	0	0	0	
0.0108333	-0.00450206	0.00990787	0.000143233	0.000184642	0	0	0	
0.011	0.00545827	-0.00981638	0.000117959	0.000202159	0	0	0	
0.0111667	0.00204698	0.00470951	8.86944E-05	0.000197553	0	0	0	
0.0113333	-0.00442654	-0.00546808	8.85768E-05	0.000173858	0	0	0	
0.0115	-0.00181935	0.010838	0.000129	0.000128951	0	0	0	
0.0116667	0.00616647	-0.00767567	0.000160298	0.000131509	0	0	0	
0.0118333	-0.00190081	0.000796014	0.000160834	0.000138432	0	0	0	
0.012	0.00342806	0.0065359	0.000118786	0.00011653	0	0	0	
0.0121667	-0.00444189	0.00139288	0.000118998	0.000105117	0	0	0	
0.0123333	0.000934941	-0.00847566	9.76633E-05	0.000127377	0	0	0	
0.0125	0.00161645	0.00481789	7.06256E-05	0.000162659	0	0	0	
0.0126667	0.00373016	0.00151216	7.74741E-05	0.000144067	0	0	0	
0.0128333	-0.00917587	-0.00412773	0.000142914	0.000140409	0	0	0	
0.013	0.0040266	-0.00308047	0.000183466	0.000134691	0	0	0	
0.0131667	-0.00128354	0.00222574	0.000142079	0.000126319	0	0	0	
0.0133333	0.00129896	-0.00280984	9.31265E-05	8.99443E-05	0	0	0	
0.0135	-0.00282526	0.00236271	9.78266E-05	0.000113291	0	0	0	
0.0136667	0.00694662	-0.0107234	0.000141428	0.000178499	0	0	0	
0.0138333	-0.00713395	0.00985873	0.000162943	0.000223058	0	0	0	
0.014	-0.000696352	-0.00988393	0.000134356	0.000220522	0	0	0	
0.0141667	0.000683287	0.00230976	9.11113E-05	0.00017233	0	0	0	
0.0143333	0.00130272	-0.00212014	8.66842E-05	0.000127671	0	0	0	
0.0145	0.00130331	0.00403387	8.49335E-05	8.1559E-05	0	0	0	
0.0146667	-0.00575308	0.00698267	9.67558E-05	0.000100631	0	0	0	
0.0148333	-0.000438548	-0.00855652	0.000146558	0.000143435	0	0	0	
0.015	0.0043427	0.00302609	0.000256252	0.000166292	0	0	0	
0.0151667	-0.0165284	0.00293721	0.000299802	0.000176974	0	0	0	
0.0153333	-0.0118693	0.000741583	0.000285827	0.000159619	0	0	0	
0.0155	-0.0179866	0.00883465	0.000247205	0.000145101	0	0	0	
0.0156667	0.00669185	-0.0146322	0.000303133	0.000142249	0	0	0	
0.0158333	-0.0153911	0.0125947	0.000282214	0.000226113	0	0	0	
0.016	-0.00316864	0.0208757	0.000273535	0.000423803	0	0	0	
0.0161667	0.00256741	-0.0111076	0.00029617	0.000632467	0	0	0	
0.0163333	-0.0118776	0.0163773	0.000299831	0.000583539	0	0	0	
0.0165	-0.0218095	-0.00484314	0.000305773	0.000447695	0	0	0	
0.0166667	-0.00316915	-0.00788467	0.00029408	0.00027376	0	0	0	
0.0168333	0.00168708	0.0125733	0.000267377	0.000299062	0	0	0	
0.017	0.00445383	-0.0116995	0.000303881	0.00027863	0	0	0	
0.0171667	-0.0269118	0.0352496	0.00031527	0.000367343	0	0	0	
0.0173333	0.0245846	-0.00967596	0.000466486	0.00045769	0	0	0	
0.0175	6.7032E-05	-0.00378438	0.000402582	0.000463737	0	0	0	
0.0176667	-0.00320539	0.00571504	0.000286743	0.000302771	0	0	0	
0.0178333	-0.00349246	-0.00870117	0.000197665	0.000144672	0	0	0	
0.018	0.00849999	0.0112214	0.000195026	0.000143739	0	0	0	
0.0181667	-0.000358421	-0.00749349	0.000182231	0.000181349	0	0	0	
0.0183333	0.00154298	-0.00158975	9.64059E-05	0.000172948	0	0	0	
0.0185	-0.00385525	0.00371962	8.63252E-05	0.000148815	0	0	0	
0.0186667	0.00262046	-0.00194261	9.95013E-05	0.000151466	0	0	0	
0.0188333	0.000585978	0.00127558	9.49432E-05	0.000175328	0	0	0	
0.019	-0.00182797	-0.00206181	6.73975E-05	0.000143426	0	0	0	
0.0191667	0.000769649	0.00178732	8.52762E-05	0.000108996	0	0	0	
0.0193333	0.00554818	-0.00219573	0.000141777	8.5067E-05	0	0	0	
0.0195	-0.00654855	-0.00148557	0.000203884	0.00013567	0	0	0	
0.0196667	0.00771569	-0.00297638	0.000212637	0.000192115	0	0	0	
0.0198333	-0.0013905	0.00111891	0.000178652	0.000212831	0	0	0	
0.02	-0.00572252	0.00123909	0.000125829	0.000155941	0	0	0	
0.0201667	-0.00257162	0.00228643	0.000128972	0.00010813	0	0	0	
0.0203333	-0.001253	-0.00270183	0.000144473	0.000122084	0	0	0	
0.0205	-0.000807623	-0.000514435	0.000125088	0.000153952	0	0	0	
0.0206667	0.00329383	0.0012339	9.54578E-05	0.000160777	0	0	0	
0.0208333	-0.00432842	0.00306312	8.74907E-05	0.000169282	0	0	0	
0.021	-0.00365154	-0.00588587	9.03355E-05	0.000194143	0	0	0	
0.0211667	0.00223261	0.00233637	7.26527E-05	0.000176934	0	0	0	
0.0213333	-0.00154352	0.00193324	0.000100762	0.000116085	0	0	0	
0.0215	-0.0105117	-0.000655115	0.000148335	5.24533E-05	0	0	0	
0.0216667	0.00847884	0.0023766	0.000201439	4.31393E-05	0	0	0	
0.0218333	-0.0025245	-0.00323021	0.000167417	3.98259E-05	0	0	0	
0.022	0.00267481	0.0029316	0.000129473	6.60008E-05	0	0	0	
0.0221667	0.00165215	0.00292822	6.65084E-05	8.8295E-05	0	0	0	
0.0223333	-0.011507	-0.0139777	7.77262E-05	0.000151119	0	0	0	
0.0225	0.00960717	0.0123968	0.00011805	0.0001825	0	0	0	
0.0226667	4.22182E-05	-0.00266025	0.000219691	0.000201074	0	0	0	
0.0228333	-0.0100494	-0.000767886	0.000284634	0.000145005	0	0	0	
0.023	0.0179534	-0.00416802	0.000337909	0.000153047	0	0	0	
0.0231667	-0.0148375	0.0135553	0.000380425	0.000208296	0	0	0	
0.0233333	0.00922827	-0.0202458	0.000417916	0.000327022	0	0	0	
0.0235	0.00659743	0.00962219	0.000358801	0.000325868	0	0	0	
0.0236667	-0.0054626	-0.00363252	0.000266688	0.000267796	0	0	0	
0.0238333	0.00253121	0.00174631	0.000135932	0.00017246	0	0	0	
0.024	-0.00354782	0.00233682	0.000110725	0.000121854	0	0	0	
0.0241667	0.0167496	-0.0106592	0.000153966	0.000119505	0	0	0	
0.0243333	-0.0122423	0.00581066	0.000266034	0.000144939	0	0	0	
0.0245	0.00968294	0.00246556	0.000376637	0.000215783	0	0	0	
0.0246667	0.00906337	-0.00830503	0.00033128	0.000270252	0	0	0	
0.0248333	-0.00991536	-0.000370847	0.000283611	0.00030291	0	0	0	
0.025	0.0100989	-0.000136949	0.000203245	0.000287713	0	0	0	
0.0251667	-0.00101278	0.00844038	0.000183843	0.000235371	0	0	0	
0.0253333	-0.00346861	-0.0149071	0.000112338	0.000222395	0	0	0	
0.0255	0.00106779	-0.00586809	0.000115325	0.000252806	0	0	0	
0.0256667	0.00604553	0.0123955	0.000182101	0.000263243	0	0	0	
0.0258333	-0.0088494	-0.0102874	0.000241477	0.000267218	0	0	0	
0.026	0.00505585	-0.00507709	0.00021271	0.000202289	0	0	0	
0.0261667	-0.00371554	0.00991629	0.000135196	0.000190935	0	0	0	
0.0263333	0.00373724	-0.0111898	9.66929E-05	0.000173382	0	0	0	
0.0265	-0.0071125	0.00759364	9.17501E-05	0.000223176	0	0	0	
0.0266667	0.00449911	-0.0195519	0.000109234	0.000253102	0	0	0	
0.0268333	-0.0102971	0.015896	0.000134216	0.000297873	0	0	0	
0.027	0.0171452	-0.00962362	0.000175111	0.000320802	0	0	0	
0.0271667	-0.0112969	0.032977	0.000309756	0.000516954	0	0	0	
0.0273333	-0.00200227	-0.00971237	0.000414899	0.000585275	0	0	0	
0.0275	0.000264275	-0.00564618	0.000365035	0.000557163	0	0	0	
0.0276667	0.00568619	0.00270287	0.000321588	0.000323642	0	0	0	
0.0278333	-0.00992381	-0.00448775	0.00025756	0.000198892	0	0	0	
0.028	0.0157392	-0.0147778	0.000333671	0.000214646	0	0	0	
0.0281667	-0.0258142	0.052254	0.00036817	0.000409341	0	0	0	
0.0283333	0.022016	-0.0212383	0.000448263	0.000624412	0	0	0	
0.0285	-0.00680472	0.00449589	0.000458993	0.000559981	0	0	0	
0.0286667	0.00065758	-0.00517575	0.000329288	0.000394039	0	0	0	
0.0288333	-0.00297235	0.000707684	0.000172083	0.000151063	0	0	0	
0.029	-0.000462221	-0.00953359	7.69057E-05	0.000163819	0	0	0	
0.0291667	0.00972706	0.028596	7.72708E-05	0.000240021	0	0	0	
0.0293333	-0.00502123	-0.0274206	0.000139792	0.000409503	0	0	0	
0.0295	0.0240744	0.0173625	0.000211112	0.000473349	0	0	0	
0.0296667	-0.000372549	-0.0120334	0.000266168	0.00042927	0	0	0	
0.0298333	-0.00954023	0.00396396	0.000264249	0.00027501	0	0	0	
0.03	0.012499	-0.000293755	0.000251604	0.000199921	0	0	0	
0.0301667	-0.00112428	-0.00343259	0.000198741	0.000117141	0	0	0	
0.0303333	0.00555441	0.0139323	0.000137281	0.000196254	0	0	0	
0.0305	0.000664438	0.00147466	0.000115652	0.000335022	0	0	0	
0.0306667	0.0130815	-0.00399307	0.000133266	0.000417222	0	0	0	
0.0308333	-0.00205357	-0.00626659	0.000209021	0.000325501	0	0	0	
0.031	-0.00293008	-0.00156293	0.000321825	0.000252524	0	0	0	
0.0311667	-0.00133266	0.000231184	0.00040886	0.000180732	0	0	0	
0.0313333	0.00524492	0.00010796	0.000351899	0.00022705	0	0	0	
0.0315	-0.000470496	0.00543271	0.000209755	0.000154254	0	0	0	
0.0316667	-0.00310155	-0.00899448	7.3402E-05	0.000171701	0	0	0	
0.0318333	0.00440588	0.0157864	8.30634E-05	0.000182861	0	0	0	
0.032	-0.0118296	-0.0146012	0.000121104	0.000252679	0	0	0	
0.0321667	0.0074019	0.00175583	0.000212541	0.000255543	0	0	0	
0.0323333	0.00581001	0.00459092	0.000225085	0.000187089	0	0	0	
0.0325	-0.0135146	0.00365086	0.000253526	0.00013381	0	0	0	
0.0326667	0.0110766	-0.0199961	0.000232166	0.000166714	0	0	0	
0.0328333	0.00186034	0.0173806	0.000205493	0.000271318	0	0	0	
0.033	-0.00480474	-0.00339654	0.000147842	0.000306677	0	0	0	
0.0331667	-0.000298071	-0.00156457	0.000142452	0.000240931	0	0	0	
0.0333333	0.00335653	0.00150306	0.000171252	0.000136019	0	0	0	
0.0335	-0.00104054	0.00318505	0.000181984	6.65646E-05	0	0	0	
0.0336667	0.00173727	-0.00341223	0.000168096	5.91274E-05	0	0	0	
0.0338333	-0.00482388	6.60584E-05	0.000185401	6.24958E-05	0	0	0	
0.034	0.00569705	0.00407103	0.000200471	6.93917E-05	0	0	0	
0.0341667	-0.00365255	-0.00940515	0.00017167	0.000104086	0	0	0	
0.0343333	0.00282305	0.00594712	0.000111002	0.000130961	0	0	0	
0.0345	0.00101512	0.0061581	6.55848E-05	0.000197875	0	0	0	
0.0346667	-0.00163218	-0.0102094	5.49182E-05	0.000234537	0	0	0	
0.0348333	0.000112417	0.0131021	8.60612E-05	0.00025299	0	0	0	
0.035	0.00465406	-0.00868149	0.000134668	0.000241417	0	0	0	
0.0351667	-0.00822048	-0.00172598	0.000157917	0.000197572	0	0	0	
0.0353333	0.00570681	-0.00129803	0.000148843	0.000160071	0	0	0	
0.0355	-0.00161937	0.00341077	0.000117658	0.000115162	0	0	0	
0.0356667	0.0013283	0.00056045	0.000104165	9.58279E-05	0	0	0	
0.0358333	0.0014851	0.00308425	0.000117612	8.5506E-05	0	0	0	
0.036	-0.000432215	0.00108802	0.000164289	7.4293E-05	0	0	0	
0.0361667	-0.00411748	-0.00684622	0.000226311	7.33906E-05	0	0	0	
0.0363333	0.010651	0.0039628	0.000257747	9.93517E-05	0	0	0	
0.0365	-0.00985518	7.07469E-05	0.000247191	9.54924E-05	0	0	0	
0.0366667	0.00259899	-0.00780742	0.00019994	0.000109915	0	0	0	
0.0368333	0.00513326	0.00332156	0.00015067	0.000108825	0	0	0	
0.037	-0.00246344	-0.00160577	0.000148114	0.000103508	0	0	0	
0.0371667	0.000327242	0.00172312	0.000146998	9.52528E-05	0	0	0	
0.0373333	2.00483E-05	7.65032E-05	0.0001411	7.9609E-05	0	0	0	
0.0375	-0.00642855	7.81601E-05	0.000145026	9.64496E-05	0	0	0	
0.0376667	0.0256648	-0.00190464	0.000167762	8.73653E-05	0	0	0	
0.0378333	-0.00860679	-0.00287025	0.000264048	8.31594E-05	0	0	0	
0.038	0.0199677	-0.00385353	0.000408917	9.92465E-05	0	0	0	
0.0381667	-0.000339166	0.00433766	0.00045846	0.000122037	0	0	0	
0.0383333	-0.00492647	-0.001271	0.000410648	0.000117774	0	0	0	
0.0385	-0.00467183	0.00441296	0.00032933	9.73385E-05	0	0	0	
0.0386667	0.0163832	-0.00197612	0.000412619	9.6126E-05	0	0	0	
0.0388333	-0.030248	-0.00387492	0.000652256	0.000106017	0	0	0	
0.039	0.0290732	0.00394364	0.000744892	0.000107082	0	0	0	
0.0391667	-0.000921737	-0.00161052	0.000662611	0.000109998	0	0	0	
0.0393333	-0.023647	0.00132905	0.000481394	8.40742E-05	0	0	0	
0.0395	0.00328524	0.00158715	0.000363213	8.25923E-05	0	0	0	
0.0396667	-0.00503781	-0.00264542	0.000407187	5.81607E-05	0	0	0	
0.0398333	-0.00915916	0.00224236	0.000436837	0.000114213	0	0	0	
0.04	-0.0073409	-0.003019	0.000465922	0.000148508	0	0	0	
0.0401667	-0.00653917	0.00390572	0.000362608	0.00017753	0	0	0	
0.0403333	-0.00828393	-0.00821146	0.000280182	0.000180515	0	0	0	
0.0405	0.00173465	0.0127326	0.000192673	0.000185889	0	0	0	
0.0406667	-0.00732283	-0.011159	0.000201139	0.000220907	0	0	0	
0.0408333	-0.003527	0.00398693	0.000229903	0.000214814	0	0	0	
0.041	0.00440707	0.0014062	0.000288149	0.000186039	0	0	0	
0.0411667	-0.0106921	-0.0020583	0.000258437	0.000153235	0	0	0	
0.0413333	0.0012801	0.00268876	0.000218918	0.000142634	0	0	0	
0.0415	0.00573623	-0.00781294	0.000133899	0.000155438	0	0	0	
0.0416667	0.000246347	0.00322002	0.000201947	0.000145163	0	0	0	
0.0418333	-0.00919572	-0.0113022	0.000273624	0.000142936	0	0	0	
0.042	0.00839639	0.0189994	0.000376343	0.000231165	0	0	0	
0.0421667	-0.0192828	-0.010496	0.000401573	0.000326283	0	0	0	
0.0423333	0.0335917	0.00389614	0.000421527	0.000444223	0	0	0	
0.0425	-0.020806	0.00623885	0.000463763	0.000481385	0	0	0	
0.0426667	0.0152926	-0.0225116	0.000492148	0.000434913	0	0	0	
0.0428333	0.00461493	0.00539123	0.000387619	0.000371453	0	0	0	
0.043	-0.00523885	0.0112193	0.00027956	0.000299262	0	0	0	
0.0431667	0.000906744	-0.013842	0.000216199	0.000307056	0	0	0	
0.0433333	0.00562277	0.0170344	0.000264723	0.000289862	0	0	0	
0.0435	-0.00457287	-0.0149274	0.000340403	0.000293523	0	0	0	
0.0436667	0.0176556	-1.59848E-05	0.00036992	0.000244556	0	0	0	
0.0438333	-0.00384753	0.00645384	0.000391675	0.000224985	0	0	0	
0.044	-0.000230347	-0.00715762	0.000303521	0.000141153	0	0	0	
0.0441667	0.000398808	-0.0029211	0.000215764	0.00017262	0	0	0	
0.0443333	0.00504121	0.00321903	0.000147574	0.000183864	0	0	0	
0.0445	-0.00787005	-0.000578594	0.000161259	0.00017814	0	0	0	
0.0446667	0.00269981	-0.0038598	0.000160127	0.00012391	0	0	0	
0.0448333	-0.00411087	0.00107911	0.000137397	7.64722E-05	0	0	0	
0.045	0.00737152	0.00158792	0.000151223	6.39229E-05	0	0	0	
0.0451667	-0.00551833	-0.00792618	0.000165042	8.15397E-05	0	0	0	
0.0453333	-0.00358329	0.00343118	0.000143792	0.000115231	0	0	0	
0.0455	0.00408855	0.00525647	0.000128492	0.000186738	0	0	0	
0.0456667	0.00601096	-0.0131426	0.000198844	0.000229014	0	0	0	
0.0458333	-0.0109077	0.0113093	0.00031476	0.00027445	0	0	0	
0.046	0.00578252	-0.0040645	0.000352439	0.000236262	0	0	0	
0.0461667	-0.00402165	-0.00406792	0.000275609	0.000204408	0	0	0	
0.0463333	0.00149385	0.00184738	0.000169068	0.00016671	0	0	0	
0.0465	0.00219978	-0.00135499	8.13245E-05	0.000167395	0	0	0	
0.0466667	-0.00762068	0.00150692	6.085E-05	0.000127526	0	0	0	
0.0468333	0.016393	-0.00958471	0.000175335	0.000152698	0	0	0	
0.047	0.00594152	0.0039911	0.000377891	0.00021111	0	0	0	
0.0471667	0.0028728	0.00869578	0.000518755	0.000220237	0	0	0	
0.0473333	0.00354058	-0.00544544	0.000438006	0.000183839	0	0	0	
0.0475	-0.00420223	0.00220851	0.000280791	0.000107013	0	0	0	
0.0476667	0.00181723	-0.00513368	0.000195088	0.000109158	0	0	0	
0.0478333	-0.000911235	-0.000492877	0.000229111	7.52786E-05	0	0	0	
0.048	-0.00258485	0.000452638	0.000279787	7.85132E-05	0	0	0	
0.0481667	0.00831762	-0.000626216	0.000254687	8.08032E-05	0	0	0	
0.0483333	-0.00416298	0.00155513	0.000265055	6.28159E-05	0	0	0	
0.0485	0.000770543	0.00109053	0.00021527	5.15913E-05	0	0	0	
0.0486667	-0.00304122	0.0015704	0.000241034	7.55469E-05	0	0	0	
0.0488333	-0.00103654	0.00165667	0.00023293	0.000144866	0	0	0	
0.049	-0.0137684	0.000328622	0.000270806	0.000163482	0	0	0	
0.0491667	-0.00228202	-0.00395858	0.000245934	0.000125401	0	0	0	
0.0493333	0.00444281	-0.000821541	0.000221522	6.29889E-05	0	0	0	
0.0495	-0.0116327	0.00319444	0.000195085	7.38058E-05	0	0	0	
0.0496667	-0.0009541	0.00669587	0.000209097	9.69421E-05	0	0	0	
0.0498333	-0.0046216	-0.00651308	0.000220295	0.0001264	0	0	0	
0.05	0.00855192	0.00699818	0.000242095	0.000132654	0	0	0	
0.0501667	-0.00437325	0.000973481	0.000203314	0.000125	0	0	0	
0.0503333	-0.00520077	0.000739597	0.0001661	0.00011152	0	0	0	
0.0505	0.00538288	0.00033891	0.000113394	7.86747E-05	0	0	0	
0.0506667	-2.202E-05	-0.00173858	0.000143039	7.03825E-05	0	0	0	
0.0508333	-0.00468144	0.00446457	0.000168144	9.86872E-05	0	0	0	
0.051	0.00556329	0.00258329	0.000210479	0.000137921	0	0	0	
0.0511667	-0.00603055	0.00247719	0.000198882	0.000161646	0	0	0	
0.0513333	0.000912748	-0.000193022	0.000153709	0.000127045	0	0	0	
0.0515	0.00351058	0.00270831	9.23106E-05	8.78542E-05	0	0	0	
0.0516667	0.000266486	-0.0114797	8.54725E-05	8.91063E-05	0	0	0	
0.0518333	-0.00152749	0.0130215	9.79261E-05	0.000155779	0	0	0	
0.052	0.00544332	-0.00989366	0.000119494	0.000222118	0	0	0	
0.0521667	0.00705204	0.013059	0.000107702	0.000240517	0	0	0	
0.0523333	0.00125241	-0.00453609	0.000113604	0.000210102	0	0	0	
0.0525	-0.00770852	0.00403811	0.00017609	0.000159853	0	0	0	
0.0526667	0.00794036	-0.00637314	0.000209062	0.000150343	0	0	0	
0.0528333	-0.000744492	0.00303002	0.000198699	0.000132423	0	0	0	
0.053	0.00850183	-0.00334391	0.000134949	0.000130457	0	0	0	
0.0531667	-0.00962837	0.00397998	0.00015841	9.95795E-05	0	0	0	
0.0533333	0.0140261	-0.00186011	0.000200121	0.00010754	0	0	0	
0.0535	0.0035965	2.17365E-05	0.000216778	0.00010387	0	0	0	
0.0536667	0.00359854	-0.00206658	0.000190414	8.55519E-05	0	0	0	
0.0538333	-0.0057028	0.00601665	0.00021472	7.18845E-05	0	0	0	
0.054	0.00730989	-0.00661164	0.000214432	8.54772E-05	0	0	0	
0.0541667	-0.00348876	0.00366604	0.000185498	0.000137389	0	0	0	
0.0543333	0.00248839	-0.00596348	0.000115515	0.000168581	0	0	0	
0.0545	-0.0021401	0.00624138	0.000135962	0.000179644	0	0	0	
0.0546667	0.0112313	-0.0113416	0.000188628	0.000177144	0	0	0	
0.0548333	-0.00456258	0.0133557	0.000223159	0.000202185	0	0	0	
0.055	0.00114619	-0.00474478	0.000163297	0.000214655	0	0	0	
0.0551667	-0.00117617	-0.00180262	0.000102969	0.00018756	0	0	0	
0.0553333	0.00379265	0.00381052	0.000119599	0.000128121	0	0	0	
0.0555	-0.00621018	-0.0079684	0.000198582	0.000109343	0	0	0	
0.0556667	0.00578999	0.0115721	0.000241505	0.000150149	0	0	0	
0.0558333	-0.00438342	-0.0125389	0.00022244	0.000216433	0	0	0	
0.056	0.00802032	0.00700365	0.000214823	0.000237371	0	0	0	
0.0561667	-0.0134147	-0.00354014	0.000247741	0.000257001	0	0	0	
0.0563333	0.00787774	-0.00731172	0.000263745	0.000263748	0	0	0	
0.0565	-0.000446581	0.00987329	0.000198095	0.000278993	0	0	0	
0.0566667	0.00535692	-0.00122722	0.000115467	0.00022526	0	0	0	
0.0568333	-0.0110255	0.00061282	0.000148242	0.00017396	0	0	0	
0.057	0.020348	-0.00494928	0.000215603	0.000177985	0	0	0	
0.0571667	-0.0102078	-0.0047243	0.000333383	0.000187157	0	0	0	
0.0573333	-0.00645876	0.00722133	0.000284914	0.000164491	0	0	0	
0.0575	-0.000311301	-0.00608662	0.000257104	0.00014581	0	0	0	
0.0576667	-0.00575423	0.00285589	0.000175698	0.000134963	0	0	0	
0.0578333	0.00831621	-0.00470647	0.000177205	0.000141961	0	0	0	
0.058	-0.00046413	0.0043196	0.000250785	9.00271E-05	0	0	0	
0.0581667	-0.0229909	-0.00472465	0.000365321	0.000100247	0	0	0	
0.0583333	0.0102889	0.00816803	0.000426708	0.00014307	0	0	0	
0.0585	-0.0185601	-9.79942E-06	0.000425644	0.000217715	0	0	0	
0.0586667	-0.000981593	-0.00819321	0.000347133	0.000271844	0	0	0	
0.0588333	-0.00152235	0.00717997	0.00024214	0.000270554	0	0	0	
0.059	-0.000935567	-0.00635049	0.000135008	0.000216708	0	0	0	
0.0591667	-0.00813926	0.00586536	8.25353E-05	0.000166896	0	0	0	
0.0593333	0.00624844	-0.00389003	0.000174226	0.0001359	0	0	0	
0.0595	-0.0185569	0.00211602	0.000228624	0.000144901	0	0	0	
0.0596667	-8.35038E-05	0.00465309	0.000276719	0.000135317	0	0	0	
0.0598333	-0.00119205	-0.00161931	0.000194355	0.000104517	0	0	0	
0.06	0.00643431	-0.00396479	0.000175734	0.000103426	0	0	0	
0.0601667	-0.00481039	0.00330024	0.000126866	0.000106965	0	0	0	
0.0603333	0.00393409	8.86664E-05	0.000135227	0.000113491	0	0	0	
0.0605	-0.0102354	-0.00112299	0.000166398	0.000113579	0	0	0	
0.0606667	0.0163456	0.000287768	0.000238426	0.000159034	0	0	0	
0.0608333	-0.0119577	0.00447219	0.000292023	0.000268722	0	0	0	
0.061	0.000889543	-0.00444245	0.000251711	0.000347398	0	0	0	
0.0611667	-0.000449213	0.00990971	0.000172242	0.000320143	0	0	0	
0.0613333	0.00125573	-0.00763786	0.000107781	0.000241694	0	0	0	
0.0615	-0.000193478	0.000766743	9.60323E-05	0.00014644	0	0	0	
0.0616667	-0.000735655	0.00540574	0.000117883	0.00012586	0	0	0	
0.0618333	0.000702238	-0.0104124	0.000152853	0.00012087	0	0	0	
0.062	0.00321417	0.00806251	0.000208909	0.000174768	0	0	0	
0.0621667	-0.0112883	0.00674533	0.000251578	0.000210215	0	0	0	
0.0623333	0.00751529	-0.00556734	0.000258229	0.000207062	0	0	0	
0.0625	-0.00221222	-0.000835583	0.00020094	0.000142663	0	0	0	
0.0626667	0.00169298	-0.00207175	0.000145765	7.23005E-05	0	0	0	
0.0628333	-0.00267351	-0.000405085	0.000105931	5.01842E-05	0	0	0	
0.063	-0.00160062	0.00404483	0.000100922	7.07814E-05	0	0	0	
0.0631667	-0.00261722	0.00401763	0.000119758	0.000105037	0	0	0	
0.0633333	0.00518482	-0.00702949	0.000145076	0.000130159	0	0	0	
0.0635	0.00493178	0.00728541	0.000130792	0.000150507	0	0	0	
0.0636667	-0.00377211	-0.00486448	0.000172694	0.000161473	0	0	0	
0.0638333	0.0280262	0.00564482	0.000210694	0.000148694	0	0	0	
0.064	-0.00989668	-0.00110502	0.000346385	0.000107504	0	0	0	
0.0641667	-0.00685648	0.00451643	0.000328366	8.31355E-05	0	0	0	
0.0643333	0.013227	-0.000995782	0.000381124	8.48168E-05	0	0	0	
0.0645	-0.0143933	-0.000149038	0.000321622	0.000132893	0	0	0	
0.0646667	0.0154125	0.000423705	0.000319813	0.000185178	0	0	0	
0.0648333	-0.00281534	0.00278104	0.000259885	0.000207715	0	0	0	
0.065	0.0164373	-0.0026006	0.000282575	0.000168222	0	0	0	
0.0651667	-0.00799157	0.00450579	0.000327445	0.000136109	0	0	0	
0.0653333	0.000893735	-0.00250871	0.000299061	0.00016078	0	0	0	
0.0655	-0.00233894	0.00316872	0.000215216	0.000183696	0	0	0	
0.0656667	0.000814559	-0.000486489	0.000116258	0.000148201	0	0	0	
0.0658333	-4.7753E-05	-0.00532963	8.02272E-05	8.18012E-05	0	0	0	
0.066	-0.00324982	0.00517446	8.82926E-05	7.20666E-05	0	0	0	
0.0661667	-0.00370313	-0.00621704	0.000139922	0.000105911	0	0	0	
0.0663333	0.0140903	0.00719162	0.00021556	0.000129466	0	0	0	
0.0665	-0.00899292	0.00272464	0.000282296	0.000139531	0	0	0	
0.0666667	0.0140671	-0.00251974	0.000279818	0.000150176	0	0	0	
0.0668333	-8.53445E-05	0.00163068	0.000268373	0.000127877	0	0	0	
0.067	-0.00460016	0.00541364	0.000206156	0.000115469	0	0	0	
0.0671667	-0.000658918	-0.00761988	0.000184826	0.000131141	0	0	0	
0.0673333	0.011179	6.98634E-05	0.000196905	0.000125586	0	0	0	
0.0675	-0.00889539	0.00878117	0.000237119	0.000161052	0	0	0	
0.0676667	-0.00204122	-0.00881095	0.000214439	0.000172418	0	0	0	
0.0678333	0.0140986	0.0109914	0.000193343	0.000212229	0	0	0	
0.068	0.00622046	-0.00187452	0.000251	0.000176863	0	0	0	
0.0681667	-0.0165578	0.000118362	0.000314469	0.000167221	0	0	0	
0.0683333	-0.004346	0.0346286	0.000352925	0.000340994	0	0	0	
0.0685	0.021052	-0.018404	0.000451632	0.00078274	0	0	0	
0.0686667	-0.0150768	-0.00364177	0.000524824	0.0009883	0	0	0	
0.0688333	-0.00099991	-0.0116737	0.000479095	0.000803468	0	0	0	
0.069	0.0131541	0.00566559	0.00029729	0.000417368	0	0	0	
0.0691667	0.000221922	0.0120115	0.000178961	0.000230891	0	0	0	
0.0693333	0.00786988	-0.0223518	0.000186945	0.000299545	0	0	0	
0.0695	-0.0385408	0.0688869	0.000261072	0.000485369	0	0	0	
0.0696667	0.0365932	-0.0626969	0.000458853	0.000947963	0	0	0	
0.0698333	-0.00280574	0.00645036	0.000577367	0.00101355	0	0	0	
0.07	-0.00228274	0.00187541	0.000487598	0.000854094	0	0	0	
0.0701667	-0.00738049	0.000536395	0.000360942	0.00034695	0	0	0	
0.0703333	0.0166776	-0.00225212	0.000243956	0.00017946	0	0	0	
0.0705	0.00134647	-0.00214008	0.000270008	7.56966E-05	0	0	0	
0.0706667	-0.0107848	-0.00294517	0.000205498	5.27309E-05	0	0	0	
0.0708333	-0.00719618	0.0312605	0.000239037	0.000169875	0	0	0	
0.071	0.0380249	-0.0466849	0.000384996	0.000446209	0	0	0	
0.0711667	-0.0288516	0.0229795	0.00055912	0.000660198	0	0	0	
0.0713333	0.0138574	-0.0105211	0.000571205	0.000592765	0	0	0	
0.0715	0.00574479	0.0183281	0.000447108	0.000415969	0	0	0	
0.0716667	0.00571655	-0.00162751	0.000317734	0.000237393	0	0	0	
0.0718333	3.25086E-05	-0.00881526	0.000221141	0.000215166	0	0	0	
0.072	-0.00182308	0.0108425	0.000190963	0.000224659	0	0	0	
0.0721667	-0.000885355	-0.00583567	0.000289428	0.000400805	0	0	0	
0.0723333	0.0148094	-0.0104684	0.000424759	0.000519518	0	0	0	
0.0725	0.00999436	0.0184365	0.000423838	0.000522486	0	0	0	
0.0726667	-0.00928626	-0.00659182	0.000330358	0.000392746	0	0	0	
0.0728333	0.0138264	0.00797368	0.000277401	0.000267519	0	0	0	
0.073	0.0103307	-0.0144742	0.000284698	0.00023305	0	0	0	
0.0731667	-0.010256	0.0120339	0.000281017	0.000216869	0	0	0	
0.0733333	0.0109153	-0.00573706	0.000241249	0.000260739	0	0	0	
0.0735	-0.00556023	-0.00167071	0.000218738	0.000241339	0	0	0	
0.0736667	0.0136576	-0.00692488	0.000185461	0.000209716	0	0	0	
0.0738333	-0.0110872	0.0171113	0.000170169	0.000210829	0	0	0	
0.074	0.0136226	-0.0123874	0.00024917	0.000236783	0	0	0	
0.0741667	-0.00314076	-0.00253368	0.000242412	0.000212777	0	0	0	
0.0743333	0.00748197	-0.000222786	0.000257419	0.000145337	0	0	0	
0.0745	-0.00899706	-0.00245588	0.000200881	7.9441E-05	0	0	0	
0.0746667	0.00208619	0.000177555	0.000171145	5.98176E-05	0	0	0	
0.0748333	-0.00185043	0.00588301	0.000129922	0.000102637	0	0	0	
0.075	0.00645992	-0.00120193	0.000170196	0.000194158	0	0	0	
0.0751667	-0.0149659	0.0051807	0.000243208	0.000272156	0	0	0	
0.0753333	0.00029737	-0.00975383	0.000260543	0.000248529	0	0	0	
0.0755	0.0026792	0.00245264	0.000166616	0.000186306	0	0	0	
0.0756667	0.00789044	-0.000414379	0.00014581	0.000110581	0	0	0	
0.0758333	-0.0129587	-0.00217409	0.000188255	0.000120504	0	0	0	
0.076	0.00542399	0.00281827	0.000225261	9.50009E-05	0	0	0	
0.0761667	0.000728302	0.0034892	0.000166199	0.000116513	0	0	0	
0.0763333	0.0016866	-0.0165512	8.42171E-05	0.000150162	0	0	0	
0.0765	-0.00105899	0.0154143	5.43536E-05	0.000237161	0	0	0	
0.0766667	-0.00257718	-0.00268591	5.793E-05	0.000242133	0	0	0	
0.0768333	-0.000857093	-0.00664667	0.000125214	0.000233849	0	0	0	
0.077	0.00960204	0.000386828	0.000217587	0.000154834	0	0	0	
0.0771667	-0.014532	0.00367286	0.000267278	0.000154049	0	0	0	
0.0773333	0.00496279	-0.00879294	0.000263833	0.000160159	0	0	0	
0.0775	0.00513838	0.00237124	0.000196162	0.00016595	0	0	0	
0.0776667	-0.00167902	0.00189787	0.000173592	0.000145369	0	0	0	
0.0778333	-0.00710176	0.00491801	0.000186236	9.99868E-05	0	0	0	
0.078	0.00645442	-0.00625392	0.000190563	9.68629E-05	0	0	0	
0.0781667	-0.00556332	0.00272248	0.000176032	0.000121187	0	0	0	
0.0783333	0.0077194	-0.00502079	0.000151944	0.000143316	0	0	0	
0.0785	-0.00667885	0.00946652	0.000145429	0.000156811	0	0	0	
0.0786667	0.000947858	-0.00611466	0.000133235	0.000154716	0	0	0	
0.0788333	0.00124049	0.00117246	9.9577E-05	0.000127225	0	0	0	
0.079	0.0041213	-0.00196873	0.0001178	8.14659E-05	0	0	0	
0.0791667	-0.00532454	0.0024494	0.000151532	7.0955E-05	0	0	0	
0.0793333	0.00655521	2.24563E-05	0.000179078	9.7816E-05	0	0	0	
0.0795	-0.00560308	0.00312741	0.000169092	0.000129318	0	0	0	
0.0796667	0.00529995	-0.00808515	0.000143548	0.000140988	0	0	0	
0.0798333	0.00124074	0.000307646	0.000107824	0.00012939	0	0	0	
0.08	-0.000802492	0.00165779	7.58205E-05	0.000120618	0	0	0	
0.0801667	-5.75918E-05	0.00190398	9.61024E-05	0.000101204	0	0	0	
0.0803333	0.00470172	-0.00184628	0.00013164	0.000116337	0	0	0	
0.0805	-0.00170564	0.00376035	0.000155381	9.07353E-05	0	0	0	
0.0806667	0.00546765	-0.00908471	0.000141681	0.000123213	0	0	0	
0.0808333	-0.00547552	0.00851082	0.000132461	0.000120423	0	0	0	
0.081	0.00297901	-0.00938336	0.000113343	0.000180212	0	0	0	
0.0811667	0.00333792	0.00546778	8.5344E-05	0.000152095	0	0	0	
0.0813333	0.00247315	-0.00131233	8.70008E-05	0.000136586	0	0	0	
0.0815	-0.00485348	0.00476089	0.000131865	9.43727E-05	0	0	0	
0.0816667	0.0105431	-0.00224821	0.000174561	0.000110666	0	0	0	
0.0818333	-0.0103478	0.00136391	0.000198189	0.000163254	0	0	0	
0.082	0.00941974	-0.010069	0.000191178	0.000241941	0	0	0	
0.0821667	-0.00142836	0.0161137	0.000170428	0.000279464	0	0	0	
0.0823333	-0.0036995	-0.0132595	0.000108223	0.000299804	0	0	0	
0.0825	0.00273245	0.00408462	8.92258E-05	0.000243338	0	0	0	
0.0826667	0.001815	0.00237036	0.000111138	0.000199989	0	0	0	
0.0828333	-0.000644689	-0.00378113	0.000155242	0.000162889	0	0	0	
0.083	0.00162877	0.0102511	0.000171754	0.000172569	0	0	0	
0.0831667	-0.00459571	-0.0053857	0.000187011	0.000169529	0	0	0	
0.0833333	0.00524638	0.00555755	0.000202269	0.000181937	0	0	0	
0.0835	-0.00472071	-0.00203826	0.000200473	0.000166628	0	0	0	
0.0836667	0.0060209	-0.00394082	0.00017554	0.000148826	0	0	0	
0.0838333	-0.00444772	0.00643055	0.000141665	0.000110748	0	0	0	
0.084	-0.00121157	0.00111536	0.000100564	0.00010195	0	0	0	
0.0841667	0.00532813	0.00640153	7.13076E-05	0.000105961	0	0	0	
0.0843333	-0.0047764	-0.00887643	9.38492E-05	0.000127986	0	0	0	
0.0845	0.00278478	0.00855709	0.000146237	0.000194642	0	0	0	
0.0846667	0.00326436	0.00171313	0.000196424	0.000249542	0	0	0	
0.0848333	-0.008351	-0.00483384	0.000202386	0.000213405	0	0	0	
0.085	0.00420838	-0.000280625	0.000181436	0.000129267	0	0	0	
0.0851667	-0.000453269	0.00277745	0.000131333	7.08642E-05	0	0	0	
0.0853333	-0.00176709	-0.00382334	8.54059E-05	8.28305E-05	0	0	0	
0.0855	0.001577	0.00276226	7.40652E-05	0.000111408	0	0	0	
0.0856667	0.00171094	-0.00377845	0.000118579	0.000109207	0	0	0	
0.0858333	-0.00767619	0.00472694	0.000171942	0.000102505	0	0	0	
0.086	0.00557043	-0.00315141	0.000173557	7.38192E-05	0	0	0	
0.0861667	-0.0013215	0.000741589	0.000148243	8.06965E-05	0	0	0	
0.0863333	-0.00321018	-0.00666091	0.000104252	7.68736E-05	0	0	0	
0.0865	0.000184995	0.0100325	8.32709E-05	0.000125998	0	0	0	
0.0866667	0.00257026	-0.0129131	8.5395E-05	0.000174279	0	0	0	
0.0868333	-0.00326916	0.00953578	0.000104693	0.000213935	0	0	0	
0.087	0.00648475	-0.00735473	0.00013191	0.00020324	0	0	0	
0.0871667	-0.00717571	0.0124678	0.000144987	0.000194654	0	0	0	
0.0873333	0.00503881	-0.0107589	0.000145613	0.000203597	0	0	0	
0.0875	-0.00571534	0.00159984	0.000155759	0.000201246	0	0	0	
0.0876667	0.00924983	3.82395E-05	0.0001805	0.000183036	0	0	0	
0.0878333	-0.00807315	0.00741454	0.000194933	0.000190347	0	0	0	
0.088	0.00388596	-0.0147267	0.000179403	0.000226857	0	0	0	
0.0881667	0.00107512	0.00920506	0.0001208	0.000250154	0	0	0	
0.0883333	0.00270889	-0.00710131	0.000105333	0.000227506	0	0	0	
0.0885	-0.00814178	0.00518722	0.000123595	0.000199243	0	0	0	
0.0886667	0.00328115	-0.00135607	0.000141598	0.000184522	0	0	0	
0.0888333	0.00744272	0.00836502	0.000140973	0.000213066	0	0	0	
0.089	0.0103859	-0.0337075	0.000253218	0.000366746	0	0	0	
0.0891667	-0.0272457	0.03893	0.00046301	0.000660965	0	0	0	
0.0893333	0.0217106	-0.018107	0.000611463	0.000788088	0	0	0	
0.0895	-0.014228	0.00195924	0.000604224	0.000639027	0	0	0	
0.0896667	0.00746444	0.00292033	0.000495841	0.000384392	0	0	0	
0.0898333	-0.0186421	-0.00463384	0.000371811	0.000203643	0	0	0	
0.09	-0.000520741	0.016038	0.000290698	0.000220159	0	0	0	
0.0901667	0.020824	-0.0240851	0.000210943	0.000345843	0	0	0	
0.0903333	-0.0198612	0.0140688	0.000320993	0.00057514	0	0	0	
0.0905	0.00232268	0.0126742	0.000421904	0.00062976	0	0	0	
0.0906667	-0.00398761	-0.0139804	0.000488662	0.000500754	0	0	0	
0.0908333	-0.0141034	0.00624355	0.000383418	0.000295881	0	0	0	
0.091	0.0161038	-0.000897705	0.000310112	0.000187483	0	0	0	
0.0911667	-0.0082079	0.000366707	0.000256246	0.000136712	0	0	0	
0.0913333	0.00855623	-0.0090405	0.000294762	0.000123739	0	0	0	
0.0915	-0.00161507	0.0119927	0.000238913	0.000170542	0	0	0	
0.0916667	0.000777205	-0.00751755	0.000215328	0.000187465	0	0	0	
0.0918333	-0.0067046	0.00435987	0.000188348	0.000171985	0	0	0	
0.092	0.0187772	-0.00168711	0.000248038	0.000118892	0	0	0	
0.0921667	-0.0215867	0.000800691	0.000341276	7.03155E-05	0	0	0	
0.0923333	0.0243391	-0.00511132	0.000402534	5.8739E-05	0	0	0	
0.0925	-0.00506659	0.0114387	0.000395857	0.000125441	0	0	0	
0.0926667	0.000566128	-0.0111324	0.000266921	0.000223154	0	0	0	
0.0928333	0.00175648	0.00374329	0.000132656	0.000250657	0	0	0	
0.093	-2.14603E-05	0.0033754	7.81752E-05	0.000192551	0	0	0	
0.0931667	-0.00811931	-9.36471E-06	0.000175991	0.000102117	0	0	0	
0.0933333	0.0162976	-0.00155144	0.000277276	7.49351E-05	0	0	0	
0.0935	-0.00973081	-0.00222621	0.000305121	7.37456E-05	0	0	0	
0.0936667	0.00470963	0.00442368	0.000239979	9.33414E-05	0	0	0	
0.0938333	-0.000468977	-0.00531258	0.000174206	0.000129564	0	0	0	
0.094	0.00367869	0.00407787	0.000144896	0.000141951	0	0	0	
0.0941667	-0.000119232	-0.00281729	0.00013256	0.00013335	0	0	0	
0.0943333	0.000562721	0.00322568	0.000126898	8.81239E-05	0	0	0	
0.0945	-0.00646051	0.00121183	0.000148036	8.79952E-05	0	0	0	
0.0946667	0.00949623	-0.0108054	0.000177654	0.000112816	0	0	0	
0.0948333	-0.00188867	0.00957569	0.000176012	0.000155632	0	0	0	
0.095	0.00107035	-0.00363266	0.000114936	0.000186763	0	0	0	
0.0951667	-0.00207822	-0.00548136	9.68978E-05	0.000203909	0	0	0	
0.0953333	0.00585064	0.00107156	0.000107014	0.000173808	0	0	0	
0.0955	-0.00744664	0.00313188	0.000144938	0.000131381	0	0	0	
0.0956667	0.000945926	-0.00816827	0.000129607	0.000114565	0	0	0	
0.0958333	0.00106743	0.00993555	0.000101705	0.00014965	0	0	0	
0.096	0.000987809	-0.00652771	0.000123527	0.000168141	0	0	0	
0.0961667	-0.00651655	0.00254954	0.000173632	0.000143071	0	0	0	
0.0963333	0.00694314	-0.00187103	0.000215119	0.000110633	0	0	0	
0.0965	-0.00758382	-0.00230622	0.000201516	7.32661E-05	0	0	0	
0.0966667	0.00824436	0.00178564	0.000192867	9.96845E-05	0	0	0	
0.0968333	-0.0108824	0.00315501	0.000186269	0.000169579	0	0	0	
0.097	0.00145539	-0.00659657	0.000175086	0.000243974	0	0	0	
0.0971667	0.00379424	0.0111862	0.000116139	0.000250692	0	0	0	
0.0973333	0.00111636	0.000677819	0.000133739	0.000183752	0	0	0	
0.0975	-0.00816886	-0.00495431	0.000188422	0.000129502	0	0	0	
0.0976667	0.00876288	0.00520511	0.000240254	0.000124801	0	0	0	
0.0978333	-0.00532771	-0.00497199	0.000212811	0.000134553	0	0	0	
0.098	0.0030873	0.00303537	0.000166487	0.000126536	0	0	0	
0.0981667	-0.0053761	0.0023233	0.000157705	0.000103065	0	0	0	
0.0983333	0.00314412	0.000468474	0.000146341	0.000116055	0	0	0	
0.0985	-0.00249919	0.00761459	0.00011935	0.000125946	0	0	0	
0.0986667	0.00707248	-0.00372682	0.00010787	0.000153085	0	0	0	
0.0988333	-0.00721953	0.0031072	0.000132546	0.000129728	0	0	0	
0.099	0.00179204	-0.012016	0.000140294	0.000143748	0	0	0	
0.0991667	-0.00105017	0.00726784	0.000126134	0.000144351	0	0	0	
0.0993333	0.0077906	0.000638844	0.000157616	0.000139265	0	0	0	
0.0995	-0.0210506	0.00648662	0.000216241	0.00012015	0	0	0	
0.0996667	0.0293373	-0.00265124	0.000353641	0.000106618	0	0	0	
0.0998333	-0.00827182	-0.00341781	0.000481094	0.000108594	0	0	0	
0.1	0.020004	0.00264329	0.00058901	0.000150214	0	0	0	
0.100167	-0.0083709	0.00382911	0.000547267	0.000229213	0	0	0	
0.100333	-0.00239757	-0.00825879	0.000365339	0.000308467	0	0	0	
0.1005	-0.00216581	0.010299	0.000237856	0.000287931	0	0	0	
0.100667	0.0248762	-0.00652805	0.00026168	0.000212484	0	0	0	
0.100833	-0.0273803	0.0038938	0.000457599	0.000149076	0	0	0	
0.101	0.0364279	0.00523252	0.000599234	0.00012502	0	0	0	
0.101167	-0.00639481	-0.00577743	0.000645538	9.71593E-05	0	0	0	
0.101333	0.00509668	0.00493421	0.000505368	0.000112752	0	0	0	
0.1015	-0.00967234	0.00457872	0.000351649	0.00017919	0	0	0	
0.101667	0.00796316	-0.0109376	0.000213685	0.000253446	0	0	0	
0.101833	-0.00155343	0.00985222	0.000172025	0.000260311	0	0	0	
0.102	0.00075869	-0.00381143	0.000131369	0.000215095	0	0	0	
0.102167	-0.000359265	0.010662	9.12244E-05	0.000168275	0	0	0	
0.102333	0.0039681	-0.00790966	6.88236E-05	0.000171221	0	0	0	
0.1025	-0.00690071	0.00399888	0.000111114	0.000166293	0	0	0	
0.102667	0.0112854	-0.00213639	0.000164288	0.000129016	0	0	0	
0.102833	-0.00698319	0.00366497	0.000185386	9.40093E-05	0	0	0	
0.103	-0.00344686	-0.00548053	0.000211589	0.000108914	0	0	0	
0.103167	0.000768686	0.00597503	0.000225193	0.000129646	0	0	0	
0.103333	0.00772583	-0.000313063	0.000248345	0.000126145	0	0	0	
0.1035	-0.00237877	0.000871482	0.000246513	9.88065E-05	0	0	0	
0.103667	0.00902347	-0.00111063	0.000254303	0.000136808	0	0	0	
0.103833	-0.012481	0.00760431	0.000258161	0.00019456	0	0	0	
0.104	0.0160003	0.000164972	0.000293568	0.00023533	0	0	0	
0.104167	-0.0160997	-0.00134574	0.000251523	0.000207247	0	0	0	
0.104333	0.0179179	-0.00763037	0.000329683	0.00019333	0	0	0	
0.1045	-0.00483068	0.0123829	0.0002806	0.000215402	0	0	0	
0.104667	0.00530072	-0.00889941	0.00026952	0.000253828	0	0	0	
0.104833	-0.000261452	0.00558661	0.00014959	0.000223137	0	0	0	
0.105	0.000535563	-0.000405707	8.34001E-05	0.000159474	0	0	0	
0.105167	0.000496547	0.0065941	7.91462E-05	9.90944E-05	0	0	0	
0.105333	0.00531543	-0.00365007	9.02867E-05	9.13462E-05	0	0	0	
0.1055	-0.00404889	-0.00112039	0.000131796	7.1708E-05	0	0	0	
0.105667	0.0024222	0.00062795	0.000140302	6.17917E-05	0	0	0	
0.105833	-0.00573461	-0.000810818	0.000149708	5.96418E-05	0	0	0	
0.106	0.00849869	-0.00143603	0.000180435	9.1245E-05	0	0	0	
0.106167	-0.0117684	0.00373939	0.000212156	0.000148084	0	0	0	
0.106333	0.00851304	-0.000321839	0.000220511	0.000206304	0	0	0	
0.1065	-0.00249843	0.00519684	0.000175408	0.000228049	0	0	0	
0.106667	-0.000840555	-0.00632444	0.000114178	0.000186477	0	0	0	
0.106833	-0.00395678	0.00773809	8.55646E-05	0.000148135	0	0	0	
0.107	0.00122615	-0.00633061	8.6171E-05	0.000145668	0	0	0	
0.107167	0.00296139	-0.00260921	0.000105361	0.000164154	0	0	0	
0.107333	0.000907753	0.00854642	0.000168651	0.000133311	0	0	0	
0.1075	-0.0143447	-0.00546396	0.000251866	0.000132601	0	0	0	
0.107667	0.00983841	0.00178204	0.000290127	0.000125885	0	0	0	
0.107833	0.000695833	0.00496639	0.000240817	0.000130901	0	0	0	
0.108	-0.0025693	-0.00298939	0.000149737	8.37177E-05	0	0	0	
0.108167	-0.0046004	0.000744148	0.000172532	7.16462E-05	0	0	0	
0.108333	0.00542514	-0.00486792	0.000184561	5.50952E-05	0	0	0	
0.1085	-0.00559486	-0.000131313	0.00019273	7.69132E-05	0	0	0	
0.108667	0.00120105	-0.00332401	0.000157224	0.000111729	0	0	0	
0.108833	-0.00710737	0.00126454	0.000172092	0.000131565	0	0	0	
0.109	0.00868753	0.000338681	0.000212648	0.000112212	0	0	0	
0.109167	-0.00830524	-0.00109331	0.000220879	8.51647E-05	0	0	0	
0.109333	0.00397876	-0.00228854	0.000196471	0.00010081	0	0	0	
0.1095	-0.00794275	0.00177973	0.000187636	0.000160621	0	0	0	
0.109667	0.00689557	-0.0140819	0.000193321	0.000193105	0	0	0	
0.109833	-0.00233906	0.00201928	0.000162833	0.00021779	0	0	0	
0.11	-0.000331794	0.00506705	0.000114866	0.000161647	0	0	0	
0.110167	-0.00353299	-0.00520591	0.000127486	0.000132088	0	0	0	
0.110333	0.00542088	0.00606486	0.000187237	0.000130803	0	0	0	
0.1105	-0.00255065	-0.0070558	0.000222065	0.00016711	0	0	0	
0.110667	0.0068983	-0.00249646	0.000211299	0.000163165	0	0	0	
0.110833	-0.0135567	-0.000877078	0.000208336	0.000161527	0	0	0	
0.111	0.011056	0.00343923	0.000230152	0.000164119	0	0	0	
0.111167	-0.00275169	-0.000429886	0.000204574	0.000156043	0	0	0	
0.111333	0.00723305	-0.00517959	0.000167045	0.000112929	0	0	0	
0.1115	-0.00150082	0.00452292	0.00012432	9.31413E-05	0	0	0	
0.111667	-0.00763411	-0.00154686	0.000120297	8.75358E-05	0	0	0	
0.111833	0.00897445	-0.00782689	0.000140745	0.000123416	0	0	0	
0.112	0.00856612	-0.00175609	0.000228625	0.000152572	0	0	0	
0.112167	-0.0176725	0.00960452	0.000272346	0.000160659	0	0	0	
0.112333	0.00726881	-0.00876398	0.000285905	0.000178907	0	0	0	
0.1125	-0.00383066	0.00197914	0.000211785	0.000168559	0	0	0	
0.112667	0.00594802	-0.00204478	0.000192349	0.000162165	0	0	0	
0.112833	-0.0063267	-0.00513943	0.000156435	0.000118972	0	0	0	
0.113	-0.000889837	0.00416329	0.00015	8.55539E-05	0	0	0	
0.113167	-0.016782	0.0208419	0.000188497	0.000222876	0	0	0	
0.113333	0.0310294	-0.0449238	0.000407306	0.000475385	0	0	0	
0.1135	-0.0275299	0.0206291	0.000559186	0.000694143	0	0	0	
0.113667	0.00135132	-0.00956656	0.000544531	0.000607338	0	0	0	
0.113833	0.00736035	0.00809854	0.000323764	0.000409627	0	0	0	
0.114	-0.00202242	0.00574375	0.000199933	0.000205289	0	0	0	
0.114167	-0.00333001	-0.005891	0.000151419	0.000182693	0	0	0	
0.114333	-0.0101414	0.00230603	0.000161984	0.000182402	0	0	0	
0.1145	0.00798622	-0.00406992	0.000248516	0.000338475	0	0	0	
0.114667	0.0100585	-0.00984861	0.000406759	0.000418158	0	0	0	
0.114833	-0.013654	0.0139203	0.000459496	0.000419499	0	0	0	
0.115	0.0045395	-0.00643167	0.000366181	0.000280915	0	0	0	
0.115167	5.91233E-05	0.00886181	0.000182424	0.000196094	0	0	0	
0.115333	0.00166065	-0.00826205	0.000161369	0.000163889	0	0	0	
0.1155	-0.00813236	0.00143377	0.000189672	0.000139878	0	0	0	
0.115667	0.00726683	0.00374842	0.000233331	0.000117361	0	0	0	
0.115833	-0.00660366	0.00421609	0.000204866	8.41499E-05	0	0	0	
0.116	0.00660556	-0.00374116	0.000175835	0.000103916	0	0	0	
0.116167	-0.00785139	0.00568271	0.000164524	0.000134131	0	0	0	
0.116333	0.000451018	-0.00608013	0.000135148	0.000134712	0	0	0	
0.1165	0.00250128	0.00892055	9.9447E-05	0.00013806	0	0	0	
0.116667	-0.00254035	-0.0121917	6.91391E-05	0.000161015	0	0	0	
0.116833	-0.00128889	0.0114984	9.56601E-05	0.000217014	0	0	0	
0.117	0.00261789	-0.00692246	0.000121896	0.000222416	0	0	0	
0.117167	-0.00379071	0.00611048	0.000154235	0.000204425	0	0	0	
0.117333	0.00616471	-0.00130281	0.000169664	0.000196091	0	0	0	
0.1175	-0.0067631	-0.00330486	0.000216099	0.000192019	0	0	0	
0.117667	0.0227866	0.00484733	0.000266879	0.000173332	0	0	0	
0.117833	-0.0127924	-0.0014714	0.000341681	0.000161066	0	0	0	
0.118	0.0045816	-0.00505947	0.000283702	0.000174126	0	0	0	
0.118167	0.00390717	0.00950805	0.000208807	0.000173372	0	0	0	
0.118333	-0.00655689	-0.00907548	0.000105087	0.000181263	0	0	0	
0.1185	0.00530566	0.00313196	0.000167997	0.0001582	0	0	0	
0.118667	0.0111566	0.00178061	0.000288716	0.000167094	0	0	0	
0.118833	-0.00362774	-0.0101198	0.000399594	0.000117488	0	0	0	
0.119	0.00824401	0.00618061	0.000379035	0.00013805	0	0	0	
0.119167	-0.0116929	0.00333983	0.000293509	0.000128533	0	0	0	
0.119333	0.00875032	-0.0110855	0.000217438	0.000172645	0	0	0	
0.1195	0.00331565	0.0105686	0.000202748	0.000170777	0	0	0	
0.119667	-0.00941222	-0.0056961	0.000174451	0.000184769	0	0	0	
0.119833	0.00332481	0.00164904	0.00019803	0.000157728	0	0	0	
0.12	0.00728016	0.00461805	0.00025348	0.000128908	0	0	0	
0.120167	-0.0122505	-0.00580892	0.000313698	0.00010349	0	0	0	
0.120333	0.0116133	-0.000642273	0.000299561	8.53607E-05	0	0	0	
0.1205	-0.00636606	0.000368671	0.00023701	8.11154E-05	0	0	0	
0.120667	0.00797809	8.06312E-05	0.000178806	0.00011498	0	0	0	
0.120833	-0.00314203	0.00848801	0.000143195	0.000160299	0	0	0	
0.121	0.00143426	-0.0115271	0.000103133	0.000204527	0	0	0	
0.121167	-7.16368E-05	0.00538005	0.000104272	0.000187859	0	0	0	
0.121333	0.00344119	-0.00712374	0.000144207	0.000180708	0	0	0	
0.1215	-0.007275	0.00366516	0.000191808	0.000151949	0	0	0	
0.121667	0.0105873	0.000495422	0.000212782	0.000131642	0	0	0	
0.121833	-0.0082767	0.000300104	0.000202665	0.000103168	0	0	0	
0.122	0.0111151	-0.00325302	0.000187836	0.000126611	0	0	0	
0.122167	-0.00303397	0.00380755	0.000175326	0.000201039	0	0	0	
0.122333	-0.00285641	-0.0142949	0.000139692	0.000249491	0	0	0	
0.1225	0.00162619	0.0116029	9.0901E-05	0.00026033	0	0	0	
0.122667	-0.00147896	0.000351291	9.64391E-05	0.00018646	0	0	0	
0.122833	-0.00215434	-0.00256681	0.000136114	0.000158993	0	0	0	
0.123	0.00876337	0.00503871	0.000230053	0.000118013	0	0	0	
0.123167	-0.0133154	-0.00811487	0.000277043	0.000143675	0	0	0	
0.123333	0.0121225	-0.000709993	0.000275553	0.000168372	0	0	0	
0.1235	-0.006528	0.00997422	0.000234524	0.000217985	0	0	0	
0.123667	0.00371328	-0.0138178	0.000168305	0.000250766	0	0	0	
0.123833	-0.00296849	0.0166244	0.000109655	0.00026513	0	0	0	
0.124	-0.00175711	-0.0107175	6.19952E-05	0.000272587	0	0	0	
0.124167	-0.000433807	-0.00507112	6.21886E-05	0.000257969	0	0	0	
0.124333	0.00377322	0.00633912	0.000113194	0.000221858	0	0	0	
0.1245	-0.0056144	0.00387242	0.000153344	0.000150853	0	0	0	
0.124667	0.00279722	-0.004998	0.000155756	0.000155052	0	0	0	
0.124833	-0.00237093	0.00204636	0.000139105	0.000158646	0	0	0	
0.125	0.00494183	-0.00277608	0.000154197	0.000144913	0	0	0	
0.125167	-0.00441056	-8.3521E-05	0.000186274	0.000135864	0	0	0	
0.125333	-0.00181738	0.00338295	0.000249474	0.000131314	0	0	0	
0.1255	-0.0213992	-0.0121564	0.000366575	0.000178647	0	0	0	
0.125667	0.00882924	0.00849477	0.000522186	0.000221362	0	0	0	
0.125833	-0.00839178	0.00105725	0.000488899	0.000260909	0	0	0	
0.126	0.00587702	-0.0102692	0.00035284	0.000268949	0	0	0	
0.126167	-0.00612013	0.0113724	0.000167131	0.000254497	0	0	0	
0.126333	0.00101755	-0.0114109	0.000113643	0.00022197	0	0	0	
0.1265	-0.00454383	7.1528E-05	0.000121642	0.000194169	0	0	0	
0.126667	-0.0232722	-0.00363334	0.000174316	0.000126449	0	0	0	
0.126833	-0.00606733	0.00443443	0.000234837	9.81682E-05	0	0	0	
0.127	0.0110932	-0.00327205	0.000280235	9.17532E-05	0	0	0	
0.127167	-0.00829621	0.000313387	0.000265195	0.000105864	0	0	0	
0.127333	0.00332783	0.00366709	0.000221987	0.00011772	0	0	0	
0.1275	0.00159737	-0.00727679	0.000141149	0.000129142	0	0	0	
0.127667	-0.0011897	0.00318252	0.000100582	0.000132147	0	0	0	
0.127833	-0.000101376	0.00288757	0.000131359	0.000124364	0	0	0	
0.128	-0.000816437	-0.00473211	0.000203068	0.000122355	0	0	0	
0.128167	-0.0072932	-0.000822756	0.000238229	0.000106394	0	0	0	
0.128333	0.0108079	0.00446193	0.000240264	0.000100689	0	0	0	
0.1285	-0.0131874	0.00414291	0.000217398	8.01902E-05	0	0	0	
0.128667	0.0133092	-0.0111339	0.000254699	0.000114916	0	0	0	
0.128833	0.00692817	0.00658513	0.000286988	0.000141366	0	0	0	
0.129	0.00372101	0.00146212	0.000266296	0.000134069	0	0	0	
0.129167	-0.0134144	-0.0019401	0.000241731	0.000103222	0	0	0	
0.129333	0.00824793	-0.000294668	0.000210103	0.00010427	0	0	0	
0.1295	-0.000509289	2.12142E-05	0.000187432	0.000144371	0	0	0	
0.129667	0.00378577	-0.00523444	0.00012394	0.00017713	0	0	0	
0.129833	-0.00414192	0.0124196	7.82659E-05	0.000201167	0	0	0	
0.13	-0.00236683	-0.0143485	7.28968E-05	0.000236392	0	0	0	
0.130167	0.00158319	0.00405589	0.000109721	0.000240734	0	0	0	
0.130333	0.00949161	0.0070446	0.000186953	0.000232102	0	0	0	
0.1305	-0.0117618	-0.00645269	0.000254724	0.000174301	0	0	0	
0.130667	0.00451345	0.000688637	0.000252414	0.000156169	0	0	0	
0.130833	-0.00115226	0.00485983	0.000187658	0.000140433	0	0	0	
0.131	0.00466222	-0.00131663	0.000170219	0.000164852	0	0	0	
0.131167	-0.00615819	0.00460385	0.000166319	0.000156968	0	0	0	
0.131333	0.00554717	-0.00948525	0.000167722	0.000135582	0	0	0	
0.1315	-0.00495807	0.0023915	0.000147129	0.000121643	0	0	0	
0.131667	0.00234245	0.00964159	0.000140993	0.000190228	0	0	0	
0.131833	0.00187562	-0.00917097	0.000119825	0.000239618	0	0	0	
0.132	0.0017261	0.00137103	0.000113678	0.000247219	0	0	0	
0.132167	-0.00608243	0.0105305	0.000137038	0.000219064	0	0	0	
0.132333	0.00985426	-0.0106181	0.00017985	0.000214834	0	0	0	
0.1325	-0.00629002	0.00667375	0.00019306	0.000216858	0	0	0	
0.132667	0.00152098	-0.0154714	0.000155332	0.000207565	0	0	0	
0.132833	0.00300089	0.0120581	0.000109393	0.000235311	0	0	0	
0.133	0.0024575	0.00590888	0.000125423	0.000261497	0	0	0	
0.133167	-0.0111373	-0.0129241	0.00021141	0.000253387	0	0	0	
0.133333	0.0183962	0.00147229	0.000295139	0.000227523	0	0	0	
0.1335	-0.0157975	0.00958181	0.000353866	0.000252581	0	0	0	
0.133667	0.00861211	-0.0147988	0.000305293	0.000290323	0	0	0	
0.133833	-0.00136811	0.0121852	0.000248459	0.000288425	0	0	0	
0.134	-0.00601091	-0.00499359	0.000140748	0.000239581	0	0	0	
0.134167	0.00435576	-0.000901473	0.000135998	0.000202781	0	0	0	
0.134333	0.00521316	0.00118284	0.000199011	0.000166221	0	0	0	
0.1345	-0.0135703	0.00356948	0.000295661	0.00013059	0	0	0	
0.134667	0.00870353	-0.00044631	0.000322867	0.000125859	0	0	0	
0.134833	-0.00724228	0.00564755	0.000265243	0.000147273	0	0	0	
0.135	0.00442967	-0.00513992	0.00019058	0.000183247	0	0	0	
0.135167	-0.0030177	0.00540418	0.000135	0.00016504	0	0	0	
0.135333	0.0014179	0.000157489	0.000110185	0.000121309	0	0	0	
0.1355	-0.00311975	0.00406679	0.00010299	8.57191E-05	0	0	0	
0.135667	0.00344195	-0.00579703	0.000134532	9.81895E-05	0	0	0	
0.135833	-0.00478385	0.00134259	0.000170246	0.000108024	0	0	0	
0.136	0.00747737	0.00333265	0.000193472	0.000123456	0	0	0	
0.136167	-0.0118605	0.00671116	0.000207294	0.000134049	0	0	0	
0.136333	0.00998657	-0.00751783	0.000208456	0.000193019	0	0	0	
0.1365	-0.00220725	0.0073183	0.000197428	0.000226108	0	0	0	
0.136667	-0.00421777	-0.00123986	0.000136322	0.000201479	0	0	0	
0.136833	-0.00118092	0.00317201	0.000138299	0.000119267	0	0	0	
0.137	0.00811497	-0.0110909	0.000159557	0.000107768	0	0	0	
0.137167	-0.00620574	0.00989079	0.000189757	0.000128099	0	0	0	
0.137333	0.00163603	-0.000455058	0.000148033	0.000201982	0	0	0	
0.1375	0.00225026	-0.0190438	9.25723E-05	0.000287437	0	0	0	
0.137667	-0.00700463	0.0204833	0.000156641	0.000484275	0	0	0	
0.137833	0.01755	0.00625585	0.000256348	0.000569379	0	0	0	
0.138	0.00836403	0.00767705	0.000299971	0.000479718	0	0	0	
0.138167	-0.0037384	-0.0256269	0.000291439	0.000353736	0	0	0	
0.138333	-0.0048719	0.0108403	0.00023588	0.000424362	0	0	0	
0.1385	-0.032097	0.106396	0.000479775	0.00119745	0	0	0	
0.138667	0.178617	-0.327213	0.000955766	0.00216424	0	0	0	
0.138833	-0.37933	0.870965	0.00272023	0.00627352	0	0	0	
0.139	0.144026	-0.158074	0.00404044	0.00772885	0	0	0	
0.139167	-0.0112362	-0.0766686	0.00397128	0.00811334	0	0	0	
0.139333	-0.0138928	0.0917205	0.00234584	0.0044331	0	0	0	
0.1395	0.0172952	-0.0831725	0.000808078	0.00266872	0	0	0	
0.139667	0.00382942	-0.00468424	0.000573107	0.00199734	0	0	0	
0.139833	-0.0917767	0.369091	0.00137584	0.00351647	0	0	0	
0.14	-0.0319361	0.000806993	0.00294236	0.00639083	0	0	0	
0.140167	-0.0432545	0.0996964	0.00356657	0.00652449	0	0	0	
0.140333	0.0251546	-0.0332625	0.00275955	0.00485544	0	0	0	
0.1405	0.010018	-0.0300078	0.00120793	0.00191243	0	0	0	
0.140667	-0.00359897	0.000349858	0.000426336	0.00108135	0	0	0	
0.140833	-0.0241957	0.0490839	0.0004686	0.000844625	0	0	0	
0.141	0.0384255	-0.0769746	0.000584032	0.000790276	0	0	0	
0.141167	-0.021379	0.0208375	0.000651898	0.00110597	0	0	0	
0.141333	0.0116224	0.0106203	0.000507022	0.00113685	0	0	0	
0.1415	-0.00997281	-0.014529	0.000358977	0.000808768	0	0	0	
0.141667	0.00677821	0.00804026	0.000224831	0.000497519	0	0	0	
0.141833	0.0125233	-0.00891402	0.000175387	0.000297825	0	0	0	
0.142	-0.0226908	0.0869758	0.00066079	0.000784761	0	0	0	
0.142167	-0.0301429	-0.124816	0.00140952	0.0018343	0	0	0	
0.142333	0.0819828	-0.0330857	0.0023633	0.00338147	0	0	0	
0.1425	0.00346744	-0.0373165	0.00220674	0.00339149	0	0	0	
0.142667	0.00131364	0.0118719	0.00142783	0.00240852	0	0	0	
0.142833	-0.0117924	0.000592978	0.000481576	0.000932731	0	0	0	
0.143	0.00440184	0.0277104	0.000249693	0.000477057	0	0	0	
0.143167	-0.102948	0.105381	0.00103215	0.000949177	0	0	0	
0.143333	0.248426	-0.338705	0.0017104	0.00215327	0	0	0	
0.1435	-0.0386806	0.063615	0.00245685	0.00317842	0	0	0	
0.143667	0.0142265	0.0035808	0.00178169	0.00278997	0	0	0	
0.143833	-0.00481755	-0.0202858	0.00110523	0.00151814	0	0	0	
0.144	0.00288073	-0.000609399	0.000224323	0.000455219	0	0	0	
0.144167	-0.00421248	0.00293026	0.000122999	0.000211149	0	0	0	
0.144333	0.0173452	0.0205475	0.000118211	0.000282548	0	0	0	
0.1445	-0.0299394	0.0245372	0.000280913	0.000652084	0	0	0	
0.144667	0.0421858	0.00568063	0.000528794	0.000883994	0	0	0	
0.144833	-0.0362194	-0.00728536	0.000762065	0.000743868	0	0	0	
0.145	0.0168503	0.00409836	0.000843603	0.00036526	0	0	0	
0.145167	0.00788078	0.00368483	0.000621411	0.000182165	0	0	0	
0.145333	-0.01397	-0.0137941	0.000401332	0.000172302	0	0	0	
0.1455	0.0135141	0.0691682	0.000284417	0.000311717	0	0	0	
0.145667	0.0191511	-0.0142536	0.000516678	0.000618312	0	0	0	
0.145833	-0.0403106	0.00584149	0.000753815	0.00064708	0	0	0	
0.146	0.0349886	0.000559555	0.000948254	0.000506644	0	0	0	
0.146167	-0.0107798	-0.00132593	0.000806915	0.000170632	0	0	0	
0.146333	0.00335182	-0.000970467	0.000549198	0.000116508	0	0	0	
0.1465	0.00114728	0.00922145	0.000237163	0.000124782	0	0	0	
0.146667	0.000837468	-0.0053803	0.000113114	0.000141238	0	0	0	
0.146833	-0.0083933	0.00822153	0.000119959	0.000186456	0	0	0	
0.147	0.00552484	9.10485E-05	0.000129845	0.000199758	0	0	0	
0.147167	0.0020838	-0.00186903	0.000135856	0.000215899	0	0	0	
0.147333	0.000734769	0.00566827	0.000173666	0.000208195	0	0	0	
0.1475	-0.013297	-0.00837766	0.000261974	0.000164231	0	0	0	
0.147667	0.0152062	0.00822999	0.000333364	0.00015621	0	0	0	
0.147833	-0.00623283	0.00477411	0.000303842	0.000156831	0	0	0	
0.148	0.00147214	-0.0121867	0.000203769	0.000170486	0	0	0	
0.148167	0.00283046	0.0137944	0.000118896	0.000192257	0	0	0	
0.148333	-0.00712855	-0.0025924	8.08427E-05	0.000204893	0	0	0	
0.1485	0.00120608	-0.00197202	0.000101425	0.000196909	0	0	0	
0.148667	0.00719924	0.00210657	0.000195345	0.000136952	0	0	0	
0.148833	-0.0091715	0.00358915	0.000247911	9.9546E-05	0	0	0	
0.149	0.00711406	-0.00371114	0.000245284	8.71234E-05	0	0	0	
0.149167	-0.00422545	0.00496093	0.000176959	9.96822E-05	0	0	0	
0.149333	0.00351197	-0.00438297	0.00012158	0.000123202	0	0	0	
0.1495	-0.00274609	0.00347232	9.17449E-05	0.000120673	0	0	0	
0.149667	0.00330404	-0.00247021	0.000116873	0.000102743	0	0	0	
0.149833	-0.00785101	0.00650127	0.000169313	9.42485E-05	0	0	0	
0.15	0.00772648	-0.00495029	0.000202331	0.000136726	0	0	0	
0.150167	-0.00654903	0.00380786	0.000186061	0.00015924	0	0	0	
0.150333	0.00924095	-0.00360211	0.000163246	0.000137184	0	0	0	
0.1505	-0.0081742	0.00479789	0.00015852	9.56538E-05	0	0	0	
0.150667	0.00107722	-0.0041054	0.000137745	8.89261E-05	0	0	0	
0.150833	0.00176587	0.00383165	8.81302E-05	0.000111487	0	0	0	
0.151	0.00233216	-0.00670766	8.28213E-05	0.000124814	0	0	0	
0.151167	-0.00887724	0.00513708	0.000120357	0.000122769	0	0	0	
0.151333	0.00756773	-0.00424802	0.000173567	0.000107893	0	0	0	
0.1515	-0.00299893	0.00265841	0.000157093	9.55774E-05	0	0	0	
0.151667	0.00408809	-0.00061616	0.00011837	8.99249E-05	0	0	0	
0.151833	-0.00529705	0.00487258	9.75501E-05	0.000102429	0	0	0	
0.152	0.00411936	-0.0130945	0.000103701	0.000127051	0	0	0	
0.152167	-0.00378101	0.00989478	0.000123531	0.000178034	0	0	0	
0.152333	0.0081793	-0.00173014	0.000160496	0.000194246	0	0	0	
0.1525	-0.0115734	-0.00104645	0.00020952	0.000182413	0	0	0	
0.152667	0.0155553	-0.00440852	0.000244387	0.000147163	0	0	0	
0.152833	-0.00915151	0.00939504	0.000255526	0.000181702	0	0	0	
0.153	0.000923544	-0.0231236	0.000211508	0.000296201	0	0	0	
0.153167	0.00115402	0.0305061	0.000142885	0.000441932	0	0	0	
0.153333	-0.00225409	-0.0236741	7.17471E-05	0.000504067	0	0	0	
0.1535	0.00353571	0.00277271	7.92826E-05	0.000450343	0	0	0	
0.153667	0.00493366	0.00944945	0.00016449	0.000351925	0	0	0	
0.153833	-0.0122686	-0.0138055	0.000264688	0.000267606	0	0	0	
0.154	0.012563	0.00446358	0.000307114	0.000272115	0	0	0	
0.154167	-0.00808222	0.00520418	0.000269202	0.000324867	0	0	0	
0.154333	0.000545476	-0.0107552	0.000188779	0.000363351	0	0	0	
0.1545	0.00105545	0.00198478	0.000107884	0.000314805	0	0	0	
0.154667	0.0023362	-9.52966E-05	0.000102488	0.00020209	0	0	0	
0.154833	-0.00217282	-0.00377389	0.000109286	0.000189738	0	0	0	
0.155	-0.00347152	0.0128016	0.000129372	0.000197002	0	0	0	
0.155167	0.00193811	-0.00942727	0.000166116	0.000284004	0	0	0	
0.155333	0.00128029	0.0021466	0.000310467	0.000424914	0	0	0	
0.1555	-0.0147841	0.0146457	0.000462816	0.000491254	0	0	0	
0.155667	-0.00206193	-0.0190879	0.000542386	0.000477283	0	0	0	
0.155833	0.00528179	0.014877	0.000464266	0.000371305	0	0	0	
0.156	0.00885042	-0.0103234	0.000320616	0.000342213	0	0	0	
0.156167	-0.0034344	-0.0057138	0.000179865	0.000307264	0	0	0	
0.156333	-0.0139104	0.0211398	0.00015482	0.000291167	0	0	0	
0.1565	0.0211155	-0.0092487	0.000269562	0.000313497	0	0	0	
0.156667	-0.0166792	-0.00241998	0.000391675	0.00027557	0	0	0	
0.156833	-0.00583144	0.00533317	0.000428772	0.000249211	0	0	0	
0.157	0.01575	-0.00559616	0.000382379	0.000190653	0	0	0	
0.157167	-0.00220166	0.00294672	0.000293938	0.000208017	0	0	0	
0.157333	0.0105244	-0.00192238	0.000256834	0.000181936	0	0	0	
0.1575	-0.00881027	0.00192234	0.000253316	0.000158697	0	0	0	
0.157667	0.0151491	-0.00315689	0.000263407	0.000121944	0	0	0	
0.157833	-0.00465661	-0.00237356	0.000290256	9.03825E-05	0	0	0	
0.158	0.00230234	0.00312188	0.000254889	5.49975E-05	0	0	0	
0.158167	-0.00501579	0.00103958	0.000219768	7.63515E-05	0	0	0	
0.158333	0.00378599	0.00259736	0.000144478	8.28844E-05	0	0	0	
0.1585	-0.00280141	-0.00292913	0.000128436	0.000107323	0	0	0	
0.158667	0.00875274	-0.000137884	0.000177426	0.000111281	0	0	0	
0.158833	-0.00183405	0.00369354	0.000236082	0.000109178	0	0	0	
0.159	0.00063261	-0.00121961	0.000219059	9.76329E-05	0	0	0	
0.159167	-0.00556609	-0.00166991	0.000183665	7.01619E-05	0	0	0	
0.159333	0.0111617	0.00218141	0.000181296	5.39909E-05	0	0	0	
0.1595	-0.0115983	0.00365604	0.000223734	4.55887E-05	0	0	0	
0.159667	0.00445754	-0.0108718	0.000220814	8.76835E-05	0	0	0	
0.159833	-0.00191792	0.00869673	0.00015426	0.000133581	0	0	0	
0.16	-0.000877166	-0.00565918	0.000103832	0.000158578	0	0	0	
0.160167	-0.00186725	0.00726228	0.00011771	0.000153563	0	0	0	
0.160333	0.00395399	-0.00505613	0.000151248	0.000138698	0	0	0	
0.1605	-0.00384349	0.00270634	0.000170142	0.000147581	0	0	0	
0.160667	0.00784396	-0.010648	0.000167184	0.00012523	0	0	0	
0.160833	-0.0104706	0.00874875	0.000169013	0.000137042	0	0	0	
0.161	0.00289891	-0.00483465	0.000163395	0.000148956	0	0	0	
0.161167	0.00204086	-0.00361717	0.00011571	0.000145238	0	0	0	
0.161333	0.00453649	0.00779854	0.000132168	0.000124891	0	0	0	
0.1615	-0.0131819	-0.00619963	0.000181076	0.000115458	0	0	0	
0.161667	0.0117332	-0.00315652	0.000251445	0.000147755	0	0	0	
0.161833	-0.0106809	0.0056968	0.000250128	0.000189448	0	0	0	
0.162	0.0108835	-0.00175251	0.00022607	0.00022336	0	0	0	
0.162167	-0.0045981	0.0011812	0.000196505	0.000219479	0	0	0	
0.162333	0.00184277	-0.00761866	0.000147607	0.000168597	0	0	0	
0.1625	-0.00510944	0.00520754	0.00012951	0.000134362	0	0	0	
0.162667	0.0081946	-0.00242246	0.000158097	0.000102836	0	0	0	
0.162833	-0.0109618	0.00361751	0.000210345	9.78941E-05	0	0	0	
0.163	0.008311	0.000116094	0.000225941	7.79293E-05	0	0	0	
0.163167	-0.00902355	-0.00262003	0.000214361	8.13322E-05	0	0	0	
0.163333	0.013373	0.00487337	0.000203816	9.1896E-05	0	0	0	
0.1635	-0.0141775	-0.000171549	0.00023831	0.000126751	0	0	0	
0.163667	0.00721292	-0.00441872	0.00024256	0.00018874	0	0	0	
0.163833	-0.00682362	0.00615089	0.00023925	0.000248394	0	0	0	
0.164	0.00876657	-0.00363452	0.000201503	0.00026552	0	0	0	
0.164167	-0.00829081	-0.00315188	0.000189429	0.000222589	0	0	0	
0.164333	0.00538142	0.00105972	0.000178456	0.000143213	0	0	0	
0.1645	-0.00601445	-0.000678742	0.000188452	8.10309E-05	0	0	0	
0.164667	0.00469262	0.00267301	0.000206795	6.50546E-05	0	0	0	
0.164833	-0.00538703	-0.00118125	0.000224801	7.08356E-05	0	0	0	
0.165	0.0105652	-0.00114467	0.000210204	8.64151E-05	0	0	0	
0.165167	-0.0108495	0.00454267	0.000196934	7.97305E-05	0	0	0	
0.165333	0.00419534	-0.00794978	0.000175928	9.64326E-05	0	0	0	
0.1655	-0.000492133	0.00826109	0.000132361	0.000113524	0	0	0	
0.165667	0.00124637	-0.00787738	9.18058E-05	0.00015711	0	0	0	
0.165833	-0.00115576	0.00161779	8.59211E-05	0.000154554	0	0	0	
0.166	0.00835292	0.00569628	0.000139068	0.000150658	0	0	0	
0.166167	-0.0155126	0.0017538	0.000229496	0.000186822	0	0	0	
0.166333	0.0169342	-0.0120061	0.000292901	0.000258438	0	0	0	
0.1665	-0.011389	0.0137163	0.000309806	0.000322474	0	0	0	
0.166667	0.00611828	-0.00532616	0.000252772	0.000325672	0	0	0	
0.166833	-0.00554764	0.00453002	0.000184183	0.000292681	0	0	0	
0.167	0.00701617	-0.00425472	0.000139344	0.00022866	0	0	0	
0.167167	-0.00499585	0.000813798	0.000130637	0.000153434	0	0	0	
0.167333	0.0109787	0.0038262	0.000144354	0.000135708	0	0	0	
0.1675	-0.0169451	-0.00362115	0.000233106	0.000100789	0	0	0	
0.167667	0.00616923	-0.00145998	0.000277553	0.000125037	0	0	0	
0.167833	0.0011741	0.00224372	0.000239983	0.000115221	0	0	0	
0.168	0.00259726	-0.0132472	0.000146194	0.000159773	0	0	0	
0.168167	-0.0206083	0.017758	0.000156177	0.000189137	0	0	0	
0.168333	0.0378678	-0.0355679	0.000289511	0.000419453	0	0	0	
0.1685	-0.0253378	0.0745768	0.000525542	0.000961086	0	0	0	
0.168667	-0.0121222	-0.00718385	0.000583874	0.00117679	0	0	0	
0.168833	0.00756387	-0.0138328	0.000525081	0.000984798	0	0	0	
0.169	0.00650752	0.00097725	0.000344051	0.000433262	0	0	0	
0.169167	-0.00224336	0.00729924	0.000197164	0.000233587	0	0	0	
0.169333	0.0144145	-0.0358394	0.000173351	0.000291434	0	0	0	
0.1695	-0.0355354	0.0693494	0.000319948	0.000693358	0	0	0	
0.169667	0.029893	-0.00477657	0.000595938	0.000981076	0	0	0	
0.169833	-0.00575014	0.0077377	0.000586811	0.00091199	0	0	0	
0.17	-0.00168789	-0.0119588	0.000427454	0.000552389	0	0	0	
0.170167	-0.00401405	0.00223136	0.000149212	0.00022834	0	0	0	
0.170333	0.0143925	-0.00456906	0.000156665	0.000243107	0	0	0	
0.1705	-0.00956734	0.0106518	0.000153881	0.000272109	0	0	0	
0.170667	0.00619791	-0.00419239	0.000198818	0.000289127	0	0	0	
0.170833	0.00229675	-0.00385365	0.000151783	0.000256024	0	0	0	
0.171	-0.00130857	0.00184289	0.000104823	0.000194983	0	0	0	
0.171167	-0.00360765	-0.000287269	0.000120632	0.000144355	0	0	0	
0.171333	0.00899396	-0.00402351	0.00018034	0.000114147	0	0	0	
0.1715	-0.00557576	0.00768647	0.000214546	0.000101708	0	0	0	
0.171667	0.0053059	-0.00499984	0.000178779	9.74685E-05	0	0	0	
0.171833	-0.000329267	0.0025172	0.000130554	0.000126403	0	0	0	
0.172	-0.00169108	0.00165574	7.77689E-05	0.000117841	0	0	0	
0.172167	-0.00121344	0.0072333	0.000120363	0.000183697	0	0	0	
0.172333	0.0561641	-0.0238405	0.000423785	0.000320619	0	0	0	
0.1725	0.0379088	0.0923471	0.00125707	0.00108637	0	0	0	
0.172667	0.0120133	-0.032471	0.00166776	0.00123799	0	0	0	
0.172833	-0.0163438	-0.00759709	0.00145989	0.00129882	0	0	0	
0.173	0.010843	0.000377309	0.000703381	0.000589099	0	0	0	
0.173167	0.00211437	-0.000673962	0.00025808	0.000361838	0	0	0	
0.173333	0.0203688	-0.0330531	0.000248259	0.000321907	0	0	0	
0.1735	-0.012741	0.00386743	0.000286477	0.000432112	0	0	0	
0.173667	0.0084122	0.00486175	0.000319622	0.000526526	0	0	0	
0.173833	-0.00707787	-0.00603144	0.000263182	0.000389741	0	0	0	
0.174	0.00519951	0.000803884	0.000188243	0.000242688	0	0	0	
0.174167	-0.0103424	-0.00286077	0.000174608	0.000144845	0	0	0	
0.174333	0.00504704	-0.00279136	0.000155218	9.57329E-05	0	0	0	
0.1745	-0.000781135	0.00463573	0.000200223	9.60335E-05	0	0	0	
0.174667	-0.00543195	-0.0095356	0.000191019	0.000126444	0	0	0	
0.174833	1.99899E-05	0.017672	0.000170545	0.000195136	0	0	0	
0.175	0.00166692	-0.0133943	0.000129229	0.000244365	0	0	0	
0.175167	-0.0047549	0.00257498	0.000129924	0.00024585	0	0	0	
0.175333	0.00726978	0.0023432	0.000175202	0.000182569	0	0	0	
0.1755	-0.00718733	0.00198114	0.000166524	9.99038E-05	0	0	0	
0.175667	0.00345116	-0.00472752	0.000152117	9.94593E-05	0	0	0	
0.175833	0.00373748	0.00478964	0.00011361	8.39786E-05	0	0	0	
0.176	-0.00341735	0.00130189	8.36643E-05	9.72267E-05	0	0	0	
0.176167	0.00146178	-0.00104363	7.55343E-05	8.83267E-05	0	0	0	
0.176333	0.00428679	-0.00389103	0.000105095	8.64679E-05	0	0	0	
0.1765	-0.00539153	0.00608523	0.000129176	7.83355E-05	0	0	0	
0.176667	0.00745322	-0.00334755	0.000145378	0.000114645	0	0	0	
0.176833	-0.0037531	0.00643241	0.00011915	0.000203334	0	0	0	
0.177	0.00255136	-0.00601414	0.000124472	0.000260428	0	0	0	
0.177167	0.00154122	-0.000832594	9.46635E-05	0.000247664	0	0	0	
0.177333	-0.000333199	0.00376703	8.74115E-05	0.0001812	0	0	0	
0.1775	-0.00919854	0.00193342	9.51669E-05	0.000123082	0	0	0	
0.177667	0.0100181	-0.0156745	0.000137042	0.000120255	0	0	0	
0.177833	-0.00253329	0.0247493	0.000164759	0.000214397	0	0	0	
0.178	-0.00467001	-0.0173475	0.000153042	0.000324591	0	0	0	
0.178167	0.000400655	0.00386079	0.000126062	0.000348668	0	0	0	
0.178333	0.00653331	-0.00229628	0.000163555	0.000251647	0	0	0	
0.1785	-0.011487	0.00175082	0.000205594	0.000135327	0	0	0	
0.178667	0.00793744	-0.00358975	0.000249977	8.57884E-05	0	0	0	
0.178833	-0.00934646	0.00744066	0.000235426	0.000110059	0	0	0	
0.179	0.0123897	-0.010801	0.000221479	0.000168804	0	0	0	
0.179167	-0.00447383	0.00868693	0.000197121	0.000230771	0	0	0	
0.179333	-0.00182934	-0.00281915	0.000142182	0.000204189	0	0	0	
0.1795	-0.00706999	0.00134561	0.000150511	0.000150318	0	0	0	
0.179667	0.011305	0.000226925	0.000180548	6.57045E-05	0	0	0	
0.179833	-0.00667757	0.00161898	0.000216515	7.24304E-05	0	0	0	
0.18	0.00380324	-0.00462535	0.000173917	9.65262E-05	0	0	0	
0.180167	-0.00878214	0.00658276	0.000142155	0.00014324	0	0	0	
0.180333	0.00497512	-0.00133347	0.000137776	0.000120843	0	0	0	
0.1805	0.000738446	0.000855304	0.000120852	0.00010265	0	0	0	
0.180667	0.000937129	0.00384535	0.000107444	7.74556E-05	0	0	0	
0.180833	-0.0112483	-0.00274277	0.000140443	7.39214E-05	0	0	0	
0.181	0.010414	0.00113695	0.000210589	7.50753E-05	0	0	0	
0.181167	-0.00913403	-0.00192058	0.000229707	7.437E-05	0	0	0	
0.181333	0.0015138	0.000142215	0.000184347	7.35662E-05	0	0	0	
0.1815	-0.0011483	-0.00462425	0.000121915	6.4328E-05	0	0	0	
0.181667	0.0049187	-0.00210558	0.000141157	5.09699E-05	0	0	0	
0.181833	-0.00933388	0.00182799	0.000178787	7.33193E-05	0	0	0	
0.182	0.000122318	0.00937651	0.000191388	0.000145761	0	0	0	
0.182167	-0.000361262	-0.0132657	0.000140828	0.000212085	0	0	0	
0.182333	0.0115653	-0.00253722	0.000156578	0.000217078	0	0	0	
0.1825	-0.0130771	0.0025482	0.000200576	0.000142623	0	0	0	
0.182667	-0.00206033	-0.0043075	0.000216008	0.000104486	0	0	0	
0.182833	0.0020568	0.00317298	0.0001481	8.04871E-05	0	0	0	
0.183	0.00175443	-0.0134156	9.87692E-05	0.000111531	0	0	0	
0.183167	-0.0051089	0.0181956	8.07678E-05	0.000192271	0	0	0	
0.183333	-0.000844921	-0.00951726	0.000103639	0.000318012	0	0	0	
0.1835	0.000781557	0.00197332	8.5878E-05	0.000366357	0	0	0	
0.183667	0.00169577	0.00261817	0.000131149	0.000306406	0	0	0	
0.183833	-0.00959904	-0.00437915	0.000152111	0.000187573	0	0	0	
0.184	0.00500052	-0.00177504	0.000190993	0.000112226	0	0	0	
0.184167	-0.00743397	0.0115854	0.000151203	0.000114098	0	0	0	
0.184333	0.00678471	-0.00376789	0.000145195	0.000217112	0	0	0	
0.1845	-0.0118607	0.00601626	0.000158946	0.000257003	0	0	0	
0.184667	0.00869543	-0.00954253	0.000193311	0.000232852	0	0	0	
0.184833	-0.00253002	0.00741321	0.000174626	0.00018964	0	0	0	
0.185	-0.00269944	0.00120157	0.00012674	0.000170916	0	0	0	
0.185167	-0.00259908	0.000372827	7.8604E-05	0.000147005	0	0	0	
0.185333	0.00603243	0.00269321	7.56666E-05	8.93982E-05	0	0	0	
0.1855	-0.00432	0.00559074	9.16614E-05	7.86282E-05	0	0	0	
0.185667	0.000902783	-0.00395584	0.000119559	0.000135807	0	0	0	
0.185833	-0.00776178	-0.00328354	0.000173291	0.000168135	0	0	0	
0.186	0.00898673	0.00598398	0.000223838	0.000157971	0	0	0	
0.186167	-0.00534825	-0.00368583	0.000226367	0.000126424	0	0	0	
0.186333	0.000811682	0.000701076	0.000163139	0.000106363	0	0	0	
0.1865	-0.00432895	0.00308005	9.06724E-05	0.000137535	0	0	0	
0.186667	0.00078657	-0.0211741	7.05884E-05	0.000159265	0	0	0	
0.186833	0.00139711	0.0245285	7.15309E-05	0.000271132	0	0	0	
0.187	-0.00359677	-0.0106857	9.15398E-05	0.000344878	0	0	0	
0.187167	-0.00131786	-0.00293525	0.000114557	0.000374194	0	0	0	
0.187333	0.0015927	0.00648147	0.000136733	0.000250964	0	0	0	
0.1875	-0.00766175	0.00523135	0.000178307	0.000195278	0	0	0	
0.187667	0.013306	-0.0114185	0.000220293	0.000211161	0	0	0	
0.187833	-0.010236	0.0135507	0.000243105	0.000311337	0	0	0	
0.188	0.00523503	-0.00561747	0.000212178	0.000345795	0	0	0	
0.188167	-0.00544611	0.00378717	0.000161526	0.00029243	0	0	0	
0.188333	0.00580055	0.00105574	0.000123177	0.000177672	0	0	0	
0.1885	-0.00106628	-0.00647349	0.000116511	9.01974E-05	0	0	0	
0.188667	0.00135428	0.0126812	0.000117949	0.000145596	0	0	0	
0.188833	-0.00828492	0.00213671	0.000151713	0.000264496	0	0	0	
0.189	0.0115619	-0.00530121	0.000176243	0.000332761	0	0	0	
0.189167	-0.0040734	0.00202557	0.000185202	0.000239351	0	0	0	
0.189333	0.00313071	0.000396098	0.000134836	0.000129908	0	0	0	
0.1895	-0.00396248	-0.00177351	0.000111088	5.03811E-05	0	0	0	
0.189667	0.00410806	0.00145162	7.09669E-05	6.2449E-05	0	0	0	
0.189833	-0.00106941	0.00533776	7.82134E-05	5.75722E-05	0	0	0	
0.19	0.000559311	-0.000594491	8.21665E-05	7.35297E-05	0	0	0	
0.190167	-0.00891986	-0.00143201	0.000170486	5.49648E-05	0	0	0	
0.190333	0.0101716	0.000886723	0.000227438	5.95412E-05	0	0	0	
0.1905	-0.00746818	-0.00100702	0.000244369	5.9512E-05	0	0	0	
0.190667	0.0093966	-0.000680437	0.000200485	6.35494E-05	0	0	0	
0.190833	-0.010547	0.00364466	0.000188901	8.05526E-05	0	0	0	
0.191	0.00725339	-0.00216517	0.000181706	0.000112083	0	0	0	
0.191167	-0.00557504	0.00270686	0.000176294	0.000134396	0	0	0	
0.191333	0.00443411	0.000728395	0.000193173	0.000108807	0	0	0	
0.1915	-0.0120689	-0.0051931	0.000243937	7.36272E-05	0	0	0	
0.191667	0.00655303	0.00117235	0.000269654	6.46116E-05	0	0	0	
0.191833	-0.00970751	0.000837192	0.000233843	0.000126849	0	0	0	
0.192	0.0089153	-0.00320081	0.000188967	0.000165982	0	0	0	
0.192167	-0.00616706	0.00158681	0.000186298	0.000178681	0	0	0	
0.192333	0.000371803	-0.00707286	0.000168435	0.000145008	0	0	0	
0.1925	0.00102828	0.005633	0.000132153	0.000127317	0	0	0	
0.192667	-0.00456509	0.00114833	0.000103134	0.000102215	0	0	0	
0.192833	-0.00811836	-0.0106323	0.000145822	9.4976E-05	0	0	0	
0.193	0.0131297	0.00673188	0.000226317	0.000101491	0	0	0	
0.193167	-0.0121424	-0.00292109	0.000281215	0.000142892	0	0	0	
0.193333	0.00984868	-0.00435605	0.000276773	0.000185719	0	0	0	
0.1935	-0.0114547	1.76122E-05	0.000245323	0.000224533	0	0	0	
0.193667	0.00908611	-0.00394666	0.00020786	0.000221756	0	0	0	
0.193833	-0.00220156	0.00134844	0.000179867	0.000180945	0	0	0	
0.194	6.36694E-05	-0.00716578	0.000140358	0.000134445	0	0	0	
0.194167	-0.00452755	0.00727629	0.000148694	0.000158938	0	0	0	
0.194333	0.0060944	-0.003756	0.000182613	0.000155251	0	0	0	
0.1945	-0.0101015	-0.00674865	0.000215235	0.000135695	0	0	0	
0.194667	0.0105405	0.00467977	0.000211443	9.39278E-05	0	0	0	
0.194833	-0.00544766	0.000472687	0.000186309	9.78431E-05	0	0	0	
0.195	0.00270106	-0.00343889	0.000163334	0.00010367	0	0	0	
0.195167	-0.0110942	-0.00017707	0.000157222	8.40346E-05	0	0	0	
0.195333	0.00689194	-0.000477371	0.000166492	6.61658E-05	0	0	0	
0.1955	0.00104298	0.00571045	0.000142314	8.89956E-05	0	0	0	
0.195667	0.00129084	-0.00449446	0.000115674	0.000118569	0	0	0	
0.195833	-0.00601362	-0.0003412	0.000136466	0.000117111	0	0	0	
0.196	0.00676654	0.00471708	0.000168288	8.48068E-05	0	0	0	
0.196167	-0.00537215	-0.00490671	0.000174822	0.000134584	0	0	0	
0.196333	0.00224012	-0.00968266	0.000131734	0.000203194	0	0	0	
0.1965	-0.00537362	0.00741452	0.000130514	0.000244545	0	0	0	
0.196667	0.00333918	0.00183636	0.000133303	0.000175652	0	0	0	
0.196833	-0.00016809	0.000732426	0.000138044	0.000121094	0	0	0	
0.197	0.00346236	0.00340098	0.000179795	9.29754E-05	0	0	0	
0.197167	-0.00715566	-0.00366318	0.000225148	9.44569E-05	0	0	0	
0.197333	0.00262778	0.00477791	0.000220538	0.000101445	0	0	0	
0.1975	-6.246E-05	0.00182006	0.000141993	0.00010987	0	0	0	
0.197667	0.00442096	-0.00645004	7.96036E-05	0.000125494	0	0	0	
0.197833	-0.0100132	0.00511324	9.59661E-05	0.000133505	0	0	0	
0.198	0.00664967	-0.00107354	0.000132179	0.000110465	0	0	0	
0.198167	-0.00308589	-0.00426877	0.000140334	7.67326E-05	0	0	0	
0.198333	0.00609848	0.0126222	0.000135801	0.000117932	0	0	0	
0.1985	-0.0111558	0.00688475	0.000147974	0.00015253	0	0	0	
0.198667	0.00936495	-0.00275493	0.000180675	0.000194527	0	0	0	
0.198833	-0.00545341	-0.00288152	0.000178763	0.000141553	0	0	0	
0.199	0.00340721	-0.00345641	0.000170764	0.000124576	0	0	0	
0.199167	-0.00318054	-0.000640116	0.000171995	9.2057E-05	0	0	0	
0.199333	0.00228777	0.0114764	0.000176628	0.000104678	0	0	0	
0.1995	-0.0019899	-0.0025831	0.000179678	0.000135067	0	0	0	
0.199667	0.0108025	-0.00021585	0.000177577	0.000127758	0	0	0	
0.199833	-0.0143835	0.00305738	0.000211465	9.92274E-05	0	0	0	
0.2	0.00854052	-0.00288256	0.00023034	5.30848E-05	0	0	0	
0.200167	-0.00369126	0.00259083	0.000200603	5.64837E-05	0	0	0	
0.200333	0.00502274	-0.00293448	0.000148112	5.87516E-05	0	0	0	
0.2005	-0.00347563	0.00428286	0.000102648	6.88146E-05	0	0	0	
0.200667	0.00316961	-9.55431E-05	9.23768E-05	8.11496E-05	0	0	0	
0.200833	-0.013298	0.0050063	0.000127571	0.000136773	0	0	0	
0.201	0.0154347	-0.0105755	0.00019601	0.000196852	0	0	0	
0.201167	-0.00452848	0.00776714	0.000235689	0.000231439	0	0	0	
0.201333	-0.00573857	-0.00102647	0.000224698	0.0001835	0	0	0	
0.2015	-0.000986688	0.00280128	0.000163362	0.000101435	0	0	0	
0.201667	0.0138544	-0.00230372	0.000171955	6.43861E-05	0	0	0	
0.201833	-0.0133083	-0.00312482	0.000191323	5.33024E-05	0	0	0	
0.202	0.00377171	0.00444285	0.000223421	8.25811E-05	0	0	0	
0.202167	-0.00786729	0.0028262	0.000210698	9.64294E-05	0	0	0	
0.202333	0.00851274	-0.000905033	0.000189147	0.000107699	0	0	0	
0.2025	-0.00241657	0.000962645	0.000155044	8.06653E-05	0	0	0	
0.202667	0.00468887	-0.000539223	0.000127327	4.92877E-05	0	0	0	
0.202833	-0.00536595	-0.00153924	0.000130764	3.24472E-05	0	0	0	
0.203	0.00614661	-0.00294533	0.000169784	3.68475E-05	0	0	0	
0.203167	-0.0103617	0.00599891	0.000206358	5.20233E-05	0	0	0	
0.203333	0.0116232	-0.00126149	0.000219728	6.94752E-05	0	0	0	
0.2035	-0.00353041	0.00165078	0.000192082	6.736E-05	0	0	0	
0.203667	0.000930964	-0.00201312	0.00014382	5.1064E-05	0	0	0	
0.203833	-0.0020652	0.0121231	0.00011327	7.40095E-05	0	0	0	
0.204	0.0111365	-0.0104775	0.000136472	0.000134958	0	0	0	
0.204167	-0.00628183	0.00364409	0.000170343	0.000158954	0	0	0	
0.204333	0.00428652	-0.00379776	0.000164163	0.000148564	0	0	0	
0.2045	-0.00431796	0.0018454	0.000132934	8.9482E-05	0	0	0	
0.204667	0.00353216	-0.00316749	0.000104535	7.34993E-05	0	0	0	
0.204833	0.00167455	0.00571103	8.42649E-05	6.15123E-05	0	0	0	
0.205	0.00113696	0.000368923	9.09247E-05	6.37337E-05	0	0	0	
0.205167	-0.00155093	0.00225965	0.000137766	6.07336E-05	0	0	0	
0.205333	0.00940192	-0.00555517	0.000189912	6.61729E-05	0	0	0	
0.2055	-0.00880128	0.00221779	0.000221608	7.71813E-05	0	0	0	
0.205667	0.0103391	-0.0023198	0.000201242	7.65322E-05	0	0	0	
0.205833	-0.00281775	0.00326932	0.000174495	5.73532E-05	0	0	0	
0.206	0.000320831	-0.00688843	0.000111391	6.69624E-05	0	0	0	
0.206167	-0.00335979	0.0109309	8.65637E-05	0.000114201	0	0	0	
0.206333	0.00858204	-0.013163	8.20336E-05	0.000184689	0	0	0	
0.2065	-0.00415619	0.0121419	0.000114073	0.000249228	0	0	0	
0.206667	0.00325081	-0.00521394	0.000109077	0.000237004	0	0	0	
0.206833	-0.00218932	0.00110502	0.000110672	0.000170449	0	0	0	
0.207	0.00836348	-0.00210707	0.000126297	9.25995E-05	0	0	0	
0.207167	-0.0140046	0.000854314	0.00017899	0.000103081	0	0	0	
0.207333	0.00666345	-0.00543646	0.000205781	0.000167895	0	0	0	
0.2075	-0.00763577	0.00445251	0.000195459	0.000237586	0	0	0	
0.207667	0.00642705	-0.00325618	0.00016021	0.000227345	0	0	0	
0.207833	0.00187797	0.000342787	0.000137433	0.000154965	0	0	0	
0.208	-0.00749648	-0.000838193	0.000126526	6.73828E-05	0	0	0	
0.208167	-0.00285346	0.00149013	0.000161597	4.66712E-05	0	0	0	
0.208333	0.0164478	-0.00244159	0.000255524	7.12224E-05	0	0	0	
0.2085	-0.0160129	0.00214172	0.000331427	0.000102795	0	0	0	
0.208667	0.0102946	-0.00539355	0.000332795	0.000135207	0	0	0	
0.208833	-0.00972471	0.00837154	0.000251979	0.000158488	0	0	0	
0.209	0.00867517	-0.00398807	0.000198625	0.000158321	0	0	0	
0.209167	-7.22777E-05	-0.00234694	0.000160431	0.000171092	0	0	0	
0.209333	-0.000954393	0.00197731	0.000107416	0.000131885	0	0	0	
0.2095	0.00447538	0.00970604	0.000130013	0.000196071	0	0	0	
0.209667	0.0115767	-0.00717269	0.00019185	0.000207052	0	0	0	
0.209833	-0.0186053	0.00276307	0.000286038	0.000212838	0	0	0	
0.21	0.009145	-0.00713834	0.000284896	0.000150674	0	0	0	
0.210167	-0.000519754	0.0214219	0.000233907	0.00014465	0	0	0	
0.210333	0.00297243	-0.0198847	0.000150971	0.000303932	0	0	0	
0.2105	-0.0046894	-0.00729804	0.000127142	0.000329154	0	0	0	
0.210667	0.00859196	-0.00030469	0.000116838	0.00030787	0	0	0	
0.210833	-0.0128591	0.00510266	0.000175198	0.000168171	0	0	0	
0.211	0.0175215	-0.00521762	0.0002094	0.00014226	0	0	0	
0.211167	-0.0166047	0.00703421	0.000275886	0.000141075	0	0	0	
0.211333	0.0080977	-0.00959904	0.000270657	0.000200092	0	0	0	
0.2115	-0.00119536	0.0067596	0.000225677	0.000267103	0	0	0	
0.211667	0.000948792	-0.01763	0.000165715	0.000267526	0	0	0	
0.211833	-0.00280379	0.00585249	0.000142386	0.000259787	0	0	0	
0.212	0.0124603	-0.000101153	0.000152418	0.00017849	0	0	0	
0.212167	-0.00907919	-0.00160723	0.000180329	0.000130836	0	0	0	
0.212333	0.00919932	-0.000339456	0.000197458	5.88375E-05	0	0	0	
0.2125	-0.0112248	-0.00302875	0.000213769	9.87906E-05	0	0	0	
0.212667	0.0119017	-0.00180943	0.000198629	0.000178918	0	0	0	
0.212833	-0.00358408	0.00736955	0.00017941	0.000243716	0	0	0	
0.213	0.00790712	-0.0120324	0.000163198	0.000247213	0	0	0	
0.213167	-0.00819783	0.0073049	0.000160955	0.000208717	0	0	0	
0.213333	0.00743943	-0.00573233	0.000178657	0.000183047	0	0	0	
0.2135	-0.00578649	-0.000438365	0.000182953	0.000137545	0	0	0	
0.213667	0.00962843	-0.00155258	0.000215572	9.68972E-05	0	0	0	
0.213833	-0.0114251	-0.000597503	0.000251313	4.87934E-05	0	0	0	
0.214	0.00673123	0.00171699	0.000246467	4.35386E-05	0	0	0	
0.214167	-0.00119271	-0.00126204	0.000194363	5.5897E-05	0	0	0	
0.214333	0.000481665	-0.000893738	0.000113263	5.92958E-05	0	0	0	
0.2145	-0.00692614	0.00309722	0.000110932	6.51807E-05	0	0	0	
0.214667	0.00880689	-0.00549609	0.000127264	7.32156E-05	0	0	0	
0.214833	-0.00544852	0.00427608	0.000155627	0.000100654	0	0	0	
0.215	0.00540562	0.000783205	0.000147504	0.000136251	0	0	0	
0.215167	-0.0068671	0.00230348	0.000128728	0.000162535	0	0	0	
0.215333	0.00611781	-0.00471969	0.000127543	0.000146989	0	0	0	
0.2155	-0.00164342	0.00086711	0.000112538	0.000106597	0	0	0	
0.215667	-0.00498582	0.0075477	0.000105621	9.09286E-05	0	0	0	
0.215833	-0.00136998	-0.00516367	0.000145989	0.000107814	0	0	0	
0.216	0.00567361	0.00496985	0.000223785	0.000119387	0	0	0	
0.216167	-0.00993506	-0.00785551	0.000264283	0.000133551	0	0	0	
0.216333	0.00816986	0.00628181	0.000255515	0.000139311	0	0	0	
0.2165	-0.0110801	0.000152468	0.000211295	0.000134042	0	0	0	
0.216667	0.00342306	-0.00602327	0.000186644	9.34676E-05	0	0	0	
0.216833	-0.000612803	0.0105611	0.000144113	0.000135886	0	0	0	
0.217	0.000230172	0.00098149	9.50619E-05	0.000207611	0	0	0	
0.217167	-0.00726312	-0.0058228	8.26487E-05	0.000240192	0	0	0	
0.217333	0.00411582	-0.00206097	9.07785E-05	0.000164392	0	0	0	
0.2175	-0.00203161	0.00480623	9.81275E-05	9.88448E-05	0	0	0	
0.217667	0.00020625	-0.00364968	8.22435E-05	7.30264E-05	0	0	0	
0.217833	-0.00321196	0.0050749	6.54823E-05	8.39343E-05	0	0	0	
0.218	0.00765583	-0.00389676	8.58901E-05	8.35585E-05	0	0	0	
0.218167	-0.00613603	0.00287875	0.000111867	7.66763E-05	0	0	0	
0.218333	0.00682198	-0.00699067	0.000143606	9.7424E-05	0	0	0	
0.2185	-0.00769716	2.03054E-05	0.000157531	8.96446E-05	0	0	0	
0.218667	0.00807887	0.00105088	0.000152708	8.64017E-05	0	0	0	
0.218833	-0.00396891	0.00369485	0.000143017	4.88073E-05	0	0	0	
0.219	0.00687355	-0.00692765	0.000131599	6.93207E-05	0	0	0	
0.219167	-0.010243	-0.00268492	0.000176886	7.94344E-05	0	0	0	
0.219333	0.0114614	0.00174666	0.000210102	7.96604E-05	0	0	0	
0.2195	-0.00712193	0.00307478	0.000215242	7.46454E-05	0	0	0	
0.219667	0.00532484	-0.00306459	0.000169056	8.15741E-05	0	0	0	
0.219833	-0.00306771	0.00184324	0.000120302	8.53727E-05	0	0	0	
0.22	0.00347066	-0.00476581	9.4226E-05	7.23728E-05	0	0	0	
0.220167	-0.00651589	0.00805516	9.75871E-05	0.000108341	0	0	0	
0.220333	0.00394816	-0.00803038	0.00011407	0.000146881	0	0	0	
0.2205	-0.00104003	0.0101636	0.000114795	0.000187178	0	0	0	
0.220667	0.00820171	-0.000111499	0.000136566	0.000153084	0	0	0	
0.220833	-0.0122729	0.000305322	0.000163718	0.000105389	0	0	0	
0.221	0.00858586	0.000816685	0.000207019	5.22545E-05	0	0	0	
0.221167	-0.00609067	-0.00333051	0.000198532	3.59358E-05	0	0	0	
0.221333	0.0135888	0.00270023	0.000201652	7.24399E-05	0	0	0	
0.2215	-0.00626622	0.0058266	0.000184103	0.000141501	0	0	0	
0.221667	-0.00175592	-0.00251817	0.000169243	0.000187588	0	0	0	
0.221833	-0.00313601	0.00706321	0.000154466	0.00017301	0	0	0	
0.222	0.0201991	-0.00744959	0.000239403	0.00013576	0	0	0	
0.222167	-0.0110985	-0.0011253	0.000288701	0.000156345	0	0	0	
0.222333	-0.0495386	0.018881	0.000546904	0.000278716	0	0	0	
0.2225	-0.0447034	-0.0839202	0.00116742	0.00101037	0	0	0	
0.222667	0.00324458	0.02373	0.00143738	0.0011266	0	0	0	
0.222833	-0.00861617	0.0135587	0.00115906	0.00123614	0	0	0	
0.223	0.0109785	-0.00788094	0.000491903	0.000581997	0	0	0	
0.223167	-0.0112786	0.00381586	0.00024203	0.00041691	0	0	0	
0.223333	-0.00897888	0.0307973	0.000343148	0.000374966	0	0	0	
0.2235	0.00166248	-0.00615669	0.00034405	0.00055162	0	0	0	
0.223667	0.00282638	-0.0178492	0.000295771	0.000742321	0	0	0	
0.223833	-0.00744705	0.0186267	0.000196517	0.000638998	0	0	0	
0.224	0.0023052	-0.010338	0.000147283	0.000423041	0	0	0	
0.224167	-1.42442E-05	0.00185911	0.000127982	0.000265381	0	0	0	
0.224333	0.00457557	-0.00549487	0.000187718	0.000202028	0	0	0	
0.2245	-0.00878421	0.00756735	0.000293884	0.000155649	0	0	0	
0.224667	0.0119335	-0.00923676	0.000370029	0.000165337	0	0	0	
0.224833	-0.0183517	0.00507534	0.000404676	0.000171945	0	0	0	
0.225	0.0117404	-0.00834671	0.000366965	0.000213051	0	0	0	
0.225167	-0.00825409	0.00482788	0.000307594	0.000216794	0	0	0	
0.225333	-0.00151665	-0.00953384	0.000203459	0.000207878	0	0	0	
0.2255	-0.0038197	0.0132348	0.000131387	0.000223974	0	0	0	
0.225667	0.00257649	-0.0121224	0.000164258	0.000240816	0	0	0	
0.225833	-0.00551186	0.00380992	0.000229674	0.000236406	0	0	0	
0.226	0.00135349	0.00440695	0.000276865	0.00017386	0	0	0	
0.226167	-0.0134374	-0.00625841	0.000258667	0.000114881	0	0	0	
0.226333	0.0155313	0.00218153	0.000248611	0.000145084	0	0	0	
0.2265	-0.0097325	0.00412988	0.000242274	0.000229406	0	0	0	
0.226667	0.00519697	-0.00316228	0.000222931	0.000277317	0	0	0	
0.226833	-0.00835016	0.00922931	0.000181603	0.000255279	0	0	0	
0.227	0.0057486	-0.0188555	0.000143722	0.000245251	0	0	0	
0.227167	-0.000845015	0.0152426	0.000149358	0.000270707	0	0	0	
0.227333	-0.00229486	-0.000807971	0.000140767	0.000260511	0	0	0	
0.2275	-0.0059464	-0.00473589	0.000143544	0.000223069	0	0	0	
0.227667	0.0060881	0.0125528	0.000163744	0.000191756	0	0	0	
0.227833	-0.00889428	-0.0127853	0.000252889	0.000200764	0	0	0	
0.228	0.0168195	0.00566041	0.000354614	0.000215393	0	0	0	
0.228167	-0.0152673	-0.00704788	0.000363364	0.000230788	0	0	0	
0.228333	0.0120537	-0.00220272	0.000349032	0.000212757	0	0	0	
0.2285	-0.0143769	0.00713813	0.000269531	0.000160296	0	0	0	
0.228667	0.0081362	-0.00636069	0.000296128	0.000118452	0	0	0	
0.228833	0.00016613	0.000172721	0.000240208	0.000117107	0	0	0	
0.229	0.00230782	0.00273105	0.000225199	0.000131767	0	0	0	
0.229167	-0.00290369	-0.00114857	0.000151031	0.000114844	0	0	0	
0.229333	0.00750284	-0.00742321	0.000155001	0.000108132	0	0	0	
0.2295	-0.0119734	0.00960234	0.000182978	0.000163069	0	0	0	
0.229667	0.00993349	-0.0151373	0.000209202	0.000196464	0	0	0	
0.229833	0.000342437	0.00528585	0.000194663	0.000234814	0	0	0	
0.23	-0.000834669	0.000731505	0.000144561	0.000187843	0	0	0	
0.230167	-0.00359358	0.00549642	0.000132213	0.000143137	0	0	0	
0.230333	-0.0136983	-0.011067	0.000124951	0.000162562	0	0	0	
0.2305	0.0214213	0.0150747	0.00020156	0.000204868	0	0	0	
0.230667	0.0840061	0.0956677	0.000722331	0.000807895	0	0	0	
0.230833	0.188438	0.205143	0.00272067	0.00296561	0	0	0	
0.231	-0.00750881	0.0446296	0.00356433	0.00404842	0	0	0	
0.231167	-0.0153331	-0.0567626	0.00315689	0.00374603	0	0	0	
0.231333	-0.00863991	-0.0101375	0.00124664	0.00184168	0	0	0	
0.2315	0.0292152	0.0656622	0.00051609	0.000964345	0	0	0	
0.231667	-0.0569944	-0.0579992	0.00058746	0.000932467	0	0	0	
0.231833	0.441188	0.491418	0.00157715	0.00198025	0	0	0	
0.232	-0.0685852	-0.0996365	0.00331265	0.00403133	0	0	0	
0.232167	0.00365579	0.0373999	0.00320883	0.00429417	0	0	0	
0.232333	0.0221592	0.000873133	0.00220761	0.00338705	0	0	0	
0.2325	-0.0170524	-0.00645341	0.000395105	0.00119857	0	0	0	
0.232667	-0.000124975	0.0210632	0.000425905	0.000924345	0	0	0	
0.232833	0.00591046	0.0397892	0.000350639	0.00063145	0	0	0	
0.233	-0.00854473	-0.022295	0.000312403	0.000670157	0	0	0	
0.233167	0.000803229	0.015733	0.000286911	0.00055499	0	0	0	
0.233333	0.010282	0.00478415	0.000385104	0.000448421	0	0	0	
0.2335	-0.0135021	0.0121979	0.000375408	0.000313976	0	0	0	
0.233667	0.00670904	-0.0168916	0.000297816	0.000249055	0	0	0	
0.233833	-0.00423668	0.00519697	0.000190216	0.000204143	0	0	0	
0.234	0.00704053	-0.00369523	0.000153713	0.00018094	0	0	0	
0.234167	-0.00735108	0.0115178	0.000135977	0.000149483	0	0	0	
0.234333	0.00621573	0.00903109	0.000146913	0.000178462	0	0	0	
0.2345	-0.00456075	-0.00536781	0.000134345	0.000225231	0	0	0	
0.234667	0.0063883	0.00846339	0.000146236	0.000179848	0	0	0	
0.234833	-0.00660379	-0.0159089	0.000162024	0.000244485	0	0	0	
0.235	0.00542034	0.00187616	0.000170455	0.00023541	0	0	0	
0.235167	-0.00242929	0.000718722	0.000150332	0.000217572	0	0	0	
0.235333	0.00626918	0.00855613	0.000139111	0.000112977	0	0	0	
0.2355	-0.0047768	-0.00111856	0.000147988	9.35367E-05	0	0	0	
0.235667	0.00355823	-0.00315526	0.000146173	0.000125713	0	0	0	
0.235833	-0.00255089	-0.00283779	0.000136439	0.000122304	0	0	0	
0.236	0.00623889	-0.00424851	0.000133051	7.69702E-05	0	0	0	
0.236167	-0.00610439	0.009949	0.000161025	8.36638E-05	0	0	0	
0.236333	0.00807904	-0.00739976	0.00017797	0.000118344	0	0	0	
0.2365	-0.00921494	0.00618594	0.000172872	0.000182338	0	0	0	
0.236667	0.00831171	-0.00923338	0.00016842	0.000232068	0	0	0	
0.236833	-0.00104182	0.0101195	0.000168322	0.000246295	0	0	0	
0.237	-0.00211186	-0.0116016	0.00015077	0.000233852	0	0	0	
0.237167	0.00426085	0.010889	0.000105583	0.000218385	0	0	0	
0.237333	-0.0050652	-0.0017054	7.92717E-05	0.000244682	0	0	0	
0.2375	0.00660596	-0.0113797	9.50644E-05	0.000254395	0	0	0	
0.237667	-0.016473	0.032321	0.000208406	0.000315739	0	0	0	
0.237833	0.0101298	-0.0282528	0.000356142	0.000531015	0	0	0	
0.238	0.00478969	-0.0119602	0.000446984	0.000689986	0	0	0	
0.238167	-0.0133915	0.0221909	0.000387468	0.00071229	0	0	0	
0.238333	0.0031321	-0.0177433	0.000259139	0.000500381	0	0	0	
0.2385	-0.000860547	0.00911727	0.000139441	0.000415762	0	0	0	
0.238667	-0.00181072	0.0211493	9.60511E-05	0.000403845	0	0	0	
0.238833	0.00385377	-0.0309976	0.000136548	0.000581479	0	0	0	
0.239	-0.00660705	0.00412128	0.000244019	0.000596055	0	0	0	
0.239167	-0.0037957	0.000898284	0.00026421	0.000528566	0	0	0	
0.239333	0.00491606	-0.0166054	0.000228872	0.000383364	0	0	0	
0.2395	-0.00232839	0.0208917	0.000125287	0.00033288	0	0	0	
0.239667	-0.00587385	-0.00595365	0.000102508	0.000325164	0	0	0	
0.239833	0.00542224	-2.76145E-05	9.46924E-05	0.000264343	0	0	0	
0.24	0.00461524	0.00118752	0.000174228	0.000202032	0	0	0	
0.240167	-0.0125005	-0.00354686	0.000273815	0.000135107	0	0	0	
0.240333	0.011582	0.00388174	0.000309685	0.000121082	0	0	0	
0.2405	-0.00519547	-0.00313408	0.000260108	0.000135851	0	0	0	
0.240667	0.00113775	-0.000835172	0.000160579	0.000162195	0	0	0	
0.240833	-0.00570863	0.00172961	0.000132501	0.000123408	0	0	0	
0.241	0.00432161	-0.0044674	0.000120862	6.34066E-05	0	0	0	
0.241167	-0.00196252	0.00232597	0.00012035	6.04832E-05	0	0	0	
0.241333	0.00339416	-0.00184762	0.000101951	7.89205E-05	0	0	0	
0.2415	-0.00892429	-0.000567609	0.000110135	9.27866E-05	0	0	0	
0.241667	0.00514494	0.0016325	0.000134912	7.5275E-05	0	0	0	
0.241833	-0.00017293	0.00117533	0.000115741	5.67244E-05	0	0	0	
0.242	0.00146719	-0.00168175	9.97778E-05	6.90506E-05	0	0	0	
0.242167	-0.00867042	-0.00349834	0.000120359	9.97761E-05	0	0	0	
0.242333	0.00911791	0.00287274	0.000178924	0.000112981	0	0	0	
0.2425	-0.00836721	0.000275184	0.000207759	0.000134926	0	0	0	
0.242667	0.0176173	-0.0153779	0.000245358	0.000235515	0	0	0	
0.242833	-0.0218402	0.018757	0.000312849	0.00039828	0	0	0	
0.243	0.0168453	-0.0113833	0.00037902	0.000433144	0	0	0	
0.243167	-0.00216214	0.00851625	0.000327773	0.000372144	0	0	0	
0.243333	0.00300424	-0.00255435	0.000212501	0.000258179	0	0	0	
0.2435	-0.00715037	0.000581158	0.000140846	0.00022283	0	0	0	
0.243667	0.00442074	0.00696223	0.000129755	0.000176604	0	0	0	
0.243833	0.00478116	-0.0195504	0.000151468	0.000180613	0	0	0	
0.244	-0.00176843	0.0132122	0.000220997	0.0002644	0	0	0	
0.244167	-0.00665987	0.00530301	0.000335132	0.000270472	0	0	0	
0.244333	0.011594	-0.00443656	0.000386546	0.000234551	0	0	0	
0.2445	-0.0134993	0.000543659	0.000369022	0.000131154	0	0	0	
0.244667	0.0206585	-0.00124513	0.00030477	0.000139107	0	0	0	
0.244833	-0.024331	0.00515397	0.000338071	0.000163835	0	0	0	
0.245	0.0194558	-0.00773877	0.000392112	0.00020912	0	0	0	
0.245167	-0.00281159	0.00567604	0.000381588	0.000212841	0	0	0	
0.245333	-0.00761819	-0.00229027	0.000273803	0.000166201	0	0	0	
0.2455	0.00449675	-0.0099465	0.000155149	0.00011452	0	0	0	
0.245667	0.00555192	-0.000336294	0.000180185	0.000135471	0	0	0	
0.245833	-0.0177917	-0.00290247	0.00029471	0.000136989	0	0	0	
0.246	0.0212833	0.0114586	0.000409099	0.000162425	0	0	0	
0.246167	-0.00772026	-0.00687552	0.000419695	0.000144695	0	0	0	
0.246333	0.00711154	0.000997522	0.000336651	0.000160729	0	0	0	
0.2465	-0.00950018	0.00184367	0.000228843	0.000142844	0	0	0	
0.246667	0.00829615	-0.0102521	0.000170952	0.000114849	0	0	0	
0.246833	-0.00594602	0.00182459	0.00015866	0.000134496	0	0	0	
0.247	0.00799208	0.0029792	0.000164403	0.00012949	0	0	0	
0.247167	-0.011538	0.00128714	0.000171243	0.000111616	0	0	0	
0.247333	0.0072554	0.00416054	0.000189799	6.11118E-05	0	0	0	
0.2475	-0.00521009	-0.00665803	0.000169603	7.47704E-05	0	0	0	
0.247667	0.0080889	0.0050254	0.00015706	0.00013648	0	0	0	
0.247833	-0.00997002	0.00904707	0.000143982	0.000192227	0	0	0	
0.248	-0.000529672	-0.0137707	0.000161963	0.000210696	0	0	0	
0.248167	0.00580901	0.0113437	0.000142066	0.000245488	0	0	0	
0.248333	-0.00307804	-0.000808167	0.000147688	0.000277014	0	0	0	
0.2485	-0.00383678	-0.00607023	0.000187752	0.000298656	0	0	0	
0.248667	0.0115828	0.0107982	0.000268014	0.000253336	0	0	0	
0.248833	-0.019955	-0.00899258	0.000341476	0.000202499	0	0	0	
0.249	0.0170625	0.00323288	0.000359253	0.0001916	0	0	0	
0.249167	-0.010954	0.0113802	0.000343434	0.000237432	0	0	0	
0.249333	0.0030904	-0.0136459	0.000285743	0.000310184	0	0	0	
0.2495	4.59831E-05	0.0156831	0.000217048	0.000329064	0	0	0	
0.249667	-0.00484866	-0.00612843	0.000132921	0.000272347	0	0	0	
0.249833	0.00209679	0.00565426	0.000117008	0.000211143	0	0	0	
0.25	0.0062577	0.00102255	0.000176277	0.000168923	0	0	0	
0.250167	-0.0138724	-0.00718469	0.000263372	0.000158981	0	0	0	
0.250333	0.0118749	0.00833508	0.000298401	0.00013334	0	0	0	
0.2505	-0.0116965	-0.00596195	0.00026724	0.000143875	0	0	0	
0.250667	0.00682187	0.00721637	0.000224968	0.000152105	0	0	0	
0.250833	-0.00739911	0.00142556	0.000179968	0.000154302	0	0	0	
0.251	0.0107861	-0.000555118	0.000172571	0.000147239	0	0	0	
0.251167	-0.00485517	0.000933217	0.000158861	0.000111611	0	0	0	
0.251333	-0.000934223	0.000328433	0.000134124	8.40096E-05	0	0	0	
0.2515	-0.00244166	-0.0035847	0.000109205	5.23728E-05	0	0	0	
0.251667	0.0114565	0.00152554	0.000156125	4.53213E-05	0	0	0	
0.251833	-0.0109387	0.00233858	0.000207853	5.42767E-05	0	0	0	
0.252	0.00163304	-0.0016582	0.000213094	5.80795E-05	0	0	0	
0.252167	-0.00626057	0.0105275	0.000210986	0.00014073	0	0	0	
0.252333	0.068771	-0.0285768	0.000449447	0.000244503	0	0	0	
0.2525	-0.0588546	0.133734	0.00128718	0.00090595	0	0	0	
0.252667	0.0120294	-0.0218339	0.00160825	0.00110836	0	0	0	
0.252833	-0.00363455	-0.00823525	0.00135826	0.00127097	0	0	0	
0.253	-0.000753551	0.0106283	0.00049093	0.000691284	0	0	0	
0.253167	0.00171435	-0.00132791	0.000107228	0.000445212	0	0	0	
0.253333	0.0330055	-0.0151156	0.000148909	0.000278831	0	0	0	
0.2535	-0.0236714	0.00955103	0.000317929	0.000374205	0	0	0	
0.253667	0.0145621	0.0034677	0.000420485	0.000446494	0	0	0	
0.253833	-0.004162	0.00167679	0.00038216	0.000350498	0	0	0	
0.254	0.00853786	-0.0037784	0.000246429	0.00019746	0	0	0	
0.254167	-0.00687057	0.000529917	0.000174342	8.41411E-05	0	0	0	
0.254333	0.00850284	0.012391	0.000159326	0.000120909	0	0	0	
0.2545	-0.0019444	-0.0175256	0.00013987	0.000177654	0	0	0	
0.254667	0.00316885	0.00190698	0.000100317	0.000239884	0	0	0	
0.254833	-0.00603361	0.0108114	9.0988E-05	0.000245838	0	0	0	
0.255	0.000318176	-0.0102656	9.18191E-05	0.000205649	0	0	0	
0.255167	0.00488862	0.00208735	8.47945E-05	0.000191516	0	0	0	
0.255333	0.00312856	-0.000384532	9.58047E-05	0.000157145	0	0	0	
0.2555	-0.00790314	0.00626805	0.000143862	0.000102643	0	0	0	
0.255667	0.0117258	-0.012345	0.000204918	0.000120555	0	0	0	
0.255833	-0.0072641	0.0113804	0.000212035	0.000152384	0	0	0	
0.256	0.00517166	-0.0147782	0.000178474	0.000238128	0	0	0	
0.256167	-0.00130201	0.00744714	0.000132547	0.000226919	0	0	0	
0.256333	0.00196545	-0.00128099	8.63885E-05	0.000202853	0	0	0	
0.2565	-0.00191266	-0.00268389	7.18009E-05	0.000128077	0	0	0	
0.256667	0.00717893	-0.00446758	9.29907E-05	8.38651E-05	0	0	0	
0.256833	-0.00555053	0.000644357	0.000121362	7.98714E-05	0	0	0	
0.257	0.000345205	-0.0012155	0.000111252	7.30965E-05	0	0	0	
0.257167	0.00136507	-0.00652396	8.9498E-05	9.20437E-05	0	0	0	
0.257333	0.00623282	0.00248608	0.00010507	8.12348E-05	0	0	0	
0.2575	-0.0059887	0.00294874	0.000119215	8.38449E-05	0	0	0	
0.257667	-0.00239008	-0.00459346	0.000130725	6.68526E-05	0	0	0	
0.257833	-0.00170501	0.00460681	8.9074E-05	8.07605E-05	0	0	0	
0.258	0.00249241	-0.0120442	9.78723E-05	0.000153723	0	0	0	
0.258167	-0.00500625	0.00407088	7.16104E-05	0.000213637	0	0	0	
0.258333	0.002154	-0.0011246	9.41618E-05	0.000228998	0	0	0	
0.2585	-0.00525792	0.000473364	7.20311E-05	0.000159897	0	0	0	
0.258667	0.00455773	-0.00326954	0.000104457	9.88452E-05	0	0	0	
0.258833	-0.00703323	0.0112198	0.000110299	9.26268E-05	0	0	0	
0.259	-0.000680828	-0.0134851	0.000111206	0.000172897	0	0	0	
0.259167	-0.00481744	0.00353989	8.7776E-05	0.000205152	0	0	0	
0.259333	0.00984591	0.00263687	0.000103853	0.000184962	0	0	0	
0.2595	-0.0106243	-0.000470619	0.000142997	9.60238E-05	0	0	0	
0.259667	0.00126134	-0.00229081	0.000162073	5.50658E-05	0	0	0	
0.259833	-0.00274378	0.00423464	0.000138064	4.73517E-05	0	0	0	
0.26	0.00349323	-0.00503741	0.000101074	5.59681E-05	0	0	0	
0.260167	-0.00579624	0.00204335	9.32206E-05	6.71204E-05	0	0	0	
0.260333	0.00476127	-0.00264079	0.000103359	8.28012E-05	0	0	0	
0.2605	-0.00840579	0.00136583	0.000131954	7.54727E-05	0	0	0	
0.260667	0.00820359	-0.00354809	0.000150041	7.94083E-05	0	0	0	
0.260833	-0.00842144	0.00463444	0.00016034	7.3855E-05	0	0	0	
0.261	0.00465278	-0.00818004	0.000158719	9.60131E-05	0	0	0	
0.261167	-0.00595613	0.00604623	0.000147522	0.000120034	0	0	0	
0.261333	0.00390696	-0.00576353	0.000122454	0.000133673	0	0	0	
0.2615	-0.00199565	-0.00412074	9.60138E-05	0.000151593	0	0	0	
0.261667	0.00555425	0.00330019	9.2002E-05	0.000134562	0	0	0	
0.261833	-0.011754	0.00062483	0.000123694	0.000114415	0	0	0	
0.262	0.00527487	-0.00406931	0.00015428	6.28591E-05	0	0	0	
0.262167	-0.00291812	0.00534542	0.0001583	7.30097E-05	0	0	0	
0.262333	0.00348565	-0.00299538	0.000124362	8.6977E-05	0	0	0	
0.2625	-0.00747317	0.00329589	0.000115132	0.000121905	0	0	0	
0.262667	0.0108883	-0.00367567	0.000144798	0.000126997	0	0	0	
0.262833	-0.00624495	-0.00137056	0.000170517	0.000119963	0	0	0	
0.263	0.000392847	0.00259237	0.000150723	9.19861E-05	0	0	0	
0.263167	-0.0100831	0.0012101	0.000165006	7.46418E-05	0	0	0	
0.263333	0.018289	-0.00729369	0.000213833	8.29135E-05	0	0	0	
0.2635	-0.00463872	0.00286013	0.000253162	9.6902E-05	0	0	0	
0.263667	-0.00245522	-0.00213823	0.00020065	0.000106643	0	0	0	
0.263833	-0.00275687	0.00257321	0.000156169	9.25932E-05	0	0	0	
0.264	0.00680398	8.32585E-05	0.000136666	8.82235E-05	0	0	0	
0.264167	0.0032245	-0.00780936	0.000135944	0.000126527	0	0	0	
0.264333	-0.0064648	0.00769034	0.000107426	0.000207177	0	0	0	
0.2645	-0.00332976	0.000916319	0.000157919	0.000227659	0	0	0	
0.264667	0.0133456	-0.0073902	0.000217115	0.000178722	0	0	0	
0.264833	-0.00931131	0.00548498	0.000261911	0.000125586	0	0	0	
0.265	0.00385558	-0.000758752	0.000205771	0.000108	0	0	0	
0.265167	-0.0047225	-0.000118078	0.000159767	8.80118E-05	0	0	0	
0.265333	0.00667955	-0.000108088	0.000127554	7.89593E-05	0	0	0	
0.2655	-0.00710472	0.00612376	0.000123845	0.000141332	0	0	0	
0.265667	0.00482116	-0.00226304	0.000129046	0.000184149	0	0	0	
0.265833	-0.006794	0.0031738	0.000129286	0.00018365	0	0	0	
0.266	0.00433342	-0.00292912	0.000126426	0.000143408	0	0	0	
0.266167	0.000468632	4.78121E-05	9.53148E-05	0.000113031	0	0	0	
0.266333	0.00113189	0.00566319	7.72468E-05	0.000147371	0	0	0	
0.2665	-0.00866588	0.0036807	7.87559E-05	0.000178427	0	0	0	
0.266667	0.00819282	-0.00231952	0.000132777	0.000198232	0	0	0	
0.266833	-0.00970478	-0.000318651	0.00016087	0.000162425	0	0	0	
0.267	0.00352283	0.00588609	0.000167594	0.000161095	0	0	0	
0.267167	0.0041697	0.00524642	0.000151857	0.000154409	0	0	0	
0.267333	-0.00357486	-0.000758331	0.000127821	0.000135664	0	0	0	
0.2675	-0.00622993	-0.00518963	0.000117698	0.000110382	0	0	0	
0.267667	0.00595292	-0.00173118	0.000106456	0.000136426	0	0	0	
0.267833	-0.00184031	-0.00454583	0.000108763	0.000139988	0	0	0	
0.268	0.00378839	0.0123908	0.000106504	0.000158374	0	0	0	
0.268167	-0.00755227	-0.00360638	0.000105041	0.000145338	0	0	0	
0.268333	0.00554483	0.00354364	0.000123626	0.000159385	0	0	0	
0.2685	-0.00688713	0.00407645	0.000116277	0.000109959	0	0	0	
0.268667	0.0117383	-0.00914641	0.000147231	0.000114679	0	0	0	
0.268833	-0.00870413	0.00272105	0.000173787	0.000131392	0	0	0	
0.269	0.00610089	0.00490169	0.000217272	0.000141277	0	0	0	
0.269167	0.000554377	-0.00109415	0.000167208	0.000131137	0	0	0	
0.269333	0.000118698	0.0049057	9.94719E-05	0.000115344	0	0	0	
0.2695	-0.00331287	-0.00508327	4.32487E-05	0.000108916	0	0	0	
0.269667	0.0123073	0.00841767	8.25368E-05	0.000126348	0	0	0	
0.269833	-0.0152668	0.00204906	0.00015809	0.000111265	0	0	0	
0.27	0.00933328	0.000322992	0.000249398	9.89017E-05	0	0	0	
0.270167	0.00193143	0.00349725	0.000220512	7.72821E-05	0	0	0	
0.270333	0.00544879	-9.34957E-05	0.000190681	5.96172E-05	0	0	0	
0.2705	-0.00595401	-0.00247951	0.000158231	5.73072E-05	0	0	0	
0.270667	0.00572018	0.00632812	0.000181751	4.71573E-05	0	0	0	
0.270833	-0.0030833	-0.0045941	0.000172005	8.35877E-05	0	0	0	
0.271	0.00704692	-0.00282219	0.000162161	9.80168E-05	0	0	0	
0.271167	-0.00439147	0.000482643	0.00015948	7.56736E-05	0	0	0	
0.271333	0.0058539	0.000873731	0.000150539	5.53252E-05	0	0	0	
0.2715	-8.61452E-05	0.00262741	0.000113754	5.39056E-05	0	0	0	
0.271667	0.00211123	-0.00340687	0.000103839	7.45723E-05	0	0	0	
0.271833	-0.00396282	0.00147988	0.000139576	0.000102674	0	0	0	
0.272	0.0100288	5.05249E-05	0.000176818	0.000146455	0	0	0	
0.272167	-0.00887694	-0.00579041	0.000194268	0.000152742	0	0	0	
0.272333	0.0124312	-0.00340628	0.000198563	0.000119859	0	0	0	
0.2725	-0.0115034	0.00239567	0.000214322	8.81437E-05	0	0	0	
0.272667	0.00418735	-0.00313975	0.000208067	8.68544E-05	0	0	0	
0.272833	0.00206197	0.00639809	0.000169811	9.38528E-05	0	0	0	
0.273	0.00258953	-0.00750185	0.000142849	0.000101998	0	0	0	
0.273167	-0.00991278	0.01076	0.000155294	0.000142637	0	0	0	
0.273333	0.00529391	-0.0112926	0.000163461	0.000212754	0	0	0	
0.2735	-0.00366534	-0.00122258	0.000146364	0.000198961	0	0	0	
0.273667	0.00772144	0.00115315	0.000147206	0.000146718	0	0	0	
0.273833	-0.0119909	-7.01465E-05	0.000178504	6.09346E-05	0	0	0	
0.274	0.00328641	-0.00116154	0.000195867	7.33697E-05	0	0	0	
0.274167	-0.00747529	0.00825535	0.000163357	0.000108903	0	0	0	
0.274333	0.0126776	-0.00508038	0.000164283	0.00017268	0	0	0	
0.2745	-0.0130197	0.0048219	0.000196221	0.000188654	0	0	0	
0.274667	0.0050058	-0.00549431	0.000215246	0.000170221	0	0	0	
0.274833	-0.000314084	0.00133768	0.000165163	0.00011356	0	0	0	
0.275	-0.00297805	0.00572307	9.10416E-05	9.19534E-05	0	0	0	
0.275167	0.000547304	-0.00360178	8.67779E-05	0.000117325	0	0	0	
0.275333	0.00672513	0.00233035	0.000151934	0.000147782	0	0	0	
0.2755	-0.0085738	8.34536E-05	0.000213268	0.000130308	0	0	0	
0.275667	0.00641698	0.0031347	0.000204162	0.000101526	0	0	0	
0.275833	-0.00621626	0.00221516	0.000169734	9.41742E-05	0	0	0	
0.276	0.0078912	-0.00383374	0.000140061	9.45021E-05	0	0	0	
0.276167	0.00112827	0.00447501	0.000155753	9.45884E-05	0	0	0	
0.276333	-0.00620338	-0.0104757	0.000149267	0.000126774	0	0	0	
0.2765	0.00055865	0.00467652	0.00015038	0.000175195	0	0	0	
0.276667	0.00943988	0.00619061	0.000148681	0.000167687	0	0	0	
0.276833	-0.00618821	-0.0013954	0.000152051	0.000125243	0	0	0	
0.277	0.00153289	-0.0011576	0.000127906	7.74801E-05	0	0	0	
0.277167	-0.00458591	-0.00335899	0.000100657	6.75806E-05	0	0	0	
0.277333	0.00425087	0.00152668	7.46851E-05	7.50446E-05	0	0	0	
0.2775	0.00241716	-0.000263644	7.3349E-05	6.70845E-05	0	0	0	
0.277667	0.00260866	-0.00126127	6.51478E-05	5.81239E-05	0	0	0	
0.277833	-0.00371876	0.000533327	8.53493E-05	3.40972E-05	0	0	0	
0.278	0.00483351	-0.00114945	0.000111839	3.53291E-05	0	0	0	
0.278167	-0.00172076	0.000757703	0.00011878	3.83809E-05	0	0	0	
0.278333	0.00332131	-0.00645484	0.000113523	7.24146E-05	0	0	0	
0.2785	-0.00926939	-0.000742361	0.000144881	0.00012186	0	0	0	
0.278667	0.00728763	0.00409513	0.000171023	0.000156929	0	0	0	
0.278833	-0.0010924	-0.00835987	0.000156592	0.000147679	0	0	0	
0.279	0.0062595	0.00353285	0.00010433	0.00015449	0	0	0	
0.279167	-0.00821765	0.00378517	9.84375E-05	0.000151974	0	0	0	
0.279333	0.0055533	-0.00561632	0.000116263	0.000143737	0	0	0	
0.2795	0.000832288	-0.00284491	0.000121324	0.000128241	0	0	0	
0.279667	-0.000477781	-0.00425032	0.000113694	0.0001471	0	0	0	
0.279833	-0.00641485	0.00866482	9.29037E-05	0.000148562	0	0	0	
0.28	-0.000629686	-0.00456044	0.000109296	0.000177335	0	0	0	
0.280167	0.0027231	-0.0013263	7.36812E-05	0.000209353	0	0	0	
0.280333	0.00295496	0.00109456	0.000121205	0.000187357	0	0	0	
0.2805	-0.0101336	-0.00375238	0.000176453	0.000184776	0	0	0	
0.280667	0.0136159	0.00308639	0.000263199	0.000162823	0	0	0	
0.280833	-0.0151195	0.00261977	0.00027548	0.000173924	0	0	0	
0.281	0.00791384	-0.0141812	0.000253305	0.000154251	0	0	0	
0.281167	-0.00583397	0.0133943	0.000224585	0.000192479	0	0	0	
0.281333	-0.00203872	-0.00373342	0.000159509	0.000229187	0	0	0	
0.2815	0.00222361	-0.00815759	0.000114088	0.000193926	0	0	0	
0.281667	-0.00513553	0.014457	0.00014988	0.000171963	0	0	0	
0.281833	-0.00516294	-0.00474046	0.000304548	0.000184605	0	0	0	
0.282	0.019733	-0.00402379	0.000431465	0.000222528	0	0	0	
0.282167	-0.0138874	-4.77275E-05	0.000411574	0.000208486	0	0	0	
0.282333	-0.00159859	-0.000777439	0.000338948	0.00017686	0	0	0	
0.2825	0.00284182	0.00331051	0.000217978	0.000129937	0	0	0	
0.282667	-0.00118489	0.000651569	0.000170809	6.941E-05	0	0	0	
0.282833	0.00441012	-0.0016734	9.74378E-05	5.82813E-05	0	0	0	
0.283	-0.00450862	-0.00368957	8.36125E-05	7.75678E-05	0	0	0	
0.283167	-0.00285514	0.000775959	0.000112759	7.46291E-05	0	0	0	
0.283333	0.0207433	-0.00413769	0.00017251	7.04268E-05	0	0	0	
0.2835	-0.0150817	0.00652415	0.000262712	8.8332E-05	0	0	0	
0.283667	-0.00137291	-0.00166882	0.000262075	0.000114877	0	0	0	
0.283833	0.00567813	0.00167523	0.000198335	0.000109725	0	0	0	
0.284	0.00399109	0.00650116	0.000179225	9.5244E-05	0	0	0	
0.284167	-0.0129409	0.003066	0.000192055	9.15804E-05	0	0	0	
0.284333	0.0122473	-0.0114823	0.000247239	0.000145413	0	0	0	
0.2845	-0.0100596	0.00749774	0.000228842	0.000168661	0	0	0	
0.284667	0.0150208	-0.00436078	0.000237118	0.00017434	0	0	0	
0.284833	-0.0174252	0.00915567	0.000253163	0.000170815	0	0	0	
0.285	0.00773003	-0.0120482	0.000260711	0.000202286	0	0	0	
0.285167	-0.00186456	0.00476082	0.000231765	0.000201262	0	0	0	
0.285333	0.00302257	0.00106278	0.000173719	0.000177226	0	0	0	
0.2855	-0.012673	-0.00500917	0.000172141	0.000115253	0	0	0	
0.285667	0.0159253	0.000641842	0.000200139	0.000105548	0	0	0	
0.285833	-0.00958734	-0.00410623	0.000253336	7.97804E-05	0	0	0	
0.286	0.00593383	0.00301211	0.000239692	8.70459E-05	0	0	0	
0.286167	-0.00246089	0.00707478	0.000190825	0.000136681	0	0	0	
0.286333	0.00288699	-0.0106189	0.000119386	0.000194473	0	0	0	
0.2865	-0.00148112	0.00543549	7.34992E-05	0.000183448	0	0	0	
0.286667	0.00803986	-0.00291942	9.92213E-05	0.000158957	0	0	0	
0.286833	-0.0112328	-0.00216566	0.000196195	0.000100642	0	0	0	
0.287	0.0150645	-0.000376274	0.000261663	9.54673E-05	0	0	0	
0.287167	-0.00449358	0.00134122	0.000260218	8.48943E-05	0	0	0	
0.287333	0.0043781	-0.00415842	0.000185747	0.000133194	0	0	0	
0.2875	-0.00491523	0.00490449	0.000135477	0.000143332	0	0	0	
0.287667	0.00978002	-0.00310581	0.000123144	0.000143309	0	0	0	
0.287833	-0.00425205	0.00109913	0.000146685	9.16413E-05	0	0	0	
0.288	0.00543097	-0.00937199	0.000130622	8.36047E-05	0	0	0	
0.288167	0.00605054	0.0117523	0.000152269	0.000152243	0	0	0	
0.288333	-0.00849408	-0.00362398	0.000156347	0.000206513	0	0	0	
0.2885	0.000592602	0.0105452	0.000169565	0.000246958	0	0	0	
0.288667	0.0115559	-0.0146103	0.000146622	0.000231533	0	0	0	
0.288833	-0.010317	0.00654688	0.000154093	0.000226603	0	0	0	
0.289	0.00543082	-0.00130621	0.000166299	0.000186076	0	0	0	
0.289167	-0.000823815	0.000549437	0.000145133	0.000128703	0	0	0	
0.289333	0.0081031	-0.00576233	0.000101254	0.000148854	0	0	0	
0.2895	-0.0153813	0.0146013	0.000132329	0.000221332	0	0	0	
0.289667	0.0159122	-0.0143014	0.000201425	0.000305025	0	0	0	
0.289833	-0.0142042	0.00624429	0.000305287	0.000319899	0	0	0	
0.29	0.00247623	-0.00811179	0.000289893	0.000278651	0	0	0	
0.290167	-0.00160003	0.00879799	0.000235287	0.000203195	0	0	0	
0.290333	-0.0062292	-0.00750207	0.000157168	0.000195479	0	0	0	
0.2905	0.00641871	-0.0125525	0.000125946	0.000190533	0	0	0	
0.290667	-0.000279044	0.00571776	0.000200166	0.000206624	0	0	0	
0.290833	-0.0146569	0.00191303	0.000264068	0.000219573	0	0	0	
0.291	0.0115888	-0.00506352	0.00032047	0.000242014	0	0	0	
0.291167	-0.0202926	0.00631958	0.000327071	0.000229477	0	0	0	
0.291333	0.0116461	-0.0135723	0.000313621	0.000206514	0	0	0	
0.2915	-0.00355718	0.00973515	0.000312966	0.000228609	0	0	0	
0.291667	-0.00103983	-0.00612069	0.000214512	0.000219566	0	0	0	
0.291833	-0.00265259	-0.00276984	0.000170343	0.000207979	0	0	0	
0.292	0.00967455	0.00432515	0.000182266	0.000140476	0	0	0	
0.292167	-0.0134767	-0.00198986	0.000271026	0.000125876	0	0	0	
0.292333	0.0156795	0.000539572	0.000308232	7.60289E-05	0	0	0	
0.2925	-0.0170652	-0.000418376	0.000302634	7.03699E-05	0	0	0	
0.292667	0.00801054	-0.00200069	0.000297211	0.000108347	0	0	0	
0.292833	0.000300351	0.0112195	0.000240705	0.00017579	0	0	0	
0.293	0.00510916	-0.0112631	0.000181623	0.000228277	0	0	0	
0.293167	-0.00958264	0.00360318	0.00013969	0.000207772	0	0	0	
0.293333	0.00166099	-0.000869979	0.000139209	0.000153016	0	0	0	
0.2935	0.0024905	0.000834882	0.000186285	9.38524E-05	0	0	0	
0.293667	-0.0228755	-0.0020116	0.000213815	7.91062E-05	0	0	0	
0.293833	-0.0108929	7.72815E-05	0.000256483	7.78955E-05	0	0	0	
0.294	0.0110904	-0.0039735	0.000278786	9.10162E-05	0	0	0	
0.294167	-0.00552062	0.0031251	0.000231911	0.000101974	0	0	0	
0.294333	0.00772572	-0.00379809	0.000194375	9.09604E-05	0	0	0	
0.2945	-0.0162429	0.00315184	0.000129721	8.52865E-05	0	0	0	
0.294667	0.00605537	-0.00797836	0.000189714	8.83403E-05	0	0	0	
0.294833	-0.0199996	0.000818335	0.00031352	0.000136653	0	0	0	
0.295	0.00476205	-0.0039748	0.000390694	0.000144769	0	0	0	
0.295167	-0.00638335	-0.00500832	0.000328137	0.000124268	0	0	0	
0.295333	0.00945432	0.0019469	0.000195907	9.47148E-05	0	0	0	
0.2955	-0.00554732	0.00404468	0.00014485	8.28837E-05	0	0	0	
0.295667	0.00525814	-0.00500037	0.000161717	0.000103374	0	0	0	
0.295833	-0.0113654	0.00232595	0.000181669	0.000119358	0	0	0	
0.296	0.0180764	-0.00933569	0.000203153	0.000159984	0	0	0	
0.296167	-0.00762714	0.0135792	0.000244832	0.000173855	0	0	0	
0.296333	-0.00463357	-0.0108283	0.000267453	0.000255436	0	0	0	
0.2965	0.000631003	-0.00146217	0.000191675	0.000299471	0	0	0	
0.296667	0.0110262	0.00089013	0.000168111	0.000266653	0	0	0	
0.296833	-0.0141291	0.00481718	0.00016616	0.000168912	0	0	0	
0.297	0.0104145	-0.00286054	0.00023303	0.000113655	0	0	0	
0.297167	-0.00807938	0.00575785	0.000226475	0.000109217	0	0	0	
0.297333	0.0110285	-0.00826446	0.000198783	0.000126578	0	0	0	
0.2975	-0.00654865	0.00309842	0.000180149	0.000113211	0	0	0	
0.297667	0.00473627	-0.00441767	0.000173896	0.000122436	0	0	0	
0.297833	-0.00592576	-0.00018482	0.000162382	8.85093E-05	0	0	0	
0.298	0.0103784	-0.00700017	0.000161288	7.49353E-05	0	0	0	
0.298167	-0.00763904	0.0105791	0.000154324	9.83926E-05	0	0	0	
0.298333	0.00507119	-0.015328	0.000155751	0.000178097	0	0	0	
0.2985	-0.00283104	0.00181004	0.000122899	0.000268148	0	0	0	
0.298667	0.00850755	0.0042123	0.000107059	0.000289259	0	0	0	
0.298833	-0.00725212	-0.000289293	0.000118055	0.000198481	0	0	0	
0.299	0.00281211	-0.0089827	0.000115701	0.000115453	0	0	0	
0.299167	-0.00206213	0.0116725	0.000100289	0.000100967	0	0	0	
0.299333	0.00608928	-0.0174016	7.85702E-05	0.000182801	0	0	0	
0.2995	-0.00934027	0.0113911	0.000107973	0.000247719	0	0	0	
0.299667	0.00998092	-0.00465833	0.000152669	0.00024983	0	0	0	
0.299833	-0.00600167	0.000901294	0.00016779	0.000184921	0	0	0	
0.3	0.00134685	-0.00346944	0.000149209	0.000110531	0	0	0	
0.300167	-0.00068516	0.0116457	0.000108993	9.36409E-05	0	0	0	
0.300333	0.000852044	-0.00595428	8.34857E-05	0.000107259	0	0	0	
0.3005	-0.00582663	-0.00226888	0.00012664	0.000115782	0	0	0	
0.300667	0.0118705	0.0046111	0.00018473	9.15266E-05	0	0	0	
0.300833	-0.0077936	-0.00334644	0.000203295	8.36074E-05	0	0	0	
0.301	0.00807098	-0.000213614	0.0001912	7.9395E-05	0	0	0	
0.301167	-0.00639996	0.00625471	0.000150378	0.000108228	0	0	0	
0.301333	0.00665012	-0.0122714	0.000162817	0.000131956	0	0	0	
0.3015	-0.00257107	0.00795049	0.000139554	0.000178712	0	0	0	
0.301667	0.00475764	0.00182387	0.00012961	0.000182441	0	0	0	
0.301833	-0.00797822	-0.000436539	0.000131578	0.00014708	0	0	0	
0.302	0.0159485	-0.00197396	0.000167537	0.00010043	0	0	0	
0.302167	-0.000634692	-0.0177795	0.000204893	0.000147172	0	0	0	
0.302333	-0.0549071	0.0450769	0.000381346	0.000326667	0	0	0	
0.3025	0.0420888	-0.134592	0.00108994	0.00105308	0	0	0	
0.302667	0.00360176	0.016223	0.00137202	0.00123213	0	0	0	
0.302833	-0.0116778	0.0104218	0.00119565	0.00129761	0	0	0	
0.303	0.0179561	-0.0154547	0.00050557	0.00066725	0	0	0	
0.303167	-0.0112011	0.0096922	0.000245538	0.000466162	0	0	0	
0.303333	-0.0192513	0.00260793	0.000323022	0.0003802	0	0	0	
0.3035	0.00928536	0.0100114	0.000343929	0.000465323	0	0	0	
0.303667	-0.00394325	-0.0192329	0.0003163	0.000495743	0	0	0	
0.303833	0.0009255	0.00804671	0.000230398	0.000373127	0	0	0	
0.304	0.00460638	0.00173614	0.000181625	0.00021893	0	0	0	
0.304167	-0.00969925	-0.00465472	0.000190072	0.000129454	0	0	0	
0.304333	0.00870919	0.00856629	0.000213274	0.000151533	0	0	0	
0.3045	-0.00646727	0.000461817	0.00020782	0.000148523	0	0	0	
0.304667	0.00885489	-0.00903532	0.000194696	0.000157266	0	0	0	
0.304833	-0.0063202	0.00580995	0.00016634	0.000135139	0	0	0	
0.305	-0.00109006	-0.000258459	0.000149404	0.000125994	0	0	0	
0.305167	0.000453996	0.000973092	0.000101142	0.000158436	0	0	0	
0.305333	0.00719433	-0.00104852	0.000131692	0.000152839	0	0	0	
0.3055	-0.0097987	0.00221879	0.000146144	0.000167414	0	0	0	
0.305667	0.00538684	-0.000806975	0.000182248	0.000169407	0	0	0	
0.305833	-0.00726667	-0.00271427	0.000154775	0.000153176	0	0	0	
0.306	0.0121143	-0.0048667	0.00016693	0.000118965	0	0	0	
0.306167	-0.0107412	0.00750257	0.000185618	0.000110426	0	0	0	
0.306333	0.00328775	-0.0108018	0.000192717	0.000131228	0	0	0	
0.3065	-0.00575168	0.00885991	0.000159227	0.000173516	0	0	0	
0.306667	0.0119897	-0.00520811	0.000155819	0.000173791	0	0	0	
0.306833	-0.00891117	0.00439251	0.000163954	0.000153924	0	0	0	
0.307	0.00319313	-0.00667249	0.00016602	0.00013802	0	0	0	
0.307167	-0.00573114	0.00915533	0.000131628	0.000136546	0	0	0	
0.307333	0.00800499	-0.0100774	0.000123008	0.000162361	0	0	0	
0.3075	-0.00509258	0.00231683	0.000123164	0.000167282	0	0	0	
0.307667	0.00567715	0.00153561	0.000140015	0.000125074	0	0	0	
0.307833	-0.0101624	-0.00337069	0.000151399	9.57139E-05	0	0	0	
0.308	0.0120272	0.00376091	0.000188517	7.84511E-05	0	0	0	
0.308167	-0.00712664	0.0018607	0.000196137	8.26936E-05	0	0	0	
0.308333	0.00754765	-0.00203799	0.000182107	9.79962E-05	0	0	0	
0.3085	-0.00493689	0.00535359	0.000143996	8.9358E-05	0	0	0	
0.308667	0.00385139	-0.00465179	0.000123838	0.000110262	0	0	0	
0.308833	-0.00651158	0.00317333	0.000105474	9.55579E-05	0	0	0	
0.309	0.00889514	-0.00557849	0.00012454	9.9873E-05	0	0	0	
0.309167	-0.0065604	0.00560823	0.000135822	0.000103117	0	0	0	
0.309333	0.00597844	-0.00550699	0.000143875	0.000133759	0	0	0	
0.3095	-0.00564992	0.00167402	0.000122599	0.00014133	0	0	0	
0.309667	0.0055709	0.000151609	0.000115126	0.000113171	0	0	0	
0.309833	-0.00725122	0.00601561	0.000113963	8.40184E-05	0	0	0	
0.31	0.00692177	-0.00973491	0.000121311	0.0001105	0	0	0	
0.310167	-0.00539446	0.0147561	0.00012814	0.000164988	0	0	0	
0.310333	0.00239668	-0.0159701	0.000114056	0.00024193	0	0	0	
0.3105	-0.00639028	-9.76538E-05	0.000103498	0.000230005	0	0	0	
0.310667	0.00969904	0.00230505	0.000122388	0.000202597	0	0	0	
0.310833	-0.0145029	0.000717897	0.00016956	0.000101638	0	0	0	
0.311	0.0111396	-0.00468961	0.00021687	9.19065E-05	0	0	0	
0.311167	-0.0113311	0.00644781	0.000226317	0.000126622	0	0	0	
0.311333	0.00774762	-0.00430033	0.000215198	0.000174637	0	0	0	
0.3115	-0.00308488	0.0040071	0.000171076	0.000164336	0	0	0	
0.311667	0.000825073	-0.00412623	0.000112411	0.000121779	0	0	0	
0.311833	-0.00673204	-0.00149391	9.04581E-05	8.22173E-05	0	0	0	
0.312	0.0109831	-0.000798647	0.000132604	6.73567E-05	0	0	0	
0.312167	-0.00971627	0.00285562	0.000181431	4.83058E-05	0	0	0	
0.312333	0.00488645	-0.00304711	0.000187358	5.35098E-05	0	0	0	
0.3125	-0.00381678	0.0064633	0.000137544	7.85161E-05	0	0	0	
0.312667	0.00570759	-0.00424415	0.00010313	9.43847E-05	0	0	0	
0.312833	-0.00392678	0.00286101	9.11543E-05	0.000103519	0	0	0	
0.313	0.00345488	-0.000317694	9.76299E-05	9.73933E-05	0	0	0	
0.313167	-0.00544186	0.00107163	0.000130441	0.000120004	0	0	0	
0.313333	0.00977712	-0.00837506	0.000146745	0.000146993	0	0	0	
0.3135	-0.00892853	0.000267694	0.000175105	0.000148031	0	0	0	
0.313667	0.00810106	0.00511135	0.000164694	0.000144202	0	0	0	
0.313833	-0.0114948	-0.00159678	0.000183271	0.000107371	0	0	0	
0.314	0.00835582	-0.00358093	0.000181769	9.44934E-05	0	0	0	
0.314167	-0.00322179	0.0139084	0.000173164	0.000115021	0	0	0	
0.314333	0.00662449	-0.0114124	0.00013021	0.000188288	0	0	0	
0.3145	-0.0101432	0.0012414	0.000129086	0.000209032	0	0	0	
0.314667	0.00521696	-0.00510152	0.000137804	0.000161794	0	0	0	
0.314833	-0.00427051	0.00614298	0.000146071	9.65996E-05	0	0	0	
0.315	0.00804003	-0.00251441	0.000143605	8.94437E-05	0	0	0	
0.315167	-0.00701891	0.00600219	0.000142319	9.28539E-05	0	0	0	
0.315333	0.00221385	-0.00955453	0.000137088	0.000127042	0	0	0	
0.3155	-0.00403046	0.00481063	0.000122731	0.000123956	0	0	0	
0.315667	0.0135896	-0.00118967	0.000174013	0.000169723	0	0	0	
0.315833	-0.0159748	-0.00363902	0.000242948	0.00016126	0	0	0	
0.316	0.0100053	0.00423863	0.000283174	0.000152725	0	0	0	
0.316167	-0.00468597	0.00346196	0.000225359	0.000125722	0	0	0	
0.316333	0.00697191	-0.0137043	0.000165449	0.000135807	0	0	0	
0.3165	-0.00775608	0.00924338	0.000129543	0.000164987	0	0	0	
0.316667	0.00468225	-0.00673225	0.000121902	0.000179413	0	0	0	
0.316833	-0.00691538	0.00467185	0.000128857	0.000150607	0	0	0	
0.317	0.00839975	-0.00429159	0.000139318	0.000120798	0	0	0	
0.317167	-0.00740556	0.0080259	0.000148978	0.000118558	0	0	0	
0.317333	0.00531434	-0.00292897	0.000147104	0.000111748	0	0	0	
0.3175	-0.00640828	-0.00209438	0.00013806	0.000111131	0	0	0	
0.317667	0.0136657	-0.00160272	0.000176092	9.19614E-05	0	0	0	
0.317833	-0.0154775	0.00436237	0.000220143	7.98484E-05	0	0	0	
0.318	0.00775687	-0.000338229	0.000245841	8.37027E-05	0	0	0	
0.318167	-0.00107974	0.00045784	0.000216379	6.22038E-05	0	0	0	
0.318333	-0.00438297	-0.000625609	0.000146602	6.13892E-05	0	0	0	
0.3185	0.00464055	-0.00424198	0.00011217	0.000104502	0	0	0	
0.318667	0.00545348	0.00831831	0.000142171	0.000191023	0	0	0	
0.318833	-0.0111715	-0.0094029	0.000235473	0.000242206	0	0	0	
