0	0.00350412	0.000138672	3.50412E-07	1.38672E-08	0	0	0	
0.000166667	0.00750969	0.000979902	8.17865E-05	1.19108E-05	0	0	0	
0.000333333	-0.0200841	-0.000980883	0.000208933	2.57451E-05	0	0	0	
0.0005	0.0181202	0.00150779	0.000317892	3.13996E-05	0	0	0	
0.000666667	-0.00533426	-0.00142819	0.000342862	3.08754E-05	0	0	0	
0.000833333	-0.000122934	-0.000378423	0.000266038	2.61817E-05	0	0	0	
0.001	-0.00696168	0.00190444	0.000218214	3.43857E-05	0	0	0	
0.00116667	0.0126439	-0.0010311	0.000193721	3.61386E-05	0	0	0	
0.00133333	-0.00633856	0.000826636	0.000214731	3.75819E-05	0	0	0	
0.0015	0.00388632	0.000297707	0.00022908	3.14187E-05	0	0	0	
0.00166667	-0.0163496	-0.000941577	0.000284207	2.44228E-05	0	0	0	
0.00183333	0.022372	-0.000935193	0.000345515	2.18033E-05	0	0	0	
0.002	-0.00490507	0.00269307	0.000357434	3.18035E-05	0	0	0	
0.00216667	0.00345199	-0.00214366	0.000298098	4.53897E-05	0	0	0	
0.00233333	-0.0269988	0.000672117	0.000383261	4.72314E-05	0	0	0	
0.0025	0.032442	-0.000204129	0.000485124	3.66685E-05	0	0	0	
0.00266667	-0.00801795	-0.000219154	0.000557803	2.57418E-05	0	0	0	
0.00283333	-0.00117587	-3.78123E-05	0.000382231	2.61098E-05	0	0	0	
0.003	-0.0152553	0.000190646	0.000344613	2.59564E-05	0	0	0	
0.00316667	0.0219252	5.60777E-05	0.000339362	1.93987E-05	0	0	0	
0.00333333	-0.00712534	5.51974E-06	0.000386307	1.14328E-05	0	0	0	
0.0035	0.00682234	0.000197895	0.000312927	1.15465E-05	0	0	0	
0.00366667	-0.0227571	-0.000222676	0.000342298	1.93737E-05	0	0	0	
0.00383333	0.0257697	0.00132844	0.000417367	2.80135E-05	0	0	0	
0.004	-0.00986525	-0.00182599	0.000447409	3.33847E-05	0	0	0	
0.00416667	0.00916637	0.0004269	0.000355569	3.62211E-05	0	0	0	
0.00433333	-0.0267779	0.00109155	0.000392161	3.21489E-05	0	0	0	
0.0045	0.022815	-0.00124629	0.000423279	2.89645E-05	0	0	0	
0.00466667	0.00610844	0.000819809	0.000514682	2.2052E-05	0	0	0	
0.00483333	0.0111452	0.000841856	0.000495534	1.99474E-05	0	0	0	
0.005	-0.0544911	-0.00134008	0.000818805	1.84636E-05	0	0	0	
0.00516667	0.0320714	-0.000105892	0.000882326	1.71083E-05	0	0	0	
0.00533333	0.0278132	0.000153878	0.000955998	1.932E-05	0	0	0	
0.0055	0.0077029	0.00199277	0.000776489	2.41902E-05	0	0	0	
0.00566667	-0.0616297	-0.00206835	0.000888671	3.63111E-05	0	0	0	
0.00583333	0.00808062	0.00013213	0.000933945	4.8102E-05	0	0	0	
0.006	0.0483356	0.000759613	0.000809518	5.00518E-05	0	0	0	
0.00616667	0.0176506	-0.000266721	0.0010045	3.79044E-05	0	0	0	
0.00633333	-0.0626767	0.000603227	0.00108972	2.86401E-05	0	0	0	
0.0065	0.00352906	0.000785722	0.00122958	2.37441E-05	0	0	0	
0.00666667	0.0219579	-0.00264668	0.000830834	3.2862E-05	0	0	0	
0.00683333	0.0293061	0.00189593	0.000760506	4.99342E-05	0	0	0	
0.007	-0.0400947	5.24877E-05	0.000693171	5.91665E-05	0	0	0	
0.00716667	0.000939975	0.000197891	0.000737195	4.99417E-05	0	0	0	
0.00733333	0.0037958	-7.55265E-05	0.000464007	3.15137E-05	0	0	0	
0.0075	0.0312585	-0.000173106	0.000523888	2.39496E-05	0	0	0	
0.00766667	-0.0350458	-0.000917721	0.000541018	2.95927E-05	0	0	0	
0.00783333	0.00985984	0.00202822	0.000672248	3.60749E-05	0	0	0	
0.008	0.00203272	-0.000885952	0.00042622	4.00378E-05	0	0	0	
0.00816667	0.0130378	0.000644689	0.000366651	3.78058E-05	0	0	0	
0.00833333	-0.0215634	-0.00111021	0.000352817	2.88373E-05	0	0	0	
0.0085	0.0157516	0.00155378	0.00042929	2.4041E-05	0	0	0	
0.00866667	-0.016093	-0.00207228	0.000390318	2.77178E-05	0	0	0	
0.00883333	0.0214466	0.00245012	0.000353659	3.74758E-05	0	0	0	
0.009	-0.0159498	-0.00139818	0.000358655	4.13987E-05	0	0	0	
0.00916667	0.00860839	0.000544838	0.000320897	3.7833E-05	0	0	0	
0.00933333	-0.0131602	-0.000585204	0.000303523	3.26007E-05	0	0	0	
0.0095	0.0179036	0.000887395	0.000324908	3.31377E-05	0	0	0	
0.00966667	-0.0182226	-0.00088477	0.000381487	3.93727E-05	0	0	0	
0.00983333	0.0120683	0.000297744	0.000363989	3.80739E-05	0	0	0	
0.01	-0.00988637	0.000204056	0.000305834	2.96128E-05	0	0	0	
0.0101667	0.0119336	-0.00105254	0.00030358	2.70737E-05	0	0	0	
0.0103333	-0.0223554	0.00108755	0.000363537	2.92641E-05	0	0	0	
0.0105	0.0135776	-0.00102406	0.000408237	3.16106E-05	0	0	0	
0.0106667	-0.00846593	4.83468E-06	0.000360838	3.35786E-05	0	0	0	
0.0108333	0.0143758	0.000827893	0.000313172	3.38603E-05	0	0	0	
0.011	-0.0213211	-0.000655568	0.000312971	3.04354E-05	0	0	0	
0.0111667	0.011213	0.000468878	0.000336706	2.15219E-05	0	0	0	
0.0113333	-0.0059142	-0.00144217	0.000299324	1.75798E-05	0	0	0	
0.0115	0.0113156	0.00300203	0.00029203	2.58385E-05	0	0	0	
0.0116667	-0.0202232	-0.00327494	0.000348526	4.02604E-05	0	0	0	
0.0118333	0.0150392	0.00278194	0.00039485	5.45898E-05	0	0	0	
0.012	-0.00578845	-0.000999347	0.000341141	5.51614E-05	0	0	0	
0.0121667	0.00886478	-0.000474461	0.000286163	4.42788E-05	0	0	0	
0.0123333	-0.0207155	-0.00170012	0.000318725	2.99478E-05	0	0	0	
0.0125	0.0198188	0.00306144	0.000379107	3.51275E-05	0	0	0	
0.0126667	-0.0120755	-0.00213147	0.000380455	5.14879E-05	0	0	0	
0.0128333	0.0026456	0.000976825	0.00029111	6.30433E-05	0	0	0	
0.013	0.0026903	-0.000762288	0.000196301	6.11202E-05	0	0	0	
0.0131667	0.00285416	-0.000516347	0.000241199	5.30214E-05	0	0	0	
0.0133333	-0.019587	0.00156719	0.000402272	4.73646E-05	0	0	0	
0.0135	0.0149781	-0.000596244	0.00049369	4.06845E-05	0	0	0	
0.0136667	-0.00560893	-0.00112244	0.000436527	3.14127E-05	0	0	0	
0.0138333	0.024022	-0.000509013	0.000413612	3.11271E-05	0	0	0	
0.014	-0.0269619	0.00174205	0.000446892	3.76552E-05	0	0	0	
0.0141667	-0.0131213	-0.000712846	0.000525768	4.27053E-05	0	0	0	
0.0143333	0.0189917	-0.000863628	0.000420762	3.45901E-05	0	0	0	
0.0145	0.0132729	0.00145022	0.00051463	2.84768E-05	0	0	0	
0.0146667	-0.0168871	-0.00311923	0.000497526	3.1705E-05	0	0	0	
0.0148333	-0.00126135	0.00226564	0.000465994	4.61125E-05	0	0	0	
0.015	-0.0105512	-0.000766682	0.000356751	7.27041E-05	0	0	0	
0.0151667	0.0234129	0.00317925	0.000383889	0.000148892	0	0	0	
0.0153333	-0.0134541	-0.00399855	0.00044289	0.00022471	0	0	0	
0.0155	0.0120129	0.00618946	0.000380801	0.000255157	0	0	0	
0.0156667	-0.0157871	-0.00723816	0.000332826	0.00021746	0	0	0	
0.0158333	0.00732246	0.00583877	0.000319225	0.000165637	0	0	0	
0.016	-0.0069792	-0.00654439	0.000305188	0.000128002	0	0	0	
0.0161667	0.0141102	0.0132166	0.000274377	0.000150018	0	0	0	
0.0163333	-0.00936498	-0.0149678	0.000280687	0.000214726	0	0	0	
0.0165	0.00576637	0.0104273	0.000310728	0.000263511	0	0	0	
0.0166667	-0.0167495	-0.00867771	0.000373446	0.000252968	0	0	0	
0.0168333	0.0175817	0.00573468	0.00042896	0.000205386	0	0	0	
0.017	-0.0115346	-0.0048295	0.000418485	0.000166013	0	0	0	
0.0171667	0.0117718	0.0048667	0.000336229	0.000129882	0	0	0	
0.0173333	-0.0116778	-0.0016696	0.000274674	9.33498E-05	0	0	0	
0.0175	0.0089974	-0.000373011	0.000283461	6.0289E-05	0	0	0	
0.0176667	-0.0139937	-0.000461289	0.000327172	3.90103E-05	0	0	0	
0.0178333	0.0193583	0.00222601	0.000349888	3.09892E-05	0	0	0	
0.018	-0.00783693	-0.00332813	0.000329293	4.83261E-05	0	0	0	
0.0181667	0.000778298	0.00222504	0.000242112	6.86176E-05	0	0	0	
0.0183333	-0.0120253	-0.000670283	0.000272481	7.72247E-05	0	0	0	
0.0185	0.0254133	-0.00119494	0.000386091	7.61031E-05	0	0	0	
0.0186667	-0.0170664	0.00135035	0.000484978	6.8985E-05	0	0	0	
0.0188333	0.00531615	-0.00105912	0.000409437	6.38027E-05	0	0	0	
0.019	-0.01587	0.000884621	0.000342525	6.13866E-05	0	0	0	
0.0191667	0.0240314	-0.00171135	0.00034758	6.66494E-05	0	0	0	
0.0193333	-0.00808093	0.00224216	0.000374276	7.73879E-05	0	0	0	
0.0195	0.000996955	-0.00174495	0.000302959	7.79404E-05	0	0	0	
0.0196667	-0.0200061	0.00258582	0.000351087	6.95812E-05	0	0	0	
0.0198333	0.0251007	-0.00355027	0.000425913	6.32374E-05	0	0	0	
0.02	-0.00797709	0.00174354	0.000464321	7.20637E-05	0	0	0	
0.0201667	0.00493788	0.00114629	0.000325217	7.19335E-05	0	0	0	
0.0203333	-0.0198838	0.000494068	0.000299158	5.73666E-05	0	0	0	
0.0205	0.0192168	-0.00249536	0.000352492	4.39726E-05	0	0	0	
0.0206667	-0.00769452	0.00249373	0.00038895	4.71231E-05	0	0	0	
0.0208333	0.00811037	-0.000383281	0.000340403	5.37304E-05	0	0	0	
0.021	-0.0166923	-0.000836665	0.000339632	5.30321E-05	0	0	0	
0.0211667	0.0149766	0.00269962	0.000369851	5.3565E-05	0	0	0	
0.0213333	-0.0104385	-0.00191825	0.000362239	5.80699E-05	0	0	0	
0.0215	0.0145721	-0.000750533	0.000345895	4.70941E-05	0	0	0	
0.0216667	-0.0168072	0.00135984	0.000365382	3.53947E-05	0	0	0	
0.0218333	0.00915893	0.00120383	0.000383115	2.65096E-05	0	0	0	
0.022	-0.0105597	-0.00149007	0.000359574	3.3883E-05	0	0	0	
0.0221667	0.0156041	0.0004275	0.000357327	3.37232E-05	0	0	0	
0.0223333	-0.0126095	0.00117511	0.000348644	3.1898E-05	0	0	0	
0.0225	0.00761542	0.00087178	0.000324066	3.29551E-05	0	0	0	
0.0226667	-0.0118383	-0.00251618	0.000292572	3.97487E-05	0	0	0	
0.0228333	0.0120035	0.00167415	0.000313448	4.71135E-05	0	0	0	
0.023	-0.00912201	0.000298006	0.000330715	4.60646E-05	0	0	0	
0.0231667	0.00965361	-0.000639213	0.000337853	3.79788E-05	0	0	0	
0.0233333	-0.0140147	0.000674312	0.000329198	2.79028E-05	0	0	0	
0.0235	0.0125348	0.00107028	0.000338379	2.99679E-05	0	0	0	
0.0236667	-0.0105936	-0.00308032	0.000319885	4.47206E-05	0	0	0	
0.0238333	0.00969424	0.00303006	0.000297859	5.98797E-05	0	0	0	
0.024	-0.00984115	-0.00315677	0.000279097	6.60574E-05	0	0	0	
0.0241667	0.0116453	0.00287286	0.000294281	6.20132E-05	0	0	0	
0.0243333	-0.0141049	-0.00153565	0.000315102	5.69833E-05	0	0	0	
0.0245	0.0118615	3.37777E-05	0.000329855	4.43826E-05	0	0	0	
0.0246667	-0.0087608	-0.0002231	0.000320287	3.03182E-05	0	0	0	
0.0248333	0.011413	0.00134093	0.000326908	1.87078E-05	0	0	0	
0.025	-0.0143223	-0.00215338	0.000340222	2.59931E-05	0	0	0	
0.0251667	0.0115215	0.00190195	0.000335013	4.63906E-05	0	0	0	
0.0253333	-0.00415115	-0.000619321	0.000298393	6.96357E-05	0	0	0	
0.0255	0.0109205	-0.000893078	0.000302513	7.54348E-05	0	0	0	
0.0256667	-0.0191681	0.00204944	0.000358816	6.75116E-05	0	0	0	
0.0258333	0.0130176	-0.000336747	0.000390238	5.01266E-05	0	0	0	
0.026	-0.00360341	-0.00166376	0.00033751	3.6681E-05	0	0	0	
0.0261667	0.00583376	0.000349854	0.000290124	2.83943E-05	0	0	0	
0.0263333	-0.0140967	0.000771858	0.000323539	2.27725E-05	0	0	0	
0.0265	0.0109485	-0.000254693	0.000350913	1.85816E-05	0	0	0	
0.0266667	-0.00462853	-0.000677621	0.000313478	1.18509E-05	0	0	0	
0.0268333	0.00930968	0.000555698	0.000291226	1.2133E-05	0	0	0	
0.027	-0.0220459	-0.00101171	0.000382609	1.73261E-05	0	0	0	
0.0271667	0.0148828	0.000175105	0.000448608	2.78878E-05	0	0	0	
0.0273333	-0.000212843	0.00161057	0.000368956	3.54933E-05	0	0	0	
0.0275	-4.40488E-05	0.000263937	0.000259418	3.58454E-05	0	0	0	
0.0276667	-0.0139203	-0.00253081	0.000290465	3.49692E-05	0	0	0	
0.0278333	0.01651	0.00199615	0.000378737	4.0112E-05	0	0	0	
0.028	-0.00945479	-0.000444447	0.000397166	4.03968E-05	0	0	0	
0.0281667	0.0035911	-0.000238446	0.000333531	3.54045E-05	0	0	0	
0.0283333	-0.0116488	0.00109789	0.000358158	2.67476E-05	0	0	0	
0.0285	0.0156353	-0.000837182	0.000400998	2.62825E-05	0	0	0	
0.0286667	-0.00870242	-0.000850478	0.000391029	2.27279E-05	0	0	0	
0.0288333	0.00568475	0.00147378	0.000316681	2.36623E-05	0	0	0	
0.029	-0.0169467	-0.00164307	0.000319533	2.70667E-05	0	0	0	
0.0291667	0.0131375	0.00130595	0.000350458	3.85547E-05	0	0	0	
0.0293333	0.000619479	-1.6037E-06	0.000325431	3.87253E-05	0	0	0	
0.0295	0.00441898	-0.00126446	0.000308738	3.48886E-05	0	0	0	
0.0296667	-0.016243	0.00128741	0.000343285	3.02021E-05	0	0	0	
0.0298333	0.00937256	-0.000279589	0.000374479	2.6576E-05	0	0	0	
0.03	-0.00515055	-0.000266946	0.000333437	2.10283E-05	0	0	0	
0.0301667	0.0129293	-3.28509E-05	0.000335131	1.35149E-05	0	0	0	
0.0303333	-0.0116152	0.00073338	0.000357015	1.19575E-05	0	0	0	
0.0305	0.00331985	-0.000326275	0.00034128	1.48554E-05	0	0	0	
0.0306667	-0.0137509	-0.00181551	0.000325209	1.97486E-05	0	0	0	
0.0308333	0.0230608	0.00329992	0.000361837	3.40674E-05	0	0	0	
0.031	-0.00800641	-0.00309102	0.000398554	5.46095E-05	0	0	0	
0.0311667	-0.00201732	-0.000105545	0.000316097	7.01766E-05	0	0	0	
0.0313333	-0.0100757	0.00220204	0.000326151	6.68076E-05	0	0	0	
0.0315	0.0119764	-0.00177246	0.000333607	5.64818E-05	0	0	0	
0.0316667	-0.00363909	-0.000575915	0.000342097	3.92217E-05	0	0	0	
0.0318333	0.00911726	0.00178351	0.000313136	3.37421E-05	0	0	0	
0.032	-0.0178855	-0.000977144	0.000379698	3.5416E-05	0	0	0	
0.0321667	0.00985339	-0.000599749	0.000413526	4.52438E-05	0	0	0	
0.0323333	-0.00502853	0.00188316	0.000349481	5.01251E-05	0	0	0	
0.0325	0.00892972	-0.00203015	0.00029555	4.97096E-05	0	0	0	
0.0326667	-0.0128687	-0.000111221	0.000299469	4.55869E-05	0	0	0	
0.0328333	0.0034211	0.000596854	0.000296262	3.55025E-05	0	0	0	
0.033	-0.00249848	-0.000156148	0.000269496	2.48194E-05	0	0	0	
0.0331667	0.0159127	0.000793593	0.00035204	1.74876E-05	0	0	0	
0.0333333	-0.0230405	-0.00205648	0.000434995	2.09895E-05	0	0	0	
0.0335	0.00446693	0.00217888	0.000421245	2.9711E-05	0	0	0	
0.0336667	0.00156144	-0.00234923	0.000274771	3.74709E-05	0	0	0	
0.0338333	0.00975396	0.00268764	0.000263551	4.63389E-05	0	0	0	
0.034	-0.0138798	-0.00234634	0.000315403	4.91319E-05	0	0	0	
0.0341667	0.00860687	0.00169982	0.000372236	5.10943E-05	0	0	0	
0.0343333	-0.00700973	-0.00131509	0.000331883	4.5224E-05	0	0	0	
0.0345	0.0121596	0.00162089	0.000346286	4.37894E-05	0	0	0	
0.0346667	-0.0203168	-0.00148659	0.000395373	5.7312E-05	0	0	0	
0.0348333	0.0118689	0.000186933	0.000409406	7.65765E-05	0	0	0	
0.035	0.000764989	0.000930278	0.000310416	8.83823E-05	0	0	0	
0.0351667	0.00632989	-0.000391434	0.000299735	8.08733E-05	0	0	0	
0.0353333	-0.0213988	0.00159433	0.00037493	6.3566E-05	0	0	0	
0.0355	0.00947378	-0.00373081	0.000423458	5.72404E-05	0	0	0	
0.0356667	0.00889194	0.00243374	0.000320382	6.00123E-05	0	0	0	
0.0358333	0.00621645	-0.000689862	0.000313992	5.81627E-05	0	0	0	
0.036	-0.0254094	0.000225215	0.000446152	4.15803E-05	0	0	0	
0.0361667	0.0111836	0.000698389	0.000521979	2.32485E-05	0	0	0	
0.0363333	0.00580463	-0.00193636	0.000373888	2.14981E-05	0	0	0	
0.0365	0.00758414	0.00127423	0.000320051	2.79739E-05	0	0	0	
0.0366667	-0.0200843	-0.00126284	0.000389302	3.1042E-05	0	0	0	
0.0368333	0.00471756	0.00231277	0.000428205	3.29415E-05	0	0	0	
0.037	0.00248546	-0.00206406	0.000284788	3.9708E-05	0	0	0	
0.0371667	0.0106008	0.00200774	0.000285326	4.96985E-05	0	0	0	
0.0373333	-0.0178546	-0.00171788	0.000382093	5.21262E-05	0	0	0	
0.0375	0.00772079	0.00103856	0.00044512	4.87482E-05	0	0	0	
0.0376667	-0.000953649	-0.000758185	0.000338622	4.44308E-05	0	0	0	
0.0378333	0.00817754	-0.00077104	0.000302073	4.22958E-05	0	0	0	
0.038	-0.0140391	0.0022464	0.000324929	4.21996E-05	0	0	0	
0.0381667	0.00256648	-0.000723384	0.00033366	4.43359E-05	0	0	0	
0.0383333	0.00333746	-0.00172988	0.000276117	4.58229E-05	0	0	0	
0.0385	0.00879902	0.00241412	0.000344061	5.06789E-05	0	0	0	
0.0386667	-0.0220031	-0.00153284	0.000464873	4.89276E-05	0	0	0	
0.0388333	0.00963119	0.000795235	0.000491309	4.51052E-05	0	0	0	
0.039	0.0147205	-0.00171592	0.000360994	3.24855E-05	0	0	0	
0.0391667	-0.0107526	0.00366065	0.000301625	3.2911E-05	0	0	0	
0.0393333	-0.00693674	-0.00676605	0.000394843	5.90706E-05	0	0	0	
0.0395	-0.0144778	0.00498108	0.000389488	9.33855E-05	0	0	0	
0.0396667	0.0284061	-0.000334757	0.000391706	9.8928E-05	0	0	0	
0.0398333	0.00897256	-0.00171168	0.000574704	7.3038E-05	0	0	0	
0.04	-0.0390221	-0.000424273	0.000826627	3.74626E-05	0	0	0	
0.0401667	0.00471393	0.00223301	0.000824552	2.84896E-05	0	0	0	
0.0403333	0.0228098	-0.0029209	0.000525636	3.79736E-05	0	0	0	
0.0405	0.00531643	0.0022862	0.000479312	5.34126E-05	0	0	0	
0.0406667	-0.0148978	-0.000143391	0.000475408	5.47919E-05	0	0	0	
0.0408333	-0.018637	-0.00148048	0.000525142	4.08133E-05	0	0	0	
0.041	0.0114901	0.0014367	0.000430063	3.33986E-05	0	0	0	
0.0411667	0.0440707	-0.0010594	0.000735976	3.14827E-05	0	0	0	
0.0413333	-0.0464025	-0.00081959	0.000892767	3.02388E-05	0	0	0	
0.0415	-0.00777795	0.00276109	0.000974826	3.35907E-05	0	0	0	
0.0416667	0.0227977	-0.00320627	0.000616868	4.77629E-05	0	0	0	
0.0418333	0.0146975	0.00199151	0.000604235	6.19184E-05	0	0	0	
0.042	-0.0171931	0.000270245	0.000551606	4.99204E-05	0	0	0	
0.0421667	0.00490192	-0.000829489	0.000528699	4.50043E-05	0	0	0	
0.0423333	-0.0105691	0.000433241	0.000427717	4.14802E-05	0	0	0	
0.0425	0.0345891	-0.000521054	0.000578029	4.52332E-05	0	0	0	
0.0426667	-0.04721	0.00226834	0.000843091	5.60817E-05	0	0	0	
0.0428333	0.0302348	-0.00102153	0.000899632	6.38492E-05	0	0	0	
0.043	0.00730142	-0.000984133	0.000655426	5.91164E-05	0	0	0	
0.0431667	-0.0039842	0.00224283	0.000466648	4.68988E-05	0	0	0	
0.0433333	-0.0362781	-0.00275495	0.000627308	5.21246E-05	0	0	0	
0.0435	0.0349934	0.00181259	0.000782562	6.86335E-05	0	0	0	
0.0436667	0.00710496	0.00147969	0.000819775	6.96637E-05	0	0	0	
0.0438333	-0.0208432	-0.00217361	0.000553685	6.3391E-05	0	0	0	
0.044	-0.0211702	-0.000754419	0.000718733	5.66113E-05	0	0	0	
0.0441667	0.0263509	0.0028112	0.000735595	5.7186E-05	0	0	0	
0.0443333	0.0161105	-0.00288678	0.000746703	5.29667E-05	0	0	0	
0.0445	-0.0180574	0.003136	0.000492503	5.91759E-05	0	0	0	
0.0446667	-0.0236188	-0.00125454	0.000651815	6.28144E-05	0	0	0	
0.0448333	0.0294423	-0.00107778	0.000723357	6.62853E-05	0	0	0	
0.045	-0.00365841	0.00112407	0.000658055	6.32802E-05	0	0	0	
0.0451667	-0.00597127	0.000455753	0.000343537	4.36367E-05	0	0	0	
0.0453333	-0.00554573	-5.09859E-05	0.000310138	2.64489E-05	0	0	0	
0.0455	0.0210952	0.00087944	0.000417807	1.77098E-05	0	0	0	
0.0456667	-0.0169042	-0.00102034	0.000493779	2.2825E-05	0	0	0	
0.0458333	-0.0130984	0.000300849	0.000455042	2.34112E-05	0	0	0	
0.046	0.0173591	0.000556647	0.000352617	1.67957E-05	0	0	0	
0.0461667	0.0213076	-0.000178218	0.000585711	1.02968E-05	0	0	0	
0.0463333	-0.0306442	-0.0011932	0.000667135	1.15868E-05	0	0	0	
0.0465	-0.000905365	0.00304984	0.000679455	2.62079E-05	0	0	0	
0.0466667	0.00672342	-0.00202368	0.000396772	4.34073E-05	0	0	0	
0.0468333	0.0211763	0.000666912	0.00044097	4.5753E-05	0	0	0	
0.047	-0.0157973	-0.000985022	0.000449505	3.48461E-05	0	0	0	
0.0471667	-0.00593022	0.00136106	0.000435022	2.64259E-05	0	0	0	
0.0473333	-0.00507622	0.000278105	0.000349221	2.90861E-05	0	0	0	
0.0475	0.0244258	-0.00189169	0.000443991	3.6127E-05	0	0	0	
0.0476667	-0.00544278	0.00216567	0.00050566	4.13672E-05	0	0	0	
0.0478333	-0.0103263	-0.00143849	0.000390926	4.38238E-05	0	0	0	
0.048	-0.00668334	0.000375749	0.000379302	3.8136E-05	0	0	0	
0.0481667	0.0179672	0.000902566	0.000464404	2.60966E-05	0	0	0	
0.0483333	-0.00315139	-0.000196385	0.000479197	2.57224E-05	0	0	0	
0.0485	-0.00861314	-0.00232721	0.000309281	3.91132E-05	0	0	0	
0.0486667	-0.00249649	0.00311029	0.00032576	5.93176E-05	0	0	0	
0.0488333	0.0203517	-0.00180911	0.000462612	7.04715E-05	0	0	0	
0.049	-0.00156303	-0.000825614	0.000486752	7.17036E-05	0	0	0	
0.0491667	-0.0214197	0.00164744	0.000330746	6.40828E-05	0	0	0	
0.0493333	-0.00792237	0.000301916	0.000408726	4.71047E-05	0	0	0	
0.0495	0.0363093	-0.00324782	0.000655327	3.82229E-05	0	0	0	
0.0496667	-0.00949117	0.00252293	0.000728738	4.88591E-05	0	0	0	
0.0498333	-0.013718	0.000484669	0.000510982	6.74693E-05	0	0	0	
0.05	-0.00706598	-0.0031013	0.00042128	8.20061E-05	0	0	0	
0.0501667	0.0220753	0.00486957	0.000481603	8.6469E-05	0	0	0	
0.0503333	0.0019878	-0.00411705	0.000498242	9.50113E-05	0	0	0	
0.0505	-0.0198008	0.00171132	0.000345005	8.78286E-05	0	0	0	
0.0506667	-0.0097553	-0.000966142	0.000471032	6.02035E-05	0	0	0	
0.0508333	0.0284712	0.00188176	0.000643532	3.93934E-05	0	0	0	
0.051	-0.00381887	-0.00263853	0.000664447	3.64289E-05	0	0	0	
0.0511667	-0.0135946	0.00227383	0.000380119	5.16345E-05	0	0	0	
0.0513333	-0.0114133	-0.000772973	0.000364418	5.3137E-05	0	0	0	
0.0515	0.0290525	-0.00126988	0.000514672	4.71749E-05	0	0	0	
0.0516667	-0.00589346	0.00135431	0.000577033	3.88361E-05	0	0	0	
0.0518333	-0.01344	-0.000221307	0.00036811	3.44726E-05	0	0	0	
0.052	-0.00552143	-0.000387306	0.000345913	2.87379E-05	0	0	0	
0.0521667	0.0206288	-0.00021572	0.000435763	2.23444E-05	0	0	0	
0.0523333	-0.00039726	0.000991828	0.000473609	1.9725E-05	0	0	0	
0.0525	-0.00742727	0.000813276	0.00033425	1.9235E-05	0	0	0	
0.0526667	-0.0138085	-0.00231565	0.000372465	2.82082E-05	0	0	0	
0.0528333	0.0151329	0.00137902	0.000453792	3.28219E-05	0	0	0	
0.053	0.00274332	0.000655934	0.00042376	3.48685E-05	0	0	0	
0.0531667	-0.00636767	-0.00144371	0.00029134	2.91479E-05	0	0	0	
0.0533333	-0.00657659	0.000952837	0.000323321	2.8226E-05	0	0	0	
0.0535	0.00899946	0.000780387	0.000404571	3.22039E-05	0	0	0	
0.0536667	-0.00270769	-0.00208363	0.000360635	3.71536E-05	0	0	0	
0.0538333	-0.005547	0.00167875	0.000230456	3.92249E-05	0	0	0	
0.054	-0.000917232	-0.00086158	0.000235577	3.96649E-05	0	0	0	
0.0541667	0.00865238	-0.000494421	0.000344749	3.35685E-05	0	0	0	
0.0543333	-0.00543315	0.00121316	0.000399231	2.79475E-05	0	0	0	
0.0545	-0.00133093	0.00135001	0.000331934	2.57936E-05	0	0	0	
0.0546667	-0.00286483	-0.00427619	0.000259854	4.14305E-05	0	0	0	
0.0548333	0.00437973	0.00370846	0.000250291	6.79818E-05	0	0	0	
0.055	-0.00223922	-0.00116643	0.000263067	9.21397E-05	0	0	0	
0.0551667	-0.000557967	-0.000923982	0.000263375	9.59481E-05	0	0	0	
0.0553333	-0.00335321	0.00120853	0.000290629	7.97149E-05	0	0	0	
0.0555	0.00670349	-0.00131664	0.000347582	5.92894E-05	0	0	0	
0.0556667	-0.00558665	0.00100249	0.000361275	4.30368E-05	0	0	0	
0.0558333	0.000242736	-0.000487059	0.000300798	3.70735E-05	0	0	0	
0.056	0.000155423	0.000917342	0.000254649	4.12235E-05	0	0	0	
0.0561667	0.00585751	-0.00218723	0.000290231	4.79431E-05	0	0	0	
0.0563333	-0.0081039	0.0025323	0.000342568	5.40206E-05	0	0	0	
0.0565	0.00357112	-0.00297547	0.00034134	5.32615E-05	0	0	0	
0.0566667	-0.00115074	0.00231872	0.000311191	5.68994E-05	0	0	0	
0.0568333	0.00543621	0.000198932	0.000324162	5.22437E-05	0	0	0	
0.057	-0.0071256	-0.00197983	0.00035047	4.7401E-05	0	0	0	
0.0571667	0.0035572	0.00249889	0.000342505	4.51261E-05	0	0	0	
0.0573333	-0.00030086	-0.00169028	0.000295909	4.83747E-05	0	0	0	
0.0575	0.000664927	0.00191611	0.000277239	4.87523E-05	0	0	0	
0.0576667	-0.00461992	-0.00234244	0.000301655	4.20834E-05	0	0	0	
0.0578333	0.006902	0.00211397	0.00032189	4.08269E-05	0	0	0	
0.058	0.000485663	-0.0011759	0.000298648	4.3576E-05	0	0	0	
0.0581667	0.000170978	0.00150709	0.00028681	4.75751E-05	0	0	0	
0.0583333	-0.0101284	-0.000510263	0.000340361	4.99922E-05	0	0	0	
0.0585	0.0105647	-0.000647265	0.000364388	5.32991E-05	0	0	0	
0.0586667	0.00463664	-1.21743E-05	0.000292007	5.15731E-05	0	0	0	
0.0588333	-0.000596724	0.00182785	0.000223923	4.29707E-05	0	0	0	
0.059	-0.0115026	0.000125216	0.000305585	4.23927E-05	0	0	0	
0.0591667	0.00887531	-0.00308715	0.000387115	5.13396E-05	0	0	0	
0.0593333	0.00574536	0.00281306	0.000357952	6.50478E-05	0	0	0	
0.0595	-0.000442428	6.9294E-05	0.000295597	5.80112E-05	0	0	0	
0.0596667	-0.0074995	-0.00212438	0.00033021	4.44634E-05	0	0	0	
0.0598333	0.00444289	0.00341771	0.000358315	4.01426E-05	0	0	0	
0.06	0.00318443	-0.00243276	0.000312785	5.32027E-05	0	0	0	
0.0601667	0.000328161	-0.00082336	0.000290616	5.72772E-05	0	0	0	
0.0603333	-0.00275217	0.000997005	0.000345878	4.76176E-05	0	0	0	
0.0605	0.00353861	0.00107261	0.00038471	2.97931E-05	0	0	0	
0.0606667	-0.00525984	-0.00159376	0.000354718	2.67966E-05	0	0	0	
0.0608333	0.00117425	0.00175847	0.00029865	2.87872E-05	0	0	0	
0.061	0.00100453	-0.0011263	0.000272296	3.75427E-05	0	0	0	
0.0611667	0.00662101	-0.000685948	0.000310001	3.95508E-05	0	0	0	
0.0613333	-0.00893976	0.00154944	0.000358312	3.95521E-05	0	0	0	
0.0615	-0.00167019	0.000483357	0.000331854	3.04575E-05	0	0	0	
0.0616667	0.00529735	-0.00199462	0.000274502	2.94044E-05	0	0	0	
0.0618333	0.00531133	0.00163185	0.00030946	3.08945E-05	0	0	0	
0.062	-0.00558143	-1.86484E-05	0.00036607	3.3822E-05	0	0	0	
0.0621667	-0.0071075	-0.000413221	0.000341428	2.56699E-05	0	0	0	
0.0623333	0.000587549	-0.000226594	0.000318571	1.69769E-05	0	0	0	
0.0625	0.0116891	0.000558345	0.000400733	1.42168E-05	0	0	0	
0.0626667	-0.00372291	-0.0008405	0.000421412	1.88806E-05	0	0	0	
0.0628333	-0.00833895	0.000425171	0.000315202	3.13754E-05	0	0	0	
0.063	-0.00137174	-0.000139388	0.000265159	4.81761E-05	0	0	0	
0.0631667	0.00696733	-0.00109865	0.000321665	5.71324E-05	0	0	0	
0.0633333	0.00321877	0.00158488	0.000330643	5.1758E-05	0	0	0	
0.0635	-0.00605465	0.000161994	0.000286789	4.42276E-05	0	0	0	
0.0636667	-0.00730473	-0.00145089	0.000319698	4.11928E-05	0	0	0	
0.0638333	0.00784116	0.000832215	0.000369675	4.007E-05	0	0	0	
0.064	0.00382279	0.0013197	0.00031482	3.73406E-05	0	0	0	
0.0641667	-0.00506371	-0.0017758	0.000247693	3.93265E-05	0	0	0	
0.0643333	-0.0023982	0.000269347	0.000307313	4.30366E-05	0	0	0	
0.0645	0.00373033	0.00226424	0.000380264	5.36697E-05	0	0	0	
0.0646667	0.00482934	-0.00320317	0.000345534	6.40061E-05	0	0	0	
0.0648333	-0.00646413	0.00135253	0.000295966	7.05517E-05	0	0	0	
0.065	-0.00120053	0.00137723	0.000376195	6.0258E-05	0	0	0	
0.0651667	0.00796707	-0.0010469	0.000499873	4.7473E-05	0	0	0	
0.0653333	-0.00759658	-0.00130236	0.000499375	3.85999E-05	0	0	0	
0.0655	0.000387427	0.00186332	0.000370663	4.313E-05	0	0	0	
0.0656667	0.00632697	-0.000622149	0.000271342	4.03659E-05	0	0	0	
0.0658333	-0.00551029	0.000285168	0.000290582	3.18411E-05	0	0	0	
0.066	-0.000992466	0.000637026	0.000350819	1.81993E-05	0	0	0	
0.0661667	-0.00336249	0.00058918	0.000359589	1.39527E-05	0	0	0	
0.0663333	0.00359071	-0.0023044	0.000346984	2.53484E-05	0	0	0	
0.0665	0.00798795	0.00204259	0.000397997	3.95462E-05	0	0	0	
0.0666667	-0.00713078	-0.000150593	0.000421261	3.98859E-05	0	0	0	
0.0668333	-0.0113798	0.000680122	0.000344456	2.68269E-05	0	0	0	
0.067	0.00931501	-0.00106921	0.000266391	1.66241E-05	0	0	0	
0.0671667	0.00644616	0.00200349	0.000357766	1.61704E-05	0	0	0	
0.0673333	-0.00676595	-0.00264277	0.000436469	3.16098E-05	0	0	0	
0.0675	-0.00437879	0.00246285	0.000380807	4.36845E-05	0	0	0	
0.0676667	6.65834E-07	-0.000718371	0.000299144	5.43149E-05	0	0	0	
0.0678333	0.0081236	0.000687352	0.000323811	5.17194E-05	0	0	0	
0.068	7.48955E-05	-0.000678425	0.000342049	5.12318E-05	0	0	0	
0.0681667	-0.00798035	-0.00030931	0.000311018	5.27821E-05	0	0	0	
0.0683333	-0.00212788	0.000153194	0.000337954	4.95585E-05	0	0	0	
0.0685	0.0054217	-0.000356137	0.000395211	3.72649E-05	0	0	0	
0.0686667	0.00362679	-0.000144725	0.000361208	2.3308E-05	0	0	0	
0.0688333	-0.00353555	-0.000324278	0.000292279	2.08283E-05	0	0	0	
0.069	-0.00180406	0.00223415	0.000321001	3.08465E-05	0	0	0	
0.0691667	-0.00255474	-0.00248063	0.00037072	4.54522E-05	0	0	0	
0.0693333	0.00642576	0.000949149	0.000353816	4.96276E-05	0	0	0	
0.0695	-0.00201024	0.000515186	0.00032549	4.00615E-05	0	0	0	
0.0696667	-0.00202347	-0.00188253	0.000358939	3.33111E-05	0	0	0	
0.0698333	0.000544097	0.00133222	0.000372845	3.20815E-05	0	0	0	
0.07	0.000589493	3.25048E-05	0.00033605	2.98011E-05	0	0	0	
0.0701667	0.000943775	-0.000363221	0.00030792	2.0914E-05	0	0	0	
0.0703333	-0.00105773	-0.000537896	0.000312466	1.29348E-05	0	0	0	
0.0705	-0.00341051	0.00144085	0.000316094	1.38827E-05	0	0	0	
0.0706667	-0.00054489	-0.00174845	0.00032387	2.28546E-05	0	0	0	
0.0708333	0.0022576	0.000612021	0.000347439	2.87309E-05	0	0	0	
0.071	0.00136349	-0.000173207	0.000337958	2.90767E-05	0	0	0	
0.0711667	-0.00310388	0.00043153	0.000311891	2.33299E-05	0	0	0	
0.0713333	-0.00109814	-0.00135928	0.000339396	1.86239E-05	0	0	0	
0.0715	0.00142735	0.00142079	0.000387055	2.34527E-05	0	0	0	
0.0716667	0.000750119	-0.00107575	0.000355654	2.78785E-05	0	0	0	
0.0718333	-0.00551429	-0.000713437	0.000293353	3.29713E-05	0	0	0	
0.072	0.000506452	0.00093421	0.000303619	3.21589E-05	0	0	0	
0.0721667	0.00358676	0.000309016	0.00038091	2.87986E-05	0	0	0	
0.0723333	-0.00531948	-0.00103753	0.000405263	2.72105E-05	0	0	0	
0.0725	-0.000396435	0.00121097	0.000345602	2.93147E-05	0	0	0	
0.0726667	0.00368523	0.000920732	0.000271272	3.59904E-05	0	0	0	
0.0728333	-0.00171842	-0.00274532	0.000275522	4.63788E-05	0	0	0	
0.073	-0.00298743	0.00215901	0.000341203	5.41561E-05	0	0	0	
0.0731667	0.00115659	0.000426263	0.000360247	4.86351E-05	0	0	0	
0.0733333	0.00447076	-0.00169365	0.000311026	4.0237E-05	0	0	0	
0.0735	5.70432E-05	0.00145338	0.000296744	2.94183E-05	0	0	0	
0.0736667	-0.00495773	-0.00180225	0.000346044	3.14441E-05	0	0	0	
0.0738333	-0.00116076	0.000769036	0.000333208	2.86717E-05	0	0	0	
0.074	0.0111444	0.000182189	0.000273178	2.34252E-05	0	0	0	
0.0741667	-0.00539358	0.00157675	0.000296621	1.86802E-05	0	0	0	
0.0743333	-0.00709089	-0.0037844	0.000426114	2.89845E-05	0	0	0	
0.0745	0.00521138	0.00356691	0.000442724	5.09102E-05	0	0	0	
0.0746667	0.0074035	-0.0025748	0.000317265	6.87102E-05	0	0	0	
0.0748333	-0.00545285	0.00178751	0.000230877	7.36589E-05	0	0	0	
0.075	-0.00334625	-0.000690342	0.000299237	7.07496E-05	0	0	0	
0.0751667	-0.000128969	0.000422965	0.000339154	6.61963E-05	0	0	0	
0.0753333	0.012651	-0.000344738	0.000293647	6.1218E-05	0	0	0	
0.0755	-0.00938698	7.32731E-05	0.0002651	5.82052E-05	0	0	0	
0.0756667	-0.0022405	0.00134816	0.000378654	5.95625E-05	0	0	0	
0.0758333	0.00559681	-0.00223632	0.000444155	6.06055E-05	0	0	0	
0.076	0.00712594	0.00196603	0.000383796	5.80126E-05	0	0	0	
0.0761667	-0.00476728	-0.000294047	0.000279012	4.34739E-05	0	0	0	
0.0763333	0.00165712	0.0018693	0.000272645	3.31491E-05	0	0	0	
0.0765	-0.000249734	-0.00421354	0.00031977	4.02284E-05	0	0	0	
0.0766667	0.00111969	0.00261368	0.000351403	6.26552E-05	0	0	0	
0.0768333	0.000582189	-0.000300315	0.000324619	7.02768E-05	0	0	0	
0.077	0.00781529	-0.000755823	0.000292522	5.24331E-05	0	0	0	
0.0771667	-0.00128164	0.00168821	0.00032009	3.47747E-05	0	0	0	
0.0773333	-0.00943676	-0.000514979	0.000386538	3.03319E-05	0	0	0	
0.0775	-0.00234529	-0.00219775	0.000355679	3.74228E-05	0	0	0	
0.0776667	0.0144805	0.00166231	0.000298132	4.45334E-05	0	0	0	
0.0778333	0.00462703	0.000939435	0.000365794	4.69877E-05	0	0	0	
0.078	-0.0106152	-0.0021486	0.000475048	4.94252E-05	0	0	0	
0.0781667	-0.00890959	-1.99099E-05	0.000417494	4.83302E-05	0	0	0	
0.0783333	0.013272	0.00294459	0.000312806	5.32981E-05	0	0	0	
0.0785	0.011362	-0.00360627	0.000390177	6.19172E-05	0	0	0	
0.0786667	-0.00731169	0.00226419	0.000468109	6.53522E-05	0	0	0	
0.0788333	-0.0119641	-0.000215733	0.000387281	6.14602E-05	0	0	0	
0.079	0.0065763	-0.00153281	0.000295464	5.0974E-05	0	0	0	
0.0791667	0.00706174	3.45129E-05	0.000356102	3.849E-05	0	0	0	
0.0793333	0.0019964	0.00162644	0.000376107	3.06036E-05	0	0	0	
0.0795	-0.0052567	-0.00167222	0.000313234	2.94828E-05	0	0	0	
0.0796667	-0.00338061	0.00100581	0.000319902	3.27072E-05	0	0	0	
0.0798333	0.00502713	-0.000365539	0.000385439	3.27565E-05	0	0	0	
0.08	0.0061762	-0.000844593	0.000353993	2.46112E-05	0	0	0	
0.0801667	-0.00867191	0.000447123	0.000256167	1.83248E-05	0	0	0	
0.0803333	0.00443615	0.000275675	0.000246168	1.40906E-05	0	0	0	
0.0805	-0.00254399	-0.000579966	0.000317163	1.36748E-05	0	0	0	
0.0806667	0.00256051	0.000224423	0.000364183	1.08922E-05	0	0	0	
0.0808333	0.00259896	0.000672757	0.000386905	9.62006E-06	0	0	0	
0.081	-0.00536432	-0.000418584	0.000387188	8.09044E-06	0	0	0	
0.0811667	0.00330468	-8.51174E-05	0.000329774	8.00374E-06	0	0	0	
0.0813333	0.00758588	-0.000584334	0.000229457	7.57919E-06	0	0	0	
0.0815	-0.011103	0.001217	0.000174086	1.07127E-05	0	0	0	
0.0816667	0.00796901	-0.00121672	0.000241085	1.70736E-05	0	0	0	
0.0818333	0.00293816	0.00147949	0.000386937	2.07389E-05	0	0	0	
0.082	-0.00510112	-0.00206734	0.000450119	2.84235E-05	0	0	0	
0.0821667	-0.00391803	0.00190701	0.000378939	3.69199E-05	0	0	0	
0.0823333	0.00636821	-0.00122498	0.000302621	5.22836E-05	0	0	0	
0.0825	0.00526788	0.000182035	0.000323194	6.09689E-05	0	0	0	
0.0826667	0.000587592	0.000458159	0.000346974	6.42954E-05	0	0	0	
0.0828333	-0.00991897	-0.000405902	0.000313159	5.6792E-05	0	0	0	
0.083	0.00264419	-0.00136124	0.000309571	4.07925E-05	0	0	0	
0.0831667	0.00377986	0.00103898	0.000360882	3.14803E-05	0	0	0	
0.0833333	0.00811273	-0.000640722	0.000337037	3.28587E-05	0	0	0	
0.0835	-0.0113638	-0.00100154	0.000296366	4.46172E-05	0	0	0	
0.0836667	-0.0010908	0.00196705	0.000341502	5.18825E-05	0	0	0	
0.0838333	-0.00290285	-0.000876225	0.000386948	4.64618E-05	0	0	0	
0.084	0.0134439	0.000441647	0.000359087	3.56332E-05	0	0	0	
0.0841667	-0.00314324	-0.000130159	0.000353955	1.99966E-05	0	0	0	
0.0843333	-0.0059775	-6.97199E-06	0.000419726	1.68604E-05	0	0	0	
0.0845	-0.00742744	-0.00206107	0.00037742	2.55202E-05	0	0	0	
0.0846667	0.0149613	0.00242045	0.000299452	4.34456E-05	0	0	0	
0.0848333	-0.000664695	0.000686641	0.000330292	4.68962E-05	0	0	0	
0.085	-0.00230149	-0.00163163	0.000401671	4.06428E-05	0	0	0	
0.0851667	-0.013156	0.000499187	0.000355818	3.11578E-05	0	0	0	
0.0853333	0.0112918	0.00165389	0.000308029	2.94623E-05	0	0	0	
0.0855	0.00678089	-0.00216828	0.000385712	3.36221E-05	0	0	0	
0.0856667	-0.00190025	0.000566133	0.000392399	3.84526E-05	0	0	0	
0.0858333	-0.0200229	0.00177379	0.000311102	4.34941E-05	0	0	0	
0.086	0.0179828	-0.00306265	0.00028795	5.07747E-05	0	0	0	
0.0861667	0.0131125	0.000618686	0.000560866	5.251E-05	0	0	0	
0.0863333	-0.0334141	0.00224738	0.000740559	5.40119E-05	0	0	0	
0.0865	0.00852166	-0.00106874	0.000697506	4.67811E-05	0	0	0	
0.0866667	0.00996677	-0.00158874	0.000423695	3.97917E-05	0	0	0	
0.0868333	0.005198	0.0023491	0.000347971	4.72173E-05	0	0	0	
0.087	-0.00590895	-0.001853	0.000338173	5.46576E-05	0	0	0	
0.0871667	-0.0270731	0.000499299	0.000362911	6.00382E-05	0	0	0	
0.0873333	0.0245547	0.00176053	0.000401458	4.886E-05	0	0	0	
0.0875	0.0222411	-0.00257117	0.000787871	4.32838E-05	0	0	0	
0.0876667	-0.0394679	0.000335133	0.00101009	3.89869E-05	0	0	0	
0.0878333	-0.00111587	-0.000141939	0.00093671	3.78702E-05	0	0	0	
0.088	0.0248129	0.000664965	0.000514744	3.89572E-05	0	0	0	
0.0881667	0.00304248	-0.000213976	0.000473062	3.99534E-05	0	0	0	
0.0883333	-0.0123047	0.00195673	0.000509989	4.1871E-05	0	0	0	
0.0885	-0.0134776	-0.00200979	0.000482431	4.06627E-05	0	0	0	
0.0886667	0.015084	-0.000353081	0.000332127	3.89903E-05	0	0	0	
0.0888333	0.00901911	0.0014552	0.000401493	3.81127E-05	0	0	0	
0.089	-0.00776713	-0.000419057	0.000474186	3.60439E-05	0	0	0	
0.0891667	-0.0129745	-0.000729948	0.000399973	3.66586E-05	0	0	0	
0.0893333	0.0178659	0.00189989	0.00027872	3.75704E-05	0	0	0	
0.0895	-0.00248359	-0.00148483	0.000369869	3.99003E-05	0	0	0	
0.0896667	-0.00551037	-0.000787136	0.000481107	4.4961E-05	0	0	0	
0.0898333	-0.00273056	0.00105244	0.000415207	4.76888E-05	0	0	0	
0.09	0.0114483	-4.45181E-05	0.000282293	3.63327E-05	0	0	0	
0.0901667	-0.00579074	-0.0015322	0.000269716	2.70159E-05	0	0	0	
0.0903333	-0.000754086	0.00170963	0.000372276	2.40123E-05	0	0	0	
0.0905	-0.0028005	-0.000280851	0.000380613	3.19396E-05	0	0	0	
0.0906667	0.00828721	-0.00281339	0.000300578	4.0952E-05	0	0	0	
0.0908333	-0.00764265	0.00390857	0.000256667	5.81253E-05	0	0	0	
0.091	0.0023155	-0.00193732	0.000313744	6.64504E-05	0	0	0	
0.0911667	-0.00486259	0.000442172	0.000351899	6.08553E-05	0	0	0	
0.0913333	0.0120106	-0.000212114	0.000337138	3.52182E-05	0	0	0	
0.0915	-0.00871425	0.000145971	0.000352126	1.76369E-05	0	0	0	
0.0916667	-0.00336804	-0.00250807	0.000413093	2.06354E-05	0	0	0	
0.0918333	-0.00308465	0.00362461	0.000367473	4.15686E-05	0	0	0	
0.092	0.0173255	-0.000813068	0.00028637	6.13994E-05	0	0	0	
0.0921667	-0.0109913	-0.000170229	0.000291608	6.21028E-05	0	0	0	
0.0923333	1.2112E-05	0.000594213	0.000419668	5.15784E-05	0	0	0	
0.0925	-0.00490845	-0.00112081	0.000418794	4.33509E-05	0	0	0	
0.0926667	0.0147625	0.000651028	0.00035391	4.13495E-05	0	0	0	
0.0928333	-0.00528764	0.000509753	0.000312164	3.34614E-05	0	0	0	
0.093	0.00236009	-7.62085E-05	0.000368466	2.65738E-05	0	0	0	
0.0931667	-0.00334571	-0.00166011	0.000360143	2.87727E-05	0	0	0	
0.0933333	0.00647487	0.00367255	0.000328352	4.5062E-05	0	0	0	
0.0935	-0.00460918	-0.00348966	0.000284937	6.44121E-05	0	0	0	
0.0936667	0.0115884	0.00234223	0.000291035	7.03177E-05	0	0	0	
0.0938333	-0.00565305	-0.00167163	0.000318937	6.37058E-05	0	0	0	
0.094	0.00375293	0.000587811	0.00035745	4.43315E-05	0	0	0	
0.0941667	-0.0110471	-0.00127073	0.000333988	2.70707E-05	0	0	0	
0.0943333	0.0167214	0.00184731	0.000338201	2.41503E-05	0	0	0	
0.0945	8.94438E-05	-2.41599E-06	0.000422422	3.13618E-05	0	0	0	
0.0946667	-0.00249357	-0.00197427	0.000468988	4.37089E-05	0	0	0	
0.0948333	-0.0143157	0.000967301	0.000380273	4.21516E-05	0	0	0	
0.095	0.0142349	-0.000698297	0.000308724	3.34231E-05	0	0	0	
0.0951667	0.0051082	0.0013736	0.000374363	2.99303E-05	0	0	0	
0.0953333	0.00376393	-0.00172849	0.000372394	3.32735E-05	0	0	0	
0.0955	-0.0201507	0.00138195	0.000306962	4.14992E-05	0	0	0	
0.0956667	0.00923445	0.00056585	0.000299845	4.7903E-05	0	0	0	
0.0958333	0.0040936	-0.00184177	0.000421638	5.38924E-05	0	0	0	
0.096	0.0115153	0.00111595	0.000397902	5.373E-05	0	0	0	
0.0961667	-0.0140421	-0.000200454	0.000321967	4.62934E-05	0	0	0	
0.0963333	-0.00163261	-0.000900647	0.000351429	3.79866E-05	0	0	0	
0.0965	0.00129753	-0.000200053	0.000408333	3.47976E-05	0	0	0	
0.0966667	0.0167945	0.00265565	0.000375216	3.92922E-05	0	0	0	
0.0968333	-0.0108633	-0.00400699	0.000328489	5.26064E-05	0	0	0	
0.097	-0.00175639	0.00295043	0.000404974	6.85648E-05	0	0	0	
0.0971667	-0.00940504	-0.00211597	0.000395741	7.32604E-05	0	0	0	
0.0973333	0.0265844	0.00233762	0.000366144	6.42365E-05	0	0	0	
0.0975	-0.0116224	-0.00105183	0.000408136	4.8273E-05	0	0	0	
0.0976667	-0.00772614	-0.000490943	0.000598101	3.39243E-05	0	0	0	
0.0978333	0.000177571	0.000742834	0.000547214	2.52291E-05	0	0	0	
0.098	0.0139494	-0.000799938	0.000373344	1.90656E-05	0	0	0	
0.0981667	-0.00819094	0.00135859	0.000244771	2.3278E-05	0	0	0	
0.0983333	0.007752	-0.000331338	0.000290713	2.92135E-05	0	0	0	
0.0985	-0.0145882	0.000446993	0.000323648	3.26481E-05	0	0	0	
0.0986667	0.0160619	-0.00123463	0.00032894	2.9099E-05	0	0	0	
0.0988333	-0.00835788	0.000704253	0.000371833	2.83409E-05	0	0	0	
0.099	0.00350822	0.00125922	0.000443705	3.73209E-05	0	0	0	
0.0991667	0.00170366	-0.00221373	0.000436387	5.76261E-05	0	0	0	
0.0993333	0.00912909	0.00309638	0.000340096	7.89163E-05	0	0	0	
0.0995	-0.0174357	-0.00311517	0.000284167	9.18025E-05	0	0	0	
0.0996667	0.00727813	0.00175286	0.000338741	8.3223E-05	0	0	0	
0.0998333	0.00304698	-0.000785529	0.000426775	5.80278E-05	0	0	0	
0.1	0.0112288	0.00137569	0.000364313	3.31097E-05	0	0	0	
0.100167	-0.0180478	-0.000944368	0.000301879	2.32422E-05	0	0	0	
0.100333	0.000449975	0.000853841	0.000347322	2.04726E-05	0	0	0	
0.1005	0.00101765	-0.00167828	0.000420475	2.42351E-05	0	0	0	
0.100667	0.0163256	0.00228228	0.000365264	3.41427E-05	0	0	0	
0.100833	-0.0165172	0.000326036	0.000316043	4.48679E-05	0	0	0	
0.101	0.00345879	-0.00238654	0.000372205	5.58358E-05	0	0	0	
0.101167	-0.00800456	0.00235593	0.00039092	5.74102E-05	0	0	0	
0.101333	0.0168379	-0.00182683	0.00033659	5.44033E-05	0	0	0	
0.1015	-0.0073648	0.00150412	0.000328762	4.49198E-05	0	0	0	
0.101667	-0.000419795	0.00120317	0.000397174	3.12197E-05	0	0	0	
0.101833	-0.010666	-0.000924263	0.000369663	2.78353E-05	0	0	0	
0.102	0.0181202	-0.000540626	0.00031248	2.14687E-05	0	0	0	
0.102167	-0.00949741	0.00139438	0.000325397	2.42618E-05	0	0	0	
0.102333	0.00122511	-7.13764E-05	0.000416841	2.1333E-05	0	0	0	
0.1025	-0.00516589	-0.000244191	0.0003979	1.97082E-05	0	0	0	
0.102667	0.0108035	0.00168514	0.000324411	1.77707E-05	0	0	0	
0.102833	-0.0071656	-0.00106665	0.000292009	2.58813E-05	0	0	0	
0.103	0.00221023	-0.00158028	0.00032429	3.84109E-05	0	0	0	
0.103167	-0.0055155	0.0023801	0.000301591	4.94831E-05	0	0	0	
0.103333	0.0155651	-0.000868808	0.000254804	4.67599E-05	0	0	0	
0.1035	-0.0180476	-0.000262356	0.00027743	3.43931E-05	0	0	0	
0.103667	0.0102777	3.68091E-06	0.000377681	1.68131E-05	0	0	0	
0.103833	-0.0045246	9.03367E-05	0.000434837	6.38585E-06	0	0	0	
0.104	0.00844266	-0.00170979	0.000397838	8.54004E-06	0	0	0	
0.104167	-0.00930826	0.00342327	0.000342322	2.9117E-05	0	0	0	
0.104333	0.0059098	-0.00345521	0.000314037	6.07586E-05	0	0	0	
0.1045	-0.00683862	0.000554596	0.000304401	8.99102E-05	0	0	0	
0.104667	0.0106517	0.00119002	0.00028142	9.50591E-05	0	0	0	
0.104833	-0.0112352	-0.00207521	0.0002693	8.39962E-05	0	0	0	
0.105	0.00719937	0.00169279	0.000287842	6.77559E-05	0	0	0	
0.105167	-0.00853812	-0.00188132	0.000325136	6.01117E-05	0	0	0	
0.105333	0.00920239	0.00108713	0.000317897	5.61621E-05	0	0	0	
0.1055	-0.0120544	-0.00210922	0.000294099	6.31412E-05	0	0	0	
0.105667	0.0107431	0.00355404	0.000303351	7.39139E-05	0	0	0	
0.105833	-0.00492059	-0.00279096	0.000354664	7.99137E-05	0	0	0	
0.106	0.00464729	0.000810574	0.000375014	7.02935E-05	0	0	0	
0.106167	-0.00890291	-0.000264048	0.00034412	4.78676E-05	0	0	0	
0.106333	0.0101582	0.000544033	0.000314708	2.50256E-05	0	0	0	
0.1065	-0.00797945	-0.0013949	0.000304292	1.6901E-05	0	0	0	
0.106667	0.00990373	0.00078397	0.000319028	1.70902E-05	0	0	0	
0.106833	-0.0095524	0.000264723	0.000329512	1.97001E-05	0	0	0	
0.107	0.0122617	-0.00120213	0.000348704	2.05194E-05	0	0	0	
0.107167	-0.0146884	0.00195395	0.000359256	2.59813E-05	0	0	0	
0.107333	0.010309	-0.00140621	0.000373545	3.71653E-05	0	0	0	
0.1075	-0.00379448	-0.00080649	0.000397341	4.16689E-05	0	0	0	
0.107667	0.00621461	0.00103014	0.000387292	3.91355E-05	0	0	0	
0.107833	-0.00817456	-0.000235628	0.000341825	3.12267E-05	0	0	0	
0.108	0.0073379	-0.00137428	0.000298998	2.63491E-05	0	0	0	
0.108167	-0.00743551	0.00273416	0.000280071	3.13424E-05	0	0	0	
0.108333	0.0100079	-0.00126109	0.000265352	4.40317E-05	0	0	0	
0.1085	-0.0140938	-0.00138888	0.000257416	5.10758E-05	0	0	0	
0.108667	0.0139533	0.00183114	0.000305097	5.29071E-05	0	0	0	
0.108833	-0.0105855	9.41973E-05	0.000361984	3.66709E-05	0	0	0	
0.109	0.0103273	-0.000500095	0.00037765	2.82723E-05	0	0	0	
0.109167	-0.00936117	0.000259433	0.000352729	2.20484E-05	0	0	0	
0.109333	0.00483486	0.00108677	0.000342848	3.25108E-05	0	0	0	
0.1095	-0.00318346	-0.00269681	0.000320853	4.61532E-05	0	0	0	
0.109667	0.00933929	0.0025764	0.00026414	5.72795E-05	0	0	0	
0.109833	-0.0179143	-0.00111769	0.000240034	5.36788E-05	0	0	0	
0.11	0.0117277	0.00201971	0.000277817	4.75146E-05	0	0	0	
0.110167	-0.00525586	-0.00255386	0.000327338	4.45483E-05	0	0	0	
0.110333	0.0141499	0.00163543	0.000311485	4.85346E-05	0	0	0	
0.1105	-0.0179981	-0.000100262	0.000294867	4.22115E-05	0	0	0	
0.110667	0.00502734	0.000746922	0.000323645	3.03996E-05	0	0	0	
0.110833	-0.00458628	-0.0015411	0.0003316	2.15189E-05	0	0	0	
0.111	0.0172558	0.00155974	0.000306542	3.20682E-05	0	0	0	
0.111167	-0.0117589	-0.000164251	0.000294304	3.25902E-05	0	0	0	
0.111333	0.000860116	-7.43315E-05	0.000344071	3.75512E-05	0	0	0	
0.1115	-0.0047127	-0.00080428	0.000297173	3.67772E-05	0	0	0	
0.111667	0.0137393	0.00304685	0.000237116	4.04336E-05	0	0	0	
0.111833	-0.0379852	-0.00119807	0.000257332	4.84446E-05	0	0	0	
0.112	0.07547	-0.00833705	0.000544788	6.5874E-05	0	0	0	
0.112167	-0.0837079	0.0231189	0.00154606	0.000182389	0	0	0	
0.112333	0.176103	-0.0216232	0.00364234	0.000341453	0	0	0	
0.1125	0.0149963	0.00490917	0.0045812	0.000383155	0	0	0	
0.112667	-0.0252403	0.00420595	0.00381848	0.000298162	0	0	0	
0.112833	-0.00397899	-0.00292902	0.00163181	0.000161226	0	0	0	
0.113	0.0381903	-0.00365373	0.000499288	0.000120633	0	0	0	
0.113167	-0.118532	0.0183649	0.000604351	0.000150879	0	0	0	
0.113333	0.260141	-0.0239875	0.00182937	0.00024245	0	0	0	
0.1135	-0.136373	0.00953168	0.0034656	0.000310979	0	0	0	
0.113667	0.0307795	-0.00426112	0.00354076	0.000290923	0	0	0	
0.113833	0.0121427	0.00292844	0.00263642	0.000218633	0	0	0	
0.114	-0.00498011	-0.00833432	0.00105352	0.00016555	0	0	0	
0.114167	-0.0214152	0.0135226	0.00064807	0.000185392	0	0	0	
0.114333	0.0300237	-0.0157367	0.0004136	0.000222023	0	0	0	
0.1145	0.00113936	0.0115809	0.00063888	0.000260495	0	0	0	
0.114667	-0.0274838	-0.00810059	0.000933073	0.000253631	0	0	0	
0.114833	0.00438229	0.00760424	0.000889048	0.000206188	0	0	0	
0.115	0.0293184	-0.00526427	0.000581929	0.000158921	0	0	0	
0.115167	0.00311444	-1.25035E-05	0.000496268	0.000112787	0	0	0	
0.115333	-0.149835	0.0292022	0.000672526	0.000135732	0	0	0	
0.1155	0.0800155	-0.013757	0.00140765	0.000256704	0	0	0	
0.115667	-0.0799232	0.0113226	0.00209028	0.000370847	0	0	0	
0.115833	0.00915276	0.000136962	0.0020331	0.000313321	0	0	0	
0.116	0.000539438	-0.00464831	0.00121429	0.000190494	0	0	0	
0.116167	-0.00920779	0.000883394	0.000302671	0.000113888	0	0	0	
0.116333	0.00625477	0.00690486	0.000124779	0.00015194	0	0	0	
0.1165	-0.00246792	-0.00523905	0.000566605	0.000247909	0	0	0	
0.116667	-0.0909438	0.0103615	0.00126306	0.000254711	0	0	0	
0.116833	-0.0126259	0.00234004	0.00202821	0.000270165	0	0	0	
0.117	-0.00149073	0.00259658	0.00180452	0.000154265	0	0	0	
0.117167	2.21746E-06	-0.00835661	0.00112035	0.00014498	0	0	0	
0.117333	0.00152321	0.0112883	0.000403596	0.000150472	0	0	0	
0.1175	-0.00470722	-0.0100868	0.0002292	0.000204057	0	0	0	
0.117667	0.0129777	0.00773162	0.000206023	0.000208956	0	0	0	
0.117833	0.00459152	-0.00629085	0.000397308	0.000173718	0	0	0	
0.118	0.00589667	0.00396943	0.000495153	0.000136889	0	0	0	
0.118167	-0.0231725	-0.00376977	0.000570571	0.00011143	0	0	0	
0.118333	0.0310827	0.00216087	0.000437521	0.000106946	0	0	0	
0.1185	-0.0161941	0.000286544	0.00048205	9.38404E-05	0	0	0	
0.118667	0.00550389	-0.00182436	0.000483707	7.78955E-05	0	0	0	
0.118833	-0.0336097	0.00173604	0.000442528	5.68725E-05	0	0	0	
0.119	-0.00730485	-0.00155864	0.000491711	4.61802E-05	0	0	0	
0.119167	-0.00613776	0.00286499	0.000442686	4.70092E-05	0	0	0	
0.119333	0.0113041	-0.00190146	0.000413858	5.34557E-05	0	0	0	
0.1195	-0.0169888	0.000188086	0.000265489	4.57797E-05	0	0	0	
0.119667	0.0151375	0.000346903	0.000305738	2.93897E-05	0	0	0	
0.119833	-0.0127954	-0.00192565	0.000322539	1.64028E-05	0	0	0	
0.12	0.0189901	0.00235919	0.00033216	2.84454E-05	0	0	0	
0.120167	-0.0155644	-0.00253872	0.000351678	4.48215E-05	0	0	0	
0.120333	0.0121483	0.00249322	0.00036908	6.14314E-05	0	0	0	
0.1205	-0.0165124	-0.00231132	0.000357567	6.59307E-05	0	0	0	
0.120667	0.020888	0.000893183	0.000342664	6.03066E-05	0	0	0	
0.120833	-0.0152948	0.000697196	0.000358233	3.99825E-05	0	0	0	
0.121	0.0133315	-0.00110202	0.000373035	2.75837E-05	0	0	0	
0.121167	-0.0161303	0.000278559	0.000363116	2.88414E-05	0	0	0	
0.121333	0.0162716	0.00108875	0.000354133	3.52767E-05	0	0	0	
0.1215	-0.0139068	-0.00060904	0.000370523	3.46245E-05	0	0	0	
0.121667	0.0110265	-0.000209874	0.000379021	2.49525E-05	0	0	0	
0.121833	-0.00827044	-0.000847948	0.000343655	1.9462E-05	0	0	0	
0.122	0.0150235	0.00125389	0.000297472	1.80389E-05	0	0	0	
0.122167	-0.0183842	-0.00126904	0.000294898	2.33042E-05	0	0	0	
0.122333	0.0137177	0.000206665	0.000337837	2.74839E-05	0	0	0	
0.1225	-0.010583	0.000486902	0.000369772	2.19915E-05	0	0	0	
0.122667	0.015561	-0.0018328	0.000345668	2.5472E-05	0	0	0	
0.122833	-0.0186639	0.000871524	0.000327837	3.01267E-05	0	0	0	
0.123	0.0139383	0.000560336	0.000338048	3.90972E-05	0	0	0	
0.123167	-0.0126339	-0.000518783	0.000353376	3.64222E-05	0	0	0	
0.123333	0.019502	-0.000635866	0.000346269	3.21048E-05	0	0	0	
0.1235	-0.0178339	-2.559E-05	0.000349649	3.40901E-05	0	0	0	
0.123667	0.00990427	0.000236181	0.000387224	3.68253E-05	0	0	0	
0.123833	-0.00892229	-0.000341166	0.000377034	3.63815E-05	0	0	0	
0.124	0.0146982	0.00117201	0.00032778	3.00989E-05	0	0	0	
0.124167	-0.0142564	-0.00236802	0.000281203	3.35088E-05	0	0	0	
0.124333	0.0113893	0.00150278	0.000291785	3.96571E-05	0	0	0	
0.1245	-0.0133227	-0.00151011	0.000301255	4.28301E-05	0	0	0	
0.124667	0.0192645	0.00293069	0.000301442	4.43222E-05	0	0	0	
0.124833	-0.016008	-0.00160548	0.000334615	4.63309E-05	0	0	0	
0.125	0.00514914	0.000156457	0.000374875	4.29566E-05	0	0	0	
0.125167	-0.00726148	-0.00165472	0.000342378	2.9243E-05	0	0	0	
0.125333	0.0186701	0.00156516	0.000288369	2.29623E-05	0	0	0	
0.1255	-0.0220665	-0.00100722	0.000281546	2.3558E-05	0	0	0	
0.125667	0.00799668	0.00129421	0.000370305	2.67879E-05	0	0	0	
0.125833	-0.00425585	-0.000409019	0.000379842	2.99537E-05	0	0	0	
0.126	0.0204192	-0.00069193	0.0003387	3.06342E-05	0	0	0	
0.126167	-0.0259502	0.001199	0.000326502	3.01288E-05	0	0	0	
0.126333	0.00596848	-0.00183585	0.000427225	2.6228E-05	0	0	0	
0.1265	-0.000270913	0.00109702	0.000412198	3.09248E-05	0	0	0	
0.126667	0.023616	0.000594497	0.000352998	3.44539E-05	0	0	0	
0.126833	-0.0246155	-0.0010686	0.000311347	3.75707E-05	0	0	0	
0.127	0.00509055	0.000126994	0.000425187	2.89896E-05	0	0	0	
0.127167	-0.00981533	0.000279788	0.000409294	1.91059E-05	0	0	0	
0.127333	0.0238998	-0.00092847	0.000359997	1.03146E-05	0	0	0	
0.1275	-0.0162634	0.00059846	0.000321496	1.6006E-05	0	0	0	
0.127667	0.0101595	0.00182069	0.000384897	2.77476E-05	0	0	0	
0.127833	-0.0161771	-0.00281097	0.000379822	4.25874E-05	0	0	0	
0.128	0.0140656	0.00119288	0.000352291	4.77386E-05	0	0	0	
0.128167	-0.00894169	-6.54277E-05	0.000317451	3.85076E-05	0	0	0	
0.128333	0.0215447	-0.000511966	0.000330284	2.1148E-05	0	0	0	
0.1285	-0.0214227	0.00129944	0.000354894	1.26764E-05	0	0	0	
0.128667	0.0124916	-0.000231603	0.000401004	1.89E-05	0	0	0	
0.128833	-0.0136167	-0.000878893	0.00039845	2.42106E-05	0	0	0	
0.129	0.0217535	0.000276121	0.000378821	2.53127E-05	0	0	0	
0.129167	-0.0144471	0.000960237	0.000369224	1.98676E-05	0	0	0	
0.129333	0.010811	-0.000614078	0.000403017	2.14238E-05	0	0	0	
0.1295	-0.0112709	0.000628189	0.000373451	1.78359E-05	0	0	0	
0.129667	0.0215715	-0.00122471	0.00034433	2.38157E-05	0	0	0	
0.129833	-0.0261205	-0.000217167	0.000344723	2.38927E-05	0	0	0	
0.13	0.0175077	0.00197622	0.000441247	3.24654E-05	0	0	0	
0.130167	-0.00609639	-0.00092722	0.000482494	3.62445E-05	0	0	0	
0.130333	0.00777397	-0.00142964	0.000400075	4.10487E-05	0	0	0	
0.1305	-0.0165335	0.00052737	0.000293726	3.71711E-05	0	0	0	
0.130667	0.0187629	-0.000378299	0.00026576	2.88245E-05	0	0	0	
0.130833	-0.0113818	-0.000722505	0.000323461	2.26829E-05	0	0	0	
0.131	0.0117991	0.00183256	0.00033116	2.33859E-05	0	0	0	
0.131167	-0.0235863	-0.00132782	0.000321446	3.10531E-05	0	0	0	
0.131333	0.0216716	-0.00152402	0.000350539	3.46616E-05	0	0	0	
0.1315	-0.00698271	0.00239628	0.000425472	4.37225E-05	0	0	0	
0.131667	0.00952783	0.000503365	0.000399589	3.93368E-05	0	0	0	
0.131833	-0.0268455	-0.0016579	0.000367401	3.88761E-05	0	0	0	
0.132	0.021522	0.000785413	0.000364126	3.05832E-05	0	0	0	
0.132167	0.00158789	-0.000437025	0.000467347	2.64975E-05	0	0	0	
0.132333	0.00446625	0.00135444	0.000390634	2.0626E-05	0	0	0	
0.1325	-0.0242105	-0.00209787	0.000332463	2.28074E-05	0	0	0	
0.132667	0.022372	0.00107246	0.000300153	2.9534E-05	0	0	0	
0.132833	-0.00597049	-0.000426009	0.000386787	3.05369E-05	0	0	0	
0.133	0.013344	-0.000413568	0.000352207	1.95723E-05	0	0	0	
0.133167	-0.0220425	0.000558435	0.00030836	1.33274E-05	0	0	0	
0.133333	0.0154841	0.000228007	0.000316966	1.9391E-05	0	0	0	
0.1335	-0.0098055	-0.00119623	0.000375684	2.9682E-05	0	0	0	
0.133667	0.0139554	0.000269679	0.000357669	3.22296E-05	0	0	0	
0.133833	-0.0138672	0.00129098	0.000312112	3.19869E-05	0	0	0	
0.134	0.0145356	-0.000364377	0.00028589	2.91025E-05	0	0	0	
0.134167	-0.0155695	-0.000781075	0.000297173	2.8172E-05	0	0	0	
0.134333	0.0160292	0.000383093	0.000311986	2.57858E-05	0	0	0	
0.1345	-0.0152535	-0.000742892	0.000324724	2.70016E-05	0	0	0	
0.134667	0.0166072	0.000780475	0.000333615	2.86071E-05	0	0	0	
0.134833	-0.0167591	-0.00183541	0.000340943	3.22696E-05	0	0	0	
0.135	0.0126436	0.00191187	0.000344856	3.32532E-05	0	0	0	
0.135167	-0.012631	-0.00129456	0.000331571	3.56782E-05	0	0	0	
0.135333	0.0202953	-1.50709E-05	0.000318911	2.88235E-05	0	0	0	
0.1355	-0.0218583	-0.000451666	0.000337064	2.18434E-05	0	0	0	
0.135667	0.0119104	0.000882189	0.000385207	1.92904E-05	0	0	0	
0.135833	-0.00794129	-6.79856E-06	0.000377493	1.88535E-05	0	0	0	
0.136	0.018827	-0.0013656	0.000332137	2.16199E-05	0	0	0	
0.136167	-0.0235496	0.000659339	0.000315145	2.11237E-05	0	0	0	
0.136333	0.0122781	6.529E-05	0.000376433	2.18722E-05	0	0	0	
0.1365	-0.00791722	0.00159677	0.00038064	1.94401E-05	0	0	0	
0.136667	0.0199095	-0.000541626	0.000340856	1.96255E-05	0	0	0	
0.136833	-0.0229599	-0.000895457	0.000321399	2.04254E-05	0	0	0	
0.137	0.0134907	0.00112605	0.000379768	2.65746E-05	0	0	0	
0.137167	-0.0132904	-0.000448944	0.000401097	3.12637E-05	0	0	0	
0.137333	0.0208171	8.2358E-05	0.000378427	3.57375E-05	0	0	0	
0.1375	-0.0197321	0.000903129	0.000355646	3.20872E-05	0	0	0	
0.137667	0.013826	-0.000239608	0.000371245	2.8953E-05	0	0	0	
0.137833	-0.0130196	-0.00109486	0.000365319	2.9945E-05	0	0	0	
0.138	0.0152497	0.00274308	0.000334091	4.11265E-05	0	0	0	
0.138167	-0.0193018	-0.00255682	0.000324436	5.3745E-05	0	0	0	
0.138333	0.0208539	0.000493499	0.000349883	5.13121E-05	0	0	0	
0.1385	-0.0110971	-0.000508492	0.000365708	4.50583E-05	0	0	0	
0.138667	0.0126344	0.00079133	0.000338852	3.58068E-05	0	0	0	
0.138833	-0.0213995	-0.000391798	0.000316571	3.38663E-05	0	0	0	
0.139	0.0224515	0.000922932	0.000340024	2.59033E-05	0	0	0	
0.139167	-0.0128744	-0.00228211	0.000395098	2.37066E-05	0	0	0	
0.139333	0.0140274	0.00242502	0.000379995	3.09149E-05	0	0	0	
0.1395	-0.0214065	-0.00275232	0.000360638	4.3052E-05	0	0	0	
0.139667	0.0183238	0.00194036	0.000351213	4.99938E-05	0	0	0	
0.139833	-0.00975511	-0.000106232	0.000364602	4.16676E-05	0	0	0	
0.14	0.0166302	4.73336E-05	0.000330424	2.64426E-05	0	0	0	
0.140167	-0.0229142	-4.60272E-05	0.000319013	9.50628E-06	0	0	0	
0.140333	0.0146783	0.000802754	0.000341555	5.39409E-06	0	0	0	
0.1405	-0.00856384	-0.00210084	0.000361689	1.42024E-05	0	0	0	
0.140667	0.0121147	0.00208992	0.000312561	2.92267E-05	0	0	0	
0.140833	-0.017748	-0.000560191	0.000276062	3.6775E-05	0	0	0	
0.141	0.0174625	0.000519969	0.000285674	3.06762E-05	0	0	0	
0.141167	-0.0133766	-0.000273141	0.000319165	1.63891E-05	0	0	0	
0.141333	0.0169447	0.000262888	0.000323401	1.10286E-05	0	0	0	
0.1415	-0.0211758	-0.000288801	0.000326523	1.82655E-05	0	0	0	
0.141667	0.0120733	-0.000770597	0.000351848	3.18415E-05	0	0	0	
0.141833	-0.00864099	0.000871429	0.000354404	3.90116E-05	0	0	0	
0.142	0.0179654	0.000578941	0.000327852	3.17983E-05	0	0	0	
0.142167	-0.0224038	-0.000767986	0.00031875	2.12427E-05	0	0	0	
0.142333	0.0117562	0.000383614	0.000347581	1.54465E-05	0	0	0	
0.1425	-0.0151412	0.000216651	0.000345272	1.54554E-05	0	0	0	
0.142667	0.019651	-0.0013712	0.000329699	1.74135E-05	0	0	0	
0.142833	-0.0117428	0.000848916	0.000334237	2.06296E-05	0	0	0	
0.143	0.0104567	0.000417213	0.000338888	2.09596E-05	0	0	0	
0.143167	-0.0256613	-0.000922468	0.000341829	2.00702E-05	0	0	0	
0.143333	0.0218221	0.000541167	0.000367033	2.06639E-05	0	0	0	
0.1435	-0.00688176	0.000252102	0.000395831	2.56015E-05	0	0	0	
0.143667	0.0150125	-0.000734137	0.00036342	2.45184E-05	0	0	0	
0.143833	-0.0261034	-1.68003E-06	0.00032285	2.13882E-05	0	0	0	
0.144	0.0162844	0.00103456	0.000359178	1.98506E-05	0	0	0	
0.144167	-0.00873678	-0.00102873	0.000370172	2.07314E-05	0	0	0	
0.144333	0.0193143	0.00099396	0.00034439	2.48452E-05	0	0	0	
0.1445	-0.0206465	-0.000104537	0.000308794	3.21004E-05	0	0	0	
0.144667	0.0179267	-0.00115884	0.000345407	3.95978E-05	0	0	0	
0.144833	-0.0197926	0.00144222	0.00036691	4.18587E-05	0	0	0	
0.145	0.0132735	-0.000732004	0.000369539	4.07898E-05	0	0	0	
0.145167	-0.00780432	-0.000369123	0.000322589	3.08959E-05	0	0	0	
0.145333	0.0231625	0.000892246	0.000310069	3.06654E-05	0	0	0	
0.1455	-0.0271858	0.000768124	0.000338167	3.46673E-05	0	0	0	
0.145667	0.0102721	-0.00278183	0.000415127	4.82813E-05	0	0	0	
0.145833	-0.0112723	0.00410611	0.000389634	6.00831E-05	0	0	0	
0.146	0.0250168	-0.00332659	0.000361901	6.7952E-05	0	0	0	
0.146167	0.0269953	-0.00474703	0.000435241	6.44255E-05	0	0	0	
0.146333	0.059878	0.0045844	0.00127571	0.000150297	0	0	0	
0.1465	-0.0194703	0.000976026	0.00184989	0.000185777	0	0	0	
0.146667	0.00669973	-0.000203951	0.00177635	0.000197788	0	0	0	
0.146833	-0.0131935	0.00215394	0.000949163	0.000133236	0	0	0	
0.147	0.0158103	-0.00271276	0.000356415	0.000118551	0	0	0	
0.147167	0.00254127	-0.00368633	0.000337164	0.000140491	0	0	0	
0.147333	-0.00740328	0.00123222	0.000281466	0.000119081	0	0	0	
0.1475	0.0158083	-0.0022884	0.000266691	8.732E-05	0	0	0	
0.147667	0.00142088	0.00465528	0.00026284	6.59632E-05	0	0	0	
0.147833	-0.00697183	-0.00400522	0.000371475	7.50666E-05	0	0	0	
0.148	0.00837547	0.00255664	0.000358172	8.31049E-05	0	0	0	
0.148167	-0.0231732	-0.00407382	0.000324234	7.76388E-05	0	0	0	
0.148333	0.0485614	0.00281807	0.000435324	7.2306E-05	0	0	0	
0.1485	-0.0142125	0.00108648	0.000564268	7.09146E-05	0	0	0	
0.148667	-0.0119085	-0.00231919	0.000694846	6.70875E-05	0	0	0	
0.148833	0.0183927	0.00066763	0.000506838	6.01933E-05	0	0	0	
0.149	0.00344856	-2.97369E-05	0.000473864	6.00871E-05	0	0	0	
0.149167	-0.0132698	0.00034427	0.000337551	5.21776E-05	0	0	0	
0.149333	0.0187859	-0.000524981	0.000367176	3.70505E-05	0	0	0	
0.1495	-0.0203416	-0.000220475	0.000337953	2.69391E-05	0	0	0	
0.149667	0.0310137	0.000251265	0.000366087	2.74496E-05	0	0	0	
0.149833	-0.0168076	-9.23452E-05	0.000427279	2.52271E-05	0	0	0	
0.15	0.00491237	0.000431118	0.000392768	1.76313E-05	0	0	0	
0.150167	-0.0029401	0.000159429	0.000308131	1.25896E-05	0	0	0	
0.150333	0.00854392	-0.00122872	0.000196362	1.93913E-05	0	0	0	
0.1505	-0.0158713	0.00128961	0.000163505	2.66856E-05	0	0	0	
0.150667	0.0199403	-0.00151192	0.000231587	3.44282E-05	0	0	0	
0.150833	-0.0137843	0.00136857	0.000303784	3.76962E-05	0	0	0	
0.151	0.0100624	-0.000808985	0.000313745	3.98393E-05	0	0	0	
0.151167	-0.00718517	0.000831604	0.000265752	4.08415E-05	0	0	0	
0.151333	0.00797974	-0.000282873	0.00019346	4.32023E-05	0	0	0	
0.1515	-0.0053513	-0.000576751	0.000148347	4.97504E-05	0	0	0	
0.151667	0.00884098	0.00135006	0.000137081	6.21689E-05	0	0	0	
0.151833	-0.0163671	-0.00337713	0.00018338	7.87659E-05	0	0	0	
0.152	0.019478	0.00432459	0.000236996	9.10423E-05	0	0	0	
0.152167	-0.0120509	-0.00461193	0.000299147	9.54079E-05	0	0	0	
0.152333	0.00566807	0.00454595	0.000270502	9.67845E-05	0	0	0	
0.1525	-0.00547286	-0.00332086	0.000213162	9.73309E-05	0	0	0	
0.152667	0.00449732	0.000605419	0.000137286	9.10794E-05	0	0	0	
0.152833	-0.00768797	0.000264427	0.000118254	6.43172E-05	0	0	0	
0.153	0.0157589	0.000384839	0.000135181	3.59135E-05	0	0	0	
0.153167	-0.0187486	-0.000789934	0.000219109	1.82026E-05	0	0	0	
0.153333	0.0130911	-0.000657318	0.000279984	2.11959E-05	0	0	0	
0.1535	-0.00772281	0.00300148	0.000285754	3.6476E-05	0	0	0	
0.153667	0.00904146	-0.00439461	0.000216858	5.79793E-05	0	0	0	
0.153833	-0.0146519	0.00238975	0.000188953	8.02006E-05	0	0	0	
0.154	0.013227	6.72356E-05	0.000240071	8.2635E-05	0	0	0	
0.154167	-0.0100058	-0.00042157	0.00027503	6.88513E-05	0	0	0	
0.154333	0.0123228	0.00124654	0.000269627	5.07235E-05	0	0	0	
0.1545	-0.00856978	-0.00121325	0.000230379	4.50191E-05	0	0	0	
0.154667	0.00798366	0.0019686	0.000195041	5.05908E-05	0	0	0	
0.154833	-0.0150425	-0.00417177	0.000194208	6.40203E-05	0	0	0	
0.155	0.024038	0.00459042	0.000254916	8.15592E-05	0	0	0	
0.155167	-0.0115128	-0.00244654	0.000323172	8.61301E-05	0	0	0	
0.155333	0.0116702	0.00113315	0.000335872	6.85981E-05	0	0	0	
0.1555	-0.0144566	-0.00147004	0.000292456	4.17034E-05	0	0	0	
0.155667	0.00867295	0.00247967	0.000245791	3.03307E-05	0	0	0	
0.155833	-0.00582357	-0.00267612	0.000206361	3.82959E-05	0	0	0	
0.156	0.0170997	0.00180911	0.000190377	4.76018E-05	0	0	0	
0.156167	-0.0227964	-0.000825453	0.000253873	4.87984E-05	0	0	0	
0.156333	0.0197669	0.000682336	0.000329061	4.02223E-05	0	0	0	
0.1565	-0.0123802	-0.00182395	0.000360328	3.15077E-05	0	0	0	
0.156667	0.0105308	0.0030059	0.000316922	3.40796E-05	0	0	0	
0.156833	-0.0106616	-0.0033268	0.000261397	4.76472E-05	0	0	0	
0.157	0.00892391	0.00104215	0.000214762	6.05295E-05	0	0	0	
0.157167	-0.0103258	-0.000116038	0.000183663	5.20078E-05	0	0	0	
0.157333	0.0183429	-0.000415431	0.000217351	3.3358E-05	0	0	0	
0.1575	-0.0223205	0.00110895	0.000286195	2.11685E-05	0	0	0	
0.157667	0.019541	-0.00172417	0.000355247	2.48944E-05	0	0	0	
0.157833	-0.00727827	0.000731134	0.000345482	2.9622E-05	0	0	0	
0.158	0.00911246	-0.000299613	0.000270354	2.52271E-05	0	0	0	
0.158167	-0.0263638	-0.000207839	0.000244705	1.64656E-05	0	0	0	
0.158333	0.037247	0.000486274	0.000394219	1.13827E-05	0	0	0	
0.1585	-0.00840291	-4.08686E-05	0.000556401	1.39822E-05	0	0	0	
0.158667	0.000659294	0.00110905	0.000513123	1.9335E-05	0	0	0	
0.158833	-0.0172093	-0.00142614	0.00039248	2.58795E-05	0	0	0	
0.159	0.0112163	0.00101171	0.000279338	2.72953E-05	0	0	0	
0.159167	-0.0107565	-0.000820003	0.000290234	2.54093E-05	0	0	0	
0.159333	0.0435677	4.24797E-05	0.000352158	1.83018E-05	0	0	0	
0.1595	-0.0492254	0.000275088	0.000534506	1.60819E-05	0	0	0	
0.159667	0.0207413	0.00121496	0.000720024	1.9277E-05	0	0	0	
0.159833	-0.00177369	-0.00120238	0.000658621	2.50764E-05	0	0	0	
0.16	0.00314114	0.00199061	0.000439963	3.09915E-05	0	0	0	
0.160167	-0.0103301	-0.00349485	0.000253624	4.16713E-05	0	0	0	
0.160333	0.0105455	0.00188341	0.000200763	5.14837E-05	0	0	0	
0.1605	-0.0216897	-0.000383764	0.000228915	4.53392E-05	0	0	0	
0.160667	0.0271734	0.00111286	0.000321554	3.35687E-05	0	0	0	
0.160833	-0.010487	-0.00249437	0.00036716	3.04772E-05	0	0	0	
0.161	0.00464737	0.00491986	0.000323707	5.21665E-05	0	0	0	
0.161167	-0.00622197	-0.00401415	0.000229835	7.70012E-05	0	0	0	
0.161333	0.00991349	0.0011898	0.000185388	8.5512E-05	0	0	0	
0.1615	-0.0148778	3.69532E-05	0.000203479	7.12293E-05	0	0	0	
0.161667	0.0265858	-0.000360851	0.000291909	4.36077E-05	0	0	0	
0.161833	-0.0199519	-0.00103239	0.000385837	2.2052E-05	0	0	0	
0.162	0.0205573	0.00269964	0.000439752	2.18541E-05	0	0	0	
0.162167	-0.0208171	-0.00121537	0.000425062	3.79947E-05	0	0	0	
0.162333	0.00702436	-0.000543463	0.000360122	5.29334E-05	0	0	0	
0.1625	-0.00373138	-0.00022757	0.000273024	5.03892E-05	0	0	0	
0.162667	0.0131442	0.00098623	0.000190974	3.34068E-05	0	0	0	
0.162833	-0.0181203	-0.00202865	0.000203351	2.64967E-05	0	0	0	
0.163	0.0149611	0.00205638	0.000256203	3.30518E-05	0	0	0	
0.163167	-0.0202	-2.74489E-05	0.000310622	4.41064E-05	0	0	0	
0.163333	0.0210921	-0.00281604	0.000364853	5.46457E-05	0	0	0	
0.1635	-0.0118149	0.00207658	0.000365836	5.9351E-05	0	0	0	
0.163667	0.00291024	0.000659706	0.000304814	5.04557E-05	0	0	0	
0.163833	-0.00961734	-0.00248678	0.000185978	3.9277E-05	0	0	0	
0.164	0.0160802	0.00202142	0.00021074	3.80044E-05	0	0	0	
0.164167	-0.0157517	-0.000598559	0.000263597	4.48861E-05	0	0	0	
0.164333	0.00749542	-0.0010566	0.000304281	4.47236E-05	0	0	0	
0.1645	-0.00412513	-0.000539837	0.000232133	3.05774E-05	0	0	0	
0.164667	0.00751223	0.00112252	0.000171314	2.34116E-05	0	0	0	
0.164833	-0.00484988	-0.00100715	0.00012913	2.00898E-05	0	0	0	
0.165	-0.000770685	0.000180407	0.000105012	2.08291E-05	0	0	0	
0.165167	-0.0121006	0.00086211	0.00015038	2.06689E-05	0	0	0	
0.165333	0.0276928	-0.00200425	0.000232245	2.39787E-05	0	0	0	
0.1655	-0.024909	0.00123939	0.000376365	2.97985E-05	0	0	0	
0.165667	0.00864476	0.000410637	0.000407137	2.63315E-05	0	0	0	
0.165833	-0.00353874	-0.000950354	0.000330131	2.20512E-05	0	0	0	
0.166	0.00114039	0.000729322	0.000185109	1.59482E-05	0	0	0	
0.166167	-0.00714481	0.000513021	0.000100586	1.69761E-05	0	0	0	
0.166333	0.0112932	0.000586906	0.0001267	1.99226E-05	0	0	0	
0.1665	-0.0212225	-0.00138574	0.000232062	2.60858E-05	0	0	0	
0.166667	0.0154387	0.0017139	0.00031971	3.74644E-05	0	0	0	
0.166833	-0.00857824	-0.00117804	0.000315875	3.84416E-05	0	0	0	
0.167	0.00791871	5.5915E-05	0.000245062	2.89539E-05	0	0	0	
0.167167	-0.0116133	1.78227E-05	0.00017279	1.97051E-05	0	0	0	
0.167333	0.0120751	0.00167602	0.000190093	2.01821E-05	0	0	0	
0.1675	-0.0172992	-0.00230812	0.000233581	3.41485E-05	0	0	0	
0.167667	0.0183642	0.00167062	0.000299429	4.42184E-05	0	0	0	
0.167833	-0.0113904	-2.65695E-05	0.000301864	4.40812E-05	0	0	0	
0.168	0.00613721	0.000265272	0.000263406	3.10085E-05	0	0	0	
0.168167	-0.00618166	-0.000435834	0.000183639	1.67025E-05	0	0	0	
0.168333	0.0132807	0.00129645	0.000168505	1.68103E-05	0	0	0	
0.1685	-0.0149458	-0.00266079	0.000206022	3.21356E-05	0	0	0	
0.168667	0.0170105	0.00209456	0.000257241	4.72323E-05	0	0	0	
0.168833	-0.0135788	-0.00165781	0.000284663	5.0252E-05	0	0	0	
0.169	0.00871365	0.00149298	0.000261422	4.12759E-05	0	0	0	
0.169167	-0.00687427	-0.000376777	0.000220886	3.31492E-05	0	0	0	
0.169333	0.00490253	0.00112735	0.000157101	2.17562E-05	0	0	0	
0.1695	-0.0059015	-0.00245808	0.000125608	2.41238E-05	0	0	0	
0.169667	0.0117644	0.00271339	0.000138968	3.41119E-05	0	0	0	
0.169833	-0.0174232	-0.00243738	0.000201123	4.8516E-05	0	0	0	
0.17	0.0114843	0.00260814	0.000253764	5.45014E-05	0	0	0	
0.170167	-0.00563127	-0.00162668	0.00024445	5.21418E-05	0	0	0	
0.170333	0.00728103	0.000864924	0.000190214	4.46094E-05	0	0	0	
0.1705	-0.0143893	-0.000487062	0.00015399	3.84412E-05	0	0	0	
0.170667	0.0142726	-0.000271061	0.00020225	4.41045E-05	0	0	0	
0.170833	-0.0113317	0.000716401	0.000247966	6.07996E-05	0	0	0	
0.171	0.0146982	-0.00123369	0.00028005	6.8018E-05	0	0	0	
0.171167	-0.0088363	0.000921078	0.000260863	5.73568E-05	0	0	0	
0.171333	0.00557738	-0.00108077	0.000213892	4.1288E-05	0	0	0	
0.1715	-0.00796204	0.00149305	0.000173033	3.3624E-05	0	0	0	
0.171667	0.018952	-0.00250377	0.000192493	3.69315E-05	0	0	0	
0.171833	-0.0106013	0.00213338	0.000255756	4.3771E-05	0	0	0	
0.172	0.00957474	-0.00122109	0.000270317	4.30905E-05	0	0	0	
0.172167	-0.00417889	0.00035849	0.0002345	3.76788E-05	0	0	0	
0.172333	0.00563503	-0.00041369	0.000183235	2.82944E-05	0	0	0	
0.1725	-0.00702826	0.00186063	0.000165532	2.43228E-05	0	0	0	
0.172667	0.0141812	-0.00129729	0.000176061	2.54578E-05	0	0	0	
0.172833	-0.0184169	-0.000846338	0.00025697	2.46325E-05	0	0	0	
0.173	0.0209429	0.0018272	0.00030859	3.00216E-05	0	0	0	
0.173167	-0.0103042	-0.000478148	0.000334802	2.73808E-05	0	0	0	
0.173333	0.00405337	-0.000507573	0.000250946	2.38607E-05	0	0	0	
0.1735	-0.00724699	0.000433891	0.000205058	1.4749E-05	0	0	0	
0.173667	0.0107691	-0.000510044	0.000171653	1.21643E-05	0	0	0	
0.173833	-0.0114466	0.000554622	0.000213363	1.47872E-05	0	0	0	
0.174	0.0153632	-0.000233595	0.000277988	1.26539E-05	0	0	0	
0.174167	-0.0200145	0.00031371	0.000360939	1.02375E-05	0	0	0	
0.174333	0.0235479	-0.000434832	0.000436949	7.9946E-06	0	0	0	
0.1745	-0.0135586	0.000105612	0.000441663	1.05395E-05	0	0	0	
0.174667	0.00822552	1.83193E-05	0.000357416	9.58813E-06	0	0	0	
0.174833	-0.0196425	0.000716494	0.000280487	9.98387E-06	0	0	0	
0.175	0.0261723	-0.000835966	0.000316539	1.53462E-05	0	0	0	
0.175167	0.000711559	0.000274469	0.000362049	2.17695E-05	0	0	0	
0.175333	0.0034145	-0.000316522	0.000339217	2.56481E-05	0	0	0	
0.1755	-0.0220437	0.000602574	0.000411193	2.72643E-05	0	0	0	
0.175667	0.0182548	-0.000427647	0.000457319	3.06865E-05	0	0	0	
0.175833	-0.0138492	-0.000431164	0.000483721	3.08609E-05	0	0	0	
0.176	0.0366782	0.000872077	0.000417726	2.65715E-05	0	0	0	
0.176167	-0.0417385	-0.00203012	0.000512657	2.82694E-05	0	0	0	
0.176333	0.0215039	0.00262881	0.000619915	3.87368E-05	0	0	0	
0.1765	-0.00832573	-0.00218717	0.000563106	5.10699E-05	0	0	0	
0.176667	0.00591709	0.00113197	0.000410723	4.98648E-05	0	0	0	
0.176833	-0.0112971	0.000107403	0.000302087	3.75256E-05	0	0	0	
0.177	0.0118488	-0.000497119	0.000285519	2.38229E-05	0	0	0	
0.177167	-0.0188031	-0.00180466	0.000292405	1.69411E-05	0	0	0	
0.177333	0.0236672	0.00361976	0.000343108	3.07999E-05	0	0	0	
0.1775	-0.0211125	-0.00265363	0.000389299	5.25355E-05	0	0	0	
0.177667	0.0146784	-0.000783934	0.000409373	6.63803E-05	0	0	0	
0.177833	-0.00702242	0.00267965	0.000343512	6.77031E-05	0	0	0	
0.178	0.00719752	-0.00148457	0.000267182	5.79496E-05	0	0	0	
0.178167	-0.0125194	-0.000553137	0.000206714	4.57304E-05	0	0	0	
0.178333	0.0168008	0.000636206	0.000221906	4.08094E-05	0	0	0	
0.1785	-0.0101341	0.00075946	0.000250875	4.66817E-05	0	0	0	
0.178667	0.00429436	-0.00172337	0.000228412	5.94158E-05	0	0	0	
0.178833	-0.00298259	-0.000101339	0.000174441	5.15999E-05	0	0	0	
0.179	0.00607578	0.00207241	0.000144556	3.80178E-05	0	0	0	
0.179167	-0.00481591	-0.002047	0.000138876	3.56097E-05	0	0	0	
0.179333	0.00130448	-0.00095488	0.000130993	4.07615E-05	0	0	0	
0.1795	-0.0129025	0.00195067	0.000175449	4.49063E-05	0	0	0	
0.179667	0.0242188	-0.000968241	0.000231657	3.93679E-05	0	0	0	
0.179833	-0.0152111	-0.000656343	0.000350717	3.16168E-05	0	0	0	
0.18	-0.00350638	0.000920313	0.000377614	3.06907E-05	0	0	0	
0.180167	0.000474468	-0.00169527	0.00029688	3.25116E-05	0	0	0	
0.180333	0.00344356	-0.000103296	0.000167858	4.12382E-05	0	0	0	
0.1805	0.000861033	0.00285935	5.3625E-05	4.57694E-05	0	0	0	
0.180667	-0.000728127	-0.00164506	0.000107205	4.97563E-05	0	0	0	
0.180833	-0.0232598	0.000515291	0.000203534	3.95684E-05	0	0	0	
0.181	0.0206176	-0.00123964	0.000321875	3.05394E-05	0	0	0	
0.181167	-0.00486784	0.000552919	0.0003514	2.12265E-05	0	0	0	
0.181333	0.000188404	-5.23797E-05	0.000258176	1.896E-05	0	0	0	
0.1815	-0.00462443	0.000854864	0.000169716	1.48153E-05	0	0	0	
0.181667	0.0100767	-0.000592153	0.000159463	2.18493E-05	0	0	0	
0.181833	-0.0196395	-0.000589555	0.000252294	3.44162E-05	0	0	0	
0.182	0.0168293	-0.00065295	0.000316468	3.35694E-05	0	0	0	
0.182167	-0.00512378	0.00167833	0.000303986	2.85905E-05	0	0	0	
0.182333	-0.00103234	-0.00109193	0.000195651	2.43872E-05	0	0	0	
0.1825	-0.00471998	0.000428899	0.000131562	3.11233E-05	0	0	0	
0.182667	0.012088	0.000575747	0.000134365	2.79603E-05	0	0	0	
0.182833	-0.0140806	-0.00295058	0.000228193	3.17433E-05	0	0	0	
0.183	0.0127787	0.00301154	0.000280107	4.1377E-05	0	0	0	
0.183167	-0.0151713	-0.0012855	0.000313917	4.70429E-05	0	0	0	
0.183333	0.0133466	0.00102404	0.000322028	3.95358E-05	0	0	0	
0.1835	-0.0119933	-0.000815259	0.000304739	2.71362E-05	0	0	0	
0.183667	0.0107238	0.00198416	0.000262985	2.2834E-05	0	0	0	
0.183833	-0.0110669	-0.00174184	0.00021465	3.13187E-05	0	0	0	
0.184	0.00619788	0.000873958	0.000204018	4.13882E-05	0	0	0	
0.184167	-0.0156507	0.000804827	0.000226014	5.00899E-05	0	0	0	
0.184333	0.0194753	-0.0010282	0.000306363	4.85055E-05	0	0	0	
0.1845	-0.0109884	0.000538927	0.000337431	3.90269E-05	0	0	0	
0.184667	0.00812688	0.00107842	0.000306061	2.55392E-05	0	0	0	
0.184833	-0.0161546	-0.000888663	0.000237631	2.53465E-05	0	0	0	
0.185	0.0229	-0.000984	0.000281296	3.12551E-05	0	0	0	
0.185167	-0.010636	0.00273019	0.000326002	4.65683E-05	0	0	0	
0.185333	0.00800141	-0.00140622	0.000319596	4.82046E-05	0	0	0	
0.1855	-0.0112122	0.000451652	0.000273176	4.40621E-05	0	0	0	
0.185667	0.00934812	0.00116343	0.000245063	3.10237E-05	0	0	0	
0.185833	-0.00651115	-0.00165678	0.000229554	2.79053E-05	0	0	0	
0.186	0.0216248	-0.000288217	0.000240358	2.64865E-05	0	0	0	
0.186167	-0.0256891	0.00172664	0.000345245	2.95504E-05	0	0	0	
0.186333	0.0177616	0.00020385	0.000405607	3.26778E-05	0	0	0	
0.1865	-0.0019996	-0.00216117	0.000376929	4.43877E-05	0	0	0	
0.186667	-0.00117067	0.00248602	0.000220815	5.8408E-05	0	0	0	
0.186833	-0.0023638	-0.00201286	0.000166535	6.22424E-05	0	0	0	
0.187	0.0031021	0.00276574	0.000139323	6.1286E-05	0	0	0	
0.187167	-0.0113012	-0.00265169	0.000266093	5.78881E-05	0	0	0	
0.187333	0.0240757	0.00221256	0.000422588	5.45843E-05	0	0	0	
0.1875	-0.0210171	-0.00314013	0.000527057	5.39077E-05	0	0	0	
0.187667	0.00574865	0.00436259	0.000480339	6.41825E-05	0	0	0	
0.187833	0.00344074	-0.00333209	0.000305871	8.21001E-05	0	0	0	
0.188	-0.00269728	0.00143315	0.000166026	9.02115E-05	0	0	0	
0.188167	0.0025464	-0.00136946	0.000112404	7.7859E-05	0	0	0	
0.188333	0.00913336	0.000692409	0.000242069	5.8226E-05	0	0	0	
0.1885	-0.0186826	-0.000903514	0.000421662	3.60629E-05	0	0	0	
0.188667	0.0114456	0.00174326	0.000431905	3.07306E-05	0	0	0	
0.188833	0.00500836	-0.0017877	0.000336829	3.14206E-05	0	0	0	
0.189	0.00220435	2.49525E-05	0.000173461	3.85374E-05	0	0	0	
0.189167	-0.003893	0.00126621	0.00014765	3.85724E-05	0	0	0	
0.189333	-0.011878	-0.00104033	9.99359E-05	3.80554E-05	0	0	0	
0.1895	0.00843542	-2.7752E-05	0.000152967	4.33473E-05	0	0	0	
0.189667	0.011416	0.000428525	0.000281678	4.95533E-05	0	0	0	
0.189833	-0.0158352	-0.00126451	0.000378193	4.71229E-05	0	0	0	
0.19	0.00829157	0.000285537	0.000375309	4.00172E-05	0	0	0	
0.190167	-0.00178116	0.00207388	0.000246652	3.52916E-05	0	0	0	
0.190333	0.00443666	-0.00223766	0.000185699	4.28017E-05	0	0	0	
0.1905	-0.0203308	0.00191544	0.000213795	4.68127E-05	0	0	0	
0.190667	0.0162632	-0.00183744	0.000299364	4.69094E-05	0	0	0	
0.190833	0.00257138	0.00152158	0.000318752	4.6187E-05	0	0	0	
0.191	-0.00353189	-0.00187043	0.000267413	4.39774E-05	0	0	0	
0.191167	-0.0043925	0.00174846	0.00033205	4.23487E-05	0	0	0	
0.191333	0.00506447	-0.00116466	0.000313072	3.12389E-05	0	0	0	
0.1915	0.00945869	0.000623737	0.000283727	2.74529E-05	0	0	0	
0.191667	0.00165047	7.24355E-06	0.000324057	2.34358E-05	0	0	0	
0.191833	-0.0160389	-0.000481476	0.000577238	2.03821E-05	0	0	0	
0.192	0.0186604	-0.000849219	0.000655677	1.8317E-05	0	0	0	
0.192167	0.0064524	0.000838101	0.000495602	2.74784E-05	0	0	0	
0.192333	-0.00139251	-0.000258223	0.000220458	4.31282E-05	0	0	0	
0.1925	-0.0062661	0.000472664	0.000173665	5.33591E-05	0	0	0	
0.192667	-0.00865832	-0.000577317	0.000134965	4.75668E-05	0	0	0	
0.192833	0.00882703	0.000254307	0.000167422	3.46958E-05	0	0	0	
0.193	0.011658	0.000825184	0.000277022	2.35651E-05	0	0	0	
0.193167	-0.0230122	-0.00346944	0.000391463	2.35212E-05	0	0	0	
0.193333	0.0126881	0.00626309	0.000421704	5.15023E-05	0	0	0	
0.1935	-0.00607327	-0.00678558	0.00030936	9.11389E-05	0	0	0	
0.193667	0.003835	0.00449409	0.000198869	0.000120923	0	0	0	
0.193833	-0.0025735	-0.00215907	0.000131437	0.000114175	0	0	0	
0.194	-0.00481864	0.000199215	9.79241E-05	8.85712E-05	0	0	0	
0.194167	-0.00637424	0.000472738	0.000124672	5.80025E-05	0	0	0	
0.194333	0.0111888	0.000837427	0.000181171	3.32843E-05	0	0	0	
0.1945	-0.0111029	-0.00113385	0.00023138	2.49002E-05	0	0	0	
0.194667	0.00838838	-0.000401385	0.000232552	3.15847E-05	0	0	0	
0.194833	-0.00622516	0.00208217	0.000181135	5.4E-05	0	0	0	
0.195	0.0079367	-0.00264138	0.000164511	7.00953E-05	0	0	0	
0.195167	-0.0131071	0.000845462	0.000186124	6.79669E-05	0	0	0	
0.195333	0.0147183	0.00147274	0.000232521	5.22321E-05	0	0	0	
0.1955	-0.0120732	-0.00257554	0.000264867	4.35783E-05	0	0	0	
0.195667	0.00846451	0.00111118	0.000245234	4.24926E-05	0	0	0	
0.195833	0.00453891	-0.00034451	0.000201887	4.07514E-05	0	0	0	
0.196	-0.021272	-0.000499957	0.000180575	2.89104E-05	0	0	0	
0.196167	-0.0432962	0.00494542	0.000456796	4.91467E-05	0	0	0	
0.196333	-0.0341253	-0.00195756	0.00148302	0.000156438	0	0	0	
0.1965	-0.0132898	-0.00255142	0.00215648	0.000234236	0	0	0	
0.196667	0.022683	0.000543059	0.00200589	0.000212358	0	0	0	
0.196833	-0.0145756	-0.00284697	0.00103212	0.00011148	0	0	0	
0.197	0.00520508	0.00368832	0.000367252	5.71028E-05	0	0	0	
0.197167	-0.0165025	-0.000647029	0.000275523	8.48331E-05	0	0	0	
0.197333	0.0237554	0.00507532	0.000318609	8.68031E-05	0	0	0	
0.1975	-0.0325968	-0.00294578	0.000442209	8.51564E-05	0	0	0	
0.197667	0.0184446	-0.000416792	0.000497864	6.89126E-05	0	0	0	
0.197833	-0.0112973	-0.000334814	0.000458665	7.80979E-05	0	0	0	
0.198	0.0192557	-0.000133299	0.000393978	6.66432E-05	0	0	0	
0.198167	-0.0131444	0.000563263	0.000363338	4.89973E-05	0	0	0	
0.198333	0.00044346	0.000437742	0.000290478	2.78318E-05	0	0	0	
0.1985	-0.0100713	-0.0018107	0.000237536	2.17518E-05	0	0	0	
0.198667	0.0193537	0.00190038	0.000259571	2.72712E-05	0	0	0	
0.198833	-0.0078513	-0.00270013	0.000304149	3.67719E-05	0	0	0	
0.199	-0.000500241	0.00328218	0.000255165	4.6151E-05	0	0	0	
0.199167	-0.0156191	-0.00452075	0.000274393	5.60344E-05	0	0	0	
0.199333	0.0233542	0.00554977	0.000356416	7.56639E-05	0	0	0	
0.1995	-0.0103373	-0.00529877	0.000429113	9.24859E-05	0	0	0	
0.199667	0.00291683	0.0033343	0.000333359	9.99787E-05	0	0	0	
0.199833	-0.0171395	-0.00235901	0.000321858	8.7412E-05	0	0	0	
0.2	0.0191905	0.00163016	0.000356245	7.3423E-05	0	0	0	
0.200167	-0.011232	-0.00148304	0.000388013	6.44621E-05	0	0	0	
0.200333	0.0101568	0.00125951	0.000337095	6.21649E-05	0	0	0	
0.2005	-0.012295	-0.00183846	0.000305828	6.01726E-05	0	0	0	
0.200667	0.0081467	0.00114542	0.000304131	6.73886E-05	0	0	0	
0.200833	-0.00919526	0.000769444	0.000292487	7.41179E-05	0	0	0	
0.201	0.00771943	-0.00113168	0.000281912	7.01364E-05	0	0	0	
0.201167	-0.00837952	-0.000969591	0.000297745	4.79423E-05	0	0	0	
0.201333	0.0190276	0.00219862	0.000369589	3.68024E-05	0	0	0	
0.2015	-0.0213741	-0.000747333	0.000424123	3.63899E-05	0	0	0	
0.201667	0.00724455	-0.000588486	0.000398113	4.33457E-05	0	0	0	
0.201833	-0.00128306	0.00176058	0.000294805	4.5423E-05	0	0	0	
0.202	0.0148075	-0.0028788	0.000296535	5.20447E-05	0	0	0	
0.202167	-0.0183826	-7.97714E-05	0.000350771	5.31139E-05	0	0	0	
0.202333	0.00730455	0.00225605	0.00037799	4.95313E-05	0	0	0	
0.2025	-0.00460948	-0.000350016	0.000295549	4.57832E-05	0	0	0	
0.202667	0.0162002	-0.00161262	0.000317246	5.5184E-05	0	0	0	
0.202833	-0.0171675	0.00247725	0.000362648	6.66047E-05	0	0	0	
0.203	-0.000474322	-0.00177881	0.000344806	6.35764E-05	0	0	0	
0.203167	-0.000532536	0.000558837	0.000273967	5.4681E-05	0	0	0	
0.203333	0.0181014	0.000938335	0.000332625	4.18224E-05	0	0	0	
0.2035	-0.0211483	-0.000236544	0.000419964	3.31087E-05	0	0	0	
0.203667	0.00700829	-0.00115574	0.000420978	2.49759E-05	0	0	0	
0.203833	-0.00433068	0.00201487	0.000307258	2.61004E-05	0	0	0	
0.204	0.00712902	-0.000166145	0.000296054	3.29024E-05	0	0	0	
0.204167	-0.0127828	-0.00356595	0.000346596	4.58322E-05	0	0	0	
0.204333	0.0158191	0.00616184	0.00038723	7.1342E-05	0	0	0	
0.2045	-0.00747295	-0.0058548	0.000324244	0.000101616	0	0	0	
0.204667	0.00336639	0.00190644	0.000246398	0.000109161	0	0	0	
0.204833	-0.0200988	0.000597364	0.000301295	8.28213E-05	0	0	0	
0.205	0.0161971	0.00198351	0.00034385	7.40604E-05	0	0	0	
0.205167	0.0316414	-0.00958103	0.000439453	9.34657E-05	0	0	0	
0.205333	-0.125946	0.0278132	0.000890052	0.000194855	0	0	0	
0.2055	0.13352	-0.0325973	0.0031265	0.000680969	0	0	0	
0.205667	-0.010122	0.00447078	0.00341939	0.000735459	0	0	0	
0.205833	-0.0264823	0.00464468	0.00320736	0.000642227	0	0	0	
0.206	0.0139127	-0.00311006	0.00115321	0.000154257	0	0	0	
0.206167	0.021896	-0.0105809	0.000817855	9.75923E-05	0	0	0	
0.206333	-0.0786137	0.0380363	0.00073061	0.000237762	0	0	0	
0.2065	0.310947	-0.0960862	0.00223185	0.000729382	0	0	0	
0.206667	-0.00729421	0.0239491	0.00300832	0.00107139	0	0	0	
0.206833	-0.00164414	-0.015943	0.00272508	0.00100121	0	0	0	
0.207	0.000742345	0.00675535	0.00122704	0.000591775	0	0	0	
0.207167	-0.00319376	0.00197681	0.000617435	0.000232113	0	0	0	
0.207333	-0.014554	0.00838307	0.000709644	0.00024052	0	0	0	
0.2075	0.0291725	-0.0114886	0.0006562	0.000323075	0	0	0	
0.207667	-0.0373459	0.00799615	0.000741894	0.000520072	0	0	0	
0.207833	-0.0279752	-0.011967	0.0012316	0.00058216	0	0	0	
0.208	0.0378054	0.0146865	0.00132515	0.000493562	0	0	0	
0.208167	0.00430657	-0.000740287	0.00107324	0.000343409	0	0	0	
0.208333	0.00130963	-0.0135389	0.000614816	0.000245444	0	0	0	
0.2085	-0.0449222	0.0113188	0.000573442	0.000217833	0	0	0	
0.208667	0.0386038	-0.00491991	0.000752604	0.000195669	0	0	0	
0.208833	-0.000203402	0.00153977	0.000710133	0.000170307	0	0	0	
0.209	-0.000870239	-0.000854562	0.000460594	0.000107883	0	0	0	
0.209167	-0.0258615	0.00404374	0.000376691	7.52277E-05	0	0	0	
0.209333	0.0315798	-0.00876391	0.000462331	8.03067E-05	0	0	0	
0.2095	-0.00840367	0.00864876	0.000547477	0.000122871	0	0	0	
0.209667	-0.00379889	-0.00243108	0.000385158	0.000145945	0	0	0	
0.209833	-0.012634	-0.00231473	0.000373987	0.000115964	0	0	0	
0.21	0.0180294	0.00043543	0.000375642	7.32348E-05	0	0	0	
0.210167	-0.00269466	0.00165488	0.000401337	4.24583E-05	0	0	0	
0.210333	0.00577765	0.000260066	0.000326066	5.19145E-05	0	0	0	
0.2105	-0.0228801	-0.000734568	0.000402728	4.98384E-05	0	0	0	
0.210667	0.0174675	-0.000120758	0.000479906	4.72173E-05	0	0	0	
0.210833	-0.00178243	-0.00125261	0.00043024	3.39681E-05	0	0	0	
0.211	0.0017387	0.00195613	0.000283934	2.94906E-05	0	0	0	
0.211167	-0.0107381	-0.00221372	0.000269167	3.86501E-05	0	0	0	
0.211333	0.0138314	0.00134241	0.000332868	4.69657E-05	0	0	0	
0.2115	-0.0117707	-0.000703176	0.000374133	4.73738E-05	0	0	0	
0.211667	0.00719496	-0.000385989	0.000330077	3.37141E-05	0	0	0	
0.211833	-0.00292831	0.00042213	0.00029724	2.43822E-05	0	0	0	
0.212	0.00555379	0.00154027	0.000298329	2.23053E-05	0	0	0	
0.212167	-0.013174	-0.00340389	0.000349627	3.67337E-05	0	0	0	
0.212333	0.0142684	0.00146937	0.000399813	4.46558E-05	0	0	0	
0.2125	-0.00872114	0.000208069	0.000394923	4.87318E-05	0	0	0	
0.212667	0.00912879	7.25086E-05	0.000362155	5.34905E-05	0	0	0	
0.212833	-0.0149835	0.00159934	0.000376389	5.25992E-05	0	0	0	
0.213	0.00898288	-0.00108133	0.000374039	4.83639E-05	0	0	0	
0.213167	0.000301788	-0.000328233	0.000303882	2.90774E-05	0	0	0	
0.213333	0.00311601	0.000430037	0.000264165	1.83268E-05	0	0	0	
0.2135	-0.0159269	-0.00135396	0.00031988	1.27838E-05	0	0	0	
0.213667	0.0124295	0.00134391	0.000378245	2.20766E-05	0	0	0	
0.213833	-0.000368049	0.000656218	0.000319154	2.43244E-05	0	0	0	
0.214	-0.00119862	-0.000838098	0.000248844	2.90901E-05	0	0	0	
0.214167	-0.00599621	-0.00151469	0.000264429	2.61295E-05	0	0	0	
0.214333	0.00991344	0.00204288	0.000308389	3.31732E-05	0	0	0	
0.2145	-0.00822747	-0.00229957	0.000328702	3.63337E-05	0	0	0	
0.214667	0.00966971	0.00185579	0.000333265	4.41407E-05	0	0	0	
0.214833	-0.0165435	-0.000803345	0.000374815	4.48702E-05	0	0	0	
0.215	0.0132769	-0.00075163	0.000394631	3.91375E-05	0	0	0	
0.215167	-0.00336082	0.000838817	0.000343026	2.98314E-05	0	0	0	
0.215333	0.00341265	2.13857E-05	0.000288179	1.82623E-05	0	0	0	
0.2155	-0.0131019	0.000458343	0.00031226	1.6803E-05	0	0	0	
0.215667	0.00979432	-4.60257E-05	0.000353929	1.66855E-05	0	0	0	
0.215833	-0.00385954	-0.000114114	0.000311543	2.44954E-05	0	0	0	
0.216	0.00165189	-0.00204945	0.000242305	3.72893E-05	0	0	0	
0.216167	-0.00489756	0.00130368	0.000284545	4.79975E-05	0	0	0	
0.216333	0.00586234	0.000520159	0.000365569	4.25264E-05	0	0	0	
0.2165	-0.00444757	-0.000233971	0.000369161	2.74413E-05	0	0	0	
0.216667	0.00157289	-7.87989E-05	0.000329023	1.74706E-05	0	0	0	
0.216833	-0.0134269	-0.00184781	0.000335102	2.58787E-05	0	0	0	
0.217	0.0138137	0.000750292	0.00035891	3.56176E-05	0	0	0	
0.217167	0.000348893	0.000337428	0.000300686	3.20992E-05	0	0	0	
0.217333	-0.00262998	0.00063091	0.000260097	2.16027E-05	0	0	0	
0.2175	-0.011753	-0.000682592	0.000325118	1.60307E-05	0	0	0	
0.217667	0.0120145	-0.000442755	0.000401668	2.05961E-05	0	0	0	
0.217833	-0.000641353	-0.00047411	0.000364791	2.35652E-05	0	0	0	
0.218	0.00260611	0.00195635	0.000270043	2.63363E-05	0	0	0	
0.218167	-0.0101053	-0.00124545	0.000281601	3.09068E-05	0	0	0	
0.218333	0.00850453	-0.000376332	0.000346991	4.0571E-05	0	0	0	
0.2185	-0.00191504	0.00146896	0.000347925	4.5559E-05	0	0	0	
0.218667	0.0033027	-0.00187655	0.000315924	4.60902E-05	0	0	0	
0.218833	-0.00904878	0.000856171	0.000340117	4.24497E-05	0	0	0	
0.219	0.00569485	0.00157102	0.000368315	3.64455E-05	0	0	0	
0.219167	-0.00341306	-0.0030917	0.000341789	3.91858E-05	0	0	0	
0.219333	0.00358125	0.00291046	0.000324033	4.76658E-05	0	0	0	
0.2195	-0.00677494	-0.0015659	0.000337268	5.15065E-05	0	0	0	
0.219667	0.00505284	-0.000250744	0.000346596	3.82279E-05	0	0	0	
0.219833	-0.00675292	-0.000632587	0.000341506	2.38756E-05	0	0	0	
0.22	0.0092405	0.00323957	0.000352308	2.55928E-05	0	0	0	
0.220167	-0.00683651	-0.00323822	0.000331027	4.61117E-05	0	0	0	
0.220333	-0.000788677	0.000973361	0.00028639	6.27356E-05	0	0	0	
0.2205	-0.00725172	0.000853244	0.000306317	6.44216E-05	0	0	0	
0.220667	0.0142234	-0.00135953	0.000365426	5.53076E-05	0	0	0	
0.220833	-0.00543856	0.000210198	0.000363457	3.89704E-05	0	0	0	
0.221	-0.000200154	0.000641407	0.000280336	2.34963E-05	0	0	0	
0.221167	-0.00765284	-0.000642115	0.000292217	1.4051E-05	0	0	0	
0.221333	0.00892084	-0.000619166	0.000342422	1.13974E-05	0	0	0	
0.2215	-0.00253016	-0.000360124	0.000335648	1.67943E-05	0	0	0	
0.221667	4.12418E-05	0.00245528	0.000261134	2.47135E-05	0	0	0	
0.221833	-0.00743073	-0.00398474	0.000277781	4.55122E-05	0	0	0	
0.222	0.0122218	0.00255803	0.000377854	6.05669E-05	0	0	0	
0.222167	-0.0102391	-0.000914826	0.000448883	5.79599E-05	0	0	0	
0.222333	0.00402101	0.00075332	0.000399454	3.80499E-05	0	0	0	
0.2225	-0.00369516	-0.00236176	0.000313027	2.65423E-05	0	0	0	
0.222667	0.00878859	0.00271704	0.000309504	3.31767E-05	0	0	0	
0.222833	-0.0162251	-0.00142244	0.000363636	4.95352E-05	0	0	0	
0.223	0.00242469	0.00125585	0.000359415	5.89355E-05	0	0	0	
0.223167	0.00813466	-0.00105235	0.000279885	5.87024E-05	0	0	0	
0.223333	0.00584598	2.93166E-05	0.000341523	4.74892E-05	0	0	0	
0.2235	-0.0164478	0.00124615	0.000433355	3.57658E-05	0	0	0	
0.223667	-0.00461748	-0.00142976	0.00043601	3.18536E-05	0	0	0	
0.223833	0.00205967	-9.14814E-05	0.000353708	3.18683E-05	0	0	0	
0.224	0.0192356	0.0012736	0.000414945	3.10651E-05	0	0	0	
0.224167	-0.0098924	0.000127886	0.000455211	3.11089E-05	0	0	0	
0.224333	-0.00738349	-0.000934125	0.000371085	3.90791E-05	0	0	0	
0.2245	-0.0094626	0.00132703	0.000362631	4.94953E-05	0	0	0	
0.224667	0.0216898	-0.000841846	0.000434545	4.63437E-05	0	0	0	
0.224833	0.00325704	0.00189063	0.00045091	3.97486E-05	0	0	0	
0.225	-0.00965089	-0.00229953	0.000301155	3.69021E-05	0	0	0	
0.225167	-0.0133733	0.00249072	0.000376517	4.43324E-05	0	0	0	
0.225333	0.0137507	-0.00110914	0.00044307	4.63115E-05	0	0	0	
0.2255	0.0111522	0.00144804	0.000423908	4.00178E-05	0	0	0	
0.225667	0.0281293	-0.00306238	0.000390136	3.2548E-05	0	0	0	
0.225833	-0.123819	0.0245344	0.00117543	0.000102213	0	0	0	
0.226	0.0363055	-0.00273167	0.00213609	0.000218269	0	0	0	
0.226167	-0.0459955	0.00104866	0.00220815	0.000226758	0	0	0	
0.226333	0.00711291	0.00338851	0.00146165	0.000155953	0	0	0	
0.2265	-0.00547037	-0.00557055	0.000555163	6.75998E-05	0	0	0	
0.226667	-0.000949763	0.00561377	0.000417343	9.25899E-05	0	0	0	
0.226833	-0.0135835	0.000498451	0.00034987	9.9382E-05	0	0	0	
0.227	-0.000944543	0.000504323	0.000382877	9.28052E-05	0	0	0	
0.227167	0.00409626	0.000118843	0.000256799	7.92617E-05	0	0	0	
0.227333	0.00786712	0.00116649	0.000354936	8.84889E-05	0	0	0	
0.2275	-0.010176	-0.00413698	0.000315469	8.6792E-05	0	0	0	
0.227667	-0.00971591	0.003641	0.000371119	9.00441E-05	0	0	0	
0.227833	0.0229029	-0.00192084	0.00029423	8.96179E-05	0	0	0	
0.228	0.00646782	0.00178577	0.000500884	7.87651E-05	0	0	0	
0.228167	-0.032803	-0.0028121	0.00064319	5.95482E-05	0	0	0	
0.228333	0.0101373	0.00287188	0.000658015	5.77049E-05	0	0	0	
0.2285	0.00958722	-0.00212013	0.000525245	6.9102E-05	0	0	0	
0.228667	-0.00351986	0.000595377	0.000339178	8.0754E-05	0	0	0	
0.228833	0.00737599	0.00362797	0.00025886	7.78524E-05	0	0	0	
0.229	-0.0320275	-0.00456282	0.000249098	8.06392E-05	0	0	0	
0.229167	0.00955409	0.00177373	0.00033905	8.31379E-05	0	0	0	
0.229333	0.0219639	0.00177186	0.000638015	7.67761E-05	0	0	0	
0.2295	-0.0409883	-0.00253355	0.000734163	6.70389E-05	0	0	0	
0.229667	0.0141643	0.00195096	0.000768267	6.12613E-05	0	0	0	
0.229833	0.00324984	0.00150735	0.000464884	5.4418E-05	0	0	0	
0.23	-0.00397164	-0.00103863	0.000252315	5.20354E-05	0	0	0	
0.230167	-0.00230205	-0.00235276	0.000111878	5.74168E-05	0	0	0	
0.230333	-0.00513266	0.00459463	0.000120481	8.21623E-05	0	0	0	
0.2305	-0.00864606	-0.00506934	0.000247411	0.000101206	0	0	0	
0.230667	0.0135471	0.00368013	0.000395908	0.000115502	0	0	0	
0.230833	-0.00472546	7.47179E-05	0.000411162	0.000114967	0	0	0	
0.231	-0.00194417	-0.00192928	0.000272654	9.61011E-05	0	0	0	
0.231167	-0.00779197	-0.000578381	0.000195233	6.15612E-05	0	0	0	
0.231333	0.0111671	0.00289122	0.00024552	4.19459E-05	0	0	0	
0.2315	-0.00608199	-0.00190342	0.000308166	4.38741E-05	0	0	0	
0.231667	-0.000236715	-0.00164191	0.000284046	5.16697E-05	0	0	0	
0.231833	-0.000168885	0.00296929	0.000238117	5.72876E-05	0	0	0	
0.232	0.00280868	-0.00193267	0.000218792	5.50996E-05	0	0	0	
0.232167	-0.00123936	-0.000108833	0.000201364	4.8447E-05	0	0	0	
0.232333	-0.00139021	0.000689655	0.000186649	3.45729E-05	0	0	0	
0.2325	-0.00423246	-7.52417E-05	0.000252739	2.24867E-05	0	0	0	
0.232667	0.0139021	-0.000878193	0.000371527	2.27622E-05	0	0	0	
0.232833	-0.013989	0.00125198	0.000431742	2.95532E-05	0	0	0	
0.233	0.00290491	-0.000548246	0.000345315	3.15885E-05	0	0	0	
0.233167	0.00333413	-0.000898806	0.000194083	2.84884E-05	0	0	0	
0.233333	-0.000965588	0.00108245	0.000126292	2.40534E-05	0	0	0	
0.2335	-0.000152037	-0.000374871	0.000164789	2.15203E-05	0	0	0	
0.233667	-0.00017339	-0.000724649	0.000237835	1.9668E-05	0	0	0	
0.233833	-0.00130277	0.000222079	0.00026442	1.5339E-05	0	0	0	
0.234	-0.00258099	0.000585354	0.0002555	1.52292E-05	0	0	0	
0.234167	-0.000728562	-0.00180614	0.000219908	2.32871E-05	0	0	0	
0.234333	-0.00167299	0.000811261	0.000167599	3.25582E-05	0	0	0	
0.2345	0.00473218	0.000514767	0.000149501	2.89071E-05	0	0	0	
0.234667	-0.0001762	-0.00152798	0.000211571	2.50459E-05	0	0	0	
0.234833	-0.00717043	0.00147883	0.000296574	2.64395E-05	0	0	0	
0.235	0.00339676	-0.00108007	0.000304777	3.39513E-05	0	0	0	
0.235167	-0.000884573	0.000529906	0.000215394	3.17336E-05	0	0	0	
0.235333	-0.00134826	-0.00105089	0.000119456	2.30126E-05	0	0	0	
0.2355	0.00305188	-0.000354141	8.86275E-05	1.67254E-05	0	0	0	
0.235667	-0.00133009	0.00136315	0.000149588	1.60262E-05	0	0	0	
0.235833	0.00139055	-0.000375358	0.000234867	1.5855E-05	0	0	0	
0.236	-0.0082101	0.000522796	0.000275986	1.72804E-05	0	0	0	
0.236167	0.0121586	-0.0031391	0.000283335	2.70467E-05	0	0	0	
0.236333	-0.00441714	0.00411329	0.000279737	5.01646E-05	0	0	0	
0.2365	-0.000859257	-0.0032925	0.000275912	6.99192E-05	0	0	0	
0.236667	0.00220326	0.00129997	0.000250172	7.14961E-05	0	0	0	
0.236833	-0.000278045	0.00118682	0.000257888	4.82562E-05	0	0	0	
0.237	0.00445778	-0.00234223	0.000296029	3.65742E-05	0	0	0	
0.237167	-0.00661219	0.00144827	0.000309484	2.98457E-05	0	0	0	
0.237333	-0.00160333	-0.000609896	0.000249429	3.37145E-05	0	0	0	
0.2375	0.00596654	1.90592E-05	0.000176881	3.06982E-05	0	0	0	
0.237667	0.000468423	0.00107306	0.000191567	2.66929E-05	0	0	0	
0.237833	-0.00817439	-0.00178689	0.000288484	2.57721E-05	0	0	0	
0.238	0.00491449	0.00211025	0.000357386	3.40646E-05	0	0	0	
0.238167	-0.000857828	-0.00126735	0.00037392	4.48624E-05	0	0	0	
0.238333	0.00401213	-0.000306389	0.00043579	4.35509E-05	0	0	0	
0.2385	-0.00700759	-6.03784E-05	0.000487574	2.61452E-05	0	0	0	
0.238667	-0.000209152	0.000596884	0.00041072	1.48041E-05	0	0	0	
0.238833	-0.00206209	-0.000610871	0.000259992	1.04561E-05	0	0	0	
0.239	0.0148476	0.000518756	0.000249478	1.93149E-05	0	0	0	
0.239167	-0.00230422	-0.000713327	0.000336124	2.06065E-05	0	0	0	
0.239333	-0.00812262	-0.000290996	0.000329429	2.4516E-05	0	0	0	
0.2395	0.0119746	0.00166246	0.000303965	2.55214E-05	0	0	0	
0.239667	-0.00174905	-0.00189296	0.00032349	3.63472E-05	0	0	0	
0.239833	-0.0058035	-0.000978858	0.000395494	3.79176E-05	0	0	0	
0.24	0.0219148	0.00174841	0.000426367	3.71446E-05	0	0	0	
0.240167	-0.0158997	-0.00148629	0.000480746	2.92427E-05	0	0	0	
0.240333	0.00367869	0.00109106	0.000445532	2.98652E-05	0	0	0	
0.2405	0.00637477	-0.000385348	0.000338126	2.722E-05	0	0	0	
0.240667	-0.00531631	-0.00118339	0.000238014	2.2883E-05	0	0	0	
0.240833	0.00489476	-0.000814542	0.00021932	2.60924E-05	0	0	0	
0.241	-0.00587221	0.00176688	0.000251676	3.05076E-05	0	0	0	
0.241167	-0.00521612	-0.00103615	0.000398799	4.5545E-05	0	0	0	
0.241333	0.0174069	6.32334E-05	0.000616676	5.67521E-05	0	0	0	
0.2415	-0.00603538	0.000758363	0.000644217	5.80661E-05	0	0	0	
0.241667	-0.00901998	-0.00161282	0.000423629	4.61616E-05	0	0	0	
0.241833	0.0117754	0.00159517	0.000260992	3.30023E-05	0	0	0	
0.242	0.00296984	-0.00057922	0.000308996	2.56714E-05	0	0	0	
0.242167	-0.00876164	0.00132305	0.000395556	2.80285E-05	0	0	0	
0.242333	0.00240124	-0.0017577	0.000331336	3.40425E-05	0	0	0	
0.2425	0.011395	0.00167052	0.000225627	4.15998E-05	0	0	0	
0.242667	-0.00729864	-0.000419446	0.000208233	3.7671E-05	0	0	0	
0.242833	0.00705302	-0.000464084	0.000309431	2.77105E-05	0	0	0	
0.243	-0.00108092	0.000518926	0.000359782	2.14349E-05	0	0	0	
0.243167	0.00465987	0.00038166	0.000316388	1.71549E-05	0	0	0	
0.243333	0.00556918	-0.000618287	0.000266908	1.60833E-05	0	0	0	
0.2435	-0.0113445	0.000872123	0.0003474	1.49335E-05	0	0	0	
0.243667	0.0109563	0.000291392	0.000400531	1.49195E-05	0	0	0	
0.243833	0.00579813	-0.00185302	0.000322382	1.96156E-05	0	0	0	
0.244	-0.0106733	0.00212393	0.000198718	3.53569E-05	0	0	0	
0.244167	-0.000614826	-0.000313934	0.000185644	5.25205E-05	0	0	0	
0.244333	0.00307978	-0.000819576	0.000198211	5.39777E-05	0	0	0	
0.2445	0.0119813	0.000979176	0.000181132	3.91894E-05	0	0	0	
0.244667	-0.0174736	1.316E-05	0.000200507	2.28015E-05	0	0	0	
0.244833	-0.00645419	-0.000489065	0.000323381	1.81998E-05	0	0	0	
0.245	0.0153241	-0.000242217	0.00042084	2.88668E-05	0	0	0	
0.245167	-0.00482176	0.00155449	0.000370877	4.68634E-05	0	0	0	
0.245333	-0.0036552	-0.00203497	0.000218402	5.63605E-05	0	0	0	
0.2455	0.0011836	0.000857336	0.000105028	5.28328E-05	0	0	0	
0.245667	-0.00394424	-0.000185324	6.77849E-05	3.39603E-05	0	0	0	
0.245833	0.00383125	0.000498544	0.000105799	2.47369E-05	0	0	0	
0.246	-0.00274965	0.000749234	0.000222376	1.48741E-05	0	0	0	
0.246167	-0.00447926	-0.000275133	0.000348708	1.50773E-05	0	0	0	
0.246333	0.00127238	4.14471E-05	0.000360441	1.14769E-05	0	0	0	
0.2465	0.00223237	-0.000903987	0.000249776	1.53421E-05	0	0	0	
0.246667	0.00565809	0.00255261	0.000177698	3.15538E-05	0	0	0	
0.246833	-0.00290962	-0.00149665	0.000189395	4.26159E-05	0	0	0	
0.247	-0.00710097	0.00115386	0.000192148	4.45013E-05	0	0	0	
0.247167	0.0114026	-0.000633164	0.000201924	3.3794E-05	0	0	0	
0.247333	-0.00608008	-0.000155565	0.000277675	2.09203E-05	0	0	0	
0.2475	-0.00258962	-0.000256932	0.000354223	1.74607E-05	0	0	0	
0.247667	-0.00141745	0.00188636	0.00030092	1.80354E-05	0	0	0	
0.247833	0.009359	-0.00104039	0.000214335	3.01637E-05	0	0	0	
0.248	-0.00597083	0.00083529	0.000242413	3.22307E-05	0	0	0	
0.248167	-0.00569815	0.000524192	0.000355445	2.75342E-05	0	0	0	
0.248333	-6.56134E-05	-0.000704596	0.000376866	1.9544E-05	0	0	0	
0.2485	0.00379823	-0.000411507	0.000271625	1.73281E-05	0	0	0	
0.248667	-0.004277	0.00293694	0.000166003	3.19706E-05	0	0	0	
0.248833	0.00437258	-0.00202551	0.000137006	4.85812E-05	0	0	0	
0.249	-0.00710964	0.000689392	0.000191867	5.0331E-05	0	0	0	
0.249167	-0.000336579	-0.000703592	0.000263928	3.45153E-05	0	0	0	
0.249333	-0.00130498	0.000376575	0.000312665	1.82488E-05	0	0	0	
0.2495	0.00350101	-0.00173945	0.000300774	2.34562E-05	0	0	0	
0.249667	-0.0011188	0.00286306	0.000248251	3.70705E-05	0	0	0	
0.249833	0.00207931	-0.00228712	0.000181662	5.49244E-05	0	0	0	
0.25	-0.0076541	0.000784411	0.000155457	5.5981E-05	0	0	0	
0.250167	0.00583272	-0.000462754	0.000204753	4.34647E-05	0	0	0	
0.250333	-0.00181803	0.000475049	0.000298502	2.34641E-05	0	0	0	
0.2505	0.00111905	-0.0021207	0.000312858	1.66185E-05	0	0	0	
0.250667	-0.00594669	0.00239452	0.000244101	2.88517E-05	0	0	0	
0.250833	0.0037267	0.000275572	0.00015161	4.48085E-05	0	0	0	
0.251	-0.00438409	-0.00313201	0.000144014	6.32184E-05	0	0	0	
0.251167	0.00859776	0.00257319	0.000174302	6.86718E-05	0	0	0	
0.251333	-0.00830839	-0.000832617	0.000250444	6.12993E-05	0	0	0	
0.2515	-0.00611194	-0.000148498	0.000324639	3.74348E-05	0	0	0	
0.251667	0.00444866	0.000642751	0.000327965	1.68927E-05	0	0	0	
0.251833	0.000149176	-0.00030221	0.000223811	1.05028E-05	0	0	0	
0.252	-0.00590636	-0.00238075	0.000109763	1.55209E-05	0	0	0	
0.252167	0.00632581	0.00249224	8.99217E-05	3.65605E-05	0	0	0	
0.252333	-0.0099109	0.000485098	0.000167038	5.07388E-05	0	0	0	
0.2525	0.00154686	-0.00280844	0.000254773	6.26431E-05	0	0	0	
0.252667	0.000573692	0.0012529	0.000324987	5.86969E-05	0	0	0	
0.252833	-0.000327767	0.00053051	0.000329202	5.19762E-05	0	0	0	
0.253	0.00116574	-0.000708319	0.000275648	4.14412E-05	0	0	0	
0.253167	0.00111784	-1.57889E-05	0.000167058	3.3163E-05	0	0	0	
0.253333	-0.0140831	0.000496146	0.000114269	3.04662E-05	0	0	0	
0.2535	0.0214821	-0.000862424	0.000179293	2.89048E-05	0	0	0	
0.253667	-0.00730874	-0.000469944	0.000341114	2.66351E-05	0	0	0	
0.253833	-0.0095564	0.00228791	0.000496038	2.66896E-05	0	0	0	
0.254	0.00766475	-0.00324767	0.000488232	4.22045E-05	0	0	0	
0.254167	0.000980039	0.00161294	0.000344282	5.63895E-05	0	0	0	
0.254333	-0.00571018	-0.000953129	0.000187002	5.89419E-05	0	0	0	
0.2545	0.0107962	-0.000588097	0.000164997	4.52219E-05	0	0	0	
0.254667	-0.0104309	0.00134711	0.000265073	3.26791E-05	0	0	0	
0.254833	-0.00300872	-0.000872735	0.000365777	2.72853E-05	0	0	0	
0.255	0.00278684	0.000923478	0.000391205	3.02871E-05	0	0	0	
0.255167	-0.000781894	-0.00217036	0.000308896	4.44109E-05	0	0	0	
0.255333	-0.00396977	0.00292254	0.000187896	6.43008E-05	0	0	0	
0.2555	0.0160668	-0.00330429	0.000126825	7.50273E-05	0	0	0	
0.255667	-0.0277952	0.00446547	0.000244654	8.02614E-05	0	0	0	
0.255833	0.00508995	-0.00179081	0.00044981	8.12284E-05	0	0	0	
0.256	0.0172111	0.000685176	0.00067396	7.09473E-05	0	0	0	
0.256167	-0.0220357	-0.00227864	0.000649863	5.25002E-05	0	0	0	
0.256333	0.00457906	0.00445874	0.000505346	4.77919E-05	0	0	0	
0.2565	0.00347918	-0.00288499	0.000243535	6.89953E-05	0	0	0	
0.256667	-0.00390313	0.000130319	0.000152579	8.00036E-05	0	0	0	
0.256833	0.00650814	0.00240272	0.000125784	7.57472E-05	0	0	0	
0.257	-0.0107798	-0.00141632	0.000209997	5.96153E-05	0	0	0	
0.257167	-0.00096975	-0.000409056	0.000310659	4.19109E-05	0	0	0	
0.257333	0.00431094	0.00178796	0.000403732	3.0711E-05	0	0	0	
0.2575	-0.000350148	-0.0019971	0.000368682	3.11918E-05	0	0	0	
0.257667	-0.00231488	0.000353406	0.000253117	4.96531E-05	0	0	0	
0.257833	0.00102458	0.00272621	0.000190608	6.35445E-05	0	0	0	
0.258	-0.00454615	-0.00324272	0.00021686	7.03169E-05	0	0	0	
0.258167	0.00948489	0.000568675	0.000254652	6.14443E-05	0	0	0	
0.258333	-0.00989901	0.00216112	0.000296182	4.67877E-05	0	0	0	
0.2585	0.00356606	-0.00181274	0.00037103	4.24184E-05	0	0	0	
0.258667	0.00258195	4.64283E-05	0.000389302	4.85708E-05	0	0	0	
0.258833	-0.00132087	0.00315078	0.000300209	6.68583E-05	0	0	0	
0.259	-0.000218351	-0.00441869	0.000213137	7.82242E-05	0	0	0	
0.259167	0.00116165	0.00398421	0.000219978	9.04291E-05	0	0	0	
0.259333	-0.00655881	-0.00145813	0.000247567	8.45345E-05	0	0	0	
0.2595	0.0174618	0.00064192	0.000274651	6.56349E-05	0	0	0	
0.259667	-0.00411454	-0.00199345	0.000282964	4.1628E-05	0	0	0	
0.259833	-0.00499122	0.00390771	0.000317023	4.04861E-05	0	0	0	
0.26	-0.00340461	-0.00314287	0.000224851	5.44431E-05	0	0	0	
0.260167	0.0208009	0.00161505	0.000186686	6.55918E-05	0	0	0	
0.260333	-0.017223	0.000479759	0.000241584	5.4753E-05	0	0	0	
0.2605	-0.00411476	-0.00201545	0.000482859	3.59756E-05	0	0	0	
0.260667	0.0114451	0.00247699	0.000575713	3.12225E-05	0	0	0	
0.260833	-0.00113946	-0.00121721	0.000462601	3.89111E-05	0	0	0	
0.261	-0.000701961	-0.00161753	0.000238963	3.94343E-05	0	0	0	
0.261167	-0.012817	0.00224489	0.000124995	3.97465E-05	0	0	0	
0.261333	0.00189035	-0.00138212	0.000153377	3.29763E-05	0	0	0	
0.2615	0.0209442	0.00136872	0.00018211	3.63403E-05	0	0	0	
0.261667	-0.0188908	-0.00155831	0.000330612	3.25342E-05	0	0	0	
0.261833	0.00077187	0.00160629	0.000516597	3.58738E-05	0	0	0	
0.262	0.00631262	-0.00190399	0.000566588	4.14376E-05	0	0	0	
0.262167	2.85345E-05	0.00125805	0.000392368	4.59951E-05	0	0	0	
0.262333	0.00159172	0.00135253	0.000197917	3.90554E-05	0	0	0	
0.2625	0.0019336	-0.00130049	0.000167923	3.20837E-05	0	0	0	
0.262667	-0.00901104	0.00115803	0.000204679	2.67348E-05	0	0	0	
0.262833	0.0196034	0.00107822	0.000272185	3.1516E-05	0	0	0	
0.263	-0.00736764	-0.00103668	0.000310058	3.01001E-05	0	0	0	
0.263167	0.00213463	-0.000397014	0.000326244	2.46785E-05	0	0	0	
0.263333	0.000494936	-6.60047E-05	0.000270228	1.85445E-05	0	0	0	
0.2635	0.00590956	0.000403526	0.000259483	2.20262E-05	0	0	0	
0.263667	-0.000172265	-0.00140647	0.000268891	3.82948E-05	0	0	0	
0.263833	0.00666854	0.00221145	0.000259756	5.56601E-05	0	0	0	
0.264	-0.00986302	-0.000623061	0.000234425	5.52987E-05	0	0	0	
0.264167	0.00452078	0.000400119	0.000209232	3.77409E-05	0	0	0	
0.264333	-0.00115573	-0.00136664	0.000199117	2.3874E-05	0	0	0	
0.2645	0.00805401	0.00257697	0.00017412	3.0011E-05	0	0	0	
0.264667	-0.0125607	-0.00233692	0.000201966	4.51611E-05	0	0	0	
0.264833	0.00798243	0.000969177	0.000247016	4.77762E-05	0	0	0	
0.265	-0.00590144	0.000947054	0.000331002	3.38541E-05	0	0	0	
0.265167	0.00137824	-0.00116108	0.000348495	2.50052E-05	0	0	0	
0.265333	-0.00018389	5.867E-05	0.000297149	2.09579E-05	0	0	0	
0.2655	0.000963394	0.00285906	0.000198857	2.72072E-05	0	0	0	
0.265667	-0.00084625	-0.00293194	0.000159036	3.8056E-05	0	0	0	
0.265833	0.00340236	0.00177403	0.000172611	4.79149E-05	0	0	0	
0.266	-0.0122389	-0.00131861	0.000205249	4.96708E-05	0	0	0	
0.266167	0.0163662	-0.000142399	0.000262508	3.73713E-05	0	0	0	
0.266333	-0.00697919	0.0017582	0.000308588	3.47996E-05	0	0	0	
0.2665	0.000305354	-0.00118103	0.000311974	3.66402E-05	0	0	0	
0.266667	0.00421389	-0.00071504	0.000261697	3.55013E-05	0	0	0	
0.266833	0.00584672	0.00348663	0.000233846	4.33231E-05	0	0	0	
0.267	-0.0134703	-0.00429811	0.000253373	5.85559E-05	0	0	0	
0.267167	0.0116474	0.00272836	0.000305362	7.8299E-05	0	0	0	
0.267333	-0.00423722	-0.000698581	0.000344441	7.33524E-05	0	0	0	
0.2675	0.000179961	-0.00105519	0.000304082	5.34073E-05	0	0	0	
0.267667	-0.00305024	0.000724406	0.000202377	3.52967E-05	0	0	0	
0.267833	0.00792655	0.00206109	0.000136294	2.55655E-05	0	0	0	
0.268	-0.0160807	-0.00382433	0.000189852	3.70143E-05	0	0	0	
0.268167	0.0102009	0.00241578	0.000301579	5.26312E-05	0	0	0	
0.268333	-0.00386827	2.9242E-06	0.000409735	6.16593E-05	0	0	0	
0.2685	0.000824708	-0.00101951	0.000411999	5.68939E-05	0	0	0	
0.268667	-0.00231471	0.00143899	0.000322293	4.72979E-05	0	0	0	
0.268833	0.000520876	-0.00143771	0.000205734	4.45236E-05	0	0	0	
0.269	-0.00151667	0.000541865	0.000152604	3.4011E-05	0	0	0	
0.269167	0.0109251	0.000254587	0.00017519	2.3898E-05	0	0	0	
0.269333	-0.0148193	-4.25587E-05	0.000221971	1.31705E-05	0	0	0	
0.2695	0.0146216	-0.000159685	0.000309454	1.3921E-05	0	0	0	
0.269667	-0.00334552	0.0011329	0.000367904	1.96044E-05	0	0	0	
0.269833	0.000224918	-0.000983214	0.000333646	3.11071E-05	0	0	0	
0.27	-0.00735754	-0.000713473	0.000215903	3.75658E-05	0	0	0	
0.270167	0.0129838	-0.000296118	0.000180396	3.4992E-05	0	0	0	
0.270333	-0.00553852	3.77297E-05	0.000261579	2.56606E-05	0	0	0	
0.2705	-0.000366668	0.00130939	0.000346298	1.81103E-05	0	0	0	
0.270667	-0.00463842	-0.00102651	0.000293104	1.96257E-05	0	0	0	
0.270833	0.0101032	-0.000185096	0.000201831	2.37269E-05	0	0	0	
0.271	-0.0101924	-0.000979318	0.000165092	3.64694E-05	0	0	0	
0.271167	0.0118531	0.00103034	0.000292782	4.26372E-05	0	0	0	
0.271333	-0.00641637	-0.000356089	0.000423475	4.09084E-05	0	0	0	
0.2715	0.00210223	0.000109177	0.000477337	2.53291E-05	0	0	0	
0.271667	-0.00293403	0.000946321	0.000417897	1.36223E-05	0	0	0	
0.271833	-0.00242062	-0.00119548	0.000305737	1.67553E-05	0	0	0	
0.272	-0.00586802	-0.000669036	0.000196792	2.57498E-05	0	0	0	
0.272167	0.0249673	0.00198951	0.000167577	3.75931E-05	0	0	0	
0.272333	-0.0275891	-0.00199833	0.000327942	4.39684E-05	0	0	0	
0.2725	0.00950694	0.000330858	0.000561426	4.2869E-05	0	0	0	
0.272667	0.00213057	0.000789548	0.000637472	3.40844E-05	0	0	0	
0.272833	0.00394956	-0.000879327	0.000446909	2.42845E-05	0	0	0	
0.273	-0.00429315	0.000145993	0.00021619	2.00664E-05	0	0	0	
0.273167	0.00515218	0.000358638	9.81898E-05	1.46972E-05	0	0	0	
0.273333	-0.0140547	9.24658E-05	0.0001267	1.72544E-05	0	0	0	
0.2735	0.0148692	-0.00316156	0.000240719	3.17382E-05	0	0	0	
0.273667	0.00210122	0.00527336	0.000388356	6.36018E-05	0	0	0	
0.273833	-0.00704886	-0.00384634	0.000419152	8.79781E-05	0	0	0	
0.274	-0.00420036	0.00106093	0.00031194	9.39797E-05	0	0	0	
0.274167	0.00942572	0.000272209	0.000167659	8.04049E-05	0	0	0	
0.274333	-0.00777557	0.000130684	0.000137509	6.13947E-05	0	0	0	
0.2745	0.0127011	-0.00338377	0.00019074	4.40754E-05	0	0	0	
0.274667	-0.016057	0.00444285	0.000272832	5.36715E-05	0	0	0	
0.274833	0.00795617	-0.00241378	0.000323179	7.06246E-05	0	0	0	
0.275	-0.00573209	-0.0006861	0.000373916	8.31118E-05	0	0	0	
0.275167	-0.00116097	0.00272827	0.000357053	7.74128E-05	0	0	0	
0.275333	0.00308946	-0.00324728	0.000282272	7.2772E-05	0	0	0	
0.2755	0.00798952	0.00103647	0.000189945	7.48274E-05	0	0	0	
0.275667	-0.0508123	0.00393674	0.00021591	7.95395E-05	0	0	0	
0.275833	0.114907	-0.0249789	0.00112936	0.000132602	0	0	0	
0.276	-0.0154545	-0.00148027	0.00185061	0.000239875	0	0	0	
0.276167	0.0549641	0.0037935	0.00193234	0.000236441	0	0	0	
0.276333	-0.0216691	-0.00560099	0.00121334	0.000186617	0	0	0	
0.2765	-0.0066115	0.0056499	0.00068257	9.15495E-05	0	0	0	
0.276667	0.0182228	-0.00615505	0.000555465	0.000111184	0	0	0	
0.276833	0.0374292	0.000434301	0.000468306	9.68426E-05	0	0	0	
0.277	-0.0332252	-0.00108582	0.000515381	8.88901E-05	0	0	0	
0.277167	0.00245807	-0.0010086	0.000786548	6.3843E-05	0	0	0	
0.277333	-0.0028347	0.00292076	0.000764475	6.41478E-05	0	0	0	
0.2775	0.0248497	-0.00164831	0.000564029	5.45393E-05	0	0	0	
0.277667	-0.0107408	-0.000563365	0.000444086	4.23228E-05	0	0	0	
0.277833	-0.0148892	0.00176151	0.00057008	3.49422E-05	0	0	0	
0.278	-0.00630445	-0.00146701	0.000547256	2.62469E-05	0	0	0	
0.278167	0.0326377	0.00125791	0.000428695	3.3733E-05	0	0	0	
0.278333	-0.0100099	7.99789E-05	0.000385563	4.33112E-05	0	0	0	
0.2785	-0.0032446	-0.00178241	0.000484643	4.75746E-05	0	0	0	
0.278667	-0.0177677	0.0021081	0.00043127	5.35014E-05	0	0	0	
0.278833	0.0263341	-0.000742742	0.000358343	6.07925E-05	0	0	0	
0.279	-0.00491793	0.0005113	0.000423945	6.47167E-05	0	0	0	
0.279167	-0.00225276	-0.001399	0.000491448	5.19833E-05	0	0	0	
0.279333	-0.0129339	0.00195121	0.000392845	4.0824E-05	0	0	0	
0.2795	0.0178121	-0.00128976	0.000283838	3.72735E-05	0	0	0	
0.279667	-0.00395936	0.000635342	0.000317648	5.01049E-05	0	0	0	
0.279833	0.00185419	0.000733809	0.000363819	6.10524E-05	0	0	0	
0.28	-0.0127472	-0.0021543	0.000299643	7.05287E-05	0	0	0	
0.280167	0.0121305	0.0021088	0.000245069	6.87385E-05	0	0	0	
0.280333	-0.00757815	-0.00123041	0.000287722	5.54612E-05	0	0	0	
0.2805	0.0133086	0.000525792	0.000331962	3.64408E-05	0	0	0	
0.280667	-0.0150992	-0.00140197	0.000331435	2.61531E-05	0	0	0	
0.280833	0.00945648	0.00193145	0.000354533	2.90839E-05	0	0	0	
0.281	-0.00800928	-0.00117555	0.000364645	3.54014E-05	0	0	0	
0.281167	0.0132195	0.000173146	0.000349492	3.2587E-05	0	0	0	
0.281333	-0.007291	-0.000214464	0.000347889	1.83981E-05	0	0	0	
0.2815	-0.00020397	-0.000481735	0.000372181	1.18612E-05	0	0	0	
0.281667	-0.0054904	-0.000813127	0.000297203	1.56011E-05	0	0	0	
0.281833	0.0219856	0.00246934	0.000243482	3.01179E-05	0	0	0	
0.282	-0.0135779	-0.000776294	0.000272585	4.26856E-05	0	0	0	
0.282167	0.000464594	-0.00191577	0.000397817	4.76339E-05	0	0	0	
0.282333	-0.00745704	0.00178151	0.000355524	4.89415E-05	0	0	0	
0.2825	0.0208578	-0.000126984	0.000285545	4.20937E-05	0	0	0	
0.282667	-0.0159705	-0.000192851	0.000280654	3.7675E-05	0	0	0	
0.282833	0.008007	-0.000408614	0.000394411	3.00709E-05	0	0	0	
0.283	-0.00650515	0.00160871	0.000378446	2.67178E-05	0	0	0	
0.283167	0.0182218	-0.00178813	0.000313324	3.10743E-05	0	0	0	
0.283333	-0.0196379	0.00186541	0.000287742	4.07889E-05	0	0	0	
0.2835	0.00551887	-0.000644608	0.000362388	5.8174E-05	0	0	0	
0.283667	-0.00310682	-0.0012362	0.000394651	6.4971E-05	0	0	0	
0.283833	0.0149111	0.00171699	0.000327402	6.43707E-05	0	0	0	
0.284	-0.0199492	-0.000809018	0.000286106	5.42697E-05	0	0	0	
0.284167	0.0141688	-0.000144435	0.000326228	4.57212E-05	0	0	0	
0.284333	-0.00691955	0.000605347	0.000380645	3.6206E-05	0	0	0	
0.2845	0.0144471	-1.52817E-05	0.000347326	3.19122E-05	0	0	0	
0.284667	-0.0244911	-0.00172384	0.000318279	3.70479E-05	0	0	0	
0.284833	0.0142726	0.0021107	0.00036715	4.96947E-05	0	0	0	
0.285	-0.00466561	-0.00117049	0.000432756	5.28365E-05	0	0	0	
0.285167	0.0111728	0.000554184	0.000391511	4.35876E-05	0	0	0	
0.285333	-0.0164885	-0.000485487	0.00031316	3.69772E-05	0	0	0	
0.2855	0.0157709	0.00131937	0.000299565	4.28328E-05	0	0	0	
0.285667	-0.0119567	-0.00187362	0.000361226	5.13591E-05	0	0	0	
0.285833	0.00968229	0.00238205	0.000383448	5.20752E-05	0	0	0	
0.286	-0.0112813	-0.00100107	0.000346436	4.67497E-05	0	0	0	
0.286167	0.0141342	-0.00108866	0.000302914	3.53768E-05	0	0	0	
0.286333	-0.0126094	0.0011392	0.000284021	3.27464E-05	0	0	0	
0.2865	0.0167217	0.00126828	0.000312443	3.35441E-05	0	0	0	
0.286667	-0.0124494	-0.00270173	0.000350504	4.71963E-05	0	0	0	
0.286833	0.00660072	0.00118963	0.00036038	4.80707E-05	0	0	0	
0.287	-0.0137535	-0.000478293	0.000312729	4.00995E-05	0	0	0	
0.287167	0.0199129	0.000584789	0.000292675	2.27037E-05	0	0	0	
0.287333	-0.00745958	-4.26292E-05	0.000348537	1.51663E-05	0	0	0	
0.2875	0.00342587	0.00156627	0.000369798	2.61555E-05	0	0	0	
0.287667	-0.0197268	-0.00196872	0.000335461	4.56043E-05	0	0	0	
0.287833	0.0199987	0.00114411	0.000305827	5.41003E-05	0	0	0	
0.288	-0.00111926	0.000445746	0.000408539	4.90349E-05	0	0	0	
0.288167	0.00556881	-0.000254884	0.000410478	3.57016E-05	0	0	0	
0.288333	-0.0210278	0.000478787	0.000365918	2.50935E-05	0	0	0	
0.2885	0.0138447	0.000757178	0.000309546	1.48018E-05	0	0	0	
0.288667	-0.00485817	-0.00194309	0.000361809	1.80071E-05	0	0	0	
0.288833	0.0123077	0.000934653	0.00034528	2.46121E-05	0	0	0	
0.289	-0.018932	-0.00020169	0.000318585	3.02936E-05	0	0	0	
0.289167	0.0135894	0.000942033	0.000328234	2.72499E-05	0	0	0	
0.289333	-0.00894358	-0.000935896	0.000375108	2.50438E-05	0	0	0	
0.2895	0.010477	0.000281831	0.000348777	1.87373E-05	0	0	0	
0.289667	-0.0147055	-0.000654646	0.000307123	1.47775E-05	0	0	0	
0.289833	0.0146937	0.000669117	0.000308649	1.7782E-05	0	0	0	
0.29	-0.0136729	-2.38122E-05	0.000341955	3.43446E-05	0	0	0	
0.290167	0.0112361	-0.000617609	0.000355101	4.39319E-05	0	0	0	
0.290333	-0.00670137	0.00147658	0.000327386	4.2577E-05	0	0	0	
0.2905	0.00946441	-0.00159166	0.000277397	3.44174E-05	0	0	0	
0.290667	-0.017074	0.00158345	0.00025564	3.18818E-05	0	0	0	
0.290833	0.0139811	-0.000700263	0.00028426	3.77746E-05	0	0	0	
0.291	-0.00760943	0.00057579	0.000324793	4.62699E-05	0	0	0	
0.291167	0.00852318	-5.69028E-05	0.000310309	5.24721E-05	0	0	0	
0.291333	-0.0124908	-0.000495307	0.000268104	5.44051E-05	0	0	0	
0.2915	0.0138017	0.0022185	0.000248592	5.92689E-05	0	0	0	
0.291667	-0.0190092	-0.00322863	0.000295355	6.97492E-05	0	0	0	
0.291833	0.0123676	0.00218898	0.000350467	7.24387E-05	0	0	0	
0.292	-0.00493599	-0.00297971	0.000381782	6.80863E-05	0	0	0	
0.292167	0.00889674	0.00555391	0.000329844	7.04432E-05	0	0	0	
0.292333	-0.0218383	-0.00406685	0.000298299	8.58655E-05	0	0	0	
0.2925	0.0174483	0.00223735	0.000322284	8.52217E-05	0	0	0	
0.292667	-0.0125841	-0.00300343	0.000373973	6.95831E-05	0	0	0	
0.292833	0.0204082	0.00267141	0.000389311	5.60225E-05	0	0	0	
0.293	-0.0199391	-0.000389768	0.000372854	4.79487E-05	0	0	0	
0.293167	0.00499376	0.000450332	0.000409417	3.43313E-05	0	0	0	
0.293333	-0.00998494	-0.000867398	0.000356973	1.93874E-05	0	0	0	
0.2935	0.0340278	8.91742E-05	0.000370066	1.49873E-05	0	0	0	
0.293667	-0.0164852	-0.00047197	0.00041415	1.86536E-05	0	0	0	
0.293833	-0.0134495	0.00262273	0.000585442	1.97516E-05	0	0	0	
0.294	-0.0124423	-0.00367534	0.00051642	3.52777E-05	0	0	0	
0.294167	0.0417532	0.00248	0.000477992	5.29641E-05	0	0	0	
0.294333	-0.00562966	-0.000769749	0.000523213	5.99423E-05	0	0	0	
0.2945	-0.0145619	0.000551376	0.000661337	5.28824E-05	0	0	0	
0.294667	-0.023887	8.09973E-05	0.00067205	4.26129E-05	0	0	0	
0.294833	0.0361966	-0.00171397	0.000554409	3.76667E-05	0	0	0	
0.295	-0.000843479	0.00146505	0.00067089	3.37466E-05	0	0	0	
0.295167	-0.00574762	-0.00143346	0.000606732	3.43499E-05	0	0	0	
0.295333	-0.030998	0.00153584	0.000632597	3.76712E-05	0	0	0	
0.2955	0.0342893	-0.00280141	0.000503646	4.4094E-05	0	0	0	
0.295667	0.00278561	0.00199646	0.000684169	5.29148E-05	0	0	0	
0.295833	-0.00667991	-0.000164982	0.000604152	5.48944E-05	0	0	0	
0.296	-0.0222652	-0.00155571	0.00049242	5.17076E-05	0	0	0	
0.296167	0.0221972	0.00145632	0.000341155	4.69365E-05	0	0	0	
0.296333	-0.00588343	-0.00135375	0.000381278	4.76915E-05	0	0	0	
0.2965	0.008662	0.000545652	0.000375268	4.39612E-05	0	0	0	
0.296667	-0.019495	0.000501206	0.000317488	2.98294E-05	0	0	0	
0.296833	0.0214019	-0.000110936	0.00030018	1.92214E-05	0	0	0	
0.297	-0.0165671	-0.00129551	0.000358632	2.25474E-05	0	0	0	
0.297167	0.0153615	0.00105205	0.000397669	3.5318E-05	0	0	0	
0.297333	-0.0138941	-3.26574E-05	0.000361006	3.78615E-05	0	0	0	
0.2975	0.015078	4.57172E-05	0.000331073	2.92154E-05	0	0	0	
0.297667	-0.0154352	-0.000709023	0.000300587	1.83169E-05	0	0	0	
0.297833	0.0154119	0.00145153	0.000321466	1.79538E-05	0	0	0	
0.298	-0.00948427	-0.00213216	0.000321163	2.52027E-05	0	0	0	
0.298167	0.0116989	0.00312575	0.000308607	3.90179E-05	0	0	0	
0.298333	-0.0190549	-0.00312604	0.000285497	5.17556E-05	0	0	0	
0.2985	0.0229175	0.00139395	0.000319672	5.7494E-05	0	0	0	
0.298667	-0.0144226	-0.000128413	0.000375365	4.36584E-05	0	0	0	
0.298833	0.0119432	2.33007E-05	0.000397951	3.24937E-05	0	0	0	
0.299	-0.014341	0.000409405	0.000356211	3.11018E-05	0	0	0	
0.299167	0.0164637	-0.000713546	0.000323062	4.01906E-05	0	0	0	
0.299333	-0.0150979	-6.75309E-05	0.000310247	3.6295E-05	0	0	0	
0.2995	0.0176392	-0.00145316	0.000334077	2.81319E-05	0	0	0	
0.299667	-0.0137396	0.00382091	0.000336415	3.78361E-05	0	0	0	
0.299833	0.0118356	-0.0031942	0.000315693	6.06079E-05	0	0	0	
0.3	-0.0145801	0.000195489	0.000285249	7.74485E-05	0	0	0	
0.300167	0.0164508	0.00225607	0.000284112	7.56545E-05	0	0	0	
0.300333	-0.0167047	-0.00297322	0.000314945	6.57725E-05	0	0	0	
0.3005	0.0181329	0.00250574	0.000341702	6.4265E-05	0	0	0	
0.300667	-0.0162319	0.000537027	0.000366957	5.76825E-05	0	0	0	
0.300833	0.010034	-0.00293707	0.00035211	5.53543E-05	0	0	0	
0.301	-0.0115404	0.000905904	0.000308334	5.34825E-05	0	0	0	
0.301167	0.0197912	0.00422348	0.000279724	6.44299E-05	0	0	0	
0.301333	-0.0197114	-0.00417287	0.000318459	8.11454E-05	0	0	0	
0.3015	0.0105667	0.00122948	0.000376229	8.38622E-05	0	0	0	
0.301667	-0.0111186	0.00220106	0.000371446	7.96501E-05	0	0	0	
0.301833	0.0190024	-0.00465605	0.000338457	7.96899E-05	0	0	0	
0.302	-0.0195658	0.00268812	0.000316999	8.67193E-05	0	0	0	
0.302167	0.0113993	0.00275181	0.00035596	9.41483E-05	0	0	0	
0.302333	-0.0104638	-0.00410833	0.000342002	9.54214E-05	0	0	0	
0.3025	0.0186936	0.00107325	0.000321635	8.40817E-05	0	0	0	
0.302667	-0.0159267	0.000365645	0.000308152	5.80198E-05	0	0	0	
0.302833	0.0112546	0.00015515	0.000342787	3.5854E-05	0	0	0	
0.303	-0.0167231	-0.00295022	0.0003441	3.92882E-05	0	0	0	
0.303167	0.0206787	0.00468032	0.000344171	6.75153E-05	0	0	0	
0.303333	-0.0063382	-0.00422606	0.000364589	8.9596E-05	0	0	0	
0.3035	0.00903285	0.00110746	0.000354615	9.24446E-05	0	0	0	
0.303667	-0.0203667	-0.000623765	0.000326067	7.06093E-05	0	0	0	
0.303833	0.0140836	0.00283169	0.000315329	4.83432E-05	0	0	0	
0.304	-0.00587286	-0.00409592	0.000338999	4.80812E-05	0	0	0	
0.304167	0.0255298	0.00217089	0.000351128	6.87846E-05	0	0	0	
0.304333	-0.0303923	0.000843887	0.000381543	8.1781E-05	0	0	0	
0.3045	0.00780452	-0.00364763	0.000492135	8.24847E-05	0	0	0	
0.304667	-0.00280805	0.00401532	0.000463664	8.38481E-05	0	0	0	
0.304833	0.0266754	-0.00188709	0.000434808	8.12759E-05	0	0	0	
0.305	-0.0268593	-0.000614169	0.000371564	6.19624E-05	0	0	0	
0.305167	0.00847581	0.000115	0.000479905	3.56004E-05	0	0	0	
0.305333	-0.008369	0.00169225	0.000425428	2.01629E-05	0	0	0	
0.3055	0.0233309	-0.00213429	0.000373709	2.51813E-05	0	0	0	
0.305667	-0.019326	0.000884176	0.000324313	3.29565E-05	0	0	0	
0.305833	0.0129426	-8.86173E-05	0.000363226	3.65771E-05	0	0	0	
0.306	-0.0131819	-0.0003836	0.000345846	3.71488E-05	0	0	0	
0.306167	0.0209296	3.06267E-05	0.000312877	3.42715E-05	0	0	0	
0.306333	-0.0204156	0.000715165	0.000329609	2.72115E-05	0	0	0	
0.3065	0.0196563	-0.00189011	0.000379299	2.43413E-05	0	0	0	
0.306667	-0.0193554	0.00136339	0.000404404	2.94561E-05	0	0	0	
0.306833	0.0152051	-0.00112061	0.000390439	4.06521E-05	0	0	0	
0.307	-0.0116597	-5.36679E-05	0.000352196	4.3319E-05	0	0	0	
0.307167	0.0232365	0.00188077	0.000331833	4.21126E-05	0	0	0	
0.307333	-0.0286005	-0.00177327	0.000368897	4.10592E-05	0	0	0	
0.3075	0.0171038	0.000438717	0.000437356	3.84708E-05	0	0	0	
0.307667	-0.0100691	-0.00109125	0.000453244	2.90242E-05	0	0	0	
0.307833	0.0199426	0.0014547	0.000391269	2.33019E-05	0	0	0	
0.308	-0.0282594	-0.00125063	0.000378576	2.38145E-05	0	0	0	
0.308167	0.0186464	0.000671993	0.000416266	2.99194E-05	0	0	0	
0.308333	-0.00686688	-0.000138383	0.000444924	2.67136E-05	0	0	0	
0.3085	0.0131504	-0.000856898	0.000365911	1.96749E-05	0	0	0	
0.308667	-0.0333487	0.00150271	0.000356107	2.08536E-05	0	0	0	
0.308833	0.0299078	-0.000739735	0.000421348	2.77236E-05	0	0	0	
0.309	-0.01033	0.000300924	0.000542505	3.39282E-05	0	0	0	
0.309167	0.00393557	-0.00184524	0.000461396	3.40968E-05	0	0	0	
0.309333	-0.0225361	0.00104813	0.000369803	3.87353E-05	0	0	0	
0.3095	0.0231417	0.0013383	0.00032005	4.79061E-05	0	0	0	
0.309667	-0.00482909	-0.00198053	0.000407052	5.7324E-05	0	0	0	
0.309833	0.00890335	0.00178638	0.000367146	5.67935E-05	0	0	0	
0.31	-0.0340148	-0.00233629	0.000368069	5.30035E-05	0	0	0	
0.310167	0.0262986	0.00257967	0.000413892	5.94884E-05	0	0	0	
0.310333	-0.000427788	-0.00164724	0.000529932	7.59601E-05	0	0	0	
0.3105	0.00975797	-0.00117025	0.000432893	8.1814E-05	0	0	0	
0.310667	-0.027804	0.00115894	0.000346212	6.69024E-05	0	0	0	
0.310833	0.0157672	-0.000664533	0.0003329	4.01812E-05	0	0	0	
0.311	-0.00253591	0.00162843	0.000378784	2.65096E-05	0	0	0	
0.311167	0.0195863	-0.00156561	0.000353813	2.32754E-05	0	0	0	
0.311333	-0.0264757	0.00111033	0.000330678	2.71613E-05	0	0	0	
0.3115	0.00913658	-0.00274179	0.000370072	3.14742E-05	0	0	0	
0.311667	-0.00952318	0.00294601	0.000337326	4.79174E-05	0	0	0	
0.311833	0.0271524	2.29452E-05	0.000328547	6.65282E-05	0	0	0	
0.312	-0.0252501	-0.0015129	0.000356732	7.98548E-05	0	0	0	
0.312167	0.00472032	0.00161419	0.000440328	7.37507E-05	0	0	0	
0.312333	-0.00587043	-0.0015944	0.000345316	6.23464E-05	0	0	0	
0.3125	0.0217682	0.00312458	0.000273917	5.97702E-05	0	0	0	
0.312667	-0.0199528	-0.00305071	0.000262168	6.44665E-05	0	0	0	
0.312833	0.00860162	0.00282176	0.00033436	6.83704E-05	0	0	0	
0.313	-0.0140425	-0.00431664	0.000315558	7.18284E-05	0	0	0	
0.313167	0.023405	0.0030407	0.000309242	7.43773E-05	0	0	0	
0.313333	-0.0188367	-0.000993705	0.000327781	7.17225E-05	0	0	0	
0.3135	0.0108211	0.000413669	0.000368676	5.09215E-05	0	0	0	
0.313667	-0.0152835	-0.00213517	0.000342699	3.34714E-05	0	0	0	
0.313833	0.0206479	0.00289712	0.000332921	3.29234E-05	0	0	0	
0.314	-0.0227326	-0.00143789	0.00035204	4.55779E-05	0	0	0	
0.314167	0.0144327	-0.000504364	0.000379988	4.62884E-05	0	0	0	
0.314333	-0.0146571	0.00103745	0.000355768	3.84578E-05	0	0	0	
0.3145	0.0210251	0.000263366	0.000333684	2.4042E-05	0	0	0	
0.314667	-0.0207367	-0.00153521	0.000346088	1.91754E-05	0	0	0	
0.314833	0.0111912	0.00216048	0.000367096	2.21721E-05	0	0	0	
0.315	-0.0159111	0.000139005	0.000342834	3.09203E-05	0	0	0	
0.315167	0.0199879	-0.00339754	0.000329471	4.22562E-05	0	0	0	
0.315333	-0.0194565	0.00220741	0.000328392	5.15546E-05	0	0	0	
0.3155	0.0143338	0.00153553	0.000360356	5.12637E-05	0	0	0	
0.315667	-0.0144094	-0.00221695	0.000332324	5.16791E-05	0	0	0	
0.315833	0.0171413	0.000766793	0.000324724	4.11329E-05	0	0	0	
0.316	-0.017484	-0.000736263	0.000311667	3.50773E-05	0	0	0	
0.316167	0.0167423	0.000333621	0.000327338	1.917E-05	0	0	0	
0.316333	-0.0198588	0.000310102	0.000331212	1.79365E-05	0	0	0	
0.3165	0.0207777	1.00573E-05	0.000354293	2.55863E-05	0	0	0	
0.316667	-0.0120339	-0.00167166	0.000356815	3.71438E-05	0	0	0	
0.316833	0.0109156	0.00172618	0.000337816	4.03913E-05	0	0	0	
0.317	-0.014977	-0.0014738	0.000294267	3.49731E-05	0	0	0	
0.317167	0.0165934	0.00252116	0.000279258	3.62715E-05	0	0	0	
0.317333	-0.013393	-0.00250544	0.000287137	4.37819E-05	0	0	0	
0.3175	0.0186365	0.00222262	0.000309994	5.00897E-05	0	0	0	
0.317667	-0.0215828	-0.00226287	0.000331686	4.95406E-05	0	0	0	
