0	8.89538E-05	-0.000782328	8.89538E-09	7.82328E-08	0	0	0	
0.000166667	-0.00133604	0.00295599	5.12702E-06	1.47289E-05	0	0	0	
0.000333333	0.00193548	-0.00246	1.74344E-05	3.31934E-05	0	0	0	
0.0005	-0.00151786	-0.000691326	3.17147E-05	4.03048E-05	0	0	0	
0.000666667	0.00154519	0.000397188	3.78983E-05	3.05377E-05	0	0	0	
0.000833333	-0.0021501	0.000376136	3.8618E-05	1.49377E-05	0	0	0	
0.001	0.003106	0.00118297	4.17691E-05	1.55578E-05	0	0	0	
0.00116667	-0.00302614	-0.000447355	5.404E-05	2.28988E-05	0	0	0	
0.00133333	0.00213418	-0.0011968	6.40262E-05	2.75681E-05	0	0	0	
0.0015	-0.00284649	-5.87517E-05	7.2169E-05	2.38371E-05	0	0	0	
0.00166667	0.00295309	-0.00127755	7.07058E-05	2.40235E-05	0	0	0	
0.00183333	-0.00135184	0.00274643	6.59835E-05	3.57644E-05	0	0	0	
0.002	0.00270487	-0.00175157	6.43424E-05	5.08368E-05	0	0	0	
0.00216667	-0.00300458	0.00278064	7.82301E-05	4.90982E-05	0	0	0	
0.00233333	0.00248251	-0.00394695	9.09361E-05	5.7721E-05	0	0	0	
0.0025	-0.00230228	0.00266683	9.48479E-05	6.38722E-05	0	0	0	
0.00266667	0.00221997	-0.00223513	8.61685E-05	7.30162E-05	0	0	0	
0.00283333	-0.00294279	0.00247137	8.06691E-05	6.22081E-05	0	0	0	
0.003	0.00384588	-0.00195647	7.68904E-05	5.62981E-05	0	0	0	
0.00316667	-0.00149022	0.000612358	7.35029E-05	4.78893E-05	0	0	0	
0.00333333	0.000424512	7.52749E-05	6.46344E-05	3.42433E-05	0	0	0	
0.0035	-0.000350232	-0.000943688	6.86241E-05	1.92059E-05	0	0	0	
0.00366667	0.00214143	0.000722446	8.2458E-05	1.44951E-05	0	0	0	
0.00383333	-0.00338306	0.0012796	9.96214E-05	1.52031E-05	0	0	0	
0.004	0.00378216	-0.00323386	0.000104871	2.6847E-05	0	0	0	
0.00416667	-0.00326742	0.00202838	0.000108731	4.13214E-05	0	0	0	
0.00433333	0.00483814	-0.000551504	0.000113359	4.7082E-05	0	0	0	
0.0045	-0.00276831	-0.00118339	0.000111352	3.8279E-05	0	0	0	
0.00466667	0.000870195	-0.00122347	9.07211E-05	2.30097E-05	0	0	0	
0.00483333	-0.00217075	0.00193153	8.44874E-05	2.72957E-05	0	0	0	
0.005	0.00467871	-0.00183367	9.50045E-05	3.94792E-05	0	0	0	
0.00516667	-0.00404146	0.000349552	0.00011481	5.71164E-05	0	0	0	
0.00533333	0.00426116	-0.000637275	0.00011479	6.21939E-05	0	0	0	
0.0055	-0.002722	0.000119073	0.000101304	4.86726E-05	0	0	0	
0.00566667	0.00200471	-0.000996087	7.92963E-05	3.24525E-05	0	0	0	
0.00583333	-0.000697101	0.000813314	6.46163E-05	1.98608E-05	0	0	0	
0.006	0.000476621	-0.00103677	5.87083E-05	2.09617E-05	0	0	0	
0.00616667	-0.000894179	0.00090598	7.37565E-05	2.0613E-05	0	0	0	
0.00633333	0.00252997	-0.000445589	9.97899E-05	1.89073E-05	0	0	0	
0.0065	-0.00319653	-0.000153386	0.000124004	1.45865E-05	0	0	0	
0.00666667	0.00483787	0.000355615	0.000132909	1.35162E-05	0	0	0	
0.00683333	-0.00457335	0.00141027	0.000132059	1.36022E-05	0	0	0	
0.007	0.00418063	-0.00322521	0.000120317	3.03775E-05	0	0	0	
0.00716667	-0.00356194	0.00486876	0.000105833	5.48195E-05	0	0	0	
0.00733333	0.00304803	-0.00223098	8.83826E-05	7.42447E-05	0	0	0	
0.0075	-0.00185222	0.00150673	7.85679E-05	6.57168E-05	0	0	0	
0.00766667	0.00276998	-0.000636813	7.3076E-05	4.44584E-05	0	0	0	
0.00783333	-0.00210959	-0.000152615	7.28779E-05	2.13863E-05	0	0	0	
0.008	0.0023658	8.73604E-05	7.41444E-05	1.29236E-05	0	0	0	
0.00816667	-0.00285816	0.000151003	7.72957E-05	1.50177E-05	0	0	0	
0.00833333	0.00375305	-0.00031473	7.77072E-05	3.39748E-05	0	0	0	
0.0085	-0.00294643	0.00211739	8.38929E-05	4.79032E-05	0	0	0	
0.00866667	0.00343421	-0.00231418	9.19488E-05	4.92998E-05	0	0	0	
0.00883333	-0.00321122	0.000906617	0.000100592	4.16909E-05	0	0	0	
0.009	0.00382287	6.74641E-05	0.000102197	3.88428E-05	0	0	0	
0.00916667	-0.0043925	-0.000185896	0.000102011	3.42719E-05	0	0	0	
0.00933333	0.00487068	-0.000189535	0.00010076	2.37059E-05	0	0	0	
0.0095	-0.00348737	-4.00605E-05	9.89359E-05	1.28326E-05	0	0	0	
0.00966667	0.00265847	0.000255415	9.06012E-05	1.12416E-05	0	0	0	
0.00983333	-0.00247716	0.000312681	8.02153E-05	2.14275E-05	0	0	0	
0.01	0.00269969	-0.00278324	7.34129E-05	3.3396E-05	0	0	0	
0.0101667	-0.00313105	0.00448941	7.77359E-05	5.18955E-05	0	0	0	
0.0103333	0.00454948	-0.0024482	9.24302E-05	5.93474E-05	0	0	0	
0.0105	-0.00430163	-9.4854E-05	0.000109178	5.75001E-05	0	0	0	
0.0106667	0.00399486	0.00261122	0.000120446	4.25163E-05	0	0	0	
0.0108333	-0.00392294	-0.00199683	0.000122316	3.78564E-05	0	0	0	
0.011	0.00285793	0.000562372	0.000121355	3.36212E-05	0	0	0	
0.0111667	-0.0022516	0.000885566	0.000120892	3.81811E-05	0	0	0	
0.0113333	0.00304775	-0.00153332	0.000119731	4.26708E-05	0	0	0	
0.0115	-0.00247403	0.00164247	0.000113045	5.18127E-05	0	0	0	
0.0116667	0.00265086	-0.00199612	9.99372E-05	4.57184E-05	0	0	0	
0.0118333	-0.0024742	0.00228556	8.39531E-05	4.56193E-05	0	0	0	
0.012	0.00247988	-0.000724857	6.84541E-05	3.39221E-05	0	0	0	
0.0121667	-0.00166317	0.00110805	5.93394E-05	3.35889E-05	0	0	0	
0.0123333	0.00233092	-0.00076547	5.65826E-05	2.26917E-05	0	0	0	
0.0125	-0.00255805	-0.000113949	6.06739E-05	2.68655E-05	0	0	0	
0.0126667	0.00211082	0.000187367	6.7326E-05	3.07197E-05	0	0	0	
0.0128333	-0.00362122	0.000851686	7.71681E-05	3.6042E-05	0	0	0	
0.013	0.00364091	-0.000869445	9.12153E-05	4.00253E-05	0	0	0	
0.0131667	-0.00334571	0.00143717	0.000104136	3.90465E-05	0	0	0	
0.0133333	0.00348366	-0.00229168	0.000109074	3.67546E-05	0	0	0	
0.0135	-0.00335119	0.00210659	0.00010303	3.82615E-05	0	0	0	
0.0136667	0.00288311	-1.26385E-05	9.24529E-05	3.418E-05	0	0	0	
0.0138333	-0.00385713	0.000132918	8.47899E-05	2.50827E-05	0	0	0	
0.014	0.00250315	0.000114651	8.25822E-05	1.14996E-05	0	0	0	
0.0141667	-0.00282842	0.0010264	8.19774E-05	1.29444E-05	0	0	0	
0.0143333	0.00248859	-0.00218908	7.98811E-05	2.53611E-05	0	0	0	
0.0145	-0.00185004	0.000813333	7.60698E-05	3.93023E-05	0	0	0	
0.0146667	0.00108681	7.29238E-05	6.72713E-05	4.06971E-05	0	0	0	
0.0148333	-0.000311538	0.000555575	5.30841E-05	3.73577E-05	0	0	0	
0.015	0.000538175	-0.00115476	4.75796E-05	2.82876E-05	0	0	0	
0.0151667	-0.00230651	0.00183333	6.75781E-05	2.97366E-05	0	0	0	
0.0153333	0.00284867	4.73187E-05	9.57244E-05	3.55421E-05	0	0	0	
0.0155	-0.00389777	-0.000755031	0.000109219	4.28503E-05	0	0	0	
0.0156667	0.00520366	-0.00034102	0.000106806	3.74054E-05	0	0	0	
0.0158333	-0.00661198	0.000675476	0.000107194	2.90097E-05	0	0	0	
0.016	0.0044301	-0.000433293	0.000108648	1.84244E-05	0	0	0	
0.0161667	-0.00273802	0.00114981	9.67003E-05	2.43497E-05	0	0	0	
0.0163333	0.00334184	-9.86331E-05	8.64305E-05	2.22704E-05	0	0	0	
0.0165	-0.00408533	-0.00339908	7.55747E-05	4.58113E-05	0	0	0	
0.0166667	0.00256051	0.00592632	7.00328E-05	8.92332E-05	0	0	0	
0.0168333	-0.00348574	-0.00267259	6.58452E-05	0.000113971	0	0	0	
0.017	0.00412317	5.16727E-05	8.50371E-05	0.000119811	0	0	0	
0.0171667	-0.00412741	0.000882581	0.000108976	0.000107236	0	0	0	
0.0173333	0.00327473	-0.00128816	0.000118869	0.00010499	0	0	0	
0.0175	-0.00420565	0.00439761	0.000114567	9.332E-05	0	0	0	
0.0176667	0.00649595	-0.00652919	0.000122266	8.43078E-05	0	0	0	
0.0178333	-0.00707539	0.00536402	0.000141154	0.000105689	0	0	0	
0.018	0.00265832	0.000788262	0.000146411	0.000110928	0	0	0	
0.0181667	-0.00245523	-0.00361568	0.000128631	9.61037E-05	0	0	0	
0.0183333	0.0042523	0.00211702	0.000109062	6.22123E-05	0	0	0	
0.0185	-0.00400338	-0.000844003	9.91076E-05	5.01973E-05	0	0	0	
0.0186667	0.0030334	0.000847495	9.42791E-05	4.4889E-05	0	0	0	
0.0188333	-0.00145583	2.37162E-05	8.51056E-05	3.48932E-05	0	0	0	
0.019	0.000941845	0.000107761	7.38931E-05	2.92244E-05	0	0	0	
0.0191667	-0.00236222	-0.000638287	7.30454E-05	2.78846E-05	0	0	0	
0.0193333	0.00341436	-0.000660284	7.93514E-05	2.46786E-05	0	0	0	
0.0195	-0.00368644	-0.000444616	8.95252E-05	2.02133E-05	0	0	0	
0.0196667	0.00327303	0.00137153	9.07611E-05	1.7158E-05	0	0	0	
0.0198333	-0.00245312	-0.000896602	8.21939E-05	1.90927E-05	0	0	0	
0.02	0.00228686	0.000376568	6.43727E-05	2.82307E-05	0	0	0	
0.0201667	-0.00221589	-0.000167077	5.52451E-05	3.47367E-05	0	0	0	
0.0203333	0.00211454	-0.000993509	5.70905E-05	3.40761E-05	0	0	0	
0.0205	-0.00344099	0.00286412	6.67174E-05	3.31328E-05	0	0	0	
0.0206667	0.00427482	-0.00266503	7.56892E-05	4.05522E-05	0	0	0	
0.0208333	-0.0044308	0.00219948	8.3981E-05	5.00444E-05	0	0	0	
0.021	0.00478613	-0.00179204	9.05958E-05	5.18705E-05	0	0	0	
0.0211667	-0.00291568	0.000662011	8.67719E-05	4.70819E-05	0	0	0	
0.0213333	0.000929465	0.00093435	6.84676E-05	4.70908E-05	0	0	0	
0.0215	-0.0020379	0.000991176	5.75754E-05	4.09493E-05	0	0	0	
0.0216667	0.00499634	-0.000495847	6.79575E-05	3.8398E-05	0	0	0	
0.0218333	-0.00353415	-0.000679905	8.97546E-05	4.27113E-05	0	0	0	
0.022	0.0027247	-0.00106012	9.45788E-05	4.19666E-05	0	0	0	
0.0221667	-0.00263552	0.00251942	9.1585E-05	3.88904E-05	0	0	0	
0.0223333	0.00420822	-0.000933651	9.21201E-05	3.3912E-05	0	0	0	
0.0225	-0.00301424	0.00153687	9.99883E-05	3.60505E-05	0	0	0	
0.0226667	0.00312473	-0.00162412	9.8067E-05	3.97313E-05	0	0	0	
0.0228333	-0.00273372	0.00106387	9.81051E-05	4.38423E-05	0	0	0	
0.023	0.00382634	-0.0019694	0.000100397	4.39293E-05	0	0	0	
0.0231667	-0.00272261	0.00185366	0.00010129	4.04651E-05	0	0	0	
0.0233333	0.00168588	0.00172935	8.37106E-05	3.06145E-05	0	0	0	
0.0235	-0.000674434	-0.00228862	6.83902E-05	3.23418E-05	0	0	0	
0.0236667	0.00265106	0.00152781	6.67668E-05	3.75417E-05	0	0	0	
0.0238333	-0.00275437	-0.000167254	8.25963E-05	4.56357E-05	0	0	0	
0.024	0.00294	-0.00120564	9.19247E-05	4.29635E-05	0	0	0	
0.0241667	-0.00244485	0.00147165	8.98685E-05	3.53384E-05	0	0	0	
0.0243333	0.0019596	0.000221269	7.90525E-05	2.8342E-05	0	0	0	
0.0245	-0.00187426	0.000185001	7.53735E-05	3.19319E-05	0	0	0	
0.0246667	0.00352133	-0.000332206	7.93967E-05	3.39139E-05	0	0	0	
0.0248333	-0.00370092	0.000367498	9.20566E-05	3.3072E-05	0	0	0	
0.025	0.00411471	-0.00154459	0.00010127	2.88785E-05	0	0	0	
0.0251667	-0.0041379	0.00149722	0.0001043	2.82057E-05	0	0	0	
0.0253333	0.0029614	-0.000578542	9.88708E-05	2.772E-05	0	0	0	
0.0255	-0.00290224	-0.000110327	8.82512E-05	2.69485E-05	0	0	0	
0.0256667	0.00329848	-0.000153579	8.19179E-05	2.77186E-05	0	0	0	
0.0258333	-0.00325712	0.00127319	8.18744E-05	3.10638E-05	0	0	0	
0.026	0.00342259	-0.00150004	9.29616E-05	3.10049E-05	0	0	0	
0.0261667	-0.00390061	0.0016341	0.000102095	2.95759E-05	0	0	0	
0.0263333	0.0040837	-0.000789828	0.000105761	2.69897E-05	0	0	0	
0.0265	-0.00358712	0.00101504	9.99192E-05	2.48675E-05	0	0	0	
0.0266667	0.00295042	-0.000169236	9.01187E-05	1.89334E-05	0	0	0	
0.0268333	-0.00226149	0.00140034	7.78901E-05	1.65304E-05	0	0	0	
0.027	0.00261377	-0.000895959	6.95275E-05	1.98225E-05	0	0	0	
0.0271667	-0.00255874	0.000269225	6.4043E-05	2.29683E-05	0	0	0	
0.0273333	0.00329239	0.000743862	6.87125E-05	2.21204E-05	0	0	0	
0.0275	-0.00342367	-0.000124327	7.87746E-05	1.67143E-05	0	0	0	
0.0276667	0.00291626	0.0011498	8.9224E-05	1.75385E-05	0	0	0	
0.0278333	-0.00377686	0.00187618	9.60596E-05	1.94743E-05	0	0	0	
0.028	0.00553503	-0.00185116	0.000100149	3.10985E-05	0	0	0	
0.0281667	-0.00358772	0.000172109	0.000104869	2.78537E-05	0	0	0	
0.0283333	0.00347444	-0.000121476	0.000100886	2.89957E-05	0	0	0	
0.0285	-0.00300514	0.00117684	9.91887E-05	2.26786E-05	0	0	0	
0.0286667	0.00360632	-0.00205221	9.89478E-05	2.84207E-05	0	0	0	
0.0288333	-0.00393886	0.00367649	0.000102772	3.94927E-05	0	0	0	
0.029	0.002791	-0.00112548	9.66366E-05	4.58322E-05	0	0	0	
0.0291667	-0.00128929	-0.000732837	8.50899E-05	3.90762E-05	0	0	0	
0.0293333	0.00269669	0.000665418	7.02055E-05	2.32295E-05	0	0	0	
0.0295	-0.00169595	-0.00131359	6.5136E-05	1.71263E-05	0	0	0	
0.0296667	0.00202088	0.000924052	6.25379E-05	2.14181E-05	0	0	0	
0.0298333	-0.00257306	0.00041971	6.95304E-05	2.43133E-05	0	0	0	
0.03	0.00313439	-0.00101343	7.45067E-05	2.76773E-05	0	0	0	
0.0301667	-0.00259797	0.002072	8.17149E-05	3.15201E-05	0	0	0	
0.0303333	0.00251106	-0.00224754	7.73003E-05	3.96821E-05	0	0	0	
0.0305	-0.00206595	0.00032494	7.18321E-05	4.45857E-05	0	0	0	
0.0306667	0.00265839	-0.00029128	6.14475E-05	3.91232E-05	0	0	0	
0.0308333	-0.00342031	0.00118473	6.18545E-05	3.21146E-05	0	0	0	
0.031	0.00215463	-0.00151242	6.15122E-05	2.86229E-05	0	0	0	
0.0311667	-0.000997375	0.00147024	5.46587E-05	3.07711E-05	0	0	0	
0.0313333	0.000997149	-0.00185289	4.32251E-05	3.22888E-05	0	0	0	
0.0315	-0.00301074	-1.22673E-07	3.94761E-05	2.8527E-05	0	0	0	
0.0316667	0.00366952	0.000608573	5.10629E-05	2.29257E-05	0	0	0	
0.0318333	-0.00454859	-0.00014911	6.94442E-05	1.66964E-05	0	0	0	
0.032	0.0041022	-0.000516147	8.03071E-05	1.12369E-05	0	0	0	
0.0321667	-0.00504517	0.00221047	8.26142E-05	1.81872E-05	0	0	0	
0.0323333	0.00456128	-0.00307561	8.80679E-05	3.42203E-05	0	0	0	
0.0325	-0.00376258	0.000138356	8.30032E-05	4.26755E-05	0	0	0	
0.0326667	0.0016033	-0.00080909	7.99359E-05	3.55061E-05	0	0	0	
0.0328333	-0.00180577	0.000860151	6.74042E-05	2.19497E-05	0	0	0	
0.033	0.0023828	-0.000826052	7.11731E-05	1.34883E-05	0	0	0	
0.0331667	-0.0038491	0.000810991	8.2427E-05	2.00338E-05	0	0	0	
0.0333333	0.00351127	0.00115318	9.60439E-05	2.0205E-05	0	0	0	
0.0335	-0.0039114	-0.00182116	9.45113E-05	2.69085E-05	0	0	0	
0.0336667	0.0033664	0.000127242	8.75967E-05	2.53058E-05	0	0	0	
0.0338333	-0.00353341	0.000651877	7.25956E-05	2.84335E-05	0	0	0	
0.034	0.00356638	-0.00146568	6.96448E-05	2.8135E-05	0	0	0	
0.0341667	-0.00408678	0.00348766	6.93103E-05	3.41967E-05	0	0	0	
0.0343333	0.00333069	-0.00231706	7.36442E-05	4.44112E-05	0	0	0	
0.0345	-0.00276718	0.000771047	7.20403E-05	5.06707E-05	0	0	0	
0.0346667	0.0013592	0.00198321	6.43309E-05	4.44759E-05	0	0	0	
0.0348333	-0.00113786	-0.00145845	6.15268E-05	3.86663E-05	0	0	0	
0.035	0.00167107	-0.00163968	7.08765E-05	3.8803E-05	0	0	0	
0.0351667	-0.00430219	0.00402115	9.07823E-05	5.40918E-05	0	0	0	
0.0353333	0.00665133	-0.00303753	0.000115967	6.53478E-05	0	0	0	
0.0355	-0.00626875	-0.000450198	0.000129478	6.0657E-05	0	0	0	
0.0356667	0.00278977	0.00272404	0.000120225	6.01908E-05	0	0	0	
0.0358333	0.000194407	-0.00487899	0.000132068	5.78919E-05	0	0	0	
0.036	-0.00119434	0.00419821	0.00013915	7.37786E-05	0	0	0	
0.0361667	0.000125542	-0.00273056	0.000134837	7.94719E-05	0	0	0	
0.0363333	0.00115396	-0.000663743	8.44704E-05	7.52702E-05	0	0	0	
0.0365	-0.00211696	0.00156158	4.85384E-05	5.84705E-05	0	0	0	
0.0366667	0.00425712	-0.00398222	4.55506E-05	4.88832E-05	0	0	0	
0.0368333	-0.00859607	0.000544509	7.88463E-05	5.16696E-05	0	0	0	
0.037	0.00954211	0.00191147	0.000121822	7.01746E-05	0	0	0	
0.0371667	-0.00744971	-0.00016327	0.000155041	7.69766E-05	0	0	0	
0.0373333	0.00582232	-0.000965114	0.000158127	6.39418E-05	0	0	0	
0.0375	-0.00633124	0.00104589	0.000141861	4.9326E-05	0	0	0	
0.0376667	0.00655874	-0.00178879	0.000127369	3.96364E-05	0	0	0	
0.0378333	-0.00582346	0.00250971	0.000124624	5.21811E-05	0	0	0	
0.038	0.00367581	-0.002786	0.000111214	5.34918E-05	0	0	0	
0.0381667	-0.0017136	0.00301537	8.51741E-05	5.72067E-05	0	0	0	
0.0383333	0.00123922	-0.000265612	5.18089E-05	5.52644E-05	0	0	0	
0.0385	-0.00112124	-0.00135207	3.44572E-05	6.11883E-05	0	0	0	
0.0386667	0.00209278	0.00262316	4.89386E-05	5.44311E-05	0	0	0	
0.0388333	-0.00509649	-0.000418256	9.34359E-05	4.70666E-05	0	0	0	
0.039	0.00798702	-0.00123127	0.000136013	5.06775E-05	0	0	0	
0.0391667	-0.00620732	0.00343092	0.0001492	6.7455E-05	0	0	0	
0.0393333	0.00384222	-0.00363242	0.000127455	7.85044E-05	0	0	0	
0.0395	-0.0012295	0.0026003	8.99618E-05	7.14937E-05	0	0	0	
0.0396667	0.000298964	-0.0013794	6.14443E-05	6.19763E-05	0	0	0	
0.0398333	-0.00153445	7.65322E-05	6.38563E-05	5.40443E-05	0	0	0	
0.04	0.0049166	0.000117472	9.79748E-05	4.14061E-05	0	0	0	
0.0401667	-0.00673782	8.62914E-06	0.000137859	2.54908E-05	0	0	0	
0.0403333	0.00807311	-0.00113001	0.000154074	2.23425E-05	0	0	0	
0.0405	-0.00643724	0.00295442	0.000145899	3.04206E-05	0	0	0	
0.0406667	0.00476316	-0.00297009	0.000127301	4.53527E-05	0	0	0	
0.0408333	-0.00291387	0.00167849	0.000102671	5.20594E-05	0	0	0	
0.041	0.00277999	-0.000757043	7.93898E-05	4.54926E-05	0	0	0	
0.0411667	-0.00363587	0.00102499	7.6132E-05	3.55739E-05	0	0	0	
0.0413333	0.0042453	-0.00218491	8.61342E-05	3.10082E-05	0	0	0	
0.0415	-0.00347227	0.00346332	0.000104084	4.18053E-05	0	0	0	
0.0416667	0.00518239	-0.00152825	0.000111615	4.61995E-05	0	0	0	
0.0418333	-0.00579162	0.000941792	0.000118754	4.11035E-05	0	0	0	
0.042	0.00420488	0.000296572	0.000115452	2.51083E-05	0	0	0	
0.0421667	-0.00329506	-0.000468867	0.000103175	2.1248E-05	0	0	0	
0.0423333	0.00299861	0.000919195	8.59275E-05	2.13735E-05	0	0	0	
0.0425	-0.00237112	0.000603017	8.10342E-05	2.92263E-05	0	0	0	
0.0426667	0.00430499	-0.00161692	8.40391E-05	4.47723E-05	0	0	0	
0.0428333	-0.00422217	0.00244683	9.80625E-05	5.92499E-05	0	0	0	
0.043	0.00497417	-0.00236008	0.000104691	6.38153E-05	0	0	0	
0.0431667	-0.0038631	0.00187593	0.00010381	4.99055E-05	0	0	0	
0.0433333	0.00284205	-0.00167399	8.94279E-05	4.00444E-05	0	0	0	
0.0435	-0.00318526	0.00047842	7.7326E-05	3.52252E-05	0	0	0	
0.0436667	0.00256532	0.00144454	7.57667E-05	3.24729E-05	0	0	0	
0.0438333	-0.00252134	-0.00213287	7.85268E-05	3.27037E-05	0	0	0	
0.044	0.00395691	0.00128178	8.12798E-05	3.88958E-05	0	0	0	
0.0441667	-0.00184452	0.000207472	8.29151E-05	4.59055E-05	0	0	0	
0.0443333	0.00350863	-0.000868506	8.45101E-05	4.07851E-05	0	0	0	
0.0445	-0.00428121	-0.000506889	8.93984E-05	2.87089E-05	0	0	0	
0.0446667	0.00288595	0.000557165	8.73433E-05	2.08115E-05	0	0	0	
0.0448333	-0.00283068	0.000154273	7.67558E-05	1.73632E-05	0	0	0	
0.045	0.00192915	0.000144381	6.6907E-05	1.86463E-05	0	0	0	
0.0451667	-0.00174324	0.00128521	6.63818E-05	1.78614E-05	0	0	0	
0.0453333	0.00322942	-0.000459049	7.84308E-05	2.09692E-05	0	0	0	
0.0455	-0.00329461	0.00182249	9.43383E-05	2.15538E-05	0	0	0	
0.0456667	0.00535548	-0.00268503	0.000107578	2.87179E-05	0	0	0	
0.0458333	-0.0053475	0.00107499	0.00011586	3.6515E-05	0	0	0	
0.046	0.00223924	0.000687515	0.000105981	3.52989E-05	0	0	0	
0.0461667	-0.00139142	0.000505889	7.79797E-05	2.45465E-05	0	0	0	
0.0463333	0.0016499	-0.000572959	5.4855E-05	1.76919E-05	0	0	0	
0.0465	-0.00322339	0.0015648	6.02474E-05	2.33217E-05	0	0	0	
0.0466667	0.00547911	-0.00211396	9.36273E-05	3.32856E-05	0	0	0	
0.0468333	-0.00579541	0.00164803	0.000125291	3.83227E-05	0	0	0	
0.047	0.0046916	-0.000167613	0.000129304	3.25297E-05	0	0	0	
0.0471667	-0.0043516	0.00168399	0.000109337	2.64958E-05	0	0	0	
0.0473333	0.00310629	-0.00197209	8.49936E-05	2.61448E-05	0	0	0	
0.0475	-0.00309178	0.000893155	7.67588E-05	2.90427E-05	0	0	0	
0.0476667	0.00309932	-0.000565199	8.23763E-05	2.70418E-05	0	0	0	
0.0478333	-0.0033684	0.00032655	9.20783E-05	1.75349E-05	0	0	0	
0.048	0.0038784	-0.00121877	9.65839E-05	1.61873E-05	0	0	0	
0.0481667	-0.00360274	0.0024482	9.44549E-05	2.5477E-05	0	0	0	
0.0483333	0.00289717	-0.00288006	8.67381E-05	3.67523E-05	0	0	0	
0.0485	-0.00267323	0.00353314	8.32293E-05	5.335E-05	0	0	0	
0.0486667	0.00380643	-0.00167906	8.92364E-05	5.47166E-05	0	0	0	
0.0488333	-0.00600529	0.000195756	0.00010744	4.48499E-05	0	0	0	
0.049	0.00505459	-0.0004448	0.000125158	3.1562E-05	0	0	0	
0.0491667	-0.00438288	0.000335086	0.000125853	2.35063E-05	0	0	0	
0.0493333	0.00408251	9.80684E-05	0.000109536	2.3834E-05	0	0	0	
0.0495	-0.00310139	0.00343904	9.16149E-05	3.01144E-05	0	0	0	
0.0496667	0.00289781	-0.00425734	7.76853E-05	4.82739E-05	0	0	0	
0.0498333	-0.00429075	0.0039519	7.87735E-05	6.94998E-05	0	0	0	
0.05	0.00332925	-0.0042319	8.0678E-05	7.94308E-05	0	0	0	
0.0501667	-0.00375737	0.00225015	8.02261E-05	7.64437E-05	0	0	0	
0.0503333	0.00402613	-0.00172338	7.6278E-05	7.04013E-05	0	0	0	
0.0505	-0.00500733	0.00347775	8.32932E-05	6.97103E-05	0	0	0	
0.0506667	0.00445037	-0.00324598	9.9363E-05	7.32738E-05	0	0	0	
0.0508333	-0.0056087	0.000931501	0.000114313	7.55949E-05	0	0	0	
0.051	0.00386153	-0.00030385	0.000112976	6.16236E-05	0	0	0	
0.0511667	-0.00499722	-0.000313816	0.000107519	3.83334E-05	0	0	0	
0.0513333	0.00488993	1.66834E-05	0.000105029	1.98515E-05	0	0	0	
0.0515	-0.00517132	3.75761E-05	0.000105196	1.24397E-05	0	0	0	
0.0516667	0.0023228	0.00164761	0.000104744	1.54721E-05	0	0	0	
0.0518333	-0.00327259	-0.00137	9.65428E-05	2.20784E-05	0	0	0	
0.052	0.00454169	3.34172E-05	9.11664E-05	2.21396E-05	0	0	0	
0.0521667	-0.00554859	0.00145192	9.65014E-05	2.15093E-05	0	0	0	
0.0523333	0.00413956	-0.00290514	9.91367E-05	2.30028E-05	0	0	0	
0.0525	-0.00402791	0.00272183	9.53414E-05	4.77377E-05	0	0	0	
0.0526667	0.00365995	-0.000226249	9.0873E-05	7.58396E-05	0	0	0	
0.0528333	-0.00331215	-0.000760537	8.77098E-05	8.88924E-05	0	0	0	
0.053	0.00377462	0.000256055	8.42268E-05	6.81018E-05	0	0	0	
0.0531667	-0.00458077	0.000106883	8.64494E-05	3.69121E-05	0	0	0	
0.0533333	0.005314	-0.00136423	9.3229E-05	1.76687E-05	0	0	0	
0.0535	-0.00381698	0.00121385	0.000102166	2.18238E-05	0	0	0	
0.0536667	0.00302696	-0.00286584	9.26523E-05	3.30968E-05	0	0	0	
0.0538333	-0.00289458	0.00241017	7.85954E-05	4.047E-05	0	0	0	
0.054	0.0020114	-0.000603785	6.14549E-05	4.38141E-05	0	0	0	
0.0541667	-0.00273735	-0.000873343	5.03402E-05	4.84519E-05	0	0	0	
0.0543333	0.00432436	-0.000282281	6.0113E-05	4.11706E-05	0	0	0	
0.0545	-0.00660575	0.00167504	8.79195E-05	3.60471E-05	0	0	0	
0.0546667	0.00723395	-0.0018839	0.000118962	2.80884E-05	0	0	0	
0.0548333	-0.00596963	-0.000925119	0.000130143	2.78178E-05	0	0	0	
0.055	0.00383853	0.000923972	0.000118274	3.08354E-05	0	0	0	
0.0551667	-0.00444927	0.00191971	0.000101178	3.2507E-05	0	0	0	
0.0553333	0.00366806	-0.00267842	8.76911E-05	4.09446E-05	0	0	0	
0.0555	-0.00310155	0.00347713	8.20572E-05	5.01872E-05	0	0	0	
0.0556667	0.00409739	-0.00209001	9.82438E-05	5.72749E-05	0	0	0	
0.0558333	-0.00606592	0.000105081	0.000123373	4.84212E-05	0	0	0	
0.056	0.00524901	-0.00132611	0.000136608	4.52626E-05	0	0	0	
0.0561667	-0.00288697	0.00162318	0.000118957	4.81049E-05	0	0	0	
0.0563333	0.00471724	-0.000503581	9.57379E-05	5.05578E-05	0	0	0	
0.0565	-0.00893582	0.0017025	0.000110259	4.44364E-05	0	0	0	
0.0566667	0.00914259	-0.00253757	0.000146143	3.94945E-05	0	0	0	
0.0568333	-0.00546807	-0.00186072	0.000159958	4.88761E-05	0	0	0	
0.057	0.00246243	0.00487111	0.000130531	6.87511E-05	0	0	0	
0.0571667	-0.00167792	-0.00252294	8.29276E-05	8.26E-05	0	0	0	
0.0573333	0.0007573	-0.000876277	5.3775E-05	7.56696E-05	0	0	0	
0.0575	-0.00120812	0.00320173	5.82164E-05	5.94464E-05	0	0	0	
0.0576667	0.00403411	-0.00309101	9.17459E-05	6.05953E-05	0	0	0	
0.0578333	-0.00532711	0.000605019	0.000126637	7.71889E-05	0	0	0	
0.058	0.00518189	0.000851304	0.000131753	7.28736E-05	0	0	0	
0.0581667	-0.00451078	0.000469684	0.000110264	8.28836E-05	0	0	0	
0.0583333	0.00362899	-0.000286302	8.84801E-05	9.0852E-05	0	0	0	
0.0585	-0.00419697	0.00101684	7.89859E-05	8.99129E-05	0	0	0	
0.0586667	0.00527214	0.00131219	8.66748E-05	6.13791E-05	0	0	0	
0.0588333	-0.00540558	-0.00180339	9.79009E-05	4.71857E-05	0	0	0	
0.059	0.00519592	0.000832431	0.000105048	5.54351E-05	0	0	0	
0.0591667	-0.00347593	0.001487	9.71084E-05	6.26168E-05	0	0	0	
0.0593333	0.00282136	-0.00192978	8.32785E-05	6.15128E-05	0	0	0	
0.0595	-0.00321332	0.0025565	7.84122E-05	5.09749E-05	0	0	0	
0.0596667	0.00447969	-0.000489014	8.45882E-05	3.94591E-05	0	0	0	
0.0598333	-0.00421006	-0.00102282	9.07409E-05	2.69562E-05	0	0	0	
0.06	0.00489082	0.00275435	9.13149E-05	2.85078E-05	0	0	0	
0.0601667	-0.00414836	-0.00143033	8.86327E-05	3.58366E-05	0	0	0	
0.0603333	0.00450161	0.00127663	8.66394E-05	3.51806E-05	0	0	0	
0.0605	-0.00531949	-0.000702432	9.5653E-05	3.0967E-05	0	0	0	
0.0606667	0.00593725	0.00122908	9.97215E-05	2.47464E-05	0	0	0	
0.0608333	-0.00497651	0.00111142	0.000104643	3.47734E-05	0	0	0	
0.061	0.00680156	-0.00246044	0.000106658	3.83771E-05	0	0	0	
0.0611667	-0.00882261	0.00324322	0.000126864	4.94761E-05	0	0	0	
0.0613333	0.00872118	-0.00202702	0.000153603	6.41007E-05	0	0	0	
0.0615	-0.00782646	0.000164918	0.000172346	8.57403E-05	0	0	0	
0.0616667	0.00826461	0.00131886	0.000171	8.65765E-05	0	0	0	
0.0618333	-0.00704297	-0.000989637	0.000160782	6.31048E-05	0	0	0	
0.062	0.00529381	-0.00029424	0.000141568	3.62222E-05	0	0	0	
0.0621667	-0.00266917	0.00107866	0.000117648	2.22647E-05	0	0	0	
0.0623333	0.00243972	-0.00244351	0.000102131	2.78922E-05	0	0	0	
0.0625	-0.00352448	0.00225701	0.000105888	4.15451E-05	0	0	0	
0.0626667	0.00406194	-0.00229549	0.000121911	4.58953E-05	0	0	0	
0.0628333	-0.00618277	0.00129381	0.000132084	4.51458E-05	0	0	0	
0.063	0.0079385	-0.000855235	0.000138897	3.14183E-05	0	0	0	
0.0631667	-0.0062499	0.00158121	0.000144187	2.50889E-05	0	0	0	
0.0633333	0.00474333	-0.0022733	0.000133712	2.47202E-05	0	0	0	
0.0635	-0.00373687	0.00135919	0.000113243	3.50122E-05	0	0	0	
0.0636667	0.00377401	-0.000898037	8.93691E-05	3.24994E-05	0	0	0	
0.0638333	-0.00515364	0.000807686	8.92539E-05	2.94663E-05	0	0	0	
0.064	0.00451675	-0.000930327	9.67431E-05	2.16755E-05	0	0	0	
0.0641667	-0.00359315	0.00157739	0.000105609	2.55771E-05	0	0	0	
0.0643333	0.00217546	-0.00154784	9.71672E-05	2.72947E-05	0	0	0	
0.0645	-0.00285807	0.0012964	8.91263E-05	3.35558E-05	0	0	0	
0.0646667	0.0042433	-0.000761641	8.65633E-05	3.60137E-05	0	0	0	
0.0648333	-0.00445198	0.000972986	9.46828E-05	3.04492E-05	0	0	0	
0.065	0.00359815	-0.000164225	9.64185E-05	1.86554E-05	0	0	0	
0.0651667	-0.00507446	-0.000951541	9.71803E-05	1.11388E-05	0	0	0	
0.0653333	0.00366426	0.000191045	9.38126E-05	1.38425E-05	0	0	0	
0.0655	-0.00284362	0.00128303	8.68977E-05	3.00059E-05	0	0	0	
0.0656667	0.00246778	-0.00202416	7.78632E-05	4.77719E-05	0	0	0	
0.0658333	-0.00290589	0.00164223	7.49558E-05	5.08916E-05	0	0	0	
0.066	0.00388297	-0.00144335	8.55829E-05	4.37759E-05	0	0	0	
0.0661667	-0.00381896	-0.000850708	9.35008E-05	2.90875E-05	0	0	0	
0.0663333	0.0029704	-0.000108529	9.57488E-05	2.11043E-05	0	0	0	
0.0665	-0.0045308	-5.23671E-05	9.33594E-05	1.12098E-05	0	0	0	
0.0666667	0.00420854	-0.000425013	9.49931E-05	7.31462E-06	0	0	0	
0.0668333	-0.00306883	3.88728E-05	8.96892E-05	1.4693E-05	0	0	0	
0.067	0.00250246	-0.00158932	8.40789E-05	2.85618E-05	0	0	0	
0.0671667	-0.00200973	0.00280925	7.27431E-05	4.29833E-05	0	0	0	
0.0673333	0.0019596	-0.00242954	7.12757E-05	4.92483E-05	0	0	0	
0.0675	-0.00370703	0.00139872	7.63059E-05	4.59972E-05	0	0	0	
0.0676667	0.00359112	-0.00228922	9.20601E-05	4.14812E-05	0	0	0	
0.0678333	-0.00298873	0.00112642	0.00010202	4.29275E-05	0	0	0	
0.068	0.00256664	0.000229354	9.47474E-05	3.56782E-05	0	0	0	
0.0681667	-0.00232934	-0.000419389	7.27296E-05	2.59478E-05	0	0	0	
0.0683333	0.00175177	0.001258	5.74031E-05	1.57932E-05	0	0	0	
0.0685	-0.00239244	-0.000136894	5.49702E-05	2.29701E-05	0	0	0	
0.0686667	0.00308654	0.000149457	6.4784E-05	3.50786E-05	0	0	0	
0.0688333	-0.00403884	0.000128001	7.51285E-05	4.10612E-05	0	0	0	
0.069	0.00531553	-0.000211463	8.53269E-05	3.55774E-05	0	0	0	
0.0691667	-0.00550974	0.00162063	9.74099E-05	2.76325E-05	0	0	0	
0.0693333	0.00453091	-0.00222583	0.000102591	2.57901E-05	0	0	0	
0.0695	-0.00338053	0.000866998	9.72803E-05	2.97443E-05	0	0	0	
0.0696667	0.00394309	0.000111489	8.32296E-05	2.58312E-05	0	0	0	
0.0698333	-0.00303142	0.000124949	7.73493E-05	2.02831E-05	0	0	0	
0.07	0.00219648	-0.000618098	7.91297E-05	1.78288E-05	0	0	0	
0.0701667	-0.00257184	0.00122355	8.87779E-05	2.2448E-05	0	0	0	
0.0703333	0.00380638	-0.00015617	9.43524E-05	2.57742E-05	0	0	0	
0.0705	-0.00539824	-0.00139603	0.000102288	2.17078E-05	0	0	0	
0.0706667	0.00630196	0.00116291	0.000109825	2.87642E-05	0	0	0	
0.0708333	-0.00533964	-0.000441227	0.000115794	3.99621E-05	0	0	0	
0.071	0.00372534	-0.00213419	0.000107074	5.06167E-05	0	0	0	
0.0711667	-0.00251378	0.0040886	8.87364E-05	5.74759E-05	0	0	0	
0.0713333	0.00310937	-0.00319186	6.81747E-05	6.11952E-05	0	0	0	
0.0715	-0.00374628	0.000619732	6.80859E-05	6.80433E-05	0	0	0	
0.0716667	0.00283092	0.00142607	7.18462E-05	6.019E-05	0	0	0	
0.0718333	-0.00172491	-0.000863947	7.63993E-05	4.40583E-05	0	0	0	
0.072	0.00343593	-0.00135806	9.02942E-05	3.45883E-05	0	0	0	
0.0721667	-0.00753162	0.003292	0.000126109	4.1567E-05	0	0	0	
0.0723333	0.00948112	-0.00447798	0.000165762	5.83914E-05	0	0	0	
0.0725	-0.00826584	0.0040875	0.000185469	7.38514E-05	0	0	0	
0.0726667	0.00607432	-0.00172111	0.000166402	7.1189E-05	0	0	0	
0.0728333	-0.00408775	0.000980072	0.000134474	5.43237E-05	0	0	0	
0.073	0.0023031	0.000611124	9.29482E-05	3.24058E-05	0	0	0	
0.0731667	-0.000240556	0.000434965	6.616E-05	1.94171E-05	0	0	0	
0.0733333	0.000287212	-0.00124767	7.00103E-05	2.16598E-05	0	0	0	
0.0735	-0.00283555	0.00218687	0.000104911	3.13906E-05	0	0	0	
0.0736667	0.00448138	-0.00167159	0.000138733	4.20483E-05	0	0	0	
0.0738333	-0.00471056	0.00143789	0.000139168	3.75497E-05	0	0	0	
0.074	0.00432962	3.9132E-05	0.000112827	3.32457E-05	0	0	0	
0.0741667	-0.00375976	0.000197332	9.36883E-05	3.15493E-05	0	0	0	
0.0743333	0.00597767	-0.00072432	9.74394E-05	3.33747E-05	0	0	0	
0.0745	-0.00603463	0.00189604	0.000117054	3.58888E-05	0	0	0	
0.0746667	0.00555291	-0.00254579	0.00012785	4.00907E-05	0	0	0	
0.0748333	-0.00558532	0.00314694	0.000127849	4.67642E-05	0	0	0	
0.075	0.00700841	-0.000688026	0.000123069	5.0366E-05	0	0	0	
0.0751667	-0.00497839	2.17041E-05	0.000121548	4.44345E-05	0	0	0	
0.0753333	0.00358748	-3.32205E-05	0.00010935	3.08615E-05	0	0	0	
0.0755	-0.00141075	-6.80398E-05	8.74487E-05	2.11103E-05	0	0	0	
0.0756667	0.000816795	-0.000561627	6.30654E-05	2.33582E-05	0	0	0	
0.0758333	-0.000771071	0.00362026	5.79691E-05	3.97245E-05	0	0	0	
0.076	0.00247994	-0.00183268	7.36269E-05	5.43117E-05	0	0	0	
0.0761667	-0.00464661	0.000336297	0.000103501	4.91516E-05	0	0	0	
0.0763333	0.00565558	0.00123272	0.000123494	4.72348E-05	0	0	0	
0.0765	-0.00443261	-0.00167498	0.000118825	3.21259E-05	0	0	0	
0.0766667	0.00458738	0.00185927	0.000100711	4.04391E-05	0	0	0	
0.0768333	-0.00320026	0.000810791	8.33363E-05	4.34266E-05	0	0	0	
0.077	0.00231729	-0.00115344	7.0287E-05	4.90765E-05	0	0	0	
0.0771667	-0.00321704	0.000522103	6.47081E-05	3.71553E-05	0	0	0	
0.0773333	0.00347599	-2.89798E-05	6.46614E-05	2.88118E-05	0	0	0	
0.0775	-0.0042683	-0.000333871	6.8859E-05	2.32718E-05	0	0	0	
0.0776667	0.00567091	0.00132686	7.95394E-05	2.34569E-05	0	0	0	
0.0778333	-0.00584629	0.000400584	8.96392E-05	1.81298E-05	0	0	0	
0.078	0.00437812	-0.00130428	0.000102431	2.06844E-05	0	0	0	
0.0781667	-0.00423857	0.00198154	9.61293E-05	2.40334E-05	0	0	0	
0.0783333	0.00400323	-0.000667904	9.46222E-05	2.57531E-05	0	0	0	
0.0785	-0.00606088	-0.000626154	9.62125E-05	2.44559E-05	0	0	0	
0.0786667	0.0062173	4.57627E-05	0.00011294	2.49766E-05	0	0	0	
0.0788333	-0.0050871	-0.000295541	0.000116445	1.97533E-05	0	0	0	
0.079	0.00450234	-0.000301942	0.000119535	1.8942E-05	0	0	0	
0.0791667	-0.00544062	0.00275178	0.000108549	2.15636E-05	0	0	0	
0.0793333	0.00389236	-0.00137435	0.000105081	3.66357E-05	0	0	0	
0.0795	-0.00376202	0.00103261	9.25828E-05	3.86674E-05	0	0	0	
0.0796667	0.00469541	-0.000993877	9.4063E-05	4.16836E-05	0	0	0	
0.0798333	-0.0047605	-0.000550827	9.41616E-05	2.94244E-05	0	0	0	
0.08	0.00392447	0.000207502	9.6867E-05	2.31047E-05	0	0	0	
0.0801667	-0.00424172	0.00101734	9.29987E-05	1.37355E-05	0	0	0	
0.0803333	0.00342286	-0.000411464	9.09609E-05	1.5816E-05	0	0	0	
0.0805	-0.00387947	0.00116155	8.85576E-05	1.74291E-05	0	0	0	
0.0806667	0.00472524	-0.000468405	9.0923E-05	1.87232E-05	0	0	0	
0.0808333	-0.00587944	-0.000488467	9.66664E-05	1.56502E-05	0	0	0	
0.081	0.00452412	-0.000770083	0.0001103	1.5767E-05	0	0	0	
0.0811667	-0.00558024	0.00225729	0.000111704	2.13232E-05	0	0	0	
0.0813333	0.00385434	-0.00188463	0.000105236	3.0905E-05	0	0	0	
0.0815	-0.00360414	0.00130107	8.92775E-05	3.7759E-05	0	0	0	
0.0816667	0.00323203	-0.000719284	8.08135E-05	3.28932E-05	0	0	0	
0.0818333	-0.00314348	0.00111568	7.00034E-05	2.36289E-05	0	0	0	
0.082	0.0012154	-0.00216395	6.29641E-05	2.82759E-05	0	0	0	
0.0821667	-0.00245227	-0.000252971	5.21017E-05	3.48681E-05	0	0	0	
0.0823333	0.00346056	0.0020772	6.43907E-05	4.13478E-05	0	0	0	
0.0825	-0.0053559	-0.0003144	8.75525E-05	4.10885E-05	0	0	0	
0.0826667	0.00475479	-0.00178286	0.000107949	4.87984E-05	0	0	0	
0.0828333	-0.00320976	0.00235745	0.000100235	5.53004E-05	0	0	0	
0.083	0.00504036	-0.00223193	9.19868E-05	5.45036E-05	0	0	0	
0.0831667	-0.00695476	0.00111553	9.84637E-05	4.71156E-05	0	0	0	
0.0833333	0.00406249	-0.00125335	0.000105961	3.42543E-05	0	0	0	
0.0835	-0.00239659	0.00110404	9.41973E-05	3.28912E-05	0	0	0	
0.0836667	0.00255552	-0.000569461	7.69743E-05	2.63894E-05	0	0	0	
0.0838333	-0.00457894	0.0017658	7.63065E-05	4.16973E-05	0	0	0	
0.084	0.00427487	-0.00310752	8.69733E-05	4.58339E-05	0	0	0	
0.0841667	-0.0029957	0.000465846	9.16997E-05	4.79647E-05	0	0	0	
0.0843333	0.00376803	0.00138012	9.45493E-05	4.0389E-05	0	0	0	
0.0845	-0.00619622	-0.000578923	9.95161E-05	2.72573E-05	0	0	0	
0.0846667	0.00485513	-0.00129723	0.000109022	3.21217E-05	0	0	0	
0.0848333	-0.0031	0.00147417	0.000103649	4.20982E-05	0	0	0	
0.085	0.00066222	-0.00258792	8.62571E-05	5.55301E-05	0	0	0	
0.0851667	-0.00273308	0.00210715	8.12653E-05	5.71552E-05	0	0	0	
0.0853333	0.00732972	0.00024305	9.52171E-05	4.50263E-05	0	0	0	
0.0855	-0.0106046	-0.00313696	0.000130082	5.76879E-05	0	0	0	
0.0856667	0.00242293	0.00450158	0.000145574	7.09694E-05	0	0	0	
0.0858333	0.00188135	-0.00398977	0.000141476	9.49623E-05	0	0	0	
0.086	-0.00289233	0.000920172	0.000101143	0.000121869	0	0	0	
0.0861667	-0.00207737	0.00201335	0.000111547	0.000126052	0	0	0	
0.0863333	0.0102246	-0.00369707	0.00016985	0.000105305	0	0	0	
0.0865	-0.01871	0.00462842	0.000271556	8.13774E-05	0	0	0	
0.0866667	0.0188461	-0.00374977	0.000335241	9.72327E-05	0	0	0	
0.0868333	-0.0162077	-0.0018786	0.00034183	0.000141112	0	0	0	
0.087	0.00596701	0.00496179	0.000306718	0.000151241	0	0	0	
0.0871667	0.00158755	-0.00246444	0.000227677	0.000133234	0	0	0	
0.0873333	-0.0034724	-0.00186532	0.000145592	8.74862E-05	0	0	0	
0.0875	-2.36511E-05	0.00291673	0.000128764	6.22803E-05	0	0	0	
0.0876667	0.00560025	-0.00296355	0.000157263	5.17538E-05	0	0	0	
0.0878333	-0.00720196	0.00356784	0.000202974	6.71777E-05	0	0	0	
0.088	0.0055099	-0.00418732	0.000193801	8.02743E-05	0	0	0	
0.0881667	-0.00519944	0.00254488	0.000161487	8.13187E-05	0	0	0	
0.0883333	0.00457888	-0.00201996	0.000132743	6.7733E-05	0	0	0	
0.0885	-0.00391778	0.00222166	0.00011034	4.95708E-05	0	0	0	
0.0886667	0.00435198	4.57994E-06	9.70823E-05	3.49869E-05	0	0	0	
0.0888333	-0.00409889	-0.00151033	9.02729E-05	2.66073E-05	0	0	0	
0.089	0.00474746	0.00109241	8.72676E-05	2.2082E-05	0	0	0	
0.0891667	-0.00505886	-0.000567527	9.39953E-05	2.61033E-05	0	0	0	
0.0893333	0.00484431	-0.0011399	9.86009E-05	2.84515E-05	0	0	0	
0.0895	-0.00514672	2.1091E-05	0.000104529	2.91643E-05	0	0	0	
0.0896667	0.00581979	6.08778E-05	0.000105293	2.19423E-05	0	0	0	
0.0898333	-0.00495234	0.00075088	0.000103836	2.9048E-05	0	0	0	
0.09	0.0034859	-0.00152221	9.37094E-05	3.10829E-05	0	0	0	
0.0901667	-0.00320538	0.00134544	8.44095E-05	4.0191E-05	0	0	0	
0.0903333	0.00419944	-0.00191283	7.90362E-05	3.77477E-05	0	0	0	
0.0905	-0.00416904	0.00152697	8.51307E-05	4.16522E-05	0	0	0	
0.0906667	0.00413108	-0.000753474	9.26273E-05	3.37762E-05	0	0	0	
0.0908333	-0.00375777	-0.000276121	9.46472E-05	2.64492E-05	0	0	0	
0.091	0.0042882	0.000166131	9.57151E-05	1.89875E-05	0	0	0	
0.0911667	-0.0040447	0.000380859	9.64383E-05	1.93032E-05	0	0	0	
0.0913333	0.00441929	-0.00151512	9.78789E-05	2.28994E-05	0	0	0	
0.0915	-0.00368296	0.00110518	9.36703E-05	2.40162E-05	0	0	0	
0.0916667	0.00347785	-0.00192675	8.55555E-05	2.64911E-05	0	0	0	
0.0918333	-0.00403553	0.00209265	7.64861E-05	3.15449E-05	0	0	0	
0.092	0.00542871	-0.00186278	8.33284E-05	4.35613E-05	0	0	0	
0.0921667	-0.00437881	0.00149652	9.13811E-05	5.37001E-05	0	0	0	
0.0923333	0.00426841	-0.00188908	9.4695E-05	5.5794E-05	0	0	0	
0.0925	-0.00381752	0.00115296	8.70175E-05	4.73122E-05	0	0	0	
0.0926667	0.00464843	-0.00167138	8.47224E-05	3.94447E-05	0	0	0	
0.0928333	-0.00566802	0.000384292	9.17404E-05	3.96463E-05	0	0	0	
0.093	0.00458716	0.00117274	0.000103835	4.21852E-05	0	0	0	
0.0931667	-0.00382861	7.21739E-07	0.000103975	4.06556E-05	0	0	0	
0.0933333	0.00363918	-0.000927913	9.74122E-05	3.15098E-05	0	0	0	
0.0935	-0.0045962	0.000302183	8.76622E-05	2.15131E-05	0	0	0	
0.0936667	0.00536672	-0.000486832	9.43958E-05	1.44677E-05	0	0	0	
0.0938333	-0.0049552	0.000731419	0.000104985	1.50602E-05	0	0	0	
0.094	0.00443648	-0.00017633	0.000112878	1.36625E-05	0	0	0	
0.0941667	-0.00553431	0.00129118	0.000110238	1.75893E-05	0	0	0	
0.0943333	0.00536974	-0.00218802	0.000106249	2.67683E-05	0	0	0	
0.0945	-0.00355616	0.00184309	9.62519E-05	3.62646E-05	0	0	0	
0.0946667	0.00260236	-0.00177159	8.31239E-05	4.31726E-05	0	0	0	
0.0948333	-0.00150585	0.000338471	7.1073E-05	3.74271E-05	0	0	0	
0.095	0.00374765	-6.45123E-05	7.05591E-05	2.85759E-05	0	0	0	
0.0951667	-0.00438584	9.61291E-05	7.8481E-05	2.93632E-05	0	0	0	
0.0953333	0.00327932	-0.00154438	7.80998E-05	3.02873E-05	0	0	0	
0.0955	-0.00115552	0.000511944	6.73891E-05	3.30492E-05	0	0	0	
0.0956667	0.00315139	0.00138291	5.40499E-05	2.71555E-05	0	0	0	
0.0958333	-0.00406855	-0.000621831	6.81573E-05	2.6581E-05	0	0	0	
0.096	0.00633735	-0.000906133	9.7427E-05	2.62991E-05	0	0	0	
0.0961667	-0.00610093	0.000296162	0.000129918	2.26131E-05	0	0	0	
0.0963333	0.00589849	-0.000935299	0.000129965	1.99229E-05	0	0	0	
0.0965	-0.00457432	0.00125875	0.000119116	1.98306E-05	0	0	0	
0.0966667	0.00306315	-0.0026812	9.25504E-05	2.61772E-05	0	0	0	
0.0968333	-9.85789E-05	0.00256489	6.92254E-05	3.80109E-05	0	0	0	
0.097	0.000136174	-0.000799503	5.71711E-05	4.19074E-05	0	0	0	
0.0971667	-0.00389492	0.000517598	8.26721E-05	3.46986E-05	0	0	0	
0.0973333	0.00541987	-0.00173324	0.000112875	2.80466E-05	0	0	0	
0.0975	-0.00362256	0.000804231	0.000117268	3.18113E-05	0	0	0	
0.0976667	0.00206541	0.00131005	9.15281E-05	4.44908E-05	0	0	0	
0.0978333	-0.00366785	-0.00319137	7.31472E-05	5.87445E-05	0	0	0	
0.098	0.00442742	-0.00146407	7.33866E-05	5.84714E-05	0	0	0	
0.0981667	-0.00369441	0.00325885	8.341E-05	6.29226E-05	0	0	0	
0.0983333	0.00280358	-0.00140152	9.41639E-05	5.67675E-05	0	0	0	
0.0985	-0.0049531	0.00121001	9.56654E-05	5.40077E-05	0	0	0	
0.0986667	0.00451755	0.00213891	9.60555E-05	4.38596E-05	0	0	0	
0.0988333	-0.00225548	-0.00312468	8.5186E-05	4.65521E-05	0	0	0	
0.099	0.000849385	-0.00215486	7.0428E-05	5.04057E-05	0	0	0	
0.0991667	-0.00150197	0.000701333	7.18949E-05	5.74331E-05	0	0	0	
0.0993333	0.00323062	0.00202647	8.98079E-05	5.56559E-05	0	0	0	
0.0995	-0.00557462	-0.000624216	0.000114	6.72404E-05	0	0	0	
0.0996667	0.00569682	5.13504E-06	0.000128369	6.92149E-05	0	0	0	
0.0998333	-0.00471213	2.47726E-05	0.00013294	5.20762E-05	0	0	0	
0.1	0.00265549	-0.000769475	0.00012136	4.20888E-05	0	0	0	
0.100167	-0.00164439	-0.000124423	8.31845E-05	3.85949E-05	0	0	0	
0.100333	0.00237887	0.00110512	5.24996E-05	4.4517E-05	0	0	0	
0.1005	-0.00539555	-0.00175269	6.92475E-05	3.51236E-05	0	0	0	
0.100667	0.00733076	-0.000672243	0.000116657	2.50883E-05	0	0	0	
0.100833	-0.00496343	0.00195569	0.000141995	2.34482E-05	0	0	0	
0.101	0.00219779	-0.00253192	0.000117104	3.09267E-05	0	0	0	
0.101167	-0.00298928	0.00150902	7.74309E-05	3.56986E-05	0	0	0	
0.101333	0.00194883	-0.00164022	6.0199E-05	4.02663E-05	0	0	0	
0.1015	-0.00141076	0.000308031	6.46116E-05	3.33228E-05	0	0	0	
0.101667	0.00263137	-0.00217149	7.89959E-05	2.83905E-05	0	0	0	
0.101833	-0.00137151	0.00229081	9.60678E-05	2.95085E-05	0	0	0	
0.102	0.00349612	-0.000445007	0.000105597	3.09899E-05	0	0	0	
0.102167	-0.00395391	-0.000549705	0.000102393	3.00005E-05	0	0	0	
0.102333	0.00281199	-0.0019672	8.84682E-05	2.13262E-05	0	0	0	
0.1025	-0.00521378	0.00151366	8.62764E-05	3.00087E-05	0	0	0	
0.102667	0.00550005	-0.0025533	9.78433E-05	3.74082E-05	0	0	0	
0.102833	-0.00397324	0.00328222	0.00010288	5.20514E-05	0	0	0	
0.103	0.00324747	-0.00259504	9.45908E-05	4.9672E-05	0	0	0	
0.103167	-0.0029532	0.00164282	7.63679E-05	5.26774E-05	0	0	0	
0.103333	0.00208616	-0.0012252	6.07676E-05	4.32042E-05	0	0	0	
0.1035	-0.00171435	-0.000731817	5.83346E-05	3.30902E-05	0	0	0	
0.103667	0.00105057	0.00103764	5.90075E-05	2.6483E-05	0	0	0	
0.103833	-0.00354848	0.000541728	6.91338E-05	3.3713E-05	0	0	0	
0.104	0.00497701	-0.0016763	8.04952E-05	4.48482E-05	0	0	0	
0.104167	-0.00584819	0.000848712	9.51563E-05	4.38029E-05	0	0	0	
0.104333	0.00439146	0.000840285	9.65512E-05	3.42306E-05	0	0	0	
0.1045	-0.00369169	0.000127767	9.33728E-05	2.49561E-05	0	0	0	
0.104667	0.00275213	0.00029691	7.50263E-05	1.95935E-05	0	0	0	
0.104833	-0.00190081	-0.000119997	6.35079E-05	1.4238E-05	0	0	0	
0.105	0.00302136	-0.0013848	5.50825E-05	1.10898E-05	0	0	0	
0.105167	-0.00421516	0.00199479	6.44651E-05	2.18331E-05	0	0	0	
0.105333	0.00605332	-0.00170749	8.66176E-05	2.86019E-05	0	0	0	
0.1055	-0.00707826	0.00176156	0.000111312	4.06137E-05	0	0	0	
0.105667	0.00528326	0.000469917	0.000121986	4.14206E-05	0	0	0	
0.105833	-0.00363699	0.000927814	0.000110786	4.04369E-05	0	0	0	
0.106	0.0030736	-0.000963143	8.92121E-05	3.02815E-05	0	0	0	
0.106167	-0.0018432	0.000224153	7.05522E-05	2.35058E-05	0	0	0	
0.106333	0.00317883	0.000189897	6.42262E-05	2.11175E-05	0	0	0	
0.1065	-0.00296718	0.000141555	7.25028E-05	1.8337E-05	0	0	0	
0.106667	0.0042626	-0.00104469	9.18445E-05	1.66674E-05	0	0	0	
0.106833	-0.0049591	0.00178225	0.000112951	2.05798E-05	0	0	0	
0.107	0.00455583	-0.00224478	0.000118071	3.03883E-05	0	0	0	
0.107167	-0.00437457	0.00365971	0.000110055	4.62034E-05	0	0	0	
0.107333	0.00515935	-0.00311937	9.56278E-05	5.56723E-05	0	0	0	
0.1075	-0.00428007	-0.000370948	8.98183E-05	5.28081E-05	0	0	0	
0.107667	0.00208575	0.000764608	8.12638E-05	3.72423E-05	0	0	0	
0.107833	2.56666E-05	1.91586E-05	6.38366E-05	3.1737E-05	0	0	0	
0.108	0.000755614	-0.00173899	4.52512E-05	4.34962E-05	0	0	0	
0.108167	-0.00289766	0.00187243	4.60188E-05	5.73119E-05	0	0	0	
0.108333	0.00390715	-0.00197313	6.89687E-05	5.61736E-05	0	0	0	
0.1085	-0.00577992	0.000743333	9.58135E-05	4.19029E-05	0	0	0	
0.108667	0.00773598	0.00019229	0.000114014	3.28857E-05	0	0	0	
0.108833	-0.00581807	-0.00109123	0.00012509	2.94114E-05	0	0	0	
0.109	0.00322707	0.00114311	0.000115789	2.97597E-05	0	0	0	
0.109167	-0.00263715	0.000522504	9.13503E-05	2.82591E-05	0	0	0	
0.109333	0.00280826	-0.0019238	7.02501E-05	2.58761E-05	0	0	0	
0.1095	-0.00273784	0.000704544	6.16503E-05	2.68366E-05	0	0	0	
0.109667	0.00333123	-0.00101284	6.80877E-05	2.34698E-05	0	0	0	
0.109833	-0.00354202	0.000470423	7.5094E-05	2.30887E-05	0	0	0	
0.11	0.00499673	0.00045375	8.86932E-05	2.0209E-05	0	0	0	
0.110167	-0.00548374	0.0022997	9.79595E-05	2.53355E-05	0	0	0	
0.110333	0.00428144	-0.00390142	9.89865E-05	4.01384E-05	0	0	0	
0.1105	-0.00472395	0.00237858	9.37014E-05	5.65679E-05	0	0	0	
0.110667	0.00484753	-0.00248906	9.25734E-05	5.91966E-05	0	0	0	
0.110833	-0.00205194	0.00257464	8.16675E-05	5.54895E-05	0	0	0	
0.111	0.0023819	-0.000918535	7.58283E-05	4.39595E-05	0	0	0	
0.111167	-0.00417783	0.000483111	8.13573E-05	4.40445E-05	0	0	0	
0.111333	0.00394994	-0.00315642	9.75188E-05	6.17938E-05	0	0	0	
0.1115	-0.0040956	0.0046798	0.000102612	9.23186E-05	0	0	0	
0.111667	0.00611427	-0.00196542	0.000100143	9.54959E-05	0	0	0	
0.111833	-0.0062186	-0.000138426	0.000102074	7.44812E-05	0	0	0	
0.112	0.00617351	0.000488207	0.000114989	4.67675E-05	0	0	0	
0.112167	-0.00349155	-0.00190913	0.000108178	4.36798E-05	0	0	0	
0.112333	0.00326669	0.00374202	9.09938E-05	4.50552E-05	0	0	0	
0.1125	-0.00773869	-0.00198125	8.91302E-05	6.69274E-05	0	0	0	
0.112667	0.00615571	-2.28131E-05	0.000118436	9.48366E-05	0	0	0	
0.112833	-0.00325202	0.00337861	0.00013244	8.95004E-05	0	0	0	
0.113	0.00472911	-0.00189389	0.000130653	7.56121E-05	0	0	0	
0.113167	-0.000749677	-0.000747173	9.27062E-05	5.22638E-05	0	0	0	
0.113333	0.00014425	0.00302419	0.000106667	5.32129E-05	0	0	0	
0.1135	-0.00514058	0.000142789	0.000164092	4.61422E-05	0	0	0	
0.113667	0.00622584	-0.00193659	0.000247652	4.55203E-05	0	0	0	
0.113833	-0.00799673	0.00461547	0.00030718	5.14515E-05	0	0	0	
0.114	0.0165637	-0.00448906	0.000333269	7.25062E-05	0	0	0	
0.114167	-0.0169017	0.00256289	0.000341721	9.18701E-05	0	0	0	
0.114333	0.00358237	-0.00123725	0.000298049	9.37191E-05	0	0	0	
0.1145	0.0065852	0.000844491	0.000244136	7.00237E-05	0	0	0	
0.114667	-0.00705367	-0.000434262	0.000185973	4.50556E-05	0	0	0	
0.114833	0.00892373	0.00158894	0.000177513	3.12743E-05	0	0	0	
0.115	-0.0146451	-0.00227813	0.000184649	3.50004E-05	0	0	0	
0.115167	0.010191	0.00207445	0.00020867	4.13384E-05	0	0	0	
0.115333	-0.00292999	-0.00214724	0.000246355	5.79327E-05	0	0	0	
0.1155	-0.000527412	-0.000142864	0.000248098	6.70357E-05	0	0	0	
0.115667	-0.00071788	-0.00189063	0.000224322	7.31133E-05	0	0	0	
0.115833	-0.00536818	0.00384478	0.000197941	7.07047E-05	0	0	0	
0.116	0.0142802	-0.00337229	0.000201666	6.59503E-05	0	0	0	
0.116167	-0.0166058	0.00143592	0.000235	6.53527E-05	0	0	0	
0.116333	0.00857984	0.00137087	0.000266239	6.45332E-05	0	0	0	
0.1165	-0.00184117	-0.00394457	0.000235298	7.14209E-05	0	0	0	
0.116667	0.000888136	0.00763934	0.000166262	8.79614E-05	0	0	0	
0.116833	0.00042652	-0.0159079	0.000119975	0.000177031	0	0	0	
0.117	-0.00552846	0.0115869	0.000109551	0.000291978	0	0	0	
0.117167	0.00133875	-0.004975	0.000149886	0.000319363	0	0	0	
0.117333	0.00627543	-0.000177051	0.0002055	0.0002351	0	0	0	
0.1175	-0.00495737	0.0038101	0.000241388	0.00011536	0	0	0	
0.117667	0.00314523	-0.00478283	0.000218321	8.12484E-05	0	0	0	
0.117833	-0.00897501	0.00530484	0.000160112	0.000113328	0	0	0	
0.118	0.0110116	-0.0119643	0.000158646	0.000195312	0	0	0	
0.118167	-0.00845903	0.00857709	0.000179463	0.000263595	0	0	0	
0.118333	0.00339903	-0.000430813	0.000174971	0.000243024	0	0	0	
0.1185	-0.00154943	-0.00172539	0.000123837	0.000144601	0	0	0	
0.118667	0.00329991	-0.0004581	8.39346E-05	5.67424E-05	0	0	0	
0.118833	-0.0034144	-0.000279156	6.9487E-05	2.98632E-05	0	0	0	
0.119	0.00270858	0.000138411	7.65689E-05	3.79767E-05	0	0	0	
0.119167	-0.00301957	-0.00039643	8.53501E-05	4.61282E-05	0	0	0	
0.119333	0.00444591	0.00165944	8.46559E-05	4.0562E-05	0	0	0	
0.1195	-0.00689524	-0.000859936	9.57088E-05	3.93253E-05	0	0	0	
0.119667	0.00628839	0.00132646	0.000107791	2.50328E-05	0	0	0	
0.119833	-0.00187599	-0.00295503	0.000108689	3.79519E-05	0	0	0	
0.12	-6.11595E-05	0.00167836	7.50759E-05	4.36686E-05	0	0	0	
0.120167	-0.00282965	-0.000511763	6.12322E-05	4.28617E-05	0	0	0	
0.120333	0.00309021	0.000300626	6.18373E-05	4.62295E-05	0	0	0	
0.1205	-0.00458957	0.00123559	8.38296E-05	4.34358E-05	0	0	0	
0.120667	0.00824296	-0.000681083	0.000115423	4.33336E-05	0	0	0	
0.120833	-0.0115123	-0.000544859	0.000169182	3.39494E-05	0	0	0	
0.121	0.00951763	3.25547E-05	0.000202078	3.31919E-05	0	0	0	
0.121167	-0.00531047	0.000319331	0.000197678	3.2838E-05	0	0	0	
0.121333	0.00156677	0.000597367	0.000132091	2.98479E-05	0	0	0	
0.1215	-0.00491116	0.000367674	9.30153E-05	2.52603E-05	0	0	0	
0.121667	0.00583985	-0.000544967	9.03051E-05	2.65487E-05	0	0	0	
0.121833	-0.000453451	0.00113373	0.000115911	2.33545E-05	0	0	0	
0.122	0.0015102	-0.00115652	0.000142201	2.23465E-05	0	0	0	
0.122167	-0.00417044	0.00186903	0.000144017	2.7462E-05	0	0	0	
0.122333	0.00435606	-0.000777295	0.000142847	3.35106E-05	0	0	0	
0.1225	-0.00408155	0.000854612	0.000137113	2.65238E-05	0	0	0	
0.122667	0.00357353	0.000538407	0.000134485	1.88654E-05	0	0	0	
0.122833	-0.00179937	-0.000460143	0.000131859	1.20545E-05	0	0	0	
0.123	0.00382436	0.000806575	0.000115428	1.51043E-05	0	0	0	
0.123167	-0.00456038	0.000569161	0.000100284	2.10798E-05	0	0	0	
0.123333	0.00287099	-9.4242E-05	8.98803E-05	2.65244E-05	0	0	0	
0.1235	-0.00294197	-0.00116474	8.82694E-05	2.53949E-05	0	0	0	
0.123667	0.000951534	0.00250768	7.78199E-05	3.09016E-05	0	0	0	
0.123833	-0.00122255	-0.00101738	6.47796E-05	3.72904E-05	0	0	0	
0.124	0.00378729	-0.000181774	7.05987E-05	3.89198E-05	0	0	0	
0.124167	-0.00483382	0.00183368	8.44137E-05	3.12573E-05	0	0	0	
0.124333	0.00377909	0.000423019	9.21904E-05	2.30439E-05	0	0	0	
0.1245	-0.00378065	-0.00109324	8.79361E-05	2.48903E-05	0	0	0	
0.124667	0.00460571	0.000584402	8.28782E-05	2.39372E-05	0	0	0	
0.124833	-0.00565853	0.000556606	8.95269E-05	2.19297E-05	0	0	0	
0.125	0.0045139	-0.00127016	9.79924E-05	2.16199E-05	0	0	0	
0.125167	-0.00445765	0.00183911	9.77932E-05	3.04852E-05	0	0	0	
0.125333	0.00644029	0.000425404	0.000108367	3.49964E-05	0	0	0	
0.1255	-0.00817725	-0.000231855	0.000130114	3.77031E-05	0	0	0	
0.125667	0.00714256	-0.00203324	0.000150228	3.51903E-05	0	0	0	
0.125833	-0.00426912	0.00232159	0.000143664	4.33992E-05	0	0	0	
0.126	0.00348495	-0.00200525	0.000119197	4.37997E-05	0	0	0	
0.126167	-0.00385559	0.00255037	0.000105318	4.63468E-05	0	0	0	
0.126333	0.00346194	-0.000294121	0.000105387	4.56187E-05	0	0	0	
0.1265	-0.00210767	-0.00133032	9.44496E-05	5.41484E-05	0	0	0	
0.126667	0.000546626	-0.00216552	7.69501E-05	6.02759E-05	0	0	0	
0.126833	-0.00212632	0.00189674	6.92385E-05	6.15353E-05	0	0	0	
0.127	0.00364648	-0.00166719	7.76621E-05	5.32557E-05	0	0	0	
0.127167	-0.00244416	0.00302561	8.67287E-05	4.54464E-05	0	0	0	
0.127333	0.00541013	-0.00249226	9.80456E-05	4.69978E-05	0	0	0	
0.1275	-0.00825669	0.00228564	0.000117711	4.88629E-05	0	0	0	
0.127667	0.00597904	-0.00433747	0.000132442	5.69048E-05	0	0	0	
0.127833	-0.00199119	0.00401811	0.000116398	6.38537E-05	0	0	0	
0.128	0.00222947	-0.0031692	8.05438E-05	7.14739E-05	0	0	0	
0.128167	-0.00328024	0.00154204	6E-05	6.25229E-05	0	0	0	
0.128333	0.0036203	-9.26649E-05	6.30958E-05	4.09802E-05	0	0	0	
0.1285	-0.00321202	0.000384163	7.91396E-05	2.49341E-05	0	0	0	
0.128667	0.00450653	-0.00102898	9.13398E-05	1.64574E-05	0	0	0	
0.128833	-0.00480331	0.00185798	9.55363E-05	1.96467E-05	0	0	0	
0.129	0.00395331	-0.0016954	9.39228E-05	3.02487E-05	0	0	0	
0.129167	-0.00304458	0.00213901	8.52095E-05	3.58698E-05	0	0	0	
0.129333	0.00444622	-0.00172698	8.62488E-05	4.13254E-05	0	0	0	
0.1295	-0.00549676	0.00178036	0.000100684	3.89858E-05	0	0	0	
0.129667	0.00444247	-0.000832397	0.000109932	4.26933E-05	0	0	0	
0.129833	-0.00367401	0.00188781	0.000104303	3.77175E-05	0	0	0	
0.13	0.00332344	-0.00222252	8.9959E-05	4.16033E-05	0	0	0	
0.130167	-0.00274717	0.00245346	7.95011E-05	4.15139E-05	0	0	0	
0.130333	0.00159625	-0.00135619	6.58322E-05	4.8081E-05	0	0	0	
0.1305	-0.00119525	-0.000237111	5.1309E-05	4.09911E-05	0	0	0	
0.130667	0.0009722	0.00142609	3.51729E-05	3.65673E-05	0	0	0	
0.130833	-0.00137581	-0.00070069	3.85592E-05	3.11874E-05	0	0	0	
0.131	0.00241706	5.2215E-07	5.15369E-05	3.18951E-05	0	0	0	
0.131167	-0.00472631	0.000104822	7.31741E-05	3.31004E-05	0	0	0	
0.131333	0.00524514	0.000289214	8.56652E-05	3.65367E-05	0	0	0	
0.1315	-0.00658671	0.000947007	0.000100726	3.21813E-05	0	0	0	
0.131667	0.00613631	2.33456E-05	0.000109978	2.72125E-05	0	0	0	
0.131833	-0.00461223	-0.00214334	0.000117266	2.73469E-05	0	0	0	
0.132	0.00289698	0.000863579	9.94765E-05	3.4238E-05	0	0	0	
0.132167	-0.00370828	-5.82108E-05	8.6076E-05	2.95208E-05	0	0	0	
0.132333	0.0048974	-0.000280387	8.31576E-05	1.82296E-05	0	0	0	
0.1325	-0.00356708	0.00108526	8.92525E-05	1.1441E-05	0	0	0	
0.132667	0.00162194	-0.00176049	8.34913E-05	1.66348E-05	0	0	0	
0.132833	-0.0019786	0.00190012	6.79352E-05	2.5399E-05	0	0	0	
0.133	0.00484651	-0.00209704	6.07354E-05	3.47307E-05	0	0	0	
0.133167	-0.0047669	-0.000194588	7.03508E-05	3.28623E-05	0	0	0	
0.133333	0.00512655	0.000305507	8.41901E-05	2.34347E-05	0	0	0	
0.1335	-0.00441284	-0.000370832	9.71047E-05	1.68303E-05	0	0	0	
0.133667	0.00186533	-0.00137176	8.90161E-05	1.74163E-05	0	0	0	
0.133833	0.000523457	0.000336224	7.5117E-05	2.51025E-05	0	0	0	
0.134	-0.00629141	0.000203287	7.76876E-05	3.37911E-05	0	0	0	
0.134167	0.00987559	0.0012238	0.000100073	6.08824E-05	0	0	0	
0.134333	-0.00862695	-0.00301941	0.000158515	8.04087E-05	0	0	0	
0.1345	0.00115338	0.00340872	0.000249197	8.24593E-05	0	0	0	
0.134667	0.00934383	-0.00228054	0.000341628	6.81728E-05	0	0	0	
0.134833	-0.0158945	0.000726852	0.000370245	5.72783E-05	0	0	0	
0.135	0.0160018	0.000570699	0.000336933	5.30719E-05	0	0	0	
0.135167	-0.0119386	-0.00279336	0.000292627	4.25645E-05	0	0	0	
0.135333	0.00158097	0.00320765	0.000273871	4.47537E-05	0	0	0	
0.1355	0.00741967	-0.000160408	0.000266845	5.23606E-05	0	0	0	
0.135667	-0.0106367	-0.00239798	0.000231426	7.38419E-05	0	0	0	
0.135833	0.0075691	0.00347446	0.000209286	7.74906E-05	0	0	0	
0.136	-0.00154084	-0.0025032	0.000196231	7.16155E-05	0	0	0	
0.136167	-0.000291165	0.000529629	0.000197491	5.25859E-05	0	0	0	
0.136333	0.00107297	-0.000487219	0.000174143	3.16347E-05	0	0	0	
0.1365	-0.00377242	0.00162512	0.000139219	2.20327E-05	0	0	0	
0.136667	0.00553165	-0.00185239	0.000126791	2.18261E-05	0	0	0	
0.136833	-0.00639368	0.000561212	0.000129902	2.68878E-05	0	0	0	
0.137	0.00488546	0.000167562	0.000130183	2.23611E-05	0	0	0	
0.137167	-0.00433952	0.000414829	0.00011844	1.44689E-05	0	0	0	
0.137333	0.00338763	-0.000844032	0.000103074	9.42136E-06	0	0	0	
0.1375	-0.00364835	0.00152934	8.86101E-05	1.5649E-05	0	0	0	
0.137667	0.00411718	-0.00120582	8.34162E-05	2.2718E-05	0	0	0	
0.137833	-0.00347599	0.000629507	8.08838E-05	2.50387E-05	0	0	0	
0.138	0.00240671	0.000266703	7.66543E-05	2.16363E-05	0	0	0	
0.138167	-0.00381487	0.000921354	7.26492E-05	2.28083E-05	0	0	0	
0.138333	0.00311975	-0.00227606	7.4332E-05	2.86125E-05	0	0	0	
0.1385	-0.00376869	0.00140162	7.99796E-05	3.54901E-05	0	0	0	
0.138667	0.00369738	0.000434465	8.40629E-05	3.10327E-05	0	0	0	
0.138833	-0.00333017	0.000265451	8.35526E-05	2.48001E-05	0	0	0	
0.139	0.00378134	-0.000247609	8.41228E-05	2.2414E-05	0	0	0	
0.139167	-0.00398584	-0.000201988	8.26436E-05	2.05831E-05	0	0	0	
0.139333	0.002057	0.000214627	8.09335E-05	2.17386E-05	0	0	0	
0.1395	-0.00267712	0.00173165	7.54939E-05	2.12758E-05	0	0	0	
0.139667	0.00482119	-0.00256051	7.09916E-05	2.96786E-05	0	0	0	
0.139833	-0.00490208	0.00253188	7.82757E-05	4.14748E-05	0	0	0	
0.14	0.00438164	0.000532396	8.87313E-05	4.26259E-05	0	0	0	
0.140167	-0.00433754	-0.000293117	9.39667E-05	3.25096E-05	0	0	0	
0.140333	0.00235988	-0.000520152	8.57692E-05	2.30889E-05	0	0	0	
0.1405	-0.00259326	0.00226788	7.06191E-05	2.52761E-05	0	0	0	
0.140667	0.00499502	-0.000759562	6.88305E-05	3.24719E-05	0	0	0	
0.140833	-0.00419278	0.00188705	8.81138E-05	3.45486E-05	0	0	0	
0.141	0.00391552	-0.000191121	0.000107083	3.05011E-05	0	0	0	
0.141167	-0.00435661	0.00107403	0.000111519	2.2216E-05	0	0	0	
0.141333	0.00351612	-0.00104607	9.77306E-05	2.20589E-05	0	0	0	
0.1415	-0.00469473	0.000498138	8.67817E-05	1.59033E-05	0	0	0	
0.141667	0.00391456	0.00227508	8.29157E-05	2.62591E-05	0	0	0	
0.141833	-0.0003359	-0.00148123	7.85603E-05	2.78721E-05	0	0	0	
0.142	-4.67513E-05	0.000570988	6.39948E-05	5.91333E-05	0	0	0	
0.142167	-0.00322219	0.00416582	6.71682E-05	8.82412E-05	0	0	0	
0.142333	0.00571464	-0.00574172	8.14703E-05	0.000107993	0	0	0	
0.1425	-0.00454518	0.0026133	0.000107169	9.90698E-05	0	0	0	
0.142667	0.00532184	-0.00159688	0.000113976	7.38551E-05	0	0	0	
0.142833	-0.0082448	-0.000164983	0.000117208	5.06004E-05	0	0	0	
0.143	0.00816886	0.00374534	0.00013837	4.71258E-05	0	0	0	
0.143167	-0.00407419	-0.00300944	0.000140353	6.03093E-05	0	0	0	
0.143333	0.00243796	-0.0014757	0.000121046	6.10161E-05	0	0	0	
0.1435	-0.00275289	0.00284376	9.56701E-05	6.21716E-05	0	0	0	
0.143667	0.00404058	-0.00289731	8.83972E-05	4.73225E-05	0	0	0	
0.143833	-0.00467275	0.000615013	9.85041E-05	4.77727E-05	0	0	0	
0.144	0.00506162	-0.000959724	0.000100013	3.48653E-05	0	0	0	
0.144167	-0.00355781	0.00324494	0.000100281	3.45744E-05	0	0	0	
0.144333	0.00346595	-0.00440039	9.88715E-05	5.51198E-05	0	0	0	
0.1445	-0.00494684	0.00269996	0.000100684	7.05427E-05	0	0	0	
0.144667	0.00593084	-0.000820131	0.000105292	6.42895E-05	0	0	0	
0.144833	-0.00413445	-0.000132676	0.000108219	3.87885E-05	0	0	0	
0.145	0.00341	-0.000921513	0.000100098	1.89654E-05	0	0	0	
0.145167	-0.00254321	0.00143017	9.16146E-05	2.07276E-05	0	0	0	
0.145333	0.002195	-0.000742065	7.89799E-05	2.76444E-05	0	0	0	
0.1455	-0.00196825	0.000793608	7.43429E-05	2.77663E-05	0	0	0	
0.145667	0.00254696	-0.00018645	7.43575E-05	2.34817E-05	0	0	0	
0.145833	-0.00370214	0.000632354	8.79726E-05	2.16415E-05	0	0	0	
0.146	0.00542604	-0.000982035	0.000105903	1.9879E-05	0	0	0	
0.146167	-0.00610427	0.00330529	0.000119509	2.88062E-05	0	0	0	
0.146333	0.00265715	-0.00354052	0.000113175	4.57714E-05	0	0	0	
0.1465	-0.00148956	0.00262687	8.72386E-05	6.84654E-05	0	0	0	
0.146667	0.0033338	-0.00305693	6.98421E-05	7.40339E-05	0	0	0	
0.146833	-0.00512241	0.00425715	7.67538E-05	7.09947E-05	0	0	0	
0.147	0.00383988	-0.00188927	9.40061E-05	6.35388E-05	0	0	0	
0.147167	-0.00239839	0.000477355	9.70762E-05	5.42459E-05	0	0	0	
0.147333	0.00248667	0.00223363	8.7954E-05	4.82102E-05	0	0	0	
0.1475	-0.00489728	-0.00263137	7.83132E-05	5.65303E-05	0	0	0	
0.147667	0.00388158	0.000710376	8.14217E-05	5.89276E-05	0	0	0	
0.147833	-0.0025207	0.000158778	8.10615E-05	5.07266E-05	0	0	0	
0.148	0.00135399	0.000336417	8.49552E-05	3.35202E-05	0	0	0	
0.148167	-0.000726575	-0.000636759	7.61933E-05	2.89731E-05	0	0	0	
0.148333	-0.00299246	0.00103625	7.19994E-05	2.65122E-05	0	0	0	
0.1485	0.0031721	-0.000417831	7.64385E-05	2.3559E-05	0	0	0	
0.148667	0.00138738	0.00105879	6.56139E-05	2.64023E-05	0	0	0	
0.148833	-0.00650194	-0.00143235	6.91893E-05	3.51459E-05	0	0	0	
0.149	0.00882688	-0.000493084	8.58088E-05	3.27953E-05	0	0	0	
0.149167	-0.0102502	0.000841736	0.000140449	2.73233E-05	0	0	0	
0.149333	0.00817462	-0.00162326	0.000168037	2.83696E-05	0	0	0	
0.1495	-0.00805217	0.00040837	0.000172606	4.01623E-05	0	0	0	
0.149667	0.0103369	0.00137792	0.000174335	4.49342E-05	0	0	0	
0.149833	-0.00937366	-0.00165579	0.000188704	4.38299E-05	0	0	0	
0.15	0.00695156	-0.000625165	0.000194253	3.87016E-05	0	0	0	
0.150167	-0.00571146	0.00135089	0.000179003	3.77642E-05	0	0	0	
0.150333	0.00386702	-0.00292015	0.000163617	3.36188E-05	0	0	0	
0.1505	-0.00372849	0.00312914	0.000161267	4.36554E-05	0	0	0	
0.150667	0.00474473	-0.00154573	0.000157761	5.15153E-05	0	0	0	
0.150833	-0.00481326	-8.6416E-05	0.000142227	4.33356E-05	0	0	0	
0.151	0.00604404	-0.00088595	0.000122512	2.90822E-05	0	0	0	
0.151167	-0.0059084	6.53766E-06	0.000112099	1.49201E-05	0	0	0	
0.151333	0.00517125	-0.000468763	0.000111341	1.7482E-05	0	0	0	
0.1515	-0.00580317	0.00269426	0.000111413	2.00042E-05	0	0	0	
0.151667	0.00467718	-0.00160975	0.000106334	3.1084E-05	0	0	0	
0.151833	-0.00320713	0.000650799	9.59938E-05	3.14261E-05	0	0	0	
0.152	0.00416132	-0.000681503	8.10021E-05	2.84189E-05	0	0	0	
0.152167	-0.00354088	-0.000827415	7.31797E-05	1.86554E-05	0	0	0	
0.152333	0.00312027	-0.000630628	7.26E-05	1.97626E-05	0	0	0	
0.1525	-0.00525888	0.00246024	8.60301E-05	2.56705E-05	0	0	0	
0.152667	0.00557219	-0.00164938	9.95904E-05	3.58076E-05	0	0	0	
0.152833	-0.00320529	0.00262659	0.00010283	4.06913E-05	0	0	0	
0.153	0.00362213	-0.00188371	8.8514E-05	4.41306E-05	0	0	0	
0.153167	-0.00393613	0.000234169	8.01807E-05	3.65657E-05	0	0	0	
0.153333	0.00274952	-0.000104426	7.60242E-05	2.96244E-05	0	0	0	
0.1535	-0.00185374	0.000610233	7.42725E-05	1.81535E-05	0	0	0	
0.153667	0.00191457	-0.000609191	7.18237E-05	2.15686E-05	0	0	0	
0.153833	-0.00491432	0.00227736	8.29123E-05	2.72765E-05	0	0	0	
0.154	0.00552774	-0.00138013	9.78768E-05	3.31467E-05	0	0	0	
0.154167	-0.00353349	0.00042854	0.000100911	3.15695E-05	0	0	0	
0.154333	0.0039046	0.000186013	9.51353E-05	2.24228E-05	0	0	0	
0.1545	-0.00638265	0.00117608	0.000105286	2.21323E-05	0	0	0	
0.154667	0.00584121	-0.00135916	0.000119888	2.32415E-05	0	0	0	
0.154833	-0.00438644	0.000609429	0.000120687	2.79673E-05	0	0	0	
0.155	0.00246563	-0.000823099	0.000105051	2.36252E-05	0	0	0	
0.155167	-0.00274646	0.00217298	8.39315E-05	2.58196E-05	0	0	0	
0.155333	0.00169487	-0.00122334	7.48221E-05	2.99889E-05	0	0	0	
0.1555	-0.00167214	-0.000118064	7.01934E-05	2.90373E-05	0	0	0	
0.155667	0.00283663	0.000695762	7.94661E-05	2.12956E-05	0	0	0	
0.155833	-0.00303596	0.000894224	9.28101E-05	1.89138E-05	0	0	0	
0.156	0.00310171	-0.00206341	9.81661E-05	2.13217E-05	0	0	0	
0.156167	-0.00343116	0.000951377	9.0861E-05	2.8252E-05	0	0	0	
0.156333	0.00422493	0.00029507	8.50296E-05	2.52859E-05	0	0	0	
0.1565	-0.0047478	0.000225317	9.09103E-05	2.2661E-05	0	0	0	
0.156667	0.00434473	-0.000293876	9.8775E-05	1.36841E-05	0	0	0	
0.156833	-0.00382904	0.000255484	0.000102433	1.58822E-05	0	0	0	
0.157	0.00430062	-0.000160219	9.50789E-05	1.86709E-05	0	0	0	
0.157167	-0.00264152	0.000331488	8.48983E-05	3.54942E-05	0	0	0	
0.157333	0.0025819	-0.00223484	7.38489E-05	4.24846E-05	0	0	0	
0.1575	-0.00371036	0.00308029	8.06054E-05	5.34701E-05	0	0	0	
0.157667	0.0032539	-0.00138977	9.16954E-05	5.13953E-05	0	0	0	
0.157833	-0.00236205	0.000318646	9.9641E-05	4.95041E-05	0	0	0	
0.158	0.00330215	0.000508723	9.68684E-05	3.68253E-05	0	0	0	
0.158167	-0.00476173	0.000141731	9.18561E-05	2.22593E-05	0	0	0	
0.158333	0.00323324	-0.000712744	8.6826E-05	1.79239E-05	0	0	0	
0.1585	-0.00203168	0.00224733	7.12274E-05	3.15625E-05	0	0	0	
0.158667	0.00287755	-0.00218913	6.16675E-05	4.71853E-05	0	0	0	
0.158833	-0.00237038	0.0022281	6.0455E-05	5.50285E-05	0	0	0	
0.159	0.00191614	-0.00238816	6.55751E-05	4.57872E-05	0	0	0	
0.159167	-0.00339112	0.00462345	7.73448E-05	5.32057E-05	0	0	0	
0.159333	0.00529829	-0.0019875	0.000100487	6.08401E-05	0	0	0	
0.1595	-0.00588503	0.000134507	0.000121286	5.42094E-05	0	0	0	
0.159667	0.00483128	-5.89187E-07	0.000123103	3.42272E-05	0	0	0	
0.159833	-0.0026254	-0.000776219	0.000104246	1.3904E-05	0	0	0	
0.16	0.00209823	0.000414444	8.64198E-05	1.49858E-05	0	0	0	
0.160167	-0.00121032	0.0017137	7.59177E-05	1.58911E-05	0	0	0	
0.160333	0.00104407	-0.00158217	7.12714E-05	3.52747E-05	0	0	0	
0.1605	-0.00193774	0.00156184	7.6016E-05	5.21937E-05	0	0	0	
0.160667	0.00324804	-0.0034825	8.10548E-05	5.79266E-05	0	0	0	
0.160833	-0.00350048	0.00258604	8.6E-05	5.52421E-05	0	0	0	
0.161	0.00381529	-0.000938241	8.44328E-05	4.77696E-05	0	0	0	
0.161167	-0.00368072	0.000594602	8.39408E-05	4.35859E-05	0	0	0	
0.161333	0.00383568	-0.00174839	8.174E-05	3.10363E-05	0	0	0	
0.1615	-0.0026017	0.000518439	8.372E-05	2.5782E-05	0	0	0	
0.161667	0.00200906	-1.87271E-05	8.06704E-05	3.16433E-05	0	0	0	
0.161833	-0.00163888	0.000229805	8.47162E-05	3.08766E-05	0	0	0	
0.162	0.00229917	0.000447967	9.37049E-05	3.14561E-05	0	0	0	
0.162167	-0.00459015	-0.00139172	0.000102394	3.27087E-05	0	0	0	
0.162333	0.00602776	-0.000865302	0.000105988	3.55535E-05	0	0	0	
0.1625	-0.00664702	0.00254656	0.000107271	3.93799E-05	0	0	0	
0.162667	0.0073179	-0.00351617	0.000120054	4.01858E-05	0	0	0	
0.162833	-0.0043189	0.00238618	0.000122491	5.30502E-05	0	0	0	
0.163	0.00385873	0.000194407	0.000113634	5.80745E-05	0	0	0	
0.163167	-0.0058616	-0.00309807	0.000106675	5.23068E-05	0	0	0	
0.163333	0.00444381	0.00309339	0.000109217	5.14167E-05	0	0	0	
0.1635	-0.00296866	0.00120487	0.00010809	5.02242E-05	0	0	0	
0.163667	0.0025898	-0.00328792	8.9695E-05	6.08856E-05	0	0	0	
0.163833	-0.00302973	0.00331375	9.02967E-05	5.82182E-05	0	0	0	
0.164	0.00566082	-0.00174156	0.000110522	5.81919E-05	0	0	0	
0.164167	-0.00925901	2.76654E-05	0.00014446	5.27549E-05	0	0	0	
0.164333	0.00913517	0.000549958	0.000164808	4.63083E-05	0	0	0	
0.1645	-0.00787096	0.000378393	0.000170174	3.55926E-05	0	0	0	
0.164667	0.00529718	-0.00051801	0.000151605	2.7106E-05	0	0	0	
0.164833	-0.00476741	0.00147106	0.000128833	2.89662E-05	0	0	0	
0.165	0.00335888	-0.00121686	0.00010136	3.7861E-05	0	0	0	
0.165167	-0.00432425	0.000985739	9.10386E-05	3.631E-05	0	0	0	
0.165333	0.00432658	-0.00114564	8.87064E-05	2.843E-05	0	0	0	
0.1655	-0.00330443	0.00187745	9.00621E-05	2.53145E-05	0	0	0	
0.165667	0.00197055	-0.00223016	7.97141E-05	3.51745E-05	0	0	0	
0.165833	-0.0029129	0.00221999	6.3436E-05	4.56675E-05	0	0	0	
0.166	0.00274061	0.000105531	6.45247E-05	4.00892E-05	0	0	0	
0.166167	-0.0030944	-0.00127382	7.36217E-05	3.32261E-05	0	0	0	
0.166333	0.00263989	0.000608433	7.66237E-05	2.62423E-05	0	0	0	
0.1665	-0.0029787	0.000426526	6.63516E-05	2.24588E-05	0	0	0	
0.166667	0.00222164	0.000260512	6.28711E-05	2.27261E-05	0	0	0	
0.166833	-0.00371686	0.00139923	6.82702E-05	2.41271E-05	0	0	0	
0.167	0.00321277	-0.000802487	8.55946E-05	3.25728E-05	0	0	0	
0.167167	-0.00381033	2.87594E-05	9.96442E-05	2.49714E-05	0	0	0	
0.167333	0.00436001	-0.000544119	0.000104726	1.80964E-05	0	0	0	
0.1675	-0.00472884	0.00140844	0.000102915	1.24774E-05	0	0	0	
0.167667	0.00352033	-0.00178055	0.000100602	2.23943E-05	0	0	0	
0.167833	-0.00387329	0.0013056	9.77764E-05	2.71745E-05	0	0	0	
0.168	0.00255163	-0.000384565	9.53707E-05	2.72424E-05	0	0	0	
0.168167	-0.00343795	0.00118419	9.08977E-05	2.08619E-05	0	0	0	
0.168333	0.0030694	-0.00156464	9.03712E-05	1.95372E-05	0	0	0	
0.1685	-0.00322412	0.000963952	8.91719E-05	2.28286E-05	0	0	0	
0.168667	0.00360129	9.50935E-06	9.09878E-05	2.49809E-05	0	0	0	
0.168833	-0.00349734	-0.000979705	9.53381E-05	2.8187E-05	0	0	0	
0.169	0.00263525	-0.000170241	9.38402E-05	2.39784E-05	0	0	0	
0.169167	-0.00338352	0.000271628	8.79925E-05	2.06998E-05	0	0	0	
0.169333	0.00296289	0.000498828	8.31472E-05	1.45142E-05	0	0	0	
0.1695	-0.00330498	0.000781446	8.15986E-05	1.58271E-05	0	0	0	
0.169667	0.00325563	-0.00118927	7.80965E-05	1.97844E-05	0	0	0	
0.169833	-0.00277372	-0.000285878	7.45522E-05	1.87125E-05	0	0	0	
0.17	0.0025293	-0.000838893	7.11333E-05	2.01453E-05	0	0	0	
0.170167	-0.00403385	0.00146051	7.80421E-05	2.37513E-05	0	0	0	
0.170333	0.00354132	-0.000410784	8.63765E-05	2.73825E-05	0	0	0	
0.1705	-0.00335114	0.000469125	9.33115E-05	2.31922E-05	0	0	0	
0.170667	0.00410102	-0.00253892	9.64009E-05	2.31242E-05	0	0	0	
0.170833	-0.00476381	0.00189704	0.0001001	3.12184E-05	0	0	0	
0.171	0.00348363	-0.0018462	0.000104579	3.95768E-05	0	0	0	
0.171167	-0.00255465	0.000298058	9.70919E-05	3.62881E-05	0	0	0	
0.171333	0.00223322	0.00113393	7.91337E-05	2.93171E-05	0	0	0	
0.1715	-0.00255268	-0.000811776	6.69923E-05	2.76996E-05	0	0	0	
0.171667	0.0030788	-0.000848375	7.23338E-05	2.31593E-05	0	0	0	
0.171833	-0.00389148	0.00188947	8.83767E-05	2.75659E-05	0	0	0	
0.172	0.00473187	-0.00138697	0.00010472	3.38794E-05	0	0	0	
0.172167	-0.00476273	0.00140057	0.000112543	3.91461E-05	0	0	0	
0.172333	0.00627757	-0.000743915	0.000115592	3.44445E-05	0	0	0	
0.1725	-0.00479757	-0.000871419	0.00011438	2.15627E-05	0	0	0	
0.172667	0.00268991	-0.000694969	0.000106475	1.63451E-05	0	0	0	
0.172833	-0.00294499	0.00293353	9.62697E-05	2.16288E-05	0	0	0	
0.173	0.00304288	-0.00222255	9.62165E-05	3.38438E-05	0	0	0	
0.173167	-0.00214799	0.0020262	0.000105814	4.62971E-05	0	0	0	
0.173333	0.0029934	-0.00100962	0.000114875	5.16301E-05	0	0	0	
0.1735	-0.0029282	-3.27986E-05	0.000118321	4.99425E-05	0	0	0	
0.173667	0.00292221	-0.00164294	0.000117181	3.9304E-05	0	0	0	
0.173833	-0.00298758	0.00188253	0.000108112	3.43344E-05	0	0	0	
0.174	0.000789657	-0.00232228	9.36809E-05	3.79965E-05	0	0	0	
0.174167	-0.00186573	0.00264578	8.34272E-05	5.00396E-05	0	0	0	
0.174333	0.0031258	-0.000871954	8.49397E-05	4.93291E-05	0	0	0	
0.1745	-0.00307583	-0.000233426	8.63163E-05	3.45106E-05	0	0	0	
0.174667	0.0031184	-0.00117814	8.705E-05	2.14863E-05	0	0	0	
0.174833	-0.00239911	0.0013573	8.61707E-05	2.07189E-05	0	0	0	
0.175	0.0019603	-0.00107881	8.35752E-05	3.25366E-05	0	0	0	
0.175167	-0.00137163	0.00169052	7.92133E-05	3.67114E-05	0	0	0	
0.175333	0.00198903	-0.00132553	7.56593E-05	3.46345E-05	0	0	0	
0.1755	-0.00233442	0.000677869	8.08797E-05	2.75943E-05	0	0	0	
0.175667	0.00350216	-0.00121287	9.04196E-05	3.2743E-05	0	0	0	
0.175833	-0.00356848	0.000424958	9.91607E-05	3.90822E-05	0	0	0	
0.176	0.00347911	0.000967098	9.8794E-05	4.10148E-05	0	0	0	
0.176167	-0.00233594	-0.00050814	8.95899E-05	3.33194E-05	0	0	0	
0.176333	0.00233226	-0.000893321	7.07022E-05	2.37052E-05	0	0	0	
0.1765	-0.00195266	0.00136489	6.06371E-05	3.55631E-05	0	0	0	
0.176667	0.00435105	-0.000315667	6.86593E-05	5.26853E-05	0	0	0	
0.176833	-0.00600042	0.000749739	9.64277E-05	5.1085E-05	0	0	0	
0.177	0.00483734	-8.91744E-05	0.000113724	3.95065E-05	0	0	0	
0.177167	-0.00423936	-0.00100064	0.000108015	2.87982E-05	0	0	0	
0.177333	0.00508604	0.00250054	9.21928E-05	3.79228E-05	0	0	0	
0.1775	-0.00353778	-0.00249708	8.10974E-05	4.42589E-05	0	0	0	
0.177667	0.00166062	0.00243184	7.20191E-05	4.68617E-05	0	0	0	
0.177833	-0.00076471	0.000151004	6.2397E-05	5.11046E-05	0	0	0	
0.178	0.00395661	-0.00225441	7.93017E-05	4.77923E-05	0	0	0	
0.178167	-0.00784453	0.00145114	0.000118421	4.21202E-05	0	0	0	
0.178333	0.0073337	0.000677943	0.000154511	3.29777E-05	0	0	0	
0.1785	-0.00533618	0.000513679	0.000154595	3.1731E-05	0	0	0	
0.178667	0.00596866	-0.00102998	0.000138408	3.38893E-05	0	0	0	
0.178833	-0.00550641	0.000145842	0.000126655	2.66555E-05	0	0	0	
0.179	0.0033788	-0.000501008	0.00011314	1.80244E-05	0	0	0	
0.179167	-0.00217036	0.00189696	9.7828E-05	1.47475E-05	0	0	0	
0.179333	0.00277659	-0.00136321	9.04538E-05	2.89385E-05	0	0	0	
0.1795	-0.00589989	-0.000128059	0.000100688	4.14585E-05	0	0	0	
0.179667	0.00724137	-0.000192346	0.000120229	4.07466E-05	0	0	0	
0.179833	-0.00747433	0.00247278	0.000133388	4.77128E-05	0	0	0	
0.18	0.00638865	-0.00654334	0.000137346	7.93482E-05	0	0	0	
0.180167	-0.00679295	0.00658873	0.000136312	0.000115869	0	0	0	
0.180333	0.00382897	-0.000529742	0.000127025	0.000116917	0	0	0	
0.1805	-0.00209335	-0.00158685	0.000106933	0.000100301	0	0	0	
0.180667	0.00233096	-0.000435043	9.06852E-05	0.000125892	0	0	0	
0.180833	-0.00372073	0.00372633	9.66303E-05	0.000144535	0	0	0	
0.181	0.00373055	-0.0030035	0.000129754	0.000141025	0	0	0	
0.181167	-0.00512179	-0.000518219	0.000156947	0.000103804	0	0	0	
0.181333	0.00256852	-3.84689E-05	0.000156528	9.16316E-05	0	0	0	
0.1815	-0.00225701	-0.000955247	0.00012565	6.73324E-05	0	0	0	
0.181667	0.00342741	0.00618483	9.78403E-05	6.31816E-05	0	0	0	
0.181833	-0.00402992	-0.00414433	9.0369E-05	6.89302E-05	0	0	0	
0.182	0.00428077	-0.0001858	0.000101227	9.78104E-05	0	0	0	
0.182167	-0.00561501	0.000299849	0.000110001	0.000109548	0	0	0	
0.182333	0.00492283	-0.00120348	0.000110989	8.63453E-05	0	0	0	
0.1825	-0.00379217	0.000296355	0.000106413	6.13523E-05	0	0	0	
0.182667	0.00316618	-0.00172106	9.49004E-05	2.74743E-05	0	0	0	
0.182833	-0.00245036	0.00464795	8.83184E-05	3.77875E-05	0	0	0	
0.183	0.00232879	-0.0041084	9.03021E-05	5.92769E-05	0	0	0	
0.183167	-0.00355504	0.00100287	0.000100468	6.93977E-05	0	0	0	
0.183333	0.00301342	-0.00123324	0.000105196	5.10598E-05	0	0	0	
0.1835	-0.0028656	0.00111525	9.83367E-05	3.90596E-05	0	0	0	
0.183667	0.00308571	-0.00406843	8.86919E-05	3.96179E-05	0	0	0	
0.183833	-0.00162528	0.00445853	8.44167E-05	6.80027E-05	0	0	0	
0.184	0.00156296	-0.00299629	8.76085E-05	8.21629E-05	0	0	0	
0.184167	-0.00342424	0.00110613	9.6611E-05	8.13568E-05	0	0	0	
0.184333	0.00362684	-8.62156E-05	9.85155E-05	5.08622E-05	0	0	0	
0.1845	-0.00277654	-0.00080191	9.21508E-05	2.42136E-05	0	0	0	
0.184667	0.00214446	-0.00054306	8.47782E-05	1.62173E-05	0	0	0	
0.184833	-0.00158611	-2.30608E-05	8.19408E-05	2.87804E-05	0	0	0	
0.185	0.00213549	-0.00038612	8.15986E-05	3.97702E-05	0	0	0	
0.185167	-0.000441364	0.000880446	7.58216E-05	3.95686E-05	0	0	0	
0.185333	0.00285714	-0.00113619	6.34825E-05	3.12674E-05	0	0	0	
0.1855	-0.00305525	0.000530814	6.97093E-05	1.95813E-05	0	0	0	
0.185667	0.00284561	-0.00076855	8.028E-05	1.83314E-05	0	0	0	
0.185833	-0.00301603	0.000161815	8.72739E-05	1.56533E-05	0	0	0	
0.186	0.00315255	-0.000740631	8.28086E-05	1.91145E-05	0	0	0	
0.186167	-0.00346823	0.000490958	7.95988E-05	2.14359E-05	0	0	0	
0.186333	0.00391732	-0.000859838	7.68992E-05	2.43996E-05	0	0	0	
0.1865	-0.00142228	0.00153254	7.94909E-05	2.55413E-05	0	0	0	
0.186667	0.00145544	-0.0032245	8.03645E-05	3.22408E-05	0	0	0	
0.186833	-0.00271713	0.00115654	8.69436E-05	3.9006E-05	0	0	0	
0.187	0.00270774	-1.23734E-05	8.83307E-05	3.35241E-05	0	0	0	
0.187167	-0.00300338	-0.000648443	8.89672E-05	2.25671E-05	0	0	0	
0.187333	0.00249595	-2.51359E-05	8.59634E-05	1.21382E-05	0	0	0	
0.1875	-0.00254573	0.000137663	7.90142E-05	1.21583E-05	0	0	0	
0.187667	0.00322102	-0.00116776	7.46262E-05	1.18043E-05	0	0	0	
0.187833	-0.00333792	0.00147358	8.11855E-05	1.54957E-05	0	0	0	
0.188	0.00294539	-0.00191859	9.15611E-05	2.63429E-05	0	0	0	
0.188167	-0.00324069	0.000808897	0.00010041	2.77312E-05	0	0	0	
0.188333	0.00369797	-0.0018917	0.000105201	3.09719E-05	0	0	0	
0.1885	-0.00429489	0.00191317	0.000109263	3.1896E-05	0	0	0	
0.188667	0.00336631	-0.00287379	0.000111145	4.1878E-05	0	0	0	
0.188833	-0.00202858	0.00193857	0.000104089	4.81657E-05	0	0	0	
0.189	0.00170135	-0.000906324	8.97783E-05	4.41301E-05	0	0	0	
0.189167	-0.00165235	-0.000507849	7.61526E-05	3.44696E-05	0	0	0	
0.189333	0.00204503	-0.00139773	7.51585E-05	2.52172E-05	0	0	0	
0.1895	-0.00280414	0.00136677	8.51682E-05	3.16187E-05	0	0	0	
0.189667	0.00348127	1.03495E-05	9.51848E-05	3.73903E-05	0	0	0	
0.189833	-0.00409778	-0.00127657	9.4706E-05	3.68464E-05	0	0	0	
0.19	0.0041073	0.000841632	9.37293E-05	2.97217E-05	0	0	0	
0.190167	-0.00392882	-8.10721E-05	9.5398E-05	2.37416E-05	0	0	0	
0.190333	0.00371672	-0.00162958	0.000101345	2.58016E-05	0	0	0	
0.1905	-0.00324161	0.00129901	0.00010565	2.76506E-05	0	0	0	
0.190667	0.00458358	-0.000159135	0.000111821	3.02415E-05	0	0	0	
0.190833	-0.0035229	0.00158327	0.000115101	2.64158E-05	0	0	0	
0.191	0.00278417	-0.00310424	0.000107453	3.04504E-05	0	0	0	
0.191167	-0.00293526	0.00208766	9.88511E-05	3.95146E-05	0	0	0	
0.191333	0.00230067	-0.0015692	9.22188E-05	4.38898E-05	0	0	0	
0.1915	-0.00184649	0.00027681	8.90572E-05	3.72202E-05	0	0	0	
0.191667	0.00209543	0.00160063	8.19408E-05	2.52308E-05	0	0	0	
0.191833	-0.00120803	-0.000473406	7.45641E-05	2.55456E-05	0	0	0	
0.192	0.00237088	-0.00054345	6.98713E-05	2.62224E-05	0	0	0	
0.192167	-0.00291722	-0.000322487	7.65921E-05	2.77651E-05	0	0	0	
0.192333	0.00237527	-0.000212878	8.59026E-05	2.30601E-05	0	0	0	
0.1925	-0.00347546	0.00182398	9.45401E-05	2.50393E-05	0	0	0	
0.192667	0.0045172	-0.000240195	0.000100715	2.65249E-05	0	0	0	
0.192833	-0.00373139	0.000174858	0.000108328	2.83207E-05	0	0	0	
0.193	0.0043197	-0.00150688	0.000108331	2.72634E-05	0	0	0	
0.193167	-0.00266171	0.00117523	0.000101824	4.09453E-05	0	0	0	
0.193333	0.00229318	-0.0028433	8.80203E-05	4.5066E-05	0	0	0	
0.1935	-0.00158911	0.00366966	8.41881E-05	5.86683E-05	0	0	0	
0.193667	0.000860468	-0.00140779	7.57031E-05	5.14049E-05	0	0	0	
0.193833	-0.00148075	0.000526894	7.23342E-05	4.73171E-05	0	0	0	
0.194	0.00259947	0.00035699	7.32228E-05	2.97707E-05	0	0	0	
0.194167	-0.0020579	-0.00252103	7.98777E-05	3.44184E-05	0	0	0	
0.194333	0.00333813	-2.17285E-05	8.14493E-05	4.31563E-05	0	0	0	
0.1945	-0.00335951	0.00126585	8.20775E-05	5.20878E-05	0	0	0	
0.194667	0.00430648	-0.00219199	7.77694E-05	4.25583E-05	0	0	0	
0.194833	-0.00575671	0.00183436	8.64603E-05	4.01758E-05	0	0	0	
0.195	0.00296305	-0.000845293	8.87453E-05	3.48684E-05	0	0	0	
0.195167	-0.00152628	-0.000715677	8.47427E-05	3.20846E-05	0	0	0	
0.195333	0.0012846	0.00112771	8.28045E-05	2.8428E-05	0	0	0	
0.1955	-0.00356482	-0.00127652	0.000100615	2.68319E-05	0	0	0	
0.195667	0.00419048	-0.00143081	0.00012857	3.62831E-05	0	0	0	
0.195833	-0.00438574	0.00188926	0.000141704	5.54862E-05	0	0	0	
0.196	0.00413491	-0.00263422	0.000137262	6.89393E-05	0	0	0	
0.196167	-0.00314227	0.00304235	0.000117499	6.77033E-05	0	0	0	
0.196333	0.000191137	-0.000589587	8.31532E-05	5.03147E-05	0	0	0	
0.1965	0.000306381	-0.00135341	5.36889E-05	3.79666E-05	0	0	0	
0.196667	0.00198204	0.00130335	5.20668E-05	3.11004E-05	0	0	0	
0.196833	-0.000652705	-0.0022994	5.79743E-05	2.93933E-05	0	0	0	
0.197	-0.00124291	0.00113158	4.79045E-05	3.19726E-05	0	0	0	
0.197167	-4.05978E-05	0.00120187	3.47659E-05	3.52792E-05	0	0	0	
0.197333	0.00192805	-0.00139962	4.46073E-05	4.19957E-05	0	0	0	
0.1975	-0.00144719	0.00108178	6.54278E-05	3.443E-05	0	0	0	
0.197667	0.00212359	-0.00113672	7.40624E-05	3.5063E-05	0	0	0	
0.197833	-0.00326085	0.00111575	8.60489E-05	2.57557E-05	0	0	0	
0.198	0.00482755	-0.0023308	0.000102925	3.04207E-05	0	0	0	
0.198167	-0.00326667	0.00333551	0.0001028	3.77918E-05	0	0	0	
0.198333	-0.00118251	2.1232E-05	8.0562E-05	4.23352E-05	0	0	0	
0.1985	0.000534393	-0.00171425	4.98618E-05	4.09796E-05	0	0	0	
0.198667	0.00101999	0.000620641	3.44621E-05	2.70176E-05	0	0	0	
0.198833	-0.000883425	0.000399956	3.47787E-05	2.61086E-05	0	0	0	
0.199	0.000153944	-0.00186706	5.60244E-05	3.11256E-05	0	0	0	
0.199167	-0.00358938	0.00337771	0.000106486	4.49856E-05	0	0	0	
0.199333	0.00814196	-0.0017443	0.000156472	4.87265E-05	0	0	0	
0.1995	-0.0106891	0.00185216	0.000195515	5.31567E-05	0	0	0	
0.199667	0.00732329	-0.0016685	0.000204576	5.64332E-05	0	0	0	
0.199833	-0.00525715	0.00204935	0.000197523	6.14947E-05	0	0	0	
0.2	0.00490665	-0.00148006	0.000192251	5.51395E-05	0	0	0	
0.200167	-0.00476143	0.00238776	0.000194313	4.62833E-05	0	0	0	
0.200333	0.00348477	-0.00183304	0.000190144	3.8479E-05	0	0	0	
0.2005	-0.001535	0.000445791	0.000162301	3.52995E-05	0	0	0	
0.200667	-0.000624728	0.00125629	0.000120102	2.66973E-05	0	0	0	
0.200833	0.00138133	-0.000458913	8.09451E-05	2.84975E-05	0	0	0	
0.201	-0.00432864	-0.00138381	6.45297E-05	4.69345E-05	0	0	0	
0.201167	0.00498509	0.00405233	7.14466E-05	6.77329E-05	0	0	0	
0.201333	-0.00155234	-0.00496567	0.000116419	7.9787E-05	0	0	0	
0.2015	-0.00242704	0.00186901	0.00016611	7.38731E-05	0	0	0	
0.201667	0.00480674	-0.000155641	0.000182874	7.04896E-05	0	0	0	
0.201833	-0.00550491	-0.000523932	0.00016441	6.63071E-05	0	0	0	
0.202	0.0067902	8.39261E-05	0.000138146	5.39838E-05	0	0	0	
0.202167	-0.00757502	0.00182915	0.000136121	3.96751E-05	0	0	0	
0.202333	0.00512038	-0.00259842	0.000131634	3.16726E-05	0	0	0	
0.2025	-0.0024393	0.000406066	0.000109636	3.19689E-05	0	0	0	
0.202667	0.00283361	-0.000947888	7.74616E-05	3.8713E-05	0	0	0	
0.202833	-0.00261438	-0.000644823	6.50813E-05	3.01547E-05	0	0	0	
0.203	0.00374268	0.00089814	7.0823E-05	3.90898E-05	0	0	0	
0.203167	-0.00399135	0.000370209	9.20485E-05	4.51981E-05	0	0	0	
0.203333	0.00441622	-0.00184242	0.000101856	5.78382E-05	0	0	0	
0.2035	-0.00373229	0.00318579	0.000105154	5.8988E-05	0	0	0	
0.203667	0.00278902	-0.00388597	9.61266E-05	5.83717E-05	0	0	0	
0.203833	-0.00183156	0.00199475	8.90546E-05	5.80275E-05	0	0	0	
0.204	0.000890509	0.000559467	8.48165E-05	5.34759E-05	0	0	0	
0.204167	-0.00129415	-0.00222747	8.64055E-05	4.51962E-05	0	0	0	
0.204333	0.00194395	0.000939703	9.10146E-05	3.27484E-05	0	0	0	
0.2045	-0.00264796	-0.000350618	9.67325E-05	3.38514E-05	0	0	0	
0.204667	0.00297373	9.39636E-05	9.5058E-05	3.72672E-05	0	0	0	
0.204833	-0.00244498	0.00148673	8.89169E-05	4.0143E-05	0	0	0	
0.205	0.0011225	-0.0016991	8.10759E-05	3.78039E-05	0	0	0	
0.205167	-0.0017092	0.000428328	7.61534E-05	2.54848E-05	0	0	0	
0.205333	0.00202761	-0.000563241	7.31453E-05	2.27963E-05	0	0	0	
0.2055	-0.00310262	-0.000242891	8.02589E-05	1.22613E-05	0	0	0	
0.205667	0.00338071	-0.000254249	9.75486E-05	1.09133E-05	0	0	0	
0.205833	-0.00329183	0.00180931	0.000111759	1.08118E-05	0	0	0	
0.206	0.0019662	-0.00219627	0.000108678	2.53409E-05	0	0	0	
0.206167	-0.00129668	0.00125948	9.09125E-05	3.31436E-05	0	0	0	
0.206333	0.00190735	-0.00129161	7.45539E-05	3.57372E-05	0	0	0	
0.2065	-0.00143693	0.000242113	6.95907E-05	2.57003E-05	0	0	0	
0.206667	0.000831635	-0.00115029	7.31368E-05	1.97582E-05	0	0	0	
0.206833	-0.00175867	0.00208828	7.86618E-05	2.11331E-05	0	0	0	
0.207	0.00212871	-0.000693221	8.38627E-05	2.48656E-05	0	0	0	
0.207167	-0.00274296	-0.00046286	8.78984E-05	2.26014E-05	0	0	0	
0.207333	0.00339535	0.000904973	9.11332E-05	2.24658E-05	0	0	0	
0.2075	-0.0027313	-0.00111657	8.99173E-05	2.89582E-05	0	0	0	
0.207667	0.00293149	-0.00134972	8.81593E-05	4.06764E-05	0	0	0	
0.207833	-0.00283684	0.00361747	8.88135E-05	4.76012E-05	0	0	0	
0.208	0.00219572	-0.00307742	9.42389E-05	5.49405E-05	0	0	0	
0.208167	-0.00247897	0.000456679	9.81377E-05	5.08359E-05	0	0	0	
0.208333	0.00164819	0.00267084	9.95919E-05	4.47983E-05	0	0	0	
0.2085	-0.00176943	-0.00149623	9.519E-05	3.61961E-05	0	0	0	
0.208667	0.00277832	-0.00213969	9.3295E-05	3.44451E-05	0	0	0	
0.208833	-0.00229768	0.00250915	9.13912E-05	4.54713E-05	0	0	0	
0.209	0.00261782	-0.00186141	8.99547E-05	4.5422E-05	0	0	0	
0.209167	-0.0024812	0.000643216	8.67698E-05	4.67693E-05	0	0	0	
0.209333	0.00196889	-0.000317328	8.36365E-05	2.64892E-05	0	0	0	
0.2095	-0.00257638	0.00176642	8.08028E-05	2.0571E-05	0	0	0	
0.209667	0.00346702	-0.00156434	8.32427E-05	2.62267E-05	0	0	0	
0.209833	-0.00263473	1.54576E-05	8.53269E-05	4.15972E-05	0	0	0	
0.21	0.002979	-0.000537377	9.13676E-05	4.3219E-05	0	0	0	
0.210167	-0.00271406	0.00206132	9.62937E-05	3.74083E-05	0	0	0	
0.210333	0.00197729	-0.000599234	9.89874E-05	2.87836E-05	0	0	0	
0.2105	-0.00143087	0.000205223	9.56508E-05	2.24015E-05	0	0	0	
0.210667	0.00212256	-0.00100893	8.91761E-05	2.00979E-05	0	0	0	
0.210833	-0.00231	0.000867955	8.58186E-05	2.28009E-05	0	0	0	
0.211	0.00235072	-0.00170117	8.67325E-05	2.56523E-05	0	0	0	
0.211167	-0.00188701	0.00138262	8.8498E-05	2.99807E-05	0	0	0	
0.211333	0.00157126	0.00054213	8.61216E-05	2.57559E-05	0	0	0	
0.2115	-0.00133909	0.000393531	7.97391E-05	2.50435E-05	0	0	0	
0.211667	0.0015927	-0.000320902	7.63507E-05	2.53363E-05	0	0	0	
0.211833	-0.00339601	0.000596332	8.41248E-05	3.74935E-05	0	0	0	
0.212	0.00378903	-0.00239104	0.000100183	5.0811E-05	0	0	0	
0.212167	-0.0030551	0.00178893	0.000103521	5.24876E-05	0	0	0	
0.212333	0.00214624	0.000282938	8.97475E-05	4.66917E-05	0	0	0	
0.2125	-0.00183872	-0.000906289	6.81038E-05	4.02772E-05	0	0	0	
0.212667	0.00183703	0.000918684	6.13405E-05	3.32366E-05	0	0	0	
0.212833	-0.00228703	-0.000432199	7.34624E-05	2.36684E-05	0	0	0	
0.213	0.00223759	-0.000405417	8.69435E-05	1.87021E-05	0	0	0	
0.213167	-0.00154982	0.00232691	9.02776E-05	2.27339E-05	0	0	0	
0.213333	0.00320239	-0.00266674	9.31569E-05	3.37378E-05	0	0	0	
0.2135	-0.00476571	0.00142732	0.000103074	4.0234E-05	0	0	0	
0.213667	0.00250215	-0.00134643	0.00010613	3.94982E-05	0	0	0	
0.213833	-0.000630309	0.00142286	9.51056E-05	3.8534E-05	0	0	0	
0.214	0.00281359	-0.00218344	9.67363E-05	4.47284E-05	0	0	0	
0.214167	-0.00401287	0.00220676	0.000108211	5.34271E-05	0	0	0	
0.214333	0.00274146	-0.0015254	0.000105994	5.24678E-05	0	0	0	
0.2145	-0.00082533	-0.00211082	8.50265E-05	4.02783E-05	0	0	0	
0.214667	0.00217514	0.00122979	7.68908E-05	4.9282E-05	0	0	0	
0.214833	-0.00385996	-7.70196E-06	8.42574E-05	9.1363E-05	0	0	0	
0.215	0.00123723	-0.00249596	8.18468E-05	0.000120086	0	0	0	
0.215167	-0.00092209	0.00189838	6.52479E-05	0.000107136	0	0	0	
0.215333	0.00234488	-0.00331285	6.75036E-05	7.03676E-05	0	0	0	
0.2155	-0.00188227	0.000133624	8.72475E-05	4.58596E-05	0	0	0	
0.215667	0.00143947	0.00191727	0.000106322	3.85221E-05	0	0	0	
0.215833	-0.00293982	-0.00376126	0.000115945	4.22407E-05	0	0	0	
0.216	0.00320215	0.000434242	0.000122818	4.8063E-05	0	0	0	
0.216167	-0.00404754	0.00110668	0.000124834	5.71689E-05	0	0	0	
0.216333	0.00241022	-0.00142325	0.000113925	4.32779E-05	0	0	0	
0.2165	-0.000983411	-0.000330594	8.9457E-05	2.83971E-05	0	0	0	
0.216667	0.000489838	-0.000162101	7.0328E-05	1.66148E-05	0	0	0	
0.216833	-0.000308841	0.000943845	6.25711E-05	3.1283E-05	0	0	0	
0.217	4.91739E-05	-0.00254362	6.77654E-05	5.75017E-05	0	0	0	
0.217167	-0.000332968	0.00296522	7.50881E-05	7.28806E-05	0	0	0	
0.217333	0.00112942	-0.0017989	7.65179E-05	6.56239E-05	0	0	0	
0.2175	-0.00314231	0.000309637	7.56882E-05	4.16991E-05	0	0	0	
0.217667	0.00312071	0.000291401	7.97304E-05	2.84119E-05	0	0	0	
0.217833	-0.00284289	-0.000851104	8.091E-05	3.59149E-05	0	0	0	
0.218	0.00222152	-0.00149226	7.98392E-05	5.48576E-05	0	0	0	
0.218167	-0.00150824	0.0012933	7.20511E-05	6.28016E-05	0	0	0	
0.218333	0.00165764	-0.000435144	6.12307E-05	4.4111E-05	0	0	0	
0.2185	-0.00291338	6.57426E-05	5.71385E-05	2.26815E-05	0	0	0	
0.218667	0.00272396	-0.000476748	7.18275E-05	1.76664E-05	0	0	0	
0.218833	-0.00351687	0.00149905	0.000105768	2.03487E-05	0	0	0	
0.219	0.00318401	-0.00166725	0.000138531	2.68808E-05	0	0	0	
0.219167	-0.00403365	-0.000337927	0.000153548	2.41404E-05	0	0	0	
0.219333	0.00619778	0.000978717	0.000151834	2.48997E-05	0	0	0	
0.2195	-0.00704638	-0.000505793	0.000145729	1.74833E-05	0	0	0	
0.219667	0.00413683	0.00125505	0.000131306	2.09841E-05	0	0	0	
0.219833	-0.000626971	-0.000162617	0.000107094	2.48023E-05	0	0	0	
0.22	-0.000806035	0.000273019	8.20787E-05	4.18608E-05	0	0	0	
0.220167	-0.00065863	0.000590987	7.24507E-05	5.21605E-05	0	0	0	
0.220333	0.0022509	-0.00211069	8.34837E-05	4.79105E-05	0	0	0	
0.2205	-0.00399417	0.0021032	0.00010288	4.30289E-05	0	0	0	
0.220667	0.00427923	-0.00101423	0.000120419	3.34587E-05	0	0	0	
0.220833	-0.00365386	0.000997568	0.000129829	3.54042E-05	0	0	0	
0.221	0.00318063	5.21952E-05	0.000124634	3.1515E-05	0	0	0	
0.221167	-0.00280402	-0.000721496	0.000116181	3.37249E-05	0	0	0	
0.221333	0.00304353	0.00169136	0.000114413	3.00444E-05	0	0	0	
0.2215	-0.00355093	-0.00114035	0.000124152	3.5355E-05	0	0	0	
0.221667	0.00269657	-0.00169845	0.000129852	4.24261E-05	0	0	0	
0.221833	-0.00273236	0.00268629	0.000122741	5.40746E-05	0	0	0	
0.222	0.00211503	-0.00121679	0.000111872	4.74208E-05	0	0	0	
0.222167	-0.00246583	0.00135355	0.000103921	3.88853E-05	0	0	0	
0.222333	0.0021702	0.000750813	9.9587E-05	2.86529E-05	0	0	0	
0.2225	-0.00202848	-0.000619379	8.83417E-05	2.7815E-05	0	0	0	
0.222667	0.000438613	-0.00117409	7.53822E-05	3.2558E-05	0	0	0	
0.222833	-0.000916842	0.00230962	6.6499E-05	4.61603E-05	0	0	0	
0.223	0.000334117	-0.00269726	7.25979E-05	5.53421E-05	0	0	0	
0.223167	-0.00136146	0.00271442	8.28661E-05	5.55755E-05	0	0	0	
0.223333	0.00161308	0.000134726	9.37887E-05	4.60505E-05	0	0	0	
0.2235	-0.00272111	-0.000509928	9.94453E-05	3.31207E-05	0	0	0	
0.223667	0.00290185	-0.000150557	0.000104233	2.55694E-05	0	0	0	
0.223833	-0.00289402	-0.000152581	9.88391E-05	2.84777E-05	0	0	0	
0.224	0.0015527	-0.00190381	8.61729E-05	3.91319E-05	0	0	0	
0.224167	-0.00196461	0.00141508	6.9805E-05	4.93735E-05	0	0	0	
0.224333	0.00145053	-0.00109639	6.69373E-05	4.49925E-05	0	0	0	
0.2245	-0.00157731	0.000733406	6.7913E-05	3.64746E-05	0	0	0	
0.224667	0.002494	-0.000502494	7.83613E-05	3.02992E-05	0	0	0	
0.224833	-0.00176125	0.000288108	9.20141E-05	3.9912E-05	0	0	0	
0.225	0.00265671	-0.00255066	0.000102723	4.233E-05	0	0	0	
0.225167	-0.00232766	0.00206429	0.000107453	4.88001E-05	0	0	0	
0.225333	0.000901224	-0.00136233	0.000106056	3.86096E-05	0	0	0	
0.2255	-0.00172502	0.000175419	0.000105153	3.64748E-05	0	0	0	
0.225667	0.00216927	0.000316671	0.0001058	2.30183E-05	0	0	0	
0.225833	-0.00107948	0.000451308	0.000108231	2.51876E-05	0	0	0	
0.226	0.00131482	-0.000594573	0.000110696	3.13732E-05	0	0	0	
0.226167	-0.000390421	0.000644535	0.000108363	3.86933E-05	0	0	0	
0.226333	0.000893989	-0.00013279	0.00010011	3.39375E-05	0	0	0	
0.2265	-0.00143575	0.00175514	9.34794E-05	2.567E-05	0	0	0	
0.226667	0.0010268	-0.00266028	8.97048E-05	3.05504E-05	0	0	0	
0.226833	-0.000720714	0.00229165	8.74881E-05	4.14381E-05	0	0	0	
0.227	-0.000450681	-4.17642E-05	8.70714E-05	4.72026E-05	0	0	0	
0.227167	-0.00103454	-0.000875778	8.35703E-05	3.66615E-05	0	0	0	
0.227333	0.00148225	-0.000902893	7.83658E-05	2.4669E-05	0	0	0	
0.2275	-0.00098827	0.00380634	7.90068E-05	2.87794E-05	0	0	0	
0.227667	0.00114627	-0.00273479	9.0435E-05	4.82208E-05	0	0	0	
0.227833	-0.00204589	0.000181284	0.000103378	5.91808E-05	0	0	0	
0.228	0.00187966	0.000464602	0.000107577	5.50952E-05	0	0	0	
0.228167	-0.00270111	-0.00130404	0.000101072	3.86839E-05	0	0	0	
0.228333	0.0023719	0.000850137	9.80819E-05	3.3398E-05	0	0	0	
0.2285	-0.0017111	0.000518626	9.36035E-05	2.59862E-05	0	0	0	
0.228667	0.000598667	-0.000739129	8.97965E-05	2.71236E-05	0	0	0	
0.228833	-0.000221713	0.000615257	8.70451E-05	3.513E-05	0	0	0	
0.229	2.30397E-05	-0.000987291	9.96269E-05	4.53112E-05	0	0	0	
0.229167	-0.00111806	-4.4835E-05	0.000128023	4.02942E-05	0	0	0	
0.229333	0.0040262	-0.00073108	0.000154352	2.38837E-05	0	0	0	
0.2295	-0.00451661	0.00117329	0.000152994	1.54792E-05	0	0	0	
0.229667	0.000900989	-0.00215829	0.000116775	2.21951E-05	0	0	0	
0.229833	0.00050719	0.000627616	7.01318E-05	3.12332E-05	0	0	0	
0.23	-0.000903497	-0.000205605	5.29774E-05	3.68159E-05	0	0	0	
0.230167	0.00123086	0.000332097	5.82026E-05	3.3452E-05	0	0	0	
0.230333	-0.000219813	-0.00178438	7.1934E-05	2.9739E-05	0	0	0	
0.2305	-0.000220931	0.000668537	8.64473E-05	2.88188E-05	0	0	0	
0.230667	0.00432856	-0.000434558	0.000106156	2.85065E-05	0	0	0	
0.230833	-0.00561891	-0.00147667	0.000121472	2.95117E-05	0	0	0	
0.231	0.00295261	0.000662461	0.00011034	3.00239E-05	0	0	0	
0.231167	-0.00112197	0.000270974	8.70364E-05	3.75517E-05	0	0	0	
0.231333	0.00290865	-0.00256403	7.59726E-05	4.78559E-05	0	0	0	
0.2315	-0.0020939	0.00379537	8.22286E-05	6.01049E-05	0	0	0	
0.231667	0.00244389	-0.00265114	8.19936E-05	6.52496E-05	0	0	0	
0.231833	-0.000307661	0.00177427	7.76501E-05	5.72696E-05	0	0	0	
0.232	0.000695447	-0.000593832	7.37087E-05	4.21887E-05	0	0	0	
0.232167	-0.00120443	-0.000712294	8.26116E-05	2.2419E-05	0	0	0	
0.232333	0.00041196	0.000567782	8.41795E-05	1.71403E-05	0	0	0	
0.2325	-0.00128048	0.000638199	8.9109E-05	1.75741E-05	0	0	0	
0.232667	0.00541944	-0.00010197	0.000106949	3.39796E-05	0	0	0	
0.232833	-0.00663006	0.00161238	0.000126585	4.24378E-05	0	0	0	
0.233	0.00347217	-0.00288834	0.000120582	5.28338E-05	0	0	0	
0.233167	-0.000770044	0.00284551	8.59377E-05	7.56121E-05	0	0	0	
0.233333	0.00108922	-0.0013264	6.09554E-05	9.53301E-05	0	0	0	
0.2335	-0.00127371	-0.000494558	5.44636E-05	8.54312E-05	0	0	0	
0.233667	0.000869885	0.000801347	6.69284E-05	4.76962E-05	0	0	0	
0.233833	-0.00258829	0.00150498	9.21878E-05	2.89553E-05	0	0	0	
0.234	0.00372691	-0.00478957	0.000119975	4.57196E-05	0	0	0	
0.234167	-0.00235155	0.00642829	0.00012918	8.04119E-05	0	0	0	
0.234333	0.00104596	-0.0027194	0.00010511	9.79011E-05	0	0	0	
0.2345	9.01832E-05	1.92744E-05	8.0147E-05	7.69844E-05	0	0	0	
0.234667	0.00105933	0.000158456	8.02687E-05	4.33592E-05	0	0	0	
0.234833	-0.00211651	0.000822702	0.000100959	3.08633E-05	0	0	0	
0.235	0.00197385	-0.00147768	0.000108508	4.18281E-05	0	0	0	
0.235167	0.000442293	0.00187979	8.79751E-05	4.70157E-05	0	0	0	
0.235333	-0.00141293	-0.000440583	6.32248E-05	3.97366E-05	0	0	0	
0.2355	0.000615619	0.00224543	6.88606E-05	3.91741E-05	0	0	0	
0.235667	0.00157618	-0.000420159	0.000103449	4.24939E-05	0	0	0	
0.235833	-0.00169	-0.00151986	0.000132321	3.75716E-05	0	0	0	
0.236	0.00215179	0.000776126	0.000134508	2.8155E-05	0	0	0	
0.236167	-0.0028026	3.59011E-05	0.000121961	2.54023E-05	0	0	0	
0.236333	0.0030667	-0.00107396	0.000106952	1.99588E-05	0	0	0	
0.2365	-0.00035148	0.00329753	8.82942E-05	2.97286E-05	0	0	0	
0.236667	-0.00171217	-0.00283979	7.44596E-05	4.31649E-05	0	0	0	
0.236833	0.000721129	0.00219302	7.85461E-05	6.15916E-05	0	0	0	
0.237	0.000490406	-0.00123793	9.21017E-05	5.71442E-05	0	0	0	
0.237167	1.17335E-05	0.000994266	9.72202E-05	3.83099E-05	0	0	0	
0.237333	-0.000197621	-0.00151438	9.1664E-05	2.67119E-05	0	0	0	
0.2375	0.000316762	0.00156048	9.20965E-05	2.75808E-05	0	0	0	
0.237667	0.00022821	-0.000647289	9.67003E-05	4.13358E-05	0	0	0	
0.237833	-0.000820659	-0.000187297	9.36388E-05	5.44654E-05	0	0	0	
0.238	0.000556093	0.000473153	8.782E-05	5.46567E-05	0	0	0	
0.238167	-0.00121114	0.000724704	8.63777E-05	3.85367E-05	0	0	0	
0.238333	0.00189712	-0.000752277	8.38583E-05	2.08644E-05	0	0	0	
0.2385	-0.000717984	0.00127077	7.38312E-05	1.46578E-05	0	0	0	
0.238667	0.00037493	-0.000234672	6.35986E-05	1.59296E-05	0	0	0	
0.238833	-0.00102869	-0.000839228	6.76583E-05	1.5191E-05	0	0	0	
0.239	0.00228627	-0.000469913	7.87983E-05	1.61324E-05	0	0	0	
0.239167	-0.00227614	0.00189265	8.92835E-05	2.20052E-05	0	0	0	
0.239333	0.00247179	-0.000317641	9.17615E-05	3.17215E-05	0	0	0	
0.2395	-0.0019241	0.000391848	9.05372E-05	3.52765E-05	0	0	0	
0.239667	0.000766181	-0.000687144	8.79591E-05	3.19209E-05	0	0	0	
0.239833	-0.000568935	0.0013048	8.88675E-05	2.37559E-05	0	0	0	
0.24	0.00179226	-0.00157306	9.69989E-05	2.34321E-05	0	0	0	
0.240167	-0.000807186	0.00122613	0.000113309	3.09045E-05	0	0	0	
0.240333	0.00128275	0.000121337	0.000127279	3.8704E-05	0	0	0	
0.2405	-0.00215191	0.000963537	0.000128022	3.62388E-05	0	0	0	
0.240667	0.000466701	-0.00244389	0.000109738	3.44945E-05	0	0	0	
0.240833	0.000864621	0.00216557	8.36631E-05	3.59137E-05	0	0	0	
0.241	8.36057E-05	-0.00103242	7.26391E-05	4.12403E-05	0	0	0	
0.241167	0.00115448	-0.000709162	8.25991E-05	3.18374E-05	0	0	0	
0.241333	-0.00156038	0.000185536	9.46272E-05	2.30007E-05	0	0	0	
0.2415	0.00263404	-0.00051154	8.92316E-05	1.51477E-05	0	0	0	
0.241667	-0.00439287	0.00219686	7.54209E-05	2.63173E-05	0	0	0	
0.241833	0.00525634	-0.00340312	7.71949E-05	4.71141E-05	0	0	0	
0.242	-0.00248257	0.000340365	8.97913E-05	6.90652E-05	0	0	0	
0.242167	0.00195138	0.00289694	0.000127636	7.77175E-05	0	0	0	
0.242333	-0.00287345	-0.00403605	0.000159857	7.4997E-05	0	0	0	
0.2425	0.00284482	0.00197735	0.000172862	7.54551E-05	0	0	0	
0.242667	-0.00163991	-0.00065033	0.000139272	7.087E-05	0	0	0	
0.242833	0.00135677	0.000498349	9.94727E-05	5.44624E-05	0	0	0	
0.243	-3.383E-05	-0.000943967	9.22505E-05	3.5123E-05	0	0	0	
0.243167	0.000200039	0.000944231	0.000122771	2.75293E-05	0	0	0	
0.243333	-0.00148737	-0.000582694	0.000148211	4.17825E-05	0	0	0	
0.2435	0.00154743	-0.000391233	0.000130424	6.13464E-05	0	0	0	
0.243667	-0.00290112	0.00246697	9.01113E-05	7.43298E-05	0	0	0	
0.243833	0.00662797	-0.00187544	6.8182E-05	7.54738E-05	0	0	0	
0.244	-0.00758334	-0.00117363	9.77215E-05	7.81829E-05	0	0	0	
0.244167	0.00482687	0.0038212	0.000142647	8.62298E-05	0	0	0	
0.244333	-0.00131778	-0.00255154	0.000180103	8.98571E-05	0	0	0	
0.2445	-0.00121249	0.000309637	0.000178479	6.98036E-05	0	0	0	
0.244667	0.00172188	0.000588672	0.000146947	4.27344E-05	0	0	0	
0.244833	-0.000370665	0.000487023	9.82514E-05	2.266E-05	0	0	0	
0.245	-0.00066351	-0.00177513	5.95946E-05	1.97344E-05	0	0	0	
0.245167	0.000538485	0.00169873	4.77907E-05	2.62116E-05	0	0	0	
0.245333	0.000161708	3.66615E-06	5.88081E-05	3.15945E-05	0	0	0	
0.2455	0.00038399	-0.000729624	8.44275E-05	3.78454E-05	0	0	0	
0.245667	0.00121087	-0.00023763	0.000114635	4.18167E-05	0	0	0	
0.245833	-0.00143698	0.00147862	0.000138481	4.50258E-05	0	0	0	
0.246	0.00209189	-0.00307497	0.000147653	4.95831E-05	0	0	0	
0.246167	-0.00184423	0.000995862	0.000148472	5.375E-05	0	0	0	
0.246333	0.002456	0.000414524	0.000144362	4.7488E-05	0	0	0	
0.2465	-0.000936205	-0.000725292	0.000126031	3.5795E-05	0	0	0	
0.246667	-0.000762224	0.000416445	9.42288E-05	2.66917E-05	0	0	0	
0.246833	0.000766762	0.0004738	8.45248E-05	2.19113E-05	0	0	0	
0.247	0.00209675	-0.00243505	9.98414E-05	3.62923E-05	0	0	0	
0.247167	-6.8084E-05	0.0025961	0.000102217	5.0804E-05	0	0	0	
0.247333	-0.000726171	0.000445317	7.53845E-05	5.44668E-05	0	0	0	
0.2475	0.00067586	-0.00207486	4.68075E-05	5.96352E-05	0	0	0	
0.247667	-0.00948641	0.00254498	5.81232E-05	4.94496E-05	0	0	0	
0.247833	0.0199532	0.001355	0.000137674	7.86537E-05	0	0	0	
0.248	-0.0331479	-0.0118452	0.000514194	0.000149842	0	0	0	
0.248167	0.00460246	0.0210093	0.00133579	0.000362987	0	0	0	
0.248333	0.00829893	-0.00407553	0.00200764	0.000461346	0	0	0	
0.2485	-0.0239815	0.00358778	0.00183268	0.000392279	0	0	0	
0.248667	0.0169476	0.00198531	0.0011108	0.000208596	0	0	0	
0.248833	-0.00826992	-0.00595012	0.000500349	0.00010222	0	0	0	
0.249	-0.0286662	0.00946819	0.000465299	0.000117057	0	0	0	
0.249167	0.0178121	-0.00272017	0.000649459	0.000165004	0	0	0	
0.249333	-0.0766602	0.0179943	0.00137701	0.000382054	0	0	0	
0.2495	0.0195171	0.002127	0.00140157	0.000394701	0	0	0	
0.249667	0.00519448	-0.00391847	0.00120497	0.000327504	0	0	0	
0.249833	-0.010346	-0.000824667	0.000400078	9.97793E-05	0	0	0	
0.25	0.00492944	0.00127083	0.000285658	6.35322E-05	0	0	0	
0.250167	-0.00574552	0.000537072	0.00030942	4.25532E-05	0	0	0	
0.250333	0.013269	-0.0026901	0.000429612	4.49546E-05	0	0	0	
0.2505	-0.0157894	0.00225674	0.000505952	4.73997E-05	0	0	0	
0.250667	0.0122654	-0.00085925	0.00046156	5.45188E-05	0	0	0	
0.250833	-0.00846746	-0.000264117	0.000326296	3.77356E-05	0	0	0	
0.251	0.00816355	-0.00177857	0.000205301	2.16019E-05	0	0	0	
0.251167	0.00108777	0.00230306	0.000218532	2.0837E-05	0	0	0	
0.251333	0.0425605	-0.00704037	0.000612445	7.87077E-05	0	0	0	
0.2515	-0.060094	0.0138008	0.000851092	0.000124692	0	0	0	
0.251667	0.00264275	-0.00221773	0.000894836	0.000163103	0	0	0	
0.251833	0.0054996	0.000677363	0.000459539	0.000109863	0	0	0	
0.252	-0.00208247	-0.00121017	0.000211404	6.68142E-05	0	0	0	
0.252167	-0.0114457	0.00210224	0.000126856	2.9003E-05	0	0	0	
0.252333	0.0483877	-0.00378985	0.000448059	5.98396E-05	0	0	0	
0.2525	-0.0215574	0.00352956	0.000669348	0.000103926	0	0	0	
0.252667	-0.0125882	0.00164695	0.000852221	0.000157857	0	0	0	
0.252833	0.00227512	0.000864125	0.000586431	0.000148571	0	0	0	
0.253	0.00210623	-0.0003675	0.000368761	0.000102587	0	0	0	
0.253167	-0.0043379	0.0015304	0.000148137	4.47988E-05	0	0	0	
0.253333	0.00432257	-0.00023333	9.57684E-05	3.00518E-05	0	0	0	
0.2535	0.00235899	-0.00194999	8.79399E-05	3.48979E-05	0	0	0	
0.253667	-0.0659585	0.0160859	0.000235488	7.95285E-05	0	0	0	
0.253833	0.00610548	0.000866941	0.00043009	0.000112102	0	0	0	
0.254	-0.00494671	-0.00106986	0.000422368	0.000107481	0	0	0	
0.254167	0.00121077	0.00243164	0.000306517	6.48409E-05	0	0	0	
0.254333	-0.000138395	-0.00113922	0.000151032	3.40595E-05	0	0	0	
0.2545	0.00268708	0.000273016	0.000163028	2.85617E-05	0	0	0	
0.254667	-0.0156724	0.00298503	0.000151613	2.98603E-05	0	0	0	
0.254833	-0.0257963	0.0082031	0.000351489	8.24497E-05	0	0	0	
0.255	0.00272187	-0.0015164	0.000392787	0.000109149	0	0	0	
0.255167	0.00146593	0.000369945	0.000366515	0.000105469	0	0	0	
0.255333	-0.00132773	-0.00015834	0.000144716	4.71704E-05	0	0	0	
0.2555	0.000627401	-0.000606791	9.2843E-05	3.18316E-05	0	0	0	
0.255667	-0.0024884	0.000571511	7.96794E-05	3.16591E-05	0	0	0	
0.255833	0.00619684	0.000860867	6.56938E-05	2.31607E-05	0	0	0	
0.256	-0.00537471	-0.000856407	7.01315E-05	2.05904E-05	0	0	0	
0.256167	0.00439632	0.000845197	9.66823E-05	2.3218E-05	0	0	0	
0.256333	-0.00254883	-0.000437097	0.000122328	2.73703E-05	0	0	0	
0.2565	0.00147545	-0.000140542	0.000144823	1.96267E-05	0	0	0	
0.256667	6.89157E-05	-0.000103703	0.000150312	1.55254E-05	0	0	0	
0.256833	0.0001288	0.00145091	0.000140072	1.69879E-05	0	0	0	
0.257	-0.000212062	-0.00149856	0.000126532	2.69152E-05	0	0	0	
0.257167	-0.000848126	0.000787663	0.000119295	3.18809E-05	0	0	0	
0.257333	0.000228944	-0.000456718	0.000113249	2.88187E-05	0	0	0	
0.2575	0.000524405	-0.000413466	0.000104005	2.11926E-05	0	0	0	
0.257667	-7.57242E-05	0.000114555	9.61532E-05	1.43348E-05	0	0	0	
0.257833	-5.99962E-05	0.00123727	9.21361E-05	1.89869E-05	0	0	0	
0.258	-0.000136119	-0.00110415	8.83166E-05	2.78053E-05	0	0	0	
0.258167	0.000214098	0.00109754	8.10785E-05	3.82688E-05	0	0	0	
0.258333	-0.00118057	-0.00171811	7.62972E-05	3.73271E-05	0	0	0	
0.2585	0.000660202	0.00233631	7.72912E-05	3.77746E-05	0	0	0	
0.258667	-0.000529016	-0.000462911	8.1568E-05	3.36438E-05	0	0	0	
0.258833	0.00113143	-0.000688853	8.11689E-05	2.75481E-05	0	0	0	
0.259	-0.000477639	0.000603954	7.56545E-05	2.01566E-05	0	0	0	
0.259167	-0.000488762	0.000447688	7.31153E-05	1.85382E-05	0	0	0	
0.259333	0.000566985	-0.00071526	7.82371E-05	1.84087E-05	0	0	0	
0.2595	-0.000498625	0.000503179	8.64239E-05	1.82082E-05	0	0	0	
0.259667	0.000839988	0.00138925	8.78429E-05	1.66163E-05	0	0	0	
0.259833	-0.000418079	-0.000579647	7.91913E-05	2.7827E-05	0	0	0	
0.26	0.000408613	-0.000626855	6.8026E-05	3.44535E-05	0	0	0	
0.260167	0.000465911	0.000687162	6.37351E-05	3.28344E-05	0	0	0	
0.260333	-0.00124302	-0.0011362	6.85315E-05	2.59742E-05	0	0	0	
0.2605	0.00152428	0.0027971	8.33124E-05	2.60372E-05	0	0	0	
0.260667	-0.000332251	-0.00177375	0.000102508	3.82236E-05	0	0	0	
0.260833	-0.00106272	-0.000117295	0.000115931	3.48182E-05	0	0	0	
0.261	0.0012306	0.00126587	0.000113234	2.83209E-05	0	0	0	
0.261167	-0.000559803	0.000262349	0.00010023	1.45245E-05	0	0	0	
0.261333	0.000198879	-0.00174395	8.97353E-05	1.8588E-05	0	0	0	
0.2615	0.000722707	0.00205951	8.46312E-05	2.43748E-05	0	0	0	
0.261667	-9.41889E-05	0.000499656	7.87838E-05	3.19501E-05	0	0	0	
0.261833	-0.00078711	-0.00083445	7.88843E-05	3.64691E-05	0	0	0	
0.262	0.000802695	-0.000657636	8.60647E-05	4.21582E-05	0	0	0	
0.262167	-0.000450927	0.00229986	8.75916E-05	4.47266E-05	0	0	0	
0.262333	-0.000500607	-0.000990323	7.23438E-05	4.21701E-05	0	0	0	
0.2625	0.00140788	-0.000142223	5.39903E-05	2.71379E-05	0	0	0	
0.262667	-0.000409198	0.000475171	5.63951E-05	1.87113E-05	0	0	0	
0.262833	0.000128515	-0.000105804	8.38953E-05	1.32744E-05	0	0	0	
0.263	-0.000136869	2.26084E-06	0.000108664	1.40354E-05	0	0	0	
0.263167	0.000260002	-7.67202E-05	0.000115615	1.10894E-05	0	0	0	
0.263333	0.00135901	0.000963802	0.000113226	1.4699E-05	0	0	0	
0.2635	-0.00236645	-0.000433388	0.000112175	2.07517E-05	0	0	0	
0.263667	0.000911847	-8.947E-05	0.000103293	3.25248E-05	0	0	0	
0.263833	0.00172548	0.00085093	8.72895E-05	2.94951E-05	0	0	0	
0.264	0.000844402	-0.000612287	8.96334E-05	2.9247E-05	0	0	0	
0.264167	-0.00286139	-0.00110682	0.000105221	3.1705E-05	0	0	0	
0.264333	0.000950631	-0.000932311	0.000100842	9.1503E-05	0	0	0	
0.2645	0.0013056	0.000239359	6.9163E-05	0.000173974	0	0	0	
0.264667	-0.00156261	-0.00236691	5.90472E-05	0.000214365	0	0	0	
0.264833	0.000957846	0.00588365	7.2516E-05	0.000172035	0	0	0	
0.265	-0.00137504	-0.00359049	8.60799E-05	0.000116322	0	0	0	
0.265167	0.00209633	-0.00135493	8.6592E-05	8.37562E-05	0	0	0	
0.265333	9.17634E-06	0.00734584	9.25201E-05	8.31029E-05	0	0	0	
0.2655	-0.000140839	-0.0133204	0.000101806	0.000119598	0	0	0	
0.265667	-0.000702164	0.00599214	9.32217E-05	0.000166501	0	0	0	
0.265833	0.000623513	0.00352329	7.75683E-05	0.000187521	0	0	0	
0.266	0.00017151	-0.00457375	6.94436E-05	0.000153314	0	0	0	
0.266167	0.000114925	0.0019116	7.08626E-05	9.95255E-05	0	0	0	
0.266333	0.000849148	0.000719499	7.32553E-05	6.42772E-05	0	0	0	
0.2665	-2.74201E-05	-0.00280845	7.36931E-05	4.35744E-05	0	0	0	
0.266667	-0.000414394	-0.000404289	7.16655E-05	5.43681E-05	0	0	0	
0.266833	0.000680979	0.00161614	7.14097E-05	7.87729E-05	0	0	0	
0.267	-0.000313756	-0.00231027	7.63029E-05	8.26951E-05	0	0	0	
0.267167	-0.00046611	0.000649247	8.84574E-05	6.30679E-05	0	0	0	
0.267333	0.00076447	-0.00116001	9.55924E-05	4.37456E-05	0	0	0	
0.2675	2.72878E-05	0.000302047	8.95401E-05	3.30319E-05	0	0	0	
0.267667	0.000211854	-0.000881152	7.37641E-05	3.34294E-05	0	0	0	
0.267833	-0.000723472	-0.00095329	6.24425E-05	2.56245E-05	0	0	0	
0.268	0.000500321	0.000120563	6.46415E-05	2.20934E-05	0	0	0	
0.268167	0.000435294	0.000213622	7.5581E-05	2.18107E-05	0	0	0	
0.268333	-0.000444783	-0.000772848	8.75302E-05	2.55119E-05	0	0	0	
0.2685	0.000469921	-0.000268506	9.81839E-05	3.21272E-05	0	0	0	
0.268667	0.000535235	-0.000178823	0.000103877	4.51922E-05	0	0	0	
0.268833	-0.000988024	0.00213905	9.92959E-05	4.79813E-05	0	0	0	
0.269	-0.00112155	-0.00166888	8.80274E-05	4.93931E-05	0	0	0	
0.269167	0.00265136	0.00173942	8.47071E-05	3.92756E-05	0	0	0	
0.269333	-0.000744618	-0.0010877	9.26476E-05	4.10813E-05	0	0	0	
0.2695	0.000536824	0.000362937	0.000103562	3.09328E-05	0	0	0	
0.269667	-9.3075E-06	-0.000344475	9.70485E-05	2.21876E-05	0	0	0	
0.269833	-0.000663927	0.000999199	8.42525E-05	1.80766E-05	0	0	0	
0.27	0.000924326	0.000212449	8.03365E-05	1.79906E-05	0	0	0	
0.270167	-0.00208184	-0.000488933	8.596E-05	1.92303E-05	0	0	0	
0.270333	0.00252162	0.000101663	8.8446E-05	2.44935E-05	0	0	0	
0.2705	9.52266E-05	0.00066759	8.48285E-05	4.60128E-05	0	0	0	
0.270667	0.000714561	-0.00208327	8.5271E-05	6.47299E-05	0	0	0	
0.270833	-0.000164102	0.00231652	8.95088E-05	6.22378E-05	0	0	0	
0.271	-0.000222637	-0.00104941	8.70567E-05	4.81191E-05	0	0	0	
0.271167	0.000676841	-0.000989232	8.43217E-05	3.22691E-05	0	0	0	
0.271333	-0.000279188	0.00112782	8.80388E-05	2.68633E-05	0	0	0	
0.2715	0.000961623	-0.00181016	9.68545E-05	3.09793E-05	0	0	0	
0.271667	-0.000937742	-0.000734993	9.71449E-05	3.80501E-05	0	0	0	
0.271833	0.00127116	0.00144496	9.03797E-05	4.18215E-05	0	0	0	
0.272	-0.00044551	-0.00250264	8.32402E-05	3.70345E-05	0	0	0	
0.272167	-0.000386223	0.00209118	8.10452E-05	3.86457E-05	0	0	0	
0.272333	0.000998023	-0.000944622	8.37946E-05	3.78476E-05	0	0	0	
0.2725	-0.000776429	0.000438213	9.32821E-05	2.91906E-05	0	0	0	
0.272667	0.00182124	-0.00112448	0.000105149	2.15234E-05	0	0	0	
0.272833	-0.00154217	0.000905413	0.000104972	2.43496E-05	0	0	0	
0.273	0.000968462	-0.000502337	8.53532E-05	2.8717E-05	0	0	0	
0.273167	-0.000232064	-0.00112947	5.85473E-05	3.01471E-05	0	0	0	
0.273333	-0.00235104	0.00219698	4.58812E-05	3.62129E-05	0	0	0	
0.2735	0.00333265	-0.000832629	5.78038E-05	4.7808E-05	0	0	0	
0.273667	-0.00232183	-0.000569166	8.0798E-05	5.67235E-05	0	0	0	
0.273833	0.000879683	0.00159134	0.000100053	5.08479E-05	0	0	0	
0.274	0.000852165	-0.000848353	0.000104863	3.4999E-05	0	0	0	
0.274167	-0.00108211	-0.000500709	0.0001009	2.71016E-05	0	0	0	
0.274333	0.000646804	0.00294546	8.5279E-05	2.41585E-05	0	0	0	
0.2745	-0.000725761	-0.00245733	6.61753E-05	4.14398E-05	0	0	0	
0.274667	-0.000225508	0.00145564	5.93289E-05	3.81079E-05	0	0	0	
0.274833	-0.000496042	-0.000367732	7.01915E-05	4.104E-05	0	0	0	
0.275	0.00103825	-0.00127644	8.89048E-05	3.68754E-05	0	0	0	
0.275167	-0.000999794	0.000341101	9.83763E-05	4.2431E-05	0	0	0	
0.275333	0.000775607	0.000265223	9.40913E-05	3.66006E-05	0	0	0	
0.2755	0.00034105	-0.000340391	8.33293E-05	3.34657E-05	0	0	0	
0.275667	-0.00237412	0.000606128	7.99054E-05	2.49714E-05	0	0	0	
0.275833	0.00158594	0.000466373	8.44474E-05	2.51615E-05	0	0	0	
0.276	-0.00151861	-0.000998376	9.1714E-05	2.27764E-05	0	0	0	
0.276167	0.00225775	0.000936542	9.54437E-05	2.82655E-05	0	0	0	
0.276333	-0.00187297	-0.00237021	9.99664E-05	3.11492E-05	0	0	0	
0.2765	0.00133681	0.00148065	0.000107197	3.60099E-05	0	0	0	
0.276667	-0.000944176	-0.000194685	0.000108826	3.58194E-05	0	0	0	
0.276833	-4.16691E-05	0.000128019	0.000102192	3.6888E-05	0	0	0	
0.277	-0.000105028	0.000494247	9.09165E-05	3.79667E-05	0	0	0	
0.277167	8.68169E-05	0.000478936	8.26199E-05	4.7696E-05	0	0	0	
0.277333	-0.000351309	-0.000545488	8.24917E-05	5.47381E-05	0	0	0	
0.2775	0.000693022	-0.000290219	8.88017E-05	5.42611E-05	0	0	0	
0.277667	-0.000386201	-0.000689666	9.38945E-05	5.26697E-05	0	0	0	
0.277833	0.000812004	0.00118827	9.35434E-05	5.30577E-05	0	0	0	
0.278	-0.000773596	-0.000242598	9.25056E-05	4.59019E-05	0	0	0	
0.278167	-0.000371764	-0.000370655	9.48909E-05	3.36551E-05	0	0	0	
0.278333	0.000226448	0.00110884	9.49737E-05	2.2523E-05	0	0	0	
0.2785	0.0012436	-0.00113839	9.05516E-05	1.92855E-05	0	0	0	
0.278667	-0.00118651	0.000700416	8.79882E-05	2.6787E-05	0	0	0	
0.278833	0.00102505	-7.58473E-05	9.01459E-05	3.10417E-05	0	0	0	
0.279	-0.00117904	0.000211785	8.76382E-05	3.51563E-05	0	0	0	
0.279167	0.00161178	0.00037517	8.10466E-05	3.00997E-05	0	0	0	
0.279333	-0.00109547	-0.000264924	8.26235E-05	2.23697E-05	0	0	0	
0.2795	0.000830927	-0.00114497	9.9386E-05	1.61892E-05	0	0	0	
0.279667	-0.00159376	0.00264017	0.000120061	2.34101E-05	0	0	0	
0.279833	-7.61831E-05	-0.000983585	0.000128902	3.55472E-05	0	0	0	
0.28	0.00219927	-8.48219E-05	0.000118127	6.35639E-05	0	0	0	
0.280167	-0.00240705	0.00213218	8.90704E-05	8.39973E-05	0	0	0	
0.280333	0.000342564	-0.00161259	6.39684E-05	8.00136E-05	0	0	0	
0.2805	0.0016054	-0.00137554	7.31105E-05	7.3766E-05	0	0	0	
0.280667	-0.00512345	0.00366901	0.00010077	6.43384E-05	0	0	0	
0.280833	0.00891241	-0.00154716	0.000127434	6.77161E-05	0	0	0	
0.281	-0.00863144	0.000314076	0.000149759	5.81363E-05	0	0	0	
0.281167	0.00112795	0.000502601	0.000196651	5.68206E-05	0	0	0	
0.281333	0.00728951	-0.00161953	0.000256102	6.6493E-05	0	0	0	
0.2815	-0.0114613	0.00393846	0.000273696	6.47483E-05	0	0	0	
0.281667	0.00827614	-0.00225186	0.000251948	6.44067E-05	0	0	0	
0.281833	-0.00132922	-3.57838E-05	0.000174556	6.04491E-05	0	0	0	
0.282	-0.0100416	0.00240383	0.000142217	5.00758E-05	0	0	0	
0.282167	0.0179201	-0.00357799	0.000146287	5.94365E-05	0	0	0	
0.282333	0.0198276	-0.0055582	0.00052505	0.00013206	0	0	0	
0.2825	0.0973188	-0.0166879	0.00140473	0.000309142	0	0	0	
0.282667	-0.00215167	0.00351662	0.00168639	0.00033365	0	0	0	
0.282833	-0.0126687	-0.00225039	0.00136926	0.000264941	0	0	0	
0.283	-0.00387648	0.00396761	0.000484082	0.000104301	0	0	0	
0.283167	0.0146453	-0.00664847	0.000183157	7.5499E-05	0	0	0	
0.283333	0.0159012	0.0035521	0.000247758	9.60612E-05	0	0	0	
0.2835	-0.0196945	0.00196767	0.00041973	0.000142457	0	0	0	
0.283667	0.0197781	-0.00280749	0.000535018	0.000169147	0	0	0	
0.283833	-0.0138661	0.0022303	0.000486616	0.000142603	0	0	0	
0.284	0.00470494	-0.00104756	0.000328991	8.57296E-05	0	0	0	
0.284167	0.00142669	-0.000702929	0.000192306	4.56046E-05	0	0	0	
0.284333	-0.00528439	0.00795437	0.00011243	5.94039E-05	0	0	0	
0.2845	0.00149972	-0.0100652	9.77124E-05	0.000111116	0	0	0	
0.284667	0.000177208	0.00773246	8.40249E-05	0.000144905	0	0	0	
0.284833	0.00092693	-0.00315094	6.94485E-05	0.000161401	0	0	0	
0.285	-0.000846387	-0.000986861	4.20509E-05	0.000132693	0	0	0	
0.285167	0.00220442	0.000916172	3.30307E-05	9.14911E-05	0	0	0	
0.285333	-0.00253603	0.00225807	4.12116E-05	5.02631E-05	0	0	0	
0.2855	0.000880945	-0.000764496	7.06031E-05	2.98856E-05	0	0	0	
0.285667	0.00041115	-0.00132749	0.000116737	5.23809E-05	0	0	0	
0.285833	-0.00235775	0.000825174	0.000139225	7.52606E-05	0	0	0	
0.286	0.00132992	-0.000166737	0.000122785	7.4881E-05	0	0	0	
0.286167	-0.00022089	0.000515404	8.54769E-05	4.59525E-05	0	0	0	
0.286333	-0.00128422	-0.000200938	6.08729E-05	1.8714E-05	0	0	0	
0.2865	0.00117564	0.00159266	5.90735E-05	1.24897E-05	0	0	0	
0.286667	-0.00267875	-0.00055898	9.28357E-05	3.4208E-05	0	0	0	
0.286833	0.000948365	0.000271513	0.00013612	5.81111E-05	0	0	0	
0.287	-0.000243706	-0.000306021	0.000157772	6.359E-05	0	0	0	
0.287167	-0.000220017	-1.02165E-05	0.000139719	4.88243E-05	0	0	0	
0.287333	-0.000738605	0.000350746	9.82187E-05	3.17367E-05	0	0	0	
0.2875	0.00192378	-0.000217931	6.52594E-05	2.33349E-05	0	0	0	
0.287667	-0.0019925	0.00194482	6.0059E-05	2.98528E-05	0	0	0	
0.287833	-0.00200599	-0.00345768	8.33433E-05	4.48698E-05	0	0	0	
0.288	-0.000684328	0.00108642	0.000102518	6.0359E-05	0	0	0	
0.288167	0.0035614	0.00247482	9.87033E-05	5.88383E-05	0	0	0	
0.288333	-0.00253607	-0.0019018	8.80404E-05	4.68792E-05	0	0	0	
0.2885	-0.000526843	0.000359648	8.31834E-05	3.41069E-05	0	0	0	
0.288667	0.0026717	-0.000517099	7.97299E-05	2.66258E-05	0	0	0	
0.288833	-0.00148582	-0.000440906	7.7596E-05	3.25795E-05	0	0	0	
0.289	-0.0032147	-0.000896283	9.13418E-05	4.33016E-05	0	0	0	
0.289167	0.0010722	0.00243495	0.000104135	5.26911E-05	0	0	0	
0.289333	-0.000413863	-0.000883657	8.59174E-05	5.26378E-05	0	0	0	
0.2895	0.00156684	0.000254726	5.19827E-05	4.35345E-05	0	0	0	
0.289667	-0.00210796	0.000697846	2.99825E-05	3.01971E-05	0	0	0	
0.289833	0.00337662	-0.00249929	5.09956E-05	2.17364E-05	0	0	0	
0.29	-0.00364015	0.000911787	8.02627E-05	2.84358E-05	0	0	0	
0.290167	0.00150614	-0.0014228	0.000101982	4.03267E-05	0	0	0	
0.290333	0.000163192	0.00210932	9.87921E-05	4.61009E-05	0	0	0	
0.2905	-0.00144868	-0.000967569	7.66719E-05	4.21944E-05	0	0	0	
0.290667	0.000775255	0.000484184	5.43488E-05	3.22732E-05	0	0	0	
0.290833	-0.000186298	-0.00109646	3.199E-05	2.06545E-05	0	0	0	
0.291	-0.00481099	0.00159771	3.01795E-05	1.77963E-05	0	0	0	
0.291167	0.00584521	-0.00152693	4.00261E-05	3.04848E-05	0	0	0	
0.291333	-0.00401389	-0.000284506	8.23285E-05	3.58407E-05	0	0	0	
0.2915	0.000157228	0.000384531	0.000107011	3.08614E-05	0	0	0	
0.291667	0.000543767	-3.6654E-05	0.000104903	1.56232E-05	0	0	0	
0.291833	0.000569698	9.5384E-05	6.31801E-05	6.58719E-06	0	0	0	
0.292	-0.0038529	-0.000708916	4.15065E-05	6.66259E-06	0	0	0	
0.292167	0.00501098	0.000357166	6.07401E-05	1.15534E-05	0	0	0	
0.292333	-0.00324867	7.85696E-05	9.10779E-05	1.78105E-05	0	0	0	
0.2925	0.00209512	-4.41332E-05	0.000104378	1.9821E-05	0	0	0	
0.292667	-0.000817134	-0.000461758	8.06717E-05	1.72824E-05	0	0	0	
0.292833	0.00142642	0.000401882	5.76716E-05	1.53743E-05	0	0	0	
0.293	-0.00278309	-0.000354622	4.28022E-05	1.30191E-05	0	0	0	
0.293167	0.00346255	-0.00114847	4.98448E-05	1.39602E-05	0	0	0	
0.293333	-0.00493182	0.000172161	8.32016E-05	1.5375E-05	0	0	0	
0.2935	0.00352241	6.53118E-05	0.000116096	2.83491E-05	0	0	0	
0.293667	-0.00154455	-0.00113489	0.000131495	3.43874E-05	0	0	0	
0.293833	0.00111886	-0.000137889	0.000111681	3.08015E-05	0	0	0	
0.294	3.53376E-05	0.000606612	8.38688E-05	1.83408E-05	0	0	0	
0.294167	-0.00166103	-0.000451037	6.73445E-05	1.12E-05	0	0	0	
0.294333	0.00444905	-0.00147651	5.62795E-05	1.56353E-05	0	0	0	
0.2945	-0.00019916	0.000430528	4.93385E-05	2.27452E-05	0	0	0	
0.294667	-0.00255577	-0.00116448	3.82593E-05	2.31704E-05	0	0	0	
0.294833	0.0025452	0.00028584	3.79262E-05	2.01002E-05	0	0	0	
0.295	-0.00208965	4.763E-05	3.86649E-05	1.10937E-05	0	0	0	
0.295167	2.53375E-05	0.000142012	5.45172E-05	6.90125E-06	0	0	0	
0.295333	0.00816468	-0.00122966	9.82754E-05	7.46292E-06	0	0	0	
0.2955	-0.00273709	0.00186753	0.000168579	2.29238E-05	0	0	0	
0.295667	0.00158689	-0.00147851	0.000177843	4.40324E-05	0	0	0	
0.295833	0.00188239	0.00187734	0.00012888	5.02848E-05	0	0	0	
0.296	-0.00352081	-0.000414184	6.20241E-05	4.18256E-05	0	0	0	
0.296167	0.00291985	-0.00163189	5.35844E-05	2.91759E-05	0	0	0	
0.296333	-0.00174819	0.00304773	0.000100093	3.13546E-05	0	0	0	
0.2965	0.00236724	-0.00342767	0.000155634	4.84265E-05	0	0	0	
0.296667	0.00312264	0.00132011	0.000185791	5.93278E-05	0	0	0	
0.296833	-0.00430599	-0.00284117	0.000155578	5.80361E-05	0	0	0	
0.297	0.00318716	0.0026186	0.000119961	4.87151E-05	0	0	0	
0.297167	0.00390439	-0.000564616	0.000105109	4.61267E-05	0	0	0	
0.297333	-0.00679775	-0.00141407	0.000105077	3.75394E-05	0	0	0	
0.2975	0.00645406	0.00139477	0.000134089	3.07541E-05	0	0	0	
0.297667	-0.00322362	-0.00446275	0.00016429	4.13102E-05	0	0	0	
0.297833	3.06024E-05	0.000679389	0.000213903	5.11561E-05	0	0	0	
0.298	0.00527121	0.00128549	0.000222636	6.91812E-05	0	0	0	
0.298167	-0.00442012	-0.00236628	0.000199687	6.66701E-05	0	0	0	
0.298333	-0.000203688	0.00162281	0.000136888	6.52112E-05	0	0	0	
0.2985	0.00435219	-0.00221608	7.52802E-05	4.89857E-05	0	0	0	
0.298667	-0.00438544	0.00138469	6.16719E-05	4.04042E-05	0	0	0	
0.298833	0.00355323	-0.000276708	8.33817E-05	3.56033E-05	0	0	0	
0.299	-0.00333302	-0.00080857	0.000113621	2.86051E-05	0	0	0	
0.299167	0.00382195	0.00051289	0.000131201	1.96597E-05	0	0	0	
0.299333	-0.00244484	-0.000441061	0.000129545	1.36054E-05	0	0	0	
0.2995	0.00397913	0.00170979	0.000114214	1.73516E-05	0	0	0	
0.299667	-0.00270665	-0.00318762	0.000106901	2.81392E-05	0	0	0	
0.299833	0.000260858	0.00132951	0.000140506	4.36854E-05	0	0	0	
0.3	0.000252235	-0.000511828	0.000169593	4.68003E-05	0	0	0	
0.300167	0.00186451	8.56011E-05	0.000157349	4.08905E-05	0	0	0	
0.300333	-0.000941869	8.80905E-05	0.000109788	3.31506E-05	0	0	0	
0.3005	0.00233569	0.000274024	6.77547E-05	2.96963E-05	0	0	0	
0.300667	-0.00240611	-0.00137653	5.40578E-05	2.58917E-05	0	0	0	
0.300833	0.00701672	0.000132241	8.51838E-05	3.02013E-05	0	0	0	
0.301	-0.00571014	-3.95014E-05	0.00013537	4.01538E-05	0	0	0	
0.301167	0.00525141	0.000272112	0.000170824	5.70034E-05	0	0	0	
0.301333	-0.00331203	-8.71775E-05	0.000167419	5.91858E-05	0	0	0	
0.3015	0.00201597	-0.000741531	0.000132813	4.38452E-05	0	0	0	
0.301667	-0.00143724	0.00204339	9.25526E-05	2.5989E-05	0	0	0	
0.301833	0.00257773	-0.00184891	6.55195E-05	3.33992E-05	0	0	0	
0.302	-4.90939E-05	0.00197279	6.11748E-05	6.57403E-05	0	0	0	
0.302167	0.00128793	-0.000453241	6.75974E-05	8.86332E-05	0	0	0	
0.302333	-0.00347901	-1.36968E-05	6.41889E-05	8.87625E-05	0	0	0	
0.3025	0.00417981	0.00120139	6.13608E-05	6.45721E-05	0	0	0	
0.302667	-0.00103051	0.00040243	5.66333E-05	3.72803E-05	0	0	0	
0.302833	-0.00125212	-0.00298445	7.50251E-05	2.6002E-05	0	0	0	
0.303	-0.00150996	0.00604658	8.80944E-05	4.23109E-05	0	0	0	
0.303167	0.00359904	-0.0036902	0.000112585	6.70819E-05	0	0	0	
0.303333	1.34096E-05	0.00255003	0.000113835	7.90238E-05	0	0	0	
0.3035	-0.000428667	-0.000363598	9.81173E-05	6.09886E-05	0	0	0	
0.303667	-0.00179007	-7.6175E-05	6.22323E-05	3.77838E-05	0	0	0	
0.303833	0.00343588	-0.000726108	5.37671E-05	1.71376E-05	0	0	0	
0.304	-0.00297267	0.00120116	9.19469E-05	1.53624E-05	0	0	0	
0.304167	0.0033492	0.000819456	0.000137271	1.67359E-05	0	0	0	
0.304333	-0.00171066	0.000962868	0.000124971	2.93777E-05	0	0	0	
0.3045	0.00429168	-0.000901431	9.27634E-05	3.67125E-05	0	0	0	
0.304667	-0.00245604	6.99069E-05	7.27786E-05	3.68201E-05	0	0	0	
0.304833	0.00253913	0.000407066	8.02912E-05	2.47612E-05	0	0	0	
0.305	-0.00582541	-0.00117224	8.21115E-05	1.50044E-05	0	0	0	
0.305167	0.00609614	0.000647986	9.116E-05	1.78781E-05	0	0	0	
0.305333	-0.00378047	0.0016011	0.000102236	2.19689E-05	0	0	0	
0.3055	0.00178688	-0.00167291	0.00010227	3.42226E-05	0	0	0	
0.305667	-0.00150483	-3.37389E-05	8.38816E-05	3.57493E-05	0	0	0	
0.305833	0.00141229	-0.000238047	6.36835E-05	2.93197E-05	0	0	0	
0.306	-0.0021058	-0.000482384	4.72224E-05	1.76275E-05	0	0	0	
0.306167	0.00337633	-1.54488E-05	4.54372E-05	9.88916E-06	0	0	0	
0.306333	-0.00408145	0.000318926	5.80754E-05	1.07678E-05	0	0	0	
0.3065	0.00326317	-0.000626416	7.29549E-05	9.62224E-06	0	0	0	
0.306667	-0.00314472	-0.000201946	8.34623E-05	1.53682E-05	0	0	0	
0.306833	0.00113943	-5.04173E-05	8.15151E-05	2.00158E-05	0	0	0	
0.307	-0.00103781	-0.000296177	7.08032E-05	1.70169E-05	0	0	0	
0.307167	0.00190571	0.000465233	5.3537E-05	1.16314E-05	0	0	0	
0.307333	-0.00313722	-0.000178759	5.29207E-05	8.93887E-06	0	0	0	
0.3075	0.0034446	-0.00098088	5.86266E-05	1.60154E-05	0	0	0	
0.307667	-0.00217517	0.000280371	7.29719E-05	1.87704E-05	0	0	0	
0.307833	0.00117291	8.91472E-05	7.86271E-05	1.76883E-05	0	0	0	
0.308	-0.000717248	-0.000150772	7.81754E-05	1.16756E-05	0	0	0	
0.308167	0.000673422	0.000313175	6.76826E-05	9.35726E-06	0	0	0	
0.308333	-0.0016628	-0.000816792	5.92842E-05	1.30236E-05	0	0	0	
0.3085	0.00320731	0.00111928	6.60276E-05	1.80121E-05	0	0	0	
0.308667	-0.00175035	-0.000678749	7.83457E-05	1.80222E-05	0	0	0	
0.308833	0.0013037	-7.93016E-05	8.2132E-05	1.6907E-05	0	0	0	
0.309	-0.00107462	4.87489E-05	6.92527E-05	1.27333E-05	0	0	0	
0.309167	0.00149889	8.75966E-05	5.43947E-05	1.12286E-05	0	0	0	
0.309333	1.7273E-05	0.000635542	5.10723E-05	9.08349E-06	0	0	0	
0.3095	-0.0009722	2.26135E-05	6.25917E-05	9.69513E-06	0	0	0	
0.309667	0.00217574	-0.000134318	6.90479E-05	1.25067E-05	0	0	0	
0.309833	-0.000188572	0.000729767	6.69299E-05	1.13874E-05	0	0	0	
0.31	-0.00112604	-0.000532993	5.67673E-05	1.20892E-05	0	0	0	
0.310167	0.000904229	-6.57333E-05	5.08136E-05	9.55474E-06	0	0	0	
0.310333	-0.00137418	0.000482282	4.55224E-05	9.87395E-06	0	0	0	
0.3105	0.00352715	-0.000972737	5.33648E-05	1.07825E-05	0	0	0	
0.310667	-0.00368382	-0.00147685	8.44987E-05	1.68419E-05	0	0	0	
0.310833	0.00165284	0.00151805	0.000124169	2.80405E-05	0	0	0	
0.311	0.00101678	0.000315878	0.000144141	2.80584E-05	0	0	0	
0.311167	-0.000955195	-0.000923315	0.000118937	2.427E-05	0	0	0	
0.311333	0.000758822	0.000638408	7.74148E-05	1.47738E-05	0	0	0	
0.3115	-0.00167249	0.000216912	4.1333E-05	1.44843E-05	0	0	0	
0.311667	-0.00158447	-0.00341509	2.89682E-05	2.1325E-05	0	0	0	
0.311833	0.00641151	0.00186274	3.77877E-05	3.50509E-05	0	0	0	
0.312	-0.00227248	0.000924891	7.59143E-05	4.25723E-05	0	0	0	
0.312167	-0.000609229	-0.000948671	0.000127339	4.53051E-05	0	0	0	
0.312333	-0.000974095	-0.000110152	0.000133541	3.18214E-05	0	0	0	
0.3125	0.0014598	0.000367724	0.0001119	2.20664E-05	0	0	0	
0.312667	-0.00123305	-0.00221994	0.000118143	2.05787E-05	0	0	0	
0.312833	0.000889587	0.0026573	0.000139213	2.43639E-05	0	0	0	
0.313	-0.00396222	-0.00192933	0.000135028	4.0352E-05	0	0	0	
0.313167	0.00743271	-0.000747492	9.95757E-05	3.91645E-05	0	0	0	
0.313333	-0.00253437	0.00128047	9.98007E-05	3.98258E-05	0	0	0	
0.3135	0.00303135	-0.000135927	0.000102299	3.42056E-05	0	0	0	
0.313667	-0.0130306	-0.00550605	0.000117702	4.74012E-05	0	0	0	
0.313833	0.00879958	0.00387273	0.00013722	8.14124E-05	0	0	0	
0.314	-0.00266526	-0.00197021	0.000184982	0.000105048	0	0	0	
0.314167	-0.00128897	0.000940187	0.000194064	8.76987E-05	0	0	0	
0.314333	0.000404141	-0.000332898	0.000155153	6.03327E-05	0	0	0	
0.3145	-0.000783981	-0.00207731	0.000101407	3.8837E-05	0	0	0	
0.314667	-0.000637643	0.00121804	4.96678E-05	4.02775E-05	0	0	0	
