0	0.0074869	-0.000357527	7.4869E-07	3.57527E-08	0	5	0	
0.000166667	-0.028653	0.00211705	8.16577E-05	7.08497E-06	0	5	0	
0.000333333	0.0398694	-0.00288264	0.000329886	2.23527E-05	0	5	0	
0.0005	-0.0363731	0.0024984	0.000649281	4.12794E-05	0	5	0	
0.000666667	0.0337996	-0.00231227	0.000905264	5.60849E-05	0	5	0	
0.000833333	-0.0315036	0.00194308	0.000966585	5.79401E-05	0	5	0	
0.001	0.0337148	-0.00181563	0.000932656	5.25397E-05	0	5	0	
0.00116667	-0.0437742	0.00242318	0.000898724	4.351E-05	0	5	0	
0.00133333	0.0634411	-0.00447974	0.000991102	4.96057E-05	0	5	0	
0.0015	-0.0739852	0.00590501	0.0011575	6.76792E-05	0	5	0	
0.00166667	0.0826352	-0.00644325	0.00136461	9.36506E-05	0	5	0	
0.00183333	-0.0841165	0.00297581	0.00152705	0.000108152	0	5	0	
0.002	0.0763555	0.0020644	0.0016141	0.000106407	0	5	0	
0.00216667	-0.0737621	-0.000285842	0.00161944	9.60502E-05	0	5	0	
0.00233333	0.0709448	-0.012674	0.00155671	0.000156866	0	5	0	
0.0025	-0.0680942	0.020536	0.0014857	0.000239044	0	5	0	
0.00266667	0.0753523	-0.0117561	0.00144128	0.000315407	0	5	0	
0.00283333	-0.083939	-0.00284492	0.00147432	0.000343593	0	5	0	
0.003	0.0856315	0.0075169	0.00157059	0.000294491	0	5	0	
0.00316667	-0.08194	-0.00140087	0.00166654	0.00023076	0	5	0	
0.00333333	0.0784057	-0.0073302	0.0017022	0.000183533	0	5	0	
0.0035	-0.0648843	0.0107482	0.00166396	0.000192736	0	5	0	
0.00366667	0.0631734	-0.00887328	0.00153845	0.000207497	0	5	0	
0.00383333	-0.0757865	0.00602884	0.0014454	0.000178547	0	5	0	
0.004	0.0799679	-0.00369699	0.00142563	0.000150755	0	5	0	
0.00416667	-0.0798706	0.000967706	0.00151893	0.000123216	0	5	0	
0.00433333	0.0806681	-0.00157942	0.00156887	8.71175E-05	0	5	0	
0.0045	-0.0779343	0.00799589	0.00160062	8.53661E-05	0	5	0	
0.00466667	0.0747926	-0.0101739	0.00158341	0.000109889	0	5	0	
0.00483333	-0.0759975	0.00331954	0.00157952	0.000159207	0	5	0	
0.005	0.0750836	0.00287098	0.00154686	0.000159762	0	5	0	
0.00516667	-0.075278	0.000696801	0.00153565	0.000133504	0	5	0	
0.00533333	0.074953	-0.00802152	0.00150891	0.000125281	0	5	0	
0.0055	-0.0763594	0.0108035	0.00151518	0.000137302	0	5	0	
0.00566667	0.077595	-0.00623199	0.00151185	0.000170929	0	5	0	
0.00583333	-0.0800382	0.000150464	0.0015474	0.000165786	0	5	0	
0.006	0.0760278	0.000384287	0.00154898	0.000116196	0	5	0	
0.00616667	-0.0775485	0.00461235	0.00155693	9.14994E-05	0	5	0	
0.00633333	0.0790925	-0.00667025	0.00155227	7.74699E-05	0	5	0	
0.0065	-0.0781007	0.00423378	0.0015654	0.000109021	0	5	0	
0.00666667	0.0747323	-0.00241935	0.00155739	9.55003E-05	0	5	0	
0.00683333	-0.0774374	0.00582384	0.00154552	8.6593E-05	0	5	0	
0.007	0.0748737	-0.00803481	0.00152421	9.29031E-05	0	5	0	
0.00716667	-0.082345	0.00619443	0.00152007	0.000118359	0	5	0	
0.00733333	0.0894713	-0.00327105	0.00157106	0.000130782	0	5	0	
0.0075	-0.0800725	0.00121738	0.00163257	0.000110825	0	5	0	
0.00766667	0.0721648	-0.000879786	0.00164425	7.34614E-05	0	5	0	
0.00783333	-0.0733956	0.0027552	0.00157832	4.70341E-05	0	5	0	
0.008	0.0711557	-0.00502893	0.00148837	5.07818E-05	0	5	0	
0.00816667	-0.0763493	0.00788964	0.00145192	8.25636E-05	0	5	0	
0.00833333	0.0841188	-0.00706646	0.00147587	0.000113738	0	5	0	
0.0085	-0.0844538	0.0049024	0.00153592	0.000129647	0	5	0	
0.00866667	0.082896	-0.00281666	0.00161632	0.000119779	0	5	0	
0.00883333	-0.0752736	0.00334999	0.00161585	9.99288E-05	0	5	0	
0.009	0.0747468	-0.00460967	0.00157457	8.46044E-05	0	5	0	
0.00916667	-0.0769415	0.00615596	0.00152756	8.67059E-05	0	5	0	
0.00933333	0.0778387	-0.00482854	0.00151787	9.61623E-05	0	5	0	
0.0095	-0.077626	0.00429866	0.00151915	9.68148E-05	0	5	0	
0.00966667	0.0817925	-0.00413857	0.00153407	9.13082E-05	0	5	0	
0.00983333	-0.0759832	0.00381214	0.00153797	8.24809E-05	0	5	0	
0.01	0.0786389	-0.0042115	0.00154643	7.90068E-05	0	5	0	
0.0101667	-0.0806555	0.00410091	0.0015529	7.77206E-05	0	5	0	
0.0103333	0.0805482	-0.00487504	0.00155834	8.03739E-05	0	5	0	
0.0105	-0.0778755	0.0051655	0.00156939	8.7538E-05	0	5	0	
0.0106667	0.0781957	-0.00429832	0.00154954	9.17536E-05	0	5	0	
0.0108333	-0.0787993	0.00393101	0.00153658	9.01019E-05	0	5	0	
0.011	0.0832692	-0.0043194	0.00155054	8.42309E-05	0	5	0	
0.0111667	-0.0807201	0.00468042	0.00157348	8.35663E-05	0	5	0	
0.0113333	0.0798547	-0.00521246	0.00158327	8.648E-05	0	5	0	
0.0115	-0.0807151	0.00469112	0.00157409	9.14901E-05	0	5	0	
0.0116667	0.0809282	-0.00420997	0.00156742	8.95748E-05	0	5	0	
0.0118333	-0.0784961	0.00468803	0.00155926	8.93922E-05	0	5	0	
0.012	0.0813072	-0.00523631	0.00155737	9.10999E-05	0	5	0	
0.0121667	-0.0804893	0.00409076	0.00156789	9.19157E-05	0	5	0	
0.0123333	0.0799489	-0.00379798	0.00157544	8.70323E-05	0	5	0	
0.0125	-0.0798386	0.00439825	0.0015709	8.08857E-05	0	5	0	
0.0126667	0.0814295	-0.00407479	0.00155776	7.83363E-05	0	5	0	
0.0128333	-0.0816353	0.00383108	0.0015656	8.11257E-05	0	5	0	
0.013	0.0811071	-0.00491286	0.00157835	8.17615E-05	0	5	0	
0.0131667	-0.0781507	0.00541685	0.00156251	8.74221E-05	0	5	0	
0.0133333	0.0833101	-0.00599141	0.00155669	9.58554E-05	0	5	0	
0.0135	-0.0822747	0.00506344	0.00157356	0.000104165	0	5	0	
0.0136667	0.0795768	-0.00323212	0.0015803	9.89313E-05	0	5	0	
0.0138333	-0.08296	0.00306769	0.00157941	8.36625E-05	0	5	0	
0.014	0.0838891	-0.00416521	0.00158281	7.22059E-05	0	5	0	
0.0141667	-0.0776322	0.00479921	0.00158687	7.57587E-05	0	5	0	
0.0143333	0.0829914	-0.00505515	0.00157272	8.64695E-05	0	5	0	
0.0145	-0.0823449	0.00554989	0.00156683	9.59738E-05	0	5	0	
0.0146667	0.0781897	-0.0055343	0.00155897	9.9139E-05	0	5	0	
0.0148333	-0.0783127	0.00475719	0.00155316	0.000100241	0	5	0	
0.015	0.0813768	-0.00386688	0.0015244	9.61852E-05	0	5	0	
0.0151667	-0.0802907	0.00347493	0.00154244	8.66949E-05	0	5	0	
0.0153333	0.0795612	-0.00509502	0.00154798	8.05302E-05	0	5	0	
0.0155	-0.080099	0.00652295	0.00154809	8.82604E-05	0	5	0	
0.0156667	0.0820004	-0.00545738	0.00153566	0.000103069	0	5	0	
0.0158333	-0.0816281	0.0041945	0.00155713	0.000106707	0	5	0	
0.016	0.0827769	-0.00461281	0.00156319	9.83046E-05	0	5	0	
0.0161667	-0.0828941	0.00443072	0.00159193	8.64622E-05	0	5	0	
0.0163333	0.0799149	-0.00460305	0.00158243	8.61968E-05	0	5	0	
0.0165	-0.0800806	0.00617963	0.00157788	9.37056E-05	0	5	0	
0.0166667	0.0828874	-0.00624082	0.00155357	0.00010886	0	5	0	
0.0168333	-0.0814522	0.00139245	0.00155784	0.000101505	0	5	0	
0.017	0.0788827	0.00189058	0.0015553	8.50669E-05	0	5	0	
0.0171667	-0.0773218	0.00197476	0.00154642	8.56898E-05	0	5	0	
0.0173333	0.0769235	-0.0147757	0.00151598	0.00016761	0	5	0	
0.0175	-0.0832392	0.0196925	0.00151422	0.00025068	0	5	0	
0.0176667	0.0905543	-0.00723468	0.00155922	0.000319152	0	5	0	
0.0178333	-0.0909315	-0.007524	0.00163401	0.000324547	0	5	0	
0.018	0.0888972	0.00674757	0.00169068	0.000261041	0	5	0	
0.0181667	-0.0821721	0.00314845	0.00169831	0.000218943	0	5	0	
0.0183333	0.0760694	-0.00870592	0.00164466	0.000179688	0	5	0	
0.0185	-0.0735194	0.00971806	0.00155765	0.000199889	0	5	0	
0.0186667	0.0798457	-0.00796583	0.00148489	0.000184672	0	5	0	
0.0188333	-0.0840532	0.0057138	0.00149869	0.000158138	0	5	0	
0.019	0.0866846	-0.0032521	0.00155631	0.00013155	0	5	0	
0.0191667	-0.0890702	0.00155267	0.00162348	9.4568E-05	0	5	0	
0.0193333	0.0861691	-0.00403678	0.00165614	8.377E-05	0	5	0	
0.0195	-0.0799466	0.00962193	0.00165155	0.000104769	0	5	0	
0.0196667	0.08004	-0.00901749	0.00159874	0.000141792	0	5	0	
0.0198333	-0.0843033	0.000602814	0.00157121	0.000169371	0	5	0	
0.02	0.0836273	0.00252071	0.00157047	0.000131275	0	5	0	
0.0201667	-0.08139	0.00419739	0.00158739	0.000132985	0	5	0	
0.0203333	0.0838871	-0.00999473	0.00158894	0.000136294	0	5	0	
0.0205	-0.0816991	0.00785529	0.00158595	0.000170442	0	5	0	
0.0206667	0.0833739	-0.00349828	0.00158292	0.000157599	0	5	0	
0.0208333	-0.0823631	0.00167805	0.00157903	0.000119702	0	5	0	
0.021	0.0819884	-0.00273898	0.00157586	9.13551E-05	0	5	0	
0.0211667	-0.0807512	0.00607048	0.00158087	8.50486E-05	0	5	0	
0.0213333	0.0859295	-0.00657584	0.00158133	9.76135E-05	0	5	0	
0.0215	-0.081729	0.00338743	0.00159168	0.000108881	0	5	0	
0.0216667	0.0829646	-0.00234993	0.00158049	9.18897E-05	0	5	0	
0.0218333	-0.0818072	0.00526235	0.00158397	8.35067E-05	0	5	0	
0.022	0.0843562	-0.00701952	0.00157439	9.2016E-05	0	5	0	
0.0221667	-0.0867323	0.00543071	0.00161191	0.00010937	0	5	0	
0.0223333	0.0879488	-0.00364659	0.00162719	0.000109172	0	5	0	
0.0225	-0.0801848	0.00329302	0.00163816	9.09763E-05	0	5	0	
0.0226667	0.0787206	-0.00303443	0.00159046	7.55469E-05	0	5	0	
0.0228333	-0.0808976	0.0030005	0.00155822	7.06877E-05	0	5	0	
0.023	0.0813311	-0.00528286	0.00153535	8.60285E-05	0	5	0	
0.0231667	-0.0819884	0.00674919	0.00156278	0.000105982	0	5	0	
0.0233333	0.0851136	-0.00591012	0.00157806	0.000119303	0	5	0	
0.0235	-0.0893592	0.00452125	0.00161585	0.000114575	0	5	0	
0.0236667	0.0860228	-0.00403007	0.00164648	0.000101439	0	5	0	
0.0238333	-0.0804994	0.00302845	0.00164348	8.80778E-05	0	5	0	
0.024	0.0836255	-0.00315292	0.00161221	7.56586E-05	0	5	0	
0.0241667	-0.0847304	0.00372131	0.00159145	7.0637E-05	0	5	0	
0.0243333	0.0820599	-0.00415212	0.00159609	7.12259E-05	0	5	0	
0.0245	-0.082187	0.004669	0.0015966	7.91119E-05	0	5	0	
0.0246667	0.0826753	-0.00526382	0.00158751	8.91904E-05	0	5	0	
0.0248333	-0.0795555	0.00454405	0.00157209	9.58657E-05	0	5	0	
0.025	0.0833023	-0.00353411	0.00156899	9.21274E-05	0	5	0	
0.0251667	-0.0813275	0.00494869	0.00157163	8.77509E-05	0	5	0	
0.0253333	0.0826229	-0.00654846	0.00157261	9.20721E-05	0	5	0	
0.0255	-0.081054	0.00482021	0.00157928	0.000102524	0	5	0	
0.0256667	0.0811456	-0.0024396	0.00155962	9.83751E-05	0	5	0	
0.0258333	-0.0814954	0.00322145	0.00156301	8.64239E-05	0	5	0	
0.026	0.081385	-0.00422115	0.00156117	8.05593E-05	0	5	0	
0.0261667	-0.0793994	0.00531767	0.00156297	8.65954E-05	0	5	0	
0.0263333	0.0812304	-0.00631247	0.00154712	9.95236E-05	0	5	0	
0.0265	-0.0821535	0.00539915	0.00155076	0.000108256	0	5	0	
0.0266667	0.0822537	-0.00301176	0.00156721	0.000106067	0	5	0	
0.0268333	-0.0819194	0.00329452	0.00158869	9.16104E-05	0	5	0	
0.027	0.0835124	-0.0042759	0.00159013	7.96964E-05	0	5	0	
0.0271667	-0.0810274	0.00483285	0.00159105	8.10083E-05	0	5	0	
0.0273333	0.0812987	-0.00445182	0.0015861	8.88541E-05	0	5	0	
0.0275	-0.0816549	0.00504326	0.00157529	9.30937E-05	0	5	0	
0.0276667	0.0861236	-0.00444276	0.00158233	9.67634E-05	0	5	0	
0.0278333	-0.0811814	0.00447909	0.00159935	9.7092E-05	0	5	0	
0.028	0.0822856	-0.0044814	0.00160182	9.62085E-05	0	5	0	
0.0281667	-0.0837833	0.00465811	0.00160604	9.03857E-05	0	5	0	
0.0283333	0.0829107	-0.00376631	0.00160304	8.8405E-05	0	5	0	
0.0285	-0.0803874	0.00459489	0.00160949	8.5613E-05	0	5	0	
0.0286667	0.0845685	-0.00528316	0.00159021	9.21499E-05	0	5	0	
0.0288333	-0.0825784	0.00455359	0.00159885	9.7543E-05	0	5	0	
0.029	0.0817119	-0.00357519	0.0015947	9.72371E-05	0	5	0	
0.0291667	-0.0825781	0.00384929	0.00160663	8.66485E-05	0	5	0	
0.0293333	0.0807562	-0.00417295	0.0015914	8.24345E-05	0	5	0	
0.0295	-0.0818911	0.00444574	0.00159579	8.53331E-05	0	5	0	
0.0296667	0.0818384	-0.00472864	0.00158862	9.1257E-05	0	5	0	
0.0298333	-0.080678	0.00464641	0.00158375	9.4991E-05	0	5	0	
0.03	0.082683	-0.00413548	0.0015836	9.40525E-05	0	5	0	
0.0301667	-0.0825691	0.00407031	0.00159045	8.95442E-05	0	5	0	
0.0303333	0.0799098	-0.00435966	0.00159178	8.33844E-05	0	5	0	
0.0305	-0.0809035	0.00411365	0.00158159	8.30382E-05	0	5	0	
0.0306667	0.0820523	-0.00382229	0.00157906	8.40934E-05	0	5	0	
0.0308333	-0.0813472	0.00339645	0.00158146	8.33775E-05	0	5	0	
0.031	0.0810791	-0.00455977	0.00159241	8.34405E-05	0	5	0	
0.0311667	-0.0822878	0.00651587	0.0015963	9.40698E-05	0	5	0	
0.0313333	0.0832284	-0.00498971	0.00161695	0.000104142	0	5	0	
0.0315	-0.0797689	-0.000997468	0.0016173	9.21493E-05	0	5	0	
0.0316667	0.0779698	0.000842488	0.00158812	7.8418E-05	0	5	0	
0.0318333	-0.0779227	0.00971103	0.00155746	0.000130559	0	5	0	
0.032	0.083766	-0.0187121	0.00156764	0.000201798	0	5	0	
0.0321667	-0.090458	0.00980431	0.00163261	0.000286323	0	5	0	
0.0323333	0.0885453	0.00716707	0.00170614	0.000328804	0	5	0	
0.0325	-0.0778131	-0.0119839	0.00170276	0.000288868	0	5	0	
0.0326667	0.0775534	0.00065837	0.00162328	0.000284375	0	5	0	
0.0328333	-0.0801439	0.010986	0.00155098	0.000267893	0	5	0	
0.033	0.0739832	-0.0159391	0.00152871	0.000308627	0	5	0	
0.0331667	-0.0744321	0.0130294	0.00152667	0.000292729	0	5	0	
0.0333333	0.0835695	-0.00486938	0.00154289	0.000253896	0	5	0	
0.0335	-0.0855955	-0.00309023	0.00160304	0.000217267	0	5	0	
0.0336667	0.0855704	0.0046526	0.00165835	0.000148391	0	5	0	
0.0338333	-0.0841137	0.00180277	0.00167455	0.000129033	0	5	0	
0.034	0.0807517	-0.0114298	0.00164939	0.000153499	0	5	0	
0.0341667	-0.0776826	0.0124574	0.00161489	0.000207138	0	5	0	
0.0343333	0.0810807	-0.0020029	0.00158468	0.000216	0	5	0	
0.0345	-0.0805072	-0.00661129	0.0015828	0.00018942	0	5	0	
0.0346667	0.0767346	0.000536038	0.00158559	0.00016194	0	5	0	
0.0348333	-0.0809549	0.00993666	0.00158771	0.000184919	0	5	0	
0.035	0.0808214	-0.0120808	0.00158424	0.000206234	0	5	0	
0.0351667	-0.0793256	0.00557619	0.00159737	0.000216442	0	5	0	
0.0353333	0.0801753	0.000614307	0.00159754	0.000162961	0	5	0	
0.0355	-0.0760127	-0.000921401	0.00157666	9.54273E-05	0	5	0	
0.0356667	0.0730851	-0.0040023	0.00154995	8.63517E-05	0	5	0	
0.0358333	-0.0805766	0.00819022	0.00152766	0.000106919	0	5	0	
0.036	0.0803942	-0.0064986	0.00156038	0.000147544	0	5	0	
0.0361667	-0.0761259	0.00185745	0.00158209	0.000128795	0	5	0	
0.0363333	0.0814121	-0.00121771	0.00159772	8.59481E-05	0	5	0	
0.0365	-0.0769865	0.00527983	0.00157764	7.71742E-05	0	5	0	
0.0366667	0.0762803	-0.00752713	0.00157455	9.74019E-05	0	5	0	
0.0368333	-0.0817406	0.00543416	0.00158633	0.000123277	0	5	0	
0.037	0.0828155	-0.00322935	0.00160766	0.000114345	0	5	0	
0.0371667	-0.0753565	0.00199559	0.00160736	8.50269E-05	0	5	0	
0.0373333	0.0752799	-0.000209468	0.00157676	5.70609E-05	0	0	0	
0.0375	-0.0733432	0.00131121	0.00152758	5.72891E-05	0	0	0	
0.0376667	0.0730579	-0.00636299	0.00150715	9.34873E-05	0	0	0	
0.0378333	-0.0737756	0.00897111	0.00151889	0.000135331	0	0	0	
0.038	0.0805754	-0.00489635	0.00155807	0.000152072	0	0	0	
0.0381667	-0.0842817	0.000538242	0.00161904	0.000122036	0	0	0	
0.0383333	0.0811166	-0.00225655	0.00166122	9.42615E-05	0	0	0	
0.0385	-0.0759601	0.00526924	0.00164649	9.33848E-05	0	0	0	
0.0386667	0.074795	-0.00547703	0.00160327	0.00010429	0	0	0	
0.0388333	-0.0769098	0.00495658	0.00155422	0.000110657	0	0	0	
0.039	0.0789959	-0.00417755	0.00155943	9.77393E-05	0	0	0	
0.0391667	-0.075373	0.00190983	0.00157992	8.21425E-05	0	0	0	
0.0393333	0.0757938	-0.00187512	0.00158638	7.29821E-05	0	0	0	
0.0395	-0.0731125	0.00317074	0.00156642	7.6068E-05	0	0	0	
0.0396667	0.0701233	-0.00407133	0.00153037	8.68799E-05	0	0	0	
0.0398333	-0.0758216	0.00496869	0.00151516	9.91224E-05	0	0	0	
0.04	0.079439	-0.00618749	0.00154697	0.000104532	0	0	0	
0.0401667	-0.0737326	0.00446477	0.00157717	0.000105957	0	0	0	
0.0403333	0.0771744	-0.0019427	0.0015956	9.35548E-05	0	0	0	
0.0405	-0.0784172	0.00218175	0.00158772	7.94092E-05	0	0	0	
0.0406667	0.0766009	-0.00537484	0.00158479	8.24066E-05	0	0	0	
0.0408333	-0.0775295	0.00548106	0.00160021	9.62641E-05	0	0	0	
0.041	0.074855	-0.00290729	0.00159387	9.76088E-05	0	0	0	
0.0411667	-0.0733783	0.00177295	0.001574	8.25116E-05	0	0	0	
0.0413333	0.0770583	-0.003612	0.00156714	7.98328E-05	0	0	0	
0.0415	-0.0766808	0.00489102	0.00156842	9.45006E-05	0	0	0	
0.0416667	0.0773804	-0.00489236	0.00160163	0.000104205	0	0	0	
0.0418333	-0.0759391	0.00370842	0.00161567	9.88487E-05	0	0	0	
0.042	0.07294	-0.00306528	0.00160344	8.51374E-05	0	0	0	
0.0421667	-0.0763307	0.00422066	0.0015775	8.82888E-05	0	0	0	
0.0423333	0.0773684	-0.00406775	0.00159443	9.50619E-05	0	0	0	
0.0425	-0.0724823	0.00330434	0.0015943	9.64101E-05	0	0	0	
0.0426667	0.0738893	-0.00383861	0.00159445	8.68329E-05	0	0	0	
0.0428333	-0.0753424	0.00471799	0.00155709	8.36756E-05	0	0	0	
0.043	0.073821	-0.00424315	0.00157134	9.22175E-05	0	0	0	
0.0431667	-0.0739631	0.00377473	0.00157145	0.000101606	0	0	0	
0.0433333	0.073542	-0.00341682	0.00158551	9.92352E-05	0	0	0	
0.0435	-0.0704941	0.00341083	0.00156595	9.05182E-05	0	0	0	
0.0436667	0.0774929	-0.00388537	0.00157843	8.61897E-05	0	0	0	
0.0438333	-0.076427	0.00476505	0.0015868	8.87246E-05	0	0	0	
0.044	0.0775946	-0.00363389	0.00160615	9.24765E-05	0	0	0	
0.0441667	-0.0697445	0.00236599	0.00160387	9.45575E-05	0	0	0	
0.0443333	0.0698426	-0.00319922	0.00154955	9.43952E-05	0	0	0	
0.0445	-0.0713152	0.00446014	0.00151195	9.26509E-05	0	0	0	
0.0446667	0.0717076	-0.0043402	0.00151199	9.46903E-05	0	0	0	
0.0448333	-0.0724945	0.00454259	0.00157385	9.35239E-05	0	0	0	
0.045	0.0761286	-0.00212644	0.00160916	8.5599E-05	0	0	0	
0.0451667	-0.0775648	-0.00101917	0.001622	6.75567E-05	0	0	0	
0.0453333	0.0718924	-0.00418161	0.0016106	9.80855E-05	0	0	0	
0.0455	-0.0756793	0.0138459	0.00161282	0.000147805	0	0	0	
0.0456667	0.0788229	-0.0079557	0.00164169	0.000208473	0	0	0	
0.0458333	-0.0714787	-0.0109234	0.00164657	0.000263202	0	0	0	
0.046	0.0698795	0.0131303	0.00159871	0.000257557	0	0	0	
0.0461667	-0.0749209	0.00522117	0.00153269	0.000341061	0	0	0	
0.0463333	0.0684128	-0.0181107	0.00153687	0.000356621	0	0	0	
0.0465	-0.0627179	0.0145939	0.00155059	0.000384221	0	0	0	
0.0466667	0.0750978	-0.00657819	0.00157888	0.000305526	0	0	0	
0.0468333	-0.0785174	-0.00257802	0.00163031	0.000239003	0	0	0	
0.047	0.078504	0.00791384	0.00169334	0.000177365	0	0	0	
0.0471667	-0.078668	-0.00244733	0.0016861	0.000146219	0	0	0	
0.0473333	0.0685104	-0.00597695	0.00162402	0.000162042	0	0	0	
0.0475	-0.0615889	0.0108317	0.00154571	0.000203002	0	0	0	
0.0476667	0.0702454	-0.0101102	0.00152735	0.000216884	0	0	0	
0.0478333	-0.0716297	0.00216752	0.00154276	0.000182437	0	0	0	
0.048	0.0724216	0.00599052	0.00160451	0.000155661	0	0	0	
0.0481667	-0.0720478	-0.00242964	0.00163582	0.000137688	0	0	0	
0.0483333	0.07345	-0.010537	0.00162517	0.000205302	0	0	0	
0.0485	-0.0739599	0.0140089	0.00161751	0.000240783	0	0	0	
0.0486667	0.0692296	-0.00461958	0.00162722	0.000262054	0	0	0	
0.0488333	-0.0690507	-0.00360643	0.00160967	0.000184901	0	0	0	
0.049	0.0750354	-2.05029E-05	0.00161171	0.000139492	0	0	0	
0.0491667	-0.0726376	0.00545345	0.00162404	0.000136678	0	0	0	
0.0493333	0.0655716	-0.00814339	0.00163612	0.000153474	0	0	0	
0.0495	-0.0656518	0.00675592	0.00159879	0.000162393	0	0	0	
0.0496667	0.072336	-0.00111251	0.00157311	0.00012449	0	0	0	
0.0498333	-0.0695034	-0.00181895	0.00158874	8.46753E-05	0	0	0	
0.05	0.0678386	-0.00277548	0.00161467	9.26304E-05	0	0	0	
0.0501667	-0.0688668	0.00769313	0.00162696	0.000128792	0	0	0	
0.0503333	0.0712395	-0.00664532	0.00164165	0.000161182	0	0	0	
0.0505	-0.0691894	0.00267626	0.00164658	0.00014056	0	0	0	
0.0506667	0.0662775	-4.73378E-05	0.00159638	0.000100482	0	0	0	
0.0508333	-0.0615614	0.000988714	0.00152257	8.67957E-05	0	0	0	
0.051	0.0632265	-0.00398873	0.00150036	8.72771E-05	0	0	0	
0.0511667	-0.064061	0.006329	0.00154053	0.000114154	0	0	0	
0.0513333	0.0650058	-0.00734214	0.00158416	0.000130961	0	0	0	
0.0515	-0.073187	0.00295762	0.00161974	0.000128155	0	0	0	
0.0516667	0.0751006	0.00230407	0.00166577	9.04176E-05	0	0	0	
0.0518333	-0.0668267	0.000614925	0.00165072	7.59322E-05	0	0	0	
0.052	0.064116	-0.00705528	0.00158509	0.000102639	0	0	0	
0.0521667	-0.0616318	0.00731325	0.00152495	0.000140759	0	0	0	
0.0523333	0.0634944	-0.00392026	0.00153532	0.000141697	0	0	0	
0.0525	-0.0639845	0.0020756	0.00157067	0.000105595	0	0	0	
0.0526667	0.0630285	-0.00160841	0.00158369	7.56877E-05	0	0	0	
0.0528333	-0.0623782	0.00210113	0.00157949	6.24462E-05	0	0	0	
0.053	0.0651359	-0.0046125	0.00157731	7.99198E-05	0	0	0	
0.0531667	-0.0647801	0.00504513	0.00157459	0.000101901	0	0	0	
0.0533333	0.0657216	-0.00343958	0.00159367	0.000113328	0	0	0	
0.0535	-0.0661383	0.00350123	0.00162042	0.000103069	0	0	0	
0.0536667	0.0625969	-0.00355498	0.00160614	8.7461E-05	0	0	0	
0.0538333	-0.0629355	0.00056212	0.00154865	7.14083E-05	0	0	0	
0.054	0.0643878	-0.00172249	0.00151121	7.4611E-05	0	0	0	
0.0541667	-0.0617187	0.00528621	0.00151398	0.000100196	0	0	0	
0.0543333	0.0631236	-0.00440437	0.00154721	0.00011853	0	0	0	
0.0545	-0.0663276	0.000723911	0.00157701	0.000100438	0	0	0	
0.0546667	0.063473	-0.000553667	0.00160479	6.31515E-05	0	0	0	
0.0548333	-0.0647441	0.00299117	0.00160591	6.02273E-05	0	0	0	
0.055	0.065999	-0.00418118	0.0016103	8.3129E-05	0	0	0	
0.0551667	-0.0608508	0.00423418	0.00160477	0.000104576	0	0	0	
0.0553333	0.0638119	-0.00264887	0.00160212	0.000101157	0	0	0	
0.0555	-0.0656854	0.0027112	0.00159102	9.11184E-05	0	0	0	
0.0556667	0.0605079	-0.00328489	0.00159114	9.09778E-05	0	0	0	
0.0558333	-0.0603861	0.00493076	0.00159054	9.36682E-05	0	0	0	
0.056	0.0639986	-0.00412782	0.00158645	9.77895E-05	0	0	0	
0.0561667	-0.060582	0.0018116	0.00158109	8.43231E-05	0	0	0	
0.0563333	0.0609391	-0.00121428	0.00158803	8.24856E-05	0	0	0	
0.0565	-0.0625194	0.00439002	0.00158726	9.29482E-05	0	0	0	
0.0566667	0.0600029	-0.00428451	0.00157328	0.000112607	0	0	0	
0.0568333	-0.0595432	0.00290362	0.0015624	0.000109181	0	0	0	
0.057	0.0613821	-0.00172761	0.00156483	9.02941E-05	0	0	0	
0.0571667	-0.0609726	0.00366236	0.00158124	7.50494E-05	0	0	0	
0.0573333	0.0591298	-0.00459036	0.00159955	8.70213E-05	0	0	0	
0.0575	-0.0602526	0.0025014	0.00159602	9.97868E-05	0	0	0	
0.0576667	0.0595477	-0.00109501	0.00158569	9.88021E-05	0	0	0	
0.0578333	-0.0624992	0.0014962	0.00157778	8.51731E-05	0	0	0	
0.058	0.059657	-0.00128068	0.00159005	7.92195E-05	0	0	0	
0.0581667	-0.0588478	0.00285647	0.00158528	7.86671E-05	0	0	0	
0.0583333	0.060713	-0.00302957	0.00159488	8.32185E-05	0	0	0	
0.0585	-0.0614868	0.00158155	0.0016017	9.29448E-05	0	0	0	
0.0586667	0.0581648	-0.00309937	0.00161846	0.000108933	0	0	0	
0.0588333	-0.0615787	0.00422173	0.00161114	0.000108464	0	0	0	
0.059	0.0611412	-0.00166059	0.00161307	9.27693E-05	0	0	0	
0.0591667	-0.0556198	0.00179484	0.00159927	7.77184E-05	0	0	0	
0.0593333	0.0546191	-0.00460115	0.00159292	0.000103502	0	0	0	
0.0595	-0.0582505	0.00791229	0.00159794	0.000136395	0	0	0	
0.0596667	0.0645295	-0.0026138	0.00165278	0.000139522	0	0	0	
0.0598333	-0.0673453	-0.00894157	0.00171932	0.000143103	0	0	0	
0.06	0.0620117	0.0119207	0.00171073	0.000148563	0	0	0	
0.0601667	-0.0538963	6.43406E-05	0.00160737	0.000237318	0	0	0	
0.0603333	0.0484462	-0.0120464	0.00148843	0.000317864	0	0	0	
0.0605	-0.0475508	0.0132232	0.00145292	0.000348499	0	0	0	
0.0606667	0.05367	-0.00544772	0.00152778	0.000283031	0	0	0	
0.0608333	-0.0607581	-0.00138717	0.00164966	0.000193138	0	0	0	
0.061	0.0654684	0.00378825	0.00173499	0.000120834	0	0	0	
0.0611667	-0.0665845	-0.00116027	0.00174163	9.56428E-05	0	0	0	
0.0613333	0.0580539	-0.0021983	0.00168493	9.95234E-05	0	0	0	
0.0615	-0.0496395	0.0046769	0.00158732	0.000144196	0	0	0	
0.0616667	0.0512056	-0.00617229	0.00151615	0.000165897	0	0	0	
0.0618333	-0.0526466	0.00292181	0.00150358	0.000138962	0	0	0	
0.062	0.0576768	0.00285063	0.00155283	9.02064E-05	0	0	0	
0.0621667	-0.0574837	-0.00168906	0.00162077	8.58028E-05	0	0	0	
0.0623333	0.0518007	-0.00623827	0.00163308	0.000150493	0	0	0	
0.0625	-0.0531113	0.00829207	0.00160015	0.0002048	0	0	0	
0.0626667	0.055223	-0.00386169	0.00157223	0.000196215	0	0	0	
0.0628333	-0.0536894	-0.00194524	0.00157753	0.000127146	0	0	0	
0.063	0.0531985	0.00209634	0.00159966	7.68757E-05	0	0	0	
0.0631667	-0.0551421	0.00294144	0.00160468	0.000101952	0	0	0	
0.0633333	0.0515046	-0.00868331	0.00160913	0.000149561	0	0	0	
0.0635	-0.056258	0.00783135	0.00160532	0.000184937	0	0	0	
0.0636667	0.0566894	-0.0012259	0.00162034	0.00014917	0	0	0	
0.0638333	-0.0538029	-0.00188418	0.00160705	8.62699E-05	0	0	0	
0.064	0.0523654	-0.00160114	0.00160608	6.99561E-05	0	0	0	
0.0641667	-0.05156	0.00482291	0.001599	9.19263E-05	0	0	0	
0.0643333	0.0547332	-0.00309999	0.00162122	0.000120276	0	0	0	
0.0645	-0.054203	0.00223392	0.00162277	0.000109444	0	0	0	
0.0646667	0.0477464	-0.00245649	0.0015953	0.000106125	0	0	0	
0.0648333	-0.0444839	0.00341918	0.00156452	0.000117775	0	0	0	
0.065	0.0510567	-0.00386645	0.00159817	0.000127934	0	0	0	
0.0651667	-0.0547532	0.00426267	0.0016601	0.000120929	0	0	0	
0.0653333	0.0558292	-0.00251783	0.00169275	9.86122E-05	0	0	0	
0.0655	-0.0574143	-0.000402963	0.00167589	6.69613E-05	0	0	0	
0.0656667	0.0531838	0.000649498	0.00164096	4.98523E-05	0	0	0	
0.0658333	-0.0463071	0.00279873	0.00158217	7.93862E-05	0	0	0	
0.066	0.0441471	-0.0038212	0.00153199	0.000127904	0	0	0	
0.0661667	-0.0456301	0.00255783	0.00152498	0.00013889	0	0	0	
0.0663333	0.0503735	-0.00147225	0.00158226	0.00010644	0	0	0	
0.0665	-0.0526156	0.00165415	0.00163563	7.93339E-05	0	0	0	
0.0666667	0.0528868	-0.00293531	0.00165765	7.12349E-05	0	0	0	
0.0668333	-0.0519044	0.00257417	0.00164817	7.44076E-05	0	0	0	
0.067	0.0495782	-0.0013372	0.00163801	8.21562E-05	0	0	0	
0.0671667	-0.0485285	0.00173653	0.00162731	9.33117E-05	0	0	0	
0.0673333	0.0523723	-0.00216291	0.0016338	9.0286E-05	0	0	0	
0.0675	-0.0484634	0.000496286	0.00163291	7.58358E-05	0	0	0	
0.0676667	0.0459314	-0.000529988	0.00160561	6.67681E-05	0	0	0	
0.0678333	-0.047781	0.0025612	0.00158428	8.39228E-05	0	0	0	
0.068	0.0444113	-0.0034894	0.00158937	0.000117439	0	0	0	
0.0681667	-0.0438201	0.00370672	0.00159448	0.000137225	0	0	0	
0.0683333	0.046897	-0.00101945	0.0016006	0.000118912	0	0	0	
0.0685	-0.0460778	-0.000188644	0.00159797	7.23042E-05	0	0	0	
0.0686667	0.0442803	0.00113779	0.00159652	5.17932E-05	0	0	0	
0.0688333	-0.0451046	0.00164133	0.00157758	6.37562E-05	0	0	0	
0.069	0.0431698	-0.00131249	0.00156965	9.06454E-05	0	0	0	
0.0691667	-0.0441733	0.0010558	0.00156204	0.000101783	0	0	0	
0.0693333	0.0459128	-0.00183068	0.00156493	9.95643E-05	0	0	0	
0.0695	-0.0441812	0.00275592	0.00155567	8.2905E-05	0	0	0	
0.0696667	0.0459721	-0.00200763	0.00157215	6.81504E-05	0	0	0	
0.0698333	-0.0453198	0.0022794	0.00158821	5.6682E-05	0	0	0	
0.07	0.044748	-0.00180534	0.00159913	6.12576E-05	0	0	0	
0.0701667	-0.0418407	0.000475936	0.00159598	6.58166E-05	0	0	0	
0.0703333	0.0439509	-0.000525789	0.00158626	8.36774E-05	0	0	0	
0.0705	-0.0446194	0.00333873	0.00158471	9.85825E-05	0	0	0	
0.0706667	0.0445132	-0.00321214	0.00160294	9.83628E-05	0	0	0	
0.0708333	-0.043288	0.00148444	0.00161844	8.1123E-05	0	0	0	
0.071	0.0458643	-0.00177456	0.00162055	7.57849E-05	0	0	0	
0.0711667	-0.0418864	0.00271025	0.00161956	9.58599E-05	0	0	0	
0.0713333	0.0420169	-0.0013269	0.00161008	0.000107931	0	0	0	
0.0715	-0.0453811	0.000165888	0.00159804	9.5067E-05	0	0	0	
0.0716667	0.040227	-0.00153559	0.00159567	8.24475E-05	0	0	0	
0.0718333	-0.0399011	0.00416973	0.0016097	8.78489E-05	0	0	0	
0.072	0.0463288	-0.00328513	0.00163662	9.55351E-05	0	0	0	
0.0721667	-0.0429109	-0.00275508	0.00163231	7.8575E-05	0	0	0	
0.0723333	0.0354574	0.0045382	0.00159711	8.23738E-05	0	0	0	
0.0725	-0.0354881	0.00370593	0.00155726	0.000153179	0	0	0	
0.0726667	0.0386041	-0.0154142	0.00157793	0.000245712	0	0	0	
0.0728333	-0.0449864	0.0136421	0.00166174	0.000286999	0	0	0	
0.073	0.0501118	0.00234538	0.00175575	0.000299929	0	0	0	
0.0731667	-0.0490043	-0.0131665	0.00176207	0.00025929	0	0	0	
0.0733333	0.0449781	0.00794715	0.00167372	0.000263545	0	0	0	
0.0735	-0.0295613	0.00374765	0.00152831	0.000284281	0	0	0	
0.0736667	0.0289682	-0.0110636	0.00142048	0.000317189	0	0	0	
0.0738333	-0.0320067	0.0103528	0.00146088	0.000303207	0	0	0	
0.074	0.0360254	-0.00567554	0.00160956	0.000220603	0	0	0	
0.0741667	-0.0424806	0.000953139	0.0017442	0.000142379	0	0	0	
0.0743333	0.0463198	0.00339755	0.00176344	7.80689E-05	0	0	0	
0.0745	-0.0400023	-0.00398239	0.00170725	6.59168E-05	0	0	0	
0.0746667	0.039878	-0.00258188	0.00162643	0.000120337	0	0	0	
0.0748333	-0.0352427	0.00711271	0.00157226	0.000182601	0	0	0	
0.075	0.0327472	-0.0017872	0.0015408	0.000171883	0	0	0	
0.0751667	-0.0379429	-0.0069697	0.00156946	0.000128028	0	0	0	
0.0753333	0.0349637	0.00628674	0.00160264	0.000105178	0	0	0	
0.0755	-0.0344872	0.00258061	0.00159881	0.000166919	0	0	0	
0.0756667	0.0352458	-0.0085729	0.00158525	0.000207627	0	0	0	
0.0758333	-0.0373596	0.00438645	0.00159213	0.000201743	0	0	0	
0.076	0.0369557	0.00310506	0.00162686	0.000139668	0	0	0	
0.0761667	-0.0380706	-0.0055126	0.00163419	9.10162E-05	0	0	0	
0.0763333	0.031921	0.00179886	0.00161351	0.000101915	0	0	0	
0.0765	-0.0354856	0.00473773	0.00158077	0.000139489	0	0	0	
0.0766667	0.0356559	-0.00367551	0.00158799	0.000152386	0	0	0	
0.0768333	-0.0340064	0.000872408	0.00159286	0.000113125	0	0	0	
0.077	0.0339086	0.00105197	0.00159389	6.9111E-05	0	0	0	
0.0771667	-0.0312859	0.00169147	0.00158725	7.2219E-05	0	0	0	
0.0773333	0.0341049	-0.00238146	0.00161184	9.50374E-05	0	0	0	
0.0775	-0.0417023	0.00191869	0.00165597	9.64159E-05	0	0	0	
0.0776667	0.0366997	0.000872473	0.00166169	7.37117E-05	0	0	0	
0.0778333	-0.0274618	-0.000372961	0.00158897	5.4797E-05	0	0	0	
0.078	0.0307514	-0.000400726	0.00151472	5.86512E-05	0	0	0	
0.0781667	-0.0294708	9.14683E-05	0.00151636	8.84749E-05	0	0	0	
0.0783333	0.025582	-0.00285823	0.00157829	0.000134361	0	0	0	
0.0785	-0.0309124	0.00565423	0.00164265	0.00015623	0	0	0	
0.0786667	0.0383825	-0.00341282	0.00167768	0.000136232	0	0	0	
0.0788333	-0.0359985	-0.000477395	0.00168263	8.28641E-05	0	0	0	
0.079	0.0303088	0.000777673	0.00163469	5.66105E-05	0	0	0	
0.0791667	-0.0285186	0.000216868	0.0015712	7.08036E-05	0	0	0	
0.0793333	0.0281092	0.000151632	0.00154917	9.63299E-05	0	0	0	
0.0795	-0.0276311	0.00114659	0.00156338	0.00011136	0	0	0	
0.0796667	0.0261227	-0.00346421	0.00157692	0.000112823	0	0	0	
0.0798333	-0.0280811	0.00279468	0.00158996	0.000115694	0	0	0	
0.08	0.0273877	-0.000972083	0.00161375	0.000105009	0	0	0	
0.0801667	-0.0304035	-0.000388001	0.00162165	8.80351E-05	0	0	0	
0.0803333	0.0312533	0.000256118	0.00163058	8.4206E-05	0	0	0	
0.0805	-0.0284889	0.00213085	0.00163798	9.89784E-05	0	0	0	
0.0806667	0.0237633	-0.0029959	0.00163002	0.000111543	0	0	0	
0.0808333	-0.0256998	0.00118859	0.0015998	0.00010408	0	0	0	
0.081	0.0247625	0.00110765	0.00159194	8.5835E-05	0	0	0	
0.0811667	-0.0258498	-0.000316996	0.0016002	8.38505E-05	0	0	0	
0.0813333	0.028641	-0.000942239	0.00160814	0.00010238	0	0	0	
0.0815	-0.0266446	0.00256664	0.00160543	0.000117479	0	0	0	
0.0816667	0.0213772	-0.000887603	0.00160027	0.000108907	0	0	0	
0.0818333	-0.0249446	-0.000133549	0.00158624	8.45386E-05	0	0	0	
0.082	0.0249197	0.000811312	0.0015847	7.50359E-05	0	0	0	
0.0821667	-0.0244254	-0.000184625	0.0015974	7.9951E-05	0	0	0	
0.0823333	0.0260875	0.000469247	0.00161047	8.77498E-05	0	0	0	
0.0825	-0.0267205	0.000565787	0.00159822	8.48184E-05	0	0	0	
0.0826667	0.0220822	0.000382687	0.00158594	8.34003E-05	0	0	0	
0.0828333	-0.0223442	0.00112847	0.00158212	9.05582E-05	0	0	0	
0.083	0.0241664	-0.00185622	0.00159311	9.57184E-05	0	0	0	
0.0831667	-0.0228509	0.000118898	0.00161313	8.64381E-05	0	0	0	
0.0833333	0.0227782	0.000356887	0.00162998	7.42529E-05	0	0	0	
0.0835	-0.022728	0.00212962	0.00162201	7.7508E-05	0	0	0	
0.0836667	0.0225318	-0.00183487	0.00159916	8.66458E-05	0	0	0	
0.0838333	-0.0238961	-0.00112289	0.00159241	8.13844E-05	0	0	0	
0.084	0.0192031	0.000226337	0.00160847	7.70125E-05	0	0	0	
0.0841667	-0.0172454	0.00357054	0.00162194	9.79269E-05	0	0	0	
0.0843333	0.0230199	-0.00369216	0.00162655	0.000113213	0	0	0	
0.0845	-0.0227273	-0.00420686	0.00161981	0.000108799	0	0	0	
0.0846667	0.0158021	0.00856837	0.00159149	9.68792E-05	0	0	0	
0.0848333	-0.0155979	0.00331171	0.00156204	0.000187346	0	0	0	
0.085	0.0177566	-0.0203968	0.00158849	0.000298725	0	0	0	
0.0851667	-0.0248405	0.0162017	0.001673	0.000364006	0	0	0	
0.0853333	0.0296819	0.006425	0.00174252	0.000398338	0	0	0	
0.0855	-0.0261824	-0.0204909	0.00173234	0.000364633	0	0	0	
0.0856667	0.0184353	0.0141617	0.00165788	0.000382356	0	0	0	
0.0858333	-0.0183757	0.00336329	0.00156073	0.000396084	0	0	0	
0.086	0.00999515	-0.0148408	0.00148489	0.000438578	0	0	0	
0.0861667	-0.0106851	0.0146627	0.00148009	0.000407697	0	0	0	
0.0863333	0.0147183	-0.00601433	0.00158771	0.000303046	0	0	0	
0.0865	-0.0204046	-0.00406017	0.00171846	0.000218127	0	0	0	
0.0866667	0.0214274	0.00994747	0.00177202	0.000167515	0	0	0	
0.0868333	-0.0215835	-0.0068952	0.00171195	0.000162619	0	0	0	
0.087	0.0200454	-0.00418729	0.0016199	0.000212137	0	0	0	
0.0871667	-0.0180083	0.0120871	0.00156356	0.000259345	0	0	0	
0.0873333	0.015021	-0.00388266	0.00154517	0.000243369	0	0	0	
0.0875	-0.0148907	-0.00979655	0.00153076	0.000212887	0	0	0	
0.0876667	0.014949	0.0110622	0.00152377	0.000187695	0	0	0	
0.0878333	-0.015786	0.00130373	0.0015434	0.000263363	0	0	0	
0.088	0.0158311	-0.010296	0.00158685	0.000286822	0	0	0	
0.0881667	-0.0195554	0.00638708	0.0016217	0.000272209	0	0	0	
0.0883333	0.0144772	0.00324725	0.0016295	0.000185159	0	0	0	
0.0885	-0.0150376	-0.00680509	0.00160709	0.00011248	0	0	0	
0.0886667	0.0123233	0.0023032	0.00159423	0.000125492	0	0	0	
0.0888333	-0.0118601	0.00329637	0.00159195	0.000165926	0	0	0	
0.089	0.014412	-0.00389534	0.00160141	0.000173705	0	0	0	
0.0891667	-0.0138287	-0.00143639	0.0016029	0.000121884	0	0	0	
0.0893333	0.0103582	0.00337002	0.00159028	6.74889E-05	0	0	0	
0.0895	-0.0116689	-0.000354968	0.00156729	8.11597E-05	0	0	0	
0.0896667	0.0109461	-0.00277325	0.00157153	0.000123319	0	0	0	
0.0898333	-0.012151	0.00244007	0.0016248	0.000131566	0	0	0	
0.09	0.020311	-0.000911559	0.00167297	9.20248E-05	0	0	0	
0.0901667	-0.0173493	-0.00120025	0.00165647	4.57089E-05	0	0	0	
0.0903333	0.00711435	0.00462951	0.00157829	3.07507E-05	0	0	0	
0.0905	-0.0106588	-0.00522309	0.00150316	6.57649E-05	0	0	0	
0.0906667	0.00899974	-0.000904089	0.00146875	0.000141595	0	0	0	
0.0908333	-0.000291667	0.00686841	0.0015027	0.000197153	0	0	0	
0.091	0.0105076	-0.00449771	0.00162237	0.000180833	0	0	0	
0.0911667	-0.0184847	-0.00134432	0.00174648	0.000135773	0	0	0	
0.0913333	0.0140443	0.00312459	0.00175985	7.67362E-05	0	0	0	
0.0915	-0.0117143	-0.00109383	0.00166561	9.07852E-05	0	0	0	
0.0916667	0.0134136	-0.000515378	0.00158353	0.000101379	0	0	0	
0.0918333	-0.0107605	0.00169694	0.00157021	0.000134572	0	0	0	
0.092	0.00944757	-0.00182721	0.00158712	0.000122833	0	0	0	
0.0921667	-0.0105421	-5.21445E-06	0.001603	8.81631E-05	0	0	0	
0.0923333	0.00498727	0.00231784	0.00162078	6.13059E-05	0	0	0	
0.0925	-0.00549532	-0.0022421	0.00163169	6.67736E-05	0	0	0	
0.0926667	0.00814985	0.00112412	0.00163389	0.000101528	0	0	0	
0.0928333	-0.00648748	0.00108808	0.00164644	0.000134365	0	0	0	
0.093	0.00455087	-0.00201282	0.00166563	0.000133157	0	0	0	
0.0931667	-0.00627555	0.00040241	0.00165386	9.33815E-05	0	0	0	
0.0933333	0.00281558	0.00405934	0.00161949	5.60909E-05	0	0	0	
0.0935	0.000353119	-0.00361822	0.00159191	5.64312E-05	0	0	0	
0.0936667	0.00627145	0.000488679	0.0015865	0.000109025	0	0	0	
0.0938333	-0.00393725	0.00334901	0.00159742	0.000154723	0	0	0	
0.094	0.00645852	-0.00225635	0.00161362	0.000151283	0	0	0	
0.0941667	-0.00722133	-8.99242E-05	0.00162765	9.99297E-05	0	0	0	
0.0943333	0.00809779	0.00234716	0.0016214	6.15555E-05	0	0	0	
0.0945	-0.00407454	-0.00125845	0.00159518	6.95114E-05	0	0	0	
0.0946667	0.00385145	-0.00058019	0.00156658	0.000102745	0	0	0	
0.0948333	-0.00159023	0.000733143	0.00156098	0.000119049	0	0	0	
0.095	0.00596296	0.00101842	0.00157876	0.000111639	0	0	0	
0.0951667	-0.00115821	-0.00121321	0.001604	9.76239E-05	0	0	0	
0.0953333	0.0032277	-0.000607541	0.00162433	9.32E-05	0	0	0	
0.0955	0.0039027	0.00160355	0.00166368	9.44685E-05	0	0	0	
0.0956667	0.00638412	0.00235013	0.0016923	7.70406E-05	0	0	0	
0.0958333	-0.00515753	-0.0081908	0.00167277	7.68766E-05	0	0	0	
0.096	-0.00341975	0.00157126	0.0016124	0.000130056	0	0	0	
0.0961667	0.00238527	0.0129469	0.00157267	0.000244134	0	0	0	
0.0963333	0.00479917	-0.00946571	0.00157167	0.000271585	0	0	0	
0.0965	0.000455045	-0.0153095	0.00155971	0.00033051	0	0	0	
0.0966667	-0.00554692	0.024492	0.00152263	0.000325436	0	0	0	
0.0968333	-0.00377713	-0.00620117	0.00151738	0.000430297	0	0	0	
0.097	0.00031182	-0.0128681	0.00156782	0.000471591	0	0	0	
0.0971667	0.00161363	0.0129279	0.00160394	0.00044981	0	0	0	
0.0973333	0.000134902	-0.00367009	0.0015931	0.000331888	0	0	0	
0.0975	-0.00173187	-0.0044577	0.00156972	0.000206741	0	0	0	
0.0976667	0.00226777	0.00920357	0.00157934	0.000163022	0	0	0	
0.0978333	-0.00152205	-0.00833547	0.00159357	0.000163798	0	0	0	
0.098	0.000270537	0.00396591	0.00158358	0.000188562	0	0	0	
0.0981667	0.00507747	0.00326851	0.0015702	0.000248282	0	0	0	
0.0983333	-0.00509596	-0.00704617	0.0015709	0.000266737	0	0	0	
0.0985	0.00436576	0.00232505	0.00158236	0.000219318	0	0	0	
0.0986667	-0.00593527	0.00791533	0.00159146	0.000172684	0	0	0	
0.0988333	0.00415668	-0.0100747	0.00159666	0.000163745	0	0	0	
0.099	-0.00520419	-0.00104761	0.00160058	0.000248231	0	0	0	
0.0991667	0.0012015	0.00920079	0.00159711	0.000280803	0	0	0	
0.0993333	-0.0041554	-0.00384903	0.00158392	0.000257377	0	0	0	
0.0995	0.00292755	-0.00690688	0.00157023	0.000190204	0	0	0	
0.0996667	-0.00542005	0.00760556	0.00157837	0.000133116	0	0	0	
0.0998333	0.00706334	-9.81147E-05	0.0015957	0.000186347	0	0	0	
0.1	-0.00652026	-0.00470632	0.0015996	0.00020487	0	0	0	
0.100167	-0.000755939	0.00154199	0.00158949	0.00018821	0	0	0	
0.100333	-0.00597575	0.00269173	0.00159494	0.000111314	0	0	0	
0.1005	0.0066308	-0.00414813	0.0016083	6.69159E-05	0	0	0	
0.100667	-0.00538771	0.00344797	0.00160879	8.48133E-05	0	0	0	
0.100833	0.00570169	6.07157E-05	0.00160139	0.000123219	0	0	0	
0.101	-0.00873573	-0.00225096	0.00161545	0.000135992	0	0	0	
0.101167	0.000471738	-0.000626983	0.00164711	0.000104335	0	0	0	
0.101333	-0.0031724	0.00462108	0.00164957	7.87159E-05	0	0	0	
0.1015	0.00886626	-0.00443222	0.00159688	6.03684E-05	0	0	0	
0.101667	-0.0122606	0.00500178	0.00154515	8.43832E-05	0	0	0	
0.101833	0.0118965	-0.00551521	0.00154282	0.000117565	0	0	0	
0.102	-0.0201303	-0.000441615	0.00159162	0.000167051	0	0	0	
0.102167	0.013039	0.00653229	0.00165994	0.000194954	0	0	0	
0.102333	-0.0040943	-0.00165627	0.00175332	0.000160741	0	0	0	
0.1025	0.00404828	-0.00715217	0.00178455	0.000134744	0	0	0	
0.102667	-0.0104317	0.00898877	0.00169876	0.000124618	0	0	0	
0.102833	0.0147013	-0.00225434	0.00157458	0.000191725	0	0	0	
0.103	-0.0135459	-0.00298377	0.00152223	0.000207658	0	0	0	
0.103167	0.0134495	0.00329653	0.0015317	0.000187467	0	0	0	
0.103333	-0.0163473	0.00102058	0.0015448	0.000112787	0	0	0	
0.1035	0.0144363	-0.00529522	0.00157412	7.00183E-05	0	0	0	
0.103667	-0.0114183	0.00968548	0.00160855	8.25783E-05	0	0	0	
0.103833	0.0148278	-0.00550498	0.00160623	0.000134395	0	0	0	
0.104	-0.0144008	-0.00138412	0.00159158	0.000188063	0	0	0	
0.104167	0.010099	0.00336367	0.00161296	0.000203455	0	0	0	
0.104333	-0.0124472	-7.39972E-05	0.00163647	0.000166048	0	0	0	
0.1045	0.0120005	-0.00397351	0.00162323	0.000108479	0	0	0	
0.104667	-0.0142316	0.00702424	0.0016069	7.84996E-05	0	0	0	
0.104833	0.0130341	-0.00306836	0.00160044	0.000109352	0	0	0	
0.105	-0.0145668	-0.00331747	0.00160077	0.000166291	0	0	0	
0.105167	0.01257	0.00244723	0.00159648	0.000178273	0	0	0	
0.105333	-0.0154595	0.00314457	0.00160022	0.000134199	0	0	0	
0.1055	0.0168682	-0.00444452	0.00159216	8.51313E-05	0	0	0	
0.105667	-0.0193989	0.00301026	0.00157417	8.69782E-05	0	0	0	
0.105833	0.0154029	-0.000399627	0.00155521	0.000126486	0	0	0	
0.106	-0.0161082	-0.000121759	0.00156408	0.00013998	0	0	0	
0.106167	0.0121486	-0.00189594	0.0015771	0.000116858	0	0	0	
0.106333	-0.0161943	0.0041652	0.00159278	9.22451E-05	0	0	0	
0.1065	0.0161923	-0.0029307	0.00158726	9.30548E-05	0	0	0	
0.106667	-0.014016	0.00127824	0.00157539	0.00012088	0	0	0	
0.106833	0.015019	-0.000884168	0.00156505	0.000124236	0	0	0	
0.107	-0.0182013	0.00342792	0.00155774	0.000106828	0	0	0	
0.107167	0.0169258	-0.00277998	0.00154771	9.04269E-05	0	0	0	
0.107333	-0.0145578	-0.00123569	0.00154539	0.000108237	0	0	0	
0.1075	0.0180048	0.00198588	0.00157202	0.00010763	0	0	0	
0.107667	-0.0153746	0.0073816	0.00160185	0.000117462	0	0	0	
0.107833	0.0182282	-0.016409	0.00159586	0.000136334	0	0	0	
0.108	-0.0231453	0.00972741	0.00154118	0.000226955	0	0	0	
0.108167	0.0247958	0.00744088	0.00151246	0.000357574	0	0	0	
0.108333	-0.0216509	-0.015312	0.0015562	0.00040703	0	0	0	
0.1085	0.0150186	0.00860886	0.00162582	0.000358929	0	0	0	
0.108667	-0.0171031	0.0044318	0.00164445	0.000270466	0	0	0	
0.108833	0.0201659	-0.0153853	0.00159625	0.00022527	0	0	0	
0.109	-0.0207562	0.0149288	0.00154558	0.000254039	0	0	0	
0.109167	0.0201668	-0.0049916	0.00151803	0.000284238	0	0	0	
0.109333	-0.0258516	-0.00391907	0.00151227	0.000320815	0	0	0	
0.1095	0.0223254	0.00565207	0.00151523	0.000285262	0	0	0	
0.109667	-0.0204861	-1.70838E-05	0.00155878	0.000183878	0	0	0	
0.109833	0.020336	-0.00800676	0.00160097	0.000103199	0	0	0	
0.11	-0.0234623	0.010914	0.00160303	0.000102282	0	0	0	
0.110167	0.0214052	-0.00336723	0.00155969	0.000171783	0	0	0	
0.110333	-0.0211144	-0.00651297	0.00154413	0.000235055	0	0	0	
0.1105	0.0217994	0.00627997	0.0015746	0.000219384	0	0	0	
0.110667	-0.0192411	0.00300262	0.0015968	0.000175978	0	0	0	
0.110833	0.0234325	-0.00965492	0.00158998	0.000122538	0	0	0	
0.111	-0.0239756	0.007303	0.00156921	0.000142196	0	0	0	
0.111167	0.0241853	0.000663426	0.00157893	0.000179389	0	0	0	
0.111333	-0.0264995	-0.00361788	0.00160593	0.000186341	0	0	0	
0.1115	0.0249846	-0.00119537	0.00162264	0.00013589	0	0	0	
0.111667	-0.0244996	0.00652062	0.00161916	8.2005E-05	0	0	0	
0.111833	0.0252222	-0.00584645	0.0016034	8.58875E-05	0	0	0	
0.112	-0.0254763	0.00124499	0.00160428	0.000135048	0	0	0	
0.112167	0.0239738	0.00159329	0.00160965	0.000151749	0	0	0	
0.112333	-0.0311748	0.00124597	0.00160772	0.000112564	0	0	0	
0.1125	0.0281813	-0.00486796	0.00157294	7.13613E-05	0	0	0	
0.112667	-0.0287327	0.00496617	0.00157226	7.58536E-05	0	0	0	
0.112833	0.0246964	0.000391203	0.00160685	0.000125506	0	0	0	
0.113	-0.0200794	-0.0030601	0.00163217	0.000133585	0	0	0	
0.113167	0.0245854	-0.00148301	0.0015968	0.000119798	0	0	0	
0.113333	-0.0329702	0.00873931	0.00154835	8.8299E-05	0	0	0	
0.1135	0.0326074	-0.00872183	0.00154487	0.000125457	0	0	0	
0.113667	-0.0310605	0.00274476	0.0015758	0.000154065	0	0	0	
0.113833	0.0311819	-0.000710912	0.00161737	0.000165605	0	0	0	
0.114	-0.0252214	-0.00155382	0.00165698	0.000131849	0	0	0	
0.114167	0.0208092	0.00285628	0.00166758	9.53227E-05	0	0	0	
0.114333	-0.0294811	0.000344835	0.00163611	6.78684E-05	0	0	0	
0.1145	0.0286156	-0.00520094	0.001584	5.81711E-05	0	0	0	
0.114667	-0.0305459	0.00476842	0.00156074	6.81247E-05	0	0	0	
0.114833	0.033098	-0.00219765	0.00155511	9.4854E-05	0	0	0	
0.115	-0.0328433	-1.27985E-05	0.00158198	0.000120812	0	0	0	
0.115167	0.0258987	0.000391675	0.00160492	0.00011344	0	0	0	
0.115333	-0.0313783	0.00262926	0.00161799	8.39285E-05	0	0	0	
0.1155	0.0330754	-0.00517943	0.00160399	6.65664E-05	0	0	0	
0.115667	-0.0340594	0.0035271	0.00162145	9.66587E-05	0	0	0	
0.115833	0.0317134	-9.03378E-05	0.00165334	0.000151067	0	0	0	
0.116	-0.0333726	8.78005E-05	0.00166457	0.000157616	0	0	0	
0.116167	0.0319941	-0.00373569	0.00162089	0.00011894	0	0	0	
0.116333	-0.0303519	0.00468198	0.0015773	8.31109E-05	0	0	0	
0.1165	0.0326751	-0.00271928	0.00157785	9.22846E-05	0	0	0	
0.116667	-0.0334715	0.00195198	0.00159252	0.000121589	0	0	0	
0.116833	0.0350991	-0.00261616	0.00159311	0.000126781	0	0	0	
0.117	-0.0331544	0.00394799	0.00158075	0.000118685	0	0	0	
0.117167	0.0328783	-0.0027451	0.00159235	0.000108952	0	0	0	
0.117333	-0.0336478	0.00165395	0.00161692	0.000105751	0	0	0	
0.1175	0.0350211	-0.00202768	0.00163096	9.14291E-05	0	0	0	
0.117667	-0.0364365	0.00366182	0.00163095	8.03876E-05	0	0	0	
0.117833	0.0364972	-0.00397552	0.00161444	8.4585E-05	0	0	0	
0.118	-0.0372076	0.00296929	0.00161849	0.000100687	0	0	0	
0.118167	0.035492	-0.00263619	0.00163754	0.000109481	0	0	0	
0.118333	-0.0395675	0.00329204	0.00168057	0.000103997	0	0	0	
0.1185	0.0340286	-0.00269002	0.00167289	9.78197E-05	0	0	0	
0.118667	-0.0367649	0.0021465	0.00164118	9.84115E-05	0	0	0	
0.118833	0.0384625	-0.00164301	0.00158426	9.60066E-05	0	0	0	
0.119	-0.040096	0.0018221	0.00156946	8.54261E-05	0	0	0	
0.119167	0.0402505	-0.00338702	0.00158327	7.66518E-05	0	0	0	
0.119333	-0.0390937	0.00400086	0.00161789	8.00609E-05	0	0	0	
0.1195	0.0365722	-0.00233405	0.00163601	9.17529E-05	0	0	0	
0.119667	-0.0355031	0.000929209	0.00162977	0.000101403	0	0	0	
0.119833	0.034727	-0.00238976	0.00159951	9.29695E-05	0	0	0	
0.12	-0.0375793	0.00524911	0.00157484	8.75351E-05	0	0	0	
0.120167	0.0413643	-0.00312747	0.00156486	9.38044E-05	0	0	0	
0.120333	-0.0415512	-0.00218874	0.00159591	0.000129135	0	0	0	
0.1205	0.033658	0.00320412	0.00163387	0.000122949	0	0	0	
0.120667	-0.0324392	0.00581045	0.00165004	0.000127976	0	0	0	
0.120833	0.0347027	-0.0170194	0.0015976	0.000144121	0	0	0	
0.121	-0.0433335	0.0164471	0.00154008	0.000229432	0	0	0	
0.121167	0.0476338	-0.00249263	0.00151876	0.000330489	0	0	0	
0.121333	-0.0496598	-0.0106549	0.00157867	0.000407557	0	0	0	
0.1215	0.0450664	0.0121178	0.00166528	0.000376884	0	0	0	
0.121667	-0.0401118	-0.00112964	0.00175564	0.000298349	0	0	0	
0.121833	0.0315332	-0.0123943	0.0017715	0.000236825	0	0	0	
0.122	-0.0342338	0.0145954	0.00170401	0.000240865	0	0	0	
0.122167	0.0388978	-0.00814365	0.00157307	0.000256091	0	0	0	
0.122333	-0.0451085	0.00453091	0.00150251	0.000245936	0	0	0	
0.1225	0.0416499	-0.000456284	0.00150265	0.000225748	0	0	0	
0.122667	-0.0488754	-0.001323	0.00157757	0.000183776	0	0	0	
0.122833	0.0430631	-0.00309481	0.001627	0.000117714	0	0	0	
0.123	-0.0402922	0.00827939	0.0016675	9.53223E-05	0	0	0	
0.123167	0.0419588	-0.00553536	0.00165696	0.000108184	0	0	0	
0.123333	-0.0433637	-0.000832607	0.00162101	0.000166896	0	0	0	
0.1235	0.0426593	0.00295784	0.00159338	0.000160052	0	0	0	
0.123667	-0.0457314	0.00255328	0.00160384	0.000123501	0	0	0	
0.123833	0.0443171	-0.00821309	0.00162658	8.48865E-05	0	0	0	
0.124	-0.0447228	0.00818558	0.00162563	0.00010623	0	0	0	
0.124167	0.0462268	-0.00155576	0.00160414	0.000155679	0	0	0	
0.124333	-0.042288	-0.00273852	0.00157827	0.000184389	0	0	0	
0.1245	0.0448103	-0.000725757	0.00158236	0.000142421	0	0	0	
0.124667	-0.0434973	0.0060018	0.00158066	9.7692E-05	0	0	0	
0.124833	0.0475849	-0.0052929	0.00158274	7.26473E-05	0	0	0	
0.125	-0.0471852	0.00203815	0.00157707	0.000113472	0	0	0	
0.125167	0.0448842	-0.00103179	0.00158048	0.000128041	0	0	0	
0.125333	-0.0448311	0.0026826	0.00159431	0.000115267	0	0	0	
0.1255	0.0496635	-0.00437274	0.00158723	9.21556E-05	0	0	0	
0.125667	-0.050357	0.00454975	0.00159556	8.64368E-05	0	0	0	
0.125833	0.0426662	-0.00391565	0.00161375	9.51162E-05	0	0	0	
0.126	-0.0396238	0.00387819	0.0016277	9.70901E-05	0	0	0	
0.126167	0.0403999	-0.00553627	0.00155379	9.63993E-05	0	0	0	
0.126333	-0.0534454	0.00625368	0.00150593	9.93891E-05	0	0	0	
0.1265	0.0548055	-0.00201412	0.00150891	0.000126464	0	0	0	
0.126667	-0.0542984	-0.00239846	0.00159702	0.000149698	0	0	0	
0.126833	0.0543317	-0.000870782	0.00167094	0.000122943	0	0	0	
0.127	-0.0467447	0.00709853	0.00171276	0.000108553	0	0	0	
0.127167	0.0401261	-0.0065491	0.00170102	9.20046E-05	0	0	0	
0.127333	-0.0473194	0.000872697	0.00164955	0.000128836	0	0	0	
0.1275	0.0509171	-4.55699E-05	0.00158948	0.000126326	0	0	0	
0.127667	-0.0528094	0.0016368	0.00158261	0.000103893	0	0	0	
0.127833	0.0534428	-0.00337043	0.00160498	7.37621E-05	0	0	0	
0.128	-0.0517769	0.00373672	0.00163082	5.69866E-05	0	0	0	
0.128167	0.047135	-0.00334004	0.00162449	6.98725E-05	0	0	0	
0.128333	-0.0511115	0.00267373	0.00161387	8.48121E-05	0	0	0	
0.1285	0.0534728	-0.00304102	0.00159988	8.98892E-05	0	0	0	
0.128667	-0.0534183	0.00177009	0.00159742	9.02088E-05	0	0	0	
0.128833	0.0519826	-2.63118E-05	0.00161452	8.46033E-05	0	0	0	
0.129	-0.0526276	0.00275605	0.00164374	6.87839E-05	0	0	0	
0.129167	0.0523394	-0.00624788	0.00165452	6.78751E-05	0	0	0	
0.129333	-0.0508714	0.00595326	0.00161977	8.30499E-05	0	0	0	
0.1295	0.0523612	-0.000983605	0.0015911	0.000119364	0	0	0	
0.129667	-0.0507152	0.000584064	0.00157349	0.000115711	0	0	0	
0.129833	0.0523737	-0.00347583	0.00157897	8.91552E-05	0	0	0	
0.13	-0.0533434	0.00476802	0.00158186	6.63981E-05	0	0	0	
0.130167	0.0526559	-0.00149344	0.00158312	7.62879E-05	0	0	0	
0.130333	-0.0525275	0.000470012	0.00158013	9.0149E-05	0	0	0	
0.1305	0.0518884	-0.00240429	0.00158363	8.03917E-05	0	0	0	
0.130667	-0.0512417	0.00475786	0.00160269	7.12745E-05	0	0	0	
0.130833	0.0507071	-0.00439528	0.00159792	7.52085E-05	0	0	0	
0.131	-0.0538059	0.00369719	0.00158236	9.94936E-05	0	0	0	
0.131167	0.0524196	-0.00204317	0.0015572	0.000107732	0	0	0	
0.131333	-0.0532734	0.00345306	0.00156323	9.92942E-05	0	0	0	
0.1315	0.0537702	-0.00572228	0.00156973	9.17028E-05	0	0	0	
0.131667	-0.0565737	0.00497231	0.00159496	9.85673E-05	0	0	0	
0.131833	0.0531454	-0.00300371	0.00159782	0.000111326	0	0	0	
0.132	-0.0542953	0.00388469	0.00158967	0.000106385	0	0	0	
0.132167	0.0568344	-0.00498278	0.00158037	9.94148E-05	0	0	0	
0.132333	-0.0535971	0.00420181	0.00158211	9.29042E-05	0	0	0	
0.1325	0.054432	-0.00482812	0.00158839	9.35608E-05	0	0	0	
0.132667	-0.0573976	0.00497901	0.00159526	8.90857E-05	0	0	0	
0.132833	0.0527071	-0.00349813	0.00158485	8.94967E-05	0	0	0	
0.133	-0.0517125	0.0020072	0.00157968	8.97308E-05	0	0	0	
0.133167	0.0564657	-0.00169958	0.00157582	8.21127E-05	0	0	0	
0.133333	-0.0570387	0.00357867	0.00158205	7.17797E-05	0	0	0	
0.1335	0.0561908	-0.00401032	0.00157889	6.7009E-05	0	0	0	
0.133667	-0.0590226	0.00270257	0.00159272	7.44225E-05	0	0	0	
0.133833	0.0547738	-0.00318588	0.00158758	8.96492E-05	0	0	0	
0.134	-0.0553562	0.00298688	0.00157992	9.77228E-05	0	0	0	
0.134167	0.0582608	-0.00345009	0.00156527	0.000100122	0	0	0	
0.134333	-0.0564942	0.00416399	0.00158262	9.35138E-05	0	0	0	
0.1345	0.0569238	-0.00501027	0.00158831	9.7164E-05	0	0	0	
0.134667	-0.0617713	0.00376676	0.00159911	0.000104418	0	0	0	
0.134833	0.0590021	-0.00451954	0.0016096	0.000111195	0	0	0	
0.135	-0.0577087	0.00589012	0.00162445	0.000108918	0	0	0	
0.135167	0.0591624	-0.00868669	0.00159965	0.000113274	0	0	0	
0.135333	-0.0608916	0.00514319	0.00160067	0.000141727	0	0	0	
0.1355	0.0581703	0.00449138	0.00161566	0.000190467	0	0	0	
0.135667	-0.0609426	-0.00713033	0.00164816	0.00017522	0	0	0	
0.135833	0.0576244	-0.00621433	0.00163705	0.000218797	0	0	0	
0.136	-0.0519596	0.0219379	0.00158833	0.000272478	0	0	0	
0.136167	0.057951	-0.0204997	0.00151323	0.00036047	0	0	0	
0.136333	-0.0719037	0.00439641	0.001506	0.00041429	0	0	0	
0.1365	0.0714202	0.00992012	0.00156968	0.000424775	0	0	0	
0.136667	-0.0668507	-0.0104039	0.00167771	0.000366739	0	0	0	
0.136833	0.0626476	0.000697257	0.0017387	0.000283097	0	0	0	
0.137	-0.0536662	0.0105039	0.00171736	0.000219035	0	0	0	
0.137167	0.0514745	-0.0134555	0.00163409	0.000233913	0	0	0	
0.137333	-0.059161	0.0109079	0.00155887	0.000234472	0	0	0	
0.1375	0.0597115	-0.00421232	0.00151353	0.00022697	0	0	0	
0.137667	-0.0621547	-0.00389365	0.0015073	0.00022026	0	0	0	
0.137833	0.0676766	0.00260757	0.00153269	0.000157173	0	0	0	
0.138	-0.06604	0.00852339	0.00160262	0.000144459	0	0	0	
0.138167	0.0607286	-0.0161914	0.0016464	0.000149341	0	0	0	
0.138333	-0.062421	0.00840888	0.00163715	0.000236536	0	0	0	
0.1385	0.062856	0.00294279	0.00161192	0.00028025	0	0	0	
0.138667	-0.0606618	-0.00666436	0.00160709	0.00024658	0	0	0	
0.138833	0.0620438	-0.00231217	0.00160946	0.000188073	0	0	0	
0.139	-0.0626226	0.0116202	0.00160082	0.000138054	0	0	0	
0.139167	0.0641728	-0.0125969	0.00159033	0.000173235	0	0	0	
0.139333	-0.0640412	0.00426544	0.00159065	0.000215246	0	0	0	
0.1395	0.0636316	0.000443625	0.00160177	0.000219333	0	0	0	
0.139667	-0.0603558	0.00216893	0.00160837	0.000157644	0	0	0	
0.139833	0.0636359	-0.00593117	0.00160163	9.84417E-05	0	0	0	
0.14	-0.0635962	0.00580724	0.00158793	7.47545E-05	0	0	0	
0.140167	0.0631921	-0.00425746	0.00157979	0.000107836	0	0	0	
0.140333	-0.0631145	0.00297238	0.00159118	0.00010843	0	0	0	
0.1405	0.064216	-0.00576251	0.00159046	9.81707E-05	0	0	0	
0.140667	-0.0687969	0.00665841	0.00158718	9.52778E-05	0	0	0	
0.140833	0.0703167	-0.00438757	0.00159056	0.000107016	0	0	0	
0.141	-0.0666772	0.00171401	0.00163932	0.000125006	0	0	0	
0.141167	0.0592779	-4.28935E-05	0.00164975	0.000122788	0	0	0	
0.141333	-0.0617402	0.000257518	0.00161329	9.02257E-05	0	0	0	
0.1415	0.0653285	-0.00418756	0.00156537	6.77762E-05	0	0	0	
0.141667	-0.0610646	0.00709573	0.00153279	6.2476E-05	0	0	0	
0.141833	0.0676886	-0.0067841	0.00152431	0.000101081	0	0	0	
0.142	-0.0741277	0.00627668	0.00153886	0.000134492	0	0	0	
0.142167	0.0679871	-0.00432738	0.00160748	0.000154105	0	0	0	
0.142333	-0.0619797	0.000369467	0.00163934	0.000148109	0	0	0	
0.1425	0.0685174	-3.69453E-05	0.00163515	0.000112401	0	0	0	
0.142667	-0.0654747	0.00195215	0.00159727	6.54503E-05	0	0	0	
0.142833	0.0626673	-0.00592276	0.00157764	5.3387E-05	0	0	0	
0.143	-0.0693883	0.00712001	0.00156767	7.44975E-05	0	0	0	
0.143167	0.0699202	-0.00657485	0.00158576	0.00011153	0	0	0	
0.143333	-0.063429	0.00340426	0.00159353	0.00012222	0	0	0	
0.1435	0.0682216	-0.00100803	0.0015824	0.000107919	0	0	0	
0.143667	-0.0698419	0.00241434	0.00156935	7.66701E-05	0	0	0	
0.143833	0.0672091	-0.00622591	0.00157439	6.63139E-05	0	0	0	
0.144	-0.0699084	0.00443919	0.00160427	7.48957E-05	0	0	0	
0.144167	0.0689942	-0.00235274	0.00162366	9.04476E-05	0	0	0	
0.144333	-0.0670255	0.00295106	0.00161225	8.74113E-05	0	0	0	
0.1445	0.0706859	-0.0038566	0.00158696	7.94469E-05	0	0	0	
0.144667	-0.0729549	0.00369316	0.00159262	7.37658E-05	0	0	0	
0.144833	0.0693069	-0.00513119	0.00162625	7.9118E-05	0	0	0	
0.145	-0.0732035	0.00481806	0.00166839	8.58069E-05	0	0	0	
0.145167	0.0683989	-0.00422906	0.00165112	9.05995E-05	0	0	0	
0.145333	-0.0673835	0.00484485	0.0016294	9.46862E-05	0	0	0	
0.1455	0.0691574	-0.00486575	0.00159777	0.000100635	0	0	0	
0.145667	-0.0712549	0.00274777	0.00157575	9.9435E-05	0	0	0	
0.145833	0.0732772	-0.00337059	0.00159088	8.74688E-05	0	0	0	
0.146	-0.0755376	0.00508442	0.00160405	7.54932E-05	0	0	0	
0.146167	0.0724249	-0.00514887	0.00164605	8.06004E-05	0	0	0	
0.146333	-0.0703874	0.00563643	0.00164131	0.000100987	0	0	0	
0.1465	0.0722054	-0.00446599	0.00163809	0.000109742	0	0	0	
0.146667	-0.0684157	0.00477101	0.00160579	0.000109693	0	0	0	
0.146833	0.0735748	-0.00470221	0.00162586	0.000101529	0	0	0	
0.147	-0.0675187	0.00264506	0.00159837	8.76347E-05	0	0	0	
0.147167	0.0738935	-0.0025438	0.00159456	7.64225E-05	0	0	0	
0.147333	-0.0721557	0.00489531	0.00157804	7.03004E-05	0	0	0	
0.1475	0.0716974	-0.00515839	0.00159131	8.13343E-05	0	0	0	
0.147667	-0.0707406	0.00418841	0.00159384	9.32314E-05	0	0	0	
0.147833	0.0746473	-0.00356062	0.00159069	9.7571E-05	0	0	0	
0.148	-0.0740343	0.00323895	0.0016149	9.13471E-05	0	0	0	
0.148167	0.0719024	-0.00320779	0.00162005	8.44955E-05	0	0	0	
0.148333	-0.071075	0.00450561	0.0016188	7.92404E-05	0	0	0	
0.1485	0.0724522	-0.00480645	0.00158951	8.04606E-05	0	0	0	
0.148667	-0.0742421	0.00330876	0.00158888	9.43744E-05	0	0	0	
0.148833	0.0729552	-0.000577465	0.00159567	9.60355E-05	0	0	0	
0.149	-0.0713935	0.00470282	0.00161243	8.23251E-05	0	0	0	
0.149167	0.0748623	-0.010459	0.00161749	9.42912E-05	0	0	0	
0.149333	-0.0757997	0.0049529	0.00162078	0.000128502	0	0	0	
0.1495	0.0738355	0.00793189	0.00161505	0.000213432	0	0	0	
0.149667	-0.0738134	-0.00788428	0.00162232	0.000202235	0	0	0	
0.149833	0.076018	-0.0128673	0.00162349	0.000296067	0	0	0	
0.15	-0.06926	0.0275658	0.00160252	0.000339065	0	0	0	
0.150167	0.0747561	-0.0180912	0.00157053	0.000453392	0	0	0	
0.150333	-0.077349	-0.0021542	0.00158198	0.000486859	0	0	0	
0.1505	0.0761764	0.0133336	0.00161067	0.000461337	0	0	0	
0.150667	-0.072436	-0.0105764	0.00163569	0.000369689	0	0	0	
0.150833	0.0740512	-0.00195169	0.00160868	0.000287435	0	0	0	
0.151	-0.073505	0.0150016	0.0016062	0.000285396	0	0	0	
0.151167	0.0699978	-0.0180503	0.00158732	0.000323564	0	0	0	
0.151333	-0.0727096	0.011318	0.0015905	0.000315572	0	0	0	
0.1515	0.0765606	-0.000287249	0.00156682	0.000291901	0	0	0	
0.151667	-0.0788892	-0.00629248	0.00159841	0.000249622	0	0	0	
0.151833	0.0730525	0.00183914	0.00160993	0.000183323	0	0	0	
0.152	-0.0747425	0.0121593	0.00162937	0.000180188	0	0	0	
0.152167	0.0786551	-0.0147323	0.00161863	0.000199505	0	0	0	
0.152333	-0.0679316	0.00601168	0.00160811	0.00025653	0	0	0	
0.1525	0.000277212	0.0303172	0.00156902	0.000281019	0	0	0	
0.152667	-0.0872138	-0.0164071	0.00196769	0.000453515	0	0	0	
0.152833	0.0730858	-0.0124202	0.00197153	0.000503034	0	0	0	
0.153	-0.0606117	0.0202445	0.00197295	0.000480512	0	0	0	
0.153167	0.0736348	-0.00930663	0.00151032	0.000336081	0	0	0	
0.153333	-0.0830565	-0.00215512	0.00155323	0.000282095	0	0	0	
0.1535	0.0466683	0.0254761	0.00152414	0.000236071	0	0	0	
0.153667	-0.177951	-0.0252234	0.00218139	0.000350316	0	0	0	
0.153833	0.067285	-0.005924	0.00211897	0.000333232	0	0	0	
0.154	-0.0747834	0.00943776	0.00215119	0.000349403	0	0	0	
0.154167	0.0828808	-0.0069655	0.00159459	0.000195066	0	0	0	
0.154333	-0.0736914	0.00161324	0.0016995	0.000161524	0	0	0	
0.1545	0.0582284	-0.00139773	0.00161436	0.000118132	0	0	0	
0.154667	-0.0811253	0.00811939	0.00154418	9.75467E-05	0	0	0	
0.154833	0.0737371	-0.0115468	0.00142385	0.000136241	0	0	0	
0.155	-0.0790451	0.0103094	0.00152489	0.000188291	0	0	0	
0.155167	0.0854331	-0.00730502	0.00159377	0.000204158	0	0	0	
0.155333	-0.0877889	-0.00154983	0.00169766	0.000204966	0	0	0	
0.1555	0.0732498	0.00609815	0.00172998	0.000162423	0	0	0	
0.155667	-0.079897	0.0154308	0.00176077	0.000180286	0	0	0	
0.155833	0.0623538	-0.0137465	0.00170015	0.000232228	0	0	0	
0.156	-0.0802256	0.00758483	0.00151933	0.000314658	0	0	0	
0.156167	0.0896419	0.00424477	0.00147604	0.000299284	0	0	0	
0.156333	-0.0831763	-0.00237678	0.00149291	0.000197795	0	0	0	
0.1565	0.0883399	-0.00538037	0.00171189	0.000129498	0	0	0	
0.156667	-0.0789427	0.00447704	0.00171772	9.11342E-05	0	0	0	
0.156833	0.0785574	-0.0185432	0.00175503	0.000218601	0	0	0	
0.157	-0.0588287	0.0145477	0.00157754	0.000240662	0	0	0	
0.157167	0.0778534	-0.00233632	0.00154406	0.000276723	0	0	0	
0.157333	-0.0792136	-0.00297564	0.00145599	0.000154281	0	0	0	
0.1575	0.0821901	0.0019665	0.00159557	0.000108741	0	0	0	
0.157667	-0.0709063	0.00266693	0.00159593	6.891E-05	0	0	0	
0.157833	0.0716503	-0.00854679	0.00157011	8.15474E-05	0	0	0	
0.158	-0.113898	0.003146	0.00160067	0.000101226	0	0	0	
0.158167	0.0727371	-0.00667347	0.00158918	0.000204602	0	0	0	
0.158333	-0.0876407	-0.0054292	0.00161738	0.000242414	0	0	0	
0.1585	0.0847442	0.00145653	0.00160646	0.000233845	0	0	0	
0.158667	-0.0819822	0.0091263	0.00165072	0.000173271	0	0	0	
0.158833	0.0752824	-0.0117694	0.00166322	0.000150587	0	0	0	
0.159	-0.074491	0.00401395	0.00160721	0.000183394	0	0	0	
0.159167	0.0141401	-0.0139062	0.00150591	0.000192214	0	0	0	
0.159333	-0.0716725	0.00564252	0.00131572	0.000193466	0	0	0	
0.1595	0.0812617	-0.00560419	0.00131443	0.000165524	0	0	0	
0.159667	-0.0862289	0.00561661	0.0013875	0.000127028	0	0	0	
0.159833	0.0797499	-0.00652593	0.00159979	0.000107638	0	0	0	
0.16	-0.0813695	0.00462481	0.00161105	0.000118794	0	0	0	
0.160167	0.0834197	-0.00178193	0.00162485	0.000107625	0	0	0	
0.160333	-0.0823608	0.0034572	0.00160967	8.72202E-05	0	0	0	
0.1605	0.084544	-0.00578126	0.00163904	7.37281E-05	0	0	0	
0.160667	-0.0810832	0.00475327	0.00162155	8.27398E-05	0	0	0	
0.160833	0.0815297	-0.00502983	0.00162187	9.66076E-05	0	0	0	
0.161	-0.0815074	0.00428578	0.00160145	9.77715E-05	0	0	0	
0.161167	0.0822031	-0.00263314	0.00160599	8.99803E-05	0	0	0	
0.161333	-0.0800921	0.00392225	0.00160217	7.97637E-05	0	0	0	
0.1615	0.0820468	-0.0054959	0.00160987	7.57125E-05	0	0	0	
0.161667	-0.0804262	0.00678103	0.00160752	9.33089E-05	0	0	0	
0.161833	0.0809509	-0.0056593	0.00160553	0.000112535	0	0	0	
0.162	-0.0818231	0.00437536	0.00160427	0.000119227	0	0	0	
0.162167	0.0828785	-0.00437135	0.00160486	0.000105086	0	0	0	
0.162333	-0.0833085	0.00471781	0.00162243	9.30816E-05	0	0	0	
0.1625	0.0831947	-0.00484215	0.00163229	9.05865E-05	0	0	0	
0.162667	-0.0825603	0.00670999	0.00163441	9.81196E-05	0	0	0	
0.162833	0.0828279	-0.00475216	0.00162554	0.000104468	0	0	0	
0.163	-0.082127	0.00139078	0.00161216	0.000100769	0	0	0	
0.163167	0.0806477	-0.00179138	0.00160774	8.44844E-05	0	0	0	
0.163333	-0.0781845	0.00986605	0.00159486	0.000116396	0	0	0	
0.1635	0.0803435	-0.0153849	0.00156615	0.000166205	0	0	0	
0.163667	-0.0907104	0.0102225	0.00157281	0.000246111	0	0	0	
0.163833	0.094371	0.00406265	0.00165244	0.000309082	0	0	0	
0.164	-0.0825089	-0.010374	0.00171678	0.000295356	0	0	0	
0.164167	0.0779683	0.00371293	0.00170534	0.00026164	0	0	0	
0.164333	-0.0747423	0.00866432	0.00162337	0.000244759	0	0	0	
0.1645	0.0739837	-0.0164473	0.00154657	0.000270588	0	0	0	
0.164667	-0.0774621	0.0140663	0.00150386	0.000296583	0	0	0	
0.164833	0.0877618	-0.00673426	0.00151288	0.000273166	0	0	0	
0.165	-0.0897279	0.00148692	0.00158784	0.000239317	0	0	0	
0.165167	0.0885822	0.000229743	0.0016659	0.000166862	0	0	0	
0.165333	-0.0876357	0.0027244	0.00171244	9.28962E-05	0	0	0	
0.1655	0.0834284	-0.00869674	0.0017018	8.20007E-05	0	0	0	
0.165667	-0.0762733	0.0106917	0.00165378	0.000122682	0	0	0	
0.165833	0.0797516	-0.00379498	0.00157498	0.000163499	0	0	0	
0.166	-0.0836987	-0.00242846	0.00154899	0.000160135	0	0	0	
0.166167	0.0836297	-0.00104526	0.00157164	0.000124771	0	0	0	
0.166333	-0.0797381	0.00886723	0.00160133	0.000126251	0	0	0	
0.1665	0.0801475	-0.0114673	0.00157752	0.000148221	0	0	0	
0.166667	-0.0817986	0.00770941	0.00155675	0.000183524	0	0	0	
0.166833	0.0839596	-0.00149048	0.00156332	0.000170051	0	0	0	
0.167	-0.080826	-0.00136234	0.00158519	0.000116821	0	0	0	
0.167167	0.0824386	-0.00438003	0.00158814	0.00010054	0	0	0	
0.167333	-0.0827997	0.0103497	0.00159572	0.000113509	0	0	0	
0.1675	0.0827315	-0.00748988	0.00158342	0.000157061	0	0	0	
0.167667	-0.0849424	0.00275972	0.0016042	0.000149102	0	0	0	
0.167833	0.081206	-0.00232503	0.00160066	0.000106408	0	0	0	
0.168	-0.0797979	0.00431845	0.00159522	8.06095E-05	0	0	0	
0.168167	0.0876478	-0.00424941	0.00158689	7.5993E-05	0	0	0	
0.168333	-0.0848873	0.00395921	0.00161227	8.50128E-05	0	0	0	
0.1685	0.0757659	-0.00284977	0.00160991	8.13143E-05	0	0	0	
0.168667	-0.0775001	0.00413677	0.00157076	7.81892E-05	0	0	0	
0.168833	0.084026	-0.0070794	0.00152264	9.2255E-05	0	0	0	
0.169	-0.0891511	0.00824418	0.0015589	0.000114511	0	0	0	
0.169167	0.0889166	-0.0044617	0.00163091	0.000134076	0	0	0	
0.169333	-0.0859975	0.00176487	0.00167118	0.000123113	0	0	0	
0.1695	0.0854978	-0.00450972	0.00168043	0.000104652	0	0	0	
0.169667	-0.0748329	0.00746748	0.00163297	9.89728E-05	0	0	0	
0.169833	0.0736768	-0.00569266	0.0015528	0.000110354	0	0	0	
0.17	-0.0820263	0.00502579	0.00150265	0.000117882	0	0	0	
0.170167	0.0854856	-0.00646373	0.00150719	0.00011632	0	0	0	
0.170333	-0.089124	0.00675468	0.00158619	0.000120081	0	0	0	
0.1705	0.0900224	-0.0055598	0.00165958	0.000123031	0	0	0	
0.170667	-0.0840544	0.00494288	0.00168771	0.00011576	0	0	0	
0.170833	0.0860414	-0.00644775	0.00167227	0.000107667	0	0	0	
0.171	-0.0878414	0.00629425	0.00165908	0.000109878	0	0	0	
0.171167	0.086473	-0.00379347	0.00166325	0.000111015	0	0	0	
0.171333	-0.0864166	0.00296461	0.00167331	9.53883E-05	0	0	0	
0.1715	0.0846169	-0.00418762	0.0016614	7.70112E-05	0	0	0	
0.171667	-0.0848879	0.00535837	0.0016359	7.85088E-05	0	0	0	
0.171833	0.0881068	-0.00533006	0.00164649	9.17491E-05	0	0	0	
0.172	-0.0840829	0.00280214	0.00164325	9.26366E-05	0	0	0	
0.172167	0.085937	-0.00116705	0.00164883	7.34118E-05	0	0	0	
0.172333	-0.0857533	0.00319038	0.00163897	6.08039E-05	0	0	0	
0.1725	0.0857583	-0.00727732	0.00163401	7.22467E-05	0	0	0	
0.172667	-0.0835226	0.00607471	0.00163466	9.86948E-05	0	0	0	
0.172833	0.0863017	-0.00168012	0.00162873	0.000104556	0	0	0	
0.173	-0.085432	0.00108915	0.0016303	8.04557E-05	0	0	0	
0.173167	0.084076	-0.00505239	0.00162948	5.87698E-05	0	0	0	
0.173333	-0.0829534	0.00600389	0.00161572	7.13191E-05	0	0	0	
0.1735	0.0854058	-0.00593526	0.00160914	9.47915E-05	0	0	0	
0.173667	-0.0841313	0.00469784	0.00160898	0.000110007	0	0	0	
0.173833	0.0842786	-0.00332534	0.00161554	9.70907E-05	0	0	0	
0.174	-0.083438	0.0044939	0.00161273	8.98246E-05	0	0	0	
0.174167	0.0842176	-0.00513146	0.00160557	8.64982E-05	0	0	0	
0.174333	-0.0843875	0.00431603	0.00161017	9.19678E-05	0	0	0	
0.1745	0.0853436	-0.00361318	0.00161398	8.73575E-05	0	0	0	
0.174667	-0.0825657	0.00466421	0.00161534	8.28275E-05	0	0	0	
0.174833	0.0822997	-0.00331921	0.00160303	7.7827E-05	0	0	0	
0.175	-0.0802735	0.00364231	0.00157798	7.78591E-05	0	0	0	
0.175167	0.0831972	-0.00466374	0.00156201	8.06311E-05	0	0	0	
0.175333	-0.0840162	0.00474516	0.00157578	8.73128E-05	0	0	0	
0.1755	0.0829775	-0.00545552	0.00158854	9.58931E-05	0	0	0	
0.175667	-0.0837559	0.00630261	0.00160353	0.000100889	0	0	0	
0.175833	0.0818737	-0.00485592	0.0015952	0.000106326	0	0	0	
0.176	-0.0819854	0.00334562	0.00158064	0.000101446	0	0	0	
0.176167	0.087203	-0.00426708	0.00159254	9.01916E-05	0	0	0	
0.176333	-0.0831153	0.00456486	0.0016071	8.282E-05	0	0	0	
0.1765	0.0817198	-0.0049494	0.00161106	8.72032E-05	0	0	0	
0.176667	-0.0837618	0.00550992	0.0016022	9.59156E-05	0	0	0	
0.176833	0.0825835	-0.00581726	0.00158887	0.000101903	0	0	0	
0.177	-0.081927	0.00514402	0.00158979	0.000105236	0	0	0	
0.177167	0.0831852	-0.0031761	0.0015798	9.79016E-05	0	0	0	
0.177333	-0.0807422	0.00363698	0.00157559	8.73337E-05	0	0	0	
0.1775	0.0781481	-0.00564703	0.00156265	9.25697E-05	0	0	0	
0.177667	-0.0860022	0.00518981	0.00156045	0.000100521	0	0	0	
0.177833	0.082201	-0.00288947	0.00157728	0.000102634	0	0	0	
0.178	-0.0793071	0.0034571	0.0015784	8.55663E-05	0	0	0	
0.178167	0.0813993	-0.00722374	0.00157662	0.000107823	0	0	0	
0.178333	-0.0853091	0.0105893	0.00156243	0.000137695	0	0	0	
0.1785	0.0865143	-0.00653242	0.00160679	0.000173316	0	0	0	
0.178667	-0.0871236	-0.00492727	0.00162988	0.000204484	0	0	0	
0.178833	0.085096	0.0114465	0.00165315	0.000197874	0	0	0	
0.179	-0.0773793	-0.00375674	0.00160727	0.000219917	0	0	0	
0.179167	0.0711639	-0.0108464	0.00155034	0.00026731	0	0	0	
0.179333	-0.066059	0.0172752	0.00144142	0.000319341	0	0	0	
0.1795	0.0751858	-0.0121143	0.00140901	0.000327058	0	0	0	
0.179667	-0.0874865	0.0013914	0.00146558	0.00027679	0	0	0	
0.179833	0.0946381	0.00441618	0.00160321	0.000217192	0	0	0	
0.18	-0.0923065	-0.00178358	0.00172283	0.000149494	0	0	0	
0.180167	0.0836678	-0.00294491	0.00174473	0.000102501	0	0	0	
0.180333	-0.0761492	0.00713513	0.0016581	0.00010231	0	0	0	
0.1805	0.077486	-0.00906734	0.00155983	0.000132955	0	0	0	
0.180667	-0.0738826	0.00341969	0.00149284	0.000136344	0	0	0	
0.180833	0.0797212	0.00292543	0.00149372	0.000123296	0	0	0	
0.181	-0.0850047	0.000129647	0.0015353	9.9956E-05	0	0	0	
0.181167	0.0801638	-0.00867564	0.00157672	0.000129914	0	0	0	
0.181333	-0.0767573	0.0121372	0.00157611	0.000168125	0	0	0	
0.1815	0.0845277	-0.00888783	0.00156339	0.000205821	0	0	0	
0.181667	-0.0841529	0.00131909	0.00157862	0.000176333	0	0	0	
0.181833	0.0838892	0.00200341	0.00161701	0.000117791	0	0	0	
0.182	-0.0833689	0.00234183	0.00163428	9.23255E-05	0	0	0	
0.182167	0.0821443	-0.00947855	0.00161635	0.00011758	0	0	0	
0.182333	-0.0807015	0.00934652	0.00160869	0.000163507	0	0	0	
0.1825	0.0833109	-0.00276585	0.00160248	0.000166647	0	0	0	
0.182667	-0.0831665	-0.000691943	0.00160119	0.000112758	0	0	0	
0.182833	0.0854176	-0.00232664	0.00161853	9.2614E-05	0	0	0	
0.183	-0.0840105	0.00564125	0.00163664	9.08322E-05	0	0	0	
0.183167	0.0833035	-0.00636941	0.00163726	0.000114976	0	0	0	
0.183333	-0.0795724	0.00330155	0.00162043	0.000111448	0	0	0	
0.1835	0.0764889	-0.00341764	0.00158041	9.4911E-05	0	0	0	
0.183667	-0.0835607	0.00562517	0.00157232	9.53865E-05	0	0	0	
0.183833	0.0929808	-0.00694919	0.00162265	0.000104042	0	0	0	
0.184	-0.0873764	0.00432609	0.00169605	0.000113638	0	0	0	
0.184167	0.0803905	-0.00171681	0.00170499	0.000105188	0	0	0	
0.184333	-0.0778466	0.00154372	0.00163057	7.76027E-05	0	0	0	
0.1845	0.0772262	-0.00420286	0.00155207	7.09368E-05	0	0	0	
0.184667	-0.0718396	0.00450917	0.00150726	7.74241E-05	0	0	0	
0.184833	0.0775224	-0.00408584	0.00150871	8.93998E-05	0	0	0	
0.185	-0.0844762	0.00466851	0.00155319	8.94417E-05	0	0	0	
0.185167	0.0866681	-0.00556086	0.00162044	8.95288E-05	0	0	0	
0.185333	-0.0834034	0.00548245	0.00166357	0.000102013	0	0	0	
0.1855	0.0860817	-0.00526708	0.00166085	0.000109965	0	0	0	
0.185667	-0.081095	0.00631923	0.00165449	0.000112416	0	0	0	
0.185833	0.0796878	-0.0042643	0.00162119	0.000107762	0	0	0	
0.186	-0.0800408	0.00295046	0.0016025	9.41655E-05	0	0	0	
0.186167	0.0810682	-0.00344701	0.00157548	8.1542E-05	0	0	0	
0.186333	-0.0799955	0.00384799	0.00158724	8.13614E-05	0	0	0	
0.1865	0.0771281	-0.00479586	0.00157794	9.62301E-05	0	0	0	
0.186667	-0.0768061	0.00596697	0.00156185	0.000110219	0	0	0	
0.186833	0.0817089	-0.00477904	0.00155903	0.000112442	0	0	0	
0.187	-0.0836308	0.00128257	0.00158386	9.68542E-05	0	0	0	
0.187167	0.0817036	-0.00154513	0.00162689	7.60368E-05	0	0	0	
0.187333	-0.0825772	0.00379624	0.00164346	7.07227E-05	0	0	0	
0.1875	0.0822754	-0.00442253	0.00164071	8.32337E-05	0	0	0	
0.187667	-0.0806682	0.00469485	0.0016175	9.81858E-05	0	0	0	
0.187833	0.0807063	-0.00338468	0.00160188	0.000101378	0	0	0	
0.188	-0.0804066	0.00296141	0.0015992	9.08562E-05	0	0	0	
0.188167	0.0803472	-0.00347827	0.00160734	7.97431E-05	0	0	0	
0.188333	-0.0824441	0.00326099	0.00161896	7.34713E-05	0	0	0	
0.1885	0.0828167	-0.00424078	0.00162892	7.64841E-05	0	0	0	
0.188667	-0.0819219	0.00481437	0.00163778	8.56341E-05	0	0	0	
0.188833	0.0787868	-0.00523224	0.00164092	9.43499E-05	0	0	0	
0.189	-0.0808522	0.00500202	0.00161643	0.000102961	0	0	0	
0.189167	0.0819804	-0.00365394	0.00161711	9.53206E-05	0	0	0	
0.189333	-0.0767039	0.00291496	0.00160046	8.94061E-05	0	0	0	
0.1895	0.0514162	-0.00763472	0.00159354	9.82792E-05	0	0	0	
0.189667	0.0408952	0.0117136	0.00160166	0.000209133	0	0	0	
0.189833	0.0771145	-0.00364726	0.00145328	0.000256879	0	0	0	
0.19	-0.080288	-0.00891418	0.00148589	0.00029142	0	0	0	
0.190167	0.0591426	0.00377793	0.00149717	0.000254443	0	0	0	
0.190333	-0.0491532	-0.000918117	0.00153545	0.000191126	0	0	0	
0.1905	0.0729368	-0.00770969	0.00145558	0.00012793	0	0	0	
0.190667	-0.0687925	0.00338433	0.00146104	6.89163E-05	0	0	0	
0.190833	0.0811287	-0.00250924	0.00156254	7.14618E-05	0	0	0	
0.191	-0.0830958	0.00239118	0.00164883	7.29342E-05	0	0	0	
0.191167	0.0577749	-0.000808383	0.00156273	4.91027E-05	0	0	0	
0.191333	-0.0374415	-0.000451464	0.00132677	3.59713E-05	0	0	0	
0.1915	0.0380672	-5.15095E-05	0.00101161	2.66319E-05	0	0	0	
0.191667	-0.0632143	0.00333713	0.00085537	4.05099E-05	0	0	0	
0.191833	0.069418	-0.00589203	0.00104711	7.9868E-05	0	0	0	
0.192	-0.0863655	0.00654846	0.00133186	0.000113307	0	0	0	
0.192167	0.075161	-0.00415157	0.00156169	0.000119033	0	0	0	
0.192333	-0.0422647	0.000601783	0.00148427	8.93996E-05	0	0	0	
0.1925	0.0332704	-0.00110331	0.00120363	5.49901E-05	0	0	0	
0.192667	-0.04281	0.00312392	0.000898283	3.30378E-05	0	0	0	
0.192833	0.0634251	-0.00328494	0.000923749	4.46363E-05	0	0	0	
0.193	-0.0694781	-0.000101428	0.00116239	6.30804E-05	0	0	0	
0.193167	0.0754992	0.00466078	0.00142715	6.1956E-05	0	0	0	
0.193333	-0.0604773	-0.00638466	0.00147771	9.55338E-05	0	0	0	
0.1935	0.0383913	-0.000794729	0.00130793	0.000127219	0	0	0	
0.193667	-0.032116	0.000994933	0.00102925	0.000120602	0	0	0	
0.193833	0.0531114	0.00727526	0.000855612	9.83141E-05	0	0	0	
0.194	-0.0658163	-0.0103626	0.00101378	9.71783E-05	0	0	0	
0.194167	0.0698528	0.00242381	0.00121975	0.000185764	0	0	0	
0.194333	-0.0725296	0.00742136	0.00141275	0.000243089	0	0	0	
0.1945	0.0501029	-0.00581036	0.00138293	0.000234525	0	0	0	
0.194667	-0.0322122	0.00203531	0.00120513	0.000165346	0	0	0	
0.194833	0.0340894	0.000485151	0.000951461	9.51913E-05	0	0	0	
0.195	-0.0614222	-0.00265922	0.000858255	7.60566E-05	0	0	0	
0.195167	0.0652252	0.00395192	0.00106592	7.0477E-05	0	0	0	
0.195333	-0.0814418	0.00127249	0.00132119	8.24874E-05	0	0	0	
0.1955	0.0687887	-0.00590088	0.0014933	0.000117799	0	0	0	
0.195667	-0.0368761	0.00488901	0.00138663	0.000140156	0	0	0	
0.195833	0.0293207	0.000259948	0.00112188	0.00012767	0	0	0	
0.196	-0.0390059	-0.00362871	0.000843209	7.79026E-05	0	0	0	
0.196167	0.0647307	-1.69909E-05	0.000886068	8.70463E-05	0	0	0	
0.196333	-0.0690956	0.00709432	0.00118031	0.000153646	0	0	0	
0.1965	0.0760444	-0.0113861	0.0014346	0.000215462	0	0	0	
0.196667	-0.0532018	0.00937541	0.00147656	0.000228998	0	0	0	
0.196833	0.0311487	-0.00111495	0.00123456	0.000176874	0	0	0	
0.197	-0.0280608	-0.00049476	0.00094539	0.000108447	0	0	0	
0.197167	0.0459021	-0.00596677	0.000760192	7.84464E-05	0	0	0	
0.197333	-0.0563664	0.0086557	0.0009053	9.60421E-05	0	0	0	
0.1975	0.0649828	-0.00584527	0.0011269	0.000135037	0	0	0	
0.197667	-0.0684656	0.00503158	0.00134221	0.000138406	0	0	0	
0.197833	0.0499367	-0.00152458	0.00134867	0.000105791	0	0	0	
0.198	-0.0314288	0.000829563	0.00117995	6.71554E-05	0	0	0	
0.198167	0.0323248	-0.00116097	0.000923777	3.64801E-05	0	0	0	
0.198333	-0.0604398	0.00166585	0.000829864	2.31184E-05	0	0	0	
0.1985	0.0711883	-0.00164749	0.00107041	2.94396E-05	0	0	0	
0.198667	-0.0705936	0.00300138	0.0013363	3.42823E-05	0	0	0	
0.198833	0.0609229	-0.00222928	0.00145491	4.51168E-05	0	0	0	
0.199	-0.0345479	0.00129065	0.00131142	4.26748E-05	0	0	0	
0.199167	0.026837	-0.00300778	0.00105354	4.67713E-05	0	0	0	
0.199333	-0.0403277	0.00488001	0.00085855	4.75107E-05	0	0	0	
0.1995	0.0749938	-0.00291434	0.000984545	9.38828E-05	0	0	0	
0.199667	-0.0735053	-0.00281567	0.00135935	0.000124659	0	0	0	
0.199833	0.0724978	-0.000614423	0.00161939	0.000139885	0	0	0	
0.2	-0.0466574	0.00941445	0.00157413	0.0001606	0	0	0	
0.200167	0.026862	-0.00797655	0.00122038	0.00017173	0	0	0	
0.200333	-0.0272631	0.00233205	0.00091117	0.000169726	0	0	0	
0.2005	0.0465462	0.00141852	0.000757048	0.000125869	0	0	0	
0.200667	-0.0522374	-0.00176731	0.000927486	8.52975E-05	0	0	0	
0.200833	0.0605331	0.000207215	0.00114126	6.65889E-05	0	0	0	
0.201	-0.0628303	0.00212918	0.00132458	7.14524E-05	0	0	0	
0.201167	0.0491711	-0.00278228	0.00132377	9.3691E-05	0	0	0	
0.201333	-0.03425	0.00254934	0.001185	9.68351E-05	0	0	0	
0.2015	0.0302148	-0.000781204	0.000947778	6.85247E-05	0	0	0	
0.201667	-0.0538713	-0.000801061	0.000826437	4.8168E-05	0	0	0	
0.201833	0.0599724	0.00218086	0.000988483	3.87962E-05	0	0	0	
0.202	-0.0715189	0.0017301	0.00123301	6.47951E-05	0	0	0	
0.202167	0.0647919	-0.00604872	0.00142652	9.60054E-05	0	0	0	
0.202333	-0.0359707	0.00402597	0.00137293	0.0001202	0	0	0	
0.2025	0.0301412	-9.59015E-05	0.00114752	9.95772E-05	0	0	0	
0.202667	-0.0401199	-0.00121392	0.000903961	5.70659E-05	0	0	0	
0.202833	0.0575985	-0.00181705	0.000935246	5.02572E-05	0	0	0	
0.203	-0.0621973	0.00437687	0.00117948	7.12755E-05	0	0	0	
0.203167	0.0715964	-0.00382277	0.00144215	8.67958E-05	0	0	0	
0.203333	-0.0553443	-0.000414026	0.00148508	7.54886E-05	0	0	0	
0.2035	0.0340975	0.00179341	0.00128759	4.7795E-05	0	0	0	
0.203667	-0.0249859	-0.000741209	0.000982378	3.40358E-05	0	0	0	
0.203833	0.0429067	-0.00175695	0.000783755	3.81623E-05	0	0	0	
0.204	-0.0466947	0.00217489	0.000933312	6.04978E-05	0	0	0	
0.204167	0.0570487	-0.00439796	0.00115778	7.66011E-05	0	0	0	
0.204333	-0.0646477	0.00440609	0.00137153	8.58282E-05	0	0	0	
0.2045	0.0477894	-0.00168107	0.00136967	7.38956E-05	0	0	0	
0.204667	-0.0325141	-9.90046E-05	0.00120895	5.41589E-05	0	0	0	
0.204833	0.0293572	0.00106894	0.000955428	2.80518E-05	0	0	0	
0.205	-0.048123	-0.00109265	0.000822979	2.39706E-05	0	0	0	
0.205167	0.0534834	-0.00114722	0.000983358	5.24535E-05	0	0	0	
0.205333	-0.073902	0.00640144	0.00124743	8.84534E-05	0	0	0	
0.2055	0.0600223	-0.00401343	0.00145868	0.000112214	0	0	0	
0.205667	-0.0348226	0.0010315	0.0013868	8.92967E-05	0	0	0	
0.205833	0.0299137	0.000929814	0.00113406	6.33503E-05	0	0	0	
0.206	-0.033829	-0.0026149	0.000857457	3.28394E-05	0	0	0	
0.206167	0.0521093	0.00194974	0.000883424	5.08297E-05	0	0	0	
0.206333	-0.0614931	0.00444322	0.0011671	9.6435E-05	0	0	0	
0.2065	0.0692968	-0.00669717	0.00149723	0.0001411	0	0	0	
0.206667	-0.0555812	0.003528	0.00160011	0.000142447	0	0	0	
0.206833	0.0324677	0.000944019	0.00137019	0.00010088	0	0	0	
0.207	-0.0208637	0.00207893	0.00098736	6.85151E-05	0	0	0	
0.207167	0.0353672	-0.0102177	0.000758782	7.689E-05	0	0	0	
0.207333	-0.0477047	0.00959078	0.000943511	0.000129378	0	0	0	
0.2075	0.0583425	0.00108978	0.00129379	0.000198541	0	0	0	
0.207667	-0.0766376	-0.00871563	0.0015749	0.000221975	0	0	0	
0.207833	0.0537106	0.00610995	0.00159815	0.000196792	0	0	0	
0.208	-0.0306476	0.00188942	0.00132991	0.000159459	0	0	0	
0.208167	0.0237732	-0.00559816	0.0009858	0.000124987	0	0	0	
0.208333	-0.0391197	0.00907087	0.000758038	0.00014386	0	0	0	
0.2085	0.0386215	-0.00410612	0.000902587	0.000171743	0	0	0	
0.208667	-0.0621488	-0.000606999	0.00118015	0.000181959	0	0	0	
0.208833	0.0624322	0.000664675	0.00144297	0.000121594	0	0	0	
0.209	-0.039229	-0.000477793	0.00142937	5.37504E-05	0	0	0	
0.209167	0.0246144	-0.00377301	0.00118341	4.49558E-05	0	0	0	
0.209333	-0.0278969	0.0104847	0.000873572	7.74224E-05	0	0	0	
0.2095	0.0524573	-0.0123659	0.000875169	0.000166046	0	0	0	
0.209667	-0.0580048	-0.00154012	0.00120208	0.000222036	0	0	0	
0.209833	0.059207	0.00574251	0.00150352	0.000205763	0	0	0	
0.21	-0.0470402	0.000591256	0.00154835	0.000174211	0	0	0	
0.210167	0.0289179	-0.00550298	0.00129178	0.000151369	0	0	0	
0.210333	-0.0238603	0.0034717	0.000983864	0.000155828	0	0	0	
0.2105	0.038142	0.000522338	0.000818638	0.000112904	0	0	0	
0.210667	-0.0416493	-0.00314948	0.000961484	6.34503E-05	0	0	0	
0.210833	0.0503543	0.000652133	0.00120486	9.12044E-05	0	0	0	
0.211	-0.0586613	0.00590048	0.00141535	0.000119359	0	0	0	
0.211167	0.0442084	-0.00360965	0.00143008	0.000141192	0	0	0	
0.211333	-0.0303895	-0.000498951	0.00124792	0.000105277	0	0	0	
0.2115	0.0240343	0.00120265	0.000966388	5.39081E-05	0	0	0	
0.211667	-0.0369649	0.0035161	0.000802199	5.51529E-05	0	0	0	
0.211833	0.0407104	-0.00591282	0.000970944	8.75758E-05	0	0	0	
0.212	-0.0666005	0.00529771	0.00125421	0.000114738	0	0	0	
0.212167	0.0609162	-0.000575298	0.00148503	9.75588E-05	0	0	0	
0.212333	-0.0335352	-0.00127533	0.00141293	5.61419E-05	0	0	0	
0.2125	0.0231484	6.73895E-05	0.00114026	3.59095E-05	0	0	0	
0.212667	-0.0287219	0.00399069	0.000840943	3.75804E-05	0	0	0	
0.212833	0.0437395	-0.00917571	0.000849374	8.75311E-05	0	0	0	
0.213	-0.053707	0.00951701	0.00114642	0.00013231	0	0	0	
0.213167	0.0642616	-0.00532443	0.00151938	0.000151428	0	0	0	
0.213333	-0.0517821	-0.000553159	0.00167299	0.0001347	0	0	0	
0.2135	0.0316406	0.00281643	0.00146633	0.000105193	0	0	0	
0.213667	-0.0200333	-0.000970994	0.00106493	7.87131E-05	0	0	0	
0.213833	0.0298808	-0.00536216	0.000774088	7.65111E-05	0	0	0	
0.214	-0.0389064	0.00542079	0.000890756	0.000102997	0	0	0	
0.214167	0.0493035	-0.00423178	0.00121034	0.000124785	0	0	0	
0.214333	-0.0562253	0.00123384	0.00148724	0.000106142	0	0	0	
0.2145	0.0373186	0.00125949	0.00148102	5.99641E-05	0	0	0	
0.214667	-0.025178	-0.00107745	0.00120734	3.22544E-05	0	0	0	
0.214833	0.0212595	-0.00034323	0.00088843	2.58234E-05	0	0	0	
0.215	-0.0346099	0.00304211	0.000759971	4.03356E-05	0	0	0	
0.215167	0.0368028	-0.00374915	0.000954502	5.99098E-05	0	0	0	
0.215333	-0.0584658	0.0015223	0.00123064	6.54787E-05	0	0	0	
0.2155	0.0534975	0.00136699	0.00145378	5.17751E-05	0	0	0	
0.215667	-0.0295138	-0.00244707	0.00139893	4.52086E-05	0	0	0	
0.215833	0.0230932	0.000580933	0.00114678	4.0577E-05	0	0	0	
0.216	-0.0289428	1.02157E-05	0.000867201	4.17106E-05	0	0	0	
0.216167	0.0466769	-0.00219467	0.000885714	4.23964E-05	0	0	0	
0.216333	-0.0568259	0.00321963	0.00118441	6.90983E-05	0	0	0	
0.2165	0.058811	-0.00230457	0.00150032	9.87874E-05	0	0	0	
0.216667	-0.0392508	-0.00147988	0.00157459	0.000102339	0	0	0	
0.216833	0.0241694	0.000940026	0.00132684	7.39727E-05	0	0	0	
0.217	-0.0192777	-0.000671576	0.000983491	4.21236E-05	0	0	0	
0.217167	0.0354431	-0.00113824	0.000812965	3.47942E-05	0	0	0	
0.217333	-0.0403179	0.00233595	0.0010206	6.25162E-05	0	0	0	
0.2175	0.0491004	-0.0014514	0.00134516	9.66621E-05	0	0	0	
0.217667	-0.052917	0.00147436	0.00157569	9.66312E-05	0	0	0	
0.217833	0.036946	0.000425797	0.00152166	6.03215E-05	0	0	0	
0.218	-0.024343	-0.00106605	0.00124265	2.50871E-05	0	0	0	
0.218167	0.0193757	9.64132E-05	0.00091948	1.78199E-05	0	0	0	
0.218333	-0.0344186	0.00178973	0.000794214	3.44404E-05	0	0	0	
0.2185	0.0367332	-0.00236866	0.000986738	5.64347E-05	0	0	0	
0.218667	-0.0513643	0.00306227	0.00127147	7.70737E-05	0	0	0	
0.218833	0.0466312	-0.00240294	0.00145989	8.90555E-05	0	0	0	
0.219	-0.0292245	0.00144147	0.00139057	8.16438E-05	0	0	0	
0.219167	0.0198273	-0.000907023	0.00114014	5.98469E-05	0	0	0	
0.219333	-0.0279759	0.00164873	0.000893498	3.61472E-05	0	0	0	
0.2195	0.0433956	-0.0040645	0.000941621	3.70382E-05	0	0	0	
0.219667	-0.0463975	0.00310058	0.00122357	5.57955E-05	0	0	0	
0.219833	0.0502671	0.00242318	0.00147518	6.62144E-05	0	0	0	
0.22	-0.0326073	-0.00712714	0.00147822	9.0405E-05	0	0	0	
0.220167	0.0176125	0.00131689	0.00122766	0.000106337	0	0	0	
0.220333	-0.0179226	0.00231715	0.000955706	0.000111512	0	0	0	
0.2205	0.0342929	0.000765003	0.000852551	8.20976E-05	0	0	0	
0.220667	-0.0377193	-0.00573669	0.00103362	6.67873E-05	0	0	0	
0.220833	0.0464384	0.00750194	0.00128248	8.22852E-05	0	0	0	
0.221	-0.0450715	-0.00326247	0.00143958	0.000132382	0	0	0	
0.221167	0.03065	-0.000324306	0.00137658	0.000171881	0	0	0	
0.221333	-0.0188161	0.00331311	0.00113095	0.000164707	0	0	0	
0.2215	0.0146801	-0.00179175	0.000857111	0.00011338	0	0	0	
0.221667	-0.0295971	0.000357601	0.00080484	7.54105E-05	0	0	0	
0.221833	0.0356441	0.00191361	0.0010695	6.21908E-05	0	0	0	
0.222	-0.0529059	-0.000358303	0.00139074	6.46098E-05	0	0	0	
0.222167	0.0496862	-0.000964186	0.00158192	7.41657E-05	0	0	0	
0.222333	-0.0277547	0.00151338	0.00148683	7.76156E-05	0	0	0	
0.2225	0.0199479	-3.59232E-05	0.00119487	6.73408E-05	0	0	0	
0.222667	-0.020601	-0.00177744	0.000897587	3.58635E-05	0	0	0	
0.222833	0.029581	0.00149934	0.000876189	3.89059E-05	0	0	0	
0.223	-0.044433	0.00114608	0.00115458	9.01732E-05	0	0	0	
0.223167	0.0474831	-0.00543144	0.00149401	0.000144856	0	0	0	
0.223333	-0.0346562	0.00576058	0.00160387	0.000165568	0	0	0	
0.2235	0.0199893	-0.00127304	0.00138303	0.000127017	0	0	0	
0.223667	-0.0148919	6.07972E-05	0.00101433	7.00244E-05	0	0	0	
0.223833	0.0249882	-0.00646669	0.000815289	6.12371E-05	0	0	0	
0.224	-0.0317114	0.00661611	0.000990487	0.000110782	0	0	0	
0.224167	0.0343321	-0.00413853	0.00135016	0.000151288	0	0	0	
0.224333	-0.0445051	0.00167816	0.00160114	0.000134727	0	0	0	
0.2245	0.0301009	0.000877911	0.00157729	7.22744E-05	0	0	0	
0.224667	-0.0204754	-0.000739374	0.00126966	3.23631E-05	0	0	0	
0.224833	0.0153913	0.000341026	0.000941657	1.77283E-05	0	0	0	
0.225	-0.0256849	-0.000939085	0.000809218	2.84099E-05	0	0	0	
0.225167	0.021418	0.0018246	0.000984026	5.55909E-05	0	0	0	
0.225333	-0.0325915	4.03705E-05	0.00121257	8.95461E-05	0	0	0	
0.2255	0.0298608	-0.000446698	0.00136378	0.000109849	0	0	0	
0.225667	-0.0200364	0.000342358	0.00132515	9.8866E-05	0	0	0	
0.225833	0.0197992	-0.00114873	0.00115821	6.97419E-05	0	0	0	
0.226	-0.0235341	0.00348952	0.000953658	4.61867E-05	0	0	0	
0.226167	0.0365294	-0.00577561	0.000958411	6.33288E-05	0	0	0	
0.226333	-0.0386057	0.00144318	0.0011946	8.33799E-05	0	0	0	
0.2265	0.0332766	0.00156818	0.00143535	8.41321E-05	0	0	0	
0.226667	-0.0240104	-0.00091436	0.0014527	6.55915E-05	0	0	0	
0.226833	0.0137075	-0.000413744	0.00123268	5.02553E-05	0	0	0	
0.227	-0.0105268	0.000493684	0.000954462	4.38212E-05	0	0	0	
0.227167	0.0275815	-0.00310522	0.000836426	4.45173E-05	0	0	0	
0.227333	-0.0221566	0.00275542	0.00101803	7.69986E-05	0	0	0	
0.2275	0.0248171	-0.0029713	0.00131283	0.000110996	0	0	0	
0.227667	-0.0348985	0.00207494	0.00152013	0.000107789	0	0	0	
0.227833	0.0235067	0.00045877	0.00147529	7.31864E-05	0	0	0	
0.228	-0.0180739	-0.00140978	0.00120477	4.15138E-05	0	0	0	
0.228167	0.0130949	0.000766112	0.000908001	3.02191E-05	0	0	0	
0.228333	-0.0213663	0.000443673	0.000796964	3.11766E-05	0	0	0	
0.2285	0.0235775	-6.01573E-05	0.000978659	4.21276E-05	0	0	0	
0.228667	-0.032251	0.00192835	0.00122941	5.55608E-05	0	0	0	
0.228833	0.027211	-0.0010123	0.00137661	5.54478E-05	0	0	0	
0.229	-0.0180302	0.000792189	0.00132207	3.86172E-05	0	0	0	
0.229167	0.0157695	0.00074699	0.00112271	2.87392E-05	0	0	0	
0.229333	-0.018221	-0.0043155	0.00090314	2.93591E-05	0	0	0	
0.2295	0.0235038	0.00593502	0.000911868	6.26901E-05	0	0	0	
0.229667	-0.0290673	0.00240038	0.00117336	0.000114486	0	0	0	
0.229833	0.0342097	-0.00554316	0.00147398	0.000159338	0	0	0	
0.23	-0.0263165	0.00452243	0.00155477	0.000149726	0	0	0	
0.230167	0.0137104	-0.000354231	0.00133278	0.000110932	0	0	0	
0.230333	-0.0101791	-0.00265413	0.000995682	7.14722E-05	0	0	0	
0.2305	0.0192484	0.00532015	0.000816191	6.47563E-05	0	0	0	
0.230667	-0.0181284	-0.00343695	0.000961973	7.60574E-05	0	0	0	
0.230833	0.025598	-0.000113356	0.00126909	0.00011358	0	0	0	
0.231	-0.0317436	0.00463723	0.00150431	0.000135973	0	0	0	
0.231167	0.0228383	-0.0030007	0.00150006	0.000126502	0	0	0	
0.231333	-0.0169758	-0.00157641	0.00124868	9.10365E-05	0	0	0	
0.2315	0.0105594	0.00265708	0.000924547	5.76389E-05	0	0	0	
0.231667	-0.0171583	-0.000604116	0.000784138	8.13902E-05	0	0	0	
0.231833	0.0128663	-0.00188859	0.000971572	0.000119878	0	0	0	
0.232	-0.0335726	0.00202662	0.0012634	0.000138622	0	0	0	
0.232167	0.0291588	0.000947952	0.00146063	0.000101041	0	0	0	
0.232333	-0.0142428	-0.00155908	0.00138921	6.23478E-05	0	0	0	
0.2325	0.0135622	-0.00222947	0.00114485	5.69533E-05	0	0	0	
0.232667	-0.0161661	0.00161787	0.000888965	5.78222E-05	0	0	0	
0.232833	0.0198844	0.0050403	0.000874999	7.4297E-05	0	0	0	
0.233	-0.0295624	-0.00463914	0.00110994	8.09823E-05	0	0	0	
0.233167	0.025326	-0.00198471	0.00140114	0.000168518	0	0	0	
0.233333	-0.00899715	0.00907551	0.00150117	0.000253236	0	0	0	
0.2335	0.0102858	-0.0077686	0.00134129	0.000283736	0	0	0	
0.233667	-0.0121957	0.00114231	0.00105844	0.000220264	0	0	0	
0.233833	0.0187174	0.00361966	0.000892944	0.000127416	0	0	0	
0.234	-0.0158595	-0.00596417	0.000999379	0.000108806	0	0	0	
0.234167	0.0139252	0.00149841	0.00125159	0.000165682	0	0	0	
0.234333	-0.0181396	0.00477107	0.0014413	0.000234868	0	0	0	
0.2345	0.0143599	-0.00321046	0.00141799	0.000239377	0	0	0	
0.234667	-0.012423	0.000147415	0.00118339	0.000159052	0	0	0	
0.234833	0.00722146	0.00314515	0.00090575	7.46824E-05	0	0	0	
0.235	-0.0150081	-0.00638136	0.000791755	6.51396E-05	0	0	0	
0.235167	0.00156776	0.00339932	0.00093132	0.000139462	0	0	0	
0.235333	-0.0188879	0.00768165	0.00115571	0.000240236	0	0	0	
0.2355	0.0187634	-0.0121898	0.00134047	0.000294762	0	0	0	
0.235667	-0.00951447	0.00713174	0.00135644	0.000264479	0	0	0	
0.235833	0.0149362	0.00183451	0.00120017	0.00019595	0	0	0	
0.236	-0.0143447	-0.0045128	0.000953648	0.000120207	0	0	0	
0.236167	0.0131629	0.000634623	0.000863197	0.000121165	0	0	0	
0.236333	-0.0220754	0.00499588	0.00105782	0.00015981	0	0	0	
0.2365	0.0238992	-0.00755105	0.00138221	0.000206864	0	0	0	
0.236667	-0.0142505	0.00491305	0.0015345	0.000182379	0	0	0	
0.236833	0.0120307	6.43345E-05	0.00136543	0.000118591	0	0	0	
0.237	-0.00713718	-0.000860837	0.00102793	5.65952E-05	0	0	0	
0.237167	0.0133965	-0.00325037	0.000813836	5.25631E-05	0	0	0	
0.237333	-0.00492017	0.00208347	0.000925193	7.09508E-05	0	0	0	
0.2375	0.0123271	0.000215139	0.00122373	9.79252E-05	0	0	0	
0.237667	-0.0167553	0.000726429	0.00148434	0.000100553	0	0	0	
0.237833	0.0126445	-0.000360654	0.0015076	9.97475E-05	0	0	0	
0.238	-0.0123318	0.00173149	0.00127976	9.55669E-05	0	0	0	
0.238167	0.00820786	-0.00158831	0.000961667	7.47166E-05	0	0	0	
0.238333	-0.00750831	0.00021806	0.000794086	4.71915E-05	0	0	0	
0.2385	-0.00418292	0.00226129	0.000903629	4.211E-05	0	0	0	
0.238667	-0.0184763	-0.00170619	0.00117292	6.58344E-05	0	0	0	
0.238833	0.0171853	-3.23499E-05	0.00139438	9.76475E-05	0	0	0	
0.239	-0.00763509	0.0019942	0.00137352	0.000104241	0	0	0	
0.239167	0.00568206	-0.000499577	0.00115538	7.9097E-05	0	0	0	
0.239333	-0.0189573	-0.00352298	0.000947852	5.00367E-05	0	0	0	
0.2395	0.0460311	0.00870455	0.000950143	6.48812E-05	0	0	0	
0.239667	-0.129836	-0.0106177	0.00146823	0.000207611	0	0	0	
0.239833	0.0201881	0.00132571	0.00201118	0.000289136	0	0	0	
0.24	-0.00291131	0.0119871	0.00206365	0.000376309	0	0	0	
0.240167	0.0134184	-0.00743891	0.00160409	0.000361229	0	0	0	
0.240333	-0.0160583	0.00301698	0.00113308	0.000295611	0	0	0	
0.2405	0.00308698	0.00911933	0.00105063	0.000190654	0	0	0	
0.240667	-0.00591631	-0.00272393	0.00104574	9.30114E-05	0	0	0	
0.240833	-0.0022183	-0.000549364	0.00108999	0.000123976	0	0	0	
0.241	-0.0051712	0.0039291	0.00123617	0.000155138	0	0	0	
0.241167	0.0144075	-0.00378253	0.00144391	0.000159309	0	0	0	
0.241333	-0.00986268	0.00365079	0.00156384	0.000128889	0	0	0	
0.2415	0.000503724	-0.0014845	0.00156987	9.00617E-05	0	0	0	
0.241667	-0.00643198	-0.00258593	0.00155727	5.43832E-05	0	0	0	
0.241833	0.0104265	0.0048832	0.00159564	4.97202E-05	0	0	0	
0.242	-0.0102278	-0.00193587	0.00166815	8.9531E-05	0	0	0	
0.242167	0.0112447	-0.00199209	0.00169681	0.000144696	0	0	0	
0.242333	-0.0103262	0.00238201	0.00165943	0.000148826	0	0	0	
0.2425	0.00997357	0.0017679	0.00160864	0.000109812	0	0	0	
0.242667	-0.0129828	-0.00158726	0.00158453	7.64429E-05	0	0	0	
0.242833	0.0116295	-0.0011768	0.00158501	9.50477E-05	0	0	0	
0.243	-0.0105132	0.00116323	0.00159705	0.000124323	0	0	0	
0.243167	0.00709449	8.41676E-05	0.00161543	0.00012195	0	0	0	
0.243333	-0.0108291	-0.000799896	0.00162409	8.90169E-05	0	0	0	
0.2435	0.00849117	0.001605	0.0016225	6.13583E-05	0	0	0	
0.243667	-0.00777057	-0.00112143	0.00160964	6.45266E-05	0	0	0	
0.243833	0.00563596	-9.74449E-05	0.00160785	9.10276E-05	0	0	0	
0.244	-0.0050664	-0.00084265	0.00161468	0.000105314	0	0	0	
0.244167	0.00374244	0.003807	0.00161976	0.000105103	0	0	0	
0.244333	-0.00473428	9.76651E-05	0.0016121	0.000108973	0	0	0	
0.2445	0.00667091	-0.00515102	0.00161066	0.000120376	0	0	0	
0.244667	-0.00730246	-0.000461532	0.00162368	0.000116177	0	0	0	
0.244833	0.00739597	0.0131443	0.0016172	0.000105479	0	0	0	
0.245	-0.000840719	-0.00660011	0.00157404	0.000176447	0	0	0	
0.245167	-0.000129204	-0.0173154	0.00154245	0.000352488	0	0	0	
0.245333	0.000997016	0.0238277	0.0015851	0.000442358	0	0	0	
0.2455	0.00412565	-0.00357283	0.00167137	0.000468253	0	0	0	
0.245667	-0.00779848	-0.0163402	0.00172146	0.000411895	0	0	0	
0.245833	0.004594	0.0178515	0.00169177	0.000379976	0	0	0	
0.246	-0.00438561	-0.00732855	0.00162613	0.00037372	0	0	0	
0.246167	0.000631648	-0.00514121	0.00157457	0.000388039	0	0	0	
0.246333	0.00118301	0.0121913	0.00154224	0.000416399	0	0	0	
0.2465	-0.00973309	-0.00964584	0.00153902	0.000352623	0	0	0	
0.246667	0.00292169	0.000280514	0.00157352	0.000232021	0	0	0	
0.246833	0.000175222	0.00823493	0.00164026	0.000155474	0	0	0	
0.247	-0.00563075	-0.00986208	0.00167138	0.000136085	0	0	0	
0.247167	-0.00262426	0.00333471	0.00164922	0.00018823	0	0	0	
0.247333	-0.00143747	0.00775985	0.00160474	0.000257618	0	0	0	
0.2475	0.00235692	-0.00855637	0.00158733	0.000257543	0	0	0	
0.247667	-0.00170018	-0.00455521	0.00158322	0.000239086	0	0	0	
0.247833	-0.00292721	0.0133231	0.00157815	0.000184341	0	0	0	
0.248	0.00361493	-0.00606848	0.00158776	0.000214815	0	0	0	
0.248167	-0.00626569	-0.00558074	0.00161613	0.00025321	0	0	0	
0.248333	-0.00347493	0.00660641	0.00165817	0.000241991	0	0	0	
0.2485	0.0115398	0.00347459	0.00171063	0.00019531	0	0	0	
0.248667	-0.0088694	-0.00797973	0.0016472	0.000118952	0	0	0	
0.248833	-0.0680541	-0.0115856	0.00140398	0.000200881	0	0	0	
0.249	0.0152276	0.00392649	0.00264354	0.000584884	0	0	0	
0.249167	-0.018682	0.00281177	0.0027892	0.000870795	0	0	0	
0.249333	0.0106979	0.00380459	0.00282715	0.00079863	0	0	0	
0.2495	-0.00662683	0.00133594	0.00169937	0.000414293	0	0	0	
0.249667	0.008635	-0.00964287	0.00166167	0.000121592	0	0	0	
0.249833	0.00883422	0.0100019	0.00165025	0.00013756	0	0	0	
0.25	0.118575	0.015603	0.00131194	0.000273416	0	0	0	
0.250167	0.192519	0.0439978	0.00254351	0.000719573	0	0	0	
0.250333	-0.022973	-0.00735884	0.00290349	0.000818252	0	0	0	
0.2505	-0.0261862	-0.00266238	0.00301305	0.000702669	0	0	0	
0.250667	0.0277763	-0.00103578	0.00180483	0.0002564	0	0	0	
0.250833	0.0308484	0.0121938	0.00155608	0.000130812	0	0	0	
0.251	0.0271531	-0.0102172	0.00147658	0.000181847	0	0	0	
0.251167	-0.0417716	-0.0143318	0.00129708	0.000326653	0	0	0	
0.251333	0.0326617	0.0191888	0.00143558	0.000417384	0	0	0	
0.2515	-0.0256974	-0.00162505	0.00172416	0.000369353	0	0	0	
0.251667	0.00953351	-0.00960922	0.00179852	0.000273408	0	0	0	
0.251833	0.00602735	0.00852448	0.00165698	0.000176799	0	0	0	
0.252	0.0226267	-0.00977659	0.00151644	0.000193064	0	0	0	
0.252167	-0.01183	0.00754341	0.00153271	0.000211747	0	0	0	
0.252333	0.00510066	0.00238506	0.00160948	0.000290847	0	0	0	
0.2525	-0.0115042	-0.00799397	0.00161075	0.000314948	0	0	0	
0.252667	0.00380846	0.00262188	0.0016061	0.000246096	0	0	0	
0.252833	-0.00522475	0.00534671	0.00162338	0.000162265	0	0	0	
0.253	0.00760663	-0.00632098	0.00162696	0.000108123	0	0	0	
0.253167	-0.0110271	0.000269574	0.00161978	0.000157826	0	0	0	
0.253333	0.0146072	0.00325242	0.00158449	0.000167207	0	0	0	
0.2535	-0.0096449	0.00142923	0.00154316	0.000133136	0	0	0	
0.253667	0.00957023	-0.00540258	0.00152681	7.82217E-05	0	0	0	
0.253833	-0.0150292	0.00715631	0.00153532	7.38012E-05	0	0	0	
0.254	0.0125774	-0.00334997	0.00158256	0.000127415	0	0	0	
0.254167	-0.0112026	-0.0014251	0.00164699	0.000172858	0	0	0	
0.254333	0.0118671	0.00181535	0.00165898	0.000164876	0	0	0	
0.2545	-0.00931331	0.00209624	0.0016093	0.0001089	0	0	0	
0.254667	0.0122253	-0.0050221	0.00157303	6.48291E-05	0	0	0	
0.254833	-0.0149162	0.00289408	0.00157514	8.04516E-05	0	0	0	
0.255	0.00962252	0.000238084	0.00158152	0.000126479	0	0	0	
0.255167	-0.0145278	-0.00173054	0.00157748	0.000136781	0	0	0	
0.255333	0.015376	-0.00108142	0.00158178	0.000104899	0	0	0	
0.2555	-0.0105813	0.00437306	0.00161001	7.27971E-05	0	0	0	
0.255667	0.0130409	-0.00533371	0.00164087	7.45089E-05	0	0	0	
0.255833	-0.0138639	0.00189747	0.00165873	0.000115451	0	0	0	
0.256	0.00739639	0.00146071	0.0016457	0.000154809	0	0	0	
0.256167	-0.0141234	0.00252471	0.00159665	0.000148303	0	0	0	
0.256333	0.0194787	-0.0053594	0.00155212	0.000123645	0	0	0	
0.2565	-0.0201432	0.00112722	0.00157256	0.000122507	0	0	0	
0.256667	0.0138124	0.00325809	0.00163539	0.000138903	0	0	0	
0.256833	-0.00789287	0.00451945	0.00168327	0.00013489	0	0	0	
0.257	0.0114633	-0.0161516	0.00165511	0.000145711	0	0	0	
0.257167	-0.0176189	0.0168788	0.00154417	0.000208043	0	0	0	
0.257333	0.0238206	-0.00247307	0.00144368	0.000331185	0	0	0	
0.2575	-0.024847	-0.0114599	0.00146437	0.000407825	0	0	0	
0.257667	0.019433	0.0125513	0.00160459	0.000379023	0	0	0	
0.257833	-0.0128494	-0.00119914	0.00173634	0.000292225	0	0	0	
0.258	0.00929349	-0.0107741	0.00176411	0.00024469	0	0	0	
0.258167	-0.0102104	0.0146241	0.00169615	0.000237395	0	0	0	
0.258333	0.0135281	-0.00823106	0.00156856	0.000263922	0	0	0	
0.2585	-0.0229838	6.33989E-05	0.00145712	0.000260612	0	0	0	
0.258667	0.0260636	0.00308838	0.00145138	0.000264712	0	0	0	
0.258833	-0.0229055	-0.00255814	0.00157361	0.000206656	0	0	0	
0.259	0.0158904	-0.00220048	0.00169167	0.000140038	0	0	0	
0.259167	-0.0201646	0.00933033	0.00171134	9.89081E-05	0	0	0	
0.259333	0.022515	-0.00585599	0.00165009	0.000133491	0	0	0	
0.2595	-0.02243	-0.00469016	0.00160297	0.000207439	0	0	0	
0.259667	0.0204043	0.00663632	0.0015998	0.000224242	0	0	0	
0.259833	-0.0205834	0.000879592	0.00162324	0.00017855	0	0	0	
0.26	0.020202	-0.00622998	0.00163852	0.000102338	0	0	0	
0.260167	-0.021822	0.00659038	0.00163049	9.17276E-05	0	0	0	
0.260333	0.0227907	-0.0025103	0.00160927	0.000134106	0	0	0	
0.2605	-0.0221044	-0.00316688	0.00160312	0.000180079	0	0	0	
0.260667	0.0202774	0.00303989	0.00160225	0.000168645	0	0	0	
0.260833	-0.0221688	0.0031084	0.00159231	0.000116914	0	0	0	
0.261	0.0217891	-0.00602386	0.00157059	7.78692E-05	0	0	0	
0.261167	-0.0249461	0.00268176	0.001572	0.000111136	0	0	0	
0.261333	0.0224404	-0.000354464	0.00158709	0.000143518	0	0	0	
0.2615	-0.0224022	0.00280618	0.00160199	0.000128608	0	0	0	
0.261667	0.0232475	-0.00386431	0.00159242	8.79582E-05	0	0	0	
0.261833	-0.0308466	0.00309192	0.00160061	7.08986E-05	0	0	0	
0.262	0.0255151	-0.000105814	0.00162605	0.00010143	0	0	0	
0.262167	-0.0212223	-0.0020074	0.00168339	0.000134376	0	0	0	
0.262333	0.0181187	0.00303202	0.00169776	0.000128839	0	0	0	
0.2625	-0.0201819	0.00248365	0.00164879	0.000104637	0	0	0	
0.262667	0.0240257	-0.00619772	0.00156906	8.6313E-05	0	0	0	
0.262833	-0.0284543	0.0053547	0.00153224	9.73914E-05	0	0	0	
0.263	0.0288416	-0.00115807	0.00153569	0.000134894	0	0	0	
0.263167	-0.0333782	-9.40729E-06	0.00157018	0.000157324	0	0	0	
0.263333	0.0320947	-0.00030446	0.00162825	0.000160032	0	0	0	
0.2635	-0.0245512	0.000496201	0.00168223	0.000123601	0	0	0	
0.263667	0.0254052	-0.000388799	0.00168649	8.35831E-05	0	0	0	
0.263833	-0.0270086	0.00195053	0.00163808	6.04965E-05	0	0	0	
0.264	0.0252029	-0.00360209	0.00159427	6.13986E-05	0	0	0	
0.264167	-0.0302574	0.00390919	0.00159051	8.19453E-05	0	0	0	
0.264333	0.0313072	-0.00146078	0.00160653	9.92477E-05	0	0	0	
0.2645	-0.0271729	0.000737556	0.00160501	9.05714E-05	0	0	0	
0.264667	0.0293153	-0.00278658	0.00157657	6.45387E-05	0	0	0	
0.264833	-0.0319385	0.00562822	0.00156287	6.19663E-05	0	0	0	
0.265	0.0297856	-0.00458148	0.00158676	9.39348E-05	0	0	0	
0.265167	-0.0299095	0.000333473	0.00161743	0.000139908	0	0	0	
0.265333	0.0294309	0.00161539	0.00161516	0.000145555	0	0	0	
0.2655	-0.0292323	0.0019146	0.00159462	0.000105921	0	0	0	
0.265667	0.0304002	-0.00330083	0.00156651	6.73121E-05	0	0	0	
0.265833	-0.0322281	0.00278828	0.00155533	6.08756E-05	0	0	0	
0.266	0.031751	-0.00237776	0.00156811	7.80588E-05	0	0	0	
0.266167	-0.0324778	0.0028412	0.00159292	8.43974E-05	0	0	0	
0.266333	0.0312393	-0.00292129	0.00159647	8.71933E-05	0	0	0	
0.2665	-0.0336003	0.00306399	0.00159868	9.2998E-05	0	0	0	
0.266667	0.0299508	-0.00269864	0.00159496	9.84498E-05	0	0	0	
0.266833	-0.0296098	0.00194513	0.00159257	9.68591E-05	0	0	0	
0.267	0.033677	-0.00134015	0.00156896	8.77067E-05	0	0	0	
0.267167	-0.0326934	0.00147436	0.00155254	7.85181E-05	0	0	0	
0.267333	0.035534	-0.00141249	0.00157525	7.74489E-05	0	0	0	
0.2675	-0.0366489	0.00170386	0.00161165	8.14232E-05	0	0	0	
0.267667	0.0311696	-0.00180585	0.00161637	7.79548E-05	0	0	0	
0.267833	-0.0342713	0.00337645	0.00161484	7.43416E-05	0	0	0	
0.268	0.0342638	-0.00349117	0.00161735	8.01123E-05	0	0	0	
0.268167	-0.03045	0.0018077	0.00162561	8.68788E-05	0	0	0	
0.268333	0.0342798	-0.00208024	0.00160975	8.44128E-05	0	0	0	
0.2685	-0.040396	0.00326624	0.00158859	7.75137E-05	0	0	0	
0.268667	0.0365579	-0.00310184	0.00157302	7.96675E-05	0	0	0	
0.268833	-0.0364802	0.00262758	0.00158147	8.93614E-05	0	0	0	
0.269	0.0377268	-0.00392955	0.00159616	9.73405E-05	0	0	0	
0.269167	-0.0386637	0.00290565	0.00161992	0.000105398	0	0	0	
0.269333	0.0383106	0.000343797	0.00163213	0.000118579	0	0	0	
0.2695	-0.035013	-0.00184135	0.00164749	0.000123047	0	0	0	
0.269667	0.03102	0.000336242	0.00165614	9.34938E-05	0	0	0	
0.269833	-0.0275297	0.00837263	0.00161046	9.74193E-05	0	0	0	
0.27	0.0297876	-0.0164978	0.00150514	0.000128703	0	0	0	
0.270167	-0.0438137	0.0133417	0.0014168	0.000233911	0	0	0	
0.270333	0.0517441	0.000989343	0.00141057	0.000336881	0	0	0	
0.2705	-0.0611545	-0.0133733	0.00157808	0.000384331	0	0	0	
0.270667	0.203436	0.0332526	0.0023786	0.00040959	0	0	0	
0.270833	-0.0369856	0.00360865	0.00255538	0.000374059	0	0	0	
0.271	0.0218444	-0.0220652	0.00250707	0.000412143	0	0	0	
0.271167	-0.0183255	0.0233111	0.00171907	0.000489708	0	0	0	
0.271333	0.0333575	-0.0178235	0.00137817	0.000482224	0	0	0	
0.2715	-0.0193259	0.0045911	0.00111736	0.000420499	0	0	0	
0.271667	0.0410928	0.000229028	0.00120505	0.000263734	0	0	0	
0.271833	-0.0255824	0.00223966	0.00148724	0.000178949	0	0	0	
0.272	0.0322839	-0.00424949	0.001728	0.000107355	0	0	0	
0.272167	-0.0395469	0.00144377	0.00166406	8.15206E-05	0	0	0	
0.272333	0.0199673	0.00259142	0.00138127	9.95134E-05	0	0	0	
0.2725	-0.0145531	-0.00329927	0.00106497	9.97399E-05	0	0	0	
0.272667	0.0279061	-0.000555345	0.000844698	8.67319E-05	0	0	0	
0.272833	-0.053194	0.00565714	0.000958107	7.71615E-05	0	0	0	
0.273	0.0427632	-0.007737	0.00120756	9.5086E-05	0	0	0	
0.273167	-0.0371202	0.00586922	0.00144349	0.000119907	0	0	0	
0.273333	0.0213746	-0.00168845	0.00140719	0.000123269	0	0	0	
0.2735	-0.0153276	0.000320958	0.00116751	9.22091E-05	0	0	0	
0.273667	0.0228364	-0.00390176	0.000863511	5.91456E-05	0	0	0	
0.273833	-0.0414676	0.00937103	0.000768549	7.22237E-05	0	0	0	
0.274	0.041654	-0.00506739	0.000956553	0.000123545	0	0	0	
0.274167	-0.0403816	-4.16398E-05	0.00121742	0.000171198	0	0	0	
0.274333	0.0346781	0.00143452	0.00139908	0.000157862	0	0	0	
0.2745	-0.0201345	-0.000763651	0.00134419	0.000102023	0	0	0	
0.274667	0.018681	-0.00140506	0.00111504	5.49373E-05	0	0	0	
0.274833	-0.0247658	0.00296665	0.000857707	2.94822E-05	0	0	0	
0.275	0.0411275	-0.00207914	0.000894365	5.26067E-05	0	0	0	
0.275167	-0.0372015	0.000534415	0.00119408	7.92146E-05	0	0	0	
0.275333	0.0309448	0.000182199	0.00147976	9.06457E-05	0	0	0	
0.2755	-0.0341712	3.77781E-05	0.00149576	6.36462E-05	0	0	0	
0.275667	0.022442	-0.000689378	0.00123824	3.54189E-05	0	0	0	
0.275833	-0.0245208	0.00151094	0.000938459	1.80725E-05	0	0	0	
0.276	0.0444139	-0.00265704	0.000810646	3.34323E-05	0	0	0	
0.276167	-0.0643375	0.00494292	0.00104703	6.32169E-05	0	0	0	
0.276333	0.0503841	-0.00163403	0.00139459	9.08833E-05	0	0	0	
0.2765	-0.0390737	-0.000595577	0.00162924	0.000106716	0	0	0	
0.276667	0.0234418	0.000546785	0.00150016	9.5592E-05	0	0	0	
0.276833	-0.0188341	-0.000739816	0.00116037	7.32969E-05	0	0	0	
0.277	0.0275144	-0.000877125	0.000836429	4.33105E-05	0	0	0	
0.277167	-0.0470169	0.00458992	0.000781889	3.27081E-05	0	0	0	
0.277333	0.0477953	-0.0031636	0.00100169	4.83089E-05	0	0	0	
0.2775	-0.0446536	0.00113093	0.00125508	7.64804E-05	0	0	0	
0.277667	0.0393257	0.000492951	0.00140401	9.25332E-05	0	0	0	
0.277833	-0.0232266	-0.00130312	0.00131808	8.04708E-05	0	0	0	
0.278	0.0212525	0.000351229	0.00108936	5.34006E-05	0	0	0	
0.278167	-0.0279356	0.00156782	0.000844576	2.86761E-05	0	0	0	
0.278333	0.0473155	-0.00476055	0.000866059	3.40921E-05	0	0	0	
0.2785	-0.0442655	0.00472054	0.00111173	5.39278E-05	0	0	0	
0.278667	0.0427967	-0.00390278	0.00141738	8.48942E-05	0	0	0	
0.278833	-0.0346417	0.000772478	0.00149233	9.4492E-05	0	0	0	
0.279	0.0214236	0.000256013	0.00128824	8.08347E-05	0	0	0	
0.279167	-0.026752	0.00042459	0.000966994	4.14825E-05	0	0	0	
0.279333	0.044005	-0.00233933	0.000803707	2.23629E-05	0	0	0	
0.2795	-0.0630198	0.00258184	0.00100505	3.91568E-05	0	0	0	
0.279667	0.0573837	-0.000741364	0.00134207	6.07319E-05	0	0	0	
0.279833	-0.0429521	0.000294522	0.00158129	5.96281E-05	0	0	0	
0.28	0.0269711	0.000193674	0.00151585	4.23738E-05	0	0	0	
0.280167	-0.0197137	0.000733258	0.00121114	3.09942E-05	0	0	0	
0.280333	0.0279661	-0.00108313	0.000889061	2.76682E-05	0	0	0	
0.2805	-0.0493903	0.00270638	0.000796295	2.77733E-05	0	0	0	
0.280667	0.0473502	-0.0041036	0.00097503	4.17568E-05	0	0	0	
0.280833	-0.0505454	0.00311777	0.0012245	6.27056E-05	0	0	0	
0.281	0.045538	-0.00113477	0.00138942	8.2721E-05	0	0	0	
0.281167	-0.027357	-0.000774593	0.00134405	7.28343E-05	0	0	0	
0.281333	0.0211566	-0.000115514	0.00113369	4.83842E-05	0	0	0	
0.2815	-0.0263912	0.00220315	0.000869807	2.49091E-05	0	0	0	
0.281667	0.0487458	-0.00397237	0.000852517	3.20906E-05	0	0	0	
0.281833	-0.0486087	0.00218919	0.00105906	6.44366E-05	0	0	0	
0.282	0.0477699	-0.00179654	0.00134414	9.27722E-05	0	0	0	
0.282167	-0.04207	0.00159979	0.00144855	9.27417E-05	0	0	0	
0.282333	0.0230182	-0.000660113	0.0012913	6.4332E-05	0	0	0	
0.2825	-0.0256078	0.00130261	0.00100707	3.4958E-05	0	0	0	
0.282667	0.045137	-0.00315555	0.000820625	2.40539E-05	0	0	0	
0.282833	-0.0650237	0.00432286	0.000990342	4.58953E-05	0	0	0	
0.283	0.0605667	-0.00170467	0.00131116	7.45676E-05	0	0	0	
0.283167	-0.0496481	0.00129935	0.00158881	8.5404E-05	0	0	0	
0.283333	0.027808	-0.00120657	0.00154799	6.95106E-05	0	0	0	
0.2835	-0.0219125	0.00229838	0.00124673	4.41224E-05	0	0	0	
0.283667	0.0336767	0.00241621	0.000899143	5.1974E-05	0	0	0	
0.283833	-0.0581519	-0.0140252	0.000819098	0.000104038	0	0	0	
0.284	0.0580177	0.0118238	0.00106926	0.000177487	0	0	0	
0.284167	-0.0547473	-0.000712916	0.00137231	0.000217565	0	0	0	
0.284333	0.0420512	-0.00987362	0.00153501	0.00024866	0	0	0	
0.2845	-0.0225888	0.00837244	0.00139425	0.000228269	0	0	0	
0.284667	0.0237479	-0.000532475	0.00108093	0.000201971	0	0	0	
0.284833	-0.0418869	-0.0118084	0.000794691	0.000169833	0	0	0	
0.285	0.0704304	0.00852308	0.000861276	0.00018713	0	0	0	
0.285167	-0.0645374	-0.00232877	0.00118772	0.000173841	0	0	0	
0.285333	0.0511954	-0.00222073	0.00156652	0.000132595	0	0	0	
0.2855	-0.0344579	0.00168461	0.00164004	7.10275E-05	0	0	0	
0.285667	0.0198214	-0.00184517	0.00139602	4.72041E-05	0	0	0	
0.285833	-0.0274945	-0.0015554	0.000987595	5.38685E-05	0	0	0	
0.286	0.0518441	0.00686229	0.000754086	9.3479E-05	0	0	0	
0.286167	-0.0778197	-0.00607619	0.000956926	0.000116604	0	0	0	
0.286333	0.0654684	-0.00593343	0.00132169	0.00013631	0	0	0	
0.2865	-0.0542543	0.0103911	0.00161345	0.000129186	0	0	0	
0.286667	0.0340103	-0.0053817	0.00156468	0.000158551	0	0	0	
0.286833	-0.0228398	-0.00182072	0.00126547	0.000158943	0	0	0	
0.287	0.0301489	0.00205324	0.000923634	0.000121458	0	0	0	
0.287167	-0.0576001	0.00511688	0.000812124	8.74991E-05	0	0	0	
0.287333	0.0603483	-0.00936493	0.00101999	8.03545E-05	0	0	0	
0.2875	-0.0617386	0.00400649	0.00126938	0.000111393	0	0	0	
0.287667	0.0558674	0.00126155	0.00145569	0.000144143	0	0	0	
0.287833	-0.0311929	-0.00363716	0.00138643	0.00012643	0	0	0	
0.288	0.0241526	-1.15897E-05	0.00117882	0.000100365	0	0	0	
0.288167	-0.0319277	0.00321949	0.000880719	5.74477E-05	0	0	0	
0.288333	0.058282	-0.00572913	0.000848635	6.70098E-05	0	0	0	
0.2885	-0.0566794	0.00241894	0.00103749	8.59939E-05	0	0	0	
0.288667	0.0551324	-0.000938642	0.00135898	9.75296E-05	0	0	0	
0.288833	-0.0425451	7.21258E-05	0.00148979	7.01252E-05	0	0	0	
0.289	0.0237695	-0.00145145	0.00133373	4.11429E-05	0	0	0	
0.289167	-0.0292778	0.00200666	0.00100109	2.43774E-05	0	0	0	
0.289333	0.0529934	-0.00332756	0.000786489	5.44163E-05	0	0	0	
0.2895	-0.07134	0.00131683	0.000960078	9.81652E-05	0	0	0	
0.289667	0.0770777	0.00253562	0.00131976	0.00013108	0	0	0	
0.289833	-0.0627518	-0.00467933	0.00164246	0.000126886	0	0	0	
0.29	0.0307959	0.00311506	0.00163982	9.79356E-05	0	0	0	
0.290167	-0.0208886	0.00110838	0.00133059	7.74373E-05	0	0	0	
0.290333	0.0296613	-0.00387871	0.000920429	5.94082E-05	0	0	0	
0.2905	-0.0536049	0.00655647	0.000750401	7.93958E-05	0	0	0	
0.290667	0.0629296	-0.00233589	0.000930747	9.09333E-05	0	0	0	
0.290833	-0.0635237	0.00152593	0.00118756	0.000104621	0	0	0	
0.291	0.05602	-0.0018504	0.0013924	8.00445E-05	0	0	0	
0.291167	-0.0317912	0.000858222	0.00134254	5.57526E-05	0	0	0	
0.291333	0.0243204	-0.000995125	0.0011267	3.33718E-05	0	0	0	
0.2915	-0.0348778	0.0027886	0.000856639	2.49715E-05	0	0	0	
0.291667	0.0617839	-0.00348383	0.000858868	3.74322E-05	0	0	0	
0.291833	-0.0578511	0.00269266	0.0010672	5.27204E-05	0	0	0	
0.292	0.0603407	-0.00203919	0.00136667	6.25038E-05	0	0	0	
0.292167	-0.0499245	0.00107568	0.0014585	5.02751E-05	0	0	0	
0.292333	0.0293882	-0.000858361	0.00130535	3.48562E-05	0	0	0	
0.2925	-0.0323326	0.000717682	0.001013	2.04289E-05	0	0	0	
0.292667	0.0544382	-0.00224904	0.000829566	1.81905E-05	0	0	0	
0.292833	-0.0729955	0.00316944	0.00101472	2.99848E-05	0	0	0	
0.293	0.073234	-0.00401329	0.00134283	4.96746E-05	0	0	0	
0.293167	-0.0562625	0.00314849	0.00157872	6.6701E-05	0	0	0	
0.293333	0.0335098	-0.00139	0.00151831	6.44269E-05	0	0	0	
0.2935	-0.0247702	0.000586331	0.00120605	4.55083E-05	0	0	0	
0.293667	0.0346185	-0.000846489	0.000875956	2.5395E-05	0	0	0	
0.293833	-0.0652657	0.00297501	0.000809916	2.18677E-05	0	0	0	
0.294	0.0684485	-0.0035643	0.0010601	3.96241E-05	0	0	0	
0.294167	-0.0664534	0.00441371	0.001333	6.04417E-05	0	0	0	
0.294333	0.0575414	-0.00271222	0.00148748	7.6041E-05	0	0	0	
0.2945	-0.0319511	0.000284374	0.00136608	6.27477E-05	0	0	0	
0.294667	0.0257906	-0.000984902	0.00111882	4.10318E-05	0	0	0	
0.294833	-0.0383233	0.00320331	0.000831785	2.51547E-05	0	0	0	
0.295	0.0650837	-0.00450033	0.000844935	4.37984E-05	0	0	0	
0.295167	-0.0604825	0.00337219	0.00104111	6.81858E-05	0	0	0	
0.295333	0.061385	-0.00506986	0.00133079	8.61346E-05	0	0	0	
0.2955	-0.0518892	0.00507782	0.00142969	9.71049E-05	0	0	0	
0.295667	0.0304033	-0.00147118	0.00130746	8.67584E-05	0	0	0	
0.295833	-0.0303001	-0.000742514	0.00102181	6.46975E-05	0	0	0	
0.296	0.0571795	-0.00556261	0.000832612	6.24764E-05	0	0	0	
0.296167	-0.0766704	0.0138198	0.00101652	0.000108848	0	0	0	
0.296333	0.07434	-0.00935983	0.0013347	0.00019753	0	0	0	
0.2965	-0.0659102	-0.00829756	0.00158502	0.000322512	0	0	0	
0.296667	0.0404609	0.0128172	0.00153351	0.000387274	0	0	0	
0.296833	-0.025966	-0.00557342	0.00124927	0.000336704	0	0	0	
0.297	0.0337217	-0.0056012	0.000912563	0.000236946	0	0	0	
0.297167	-0.0637723	0.0161606	0.000799193	0.000170918	0	0	0	
0.297333	0.0734298	-0.0133807	0.00102872	0.000230215	0	0	0	
0.2975	-0.0771443	0.000134038	0.00130315	0.00028455	0	0	0	
0.297667	0.0698887	0.00814185	0.00152932	0.000338158	0	0	0	
0.297833	-0.0386455	-0.00713891	0.00144179	0.000291127	0	0	0	
0.298	0.0301698	0.000664595	0.00122076	0.000208972	0	0	0	
0.298167	-0.035021	0.00880371	0.000900713	0.000141592	0	0	0	
0.298333	0.0578705	-0.0133611	0.000837397	0.000154715	0	0	0	
0.2985	-0.0634171	0.00752849	0.000947388	0.0001923	0	0	0	
0.298667	0.0732315	0.00491458	0.00122392	0.000258128	0	0	0	
0.298833	-0.0578362	-0.0118361	0.00136587	0.000291684	0	0	0	
0.299	0.0382163	0.00658656	0.00131162	0.000270811	0	0	0	
0.299167	-0.0338133	0.00104022	0.00106003	0.000196316	0	0	0	
0.299333	0.0521222	-0.0041356	0.000871487	0.000115146	0	0	0	
0.2995	-0.0691004	0.00347649	0.00101064	8.58971E-05	0	0	0	
0.299667	0.0750611	-0.00288784	0.00127045	6.64576E-05	0	0	0	
0.299833	-0.06619	0.00156722	0.00149862	5.83644E-05	0	0	0	
0.3	0.041374	-0.00186747	0.00145037	5.10739E-05	0	0	0	
0.300167	-0.0310112	0.000877809	0.00118394	4.36804E-05	0	0	0	
0.300333	0.0415419	-8.69298E-05	0.000895267	3.94892E-05	0	0	0	
0.3005	-0.0736214	0.000385362	0.000882115	3.22798E-05	0	0	0	
0.300667	0.0748131	-0.00242836	0.00115237	2.71906E-05	0	0	0	
0.300833	-0.0710176	0.00505391	0.00141706	4.0461E-05	0	0	0	
0.301	0.0645353	-0.00679832	0.00153169	6.70286E-05	0	0	0	
0.301167	-0.0385758	0.00269971	0.00138268	9.51715E-05	0	0	0	
0.301333	0.0315878	-0.0004303	0.00114257	8.85684E-05	0	0	0	
0.3015	-0.0367141	0.00128798	0.000867492	6.20177E-05	0	0	0	
0.301667	0.0599334	-0.00336805	0.000842515	4.46127E-05	0	0	0	
0.301833	-0.0644546	0.00353337	0.000988009	5.70377E-05	0	0	0	
0.302	0.0642422	-0.00500296	0.00123822	7.61001E-05	0	0	0	
0.302167	-0.0475511	0.00347702	0.0013345	8.65192E-05	0	0	0	
0.302333	0.0337321	0.000233925	0.00120988	6.81847E-05	0	0	0	
0.3025	-0.0362655	0.000148153	0.000952652	4.53792E-05	0	0	0	
0.302667	0.0551281	-0.00529113	0.00079276	5.07447E-05	0	0	0	
0.302833	-0.0712779	0.00942555	0.000974557	8.97979E-05	0	0	0	
0.303	0.0821291	-0.00715533	0.00128105	0.000133999	0	0	0	
0.303167	-0.0675534	0.00549703	0.00155074	0.000140022	0	0	0	
0.303333	0.0386384	-0.00215948	0.00149548	0.000117521	0	0	0	
0.3035	-0.0301171	0.00013434	0.00119715	7.89838E-05	0	0	0	
0.303667	0.0396092	-0.00166513	0.000865042	4.41328E-05	0	0	0	
0.303833	-0.069203	0.00691331	0.000828817	4.32228E-05	0	0	0	
0.304	0.0776418	-0.00730725	0.00109776	8.44583E-05	0	0	0	
0.304167	-0.0783888	0.00531892	0.00140045	0.000114366	0	0	0	
0.304333	0.0625329	-0.00245854	0.00153389	0.000119934	0	0	0	
0.3045	-0.0354615	-0.000942246	0.00137002	7.77654E-05	0	0	0	
0.304667	0.0310451	-0.0010657	0.00107767	5.85673E-05	0	0	0	
0.304833	-0.0440754	0.00994961	0.000818499	6.54101E-05	0	0	0	
0.305	0.0690903	-0.0129521	0.000865944	0.000133557	0	0	0	
0.305167	-0.0701731	0.00788227	0.00106177	0.000178583	0	0	0	
0.305333	0.0707193	-0.0022112	0.00133794	0.000197502	0	0	0	
0.3055	-0.0573603	-0.0010652	0.00142438	0.000144504	0	0	0	
0.305667	0.0361551	5.51944E-05	0.00130628	9.17326E-05	0	0	0	
0.305833	-0.0359001	0.00264865	0.00103136	4.73175E-05	0	0	0	
0.306	0.0604319	-0.00505824	0.000848251	4.56934E-05	0	0	0	
0.306167	-0.0795815	0.00456497	0.00102027	8.38794E-05	0	0	0	
0.306333	0.0832541	-0.000532964	0.00134247	0.000104477	0	0	0	
0.3065	-0.0729798	0.00071818	0.00158918	9.22817E-05	0	0	0	
0.306667	0.0455784	-0.000370271	0.00153493	6.24391E-05	0	0	0	
0.306833	-0.0319396	0.00235254	0.00122653	4.53925E-05	0	0	0	
0.307	0.0415712	-0.00358651	0.000920569	5.081E-05	0	0	0	
0.307167	-0.0704094	0.00591813	0.000867716	7.2609E-05	0	0	0	
0.307333	0.0746604	-0.00457271	0.00111046	9.71803E-05	0	0	0	
0.3075	-0.0754411	0.00375229	0.0013451	0.00011061	0	0	0	
0.307667	0.0665218	-0.00435346	0.00145867	0.000104039	0	0	0	
0.307833	-0.0383885	0.00166133	0.00132663	8.26211E-05	0	0	0	
0.308	0.0317017	-0.000850023	0.00110113	6.23953E-05	0	0	0	
0.308167	-0.0429498	0.00112273	0.000850508	3.66861E-05	0	0	0	
0.308333	0.0682916	-0.00337733	0.00085247	3.72065E-05	0	0	0	
0.3085	-0.0708521	0.00272704	0.0010226	5.68837E-05	0	0	0	
0.308667	0.0730384	-0.00213171	0.00129122	6.92781E-05	0	0	0	
0.308833	-0.0578085	-6.06091E-05	0.00139453	5.77294E-05	0	0	0	
0.309	0.0360765	-0.00151809	0.00127614	3.97533E-05	0	0	0	
0.309167	-0.0368745	0.00198291	0.00100534	3.14949E-05	0	0	0	
0.309333	0.0640675	0.000613297	0.000826421	6.10742E-05	0	0	0	
0.3095	-0.0793901	-0.00387968	0.00101257	8.755E-05	0	0	0	
0.309667	0.0848153	0.00320677	0.00132461	0.00010433	0	0	0	
0.309833	-0.0725524	0.00146213	0.00157742	0.000115048	0	0	0	
0.31	0.041691	-0.00320386	0.00150134	0.000118726	0	0	0	
0.310167	-0.028485	0.00336543	0.00117933	0.0001107	0	0	0	
0.310333	0.0414162	-0.00243136	0.000848835	7.92505E-05	0	0	0	
0.3105	-0.0794868	0.00354112	0.000834739	6.9158E-05	0	0	0	
0.310667	0.0843346	-0.00159972	0.00117008	6.76111E-05	0	0	0	
0.310833	-0.0786459	0.0035016	0.0014605	6.96016E-05	0	0	0	
0.311	0.0686979	-0.0044651	0.00157153	6.73831E-05	0	0	0	
0.311167	-0.0386969	0.00254472	0.00136363	6.93321E-05	0	0	0	
0.311333	0.0311322	0.000779875	0.00109131	6.67194E-05	0	0	0	
0.3115	-0.0384304	-0.00223148	0.000809681	4.65337E-05	0	0	0	
0.311667	0.0644431	-0.000943936	0.000816306	5.84756E-05	0	0	0	
0.311833	-0.0651713	0.00529431	0.000959308	9.75807E-05	0	0	0	
0.312	0.0754555	-0.00886001	0.00121475	0.000147256	0	0	0	
0.312167	-0.0618168	0.00575585	0.00134003	0.000162716	0	0	0	
0.312333	0.0387278	-0.000189729	0.00126949	0.000124128	0	0	0	
0.3125	-0.0367116	-0.000574405	0.00103594	6.75806E-05	0	0	0	
0.312667	0.0585915	-0.00446637	0.000838634	6.42391E-05	0	0	0	
0.312833	-0.0751376	0.00932904	0.000982426	0.000110631	0	0	0	
0.313	0.0834946	-0.0088437	0.00127407	0.000163898	0	0	0	
0.313167	-0.072695	0.00554622	0.00151385	0.000166698	0	0	0	
0.313333	0.0444121	-0.00124676	0.00145861	0.000146592	0	0	0	
0.3135	-0.0341535	-0.000847823	0.0011668	0.000111002	0	0	0	
0.313667	0.0440213	-0.000917989	0.000883473	7.05372E-05	0	0	0	
0.313833	-0.0737769	0.00327683	0.000874186	4.06145E-05	0	0	0	
0.314	0.080059	-0.00187761	0.00114512	3.93912E-05	0	0	0	
0.314167	-0.0788093	0.00202616	0.0014016	4.67853E-05	0	0	0	
0.314333	0.0629979	-0.00171744	0.00149996	4.80021E-05	0	0	0	
0.3145	-0.0351087	0.000502081	0.00130058	3.89458E-05	0	0	0	
0.314667	0.0322091	-0.00180372	0.00101743	3.83552E-05	0	0	0	
0.314833	-0.0480582	0.00655353	0.000782479	4.76274E-05	0	0	0	
0.315	0.0752891	-0.00690626	0.000870997	8.14351E-05	0	0	0	
0.315167	-0.0791118	0.00553675	0.00109864	0.000109908	0	0	0	
0.315333	0.0782411	-0.00440608	0.00138598	0.00012862	0	0	0	
0.3155	-0.0555636	0.00249441	0.00144836	0.000111213	0	0	0	
0.315667	0.035252	-0.00119817	0.00128959	8.02055E-05	0	0	0	
0.315833	-0.0360469	0.000887559	0.000985935	4.20121E-05	0	0	0	
0.316	0.0632121	-0.0019912	0.000805384	2.57416E-05	0	0	0	
0.316167	-0.0808835	0.00378238	0.00100513	3.5093E-05	0	0	0	
0.316333	0.0877366	-0.00634839	0.00130877	6.35399E-05	0	0	0	
0.3165	-0.0770727	0.00475001	0.00156753	9.40286E-05	0	0	0	
0.316667	0.0472857	-0.00231613	0.00150116	9.27926E-05	0	0	0	
0.316833	-0.0338603	0.000485689	0.00122066	7.00894E-05	0	0	0	
0.317	0.0414715	-4.67275E-05	0.000907741	3.55354E-05	0	0	0	
0.317167	-0.0742352	0.000796445	0.000868005	1.96993E-05	0	0	0	
0.317333	0.081543	-0.00405811	0.0011394	2.47376E-05	0	0	0	
0.3175	-0.0852716	0.00567995	0.00141862	5.1931E-05	0	0	0	
0.317667	0.0699426	-0.00573701	0.00155238	8.56709E-05	0	0	0	
0.317833	-0.0386851	0.00239617	0.00136918	9.49368E-05	0	0	0	
0.318	0.0337468	-0.000520143	0.00108715	7.55403E-05	0	0	0	
0.318167	-0.0460797	0.00108289	0.000820586	4.38867E-05	0	0	0	
0.318333	0.0704191	-0.00417648	0.000871565	3.57912E-05	0	0	0	
0.3185	-0.0737387	0.00467294	0.00105924	5.53043E-05	0	0	0	
0.318667	0.0797993	-0.00451216	0.00132232	8.22302E-05	0	0	0	
0.318833	-0.0607062	0.00165225	0.00140318	8.25379E-05	0	0	0	
0.319	0.0388253	-1.4094E-05	0.00128442	5.90959E-05	0	0	0	
0.319167	-0.0364336	2.80539E-06	0.00101504	2.85665E-05	0	0	0	
0.319333	0.0623771	-0.00193427	0.000826254	1.47194E-05	0	0	0	
0.3195	-0.075777	0.004933	0.000988055	3.32862E-05	0	0	0	
0.319667	0.0839659	-0.00740182	0.0012694	7.14335E-05	0	0	0	
0.319833	-0.0733693	0.00520904	0.00149406	0.000104252	0	0	0	
0.32	0.049283	-0.00137689	0.0014385	0.000104145	0	0	0	
0.320167	-0.0360379	-0.00156559	0.00117949	8.24942E-05	0	0	0	
0.320333	0.0395288	-0.000387609	0.000904431	6.03559E-05	0	0	0	
0.3205	-0.0578694	0.00878889	0.000872656	7.14383E-05	0	0	0	
0.320667	-0.0764434	-0.030556	0.0011184	0.000174893	0	0	0	
0.320833	-0.0785158	0.00122473	0.00127621	0.000250393	0	0	0	
0.321	0.0857352	0.00804608	0.00146499	0.000288824	0	0	0	
0.321167	-0.0764752	-0.004561	0.0015214	0.000271447	0	0	0	
0.321333	0.069055	0.00166674	0.00154908	0.000213683	0	0	0	
0.3215	-0.09702	0.00394452	0.00148516	0.000150599	0	0	0	
0.321667	0.0826568	-0.00641464	0.00150662	0.000100973	0	0	0	
0.321833	-0.0930422	0.0140342	0.00163859	0.000136711	0	0	0	
0.322	0.0959593	-0.0154755	0.00176122	0.000209022	0	0	0	
0.322167	-0.0855447	0.00417698	0.00174769	0.000254159	0	0	0	
0.322333	0.0895061	0.00937699	0.00172528	0.000291102	0	0	0	
0.3225	-0.0963103	-0.00919942	0.00170841	0.000253563	0	0	0	
0.322667	0.0793066	-0.0040881	0.0017089	0.000279911	0	0	0	
0.322833	-0.0715427	0.0164861	0.00164318	0.000296592	0	0	0	
0.323	0.0776165	-0.017524	0.00153591	0.000349005	0	0	0	
0.323167	-0.0817779	0.00840616	0.001479	0.000318255	0	0	0	
0.323333	0.0905301	-0.000401336	0.0015652	0.000268942	0	0	0	
0.3235	-0.0948291	-0.000998582	0.00165387	0.000198356	0	0	0	
0.323667	0.0876043	-0.000284917	0.00171937	0.000108616	0	0	0	
0.323833	-0.0784704	0.00413701	0.00168703	6.67579E-05	0	0	0	
0.324	0.0809856	-0.00957368	0.00161753	8.72323E-05	0	0	0	
0.324167	-0.0776295	0.00925427	0.00153944	0.000139148	0	0	0	
0.324333	0.0814525	-0.00141938	0.00153178	0.000157779	0	0	0	
0.3245	-0.0840656	-0.00310287	0.00154495	0.000132842	0	0	0	
0.324667	0.0819895	-0.00173736	0.00156995	0.000119321	0	0	0	
0.324833	-0.0794543	0.010189	0.0015744	0.000138339	0	0	0	
0.325	0.0821536	-0.0100479	0.00156259	0.000179326	0	0	0	
0.325167	-0.0833729	0.00551549	0.00156098	0.000183277	0	0	0	
0.325333	0.0857395	-0.000924453	0.00157996	0.000143974	0	0	0	
0.3255	-0.0852042	0.001327	0.00160903	8.87025E-05	0	0	0	
0.325667	0.0808228	-0.00503665	0.00161843	7.69421E-05	0	0	0	
0.325833	-0.0820672	0.00820481	0.00159828	8.9482E-05	0	0	0	
0.326	0.0843931	-0.00470835	0.00159004	0.000122372	0	0	0	
0.326167	-0.0826675	0.000535686	0.00158229	0.000104077	0	0	0	
0.326333	0.0813787	-0.00276111	0.00158858	8.51764E-05	0	0	0	
0.3265	-0.0826778	0.0077854	0.00156962	8.14766E-05	0	0	0	
0.326667	0.0875924	-0.00835168	0.00159325	0.000115514	0	0	0	
