0	0.000116752	0.00341193	1.16752E-08	3.41193E-07	0	0	0	
0.000166667	0.00348314	-0.00305454	3.99306E-05	2.2284E-05	0	0	0	
0.000333333	-0.00386373	-0.00326232	8.88877E-05	7.43664E-05	0	0	0	
0.0005	0.00361109	0.00465412	0.000131847	9.96301E-05	0	0	0	
0.000666667	-0.00324491	0.00118754	0.00013549	0.000110341	0	0	0	
0.000833333	0.00294576	-0.000812562	0.000127233	6.42989E-05	0	0	0	
0.001	-0.00161486	-0.00290004	0.000118303	5.6239E-05	0	0	0	
0.00116667	0.00121867	-0.00240284	0.000119147	5.73583E-05	0	0	0	
0.00133333	0.000691965	0.00756753	0.000144601	8.61536E-05	0	0	0	
0.0015	0.000988679	0.000108516	0.000172437	0.00011461	0	0	0	
0.00166667	0.000139417	-0.00464309	0.00017361	0.000114479	0	0	0	
0.00183333	-0.00280986	-0.000630161	0.00015644	0.000108029	0	0	0	
0.002	0.000310049	0.00133007	0.00015963	7.53182E-05	0	0	0	
0.00216667	-0.00183781	0.00153057	0.000196406	5.47181E-05	0	0	0	
0.00233333	0.000703588	0.000649602	0.000219937	3.58041E-05	0	0	0	
0.0025	7.43691E-05	-6.53901E-05	0.000209781	2.61396E-05	0	0	0	
0.00266667	-0.000661541	-0.00333789	0.000185184	3.2545E-05	0	0	0	
0.00283333	0.00237912	0.000956945	0.000176671	3.61285E-05	0	0	0	
0.003	-0.00440623	0.00104856	0.000171086	6.04347E-05	0	0	0	
0.00316667	-0.0014761	0.000947781	0.000156589	4.72336E-05	0	0	0	
0.00333333	0.00736375	-0.00122949	0.000159441	4.58093E-05	0	0	0	
0.0035	-0.00161299	-0.000673804	0.000191406	2.43769E-05	0	0	0	
0.00366667	-0.00352676	-0.00205636	0.000248566	3.9584E-05	0	0	0	
0.00383333	0.00490944	0.00304499	0.000269731	4.77164E-05	0	0	0	
0.004	-0.0052874	0.000401557	0.000253495	6.31254E-05	0	0	0	
0.00416667	0.00511156	-0.000927515	0.000205181	5.47906E-05	0	0	0	
0.00433333	0.00184589	0.000166104	0.000153755	4.49192E-05	0	0	0	
0.0045	-0.00722767	-0.0016628	0.000129442	3.02851E-05	0	0	0	
0.00466667	0.00747439	0.000737817	0.00013546	2.73871E-05	0	0	0	
0.00483333	-0.00479103	0.00205764	0.000198322	4.17694E-05	0	0	0	
0.005	-0.0011301	-0.000518756	0.0002743	4.1028E-05	0	0	0	
0.00516667	0.00314343	-0.00173318	0.000311995	4.63136E-05	0	0	0	
0.00533333	-0.0039159	-0.000677795	0.000286848	2.81547E-05	0	0	0	
0.0055	0.0040534	0.00281356	0.000240374	3.31475E-05	0	0	0	
0.00566667	-0.00299078	-0.000282065	0.000211808	3.88674E-05	0	0	0	
0.00583333	0.00278787	-0.000823101	0.000189162	3.82592E-05	0	0	0	
0.006	0.00331711	-0.000626327	0.000155845	3.42034E-05	0	0	0	
0.00616667	-0.00631884	-0.00311698	0.000130985	2.96105E-05	0	0	0	
0.00633333	0.00680223	0.00382176	0.000153452	4.49304E-05	0	0	0	
0.0065	-0.00345484	0.00199476	0.000217028	7.42299E-05	0	0	0	
0.00666667	0.000727505	-0.00389659	0.000285646	7.924E-05	0	0	0	
0.00683333	0.00119075	-0.000936155	0.000301418	8.29241E-05	0	0	0	
0.007	0.00116908	0.00104857	0.000270034	5.23282E-05	0	0	0	
0.00716667	-0.00217381	0.00099709	0.000216774	4.58565E-05	0	0	0	
0.00733333	0.00421289	0.00079264	0.00018039	3.94763E-05	0	0	0	
0.0075	-0.00297146	-0.00340829	0.000163237	5.56135E-05	0	0	0	
0.00766667	0.00304191	0.000461165	0.000168701	5.84719E-05	0	0	0	
0.00783333	-0.00337372	0.00230696	0.000188493	4.92898E-05	0	0	0	
0.008	0.00320715	0.000209997	0.000213958	5.29636E-05	0	0	0	
0.00816667	-0.00115683	-0.0015261	0.000225861	4.29364E-05	0	0	0	
0.00833333	0.00187431	-0.00209501	0.000228429	5.5101E-05	0	0	0	
0.0085	-0.00161486	0.00106852	0.000226546	3.75371E-05	0	0	0	
0.00866667	-0.00371078	0.000806992	0.000222791	4.10815E-05	0	0	0	
0.00883333	-0.00059599	0.000914674	0.000213608	3.28022E-05	0	0	0	
0.009	0.00344147	-0.00402986	0.00018973	4.092E-05	0	0	0	
0.00916667	-0.00238818	0.000872774	0.000162824	4.61181E-05	0	0	0	
0.00933333	0.00481064	0.000168294	0.000159568	3.60772E-05	0	0	0	
0.0095	-0.00713986	0.000129092	0.00020104	3.03963E-05	0	0	0	
0.00966667	0.00160057	0.000147105	0.000254179	2.04353E-05	0	0	0	
0.00983333	0.0026262	-0.00307016	0.000293156	2.97725E-05	0	0	0	
0.01	-0.00115311	0.000530559	0.000287502	3.28029E-05	0	0	0	
0.0101667	0.000627262	0.0015045	0.000255389	4.68683E-05	0	0	0	
0.0103333	0.000233115	-0.00149587	0.000211237	4.72124E-05	0	0	0	
0.0105	-0.00440509	0.000613645	0.000177251	4.1696E-05	0	0	0	
0.0106667	0.00780149	0.000184549	0.000174673	2.95256E-05	0	0	0	
0.0108333	-0.00463514	-0.00254587	0.000185702	3.12266E-05	0	0	0	
0.011	0.00150681	0.000718345	0.000207821	3.12907E-05	0	0	0	
0.0111667	0.00142365	0.000369407	0.000223812	3.09857E-05	0	0	0	
0.0113333	0.00199664	0.000475902	0.000224893	1.79952E-05	0	0	0	
0.0115	-0.00359808	-0.00115164	0.00020954	1.50064E-05	0	0	0	
0.0116667	-0.000291716	0.000778936	0.000200707	1.94028E-05	0	0	0	
0.0118333	0.00233157	0.000398349	0.000208985	3.18473E-05	0	0	0	
0.012	-0.00274425	-7.78858E-05	0.000190265	3.02683E-05	0	0	0	
0.0121667	-0.0021326	-0.00223622	0.00014531	2.50858E-05	0	0	0	
0.0123333	0.00745271	0.00126608	0.000138309	2.44695E-05	0	0	0	
0.0125	-0.00439173	0.00209823	0.00019218	3.2922E-05	0	0	0	
0.0126667	0.0012851	0.00155484	0.000261	4.46364E-05	0	0	0	
0.0128333	0.00212418	-0.00344203	0.000290353	4.92326E-05	0	0	0	
0.013	-0.00188668	-0.00261725	0.000279239	7.85842E-05	0	0	0	
0.0131667	-0.000932428	0.00495133	0.000232233	8.35404E-05	0	0	0	
0.0133333	0.0041699	0.00308337	0.000180869	0.00011179	0	0	0	
0.0135	-0.00249888	-0.00297913	0.000163002	8.57965E-05	0	0	0	
0.0136667	0.000463887	-0.00208796	0.000188766	0.000103803	0	0	0	
0.0138333	0.000296263	0.00058534	0.000216842	7.70023E-05	0	0	0	
0.014	-0.000504587	0.00485301	0.00022262	8.50027E-05	0	0	0	
0.0141667	-0.00295148	0.00242906	0.000199191	9.30708E-05	0	0	0	
0.0143333	0.00600824	-0.00456482	0.000170998	0.000103759	0	0	0	
0.0145	-0.00472788	-0.0031477	0.000174167	0.000116795	0	0	0	
0.0146667	0.00259541	0.00305782	0.000236042	8.48016E-05	0	0	0	
0.0148333	0.000335459	0.00376995	0.000299924	9.3212E-05	0	0	0	
0.015	-0.00201511	-0.00126352	0.000310896	7.75602E-05	0	0	0	
0.0151667	0.00136848	-0.00325302	0.000249876	8.57466E-05	0	0	0	
0.0153333	0.00391606	0.00109551	0.000171316	7.20344E-05	0	0	0	
0.0155	-0.00498262	0.000964161	0.000130227	7.04831E-05	0	0	0	
0.0156667	0.0047083	0.00217606	0.000140298	5.0662E-05	0	0	0	
0.0158333	-0.00402572	-0.0013581	0.000181807	4.30519E-05	0	0	0	
0.016	0.00263893	-0.00269268	0.000216774	4.6243E-05	0	0	0	
0.0161667	-0.000753816	0.00111716	0.000221653	5.26295E-05	0	0	0	
0.0163333	0.00196271	0.00223557	0.000193312	5.33058E-05	0	0	0	
0.0165	-0.00444133	-0.00322883	0.000160342	4.70926E-05	0	0	0	
0.0166667	0.00425937	0.00247363	0.000145624	5.16939E-05	0	0	0	
0.0168333	-0.00367528	-0.00280812	0.000167985	5.04538E-05	0	0	0	
0.017	0.00412929	0.00257264	0.000217213	5.38395E-05	0	0	0	
0.0171667	0.000311004	0.000488793	0.000262857	5.8208E-05	0	0	0	
0.0173333	-0.00361665	-0.0039672	0.000261904	6.39746E-05	0	0	0	
0.0175	0.00257707	0.00475036	0.000183843	6.89747E-05	0	0	0	
0.0176667	-0.000882354	-0.0123765	0.000151359	0.000137647	0	0	0	
0.0178333	0.00197163	-0.00307633	0.000168839	0.000176042	0	0	0	
0.018	0.0104021	0.00569192	0.000178186	0.000206066	0	0	0	
0.0181667	-0.0212566	0.0032269	0.000239128	0.000140123	0	0	0	
0.0183333	0.0131606	0.00155328	0.000283787	9.28141E-05	0	0	0	
0.0185	-0.000202287	-0.00095743	0.000356844	6.05132E-05	0	0	0	
0.0186667	-0.0087233	-0.00772624	0.000351694	6.15245E-05	0	0	0	
0.0188333	0.0179147	0.00845131	0.000338265	0.000141013	0	0	0	
0.019	-0.0123569	0.00017355	0.000367197	0.000144354	0	0	0	
0.0191667	-0.00369814	0.00344226	0.000299466	0.000171324	0	0	0	
0.0193333	0.00710038	0.000796378	0.00023665	9.46379E-05	0	0	0	
0.0195	-0.00459898	0.00392934	0.000147479	7.92091E-05	0	0	0	
0.0196667	0.00823005	-0.00135089	0.000142206	5.50081E-05	0	0	0	
0.0198333	-0.0107155	-0.00538588	0.000185098	6.19191E-05	0	0	0	
0.02	0.00629431	0.00131161	0.000240735	7.43171E-05	0	0	0	
0.0201667	-0.00482961	0.00302068	0.000290699	7.75007E-05	0	0	0	
0.0203333	0.00358232	-0.00118536	0.000280832	6.69749E-05	0	0	0	
0.0205	-0.000434729	-0.000910343	0.000260204	6.3856E-05	0	0	0	
0.0206667	-0.00160083	-0.000402274	0.000226677	4.32068E-05	0	0	0	
0.0208333	-0.00272971	0.00109189	0.000198034	4.52877E-05	0	0	0	
0.021	0.00314377	0.000191931	0.000182107	3.28218E-05	0	0	0	
0.0211667	-0.00449244	-0.000774575	0.000179825	2.92991E-05	0	0	0	
0.0213333	0.00552866	-0.000287976	0.000184012	2.06729E-05	0	0	0	
0.0215	-0.00511942	-0.00017101	0.000190434	3.01394E-05	0	0	0	
0.0216667	0.00367956	0.00138732	0.00019974	3.53864E-05	0	0	0	
0.0218333	-0.00400587	-0.000459709	0.000207882	3.76344E-05	0	0	0	
0.022	0.00424688	0.000351554	0.000210474	2.93319E-05	0	0	0	
0.0221667	-0.00142154	-0.000435773	0.000197153	1.86869E-05	0	0	0	
0.0223333	0.00293251	7.445E-06	0.00018004	1.46287E-05	0	0	0	
0.0225	-0.00299851	0.00183917	0.000159795	1.13049E-05	0	0	0	
0.0226667	0.0028504	-0.000649353	0.000141491	2.00071E-05	0	0	0	
0.0228333	-0.00310001	-0.000582083	0.000127927	2.85698E-05	0	0	0	
0.023	0.00357907	0.000411385	0.000135359	2.54851E-05	0	0	0	
0.0231667	-0.00426948	0.00113935	0.000170009	2.24391E-05	0	0	0	
0.0233333	0.00264284	-0.000112027	0.000206576	1.47728E-05	0	0	0	
0.0235	-0.00114607	-0.00165616	0.000222994	2.81257E-05	0	0	0	
0.0236667	0.000431905	0.0020457	0.000213102	3.30482E-05	0	0	0	
0.0238333	-0.00161608	-0.000594096	0.000183979	3.74089E-05	0	0	0	
0.024	0.00276779	-0.000480191	0.000160517	2.44951E-05	0	0	0	
0.0241667	-0.00423637	0.000161762	0.000166709	1.74172E-05	0	0	0	
0.0243333	0.00143797	-0.000504635	0.000189934	2.16513E-05	0	0	0	
0.0245	0.000507291	0.00111703	0.000203058	3.15392E-05	0	0	0	
0.0246667	0.00273497	-0.00109023	0.000186043	3.45763E-05	0	0	0	
0.0248333	-0.00547015	-0.000845304	0.000170987	4.0039E-05	0	0	0	
0.025	0.00440434	0.00165845	0.000172442	3.82924E-05	0	0	0	
0.0251667	-0.00248379	0.00101849	0.000189766	3.58648E-05	0	0	0	
0.0253333	0.0011169	-0.000453748	0.000204415	2.36104E-05	0	0	0	
0.0255	-0.00121786	-0.0018963	0.000221493	1.89591E-05	0	0	0	
0.0256667	0.000747194	7.73657E-05	0.000234827	2.86961E-05	0	0	0	
0.0258333	-0.00321821	0.00325799	0.000231431	3.74318E-05	0	0	0	
0.026	0.00321046	-0.000892104	0.000199468	5.33496E-05	0	0	0	
0.0261667	-0.0033273	-0.00119525	0.00015928	5.75558E-05	0	0	0	
0.0263333	0.00438556	-0.00169098	0.000146082	5.48116E-05	0	0	0	
0.0265	-0.00491067	0.00112158	0.000168032	4.10139E-05	0	0	0	
0.0266667	0.00435481	0.00272294	0.000202352	4.98697E-05	0	0	0	
0.0268333	-0.00605942	-0.00157331	0.000226733	5.4092E-05	0	0	0	
0.027	0.00573221	-0.00590081	0.000228641	8.78941E-05	0	0	0	
0.0271667	-0.00602869	0.00349094	0.000217186	8.97479E-05	0	0	0	
0.0273333	0.00631033	0.00460697	0.000226324	0.000123597	0	0	0	
0.0275	-0.00134245	-0.00443313	0.00026736	0.000106568	0	0	0	
0.0276667	-0.0050869	-0.00133836	0.000313096	0.000111413	0	0	0	
0.0278333	0.00242955	-0.0012158	0.000288616	6.5478E-05	0	0	0	
0.028	0.00174567	0.00250318	0.000183751	5.31605E-05	0	0	0	
0.0281667	-0.00617246	0.00561088	9.95747E-05	6.7219E-05	0	0	0	
0.0283333	0.0138496	-0.00609503	9.59226E-05	9.58715E-05	0	0	0	
0.0285	-0.0138238	-0.00681322	0.000205363	0.000154233	0	0	0	
0.0286667	0.0050822	0.00720315	0.000334349	0.000149303	0	0	0	
0.0288333	0.0013063	0.00329764	0.00042873	0.00017822	0	0	0	
0.029	-0.00609881	-0.00298295	0.000411857	0.000122904	0	0	0	
0.0291667	0.00380714	-0.00586422	0.000310655	0.00012696	0	0	0	
0.0293333	0.00113504	0.000440023	0.000170448	9.60449E-05	0	0	0	
0.0295	-0.0104915	0.00464641	0.000111738	0.000116427	0	0	0	
0.0296667	0.0104004	0.00359772	0.000145984	0.000123315	0	0	0	
0.0298333	-0.00612095	-0.00634559	0.000233728	0.00012173	0	0	0	
0.03	7.3555E-05	-0.00468331	0.000265228	0.000157295	0	0	0	
0.0301667	-0.0013435	0.00628185	0.000231625	0.000134383	0	0	0	
0.0303333	0.00200709	0.00289238	0.000183978	0.000163345	0	0	0	
0.0305	-0.00306299	-0.00388208	0.000166558	0.000114465	0	0	0	
0.0306667	0.00515119	-0.000906985	0.000173878	0.000106007	0	0	0	
0.0308333	-0.00368425	0.00011318	0.000170611	5.27624E-05	0	0	0	
0.031	0.00523385	0.00193056	0.000174412	3.51848E-05	0	0	0	
0.0311667	-0.00526373	0.00145184	0.000181716	3.47338E-05	0	0	0	
0.0313333	0.00649145	-0.00209964	0.000210924	3.86679E-05	0	0	0	
0.0315	-0.004797	-0.00151588	0.000218845	5.57303E-05	0	0	0	
0.0316667	0.0067175	0.00178384	0.000212713	4.25735E-05	0	0	0	
0.0318333	-0.00616148	0.000448118	0.000196582	5.12906E-05	0	0	0	
0.032	0.00558055	-0.000559078	0.000203935	4.42958E-05	0	0	0	
0.0321667	-0.00362659	-4.2093E-05	0.000216675	3.56893E-05	0	0	0	
0.0323333	0.00250115	0.000526523	0.00021004	1.98862E-05	0	0	0	
0.0325	-0.00372273	0.000166844	0.000172907	9.20675E-06	0	0	0	
0.0326667	0.00507801	0.000558118	0.000131638	1.60307E-05	0	0	0	
0.0328333	-0.00587368	-0.0015274	0.000143494	2.2294E-05	0	0	0	
0.033	0.00413474	0.00161553	0.00021119	2.98938E-05	0	0	0	
0.0331667	-8.13501E-06	-0.000967069	0.000275358	3.38688E-05	0	0	0	
0.0333333	0.00096058	0.00186636	0.000271953	3.51778E-05	0	0	0	
0.0335	-0.00501871	-0.000844654	0.000213331	3.47909E-05	0	0	0	
0.0336667	0.00498089	-0.00108049	0.000151373	2.68997E-05	0	0	0	
0.0338333	-0.00746803	0.000925454	0.000134318	2.27106E-05	0	0	0	
0.034	0.0159949	0.000597634	0.000203113	2.34615E-05	0	0	0	
0.0341667	-0.00919812	-0.00122271	0.000303876	2.39725E-05	0	0	0	
0.0343333	0.000732453	0.000388468	0.000380272	2.23146E-05	0	0	0	
0.0345	0.000967255	-0.000535565	0.000344502	1.95422E-05	0	0	0	
0.0346667	0.00122128	0.00012994	0.000236819	1.85704E-05	0	0	0	
0.0348333	-0.0023046	0.0010585	0.000130249	2.83491E-05	0	0	0	
0.035	0.00718815	-0.00142946	9.85332E-05	3.0927E-05	0	0	0	
0.0351667	-0.00810345	-0.00165339	0.000140003	3.29941E-05	0	0	0	
0.0353333	0.0066538	0.00250888	0.00018379	3.31009E-05	0	0	0	
0.0355	-0.00728945	-0.00104542	0.000205386	3.54524E-05	0	0	0	
0.0356667	0.0057318	-0.000570285	0.000213266	4.08975E-05	0	0	0	
0.0358333	-0.00248069	-0.000227244	0.00022713	3.08545E-05	0	0	0	
0.036	0.00166886	0.00138277	0.000228266	2.2655E-05	0	0	0	
0.0361667	-0.00201404	-0.00159363	0.000210007	2.33656E-05	0	0	0	
0.0363333	0.00326302	0.00164694	0.000181875	3.23417E-05	0	0	0	
0.0365	-0.00660086	-0.00227911	0.000163965	3.90069E-05	0	0	0	
0.0366667	0.00898701	0.00143477	0.000180773	3.85809E-05	0	0	0	
0.0368333	-0.00458294	0.00217057	0.000214619	5.25052E-05	0	0	0	
0.037	0.00178042	-0.00287529	0.000247851	5.72464E-05	0	0	0	
0.0371667	0.000499558	-0.00207701	0.000245638	6.07542E-05	0	0	0	
0.0373333	0.00135511	0.00202397	0.000218291	4.48011E-05	0	0	0	
0.0375	-0.0057031	0.00114721	0.000178257	5.03301E-05	0	0	0	
0.0376667	0.00989676	-0.000418047	0.000171528	4.19265E-05	0	0	0	
0.0378333	-0.00826836	-0.00138012	0.000198499	3.62522E-05	0	0	0	
0.038	0.00466383	-0.00086302	0.000225788	3.72998E-05	0	0	0	
0.0381667	-0.00272589	0.00152689	0.00022721	3.80118E-05	0	0	0	
0.0383333	0.00603	0.00262128	0.000220114	5.96789E-05	0	0	0	
0.0385	-0.00620327	-0.00376052	0.000208756	5.51798E-05	0	0	0	
0.0386667	0.00626506	0.00057797	0.000198726	7.33797E-05	0	0	0	
0.0388333	-0.00606957	-0.000680643	0.000190488	5.75375E-05	0	0	0	
0.039	0.00338821	0.0017281	0.000196596	4.64387E-05	0	0	0	
0.0391667	-0.00102886	0.00115502	0.000198507	4.20592E-05	0	0	0	
0.0393333	0.00429435	-0.00230847	0.00018876	4.1287E-05	0	0	0	
0.0395	-0.00466622	-0.000841135	0.000165027	5.51267E-05	0	0	0	
0.0396667	0.00632983	0.00229826	0.000151229	4.31776E-05	0	0	0	
0.0398333	-0.00633794	-0.000156508	0.000146737	4.3744E-05	0	0	0	
0.04	0.00542602	-0.00119489	0.000167208	2.50482E-05	0	0	0	
0.0401667	-0.00504779	-0.000407286	0.000187713	2.01745E-05	0	0	0	
0.0403333	0.00543883	0.000914755	0.000198129	1.47585E-05	0	0	0	
0.0405	-0.00628606	-0.000367859	0.000191317	1.77871E-05	0	0	0	
0.0406667	0.00672376	-0.000330829	0.000190215	1.80912E-05	0	0	0	
0.0408333	-0.00451032	0.000647686	0.000193401	1.54136E-05	0	0	0	
0.041	0.00392429	-0.000675827	0.00019838	1.28126E-05	0	0	0	
0.0411667	-0.00538679	-0.000136432	0.000191755	1.28782E-05	0	0	0	
0.0413333	0.00519704	-0.000717803	0.000182751	1.97302E-05	0	0	0	
0.0415	-0.00514624	0.000672563	0.000163519	1.99148E-05	0	0	0	
0.0416667	0.00767897	0.000868136	0.000154602	2.67821E-05	0	0	0	
0.0418333	-0.00813542	-0.000686484	0.000164222	2.56741E-05	0	0	0	
0.042	0.00819398	-0.00284286	0.000210162	4.41076E-05	0	0	0	
0.0421667	-0.00320841	0.00179735	0.000249052	4.52946E-05	0	0	0	
0.0423333	0.00111121	0.000305584	0.000260083	5.29079E-05	0	0	0	
0.0425	-0.000590781	-0.000876811	0.000215507	3.14107E-05	0	0	0	
0.0426667	0.00694003	0.000909737	0.000165087	2.61221E-05	0	0	0	
0.0428333	-0.0103775	-0.00197709	0.000148208	2.21927E-05	0	0	0	
0.043	0.0111281	0.00207881	0.000192903	3.51091E-05	0	0	0	
0.0431667	-0.0037401	-0.000505968	0.000264116	3.32738E-05	0	0	0	
0.0433333	-0.00307661	8.66847E-06	0.000310479	3.08818E-05	0	0	0	
0.0435	0.000376777	0.000984004	0.000267199	2.70005E-05	0	0	0	
0.0436667	0.00774539	-0.000898001	0.00017943	3.03074E-05	0	0	0	
0.0438333	-0.0154184	0.00138909	0.00014401	2.99553E-05	0	0	0	
0.044	0.0177607	0.00149869	0.000203773	4.38725E-05	0	0	0	
0.0441667	-0.0127878	-0.00365476	0.000310898	5.5282E-05	0	0	0	
0.0443333	0.000307462	0.000991761	0.000386742	7.17752E-05	0	0	0	
0.0445	0.00580681	0.00390934	0.00040671	8.5321E-05	0	0	0	
0.0446667	-0.0034507	-0.00150142	0.000331834	7.9952E-05	0	0	0	
0.0448333	-0.00413664	-0.00181608	0.0002002	6.64895E-05	0	0	0	
0.045	0.0121515	-0.00076091	0.000126581	5.33676E-05	0	0	0	
0.0451667	-0.0158799	0.000175499	0.000156387	4.13309E-05	0	0	0	
0.0453333	0.0129501	0.00601881	0.000248866	5.5041E-05	0	0	0	
0.0455	-0.00620153	-0.00192805	0.000308471	6.99172E-05	0	0	0	
0.0456667	0.00400685	-0.00761261	0.000316409	0.00013307	0	0	0	
0.0458333	-0.00256668	0.00294594	0.000275102	0.000134813	0	0	0	
0.046	0.00332408	0.0049799	0.000215882	0.000140363	0	0	0	
0.0461667	-0.0077042	-0.00410073	0.000182454	0.000101253	0	0	0	
0.0463333	0.00759152	0.00123246	0.000169555	9.59854E-05	0	0	0	
0.0465	-0.00926391	-0.00239763	0.000184834	6.38343E-05	0	0	0	
0.0466667	0.00964459	-0.00104853	0.000193005	6.02267E-05	0	0	0	
0.0468333	-0.00935217	0.00223415	0.000212775	5.55761E-05	0	0	0	
0.047	0.00659903	0.0015026	0.000224966	5.84977E-05	0	0	0	
0.0471667	-0.00456428	-0.00141006	0.000233091	4.67217E-05	0	0	0	
0.0473333	0.000417664	0.000192902	0.000212292	3.6559E-05	0	0	0	
0.0475	-0.00486842	0.000123933	0.000180982	2.67725E-05	0	0	0	
0.0476667	0.00651109	-0.000359078	0.000162021	1.70782E-05	0	0	0	
0.0478333	-0.00507741	0.00234448	0.000159961	1.846E-05	0	0	0	
0.048	0.00391169	0.000722263	0.000156034	2.71687E-05	0	0	0	
0.0481667	-0.00595579	-0.0021766	0.00014664	4.69873E-05	0	0	0	
0.0483333	0.00987246	0.00056753	0.000166322	4.20095E-05	0	0	0	
0.0485	-0.00761785	0.000901268	0.00020325	4.10135E-05	0	0	0	
0.0486667	0.00491663	-0.00190921	0.000245481	3.02068E-05	0	0	0	
0.0488333	-0.00158937	0.0018478	0.00023718	3.80311E-05	0	0	0	
0.049	0.00443346	0.000763563	0.000195719	3.13423E-05	0	0	0	
0.0491667	-0.00619908	-0.000905479	0.000153736	2.49839E-05	0	0	0	
0.0493333	0.00679119	-0.000518053	0.000161665	1.72194E-05	0	0	0	
0.0495	-0.0080215	-0.001237	0.000199485	1.62099E-05	0	0	0	
0.0496667	0.00767408	0.0014244	0.000220499	2.10832E-05	0	0	0	
0.0498333	-0.00727605	0.00192949	0.000225157	3.31005E-05	0	0	0	
0.05	0.00545548	-0.00156676	0.000219764	3.55439E-05	0	0	0	
0.0501667	-0.00540848	-0.00150038	0.000208166	4.70587E-05	0	0	0	
0.0503333	0.0084794	0.00452979	0.000199653	4.96363E-05	0	0	0	
0.0505	-0.0100189	-0.00154543	0.000225745	6.65129E-05	0	0	0	
0.0506667	0.00542019	-0.00250951	0.000273884	0.00010419	0	0	0	
0.0508333	-0.000892919	0.00307731	0.000287535	0.000125324	0	0	0	
0.051	0.00269725	-0.000642218	0.000225832	0.0001271	0	0	0	
0.0511667	-0.00874083	-0.0010572	0.000160846	9.42414E-05	0	0	0	
0.0513333	0.0115604	0.000883212	0.000153021	6.38265E-05	0	0	0	
0.0515	-0.0108424	-0.00243666	0.000198921	4.89765E-05	0	0	0	
0.0516667	0.00688984	0.00294656	0.000244917	3.58857E-05	0	0	0	
0.0518333	-0.00191893	-0.000342293	0.000257256	7.95136E-05	0	0	0	
0.052	0.00274519	-0.00252912	0.000251202	8.57685E-05	0	0	0	
0.0521667	-0.00642877	0.000561874	0.000230556	0.00011125	0	0	0	
0.0523333	0.00776864	0.00174887	0.000207444	7.95825E-05	0	0	0	
0.0525	-0.00680724	-0.00289897	0.000185431	7.53233E-05	0	0	0	
0.0526667	0.00459636	0.00390053	0.000165944	5.61251E-05	0	0	0	
0.0528333	-0.00153162	5.03516E-05	0.000157733	7.84829E-05	0	0	0	
0.053	0.007017	-0.00469826	0.000175366	0.000110939	0	0	0	
0.0531667	-0.0090709	0.00160142	0.000203907	0.000115081	0	0	0	
0.0533333	0.00714387	0.000432612	0.000214166	0.000100622	0	0	0	
0.0535	-0.00387901	3.02401E-06	0.0001891	5.74416E-05	0	0	0	
0.0536667	0.00477903	0.00157475	0.000163826	4.7102E-05	0	0	0	
0.0538333	-0.00632805	-0.00367685	0.000157562	3.30043E-05	0	0	0	
0.054	0.00833455	-0.00056512	0.000183443	5.26852E-05	0	0	0	
0.0541667	-0.00649528	0.00207114	0.000209384	4.79996E-05	0	0	0	
0.0543333	0.00350316	0.000212689	0.000203547	5.42332E-05	0	0	0	
0.0545	-0.003921	0.000106931	0.000177255	4.50128E-05	0	0	0	
0.0546667	0.00931664	0.00229329	0.000171632	5.28533E-05	0	0	0	
0.0548333	-0.00944333	-0.00733919	0.000199076	5.94235E-05	0	0	0	
0.055	0.00885148	0.00407531	0.000217953	9.38324E-05	0	0	0	
0.0551667	-0.00877939	0.00362093	0.000230306	0.000135353	0	0	0	
0.0553333	0.00502996	-0.00257674	0.000246332	0.000132036	0	0	0	
0.0555	-0.00266524	0.000828323	0.000261594	9.75111E-05	0	0	0	
0.0556667	0.00432042	-0.0014635	0.000229898	5.05691E-05	0	0	0	
0.0558333	-0.00785327	-0.000171637	0.000179864	3.16308E-05	0	0	0	
0.056	0.00992133	0.00427225	0.00015775	4.30759E-05	0	0	0	
0.0561667	-0.0100635	-0.00272166	0.000190694	5.44113E-05	0	0	0	
0.0563333	0.00733606	0.0013402	0.000225341	6.5405E-05	0	0	0	
0.0565	-0.00790544	8.72186E-05	0.000237424	4.70104E-05	0	0	0	
0.0566667	0.0079565	0.00110767	0.000226291	3.45087E-05	0	0	0	
0.0568333	-0.00410059	-0.000409246	0.000208827	2.42695E-05	0	0	0	
0.057	0.00524487	-0.000382401	0.000197306	2.7377E-05	0	0	0	
0.0571667	-0.00719744	0.00123772	0.00017488	2.19859E-05	0	0	0	
0.0573333	0.00785292	-0.00200317	0.000161102	2.72485E-05	0	0	0	
0.0575	-0.00902635	0.00218273	0.000159659	3.54731E-05	0	0	0	
0.0576667	0.0095345	0.000802529	0.000183066	4.92286E-05	0	0	0	
0.0578333	-0.00389739	-0.00137562	0.000223354	4.33924E-05	0	0	0	
0.058	0.000156001	-0.00031298	0.000260444	4.04263E-05	0	0	0	
0.0581667	-2.11125E-05	0.001935	0.000234236	3.61944E-05	0	0	0	
0.0583333	0.00568493	-0.00204121	0.000169805	4.35785E-05	0	0	0	
0.0585	-0.0136524	0.00240861	0.000130638	4.014E-05	0	0	0	
0.0586667	0.0153452	-0.00106158	0.000170717	4.53402E-05	0	0	0	
0.0588333	-0.0118287	-0.00263985	0.00026831	5.54081E-05	0	0	0	
0.059	0.00548293	0.00292227	0.000346701	6.03547E-05	0	0	0	
0.0591667	0.0017643	0.000782782	0.000365018	6.4824E-05	0	0	0	
0.0593333	0.000824062	-7.74505E-05	0.000272529	4.53155E-05	0	0	0	
0.0595	-0.00854653	-0.00213994	0.00017923	4.39526E-05	0	0	0	
0.0596667	0.0152712	5.88729E-05	0.000141949	2.93437E-05	0	0	0	
0.0598333	-0.0143489	0.00186348	0.000207285	3.91595E-05	0	0	0	
0.06	0.0127286	0.0014817	0.000274037	4.17466E-05	0	0	0	
0.0601667	-0.00802379	-0.00154792	0.000316773	3.92442E-05	0	0	0	
0.0603333	0.00418134	-0.00248877	0.000316612	5.8984E-05	0	0	0	
0.0605	-0.00195812	0.00251006	0.000264132	5.15683E-05	0	0	0	
0.0606667	0.00262922	0.00300598	0.000192413	7.82404E-05	0	0	0	
0.0608333	-0.00770401	-0.00374936	0.00015592	6.55814E-05	0	0	0	
0.061	0.00997906	0.00012089	0.000157978	6.98674E-05	0	0	0	
0.0611667	-0.0128814	-0.00130529	0.00018969	3.97792E-05	0	0	0	
0.0613333	0.0114096	0.00103007	0.000215246	3.58665E-05	0	0	0	
0.0615	-0.00820668	0.00132077	0.000241881	4.64274E-05	0	0	0	
0.0616667	0.00757508	0.000490301	0.000252303	5.12814E-05	0	0	0	
0.0618333	-0.00909591	-0.00318723	0.000242988	4.69502E-05	0	0	0	
0.062	0.00700128	0.000878642	0.000216555	3.86889E-05	0	0	0	
0.0621667	-0.00750341	-0.00086178	0.00018456	3.73644E-05	0	0	0	
0.0623333	0.00844208	0.00280403	0.000168211	3.79965E-05	0	0	0	
0.0625	-0.00708654	-0.0007511	0.000175772	3.94381E-05	0	0	0	
0.0626667	0.00601015	-0.000991451	0.00019489	4.75173E-05	0	0	0	
0.0628333	-0.00429666	-0.00104136	0.000183844	3.89411E-05	0	0	0	
0.063	0.00597792	0.00173717	0.00014399	3.31288E-05	0	0	0	
0.0631667	-0.0108233	-0.000320116	0.000136541	2.92123E-05	0	0	0	
0.0633333	0.00754548	0.00155055	0.000162534	3.69524E-05	0	0	0	
0.0635	-0.00367795	-0.00229706	0.000215117	3.52345E-05	0	0	0	
0.0636667	0.00372645	-0.000188318	0.000213944	4.57266E-05	0	0	0	
0.0638333	-0.00471717	0.000487906	0.00018128	4.16262E-05	0	0	0	
0.064	0.00576305	0.00141194	0.00012857	3.56459E-05	0	0	0	
0.0641667	-0.0118504	0.000247597	0.000124667	1.89819E-05	0	0	0	
0.0643333	0.0136623	-0.000392157	0.000169381	1.48645E-05	0	0	0	
0.0645	-0.0115126	-0.00160787	0.000234761	2.1108E-05	0	0	0	
0.0646667	0.00742868	0.00157631	0.000274409	2.47445E-05	0	0	0	
0.0648333	-0.00425142	0.000613178	0.000273088	3.53561E-05	0	0	0	
0.065	0.00105285	-0.00121609	0.000230947	4.02034E-05	0	0	0	
0.0651667	-0.0039169	0.00136628	0.0001702	4.0532E-05	0	0	0	
0.0653333	0.00798125	-0.000316032	0.000132456	3.41538E-05	0	0	0	
0.0655	-0.0113196	-0.000966822	0.000147436	2.79574E-05	0	0	0	
0.0656667	0.0123979	-0.000370958	0.000180699	2.43514E-05	0	0	0	
0.0658333	-0.0121606	0.000634547	0.000223996	2.55688E-05	0	0	0	
0.066	0.00826854	-0.000399221	0.000249984	2.16451E-05	0	0	0	
0.0661667	-0.00652638	-0.000180613	0.000259067	2.24914E-05	0	0	0	
0.0663333	0.00555827	-0.00114502	0.000234639	2.43932E-05	0	0	0	
0.0665	-0.00694518	0.00241404	0.000203253	3.15462E-05	0	0	0	
0.0666667	0.00639907	0.000787113	0.000172411	4.43294E-05	0	0	0	
0.0668333	-0.00910834	-0.00178303	0.000162587	3.74781E-05	0	0	0	
0.067	0.0109419	-0.000599654	0.00018076	4.67872E-05	0	0	0	
0.0671667	-0.00989936	0.00162728	0.000215625	4.42974E-05	0	0	0	
0.0673333	0.00692076	0.000146237	0.000226415	4.55739E-05	0	0	0	
0.0675	-0.00762172	-0.000313505	0.000207774	2.8437E-05	0	0	0	
0.0676667	0.00861987	5.65885E-05	0.000193859	1.56347E-05	0	0	0	
0.0678333	-0.00902904	-0.000870935	0.00020581	1.6036E-05	0	0	0	
0.068	0.00707152	0.0025317	0.000216583	1.98346E-05	0	0	0	
0.0681667	-0.0073734	-0.0025426	0.000207847	3.28217E-05	0	0	0	
0.0683333	0.00851434	0.00177243	0.000191172	4.59877E-05	0	0	0	
0.0685	-0.00758364	-0.000965813	0.00017685	5.32956E-05	0	0	0	
0.0686667	0.00962372	0.000488966	0.000186608	4.57647E-05	0	0	0	
0.0688333	-0.00979163	-1.31063E-05	0.000205195	3.16991E-05	0	0	0	
0.069	0.00708289	0.000527152	0.000212734	1.95695E-05	0	0	0	
0.0691667	-0.00841022	-0.000749732	0.000200305	1.5386E-05	0	0	0	
0.0693333	0.00998421	0.00191319	0.000196434	1.88913E-05	0	0	0	
0.0695	-0.00750893	-0.00365429	0.00020192	3.20851E-05	0	0	0	
0.0696667	0.00861046	0.00350783	0.000209062	4.74231E-05	0	0	0	
0.0698333	-0.00881984	-0.00469014	0.000202965	8.20809E-05	0	0	0	
0.07	0.00886315	0.00255392	0.000229768	0.000126775	0	0	0	
0.0701667	-0.00607349	0.00493776	0.000265923	0.000148553	0	0	0	
0.0703333	0.0018435	-0.00330774	0.000267145	0.000130061	0	0	0	
0.0705	-0.00314957	0.000737532	0.000210089	8.20308E-05	0	0	0	
0.0706667	0.00884994	-0.000177875	0.000154792	4.38361E-05	0	0	0	
0.0708333	-0.0143201	-0.00107521	0.000161952	2.19326E-05	0	0	0	
0.071	0.0165877	0.00784185	0.000231208	4.25851E-05	0	0	0	
0.0711667	-0.0139005	-0.00373727	0.000293537	7.47729E-05	0	0	0	
0.0713333	0.00899681	-0.00057419	0.000315318	0.000123661	0	0	0	
0.0715	-0.0053066	0.00400207	0.0002965	0.00012736	0	0	0	
0.0716667	0.00418449	0.000262602	0.00025891	0.000105913	0	0	0	
0.0718333	-0.0067662	-0.00168059	0.000218475	6.13408E-05	0	0	0	
0.072	0.00734833	-0.00398334	0.000183128	5.6815E-05	0	0	0	
0.0721667	-0.00695101	0.00350113	0.000155486	6.84414E-05	0	0	0	
0.0723333	0.00932134	0.00299095	0.000154642	8.35814E-05	0	0	0	
0.0725	-0.00948037	-0.00374469	0.000175476	7.27951E-05	0	0	0	
0.0726667	0.00711946	-0.00314673	0.000191069	0.000100823	0	0	0	
0.0728333	-0.011009	0.00513545	0.000194395	0.000105086	0	0	0	
0.073	0.0136412	0.00172866	0.000203071	0.000123011	0	0	0	
0.0731667	-0.00679363	-0.00339843	0.00024135	9.56841E-05	0	0	0	
0.0733333	-0.00251434	-0.00161077	0.000307386	0.000101283	0	0	0	
0.0735	-0.00238425	0.00114466	0.000314666	7.63302E-05	0	0	0	
0.0736667	0.00656794	0.00527868	0.000269525	7.89302E-05	0	0	0	
0.0738333	-0.00489699	-0.00196001	0.000218218	7.44608E-05	0	0	0	
0.074	0.0137333	-0.0075056	0.000197226	0.000122227	0	0	0	
0.0741667	-0.0228595	0.00270337	0.000262364	0.000128534	0	0	0	
0.0743333	0.0145325	0.00929227	0.00030824	0.000163364	0	0	0	
0.0745	-0.00857332	-0.00321671	0.000374589	0.00015257	0	0	0	
0.0746667	0.00686041	-0.00682637	0.000392518	0.000176651	0	0	0	
0.0748333	0.00249883	0.000604847	0.000330514	0.000158114	0	0	0	
0.075	-0.00297501	0.00575388	0.000221251	0.000124543	0	0	0	
0.0751667	-0.0129092	0.00247666	0.000139399	0.000133902	0	0	0	
0.0753333	0.0139299	-0.00113599	0.000178443	0.000107813	0	0	0	
0.0755	-0.00685252	-0.00609296	0.000201398	0.000142814	0	0	0	
0.0756667	0.0108024	0.00276637	0.000239641	9.7911E-05	0	0	0	
0.0758333	-0.0116532	0.00487176	0.000243202	0.000118712	0	0	0	
0.076	0.00627442	0.000878936	0.000265446	8.56353E-05	0	0	0	
0.0761667	-0.00528506	-0.00614702	0.000229588	9.05118E-05	0	0	0	
0.0763333	0.00295691	0.00179102	0.000170116	8.54115E-05	0	0	0	
0.0765	-0.00421456	0.000888136	0.000130837	8.18392E-05	0	0	0	
0.0766667	0.00878809	0.00267621	0.00011874	8.1889E-05	0	0	0	
0.0768333	-0.0130704	-0.00251849	0.000143887	5.96456E-05	0	0	0	
0.077	0.0123102	0.000236106	0.000188902	8.41901E-05	0	0	0	
0.0771667	-0.0103136	0.00123078	0.000251865	6.67904E-05	0	0	0	
0.0773333	0.00498777	0.00145399	0.000294607	7.65425E-05	0	0	0	
0.0775	-0.0019472	-0.00028923	0.000290166	3.70701E-05	0	0	0	
0.0776667	0.00254379	-0.0026154	0.00021199	3.66221E-05	0	0	0	
0.0778333	-0.00658564	-0.00209805	0.000132833	3.54263E-05	0	0	0	
0.078	0.00819711	0.00788143	0.00010635	6.40742E-05	0	0	0	
0.0781667	-0.0120714	-0.00281984	0.000150146	9.59982E-05	0	0	0	
0.0783333	0.0135772	-0.00383341	0.00021368	0.000109463	0	0	0	
0.0785	-0.00934775	0.00435149	0.000254908	0.000108281	0	0	0	
0.0786667	0.00299469	-0.00123313	0.000250746	8.61821E-05	0	0	0	
0.0788333	-0.0058113	0.000597629	0.000205726	5.74551E-05	0	0	0	
0.079	0.00737442	0.00364035	0.000168364	3.86287E-05	0	0	0	
0.0791667	-0.0100831	-0.00449814	0.000154099	4.44095E-05	0	0	0	
0.0793333	0.00894599	0.00058884	0.000176022	5.85669E-05	0	0	0	
0.0795	-0.00577642	0.0021555	0.000182233	6.02766E-05	0	0	0	
0.0796667	0.0112899	0.000511613	0.000176938	5.29928E-05	0	0	0	
0.0798333	-0.021678	-0.00249434	0.000213235	4.55986E-05	0	0	0	
0.08	0.0116456	-0.00454369	0.000285354	7.61071E-05	0	0	0	
0.0801667	-0.000587015	0.00370752	0.000346292	7.6218E-05	0	0	0	
0.0803333	-0.000377752	0.00317295	0.000312276	0.000121802	0	0	0	
0.0805	0.000293715	-0.00222893	0.000199742	9.40234E-05	0	0	0	
0.0806667	0.00320721	-0.00604914	0.000145248	9.39817E-05	0	0	0	
0.0808333	-0.0166941	0.00118826	0.000132536	7.23403E-05	0	0	0	
0.081	0.0193484	0.0047224	0.000245871	9.31426E-05	0	0	0	
0.0811667	-0.0140899	0.00105736	0.000281455	8.83478E-05	0	0	0	
0.0813333	0.00913884	-0.00364157	0.000319564	6.52126E-05	0	0	0	
0.0815	-0.00660779	-0.00245064	0.000280244	7.3027E-05	0	0	0	
0.0816667	0.00246605	0.00617508	0.000224219	8.58796E-05	0	0	0	
0.0818333	-0.00700431	-0.000476955	0.000152781	0.000106504	0	0	0	
0.082	0.0121403	-0.00309353	0.000125676	0.000103539	0	0	0	
0.0821667	-0.0125258	0.00424932	0.000174169	9.37756E-05	0	0	0	
0.0823333	0.00688909	-0.0058621	0.000218069	9.57727E-05	0	0	0	
0.0825	-0.00524473	0.00345082	0.000214742	8.86348E-05	0	0	0	
0.0826667	0.00342523	0.00162034	0.000165205	0.000105873	0	0	0	
0.0828333	-0.0093063	-0.00787326	0.00013616	0.000125264	0	0	0	
0.083	0.0126291	0.00646786	0.000148531	0.000134237	0	0	0	
0.0831667	-0.0123003	-0.00094915	0.000202266	0.000143102	0	0	0	
0.0833333	0.0101649	-0.00397927	0.000233945	0.000130071	0	0	0	
0.0835	-0.00875451	0.00381832	0.000223938	0.000118984	0	0	0	
0.0836667	0.00859336	-0.00218053	0.000197615	9.23882E-05	0	0	0	
0.0838333	-0.0101624	-0.00044076	0.000191487	7.25631E-05	0	0	0	
0.084	0.00990449	0.00551146	0.000207962	9.11486E-05	0	0	0	
0.0841667	-0.00794265	-0.00500829	0.000205852	0.000105419	0	0	0	
0.0843333	0.00773844	0.000301911	0.000195005	0.000119146	0	0	0	
0.0845	-0.00757936	0.00176018	0.000175995	9.28484E-05	0	0	0	
0.0846667	0.00820288	5.16131E-06	0.000173857	6.80059E-05	0	0	0	
0.0848333	-0.00809088	0.002664	0.000173219	4.20203E-05	0	0	0	
0.085	0.00794406	-0.00180207	0.00015804	2.97389E-05	0	0	0	
0.0851667	-0.0117705	-0.000576521	0.000169935	5.81507E-05	0	0	0	
0.0853333	0.0133449	0.00137575	0.000218003	6.69085E-05	0	0	0	
0.0855	-0.00752022	0.000386089	0.000251164	5.73661E-05	0	0	0	
0.0856667	0.0101836	0.00267459	0.000249491	4.07234E-05	0	0	0	
0.0858333	-0.00699511	-0.00336365	0.000202104	4.018E-05	0	0	0	
0.086	0.00514234	-0.000279427	0.000168423	7.38157E-05	0	0	0	
0.0861667	-0.00766175	0.0038326	0.000147368	8.79039E-05	0	0	0	
0.0863333	0.0125222	-0.000863612	0.000168124	8.43826E-05	0	0	0	
0.0865	-0.00976182	0.000959369	0.000197114	6.97242E-05	0	0	0	
0.0866667	0.0115719	-0.000391505	0.000213524	4.73866E-05	0	0	0	
0.0868333	-0.0110574	-0.00291217	0.000214262	6.36584E-05	0	0	0	
0.087	0.0097924	0.00648605	0.000209113	7.93983E-05	0	0	0	
0.0871667	-0.00799691	-0.00429796	0.000225178	0.000107595	0	0	0	
0.0873333	0.0028627	-0.00349078	0.000195921	0.000123172	0	0	0	
0.0875	-0.00320021	0.00347844	0.000147218	0.000108026	0	0	0	
0.0876667	0.0095557	0.00219072	0.000108918	0.00011105	0	0	0	
0.0878333	-0.00990425	-0.00347213	0.00012972	8.93078E-05	0	0	0	
0.088	0.00324097	0.000896155	0.000180958	8.71439E-05	0	0	0	
0.0881667	-0.00390239	-0.00319304	0.000205855	6.48696E-05	0	0	0	
0.0883333	0.00671933	0.00278644	0.000183166	6.37056E-05	0	0	0	
0.0885	-0.0109174	0.00112746	0.000187789	6.16768E-05	0	0	0	
0.0886667	0.0173213	0.000595932	0.000205163	5.30168E-05	0	0	0	
0.0888333	-0.0189827	-0.0042043	0.000273487	5.54173E-05	0	0	0	
0.089	0.0128004	0.00344179	0.000318103	6.86232E-05	0	0	0	
0.0891667	-0.00325069	-0.00296276	0.000364236	7.61484E-05	0	0	0	
0.0893333	-0.00481211	-0.00024225	0.000350961	7.47194E-05	0	0	0	
0.0895	0.00197843	0.00420781	0.000245907	5.50882E-05	0	0	0	
0.0896667	0.00654181	-0.0012311	0.000184612	9.066E-05	0	0	0	
0.0898333	-0.0119481	-0.00363815	0.000163953	0.000110631	0	0	0	
0.09	0.0213285	-0.00230228	0.000255893	0.00011134	0	0	0	
0.0901667	-0.0170264	0.00130655	0.000307573	8.10505E-05	0	0	0	
0.0903333	0.00728349	0.00348453	0.000315215	7.11637E-05	0	0	0	
0.0905	-0.00524337	0.0036796	0.000279396	9.2167E-05	0	0	0	
0.0906667	0.00863256	-0.0100731	0.000213058	0.000124251	0	0	0	
0.0908333	-0.00993686	0.00242004	0.000191165	0.000132098	0	0	0	
0.091	0.0114752	0.00305492	0.000189282	0.000125896	0	0	0	
0.0911667	-0.0103957	0.00225988	0.000216186	0.000100622	0	0	0	
0.0913333	0.00869552	-0.0041842	0.000206304	7.55542E-05	0	0	0	
0.0915	-0.00728553	-0.000645197	0.00020311	7.1344E-05	0	0	0	
0.0916667	0.00540528	-0.00107485	0.000171493	5.36283E-05	0	0	0	
0.0918333	-0.00832292	-4.31659E-05	0.000169283	5.887E-05	0	0	0	
0.092	0.00891709	0.00253238	0.000153977	4.95907E-05	0	0	0	
0.0921667	-0.0110627	-0.00278101	0.000176667	5.44131E-05	0	0	0	
0.0923333	0.0122045	-0.00145794	0.000185099	5.32323E-05	0	0	0	
0.0925	-0.0109117	0.0021541	0.000221307	4.78148E-05	0	0	0	
0.0926667	0.00598682	0.00125398	0.000198165	5.25479E-05	0	0	0	
0.0928333	-0.00970246	-0.0021892	0.000194842	4.14085E-05	0	0	0	
0.093	0.0115314	0.000713779	0.000190465	4.94633E-05	0	0	0	
0.0931667	-0.00979967	8.71978E-05	0.000211805	3.14615E-05	0	0	0	
0.0933333	0.00903836	0.000688542	0.000212501	2.89977E-05	0	0	0	
0.0935	-0.00730809	-0.00287197	0.000190107	2.40242E-05	0	0	0	
0.0936667	0.00756255	0.00242888	0.000169603	4.13132E-05	0	0	0	
0.0938333	-0.0150658	-0.00354819	0.000188571	5.07195E-05	0	0	0	
0.094	0.0138699	0.000909202	0.000217147	6.45408E-05	0	0	0	
0.0941667	0.00333466	0.0128782	0.000246752	0.000107871	0	0	0	
0.0943333	-0.0149106	-0.00594756	0.000270535	0.000206258	0	0	0	
0.0945	0.0140548	0.00176253	0.00028589	0.000203098	0	0	0	
0.0946667	0.00437484	-0.000569359	0.000256113	0.000210016	0	0	0	
0.0948333	-0.0126175	-0.00359311	0.000280082	0.000115391	0	0	0	
0.095	0.0133087	-0.00169215	0.000316542	0.000105271	0	0	0	
0.0951667	-0.0216343	-0.000938199	0.000361741	4.74992E-05	0	0	0	
0.0953333	0.0158439	0.00626069	0.000362722	8.06218E-05	0	0	0	
0.0955	-0.00506766	-0.00242685	0.000404854	0.000183611	0	0	0	
0.0956667	0.0023531	-0.0153776	0.000496491	0.000217089	0	0	0	
0.0958333	0.00366166	-0.000934448	0.000438403	0.000219658	0	0	0	
0.096	-0.00706417	0.00468366	0.000314216	0.000135522	0	0	0	
0.0961667	-0.00506882	0.00467927	0.000174135	0.000147316	0	0	0	
0.0963333	0.0100096	-0.00894293	0.000162887	0.00012953	0	0	0	
0.0965	-0.0109517	-0.00294212	0.00018335	0.000161791	0	0	0	
0.0966667	0.013405	0.00436362	0.00021174	0.00012554	0	0	0	
0.0968333	-0.0180247	0.00511415	0.000256668	0.000147616	0	0	0	
0.097	0.0118922	-0.00460409	0.000270357	0.00011001	0	0	0	
0.0971667	-0.0093836	-0.0068152	0.000274985	0.000154439	0	0	0	
0.0973333	0.00821766	0.00510114	0.000246842	0.000126214	0	0	0	
0.0975	-0.00766143	-0.000224207	0.000215917	0.000143818	0	0	0	
0.0976667	0.0057497	0.00219909	0.000185508	8.826E-05	0	0	0	
0.0978333	-0.00905771	-0.00358029	0.00016226	7.08872E-05	0	0	0	
0.098	0.00845425	-0.00539184	0.000165616	7.95449E-05	0	0	0	
0.0981667	-0.0105153	0.00489321	0.000178317	0.000100877	0	0	0	
0.0983333	0.0156422	0.00450079	0.000200089	0.000142089	0	0	0	
0.0985	-0.0156819	-0.00512141	0.000243813	0.000123681	0	0	0	
0.0986667	0.0114811	6.66174E-05	0.00027865	0.000110594	0	0	0	
0.0988333	-0.00930812	-0.00482238	0.000281136	8.2802E-05	0	0	0	
0.099	0.0074372	0.00393459	0.00024976	7.49972E-05	0	0	0	
0.0991667	-0.00333777	0.00501414	0.000196751	0.000121352	0	0	0	
0.0993333	-0.00125322	-0.00531463	0.000131969	0.000127973	0	0	0	
0.0995	-0.0110321	-0.00181196	8.43165E-05	0.000137409	0	0	0	
0.0996667	0.0273441	0.00126248	0.000187878	8.40177E-05	0	0	0	
0.0998333	-0.0177303	-0.000632586	0.000343333	5.68829E-05	0	0	0	
0.1	0.000384523	0.00315298	0.00037875	2.94321E-05	0	0	0	
0.100167	-0.00461923	-0.0042986	0.000259559	4.89253E-05	0	0	0	
0.100333	0.0123336	-0.00121387	0.000170359	7.50408E-05	0	0	0	
0.1005	-0.00905495	0.000701439	0.000173212	7.92163E-05	0	0	0	
0.100667	0.017011	0.000170073	0.000241068	5.40515E-05	0	0	0	
0.100833	-0.0118853	-0.000994799	0.000274486	2.55265E-05	0	0	0	
0.101	-0.00166116	0.00212682	0.000255804	2.42886E-05	0	0	0	
0.101167	0.000104653	-0.00219758	0.000196606	3.39829E-05	0	0	0	
0.101333	0.015146	0.000107073	0.000158514	4.55503E-05	0	0	0	
0.1015	-0.0122783	-0.00182979	0.000217006	4.90102E-05	0	0	0	
0.101667	0.00313503	0.00153473	0.000225722	3.96334E-05	0	0	0	
0.101833	-0.0112338	-0.00299864	0.000211539	3.87874E-05	0	0	0	
0.102	0.0121063	0.0044688	0.000192914	5.1131E-05	0	0	0	
0.102167	-0.00907772	-0.00203361	0.000221227	6.51364E-05	0	0	0	
0.102333	0.0094121	-0.00275273	0.000215295	6.76652E-05	0	0	0	
0.1025	-0.00581255	0.0014047	0.00018077	5.6575E-05	0	0	0	
0.102667	0.0106092	0.00239449	0.000165807	5.28957E-05	0	0	0	
0.102833	-0.0171775	-0.00195902	0.000183593	5.16716E-05	0	0	0	
0.103	0.0140845	0.00107131	0.000246909	5.77301E-05	0	0	0	
0.103167	-0.00502916	-0.00512397	0.000263995	8.56369E-05	0	0	0	
0.103333	0.00318769	0.00794849	0.000240149	0.000120325	0	0	0	
0.1035	-0.000795098	-0.00367475	0.000144193	0.000137408	0	0	0	
0.103667	0.00654016	-0.00559172	0.000100809	0.000142228	0	0	0	
0.103833	-0.00998622	0.00141402	0.000129151	0.000117062	0	0	0	
0.104	0.0148229	0.00692587	0.000192712	0.000128997	0	0	0	
0.104167	-0.0142312	-0.00225706	0.000258193	0.000112017	0	0	0	
0.104333	0.0153541	-0.00268053	0.000271286	0.000100618	0	0	0	
0.1045	-0.0123659	-0.00634468	0.00028063	0.000109033	0	0	0	
0.104667	0.0074759	0.00435964	0.000270666	0.000101721	0	0	0	
0.104833	-0.00507878	0.00739449	0.000234334	0.000166707	0	0	0	
0.105	0.00834884	-0.00416412	0.00018168	0.000140021	0	0	0	
0.105167	-0.010632	-0.00782432	0.000155106	0.000190503	0	0	0	
0.105333	0.00870863	0.00282525	0.000160182	0.000142275	0	0	0	
0.1055	-0.00534864	0.00480719	0.000176458	0.000142702	0	0	0	
0.105667	0.0122092	0.00293894	0.000177121	0.00010145	0	0	0	
0.105833	-0.015278	-0.00468864	0.000209293	9.16525E-05	0	0	0	
0.106	0.0104929	-0.00223653	0.000228958	0.000102828	0	0	0	
0.106167	-0.00872861	-9.73991E-05	0.000229658	7.63879E-05	0	0	0	
0.106333	0.0092815	0.00552658	0.00020543	8.70781E-05	0	0	0	
0.1065	-0.00646837	8.53437E-05	0.000183256	6.24213E-05	0	0	0	
0.106667	0.00501427	-0.00122773	0.000151885	6.34288E-05	0	0	0	
0.106833	-0.00959602	-0.00317233	0.000143653	5.25245E-05	0	0	0	
0.107	0.00949998	0.00319216	0.000158008	5.5208E-05	0	0	0	
0.107167	-0.0118282	0.000719512	0.000190205	5.29442E-05	0	0	0	
0.107333	0.0144702	-0.00115425	0.000221812	4.16547E-05	0	0	0	
0.1075	-0.00808994	0.000562423	0.000225359	2.38739E-05	0	0	0	
0.107667	0.00437315	-0.00105767	0.000212508	2.59812E-05	0	0	0	
0.107833	-0.00813437	0.000997863	0.000180076	2.54049E-05	0	0	0	
0.108	0.00863949	-0.000186571	0.000171919	2.79892E-05	0	0	0	
0.108167	-0.00772212	0.000883444	0.000180506	2.69801E-05	0	0	0	
0.108333	0.0106147	0.00137459	0.000177229	2.14971E-05	0	0	0	
0.1085	-0.0121798	-0.00167654	0.000184549	2.93948E-05	0	0	0	
0.108667	0.0102027	0.00110715	0.000192563	3.29115E-05	0	0	0	
0.108833	-0.0108416	0.000351815	0.000217758	3.53996E-05	0	0	0	
0.109	0.00645126	0.000246948	0.000212765	3.4585E-05	0	0	0	
0.109167	-0.00633102	0.0013498	0.000191169	3.93318E-05	0	0	0	
0.109333	0.0103632	-0.00123242	0.000164266	4.12906E-05	0	0	0	
0.1095	-0.0123594	-0.000296989	0.000168735	3.22095E-05	0	0	0	
0.109667	0.0112465	0.000120527	0.000206611	2.83332E-05	0	0	0	
0.109833	-0.00913718	0.000582604	0.000231301	3.69433E-05	0	0	0	
0.11	0.00915348	0.0001983	0.000223721	4.11696E-05	0	0	0	
0.110167	-0.0109377	-0.000112979	0.000210667	3.41914E-05	0	0	0	
0.110333	0.0103543	-0.000298952	0.000205867	3.77423E-05	0	0	0	
0.1105	-0.0178298	-0.00717863	0.000232854	0.000104827	0	0	0	
0.110667	0.0231201	0.00517912	0.000297564	0.00016607	0	0	0	
0.110833	-0.0183233	-0.00203264	0.000359965	0.000189965	0	0	0	
0.111	0.00903598	-0.00222706	0.00034715	0.000160211	0	0	0	
0.111167	-0.00776934	0.000410996	0.000283616	0.000116579	0	0	0	
0.111333	0.00639852	0.000843945	0.000208604	8.90357E-05	0	0	0	
0.1115	-0.0073267	0.00157659	0.000187136	5.08906E-05	0	0	0	
0.111667	0.0110503	-0.00376238	0.000190681	8.01161E-05	0	0	0	
0.111833	-0.0107672	-0.00242475	0.000219358	9.22742E-05	0	0	0	
0.112	0.00958003	0.00300911	0.000225805	0.00013264	0	0	0	
0.112167	-0.0117776	0.0037426	0.000211397	0.000103705	0	0	0	
0.112333	0.0144982	0.000554797	0.000216781	9.33819E-05	0	0	0	
0.1125	-0.00958008	-0.00405565	0.000238158	6.81215E-05	0	0	0	
0.112667	0.00595212	0.00244151	0.000220491	6.99859E-05	0	0	0	
0.112833	-0.0105142	-0.00131293	0.000184556	6.27105E-05	0	0	0	
0.113	0.0110195	0.00106462	0.000175128	5.3342E-05	0	0	0	
0.113167	-0.00847461	0.00106161	0.000197702	3.8599E-05	0	0	0	
0.113333	0.00918234	0.00252845	0.000191453	4.94122E-05	0	0	0	
0.1135	-0.0125983	-0.00742351	0.000191307	8.11905E-05	0	0	0	
0.113667	0.014428	0.00313914	0.000211288	0.000106135	0	0	0	
0.113833	-0.0178923	0.000179334	0.000259972	0.000112594	0	0	0	
0.114	0.0175998	-0.00123833	0.000316287	8.3334E-05	0	0	0	
0.114167	-0.00334031	0.000236176	0.00031961	6.38161E-05	0	0	0	
0.114333	-0.000759094	0.00128893	0.000256692	4.76773E-05	0	0	0	
0.1145	-0.00780102	-3.18843E-05	0.000144736	4.06958E-05	0	0	0	
0.114667	0.0148168	-0.000511206	0.000142938	5.11059E-05	0	0	0	
0.114833	-0.0182203	-0.00307781	0.000211727	5.94039E-05	0	0	0	
0.115	0.0196603	0.00295572	0.00032337	7.68303E-05	0	0	0	
0.115167	-0.00887802	0.0022097	0.000345034	6.00801E-05	0	0	0	
0.115333	0.00193487	-0.000510098	0.000256943	5.46836E-05	0	0	0	
0.1155	-0.00617058	-0.00078097	0.000175022	3.90893E-05	0	0	0	
0.115667	0.0124475	0.00184186	0.000144012	3.73881E-05	0	0	0	
0.115833	-0.0110453	-0.00573589	0.000207405	4.67389E-05	0	0	0	
0.116	0.016088	0.00647307	0.000251252	8.66538E-05	0	0	0	
0.116167	-0.0189871	-0.000389059	0.000285022	9.2347E-05	0	0	0	
0.116333	0.0161349	0.000698686	0.000309882	7.36321E-05	0	0	0	
0.1165	-0.00507781	-0.00447923	0.000301622	4.51597E-05	0	0	0	
0.116667	-0.00105248	0.00478132	0.000251644	5.54393E-05	0	0	0	
0.116833	-0.00242709	0.00117797	0.000162671	7.68887E-05	0	0	0	
0.117	0.0124288	-0.00331025	0.0001451	7.29369E-05	0	0	0	
0.117167	-0.0212143	0.00342347	0.000222986	0.000102379	0	0	0	
0.117333	0.0232202	0.00251979	0.000361901	0.000104734	0	0	0	
0.1175	-0.0189844	-0.0029538	0.000414467	0.000111627	0	0	0	
0.117667	0.0109523	0.00316876	0.000400223	7.34755E-05	0	0	0	
0.117833	-0.00587124	-0.00256751	0.000358201	6.47712E-05	0	0	0	
0.118	0.000927913	0.000112262	0.000282483	5.78583E-05	0	0	0	
0.118167	-0.00314845	0.00350506	0.000185902	6.28324E-05	0	0	0	
0.118333	0.00871023	-0.00437806	0.000147797	5.92474E-05	0	0	0	
0.1185	-0.0147634	-0.000499296	0.000196138	7.89036E-05	0	0	0	
0.118667	0.0156759	0.00554069	0.00026575	9.29821E-05	0	0	0	
0.118833	-0.0136381	-0.00184269	0.000291329	0.000101247	0	0	0	
0.119	0.0113733	-0.000716063	0.000283751	9.12075E-05	0	0	0	
0.119167	-0.0098066	-0.00201411	0.000254898	6.22539E-05	0	0	0	
0.119333	0.00713358	0.00146973	0.000214501	5.56619E-05	0	0	0	
0.1195	-0.00300976	0.00541367	0.000160298	6.44053E-05	0	0	0	
0.119667	0.00599603	-0.00672007	0.000129848	9.47281E-05	0	0	0	
0.119833	-0.0126449	0.00856775	0.000161651	0.000156869	0	0	0	
0.12	0.0163	4.66372E-05	0.00026135	0.000171632	0	0	0	
0.120167	-0.0175084	-0.00618276	0.000343528	0.000176154	0	0	0	
0.120333	0.0147279	0.000515899	0.00034336	0.000124075	0	0	0	
0.1205	-0.0115209	-0.00547791	0.000298399	0.00010219	0	0	0	
0.120667	0.00886872	0.00365627	0.000259593	9.13475E-05	0	0	0	
0.120833	-0.00389025	0.00974053	0.000221374	0.00011546	0	0	0	
0.121	-0.00426748	-0.0118517	0.000158578	0.000173078	0	0	0	
0.121167	0.00312258	-0.00481862	0.000113336	0.00017826	0	0	0	
0.121333	0.00815317	0.00181179	0.000137952	0.00016599	0	0	0	
0.1215	-0.0214346	0.00487639	0.000250604	9.91523E-05	0	0	0	
0.121667	0.0256806	0.000465198	0.000392698	8.98454E-05	0	0	0	
0.121833	-0.024037	-0.00293544	0.00046575	9.84208E-05	0	0	0	
0.122	0.0173408	8.87242E-06	0.000459369	8.94442E-05	0	0	0	
0.122167	-0.00813236	0.00108317	0.000384322	7.16365E-05	0	0	0	
0.122333	0.0022881	0.00199628	0.000305386	3.159E-05	0	0	0	
0.1225	-0.000202706	0.0015967	0.000204581	4.29829E-05	0	0	0	
0.122667	-0.00104852	-0.00129785	0.000160246	4.77862E-05	0	0	0	
0.122833	-0.00599943	-0.00129821	0.000209822	5.6856E-05	0	0	0	
0.123	0.0198589	0.000539129	0.000314457	4.116E-05	0	0	0	
0.123167	-0.0222133	0.00306487	0.000389385	4.76644E-05	0	0	0	
0.123333	0.0142311	0.000121624	0.000378225	4.66862E-05	0	0	0	
0.1235	-0.00793001	-0.00273882	0.000341068	6.47109E-05	0	0	0	
0.123667	0.00381832	0.000900247	0.000263419	5.39235E-05	0	0	0	
0.123833	-0.00532642	-0.000802751	0.000187933	4.19874E-05	0	0	0	
0.124	0.008478	0.00212149	0.000142512	2.86584E-05	0	0	0	
0.124167	-0.00906242	-0.000440112	0.0001647	3.25095E-05	0	0	0	
0.124333	0.0110432	-0.000575236	0.000204383	3.16146E-05	0	0	0	
0.1245	-0.0142908	-0.000113942	0.00023541	2.44828E-05	0	0	0	
0.124667	0.0137395	0.00052119	0.000244185	1.74823E-05	0	0	0	
0.124833	-0.011029	-0.00132926	0.000249537	1.60321E-05	0	0	0	
0.125	0.00983153	0.00198682	0.000237487	2.23408E-05	0	0	0	
0.125167	-0.00718279	0.000552137	0.00020725	3.11843E-05	0	0	0	
0.125333	0.0098865	0.00038811	0.000177453	4.71224E-05	0	0	0	
0.1255	-0.0114232	-0.00057029	0.000181771	4.58719E-05	0	0	0	
0.125667	0.0100966	0.00214804	0.000200696	5.1064E-05	0	0	0	
0.125833	-0.00982013	-0.0028688	0.000209941	6.359E-05	0	0	0	
0.126	0.0113081	0.00224411	0.000204636	7.37301E-05	0	0	0	
0.126167	-0.00985316	-0.000638751	0.000201534	6.29284E-05	0	0	0	
0.126333	0.010072	0.00448965	0.000198932	4.43575E-05	0	0	0	
0.1265	-0.0106063	-0.00773114	0.000205858	6.64605E-05	0	0	0	
0.126667	0.0109314	0.00149102	0.000210542	8.41924E-05	0	0	0	
0.126833	-0.0116092	0.000986074	0.000224004	8.37095E-05	0	0	0	
0.127	0.0154707	0.000290267	0.000233639	6.19566E-05	0	0	0	
0.127167	-0.0133972	-0.00290245	0.000251913	4.05944E-05	0	0	0	
0.127333	0.00760181	0.00119584	0.000251734	5.38825E-05	0	0	0	
0.1275	-0.00538556	-0.00114152	0.00021196	4.54786E-05	0	0	0	
0.127667	0.00421932	0.00203905	0.000148411	5.68653E-05	0	0	0	
0.127833	-0.00725327	0.000400943	0.000116494	3.7583E-05	0	0	0	
0.128	0.010862	0.000120646	0.000134514	3.79874E-05	0	0	0	
0.128167	-0.0127016	-0.00131958	0.000182765	2.53545E-05	0	0	0	
0.128333	0.0130696	0.00235672	0.000223522	2.97546E-05	0	0	0	
0.1285	-0.0122653	-0.0017197	0.000240351	3.08079E-05	0	0	0	
0.128667	0.0105103	0.00168623	0.000237771	3.97288E-05	0	0	0	
0.128833	-0.0117403	-0.00156997	0.000222245	3.90886E-05	0	0	0	
0.129	0.0126052	0.000785282	0.000224026	4.98986E-05	0	0	0	
0.129167	-0.00797123	-0.000442812	0.00021019	4.4697E-05	0	0	0	
0.129333	0.00513459	0.0015703	0.000193779	3.94643E-05	0	0	0	
0.1295	-0.0056608	7.30266E-05	0.000157437	3.02043E-05	0	0	0	
0.129667	0.00998951	-0.000396602	0.000182733	3.34886E-05	0	0	0	
0.129833	-0.0180724	-0.00122563	0.000236583	3.00084E-05	0	0	0	
0.13	0.0184709	0.000261869	0.000311503	2.37923E-05	0	0	0	
0.130167	-0.0137754	0.000681903	0.000321187	1.44419E-05	0	0	0	
0.130333	0.0112896	0.00227789	0.000298813	2.45933E-05	0	0	0	
0.1305	-0.00873173	-0.00102281	0.000250093	3.18013E-05	0	0	0	
0.130667	0.00562568	-0.00263347	0.000207035	5.34415E-05	0	0	0	
0.130833	-0.00906202	-0.00123487	0.000189835	6.12699E-05	0	0	0	
0.131	0.0129949	0.00489592	0.000206063	6.32742E-05	0	0	0	
0.131167	-0.0122917	0.00107148	0.000225288	7.25751E-05	0	0	0	
0.131333	0.0156664	-0.000591228	0.00025219	5.99773E-05	0	0	0	
0.1315	-0.0123102	-0.00663114	0.00025522	8.23506E-05	0	0	0	
0.131667	0.00812553	0.00145174	0.000250096	8.26985E-05	0	0	0	
0.131833	-0.00533669	0.00615442	0.000208777	0.000116384	0	0	0	
0.132	0.0101735	0.00146258	0.000164794	0.000113471	0	0	0	
0.132167	-0.0110452	-0.0050043	0.000162777	0.000112586	0	0	0	
0.132333	0.0148357	-0.00248728	0.000196526	9.55554E-05	0	0	0	
0.1325	-0.0149058	0.00211763	0.000254795	7.82544E-05	0	0	0	
0.132667	0.0121066	0.00459729	0.000272097	8.53804E-05	0	0	0	
0.132833	-0.00963337	-0.000732317	0.000258518	8.03627E-05	0	0	0	
0.133	0.00791684	-0.00337675	0.000208299	7.55707E-05	0	0	0	
0.133167	-0.00892792	-0.00118591	0.000181139	6.4052E-05	0	0	0	
0.133333	0.0121942	-8.50208E-05	0.000188003	5.32258E-05	0	0	0	
0.1335	-0.0109254	0.00569275	0.000212948	7.2295E-05	0	0	0	
0.133667	0.00701901	-0.00239341	0.000207598	7.55039E-05	0	0	0	
0.133833	-0.00850085	-0.00355979	0.000184994	0.000101205	0	0	0	
0.134	0.00884136	-0.000683579	0.00017046	8.34851E-05	0	0	0	
0.134167	-0.00973917	0.00302325	0.000183556	6.9357E-05	0	0	0	
0.134333	0.0129142	0.000891651	0.000199426	5.05629E-05	0	0	0	
0.1345	-0.0118326	-0.0016227	0.000209422	4.80885E-05	0	0	0	
0.134667	0.0085137	-0.00332898	0.000206102	6.8059E-05	0	0	0	
0.134833	-0.00808155	0.000450156	0.000194272	6.08385E-05	0	0	0	
0.135	0.0154628	0.00998077	0.000202616	0.000104408	0	0	0	
0.135167	-0.025741	-0.00171262	0.000302261	0.000133917	0	0	0	
0.135333	0.0224542	-0.00108577	0.000415447	0.000155956	0	0	0	
0.1355	-0.0143107	-0.000492291	0.000432	0.000129708	0	0	0	
0.135667	0.00994648	-0.000804961	0.000370265	8.58006E-05	0	0	0	
0.135833	-0.0039299	-0.00310854	0.000265708	6.50555E-05	0	0	0	
0.136	0.00111315	-0.00141048	0.000205236	5.63849E-05	0	0	0	
0.136167	-0.00878151	0.00724818	0.000203627	8.24585E-05	0	0	0	
0.136333	0.0117285	0.000267185	0.000277627	0.000147921	0	0	0	
0.1365	-0.0145196	-0.00931551	0.000344076	0.000161059	0	0	0	
0.136667	0.0144592	-0.00417112	0.000327389	0.000148061	0	0	0	
0.136833	-0.0121034	0.00148262	0.000281664	9.81407E-05	0	0	0	
0.137	0.00590425	0.00482076	0.000232654	9.49493E-05	0	0	0	
0.137167	-0.00700257	-0.0034373	0.000186138	8.0678E-05	0	0	0	
0.137333	0.0133529	-0.00231154	0.000158191	8.72635E-05	0	0	0	
0.1375	-0.0130827	0.00197186	0.000190983	6.74657E-05	0	0	0	
0.137667	0.00900709	0.00207533	0.000231009	7.66649E-05	0	0	0	
0.137833	-0.00909234	-0.00249701	0.000220232	5.63883E-05	0	0	0	
0.138	0.0088795	-0.000458734	0.000187861	6.04455E-05	0	0	0	
0.138167	-0.00957009	-0.001201	0.000168406	4.10049E-05	0	0	0	
0.138333	0.0115265	0.00304697	0.000183074	4.37342E-05	0	0	0	
0.1385	-0.0109503	-0.000481128	0.000204999	4.25373E-05	0	0	0	
0.138667	0.00643958	-0.0026762	0.00021604	4.33017E-05	0	0	0	
0.138833	-0.00843195	0.00108776	0.000196352	4.01246E-05	0	0	0	
0.139	0.00978705	0.00129302	0.000183236	3.03433E-05	0	0	0	
0.139167	-0.0118	-0.000469251	0.000191118	3.47316E-05	0	0	0	
0.139333	0.0135179	0.00278362	0.000218443	4.68988E-05	0	0	0	
0.1395	-0.0113617	-0.00242809	0.00023658	5.51822E-05	0	0	0	
0.139667	0.00573919	-0.00165109	0.000217024	5.79373E-05	0	0	0	
0.139833	-0.0103465	-2.60856E-05	0.000185226	4.61226E-05	0	0	0	
0.14	0.0180885	0.013068	0.000193196	7.09285E-05	0	0	0	
0.140167	-0.0252883	-0.00960722	0.000274023	0.000143699	0	0	0	
0.140333	0.0195046	-0.00419324	0.00038376	0.000173429	0	0	0	
0.1405	-0.00584399	0.00234997	0.000369932	0.000178909	0	0	0	
0.140667	0.00253968	0.000507811	0.000266687	0.000108896	0	0	0	
0.140833	-0.00702397	-0.00281714	0.000154967	8.21624E-05	0	0	0	
0.141	0.00801248	0.00199755	0.000139947	5.65548E-05	0	0	0	
0.141167	-0.0141973	-0.00338651	0.00021496	8.83766E-05	0	0	0	
0.141333	0.0237895	0.00379699	0.000334566	0.000150767	0	0	0	
0.1415	-0.0180823	-0.00659805	0.000437607	0.00016414	0	0	0	
0.141667	0.0160047	-0.00364021	0.000416598	0.000169273	0	0	0	
0.141833	-0.0117856	0.00233336	0.000351659	0.00011474	0	0	0	
0.142	0.00653824	0.00636172	0.000248454	0.000143839	0	0	0	
0.142167	-0.00500452	-0.00556145	0.000201682	0.000115737	0	0	0	
0.142333	0.00801494	-0.00098635	0.000143421	0.000139305	0	0	0	
0.1425	-0.00715783	0.00388603	0.000155378	8.97924E-05	0	0	0	
0.142667	0.00768898	0.000274494	0.000186831	8.52794E-05	0	0	0	
0.142833	-0.00947349	-0.000766802	0.000228891	4.65459E-05	0	0	0	
0.143	0.0096563	-0.000951665	0.000224236	4.363E-05	0	0	0	
0.143167	-0.0100254	-0.00228233	0.000219496	5.12194E-05	0	0	0	
0.143333	0.00989738	0.00458704	0.000204451	6.69761E-05	0	0	0	
0.1435	-0.00889553	-4.27986E-06	0.000203111	7.57483E-05	0	0	0	
0.143667	0.00566688	-0.00128803	0.00016952	6.22001E-05	0	0	0	
0.143833	-0.00695289	0.00213811	0.00014817	5.37743E-05	0	0	0	
0.144	0.00721433	-0.00391183	0.00015016	5.3948E-05	0	0	0	
0.144167	-0.0145767	0.00205966	0.000201877	6.20149E-05	0	0	0	
0.144333	0.0125286	0.000360277	0.000244449	7.43835E-05	0	0	0	
0.1445	-0.0103295	0.0015614	0.000247242	6.08865E-05	0	0	0	
0.144667	0.00360411	-0.000902494	0.000210176	4.02249E-05	0	0	0	
0.144833	-0.00699472	-0.00295627	0.000161673	4.88757E-05	0	0	0	
0.145	0.0213053	0.000763948	0.000226837	0.000117361	0	0	0	
0.145167	-0.0265603	0.000426156	0.000424229	0.000198245	0	0	0	
0.145333	0.0142881	0.013524	0.000562155	0.000196001	0	0	0	
0.1455	-0.0161166	-0.00117619	0.000490667	0.000189012	0	0	0	
0.145667	0.0169489	-0.00454235	0.000380418	0.000149496	0	0	0	
0.145833	-0.0046997	-0.00156117	0.000285947	0.000147493	0	0	0	
0.146	-0.00311009	-0.00487026	0.00023254	9.80661E-05	0	0	0	
0.146167	-0.00169831	0.0223678	0.000182625	0.000142975	0	0	0	
0.146333	0.00207765	0.000104895	0.000260649	0.000198914	0	0	0	
0.1465	-0.00860118	-0.0174389	0.000371689	0.000310257	0	0	0	
0.146667	0.0153868	0.00506747	0.000364162	0.000272789	0	0	0	
0.146833	-0.0163467	0.00948094	0.000308397	0.000274895	0	0	0	
0.147	0.0121582	-0.000846742	0.000284559	0.000209576	0	0	0	
0.147167	-0.0123896	-0.0123279	0.000277063	0.00021895	0	0	0	
0.147333	0.017258	0.00219526	0.000270616	0.000200201	0	0	0	
0.1475	-0.0081963	0.00470808	0.000265459	0.000181812	0	0	0	
0.147667	-0.00215895	0.00506921	0.000248611	0.000181406	0	0	0	
0.147833	-0.00618437	-0.00736647	0.0001867	0.000149253	0	0	0	
0.148	0.0145949	-0.00351759	0.000167359	0.000173887	0	0	0	
0.148167	-0.00977173	0.00729835	0.000209359	0.000146397	0	0	0	
0.148333	0.00593287	0.00456842	0.000211219	0.000165124	0	0	0	
0.1485	-0.0104145	-0.00650463	0.000191578	0.000133015	0	0	0	
0.148667	0.00550461	0.000158452	0.000163538	0.00013023	0	0	0	
0.148833	-0.00440657	0.00161801	0.000171669	7.73275E-05	0	0	0	
0.149	0.00789902	0.00403574	0.000177585	7.47128E-05	0	0	0	
0.149167	-0.0117232	-0.000898887	0.000200206	5.19442E-05	0	0	0	
0.149333	0.0102379	-0.00201521	0.000249237	8.08471E-05	0	0	0	
0.1495	-0.0179337	0.00230488	0.000266913	5.77738E-05	0	0	0	
0.149667	0.0165337	0.0014953	0.000291484	6.99209E-05	0	0	0	
0.149833	-0.00929817	0.000322739	0.000287594	4.66799E-05	0	0	0	
0.15	0.00233632	-0.00256478	0.000262064	4.59618E-05	0	0	0	
0.150167	-0.00121815	-0.000723546	0.000171111	4.70365E-05	0	0	0	
0.150333	-0.000308825	0.000772017	0.00010561	4.76029E-05	0	0	0	
0.1505	-0.00688399	0.00308367	0.000122986	5.73978E-05	0	0	0	
0.150667	0.016023	-0.00272641	0.000216723	5.06807E-05	0	0	0	
0.150833	-0.020608	-0.00156522	0.000317396	4.94712E-05	0	0	0	
0.151	0.0169584	-0.00224209	0.000355063	5.40082E-05	0	0	0	
0.151167	-0.0116985	0.0024451	0.000326568	5.8998E-05	0	0	0	
0.151333	0.00734686	0.000676081	0.000273229	7.53197E-05	0	0	0	
0.1515	-0.00381502	-0.00377257	0.000201106	6.29608E-05	0	0	0	
0.151667	0.00746114	-0.000545494	0.000155723	7.51052E-05	0	0	0	
0.151833	-0.00696886	0.00199117	0.00013696	6.56034E-05	0	0	0	
0.152	0.00710636	0.00198274	0.000164819	8.15101E-05	0	0	0	
0.152167	-0.00736358	-0.00506196	0.000187963	6.32875E-05	0	0	0	
0.152333	0.010493	-2.54914E-05	0.000180348	7.29431E-05	0	0	0	
0.1525	-0.00811997	0.000267786	0.00018167	5.08071E-05	0	0	0	
0.152667	0.00876004	0.00381088	0.000180157	7.49261E-05	0	0	0	
0.152833	-0.0108744	-0.00259017	0.000205286	6.75616E-05	0	0	0	
0.153	0.00831511	-0.00273649	0.000205458	7.87563E-05	0	0	0	
0.153167	-0.0076372	-0.000838609	0.00019192	6.27209E-05	0	0	0	
0.153333	0.00603255	0.00640348	0.000160078	8.45359E-05	0	0	0	
0.1535	-0.00666817	-0.00309669	0.000138727	9.70837E-05	0	0	0	
0.153667	0.00621274	-0.00266871	0.000145853	0.00010293	0	0	0	
0.153833	-0.0111866	-0.00153038	0.000165946	8.31944E-05	0	0	0	
0.154	0.0109956	0.00415638	0.000202132	7.3339E-05	0	0	0	
0.154167	-0.0111497	0.000952367	0.000216295	7.31401E-05	0	0	0	
0.154333	0.00709413	-0.00198697	0.000213801	5.84493E-05	0	0	0	
0.1545	-0.00600826	-0.00364952	0.000170472	8.37377E-05	0	0	0	
0.154667	0.00441618	0.00245869	0.000139263	6.70626E-05	0	0	0	
0.154833	-0.00939613	0.00197788	0.000127511	9.42168E-05	0	0	0	
0.155	0.0135829	-0.000423477	0.000176232	6.89983E-05	0	0	0	
0.155167	-0.0130965	-0.00506419	0.000234474	9.2226E-05	0	0	0	
0.155333	0.010493	-0.000861591	0.000267826	7.36394E-05	0	0	0	
0.1555	-0.012853	0.00373835	0.000239777	6.88189E-05	0	0	0	
0.155667	0.00966214	0.000745179	0.000229111	5.69174E-05	0	0	0	
0.155833	-0.0059797	-0.00262734	0.000191253	5.41849E-05	0	0	0	
0.156	0.00392907	-0.00208235	0.000183186	7.5953E-05	0	0	0	
0.156167	-0.00473247	0.00128115	0.000158793	5.91548E-05	0	0	0	
0.156333	0.0078198	0.00238799	0.000190832	7.2918E-05	0	0	0	
0.1565	-0.0109194	0.000277028	0.000222543	5.2897E-05	0	0	0	
0.156667	0.0163951	-0.00131416	0.00025573	5.86022E-05	0	0	0	
0.156833	-0.0130495	-0.00223163	0.000277611	5.93353E-05	0	0	0	
0.157	0.0111219	0.00287989	0.000273443	5.30283E-05	0	0	0	
0.157167	-0.00562328	0.00351736	0.000226081	7.30418E-05	0	0	0	
0.157333	0.00567602	-0.00402561	0.000174995	7.06296E-05	0	0	0	
0.1575	-0.00673906	-0.00325894	0.000167993	9.68508E-05	0	0	0	
0.157667	0.00853171	0.00352513	0.000207985	8.34641E-05	0	0	0	
0.157833	-0.0136883	0.00204681	0.000249014	8.37972E-05	0	0	0	
0.158	0.0156911	-0.000549222	0.000271158	6.8068E-05	0	0	0	
0.158167	-0.0109341	-0.00260238	0.0002673	6.94885E-05	0	0	0	
0.158333	0.0135624	-0.001683	0.00026382	6.96E-05	0	0	0	
0.1585	-0.00702478	0.00231385	0.00025128	5.89413E-05	0	0	0	
0.158667	0.00427508	0.0026146	0.000223053	7.59104E-05	0	0	0	
0.158833	-0.00809971	-0.00391367	0.000195843	7.07747E-05	0	0	0	
0.159	0.0120505	-0.000417925	0.000196281	8.36816E-05	0	0	0	
0.159167	-0.0142302	0.00202867	0.000251438	5.21846E-05	0	0	0	
0.159333	0.0196433	9.97678E-05	0.000312101	4.50484E-05	0	0	0	
0.1595	-0.0171349	-5.75662E-05	0.000346452	2.63327E-05	0	0	0	
0.159667	0.00721418	-0.00105695	0.000312196	2.83289E-05	0	0	0	
0.159833	-0.00075702	-0.000796574	0.000260107	3.76511E-05	0	0	0	
0.16	-0.000567744	0.00310226	0.000163719	4.58539E-05	0	0	0	
0.160167	-0.0007339	0.00107042	0.000180909	5.87562E-05	0	0	0	
0.160333	0.0113997	-0.00587352	0.000262621	6.04837E-05	0	0	0	
0.1605	-0.0220507	0.0011247	0.000387452	8.38502E-05	0	0	0	
0.160667	0.0210385	0.00434321	0.000429075	0.00010592	0	0	0	
0.160833	-0.0127346	-0.000376926	0.000386048	9.83833E-05	0	0	0	
0.161	0.00836646	-0.00247134	0.000314588	8.01647E-05	0	0	0	
0.161167	-0.0013396	-0.00335564	0.000228834	5.24412E-05	0	0	0	
0.161333	0.00188255	0.00147707	0.000180517	6.05829E-05	0	0	0	
0.1615	-0.0106321	0.00384029	0.000181041	8.3226E-05	0	0	0	
0.161667	0.0130411	0.000792256	0.000216841	0.000108325	0	0	0	
0.161833	-0.0110378	-0.00884214	0.000233017	0.000140469	0	0	0	
0.162	0.0109734	0.0025536	0.000236961	0.000142587	0	0	0	
0.162167	-0.00750792	0.00114103	0.000249617	0.000149794	0	0	0	
0.162333	0.00405785	0.00215494	0.000256558	0.000102493	0	0	0	
0.1625	-0.0121535	-0.00226342	0.000235802	7.26276E-05	0	0	0	
0.162667	0.015026	-0.0015653	0.000232101	3.64037E-05	0	0	0	
0.162833	-0.0111077	-0.00191527	0.000250581	6.86615E-05	0	0	0	
0.163	0.00885253	0.00354075	0.000277276	8.29978E-05	0	0	0	
0.163167	-0.00580304	-0.00183854	0.000264225	8.74329E-05	0	0	0	
0.163333	0.00701759	0.00076947	0.000226708	5.93185E-05	0	0	0	
0.1635	-0.0121529	-0.000628986	0.000203143	4.35856E-05	0	0	0	
0.163667	0.0110167	0.000395836	0.000195312	3.70778E-05	0	0	0	
0.163833	-0.00698466	-0.000615234	0.000208611	4.96655E-05	0	0	0	
0.164	0.00509251	0.0033516	0.000213703	6.03745E-05	0	0	0	
0.164167	-0.00539092	-0.00121446	0.000193225	6.22077E-05	0	0	0	
0.164333	0.00797542	-0.000890041	0.000169284	4.83846E-05	0	0	0	
0.1645	-0.00655109	0.00123839	0.000169113	3.38783E-05	0	0	0	
0.164667	0.00721804	0.00077435	0.000189031	2.61197E-05	0	0	0	
0.164833	-0.0136456	0.00126806	0.000222957	2.70726E-05	0	0	0	
0.165	0.0117097	0.000271366	0.000241353	2.85556E-05	0	0	0	
0.165167	-0.00507717	0.00078278	0.000220571	2.84395E-05	0	0	0	
0.165333	0.00295662	-0.000183019	0.00015649	2.65679E-05	0	0	0	
0.1655	-0.00363313	-0.0011813	0.000117043	2.41029E-05	0	0	0	
0.165667	0.00722913	-0.000671384	0.000135827	2.29324E-05	0	0	0	
0.165833	-0.0121591	0.00143809	0.000198967	2.25029E-05	0	0	0	
0.166	0.0131129	-0.000164878	0.000246495	3.80173E-05	0	0	0	
0.166167	-0.00661267	-0.00177329	0.000240855	5.91011E-05	0	0	0	
0.166333	0.00451371	0.00249176	0.000185744	8.26268E-05	0	0	0	
0.1665	-0.00985727	-0.00770393	0.000153514	0.000109725	0	0	0	
0.166667	0.0104507	0.00226488	0.000194022	0.000117382	0	0	0	
0.166833	-0.00713676	0.00351713	0.000287662	0.000156861	0	0	0	
0.167	0.010749	-0.00530602	0.000296142	0.000171037	0	0	0	
0.167167	-0.00959919	0.00580938	0.000259661	0.000200516	0	0	0	
0.167333	0.0054941	-0.00167631	0.000191824	0.00020631	0	0	0	
0.1675	-0.00724205	0.000366947	0.000186007	0.000177762	0	0	0	
0.167667	0.0127222	-0.00303373	0.000234477	0.000195433	0	0	0	
0.167833	-0.0120986	-0.00984995	0.000322584	0.00018666	0	0	0	
0.168	0.00924516	0.0120217	0.000322335	0.000264073	0	0	0	
0.168167	-0.0109543	0.0131488	0.000277264	0.000284019	0	0	0	
0.168333	0.0076517	-0.0120079	0.000219431	0.00032242	0	0	0	
0.1685	0.00286206	-0.00840769	0.00024313	0.000303064	0	0	0	
0.168667	-0.00425793	-0.00317997	0.000243466	0.000235135	0	0	0	
0.168833	-0.00591684	0.00795057	0.000208568	0.0001784	0	0	0	
0.169	0.00293006	0.00178682	0.000175699	0.000112868	0	0	0	
0.169167	0.00358869	-0.00805995	0.000121516	0.000161371	0	0	0	
0.169333	-0.00622083	-0.00839835	0.000123985	0.000159477	0	0	0	
0.1695	0.0013166	-0.00314648	0.000176948	0.000207176	0	0	0	
0.169667	0.00750587	0.010287	0.000258703	0.000179429	0	0	0	
0.169833	-0.0140375	0.0104254	0.00026935	0.000240776	0	0	0	
0.17	0.0108569	-0.0158389	0.00025103	0.00023593	0	0	0	
0.170167	-0.00404754	0.00120138	0.000242405	0.000289427	0	0	0	
0.170333	0.00481843	0.0204584	0.000319108	0.000266485	0	0	0	
0.1705	-0.0166126	0.00953066	0.000345922	0.000263342	0	0	0	
0.170667	0.0150865	-0.00775741	0.000351188	0.000229712	0	0	0	
0.170833	-2.76875E-05	-0.0149109	0.000274493	0.000258589	0	0	0	
0.171	-0.0120038	0.00520058	0.000239065	0.000240686	0	0	0	
0.171167	0.0111138	0.026317	0.000285885	0.000364198	0	0	0	
0.171333	-0.00991347	-0.00728523	0.000410917	0.000369079	0	0	0	
0.1715	-0.00373703	-0.01075	0.000533495	0.000459736	0	0	0	
0.171667	0.019533	-0.00214467	0.000576416	0.000317769	0	0	0	
0.171833	-0.0213293	0.00793448	0.000541339	0.000352188	0	0	0	
0.172	0.00229125	-0.00736231	0.00041466	0.000305031	0	0	0	
0.172167	0.0146922	-0.00922781	0.000352974	0.000350768	0	0	0	
0.172333	-0.0094146	0.00315241	0.000263774	0.000298475	0	0	0	
0.1725	-0.0136285	0.00424586	0.000339946	0.000230888	0	0	0	
0.172667	0.0280063	0.00269928	0.000402633	0.000242846	0	0	0	
0.172833	-0.0209045	-0.0155172	0.000501153	0.000207904	0	0	0	
0.173	0.00963384	-0.00192744	0.000445925	0.000293516	0	0	0	
0.173167	-0.0059571	0.00367871	0.000301989	0.000228964	0	0	0	
0.173333	0.00713122	0.0163258	0.000196435	0.000219869	0	0	0	
0.1735	-0.00826079	0.00630608	0.000158845	0.000204537	0	0	0	
0.173667	0.012925	-0.0228239	0.000230867	0.000250357	0	0	0	
0.173833	-0.0152566	-0.00503177	0.000348259	0.000317155	0	0	0	
0.174	0.0109032	0.0172808	0.000391193	0.000312919	0	0	0	
0.174167	-0.000798147	0.00030875	0.000324394	0.000289854	0	0	0	
0.174333	0.000689994	0.00325116	0.000180243	0.000194042	0	0	0	
0.1745	-0.0126071	0.00183689	0.000198385	0.00020473	0	0	0	
0.174667	0.0246353	-0.00443429	0.000370045	0.00019866	0	0	0	
0.174833	-0.02517	-0.000807901	0.000553896	0.000206855	0	0	0	
0.175	0.0172045	0.00104668	0.000562363	0.000166675	0	0	0	
0.175167	-0.00703013	-0.010514	0.000433919	0.000159001	0	0	0	
0.175333	-0.00390564	0.00364066	0.000310004	0.000168124	0	0	0	
0.1755	0.0104562	0.00804811	0.000234786	0.000142947	0	0	0	
0.175667	-0.00542852	-0.00822642	0.000302823	0.000155854	0	0	0	
0.175833	-0.00532778	0.0015591	0.000412242	0.000140191	0	0	0	
0.176	0.0153726	-0.00279374	0.000524772	0.000146581	0	0	0	
0.176167	-0.02462	-0.00886961	0.000485858	0.000168398	0	0	0	
0.176333	0.0179898	0.00774044	0.000422572	0.000205346	0	0	0	
0.1765	-0.00283039	-0.000282271	0.000336732	0.00019198	0	0	0	
0.176667	-0.00350279	-0.0017968	0.000234899	0.000130814	0	0	0	
0.176833	-0.00191402	-0.000369383	0.000159756	6.69212E-05	0	0	0	
0.177	0.0079486	-0.000547933	0.000129392	4.62008E-05	0	0	0	
0.177167	-0.0108088	-0.00131811	0.000174785	3.36178E-05	0	0	0	
0.177333	0.0144745	0.000630706	0.000228844	7.35196E-05	0	0	0	
0.1775	-0.0158788	-0.00329288	0.000306934	8.58128E-05	0	0	0	
0.177667	0.0140047	-0.000141579	0.000341187	9.1562E-05	0	0	0	
0.177833	-0.00886128	0.00567526	0.000294783	6.85081E-05	0	0	0	
0.178	0.00274146	-0.00425802	0.000210231	7.69769E-05	0	0	0	
0.178167	-0.000303858	-0.00129176	0.000120339	9.16637E-05	0	0	0	
0.178333	0.00144738	0.00518978	9.91685E-05	0.00010101	0	0	0	
0.1785	-0.00530824	-0.0012014	0.000144699	9.15099E-05	0	0	0	
0.178667	0.0119146	-0.00392134	0.000228026	9.51788E-05	0	0	0	
0.178833	-0.0116927	0.00507705	0.000271379	9.40631E-05	0	0	0	
0.179	0.0101152	-0.00233181	0.000241663	9.91644E-05	0	0	0	
0.179167	-0.0112304	0.000780882	0.000225488	6.52712E-05	0	0	0	
0.179333	0.00825194	0.00242689	0.000213443	5.95891E-05	0	0	0	
0.1795	-0.00511708	-0.00179262	0.000218796	5.05189E-05	0	0	0	
0.179667	0.00837276	-0.000980824	0.00020548	7.40657E-05	0	0	0	
0.179833	-0.011177	0.00343046	0.000206828	7.15136E-05	0	0	0	
0.18	0.00401482	-0.000143202	0.0002113	7.52993E-05	0	0	0	
0.180167	-0.00255148	-0.00381508	0.000187377	8.01318E-05	0	0	0	
0.180333	0.00437017	0.00292773	0.000178622	8.36616E-05	0	0	0	
0.1805	-0.00394504	0.000626176	0.000209781	9.20124E-05	0	0	0	
0.180667	0.00478066	-0.00190819	0.000266117	9.18962E-05	0	0	0	
0.180833	-0.0124392	0.00243975	0.000281647	7.48309E-05	0	0	0	
0.181	0.00939864	0.00117669	0.000274972	6.75411E-05	0	0	0	
0.181167	-0.000556479	-0.00305273	0.000198879	5.11493E-05	0	0	0	
0.181333	0.00373669	0.00285026	0.000128508	5.84587E-05	0	0	0	
0.1815	-0.0115229	-0.00161591	0.000106524	5.1102E-05	0	0	0	
0.181667	0.0102286	0.00100644	0.000180754	4.42794E-05	0	0	0	
0.181833	-0.0111176	-0.00233289	0.000240632	5.69246E-05	0	0	0	
0.182	0.0063639	0.00266192	0.00025213	7.32871E-05	0	0	0	
0.182167	-0.000506442	-0.00239759	0.000243538	7.85895E-05	0	0	0	
0.182333	0.00839393	0.00347067	0.000213412	6.49427E-05	0	0	0	
0.1825	-0.00888226	-0.00223692	0.000192366	6.02637E-05	0	0	0	
0.182667	0.00586452	-0.00296189	0.000194165	5.23639E-05	0	0	0	
0.182833	-0.00937499	0.0021706	0.000281655	7.64014E-05	0	0	0	
0.183	0.00969408	0.00192562	0.000338957	0.000106042	0	0	0	
0.183167	-0.00238743	-0.00293213	0.000300509	0.000121965	0	0	0	
0.183333	0.00400502	-0.000206844	0.00018499	9.32373E-05	0	0	0	
0.1835	-0.00939903	0.00191282	0.000128135	5.86133E-05	0	0	0	
0.183667	0.00724641	-0.00361882	0.000149381	4.95202E-05	0	0	0	
0.183833	-0.00102361	-0.00030909	0.000176673	6.77082E-05	0	0	0	
0.184	0.00347123	0.00201928	0.00016124	6.49498E-05	0	0	0	
0.184167	-0.00866071	-0.00172725	0.000162966	6.35095E-05	0	0	0	
0.184333	0.0085718	-0.000270324	0.000205495	4.14958E-05	0	0	0	
0.1845	-0.00700236	-0.000184619	0.000222968	3.08686E-05	0	0	0	
0.184667	0.00551989	-0.00121401	0.000209613	2.18811E-05	0	0	0	
0.184833	-0.00568586	-0.00149303	0.000184095	2.30202E-05	0	0	0	
0.185	0.00865797	0.00291903	0.000183015	3.53305E-05	0	0	0	
0.185167	-0.00794362	-0.00115708	0.000188551	4.06223E-05	0	0	0	
0.185333	0.00611623	0.000723865	0.000194749	4.10378E-05	0	0	0	
0.1855	-0.00502409	0.00386013	0.000194481	3.83841E-05	0	0	0	
0.185667	0.00524775	-0.0039085	0.000202144	5.74846E-05	0	0	0	
0.185833	-0.00409218	-0.000277775	0.000213119	7.38154E-05	0	0	0	
0.186	0.00580859	0.00123488	0.000221538	6.92719E-05	0	0	0	
0.186167	-0.00453254	0.00150833	0.000223429	4.87373E-05	0	0	0	
0.186333	0.00501388	-0.00392721	0.000213391	4.47076E-05	0	0	0	
0.1865	-0.00486877	0.00525981	0.000197637	6.00743E-05	0	0	0	
0.186667	0.00559551	-0.00234702	0.000172367	8.31108E-05	0	0	0	
0.186833	-0.00351068	-0.00354938	0.000141392	9.72053E-05	0	0	0	
0.187	0.00209451	0.00496951	0.000129443	0.000102187	0	0	0	
0.187167	-0.00449241	-0.000924018	0.000176394	9.85875E-05	0	0	0	
0.187333	0.00872038	-0.00458992	0.000278368	0.000104716	0	0	0	
0.1875	-0.0125428	0.00709467	0.000343583	0.000108428	0	0	0	
0.187667	0.0102327	-0.00645425	0.000315976	0.000121745	0	0	0	
0.187833	-0.00385157	5.18493E-05	0.00022292	0.000115417	0	0	0	
0.188	-0.00226051	0.0046164	0.000140984	0.000118375	0	0	0	
0.188167	0.00376166	-0.00398422	0.000129279	0.000101991	0	0	0	
0.188333	-0.00300813	0.000456781	0.000183443	8.96247E-05	0	0	0	
0.1885	-0.00489475	0.00508561	0.000274654	7.90734E-05	0	0	0	
0.188667	0.00788478	-0.00559058	0.000305207	8.43822E-05	0	0	0	
0.188833	-0.00775484	4.33393E-05	0.00026411	8.10381E-05	0	0	0	
0.189	0.0043322	0.00163721	0.000188728	8.71289E-05	0	0	0	
0.189167	-0.0029516	-0.00322592	0.000126729	7.65614E-05	0	0	0	
0.189333	0.0034542	0.00256721	0.000114619	7.69866E-05	0	0	0	
0.1895	-0.00535954	0.00138685	0.000141848	5.46838E-05	0	0	0	
0.189667	0.00918903	-0.00292675	0.00018061	4.29439E-05	0	0	0	
0.189833	-0.00891352	0.00208121	0.000192352	4.76721E-05	0	0	0	
0.19	0.00608427	-0.000239038	0.00018181	6.62179E-05	0	0	0	
0.190167	-0.00514603	-0.00248745	0.000194047	7.9103E-05	0	0	0	
0.190333	0.00347274	0.00500278	0.000221698	7.82939E-05	0	0	0	
0.1905	-0.00311692	-0.00284923	0.000242032	7.58284E-05	0	0	0	
0.190667	0.00801307	0.000708218	0.000246521	6.8861E-05	0	0	0	
0.190833	-0.00870472	0.00356224	0.000247407	6.45778E-05	0	0	0	
0.191	0.00395433	-0.00178322	0.000241416	6.42972E-05	0	0	0	
0.191167	-0.0017483	0.00146988	0.000224459	6.0974E-05	0	0	0	
0.191333	0.00354087	0.00086664	0.000212358	5.07913E-05	0	0	0	
0.1915	-0.00533571	-0.00296132	0.000202736	3.78044E-05	0	0	0	
0.191667	0.00614405	0.00379846	0.000191721	4.58437E-05	0	0	0	
0.191833	-0.000893284	-0.000421294	0.000170556	5.01263E-05	0	0	0	
0.192	0.000457629	-0.000894764	0.000167631	4.61779E-05	0	0	0	
0.192167	-0.00227886	0.00162727	0.000175965	3.49395E-05	0	0	0	
0.192333	-0.0001383	0.00019844	0.000169241	2.7121E-05	0	0	0	
0.1925	-0.00100195	-0.00116195	0.000161422	1.98393E-05	0	0	0	
0.192667	0.00665005	0.0045821	0.000175583	3.54146E-05	0	0	0	
0.192833	-0.0056125	-0.00307133	0.000200025	6.25794E-05	0	0	0	
0.193	0.00076988	-0.00107105	0.000179131	8.70543E-05	0	0	0	
0.193167	0.00118525	0.00280453	0.000118569	9.69489E-05	0	0	0	
0.193333	0.00300048	-0.00320106	8.881E-05	8.62165E-05	0	0	0	
0.1935	-0.0070779	0.00166216	0.000136588	7.34097E-05	0	0	0	
0.193667	0.00954021	0.00197816	0.000224007	6.61188E-05	0	0	0	
0.193833	-0.00585742	-0.00233179	0.000271208	7.0205E-05	0	0	0	
0.194	0.00223525	0.00334375	0.000231856	6.57904E-05	0	0	0	
0.194167	-0.00296444	-0.00158474	0.000154865	6.24011E-05	0	0	0	
0.194333	0.00794662	-0.000252333	0.000116027	5.46909E-05	0	0	0	
0.1945	-0.0064135	0.00133955	0.000160554	4.64204E-05	0	0	0	
0.194667	0.0024681	1.20642E-05	0.000225209	3.50383E-05	0	0	0	
0.194833	0.000360805	-0.000540985	0.000263689	3.00076E-05	0	0	0	
0.195	0.00207916	0.000916562	0.000244382	3.02913E-05	0	0	0	
0.195167	-0.00425639	-0.00309586	0.000200844	4.4115E-05	0	0	0	
0.195333	0.00169669	-0.00268402	0.000180582	4.78386E-05	0	0	0	
0.1955	-0.00269459	0.00259257	0.000200082	5.99024E-05	0	0	0	
0.195667	0.00414509	-0.000882993	0.000238478	6.02293E-05	0	0	0	
0.195833	-0.00313513	-0.00383017	0.000229342	7.15721E-05	0	0	0	
0.196	0.00126177	0.0036317	0.000172291	7.86892E-05	0	0	0	
0.196167	-0.00123673	-0.00390425	0.000120286	7.93331E-05	0	0	0	
0.196333	0.00131633	-0.00159024	0.000112627	7.03635E-05	0	0	0	
0.1965	-0.000757417	0.00537767	0.00012282	7.56572E-05	0	0	0	
0.196667	0.00279079	-0.00316568	0.000109907	7.4393E-05	0	0	0	
0.196833	-0.00460921	0.000906626	9.51502E-05	7.23063E-05	0	0	0	
0.197	0.007551	0.0044439	0.000104956	6.19185E-05	0	0	0	
0.197167	-0.00783702	-0.00472354	0.000138446	6.49277E-05	0	0	0	
0.197333	0.00328865	0.000934229	0.000137175	6.47858E-05	0	0	0	
0.1975	-0.00940813	0.00270078	0.000131493	7.15015E-05	0	0	0	
0.197667	0.00912224	-0.00259123	0.000145617	6.06973E-05	0	0	0	
0.197833	-0.00728008	0.000677199	0.000183058	5.54244E-05	0	0	0	
0.198	0.00599104	0.00251853	0.000227057	4.58764E-05	0	0	0	
0.198167	-0.00998156	-0.00377749	0.000271461	5.14996E-05	0	0	0	
0.198333	0.0117809	0.00184062	0.000297558	6.62545E-05	0	0	0	
0.1985	-0.0122198	-0.00134187	0.000293722	5.93873E-05	0	0	0	
0.198667	0.00582282	-0.000816269	0.000262224	4.78107E-05	0	0	0	
0.198833	-0.00299632	0.00123018	0.000247805	2.84219E-05	0	0	0	
0.199	0.00302863	0.00107642	0.000244698	3.33372E-05	0	0	0	
0.199167	-0.00257982	-0.00153495	0.000235186	4.88694E-05	0	0	0	
0.199333	0.00804121	0.00206294	0.000233079	7.02554E-05	0	0	0	
0.1995	-0.00971973	-0.000219481	0.000233991	7.78483E-05	0	0	0	
0.199667	-0.000839243	0.00169307	0.00020816	5.48945E-05	0	0	0	
0.199833	0.0105888	0.00116938	0.00019883	4.99168E-05	0	0	0	
0.2	0.00419318	-0.00379799	0.000253575	4.5975E-05	0	0	0	
0.200167	-0.0180827	0.00298408	0.000335064	8.14352E-05	0	0	0	
0.200333	0.0142452	0.000208025	0.000369846	0.000120847	0	0	0	
0.2005	-0.00198926	-0.00398784	0.000288239	0.000145274	0	0	0	
0.200667	-0.00284712	0.00326015	0.000200507	0.000124909	0	0	0	
0.200833	0.00293301	-0.000277382	0.000156612	8.07267E-05	0	0	0	
0.201	0.000195287	-0.00327947	0.000181901	6.56192E-05	0	0	0	
0.201167	-0.00960561	0.00547312	0.000253259	7.10946E-05	0	0	0	
0.201333	0.0141931	-0.00617818	0.000319619	9.22588E-05	0	0	0	
0.2015	-0.010073	0.00213163	0.000340453	0.000100169	0	0	0	
0.201667	0.00537673	0.002533	0.000280816	0.000107003	0	0	0	
0.201833	0.000684472	-0.00173322	0.000167239	8.5721E-05	0	0	0	
0.202	-0.000229283	-0.00142882	0.000104866	6.60808E-05	0	0	0	
0.202167	-0.00348324	0.00412056	0.000156643	5.35476E-05	0	0	0	
0.202333	0.00495181	-0.00313677	0.000251427	5.60019E-05	0	0	0	
0.2025	-0.00355054	0.00138497	0.000271833	6.14176E-05	0	0	0	
0.202667	0.00175523	-0.000618195	0.000207199	4.74068E-05	0	0	0	
0.202833	-0.000187383	0.00105458	0.000172838	2.83916E-05	0	0	0	
0.203	0.00736862	-0.00313915	0.00021977	2.84475E-05	0	0	0	
0.203167	-0.00791798	0.000715938	0.000278809	3.63165E-05	0	0	0	
0.203333	0.00586993	0.00133772	0.000273876	3.96221E-05	0	0	0	
0.2035	0.000354337	-0.00055002	0.000207442	3.07438E-05	0	0	0	
0.203667	-0.00199649	0.000530413	0.00014556	3.73357E-05	0	0	0	
0.203833	0.00335135	0.000153573	0.000136427	5.16896E-05	0	0	0	
0.204	0.00219831	-0.0025068	0.000165404	5.57762E-05	0	0	0	
0.204167	-0.0030509	0.00264976	0.000195141	5.36701E-05	0	0	0	
0.204333	0.00752568	-0.00201764	0.000197378	4.98316E-05	0	0	0	
0.2045	-0.00376738	-0.00100741	0.000206341	4.5806E-05	0	0	0	
0.204667	0.000809029	0.00105312	0.00019498	4.40065E-05	0	0	0	
0.204833	0.00190026	-0.001931	0.000181315	3.78055E-05	0	0	0	
0.205	0.00115977	0.000631571	0.000183326	3.65374E-05	0	0	0	
0.205167	-0.0062186	0.00176101	0.00023936	3.01139E-05	0	0	0	
0.205333	0.0112146	-0.0010882	0.00030922	3.09288E-05	0	0	0	
0.2055	-0.0093473	0.000220174	0.00033455	2.47762E-05	0	0	0	
0.205667	0.00475449	-0.00146336	0.000283181	2.48035E-05	0	0	0	
0.205833	0.000911851	0.00291033	0.000200718	3.01391E-05	0	0	0	
0.206	0.000627023	-0.00420066	0.000166568	4.9946E-05	0	0	0	
0.206167	-0.00337117	0.00312924	0.000228255	6.26919E-05	0	0	0	
0.206333	0.00543234	-0.00190768	0.00032231	6.14686E-05	0	0	0	
0.2065	-0.00521036	0.00132051	0.000355142	4.77094E-05	0	0	0	
0.206667	0.00608815	-0.00167833	0.000307365	3.73648E-05	0	0	0	
0.206833	-0.00559312	0.00227904	0.000237323	4.17036E-05	0	0	0	
0.207	0.00215386	-0.00215731	0.000203481	5.00289E-05	0	0	0	
0.207167	-0.00146639	0.00148532	0.000211893	5.46262E-05	0	0	0	
0.207333	-0.0020283	0.000345776	0.000240944	4.66079E-05	0	0	0	
0.2075	0.000659005	-7.7253E-05	0.00025561	3.10845E-05	0	0	0	
0.207667	0.00551747	0.00109254	0.000252383	1.78478E-05	0	0	0	
0.207833	-0.00367853	-0.00042398	0.000242745	1.34782E-05	0	0	0	
0.208	0.00313633	-0.00251984	0.000228709	2.67703E-05	0	0	0	
0.208167	-0.000203656	0.00270515	0.000212774	4.18002E-05	0	0	0	
0.208333	0.00128297	0.000257365	0.000187119	4.46572E-05	0	0	0	
0.2085	-0.00289959	-0.0029318	0.000168818	4.68484E-05	0	0	0	
0.208667	0.00451129	0.00255033	0.000153755	4.42496E-05	0	0	0	
0.208833	-0.00106131	-0.000991659	0.000153932	4.62424E-05	0	0	0	
0.209	-0.00142221	0.00218583	0.000165377	4.76869E-05	0	0	0	
0.209167	4.63216E-06	-0.00256185	0.000187048	4.88336E-05	0	0	0	
0.209333	0.00497077	0.0019495	0.000199919	5.16574E-05	0	0	0	
0.2095	-0.00695789	-0.000276405	0.000210243	4.15149E-05	0	0	0	
0.209667	0.0021856	0.000790357	0.00021039	2.67464E-05	0	0	0	
0.209833	-0.000860656	0.000188231	0.000202662	1.60013E-05	0	0	0	
0.21	-0.000584126	0.000417426	0.000189895	1.19917E-05	0	0	0	
0.210167	-0.00192462	-0.00171276	0.000161909	2.86463E-05	0	0	0	
0.210333	0.000518973	0.00286199	0.000135806	4.79391E-05	0	0	0	
0.2105	-0.00101111	-0.00171521	0.000129169	6.26498E-05	0	0	0	
0.210667	-0.00133958	0.00195701	0.000162716	5.18253E-05	0	0	0	
0.210833	-0.00177119	-0.00128145	0.000199314	4.43212E-05	0	0	0	
0.211	0.00501117	-0.00103543	0.000202949	2.92579E-05	0	0	0	
0.211167	-0.0059527	-0.000483933	0.000182868	3.78329E-05	0	0	0	
0.211333	0.00313288	0.00173068	0.000167974	4.48232E-05	0	0	0	
0.2115	-0.00406204	-0.000723584	0.00016637	4.68054E-05	0	0	0	
0.211667	0.00105138	-0.00136136	0.00016041	3.94196E-05	0	0	0	
0.211833	-0.000159771	0.000763556	0.000140111	2.47499E-05	0	0	0	
0.212	-0.000406534	-0.00033106	0.00014394	3.02419E-05	0	0	0	
0.212167	-0.00263987	0.00221259	0.000185649	3.00242E-05	0	0	0	
0.212333	0.0035792	-0.00110604	0.000241873	3.73912E-05	0	0	0	
0.2125	-0.004245	-0.000916933	0.000247312	3.75343E-05	0	0	0	
0.212667	0.00116199	-6.40846E-05	0.000203423	3.37211E-05	0	0	0	
0.212833	-0.00375661	0.00135349	0.000161679	2.66364E-05	0	0	0	
0.213	0.00413974	0.0016531	0.000158361	3.18113E-05	0	0	0	
0.213167	0.00280557	-0.000565902	0.000153065	3.16699E-05	0	0	0	
0.213333	-0.00337421	-0.00276585	0.000146997	3.88455E-05	0	0	0	
0.2135	-0.00377713	-0.000530958	0.000160981	4.0639E-05	0	0	0	
0.213667	0.00821782	0.00449245	0.000191528	7.0469E-05	0	0	0	
0.213833	-0.00348509	-5.30381E-05	0.000209891	6.86289E-05	0	0	0	
0.214	0.00129868	-0.00374628	0.000212858	6.92678E-05	0	0	0	
0.214167	-0.000474928	0.00212718	0.000245559	5.63169E-05	0	0	0	
0.214333	0.00185297	0.00106648	0.000257877	6.56666E-05	0	0	0	
0.2145	-0.0055576	0.0022898	0.0002286	6.72974E-05	0	0	0	
0.214667	0.00564968	0.00171864	0.000183037	7.84376E-05	0	0	0	
0.214833	-0.00256966	-0.00523275	0.000170458	8.54945E-05	0	0	0	
0.215	0.000832615	0.00119209	0.000190558	8.17452E-05	0	0	0	
0.215167	-0.00265334	0.00247635	0.000211626	7.56242E-05	0	0	0	
0.215333	0.00141089	-0.00223166	0.000229018	6.35117E-05	0	0	0	
0.2155	0.0043583	0.00453043	0.000233868	6.64323E-05	0	0	0	
0.215667	-0.00408688	-0.00105058	0.000211224	6.34941E-05	0	0	0	
0.215833	-0.00567993	-0.00244097	0.000151242	6.38257E-05	0	0	0	
0.216	0.00645532	0.00153663	0.000139805	5.88338E-05	0	0	0	
0.216167	-0.00320483	-0.000308044	0.000167493	4.00775E-05	0	0	0	
0.216333	-0.00103629	0.00267735	0.000254112	3.45763E-05	0	0	0	
0.2165	0.00208075	-0.00115707	0.000301046	3.30348E-05	0	0	0	
0.216667	0.0042638	-0.000774957	0.00027806	4.04221E-05	0	0	0	
0.216833	-0.0100266	-0.00105628	0.000215678	3.42107E-05	0	0	0	
0.217	0.00626301	0.00077324	0.000184422	2.47217E-05	0	0	0	
0.217167	-0.00098283	-3.89467E-05	0.000208531	1.69938E-05	0	0	0	
0.217333	0.000144953	0.00235661	0.000238169	2.49547E-05	0	0	0	
0.2175	-0.00120256	-0.00782119	0.00019469	6.12133E-05	0	0	0	
0.217667	0.00100363	-0.000134038	0.000136291	0.000112463	0	0	0	
0.217833	0.00121738	0.00580456	0.000124542	0.000123749	0	0	0	
0.218	-0.000215565	0.00277573	0.000171709	0.000106415	0	0	0	
0.218167	-0.00159388	-0.00132581	0.000209624	6.52464E-05	0	0	0	
0.218333	0.00589228	0.003388	0.000200329	5.78911E-05	0	0	0	
0.2185	-0.0101709	-0.0111621	0.000198984	0.000109051	0	0	0	
0.218667	0.00781402	0.0111842	0.000224475	0.000162554	0	0	0	
0.218833	-0.00468141	0.00375529	0.000232994	0.000211091	0	0	0	
0.219	0.00128685	-0.00289147	0.000199905	0.00018549	0	0	0	
0.219167	0.000453712	-0.00405601	0.00014202	0.00013116	0	0	0	
0.219333	0.00342553	0.00322966	0.000102669	0.000104558	0	0	0	
0.2195	-0.00554746	0.00514083	0.000111275	8.97276E-05	0	0	0	
0.219667	0.00162926	0.00230076	0.000163479	0.000150976	0	0	0	
0.219833	0.000151001	-0.00706861	0.000224125	0.000138938	0	0	0	
0.22	0.00123164	-0.00443546	0.000239955	0.000156887	0	0	0	
0.220167	-0.00354107	0.000166547	0.000214629	9.96821E-05	0	0	0	
0.220333	0.00868832	0.010774	0.000180184	0.000113937	0	0	0	
0.2205	-0.0083002	0.001442	0.000178157	9.53283E-05	0	0	0	
0.220667	0.00332158	-0.00516118	0.0001741	0.000122227	0	0	0	
0.220833	-0.000493751	-0.00199274	0.000176614	0.000127998	0	0	0	
0.221	-0.00188755	0.00597243	0.000168286	0.000134167	0	0	0	
0.221167	0.000485355	0.00249515	0.000170155	0.000141634	0	0	0	
0.221333	0.000978668	-0.00484945	0.000187055	0.00012013	0	0	0	
0.2215	-0.00571367	-0.00289736	0.000212422	0.000131343	0	0	0	
0.221667	0.00767139	0.00749551	0.000235675	0.000109626	0	0	0	
0.221833	-0.00286331	0.00243378	0.000221734	0.000132607	0	0	0	
0.222	-0.00054654	-0.00299301	0.000177206	9.72567E-05	0	0	0	
0.222167	0.00136943	-0.00324968	0.000159614	0.000103772	0	0	0	
0.222333	-0.00131384	-0.000665154	0.000175587	6.34442E-05	0	0	0	
0.2225	0.000849712	0.00522613	0.000215347	6.60823E-05	0	0	0	
0.222667	0.00463811	-0.00277039	0.000262628	0.000115859	0	0	0	
0.222833	-0.00481024	-0.00612774	0.000310585	0.000203795	0	0	0	
0.223	0.00222946	0.0103735	0.000299422	0.000247707	0	0	0	
0.223167	-0.000984514	0.00406275	0.000216263	0.000194443	0	0	0	
0.223333	-9.65115E-05	0.00266914	0.000144454	0.000133621	0	0	0	
0.2235	-0.00243456	-0.00683986	0.000149907	0.000108829	0	0	0	
0.223667	0.00130455	-0.00469758	0.000180602	0.000128284	0	0	0	
0.223833	5.88598E-05	0.00559021	0.000141915	0.000153704	0	0	0	
0.224	-0.000737409	0.00222713	7.89536E-05	0.000158738	0	0	0	
0.224167	-0.00024466	0.000421326	5.54446E-05	0.000159548	0	0	0	
0.224333	-0.00171434	0.000920085	0.000137019	0.000106516	0	0	0	
0.2245	-0.000335426	0.00208014	0.000224048	7.09647E-05	0	0	0	
0.224667	0.00722851	0.000592978	0.000283101	4.28618E-05	0	0	0	
0.224833	-0.00678914	-0.00872435	0.000283956	6.89672E-05	0	0	0	
0.225	0.0116014	0.00497332	0.000253404	0.00013683	0	0	0	
0.225167	-0.00571108	0.000524685	0.000232259	0.000131908	0	0	0	
0.225333	-0.0010703	0.0112084	0.000182477	0.000151378	0	0	0	
0.2255	-0.000769006	-0.00411487	0.000160584	0.000149018	0	0	0	
0.225667	0.00319764	0.00202243	0.000150646	0.000148932	0	0	0	
0.225833	0.00375758	0.00269306	0.000171563	0.000167458	0	0	0	
0.226	-0.00424058	-0.00767816	0.000169428	0.000132088	0	0	0	
0.226167	0.000811467	-0.00223292	0.000133131	0.000148354	0	0	0	
0.226333	0.00299238	0.0060582	0.000113994	0.000106556	0	0	0	
0.2265	-0.00234953	0.00231059	0.000135168	9.95679E-05	0	0	0	
0.226667	-0.00321241	-0.00280556	0.000181347	0.000110495	0	0	0	
0.226833	0.003952	-0.0104348	0.000206548	0.000128557	0	0	0	
0.227	0.000747928	0.00108905	0.000196321	0.000132375	0	0	0	
0.227167	1.31695E-06	0.009182	0.000200562	0.000135863	0	0	0	
0.227333	-0.00494719	-0.0144697	0.000255329	0.000179817	0	0	0	
0.2275	0.00818382	-0.00734106	0.000340491	0.000216657	0	0	0	
0.227667	-0.000646458	0.00213453	0.000334628	0.000200342	0	0	0	
0.227833	-0.00549682	0.0105296	0.000245094	0.000171072	0	0	0	
0.228	0.00668407	-0.00503272	0.00017826	0.00016308	0	0	0	
0.228167	-0.00094959	-0.0109993	0.000163809	0.000243082	0	0	0	
0.228333	-0.0107911	-0.00148908	0.000170234	0.000235987	0	0	0	
0.2285	0.0182204	0.0114177	0.000191398	0.000335082	0	0	0	
0.228667	-0.0117847	-0.00540542	0.000236835	0.000249979	0	0	0	
0.228833	0.00160997	-0.00805817	0.000287901	0.000301457	0	0	0	
0.229	0.00389472	-0.000948532	0.000314728	0.00021093	0	0	0	
0.229167	-0.00926048	0.016794	0.000338697	0.000261636	0	0	0	
0.229333	0.0190485	0.00307237	0.000357766	0.000300454	0	0	0	
0.2295	-0.011508	-0.0143452	0.000352572	0.000373161	0	0	0	
0.229667	-0.00644808	0.00835693	0.000297906	0.000416841	0	0	0	
0.229833	0.0152328	0.0129654	0.000293284	0.000389146	0	0	0	
0.23	-0.00445418	-0.00190256	0.000239784	0.000329963	0	0	0	
0.230167	-0.00502227	-0.013069	0.000252806	0.000276961	0	0	0	
0.230333	0.00704861	-0.00288826	0.000252666	0.000236287	0	0	0	
0.2305	-0.00303048	0.0197731	0.000284773	0.000216171	0	0	0	
0.230667	-0.00471892	0.00171225	0.00028548	0.000237564	0	0	0	
0.230833	0.00603615	-0.0144885	0.00025176	0.000238981	0	0	0	
0.231	-0.000733375	-0.00429568	0.000184925	0.000245422	0	0	0	
0.231167	-0.00191472	0.00994187	0.000140152	0.000207072	0	0	0	
0.231333	-0.00224766	0.00186608	0.0001413	0.000225654	0	0	0	
0.2315	-0.00111131	-0.012345	0.000185991	0.000226891	0	0	0	
0.231667	0.000863809	-0.000528153	0.000206332	0.000253105	0	0	0	
0.231833	0.000958182	0.0110669	0.000182545	0.000235992	0	0	0	
0.232	-0.00518333	-0.00288861	0.000170066	0.000216655	0	0	0	
0.232167	0.00217396	-0.00549319	0.000174081	0.000188961	0	0	0	
0.232333	-8.09703E-05	-0.000337544	0.000185607	0.000149	0	0	0	
0.2325	0.00195913	0.00688673	0.000177175	0.000132189	0	0	0	
0.232667	-0.00472116	0.00165058	0.000168859	0.00013472	0	0	0	
0.232833	0.00296532	-0.00660384	0.000167777	0.00013876	0	0	0	
0.233	-0.00276526	-0.00292478	0.000180841	0.000149389	0	0	0	
0.233167	-0.00217466	0.00688545	0.000187038	0.000137749	0	0	0	
0.233333	0.00642927	0.00125103	0.000190088	0.00013317	0	0	0	
0.2335	-0.00255302	-0.0068344	0.000180207	0.000122899	0	0	0	
0.233667	-0.0013666	0.00112953	0.000124408	0.000121859	0	0	0	
0.233833	0.0165702	0.0151185	0.000108763	0.000163381	0	0	0	
0.234	-0.0259111	-0.00292134	0.000197155	0.000225014	0	0	0	
0.234167	0.0102421	0.00858422	0.000321417	0.000211455	0	0	0	
0.234333	0.00700698	-0.00352584	0.000415967	0.000193515	0	0	0	
0.2345	-0.00475159	-0.000715513	0.000436367	0.000124658	0	0	0	
0.234667	0.00591744	-0.0013238	0.000409274	0.000121219	0	0	0	
0.234833	-0.00315578	-0.00281548	0.000300044	7.86481E-05	0	0	0	
0.235	-0.00627918	0.0141343	0.000177747	0.000101669	0	0	0	
0.235167	0.00794884	-0.00528656	0.000147852	0.000182619	0	0	0	
0.235333	-0.00313652	-0.0159658	0.000132803	0.000247434	0	0	0	
0.2355	0.00870125	0.00733415	0.000186182	0.000257543	0	0	0	
0.235667	-0.0115767	0.000117939	0.000241127	0.000220997	0	0	0	
0.235833	0.0052073	-0.00246772	0.000317668	0.000143662	0	0	0	
0.236	-0.00303027	-0.0064412	0.000333258	0.000141436	0	0	0	
0.236167	0.00281258	0.00538058	0.000314191	0.00011279	0	0	0	
0.236333	0.0040771	0.00578928	0.000289574	0.000189209	0	0	0	
0.2365	-0.00424941	-0.00416498	0.000238452	0.000152052	0	0	0	
0.236667	-0.00267645	-0.00586199	0.000181383	0.000174351	0	0	0	
0.236833	0.00496049	0.00296079	0.000152686	0.000114976	0	0	0	
0.237	-0.00943442	0.00906407	0.000153026	0.000152519	0	0	0	
0.237167	0.0105845	-0.0028588	0.00020124	0.000129418	0	0	0	
0.237333	0.00234998	-0.00941529	0.000236395	0.000170412	0	0	0	
0.2375	-0.00170483	0.00348653	0.00025665	0.000150784	0	0	0	
0.237667	-0.00269946	0.0064903	0.000226031	0.000175049	0	0	0	
0.237833	0.00422949	-0.00333971	0.000210321	0.000137435	0	0	0	
0.238	-0.00241736	-0.00367616	0.00018956	0.000140181	0	0	0	
0.238167	0.00177245	-0.000532044	0.00019504	0.00010218	0	0	0	
0.238333	0.0020209	0.00470179	0.000201814	0.000103411	0	0	0	
0.2385	0.000407155	-0.0013061	0.000188102	0.000105988	0	0	0	
0.238667	-0.00325706	-0.00241258	0.000159043	0.000113436	0	0	0	
0.238833	0.00630041	-0.00253744	0.000160073	0.000123277	0	0	0	
0.239	-0.00327896	0.00609493	0.000179499	0.000100739	0	0	0	
0.239167	0.00230609	0.00437225	0.000200946	0.000118569	0	0	0	
0.239333	-0.00197392	-0.00378279	0.000210395	0.000100203	0	0	0	
0.2395	-0.00142594	-0.00748381	0.000227125	0.000150221	0	0	0	
0.239667	0.000127106	0.0101743	0.00023118	0.000156143	0	0	0	
0.239833	0.00284567	0.00223752	0.000199617	0.000182201	0	0	0	
0.24	-0.00577559	-0.00168808	0.000159418	0.000121848	0	0	0	
0.240167	0.00451345	-0.00733337	0.000149221	0.000105979	0	0	0	
0.240333	-0.00300949	0.00431745	0.00017881	9.07336E-05	0	0	0	
0.2405	0.000126333	0.00321603	0.000207337	0.000129362	0	0	0	
0.240667	-0.000534305	-0.000498696	0.000216594	0.000109289	0	0	0	
0.240833	0.000995435	-0.00511222	0.000211943	0.000115804	0	0	0	
0.241	-0.000968189	0.00191825	0.000209434	0.000103534	0	0	0	
0.241167	0.00153142	0.00368341	0.000210599	0.000121138	0	0	0	
0.241333	-0.00302737	0.00071015	0.000204964	0.000126362	0	0	0	
0.2415	8.72316E-05	-0.00656238	0.000188005	0.000144247	0	0	0	
0.241667	-0.00264939	0.00217039	0.000181072	0.000127355	0	0	0	
0.241833	0.0036565	0.00239609	0.000198998	9.82717E-05	0	0	0	
0.242	0.000472851	0.00318034	0.000217199	7.55228E-05	0	0	0	
0.242167	0.0023255	-0.00478789	0.00020411	7.70126E-05	0	0	0	
0.242333	-0.00538298	-0.00426393	0.000174587	9.05022E-05	0	0	0	
0.2425	0.00083156	0.00763088	0.000155982	0.000100096	0	0	0	
0.242667	-0.00494386	0.000408705	0.000172481	0.000137924	0	0	0	
0.242833	0.00635859	-0.00182088	0.000197413	0.00012414	0	0	0	
0.243	-0.00402967	-0.00411451	0.000235813	0.000112395	0	0	0	
0.243167	-0.00467526	0.00537081	0.000290971	7.82022E-05	0	0	0	
0.243333	0.00982876	0.000458343	0.000325887	0.000110328	0	0	0	
0.2435	-0.00458991	0.0016495	0.000285632	8.85764E-05	0	0	0	
0.243667	-0.00984635	-0.00542843	0.000199645	9.84853E-05	0	0	0	
0.243833	0.0159446	0.00234762	0.000174569	7.34498E-05	0	0	0	
0.244	-0.0105588	0.00507658	0.00024234	9.62262E-05	0	0	0	
0.244167	0.00194253	-0.000786199	0.000346006	8.50467E-05	0	0	0	
0.244333	0.00423462	-0.0081456	0.000403316	0.000114276	0	0	0	
0.2445	-0.00902348	-0.000520634	0.000394914	0.000118888	0	0	0	
0.244667	0.00321204	0.0112143	0.000284169	0.000148463	0	0	0	
0.244833	0.00458413	-0.0191239	0.000236487	0.000226859	0	0	0	
0.245	-0.00632932	-0.00673251	0.000244704	0.000313148	0	0	0	
0.245167	0.0114046	0.00764303	0.00024573	0.000326961	0	0	0	
0.245333	-0.0165443	0.00489537	0.000293104	0.000224854	0	0	0	
0.2455	0.00635965	0.00190859	0.000343437	0.000115736	0	0	0	
0.245667	0.00661584	-0.0032653	0.000427323	6.11979E-05	0	0	0	
0.245833	-0.0102291	-0.0104513	0.000353314	9.73452E-05	0	0	0	
0.246	0.0124193	0.0141446	0.000261603	0.000210756	0	0	0	
0.246167	-0.00795644	0.000545925	0.000218891	0.000225316	0	0	0	
0.246333	-0.00681546	-0.00112173	0.000188425	0.000238834	0	0	0	
0.2465	0.0130902	0.00417896	0.000199682	0.000128902	0	0	0	
0.246667	-0.00427898	0.00535095	0.000170668	0.000148648	0	0	0	
0.246833	0.00426479	-0.00266194	0.000199997	9.76482E-05	0	0	0	
0.247	-0.00557945	-0.00831154	0.000203476	0.000151527	0	0	0	
0.247167	0.00418924	0.00605792	0.000241735	0.000147335	0	0	0	
0.247333	-0.000139967	0.00229174	0.000235144	0.000163326	0	0	0	
0.2475	0.000437013	-0.00127069	0.000205299	0.000100172	0	0	0	
0.247667	-0.00113268	-0.00279715	0.000188066	7.88225E-05	0	0	0	
0.247833	0.00912723	-0.00276244	0.000202562	7.15266E-05	0	0	0	
0.248	-0.00619	0.00709175	0.000213519	0.00010211	0	0	0	
0.248167	-0.00711369	-0.00123789	0.000178924	0.000112709	0	0	0	
0.248333	-0.00112003	-0.00162199	0.000195159	9.97319E-05	0	0	0	
0.2485	0.00819804	-0.00128488	0.000241544	8.81616E-05	0	0	0	
0.248667	-0.00364845	0.00124382	0.000301711	6.239E-05	0	0	0	
0.248833	-0.000852752	0.00122873	0.000253104	4.91551E-05	0	0	0	
0.249	-0.00292297	0.0016149	0.000156355	5.39435E-05	0	0	0	
0.249167	0.000929091	-0.00487551	7.44131E-05	8.46557E-05	0	0	0	
0.249333	-0.00616729	0.00217505	9.81421E-05	9.36724E-05	0	0	0	
0.2495	0.0128375	0.00201097	0.000202668	7.95557E-05	0	0	0	
0.249667	-0.00599188	-0.00138238	0.000291957	5.58462E-05	0	0	0	
0.249833	-0.0021293	0.000548274	0.000301218	4.21578E-05	0	0	0	
0.25	0.00384047	-0.00187124	0.000252145	3.27339E-05	0	0	0	
0.250167	0.00110719	-0.00112035	0.000212522	4.99699E-05	0	0	0	
0.250333	-0.00285608	0.00304912	0.000165412	7.70708E-05	0	0	0	
0.2505	0.00285658	-0.00111708	0.000106114	8.14434E-05	0	0	0	
0.250667	-0.00699224	-0.00192881	9.21356E-05	5.91219E-05	0	0	0	
0.250833	0.00698192	-0.000773005	0.000142179	3.96167E-05	0	0	0	
0.251	-0.00439266	-0.00593636	0.000219961	6.95446E-05	0	0	0	
0.251167	0.00123025	0.0149954	0.000271845	0.000112866	0	0	0	
0.251333	0.00262762	0.00845582	0.000276788	0.000285791	0	0	0	
0.2515	-0.0330739	-0.111229	0.000242072	0.000617939	0	0	0	
0.251667	0.179661	0.0987496	0.00100322	0.00156069	0	0	0	
0.251833	-0.00738111	-0.044334	0.00146498	0.00176182	0	0	0	
0.252	0.00527898	0.0110457	0.00148124	0.00159257	0	0	0	
0.252167	0.00280465	0.00630776	0.000641515	0.000736835	0	0	0	
0.252333	-0.00577331	-0.0121233	0.00014008	0.000414078	0	0	0	
0.2525	-8.03717E-05	-0.0033932	0.000132203	0.000312662	0	0	0	
0.252667	0.0566944	0.0315359	0.000329747	0.000670796	0	0	0	
0.252833	0.0722609	0.00968608	0.00114462	0.00124611	0	0	0	
0.253	-0.0121877	0.0145082	0.00144987	0.00140433	0	0	0	
0.253167	-0.00267448	-0.00535866	0.00138078	0.000959536	0	0	0	
0.253333	0.00224098	-0.00368497	0.000618284	0.000344173	0	0	0	
0.2535	0.000115571	-0.00736272	0.000320125	0.000153697	0	0	0	
0.253667	0.00215681	0.0226688	0.000211308	0.000195677	0	0	0	
0.253833	-0.00548048	-0.0197968	0.000142617	0.000309723	0	0	0	
0.254	-1.48686E-05	0.00459055	0.00010919	0.000398898	0	0	0	
0.254167	0.00890198	0.00721189	0.000107876	0.000414522	0	0	0	
0.254333	-0.0142634	-0.0091317	0.000145381	0.000336115	0	0	0	
0.2545	0.0146685	0.006908	0.000214811	0.000219104	0	0	0	
0.254667	0.00608634	0.000262558	0.000384651	0.00018117	0	0	0	
0.254833	0.034926	0.0123238	0.000715696	0.000324087	0	0	0	
0.255	-0.0371179	0.0310366	0.000898107	0.000633912	0	0	0	
0.255167	0.00107136	-0.0166828	0.000859546	0.000925337	0	0	0	
0.255333	0.00254748	-0.00884278	0.000550191	0.000835826	0	0	0	
0.2555	0.0052925	0.00867465	0.000314046	0.000553628	0	0	0	
0.255667	-0.0138071	-0.00899294	0.000221363	0.000227388	0	0	0	
0.255833	0.0677195	0.0291428	0.000343971	0.000241369	0	0	0	
0.256	-0.0204778	0.0326839	0.000613094	0.000361917	0	0	0	
0.256167	0.0158362	-0.0552097	0.00079467	0.000772376	0	0	0	
0.256333	-0.00826848	0.00832766	0.000661565	0.000826163	0	0	0	
0.2565	0.00575088	-0.00213751	0.000464156	0.000677347	0	0	0	
0.256667	-0.00353146	-0.00209358	0.000303088	0.000296705	0	0	0	
0.256833	0.00212775	0.00893919	0.000261157	0.000144768	0	0	0	
0.257	-0.00892813	-0.0016683	0.000175093	0.000148555	0	0	0	
0.257167	0.0817018	0.000731334	0.000309837	9.18209E-05	0	0	0	
0.257333	-0.020724	-0.00249422	0.00060083	0.000112393	0	0	0	
0.2575	0.00995619	0.0021194	0.000657327	7.76365E-05	0	0	0	
0.257667	-0.00297395	0.00159421	0.000531393	0.000103182	0	0	0	
0.257833	0.000364567	-0.00206695	0.000292958	6.41519E-05	0	0	0	
0.258	-0.00227317	-0.00113606	0.000263771	6.30095E-05	0	0	0	
0.258167	0.00865359	0.00148649	0.000222778	3.84067E-05	0	0	0	
0.258333	0.0135393	0.000451517	0.000404831	5.07216E-05	0	0	0	
0.2585	-5.88721E-05	-0.00178769	0.00049627	6.18523E-05	0	0	0	
0.258667	-0.0121567	0.00254327	0.000511163	8.29149E-05	0	0	0	
0.258833	0.0157661	-0.00240265	0.000320276	7.39025E-05	0	0	0	
0.259	-0.0142943	-0.00256097	0.000272867	9.3061E-05	0	0	0	
0.259167	0.0104006	0.00765743	0.000332254	0.000106881	0	0	0	
0.259333	-0.000124683	-0.00550858	0.000383058	0.00013237	0	0	0	
0.2595	-0.0046385	0.001642	0.000390052	0.000140765	0	0	0	
0.259667	0.00375262	0.000286259	0.000336027	0.000125585	0	0	0	
0.259833	-0.00656451	-0.00354229	0.000246695	0.000126936	0	0	0	
0.26	0.000195086	0.0090812	0.00016423	0.000128158	0	0	0	
0.260167	0.00930213	-0.00909019	0.000121653	0.000153457	0	0	0	
0.260333	-0.0124941	-0.00295224	0.000157204	0.00021456	0	0	0	
0.2605	0.00467568	0.00798152	0.000175506	0.000206753	0	0	0	
0.260667	-0.00877113	-0.000640686	0.000213884	0.000174156	0	0	0	
0.260833	0.0108551	0.000169106	0.000233006	8.46351E-05	0	0	0	
0.261	-0.00447096	-0.00414103	0.000298014	5.03938E-05	0	0	0	
0.261167	-0.00551601	-0.00175718	0.000366664	7.7374E-05	0	0	0	
0.261333	0.00963692	0.00651591	0.000345796	9.93114E-05	0	0	0	
0.2615	-0.000797123	0.00206209	0.000257766	0.000129704	0	0	0	
0.261667	-0.0127129	-0.0100127	0.000147757	0.00010813	0	0	0	
0.261833	0.0219031	0.00904187	0.000197527	0.000153812	0	0	0	
0.262	-0.0176243	0.00346682	0.000340856	0.000138783	0	0	0	
0.262167	0.00147846	-0.000975299	0.000455664	0.000137227	0	0	0	
0.262333	0.00607879	-0.0014409	0.000476804	7.19733E-05	0	0	0	
0.2625	-0.00463602	-0.00141491	0.000418582	5.2876E-05	0	0	0	
0.262667	-0.00133547	0.000936866	0.000319175	3.00111E-05	0	0	0	
0.262833	0.0106673	0.00739235	0.000220023	6.12124E-05	0	0	0	
0.263	-0.0178445	-0.00217643	0.000188288	0.000124669	0	0	0	
0.263167	0.0180712	-0.00151968	0.00024332	0.000151005	0	0	0	
0.263333	-0.011311	0.00324841	0.00030727	0.000159533	0	0	0	
0.2635	0.00753266	-0.00366315	0.000366134	0.000125948	0	0	0	
0.263667	-0.00322494	-0.00258357	0.000391806	0.00011856	0	0	0	
0.263833	-0.00171183	-0.00104015	0.000363133	9.93201E-05	0	0	0	
0.264	0.000969717	0.000661927	0.000262971	8.74416E-05	0	0	0	
0.264167	0.00526953	0.00128616	0.000176344	6.36882E-05	0	0	0	
0.264333	-0.00761593	0.000531955	0.000157946	4.83731E-05	0	0	0	
0.2645	0.00622078	-0.00231148	0.00016717	3.56729E-05	0	0	0	
0.264667	-0.00944199	-0.000244354	0.000185411	4.2814E-05	0	0	0	
0.264833	0.00989795	-0.000853075	0.000195374	3.785E-05	0	0	0	
0.265	-0.00728045	0.00281968	0.000248112	5.27674E-05	0	0	0	
0.265167	0.00340136	-0.00163707	0.000299132	5.51371E-05	0	0	0	
0.265333	-0.000641832	-0.000142572	0.000292447	4.79934E-05	0	0	0	
0.2655	-0.000678	-0.000850927	0.000204886	3.06382E-05	0	0	0	
0.265667	-0.0038594	-0.000797129	0.000116646	2.25907E-05	0	0	0	
0.265833	0.00411506	0.00329715	9.12058E-05	3.8297E-05	0	0	0	
0.266	-0.00856682	-0.00348742	0.000128516	4.52304E-05	0	0	0	
0.266167	0.0125694	0.000209575	0.000183555	5.93606E-05	0	0	0	
0.266333	-0.00964555	-0.000186015	0.000238623	5.28542E-05	0	0	0	
0.2665	0.00130012	-5.84734E-05	0.000268841	4.03235E-05	0	0	0	
0.266667	-0.00101876	-0.000961586	0.00026114	2.47526E-05	0	0	0	
0.266833	0.0012697	0.00240953	0.000207182	2.05876E-05	0	0	0	
0.267	-0.00303138	0.000957829	0.000149012	2.9429E-05	0	0	0	
0.267167	0.00709	0.000402032	0.000126113	3.968E-05	0	0	0	
0.267333	-0.0067741	-0.0016513	0.000141477	3.7575E-05	0	0	0	
0.2675	0.00529839	-0.000205009	0.000176804	3.33414E-05	0	0	0	
0.267667	-0.00402235	0.00236812	0.000186972	3.03735E-05	0	0	0	
0.267833	0.00505165	-5.85847E-05	0.000181344	3.52529E-05	0	0	0	
0.268	-0.00340853	-5.60807E-05	0.000156467	4.29779E-05	0	0	0	
0.268167	0.00875609	0.000662765	0.000159398	3.90354E-05	0	0	0	
0.268333	-0.00732534	-0.00140628	0.000171085	4.18803E-05	0	0	0	
0.2685	0.00862248	0.00263012	0.00019953	3.92469E-05	0	0	0	
0.268667	-0.00506134	-9.98289E-05	0.000203651	4.48515E-05	0	0	0	
0.268833	0.000263025	2.97738E-05	0.000203036	4.02195E-05	0	0	0	
0.269	-0.00246629	0.000483031	0.000180417	3.02046E-05	0	0	0	
0.269167	0.0082851	0.00123611	0.000153793	2.82588E-05	0	0	0	
0.269333	-0.0122182	-0.00174933	0.000162723	2.8777E-05	0	0	0	
0.2695	0.0123972	0.0013241	0.000194145	3.65719E-05	0	0	0	
0.269667	-0.00683177	-0.00208945	0.000240497	3.95448E-05	0	0	0	
0.269833	0.00104737	0.000689791	0.000259962	3.31109E-05	0	0	0	
0.27	-0.00195846	0.000668948	0.000263281	2.47288E-05	0	0	0	
0.270167	0.00429533	-0.00093485	0.00021956	1.7217E-05	0	0	0	
0.270333	-0.00756005	-0.000276636	0.000167503	2.48233E-05	0	0	0	
0.2705	0.00918879	0.00170432	0.000136218	3.6809E-05	0	0	0	
0.270667	-0.0109034	-0.00216669	0.000166243	4.55127E-05	0	0	0	
0.270833	0.00807163	0.000816672	0.000203756	3.7345E-05	0	0	0	
0.271	-0.00562935	0.000298813	0.000224438	3.59778E-05	0	0	0	
0.271167	0.00211027	-0.00156606	0.000211527	4.9812E-05	0	0	0	
0.271333	-0.00273102	0.00344271	0.000189182	6.83752E-05	0	0	0	
0.2715	0.00633063	-0.00131829	0.000166729	6.72803E-05	0	0	0	
0.271667	-0.00794939	-0.00038365	0.000155173	5.45859E-05	0	0	0	
0.271833	0.00818756	0.000970024	0.000176822	3.30564E-05	0	0	0	
0.272	-0.00210409	0.000283249	0.000213131	3.04685E-05	0	0	0	
0.272167	0.00260777	-0.000982487	0.000220814	2.32871E-05	0	0	0	
0.272333	-0.00735262	-0.000557538	0.000184501	3.04644E-05	0	0	0	
0.2725	0.0100114	-0.00144479	0.000164359	3.96898E-05	0	0	0	
0.272667	-0.00624703	0.00388313	0.000181105	4.72899E-05	0	0	0	
0.272833	0.00420137	0.00270022	0.000219324	7.47116E-05	0	0	0	
0.273	-0.000229188	-0.00297868	0.000231603	7.33253E-05	0	0	0	
0.273167	0.00339768	-0.00356286	0.000208483	0.000106725	0	0	0	
0.273333	-0.00921216	0.00420174	0.000182968	9.0648E-05	0	0	0	
0.2735	0.00921737	0.00267765	0.000166615	0.000107783	0	0	0	
0.273667	-0.0113679	0.000155019	0.000179101	6.69935E-05	0	0	0	
0.273833	0.0136227	-0.00448577	0.000235097	6.57983E-05	0	0	0	
0.274	-0.00672456	-0.00374638	0.000283154	7.43395E-05	0	0	0	
0.274167	-0.00122184	0.00554796	0.000302223	9.75997E-05	0	0	0	
0.274333	-0.00345987	0.00276166	0.00022898	0.000132562	0	0	0	
0.2745	0.00645305	-0.00430955	0.000161211	0.000111883	0	0	0	
0.274667	-0.00912621	-0.00553258	0.000118914	0.000127101	0	0	0	
0.274833	0.00958331	0.00257182	0.00015968	9.38951E-05	0	0	0	
0.275	-0.00552516	0.00329303	0.000196934	0.000108409	0	0	0	
0.275167	0.00287152	0.00112238	0.000217639	9.55942E-05	0	0	0	
0.275333	-0.00708107	-0.00406494	0.000198208	0.000104166	0	0	0	
0.2755	0.0116524	-0.00182035	0.000191605	9.5796E-05	0	0	0	
0.275667	-0.00808774	0.000156137	0.000201737	6.48282E-05	0	0	0	
0.275833	0.00594711	0.00570956	0.000210329	7.17053E-05	0	0	0	
0.276	-0.00713928	-0.00190752	0.000219028	6.48822E-05	0	0	0	
0.276167	0.00736981	-0.00408878	0.000221288	9.69302E-05	0	0	0	
0.276333	-0.00825051	0.00175738	0.00022376	7.76591E-05	0	0	0	
0.2765	0.00584937	-0.000921437	0.000200149	7.41419E-05	0	0	0	
0.276667	-0.00639879	0.00208523	0.000172532	5.20663E-05	0	0	0	
0.276833	0.00750931	0.000429853	0.000157269	5.05448E-05	0	0	0	
0.277	-0.00872498	-0.00373961	0.000173833	6.48E-05	0	0	0	
0.277167	0.00550604	0.000371741	0.000189575	6.42145E-05	0	0	0	
0.277333	-0.00105083	0.00269323	0.000197026	8.01796E-05	0	0	0	
0.2775	0.000281515	-0.00399029	0.000175394	7.18264E-05	0	0	0	
0.277667	-0.00213984	0.00672909	0.000131942	8.41789E-05	0	0	0	
0.277833	0.00205264	-0.0208027	0.000125907	0.000153203	0	0	0	
0.278	-0.0023909	-0.000748715	0.000158781	0.000208125	0	0	0	
0.278167	0.0118666	0.0109745	0.000179996	0.000263393	0	0	0	
0.278333	-0.0218514	6.1347E-05	0.000250675	0.000184872	0	0	0	
0.2785	0.0144856	-0.0037184	0.000315295	0.000143082	0	0	0	
0.278667	0.00047463	-0.000359245	0.000387601	8.995E-05	0	0	0	
0.278833	-0.0112437	-0.0070409	0.000352253	9.59676E-05	0	0	0	
0.279	0.0139933	0.0101779	0.000296404	0.000185803	0	0	0	
0.279167	-0.00552155	-0.00320236	0.000251457	0.000184996	0	0	0	
0.279333	-0.00903613	-0.00166295	0.000191671	0.000270465	0	0	0	
0.2795	0.0165392	0.00682862	0.000193723	0.000159923	0	0	0	
0.279667	-0.0133453	0.00940383	0.000219417	0.000219284	0	0	0	
0.279833	0.0125663	-0.00788202	0.000267531	0.000159533	0	0	0	
0.28	-0.0134001	-0.00836624	0.000292628	0.000236411	0	0	0	
0.280167	0.00599729	0.00237139	0.000303546	0.000175101	0	0	0	
0.280333	-0.00192654	0.00614436	0.000308271	0.000175269	0	0	0	
0.2805	0.00251892	0.000232473	0.000242662	0.000112046	0	0	0	
0.280667	-0.00666673	-0.00598836	0.000182251	0.000110601	0	0	0	
0.280833	0.0092679	-0.00272081	0.000156195	0.000120722	0	0	0	
0.281	-0.0113061	0.00793156	0.000167765	0.000125493	0	0	0	
0.281167	0.00958522	0.000757743	0.000201885	0.000157845	0	0	0	
0.281333	-0.0101331	-0.00610048	0.00023686	0.000111838	0	0	0	
0.2815	0.00854666	-0.00201532	0.00025283	0.000125392	0	0	0	
0.281667	-0.00628293	0.000979026	0.000241191	9.35838E-05	0	0	0	
0.281833	0.00858261	0.00323303	0.00021751	8.31862E-05	0	0	0	
0.282	-0.0082138	0.00162601	0.000198954	6.87589E-05	0	0	0	
0.282167	0.00940971	-0.00646228	0.000196024	7.0295E-05	0	0	0	
0.282333	-0.00968788	-0.00169969	0.000195994	9.59944E-05	0	0	0	
0.2825	0.0105985	0.00454263	0.000200937	8.88026E-05	0	0	0	
0.282667	-0.010358	-0.000926657	0.000214176	9.48302E-05	0	0	0	
0.282833	0.00555448	-0.00311555	0.000207615	9.23346E-05	0	0	0	
0.283	-0.00280695	0.0111994	0.000199191	9.42833E-05	0	0	0	
0.283167	-0.00697072	-0.0139072	0.000141863	0.000171613	0	0	0	
0.283333	0.00623299	-8.36509E-06	0.000138864	0.000166123	0	0	0	
0.2835	0.0113827	0.00152574	0.000114414	0.000211152	0	0	0	
0.283667	-0.0190401	-0.00358384	0.000207751	0.000112741	0	0	0	
0.283833	0.0122426	-0.00361101	0.000247498	0.000122092	0	0	0	
0.284	-0.00799031	0.00215255	0.00030965	7.00531E-05	0	0	0	
0.284167	-0.00273791	-0.00053668	0.000302029	8.92172E-05	0	0	0	
0.284333	0.00917765	-0.00248605	0.000297033	0.000150736	0	0	0	
0.2845	0.0014867	-0.01108	0.000272763	0.000174168	0	0	0	
0.284667	-0.0137974	0.00112487	0.000242	0.000211456	0	0	0	
0.284833	0.0108337	0.00619204	0.000231532	0.000151491	0	0	0	
0.285	-0.00841743	0.00332734	0.000209359	0.000141553	0	0	0	
0.285167	0.0107052	-0.00293501	0.00020881	9.43159E-05	0	0	0	
0.285333	-0.0126273	-0.00752321	0.000209074	0.000127884	0	0	0	
0.2855	0.133572	0.0226422	0.000468626	0.000171911	0	0	0	
0.285667	-0.00409891	0.0257225	0.00113115	0.000336635	0	0	0	
0.285833	0.01547	-0.0215994	0.00112363	0.00038759	0	0	0	
0.286	-0.0102208	0.00483549	0.000915522	0.000409859	0	0	0	
0.286167	0.00861051	0.00265608	0.000268825	0.00027476	0	0	0	
0.286333	-0.00416472	0.00730536	0.000288861	0.000196171	0	0	0	
0.2865	0.00517978	-0.00670034	0.000300969	0.000133155	0	0	0	
0.286667	-0.00113328	0.000954684	0.000294434	0.000129569	0	0	0	
0.286833	0.000681152	0.00148686	0.000255536	0.000106812	0	0	0	
0.287	-0.00407884	0.00222799	0.000160658	9.05769E-05	0	0	0	
0.287167	0.0116038	-0.000848536	0.000135362	6.24765E-05	0	0	0	
0.287333	-0.0158045	-0.000864899	0.00016178	4.45435E-05	0	0	0	
0.2875	0.0135372	-0.00821608	0.000272008	7.90775E-05	0	0	0	
0.287667	-3.90917E-05	0.0132295	0.000350677	0.00014785	0	0	0	
0.287833	-0.00791511	-0.00744002	0.000371604	0.000208799	0	0	0	
0.288	0.00412656	-0.0116772	0.000290771	0.00023052	0	0	0	
0.288167	0.00135583	0.0103266	0.000186538	0.00021377	0	0	0	
0.288333	-0.00127968	0.00197995	9.45076E-05	0.000233389	0	0	0	
0.2885	0.00254352	-0.00259117	0.00013643	0.000215785	0	0	0	
0.288667	-0.010584	0.00870656	0.000253184	0.000191637	0	0	0	
0.288833	0.0126457	-0.00961384	0.000369359	0.000169431	0	0	0	
0.289	-0.00484151	-0.00272538	0.000346495	0.000159632	0	0	0	
0.289167	0.000515415	0.00857252	0.000226555	0.000183225	0	0	0	
0.289333	-0.00799864	-0.00791858	0.000140478	0.000171189	0	0	0	
0.2895	0.0133927	0.00536508	0.000181847	0.000183723	0	0	0	
0.289667	-0.0131602	0.00456087	0.000324105	0.000172072	0	0	0	
0.289833	0.00947677	-0.0104778	0.000418626	0.000201756	0	0	0	
0.29	0.00102158	0.00482425	0.000352539	0.000181438	0	0	0	
0.290167	0.00335239	-0.00224422	0.000198852	0.000180295	0	0	0	
0.290333	-0.00710886	-0.00459298	0.000101162	0.00013235	0	0	0	
0.2905	0.00819683	0.00040022	0.000133698	0.000102683	0	0	0	
0.290667	-0.00317376	-0.000122424	0.000165891	4.74456E-05	0	0	0	
0.290833	0.00269196	0.00363443	0.00014041	2.35491E-05	0	0	0	
0.291	-0.0112046	-0.00322497	0.000104007	5.23985E-05	0	0	0	
0.291167	0.0149183	-0.00354112	0.000137418	0.000106433	0	0	0	
0.291333	-0.0119646	0.00201712	0.000213977	0.000108303	0	0	0	
0.2915	0.00704322	0.00149222	0.000247382	0.000109214	0	0	0	
0.291667	-0.00435662	-0.00198128	0.000222295	7.03359E-05	0	0	0	
0.291833	0.00244332	0.000241532	0.00017067	6.91341E-05	0	0	0	
0.292	-0.0069446	-0.00346499	0.00013403	3.55817E-05	0	0	0	
0.292167	0.00964214	0.00122049	0.000141206	4.07595E-05	0	0	0	
0.292333	-0.0104971	0.00140101	0.000160399	4.86066E-05	0	0	0	
0.2925	0.0117221	-0.00300532	0.000193689	4.94302E-05	0	0	0	
0.292667	-0.0117305	0.00120062	0.000211816	5.96193E-05	0	0	0	
0.292833	0.00854048	-1.49434E-05	0.000257938	5.20282E-05	0	0	0	
0.293	-0.00367506	0.000854036	0.000287115	4.32273E-05	0	0	0	
0.293167	0.00355268	0.00185333	0.000261197	3.65394E-05	0	0	0	
0.293333	-0.00501548	-0.00424347	0.000181822	4.59581E-05	0	0	0	
0.2935	0.00902746	-0.00161096	0.000124382	9.40889E-05	0	0	0	
0.293667	-0.0150991	0.00809371	0.000137608	0.000122289	0	0	0	
0.293833	0.0203967	-0.00343774	0.000227031	0.000138462	0	0	0	
0.294	-0.0170347	0.00144304	0.000303345	9.97629E-05	0	0	0	
0.294167	0.0136624	-0.00559368	0.000360241	6.93089E-05	0	0	0	
0.294333	-0.00476843	0.00235025	0.000361511	5.90169E-05	0	0	0	
0.2945	0.00133175	0.00298403	0.000313222	9.02138E-05	0	0	0	
0.294667	-0.00250377	-0.00295856	0.000208826	8.44516E-05	0	0	0	
0.294833	0.00599532	-0.000640741	0.000126361	0.000118382	0	0	0	
0.295	-0.0101112	0.00169845	0.000110825	0.000104276	0	0	0	
0.295167	0.0142165	-0.000866959	0.000157752	9.6242E-05	0	0	0	
0.295333	-0.0154222	0.0034543	0.000227541	5.65212E-05	0	0	0	
0.2955	0.0140747	-0.00465281	0.000270066	4.69285E-05	0	0	0	
0.295667	-0.00901707	-0.000475899	0.000303521	7.58169E-05	0	0	0	
0.295833	-2.34137E-05	0.00440583	0.000269033	8.65174E-05	0	0	0	
0.296	-0.00201849	-0.00158923	0.00020961	8.51711E-05	0	0	0	
0.296167	0.00749605	-0.000688161	0.000150889	5.6647E-05	0	0	0	
0.296333	-0.0140832	-0.000619436	0.000154262	3.34627E-05	0	0	0	
0.2965	0.0128246	-0.00131338	0.000193925	3.99339E-05	0	0	0	
0.296667	-0.0126744	0.0055499	0.00023139	6.53738E-05	0	0	0	
0.296833	0.0104472	-0.00189284	0.000252819	9.03737E-05	0	0	0	
0.297	-0.00694192	-0.00315468	0.000246312	0.000120906	0	0	0	
0.297167	0.00876142	0.00122836	0.00022909	0.000105146	0	0	0	
0.297333	-0.0103932	-0.000730505	0.000196285	7.96357E-05	0	0	0	
0.2975	0.00842733	0.00852498	0.00019369	5.67697E-05	0	0	0	
0.297667	-0.00834567	-0.00774004	0.000175196	9.31163E-05	0	0	0	
0.297833	0.0108507	0.00245064	0.000192124	0.000128202	0	0	0	
0.298	-0.00814029	0.00200709	0.000195197	0.000103723	0	0	0	
0.298167	0.0104289	-0.000529439	0.000234708	9.08633E-05	0	0	0	
0.298333	-0.00575889	-9.65802E-05	0.000229533	6.94251E-05	0	0	0	
0.2985	0.00210274	-0.000352426	0.0001846	6.63302E-05	0	0	0	
0.298667	-0.00522025	-0.00478077	0.000114346	7.73408E-05	0	0	0	
0.298833	0.0111674	0.00730703	0.000109832	0.00012422	0	0	0	
0.299	-0.0120328	-0.00227779	0.00014862	0.000153447	0	0	0	
0.299167	0.0136931	-0.00419449	0.000216021	0.000111723	0	0	0	
0.299333	-0.0119397	0.00231423	0.000233488	7.81468E-05	0	0	0	
0.2995	0.00867708	3.7601E-05	0.000243824	6.18576E-05	0	0	0	
0.299667	-0.00410073	0.000918285	0.000214857	5.34405E-05	0	0	0	
0.299833	0.00560467	0.00220012	0.000171101	5.55946E-05	0	0	0	
0.3	-0.0054568	-0.00470933	0.000135712	9.29103E-05	0	0	0	
0.300167	0.0108828	-4.37221E-05	0.000135933	0.000107949	0	0	0	
0.300333	-0.0106872	0.00569957	0.000163282	9.81372E-05	0	0	0	
0.3005	0.010764	-0.00341088	0.00019956	6.8691E-05	0	0	0	
0.300667	-0.00799964	0.000440158	0.000219428	6.59822E-05	0	0	0	
0.300833	0.0100599	-0.00142678	0.000213719	4.99515E-05	0	0	0	
0.301	-0.00745991	0.000738996	0.000203091	4.75337E-05	0	0	0	
0.301167	0.00702428	0.00118389	0.000164757	7.40197E-05	0	0	0	
0.301333	-0.00784505	-0.00123648	0.000152445	7.80322E-05	0	0	0	
0.3015	0.00635126	0.000401884	0.00014042	7.96422E-05	0	0	0	
0.301667	-0.00878183	0.000949072	0.000157643	5.58428E-05	0	0	0	
0.301833	0.00966329	-0.00134764	0.000158197	5.21064E-05	0	0	0	
0.302	-0.00901165	0.00231942	0.000181013	4.31365E-05	0	0	0	
0.302167	0.00848578	-0.00359235	0.00018304	4.29051E-05	0	0	0	
0.302333	-0.0121218	-0.000490757	0.000196683	6.65619E-05	0	0	0	
0.3025	0.0148743	0.00337224	0.000219604	6.55647E-05	0	0	0	
0.302667	-0.00890226	-0.00114284	0.000249603	6.67721E-05	0	0	0	
0.302833	0.00173532	6.02215E-05	0.000245897	4.2106E-05	0	0	0	
0.303	-0.00345935	-0.00233312	0.000199684	3.43161E-05	0	0	0	
0.303167	0.000400735	0.00221858	0.000134781	4.33437E-05	0	0	0	
0.303333	-0.00229048	0.00206962	0.000117788	7.32072E-05	0	0	0	
0.3035	0.0160507	-0.00363936	0.000146187	8.14838E-05	0	0	0	
0.303667	-0.0207663	0.003155	0.000243397	8.33159E-05	0	0	0	
0.303833	0.0156296	-0.00185858	0.000322747	6.87701E-05	0	0	0	
0.304	-0.00801983	-0.00155474	0.00038341	7.6693E-05	0	0	0	
0.304167	-0.000536158	0.0122228	0.000366422	0.000101951	0	0	0	
0.304333	0.00712947	-0.0123243	0.000271575	0.000155132	0	0	0	
0.3045	7.74206E-05	0.00177293	0.000170916	0.000194114	0	0	0	
0.304667	-0.0107397	0.0100027	0.000124397	0.000191113	0	0	0	
0.304833	0.0176482	-0.00629382	0.000179143	0.00016806	0	0	0	
0.305	-0.0162674	0.000241713	0.000242412	0.000138996	0	0	0	
0.305167	0.0125997	0.000332375	0.000280413	0.000106958	0	0	0	
0.305333	-0.00920612	-0.00217128	0.00027313	0.000109676	0	0	0	
0.3055	0.00667972	0.00501436	0.000253605	0.000120761	0	0	0	
0.305667	-0.00727135	0.00179773	0.000232969	0.000139244	0	0	0	
0.305833	0.00894677	-0.00944245	0.000212708	0.000129164	0	0	0	
0.306	-0.00648275	0.00627028	0.000184894	0.000142576	0	0	0	
0.306167	0.00437008	0.0025262	0.000155302	0.00015766	0	0	0	
0.306333	-0.00747348	-0.0038336	0.000133893	0.000132686	0	0	0	
0.3065	0.0125182	0.00108072	0.000141215	9.82783E-05	0	0	0	
0.306667	-0.00649025	0.00093957	0.00015991	6.60514E-05	0	0	0	
0.306833	0.00716949	-0.00156001	0.00016635	5.25615E-05	0	0	0	
0.307	-0.00821019	0.00345122	0.000161523	5.11137E-05	0	0	0	
0.307167	0.0092736	-0.000949938	0.000156039	4.35552E-05	0	0	0	
0.307333	-0.0102722	-0.000756608	0.000181181	4.86474E-05	0	0	0	
0.3075	0.00977802	0.00386523	0.000183565	3.90285E-05	0	0	0	
0.307667	-0.0079816	-0.00307017	0.000192533	5.45126E-05	0	0	0	
0.307833	0.00848662	-0.00166734	0.000191068	5.20812E-05	0	0	0	
0.308	-0.00804591	0.000698925	0.000179651	5.70993E-05	0	0	0	
0.308167	0.00809902	0.000963983	0.000167359	5.72788E-05	0	0	0	
0.308333	-0.00751603	-0.00154232	0.000149712	5.91837E-05	0	0	0	
0.3085	0.0104895	0.00136387	0.000159405	4.8826E-05	0	0	0	
0.308667	-0.00946141	-0.00421258	0.000177341	3.67976E-05	0	0	0	
0.308833	0.010136	-0.000133594	0.000194393	4.13173E-05	0	0	0	
0.309	-0.00972208	0.000988238	0.000189733	4.40498E-05	0	0	0	
0.309167	0.0101597	-0.000713785	0.000212677	4.16775E-05	0	0	0	
0.309333	-0.004923	-0.000517278	0.00022759	4.97497E-05	0	0	0	
0.3095	0.00592572	0.00131032	0.000216698	4.99646E-05	0	0	0	
0.309667	-0.00925956	-0.00103779	0.000183272	4.22758E-05	0	0	0	
0.309833	0.00846365	0.00210932	0.00016064	3.43597E-05	0	0	0	
0.31	-0.0110718	0.00094278	0.000171896	3.37697E-05	0	0	0	
0.310167	0.0186342	-0.00146112	0.000204873	3.85773E-05	0	0	0	
0.310333	-0.0165921	0.00195289	0.000267831	2.98309E-05	0	0	0	
0.3105	0.00943567	-0.00130424	0.000298264	3.2169E-05	0	0	0	
0.310667	-0.00984775	-0.000674595	0.000273157	3.28551E-05	0	0	0	
0.310833	0.011484	0.00333792	0.000226713	3.7396E-05	0	0	0	
0.311	-0.0122004	-0.00217498	0.00022281	4.41984E-05	0	0	0	
0.311167	0.0117451	0.00132348	0.000224223	6.70212E-05	0	0	0	
0.311333	-0.0123848	-0.000116212	0.000232163	7.68487E-05	0	0	0	
0.3115	0.0132212	-0.000326684	0.000242641	6.23199E-05	0	0	0	
0.311667	-0.0100555	0.000442299	0.000254955	2.84794E-05	0	0	0	
0.311833	0.00802552	0.000411354	0.000235171	7.83884E-06	0	0	0	
0.312	-0.00830908	-0.00220762	0.000195034	9.65914E-06	0	0	0	
0.312167	0.0078767	0.00478856	0.000159947	3.63867E-05	0	0	0	
0.312333	-0.00872903	-0.00251225	0.000151754	6.45038E-05	0	0	0	
0.3125	0.0107417	0.000663741	0.000160425	6.83895E-05	0	0	0	
0.312667	-0.0105068	0.000214582	0.000189758	4.37762E-05	0	0	0	
0.312833	0.00840042	-0.000251745	0.000197811	1.70004E-05	0	0	0	
0.313	-0.00652647	-0.000402635	0.000184378	1.00584E-05	0	0	0	
0.313167	0.00954402	0.00277185	0.000161031	1.46889E-05	0	0	0	
0.313333	-0.0125511	-0.00346288	0.000172181	3.66869E-05	0	0	0	
0.3135	0.0102979	0.000311752	0.000193218	4.7565E-05	0	0	0	
0.313667	-0.0117109	-0.000422506	0.000216909	4.74524E-05	0	0	0	
0.313833	0.00917342	0.000167531	0.000217326	2.465E-05	0	0	0	
0.314	-0.00593732	-0.000177005	0.00020398	1.37704E-05	0	0	0	
0.314167	0.00732401	0.000319689	0.000167642	1.16371E-05	0	0	0	
0.314333	-0.00819688	-0.00291689	0.000144316	2.43057E-05	0	0	0	
0.3145	0.00694489	0.0024617	0.00013796	4.0425E-05	0	0	0	
0.314667	-0.00794186	-0.00120882	0.000140891	4.75318E-05	0	0	0	
0.314833	0.0105001	-0.000567978	0.000153905	4.8187E-05	0	0	0	
0.315	-0.00833597	0.00145513	0.000169559	3.56782E-05	0	0	0	
0.315167	0.00863548	-0.000558215	0.000183147	3.23843E-05	0	0	0	
0.315333	-0.00573991	-0.00197112	0.000169412	3.53428E-05	0	0	0	
0.3155	0.00492233	0.00370598	0.000140191	5.24377E-05	0	0	0	
0.315667	-0.0077654	-0.00208449	0.000123005	5.85653E-05	0	0	0	
0.315833	0.0127454	0.00131173	0.000150032	6.54243E-05	0	0	0	
0.316	-0.0105656	0.000553399	0.000192935	6.6018E-05	0	0	0	
0.316167	0.0111284	-0.00162541	0.00021282	5.64398E-05	0	0	0	
0.316333	-0.00933995	2.81563E-05	0.000205973	4.06216E-05	0	0	0	
0.3165	0.00785896	0.00191099	0.000175598	3.10374E-05	0	0	0	
0.316667	-0.00762974	-0.00227486	0.000180587	4.43475E-05	0	0	0	
0.316833	0.0112287	0.00158462	0.000184692	4.34346E-05	0	0	0	
0.317	-0.00716947	-0.00118134	0.000204937	3.98215E-05	0	0	0	
0.317167	0.0118323	0.000342061	0.000195065	2.67421E-05	0	0	0	
0.317333	-0.0146888	-0.00106369	0.000210369	2.34389E-05	0	0	0	
