0	-0.00400262	0.00448505	4.00262E-07	4.48505E-07	5	5	5	
0.000166667	0.0319828	-0.006697	0.000152876	4.30366E-05	5	5	5	
0.000333333	-0.0529031	-0.0130683	0.000423147	0.000232216	5	5	5	
0.0005	0.0536853	0.0567586	0.000765085	0.000592998	5	5	5	
0.000666667	-0.0476963	-0.0613804	0.000934802	0.000899852	5	5	5	
0.000833333	0.0423828	0.0166371	0.000950441	0.0010455	5	5	5	
0.001	-0.0391176	-0.00168439	0.00087096	0.000807341	5	5	5	
0.00116667	0.0357672	0.0416209	0.00080911	0.000651853	5	5	5	
0.00133333	-0.0407802	-0.0368852	0.000848975	0.000575236	5	5	5	
0.0015	0.0477864	0.000582141	0.000999704	0.000593659	5	5	5	
0.00166667	-0.0474851	-0.0164777	0.0011523	0.000684517	5	5	5	
0.00183333	0.0439261	0.0634575	0.0012135	0.000944147	5	5	5	
0.002	-0.0460351	-0.0508792	0.00117003	0.00116356	5	5	5	
0.00216667	0.0445795	0.00299118	0.0011469	0.00105812	5	5	5	
0.00233333	-0.04509	-0.00803898	0.00114076	0.000768875	5	5	5	
0.0025	0.0454318	0.0500073	0.00114992	0.000900896	5	5	5	
0.00266667	-0.0451761	-0.053933	0.00113978	0.00113678	5	5	5	
0.00283333	0.0419134	0.0344709	0.00114137	0.00121651	5	5	5	
0.003	-0.044502	-0.033764	0.00113792	0.00100324	5	5	5	
0.00316667	0.0507642	0.0396336	0.00115761	0.000902368	5	5	5	
0.00333333	-0.0534822	-0.0354021	0.00118625	0.000855779	5	5	5	
0.0035	0.0529375	0.0267744	0.00119822	0.000810426	5	5	5	
0.00366667	-0.0513635	-0.0253503	0.00115984	0.000733965	5	5	5	
0.00383333	0.0438464	0.0273862	0.00107935	0.000732287	5	5	5	
0.004	-0.0381429	-0.0314612	0.000985133	0.000798468	5	5	5	
0.00416667	0.0416436	0.0405387	0.000942731	0.0009021	5	5	5	
0.00433333	-0.0515576	-0.0462136	0.00101687	0.00097152	5	5	5	
0.0045	0.0665426	0.0358248	0.00120999	0.000923583	5	5	5	
0.00466667	-0.0652084	-0.00340742	0.00137737	0.000726522	5	5	5	
0.00483333	0.0500752	-0.0297137	0.00135144	0.000460607	5	5	5	
0.005	-0.0334561	-0.0083248	0.00117367	0.000685611	5	5	5	
0.00516667	0.0390368	0.0808802	0.00103778	0.00126081	5	5	5	
0.00533333	-0.0517382	-0.0669582	0.00111357	0.0016643	5	5	5	
0.0055	0.0532125	0.00299589	0.00126042	0.00142275	5	5	5	
0.00566667	-0.0494166	-0.0436009	0.00132453	0.00115517	5	5	5	
0.00583333	0.0548742	0.102231	0.00125037	0.00129399	5	5	5	
0.006	-0.0502356	-0.02476	0.00118443	0.00153795	5	5	5	
0.00616667	0.0361469	-0.0544125	0.00109303	0.00147603	5	5	5	
0.00633333	-0.0358195	-0.0330798	0.00102945	0.0015957	5	5	5	
0.0065	0.0471976	0.110945	0.00103369	0.00184631	5	5	5	
0.00666667	-0.0619902	-0.0170855	0.00116471	0.0019114	5	5	5	
0.00683333	0.0606377	-0.0555488	0.00128071	0.00150139	5	5	5	
0.007	-0.045198	-0.0336607	0.00124791	0.00144628	5	5	5	
0.00716667	0.0328293	0.091225	0.00108652	0.00161703	5	5	5	
0.00733333	-0.041633	-0.0264382	0.000992988	0.00165387	5	5	5	
0.0075	0.0517456	0.00338843	0.00106052	0.00109827	5	5	5	
0.00766667	-0.0592133	-0.0559465	0.00121232	0.000953324	5	5	5	
0.00783333	0.0551319	0.060728	0.00129452	0.000995537	5	5	5	
0.008	-0.0487013	-0.0182305	0.00123888	0.00113285	5	5	5	
0.00816667	0.0425131	0.0146507	0.00114757	0.000814982	5	5	5	
0.00833333	-0.0466856	-0.0464926	0.00109244	0.000780553	5	5	5	
0.0085	0.0518964	0.0485671	0.00111728	0.000844219	5	5	5	
0.00866667	-0.0564714	-0.0284327	0.00118396	0.000918341	5	5	5	
0.00883333	0.0524771	0.0295156	0.00123947	0.000761449	5	5	5	
0.009	-0.0524665	-0.0340123	0.00124528	0.000668624	5	5	5	
0.00916667	0.0547058	0.0226289	0.00121825	0.000662931	5	5	5	
0.00933333	-0.0563864	-0.0305871	0.00120152	0.000762284	5	5	5	
0.0095	0.0480084	0.0543293	0.00120363	0.000932587	5	5	5	
0.00966667	-0.0473401	-0.0520045	0.00119849	0.00108205	5	5	5	
0.00983333	0.0449675	0.0459699	0.00115698	0.00110293	5	5	5	
0.01	-0.0478236	-0.049444	0.00111269	0.00105121	5	5	5	
0.0101667	0.0488469	0.0460891	0.00111209	0.000997648	5	5	5	
0.0103333	-0.0506678	-0.0306475	0.00115721	0.000916813	5	5	5	
0.0105	0.0448474	0.0302916	0.00119376	0.000784412	5	5	5	
0.0106667	-0.0510164	-0.03747	0.00118142	0.000733394	5	5	5	
0.0108333	0.0555387	0.0370489	0.00116189	0.000741753	5	5	5	
0.011	-0.0496151	-0.0321946	0.00114566	0.000797804	5	5	5	
0.0111667	0.0430366	0.0412924	0.00112222	0.000856223	5	5	5	
0.0113333	-0.047095	-0.0498916	0.00107579	0.000975875	5	5	5	
0.0115	0.0455776	0.0458518	0.00103727	0.00105369	5	5	5	
0.0116667	-0.0422258	-0.0380165	0.00101631	0.00103925	5	5	5	
0.0118333	0.0487072	0.0309239	0.00104724	0.000946934	5	5	5	
0.012	-0.0541314	-0.0269251	0.0011091	0.000861054	5	5	5	
0.0121667	0.0562099	0.0240175	0.00116456	0.000863143	5	5	5	
0.0123333	-0.0550379	-0.0381408	0.00118008	0.000959608	5	5	5	
0.0125	0.0584481	0.0522035	0.00118677	0.00109138	5	5	5	
0.0126667	-0.0580409	-0.0580772	0.00121761	0.00113496	5	5	5	
0.0128333	0.0517045	0.0454848	0.00121615	0.00106827	5	5	5	
0.013	-0.0473255	-0.032822	0.00117675	0.000935749	5	5	5	
0.0131667	0.0532578	0.0256671	0.00116654	0.000773215	5	5	5	
0.0133333	-0.0503871	-0.0227319	0.0012005	0.000621087	5	5	5	
0.0135	0.0533698	0.0201757	0.00120762	0.000516558	5	5	5	
0.0136667	-0.0447226	-0.0219929	0.00116801	0.000488529	5	5	5	
0.0138333	0.0416638	0.0276062	0.00108768	0.000583563	5	5	5	
0.014	-0.0461851	-0.0527787	0.00107893	0.000844708	5	5	5	
0.0141667	0.0530368	0.0996654	0.00109969	0.00132257	5	5	5	
0.0143333	-0.0451694	-0.115029	0.00111373	0.00181286	5	5	5	
0.0145	0.050183	0.0833937	0.00106805	0.00199064	5	5	5	
0.0146667	-0.0546858	-0.0447956	0.00107093	0.00175469	5	5	5	
0.0148333	0.0580997	0.0324612	0.00113164	0.00126901	5	5	5	
0.015	-0.05203	-0.0263529	0.0011882	0.000882306	5	5	5	
0.0151667	0.0514596	0.0124974	0.00116492	0.000684556	5	5	5	
0.0153333	-0.0511033	-0.02219	0.00113981	0.00084312	5	5	5	
0.0155	0.0535236	0.0509949	0.00114312	0.00120535	5	5	5	
0.0156667	-0.0538374	-0.061752	0.00117206	0.00149877	5	5	5	
0.0158333	0.0509274	0.0491729	0.00118898	0.00146765	5	5	5	
0.016	-0.0520992	-0.0366812	0.00119649	0.00118659	5	5	5	
0.0161667	0.055356	0.0326207	0.00120095	0.00096756	5	5	5	
0.0163333	-0.0555179	-0.0500021	0.00119432	0.000954649	5	5	5	
0.0165	0.0532967	0.0601934	0.00118515	0.00107799	5	5	5	
0.0166667	-0.0502281	-0.044398	0.00115005	0.00111842	5	5	5	
0.0168333	0.0461628	0.0254136	0.00110258	0.000978544	5	5	5	
0.017	-0.0483515	-0.0310637	0.00107144	0.000809117	5	5	5	
0.0171667	0.049346	0.0403645	0.00107891	0.000798887	5	5	5	
0.0173333	-0.0530723	-0.0415236	0.00111002	0.000885613	5	5	5	
0.0175	0.0566304	0.0342402	0.00117645	0.000934606	5	5	5	
0.0176667	-0.0586199	-0.0303949	0.00121461	0.00087665	5	5	5	
0.0178333	0.0557955	0.0320641	0.0012227	0.000852671	5	5	5	
0.018	-0.0548901	-0.0417952	0.00119095	0.000888776	5	5	5	
0.0181667	0.0557658	0.0433495	0.00119084	0.000958268	5	5	5	
0.0183333	-0.0571964	-0.0470307	0.00119895	0.000990961	5	5	5	
0.0185	0.0552071	0.0542086	0.00120442	0.000997961	5	5	5	
0.0186667	-0.0567777	-0.0546389	0.00119738	0.00099909	5	5	5	
0.0188333	0.0574193	0.0198556	0.0012038	0.000926303	5	5	5	
0.019	-0.0499306	-0.00765841	0.00116923	0.000721071	5	5	5	
0.0191667	0.0407517	0.04403	0.00111169	0.000838194	5	5	5	
0.0193333	-0.0578227	-0.100263	0.00113814	0.00123725	5	5	5	
0.0195	0.0794494	0.0834552	0.00131887	0.00164352	5	5	5	
0.0196667	-0.0709168	0.00951774	0.00146781	0.00166003	5	5	5	
0.0198333	0.0406476	-0.0345291	0.00138341	0.00116487	5	5	5	
0.02	-0.0325402	-0.0661745	0.00110664	0.00151193	5	5	5	
0.0201667	0.0386721	0.0924811	0.000962992	0.00165597	5	5	5	
0.0203333	-0.0499852	0.00258785	0.00104441	0.00182157	5	5	5	
0.0205	0.060541	0.00166404	0.00126801	0.00114779	5	5	5	
0.0206667	-0.0724053	-0.108449	0.00142866	0.00130567	5	5	5	
0.0208333	0.069307	0.0766257	0.0014783	0.00151167	5	5	5	
0.021	-0.0543215	0.0523066	0.00137194	0.00202938	5	5	5	
0.0211667	0.0316023	-0.0217668	0.00113885	0.00160474	5	5	5	
0.0213333	-0.0301628	-0.100106	0.000910884	0.00201163	5	5	5	
0.0215	0.0459055	0.0791769	0.000892658	0.00179585	5	5	5	
0.0216667	-0.0599244	0.00771637	0.00103586	0.00187196	5	5	5	
0.0218333	0.0566352	0.0158218	0.001197	0.0011871	5	5	5	
0.022	-0.0553247	-0.0689755	0.00120449	0.00117684	5	5	5	
0.0221667	0.051332	0.0399082	0.00114904	0.00108103	5	5	5	
0.0223333	-0.0520753	-0.0126774	0.00110348	0.00100012	5	5	5	
0.0225	0.0545679	0.0302426	0.00111411	0.000743901	5	5	5	
0.0226667	-0.0580711	-0.0297444	0.00114695	0.000617705	5	5	5	
0.0228333	0.0527159	-0.00170055	0.00116855	0.000552326	5	5	5	
0.023	-0.053406	-0.0103454	0.00116658	0.000544094	5	5	5	
0.0231667	0.0539342	0.0485698	0.00117027	0.000752783	5	5	5	
0.0233333	-0.0587045	-0.04989	0.00119999	0.000991127	5	5	5	
0.0235	0.0568314	0.0348267	0.00124616	0.00103027	5	5	5	
0.0236667	-0.0548748	-0.0426699	0.00125614	0.000878662	5	5	5	
0.0238333	0.052599	0.0434746	0.00122736	0.00082221	5	5	5	
0.024	-0.0544299	-0.026618	0.00120547	0.000760506	5	5	5	
0.0241667	0.0529584	0.0138668	0.00120081	0.000637018	5	5	5	
0.0243333	-0.0546631	-0.00815395	0.00119603	0.000461121	5	5	5	
0.0245	0.0440473	0.0142568	0.00114323	0.000439528	5	5	5	
0.0246667	-0.0354261	-0.0377526	0.00103907	0.000674106	5	5	5	
0.0248333	0.0407918	0.0627302	0.000993202	0.00100136	5	5	5	
0.025	-0.0560514	-0.04784	0.00107184	0.00114217	5	5	5	
0.0251667	0.0603982	0.0165002	0.00119912	0.000980253	5	5	5	
0.0253333	-0.0564626	-0.0230363	0.00125509	0.00072588	5	5	5	
0.0255	0.0488226	0.0505311	0.00117499	0.000708758	5	5	5	
0.0256667	-0.0459621	-0.0394932	0.00106092	0.000789802	5	5	5	
0.0258333	0.0440047	0.0203057	0.000972363	0.000801223	5	5	5	
0.026	-0.0442484	-0.0320823	0.000965908	0.000723225	5	5	5	
0.0261667	0.0524283	0.0438467	0.00103584	0.000735449	5	5	5	
0.0263333	-0.0614993	-0.0292911	0.0011591	0.00077513	5	5	5	
0.0265	0.0607283	0.0202692	0.0012273	0.000719463	5	5	5	
0.0266667	-0.0537017	-0.0377713	0.00122384	0.00072235	5	5	5	
0.0268333	0.0523449	0.0563475	0.00116227	0.000869942	5	5	5	
0.027	-0.0533772	-0.0508829	0.00114904	0.00104098	5	5	5	
0.0271667	0.0552551	0.036977	0.00115885	0.00102213	5	5	5	
0.0273333	-0.0582677	-0.0387895	0.0011982	0.00090649	5	5	5	
0.0275	0.0556932	0.04064	0.00119629	0.00084419	5	5	5	
0.0276667	-0.0558306	-0.0374766	0.00118231	0.00083036	5	5	5	
0.0278333	0.0539131	0.0355408	0.00115804	0.000837035	5	5	5	
0.028	-0.0573187	-0.0404431	0.00115565	0.000826129	5	5	5	
0.0281667	0.0547031	0.034475	0.00117031	0.000811373	5	5	5	
0.0283333	-0.0545877	-0.0267366	0.00116861	0.000771617	5	5	5	
0.0285	0.0554232	0.035767	0.00116724	0.00077535	5	5	5	
0.0286667	-0.0571149	-0.0478313	0.001175	0.000830532	5	5	5	
0.0288333	0.0572083	0.0390274	0.00120231	0.000882633	5	5	5	
0.029	-0.0606243	-0.0311531	0.00121683	0.00083687	5	5	5	
0.0291667	0.0561166	0.0367674	0.00123363	0.000784021	5	5	5	
0.0293333	-0.0540621	-0.0380148	0.00121093	0.000769495	5	5	5	
0.0295	0.0567831	0.0321859	0.00120203	0.00077253	5	5	5	
0.0296667	-0.0552235	-0.0324	0.00118321	0.000767101	5	5	5	
0.0298333	0.054967	0.041301	0.00118336	0.000782063	5	5	5	
0.03	-0.0550658	-0.0406718	0.00118008	0.00083877	5	5	5	
0.0301667	0.0547748	0.0350897	0.00118719	0.00085306	5	5	5	
0.0303333	-0.0548637	-0.0353179	0.00119771	0.00082704	5	5	5	
0.0305	0.0567889	0.0370858	0.00119348	0.000802426	5	5	5	
0.0306667	-0.0561009	-0.0355234	0.00118071	0.00079401	5	5	5	
0.0308333	0.0513456	0.0319344	0.00116425	0.000767235	5	5	5	
0.031	-0.0519417	-0.0324329	0.00113191	0.000737012	5	5	5	
0.0311667	0.0488301	0.0381775	0.00110814	0.000748728	5	5	5	
0.0313333	-0.0517015	-0.0392196	0.0010931	0.000786183	5	5	5	
0.0315	0.0562814	0.0320835	0.00112657	0.000796298	5	5	5	
0.0316667	-0.0573179	-0.0349351	0.00115256	0.000782168	5	5	5	
0.0318333	0.0580692	0.038316	0.00119284	0.00079226	5	5	5	
0.032	-0.059228	-0.0383406	0.00120842	0.000801086	5	5	5	
0.0321667	0.0550536	0.0355252	0.00120975	0.000804014	5	5	5	
0.0323333	-0.0528538	-0.0369734	0.00116161	0.000782152	5	5	5	
0.0325	0.0565558	0.040574	0.00114216	0.000812724	5	5	5	
0.0326667	-0.0591011	-0.0410161	0.0011523	0.000854433	5	5	5	
0.0328333	0.0600915	0.0376902	0.00121194	0.000889686	5	5	5	
0.033	-0.053038	-0.0444881	0.00122194	0.000915151	5	5	5	
0.0331667	0.0521921	0.0623761	0.00117177	0.00104468	5	5	5	
0.0333333	-0.0550266	-0.0744837	0.00114141	0.0012279	5	5	5	
0.0335	0.0633821	0.0711453	0.00118238	0.0013774	5	5	5	
0.0336667	-0.0654163	-0.0459109	0.00125526	0.00129747	5	5	5	
0.0338333	0.0499342	0.00374983	0.00124972	0.0010328	5	5	5	
0.034	-0.0352788	0.0120073	0.00110563	0.000653565	5	5	5	
0.0341667	0.0471284	0.0364044	0.000996265	0.000842518	5	5	5	
0.0343333	-0.064431	-0.0536953	0.00103907	0.00107399	5	5	5	
0.0345	0.0634666	-0.00500883	0.00119272	0.00113609	5	5	5	
0.0346667	-0.0655013	0.00443428	0.00130654	0.000848082	5	5	5	
0.0348333	0.0710427	0.0833318	0.00135344	0.00114635	5	5	5	
0.035	-0.0693076	-0.0713434	0.00134694	0.00145147	5	5	5	
0.0351667	0.0500114	-0.0245004	0.00129123	0.00165354	5	5	5	
0.0353333	-0.03853	-0.0129196	0.00113152	0.0012509	5	5	5	
0.0355	0.0462576	0.121351	0.0010746	0.00155031	5	5	5	
0.0356667	-0.0605947	-0.0709239	0.00115549	0.00168849	5	5	5	
0.0358333	0.0622363	-0.0466078	0.00128894	0.00209004	5	5	5	
0.036	-0.0604137	-0.00795203	0.00132875	0.00162969	5	5	5	
0.0361667	0.0536073	0.118545	0.00126951	0.0017684	5	5	5	
0.0363333	-0.0554266	-0.0825813	0.00119353	0.00161758	5	5	5	
0.0365	0.0538366	0.00297381	0.00114484	0.00178262	5	5	5	
0.0366667	-0.0490177	-0.0223659	0.00108723	0.00117856	5	5	5	
0.0368333	0.0473344	0.0463954	0.00104721	0.000883176	5	5	5	
0.037	-0.0517262	-0.00955127	0.0010318	0.000604696	5	5	5	
0.0371667	0.0546095	-0.00910117	0.00107102	0.000624735	5	5	5	
0.0373333	-0.0585219	-0.0524911	0.00113455	0.0010229	5	5	5	
0.0375	0.0610822	0.105811	0.00119685	0.00153991	5	5	5	
0.0376667	-0.0619026	-0.0788126	0.00123863	0.00194641	5	5	5	
0.0378333	0.0570564	0.0357569	0.00124333	0.00162397	5	5	5	
0.038	-0.0519324	-0.0405524	0.00119158	0.00118075	5	5	5	
0.0381667	0.0506455	0.0418744	0.00113918	0.000921343	5	5	5	
0.0383333	-0.0588267	-0.031032	0.001143	0.000814523	5	5	5	
0.0385	0.0637533	0.0341992	0.00120008	0.000861426	5	5	5	
0.0386667	-0.0619195	-0.0534677	0.0012589	0.000964525	5	5	5	
0.0388333	0.0572859	0.0604568	0.00124793	0.00110223	5	5	5	
0.039	-0.0541372	-0.0655723	0.00120766	0.00121056	5	5	5	
0.0391667	0.0490515	0.0694979	0.00114236	0.00127105	5	5	5	
0.0393333	-0.0475734	-0.0586317	0.00109558	0.00128598	5	5	5	
0.0395	0.0518547	0.0394601	0.0010716	0.00117463	5	5	5	
0.0396667	-0.0596147	-0.0196558	0.00111805	0.000905343	5	5	5	
0.0398333	0.0617988	0.0119053	0.00119615	0.000620828	5	5	5	
0.04	-0.0590802	-0.030204	0.00124512	0.000612475	5	5	5	
0.0401667	0.0564752	0.0604703	0.00121239	0.000931516	5	5	5	
0.0403333	-0.0582819	-0.0654191	0.00117084	0.0013465	5	5	5	
0.0405	0.0562446	0.0607171	0.00113629	0.00150081	5	5	5	
0.0406667	-0.0538802	-0.0590608	0.00112857	0.00137879	5	5	5	
0.0408333	0.0542068	0.0445566	0.00113001	0.0011423	5	5	5	
0.041	-0.05877	-0.0163547	0.00115853	0.000927321	5	5	5	
0.0411667	0.0606637	0.0143659	0.00120641	0.000693362	5	5	5	
0.0413333	-0.0657395	-0.0466985	0.00126931	0.000748403	5	5	5	
0.0415	0.0631217	0.0612548	0.00130407	0.00091044	5	5	5	
0.0416667	-0.059521	-0.0498107	0.00129417	0.00110322	5	5	5	
0.0418333	0.0533283	0.052137	0.00123598	0.00106736	5	5	5	
0.042	-0.0549108	-0.0634202	0.00118133	0.00104657	5	5	5	
0.0421667	0.0572858	0.0478124	0.00117122	0.00105239	5	5	5	
0.0423333	-0.0577419	-0.0278584	0.00118731	0.00096105	5	5	5	
0.0425	0.0513924	0.0310434	0.00117949	0.000818463	5	5	5	
0.0426667	-0.0541824	-0.0518688	0.00114298	0.000790885	5	5	5	
0.0428333	0.0564353	0.0560401	0.00112383	0.000911381	5	5	5	
0.043	-0.0573904	-0.0345867	0.0011411	0.000968765	5	5	5	
0.0431667	0.0546993	0.0213139	0.00116239	0.000857173	5	5	5	
0.0433333	-0.0517934	-0.0337409	0.00115064	0.000763042	5	5	5	
0.0435	0.0481588	0.0489807	0.0011114	0.000814099	5	5	5	
0.0436667	-0.0564605	-0.0522794	0.00108929	0.000929242	5	5	5	
0.0438333	0.05898	0.0481075	0.00112848	0.000977738	5	5	5	
0.044	-0.0590839	-0.0425857	0.00118873	0.000925935	5	5	5	
0.0441667	0.0631135	0.0339926	0.00124099	0.000852764	5	5	5	
0.0443333	-0.0604197	-0.027127	0.00123946	0.000740564	5	5	5	
0.0445	0.0525699	0.0269826	0.00119842	0.000675632	5	5	5	
0.0446667	-0.0513918	-0.0447038	0.00113818	0.000742683	5	5	5	
0.0448333	0.051711	0.0597934	0.00109363	0.0009401	5	5	5	
0.045	-0.0540722	-0.0572028	0.00108064	0.00109982	5	5	5	
0.0451667	0.0556515	0.0423771	0.00109946	0.00110557	5	5	5	
0.0453333	-0.0583117	-0.0348274	0.00112667	0.000963791	5	5	5	
0.0455	0.0571554	0.0272054	0.00115711	0.000820808	5	5	5	
0.0456667	-0.052513	-0.0296497	0.00115641	0.000757239	5	5	5	
0.0458333	0.0536694	0.0399255	0.00112078	0.00083259	5	5	5	
0.046	-0.0626842	-0.0479352	0.00112919	0.000906608	5	5	5	
0.0461667	0.060782	0.0405758	0.00117164	0.000931925	5	5	5	
0.0463333	-0.0578446	-0.0390766	0.00120474	0.000862856	5	5	5	
0.0465	0.0544579	0.043377	0.00118264	0.000824792	5	5	5	
0.0466667	-0.057422	-0.0407293	0.00115945	0.000806572	5	5	5	
0.0468333	0.0596103	0.0291289	0.00117087	0.000774393	5	5	5	
0.047	-0.0603169	-0.030288	0.001213	0.000711339	5	5	5	
0.0471667	0.0620761	0.0352578	0.00123492	0.000696832	5	5	5	
0.0473333	-0.0608955	-0.0373235	0.00123933	0.000735443	5	5	5	
0.0475	0.0557172	0.0448033	0.00120662	0.000827941	5	5	5	
0.0476667	-0.0553187	-0.0536767	0.00117587	0.000920481	5	5	5	
0.0478333	0.0583544	0.0479628	0.00115708	0.000990155	5	5	5	
0.048	-0.0579653	-0.0392462	0.00116775	0.000977776	5	5	5	
0.0481667	0.0521578	0.041332	0.0011526	0.0009302	5	5	5	
0.0483333	-0.0476232	-0.0542056	0.00112704	0.000939489	5	5	5	
0.0485	0.0550033	0.0720739	0.00112604	0.00105608	5	5	5	
0.0486667	-0.0711645	-0.0567141	0.00119392	0.00115129	5	5	5	
0.0488333	0.0704266	-0.00499704	0.00127052	0.00117965	5	5	5	
0.049	-0.0532188	0.0327293	0.00127153	0.000852817	5	5	5	
0.0491667	0.0368751	0.0343147	0.00114988	0.00101333	5	5	5	
0.0493333	-0.0408614	-0.083059	0.00102126	0.00117861	5	5	5	
0.0495	0.0468692	0.0417984	0.000958766	0.0014788	5	5	5	
0.0496667	-0.0550009	-0.0309168	0.00100367	0.00118667	5	5	5	
0.0498333	0.0709835	0.0987125	0.00113983	0.0012103	5	5	5	
0.05	-0.0818051	-0.0906239	0.0013052	0.00138306	5	5	5	
0.0501667	0.0651589	-0.011372	0.00141649	0.00175388	5	5	5	
0.0503333	-0.042607	0.0236514	0.00130735	0.00123895	5	5	5	
0.0505	0.0406549	0.0687526	0.00108525	0.00140599	5	5	5	
0.0506667	-0.05327	-0.0847663	0.000953475	0.00126992	5	5	5	
0.0508333	0.0646645	0.0123559	0.00103008	0.00159799	5	5	5	
0.051	-0.0673221	-0.000719889	0.00119451	0.000954115	5	5	5	
0.0511667	0.0661367	0.0539343	0.00128991	0.000901562	5	5	5	
0.0513333	-0.057508	-0.0638784	0.00128177	0.000907001	5	5	5	
0.0515	0.0523492	0.0252369	0.00120027	0.00111394	5	5	5	
0.0516667	-0.054426	-0.0276279	0.00113759	0.000876511	5	5	5	
0.0518333	0.0591021	0.0566282	0.00113805	0.00085602	5	5	5	
0.052	-0.0584228	-0.0499479	0.0011937	0.000906253	5	5	5	
0.0521667	0.057926	0.0274183	0.0012167	0.000952262	5	5	5	
0.0523333	-0.0583978	-0.037318	0.00121557	0.000857399	5	5	5	
0.0525	0.0614087	0.0512753	0.00120397	0.00085686	5	5	5	
0.0526667	-0.0600348	-0.0359582	0.00121204	0.000877628	5	5	5	
0.0528333	0.0526121	0.0242017	0.00118117	0.000818369	5	5	5	
0.053	-0.0525017	-0.0390189	0.00113979	0.000754267	5	5	5	
0.0531667	0.0551414	0.0485377	0.00110563	0.000785913	5	5	5	
0.0533333	-0.0575864	-0.040896	0.00111499	0.00085697	5	5	5	
0.0535	0.0561848	0.0369085	0.00113879	0.000846896	5	5	5	
0.0536667	-0.0596658	-0.04064	0.00116282	0.000814052	5	5	5	
0.0538333	0.0585029	0.0421745	0.00117517	0.000818831	5	5	5	
0.054	-0.0582282	-0.0359586	0.00117717	0.00083185	5	5	5	
0.0541667	0.0594481	0.029308	0.0011781	0.00080149	5	5	5	
0.0543333	-0.0610306	-0.0343241	0.00118675	0.000788508	5	5	5	
0.0545	0.0554611	0.0472192	0.00119923	0.000838638	5	5	5	
0.0546667	-0.0563186	-0.0394016	0.00118834	0.000868546	5	5	5	
0.0548333	0.0546203	0.0157009	0.00116757	0.000782679	5	5	5	
0.055	-0.0522467	-0.0298845	0.00114583	0.000709025	5	5	5	
0.0551667	0.0572017	0.0567439	0.00115591	0.000803664	5	5	5	
0.0553333	-0.0626512	-0.0453283	0.00119196	0.000924828	5	5	5	
0.0555	0.0567242	0.0220066	0.00121542	0.000900416	5	5	5	
0.0556667	-0.0540232	-0.0447157	0.00118399	0.000825674	5	5	5	
0.0558333	0.0560603	0.0636224	0.00112551	0.000890396	5	5	5	
0.056	-0.0560275	-0.0292942	0.00109167	0.000965217	5	5	5	
0.0561667	0.0513861	-0.00168879	0.00107377	0.000787322	5	5	5	
0.0563333	-0.0538674	-0.0350601	0.00107306	0.000705274	5	5	5	
0.0565	0.0582141	0.0644056	0.00108384	0.000787706	5	5	5	
0.0566667	-0.0659895	-0.0350339	0.00115057	0.000977794	5	5	5	
0.0568333	0.0664212	0.013367	0.00122817	0.000856817	5	5	5	
0.057	-0.0661668	-0.0448744	0.00129072	0.000799046	5	5	5	
0.0571667	0.0602276	0.068789	0.00129377	0.000886438	5	5	5	
0.0573333	-0.0616212	-0.0463198	0.00126908	0.00107517	5	5	5	
0.0575	0.0577291	0.0227754	0.00123329	0.000993351	5	5	5	
0.0576667	-0.0588992	-0.0394776	0.00121682	0.000868785	5	5	5	
0.0578333	0.055592	0.0534987	0.00120913	0.000854602	5	5	5	
0.058	-0.0557142	-0.037721	0.00118823	0.000883818	5	5	5	
0.0581667	0.0562093	0.0245232	0.00118638	0.000821886	5	5	5	
0.0583333	-0.0602562	-0.0411967	0.00117603	0.000750523	5	5	5	
0.0585	0.0553274	0.0523068	0.00117709	0.000817147	5	5	5	
0.0586667	-0.055339	-0.0400957	0.00114941	0.000900138	5	5	5	
0.0588333	0.0586191	0.029129	0.00114394	0.000854724	5	5	5	
0.059	-0.0579895	-0.0387468	0.00113645	0.000746279	5	5	5	
0.0591667	0.0536801	0.0456859	0.00114276	0.000745311	5	5	5	
0.0593333	-0.052792	-0.0380855	0.00110895	0.000788723	5	5	5	
0.0595	0.0555266	0.0325636	0.00109087	0.000804952	5	5	5	
0.0596667	-0.0592197	-0.0390262	0.00110069	0.000790474	5	5	5	
0.0598333	0.058538	0.0445571	0.00114172	0.000807253	5	5	5	
0.06	-0.0573111	-0.041588	0.00116484	0.000836065	5	5	5	
0.0601667	0.0569604	0.0388841	0.00115947	0.000827837	5	5	5	
0.0603333	-0.0599263	-0.0413305	0.00114619	0.000824271	5	5	5	
0.0605	0.056892	0.0394568	0.00114523	0.000830768	5	5	5	
0.0606667	-0.0575545	-0.0351672	0.00114819	0.000820527	5	5	5	
0.0608333	0.0557234	0.0376449	0.00114191	0.000791512	5	5	5	
0.061	-0.0574491	-0.0453695	0.00113141	0.000802689	5	5	5	
0.0611667	0.0633477	0.0429201	0.00114781	0.000838362	5	5	5	
0.0613333	-0.0659558	-0.0344427	0.00119996	0.000845732	5	5	5	
0.0615	0.0598572	0.0313298	0.00124238	0.000797271	5	5	5	
0.0616667	-0.0563482	-0.0400336	0.00122695	0.000771187	5	5	5	
0.0618333	0.0552587	0.0419522	0.00116378	0.000786169	5	5	5	
0.062	-0.0577556	-0.0408741	0.00113592	0.000823171	5	5	5	
0.0621667	0.0664335	0.0421805	0.00117177	0.000842804	5	5	5	
0.0623333	-0.0640955	-0.0428056	0.00124765	0.000851878	5	5	5	
0.0625	0.0602429	0.0366774	0.00126024	0.000831769	5	5	5	
0.0626667	-0.0568296	-0.0350224	0.00122483	0.000778572	5	5	5	
0.0628333	0.0539864	0.034979	0.00113278	0.00072772	5	5	5	
0.063	-0.0460774	-0.0387567	0.00107214	0.000721944	5	5	5	
0.0631667	0.0459331	0.0392424	0.000999375	0.000767942	5	5	5	
0.0633333	-0.0524166	-0.0515457	0.00101019	0.000850467	5	5	5	
0.0635	0.0661046	0.0689266	0.00109467	0.000977128	5	5	5	
0.0636667	-0.0819028	-0.0527311	0.00126438	0.00107962	5	5	5	
0.0638333	0.0762242	-0.0112088	0.00138706	0.00121769	5	5	5	
0.064	-0.0423561	0.0339453	0.00136175	0.000942465	5	5	5	
0.0641667	0.0240862	0.0531482	0.00110577	0.00121991	5	5	5	
0.0643333	-0.0363212	-0.113848	0.000873924	0.0013614	5	5	5	
0.0645	0.0528178	0.0357572	0.000816582	0.00180482	5	5	5	
0.0646667	-0.0627125	0.0115052	0.000978431	0.00135355	5	5	5	
0.0648333	0.0695519	0.0873051	0.00116797	0.00145039	5	5	5	
0.065	-0.0746419	-0.121021	0.00128557	0.00154579	5	5	5	
0.0651667	0.0650236	-0.00271229	0.00133154	0.00203877	5	5	5	
0.0653333	-0.0451279	0.0405301	0.00125151	0.00149759	5	5	5	
0.0655	0.0414456	0.0860931	0.00107957	0.00175257	5	5	5	
0.0656667	-0.0582096	-0.120127	0.00101514	0.00170901	5	5	5	
0.0658333	0.0725521	0.000534371	0.00110488	0.0022164	5	5	5	
0.066	-0.0714842	0.0459109	0.00126305	0.00150642	5	5	5	
0.0661667	0.0597437	0.0435465	0.00132249	0.0015415	5	5	5	
0.0663333	-0.0494373	-0.0838754	0.00123194	0.00136419	5	5	5	
0.0665	0.0514311	0.0256662	0.00112381	0.00155916	5	5	5	
0.0666667	-0.0575379	0.000423296	0.00107475	0.00101037	5	5	5	
0.0668333	0.0608175	0.03802	0.0011179	0.000822642	5	5	5	
0.067	-0.0627686	-0.0550521	0.00117479	0.000794632	5	5	5	
0.0671667	0.0628132	0.0394862	0.00120934	0.00093523	5	5	5	
0.0673333	-0.0551945	-0.0298268	0.00118605	0.000866489	5	5	5	
0.0675	0.0576369	0.0398991	0.00115885	0.000767727	5	5	5	
0.0676667	-0.0615316	-0.047017	0.0011461	0.000780131	5	5	5	
0.0678333	0.0602532	0.0407945	0.00117498	0.000830922	5	5	5	
0.068	-0.0592609	-0.0252376	0.00119185	0.000786655	5	5	5	
0.0681667	0.0642412	0.030089	0.00120119	0.000716521	5	5	5	
0.0683333	-0.0616604	-0.0475098	0.00120851	0.000754518	5	5	5	
0.0685	0.059605	0.0438681	0.00123123	0.000832588	5	5	5	
0.0686667	-0.0590164	-0.0232555	0.00121605	0.000816919	5	5	5	
0.0688333	0.0614339	0.0377598	0.00120223	0.000725497	5	5	5	
0.069	-0.0632277	-0.0563763	0.00121301	0.000756886	5	5	5	
0.0691667	0.0661038	0.0361474	0.0012605	0.000829185	5	5	5	
0.0693333	-0.0618091	-0.016639	0.00128112	0.000794697	5	5	5	
0.0695	0.0569339	0.040075	0.00125549	0.000689589	5	5	5	
0.0696667	-0.0581227	-0.0573751	0.00119518	0.000717383	5	5	5	
0.0698333	0.059098	0.0302024	0.00115947	0.000820476	5	5	5	
0.07	-0.0499665	-0.0169584	0.00113354	0.000771201	5	5	5	
0.0701667	0.0460032	0.0513516	0.0010909	0.000794587	5	5	5	
0.0703333	-0.0495105	-0.0693902	0.00104214	0.000892832	5	5	5	
0.0705	0.0559354	0.0393913	0.00103768	0.00106902	5	5	5	
0.0706667	-0.0593802	-0.0340308	0.00109049	0.000992053	5	5	5	
0.0708333	0.0642179	0.0639557	0.00116071	0.000982282	5	5	5	
0.071	-0.0622948	-0.0599333	0.0012069	0.00101582	5	5	5	
0.0711667	0.0563444	0.0220853	0.00118854	0.00104162	5	5	5	
0.0713333	-0.0533854	-0.0158404	0.00113296	0.000801252	5	5	5	
0.0715	0.0576939	0.0444756	0.00109438	0.000749295	5	5	5	
0.0716667	-0.0635477	-0.054214	0.00113674	0.000824679	5	5	5	
0.0718333	0.067669	0.0324044	0.00122157	0.000966501	5	5	5	
0.072	-0.066386	-0.0275695	0.00130232	0.000901662	5	5	5	
0.0721667	0.0577532	0.0612712	0.00129192	0.000954796	5	5	5	
0.0723333	-0.0577379	-0.0682925	0.00124657	0.00107443	5	5	5	
0.0725	0.0557292	0.0272004	0.00118827	0.00112572	5	5	5	
0.0726667	-0.0534	-0.0105028	0.0011548	0.000853686	5	5	5	
0.0728333	0.0447924	0.0383035	0.00110746	0.000737163	5	5	5	
0.073	-0.0490348	-0.0426912	0.00105312	0.000714311	5	5	5	
0.0731667	0.0537526	0.0243893	0.00103458	0.000784569	5	5	5	
0.0733333	-0.0566872	-0.0321434	0.00105523	0.000732904	5	5	5	
0.0735	0.0546566	0.0535223	0.0010798	0.000786254	5	5	5	
0.0736667	-0.0600186	-0.0446744	0.00109252	0.000892335	5	5	5	
0.0738333	0.058645	0.0261642	0.00110924	0.000889282	5	5	5	
0.074	-0.0589884	-0.0305935	0.00112021	0.000775148	5	5	5	
0.0741667	0.0584645	0.0478639	0.00114274	0.000754197	5	5	5	
0.0743333	-0.0592857	-0.0425636	0.00114893	0.00081206	5	5	5	
0.0745	0.0590841	0.0294855	0.00116503	0.000811127	5	5	5	
0.0746667	-0.0634025	-0.037308	0.00117804	0.00075318	5	5	5	
0.0748333	0.0630013	0.0472404	0.00120712	0.000751233	5	5	5	
0.075	-0.0598725	-0.0393592	0.00122268	0.000795558	5	5	5	
0.0751667	0.0557516	0.0341365	0.00119816	0.000800654	5	5	5	
0.0753333	-0.0583597	-0.0407524	0.00115649	0.000780154	5	5	5	
0.0755	0.056646	0.0447007	0.00113737	0.000788012	5	5	5	
0.0756667	-0.0604573	-0.0377905	0.00114401	0.000809858	5	5	5	
0.0758333	0.0597729	0.0343509	0.00116813	0.000787203	5	5	5	
0.076	-0.0607541	-0.0386937	0.00118432	0.000764479	5	5	5	
0.0761667	0.059113	0.0411502	0.00118162	0.000768217	5	5	5	
0.0763333	-0.0610799	-0.0358291	0.00117566	0.000767248	5	5	5	
0.0765	0.0560093	0.0329502	0.00115413	0.000729974	5	5	5	
0.0766667	-0.0589096	-0.0401211	0.00114009	0.000711832	5	5	5	
0.0768333	0.0596296	0.0458267	0.00113647	0.000755275	5	5	5	
0.077	-0.062949	-0.0430598	0.00116633	0.000816941	5	5	5	
0.0771667	0.0592987	0.0378482	0.00120695	0.00083039	5	5	5	
0.0773333	-0.0638012	-0.0370716	0.0012164	0.000786421	5	5	5	
0.0775	0.0602736	0.0364755	0.00120574	0.000747416	5	5	5	
0.0776667	-0.0607412	-0.0374159	0.00119527	0.000731657	5	5	5	
0.0778333	0.05834	0.0370372	0.00119221	0.000743405	5	5	5	
0.078	-0.059378	-0.0372294	0.00118039	0.000745406	5	5	5	
0.0781667	0.0540256	0.0382076	0.0011565	0.000766614	5	5	5	
0.0783333	-0.0589136	-0.0471175	0.00112442	0.000805548	5	5	5	
0.0785	0.0637506	0.0465248	0.00114311	0.000865703	5	5	5	
0.0786667	-0.0664162	-0.0338211	0.00119566	0.000849512	5	5	5	
0.0788333	0.0595182	0.0242166	0.00122705	0.000753201	5	5	5	
0.079	-0.050105	-0.0239504	0.00116782	0.000669744	5	5	5	
0.0791667	0.0495664	0.0515674	0.00107859	0.000821054	5	5	5	
0.0793333	-0.0642357	-0.0993697	0.0011081	0.0012079	5	5	5	
0.0795	0.0849731	0.0879229	0.00127058	0.00153863	5	5	5	
0.0796667	-0.0869612	0.00395237	0.00147773	0.00167294	5	5	5	
0.0798333	0.0723317	-0.0301952	0.0015559	0.0011686	5	5	5	
0.08	-0.0605293	-0.0667282	0.00147026	0.00138083	5	5	5	
0.0801667	0.0603724	0.100871	0.00132478	0.00141819	5	5	5	
0.0803333	-0.0510924	0.00253324	0.00120824	0.00183766	5	5	5	
0.0805	0.0547082	-0.0200575	0.00115967	0.00111787	5	5	5	
0.0806667	-0.0699096	-0.0957827	0.00122862	0.0013667	5	5	5	
0.0808333	0.0800314	0.0972382	0.00135716	0.00142554	5	5	5	
0.081	-0.0699345	0.0391105	0.00145161	0.00214338	5	5	5	
0.0811667	0.0551122	-0.0351718	0.00138378	0.00153045	5	5	5	
0.0813333	-0.0445597	-0.112687	0.00120579	0.00201807	5	5	5	
0.0815	0.0536899	0.127635	0.00110225	0.00195507	5	5	5	
0.0816667	-0.0666763	0.000516264	0.00112592	0.00251094	5	5	5	
0.0818333	0.0748564	-0.0232725	0.00124057	0.00161085	5	5	5	
0.082	-0.0653527	-0.0671266	0.00132194	0.00155985	5	5	5	
0.0821667	0.0577158	0.0836986	0.00129458	0.00127903	5	5	5	
0.0823333	-0.0552125	-0.0217898	0.00120231	0.0015146	5	5	5	
0.0825	0.0587773	0.0176573	0.00113351	0.00101554	5	5	5	
0.0826667	-0.06209	-0.0621485	0.00113559	0.000900568	5	5	5	
0.0828333	0.0683428	0.0574535	0.00120007	0.000882695	5	5	5	
0.083	-0.0658079	-0.0194008	0.00126375	0.000994926	5	5	5	
0.0831667	0.0644409	0.0260991	0.00128619	0.000799229	5	5	5	
0.0833333	-0.064076	-0.0535219	0.00127016	0.000740032	5	5	5	
0.0835	0.062244	0.0464246	0.00124132	0.000785398	5	5	5	
0.0836667	-0.0580257	-0.0217072	0.00122179	0.000835414	5	5	5	
0.0838333	0.0602236	0.0332597	0.00120891	0.000739098	5	5	5	
0.084	-0.0607906	-0.0585965	0.00120273	0.000758261	5	5	5	
0.0841667	0.0628518	0.0532581	0.00120107	0.000881846	5	5	5	
0.0843333	-0.0655125	-0.0282413	0.00121684	0.000944223	5	5	5	
0.0845	0.0677818	0.02847	0.00123786	0.000830925	5	5	5	
0.0846667	-0.0568902	-0.0485417	0.00124264	0.000792037	5	5	5	
0.0848333	0.0564554	0.0452942	0.00118926	0.000815782	5	5	5	
0.085	-0.0611155	-0.0261957	0.00116251	0.000833915	5	5	5	
0.0851667	0.0634292	0.0368002	0.00116929	0.000786604	5	5	5	
0.0853333	-0.0661961	-0.0685373	0.00124976	0.00089841	5	5	5	
0.0855	0.0746726	0.0534778	0.00132057	0.00103752	5	5	5	
0.0856667	-0.0696418	-0.0149556	0.00138495	0.00102281	5	5	5	
0.0858333	0.0639687	0.0215758	0.00135705	0.000775818	5	5	5	
0.086	-0.0575865	-0.0559721	0.00128888	0.00072549	5	5	5	
0.0861667	0.052446	0.0432917	0.00116689	0.000781417	5	5	5	
0.0863333	-0.0505439	-0.0171544	0.00109413	0.000831892	5	5	5	
0.0865	0.0532877	0.0357391	0.00104054	0.000766629	5	5	5	
0.0866667	-0.0582596	-0.0605644	0.00107125	0.000847628	5	5	5	
0.0868333	0.0633791	0.0428559	0.00113003	0.000947341	5	5	5	
0.087	-0.0637684	-0.0210047	0.00119104	0.000902903	5	5	5	
0.0871667	0.0621249	0.0359834	0.00121497	0.000760357	5	5	5	
0.0873333	-0.0627596	-0.0540087	0.00122497	0.000793556	5	5	5	
0.0875	0.0629527	0.0467843	0.00122131	0.000894345	5	5	5	
0.0876667	-0.0625139	-0.0306985	0.0012209	0.000909413	5	5	5	
0.0878333	0.0630835	0.0355038	0.00121809	0.000811135	5	5	5	
0.088	-0.0621584	-0.0479958	0.00121827	0.000805603	5	5	5	
0.0881667	0.0603915	0.0427186	0.0012102	0.000834297	5	5	5	
0.0883333	-0.0587283	-0.0298659	0.00119507	0.000819037	5	5	5	
0.0885	0.0571198	0.0321377	0.00116054	0.000726541	5	5	5	
0.0886667	-0.0601306	-0.0414219	0.00114969	0.000706774	5	5	5	
0.0888333	0.0583901	0.038304	0.00115481	0.00074216	5	5	5	
0.089	-0.0571834	-0.0264016	0.00116454	0.000730833	5	5	5	
0.0891667	0.0558711	0.0322061	0.00114193	0.000670432	5	5	5	
0.0893333	-0.0572597	-0.0494021	0.00111841	0.000691781	5	5	5	
0.0895	0.0560262	0.0470898	0.00110887	0.000798829	5	5	5	
0.0896667	-0.060119	-0.0357349	0.00112459	0.000855778	5	5	5	
0.0898333	0.0602585	0.0391333	0.00114668	0.000831035	5	5	5	
0.09	-0.0613088	-0.0499863	0.00116217	0.000820811	5	5	5	
0.0901667	0.0603954	0.0463181	0.00116694	0.000863959	5	5	5	
0.0903333	-0.0624548	-0.0315016	0.00117065	0.000853477	5	5	5	
0.0905	0.0571004	0.0336243	0.00117422	0.000776881	5	5	5	
0.0906667	-0.0582289	-0.0446489	0.00116232	0.000745773	5	5	5	
0.0908333	0.0594727	0.0439874	0.0011516	0.000779842	5	5	5	
0.091	-0.0592134	-0.0421808	0.00114083	0.000834781	5	5	5	
0.0911667	0.0561963	0.0474834	0.00113846	0.000858746	5	5	5	
0.0913333	-0.0598449	-0.050882	0.00112544	0.000888493	5	5	5	
0.0915	0.0571811	0.0422256	0.00112358	0.000903728	5	5	5	
0.0916667	-0.0552772	-0.0341403	0.00110865	0.00085823	5	5	5	
0.0918333	0.0563608	0.0406759	0.00109149	0.0007943	5	5	5	
0.092	-0.0633976	-0.0467064	0.0010858	0.000791332	5	5	5	
0.0921667	0.0637648	0.0416619	0.00113789	0.000831076	5	5	5	
0.0923333	-0.0626244	-0.0397213	0.00119007	0.000851362	5	5	5	
0.0925	0.0622277	0.0373113	0.00121964	0.000817663	5	5	5	
0.0926667	-0.0652524	-0.0347213	0.00122374	0.000750022	5	5	5	
0.0928333	0.0674617	0.0368953	0.00124683	0.00071017	5	5	5	
0.093	-0.0681411	-0.0462029	0.00127445	0.00072614	5	5	5	
0.0931667	0.0632633	0.046523	0.00129102	0.000809728	5	5	5	
0.0933333	-0.060071	-0.040212	0.00125904	0.000850746	5	5	5	
0.0935	0.0604947	0.0395987	0.00121375	0.000832861	5	5	5	
0.0936667	-0.0621198	-0.0417787	0.00118515	0.000779943	5	5	5	
0.0938333	0.0570167	0.0296585	0.00116152	0.000742474	5	5	5	
0.094	-0.0502143	-0.0196325	0.00110844	0.000673002	5	5	5	
0.0941667	0.0472147	0.0496856	0.00102876	0.000817739	5	5	5	
0.0943333	-0.0630434	-0.106318	0.00104587	0.00120546	5	5	5	
0.0945	0.0869111	0.0917441	0.00122143	0.00160415	5	5	5	
0.0946667	-0.0914628	0.0115916	0.0014615	0.00185193	5	5	5	
0.0948333	0.074384	-0.034117	0.00158548	0.00132781	5	5	5	
0.095	-0.0646157	-0.0778151	0.00152939	0.00156931	5	5	5	
0.0951667	0.0607748	0.110733	0.00137953	0.00153648	5	5	5	
0.0953333	-0.0556444	0.0046499	0.00124896	0.00202983	5	5	5	
0.0955	0.0557344	-0.021988	0.00118685	0.00124611	5	5	5	
0.0956667	-0.0694063	-0.10482	0.00124635	0.00149939	5	5	5	
0.0958333	0.0862904	0.103777	0.00139614	0.0015066	5	5	5	
0.096	-0.0777519	0.0450763	0.00153157	0.00232193	5	5	5	
0.0961667	0.0541009	-0.0420479	0.00146754	0.00169151	5	5	5	
0.0963333	-0.0422815	-0.113902	0.00124393	0.00217677	5	5	5	
0.0965	0.0534699	0.123499	0.00105415	0.00201013	5	5	5	
0.0966667	-0.062393	0.00842741	0.00105015	0.00255288	5	5	5	
0.0968333	0.0660383	-0.0210808	0.00115462	0.00153551	5	5	5	
0.097	-0.0602925	-0.0773328	0.00122289	0.00155333	5	5	5	
0.0971667	0.0603348	0.0861972	0.00120034	0.0012768	5	5	5	
0.0973333	-0.0595673	-0.0211113	0.00117187	0.00161267	5	5	5	
0.0975	0.0635042	0.0204479	0.00116217	0.00106132	5	5	5	
0.0976667	-0.0613167	-0.0607142	0.00118403	0.000879661	5	5	5	
0.0978333	0.0590097	0.0466037	0.001182	0.000806975	5	5	5	
0.098	-0.0588863	-0.016796	0.00116193	0.00087464	5	5	5	
0.0981667	0.0626261	0.0350584	0.00115755	0.000781897	5	5	5	
0.0983333	-0.0624949	-0.0542587	0.00117382	0.000777863	5	5	5	
0.0985	0.0606848	0.0379757	0.001193	0.000837252	5	5	5	
0.0986667	-0.059521	-0.0291074	0.00117804	0.000826517	5	5	5	
0.0988333	0.0617501	0.0479435	0.00116757	0.000793899	5	5	5	
0.099	-0.0615307	-0.0576857	0.00116933	0.000851523	5	5	5	
0.0991667	0.0593571	0.0435445	0.00117256	0.000946381	5	5	5	
0.0993333	-0.0602175	-0.0320856	0.00116361	0.000907379	5	5	5	
0.0995	0.0618039	0.0424747	0.00115598	0.000841617	5	5	5	
0.0996667	-0.0609888	-0.0534962	0.00116073	0.000862602	5	5	5	
0.0998333	0.06174	0.0410398	0.001169	0.00091688	5	5	5	
0.1	-0.0626284	-0.026808	0.00118194	0.000870798	5	5	5	
0.100167	0.0598619	0.0444501	0.00118622	0.000848308	5	5	5	
0.100333	-0.0683681	-0.0705005	0.00121752	0.000970669	5	5	5	
0.1005	0.0758023	0.055611	0.00128658	0.0011267	5	5	5	
0.100667	-0.0764392	-0.021299	0.00138062	0.00107044	5	5	5	
0.100833	0.0681953	0.0253647	0.00141173	0.000848333	5	5	5	
0.101	-0.0650507	-0.0487718	0.00137531	0.00074929	5	5	5	
0.101167	0.0612258	0.032323	0.00129287	0.000737526	5	5	5	
0.101333	-0.0564213	-0.011601	0.0012188	0.000691119	5	5	5	
0.1015	0.0480042	0.0355552	0.00113658	0.000617952	5	5	5	
0.101667	-0.0551395	-0.0591143	0.00108296	0.000709682	5	5	5	
0.101833	0.0626724	0.0438301	0.00109627	0.000866635	5	5	5	
0.102	-0.0606546	-0.0294977	0.00113855	0.000884259	5	5	5	
0.102167	0.0532553	0.0396445	0.00114495	0.000789791	5	5	5	
0.102333	-0.058584	-0.0529371	0.00111628	0.000781243	5	5	5	
0.1025	0.084287	0.0591463	0.00121147	0.000929341	5	5	5	
0.102667	-0.0681869	-0.0414427	0.00136028	0.00101577	5	5	5	
0.102833	0.0752897	0.0451893	0.00144811	0.000990252	5	5	5	
0.103	-0.0700725	-0.0457938	0.00141162	0.000895523	5	5	5	
0.103167	0.0606742	0.0438506	0.00131616	0.000857411	5	5	5	
0.103333	-0.0597849	-0.0385676	0.00125399	0.000837288	5	5	5	
0.1035	0.0545058	0.0312672	0.00119356	0.000789949	5	5	5	
0.103667	-0.0284339	-0.0160028	0.00109981	0.000670007	5	5	5	
0.103833	0.0524826	0.0334037	0.00100634	0.000576199	5	5	5	
0.104	-0.0635101	-0.0430768	0.00100867	0.000592011	5	5	5	
0.104167	0.0628541	0.0433082	0.00110647	0.000703541	5	5	5	
0.104333	-0.0619047	-0.0402301	0.00120498	0.000797438	5	5	5	
0.1045	0.0601643	0.0392905	0.0012098	0.000806155	5	5	5	
0.104667	-0.0581408	-0.0396817	0.00118253	0.000787233	5	5	5	
0.104833	0.0571854	0.0409575	0.00115736	0.000784802	5	5	5	
0.105	-0.0542473	-0.0398798	0.00110177	0.000776742	5	5	5	
0.105167	0.0589218	0.0398478	0.00107945	0.000776028	5	5	5	
0.105333	-0.0617502	-0.0419727	0.0010895	0.00078739	5	5	5	
0.1055	0.0628583	0.0428742	0.00115215	0.000810166	5	5	5	
0.105667	-0.0658131	-0.0354745	0.00119384	0.000799983	5	5	5	
0.105833	0.0678339	0.0363675	0.00123102	0.000763901	5	5	5	
0.106	-0.0665527	-0.0432469	0.00125279	0.000747121	5	5	5	
0.106167	0.0602391	0.0491054	0.00125711	0.00079545	5	5	5	
0.106333	-0.057075	-0.0409671	0.00121589	0.000843776	5	5	5	
0.1065	0.0617943	0.0315272	0.00117768	0.000821615	5	5	5	
0.106667	-0.0641271	-0.0314411	0.00116889	0.000740882	5	5	5	
0.106833	0.0598614	0.0499614	0.00119761	0.000734155	5	5	5	
0.107	-0.0532411	-0.076234	0.00117507	0.000889465	5	5	5	
0.107167	0.0613581	0.0668076	0.0011507	0.00113351	5	5	5	
0.107333	-0.0897064	0.0825356	0.00123519	0.001756	5	5	5	
0.1075	0.111986	-0.276949	0.00146415	0.00220798	5	5	5	
0.107667	-0.166549	0.811061	0.00201684	0.00611394	5	5	5	
0.107833	0.151382	-0.278925	0.00315354	0.0102438	5	5	5	
0.108	-0.0522235	-0.110162	0.00320968	0.0120681	5	5	5	
0.108167	0.0517379	0.178383	0.00264878	0.00883198	5	5	5	
0.108333	-0.0727778	-0.132795	0.00143452	0.00469904	5	5	5	
0.1085	0.112421	-0.0231916	0.00138565	0.00318206	5	5	5	
0.108667	-0.179607	0.536132	0.00189616	0.00448396	5	5	5	
0.108833	0.228863	-0.293798	0.00315053	0.00892196	5	5	5	
0.109	-0.0877064	0.149603	0.0033814	0.00941275	5	5	5	
0.109167	0.0856242	0.040358	0.00307521	0.00776861	5	5	5	
0.109333	-0.0868799	-0.0674829	0.00199443	0.00277051	5	5	5	
0.1095	0.0962663	-0.0503611	0.00179742	0.00174516	5	5	5	
0.109667	-0.0937167	0.0811311	0.00187208	0.0013051	5	5	5	
0.109833	0.0853053	-0.0102806	0.00188654	0.0018204	5	5	5	
0.11	-0.0640209	-0.0340621	0.00172127	0.00182539	5	5	5	
0.110167	0.0493457	0.0313566	0.00145868	0.00173581	5	5	5	
0.110333	-0.0441485	-0.0745159	0.00124121	0.00133234	5	5	5	
0.1105	0.0641148	0.115298	0.00118708	0.00128225	5	5	5	
0.110667	-0.0757521	-0.045906	0.00123476	0.0017327	5	5	5	
0.110833	0.0562767	0.250438	0.00119229	0.00246754	5	5	5	
0.111	-0.0325142	-0.255014	0.00122581	0.00395557	5	5	5	
0.111167	0.0333742	0.159019	0.00121186	0.00609784	5	5	5	
0.111333	-0.0324913	-0.129925	0.00116985	0.00573973	5	5	5	
0.1115	0.0478008	0.0138642	0.00101458	0.00431031	5	5	5	
0.111667	-0.0580532	-0.01582	0.00094332	0.00161959	5	5	5	
0.111833	0.0526654	0.173464	0.000986036	0.00162077	5	5	5	
0.112	-0.0664092	0.0157618	0.00118602	0.0025943	5	5	5	
0.112167	0.0695856	-0.18486	0.00121325	0.00376772	5	5	5	
0.112333	-0.0831277	0.0655366	0.00165666	0.00455377	5	5	5	
0.1125	0.0601061	0.0539377	0.0015892	0.00365031	5	5	5	
0.112667	-0.0548251	-0.0655047	0.00160655	0.00275871	5	5	5	
0.112833	0.0619279	0.0321027	0.00120843	0.00143202	5	5	5	
0.113	-0.0704075	-0.0358364	0.00122588	0.000955423	5	5	5	
0.113167	0.0759465	0.0647758	0.00129785	0.000896529	5	5	5	
0.113333	-0.0517591	-0.0459936	0.00152778	0.00111661	5	5	5	
0.1135	0.0705432	0.0342147	0.00145753	0.0011431	5	5	5	
0.113667	-0.0747008	-0.0390759	0.0014782	0.000994247	5	5	5	
0.113833	0.0736306	0.0462629	0.00132339	0.000767978	5	5	5	
0.114	-0.061847	-0.0326669	0.00140637	0.000760802	5	5	5	
0.114167	0.0561452	0.0206062	0.00130922	0.000704501	5	5	5	
0.114333	-0.0604914	-0.033733	0.00129964	0.000681054	5	5	5	
0.1145	0.0591165	0.0427571	0.00112656	0.000597177	5	5	5	
0.114667	-0.0527172	-0.0158961	0.00111022	0.000633893	5	5	5	
0.114833	0.0515632	0.00432699	0.000986953	0.00047126	5	5	5	
0.115	-0.0458171	-0.0468748	0.00103809	0.000649654	5	5	5	
0.115167	0.0508485	0.065523	0.000994499	0.000794988	5	5	5	
0.115333	-0.0606713	-0.0258315	0.00104952	0.00101579	5	5	5	
0.1155	0.0590697	0.0117073	0.00111782	0.000827394	5	5	5	
0.115667	-0.0539502	-0.0549004	0.00114785	0.000761281	5	5	5	
0.115833	0.0602076	0.0669001	0.00112751	0.000808577	5	5	5	
0.116	-0.0572368	-0.0257353	0.00108832	0.00103415	5	5	5	
0.116167	0.0514778	0.00954272	0.00107532	0.000894034	5	5	5	
0.116333	-0.055713	-0.0452164	0.00106764	0.000809873	5	5	5	
0.1165	0.0621397	0.0572512	0.00108409	0.000765437	5	5	5	
0.116667	-0.0591992	-0.0314244	0.00112737	0.000891715	5	5	5	
0.116833	0.0571689	0.024184	0.00114192	0.000802838	5	5	5	
0.117	-0.0616676	-0.0508304	0.0011413	0.000758852	5	5	5	
0.117167	0.0653484	0.0564084	0.00117037	0.000817128	5	5	5	
0.117333	-0.0609598	-0.0327516	0.00121271	0.000911545	5	5	5	
0.1175	0.0566448	0.0265499	0.00120164	0.000827964	5	5	5	
0.117667	-0.0554824	-0.0546953	0.00114289	0.000806296	5	5	5	
0.117833	0.0545254	0.0709461	0.00108483	0.000912112	5	5	5	
0.118	-0.054929	-0.0527049	0.00107022	0.0011111	5	5	5	
0.118167	0.065567	0.0439473	0.00110393	0.00111583	5	5	5	
0.118333	-0.0786363	-0.0594004	0.0012114	0.00106769	5	5	5	
0.1185	0.077899	0.0449564	0.00134216	0.000986652	5	5	5	
0.118667	-0.0656678	-0.00799513	0.00140574	0.000880097	5	5	5	
0.118833	0.0551886	0.0302828	0.00133358	0.00073472	5	5	5	
0.119	-0.0533344	-0.0769601	0.00119393	0.000858786	5	5	5	
0.119167	0.052364	0.0540244	0.00108286	0.00103746	5	5	5	
0.119333	-0.054914	-0.00871553	0.00105139	0.0010627	5	5	5	
0.1195	0.0613517	0.040295	0.00111606	0.000908711	5	5	5	
0.119667	-0.0661088	-0.0865642	0.00120621	0.000966712	5	5	5	
0.119833	0.0658435	0.0565141	0.00127319	0.00120082	5	5	5	
0.12	-0.0615435	-0.0157928	0.00125875	0.00120906	5	5	5	
0.120167	0.057282	0.0479919	0.00120227	0.00103699	5	5	5	
0.120333	-0.058963	-0.073114	0.00114635	0.000976072	5	5	5	
0.1205	0.0593518	0.0297335	0.00112397	0.00102828	5	5	5	
0.120667	-0.0552552	-0.0113667	0.00110927	0.000900772	5	5	5	
0.120833	0.0576498	0.0583743	0.0011061	0.000850724	5	5	5	
0.121	-0.0617685	-0.0746665	0.00111177	0.000912478	5	5	5	
0.121167	0.0625291	0.0303892	0.00114167	0.00112151	5	5	5	
0.121333	-0.0624299	-0.0179751	0.00117201	0.000952965	5	5	5	
0.1215	0.0632174	0.051575	0.00118842	0.00083401	5	5	5	
0.121667	-0.0640084	-0.0557698	0.0012074	0.000796338	5	5	5	
0.121833	0.0595673	0.0274408	0.00120708	0.000898723	5	5	5	
0.122	-0.0596822	-0.0366859	0.00119042	0.000834123	5	5	5	
0.122167	0.062067	0.0653953	0.00116831	0.00088007	5	5	5	
0.122333	-0.0688459	-0.0576604	0.00119346	0.00096831	5	5	5	
0.1225	0.0744454	0.0276129	0.00127285	0.00103932	5	5	5	
0.122667	-0.0702077	-0.00487598	0.00133732	0.000819682	5	5	5	
0.122833	0.0454764	-0.00992747	0.00128121	0.000492841	5	5	5	
0.123	-0.0350151	-0.0235817	0.00109908	0.00058499	5	5	5	
0.123167	0.0461631	0.0981397	0.000960233	0.00108614	5	5	5	
0.123333	-0.0712886	-0.0866803	0.00104716	0.00157386	5	5	5	
0.1235	0.0744094	-0.0134828	0.00125432	0.00179909	5	5	5	
0.123667	-0.0653008	0.0047233	0.00137352	0.00120872	5	5	5	
0.123833	0.0645721	0.103889	0.00132449	0.00133739	5	5	5	
0.124	-0.0689423	-0.0720167	0.00126665	0.0012505	5	5	5	
0.124167	0.0492973	-0.0502659	0.00121168	0.00194507	5	5	5	
0.124333	-0.0368906	-0.00428664	0.00108275	0.00162804	5	5	5	
0.1245	0.0478142	0.136586	0.000946421	0.00193894	5	5	5	
0.124667	-0.0667325	-0.0711313	0.000939573	0.00182912	5	5	5	
0.124833	0.0646473	-0.0614796	0.00107177	0.00225431	5	5	5	
0.125	-0.0534004	0.000617977	0.00116282	0.00187305	5	5	5	
0.125167	0.0458413	0.122098	0.00110837	0.00210256	5	5	5	
0.125333	-0.0572422	-0.0814265	0.0010382	0.00192971	5	5	5	
0.1255	0.066068	-0.0109267	0.00106112	0.00202255	5	5	5	
0.125667	-0.067593	-0.019497	0.00116128	0.00135082	5	5	5	
0.125833	0.0600614	0.0778828	0.00122462	0.00123376	5	5	5	
0.126	-0.0567308	-0.0494037	0.00119305	0.00105209	5	5	5	
0.126167	0.056766	0.0143141	0.0011311	0.00110207	5	5	5	
0.126333	-0.0629753	-0.0375551	0.00111863	0.000851658	5	5	5	
0.1265	0.0635485	0.0603153	0.0011473	0.000813798	5	5	5	
0.126667	-0.0626142	-0.0436408	0.00118904	0.000883642	5	5	5	
0.126833	0.0648089	0.0295535	0.00120612	0.000903495	5	5	5	
0.127	-0.0664848	-0.0437916	0.00122478	0.000827774	5	5	5	
0.127167	0.0645591	0.0483449	0.00124239	0.000789079	5	5	5	
0.127333	-0.0627125	-0.0326918	0.00124463	0.000798678	5	5	5	
0.1275	0.0635794	0.0305439	0.00122472	0.00075169	5	5	5	
0.127667	-0.0652756	-0.0441263	0.00122893	0.000724285	5	5	5	
0.127833	0.0650805	0.0549165	0.00123402	0.000792643	5	5	5	
0.128	-0.0627348	-0.0422024	0.00124495	0.000883667	5	5	5	
0.128167	0.0613296	0.0248172	0.00121515	0.000844317	5	5	5	
0.128333	-0.0667829	-0.0318221	0.00121246	0.000714634	5	5	5	
0.1285	0.0620216	0.0466422	0.00122011	0.000673311	5	5	5	
0.128667	-0.0582339	-0.0259617	0.00121247	0.000682863	5	5	5	
0.128833	0.0547751	0.00597585	0.00116611	0.000614682	5	5	5	
0.129	-0.0539809	-0.0331844	0.00109664	0.000577059	5	5	5	
0.129167	0.0615076	0.0651796	0.0010875	0.00067712	5	5	5	
0.129333	-0.0636288	-0.0364932	0.00112341	0.000881705	5	5	5	
0.1295	0.0547308	0.0124379	0.0011467	0.000846881	5	5	5	
0.129667	-0.0523786	-0.0509382	0.0011275	0.000866484	5	5	5	
0.129833	0.0627631	0.0785776	0.0011173	0.000953265	5	5	5	
0.13	-0.0685686	-0.0418993	0.00116046	0.00117656	5	5	5	
0.130167	0.0656503	0.0128771	0.00122911	0.00106971	5	5	5	
0.130333	-0.0607421	-0.0446035	0.00123747	0.000899841	5	5	5	
0.1305	0.0643992	0.0566864	0.00122184	0.000811739	5	5	5	
0.130667	-0.0535973	-0.0157854	0.00118112	0.000835948	5	5	5	
0.130833	0.0453275	-0.00314002	0.00109376	0.000678599	5	5	5	
0.131	-0.0487439	-0.0369373	0.00100199	0.000617761	5	5	5	
0.131167	0.0580018	0.0594954	0.000969246	0.000685609	5	5	5	
0.131333	-0.0613199	-0.0414641	0.00103786	0.000915311	5	5	5	
0.1315	0.0614454	0.0243269	0.00111659	0.000877343	5	5	5	
0.131667	-0.0608295	-0.0452259	0.0011543	0.000803197	5	5	5	
0.131833	0.0624194	0.0554662	0.00117281	0.000810497	5	5	5	
0.132	-0.0638135	-0.042789	0.00118282	0.000890257	5	5	5	
0.132167	0.0650865	0.0375398	0.00120233	0.000898454	5	5	5	
0.132333	-0.0647607	-0.0529148	0.0012169	0.000871205	5	5	5	
0.1325	0.0648439	0.0513881	0.00123215	0.000898778	5	5	5	
0.132667	-0.0641576	-0.0387499	0.0012375	0.000910756	5	5	5	
0.132833	0.063449	0.0349405	0.00123892	0.000857629	5	5	5	
0.133	-0.0630266	-0.0446615	0.00122763	0.000779399	5	5	5	
0.133167	0.0637919	0.047284	0.00121361	0.00079256	5	5	5	
0.133333	-0.0620732	-0.0395208	0.00120518	0.000826772	5	5	5	
0.1335	0.0572904	0.0381502	0.00118836	0.000831363	5	5	5	
0.133667	-0.0574618	-0.0451072	0.00115175	0.000810796	5	5	5	
0.133833	0.0621309	0.0421645	0.00112708	0.000808936	5	5	5	
0.134	-0.0638721	-0.0315804	0.00114116	0.000778512	5	5	5	
0.134167	0.0631269	0.0362929	0.00117615	0.00073228	5	5	5	
0.134333	-0.0637251	-0.0448736	0.00120815	0.000721503	5	5	5	
0.1345	0.0609409	0.0419433	0.00121375	0.000765178	5	5	5	
0.134667	-0.0615491	-0.0352272	0.00120095	0.00078311	5	5	5	
0.134833	0.0642757	0.0400606	0.0011909	0.000759841	5	5	5	
0.135	-0.0661654	-0.0481995	0.00120532	0.000767999	5	5	5	
0.135167	0.0667078	0.046034	0.0012469	0.000817045	5	5	5	
0.135333	-0.0661649	-0.0376678	0.00126893	0.000848915	5	5	5	
0.1355	0.061342	0.0372033	0.00125587	0.000811835	5	5	5	
0.135667	-0.0555734	-0.045795	0.00119369	0.000789008	5	5	5	
0.135833	0.0519564	0.0497086	0.00111404	0.000822673	5	5	5	
0.136	-0.0548424	-0.0522399	0.0010581	0.000903484	5	5	5	
0.136167	0.063906	0.0649244	0.00109212	0.000996035	5	5	5	
0.136333	-0.0741593	-0.0549275	0.00117507	0.00107009	5	5	5	
0.1365	0.0726238	-0.00787266	0.00128494	0.00123913	5	5	5	
0.136667	-0.0437769	0.034122	0.00129406	0.00106796	5	5	5	
0.136833	0.0293817	0.0622315	0.00112141	0.00132042	5	5	5	
0.137	-0.0440615	-0.133358	0.000913112	0.00149709	5	5	5	
0.137167	0.0567491	0.0413591	0.000836767	0.00201178	5	5	5	
0.137333	-0.0586721	0.0335121	0.000946331	0.00189241	5	5	5	
0.1375	0.0688713	0.0711241	0.00109997	0.00182673	5	5	5	
0.137667	-0.0763042	-0.1353	0.00122561	0.00176522	5	5	5	
0.137833	0.0709051	0.00459057	0.00132888	0.002068	5	5	5	
0.138	-0.0507793	0.0531991	0.00134552	0.00177827	5	5	5	
0.138167	0.0470934	0.0974514	0.00121855	0.00210537	5	5	5	
0.138333	-0.0665102	-0.152133	0.00113978	0.00205491	5	5	5	
0.1385	0.0771168	-0.00327334	0.00117152	0.00271578	5	5	5	
0.138667	-0.0707356	0.0650626	0.00130206	0.00217588	5	5	5	
0.138833	0.0598591	0.0601147	0.00133774	0.00222573	5	5	5	
0.139	-0.0545196	-0.117903	0.00125716	0.00186196	5	5	5	
0.139167	0.0561797	0.029154	0.00115551	0.00205772	5	5	5	
0.139333	-0.0637355	0.0157457	0.00112574	0.00157291	5	5	5	
0.1395	0.0610421	0.044307	0.00114196	0.00129765	5	5	5	
0.139667	-0.0603998	-0.0691016	0.00116665	0.00103649	5	5	5	
0.139833	0.0572741	0.0261726	0.00115107	0.00104048	5	5	5	
0.14	-0.0567152	-0.0154581	0.00112322	0.000859942	5	5	5	
0.140167	0.0560108	0.07241	0.00111047	0.000911042	5	5	5	
0.140333	-0.0553507	-0.132592	0.00115848	0.00121257	5	5	5	
0.1405	-0.0470366	0.147806	0.00129027	0.00189652	5	5	5	
0.140667	-0.0853067	-0.0793272	0.00145165	0.00263844	5	5	5	
0.140833	0.0631848	-0.00592356	0.00151637	0.00264795	5	5	5	
0.141	-0.0546041	0.00131938	0.00139295	0.00202525	5	5	5	
0.141167	0.0550029	0.0112527	0.0012266	0.000961777	5	5	5	
0.141333	-0.0735293	0.0453969	0.00112138	0.000480424	5	5	5	
0.1415	0.0549445	0.0181363	0.00115466	0.000513442	5	5	5	
0.141667	-0.0446221	-0.0248332	0.00109548	0.00061841	5	5	5	
0.141833	0.0410097	0.0187505	0.000995719	0.000622448	5	5	5	
0.142	-0.0428141	-0.013408	0.000862253	0.000490378	5	5	5	
0.142167	0.0492461	0.0226193	0.000853646	0.000406697	5	5	5	
0.142333	-0.0615354	-0.0200897	0.000918193	0.000366612	5	5	5	
0.1425	0.0667625	0.00289064	0.00104955	0.000411113	5	5	5	
0.142667	-0.0628688	-0.0158424	0.00117946	0.00039586	5	5	5	
0.142833	0.0535893	0.0646318	0.00123032	0.000691284	5	5	5	
0.143	-0.0516495	-0.0922293	0.00117248	0.00104863	5	5	5	
0.143167	0.0515589	0.0360641	0.00106447	0.00131187	5	5	5	
0.143333	-0.0523783	-0.0213097	0.00100541	0.00106012	5	5	5	
0.1435	0.0590918	0.0496618	0.00104074	0.000740017	5	5	5	
0.143667	-0.0715154	-0.0460717	0.00113426	0.000755983	5	5	5	
0.143833	0.0733468	-0.00243163	0.00124661	0.000952741	5	5	5	
0.144	-0.0642745	-0.00883785	0.00130534	0.000848795	5	5	5	
0.144167	0.060908	0.0214074	0.0012869	0.000930951	5	5	5	
0.144333	-0.066844	-0.0321229	0.00125313	0.000836097	5	5	5	
0.1445	0.0651316	0.029091	0.00126157	0.000925172	5	5	5	
0.144667	-0.0610211	-0.0555755	0.00126186	0.00072004	5	5	5	
0.144833	0.0626819	0.0634138	0.00123965	0.000818891	5	5	5	
0.145	-0.0620729	-0.0465552	0.00119052	0.00100743	5	5	5	
0.145167	0.0645458	0.0113436	0.00120184	0.00096149	5	5	5	
0.145333	-0.0631702	-0.00618452	0.00121749	0.000644266	5	5	5	
0.1455	0.0577064	0.0109536	0.0012066	0.000334593	5	5	5	
0.145667	-0.0568576	-0.0210672	0.00115908	0.000223514	5	5	5	
0.145833	0.06179	0.0371284	0.00112742	0.000363747	5	5	5	
0.146	-0.0642926	-0.0460168	0.00113698	0.000572141	5	5	5	
0.146167	0.0641205	0.043732	0.00118291	0.00075693	5	5	5	
0.146333	-0.0601519	-0.0247421	0.00119466	0.000798044	5	5	5	
0.1465	0.0560949	0.0168512	0.00117104	0.00064732	5	5	5	
0.146667	-0.0592121	-0.0172052	0.00112524	0.000461993	5	5	5	
0.146833	0.0608469	0.0273101	0.00112101	0.000355511	5	5	5	
0.147	-0.0607777	-0.0308588	0.00113462	0.000445279	5	5	5	
0.147167	0.0605147	0.031605	0.00115712	0.000536203	5	5	5	
0.147333	-0.0624621	-0.0303534	0.00116197	0.00062342	5	5	5	
0.1475	0.061056	0.0176061	0.0011834	0.000558205	5	5	5	
0.147667	-0.0606174	-0.011965	0.00118275	0.000458844	5	5	5	
0.147833	0.0617321	0.0225973	0.00117958	0.000344935	5	5	5	
0.148	-0.0608814	-0.0430523	0.00116308	0.00043643	5	5	5	
0.148167	0.0595664	0.0471392	0.00116735	0.000628329	5	5	5	
0.148333	-0.0626821	-0.0400146	0.00115881	0.000803585	5	5	5	
0.1485	0.0648264	0.0199986	0.00117826	0.000762731	5	5	5	
0.148667	-0.0631094	-0.0117798	0.00119475	0.000575546	5	5	5	
0.148833	0.063586	0.0133153	0.00121209	0.00037308	5	5	5	
0.149	-0.0589012	-0.0263874	0.00119474	0.0002975	5	5	5	
0.149167	0.0542988	0.0352201	0.00115171	0.000403675	5	5	5	
0.149333	-0.057089	-0.0327796	0.00110568	0.000534507	5	5	5	
0.1495	0.0603812	0.0251473	0.00109638	0.000615715	5	5	5	
0.149667	-0.0603102	-0.0122819	0.00112311	0.000529418	5	5	5	
0.149833	0.0602965	0.00978723	0.00115638	0.000389113	5	5	5	
0.15	-0.0612519	-0.0178988	0.00115624	0.000279706	5	5	5	
0.150167	0.0662397	0.0344397	0.00117708	0.000330858	5	5	5	
0.150333	-0.0704998	-0.0394686	0.00122038	0.000491114	5	5	5	
0.1505	0.0709376	0.0251219	0.00128411	0.000622849	5	5	5	
0.150667	-0.0610579	0.00170745	0.00131346	0.000570052	5	5	5	
0.150833	0.0441346	0.00161069	0.00125629	0.000407731	5	5	5	
0.151	-0.0446137	-0.0442232	0.00110812	0.000461043	5	5	5	
0.151167	0.0753668	0.0831617	0.00111337	0.000656915	5	5	5	
0.151333	-0.0910106	-0.0370493	0.00128526	0.00129396	5	5	5	
0.1515	0.087582	-0.0391249	0.00153849	0.00167402	5	5	5	
0.151667	-0.0747583	0.0534348	0.00161444	0.00164662	5	5	5	
0.151833	0.059703	0.00270433	0.00151065	0.00144274	5	5	5	
0.152	-0.0416474	0.00244717	0.00126631	0.000873814	5	5	5	
0.152167	0.0362076	0.0125142	0.00101599	0.000783707	5	5	5	
0.152333	-0.0446138	-0.126825	0.000867269	0.00111436	5	5	5	
0.1525	0.065337	0.182217	0.000964342	0.00193259	5	5	5	
0.152667	-0.0751288	-0.0218611	0.00113874	0.00274612	5	5	5	
0.152833	0.0649309	-0.0783519	0.00128242	0.00307307	5	5	5	
0.153	-0.0476254	0.037244	0.00124066	0.00253117	5	5	5	
0.153167	0.0446762	0.00662026	0.00110529	0.00169127	5	5	5	
0.153333	-0.0540053	0.0444668	0.000992352	0.000736745	5	5	5	
0.1535	0.0611269	-0.0279833	0.00100048	0.000566144	5	5	5	
0.153667	-0.0659108	-0.0520165	0.00109595	0.00108728	5	5	5	
0.153833	0.0666558	0.114617	0.00119232	0.0014098	5	5	5	
0.154	-0.0605312	-0.0567589	0.00122855	0.00180359	5	5	5	
0.154167	0.0535972	0.0102514	0.00118655	0.00143091	5	5	5	
0.154333	-0.059878	-0.0183305	0.00112364	0.0010237	5	5	5	
0.1545	0.058592	0.0369188	0.00109737	0.000709385	5	5	5	
0.154667	-0.0563321	-0.0115272	0.00110712	0.000637369	5	5	5	
0.154833	0.0569623	0.0273349	0.00110328	0.00067788	5	5	5	
0.155	-0.0602222	-0.0294168	0.00109192	0.000636461	5	5	5	
0.155167	0.0563364	0.0179543	0.00109182	0.000528251	5	5	5	
0.155333	-0.0560932	-0.0137536	0.00109941	0.000466973	5	5	5	
0.1555	0.0559855	0.0379998	0.0010961	0.000405969	5	5	5	
0.155667	-0.0609459	-0.05579	0.00109557	0.00057083	5	5	5	
0.155833	0.0625296	0.051447	0.00113165	0.000808712	5	5	5	
0.156	-0.0656581	-0.0286913	0.0011714	0.000918367	5	5	5	
0.156167	0.0652634	0.0103252	0.00122377	0.000755424	5	5	5	
0.156333	-0.0629551	-0.015353	0.00123372	0.000501665	5	5	5	
0.1565	0.0595645	0.0194108	0.001228	0.000322456	5	5	5	
0.156667	-0.060902	-0.0177163	0.0011895	0.000362319	5	5	5	
0.156833	0.0566254	0.0108016	0.00116167	0.000399979	5	5	5	
0.157	-0.0530227	-0.0389514	0.00109937	0.000468161	5	5	5	
0.157167	0.0544906	0.0394922	0.00106227	0.00057716	5	5	5	
0.157333	-0.0609997	-0.0189961	0.00104561	0.000623299	5	5	5	
0.1575	0.0603638	0.0208019	0.00110524	0.000576533	5	5	5	
0.157667	-0.0597975	-0.0520306	0.00113694	0.000504963	5	5	5	
0.157833	0.0614121	0.0477769	0.00116025	0.000659665	5	5	5	
0.158	-0.0659616	-0.0354867	0.00115643	0.000829767	5	5	5	
0.158167	0.0607525	0.0236202	0.00119779	0.000828447	5	5	5	
0.158333	-0.0581545	-0.022135	0.00119897	0.000658516	5	5	5	
0.1585	0.0576961	0.0112206	0.00118839	0.000467759	5	5	5	
0.158667	-0.0579369	-0.00316958	0.00113468	0.000311301	5	5	5	
0.158833	0.0616265	0.00425463	0.00113451	0.000258554	5	5	5	
0.159	-0.0662019	-0.0338788	0.00116552	0.000309324	5	5	5	
0.159167	0.0641047	0.046202	0.00121676	0.000545695	5	5	5	
0.159333	-0.0656759	-0.043396	0.00123122	0.000758417	5	5	5	
0.1595	0.0671889	0.0293372	0.0012496	0.000811475	5	5	5	
0.159667	-0.0649801	-0.0182792	0.00125178	0.000680177	5	5	5	
0.159833	0.059399	-0.00765187	0.00126007	0.000597728	5	5	5	
0.16	-0.0559858	-0.00407845	0.00119014	0.000625104	5	5	5	
0.160167	0.0579131	0.0102223	0.00113621	0.000564265	5	5	5	
0.160333	-0.0628837	-0.0277099	0.00110505	0.000477795	5	5	5	
0.1605	0.0640757	0.0216333	0.00115417	0.000410006	5	5	5	
0.160667	-0.0632296	-0.0156305	0.0011861	0.00041262	5	5	5	
0.160833	0.0625376	0.0166774	0.00121236	0.000378759	5	5	5	
0.161	-0.0612259	-0.0357249	0.00119556	0.000404393	5	5	5	
0.161167	0.0613745	0.0356906	0.00119416	0.000543378	5	5	5	
0.161333	-0.0585667	-0.035625	0.00118373	0.000671042	5	5	5	
0.1615	0.0596813	0.0278182	0.00117128	0.000708195	5	5	5	
0.161667	-0.0617597	-0.0127949	0.00116313	0.000591951	5	5	5	
0.161833	0.0635935	0.00746876	0.00117599	0.00044481	5	5	5	
0.162	-0.0590949	-0.0127345	0.00119477	0.000286268	5	5	5	
0.162167	0.0592058	0.0342914	0.00118097	0.000328825	5	5	5	
0.162333	-0.0632075	-0.0498019	0.00116256	0.000513874	5	5	5	
0.1625	0.0633846	0.0483843	0.00117284	0.00074603	5	5	5	
0.162667	-0.0583285	-0.0241809	0.00118873	0.000820971	5	5	5	
0.162833	0.0572663	0.00647857	0.0011769	0.000690621	5	5	5	
0.163	-0.0563162	-0.00413271	0.00112926	0.000439283	5	5	5	
0.163167	0.0581239	0.0242901	0.0010994	0.000293896	5	5	5	
0.163333	-0.0604586	-0.047789	0.00110991	0.000418848	5	5	5	
0.1635	0.061831	0.0568364	0.00113994	0.000686295	5	5	5	
0.163667	-0.0622413	-0.0465658	0.0011752	0.000926933	5	5	5	
0.163833	0.0597587	0.0176539	0.00117789	0.00084659	5	5	5	
0.164	-0.0610435	-0.00877001	0.00117638	0.000618107	5	5	5	
0.164167	0.0604331	0.0112998	0.00117403	0.000338585	5	5	5	
0.164333	-0.0623802	-0.0272303	0.00117649	0.000298279	5	5	5	
0.1645	0.0564885	0.0262546	0.00117119	0.000395637	5	5	5	
0.164667	-0.0527534	-0.0247242	0.00113319	0.000512488	5	5	5	
0.164833	0.0536358	0.0172421	0.00109268	0.000494962	5	5	5	
0.165	-0.0565387	-0.0118761	0.00106408	0.000396359	5	5	5	
0.165167	0.0542941	0.0165681	0.00107209	0.000301764	5	5	5	
0.165333	-0.0545507	-0.0508645	0.00105959	0.000371385	5	5	5	
0.1655	0.0653664	0.0568615	0.00108112	0.000636351	5	5	5	
0.165667	-0.075935	-0.0344347	0.0011606	0.000881606	5	5	5	
0.165833	0.0699982	0.00958373	0.00129141	0.00103077	5	5	5	
0.166	-0.0514608	0.0112881	0.00133453	0.000825042	5	5	5	
0.166167	0.0429082	0.0215968	0.00123568	0.000698358	5	5	5	
0.166333	-0.0542392	-0.0931803	0.00108611	0.000712267	5	5	5	
0.1665	0.0708578	0.0881077	0.00106136	0.0011525	5	5	5	
0.166667	-0.0626453	-0.0112082	0.00112794	0.00150426	5	5	5	
0.166833	0.052214	-0.0317389	0.00118337	0.00142579	5	5	5	
0.167	-0.0582747	0.00938222	0.0011392	0.00107689	5	5	5	
0.167167	0.0604569	0.00939606	0.00112275	0.000682369	5	5	5	
0.167333	-0.0545914	0.00576628	0.00111154	0.00044562	5	5	5	
0.1675	0.0538133	0.0224811	0.00111275	0.000722075	5	5	5	
0.167667	-0.0651787	-0.108266	0.00108876	0.00131946	5	5	5	
0.167833	0.081476	0.0897101	0.00119298	0.00174712	5	5	5	
0.168	-0.0779064	0.00116256	0.00134023	0.00221823	5	5	5	
0.168167	0.0565336	-0.0326845	0.00145	0.00202193	5	5	5	
0.168333	-0.0467824	-0.000321584	0.00135118	0.00162084	5	5	5	
0.1685	0.0535458	-0.030618	0.00119584	0.000733977	5	5	5	
0.168667	-0.0586703	0.0459349	0.00106993	0.000510736	5	5	5	
0.168833	0.0613979	0.015594	0.00109567	0.000694921	5	5	5	
0.169	-0.0640373	-0.10504	0.00113968	0.00108937	5	5	5	
0.169167	0.0691937	0.0761729	0.0012137	0.00132198	5	5	5	
0.169333	-0.0756888	-0.0170224	0.00126326	0.00142615	5	5	5	
0.1695	0.0730858	0.0039788	0.00135147	0.00108408	5	5	5	
0.169667	-0.065372	-0.0316032	0.00137974	0.000747415	5	5	5	
0.169833	0.0579248	0.0253705	0.00134126	0.000702388	5	5	5	
0.17	-0.057649	-0.0339364	0.00123605	0.000756376	5	5	5	
0.170167	0.0544734	0.0575425	0.00114981	0.000831276	5	5	5	
0.170333	-0.0532177	-0.0287335	0.00109742	0.000762319	5	5	5	
0.1705	0.0574567	0.0107158	0.00107663	0.000715787	5	5	5	
0.170667	-0.0661671	-0.0327034	0.00110311	0.00054303	5	5	5	
0.170833	0.0665461	0.0477507	0.00116678	0.000623661	5	5	5	
0.171	-0.0654064	-0.0382519	0.00122652	0.000717184	5	5	5	
0.171167	0.0627211	0.0487599	0.00124706	0.000884437	5	5	5	
0.171333	-0.0612351	-0.0303578	0.00125102	0.000858377	5	5	5	
0.1715	0.0519188	0.0182783	0.00122116	0.000744026	5	5	5	
0.171667	-0.0507966	-0.0167153	0.00116258	0.000551423	5	5	5	
0.171833	0.0524243	0.0407116	0.00107918	0.000451489	5	5	5	
0.172	-0.0637025	-0.0394661	0.00106946	0.000546247	5	5	5	
0.172167	0.0665123	0.00530071	0.00112314	0.000701682	5	5	5	
0.172333	-0.0757649	0.0333851	0.00124123	0.000686181	5	5	5	
0.1725	0.0705722	-0.0166838	0.00133919	0.000604995	5	5	5	
0.172667	-0.0689735	-0.00387144	0.00138006	0.00047768	5	5	5	
0.172833	0.0616475	0.0172571	0.00134849	0.000393118	5	5	5	
0.173	-0.0640545	-0.0309339	0.00128731	0.000428329	5	5	5	
0.173167	0.0606015	0.0353171	0.00123728	0.000503911	5	5	5	
0.173333	-0.0587411	-0.0246777	0.00121269	0.000584699	5	5	5	
0.1735	0.0495704	0.0144704	0.00116856	0.000536251	5	5	5	
0.173667	-0.0522629	-0.0157014	0.0011027	0.000412693	5	5	5	
0.173833	0.0574425	0.0193575	0.00106509	0.000331599	5	5	5	
0.174	-0.0639689	-0.0302212	0.00107816	0.000364251	5	5	5	
0.174167	0.0661038	0.0343888	0.00115704	0.000586287	5	5	5	
0.174333	-0.0696973	-0.0174141	0.00123525	0.000787209	5	5	5	
0.1745	0.0683203	0.00377997	0.00130743	0.000842649	5	5	5	
0.174667	-0.0650028	0.00956523	0.0013451	0.00063121	5	5	5	
0.174833	0.0609043	-0.00531984	0.00133636	0.000375741	5	5	5	
0.175	-0.0613887	-0.0257798	0.00127563	0.000265869	5	5	5	
0.175167	0.0657068	0.0528752	0.00123783	0.000476925	5	5	5	
0.175333	-0.0645629	-0.0412041	0.00122739	0.000724292	5	5	5	
0.1755	0.0612197	0.0371822	0.00125313	0.000875159	5	5	5	
0.175667	-0.0544193	-0.0249641	0.0012267	0.000790335	5	5	5	
0.175833	0.0521769	0.0195369	0.00115506	0.000611961	5	5	5	
0.176	-0.0597805	-0.00927023	0.00109628	0.000498423	5	5	5	
0.176167	0.06747	-0.00581479	0.00111804	0.000479554	5	5	5	
0.176333	-0.0695212	0.00305032	0.00119793	0.000508784	5	5	5	
0.1765	0.0673173	0.0124073	0.00127051	0.000401935	5	5	5	
0.176667	-0.061653	-0.0262469	0.00128355	0.000343613	5	5	5	
0.176833	0.0526255	0.0170662	0.00122604	0.000326059	5	5	5	
0.177	-0.053097	-0.00500837	0.00115065	0.000364135	5	5	5	
0.177167	0.0568051	0.00982001	0.00107982	0.000265288	5	5	5	
0.177333	-0.0636628	-0.0330783	0.0010891	0.000271335	5	5	5	
0.1775	0.063508	0.0391276	0.00114062	0.000411997	5	5	5	
0.177667	-0.0624359	-0.0190156	0.00120029	0.000562104	5	5	5	
0.177833	0.0605412	0.00828413	0.00121515	0.000536778	5	5	5	
0.178	-0.0604501	-0.0174292	0.00121197	0.000391566	5	5	5	
0.178167	0.0568578	0.0130533	0.00117982	0.000292323	5	5	5	
0.178333	-0.0613684	0.0117183	0.00117024	0.000418868	5	5	5	
0.1785	0.056912	-0.00324304	0.00115231	0.00047198	5	5	5	
0.178667	-0.0555714	-0.020769	0.00114244	0.000548086	5	5	5	
0.178833	0.0611922	0.0471776	0.00113625	0.00058661	5	5	5	
0.179	-0.068136	-0.0262197	0.00116394	0.000663835	5	5	5	
0.179167	0.0630455	0.00492791	0.00122514	0.000616743	5	5	5	
0.179333	-0.0591652	0.00927385	0.00126877	0.00044907	5	5	5	
0.1795	0.0587795	-0.0336476	0.00124675	0.000435331	5	5	5	
0.179667	-0.0503033	0.0285158	0.00117028	0.000465741	5	5	5	
0.179833	0.0387642	0.0244988	0.00104784	0.000975744	5	5	5	
0.18	-0.0303251	-0.0663387	0.000915818	0.00169308	5	5	5	
0.180167	0.0447932	0.0636482	0.000811546	0.00203149	5	5	5	
0.180333	-0.0608442	-0.0314227	0.000854781	0.00169566	5	5	5	
0.1805	0.0553597	0.0376029	0.000951563	0.00100601	5	5	5	
0.180667	-0.0399612	-0.0366975	0.0010116	0.000722837	5	5	5	
0.180833	0.0536896	-0.00985884	0.000963489	0.000580628	5	5	5	
0.181	-0.0765651	0.05869	0.00102457	0.000545267	5	5	5	
0.181167	0.0740245	-0.0445587	0.00125012	0.000829911	5	5	5	
0.181333	-0.0455694	-0.00290485	0.00146458	0.00106551	5	5	5	
0.1815	0.0349597	0.0202578	0.00141863	0.00111739	5	5	5	
0.181667	-0.0453067	-0.00135602	0.00118227	0.000695562	5	5	5	
0.181833	0.0538624	-0.00260978	0.00100054	0.000438202	5	5	5	
0.182	-0.0489074	0.0147916	0.000993006	0.000412957	5	5	5	
0.182167	0.0508084	0.0120634	0.0010307	0.00084585	5	5	5	
0.182333	-0.0755948	-0.0092741	0.00110331	0.00099963	5	5	5	
0.1825	0.0663652	-0.0102452	0.00120806	0.000870482	5	5	5	
0.182667	-0.0497573	-0.0453557	0.0012554	0.000807639	5	5	5	
0.182833	0.0550434	0.0947909	0.00119305	0.00128837	5	5	5	
0.183	-0.0709694	-0.0846084	0.00112206	0.00177044	5	5	5	
0.183167	0.0643192	0.0267319	0.00117367	0.00174033	5	5	5	
0.183333	-0.0540746	0.0102183	0.00125722	0.00140857	5	5	5	
0.1835	0.0403971	-0.0213294	0.00119138	0.00104043	5	5	5	
0.183667	-0.0449414	0.0131726	0.00102891	0.000719654	5	5	5	
0.183833	0.0448599	-0.00177758	0.00091538	0.000428991	5	5	5	
0.184	-0.0499125	-0.0234472	0.000896438	0.000488536	5	5	5	
0.184167	0.0602797	0.0568442	0.000990864	0.000743248	5	5	5	
0.184333	-0.0580214	-0.0724393	0.00108408	0.00110344	5	5	5	
0.1845	0.0454901	0.0438081	0.00117076	0.00117971	5	5	5	
0.184667	-0.043752	-0.0181998	0.00112815	0.0010419	5	5	5	
0.184833	0.059192	-0.00385723	0.00107632	0.000712133	5	5	5	
0.185	-0.075416	0.00462316	0.00109308	0.000402503	5	5	5	
0.185167	0.0811289	0.0156819	0.00130614	0.000440488	5	5	5	
0.185333	-0.0652358	-0.0361656	0.00147828	0.000591292	5	5	5	
0.1855	0.0557973	0.0218073	0.00152821	0.000797602	5	5	5	
0.185667	-0.0524984	-0.0203646	0.0013739	0.000705307	5	5	5	
0.185833	0.0594143	0.0306673	0.0012375	0.000581389	5	5	5	
0.186	-0.0593559	-0.0500167	0.00115293	0.000559149	5	5	5	
0.186167	0.0715312	0.0463875	0.00118326	0.000753058	5	5	5	
0.186333	-0.0757985	-0.0272428	0.00126403	0.000871718	5	5	5	
0.1865	0.0694442	0.00719212	0.00133645	0.000893838	5	5	5	
0.186667	-0.0593837	0.000891521	0.00133729	0.000586022	5	5	5	
0.186833	0.0589301	0.0239067	0.00124794	0.000407336	5	5	5	
0.187	-0.0575038	-0.035001	0.00116849	0.000327594	5	5	5	
0.187167	0.0494393	0.0350381	0.00110457	0.000712967	5	5	5	
0.187333	-0.039462	-0.028952	0.00105802	0.000908848	5	5	5	
0.1875	0.0395914	0.0399043	0.000959472	0.00104781	5	5	5	
0.187667	-0.053717	-0.0400505	0.000906415	0.000922962	5	5	5	
0.187833	0.0596547	0.0703608	0.000938175	0.000943837	5	5	5	
0.188	-0.063504	-0.0743845	0.00106997	0.00111997	5	5	5	
0.188167	0.0685343	0.0935375	0.00121763	0.00226046	5	5	5	
0.188333	-0.0865561	-0.0252601	0.0013217	0.00312957	5	5	5	
0.1885	0.0856956	0.0687759	0.0014691	0.00294837	5	5	5	
0.188667	-0.0674802	-0.160663	0.00155949	0.00231058	5	5	5	
0.188833	0.0797309	0.0480007	0.00158582	0.00171656	5	5	5	
0.189	-0.107511	-0.0724142	0.00163917	0.00178011	5	5	5	
0.189167	0.0938234	0.305935	0.00175544	0.00199733	5	5	5	
0.189333	-0.0756659	-0.206363	0.00181757	0.00308096	5	5	5	
0.1895	0.0764363	0.0013604	0.001735	0.00381264	5	5	5	
0.189667	-0.0750716	-0.0233433	0.00157361	0.00307066	5	5	5	
0.189833	0.0598924	0.0602292	0.00146671	0.00250224	5	5	5	
0.19	-0.0690947	-0.0849347	0.00137269	0.0019512	5	5	5	
0.190167	0.0940296	0.0234441	0.00144865	0.00208029	5	5	5	
0.190333	-0.121009	0.0320715	0.00159694	0.00109782	5	5	5	
0.1905	0.206897	-0.0124841	0.00253965	0.00101989	5	5	5	
0.190667	-0.0562024	-0.0373253	0.00272175	0.00115537	5	5	5	
0.190833	0.0644631	0.0722915	0.0025044	0.00140674	5	5	5	
0.191	-0.0647332	-0.0450588	0.00154327	0.00129465	5	5	5	
0.191167	0.0617557	-0.0004165	0.00122365	0.00120746	5	5	5	
0.191333	-0.0500741	-0.0339603	0.00123919	0.00105303	5	5	5	
0.1915	0.0764434	0.0398206	0.00123042	0.0014149	5	5	5	
0.191667	-0.0928097	-0.133916	0.00133131	0.00195703	5	5	5	
0.191833	0.0883218	0.14436	0.00151438	0.00257598	5	5	5	
0.192	-0.0729897	-0.0856078	0.00164009	0.00259797	5	5	5	
0.192167	0.0585911	0.079925	0.00160029	0.00214389	5	5	5	
0.192333	-0.0495045	-0.100187	0.00140444	0.00185933	5	5	5	
0.1925	0.0521062	0.0612262	0.00120811	0.00188062	5	5	5	
0.192667	-0.0606382	0.0139151	0.00108492	0.00208729	5	5	5	
0.192833	0.0662407	-0.0268973	0.00111304	0.00178519	5	5	5	
0.193	-0.0726343	-0.0264846	0.0012123	0.00131506	5	5	5	
0.193167	0.0667137	0.0913358	0.00130249	0.00104217	5	5	5	
0.193333	-0.0522053	-0.109094	0.00130151	0.00136691	5	5	5	
0.1935	0.0439747	0.0795992	0.00122629	0.00170496	5	5	5	
0.193667	-0.0498934	-0.0506309	0.00110869	0.00172485	5	5	5	
0.193833	0.0488497	0.0527171	0.00103694	0.00150078	5	5	5	
0.194	-0.0497171	-0.0390993	0.000996609	0.00123219	5	5	5	
0.194167	0.056062	0.00266671	0.00100192	0.000924313	5	5	5	
0.194333	-0.0617885	-0.025325	0.00104688	0.000835851	5	5	5	
0.1945	0.055026	0.0965371	0.00112036	0.00108727	5	5	5	
0.194667	-0.0491717	-0.107128	0.00114302	0.00147767	5	5	5	
0.194833	0.0381104	0.0477082	0.00109302	0.00179937	5	5	5	
0.195	-0.0305243	-0.00997585	0.000983564	0.00154397	5	5	5	
0.195167	0.0384375	0.0383173	0.000853111	0.0011352	5	5	5	
0.195333	-0.0644001	-0.0705384	0.00084457	0.000833658	5	5	5	
0.1955	0.0715505	0.013856	0.000990396	0.00105318	5	5	5	
0.195667	-0.0530974	0.0765719	0.00121305	0.00155261	5	5	5	
0.195833	0.0308941	-0.0218571	0.00128847	0.00163787	5	5	5	
0.196	-0.035853	-0.108265	0.00115274	0.00212655	5	5	5	
0.196167	0.0588345	0.0822477	0.00102319	0.00202662	5	5	5	
0.196333	-0.0663572	0.000105334	0.00105348	0.00206021	5	5	5	
0.1965	0.0667537	0.0652357	0.00119554	0.00137903	5	5	5	
0.196667	-0.0781048	-0.136981	0.001316	0.0014509	5	5	5	
0.196833	0.0760771	0.0072393	0.00139974	0.00184477	5	5	5	
0.197	-0.0510501	0.0837465	0.00150251	0.00202502	5	5	5	
0.197167	0.0402342	0.0269281	0.00144053	0.00212838	5	5	5	
0.197333	-0.0583171	-0.113122	0.00126888	0.00176954	5	5	5	
0.1975	0.0674843	0.0191305	0.00111996	0.00188243	5	5	5	
0.197667	-0.0522712	0.0048768	0.00111261	0.00150554	5	5	5	
0.197833	0.0443772	0.0621701	0.00108976	0.00129203	5	5	5	
0.198	-0.0679108	-0.0517959	0.0010734	0.000980721	5	5	5	
0.198167	0.136462	-0.0617378	0.00130731	0.00118439	5	5	5	
0.198333	-0.125059	0.13747	0.00332262	0.00326547	5	5	5	
0.1985	0.0739508	0.0310901	0.00407562	0.004707	5	5	5	
0.198667	-0.0722929	-0.0190911	0.00389769	0.00472263	5	5	5	
0.198833	0.0383681	0.0788133	0.00201689	0.00277276	5	5	5	
0.199	-0.0453346	-0.0773864	0.00121114	0.00146955	5	5	5	
0.199167	0.0934107	0.0279471	0.0012864	0.00128421	5	5	5	
0.199333	-0.190386	0.0739382	0.00194792	0.00171543	5	5	5	
0.1995	-0.0259199	0.313497	0.00311387	0.0041365	5	5	5	
0.199667	-0.045923	-0.169942	0.00296914	0.00508124	5	5	5	
0.199833	0.070062	0.0478377	0.00230043	0.00502407	5	5	5	
0.2	-0.0511139	-0.0622897	0.00135173	0.00257229	5	5	5	
0.200167	0.0493785	0.0510012	0.00144701	0.00158877	5	5	5	
0.200333	-0.0730105	0.0306801	0.00148226	0.00184647	5	5	5	
0.2005	0.0959794	-0.122262	0.00173198	0.00232976	5	5	5	
0.200667	-0.108891	0.0395149	0.00192912	0.00237423	5	5	5	
0.200833	0.105001	0.0351638	0.00211812	0.00199104	5	5	5	
0.201	-0.050558	-0.112741	0.00199138	0.00145929	5	5	5	
0.201167	0.0404842	0.0677429	0.00163816	0.00158387	5	5	5	
0.201333	-0.102276	-0.0447578	0.00152574	0.00169492	5	5	5	
0.2015	0.100325	0.0165077	0.00147266	0.00176253	5	5	5	
0.201667	-0.0619027	-0.0455303	0.00179137	0.001516	5	5	5	
0.201833	0.0571167	0.0485991	0.00171906	0.00117567	5	5	5	
0.202	-0.0631846	-0.0786411	0.00150211	0.00124954	5	5	5	
0.202167	0.0327433	0.109045	0.00126367	0.00157591	5	5	5	
0.202333	-0.0292475	-0.105608	0.00117936	0.00185789	5	5	5	
0.2025	0.0412884	0.0441126	0.00102826	0.00201834	5	5	5	
0.202667	-0.0677245	-0.0369665	0.000978945	0.00184411	5	5	5	
0.202833	0.0712683	0.0923567	0.00101761	0.00158512	5	5	5	
0.203	-0.0491037	-0.113444	0.0012815	0.00152985	5	5	5	
0.203167	0.0348052	0.0479228	0.00136175	0.00171888	5	5	5	
0.203333	-0.0391807	-0.00480752	0.00118042	0.00167151	5	5	5	
0.2035	0.0676862	0.0488391	0.00100727	0.00127259	5	5	5	
0.203667	-0.081577	-0.0413115	0.00107551	0.000988018	5	5	5	
0.203833	0.0818612	0.0351789	0.00136499	0.000878723	5	5	5	
0.204	-0.0912828	-0.0629877	0.00163433	0.000964262	5	5	5	
0.204167	0.0820057	0.0784649	0.00173055	0.00103587	5	5	5	
0.204333	-0.0416398	-0.0544122	0.00174941	0.00136957	5	5	5	
0.2045	0.0266878	0.0151488	0.00158412	0.0015043	5	5	5	
0.204667	-0.0520678	-0.00898239	0.00130752	0.00123829	5	5	5	
0.204833	0.0781391	0.0589587	0.00115759	0.000897212	5	5	5	
0.205	-0.0766457	-0.084917	0.00121759	0.00085529	5	5	5	
0.205167	0.0741696	0.0913819	0.00139153	0.00124881	5	5	5	
0.205333	-0.0898669	-0.076749	0.00148418	0.00167465	5	5	5	
0.2055	0.0888944	0.0258395	0.00160933	0.00187559	5	5	5	
0.205667	-0.0506803	-0.000131722	0.00174871	0.00191782	5	5	5	
0.205833	0.0318816	0.00680941	0.00166609	0.00150709	5	5	5	
0.206	-0.0503126	-0.0407012	0.00134143	0.00108985	5	5	5	
0.206167	0.0665526	0.0302623	0.00110009	0.000839582	5	5	5	
0.206333	-0.0454582	-0.01475	0.00107985	0.000734006	5	5	5	
0.2065	0.0532215	0.0691755	0.00128489	0.000907821	5	5	5	
0.206667	-0.0655068	-0.101435	0.00148874	0.0011046	5	5	5	
0.206833	0.0667572	0.0755686	0.00162051	0.00148984	5	5	5	
0.207	-0.0618578	-0.050606	0.00160197	0.00158331	5	5	5	
0.207167	0.0581201	0.0458217	0.00145264	0.00140697	5	5	5	
0.207333	-0.0577978	-0.0299953	0.00135437	0.00109588	5	5	5	
0.2075	0.091049	0.0309554	0.00144015	0.000853559	5	5	5	
0.207667	-0.102148	-0.0206242	0.00173787	0.000735173	5	5	5	
0.207833	0.0877395	0.013005	0.00192456	0.000747317	5	5	5	
0.208	-0.0731767	-0.0154522	0.00190503	0.000640281	5	5	5	
0.208167	0.0590528	0.0448576	0.00165154	0.000590247	5	5	5	
0.208333	-0.0574609	-0.0464298	0.00145006	0.000621881	5	5	5	
0.2085	0.0577562	0.0522851	0.00132797	0.00082491	5	5	5	
0.208667	-0.055351	-0.0591625	0.00124618	0.00100617	5	5	5	
0.208833	0.0535718	0.0478979	0.00120724	0.00112808	5	5	5	
0.209	-0.0489187	-0.014693	0.00115518	0.00120361	5	5	5	
0.209167	0.0404387	0.0142436	0.00110065	0.00105218	5	5	5	
0.209333	-0.0465931	-0.0320183	0.00103697	0.000795155	5	5	5	
0.2095	0.0641429	0.0369021	0.00103697	0.000646733	5	5	5	
0.209667	-0.0697957	0.000607808	0.00115979	0.000851004	5	5	5	
0.209833	0.0436337	-0.0237422	0.00141226	0.000993107	5	5	5	
0.21	-0.0172977	-0.00774236	0.00151844	0.000793411	5	5	5	
0.210167	0.020492	0.0516568	0.00131618	0.00063418	5	5	5	
0.210333	-0.0326298	-0.0715911	0.00096221	0.000700464	5	5	5	
0.2105	0.040273	0.0785992	0.00074332	0.00111871	5	5	5	
0.210667	-0.0646259	-0.0773712	0.000813496	0.00142552	5	5	5	
0.210833	0.0909828	0.0435336	0.00108072	0.0017464	5	5	5	
0.211	-0.0764185	0.0233922	0.00139914	0.00210507	5	5	5	
0.211167	0.0470071	-0.0425189	0.00163682	0.00192998	5	5	5	
0.211333	-0.0390822	-0.0304728	0.00159994	0.0016053	5	5	5	
0.2115	0.0447903	0.0864576	0.00139505	0.00113802	5	5	5	
0.211667	-0.0500577	-0.0392115	0.00119778	0.00125735	5	5	5	
0.211833	0.0474605	-0.0102768	0.00109909	0.00140997	5	5	5	
0.212	-0.0419132	-0.0191394	0.00108543	0.00114896	5	5	5	
0.212167	0.035466	0.0476961	0.00107393	0.000863347	5	5	5	
0.212333	-0.0346313	-0.0266192	0.00100647	0.00060241	5	5	5	
0.2125	0.0454413	0.0286171	0.000904977	0.00067822	5	5	5	
0.212667	-0.0626597	-0.0665442	0.000885356	0.000753786	5	5	5	
0.212833	0.0625718	0.0710938	0.00100082	0.000916617	5	5	5	
0.213	-0.0576307	-0.0299165	0.00117474	0.0012351	5	5	5	
0.213167	0.0498612	0.00470592	0.00128144	0.00128627	5	5	5	
0.213333	-0.0396506	-0.0226598	0.0012829	0.000991493	5	5	5	
0.2135	0.038867	0.0464321	0.00118636	0.000694709	5	5	5	
0.213667	-0.0484443	-0.0355306	0.00106354	0.000659144	5	5	5	
0.213833	0.0539653	0.0170779	0.00101249	0.000839723	5	5	5	
0.214	-0.0571871	-0.0222847	0.00105894	0.000804868	5	5	5	
0.214167	0.0608703	0.0426555	0.00114732	0.000683453	5	5	5	
0.214333	-0.0596738	-0.0457854	0.00123103	0.000675196	5	5	5	
0.2145	0.051412	0.0291515	0.00127124	0.000802305	5	5	5	
0.214667	-0.0449196	-0.0257898	0.00124209	0.000838698	5	5	5	
0.214833	0.0447431	0.0475423	0.00114247	0.000785378	5	5	5	
0.215	-0.0533219	-0.052874	0.00106732	0.000807533	5	5	5	
0.215167	0.0568926	0.0319081	0.00106091	0.000887266	5	5	5	
0.215333	-0.0546197	-0.0412942	0.00111039	0.000891694	5	5	5	
0.2155	0.0552293	0.0597835	0.00117707	0.000881433	5	5	5	
0.215667	-0.0579861	-0.0319139	0.00124954	0.000926741	5	5	5	
0.215833	0.0555264	0.0077318	0.00131082	0.000908175	5	5	5	
0.216	-0.0553329	-0.045297	0.00134522	0.000792459	5	5	5	
0.216167	0.0496206	0.0625784	0.00133738	0.000762572	5	5	5	
0.216333	-0.0436949	-0.0210302	0.00126365	0.000878799	5	5	5	
0.2165	0.0539394	0.0158704	0.00117778	0.000836783	5	5	5	
0.216667	-0.0665576	-0.0552896	0.00115456	0.000749079	5	5	5	
0.216833	0.0669289	0.0471612	0.0012376	0.000738922	5	5	5	
0.217	-0.0634632	-0.00246492	0.00133901	0.000934557	5	5	5	
0.217167	0.0668117	0.0160462	0.00139681	0.000776732	5	5	5	
0.217333	-0.0613702	-0.0627252	0.00139372	0.000739497	5	5	5	
0.2175	0.0555274	0.0567462	0.00137015	0.00076315	5	5	5	
0.217667	-0.0522256	-0.0220707	0.0013174	0.00107724	5	5	5	
0.217833	0.0513642	0.029034	0.00126112	0.00100599	5	5	5	
0.218	-0.0505836	-0.0601271	0.00119429	0.000907458	5	5	5	
0.218167	0.0577008	0.0521344	0.00115184	0.000901178	5	5	5	
0.218333	-0.0587499	0.000299134	0.001174	0.00120715	5	5	5	
0.2185	0.0975966	-0.0402919	0.00134618	0.00134226	5	5	5	
0.218667	-0.0571323	0.127641	0.0020225	0.00131039	5	5	5	
0.218833	0.0198711	-0.0284116	0.00178609	0.00132005	5	5	5	
0.219	-0.039476	-0.00814457	0.00148362	0.00111882	5	5	5	
0.219167	0.0483055	0.0267664	0.000742258	0.001085	5	5	5	
0.219333	-0.0604456	-0.0545665	0.000947816	0.00084326	5	5	5	
0.2195	0.0427846	0.0729054	0.00104137	0.00110127	5	5	5	
0.219667	-0.0516757	-0.031288	0.00118417	0.00100584	5	5	5	
0.219833	0.0481791	0.041121	0.00124587	0.000959556	5	5	5	
0.22	-0.0489103	-0.0602183	0.0013345	0.00081442	5	5	5	
0.220167	0.0550819	0.044513	0.00127701	0.00089465	5	5	5	
0.220333	-0.0624807	-0.0128014	0.00126099	0.000900472	5	5	5	
0.2205	0.0533487	0.00473549	0.00125312	0.000720806	5	5	5	
0.220667	-0.0617184	-0.0430469	0.00129226	0.000566462	5	5	5	
0.220833	0.0666461	0.0611015	0.00132269	0.000638392	5	5	5	
0.221	-0.070965	-0.0241089	0.00141713	0.000930206	5	5	5	
0.221167	0.0632303	-0.0273911	0.00146327	0.00129898	5	5	5	
0.221333	-0.0576574	0.027984	0.00146928	0.00118939	5	5	5	
0.2215	0.0454918	-0.00497558	0.00144936	0.000877552	5	5	5	
0.221667	-0.00735097	0.00661533	0.00149428	0.000424087	5	5	5	
0.221833	-0.00978121	-0.0260205	0.00154261	0.000532023	5	5	5	
0.222	0.00722575	0.0416472	0.00126315	0.000691214	5	5	5	
0.222167	0.0313907	-0.0111825	0.000838159	0.000764555	5	5	5	
0.222333	-0.0603775	-0.00725213	0.000590387	0.000729439	5	5	5	
0.2225	0.0747832	0.0161028	0.000830717	0.00056794	5	5	5	
0.222667	-0.0723417	-0.0310526	0.00125645	0.000559808	5	5	5	
0.222833	0.0765676	0.0512708	0.00169506	0.000510418	5	5	5	
0.223	-0.0453582	-0.0586764	0.00193213	0.000819117	5	5	5	
0.223167	0.0332195	0.0339306	0.00195907	0.00116401	5	5	5	
0.223333	-0.0412652	-0.0197737	0.00164448	0.00122206	5	5	5	
0.2235	0.0558772	0.00143712	0.00138981	0.00086759	5	5	5	
0.223667	-0.0478985	-0.00562919	0.00133771	0.000437464	5	5	5	
0.223833	0.0344812	0.0530801	0.0014189	0.000391146	5	5	5	
0.224	-0.035189	-0.0736036	0.00133894	0.000721362	5	5	5	
0.224167	0.0504445	0.0274028	0.00116456	0.00104736	5	5	5	
0.224333	-0.0578064	0.0114421	0.0010543	0.00107165	5	5	5	
0.2245	0.0547967	-0.0261051	0.00116598	0.000797504	5	5	5	
0.224667	-0.0414723	-0.00658295	0.00132287	0.000667084	5	5	5	
0.224833	0.0390948	0.0290738	0.00133123	0.000565394	5	5	5	
0.225	-0.0505963	-0.0146477	0.00118616	0.000549095	5	5	5	
0.225167	0.0580166	0.0185904	0.00107071	0.000442324	5	5	5	
0.225333	-0.0561924	-0.0586831	0.00112814	0.000578241	5	5	5	
0.2255	0.0555712	0.0971818	0.00131121	0.00101084	5	5	5	
0.225667	-0.048523	-0.0467948	0.0014565	0.00125935	5	5	5	
0.225833	0.0368014	0.0120538	0.00148099	0.00119209	5	5	5	
0.226	-0.0305382	-0.0481649	0.00133298	0.000815812	5	5	5	
0.226167	0.0397564	0.0741593	0.00114142	0.000808925	5	5	5	
0.226333	-0.0539645	-0.0394354	0.00102131	0.0010641	5	5	5	
0.2265	0.0692595	-0.00584731	0.00109656	0.00129481	5	5	5	
0.226667	-0.0660125	0.00912556	0.0012834	0.000967961	5	5	5	
0.226833	0.0461067	0.01765	0.00147558	0.000585785	5	5	5	
0.227	-0.0399657	-0.0186947	0.00146117	0.000293084	5	5	5	
0.227167	0.0523731	0.0206232	0.00133515	0.00045282	5	5	5	
0.227333	-0.0525426	-0.0378552	0.00120962	0.000573481	5	5	5	
0.2275	0.0478815	0.0517681	0.00117684	0.000697822	5	5	5	
0.227667	-0.0285072	-0.0472856	0.00108885	0.000859496	5	5	5	
0.227833	0.0263171	0.0172337	0.00103331	0.000886467	5	5	5	
0.228	-0.0234362	-0.00180137	0.00108265	0.000782173	5	5	5	
0.228167	0.0298058	-0.0113533	0.00121383	0.000457959	5	5	5	
0.228333	-0.0336237	-0.00428944	0.00128249	0.000295549	5	5	5	
0.2285	0.036683	-0.00844772	0.00124446	0.000239067	5	5	5	
0.228667	-0.0409188	0.0169903	0.00117157	0.000469871	5	5	5	
0.228833	0.0659919	0.000398907	0.00122024	0.000941564	5	5	5	
0.229	-0.0709383	-0.0405702	0.0014404	0.00126755	5	5	5	
0.229167	0.0674437	0.0127435	0.00171054	0.00114738	5	5	5	
0.229333	-0.0629235	-0.00250201	0.00180031	0.0009134	5	5	5	
0.2295	0.0603008	0.00452954	0.00171094	0.000704671	5	5	5	
0.229667	-0.0505479	0.0284916	0.00158386	0.000943149	5	5	5	
0.229833	0.0437647	-0.0895949	0.00146807	0.00128295	5	5	5	
0.23	-0.0432105	0.0574152	0.00133192	0.00159485	5	5	5	
0.230167	0.0484021	-0.0124545	0.00118857	0.00137534	5	5	5	
0.230333	-0.0561665	0.0332659	0.00113461	0.000817875	5	5	5	
0.2305	0.0596875	-0.0328118	0.00118531	0.000676716	5	5	5	
0.230667	-0.0524511	-0.00551696	0.00128787	0.000596828	5	5	5	
0.230833	0.0547012	0.0491601	0.00134643	0.000690197	5	5	5	
0.231	-0.0528744	-0.0442822	0.0013413	0.000632976	5	5	5	
0.231167	0.0410895	0.0282109	0.00128876	0.000764623	5	5	5	
0.231333	-0.0518886	-0.0122158	0.0012502	0.000775355	5	5	5	
0.2315	0.0348886	0.0121157	0.00121623	0.000933585	5	5	5	
0.231667	-0.0361131	0.000354406	0.00105624	0.00115305	5	5	5	
0.231833	0.0355587	0.00606048	0.000876184	0.0010993	5	5	5	
0.232	-0.0452571	-0.0216606	0.000713734	0.00076829	5	5	5	
0.232167	0.0473132	0.0166147	0.000758485	0.000427336	5	5	5	
0.232333	-0.0474866	-0.0195203	0.000881162	0.000379226	5	5	5	
0.2325	0.0181757	0.0164061	0.000975384	0.000437007	5	5	5	
0.232667	-0.00771515	-0.0117392	0.000925258	0.00062339	5	5	5	
0.232833	0.00248554	0.0135908	0.000889185	0.000771559	5	5	5	
0.233	-0.0116814	-0.0366217	0.000841269	0.000888164	5	5	5	
0.233167	0.0263228	0.0230104	0.000855782	0.000880949	5	5	5	
0.233333	-0.041645	-0.00780573	0.000866995	0.000802746	5	5	5	
0.2335	0.0444136	0.0142043	0.000989943	0.000583377	5	5	5	
0.233667	-0.0329039	-0.0297854	0.00112585	0.000428853	5	5	5	
0.233833	0.0261299	0.0443218	0.00116244	0.000520648	5	5	5	
0.234	-0.0276387	-0.0499057	0.00107811	0.000782996	5	5	5	
0.234167	0.03145	0.0539297	0.000981219	0.00101905	5	5	5	
0.234333	-0.0409824	-0.0249634	0.000945698	0.00102463	5	5	5	
0.2345	0.045468	0.020027	0.000992464	0.000832403	5	5	5	
0.234667	-0.0437253	-0.033782	0.00106082	0.000623155	5	5	5	
0.234833	0.0546185	0.0460785	0.0011197	0.000679929	5	5	5	
0.235	-0.0588547	-0.0235053	0.00119325	0.000870791	5	5	5	
0.235167	0.0501074	0.0231255	0.00130744	0.000954286	5	5	5	
0.235333	-0.041207	-0.0168226	0.00140255	0.000765165	5	5	5	
0.2355	0.0418838	0.00425946	0.00136256	0.000509811	5	5	5	
0.235667	-0.0475598	-0.00537202	0.00124138	0.000308022	5	5	5	
0.235833	0.0560731	0.0325225	0.00114905	0.000323625	5	5	5	
0.236	-0.0525824	-0.0528253	0.00114852	0.000491509	5	5	5	
0.236167	0.0510517	0.0524336	0.00120383	0.000781973	5	5	5	
0.236333	-0.0495121	-0.0299538	0.00125299	0.00100769	5	5	5	
0.2365	0.0452568	0.00173437	0.00130322	0.00100146	5	5	5	
0.236667	-0.0399697	-0.00108562	0.00132597	0.000733309	5	5	5	
0.236833	0.0449849	0.0172682	0.00128566	0.000408342	5	5	5	
0.237	-0.0544705	-0.0398503	0.00121892	0.000300896	5	5	5	
0.237167	0.0598155	0.0612636	0.00121663	0.000541968	5	5	5	
0.237333	-0.0451274	-0.0545343	0.00125577	0.000833145	5	5	5	
0.2375	0.0370058	0.0398882	0.00125024	0.00105026	5	5	5	
0.237667	-0.0537841	-0.0215959	0.00119161	0.000915113	5	5	5	
0.237833	0.0621631	0.00242046	0.00118497	0.00071658	5	5	5	
0.238	-0.0601571	0.00861229	0.001273	0.000475775	5	5	5	
0.238167	0.0527157	0.0223034	0.00136229	0.000370364	5	5	5	
0.238333	-0.0535369	-0.0377069	0.00137904	0.000400838	5	5	5	
0.2385	0.049274	0.0344779	0.00141184	0.000566019	5	5	5	
0.238667	-0.0355683	-0.00171199	0.00150807	0.000741031	5	5	5	
0.238833	0.0220373	0.0206032	0.00149227	0.000619955	5	5	5	
0.239	-0.0504182	-0.0692928	0.00130053	0.000557478	5	5	5	
0.239167	0.0821076	0.0780159	0.00119576	0.00101716	5	5	5	
0.239333	-0.072327	0.00131348	0.00134979	0.00187286	5	5	5	
0.2395	0.0448929	-0.0455215	0.00161954	0.0021512	5	5	5	
0.239667	-0.0324379	0.00978104	0.00161176	0.00162562	5	5	5	
0.239833	0.0413383	0.0197785	0.00142273	0.000929888	5	5	5	
0.24	-0.0483054	-0.0194671	0.00129325	0.00054384	5	5	5	
0.240167	0.0483126	0.0597616	0.00128918	0.000658228	5	5	5	
0.240333	-0.0502006	-0.11853	0.00123584	0.00100654	5	5	5	
0.2405	0.0699173	0.0804984	0.00118404	0.00148804	5	5	5	
0.240667	-0.0599996	-0.0285038	0.00127742	0.00209824	5	5	5	
0.240833	0.0406192	-0.0177579	0.00152645	0.00221091	5	5	5	
0.241	-0.0395402	0.0131165	0.00160676	0.0017829	5	5	5	
0.241167	0.0542427	-0.0131826	0.00148902	0.000952798	5	5	5	
0.241333	-0.045646	0.041567	0.00131345	0.000477603	5	5	5	
0.2415	0.0441739	-0.0142824	0.0013347	0.000463681	5	5	5	
0.241667	-0.0351057	-0.043206	0.00134036	0.000647844	5	5	5	
0.241833	0.0395804	0.0598888	0.00128316	0.00084369	5	5	5	
0.242	-0.0436176	-0.0456618	0.00113904	0.00096355	5	5	5	
0.242167	0.0551948	-0.0127999	0.00112129	0.00116926	5	5	5	
0.242333	-0.0485783	0.106819	0.00119288	0.00153873	5	5	5	
0.2425	0.045982	-0.0463834	0.00124621	0.00199781	5	5	5	
0.242667	-0.0509539	0.0548895	0.00121461	0.00172819	5	5	5	
0.242833	0.050056	-0.0376766	0.00120101	0.0012202	5	5	5	
0.243	-0.0304525	0.0263844	0.00123123	0.00070282	5	5	5	
0.243167	0.0360944	0.0558268	0.00121455	0.00091623	5	5	5	
0.243333	-0.0425821	-0.120894	0.00110031	0.00108104	5	5	5	
0.2435	0.0299904	0.144026	0.000951696	0.00231524	5	5	5	
0.243667	-0.0300829	0.0154124	0.000805229	0.0031816	5	5	5	
0.243833	0.0770175	0.000871682	0.000865354	0.00315808	5	5	5	
0.244	-0.110404	-0.0476125	0.00112806	0.00193795	5	5	5	
0.244167	0.0767936	0.0250592	0.00163253	0.000898924	5	5	5	
0.244333	-0.0211232	-0.0219561	0.00192484	0.000638598	5	5	5	
0.2445	0.0134162	0.119634	0.00174567	0.000895028	5	5	5	
0.244667	-0.0143691	-0.100092	0.00130018	0.00121856	5	5	5	
0.244833	-0.00840482	0.0761685	0.000886614	0.00173406	5	5	5	
0.245	-0.00127277	-0.0307309	0.000568632	0.00172797	5	5	5	
0.245167	0.0582429	0.0193738	0.000587919	0.0014055	5	5	5	
0.245333	-0.0756711	-0.0195716	0.00074517	0.000848832	5	5	5	
0.2455	0.0475569	0.0548754	0.00116152	0.000589249	5	5	5	
0.245667	-0.0228786	-0.102753	0.0012727	0.00102519	5	5	5	
0.245833	0.025424	0.0382269	0.00109415	0.00163264	5	5	5	
0.246	-0.0426437	0.00828863	0.000890133	0.00168736	5	5	5	
0.246167	0.0474654	0.017086	0.00092767	0.00133183	5	5	5	
0.246333	-0.0273951	-0.049152	0.00119176	0.000948558	5	5	5	
0.2465	0.0186115	0.0323505	0.0013401	0.000927451	5	5	5	
0.246667	-0.0301051	0.034316	0.00128817	0.00106955	5	5	5	
0.246833	0.0325802	-0.0369806	0.00112662	0.00103222	5	5	5	
0.247	-0.04454	-0.0156624	0.00107043	0.000947496	5	5	5	
0.247167	0.0439643	0.0571034	0.00107723	0.000713401	5	5	5	
0.247333	-0.0412431	-0.0357214	0.00107878	0.000788541	5	5	5	
0.2475	0.0494711	0.0101546	0.00106939	0.000882643	5	5	5	
0.247667	-0.0385161	0.00335726	0.00113151	0.000906408	5	5	5	
0.247833	0.0241261	0.008152	0.00118654	0.000929981	5	5	5	
0.248	-0.0473669	0.0177811	0.00112473	0.0010336	5	5	5	
0.248167	0.0676431	-0.0286655	0.00108751	0.00131086	5	5	5	
0.248333	-0.0607597	0.0865058	0.00117897	0.00158884	5	5	5	
0.2485	0.0580355	-0.0619701	0.0014098	0.00171757	5	5	5	
0.248667	-0.0507338	0.0192763	0.00147458	0.00142817	5	5	5	
0.248833	0.0415369	-0.0113805	0.00156662	0.000850171	5	5	5	
0.249	-0.0234114	-0.0203781	0.00148765	0.000539818	5	5	5	
0.249167	0.0569752	0.0399702	0.00133023	0.000716185	5	5	5	
0.249333	-0.0882036	0.0114433	0.0012389	0.00140049	5	5	5	
0.2495	0.0845242	-0.0192984	0.00140119	0.00205467	5	5	5	
0.249667	-0.0587013	0.0278515	0.00177554	0.00195214	5	5	5	
0.249833	0.0656832	0.00528463	0.00187199	0.00125504	5	5	5	
0.25	-0.0681497	-0.0673548	0.00178149	0.000605093	5	5	5	
0.250167	0.0574156	0.0639265	0.00159454	0.000745527	5	5	5	
0.250333	-0.0422405	-0.096974	0.00148906	0.00111415	5	5	5	
0.2505	0.101865	0.111139	0.00148289	0.00173587	5	5	5	
0.250667	-0.12904	-0.0205362	0.00180338	0.00187997	5	5	5	
0.250833	0.109571	-0.0373959	0.00209157	0.00181904	5	5	5	
0.251	-0.0747326	-0.0122049	0.00226666	0.00126952	5	5	5	
0.251167	0.048517	0.0395666	0.00188131	0.00116245	5	5	5	
0.251333	-0.042614	0.0320581	0.00150795	0.000980632	5	5	5	
0.2515	0.0538712	-0.124009	0.0012929	0.0012776	5	5	5	
0.251667	-0.0268864	0.0756449	0.00121633	0.00211834	5	5	5	
0.251833	0.0358592	0.121841	0.000994279	0.00332681	5	5	5	
0.252	-0.0544985	-0.0995707	0.000860068	0.0033953	5	5	5	
0.252167	0.0143063	0.0275091	0.000755668	0.00414733	5	5	5	
0.252333	0.00525444	0.0703181	0.00108723	0.0045186	5	5	5	
0.2525	0.0263629	-0.122099	0.00140351	0.00541983	5	5	5	
0.252667	-0.0273918	0.187444	0.00177735	0.00530902	5	5	5	
0.252833	0.0375943	-0.189427	0.00191007	0.00494643	5	5	5	
0.253	-0.0379702	-0.0104231	0.00192154	0.00447988	5	5	5	
0.253167	0.00517404	0.501936	0.00196814	0.00460631	5	5	5	
0.253333	-0.00689331	-0.462533	0.00207431	0.00659682	5	5	5	
0.2535	0.0350311	0.163779	0.0021157	0.00759107	5	5	5	
0.253667	-0.0229412	0.0494665	0.00199357	0.00709272	5	5	5	
0.253833	0.0296391	-0.0614329	0.0016379	0.00411244	5	5	5	
0.254	-0.0577565	-0.0561595	0.00124448	0.0028873	5	5	5	
0.254167	0.0986445	0.0388884	0.00119894	0.00154994	5	5	5	
0.254333	-0.0665087	0.000312393	0.00159699	0.00165967	5	5	5	
0.2545	0.0139566	0.0428808	0.00212795	0.00103002	5	5	5	
0.254667	-0.0153771	-0.0813343	0.00211621	0.00104232	5	5	5	
0.254833	0.0435804	0.143109	0.00164703	0.00185777	5	5	5	
0.255	-0.0136191	-0.0197907	0.00129797	0.00296066	5	5	5	
0.255167	-0.0286086	-0.0423507	0.00158875	0.00334495	5	5	5	
0.255333	0.0595823	0.0290188	0.00181788	0.00215022	5	5	5	
0.2555	-0.023964	-0.0121249	0.00162337	0.00138357	5	5	5	
0.255667	0.00241176	-0.057689	0.00101716	0.00151797	5	5	5	
0.255833	-0.00412443	0.123945	0.0007288	0.00200094	5	5	5	
0.256	-0.0101002	-0.0620467	0.000630987	0.00214163	5	5	5	
0.256167	0.0536344	0.0727881	0.000865866	0.0017362	5	5	5	
0.256333	-0.0449907	-0.0235888	0.00128081	0.00159414	5	5	5	
0.2565	0.0246544	-0.0523727	0.00190069	0.00237662	5	5	5	
0.256667	-0.00889134	0.106654	0.00224426	0.00314884	5	5	5	
0.256833	0.0181388	-0.0130063	0.00215393	0.0029571	5	5	5	
0.257	-0.0292802	-0.158016	0.00173581	0.00208319	5	5	5	
0.257167	0.0383774	0.110808	0.00141772	0.0017214	5	5	5	
0.257333	-0.0301575	0.0133469	0.00134393	0.00222439	5	5	5	
0.2575	0.0280752	-0.131792	0.00137087	0.00227112	5	5	5	
0.257667	-0.0304935	0.0948332	0.00131288	0.00229398	5	5	5	
0.257833	0.0310692	0.0294326	0.00122404	0.00202389	5	5	5	
0.258	-0.0365289	-0.0340452	0.0011828	0.00151689	5	5	5	
0.258167	0.0456422	-0.0236016	0.00120141	0.00127145	5	5	5	
0.258333	-0.0315809	0.0496219	0.00119901	0.00100568	5	5	5	
0.2585	0.0337594	-0.00213583	0.0012222	0.0012178	5	5	5	
0.258667	-0.0376066	-0.0690075	0.00121795	0.00127817	5	5	5	
0.258833	0.0383338	0.128297	0.00129431	0.00159609	5	5	5	
0.259	-0.0299563	-0.0703905	0.00141444	0.00191332	5	5	5	
0.259167	0.0262985	-0.0152703	0.00147291	0.00223162	5	5	5	
0.259333	-0.0264271	0.0480326	0.00134353	0.00212274	5	5	5	
0.2595	0.0447971	-0.024387	0.0011787	0.00165642	5	5	5	
0.259667	-0.050202	0.0263038	0.00115434	0.000847628	5	5	5	
0.259833	0.0484243	-0.0210501	0.00129636	0.000538385	5	5	5	
0.26	-0.0506444	-0.0183909	0.00140564	0.000584468	5	5	5	
0.260167	0.0554089	0.101866	0.00145592	0.000887293	5	5	5	
0.260333	-0.0483943	-0.0612131	0.00148524	0.00141826	5	5	5	
0.2605	0.0393757	-0.0102124	0.00151964	0.00172997	5	5	5	
0.260667	-0.0373407	-0.0125928	0.00146691	0.00133276	5	5	5	
0.260833	0.0384845	0.035963	0.00134149	0.000845655	5	5	5	
0.261	-0.040136	-0.0265585	0.00122052	0.000518883	5	5	5	
0.261167	0.0366407	0.0706979	0.00116275	0.000920826	5	5	5	
0.261333	-0.0366353	-0.105022	0.00112609	0.00123849	5	5	5	
0.2615	0.0389413	0.0814324	0.00110087	0.00162194	5	5	5	
0.261667	-0.0253897	-0.0517289	0.00105723	0.00156062	5	5	5	
0.261833	0.0154487	0.046507	0.00102339	0.00145486	5	5	5	
0.262	-0.00982587	-0.0355042	0.000938453	0.00144246	5	5	5	
0.262167	0.0235781	-0.0173492	0.000868533	0.00169127	5	5	5	
0.262333	-0.0326658	0.025295	0.000863957	0.00176642	5	5	5	
0.2625	0.0329967	-0.0156368	0.000973372	0.00151	5	5	5	
0.262667	-0.0217145	0.00565383	0.00115112	0.00101028	5	5	5	
0.262833	0.0170201	0.017321	0.00129847	0.000560707	5	5	5	
0.263	-0.021668	-0.0378177	0.00133946	0.000536845	5	5	5	
0.263167	0.0350906	0.0627457	0.00133623	0.000707113	5	5	5	
0.263333	-0.0302854	-0.0617049	0.00134701	0.00105128	5	5	5	
0.2635	0.0230695	0.0254091	0.00141201	0.00137342	5	5	5	
0.263667	-0.0172456	0.00997107	0.0014601	0.00153607	5	5	5	
0.263833	0.00906789	-0.00607413	0.0014341	0.00122637	5	5	5	
0.264	-0.0114492	-0.00184178	0.00129238	0.000604351	5	5	5	
0.264167	0.0225318	0.00817859	0.0010618	0.000160106	5	5	5	
0.264333	-0.0377339	-0.021943	0.000912618	0.000162805	5	5	5	
0.2645	0.0415741	0.028715	0.00095827	0.000331212	5	5	5	
0.264667	-0.0333273	-0.022281	0.00116968	0.000551648	5	5	5	
0.264833	0.0288395	-0.0039359	0.0013748	0.000698115	5	5	5	
0.265	-0.0266278	0.0148674	0.00146163	0.000642378	5	5	5	
0.265167	0.0190825	0.0220437	0.00140729	0.000553326	5	5	5	
0.265333	-0.0253002	-0.047886	0.00127067	0.000513877	5	5	5	
0.2655	0.0355492	-0.0363149	0.00115971	0.000789819	5	5	5	
0.265667	-0.0291328	0.0842104	0.00119837	0.00109784	5	5	5	
0.265833	0.0209921	-0.0495283	0.00135181	0.0013371	5	5	5	
0.266	-0.0237616	0.0120546	0.00138484	0.00112004	5	5	5	
0.266167	0.0330106	-0.0653334	0.00123553	0.00090976	5	5	5	
0.266333	-0.0319287	0.103716	0.00106183	0.0010768	5	5	5	
0.2665	0.0293709	0.0048474	0.00104333	0.00171315	5	5	5	
0.266667	-0.0309325	-0.110543	0.00109176	0.00190521	5	5	5	
0.266833	0.0365569	0.0725752	0.00114013	0.00195893	5	5	5	
0.267	-0.0277202	-0.0147994	0.00120325	0.00183389	5	5	5	
0.267167	0.0148528	-0.0182694	0.00126982	0.00189613	5	5	5	
0.267333	-0.015051	0.0991953	0.00120111	0.00195461	5	5	5	
0.2675	0.0310011	-0.0981442	0.00103737	0.00206968	5	5	5	
0.267667	-0.0417253	0.0189685	0.000975954	0.00190172	5	5	5	
0.267833	0.0339601	0.0638271	0.00109713	0.00163031	5	5	5	
0.268	-0.0318919	-0.0566106	0.00129323	0.00120137	5	5	5	
0.268167	0.0308973	0.0142051	0.00138264	0.00114994	5	5	5	
0.268333	-0.0197896	-0.0272292	0.00137699	0.000853646	5	5	5	
0.2685	-0.0483414	0.0947163	0.00127887	0.000917828	5	5	5	
0.268667	-0.00259339	-0.185099	0.00163631	0.00151738	5	5	5	
0.268833	0.0516899	0.0857643	0.0018173	0.00223896	5	5	5	
0.269	-0.0470654	-0.0383552	0.00183185	0.00222315	5	5	5	
0.269167	0.0383648	0.0467771	0.00149043	0.00168841	5	5	5	
0.269333	-0.028556	-0.0409915	0.00138419	0.0012343	5	5	5	
0.2695	0.0296152	0.017901	0.0015073	0.00129493	5	5	5	
0.269667	-0.00143972	-0.0502011	0.00154368	0.00156959	5	5	5	
0.269833	-0.0182803	0.0233233	0.00156424	0.00172434	5	5	5	
0.27	0.0132497	0.0244616	0.0014659	0.00183456	5	5	5	
0.270167	0.0230317	-0.0107746	0.00124949	0.00162486	5	5	5	
0.270333	-0.0345496	-0.0101351	0.00105227	0.00115865	5	5	5	
0.2705	0.0338664	0.001928	0.00108396	0.000618416	5	5	5	
0.270667	-0.0258024	0.00269769	0.00124842	0.000387217	5	5	5	
0.270833	0.0299348	0.0038084	0.00133858	0.000393625	5	5	5	
0.271	-0.0314176	-0.0300754	0.00132223	0.000423095	5	5	5	
0.271167	0.0348873	0.0660925	0.0013109	0.000551903	5	5	5	
0.271333	-0.0343169	-0.0561252	0.00127336	0.00082238	5	5	5	
0.2715	0.0419606	0.0165568	0.00125451	0.00127611	5	5	5	
0.271667	-0.0338648	-0.00830625	0.0012874	0.00145582	5	5	5	
0.271833	0.0146484	0.0238448	0.00136484	0.00135757	5	5	5	
0.272	-0.00615917	-0.0244259	0.00129814	0.00118684	5	5	5	
0.272167	0.0240556	-0.000586218	0.00111167	0.00105314	5	5	5	
0.272333	-0.0358442	-0.0206603	0.000998766	0.000870724	5	5	5	
0.2725	0.0460028	0.0400865	0.00108948	0.000748338	5	5	5	
0.272667	-0.0553511	0.00625885	0.00130873	0.000980281	5	5	5	
0.272833	0.0433943	-0.0241744	0.00150547	0.00135058	5	5	5	
0.273	-0.0158563	-0.0163775	0.00162584	0.00122406	5	5	5	
0.273167	-0.00371756	0.0118567	0.00162286	0.000830889	5	5	5	
0.273333	0.00694007	0.0167546	0.00145215	0.000714272	5	5	5	
0.2735	0.0071991	-9.15044E-05	0.00118557	0.000774956	5	5	5	
0.273667	-0.0165411	-0.0107132	0.000932143	0.000761274	5	5	5	
0.273833	0.0178568	0.00566063	0.000778191	0.000682167	5	5	5	
0.274	-0.0254807	-0.0315428	0.000776552	0.000660319	5	5	5	
0.274167	0.027008	0.0574294	0.000945289	0.000808603	5	5	5	
0.274333	-0.0224184	-0.0143971	0.0012605	0.0010724	5	5	5	
0.2745	0.0131068	-0.00299104	0.00157486	0.00141004	5	5	5	
0.274667	-0.00707411	-0.0153783	0.00171381	0.00136658	5	5	5	
0.274833	0.0119758	0.00518879	0.0016258	0.00126486	5	5	5	
0.275	-0.0274888	0.0190863	0.00147424	0.00121997	5	5	5	
0.275167	0.027444	0.00905306	0.00141781	0.00106901	5	5	5	
0.275333	-0.0222291	-0.0200742	0.00145226	0.000746478	5	5	5	
0.2755	0.0210818	0.00955985	0.00144167	0.000544392	5	5	5	
0.275667	-0.0232829	-0.0154051	0.00137015	0.000611624	5	5	5	
0.275833	0.0253177	0.0142717	0.00130336	0.00073814	5	5	5	
0.276	-0.0235646	0.0142628	0.00126484	0.000822112	5	5	5	
0.276167	0.022822	0.00326036	0.00125401	0.000705795	5	5	5	
0.276333	-0.015014	-0.04069	0.00124934	0.000573352	5	5	5	
0.2765	0.00912942	0.0370793	0.00124084	0.00054155	5	5	5	
0.276667	-0.0048153	-0.00191428	0.00119967	0.000909504	5	5	5	
0.276833	0.00709215	0.0122186	0.00113536	0.00103707	5	5	5	
0.277	-0.00887824	-0.0293568	0.00104165	0.000981165	5	5	5	
0.277167	0.0189154	-0.000663356	0.000958787	0.00102277	5	5	5	
0.277333	-0.0250139	0.0393873	0.000956185	0.00119433	5	5	5	
0.2775	0.0248409	0.00081742	0.00108964	0.00107778	5	5	5	
0.277667	-0.0186553	-0.0215878	0.00129697	0.00070596	5	5	5	
0.277833	0.0111277	-0.00193093	0.0014698	0.000642039	5	5	5	
0.278	-0.00492309	-0.00955866	0.00154451	0.000661683	5	5	5	
0.278167	0.0093527	0.0403636	0.00151728	0.000679462	5	5	5	
0.278333	-0.0107243	-0.019459	0.00140192	0.000717314	5	5	5	
0.2785	0.0116845	-0.000346717	0.00126506	0.00104639	5	5	5	
0.278667	-0.021799	-0.018507	0.00119151	0.00116672	5	5	5	
0.278833	0.0216497	0.017478	0.00120584	0.00107614	5	5	5	
0.279	-0.0256457	-0.018846	0.00128866	0.000875691	5	5	5	
0.279167	0.0273002	0.0561178	0.00133275	0.000864065	5	5	5	
0.279333	-0.0332258	-0.0534139	0.00135022	0.00100628	5	5	5	
0.2795	0.032729	-0.0041762	0.00139821	0.00150386	5	5	5	
0.279667	-0.013409	0.0254624	0.00142717	0.0015348	5	5	5	
0.279833	0.0145399	0.0405087	0.00130362	0.00147572	5	5	5	
0.28	-0.0385299	-0.092653	0.0010662	0.00118066	5	5	5	
0.280167	0.0538985	0.0752045	0.000935636	0.00139675	5	5	5	
0.280333	-0.0648261	-0.0497577	0.00102116	0.00147972	5	5	5	
0.2805	0.0678346	0.0836998	0.00123763	0.00148473	5	5	5	
0.280667	-0.038201	-0.0407107	0.00136968	0.00145304	5	5	5	
0.280833	0.0162699	-0.104867	0.00147561	0.0020603	5	5	5	
0.281	0.0020207	0.113689	0.00142277	0.00213839	5	5	5	
0.281167	-0.00944833	0.0572395	0.0012459	0.00284062	5	5	5	
0.281333	0.00887428	-0.0890042	0.000868882	0.00227875	5	5	5	
0.2815	0.0155361	-0.0471468	0.000494068	0.00239113	5	5	5	
0.281667	-0.0275428	-0.00588254	0.000355332	0.00148368	5	5	5	
0.281833	0.0211389	0.139157	0.000518079	0.00142555	5	5	5	
0.282	-0.00842915	-0.0174925	0.00077876	0.00180311	5	5	5	
0.282167	0.0106201	-0.103705	0.000894008	0.00247356	5	5	5	
0.282333	-0.0163622	-0.016406	0.000856534	0.0024518	5	5	5	
0.2825	0.0201048	0.0636741	0.000832278	0.00159376	5	5	5	
0.282667	-0.0175413	0.0455035	0.000919225	0.00156351	5	5	5	
0.282833	0.0121249	-0.033201	0.00104454	0.00137647	5	5	5	
0.283	-0.00970138	-0.060708	0.0011197	0.00162397	5	5	5	
0.283167	0.00559899	0.0471095	0.00115328	0.00109492	5	5	5	
0.283333	-0.00151218	0.011433	0.00117428	0.00144114	5	5	5	
0.2835	-0.00448261	-0.00482288	0.00113063	0.00118277	5	5	5	
0.283667	-0.00873008	-0.0337072	0.000986161	0.000941256	5	5	5	
0.283833	0.0197455	0.0212089	0.0008388	0.000710652	5	5	5	
0.284	-0.0218001	0.00671211	0.000814966	0.000991277	5	5	5	
0.284167	0.0200092	-0.00290037	0.00090592	0.00107595	5	5	5	
0.284333	-0.0217671	-0.011279	0.000996522	0.000843812	5	5	5	
0.2845	0.0181189	-0.00533038	0.00105322	0.000703314	5	5	5	
0.284667	-0.0168833	-0.00188932	0.0011784	0.00066713	5	5	5	
0.284833	0.00153383	0.0566006	0.00134963	0.0007172	5	5	5	
0.285	0.00653284	-0.0613854	0.00140746	0.000844948	5	5	5	
0.285167	-0.000268049	-0.0146853	0.00123172	0.00142233	5	5	5	
0.285333	-0.00925619	0.0370479	0.000999996	0.00170387	5	5	5	
0.2855	0.0115535	0.0175744	0.000921261	0.00136129	5	5	5	
0.285667	-0.0158699	-0.0281324	0.000986238	0.000808686	5	5	5	
0.285833	0.0223341	-0.0105848	0.00107353	0.000792228	5	5	5	
0.286	-0.022345	0.0105286	0.00117892	0.000865914	5	5	5	
0.286167	0.00604886	0.0485581	0.00133928	0.000834206	5	5	5	
0.286333	0.00362451	-0.0636368	0.00145314	0.00074366	5	5	5	
0.2865	0.00633488	0.00505542	0.00136724	0.00120626	5	5	5	
0.286667	-0.0203003	0.0283637	0.0011865	0.0015388	5	5	5	
0.286833	0.02382	0.00841458	0.00113665	0.00129354	5	5	5	
0.287	-0.0170355	-0.0370732	0.00127347	0.000818525	5	5	5	
0.287167	0.0117031	0.0135807	0.00140746	0.000713713	5	5	5	
0.287333	-0.011827	0.0116766	0.00140708	0.00103152	5	5	5	
0.2875	0.0220378	-0.00160037	0.00134505	0.00106552	5	5	5	
0.287667	-0.0325209	-0.0256885	0.00131403	0.000853691	5	5	5	
0.287833	0.0381343	0.0175631	0.00135917	0.000836159	5	5	5	
0.288	-0.0277405	0.0177209	0.00143504	0.00121475	5	5	5	
0.288167	0.0146951	-0.0274385	0.00149965	0.00139549	5	5	5	
0.288333	-0.0089352	-0.0148296	0.00145666	0.00106467	5	5	5	
0.2885	0.0164278	0.0287953	0.00131216	0.000656095	5	5	5	
0.288667	-0.0195646	-0.00376342	0.00112311	0.000692626	5	5	5	
0.288833	0.0255468	0.013547	0.000985402	0.000797225	5	5	5	
0.289	-0.0268738	-0.073953	0.000924494	0.000895036	5	5	5	
0.289167	0.0308067	0.0609599	0.00102032	0.00100519	5	5	5	
0.289333	-0.0179972	0.0154779	0.00121488	0.00165193	5	5	5	
0.2895	0.0137732	-0.0269064	0.00140369	0.00183676	5	5	5	
0.289667	-0.0133879	-0.0172086	0.00146066	0.00146397	5	5	5	
0.289833	0.0125399	0.00793482	0.0014821	0.000923772	5	5	5	
0.29	0.00365158	0.0110402	0.00154017	0.000827925	5	5	5	
0.290167	0.00341586	0.0136725	0.00154764	0.00082501	5	5	5	
0.290333	-0.011381	-0.0301147	0.00139658	0.000765825	5	5	5	
0.2905	0.0269953	0.0060251	0.00122897	0.000818305	5	5	5	
0.290667	-0.0275484	0.00566645	0.00119618	0.000983614	5	5	5	
0.290833	0.0287791	0.0152653	0.00130044	0.000846684	5	5	5	
0.291	-0.0254499	-0.0335992	0.00138947	0.000622947	5	5	5	
0.291167	0.0224867	0.0290683	0.00141442	0.000611742	5	5	5	
0.291333	-0.0219771	-0.0260423	0.00138682	0.000814739	5	5	5	
0.2915	0.0252324	0.0238882	0.00131774	0.000936916	5	5	5	
0.291667	-0.0250922	-0.00856989	0.0012484	0.00100802	5	5	5	
0.291833	0.0242854	-0.00361102	0.00123114	0.00103111	5	5	5	
0.292	-0.0162631	-0.00821168	0.00126648	0.000878934	5	5	5	
0.292167	0.00587782	0.0212727	0.00130329	0.000687255	5	5	5	
0.292333	-0.00597797	-0.0115656	0.00128094	0.000661445	5	5	5	
0.2925	0.01485	-0.0040973	0.00119277	0.000836317	5	5	5	
0.292667	-0.0169042	0.00107194	0.00111898	0.000916533	5	5	5	
0.292833	0.0142002	0.0120898	0.00114027	0.000838301	5	5	5	
0.293	-0.00819749	-0.0084349	0.00121533	0.000730281	5	5	5	
0.293167	0.00828289	0.00114218	0.00122671	0.000705331	5	5	5	
0.293333	-0.0116412	-0.00116899	0.00116031	0.000672392	5	5	5	
0.2935	0.0133315	0.0129699	0.00111219	0.000601074	5	5	5	
0.293667	-0.00771639	-0.0241859	0.00111501	0.00062536	5	5	5	
0.293833	0.0106215	0.0108717	0.00113648	0.000781885	5	5	5	
0.294	-0.00532446	0.00607712	0.00114278	0.000907891	5	5	5	
0.294167	0.00388863	0.00410728	0.00114221	0.000782144	5	5	5	
0.294333	-0.00602502	-0.015129	0.00110445	0.000628762	5	5	5	
0.2945	0.0151269	0.0013836	0.00107596	0.000682952	5	5	5	
0.294667	-0.0157514	-0.002124	0.00111772	0.000821563	5	5	5	
0.294833	0.0130802	0.0250992	0.00122973	0.000810111	5	5	5	
0.295	-0.00864545	-0.0290967	0.00128893	0.000817133	5	5	5	
0.295167	0.0171769	-0.00814561	0.00126369	0.00113241	5	5	5	
0.295333	-0.0133434	0.0416862	0.00123773	0.00152679	5	5	5	
0.2955	0.00187412	-0.0364998	0.00133529	0.00150676	5	5	5	
0.295667	0.00962091	-0.00554652	0.00144806	0.00100832	5	5	5	
0.295833	-0.00409732	0.0415488	0.00137437	0.000559482	5	5	5	
0.296	-0.0132089	-0.0365159	0.00109954	0.000529966	5	5	5	
0.296167	0.0232078	0.0289698	0.000865726	0.000813219	5	5	5	
0.296333	-0.0283065	-0.0336011	0.00084518	0.00106016	5	5	5	
0.2965	0.0361008	0.000961383	0.00102465	0.00132212	5	5	5	
0.296667	-0.0247455	0.0627494	0.00133957	0.00157816	5	5	5	
0.296833	-0.0113706	-0.0414505	0.0017587	0.00148482	5	5	5	
0.297	0.0378915	-0.0472783	0.00197798	0.00139072	5	5	5	
0.297167	-0.0222252	0.0767089	0.00174655	0.00111953	5	5	5	
0.297333	-0.00593425	-0.0190118	0.00113855	0.00135573	5	5	5	
0.2975	0.0182789	-0.00928561	0.000697966	0.00126309	5	5	5	
0.297667	-0.0175649	-0.0183247	0.000663283	0.000975061	5	5	5	
0.297833	0.0113208	0.0286978	0.000910765	0.00067333	5	5	5	
0.298	0.00118698	0.0122467	0.00116188	0.000771211	5	5	5	
0.298167	-0.00688768	-0.0322938	0.00131344	0.00101027	5	5	5	
0.298333	0.0129772	-0.00673056	0.00133381	0.0008761	5	5	5	
0.2985	-0.0092539	0.0229478	0.00122467	0.000516228	5	5	5	
0.298667	-0.00186281	0.0201947	0.0010812	0.000622529	5	5	5	
0.298833	0.00165904	-0.0244906	0.0010766	0.000763203	5	5	5	
0.299	0.00319346	-0.0390614	0.00122786	0.000837229	5	5	5	
0.299167	-0.00268832	0.0564923	0.00138422	0.000723391	5	5	5	
0.299333	-0.00167096	0.00308451	0.00143698	0.00114122	5	5	5	
0.2995	-0.000787998	-0.0415313	0.00144733	0.00145341	5	5	5	
0.299667	0.00746926	0.00610365	0.00148729	0.00128215	5	5	5	
0.299833	-0.00806321	0.034948	0.00147433	0.00073251	5	5	5	
0.3	-0.000541018	-0.0177427	0.00132387	0.000575639	5	5	5	
0.300167	0.00957527	-0.010628	0.00114074	0.000888974	5	5	5	
0.300333	-0.00970595	0.00278669	0.00109007	0.00104744	5	5	5	
0.3005	0.00793826	0.0115442	0.00120055	0.000905776	5	5	5	
0.300667	-0.00467809	-0.00109687	0.00136859	0.000802071	5	5	5	
0.300833	-0.00289213	-0.00687263	0.00148903	0.000875013	5	5	5	
0.301	0.00547836	-0.00813726	0.00149523	0.000893163	5	5	5	
0.301167	0.00103389	0.003955	0.00138948	0.000890557	5	5	5	
0.301333	-0.00573004	0.0177027	0.00127237	0.000993481	5	5	5	
0.3015	0.00956597	-0.00607297	0.00124909	0.000972399	5	5	5	
0.301667	-0.0135153	-0.0264682	0.00129736	0.00074799	5	5	5	
0.301833	0.0148578	0.0214739	0.00131854	0.000642708	5	5	5	
0.302	-0.0145984	0.000379223	0.00128294	0.000840404	5	5	5	
0.302167	0.0163875	0.0126541	0.00125223	0.000958181	5	5	5	
0.302333	-0.0141874	-0.0140485	0.0012879	0.000921739	5	5	5	
0.3025	0.00740586	-0.0203319	0.00139238	0.00105019	5	5	5	
0.302667	0.0113774	0.018224	0.00148057	0.00120805	5	5	5	
0.302833	-0.0166095	0.0347658	0.00143763	0.0010617	5	5	5	
0.303	0.00133853	-0.0302396	0.00121247	0.000805558	5	5	5	
0.303167	0.0111957	-0.022975	0.000922532	0.000984829	5	5	5	
0.303333	-0.00897377	0.0268958	0.000796272	0.00119734	5	5	5	
0.3035	0.00495859	0.0474055	0.000904094	0.00106494	5	5	5	
0.303667	0.00775782	-0.0772843	0.00109179	0.000938144	5	5	5	
0.303833	-0.00204763	0.0232654	0.00118503	0.00128439	5	5	5	
0.304	0.00413225	-0.000644209	0.00114347	0.00162284	5	5	5	
0.304167	-0.0114721	0.0262594	0.00102765	0.00147446	5	5	5	
0.304333	-0.00824088	-0.0108916	0.000902492	0.00140936	5	5	5	
0.3045	0.0249199	-0.0399394	0.000905509	0.00163211	5	5	5	
0.304667	-0.016746	0.0130634	0.00110776	0.00155903	5	5	5	
0.304833	0.00689457	0.0252055	0.00135814	0.000999292	5	5	5	
0.305	-0.00923148	-0.012917	0.00143555	0.000546374	5	5	5	
0.305167	-0.00168762	0.00983134	0.00139859	0.000535173	5	5	5	
0.305333	0.0126857	-0.0350304	0.00140446	0.000725826	5	5	5	
0.3055	-0.00775642	0.00466666	0.00140434	0.00100554	5	5	5	
0.305667	-0.000623197	0.00412463	0.00131204	0.00123788	5	5	5	
0.305833	-0.0064266	0.0328489	0.00122718	0.00116145	5	5	5	
0.306	0.011773	-0.0158496	0.00121044	0.00123264	5	5	5	
0.306167	0.0115993	-0.106573	0.00117102	0.00194218	5	5	5	
0.306333	-0.0227353	0.12272	0.00114968	0.00246336	5	5	5	
0.3065	0.0166874	0.0224953	0.00130662	0.00261518	5	5	5	
0.306667	-0.00374879	-0.0956851	0.0015083	0.00184049	5	5	5	
0.306833	0.0171944	0.0283041	0.00148898	0.00189908	5	5	5	
0.307	-0.0190709	-0.0021468	0.00132244	0.00177914	5	5	5	
0.307167	0.0245871	0.0439352	0.00128626	0.00166675	5	5	5	
0.307333	-0.00976806	-0.0053279	0.00130755	0.00160058	5	5	5	
0.3075	0.0096472	-0.104994	0.00124428	0.0021327	5	5	5	
0.307667	-0.00208129	0.0972355	0.0011351	0.00253722	5	5	5	
0.307833	-0.000942079	0.0181587	0.00114813	0.00227805	5	5	5	
0.308	0.00523134	-0.0577447	0.0012079	0.00127947	5	5	5	
0.308167	-0.00517953	0.000376023	0.00120488	0.00104348	5	5	5	
0.308333	0.00904942	0.0093128	0.00116273	0.000880139	5	5	5	
0.3085	-0.00812266	0.014699	0.00114764	0.000834848	5	5	5	
0.308667	0.0101938	-0.0223893	0.00116525	0.000616472	5	5	5	
0.308833	-0.00510429	0.0206107	0.00118459	0.000622868	5	5	5	
0.309	0.00972996	-0.0197429	0.00115339	0.000876305	5	5	5	
0.309167	-0.00396301	-0.0138018	0.00105694	0.00116501	5	5	5	
0.309333	-0.0135394	0.0331994	0.000973118	0.00132432	5	5	5	
0.3095	-0.000209665	-0.0069598	0.00101699	0.00117367	5	5	5	
0.309667	0.0154314	-0.019832	0.00116249	0.000798077	5	5	5	
0.309833	-0.010848	0.00104136	0.00118897	0.000637228	5	5	5	
0.31	-0.000706532	0.0275932	0.00098983	0.000705411	5	5	5	
0.310167	-0.00319928	0.00391527	0.00071845	0.000663875	5	5	5	
0.310333	-0.000634039	-0.0446189	0.000592603	0.000530439	5	5	5	
0.3105	-0.00183736	0.0409538	0.000663775	0.000656152	5	5	5	
0.310667	0.0117872	-0.00896423	0.000843337	0.00104187	5	5	5	
0.310833	-0.0154795	0.00423724	0.00100649	0.00117618	5	5	5	
0.311	0.0171244	-0.00323675	0.00109202	0.00119855	5	5	5	
0.311167	-0.0297897	-0.049243	0.0011185	0.00153071	5	5	5	
0.311333	0.0397637	0.0723632	0.00106517	0.00185642	5	5	5	
0.3115	-0.0179019	-0.0132723	0.00092306	0.0016589	5	5	5	
0.311667	0.00737277	-0.0249012	0.000692291	0.000921445	5	5	5	
0.311833	-0.0109748	-0.0131252	0.000688689	0.000687254	5	5	5	
0.312	0.0139047	-0.00783295	0.000843359	0.00059546	5	5	5	
0.312167	-0.000690489	0.0723324	0.000994861	0.000803763	5	5	5	
0.312333	0.011362	-0.0503797	0.00103294	0.000943981	5	5	5	
0.3125	-0.0281394	-0.023704	0.00117459	0.00160302	5	5	5	
0.312667	0.034544	0.0182512	0.00140298	0.00170313	5	5	5	
0.312833	-0.0236481	0.0159173	0.00149419	0.00134421	5	5	5	
0.313	0.012437	0.0188344	0.00138453	0.0009815	5	5	5	
0.313167	-0.0102669	-0.0527727	0.00125175	0.00105005	5	5	5	
0.313333	0.00641631	0.00723896	0.00119637	0.0011031	5	5	5	
0.3135	0.000941197	0.0401618	0.00119742	0.000769183	5	5	5	
0.313667	-0.00211823	-0.0237272	0.00120769	0.000640123	5	5	5	
0.313833	0.00601079	-0.0135871	0.00118515	0.000900072	5	5	5	
0.314	-0.0103296	0.0150791	0.0011246	0.00104826	5	5	5	
0.314167	0.0106145	0.0175474	0.00109979	0.00084341	5	5	5	
0.314333	-0.00706735	-0.0276172	0.00117336	0.000714882	5	5	5	
0.3145	0.0109337	-0.0159937	0.00128759	0.000973595	5	5	5	
0.314667	-0.00930539	0.0198649	0.00132506	0.00113403	5	5	5	
0.314833	0.00543546	0.0152255	0.00128882	0.000898294	5	5	5	
0.315	-0.00181912	0.00313651	0.00124842	0.000664679	5	5	5	
0.315167	-0.000791221	-0.0322882	0.00125055	0.00074274	5	5	5	
0.315333	0.00357174	-0.00280691	0.00129622	0.000718988	5	5	5	
0.3155	-0.0143935	0.0401487	0.00135731	0.000554209	5	5	5	
0.315667	0.023441	-0.0116711	0.00135625	0.000626251	5	5	5	
0.315833	-0.0163051	-0.0143999	0.0012078	0.000990211	5	5	5	
0.316	-0.00991493	-0.00649676	0.000936102	0.00103843	5	5	5	
0.316167	0.0219474	0.00682697	0.000761538	0.000962735	5	5	5	
0.316333	-0.0285102	0.0497722	0.000846423	0.00114624	5	5	5	
0.3165	0.0145933	-0.0474602	0.00115287	0.00129607	5	5	5	
0.316667	0.0049535	-0.0418297	0.00148424	0.00132851	5	5	5	
0.316833	-0.0210472	0.0671668	0.00161232	0.00101483	5	5	5	
0.317	0.0182798	0.00777406	0.00148497	0.00140622	5	5	5	
0.317167	-0.006541	-0.0408477	0.00117195	0.00151409	5	5	5	
0.317333	-0.00411324	-0.0171169	0.000893394	0.00130205	5	5	5	
0.3175	0.00475545	0.0393618	0.00082473	0.000813073	5	5	5	
0.317667	0.00211203	0.0217074	0.000969017	0.000978545	5	5	5	
0.317833	-0.0104582	-0.0522474	0.00115201	0.00131741	5	5	5	
0.318	0.00775241	-0.0103751	0.00119657	0.00127483	5	5	5	
0.318167	-0.00319703	0.0516096	0.00112197	0.000817097	5	5	5	
0.318333	0.00518585	-0.00432472	0.00108363	0.000790514	5	5	5	
0.3185	-0.0107078	-0.0191158	0.00109573	0.000868447	5	5	5	
0.318667	-0.019123	-0.0467846	0.00105197	0.000858	5	5	5	
0.318833	0.0532173	0.0768305	0.00102317	0.000856685	5	5	5	
0.319	-0.0522834	-0.0163367	0.0010575	0.00124639	5	5	5	
0.319167	0.0392398	-0.0306444	0.00117186	0.00164905	5	5	5	
0.319333	-0.0282611	0.032834	0.00122625	0.00154455	5	5	5	
0.3195	0.0190177	-0.0279524	0.0012406	0.00120869	5	5	5	
0.319667	-0.0184335	0.0325383	0.00129879	0.000926031	5	5	5	
0.319833	0.00343714	-0.00599938	0.00129648	0.00071894	5	5	5	
0.32	0.020175	-0.00993508	0.00114181	0.000451717	5	5	5	
0.320167	-0.0338608	-0.00556313	0.000907202	0.000436922	5	5	5	
0.320333	0.0129141	0.00614556	0.000737568	0.000578113	5	5	5	
0.3205	-0.00354856	0.0552965	0.000659088	0.000698136	5	5	5	
0.320667	-0.00957665	-0.113021	0.000665495	0.000940738	5	5	5	
0.320833	0.0112635	0.151378	0.000704018	0.00152736	5	5	5	
0.321	-0.018565	-0.113621	0.000796396	0.00246807	5	5	5	
0.321167	0.0186839	0.0517583	0.000823	0.00319729	5	5	5	
0.321333	-0.0360635	-0.00793747	0.000898952	0.00345978	5	5	5	
0.3215	0.0269238	-0.036913	0.000994742	0.00325106	5	5	5	
0.321667	-0.0253849	0.0965899	0.00111391	0.00274138	5	5	5	
0.321833	0.00673473	-0.0749382	0.00117011	0.00211045	5	5	5	
0.322	0.0128478	-0.0413095	0.00127341	0.00203513	5	5	5	
0.322167	-0.0327438	0.116929	0.00128238	0.00185514	5	5	5	
0.322333	0.0396144	-0.0590827	0.00105963	0.00203232	5	5	5	
0.3225	-0.0366773	0.00471328	0.000860699	0.00174006	5	5	5	
0.322667	0.0103221	-0.0458184	0.000651325	0.00135488	5	5	5	
0.322833	0.000281339	0.0779526	0.000581951	0.00112512	5	5	5	
0.323	0.00644902	-0.0431947	0.000657882	0.00126998	5	5	5	
0.323167	-0.0330997	0.0117078	0.00103579	0.00172364	5	5	5	
0.323333	0.0540738	-0.0277249	0.00151499	0.00169913	5	5	5	
0.3235	-0.0562942	0.0337643	0.00174317	0.00146314	5	5	5	
0.323667	0.0278144	0.00449334	0.00174564	0.00148729	5	5	5	
0.323833	-0.0210466	-0.037524	0.00166429	0.00169246	5	5	5	
0.324	0.0133887	0.0115052	0.00154064	0.00149625	5	5	5	
0.324167	0.00252071	0.0268269	0.0014178	0.000954939	5	5	5	
0.324333	-0.0158816	-0.0139698	0.00144164	0.000770124	5	5	5	
0.3245	0.00103389	-0.0252839	0.00161172	0.00112084	5	5	5	
0.324667	0.0100005	0.0239614	0.00179346	0.0013607	5	5	5	
0.324833	-0.022334	0.00730622	0.00177274	0.00103653	5	5	5	
0.325	0.0154063	-0.0216185	0.00157733	0.000586583	5	5	5	
0.325167	-0.006586	0.00196102	0.00132671	0.000458872	5	5	5	
0.325333	-0.0118789	-0.00506	0.0011719	0.000486982	5	5	5	
0.3255	0.0148576	0.0292074	0.00117168	0.000466349	5	5	5	
0.325667	-0.014192	-0.0195084	0.00134461	0.00051537	5	5	5	
0.325833	0.00293644	-0.0198246	0.0015813	0.00077375	5	5	5	
0.326	0.000885046	0.0198315	0.00173825	0.000815931	5	5	5	
0.326167	-0.00693728	4.98481E-05	0.00170168	0.000599116	5	5	5	
0.326333	0.00151091	-0.000828733	0.00147904	0.000373657	5	5	5	
0.3265	0.0115747	0.00240772	0.00117091	0.000469108	5	5	5	
0.326667	-0.026816	-0.00597564	0.00101463	0.000712498	5	5	5	
0.326833	0.0117187	-0.0259303	0.00112111	0.00113609	5	5	5	
0.327	0.0187625	0.0666032	0.00138635	0.00155415	5	5	5	
0.327167	-0.0345959	-0.0483962	0.00146628	0.001647	5	5	5	
0.327333	0.0232983	-0.00987016	0.00130153	0.00121367	5	5	5	
0.3275	-0.0144696	0.00611372	0.00106004	0.000825467	5	5	5	
0.327667	0.0107214	0.0412628	0.00100238	0.000909323	5	5	5	
0.327833	-0.0135301	-0.00422137	0.0010533	0.000950027	5	5	5	
0.328	0.00858992	-0.0572279	0.00112757	0.000826944	5	5	5	
0.328167	-0.0136497	0.0254297	0.00123032	0.000863711	5	5	5	
0.328333	0.0237356	0.0311281	0.00140044	0.00135271	5	5	5	
0.3285	-0.0236018	-0.00809094	0.00148915	0.00140843	5	5	5	
0.328667	0.00375384	-0.0277636	0.00136518	0.000998323	5	5	5	
0.328833	0.00636307	-4.84672E-05	0.00116013	0.000839635	5	5	5	
0.329	-1.23855E-05	0.042294	0.0011193	0.00119339	5	5	5	
0.329167	-0.00857648	-0.0198164	0.00122771	0.00129492	5	5	5	
0.329333	0.0078751	-0.0294817	0.00130493	0.000885923	5	5	5	
0.3295	-0.00475567	0.0269288	0.00125776	0.000596082	5	5	5	
0.329667	0.00015143	0.0123284	0.00117209	0.00089599	5	5	5	
0.329833	0.00163443	-0.0246297	0.00112609	0.00121424	5	5	5	
0.33	0.00133043	-0.000752359	0.00113579	0.00114636	5	5	5	
0.330167	-0.00555609	0.0189715	0.00115863	0.000833023	5	5	5	
0.330333	-0.00162851	-0.0150756	0.00112181	0.000791411	5	5	5	
0.3305	0.00941263	-0.0106898	0.00104932	0.00109117	5	5	5	
0.330667	-0.00707155	0.0277868	0.00108356	0.00139059	5	5	5	
0.330833	-0.0104837	-0.0224045	0.0012712	0.00136792	5	5	5	
0.331	0.0211914	0.00367123	0.00143449	0.00103042	5	5	5	
0.331167	-0.0227473	0.00675437	0.00142184	0.000688623	5	5	5	
0.331333	0.0193209	-0.00560747	0.00125974	0.000579837	5	5	5	
0.3315	-0.0102915	0.00460947	0.00105865	0.0006277	5	5	5	
0.331667	-0.00735039	-0.0190208	0.000892251	0.000681463	5	5	5	
0.331833	0.0104448	0.0257305	0.000878107	0.000749696	5	5	5	
0.332	-0.00455141	-0.0092818	0.00106734	0.000980975	5	5	5	
0.332167	-0.00770853	-0.0191409	0.00134368	0.00129369	5	5	5	
0.332333	0.0200588	0.0192872	0.00149392	0.00132571	5	5	5	
0.3325	-0.0211649	0.0139858	0.00145444	0.000980792	5	5	5	
0.332667	0.0120757	-0.0293386	0.00131247	0.000699519	5	5	5	
0.332833	-0.0069254	-0.00684137	0.00120475	0.000926709	5	5	5	
0.333	0.0096956	0.036404	0.00119192	0.00134383	5	5	5	
0.333167	-0.0111528	-0.00744494	0.00120836	0.00127022	5	5	5	
0.333333	0.00622679	-0.0328007	0.00117717	0.000825181	5	5	5	
0.3335	-0.0029808	0.0041579	0.00113361	0.000753162	5	5	5	
0.333667	0.00269292	0.0330416	0.00117228	0.00109634	5	5	5	
0.333833	-0.00278712	-0.00115885	0.00126543	0.00111398	5	5	5	
0.334	0.00484543	-0.0402461	0.00132412	0.000781937	5	5	5	
0.334167	-0.0108112	0.011611	0.00132945	0.000684342	5	5	5	
