0	-0.00304838	-0.000617011	3.04838E-07	6.17011E-08	0	0	0	
0.000166667	0.00510066	-0.000752376	2.99582E-05	1.93395E-05	0	0	0	
0.000333333	-0.0113758	-0.00096178	0.000140109	6.44156E-05	0	0	0	
0.0005	0.0116528	0.00882773	0.000297305	0.000134627	0	0	0	
0.000666667	-0.0073848	-0.00724461	0.000431764	0.000181427	0	0	0	
0.000833333	0.00663026	0.00448439	0.000470699	0.000184132	0	0	0	
0.001	-0.00783481	0.00038571	0.000450887	0.000144727	0	0	0	
0.00116667	0.0106473	0.000308097	0.000428235	8.93227E-05	0	0	0	
0.00133333	-0.0241616	-0.00599218	0.000462994	6.90352E-05	0	0	0	
0.0015	0.0304752	0.01312	0.000544531	0.00010959	0	0	0	
0.00166667	-0.0299652	-0.0130999	0.00065563	0.000197634	0	0	0	
0.00183333	0.0295313	0.010813	0.000726207	0.00026851	0	0	0	
0.002	-0.0295039	-0.000458024	0.00074905	0.00028195	0	0	0	
0.00216667	0.0307105	-0.00464263	0.000742078	0.000245422	0	0	0	
0.00233333	-0.0303438	0.00467811	0.000741139	0.000195142	0	0	0	
0.0025	0.0289857	-0.000870355	0.000758732	0.000132029	0	0	0	
0.00266667	-0.0304719	-0.00306824	0.000777632	8.51007E-05	0	0	0	
0.00283333	0.0301695	0.0029027	0.000773913	6.7468E-05	0	0	0	
0.003	-0.0277442	0.00575838	0.000766411	9.04118E-05	0	0	0	
0.00316667	0.0278786	-0.00338115	0.000761185	0.000115205	0	0	0	
0.00333333	-0.0276102	-0.0040315	0.000761304	0.000103738	0	0	0	
0.0035	0.026648	0.000581388	0.000749065	8.38737E-05	0	0	0	
0.00366667	-0.0278993	-0.000544965	0.00074	5.40802E-05	0	0	0	
0.00383333	0.0271125	-0.00346649	0.000735155	5.42445E-05	0	0	0	
0.004	-0.0280014	-0.00029136	0.000739705	5.25491E-05	0	0	0	
0.00416667	0.030824	0.00235232	0.000736964	5.8022E-05	0	0	0	
0.00433333	-0.0284899	-0.00754809	0.000747789	7.62447E-05	0	0	0	
0.0045	0.0277821	-0.00334225	0.00075737	0.000112553	0	0	0	
0.00466667	-0.0281667	0.0101617	0.00075613	0.000169239	0	0	0	
0.00483333	0.0293451	-0.0124375	0.000741862	0.00021107	0	0	0	
0.005	-0.0301592	-0.000553925	0.000744497	0.000216818	0	0	0	
0.00516667	0.0290304	0.00228963	0.000763101	0.000180054	0	0	0	
0.00533333	-0.0286859	0.0021141	0.000779025	0.000123106	0	0	0	
0.0055	0.0284042	-0.0117693	0.000758534	0.000119977	0	0	0	
0.00566667	-0.0260591	0.00933237	0.000742607	0.000177627	0	0	0	
0.00583333	0.0267434	-0.00237562	0.000734548	0.000246378	0	0	0	
0.006	-0.0278984	-0.00371282	0.000735962	0.0002612	0	0	0	
0.00616667	0.029375	0.00236355	0.000732632	0.000215608	0	0	0	
0.00633333	-0.0298268	-0.0010268	0.000742491	0.000145277	0	0	0	
0.0065	0.0267521	-0.0100341	0.000748892	0.000117386	0	0	0	
0.00666667	-0.0288487	0.00825378	0.000751797	0.000164478	0	0	0	
0.00683333	0.029408	0.00412717	0.000744288	0.00022877	0	0	0	
0.007	-0.0276743	-0.0110968	0.000752617	0.000268372	0	0	0	
0.00716667	0.0288785	0.00903311	0.000755325	0.000262007	0	0	0	
0.00733333	-0.0290065	-0.00769085	0.000751721	0.000226279	0	0	0	
0.0075	0.0258278	-0.000207923	0.000747271	0.00019805	0	0	0	
0.00766667	-0.0263465	0.00381716	0.000741098	0.000151867	0	0	0	
0.00783333	0.0264739	0.00375197	0.000732697	0.000135802	0	0	0	
0.008	-0.02831	-0.0106263	0.000732158	0.000137498	0	0	0	
0.00816667	0.0289682	0.0108628	0.000732603	0.000185519	0	0	0	
0.00833333	-0.0275998	-0.00382463	0.000745924	0.000230479	0	0	0	
0.0085	0.0279453	-0.000942875	0.000750209	0.000237145	0	0	0	
0.00866667	-0.027242	0.00858281	0.000754873	0.000216236	0	0	0	
0.00883333	0.0290525	0.00453798	0.000753954	0.00019749	0	0	0	
0.009	-0.028266	-0.0151363	0.000752652	0.00023027	0	0	0	
0.00916667	0.0266642	0.000848927	0.000746397	0.000245968	0	0	0	
0.00933333	-0.0290983	0.00906576	0.000746054	0.000248437	0	0	0	
0.0095	0.0289928	-0.00464625	0.000738025	0.000214301	0	0	0	
0.00966667	-0.0290719	-0.00349158	0.000749732	0.000175093	0	0	0	
0.00983333	0.0281094	0.00924098	0.000751212	0.000166565	0	0	0	
0.01	-0.027296	-0.01572	0.000763491	0.000211825	0	0	0	
0.0101667	0.0283523	-0.00288681	0.000757066	0.000246395	0	0	0	
0.0103333	-0.0273238	0.00335497	0.000748657	0.000240936	0	0	0	
0.0105	0.026355	-0.00108417	0.000737174	0.000170518	0	0	0	
0.0106667	-0.0273783	-0.00728875	0.000737478	0.000152794	0	0	0	
0.0108333	0.0284861	0.0089823	0.000744856	0.0001872	0	0	0	
0.011	-0.0312049	0.000130851	0.00075708	0.000193862	0	0	0	
0.0111667	0.0293202	-0.00528355	0.000760063	0.000174795	0	0	0	
0.0113333	-0.0280175	-0.00227882	0.000765268	0.000121453	0	0	0	
0.0115	0.0300649	0.00191042	0.000765717	0.000103375	0	0	0	
0.0116667	-0.0299725	0.00502705	0.000769474	9.05242E-05	0	0	0	
0.0118333	0.0282444	0.000583495	0.000767104	9.90402E-05	0	0	0	
0.012	-0.0255823	-0.00199753	0.000756032	9.53651E-05	0	0	0	
0.0121667	0.0275985	0.00173088	0.000745589	8.50563E-05	0	0	0	
0.0123333	-0.0291287	0.00136607	0.000735895	6.39808E-05	0	0	0	
0.0125	0.0276111	0.000903659	0.000738912	5.41728E-05	0	0	0	
0.0126667	-0.026869	-0.00114116	0.000737726	5.87476E-05	0	0	0	
0.0128333	0.0294884	0.00700569	0.000739687	8.42587E-05	0	0	0	
0.013	-0.0286473	-0.00353053	0.000745404	0.000112176	0	0	0	
0.0131667	0.0281378	-0.000304733	0.000758842	9.51404E-05	0	0	0	
0.0133333	-0.0276136	0.0060517	0.000756594	7.50255E-05	0	0	0	
0.0135	0.0296209	-0.00169964	0.000750861	6.07425E-05	0	0	0	
0.0136667	-0.0300623	-0.000670793	0.000754818	5.73685E-05	0	0	0	
0.0138333	0.0272264	0.00924272	0.000773357	7.10096E-05	0	0	0	
0.014	-0.026073	-0.0037762	0.000770495	0.00011323	0	0	0	
0.0141667	0.0301041	-0.00296634	0.000749569	0.000142781	0	0	0	
0.0143333	-0.0293684	-0.00602866	0.000743642	0.000154623	0	0	0	
0.0145	0.0293286	0.000786899	0.000756728	0.000119129	0	0	0	
0.0146667	-0.0286773	0.00534425	0.000763309	0.000114376	0	0	0	
0.0148333	0.0297271	0.00657573	0.000762167	0.00011373	0	0	0	
0.015	-0.0274073	-0.00452082	0.000762767	0.000137449	0	0	0	
0.0151667	0.0279134	-0.00476623	0.000770626	0.000141105	0	0	0	
0.0153333	-0.0291984	-0.00143397	0.000762666	0.000129085	0	0	0	
0.0155	0.0291994	0.00582629	0.000748725	0.000112512	0	0	0	
0.0156667	-0.0264466	0.00174835	0.000740195	9.90259E-05	0	0	0	
0.0158333	0.0296756	0.00642779	0.000747893	0.000102174	0	0	0	
0.016	-0.0275688	-0.000173465	0.000755504	9.27408E-05	0	0	0	
0.0161667	0.0294253	0.0012696	0.000768041	0.000100351	0	0	0	
0.0163333	-0.0269066	-0.00439132	0.000763498	0.000113026	0	0	0	
0.0165	0.0271798	0.00678285	0.00076317	0.000137529	0	0	0	
0.0166667	-0.0294452	-0.00522953	0.000760591	0.000159778	0	0	0	
0.0168333	0.0305148	0.00978852	0.000765669	0.000153809	0	0	0	
0.017	-0.0289992	-0.00574732	0.000768713	0.000171032	0	0	0	
0.0171667	0.029929	0.00304792	0.000760189	0.00015379	0	0	0	
0.0173333	-0.0282651	0.00211892	0.000754068	0.000131525	0	0	0	
0.0175	0.0295151	0.00114197	0.000747292	8.18581E-05	0	0	0	
0.0176667	-0.0277154	-0.00774186	0.000742971	9.96497E-05	0	0	0	
0.0178333	0.0294677	0.0125078	0.000747011	0.000160368	0	0	0	
0.018	-0.029332	-0.00577727	0.000752805	0.000215518	0	0	0	
0.0181667	0.029893	-0.00196163	0.000761415	0.000233573	0	0	0	
0.0183333	-0.0283154	0.0126662	0.000765228	0.000247225	0	0	0	
0.0185	0.0252676	-0.00457119	0.00076068	0.000253343	0	0	0	
0.0186667	-0.0271059	-0.00889311	0.000754298	0.000233988	0	0	0	
0.0188333	0.0300787	0.0116997	0.000742655	0.000214005	0	0	0	
0.019	-0.0293861	-0.00618658	0.000742019	0.000194333	0	0	0	
0.0191667	0.0293357	-0.00702531	0.000745039	0.000194677	0	0	0	
0.0193333	-0.0296287	0.0154287	0.000746061	0.000210451	0	0	0	
0.0195	0.0306096	-0.00920268	0.000754094	0.000229849	0	0	0	
0.0196667	-0.0285441	0.00250969	0.000760362	0.000215427	0	0	0	
0.0198333	0.0273549	-7.77955E-05	0.000759925	0.00013402	0	0	0	
0.02	-0.0278808	-0.00490099	0.000751347	6.7352E-05	0	0	0	
0.0201667	0.0286758	-0.00476876	0.000748166	7.17027E-05	0	0	0	
0.0203333	-0.0279462	0.0108087	0.00075288	0.000144928	0	0	0	
0.0205	0.028563	0.0036731	0.000758396	0.000189134	0	0	0	
0.0206667	-0.029416	-0.00946477	0.00076561	0.000221077	0	0	0	
0.0208333	0.0286565	-0.000353553	0.000771352	0.000174155	0	0	0	
0.021	-0.0290985	-0.00412702	0.000779249	0.000138079	0	0	0	
0.0211667	0.0294527	0.00935831	0.000775352	0.00013918	0	0	0	
0.0213333	-0.0286537	-0.00102569	0.000772286	0.000133006	0	0	0	
0.0215	0.0297212	0.00601234	0.000762911	0.000135076	0	0	0	
0.0216667	-0.0292795	-0.015965	0.000756958	0.000147163	0	0	0	
0.0218333	0.0291381	0.00824674	0.000758776	0.000226411	0	0	0	
0.022	-0.0300569	-0.000883799	0.000759815	0.000240198	0	0	0	
0.0221667	0.0291733	0.00769262	0.000761458	0.000178674	0	0	0	
0.0223333	-0.0286948	-0.0093155	0.00076348	0.000137238	0	0	0	
0.0225	0.0282679	0.00378795	0.000762229	0.000150937	0	0	0	
0.0226667	-0.028834	-0.00593188	0.000770018	0.000161736	0	0	0	
0.0228333	0.0305834	0.00954213	0.000770926	0.000155644	0	0	0	
0.023	-0.0269877	-0.00385002	0.000765849	0.000159345	0	0	0	
0.0231667	0.0280302	-0.000674687	0.000757127	0.000151948	0	0	0	
0.0233333	-0.02862	-0.0038872	0.000749738	0.000104762	0	0	0	
0.0235	0.0286738	0.00532811	0.000754067	8.60937E-05	0	0	0	
0.0236667	-0.0295913	0.000116818	0.000757214	8.31206E-05	0	0	0	
0.0238333	0.0287766	0.00140426	0.000758178	7.85766E-05	0	0	0	
0.024	-0.0280518	-0.00711602	0.000764366	6.90034E-05	0	0	0	
0.0241667	0.0254836	-0.00413536	0.000756042	9.77388E-05	0	0	0	
0.0243333	-0.0273459	0.00445379	0.000751647	0.000142774	0	0	0	
0.0245	0.0298522	0.00853874	0.00074027	0.000149049	0	0	0	
0.0246667	-0.0292049	-0.0036728	0.00074708	0.000163343	0	0	0	
0.0248333	0.0291427	-0.00771933	0.000755198	0.000158735	0	0	0	
0.025	-0.0293447	-0.000640626	0.000763696	0.000158819	0	0	0	
0.0251667	0.0283035	-0.00199312	0.000758027	0.000108857	0	0	0	
0.0253333	-0.0301482	-0.00109063	0.000758546	8.71805E-05	0	0	0	
0.0255	0.027071	0.00449188	0.000748207	8.16226E-05	0	0	0	
0.0256667	-0.0292054	-0.0031434	0.000750753	0.000111102	0	0	0	
0.0258333	0.0306913	-0.00606022	0.000743469	0.000133795	0	0	0	
0.026	-0.0285393	0.0058543	0.000763905	0.000154809	0	0	0	
0.0261667	0.0277418	-0.000341518	0.000770609	0.000153732	0	0	0	
0.0263333	-0.0285292	-0.0103601	0.000766313	0.000160811	0	0	0	
0.0265	0.0298965	0.00420331	0.000754313	0.000177466	0	0	0	
0.0266667	-0.0292824	-0.000761583	0.000756599	0.000150647	0	0	0	
0.0268333	0.0269636	0.00340892	0.000750151	0.00012424	0	0	0	
0.027	-0.0290009	0.0062465	0.000740685	7.79349E-05	0	0	0	
0.0271667	0.0288166	-0.000730324	0.000735966	0.000117345	0	0	0	
0.0273333	-0.029666	-0.0158311	0.000756127	0.000172326	0	0	0	
0.0275	0.0287685	0.00609045	0.000754368	0.000247148	0	0	0	
0.0276667	-0.0295973	-0.000356987	0.000756697	0.000219004	0	0	0	
0.0278333	0.0298313	0.00688233	0.000755569	0.000165935	0	0	0	
0.028	-0.0304267	-0.0045661	0.000774458	0.000107195	0	0	0	
0.0281667	0.0289572	0.00252969	0.000775796	9.679E-05	0	0	0	
0.0283333	-0.0287529	-0.00396571	0.000779333	9.05179E-05	0	0	0	
0.0285	0.0285114	0.00196734	0.000772947	7.63318E-05	0	0	0	
0.0286667	-0.0284349	0.00249042	0.000769824	7.9335E-05	0	0	0	
0.0288333	0.0298237	-0.00153351	0.000766031	6.28749E-05	0	0	0	
0.029	-0.029128	-0.00104457	0.000767978	4.87983E-05	0	0	0	
0.0291667	0.0292633	0.00315745	0.000769775	5.65518E-05	0	0	0	
0.0293333	-0.0305165	0.00211205	0.000762119	6.95545E-05	0	0	0	
0.0295	0.0288863	-0.00238742	0.000756095	8.75527E-05	0	0	0	
0.0296667	-0.0304415	0.00413964	0.000760908	7.77847E-05	0	0	0	
0.0298333	0.030797	-0.00342125	0.000763612	0.00010531	0	0	0	
0.03	-0.029258	-0.00619914	0.000770351	0.00012842	0	0	0	
0.0301667	0.0299871	0.00747191	0.000767985	0.000171893	0	0	0	
0.0303333	-0.0269314	0.000154781	0.000765514	0.000154897	0	0	0	
0.0305	0.029803	-0.00406358	0.000768989	0.000124213	0	0	0	
0.0306667	-0.0290914	0.00525451	0.000767104	9.95578E-05	0	0	0	
0.0308333	0.0286774	0.0050812	0.000769636	0.000118223	0	0	0	
0.031	-0.0305346	-0.0182678	0.000760303	0.000204188	0	0	0	
0.0311667	0.0279802	0.0102053	0.000755214	0.000279105	0	0	0	
0.0313333	-0.0286474	-0.000895715	0.000764462	0.000275355	0	0	0	
0.0315	0.03017	0.000504815	0.000762677	0.000173425	0	0	0	
0.0316667	-0.0303219	0.00217189	0.000764585	6.78821E-05	0	0	0	
0.0318333	0.0301892	0.00383425	0.000756181	3.65187E-05	0	0	0	
0.032	-0.0308079	-0.0113568	0.000767208	9.97197E-05	0	0	0	
0.0321667	0.0311356	-0.00133958	0.000778939	0.000176947	0	0	0	
0.0323333	-0.0297323	0.00545721	0.000797402	0.000224309	0	0	0	
0.0325	0.0270951	0.00831638	0.000807509	0.000190795	0	0	0	
0.0326667	-0.026606	-0.00692875	0.000790994	0.00017086	0	0	0	
0.0328333	0.0279245	-0.00105706	0.000757143	0.000121923	0	0	0	
0.033	-0.0316741	-0.00126833	0.00073981	0.000111525	0	0	0	
0.0331667	0.0327483	0.000704142	0.00075068	7.14171E-05	0	0	0	
0.0333333	-0.0331175	0.00612047	0.000785026	7.31107E-05	0	0	0	
0.0335	0.0321161	-0.00315718	0.000802544	7.44405E-05	0	0	0	
0.0336667	-0.0264886	0.00477007	0.000801054	8.53514E-05	0	0	0	
0.0338333	0.0267538	-0.00133703	0.000786799	8.70004E-05	0	0	0	
0.034	-0.0307882	-0.00438783	0.000773004	8.79652E-05	0	0	0	
0.0341667	0.0296751	0.00499659	0.000765762	9.25324E-05	0	0	0	
0.0343333	-0.0287652	0.00158745	0.000759008	9.69888E-05	0	0	0	
0.0345	0.0269728	-0.00887549	0.000750599	0.000114614	0	0	0	
0.0346667	-0.0274631	0.00358882	0.000752326	0.000173097	0	0	0	
0.0348333	0.0324937	0.00528123	0.000760441	0.000246302	0	0	0	
0.035	-0.0315837	-0.00469037	0.000768422	0.000265573	0	0	0	
0.0351667	0.0283568	0.00286378	0.000769395	0.000207576	0	0	0	
0.0353333	-0.0274711	0.00157504	0.000762975	0.00013088	0	0	0	
0.0355	0.0295962	0.00859767	0.000762242	0.000119069	0	0	0	
0.0356667	-0.0285921	-0.0132373	0.000756343	0.000168161	0	0	0	
0.0358333	0.029739	0.00737395	0.000748835	0.000234071	0	0	0	
0.036	-0.0294507	-0.000823312	0.000745265	0.00020583	0	0	0	
0.0361667	0.0286638	0.00398283	0.000753573	0.000136413	0	0	0	
0.0363333	-0.030772	-0.00429119	0.000768018	9.00456E-05	0	0	0	
0.0365	0.0299084	0.00126493	0.000770876	7.79903E-05	0	0	0	
0.0366667	-0.0302439	-0.0017653	0.00077455	7.89687E-05	0	0	0	
0.0368333	0.0307882	-0.00376921	0.000767312	6.12542E-05	0	0	0	
0.037	-0.0300514	0.000793619	0.000773653	7.92293E-05	0	0	0	
0.0371667	0.0266404	0.000231703	0.000776422	7.23746E-05	0	0	0	
0.0373333	-0.0278701	-0.00199852	0.000776457	5.81434E-05	0	0	0	
0.0375	0.0291508	-0.00308832	0.000755801	5.06569E-05	0	0	0	
0.0376667	-0.0286473	0.000463579	0.000737981	6.51219E-05	0	0	0	
0.0378333	0.0257718	-0.00163174	0.000734673	9.44217E-05	0	0	0	
0.038	-0.0292534	-0.0059373	0.000739036	0.000118898	0	0	0	
0.0381667	0.0308429	0.00514771	0.000739489	0.000142656	0	0	0	
0.0383333	-0.0320147	-0.00616799	0.00075755	0.00014649	0	0	0	
0.0385	0.0290505	0.00348609	0.000773411	0.000131901	0	0	0	
0.0386667	-0.0291714	-0.00245708	0.000785424	0.000121125	0	0	0	
0.0388333	0.0284894	-0.00265304	0.000784114	0.000125034	0	0	0	
0.039	-0.0277089	-0.0062454	0.000788496	0.000143513	0	0	0	
0.0391667	0.0308166	0.0108489	0.000792118	0.000216272	0	0	0	
0.0393333	-0.031612	-0.0131071	0.000791965	0.000260488	0	0	0	
0.0395	0.0259856	0.0146085	0.000800989	0.000312634	0	0	0	
0.0396667	-0.0238726	-0.00838312	0.000783744	0.000279411	0	0	0	
0.0398333	0.0291209	-0.00729574	0.00073048	0.000220282	0	0	0	
0.04	-0.0374064	0.00213489	0.000708412	0.000196729	0	0	0	
0.0401667	0.0337496	0.0081641	0.000756068	0.00019219	0	0	0	
0.0403333	-0.0325884	-0.00833338	0.000824572	0.000235401	0	0	0	
0.0405	0.0326269	0.000457626	0.000831073	0.000208997	0	0	0	
0.0406667	-0.0281936	0.00398501	0.00081634	0.00022904	0	0	0	
0.0408333	0.0239001	0.00190078	0.000802261	0.000237767	0	0	0	
0.041	-0.0241071	-0.00939204	0.000771366	0.000205172	0	0	0	
0.0411667	0.0296708	0.00671868	0.00072164	0.000174633	0	0	0	
0.0413333	-0.0324523	-0.00146654	0.000706981	0.00013818	0	0	0	
0.0415	0.0290911	-0.000916769	0.000748738	0.000154847	0	0	0	
0.0416667	-0.0286376	0.00173465	0.000789116	0.000118835	0	0	0	
0.0418333	0.0292276	-0.00221982	0.000787227	0.00010784	0	0	0	
0.042	-0.0312279	-0.00502775	0.000764231	0.000102932	0	0	0	
0.0421667	0.0310903	0.0028152	0.0007453	0.000123645	0	0	0	
0.0423333	-0.0269934	0.00502443	0.000761348	0.000145	0	0	0	
0.0425	0.0281953	-0.00408551	0.00077564	0.000153518	0	0	0	
0.0426667	-0.0296538	-0.00194166	0.000772273	0.00012364	0	0	0	
0.0428333	0.0289832	0.00369274	0.000747509	9.38024E-05	0	0	0	
0.043	-0.029523	-0.00254618	0.000737282	7.55802E-05	0	0	0	
0.0431667	0.0290547	-0.00319887	0.000738678	8.27447E-05	0	0	0	
0.0433333	-0.0302386	0.00983363	0.000754969	0.00011332	0	0	0	
0.0435	0.0293977	-0.00604837	0.00076292	0.00016008	0	0	0	
0.0436667	-0.0269932	-0.000926983	0.000765996	0.000196664	0	0	0	
0.0438333	0.0284061	-0.000467998	0.000753942	0.00018435	0	0	0	
0.044	-0.0320425	0.000159573	0.000749585	0.000142718	0	0	0	
0.0441667	0.0300559	-0.00338442	0.000755328	0.000105553	0	0	0	
0.0443333	-0.0287397	0.0082098	0.000764925	0.000106545	0	0	0	
0.0445	0.0303704	-0.000652551	0.000766653	0.000150226	0	0	0	
0.0446667	-0.028758	-0.00962956	0.000764476	0.000204075	0	0	0	
0.0448333	0.0303471	0.00969408	0.000765978	0.000246293	0	0	0	
0.045	-0.0302358	-0.00994999	0.000762038	0.000234283	0	0	0	
0.0451667	0.0295219	0.010298	0.000759695	0.000230682	0	0	0	
0.0453333	-0.0308139	0.00132687	0.000753922	0.000219234	0	0	0	
0.0455	0.0304977	-0.00674135	0.00075207	0.000219144	0	0	0	
0.0456667	-0.0284115	0.00348033	0.000756337	0.000189752	0	0	0	
0.0458333	0.0297723	0.00704472	0.000765187	0.00015778	0	0	0	
0.046	-0.0297335	-0.00779925	0.000764394	0.000157135	0	0	0	
0.0461667	0.0309107	-0.00225924	0.000757568	0.000172466	0	0	0	
0.0463333	-0.0306968	0.00862263	0.000750934	0.000200407	0	0	0	
0.0465	0.026141	-0.012053	0.000751474	0.000222274	0	0	0	
0.0466667	-0.0291946	0.00911614	0.000759689	0.00023708	0	0	0	
0.0468333	0.0309401	0.00104347	0.000760965	0.000223048	0	0	0	
0.047	-0.0292115	-0.00192046	0.000764595	0.000169201	0	0	0	
0.0471667	0.029535	-0.00571074	0.000757315	0.000112896	0	0	0	
0.0473333	-0.0304059	0.00746719	0.000751213	0.0001108	0	0	0	
0.0475	0.0303381	-0.00183572	0.000757152	0.000133097	0	0	0	
0.0476667	-0.0306954	-0.0054383	0.000769423	0.000163264	0	0	0	
0.0478333	0.0305017	0.00988846	0.000776871	0.00017822	0	0	0	
0.048	-0.0308684	-0.000256996	0.000773292	0.000166313	0	0	0	
0.0481667	0.028886	0.0003799	0.000763538	0.000127023	0	0	0	
0.0483333	-0.0287064	0.000189588	0.000752496	7.04251E-05	0	0	0	
0.0485	0.0302574	-0.00618572	0.00074561	6.17996E-05	0	0	0	
0.0486667	-0.0316526	-0.00415901	0.000756882	0.00010419	0	0	0	
0.0488333	0.0299806	0.0110393	0.000770142	0.000165281	0	0	0	
0.049	-0.0286874	-0.0034215	0.000777492	0.000190885	0	0	0	
0.0491667	0.0291787	0.00547273	0.000765963	0.000154884	0	0	0	
0.0493333	-0.0294647	-0.00314968	0.000756013	0.000118809	0	0	0	
0.0495	0.0298858	-0.00332544	0.00075313	7.87022E-05	0	0	0	
0.0496667	-0.0291956	-0.00186817	0.000757384	0.00010714	0	0	0	
0.0498333	0.0295143	0.0130828	0.000761382	0.000148394	0	0	0	
0.05	-0.0294827	-0.00485019	0.000760075	0.000215051	0	0	0	
0.0501667	0.0292136	-0.00481244	0.000754349	0.000202082	0	0	0	
0.0503333	-0.0297089	0.000963636	0.000752239	0.000166179	0	0	0	
0.0505	0.0307603	0.0113943	0.000750581	0.000153209	0	0	0	
0.0506667	-0.0309854	-0.0153875	0.000767043	0.000236676	0	0	0	
0.0508333	0.0316152	0.00762052	0.00078327	0.00027498	0	0	0	
0.051	-0.02713	0.00595731	0.00078843	0.000257489	0	0	0	
0.0511667	0.0296291	-0.00451324	0.000773861	0.000187498	0	0	0	
0.0513333	-0.0304932	-0.00479701	0.000765213	0.000153924	0	0	0	
0.0515	0.0295779	0.0204715	0.000777244	0.000225363	0	0	0	
0.0516667	-0.0289696	-0.015649	0.000781063	0.000321845	0	0	0	
0.0518333	0.0312012	0.00435205	0.000764411	0.000356099	0	0	0	
0.052	-0.029731	0.0020864	0.000752231	0.00026856	0	0	0	
0.0521667	0.0291014	0.00358871	0.00076262	0.000143796	0	0	0	
0.0523333	-0.0289182	0.00182843	0.000773364	7.58877E-05	0	0	0	
0.0525	0.0308815	0.0042731	0.000765745	5.45132E-05	0	0	0	
0.0526667	-0.0316936	-0.0122532	0.000768995	0.000103723	0	0	0	
0.0528333	0.028759	0.0053115	0.000781031	0.00014506	0	0	0	
0.053	-0.0272212	-0.00292365	0.000784879	0.000155865	0	0	0	
0.0531667	0.0308517	0.00554431	0.000766964	0.000108155	0	0	0	
0.0533333	-0.0314147	-0.0049616	0.00076151	8.79421E-05	0	0	0	
0.0535	0.0288417	0.000359822	0.000766061	7.31823E-05	0	0	0	
0.0536667	-0.0290467	-0.00979153	0.000767084	0.000101776	0	0	0	
0.0538333	0.029554	0.00851321	0.000756671	0.000142134	0	0	0	
0.054	-0.0307984	-0.00217209	0.000754281	0.000164866	0	0	0	
0.0541667	0.030138	0.00193934	0.000751064	0.000119748	0	0	0	
0.0543333	-0.0301585	-0.00478976	0.00075596	7.5157E-05	0	0	0	
0.0545	0.0291646	-0.00491617	0.000754643	7.10221E-05	0	0	0	
0.0546667	-0.0289347	0.000496413	0.000760276	0.000110651	0	0	0	
0.0548333	0.029757	0.00675806	0.000757435	0.000128082	0	0	0	
0.055	-0.0308489	-0.00430127	0.000761851	0.000140831	0	0	0	
0.0551667	0.0305785	-0.00243852	0.000765191	0.000110544	0	0	0	
0.0553333	-0.0302076	0.000643589	0.000774975	8.22111E-05	0	0	0	
0.0555	0.029415	-0.00607156	0.00077556	7.0977E-05	0	0	0	
0.0556667	-0.0292168	-0.00431819	0.000777262	0.000126993	0	0	0	
0.0558333	0.0307244	0.00889544	0.000773257	0.000186526	0	0	0	
0.056	-0.0305877	-0.00464112	0.000766345	0.000192882	0	0	0	
0.0561667	0.0301797	-0.0021476	0.000755924	0.000144222	0	0	0	
0.0563333	-0.0306323	0.000194368	0.000754649	8.75991E-05	0	0	0	
0.0565	0.0307879	0.00614808	0.000767788	8.39047E-05	0	0	0	
0.0566667	-0.0279991	-0.00981538	0.000772576	0.000116802	0	0	0	
0.0568333	0.0294206	-0.000208732	0.000764685	0.000154582	0	0	0	
0.057	-0.029587	0.0139113	0.00074683	0.000208493	0	0	0	
0.0571667	0.0312856	0.000772137	0.000750376	0.000231272	0	0	0	
0.0573333	-0.0284054	-0.00509372	0.000760727	0.000224221	0	0	0	
0.0575	0.0288198	0.00569153	0.000772395	0.000186968	0	0	0	
0.0576667	-0.0316365	-0.00415424	0.000766175	0.000143015	0	0	0	
0.0578333	0.0319341	-0.00531665	0.000764337	0.000108639	0	0	0	
0.058	-0.0297646	0.0108587	0.000769596	0.000135792	0	0	0	
0.0581667	0.029795	0.00366497	0.000767659	0.00019684	0	0	0	
0.0583333	-0.0327114	-0.0100754	0.000770643	0.000259903	0	0	0	
0.0585	0.0322025	0.00578076	0.000777809	0.000232188	0	0	0	
0.0586667	-0.0279302	-0.00504988	0.000792958	0.00016956	0	0	0	
0.0588333	0.0295786	0.00374799	0.000786732	0.000127205	0	0	0	
0.059	-0.0300651	-0.00733437	0.000765061	0.000140325	0	0	0	
0.0591667	0.0299719	0.00445559	0.000756104	0.000166039	0	0	0	
0.0593333	-0.0314701	-0.00669065	0.00076265	0.000171249	0	0	0	
0.0595	0.030321	0.00500556	0.000769919	0.000153034	0	0	0	
0.0596667	-0.0307463	-0.00406321	0.000777075	0.000124378	0	0	0	
0.0598333	0.0312093	-0.0027927	0.00077002	9.18547E-05	0	0	0	
0.06	-0.0306042	-0.00404895	0.000767413	9.41766E-05	0	0	0	
0.0601667	0.0302338	0.00708458	0.000760331	0.00013503	0	0	0	
0.0603333	-0.0295511	-0.0039321	0.000763364	0.00016012	0	0	0	
0.0605	0.0298314	-0.000147135	0.000760131	0.000130372	0	0	0	
0.0606667	-0.0308969	-0.00238124	0.000766862	8.56591E-05	0	0	0	
0.0608333	0.0302787	4.48244E-05	0.000766626	6.65078E-05	0	0	0	
0.061	-0.0292222	-0.00181387	0.000767069	8.81781E-05	0	0	0	
0.0611667	0.029291	0.0166106	0.000759236	0.00016846	0	0	0	
0.0613333	-0.0293387	-0.0119745	0.000754214	0.000259559	0	0	0	
0.0615	0.0295435	0.00109478	0.000748719	0.000260582	0	0	0	
0.0616667	-0.0309584	-0.00588939	0.000751364	0.000181336	0	0	0	
0.0618333	0.0302852	0.00557994	0.00075668	0.000111125	0	0	0	
0.062	-0.029712	-0.00262223	0.000769489	9.24172E-05	0	0	0	
0.0621667	0.0307324	0.0131968	0.00076639	0.000120816	0	0	0	
0.0623333	-0.0277288	-0.0131406	0.00076948	0.00018712	0	0	0	
0.0625	0.0285266	-4.03904E-05	0.000758122	0.000237165	0	0	0	
0.0626667	-0.033253	0.0111704	0.000746748	0.000242349	0	0	0	
0.0628333	0.0376612	-0.00552418	0.000751702	0.000200007	0	0	0	
0.063	-0.0349643	-0.00452461	0.000789336	0.000164991	0	0	0	
0.0631667	0.0319594	0.00996561	0.000816414	0.000164782	0	0	0	
0.0633333	-0.0296869	-0.00908086	0.000814561	0.000168931	0	0	0	
0.0635	0.0246671	0.00506859	0.000803686	0.00018386	0	0	0	
0.0636667	-0.0159809	-0.00105019	0.000788151	0.000141634	0	0	0	
0.0638333	0.0182583	0.00152895	0.000696036	0.000124344	0	0	0	
0.064	-0.0329869	-0.00161404	0.000596385	0.000179312	0	0	0	
0.0641667	0.0403612	-0.00400589	0.000583566	0.000254262	0	0	0	
0.0643333	-0.0377877	0.00514189	0.00069869	0.000237876	0	0	0	
0.0645	0.0352821	-0.00692978	0.000821696	0.000178109	0	0	0	
0.0646667	-0.0292404	0.000888052	0.000893015	0.000107883	0	0	0	
0.0648333	0.0261172	0.00548845	0.000913122	0.000113922	0	0	0	
0.065	-0.0210035	-0.00517887	0.000866851	0.000126108	0	0	0	
0.0651667	0.0244135	0.0188114	0.000774951	0.000182101	0	0	0	
0.0653333	-0.0292092	-0.0152189	0.000684414	0.000259651	0	0	0	
0.0655	0.0313373	0.00238149	0.000660995	0.000269308	0	0	0	
0.0656667	-0.0342434	0.00218657	0.000704328	0.000257272	0	0	0	
0.0658333	0.0302284	0.00316805	0.000748041	0.000199133	0	0	0	
0.066	-0.0285858	0.00249505	0.000778684	0.000168813	0	0	0	
0.0661667	0.033413	0.00182648	0.000767008	0.000131315	0	0	0	
0.0663333	-0.0325852	-0.00274513	0.000769255	0.000105355	0	0	0	
0.0665	0.0296782	-0.000358777	0.000778739	0.000109941	0	0	0	
0.0666667	-0.0293711	0.00296382	0.000792411	0.000115839	0	0	0	
0.0668333	0.0288954	0.00624386	0.000777267	0.000109231	0	0	0	
0.067	-0.0314155	-0.00785559	0.000761661	0.000135449	0	0	0	
0.0671667	0.0298397	0.000535181	0.000750381	0.000117826	0	0	0	
0.0673333	-0.0276782	-0.000928987	0.000761924	0.000112578	0	0	0	
0.0675	0.0298851	-0.00326074	0.00076937	6.66725E-05	0	0	0	
0.0676667	-0.0295532	0.00122107	0.00077114	9.76798E-05	0	0	0	
0.0678333	0.0294239	0.00767995	0.000762046	0.000139929	0	0	0	
0.068	-0.0301903	-0.00495307	0.000749689	0.000176207	0	0	0	
0.0681667	0.0301694	0.00145451	0.000749999	0.000148383	0	0	0	
0.0683333	-0.0302057	0.00125597	0.000759276	9.24214E-05	0	0	0	
0.0685	0.0305366	0.0020595	0.000764667	5.36231E-05	0	0	0	
0.0686667	-0.0300093	-0.00441164	0.000755684	7.15825E-05	0	0	0	
0.0688333	0.0315718	0.0197428	0.000756472	0.000175976	0	0	0	
0.069	-0.0302347	-0.00937899	0.000758655	0.000278407	0	0	0	
0.0691667	0.0294737	-0.00462735	0.000765725	0.000309386	0	0	0	
0.0693333	-0.0292631	0.0112457	0.000763856	0.000269413	0	0	0	
0.0695	0.0294559	0.00164866	0.000769395	0.000216885	0	0	0	
0.0696667	-0.0301762	-0.00608581	0.00077168	0.00020405	0	0	0	
0.0698333	0.0308259	0.0109343	0.000769461	0.000197253	0	0	0	
0.07	-0.0285594	0.00216668	0.000765697	0.000211097	0	0	0	
0.0701667	0.0295621	-0.00896807	0.000768814	0.000235548	0	0	0	
0.0703333	-0.0298653	0.00572135	0.000764466	0.00022277	0	0	0	
0.0705	0.0308216	-0.00470292	0.000769411	0.000187657	0	0	0	
0.0706667	-0.0317201	-0.0074123	0.000776167	0.000170686	0	0	0	
0.0708333	0.0298783	0.00464425	0.000778216	0.000174457	0	0	0	
0.071	-0.0318738	0.00238628	0.00076962	0.000142499	0	0	0	
0.0711667	0.0323776	0.000529701	0.00076359	8.77384E-05	0	0	0	
0.0713333	-0.0290338	6.68483E-05	0.000772988	4.76418E-05	0	0	0	
0.0715	0.0299605	-0.00745894	0.000775689	7.05529E-05	0	0	0	
0.0716667	-0.0319622	-0.00575228	0.000768992	0.000128544	0	0	0	
0.0718333	0.0296613	0.00865539	0.000763416	0.00019148	0	0	0	
0.072	-0.0300189	-0.00602753	0.000764326	0.000200226	0	0	0	
0.0721667	0.0298428	-0.000207952	0.000764751	0.000166869	0	0	0	
0.0723333	-0.029385	0.00412128	0.00076628	0.000113582	0	0	0	
0.0725	0.0295528	-0.000806021	0.000759882	9.03817E-05	0	0	0	
0.0726667	-0.0309595	-0.00633227	0.000759837	9.39456E-05	0	0	0	
0.0728333	0.0303355	0.00832233	0.000760869	0.000127044	0	0	0	
0.073	-0.0309037	-0.00639914	0.00076069	0.00015904	0	0	0	
0.0731667	0.029381	-0.00479891	0.000749418	0.00017052	0	0	0	
0.0733333	-0.0317734	-0.000189247	0.000751667	0.00013967	0	0	0	
0.0735	0.0307606	0.00405371	0.00076122	0.000106978	0	0	0	
0.0736667	-0.0299198	-0.000327798	0.000778377	7.90838E-05	0	0	0	
0.0738333	0.0304413	0.00121659	0.000772103	5.91375E-05	0	0	0	
0.074	-0.0304907	-0.00794129	0.000770104	8.20324E-05	0	0	0	
0.0741667	0.0299836	-0.00189891	0.000762247	0.00010537	0	0	0	
0.0743333	-0.029746	0.00145453	0.00076195	0.000124185	0	0	0	
0.0745	0.0306038	0.0039831	0.00075835	9.39506E-05	0	0	0	
0.0746667	-0.0295879	0.000353657	0.000755078	7.15243E-05	0	0	0	
0.0748333	0.0299997	-0.00118815	0.000752293	6.19809E-05	0	0	0	
0.075	-0.0306124	-0.00718864	0.000755584	8.66505E-05	0	0	0	
0.0751667	0.0301287	0.00509792	0.000758172	0.000120619	0	0	0	
0.0753333	-0.0277055	0.00101795	0.000765096	0.000125659	0	0	0	
0.0755	0.0274066	-0.00380335	0.000759484	0.000112292	0	0	0	
0.0756667	-0.0278051	-0.00164421	0.000746066	7.8041E-05	0	0	0	
0.0758333	0.0311998	0.0023063	0.000724486	6.93363E-05	0	0	0	
0.076	-0.0312539	0.000808729	0.00072825	5.1648E-05	0	0	0	
0.0761667	0.0296328	-0.00243	0.000748702	6.32757E-05	0	0	0	
0.0763333	-0.0306308	-0.00456208	0.000766304	8.28601E-05	0	0	0	
0.0765	0.0294792	-0.00101795	0.000761166	8.95043E-05	0	0	0	
0.0766667	-0.0277548	-0.000998687	0.000765149	9.7428E-05	0	0	0	
0.0768333	0.0284902	0.00418668	0.00076469	0.000120868	0	0	0	
0.077	-0.0300072	0.00120211	0.000755701	0.000124204	0	0	0	
0.0771667	0.0322905	-0.000633391	0.000746398	0.000107884	0	0	0	
0.0773333	-0.0301802	-0.00913051	0.000754259	0.000111666	0	0	0	
0.0775	0.0268385	0.009461	0.000761838	0.000175671	0	0	0	
0.0776667	-0.0309734	-0.00627798	0.000753186	0.000204372	0	0	0	
0.0778333	0.0316435	0.00464954	0.000736019	0.000175235	0	0	0	
0.078	-0.0293929	0.00279854	0.000741206	0.000105673	0	0	0	
0.0781667	0.0315841	0.00105076	0.000752145	8.76176E-05	0	0	0	
0.0783333	-0.0296156	-0.0067319	0.000757931	8.95261E-05	0	0	0	
0.0785	0.0304495	0.0120968	0.000766372	0.000156902	0	0	0	
0.0786667	-0.0291064	-0.00350399	0.000762778	0.000187457	0	0	0	
0.0788333	0.0288312	-0.000782242	0.000762782	0.000174022	0	0	0	
0.079	-0.029228	0.00135875	0.00075226	9.57597E-05	0	0	0	
0.0791667	0.0299505	0.000542649	0.000751619	4.83936E-05	0	0	0	
0.0793333	-0.0304948	-0.00246112	0.000759167	4.9607E-05	0	0	0	
0.0795	0.0328051	0.00372356	0.000762413	7.5492E-05	0	0	0	
0.0796667	-0.0297859	0.0100387	0.000761952	0.000107015	0	0	0	
0.0798333	0.0312926	-0.000634595	0.000770277	0.000144174	0	0	0	
0.08	-0.0296026	-0.00695607	0.000768073	0.000164894	0	0	0	
0.0801667	0.0288067	0.00391008	0.000767956	0.000156069	0	0	0	
0.0803333	-0.0291467	-0.00168938	0.000754137	0.000109256	0	0	0	
0.0805	0.0271285	0.000370857	0.000749421	6.47659E-05	0	0	0	
0.0806667	-0.0305419	0.00495436	0.000754634	3.89961E-05	0	0	0	
0.0808333	0.0327368	0.00386139	0.000759224	8.18766E-05	0	0	0	
0.081	-0.0282734	-0.00587071	0.000769418	0.000132946	0	0	0	
0.0811667	0.0300323	0.00425743	0.000773377	0.000153452	0	0	0	
0.0813333	-0.0305319	0.000864672	0.000767725	0.000109024	0	0	0	
0.0815	0.0332301	0.0037167	0.000765723	8.01378E-05	0	0	0	
0.0816667	-0.0328166	-0.000350544	0.00076467	6.53813E-05	0	0	0	
0.0818333	0.0274229	0.00371942	0.000776014	5.99141E-05	0	0	0	
0.082	-0.0242081	-0.00355646	0.000765831	6.12354E-05	0	0	0	
0.0821667	0.0311486	-0.000871842	0.00072249	0.000104049	0	0	0	
0.0823333	-0.0612393	0.0218053	0.000749454	0.000175528	0	0	0	
0.0825	0.111979	-0.0675215	0.00105761	0.000407031	0	0	0	
0.0826667	-0.0210593	0.0250802	0.00116649	0.000648973	0	0	0	
0.0828333	0.0370517	-0.0195211	0.00111988	0.000763075	0	0	0	
0.083	-0.0316375	0.0107046	0.000823017	0.000682835	0	0	0	
0.0831667	0.0232855	-0.00857887	0.000759827	0.000545223	0	0	0	
0.0833333	-0.0262741	0.0187583	0.000750677	0.000486037	0	0	0	
0.0835	0.0451464	-0.0516533	0.000771213	0.000571433	0	0	0	
0.0836667	0.0552221	0.0118311	0.000833485	0.000853287	0	0	0	
0.0838333	0.0231945	-0.000263456	0.000827793	0.00095428	0	0	0	
0.084	-0.0258798	-0.0210118	0.000848259	0.00086263	0	0	0	
0.0841667	0.0301339	0.00984797	0.000794512	0.00055247	0	0	0	
0.0843333	-0.0333152	-0.00293606	0.000804203	0.000450438	0	0	0	
0.0845	0.0312919	-0.0126206	0.000742428	0.000426456	0	0	0	
0.0846667	-0.0306973	0.00758132	0.000749656	0.000472059	0	0	0	
0.0848333	0.0325707	-0.00122287	0.00078987	0.000460054	0	0	0	
0.085	-0.0312301	0.00677111	0.000815543	0.000341944	0	0	0	
0.0851667	0.0339311	-0.00863009	0.000794681	0.000206568	0	0	0	
0.0853333	-0.031411	0.0133033	0.000784402	0.000160558	0	0	0	
0.0855	0.0177022	-0.00327103	0.000796686	0.000195606	0	0	0	
0.0856667	0.0212525	-0.0255369	0.000908339	0.000274702	0	0	0	
0.0858333	-0.00280406	0.034041	0.0010182	0.000387491	0	0	0	
0.086	-0.0313313	-0.0116174	0.00108053	0.000628736	0	0	0	
0.0861667	0.0281369	0.00617051	0.000963006	0.000639777	0	0	0	
0.0863333	-0.0283831	-0.00350682	0.000809089	0.000521306	0	0	0	
0.0865	0.0321501	-0.00433964	0.000729831	0.000261014	0	0	0	
0.0866667	-0.0123051	-0.00210811	0.000746272	0.000160946	0	0	0	
0.0868333	0.063768	-0.00609985	0.00106561	0.000194189	0	0	0	
0.087	-0.0169444	-0.00302178	0.00126571	0.000331044	0	0	0	
0.0871667	0.02799	-0.0105534	0.00145559	0.000527823	0	0	0	
0.0873333	-0.025837	0.00813857	0.00120266	0.000583055	0	0	0	
0.0875	0.0311094	-0.00753413	0.000985126	0.000484366	0	0	0	
0.0876667	-0.0348742	0.00913632	0.000772164	0.00032502	0	0	0	
0.0878333	0.0286752	-0.0034626	0.00072209	0.000206509	0	0	0	
0.088	-0.0204398	-0.00362923	0.000726102	0.000168041	0	0	0	
0.0881667	0.0403494	0.00823569	0.000838992	0.000176277	0	0	0	
0.0883333	-0.0315646	-0.0104025	0.00091631	0.000196768	0	0	0	
0.0885	0.0301844	0.00755038	0.000951119	0.000204872	0	0	0	
0.0886667	-0.0264262	-0.00746907	0.000829349	0.000165143	0	0	0	
0.0888333	0.0269141	-0.00285227	0.0007351	0.000138436	0	0	0	
0.089	-0.0318043	0.00710521	0.00071266	0.000138724	0	0	0	
0.0891667	0.050288	0.00768027	0.000773303	0.000160561	0	0	0	
0.0893333	-0.041478	-0.00886009	0.000895291	0.000174264	0	0	0	
0.0895	0.0334945	0.0061928	0.000904504	0.000203248	0	0	0	
0.0896667	-0.0284654	-0.00451871	0.000890729	0.000199713	0	0	0	
0.0898333	0.0284233	-0.00272553	0.000826374	0.000197533	0	0	0	
0.09	-0.0292556	-0.00164049	0.000808574	0.000151123	0	0	0	
0.0901667	0.0301797	0.0184604	0.000769767	0.000188305	0	0	0	
0.0903333	-0.030589	-0.00795212	0.000747887	0.000236648	0	0	0	
0.0905	0.0290435	0.00345678	0.000760823	0.000227973	0	0	0	
0.0906667	-0.0294447	0.00332953	0.000764559	0.000157552	0	0	0	
0.0908333	0.0308904	-0.0126062	0.000758809	0.000141143	0	0	0	
0.091	-0.0289757	0.00559275	0.000760948	0.000194649	0	0	0	
0.0911667	0.0300595	0.00680779	0.000770852	0.000216116	0	0	0	
0.0913333	-0.0288332	0.0011119	0.000752499	0.000173179	0	0	0	
0.0915	0.0296232	0.000435163	0.000735151	0.000116939	0	0	0	
0.0916667	-0.0296786	0.00609972	0.000726363	0.000116212	0	0	0	
0.0918333	0.0300712	-0.01459	0.000747505	0.000178823	0	0	0	
0.092	-0.0302314	0.00468761	0.000760642	0.000240213	0	0	0	
0.0921667	0.0299435	0.00806562	0.000765058	0.000256415	0	0	0	
0.0923333	-0.0282351	0.00163165	0.00076251	0.000191575	0	0	0	
0.0925	0.030582	0.000245541	0.000762261	0.000129276	0	0	0	
0.0926667	-0.0304527	0.00450017	0.000765999	8.56609E-05	0	0	0	
0.0928333	0.029367	-0.00800788	0.00076851	0.000115155	0	0	0	
0.093	-0.0296942	-0.00719817	0.000769509	0.000162408	0	0	0	
0.0931667	0.0292302	0.00863883	0.000766831	0.000208802	0	0	0	
0.0933333	-0.0309827	-0.00304341	0.000769929	0.00019683	0	0	0	
0.0935	0.0302288	0.00427901	0.00076226	0.000131223	0	0	0	
0.0936667	-0.0282546	-0.00341758	0.000762207	9.63213E-05	0	0	0	
0.0938333	0.030201	-0.000918555	0.000753055	7.24393E-05	0	0	0	
0.094	-0.0298205	-0.0031602	0.000753579	9.72174E-05	0	0	0	
0.0941667	0.0325521	0.00264279	0.000765686	9.73486E-05	0	0	0	
0.0943333	-0.0301919	-0.00237276	0.000783951	8.75886E-05	0	0	0	
0.0945	0.0276806	0.00454263	0.000787172	8.25984E-05	0	0	0	
0.0946667	-0.0287995	0.00585726	0.000767837	8.03121E-05	0	0	0	
0.0948333	0.0295102	-0.00464512	0.00074625	0.000131647	0	0	0	
0.095	-0.0296433	-0.00368952	0.00074423	0.000176199	0	0	0	
0.0951667	0.0325026	0.00491517	0.000749927	0.000207136	0	0	0	
0.0953333	-0.0321847	-0.0023745	0.000770407	0.000177718	0	0	0	
0.0955	0.0319677	-0.00218578	0.000799506	0.000119109	0	0	0	
0.0956667	-0.0288489	0.00528638	0.000820118	8.12209E-05	0	0	0	
0.0958333	0.0294022	0.00215393	0.000804672	0.000107834	0	0	0	
0.096	-0.0301829	-0.011137	0.000767497	0.000186123	0	0	0	
0.0961667	0.0304843	0.0136324	0.000744352	0.000260046	0	0	0	
0.0963333	-0.0304144	-0.00754218	0.000748372	0.000285826	0	0	0	
0.0965	0.031373	-0.004157	0.000756168	0.000232809	0	0	0	
0.0966667	-0.0296537	-0.00337269	0.000760461	0.000158859	0	0	0	
0.0968333	0.0319127	0.00788486	0.000758738	0.00012326	0	0	0	
0.097	-0.0303113	-0.00413583	0.000763274	0.000115673	0	0	0	
0.0971667	0.02859	0.00392019	0.000765741	0.000116785	0	0	0	
0.0973333	-0.0300039	-0.00210509	0.00076796	9.27885E-05	0	0	0	
0.0975	0.0298043	-0.00091017	0.000757927	7.52548E-05	0	0	0	
0.0976667	-0.0289104	-0.00169988	0.000753135	5.66656E-05	0	0	0	
0.0978333	0.0309127	0.00489782	0.000748619	5.71893E-05	0	0	0	
0.098	-0.0302482	-0.00690499	0.000754737	8.24741E-05	0	0	0	
0.0981667	0.0303837	0.00815785	0.000761353	0.000142612	0	0	0	
0.0983333	-0.0306145	0.00300527	0.000763508	0.000149018	0	0	0	
0.0985	0.0305848	0.00383115	0.000766104	0.000136095	0	0	0	
0.0986667	-0.0305558	-0.00684255	0.000767096	0.000115018	0	0	0	
0.0988333	0.0312725	0.0086927	0.000768962	0.000127204	0	0	0	
0.099	-0.0305696	-0.00929886	0.000768753	0.000163017	0	0	0	
0.0991667	0.0295938	0.00321324	0.000767188	0.000179104	0	0	0	
0.0993333	-0.0304013	0.00289314	0.000771844	0.000172527	0	0	0	
0.0995	0.0282067	-0.00218207	0.000768252	0.000142602	0	0	0	
0.0996667	-0.0290056	-0.001507	0.000766927	9.44325E-05	0	0	0	
0.0998333	0.0292042	0.00414738	0.000761151	7.03785E-05	0	0	0	
0.1	-0.0290709	-0.00165684	0.000768244	7.2833E-05	0	0	0	
0.100167	0.0300227	-0.0039751	0.000768943	8.97714E-05	0	0	0	
0.100333	-0.0299424	0.00545184	0.000767231	0.000113148	0	0	0	
0.1005	0.033276	-0.00429229	0.000758539	0.000112261	0	0	0	
0.100667	-0.0350233	0.00144373	0.00076242	0.000113023	0	0	0	
0.100833	0.0284779	0.00963496	0.000791906	0.000110156	0	0	0	
0.101	-0.0264632	-0.0156822	0.000821325	0.000179536	0	0	0	
0.101167	0.0295519	-0.00355467	0.0008169	0.000247581	0	0	0	
0.101333	-0.0361117	0.00894628	0.000826351	0.000354349	0	0	0	
0.1015	0.0292577	-0.00049354	0.000822207	0.000350309	0	0	0	
0.101667	-0.0237506	-0.00709093	0.000807033	0.000316175	0	0	0	
0.101833	0.0342494	0.00398456	0.000749997	0.000272912	0	0	0	
0.102	-0.0393365	-0.00233032	0.0007483	0.000286778	0	0	0	
0.102167	0.0358149	-0.00134368	0.000835311	0.000272103	0	0	0	
0.102333	-0.0334591	-0.00929489	0.000918315	0.000219745	0	0	0	
0.1025	0.0286086	0.0171497	0.000903714	0.000213389	0	0	0	
0.102667	-0.028517	-0.0146132	0.000820755	0.000279845	0	0	0	
0.102833	0.0271069	0.010534	0.000740158	0.000310689	0	0	0	
0.103	-0.0283764	-0.00810914	0.000712802	0.000269275	0	0	0	
0.103167	0.0333598	0.00666425	0.000705056	0.000310099	0	0	0	
0.103333	-0.0339814	0.00295735	0.000726225	0.000377458	0	0	0	
0.1035	0.0325128	-0.00978672	0.000769837	0.000376668	0	0	0	
0.103667	-0.0281274	0.00250979	0.000812594	0.00024085	0	0	0	
0.103833	0.0240623	0.000403472	0.000804463	0.000135144	0	0	0	
0.104	-0.0269693	-0.00426129	0.000765274	8.57824E-05	0	0	0	
0.104167	0.030659	0.00456842	0.000718612	8.82855E-05	0	0	0	
0.104333	-0.031479	-0.00442308	0.000724776	8.57799E-05	0	0	0	
0.1045	0.0288251	-0.0051497	0.000746266	0.00010243	0	0	0	
0.104667	-0.0292716	-0.00450381	0.000776188	0.000106812	0	0	0	
0.104833	0.0292677	-0.00200227	0.000767626	8.47536E-05	0	0	0	
0.105	-0.029118	0.00152439	0.000762564	8.44415E-05	0	0	0	
0.105167	0.0271234	-0.00169707	0.000745065	7.12127E-05	0	0	0	
0.105333	-0.0283525	0.00295223	0.000746555	7.00697E-05	0	0	0	
0.1055	0.0288597	-0.0043078	0.000740244	6.44696E-05	0	0	0	
0.105667	-0.0293385	-0.00498992	0.0007452	8.45849E-05	0	0	0	
0.105833	0.0298721	-0.000754931	0.000746421	0.000100115	0	0	0	
0.106	-0.028966	-0.000548317	0.000754187	0.000105436	0	0	0	
0.106167	0.0277913	0.00800939	0.000750676	0.00012483	0	0	0	
0.106333	-0.0289424	-0.00563849	0.000744099	0.00013411	0	0	0	
0.1065	0.0308353	-8.33064E-06	0.000739284	0.000127486	0	0	0	
0.106667	-0.0317202	-0.00222046	0.000747112	9.5186E-05	0	0	0	
0.106833	0.0302509	0.00887952	0.0007623	0.000116009	0	0	0	
0.107	-0.0292667	-0.00100163	0.000778378	0.000134124	0	0	0	
0.107167	0.0286231	1.28715E-05	0.000778967	0.000118897	0	0	0	
0.107333	-0.0297519	-0.00101106	0.000768911	6.60576E-05	0	0	0	
0.1075	0.0299578	0.00318195	0.000748664	4.10443E-05	0	0	0	
0.107667	-0.0294008	-0.00505652	0.000754316	6.3628E-05	0	0	0	
0.107833	0.029936	0.0107763	0.000772492	0.000111116	0	0	0	
0.108	-0.032086	-0.0124324	0.000789276	0.000177306	0	0	0	
0.108167	0.0309486	0.000575486	0.000780484	0.000209851	0	0	0	
0.108333	-0.02957	-0.000196035	0.000766942	0.000177581	0	0	0	
0.1085	0.0289296	0.00426088	0.000749994	0.000137703	0	0	0	
0.108667	-0.0315007	-0.0126661	0.000745226	0.000147352	0	0	0	
0.108833	0.0305167	0.00132207	0.000752824	0.0001843	0	0	0	
0.109	-0.0297273	-0.010084	0.0007784	0.000166663	0	0	0	
0.109167	0.0276994	0.00523307	0.000772915	0.000175288	0	0	0	
0.109333	-0.0291456	0.0042001	0.000755192	0.000163895	0	0	0	
0.1095	0.0302137	0.00316088	0.000733821	0.000158113	0	0	0	
0.109667	-0.0295832	-0.00984029	0.000745313	0.000121036	0	0	0	
0.109833	0.0293528	0.00490509	0.000757612	0.000151789	0	0	0	
0.11	-0.0283132	0.00188513	0.000756215	0.000186094	0	0	0	
0.110167	0.0266018	-0.00684554	0.000746255	0.000189023	0	0	0	
0.110333	-0.029316	0.00233086	0.000739434	0.000159652	0	0	0	
0.1105	0.0293367	0.00768631	0.000731	0.000155155	0	0	0	
0.110667	-0.028796	0.000428324	0.00072796	0.00014227	0	0	0	
0.110833	0.0315477	-0.00299728	0.000736765	0.000108101	0	0	0	
0.111	-0.0300117	0.00354184	0.000756292	7.91352E-05	0	0	0	
0.111167	0.0290016	-0.00238606	0.000775295	6.74904E-05	0	0	0	
0.111333	-0.0279106	-0.00204961	0.000767793	7.64914E-05	0	0	0	
0.1115	0.0285606	0.00922572	0.000756356	0.000107557	0	0	0	
0.111667	-0.0291571	-0.00840651	0.000744656	0.000149169	0	0	0	
0.111833	0.0316094	0.00977481	0.000750206	0.000180267	0	0	0	
0.112	-0.0303704	-0.00480059	0.000762646	0.000181339	0	0	0	
0.112167	0.031038	0.00370429	0.000773253	0.000144886	0	0	0	
0.112333	-0.0289508	0.00325013	0.000770194	0.000125857	0	0	0	
0.1125	0.0293856	-0.00682518	0.000762869	0.000125447	0	0	0	
0.112667	-0.0295609	-0.00161519	0.000758795	0.00013179	0	0	0	
0.112833	0.031142	0.0100717	0.000758685	0.000149398	0	0	0	
0.113	-0.0314764	0.00313422	0.000758186	0.000150967	0	0	0	
0.113167	0.0325771	-0.00549969	0.000764074	0.000178109	0	0	0	
0.113333	-0.0298796	-0.00113411	0.000780956	0.00015896	0	0	0	
0.1135	0.0308458	-0.00245322	0.000793688	0.00011237	0	0	0	
0.113667	-0.0301164	0.00937131	0.00079248	9.45603E-05	0	0	0	
0.113833	0.0298047	-0.00536276	0.000779216	0.000131908	0	0	0	
0.114	-0.0294013	-0.000462302	0.000762301	0.000171835	0	0	0	
0.114167	0.0297454	0.00333338	0.000745135	0.000168381	0	0	0	
0.114333	-0.031418	-0.00874532	0.000745315	0.000159891	0	0	0	
0.1145	0.0312724	0.000264644	0.000760034	0.000142989	0	0	0	
0.114667	-0.0282966	0.0123757	0.000782334	0.000145542	0	0	0	
0.114833	0.0295671	-0.00418041	0.000769078	0.000182332	0	0	0	
0.115	-0.0285933	-0.0026392	0.000747473	0.000222804	0	0	0	
0.115167	0.0296464	0.00501459	0.000746998	0.000235512	0	0	0	
0.115333	-0.0297579	-0.00311879	0.000765646	0.000168716	0	0	0	
0.1155	0.0295678	-0.00137192	0.000787681	0.000119609	0	0	0	
0.115667	-0.0270279	0.000691304	0.000788001	8.0276E-05	0	0	0	
0.115833	0.0141992	0.00322662	0.000713927	8.52922E-05	0	0	0	
0.116	0.0775041	-0.0282067	0.000761827	0.000158284	0	0	0	
0.116167	0.0298313	0.0152222	0.000861987	0.000299562	0	0	0	
0.116333	-0.032528	-0.0106676	0.000939612	0.000405398	0	0	0	
0.1165	0.0319659	-0.00670625	0.000875318	0.000418846	0	0	0	
0.116667	-0.0318177	0.00346823	0.000768367	0.000314163	0	0	0	
0.116833	0.0373332	0.000194036	0.000839615	0.000187285	0	0	0	
0.117	-0.0366982	0.00325749	0.000848691	0.000104428	0	0	0	
0.117167	0.0327844	0.0169794	0.000862679	0.000107736	0	0	0	
0.117333	-0.0300887	-0.0136187	0.000797808	0.000210688	0	0	0	
0.1175	0.0295648	0.00479439	0.000800171	0.000237503	0	0	0	
0.117667	-0.0288757	-0.00103468	0.000779364	0.00020069	0	0	0	
0.117833	0.0306791	-0.000283711	0.000755861	0.000112224	0	0	0	
0.118	-0.033015	-0.00151308	0.0007641	0.000115412	0	0	0	
0.118167	0.0301133	0.00665821	0.000766312	0.000183084	0	0	0	
0.118333	-0.0293782	-0.00310729	0.000772294	0.000222512	0	0	0	
0.1185	0.0320487	0.00526623	0.000771885	0.000218208	0	0	0	
0.118667	-0.030867	-0.0021762	0.000778396	0.000152248	0	0	0	
0.118833	0.0286095	0.000366071	0.000781522	8.7793E-05	0	0	0	
0.119	-0.0273576	0.0030505	0.000774396	4.28954E-05	0	0	0	
0.119167	0.0266688	-0.00437219	0.000763948	4.83431E-05	0	0	0	
0.119333	-0.0279755	0.0010294	0.0007564	7.31537E-05	0	0	0	
0.1195	0.0288806	0.00865567	0.000730234	0.000118126	0	0	0	
0.119667	-0.0293591	-0.00443629	0.000722327	0.000150206	0	0	0	
0.119833	0.030638	-0.000296617	0.000734852	0.000124791	0	0	0	
0.12	-0.0293983	0.000640163	0.000771116	7.61283E-05	0	0	0	
0.120167	0.0301411	-0.00252473	0.000791144	2.78368E-05	0	0	0	
0.120333	-0.0315383	-0.00112436	0.000785918	5.13195E-05	0	0	0	
0.1205	0.0292909	0.00270632	0.000768608	8.6264E-05	0	0	0	
0.120667	-0.0284633	-0.00907029	0.000764183	0.000125652	0	0	0	
0.120833	0.0314971	0.00619892	0.000758503	0.000159409	0	0	0	
0.121	-0.0320821	-0.00268172	0.000755866	0.000138581	0	0	0	
0.121167	0.0296878	-0.000765481	0.000753795	9.81052E-05	0	0	0	
0.121333	-0.030479	0.0014575	0.000765119	5.31992E-05	0	0	0	
0.1215	0.0270231	0.00455889	0.000764575	6.49654E-05	0	0	0	
0.121667	-0.02665	-0.00220086	0.000754773	7.81806E-05	0	0	0	
0.121833	0.0280282	-0.00197265	0.000735354	7.3012E-05	0	0	0	
0.122	-0.0288556	0.00198535	0.000728251	6.93742E-05	0	0	0	
0.122167	0.0284368	0.00156515	0.000727597	5.64809E-05	0	0	0	
0.122333	-0.0312062	0.00158906	0.000742074	4.80912E-05	0	0	0	
0.1225	0.0337136	0.00134806	0.000765494	4.99276E-05	0	0	0	
0.122667	-0.0317434	0.000462748	0.00077407	7.8486E-05	0	0	0	
0.122833	0.0299115	-0.00476096	0.000769214	0.000129461	0	0	0	
0.123	-0.0301849	-0.0058759	0.000758612	0.000193694	0	0	0	
0.123167	0.0286856	0.00480642	0.000759282	0.000231455	0	0	0	
0.123333	-0.0293881	0.000259275	0.000760206	0.000196428	0	0	0	
0.1235	0.0311595	0.00140088	0.00075932	0.000116829	0	0	0	
0.123667	-0.0306302	-0.0040556	0.000758915	6.62667E-05	0	0	0	
0.123833	0.0308584	0.00980074	0.000761332	0.000108576	0	0	0	
0.124	-0.0295211	-0.00816998	0.000762885	0.000155125	0	0	0	
0.124167	0.0296582	0.00529287	0.000776302	0.000181131	0	0	0	
0.124333	-0.0286677	-0.00157048	0.000785044	0.000130828	0	0	0	
0.1245	0.0266937	0.000967184	0.00077711	8.18849E-05	0	0	0	
0.124667	-0.0279254	0.00117227	0.000741631	3.72281E-05	0	0	0	
0.124833	0.0308739	-0.000183813	0.000716054	3.87297E-05	0	0	0	
0.125	-0.033892	-0.00218927	0.000734635	3.82693E-05	0	0	0	
0.125167	0.0314661	0.0013522	0.000763422	4.695E-05	0	0	0	
0.125333	-0.0323371	0.00173709	0.000784297	4.01049E-05	0	0	0	
0.1255	0.0295097	-0.00313376	0.000780439	5.12551E-05	0	0	0	
0.125667	-0.0268157	0.00523451	0.000786545	6.35091E-05	0	0	0	
0.125833	0.028881	-0.00427974	0.000779692	0.000116097	0	0	0	
0.126	-0.0323511	-0.00327869	0.000767633	0.000156395	0	0	0	
0.126167	0.0304787	0.0056819	0.000747402	0.000180584	0	0	0	
0.126333	-0.0288662	0.00396433	0.000753636	0.000154187	0	0	0	
0.1265	0.0276353	-0.00504268	0.000751293	0.000130055	0	0	0	
0.126667	-0.0304075	-0.000392162	0.000752224	0.00010753	0	0	0	
0.126833	0.0299182	0.00644336	0.000747837	0.000113587	0	0	0	
0.127	-0.0311182	-0.0141717	0.000774601	0.00016986	0	0	0	
0.127167	0.0269883	0.00360066	0.000778579	0.000213074	0	0	0	
0.127333	-0.0309399	-0.000613789	0.000776025	0.000180405	0	0	0	
0.1275	0.0303577	0.00169945	0.000745485	9.26368E-05	0	0	0	
0.127667	-0.0291479	-0.0039165	0.000748112	3.16158E-05	0	0	0	
0.127833	0.0297906	0.0055988	0.000747153	6.13927E-05	0	0	0	
0.128	-0.0299862	-0.00182411	0.000756628	9.01606E-05	0	0	0	
0.128167	0.0295475	0.000831186	0.000761242	0.000103861	0	0	0	
0.128333	-0.030328	-0.0024288	0.000765615	7.60131E-05	0	0	0	
0.1285	0.0297467	0.00747919	0.000765378	8.35117E-05	0	0	0	
0.128667	-0.0305905	-0.00383035	0.000759035	9.97419E-05	0	0	0	
0.128833	0.0307106	0.00225441	0.000756516	0.000117531	0	0	0	
0.129	-0.0274108	0.00587916	0.000762411	0.000103739	0	0	0	
0.129167	0.0298491	-0.00467074	0.000762724	0.000124602	0	0	0	
0.129333	-0.0346636	-0.000774461	0.000764985	0.000152231	0	0	0	
0.1295	0.0398232	0.0156739	0.000792312	0.00019188	0	0	0	
0.129667	-0.0351305	-0.014932	0.000842547	0.000263815	0	0	0	
0.129833	0.0318623	0.00883429	0.00087828	0.000296465	0	0	0	
0.13	-0.0263111	-0.00196011	0.000856452	0.000276236	0	0	0	
0.130167	0.0209928	0.00999052	0.000802899	0.00015838	0	0	0	
0.130333	-0.0212822	-0.0182256	0.000725928	0.000176348	0	0	0	
0.1305	0.0338509	0.0163584	0.000660748	0.00024584	0	0	0	
0.130667	-0.0421372	0.002604	0.00066179	0.000294296	0	0	0	
0.130833	0.0394519	-0.0103943	0.000741319	0.000254983	0	0	0	
0.131	-0.0292134	0.00187718	0.000829655	0.000167474	0	0	0	
0.131167	0.0260384	9.46491E-06	0.000847138	0.000152586	0	0	0	
0.131333	-0.026919	-0.00372963	0.00082304	0.000144764	0	0	0	
0.1315	0.0257073	0.016453	0.000792337	0.000178434	0	0	0	
0.131667	-0.0249936	-0.0106141	0.000750892	0.000235149	0	0	0	
0.131833	0.0302654	0.00343877	0.000706966	0.000200743	0	0	0	
0.132	-0.0320736	-0.00362677	0.000703611	0.000202589	0	0	0	
0.132167	0.0308945	0.000469757	0.000746234	0.000138595	0	0	0	
0.132333	-0.0310026	-0.00322899	0.000787696	0.000136074	0	0	0	
0.1325	0.0312756	0.010165	0.000788016	0.000115168	0	0	0	
0.132667	-0.0310482	-0.00802687	0.000788665	0.000143702	0	0	0	
0.132833	0.0296086	0.00483649	0.000786091	0.000159883	0	0	0	
0.133	-0.0270391	-0.00234547	0.000784591	0.000146073	0	0	0	
0.133167	0.0281107	0.000729463	0.000763827	8.02815E-05	0	0	0	
0.133333	-0.0281897	-0.0052316	0.000734448	6.23719E-05	0	0	0	
0.1335	0.0294455	0.00612686	0.000716477	7.23455E-05	0	0	0	
0.133667	-0.0321217	-0.00691658	0.000729933	0.000102754	0	0	0	
0.133833	0.0294169	0.0102894	0.000761215	0.00013143	0	0	0	
0.134	-0.0276068	-0.00261317	0.000790542	0.000157024	0	0	0	
0.134167	0.0284514	0.000344561	0.000777705	0.000137517	0	0	0	
0.134333	-0.0272468	-0.0032916	0.000758316	0.000109957	0	0	0	
0.1345	0.0288615	0.00300659	0.000736598	6.39354E-05	0	0	0	
0.134667	-0.0306996	-0.00484547	0.000738719	7.0974E-05	0	0	0	
0.134833	0.0326491	0.0055532	0.000754803	9.07041E-05	0	0	0	
0.135	-0.0303535	0.00346885	0.000769454	0.00011152	0	0	0	
0.135167	0.0296517	-0.00569909	0.000771423	0.000136261	0	0	0	
0.135333	-0.0308764	0.000755819	0.000777016	0.000113317	0	0	0	
0.1355	0.027486	0.000495045	0.000778883	7.60919E-05	0	0	0	
0.135667	-0.0282252	-0.00724766	0.000784248	5.54581E-05	0	0	0	
0.135833	0.0275434	0.00854723	0.000757455	0.00010037	0	0	0	
0.136	-0.0264225	0.00471412	0.000737389	0.000143295	0	0	0	
0.136167	0.0309838	-0.00210139	0.000721167	0.000161201	0	0	0	
0.136333	-0.0322968	-0.0048176	0.000736304	0.000152809	0	0	0	
0.1365	0.0293654	0.00250609	0.000766196	0.000146826	0	0	0	
0.136667	-0.0292224	-0.00526511	0.000785557	0.00012602	0	0	0	
0.136833	0.0276227	0.00962713	0.000780814	0.000136161	0	0	0	
0.137	-0.0282416	-0.00385662	0.000771908	0.000175454	0	0	0	
0.137167	0.0257133	0.00228812	0.00075834	0.000176887	0	0	0	
0.137333	-0.028375	-0.00636261	0.000747525	0.00014575	0	0	0	
0.1375	0.0326952	0.00193038	0.000735759	9.51105E-05	0	0	0	
0.137667	-0.0309632	-0.00215732	0.000757182	8.10296E-05	0	0	0	
0.137833	0.0281923	0.00187538	0.000784479	6.1433E-05	0	0	0	
0.138	-0.0290218	-0.00616819	0.000791408	7.24763E-05	0	0	0	
0.138167	0.029979	0.000213615	0.000783094	0.000138245	0	0	0	
0.138333	-0.0265867	0.00341808	0.000771632	0.000166148	0	0	0	
0.1385	0.0254646	-0.00306817	0.000765174	0.000152507	0	0	0	
0.138667	-0.029251	0.00124472	0.000747896	9.15736E-05	0	0	0	
0.138833	0.0317475	0.000270766	0.000731952	4.9726E-05	0	0	0	
0.139	-0.0305029	-0.00228448	0.000753207	3.30099E-05	0	0	0	
0.139167	0.0294507	-0.00378248	0.000784315	3.7807E-05	0	0	0	
0.139333	-0.0288367	0.00433904	0.000807993	8.38203E-05	0	0	0	
0.1395	0.0303102	0.00349997	0.000790553	0.00010722	0	0	0	
0.139667	-0.0280799	0.000823501	0.000762964	0.000110472	0	0	0	
0.139833	0.028459	-0.00102274	0.000743861	7.84E-05	0	0	0	
0.14	-0.0301655	0.000543331	0.000741349	4.95767E-05	0	0	0	
0.140167	0.0306242	-0.00346335	0.000756049	3.2777E-05	0	0	0	
0.140333	-0.0308205	-0.00254569	0.000774096	5.61368E-05	0	0	0	
0.1405	0.0273007	0.00835437	0.000771388	0.000111911	0	0	0	
0.140667	-0.027218	-0.00106377	0.000757043	0.000163152	0	0	0	
0.140833	0.0279054	-0.00184393	0.000738147	0.000165252	0	0	0	
0.141	-0.0300371	-5.62226E-05	0.000740939	0.000119006	0	0	0	
0.141167	0.0311683	-0.00220796	0.000747016	6.56122E-05	0	0	0	
0.141333	-0.0294139	0.000174267	0.00075988	4.61059E-05	0	0	0	
0.1415	0.0295457	0.00445026	0.000775059	6.65603E-05	0	0	0	
0.141667	-0.0298529	0.00189564	0.000779241	0.000111458	0	0	0	
0.141833	0.0295186	-0.00435356	0.000780465	0.000141512	0	0	0	
0.142	-0.03132	0.000936421	0.000778523	0.000128293	0	0	0	
0.142167	0.028382	-0.00258206	0.000776605	9.03923E-05	0	0	0	
0.142333	-0.0287295	-5.42538E-05	0.000769143	5.80489E-05	0	0	0	
0.1425	0.0281246	0.00130145	0.000757371	5.07848E-05	0	0	0	
0.142667	-0.0317799	-0.00543377	0.000763582	5.18376E-05	0	0	0	
0.142833	0.0293986	0.00748137	0.000763484	8.86213E-05	0	0	0	
0.143	-0.0289747	-0.00293189	0.00077394	0.000135948	0	0	0	
0.143167	0.0269886	-0.00317032	0.000765009	0.000159227	0	0	0	
0.143333	-0.0289171	0.00178952	0.000760213	0.000134823	0	0	0	
0.1435	0.0305352	0.00266673	0.000759152	9.31189E-05	0	0	0	
0.143667	-0.029548	-0.00559639	0.000768271	7.86937E-05	0	0	0	
0.143833	0.0267275	0.00697148	0.000778631	0.000106339	0	0	0	
0.144	-0.0287797	0.00138876	0.000778655	0.000150988	0	0	0	
0.144167	0.0289891	-0.00270488	0.000772783	0.000173444	0	0	0	
0.144333	-0.0303659	0.00215003	0.000770152	0.00013837	0	0	0	
0.1445	0.030554	0.00087755	0.000762885	8.66332E-05	0	0	0	
0.144667	-0.0289301	0.00439071	0.000761976	5.7408E-05	0	0	0	
0.144833	0.0309648	0.00167511	0.000772138	5.8199E-05	0	0	0	
0.145	-0.0281148	-0.00194469	0.000769114	6.85653E-05	0	0	0	
0.145167	0.0270764	-0.000792149	0.000764463	5.90652E-05	0	0	0	
0.145333	-0.0262544	-0.00158619	0.000743204	4.70413E-05	0	0	0	
0.1455	0.028456	0.00376521	0.000734467	5.16806E-05	0	0	0	
0.145667	-0.030111	0.00370343	0.000735262	6.28655E-05	0	0	0	
0.145833	0.0289326	0.00243752	0.000753173	8.67277E-05	0	0	0	
0.146	-0.0263013	-0.00446215	0.000766576	0.000101786	0	0	0	
0.146167	0.0280738	0.00226316	0.00076526	9.56292E-05	0	0	0	
0.146333	-0.0280092	-0.000976668	0.00075492	7.63055E-05	0	0	0	
0.1465	0.0298549	0.00144207	0.000756784	4.85825E-05	0	0	0	
0.146667	-0.0276625	0.00201439	0.000759177	4.37773E-05	0	0	0	
0.146833	0.0286068	0.00131636	0.000759917	3.69813E-05	0	0	0	
0.147	-0.0272974	0.00061201	0.000751488	3.15151E-05	0	0	0	
0.147167	0.0283443	-0.00250329	0.000756169	3.29709E-05	0	0	0	
0.147333	-0.0288968	0.00186942	0.000759158	5.34661E-05	0	0	0	
0.1475	0.0293363	0.00272181	0.000766318	7.25166E-05	0	0	0	
0.147667	-0.0291411	0.00016882	0.000767074	8.04478E-05	0	0	0	
0.147833	0.0291523	-0.00198849	0.000764985	6.49586E-05	0	0	0	
0.148	-0.026387	0.00296444	0.000758105	6.62677E-05	0	0	0	
0.148167	0.0288402	0.0103719	0.000757459	0.000119492	0	0	0	
0.148333	-0.0276768	-0.00561862	0.000758026	0.000158311	0	0	0	
0.1485	0.0294438	0.00848263	0.000767334	0.000181842	0	0	0	
0.148667	-0.0295494	-0.00121294	0.000767041	0.000160384	0	0	0	
0.148833	0.0264368	-0.00536758	0.000774395	0.000138694	0	0	0	
0.149	-0.0255485	0.00609843	0.000769703	0.000129773	0	0	0	
0.149167	0.0300664	0.00765613	0.000758048	0.000125393	0	0	0	
0.149333	-0.0291365	-0.00320823	0.000754289	0.000154855	0	0	0	
0.1495	0.0286038	-0.00234997	0.000774211	0.000151052	0	0	0	
0.149667	-0.0264538	0.00604641	0.000777426	0.000149915	0	0	0	
0.149833	0.0283674	-0.00114872	0.000756306	0.000112989	0	0	0	
0.15	-0.02776	0.000728142	0.000738816	7.34749E-05	0	0	0	
0.150167	0.0267152	-0.00304781	0.000755341	4.74505E-05	0	0	0	
0.150333	-0.0254446	0.00573399	0.000768154	3.98712E-05	0	0	0	
0.1505	0.029783	-0.00955378	0.000768916	0.000106561	0	0	0	
0.150667	-0.029473	0.00755897	0.000772745	0.000157153	0	0	0	
0.150833	0.026039	0.000481389	0.000783359	0.000198511	0	0	0	
0.151	-0.027681	-0.000727647	0.000787189	0.000160277	0	0	0	
0.151167	0.0294504	0.00173295	0.000769922	9.6876E-05	0	0	0	
0.151333	-0.0282229	0.000849863	0.000768247	5.67372E-05	0	0	0	
0.1515	0.0292035	-0.0064287	0.000762682	6.90969E-05	0	0	0	
0.151667	-0.0289053	0.000841156	0.000760025	0.000115782	0	0	0	
0.151833	0.0298754	0.00323771	0.000747792	0.000142976	0	0	0	
0.152	-0.0300634	-0.00359456	0.000751523	0.000144066	0	0	0	
0.152167	0.0286938	0.00032567	0.000758343	0.000102965	0	0	0	
0.152333	-0.028617	0.000231953	0.000765471	6.67442E-05	0	0	0	
0.1525	0.0302392	-0.000975039	0.000760521	3.88728E-05	0	0	0	
0.152667	-0.0292141	-0.00767755	0.000758485	6.94513E-05	0	0	0	
0.152833	0.0279869	0.00739954	0.000759976	0.000125529	0	0	0	
0.153	-0.0280877	-0.00399815	0.000765079	0.000147001	0	0	0	
0.153167	0.027324	-0.000462042	0.000759739	0.00012225	0	0	0	
0.153333	-0.0274092	-0.00150015	0.000761956	7.09448E-05	0	0	0	
0.1535	0.028019	0.00326549	0.000757209	5.43134E-05	0	0	0	
0.153667	-0.0274731	-0.00529576	0.000766311	6.63056E-05	0	0	0	
0.153833	0.0258053	0.0080261	0.000757683	9.65439E-05	0	0	0	
0.154	-0.027631	-0.00773628	0.000750637	0.000139918	0	0	0	
0.154167	0.0286103	-0.00104976	0.000740809	0.000159078	0	0	0	
0.154333	-0.0307604	-0.00144624	0.000756946	0.000127914	0	0	0	
0.1545	0.0291077	0.00411729	0.000774007	8.90461E-05	0	0	0	
0.154667	-0.0290069	-0.00153708	0.000798968	6.39548E-05	0	0	0	
0.154833	0.0266803	-0.0069383	0.000795503	7.60801E-05	0	0	0	
0.155	-0.027339	-0.00117882	0.000785853	0.000101733	0	0	0	
0.155167	0.0302895	-0.0027733	0.000752169	0.00010102	0	0	0	
0.155333	-0.0343769	0.00135175	0.000754606	9.58328E-05	0	0	0	
0.1555	0.0318451	0.00415163	0.000794231	6.33526E-05	0	0	0	
0.155667	-0.0220125	-0.00336218	0.000850339	6.96281E-05	0	0	0	
0.155833	0.0179212	0.00515571	0.000833925	0.000102085	0	0	0	
0.156	-0.0249524	-0.0119727	0.000732801	0.000234718	0	0	0	
0.156167	0.0343734	0.011713	0.000658041	0.000374538	0	0	0	
0.156333	-0.0370887	-0.000398962	0.00068116	0.000394805	0	0	0	
0.1565	0.0363595	-0.00324443	0.000771566	0.000267661	0	0	0	
0.156667	-0.0376435	-0.00105374	0.000848385	0.000124721	0	0	0	
0.156833	0.0316679	0.0151775	0.000876815	0.000143838	0	0	0	
0.157	-0.0185625	-0.0236833	0.000910837	0.000306063	0	0	0	
0.157167	0.0107548	0.0208311	0.000868114	0.000445968	0	0	0	
0.157333	-0.0193291	-0.0140516	0.000715975	0.000449134	0	0	0	
0.1575	0.0343666	0.00381125	0.000584782	0.000330916	0	0	0	
0.157667	-0.0382943	-0.00143412	0.000601271	0.000225795	0	0	0	
0.157833	0.0289118	-0.00353099	0.000726382	0.000146596	0	0	0	
0.158	-0.0308635	0.0118991	0.000796652	0.000152982	0	0	0	
0.158167	0.0307614	-0.0176648	0.000797397	0.00024016	0	0	0	
0.158333	-0.0243684	0.00301355	0.000816022	0.000311603	0	0	0	
0.1585	0.0212299	0.00656611	0.000818037	0.000269541	0	0	0	
0.158667	-0.0279015	-0.0050225	0.000778661	0.000157834	0	0	0	
0.158833	0.0323368	0.00107514	0.000729643	8.89798E-05	0	0	0	
0.159	-0.0319066	0.000181666	0.000739272	7.06884E-05	0	0	0	
0.159167	0.0266615	-0.00320911	0.000772173	5.94554E-05	0	0	0	
0.159333	-0.0259975	-0.00116479	0.000791821	8.17185E-05	0	0	0	
0.1595	0.0282385	0.00599128	0.000770317	0.000118778	0	0	0	
0.159667	-0.0305581	0.0017638	0.000750715	0.000117437	0	0	0	
0.159833	0.0289421	-0.00537036	0.000747671	0.000106576	0	0	0	
0.16	-0.0285425	-0.00196434	0.000770815	8.9094E-05	0	0	0	
0.160167	0.025966	0.00160929	0.000776925	8.96394E-05	0	0	0	
0.160333	-0.0286852	0.000748444	0.0007758	6.53959E-05	0	0	0	
0.1605	0.0286153	-0.00222515	0.000762352	4.8632E-05	0	0	0	
0.160667	-0.0295585	0.00653082	0.00077056	6.35744E-05	0	0	0	
0.160833	0.0291289	-0.00232819	0.000771904	0.000111469	0	0	0	
0.161	-0.0267705	-0.000836278	0.000775068	0.000121087	0	0	0	
0.161167	0.0260951	-0.00248098	0.000761724	9.02691E-05	0	0	0	
0.161333	-0.0281147	0.00873125	0.000744358	7.46763E-05	0	0	0	
0.1615	0.0298154	-0.00230464	0.000737372	0.000115409	0	0	0	
0.161667	-0.0277385	-4.09001E-05	0.000758612	0.000171423	0	0	0	
0.161833	0.0247418	0.00615866	0.000772567	0.000210254	0	0	0	
0.162	-0.0277975	-0.00260968	0.000771442	0.000195378	0	0	0	
0.162167	0.0295686	-0.00124836	0.000755519	0.000146515	0	0	0	
0.162333	-0.0271522	0.00176266	0.000756388	8.49191E-05	0	0	0	
0.1625	0.025722	-0.00323412	0.000752438	6.86931E-05	0	0	0	
0.162667	-0.0271623	-0.00562057	0.000754	9.9135E-05	0	0	0	
0.162833	0.0270771	0.0109343	0.000750238	0.000147935	0	0	0	
0.163	-0.0268584	-0.00357231	0.000758235	0.000169736	0	0	0	
0.163167	0.0282275	0.00111293	0.000753781	0.00013253	0	0	0	
0.163333	-0.0287986	-0.00322938	0.000748469	9.24672E-05	0	0	0	
0.1635	0.026642	0.00110134	0.000736393	5.83923E-05	0	0	0	
0.163667	-0.0255126	-0.00997552	0.000736852	0.000120019	0	0	0	
0.163833	0.0293051	0.0102746	0.000736645	0.000177426	0	0	0	
0.164	-0.0296014	-0.0035641	0.000748607	0.00021879	0	0	0	
0.164167	0.02866	-0.00102597	0.000771101	0.000200189	0	0	0	
0.164333	-0.0254049	-0.00154097	0.000800356	0.000137524	0	0	0	
0.1645	0.0238241	0.00428117	0.000803202	9.11983E-05	0	0	0	
0.164667	-0.0252069	-0.0134431	0.000779816	0.000103532	0	0	0	
0.164833	0.0244773	0.00713959	0.000741485	0.000176261	0	0	0	
0.165	-0.0266662	-0.000790222	0.000727707	0.000208855	0	0	0	
0.165167	0.0288639	-0.000619297	0.000721023	0.0001536	0	0	0	
0.165333	-0.0316146	0.00142908	0.000757343	7.58622E-05	0	0	0	
0.1655	0.0317648	0.00143587	0.000782573	4.03246E-05	0	0	0	
0.165667	-0.0343735	-0.00694828	0.000807746	6.6413E-05	0	0	0	
0.165833	0.0434561	-0.000338632	0.000874525	0.000114038	0	0	0	
0.166	-0.134038	0.0297951	0.00129394	0.000213939	0	0	0	
0.166167	0.0253962	-0.00470095	0.00137041	0.000343435	0	0	0	
0.166333	-0.0267888	-9.23164E-05	0.00130177	0.000411778	0	0	0	
0.1665	0.0245384	0.00898776	0.000865275	0.000439431	0	0	0	
0.166667	-0.0248621	-0.00417954	0.000764096	0.000368909	0	0	0	
0.166833	0.0234046	-0.00293858	0.000739372	0.000275351	0	0	0	
0.167	-0.0271077	-0.00612141	0.000793893	0.000193962	0	0	0	
0.167167	0.0244072	0.00505778	0.000815742	0.000164909	0	0	0	
0.167333	-0.0250878	0.0048659	0.000814593	0.000156997	0	0	0	
0.1675	0.0263605	-0.00550969	0.000751063	0.000151351	0	0	0	
0.167667	-0.029749	-0.0126328	0.000745831	0.000149414	0	0	0	
0.167833	0.0265462	0.0162432	0.000761828	0.000225743	0	0	0	
0.168	-0.0257823	-0.0125955	0.00076765	0.000283166	0	0	0	
0.168167	0.0289831	0.00424671	0.000756141	0.000298998	0	0	0	
0.168333	-0.0279725	0.00119321	0.0007545	0.000224184	0	0	0	
0.1685	0.0264393	-0.00285906	0.0007603	0.000134305	0	0	0	
0.168667	-0.0277462	-0.00458198	0.000764991	9.42096E-05	0	0	0	
0.168833	0.0282537	0.0136749	0.000759516	0.000142114	0	0	0	
0.169	-0.0256804	-0.000889433	0.000752979	0.000218959	0	0	0	
0.169167	0.0272721	0.00105524	0.000751778	0.000227761	0	0	0	
0.169333	-0.0279908	-0.00713286	0.000755084	0.000180467	0	0	0	
0.1695	0.0267054	0.00210351	0.000767544	0.000132319	0	0	0	
0.169667	-0.027504	0.00477042	0.000780488	0.000128154	0	0	0	
0.169833	0.0259947	0.00409113	0.000775323	0.00011876	0	0	0	
0.17	-0.0251577	-0.00180098	0.000759532	0.000123295	0	0	0	
0.170167	0.0272645	-0.00272089	0.000740303	0.000132672	0	0	0	
0.170333	-0.025684	0.0026643	0.000734435	0.00015275	0	0	0	
0.1705	0.0264359	-0.00982597	0.000742351	0.00015977	0	0	0	
0.170667	-0.0272125	0.00759526	0.000749948	0.000177054	0	0	0	
0.170833	0.026049	-0.0073997	0.00075638	0.00018166	0	0	0	
0.171	-0.0259546	-0.00185173	0.000757662	0.000149029	0	0	0	
0.171167	0.0260835	0.000328065	0.00075641	0.000103989	0	0	0	
0.171333	-0.0269196	0.000956875	0.000752545	7.86207E-05	0	0	0	
0.1715	0.0267176	-0.000555151	0.000746308	5.16842E-05	0	0	0	
0.171667	-0.0263423	-0.000918833	0.000747691	4.77652E-05	0	0	0	
0.171833	0.028502	0.00514941	0.000757415	6.92884E-05	0	0	0	
0.172	-0.0278308	-0.00291551	0.000763631	8.47449E-05	0	0	0	
0.172167	0.0272872	0.00176767	0.000772687	8.4802E-05	0	0	0	
0.172333	-0.0282842	-0.00608958	0.000776618	7.09478E-05	0	0	0	
0.1725	0.0251991	0.00194745	0.000772129	0.000108654	0	0	0	
0.172667	-0.0249738	0.00479508	0.000759861	0.000133997	0	0	0	
0.172833	0.0261571	0.00411276	0.00074409	0.000134348	0	0	0	
0.173	-0.0270534	-0.00587492	0.000747926	0.000128504	0	0	0	
0.173167	0.0269442	-0.00323395	0.000764423	0.000113937	0	0	0	
0.173333	-0.0236908	-0.00707404	0.000769026	0.00011274	0	0	0	
0.1735	0.0214669	-0.00175869	0.000752943	0.000124005	0	0	0	
0.173667	-0.0259974	0.0114684	0.000739116	0.000168282	0	0	0	
0.173833	0.0232702	-0.00866854	0.000739871	0.000232162	0	0	0	
0.174	-0.0263851	-0.00463088	0.000757121	0.000228599	0	0	0	
0.174167	0.0270857	0.00190554	0.000749434	0.000189913	0	0	0	
0.174333	-0.0282958	-0.00444178	0.000761944	0.000110184	0	0	0	
0.1745	0.0260983	-0.00305327	0.000779112	7.49224E-05	0	0	0	
0.174667	-0.0276315	0.004362	0.000790845	8.24682E-05	0	0	0	
0.174833	0.0268138	-0.00391889	0.000766601	0.000106516	0	0	0	
0.175	-0.0298282	-0.00745488	0.000756157	0.000148944	0	0	0	
0.175167	0.0264465	0.00601482	0.000763551	0.000175567	0	0	0	
0.175333	-0.0233945	-0.00104287	0.000775655	0.000159484	0	0	0	
0.1755	0.0253277	-0.00182682	0.000768932	0.000103652	0	0	0	
0.175667	-0.0236257	-0.000228929	0.000758151	6.21026E-05	0	0	0	
0.175833	0.0240279	0.000492548	0.000749208	7.42312E-05	0	0	0	
0.176	-0.0378519	-0.00474239	0.000739238	0.000100357	0	0	0	
0.176167	-0.00095591	0.0102529	0.000735588	0.000176171	0	0	0	
0.176333	-0.0448533	-0.0352446	0.000732592	0.000419985	0	0	0	
0.1765	0.0494113	0.0595461	0.000773615	0.000842175	0	0	0	
0.176667	-0.0165383	-0.0520927	0.000770207	0.00112957	0	0	0	
0.176833	0.0131652	0.0244988	0.000780618	0.00111301	0	0	0	
0.177	-0.0252215	-0.0327165	0.000756142	0.000995353	0	0	0	
0.177167	0.0206177	0.0428592	0.0007236	0.00106803	0	0	0	
0.177333	-0.0200144	-0.0287569	0.000701431	0.00117202	0	0	0	
0.1775	0.000469634	0.0472232	0.000689977	0.00117272	0	0	0	
0.177667	-0.00567572	-0.0408272	0.000764783	0.00103381	0	0	0	
0.177833	0.0312183	0.0194515	0.000776673	0.000939703	0	0	0	
0.178	-0.0329233	-0.0455306	0.000770795	0.000735197	0	0	0	
0.178167	0.0223537	0.0819318	0.000703651	0.00087792	0	0	0	
0.178333	-0.028177	-0.0237516	0.000737286	0.00101852	0	0	0	
0.1785	0.0249056	-0.00520617	0.00075519	0.000971842	0	0	0	
0.178667	-0.0241992	-0.010314	0.000802006	0.000747151	0	0	0	
0.178833	0.0264595	0.00710705	0.000803614	0.000536776	0	0	0	
0.179	-0.0228701	-0.0134698	0.000813767	0.000567413	0	0	0	
0.179167	0.0238809	0.0125078	0.000792407	0.00044094	0	0	0	
0.179333	-0.0281638	0.0171205	0.000752849	0.000353448	0	0	0	
0.1795	0.0280703	-0.0211384	0.000721224	0.000411066	0	0	0	
0.179667	-0.0292693	0.00542996	0.000745995	0.000450593	0	0	0	
0.179833	0.0275969	0.00822651	0.000779739	0.000449822	0	0	0	
0.18	-0.0263775	-0.0134821	0.000805314	0.000375091	0	0	0	
0.180167	0.025557	-0.0017461	0.000790526	0.000312728	0	0	0	
0.180333	-0.0220793	0.00683599	0.000768621	0.000272991	0	0	0	
0.1805	0.0228834	0.00416227	0.00073609	0.000210552	0	0	0	
0.180667	-0.0271336	-0.00286564	0.000715944	0.000157262	0	0	0	
0.180833	0.0287443	-0.00136564	0.00072101	9.71589E-05	0	0	0	
0.181	-0.0291273	-0.00134236	0.000758177	6.19915E-05	0	0	0	
0.181167	0.0244211	-0.00223673	0.000787623	4.55128E-05	0	0	0	
0.181333	-0.0240449	0.00190032	0.000795958	6.56133E-05	0	0	0	
0.1815	0.0229565	0.0126862	0.000773266	0.000122682	0	0	0	
0.181667	-0.0244967	-0.00917592	0.000759072	0.000197469	0	0	0	
0.181833	0.0263921	-0.00263413	0.000745034	0.000193137	0	0	0	
0.182	-0.0276179	0.000818093	0.000743638	0.000174631	0	0	0	
0.182167	0.028849	0.00188458	0.000754611	0.000103946	0	0	0	
0.182333	-0.0264951	-0.00183497	0.000770659	9.07758E-05	0	0	0	
0.1825	0.0235771	0.00539154	0.000786156	6.28724E-05	0	0	0	
0.182667	-0.0264998	-0.00907165	0.000779619	8.82055E-05	0	0	0	
0.182833	0.0266005	0.00730509	0.000760439	0.000131193	0	0	0	
0.183	-0.0269195	-0.00441135	0.000750839	0.000159216	0	0	0	
0.183167	0.0266171	0.00453303	0.000774564	0.000135141	0	0	0	
0.183333	-0.0205994	-0.0070589	0.000814061	0.000107101	0	0	0	
0.1835	0.0165902	0.0073119	0.000811539	0.000121978	0	0	0	
0.183667	-0.0207395	-0.00277795	0.000754116	0.00017818	0	0	0	
0.183833	0.0275053	0.00270754	0.000693131	0.000234998	0	0	0	
0.184	-0.0365073	0.00401865	0.000681513	0.000206463	0	0	0	
0.184167	0.0417043	-0.0168374	0.000739782	0.000207155	0	0	0	
0.184333	-0.0330135	0.0117495	0.000880134	0.000258306	0	0	0	
0.1845	0.0157619	0.00906201	0.00101643	0.000353724	0	0	0	
0.184667	-0.0135639	-0.0206346	0.00101471	0.00038423	0	0	0	
0.184833	0.0192911	0.0203084	0.000849798	0.000372014	0	0	0	
0.185	-0.0233024	-0.00227217	0.000672107	0.000325867	0	0	0	
0.185167	0.0278563	-0.0125128	0.000596986	0.000339543	0	0	0	
0.185333	-0.0351894	0.0151286	0.000641808	0.000382273	0	0	0	
0.1855	0.0319008	-0.0122655	0.000743373	0.000415031	0	0	0	
0.185667	-0.025125	0.00952803	0.000860531	0.000345383	0	0	0	
0.185833	0.0204185	0.00455845	0.000884619	0.000238337	0	0	0	
0.186	-0.0238457	-0.0116899	0.000824447	0.000212736	0	0	0	
0.186167	0.0232752	0.0115252	0.000741045	0.000230693	0	0	0	
0.186333	-0.0254306	-0.0140553	0.000722502	0.000257085	0	0	0	
0.1865	0.0248213	0.00539042	0.000731662	0.000224876	0	0	0	
0.186667	-0.0230581	-0.00270161	0.000750899	0.000179729	0	0	0	
0.186833	0.0232769	0.00329358	0.000742298	0.000136253	0	0	0	
0.187	-0.0262262	-0.00800609	0.00073789	0.000131138	0	0	0	
0.187167	0.0273585	0.000298926	0.000744145	0.000161785	0	0	0	
0.187333	-0.0233294	0.00333776	0.000774572	0.000165923	0	0	0	
0.1875	0.0189635	-0.0137991	0.000777871	0.000180207	0	0	0	
0.187667	-0.0260984	-0.00242953	0.000756415	0.000211014	0	0	0	
0.187833	0.0258135	0.0118112	0.000715582	0.00025586	0	0	0	
0.188	-0.0273597	-0.0114526	0.000730431	0.000277498	0	0	0	
0.188167	0.0258996	0.00277751	0.000754043	0.000245079	0	0	0	
0.188333	-0.0228649	0.00551289	0.000780617	0.000193697	0	0	0	
0.1885	0.0246413	-0.00501019	0.000773948	0.000145963	0	0	0	
0.188667	-0.0252123	-0.00545292	0.000768101	0.000164487	0	0	0	
0.188833	0.0234832	0.0187311	0.000762253	0.00026174	0	0	0	
0.189	-0.0264892	-0.013515	0.000755823	0.00034546	0	0	0	
0.189167	0.0240042	-0.00148357	0.000742146	0.000346781	0	0	0	
0.189333	-0.0256775	0.00760584	0.000747387	0.000272292	0	0	0	
0.1895	0.0250302	-0.00531062	0.000750643	0.000204775	0	0	0	
0.189667	-0.0253332	-0.00718992	0.000767864	0.000186162	0	0	0	
0.189833	0.0252228	0.00934584	0.000774545	0.000209826	0	0	0	
0.19	-0.023244	0.00347201	0.000778647	0.000210527	0	0	0	
0.190167	0.0239505	-0.00827718	0.000767459	0.000199568	0	0	0	
0.190333	-0.0262578	0.00407315	0.000754341	0.000177379	0	0	0	
0.1905	0.023686	0.000689968	0.000751411	0.000158262	0	0	0	
0.190667	-0.0265845	-0.00972336	0.000760373	0.000159319	0	0	0	
0.190833	0.0251968	0.0107519	0.000759303	0.00019559	0	0	0	
0.191	-0.0238592	0.013371	0.000756103	0.000241423	0	0	0	
0.191167	0.0245924	-0.0143916	0.000751873	0.000309321	0	0	0	
0.191333	-0.0232796	-0.00366902	0.000751677	0.000321026	0	0	0	
0.1915	0.0236034	0.0134407	0.000752638	0.000353943	0	0	0	
0.191667	-0.0264715	-0.0130252	0.000750397	0.000314293	0	0	0	
0.191833	0.0231558	0.011256	0.000753322	0.00030789	0	0	0	
0.192	-0.0241915	0.00344549	0.000755777	0.000283002	0	0	0	
0.192167	0.0229663	-0.00834363	0.000745095	0.000277154	0	0	0	
0.192333	-0.0253171	-0.00206631	0.000745452	0.000223477	0	0	0	
0.1925	0.0276592	0.00571886	0.000762446	0.000186929	0	0	0	
0.192667	-0.0253571	-0.000563674	0.000797676	0.000134309	0	0	0	
0.192833	0.0233995	-0.00218439	0.000813136	0.000107117	0	0	0	
0.193	-0.0237659	0.00395938	0.00080392	9.09107E-05	0	0	0	
0.193167	0.0234196	-0.00474636	0.000784732	0.000102721	0	0	0	
0.193333	-0.0242077	0.00321123	0.000761613	0.00011391	0	0	0	
0.1935	0.0244286	-0.00553059	0.000737273	0.000128421	0	0	0	
0.193667	-0.0256946	-0.00560773	0.000733162	0.000165045	0	0	0	
0.193833	0.0241249	0.00447502	0.000752514	0.000188895	0	0	0	
0.194	-0.0252396	0.000711138	0.00078473	0.000146175	0	0	0	
0.194167	0.0232587	0.00209943	0.00078969	0.000102024	0	0	0	
0.194333	-0.0220823	-0.00470484	0.000780756	8.87721E-05	0	0	0	
0.1945	0.0238507	0.00783374	0.000768624	0.000137359	0	0	0	
0.194667	-0.0272663	-0.0130683	0.000774902	0.000186133	0	0	0	
0.194833	0.0257654	0.00491611	0.000779773	0.000224375	0	0	0	
0.195	-0.0238137	0.0108353	0.000780926	0.000226381	0	0	0	
0.195167	0.0238799	-0.000258304	0.000767896	0.00022014	0	0	0	
0.195333	-0.0239279	-0.0102016	0.00076215	0.000198396	0	0	0	
0.1955	0.0253005	0.0146364	0.000774361	0.000223393	0	0	0	
0.195667	-0.0196225	-0.0116319	0.000777553	0.000249994	0	0	0	
0.195833	0.00965683	-0.00752331	0.000697453	0.000260805	0	0	0	
0.196	0.0815238	-0.00508794	0.00074251	0.000279303	0	0	0	
0.196167	0.024774	0.00116519	0.000858432	0.000268623	0	0	0	
0.196333	-0.0220569	-0.0178662	0.000945972	0.000318563	0	0	0	
0.1965	0.0243108	0.00251783	0.000875877	0.000372892	0	0	0	
0.196667	-0.0266011	-0.00442524	0.000755454	0.000367653	0	0	0	
0.196833	0.0257634	0.00162354	0.000789279	0.000297438	0	0	0	
0.197	-0.0258613	0.0146807	0.000763499	0.000224451	0	0	0	
0.197167	0.0263267	-0.00383887	0.000762888	0.000217435	0	0	0	
0.197333	-0.0250972	-0.0124687	0.000737138	0.000207007	0	0	0	
0.1975	0.02291	0.00966618	0.000785591	0.000227277	0	0	0	
0.197667	-0.02117	-0.00398236	0.000786762	0.000204648	0	0	0	
0.197833	0.0254842	0.00187586	0.000766639	0.000170569	0	0	0	
0.198	-0.0278924	-0.00216168	0.000762733	8.26252E-05	0	0	0	
0.198167	0.0236449	-9.27966E-05	0.000776038	5.50665E-05	0	0	0	
0.198333	-0.0216025	0.00340313	0.000796003	6.76898E-05	0	0	0	
0.1985	0.0208195	0.00292843	0.000794945	9.01547E-05	0	0	0	
0.198667	-0.0225923	-0.0013151	0.000769513	0.000103338	0	0	0	
0.198833	0.024684	-0.00307601	0.000737403	9.57463E-05	0	0	0	
0.199	-0.0239267	0.00147984	0.000742515	7.43553E-05	0	0	0	
0.199167	0.0190881	-0.00395687	0.000769055	7.3195E-05	0	0	0	
0.199333	-0.0240383	0.00865174	0.000771276	0.000112379	0	0	0	
0.1995	0.0318196	-0.0105849	0.000759904	0.000196734	0	0	0	
0.199667	-0.0293034	0.00223531	0.00080471	0.00024908	0	0	0	
0.199833	0.0211712	0.000732429	0.000877309	0.000225703	0	0	0	
0.2	-0.0206505	-0.0023959	0.00088746	0.000138495	0	0	0	
0.200167	0.0248324	0.00361636	0.000826648	6.61104E-05	0	0	0	
0.200333	-0.0219082	-0.00509453	0.000774934	7.1815E-05	0	0	0	
0.2005	0.0207485	0.000472293	0.000760311	0.000111415	0	0	0	
0.200667	-0.0257905	0.00569092	0.000741718	0.000180604	0	0	0	
0.200833	0.0322546	-0.00345845	0.000735614	0.000227513	0	0	0	
0.201	-0.0271866	0.000414472	0.00076269	0.000195515	0	0	0	
0.201167	0.0223076	0.00355958	0.000813921	0.000124727	0	0	0	
0.201333	-0.0201775	-0.00755222	0.000817272	7.46238E-05	0	0	0	
0.2015	0.0238306	0.00460813	0.000794574	0.00010043	0	0	0	
0.201667	-0.0234202	0.00386081	0.000771714	0.000121032	0	0	0	
0.201833	0.0225834	-0.00706559	0.000773456	0.00013461	0	0	0	
0.202	-0.0222511	0.00180052	0.000765328	0.0001192	0	0	0	
0.202167	0.0257672	0.00205301	0.000752266	9.40849E-05	0	0	0	
0.202333	-0.0254979	-0.00148682	0.000752809	5.85823E-05	0	0	0	
0.2025	0.0242235	0.00514053	0.000761885	4.5131E-05	0	0	0	
0.202667	-0.0233426	-0.000618946	0.000771113	6.76687E-05	0	0	0	
0.202833	0.021526	-0.00571116	0.000763931	8.65457E-05	0	0	0	
0.203	-0.0208697	-0.00209266	0.000751807	9.816E-05	0	0	0	
0.203167	0.0225481	0.00200463	0.000739164	8.69966E-05	0	0	0	
0.203333	-0.0247394	0.00140418	0.000738101	6.37853E-05	0	0	0	
0.2035	0.0227504	-0.00364906	0.000746101	5.05865E-05	0	0	0	
0.203667	-0.0227567	0.000571935	0.000759815	5.05747E-05	0	0	0	
0.203833	0.0226695	0.00172616	0.000762327	6.26024E-05	0	0	0	
0.204	-0.0233425	-0.00292265	0.000757391	6.79412E-05	0	0	0	
0.204167	0.024616	0.00160642	0.000751094	7.3654E-05	0	0	0	
0.204333	-0.0236076	0.00106031	0.000750706	6.30898E-05	0	0	0	
0.2045	0.0226458	-0.000999027	0.000766127	4.99487E-05	0	0	0	
0.204667	-0.0248651	-0.00672642	0.000791694	6.41428E-05	0	0	0	
0.204833	0.0224393	0.0130322	0.000805266	0.000144306	0	0	0	
0.205	-0.0216576	-0.00508359	0.000793658	0.000208244	0	0	0	
0.205167	0.0210719	0.00197497	0.000757842	0.000180007	0	0	0	
0.205333	-0.0215434	-0.000800211	0.000727236	0.000103902	0	0	0	
0.2055	0.0248131	0.00316839	0.000720267	5.37409E-05	0	0	0	
0.205667	-0.0244262	-0.00208231	0.000733313	5.43436E-05	0	0	0	
0.205833	0.022258	0.0080753	0.000761504	8.82915E-05	0	0	0	
0.206	-0.0224857	-0.00104913	0.000776047	0.000101049	0	0	0	
0.206167	0.0206605	0.00231389	0.000771845	9.2381E-05	0	0	0	
0.206333	-0.0214945	-0.00469872	0.000748826	6.86054E-05	0	0	0	
0.2065	0.022358	0.00588829	0.000731964	7.1338E-05	0	0	0	
0.206667	-0.0228118	-0.00016487	0.000740869	8.40305E-05	0	0	0	
0.206833	0.020863	-0.00288843	0.000764181	7.83484E-05	0	0	0	
0.207	-0.0220637	0.00571209	0.000780753	6.86619E-05	0	0	0	
0.207167	0.0223163	0.000492532	0.000775362	0.000107794	0	0	0	
0.207333	-0.0223252	-0.0146605	0.000763837	0.000175579	0	0	0	
0.2075	0.0213516	0.00545773	0.000744476	0.000244281	0	0	0	
0.207667	-0.0233604	0.00419021	0.000734006	0.000226946	0	0	0	
0.207833	0.0229708	-0.00221551	0.000736781	0.000175561	0	0	0	
0.208	-0.0241866	-0.00550137	0.000758218	0.000122941	0	0	0	
0.208167	0.0229374	0.00960636	0.000766998	0.000152609	0	0	0	
0.208333	-0.0266506	-0.0167178	0.000782361	0.000204051	0	0	0	
0.2085	0.0225413	0.0069466	0.000780873	0.000269517	0	0	0	
0.208667	-0.0232507	0.00235616	0.000776765	0.000230926	0	0	0	
0.208833	0.0230433	-0.00112054	0.000749989	0.000166525	0	0	0	
0.209	-0.0249109	-0.00557329	0.000754609	8.62787E-05	0	0	0	
0.209167	0.0224588	0.0102089	0.000764576	0.000126588	0	0	0	
0.209333	-0.0238326	-0.000367194	0.000778611	0.000180965	0	0	0	
0.2095	0.0214503	-0.0068049	0.000769237	0.000214001	0	0	0	
0.209667	-0.0186194	0.000458938	0.000755015	0.000188889	0	0	0	
0.209833	0.0193519	0.00322942	0.00073048	0.000147031	0	0	0	
0.21	-0.0227525	0.000554703	0.000702204	0.000100271	0	0	0	
0.210167	0.025001	0.000218177	0.000692248	6.80334E-05	0	0	0	
0.210333	-0.0261649	0.00498425	0.000719713	8.64387E-05	0	0	0	
0.2105	0.0246491	0.00358254	0.000805334	8.88274E-05	0	0	0	
0.210667	-0.0198895	-0.00834619	0.00090487	0.000120135	0	0	0	
0.210833	0.0152982	0.0109311	0.000930841	0.000146026	0	0	0	
0.211	-0.0184953	-0.00855194	0.000820441	0.000193476	0	0	0	
0.211167	0.025907	0.00549616	0.000678798	0.000197274	0	0	0	
0.211333	-0.0247496	0.0017507	0.000639831	0.000146022	0	0	0	
0.2115	0.0220589	0.00785554	0.000730365	0.00011739	0	0	0	
0.211667	-0.0236581	-0.00324798	0.000810956	0.000144116	0	0	0	
0.211833	0.0269347	-0.000569832	0.000836543	0.000198582	0	0	0	
0.212	-0.0180779	-0.00607447	0.000811754	0.000214002	0	0	0	
0.212167	0.0147786	0.00731744	0.000763656	0.000192541	0	0	0	
0.212333	-0.0231273	-0.00141358	0.000680042	0.00014544	0	0	0	
0.2125	0.0250771	-0.00286329	0.000654672	0.000103469	0	0	0	
0.212667	-0.0203447	0.0064847	0.000732858	8.3315E-05	0	0	0	
0.212833	0.0169986	-0.00378147	0.000812671	0.00010551	0	0	0	
0.213	-0.0201982	-0.00144151	0.000793974	0.000115966	0	0	0	
0.213167	0.0241448	-0.000613211	0.000726765	8.82563E-05	0	0	0	
0.213333	-0.0232104	0.00173522	0.000711927	5.55412E-05	0	0	0	
0.2135	0.0204421	0.00298556	0.00074682	8.7678E-05	0	0	0	
0.213667	-0.0216145	-0.00666956	0.000765192	0.000157441	0	0	0	
0.213833	0.0212406	0.00801237	0.000754829	0.000207008	0	0	0	
0.214	-0.0223644	-0.00519766	0.000749401	0.000204783	0	0	0	
0.214167	0.0218527	-0.000588846	0.000753635	0.000156546	0	0	0	
0.214333	-0.0181539	-0.00428886	0.000755126	9.40297E-05	0	0	0	
0.2145	0.0175569	0.00526037	0.000745937	8.22845E-05	0	0	0	
0.214667	-0.0206373	-0.000949763	0.000739801	7.73922E-05	0	0	0	
0.214833	0.023098	-0.00364729	0.000750184	8.83551E-05	0	0	0	
0.215	-0.0230207	0.00691058	0.000764068	8.03079E-05	0	0	0	
0.215167	0.0195057	-0.00336788	0.000774434	0.000106665	0	0	0	
0.215333	-0.0195331	0.00172081	0.000778285	0.00010494	0	0	0	
0.2155	0.0216497	0.00159514	0.000775405	9.3982E-05	0	0	0	
0.215667	-0.0219325	-0.00605995	0.000775428	5.68742E-05	0	0	0	
0.215833	0.0205689	0.011777	0.000775259	0.000118958	0	0	0	
0.216	-0.0186179	-0.0029792	0.000761135	0.000172436	0	0	0	
0.216167	0.0217681	-0.00450357	0.00075196	0.000178479	0	0	0	
0.216333	-0.0191548	4.02352E-05	0.000749148	0.000124371	0	0	0	
0.2165	0.0194987	0.00276725	0.000759545	8.04187E-05	0	0	0	
0.216667	-0.0231407	-0.00208495	0.000758636	8.65255E-05	0	0	0	
0.216833	0.0209167	0.00761072	0.000765988	9.38928E-05	0	0	0	
0.217	-0.0181275	-0.00182672	0.000780015	0.000151685	0	0	0	
0.217167	0.0196164	-0.0086032	0.00076632	0.00021475	0	0	0	
0.217333	-0.0245255	0.00426176	0.000746577	0.000240285	0	0	0	
0.2175	0.0282542	0.00495086	0.000763661	0.000174649	0	0	0	
0.217667	-0.0209105	-0.0071362	0.000823765	0.000126709	0	0	0	
0.217833	0.0205363	0.00173412	0.000878528	0.000104984	0	0	0	
0.218	-0.0189152	0.00545352	0.000857852	0.000114851	0	0	0	
0.218167	0.0173016	-0.00800933	0.000787355	0.000138661	0	0	0	
0.218333	-0.0188593	0.00393948	0.000722905	0.000139134	0	0	0	
0.2185	0.0197815	0.000696274	0.000698471	0.000116589	0	0	0	
0.218667	-0.0234511	-0.000376002	0.000715258	8.40811E-05	0	0	0	
0.218833	0.0255724	-0.00253048	0.000747475	7.77739E-05	0	0	0	
0.219	-0.0204723	0.00881895	0.000781858	0.000113102	0	0	0	
0.219167	0.0164059	-0.00448116	0.000781612	0.000138957	0	0	0	
0.219333	-0.0170388	-0.00454047	0.000750908	0.000121356	0	0	0	
0.2195	0.0165037	0.00821515	0.000724523	0.000122715	0	0	0	
0.219667	-0.0196928	-0.00265024	0.000733746	9.93849E-05	0	0	0	
0.219833	0.0190652	-0.00344051	0.000748976	9.54409E-05	0	0	0	
0.22	-0.0163447	0.00512358	0.000757779	8.27022E-05	0	0	0	
0.220167	0.0185193	0.00103842	0.000755761	6.88109E-05	0	0	0	
0.220333	-0.0210721	-0.00666888	0.000756658	9.51144E-05	0	0	0	
0.2205	0.0199718	0.00391466	0.000771351	9.57251E-05	0	0	0	
0.220667	-0.0176086	0.000466386	0.000788166	9.15501E-05	0	0	0	
0.220833	0.0180615	-0.00221538	0.000780974	6.99811E-05	0	0	0	
0.221	-0.020103	-0.00383259	0.000756978	5.28687E-05	0	0	0	
0.221167	0.0196436	0.00412825	0.00075279	7.32667E-05	0	0	0	
0.221333	-0.0176547	-0.00153038	0.000766403	7.6137E-05	0	0	0	
0.2215	0.0206223	-0.00190002	0.000766359	7.82806E-05	0	0	0	
0.221667	-0.0199636	0.00555676	0.000753348	6.47105E-05	0	0	0	
0.221833	0.0179102	-0.0101052	0.000755727	9.90818E-05	0	0	0	
0.222	-0.0201495	0.00738578	0.000769625	0.000145336	0	0	0	
0.222167	0.019564	-0.000730004	0.000778438	0.000135576	0	0	0	
0.222333	-0.016828	-0.0054038	0.000796546	0.000106541	0	0	0	
0.2225	0.0101869	0.0110054	0.000794445	0.000100726	0	0	0	
0.222667	-0.0177588	-0.00723687	0.000770563	0.000157528	0	0	0	
0.222833	0.0205484	-0.00232401	0.000731148	0.00016079	0	0	0	
0.223	-0.0225738	0.00360632	0.00074112	0.000151172	0	0	0	
0.223167	0.0234965	0.00283078	0.000763531	0.000133561	0	0	0	
0.223333	-0.0229199	-0.00252737	0.000784444	0.000129366	0	0	0	
0.2235	0.015492	0.00460059	0.00078728	0.000115676	0	0	0	
0.223667	-0.0165425	0.000397146	0.000796414	0.000118324	0	0	0	
0.223833	0.0173436	-0.00280171	0.000761746	0.000151038	0	0	0	
0.224	-0.0172657	0.00319339	0.00068319	0.000153123	0	0	0	
0.224167	0.0144106	0.000893136	0.000634053	0.000116058	0	0	0	
0.224333	-0.0211873	-0.00456275	0.00065024	8.91564E-05	0	0	0	
0.2245	0.0211001	0.00676888	0.000698325	9.91672E-05	0	0	0	
0.224667	-0.0125211	-0.00674026	0.000701688	0.000139775	0	0	0	
0.224833	0.0169469	0.001765	0.000681561	0.000141199	0	0	0	
0.225	0.000269602	0.00428421	0.000644033	0.000112998	0	0	0	
0.225167	0.0157927	-0.00496014	0.000670632	7.42527E-05	0	0	0	
0.225333	-0.0237003	0.00589397	0.000723094	8.9836E-05	0	0	0	
0.2255	0.0174131	0.000343082	0.00080245	9.18391E-05	0	0	0	
0.225667	-0.0146882	0.000675482	0.000828323	9.26774E-05	0	0	0	
0.225833	0.0145612	-0.0048148	0.000783505	7.36509E-05	0	0	0	
0.226	-0.0204061	0.00516049	0.00074051	8.93759E-05	0	0	0	
0.226167	0.0210504	0.00509376	0.000761981	0.000111155	0	0	0	
0.226333	-0.0175702	-0.00199991	0.000823462	0.000145727	0	0	0	
0.2265	0.0198972	-0.00119305	0.000810237	0.000160475	0	0	0	
0.226667	-0.021026	0.00690047	0.00073197	0.000139542	0	0	0	
0.226833	0.0222985	-0.00202039	0.000700767	0.000115482	0	0	0	
0.227	-0.0293264	0.00198598	0.000723321	6.96992E-05	0	0	0	
0.227167	0.0357317	0.00740631	0.000797572	6.80429E-05	0	0	0	
0.227333	-0.0202176	-0.0157912	0.000881354	0.000106471	0	0	0	
0.2275	0.00550824	0.0143247	0.00092254	0.000200932	0	0	0	
0.227667	-0.0119885	-0.00448472	0.000796945	0.000244974	0	0	0	
0.227833	0.0188844	-0.00687384	0.000643477	0.000255014	0	0	0	
0.228	-0.0170011	0.0143208	0.000605729	0.000249159	0	0	0	
0.228167	0.0179362	-0.0150588	0.000674335	0.000265551	0	0	0	
0.228333	-0.0198628	0.0200592	0.000708263	0.000316086	0	0	0	
0.2285	0.0162856	-0.0119912	0.000725514	0.000361785	0	0	0	
0.228667	-0.0135331	0.00168556	0.00076344	0.00033678	0	0	0	
0.228833	0.0171862	0.002476	0.00077833	0.000217207	0	0	0	
0.229	-0.0200635	-0.000571739	0.000756169	0.000138227	0	0	0	
0.229167	0.0178696	0.0052327	0.000754234	0.000208244	0	0	0	
0.229333	-0.0167936	0.00350282	0.000792246	0.000318809	0	0	0	
0.2295	0.0142503	-0.00452628	0.000808575	0.000362716	0	0	0	
0.229667	-0.020226	-0.00153845	0.000783405	0.000325327	0	0	0	
0.229833	0.0230094	0.00201515	0.000743832	0.000258338	0	0	0	
0.23	-0.0215159	-0.00216419	0.000745743	0.000181378	0	0	0	
0.230167	0.0164752	0.00688006	0.000781005	0.000127137	0	0	0	
0.230333	-0.0156868	-0.0095636	0.000811661	0.000147009	0	0	0	
0.2305	0.014943	0.00840723	0.000803021	0.00020198	0	0	0	
0.230667	-0.0161824	-0.00121402	0.000773803	0.000230516	0	0	0	
0.230833	0.0185458	-0.00148392	0.000753422	0.000173714	0	0	0	
0.231	-0.0197557	0.00432224	0.000755967	0.000106575	0	0	0	
0.231167	0.0159056	-0.00763845	0.000763524	8.66351E-05	0	0	0	
0.231333	-0.0171924	0.0122263	0.000771956	0.000126382	0	0	0	
0.2315	0.0181716	-0.0117542	0.000766439	0.000194544	0	0	0	
0.231667	-0.0193045	0.00885536	0.000766884	0.000222424	0	0	0	
0.231833	0.0192168	-0.0082746	0.000767098	0.000234956	0	0	0	
0.232	-0.0186814	0.00353648	0.000780048	0.000203265	0	0	0	
0.232167	0.0167245	0.000492095	0.000786272	0.000161615	0	0	0	
0.232333	-0.0176444	-0.00616909	0.000778605	0.000116352	0	0	0	
0.2325	0.0164274	0.00920079	0.000748064	0.000111843	0	0	0	
0.232667	-0.0169873	-0.00980172	0.000733062	0.000154967	0	0	0	
0.232833	0.0155165	0.00607832	0.000735296	0.000177599	0	0	0	
0.233	-0.0166959	-0.00577487	0.000745272	0.000175616	0	0	0	
0.233167	0.0193366	0.00277043	0.000742927	0.000131463	0	0	0	
0.233333	-0.0158757	-0.000475809	0.00074593	9.98463E-05	0	0	0	
0.2335	0.0151406	0.00193516	0.000757007	8.50748E-05	0	0	0	
0.233667	-0.0160329	0.000158889	0.000763584	0.000100648	0	0	0	
0.233833	0.0157278	0.000809953	0.000766771	0.000101443	0	0	0	
0.234	-0.0175498	-0.00206293	0.000766874	8.47147E-05	0	0	0	
0.234167	0.0173921	-0.00284624	0.000763344	7.17759E-05	0	0	0	
0.234333	-0.0177882	-0.000174259	0.000769219	6.14885E-05	0	0	0	
0.2345	0.0160583	0.00120661	0.00077255	4.85529E-05	0	0	0	
0.234667	-0.0149453	0.00182777	0.000768871	2.91732E-05	0	0	0	
0.234833	0.016769	-0.00117096	0.000747434	3.44049E-05	0	0	0	
0.235	-0.0161006	-0.000475206	0.000737843	4.48326E-05	0	0	0	
0.235167	0.0170935	-0.0048297	0.000746138	4.6047E-05	0	0	0	
0.235333	-0.0182316	0.00173984	0.000758472	5.73931E-05	0	0	0	
0.2355	0.0162073	0.00155634	0.000759655	5.35551E-05	0	0	0	
0.235667	-0.0172842	-0.000614678	0.000766054	5.2735E-05	0	0	0	
0.235833	0.0145617	0.0032272	0.000771789	3.91291E-05	0	0	0	
0.236	-0.0175017	-0.00342503	0.000773214	5.75268E-05	0	0	0	
0.236167	0.0189387	0.00392121	0.000756635	8.90562E-05	0	0	0	
0.236333	-0.0165116	-0.000148095	0.000748965	8.8078E-05	0	0	0	
0.2365	0.0165606	0.00117758	0.000757366	6.88127E-05	0	0	0	
0.236667	-0.0172643	-0.00125858	0.000772266	4.21699E-05	0	0	0	
0.236833	0.0129098	0.00292665	0.000779663	3.67006E-05	0	0	0	
0.237	-0.0139422	-0.00717556	0.000774648	6.82461E-05	0	0	0	
0.237167	0.0142788	0.00887685	0.000749406	0.000116481	0	0	0	
0.237333	-0.0149642	-0.00186111	0.000727914	0.000140921	0	0	0	
0.2375	0.0147898	-0.00219692	0.000718499	0.000108606	0	0	0	
0.237667	-0.0152406	0.00180817	0.000723979	6.45791E-05	0	0	0	
0.237833	0.0158571	-0.000135445	0.000731252	5.42772E-05	0	0	0	
0.238	-0.0172954	-0.00380025	0.000751311	5.62367E-05	0	0	0	
0.238167	0.0166914	0.00992917	0.000781067	0.000110822	0	0	0	
0.238333	-0.0159748	0.00461711	0.000793514	0.000119681	0	0	0	
0.2385	0.0158363	-0.0146592	0.000778622	0.0001666	0	0	0	
0.238667	-0.015409	0.0193635	0.000754061	0.000210355	0	0	0	
0.238833	0.01782	-0.00498156	0.000742086	0.000295138	0	0	0	
0.239	-0.0205382	-0.0160312	0.000743233	0.000391086	0	0	0	
0.239167	0.0169926	0.0192014	0.000759403	0.000450213	0	0	0	
0.239333	-0.0142085	-0.00428642	0.000780537	0.00040953	0	0	0	
0.2395	0.0135135	-0.00911391	0.000786044	0.000361414	0	0	0	
0.239667	-0.0172087	0.0296002	0.000790158	0.000369231	0	0	0	
0.239833	0.0217914	-0.0287681	0.00080758	0.000507897	0	0	0	
0.24	-0.0210266	0.0207833	0.000823645	0.000535458	0	0	0	
0.240167	0.0147304	-0.00445153	0.000814777	0.000547666	0	0	0	
0.240333	-0.0134029	-0.0157398	0.000776164	0.000566335	0	0	0	
0.2405	0.0118822	0.0345951	0.000723489	0.000589278	0	0	0	
0.240667	-0.0230139	-0.0203739	0.000705635	0.000665572	0	0	0	
0.240833	0.0270011	-0.00146923	0.000732193	0.000774982	0	0	0	
0.241	-0.0154242	0.00669844	0.00078648	0.000847765	0	0	0	
0.241167	0.0125133	-0.000461836	0.000817284	0.000689481	0	0	0	
0.241333	-0.0111517	-0.00571265	0.000792663	0.000387157	0	0	0	
0.2415	0.010956	0.0195494	0.000763042	0.000302271	0	0	0	
0.241667	-0.0135525	-0.0389067	0.00072949	0.000431364	0	0	0	
0.241833	0.0138077	0.0459235	0.000691894	0.000698018	0	0	0	
0.242	-0.0203829	-0.0205892	0.000682405	0.000730839	0	0	0	
0.242167	0.0180072	0.012272	0.000724454	0.00061206	0	0	0	
0.242333	-0.0125947	-0.0042714	0.000803707	0.000359672	0	0	0	
0.2425	0.0114125	-0.000201888	0.000830889	0.000240719	0	0	0	
0.242667	-0.0157286	-0.0012418	0.000805113	0.000169004	0	0	0	
0.242833	0.0123991	0.00151126	0.000767872	0.000162401	0	0	0	
0.243	-0.0138122	0.0105775	0.00075247	0.000187179	0	0	0	
0.243167	0.015279	-0.00820202	0.000727838	0.000213692	0	0	0	
0.243333	-0.0170743	0.00621938	0.00071259	0.000220643	0	0	0	
0.2435	0.0174381	-0.00563558	0.00072799	0.00016768	0	0	0	
0.243667	-0.0149219	0.00609573	0.000767985	0.000134855	0	0	0	
0.243833	0.0108186	-0.00370569	0.000782601	0.000117348	0	0	0	
0.244	-0.0135614	0.00159746	0.00076218	0.000113137	0	0	0	
0.244167	0.0141968	-0.00650342	0.000727649	7.66878E-05	0	0	0	
0.244333	-0.0171627	0.0093986	0.000711861	0.000105838	0	0	0	
0.2445	0.0151356	0.00256253	0.000715283	0.000132586	0	0	0	
0.244667	-0.0136979	-0.0185456	0.000748329	0.000181983	0	0	0	
0.244833	0.010177	0.0104019	0.00077272	0.000226602	0	0	0	
0.245	-0.00906014	0.00925623	0.000795517	0.000324464	0	0	0	
0.245167	0.00520927	-0.0103518	0.000808185	0.000456433	0	0	0	
0.245333	-0.00209984	0.0166293	0.000797761	0.000480482	0	0	0	
0.2455	0.00969631	-0.0131805	0.000722007	0.000423091	0	0	0	
0.245667	-0.0269486	-0.00608549	0.000670024	0.000287512	0	0	0	
0.245833	0.0340416	0.0233995	0.000759418	0.0002831	0	0	0	
0.246	-0.120792	0.0048067	0.00127637	0.000340479	0	0	0	
0.246167	0.0111634	0.005241	0.00140552	0.000423311	0	0	0	
0.246333	-0.00543086	0.00316792	0.00142118	0.000528942	0	0	0	
0.2465	0.00629258	0.000262556	0.000982366	0.000583483	0	0	0	
0.246667	-0.0134459	0.00223383	0.000849545	0.000563452	0	0	0	
0.246833	0.0145011	-0.00990851	0.000782809	0.000409651	0	0	0	
0.247	-0.0121145	-0.00521165	0.000829741	0.000293094	0	0	0	
0.247167	0.0139969	-0.00719927	0.000862868	0.000202907	0	0	0	
0.247333	-0.0162989	0.00980149	0.000836715	0.000195299	0	0	0	
0.2475	0.0102814	-0.0025331	0.000786549	0.000155379	0	0	0	
0.247667	-0.0123901	0.00574252	0.000757414	0.000145871	0	0	0	
0.247833	0.0166187	-0.0110565	0.000704987	0.000142404	0	0	0	
0.248	-0.016529	0.00608074	0.000695364	0.000151819	0	0	0	
0.248167	0.0125086	-0.00293814	0.000748752	0.000172649	0	0	0	
0.248333	-0.0119172	-0.00539527	0.000793053	0.000125635	0	0	0	
0.2485	0.0134287	0.00586577	0.000771934	0.000104679	0	0	0	
0.248667	-0.0148304	-0.00533744	0.000731783	0.000117631	0	0	0	
0.248833	0.016459	-0.000369265	0.000727021	0.000127214	0	0	0	
0.249	-0.0154151	0.00135121	0.000758908	0.000104723	0	0	0	
0.249167	0.0118634	0.00144042	0.000785341	5.65154E-05	0	0	0	
0.249333	-0.0125569	-0.00555741	0.000783488	5.17834E-05	0	0	0	
0.2495	0.0152404	0.00241041	0.000755502	5.92009E-05	0	0	0	
0.249667	-0.01516	-0.00112035	0.000742947	7.29112E-05	0	0	0	
0.249833	0.0137397	0.00169554	0.000756574	6.63728E-05	0	0	0	
0.25	-0.0125244	0.00335719	0.000769935	5.64646E-05	0	0	0	
0.250167	0.0138061	-0.00283953	0.000767674	6.37662E-05	0	0	0	
0.250333	-0.0136	0.000906879	0.000760293	6.16466E-05	0	0	0	
0.2505	0.0130147	-0.00101341	0.000760872	7.54211E-05	0	0	0	
0.250667	-0.0133042	0.00180008	0.000762512	8.89803E-05	0	0	0	
0.250833	0.0136624	0.0016178	0.000756179	0.000127035	0	0	0	
0.251	-0.0135494	-0.0035938	0.00074279	0.000163543	0	0	0	
0.251167	0.0154119	0.000672651	0.000738538	0.000172196	0	0	0	
0.251333	-0.0136834	-0.0012913	0.000744281	0.0001715	0	0	0	
0.2515	0.0142022	0.00541131	0.000751422	0.000168046	0	0	0	
0.251667	-0.0159383	-0.00560627	0.000751166	0.000167545	0	0	0	
0.251833	0.0125699	0.00877821	0.000755913	0.000163873	0	0	0	
0.252	-0.00941089	-0.00454862	0.000762736	0.000159685	0	0	0	
0.252167	0.0136516	0.00260171	0.000751163	0.000124794	0	0	0	
0.252333	-0.0152963	-0.00601762	0.000725891	0.000109508	0	0	0	
0.2525	0.0140784	0.00782048	0.000730221	0.000122944	0	0	0	
0.252667	-0.0122776	0.000463053	0.000763061	0.00014152	0	0	0	
0.252833	0.0129199	0.00263122	0.00078669	0.000123939	0	0	0	
0.253	-0.0142411	-0.00245453	0.000779779	9.32529E-05	0	0	0	
0.253167	0.0125737	-0.00623601	0.000772346	9.05001E-05	0	0	0	
0.253333	-0.0114194	0.00302585	0.000773321	0.000132075	0	0	0	
0.2535	0.0121422	0.000706664	0.000758686	0.000134929	0	0	0	
0.253667	-0.0164648	0.0036594	0.000738875	0.000114087	0	0	0	
0.253833	0.0160575	-0.00586859	0.00074139	8.61803E-05	0	0	0	
0.254	-0.014673	-0.000405115	0.00077107	7.72761E-05	0	0	0	
0.254167	0.0136967	0.000950493	0.000788191	8.83716E-05	0	0	0	
0.254333	-0.0131953	0.00503719	0.000781469	8.69083E-05	0	0	0	
0.2545	0.0127414	0.00047555	0.000767478	0.000117653	0	0	0	
0.254667	-0.0136745	0.00187301	0.000767429	0.000159462	0	0	0	
0.254833	0.010735	-0.00088618	0.000775445	0.000181096	0	0	0	
0.255	-0.0101283	0.00703477	0.000774975	0.000172866	0	0	0	
0.255167	0.0121007	-0.00127735	0.000761613	0.000183234	0	0	0	
0.255333	-0.0134691	0.000667833	0.000753478	0.000191342	0	0	0	
0.2555	0.0112085	0.00105716	0.000754869	0.000198358	0	0	0	
0.255667	-0.0125419	0.00127882	0.000755563	0.000185644	0	0	0	
0.255833	0.0126773	0.00320278	0.000742724	0.000187527	0	0	0	
0.256	-0.0134941	0.000541747	0.000740745	0.000184934	0	0	0	
0.256167	0.0131618	0.00375577	0.000758861	0.00018974	0	0	0	
0.256333	-0.0118607	-0.00656903	0.000783561	0.000200595	0	0	0	
0.2565	0.0112411	0.0132682	0.000787786	0.000246525	0	0	0	
0.256667	-0.0103467	-0.00906631	0.000772705	0.00026053	0	0	0	
0.256833	0.00944714	0.00721581	0.000756517	0.000243077	0	0	0	
0.257	-0.0116303	-0.00814365	0.000750763	0.000202459	0	0	0	
0.257167	0.0127433	0.0108737	0.000758096	0.000190201	0	0	0	
0.257333	-0.0107296	-0.00265467	0.000764688	0.000180561	0	0	0	
0.2575	0.0109406	0.00298256	0.000758079	0.000137189	0	0	0	
0.257667	-0.0110001	0.00229934	0.000744931	9.33861E-05	0	0	0	
0.257833	0.0124089	-0.00532565	0.000750718	8.00974E-05	0	0	0	
0.258	-0.0120209	-3.82366E-05	0.000766279	9.00829E-05	0	0	0	
0.258167	0.0117331	-0.000609164	0.000769204	8.21425E-05	0	0	0	
0.258333	-0.0144319	0.0025552	0.000765201	7.34259E-05	0	0	0	
0.2585	0.0100432	0.00103004	0.000769184	8.15417E-05	0	0	0	
0.258667	-0.0112942	0.000773095	0.000780716	0.00010909	0	0	0	
0.258833	0.0133623	-0.00152586	0.000770024	0.000123455	0	0	0	
0.259	-0.012717	-0.00203841	0.000755643	0.000126447	0	0	0	
0.259167	0.0106725	0.00920924	0.000750315	0.000151002	0	0	0	
0.259333	-0.0108565	-0.00837987	0.000752434	0.000158356	0	0	0	
0.2595	0.0104251	0.008151	0.000751363	0.000191677	0	0	0	
0.259667	-0.0111859	-0.000424577	0.000757507	0.000143308	0	0	0	
0.259833	0.00716634	0.00570359	0.000762001	0.00013952	0	0	0	
0.26	-0.0095338	0.00442544	0.000750531	9.23618E-05	0	0	0	
0.260167	0.0124255	-0.00119436	0.000725395	0.000119843	0	0	0	
0.260333	-0.0128392	-0.0011151	0.000719664	0.000113793	0	0	0	
0.2605	0.0124727	0.00281024	0.000741182	0.000123256	0	0	0	
0.260667	-0.01294	0.00177793	0.000770722	8.91552E-05	0	0	0	
0.260833	0.0101733	0.00526092	0.000791705	6.98982E-05	0	0	0	
0.261	-0.00881847	0.000708113	0.00080111	7.05633E-05	0	0	0	
0.261167	0.0101648	0.00454207	0.000794199	7.8766E-05	0	0	0	
0.261333	-0.0108683	-0.00623791	0.000767298	0.00010909	0	0	0	
0.2615	0.0128398	0.00403297	0.000743476	0.000107071	0	0	0	
0.261667	-0.013249	0.000114964	0.000740625	0.000104608	0	0	0	
0.261833	0.0110729	-0.00427285	0.000756039	7.98664E-05	0	0	0	
0.262	-0.0116562	0.0133941	0.00076827	0.000109852	0	0	0	
0.262167	0.0120439	-0.0087117	0.000777147	0.000188719	0	0	0	
0.262333	-0.010366	0.00431797	0.000784186	0.000191299	0	0	0	
0.2625	0.0109188	-0.00644108	0.000782534	0.000174772	0	0	0	
0.262667	-0.0102534	-0.00131594	0.000765582	0.000138108	0	0	0	
0.262833	0.0115994	0.00395719	0.00075559	0.000173897	0	0	0	
0.263	-0.0113963	-0.00410896	0.000757113	0.000180378	0	0	0	
0.263167	0.0115871	0.00692552	0.000763711	0.0001701	0	0	0	
0.263333	-0.0113918	-0.00339597	0.000766365	0.000150752	0	0	0	
0.2635	0.00929696	0.00196643	0.000771104	0.000105041	0	0	0	
0.263667	-0.00879752	-0.00644601	0.000768871	8.89797E-05	0	0	0	
0.263833	0.0093866	0.0067268	0.000752496	8.9434E-05	0	0	0	
0.264	-0.0105753	-0.00529211	0.000737817	0.000116771	0	0	0	
0.264167	0.00949227	0.00883692	0.000741384	0.000129225	0	0	0	
0.264333	-0.00782965	0.00061978	0.000750564	0.00014705	0	0	0	
0.2645	0.0105409	-0.00463797	0.000751722	0.000155815	0	0	0	
0.264667	-0.0108513	8.85928E-05	0.00075316	0.000135004	0	0	0	
0.264833	0.00944	-0.00107456	0.000770986	8.62255E-05	0	0	0	
0.265	-0.00683048	-2.75916E-05	0.000785098	5.14004E-05	0	0	0	
0.265167	0.00750075	0.00711648	0.000769865	7.09177E-05	0	0	0	
0.265333	-0.0112938	-0.000968394	0.000726447	0.000108227	0	0	0	
0.2655	0.0168075	-0.00286383	0.000724202	0.000110604	0	0	0	
0.265667	-0.010083	-0.00377422	0.000794747	9.88589E-05	0	0	0	
0.265833	0.00198733	0.00973334	0.000873222	9.41747E-05	0	0	0	
0.266	-0.00495494	-0.00247673	0.00083774	0.000123001	0	0	0	
0.266167	0.0116183	-0.00232885	0.000723712	0.000159431	0	0	0	
0.266333	-0.0121519	0.00239987	0.000654706	0.000169092	0	0	0	
0.2665	0.0105042	-0.00698358	0.000678071	0.000160484	0	0	0	
0.266667	-0.0116458	0.00824842	0.000710864	0.000138818	0	0	0	
0.266833	0.0165548	0.00111174	0.000730675	0.000138595	0	0	0	
0.267	-0.0103157	-0.00447834	0.000776723	0.00017461	0	0	0	
0.267167	0.00523284	0.000886597	0.000842068	0.000154915	0	0	0	
0.267333	-0.00561304	-0.0096456	0.000828868	0.000180106	0	0	0	
0.2675	0.0100753	0.00406128	0.000752142	0.000184483	0	0	0	
0.267667	-0.00908184	-0.000814191	0.000701993	0.000202106	0	0	0	
0.267833	0.00507158	0.00362513	0.000717254	0.000148107	0	0	0	
0.268	-0.00810122	-0.00098405	0.000720345	0.000110597	0	0	0	
0.268167	0.0149577	-0.00479082	0.000696398	0.000111191	0	0	0	
0.268333	-0.0128465	0.00102279	0.000704648	0.000122927	0	0	0	
0.2685	0.00847053	0.00292059	0.000768935	0.000130196	0	0	0	
0.268667	-0.00675709	-0.00199035	0.000808068	0.000132149	0	0	0	
0.268833	0.00704041	0.00313019	0.000782093	0.000118943	0	0	0	
0.269	-0.00909439	0.00358418	0.000728713	8.9264E-05	0	0	0	
0.269167	0.010478	-0.00804731	0.000706442	8.35001E-05	0	0	0	
0.269333	-0.0105392	0.00878747	0.000730097	0.00011103	0	0	0	
0.2695	0.00728131	-0.00260646	0.000771738	0.000142161	0	0	0	
0.269667	-0.00596722	-0.00139223	0.000794981	0.00012276	0	0	0	
0.269833	0.00690814	-0.0012193	0.000773579	0.000116145	0	0	0	
0.27	-0.0109248	-0.00219209	0.00074083	0.000122484	0	0	0	
0.270167	0.00935922	-0.00222569	0.00073314	0.000125705	0	0	0	
0.270333	-0.0102446	-0.000925261	0.000757343	0.000100414	0	0	0	
0.2705	0.00860068	0.00345266	0.000772378	7.9983E-05	0	0	0	
0.270667	-0.00935917	7.88387E-05	0.000775411	7.75813E-05	0	0	0	
0.270833	0.00840206	-0.000173445	0.000769942	6.47162E-05	0	0	0	
0.271	-0.00940623	0.00312963	0.000765213	6.21843E-05	0	0	0	
0.271167	0.00841479	-0.00950586	0.000754959	6.51252E-05	0	0	0	
0.271333	-0.00944562	0.0100608	0.000753874	0.000138418	0	0	0	
0.2715	0.00571073	-0.00441072	0.000759526	0.00016315	0	0	0	
0.271667	-0.00941844	0.00467715	0.00076443	0.00019721	0	0	0	
0.271833	0.00925188	0.00394064	0.000754003	0.000197855	0	0	0	
0.272	-0.0092246	5.74258E-05	0.000749025	0.000209294	0	0	0	
0.272167	0.0081941	0.00263786	0.000752178	0.000199529	0	0	0	
0.272333	-0.00922013	-0.0060776	0.000768041	0.000171465	0	0	0	
0.2725	0.00679771	0.00856405	0.000773109	0.000179191	0	0	0	
0.272667	-0.00892458	-0.00639684	0.000766807	0.000178771	0	0	0	
0.272833	0.00636662	0.00760312	0.00075153	0.000181237	0	0	0	
0.273	-0.00799682	-0.00203121	0.000751534	0.000141782	0	0	0	
0.273167	0.00750712	0.00243909	0.000758442	0.000106964	0	0	0	
0.273333	-0.00840753	-0.000719458	0.000768464	5.69048E-05	0	0	0	
0.2735	0.00755816	0.00225866	0.000770036	4.49696E-05	0	0	0	
0.273667	-0.00829669	0.000723964	0.000766784	4.07311E-05	0	0	0	
0.273833	0.00711793	-0.00207623	0.000757598	4.39767E-05	0	0	0	
0.274	-0.00949495	0.00761641	0.000756776	5.87923E-05	0	0	0	
0.274167	0.00984818	-0.00421087	0.000765213	9.63396E-05	0	0	0	
0.274333	-0.00756736	0.0057278	0.000774728	0.00012221	0	0	0	
0.2745	0.00800575	-0.000478017	0.000775336	0.000134106	0	0	0	
0.274667	-0.00737608	-0.0022519	0.000771227	0.000129017	0	0	0	
0.274833	0.00669463	0.00597731	0.000768698	0.00014085	0	0	0	
0.275	-0.00760635	-0.00238166	0.000768288	0.000123563	0	0	0	
0.275167	0.00672862	-6.22501E-05	0.000761525	8.83731E-05	0	0	0	
0.275333	-0.00880697	0.00214425	0.00074871	4.76015E-05	0	0	0	
0.2755	0.0101219	-0.00272499	0.000741869	4.8858E-05	0	0	0	
0.275667	-0.00894404	-0.00318514	0.000751376	9.81233E-05	0	0	0	
0.275833	0.00891742	0.00747602	0.000762089	0.000162747	0	0	0	
0.276	-0.009216	-0.00296465	0.000761231	0.000167376	0	0	0	
0.276167	0.0085539	0.00196412	0.000758633	0.000147718	0	0	0	
0.276333	-0.0083506	0.00353513	0.000762368	0.000120767	0	0	0	
0.2765	0.00692011	-0.00794138	0.000756209	0.000145412	0	0	0	
0.276667	-0.00948125	0.00660246	0.000741792	0.000163735	0	0	0	
0.276833	0.00839739	-0.00132699	0.000736667	0.000156298	0	0	0	
0.277	-0.00679172	0.00881026	0.00075038	0.000136446	0	0	0	
0.277167	0.0057221	-0.00438043	0.000756158	0.000146693	0	0	0	
0.277333	-0.00780764	-0.000226105	0.000748675	0.000162444	0	0	0	
0.2775	0.00870168	-0.00363586	0.000741819	0.000172912	0	0	0	
0.277667	-0.00844648	0.0024373	0.000750175	0.000172656	0	0	0	
0.277833	0.00681537	0.00334138	0.000752302	0.000185304	0	0	0	
0.278	-0.0086084	-0.00581863	0.000740696	0.000200599	0	0	0	
0.278167	0.00773131	0.00601844	0.000731862	0.000208379	0	0	0	
0.278333	-0.00900309	-0.0104082	0.000748421	0.000232205	0	0	0	
0.2785	0.00534153	0.0131181	0.000767059	0.000270293	0	0	0	
0.278667	-0.00652881	-0.00685372	0.000773606	0.000263681	0	0	0	
0.278833	0.00582068	0.0103743	0.000765247	0.000231023	0	0	0	
0.279	-0.00644558	-0.00720097	0.000759615	0.000188094	0	0	0	
0.279167	0.00565288	0.00460884	0.000749932	0.00016385	0	0	0	
0.279333	-0.00814778	-0.00189314	0.000743667	0.000142673	0	0	0	
0.2795	0.00681884	0.00455032	0.000741249	9.78847E-05	0	0	0	
0.279667	-0.00728547	-0.00349906	0.000747268	0.000101289	0	0	0	
0.279833	0.00757881	-0.00185877	0.000749682	9.40739E-05	0	0	0	
0.28	-0.00792559	-0.00110438	0.000750478	8.41461E-05	0	0	0	
0.280167	0.00642295	-0.000456655	0.000750047	4.50931E-05	0	0	0	
0.280333	-0.00645207	0.002514	0.000757029	2.89272E-05	0	0	0	
0.2805	0.00628248	-0.00619736	0.00076512	6.26478E-05	0	0	0	
0.280667	-0.00814294	-0.00223614	0.000768874	0.000108661	0	0	0	
0.280833	0.00560881	-0.00274268	0.000760586	0.00012578	0	0	0	
0.281	-0.00636091	0.00174276	0.000753768	0.000122734	0	0	0	
0.281167	0.00580202	0.00217783	0.000750146	0.000115245	0	0	0	
0.281333	-0.00697145	-0.00149631	0.000750999	0.000128258	0	0	0	
0.2815	0.00883133	0.00759741	0.000758265	0.000141711	0	0	0	
0.281667	-0.00513215	-0.00188061	0.000770527	0.000133252	0	0	0	
0.281833	0.00355798	0.00111224	0.000773349	9.56893E-05	0	0	0	
0.282	-0.00582628	-0.00145617	0.000762421	6.37737E-05	0	0	0	
0.282167	0.00616587	-0.00268572	0.000752879	4.05994E-05	0	0	0	
0.282333	-0.00827875	-0.00111195	0.000755197	5.03822E-05	0	0	0	
0.2825	0.00774645	0.00284201	0.000759577	3.65639E-05	0	0	0	
0.282667	-0.00660398	0.00383075	0.000762246	4.55934E-05	0	0	0	
0.282833	0.00592773	-0.00642976	0.000771171	8.04334E-05	0	0	0	
0.283	-0.00577768	0.00371422	0.000782793	0.000122762	0	0	0	
0.283167	0.00620554	-0.00860421	0.000783697	0.00016276	0	0	0	
0.283333	-0.00512911	0.000217362	0.000775182	0.000187531	0	0	0	
0.2835	0.00528064	0.00085459	0.000763738	0.0001883	0	0	0	
0.283667	-0.00557936	-0.0019466	0.000750719	0.000161108	0	0	0	
0.283833	0.00735463	0.000733064	0.000743752	0.000101765	0	0	0	
0.284	-0.00642624	-0.00219445	0.000747018	7.17501E-05	0	0	0	
0.284167	0.00644688	0.000705143	0.000755188	5.58805E-05	0	0	0	
0.284333	-0.00751425	-0.00393994	0.000756919	7.5587E-05	0	0	0	
0.2845	0.00736549	0.00508398	0.000754699	9.42682E-05	0	0	0	
0.284667	-0.00640898	-0.00466382	0.000755937	0.00012821	0	0	0	
0.284833	0.00517047	-0.00684557	0.000759682	0.000131049	0	0	0	
0.285	-0.00624598	0.00521931	0.0007634	0.000143311	0	0	0	
0.285167	0.00670676	8.40958E-05	0.000770803	0.000129439	0	0	0	
0.285333	-0.00339005	0.00379344	0.000778193	0.000118763	0	0	0	
0.2855	0.00519505	0.00157115	0.000774511	0.000118188	0	0	0	
0.285667	-0.00422669	-0.00639122	0.000754668	0.000141904	0	0	0	
0.285833	0.00545918	0.00196029	0.000733769	0.000148419	0	0	0	
0.286	-0.00728912	-0.00403335	0.000733385	0.000130669	0	0	0	
0.286167	0.00574425	0.00893674	0.000750183	0.000115822	0	0	0	
0.286333	-0.00696496	-0.0106972	0.000761795	0.000162683	0	0	0	
0.2865	0.00628854	0.00658517	0.000760965	0.00018304	0	0	0	
0.286667	-0.00293302	-0.00351656	0.000758703	0.000175824	0	0	0	
0.286833	0.00325417	-0.000105445	0.000754182	0.000128911	0	0	0	
0.287	-0.0066213	-0.00381967	0.000746318	0.000119236	0	0	0	
0.287167	0.00864585	0.000475621	0.000749752	0.00013655	0	0	0	
0.287333	-0.00636608	0.000768122	0.000772744	0.000163055	0	0	0	
0.2875	0.00312724	-0.0024704	0.000791485	0.000186633	0	0	0	
0.287667	-0.00445514	0.00360038	0.000789638	0.000190009	0	0	0	
0.287833	0.00582371	-0.0105576	0.000787034	0.000198605	0	0	0	
0.288	-0.00620271	0.00269514	0.000803681	0.000197759	0	0	0	
0.288167	0.00484654	0.00629304	0.000826047	0.000171174	0	0	0	
0.288333	-0.00176569	0.00269535	0.000829333	0.000129033	0	0	0	
0.2885	0.00106723	-0.0053904	0.000809995	0.000117677	0	0	0	
0.288667	-0.00518436	0.00815613	0.000765161	0.00015362	0	0	0	
0.288833	0.0109899	-0.00896143	0.000695964	0.000169104	0	0	0	
0.289	-0.0177813	0.0155356	0.000655693	0.00020887	0	0	0	
0.289167	0.0153133	-0.000487426	0.000719049	0.000193935	0	0	0	
0.289333	-0.00351915	-0.00566156	0.000883367	0.00025274	0	0	0	
0.2895	-0.00438304	0.0112864	0.00100246	0.00023619	0	0	0	
0.289667	-0.000250565	-0.00809382	0.00095252	0.000239109	0	0	0	
0.289833	0.00340409	-0.000346135	0.000786654	0.000245965	0	0	0	
0.29	-0.00643988	0.0114607	0.000651029	0.00028032	0	0	0	
0.290167	0.0092718	-0.0100553	0.000617176	0.000319603	0	0	0	
0.290333	-0.0115742	0.00361193	0.000665385	0.000239781	0	0	0	
0.2905	0.0054918	0.00145804	0.000754512	0.000196066	0	0	0	
0.290667	-0.00212553	-0.00470773	0.000839783	0.000166816	0	0	0	
0.290833	0.00318283	0.00639012	0.000846108	0.000165557	0	0	0	
0.291	-0.00546823	-0.00317793	0.000773772	0.000141886	0	0	0	
0.291167	0.00713537	-0.00241277	0.000705031	0.000114565	0	0	0	
0.291333	-0.00789381	0.0082647	0.000716423	0.000133229	0	0	0	
0.2915	0.0038401	-0.00276245	0.000773062	0.000124	0	0	0	
0.291667	-0.00437116	0.0010554	0.00080295	0.000100072	0	0	0	
0.291833	0.00498932	-0.00306347	0.000783862	7.87075E-05	0	0	0	
0.292	-0.0060025	0.00133801	0.000758256	6.70555E-05	0	0	0	
0.292167	0.00446324	-0.000758095	0.000757156	5.63133E-05	0	0	0	
0.292333	-0.00346374	0.00890914	0.000770017	7.6563E-05	0	0	0	
0.2925	0.00459609	-0.00415899	0.000766202	0.000105092	0	0	0	
0.292667	-0.00642934	0.00510264	0.000746503	0.000127078	0	0	0	
0.292833	0.00589223	-0.00658205	0.000732013	0.000118604	0	0	0	
0.293	-0.0064868	0.00175077	0.000743382	0.000102126	0	0	0	
0.293167	0.00297757	0.00296428	0.000764797	8.95687E-05	0	0	0	
0.293333	-0.00384181	0.00487959	0.00077147	8.30286E-05	0	0	0	
0.2935	0.00574945	-0.00773707	0.000757407	9.86973E-05	0	0	0	
0.293667	-0.00603172	0.00722931	0.00074871	0.000136497	0	0	0	
0.293833	0.00338904	-0.00706335	0.00075832	0.000164564	0	0	0	
0.294	-0.00316381	0.0072434	0.000765021	0.000170737	0	0	0	
0.294167	0.00474821	-0.00170655	0.000748553	0.000153218	0	0	0	
0.294333	-0.00641148	0.000917891	0.000737607	0.000103468	0	0	0	
0.2945	0.00432978	-0.0022926	0.000753342	6.63521E-05	0	0	0	
0.294667	-0.00424724	0.00104551	0.000768618	6.65974E-05	0	0	0	
0.294833	0.00403852	-0.00406666	0.000755104	9.26457E-05	0	0	0	
0.295	-0.00619489	0.00773033	0.000740533	0.000116837	0	0	0	
0.295167	0.00533994	0.000769426	0.000752615	0.000125611	0	0	0	
0.295333	-0.00292174	0.00315543	0.00077057	0.000113055	0	0	0	
0.2955	0.00509715	-0.00214947	0.000767665	0.000110006	0	0	0	
0.295667	-0.00427371	-0.00153624	0.000752899	0.000107684	0	0	0	
0.295833	0.00439857	0.00476349	0.000747207	0.000133667	0	0	0	
0.296	-0.00472213	-0.00690494	0.000748942	0.00014501	0	0	0	
0.296167	0.00343072	0.00577291	0.000749256	0.000136883	0	0	0	
0.296333	-0.00426847	-0.00772073	0.000746325	0.000148182	0	0	0	
0.2965	0.00340725	0.00471753	0.000745291	0.000136364	0	0	0	
0.296667	-0.00351777	-0.00361269	0.000747279	0.000139913	0	0	0	
0.296833	0.00430428	0.00188272	0.000748542	0.000120978	0	0	0	
0.297	-0.00257309	-0.00346302	0.00074777	0.000127303	0	0	0	
0.297167	0.00398939	0.00117345	0.000747661	0.000160826	0	0	0	
0.297333	-0.0044234	0.00447421	0.000754841	0.000197194	0	0	0	
0.2975	0.00252821	-0.00517322	0.000766103	0.000203755	0	0	0	
0.297667	-0.0042368	0.00817959	0.000775485	0.000185291	0	0	0	
0.297833	0.00188676	-0.0058741	0.000774132	0.000164572	0	0	0	
0.298	-0.00297441	0.00450315	0.000763963	0.000138039	0	0	0	
0.298167	0.0052782	-0.00242652	0.000756302	0.000117791	0	0	0	
0.298333	-0.00424563	0.00177151	0.000757771	9.74072E-05	0	0	0	
0.2985	0.00492854	0.00361509	0.00076545	0.00011388	0	0	0	
0.298667	-0.00461224	-0.00334809	0.000767981	0.000116605	0	0	0	
0.298833	0.00390284	0.00685085	0.000764708	0.000120991	0	0	0	
0.299	-0.00302743	-0.00726048	0.000764361	0.000145849	0	0	0	
0.299167	0.00161786	-0.00130126	0.000769176	0.000133146	0	0	0	
0.299333	-0.00374835	-0.00587007	0.000764165	0.000113608	0	0	0	
0.2995	0.00531449	0.00536188	0.000752528	9.87968E-05	0	0	0	
0.299667	-0.00488279	-0.000294345	0.000759022	0.000101794	0	0	0	
0.299833	0.000943836	0.00141862	0.000781799	9.11317E-05	0	0	0	
0.3	-0.001615	-3.76452E-05	0.000781519	6.60073E-05	0	0	0	
0.300167	0.00419819	-0.00927161	0.000753202	9.20731E-05	0	0	0	
0.300333	-0.00467339	0.00762334	0.00074242	0.000143002	0	0	0	
0.3005	0.00281079	-0.00929999	0.000760811	0.00015962	0	0	0	
0.300667	-0.00198742	0.00560665	0.000774554	0.00016277	0	0	0	
0.300833	0.00324991	0.00129267	0.000770065	0.000134	0	0	0	
0.301	-0.00276435	-0.00210492	0.000770491	0.000134282	0	0	0	
0.301167	0.001424	-0.00434835	0.000775412	0.000136767	0	0	0	
0.301333	-0.00350179	0.00773399	0.000760284	0.000163243	0	0	0	
0.3015	0.00582122	-0.00718661	0.00073775	0.000177775	0	0	0	
0.301667	-0.0042658	0.00193555	0.000744512	0.00015733	0	0	0	
0.301833	0.002288	0.00459099	0.000780235	0.000121184	0	0	0	
0.302	-0.000259643	-0.00612786	0.000799544	9.94042E-05	0	0	0	
0.302167	0.00211665	0.00707895	0.000779395	0.000100983	0	0	0	
0.302333	-0.00307914	-0.00287108	0.000747849	0.000128345	0	0	0	
0.3025	0.00242357	-0.00194505	0.000739128	0.000129694	0	0	0	
0.302667	-0.00441421	0.00414967	0.000752319	0.000106296	0	0	0	
0.302833	0.00338731	-0.0012807	0.00076887	8.06601E-05	0	0	0	
0.303	-0.00198039	-0.000194855	0.000781365	5.83291E-05	0	0	0	
0.303167	0.002508	0.00120034	0.000784383	5.06826E-05	0	0	0	
0.303333	-0.00337481	-0.00313151	0.000774512	4.32539E-05	0	0	0	
0.3035	0.00358521	0.000658349	0.00075844	4.49615E-05	0	0	0	
0.303667	-0.00353177	0.00130486	0.000756541	4.56419E-05	0	0	0	
0.303833	0.00233619	-0.00208854	0.000768926	4.14187E-05	0	0	0	
0.304	-0.00345487	0.00588174	0.0007804	5.79372E-05	0	0	0	
0.304167	0.00261627	0.000495197	0.000778628	7.64588E-05	0	0	0	
0.304333	-0.00307861	0.000692483	0.000770259	7.61224E-05	0	0	0	
0.3045	0.00263297	0.00141013	0.000760345	5.39564E-05	0	0	0	
0.304667	-0.00388966	-0.00540256	0.0007577	4.78386E-05	0	0	0	
0.304833	0.00384062	0.00964787	0.000767434	0.000102919	0	0	0	
0.305	-0.00186334	0.0059763	0.000784695	0.000128297	0	0	0	
0.305167	0.000616405	-0.0141463	0.000793542	0.000270879	0	0	0	
0.305333	-0.000833984	0.0266047	0.000779917	0.000378275	0	0	0	
0.3055	0.00256184	-0.0329142	0.000748702	0.000513803	0	0	0	
0.305667	-0.00529443	0.0187531	0.000728465	0.000585453	0	0	0	
0.305833	0.00377835	0.00345645	0.000741598	0.000622463	0	0	0	
0.306	-0.00263697	-0.006872	0.000775266	0.000606537	0	0	0	
0.306167	0.00247053	0.0141163	0.00079926	0.000414997	0	0	0	
0.306333	-0.0017115	-0.0113616	0.000796766	0.00035799	0	0	0	
0.3065	0.00358809	-0.00910359	0.000771358	0.000426433	0	0	0	
0.306667	-0.00481008	0.0327692	0.000743538	0.000565602	0	0	0	
0.306833	0.00278765	-0.0268097	0.000738756	0.000611646	0	0	0	
0.307	-0.00372127	0.011576	0.000763862	0.000486327	0	0	0	
0.307167	0.0035506	-0.00605001	0.000789242	0.000392526	0	0	0	
0.307333	-0.00225577	0.00613533	0.000787792	0.000255124	0	0	0	
0.3075	0.00286086	0.00156045	0.000769016	0.000183127	0	0	0	
0.307667	-0.00241156	-0.00205425	0.000750314	0.000111886	0	0	0	
0.307833	0.00378877	-0.00129344	0.000738856	5.7555E-05	0	0	0	
0.308	-0.00594972	0.00122926	0.000743744	5.12074E-05	0	0	0	
0.308167	0.00313456	-0.00131416	0.000762354	6.91238E-05	0	0	0	
0.308333	-0.00239958	-0.00211947	0.00078057	0.000101034	0	0	0	
0.3085	0.00150684	0.00514205	0.000780187	0.000116828	0	0	0	
0.308667	-0.00110377	-0.00198937	0.000762816	0.000100591	0	0	0	
0.308833	0.00401743	0.00226158	0.00074623	9.28054E-05	0	0	0	
0.309	-0.00116224	0.00511552	0.000744303	8.60788E-05	0	0	0	
0.309167	0.000119834	-0.00860373	0.000755755	0.000114646	0	0	0	
0.309333	-0.00230224	0.00610481	0.000767119	0.000147249	0	0	0	
0.3095	0.0021572	-0.000977835	0.000772479	0.000152175	0	0	0	
0.309667	-0.00135074	0.0080146	0.000775194	0.000126148	0	0	0	
0.309833	0.00112955	-0.00540803	0.000775863	0.000126129	0	0	0	
0.31	-0.00157352	0.000854088	0.000770836	0.000137133	0	0	0	
0.310167	0.00372023	-0.000637531	0.000764429	0.000144471	0	0	0	
0.310333	-0.0014992	0.0061968	0.000759457	0.000108697	0	0	0	
0.3105	0.00140141	-0.0040818	0.000761895	0.000111517	0	0	0	
0.310667	-0.00268861	0.000879532	0.000780333	0.000123952	0	0	0	
0.310833	0.000648407	0.00276665	0.000813513	0.000145713	0	0	0	
0.311	0.00167244	-0.0023034	0.000837614	0.000167548	0	0	0	
0.311167	-0.00273335	-0.000779758	0.00083934	0.000217853	0	0	0	
0.311333	0.0014989	0.00245056	0.000829886	0.000265634	0	0	0	
0.3115	-0.000363034	-0.0106056	0.000802694	0.000289211	0	0	0	
0.311667	-0.00679874	0.00497999	0.000754818	0.000312075	0	0	0	
0.311833	0.00776406	0.00384746	0.0007315	0.00028177	0	0	0	
0.312	-0.000541704	-0.0055268	0.000783067	0.00021971	0	0	0	
0.312167	-0.00437659	0.010933	0.000861133	0.000157643	0	0	0	
0.312333	-0.00235001	-0.0099403	0.000869292	0.000146549	0	0	0	
0.3125	0.00601429	0.00697663	0.000815923	0.00019059	0	0	0	
0.312667	-0.00428255	-0.00199296	0.000775199	0.000188157	0	0	0	
0.312833	0.000788627	-0.00281253	0.000767874	0.000147965	0	0	0	
0.313	-0.00285639	0.00324967	0.00076354	9.95054E-05	0	0	0	
0.313167	0.00202787	0.00289969	0.000763881	8.1474E-05	0	0	0	
0.313333	-0.00179927	0.00633326	0.000779157	0.000100279	0	0	0	
0.3135	0.000219229	-0.00589835	0.000784302	0.000134333	0	0	0	
0.313667	-0.000425439	0.00922352	0.000758912	0.000136453	0	0	0	
0.313833	0.00300647	-0.0184483	0.000731641	0.000201655	0	0	0	
0.314	-0.00153928	0.0125243	0.000748404	0.000252978	0	0	0	
0.314167	-0.00286097	-0.00281092	0.000801344	0.000269767	0	0	0	
0.314333	0.0033715	0.00184766	0.000816195	0.00018418	0	0	0	
0.3145	0.00896105	-0.000330901	0.000725384	9.98936E-05	0	0	0	
0.314667	-0.0711571	0.013671	0.000663561	9.27268E-05	0	0	0	
0.314833	-0.0125183	0.013661	0.000828944	0.000216253	0	0	0	
0.315	-0.00488819	-0.0121773	0.000890224	0.000297182	0	0	0	
0.315167	-0.00111889	0.0168943	0.000910712	0.000405652	0	0	0	
0.315333	-0.00319075	-0.0105549	0.00072475	0.000374565	0	0	0	
0.3155	0.00774829	0.0177133	0.000753813	0.000349695	0	0	0	
0.315667	-0.0117828	-0.029889	0.000805983	0.000380565	0	0	0	
0.315833	0.00280891	0.0079861	0.00085602	0.000406868	0	0	0	
0.316	-0.000255511	-0.00543554	0.000854891	0.000358726	0	0	0	
0.316167	-0.00133781	-0.00608295	0.000801571	0.000214567	0	0	0	
0.316333	-0.00242853	0.00264407	0.00075861	0.00011824	0	0	0	
0.3165	0.000511436	0.000626789	0.000739859	8.75541E-05	0	0	0	
0.316667	0.00132381	-0.000223203	0.00075208	5.67572E-05	0	0	0	
0.316833	0.00139006	-0.00527862	0.0007695	3.38775E-05	0	0	0	
0.317	-0.00119909	0.00773807	0.000776536	6.37729E-05	0	0	0	
0.317167	-0.000418154	-0.0132024	0.000765925	0.000128593	0	0	0	
0.317333	-0.00190291	0.00619908	0.000748436	0.000182841	0	0	0	
0.3175	0.000327108	-0.0021901	0.000731131	0.000175018	0	0	0	
0.317667	-0.00117167	-1.32068E-05	0.000714173	0.000118299	0	0	0	
0.317833	0.00126808	0.00198357	0.0007087	9.79444E-05	0	0	0	
0.318	-9.95344E-05	-0.0138829	0.000727373	0.000172228	0	0	0	
0.318167	-0.00106315	0.0134357	0.000758102	0.000262097	0	0	0	
0.318333	0.000332801	-0.0116326	0.0007669	0.000303571	0	0	0	
0.3185	0.000727244	0.00483876	0.000746944	0.000252298	0	0	0	
0.318667	-0.00130907	-0.00143579	0.000731131	0.000170735	0	0	0	
0.318833	-0.000680741	0.00209511	0.000728097	8.80955E-05	0	0	0	
0.319	-0.00251341	-0.010219	0.000720458	7.87399E-05	0	0	0	
0.319167	0.00252202	0.00877991	0.000716087	0.000124075	0	0	0	
0.319333	0.000128417	-0.00643816	0.000739048	0.000161215	0	0	0	
0.3195	-0.0005543	0.00657585	0.000770354	0.000161352	0	0	0	
0.319667	-0.000343781	-0.00200761	0.000768474	0.000116555	0	0	0	
0.319833	-0.000356872	-0.00139477	0.000733197	8.26943E-05	0	0	0	
0.32	-0.000388913	-0.000232172	0.000709295	6.37776E-05	0	0	0	
0.320167	-0.00153808	-0.00293427	0.000718111	7.70118E-05	0	0	0	
0.320333	0.00230518	0.00357891	0.000738544	0.00010486	0	0	0	
0.3205	-0.000385995	0.00183333	0.00074805	9.51966E-05	0	0	0	
0.320667	-0.00172702	0.00240505	0.000744919	6.8017E-05	0	0	0	
0.320833	0.00012324	-0.00145487	0.000736964	4.36829E-05	0	0	0	
0.321	-0.000931205	0.00111523	0.000734298	3.66046E-05	0	0	0	
0.321167	0.000611199	-0.00117334	0.000735959	4.24668E-05	0	0	0	
0.321333	0.000386072	0.00195167	0.000741709	5.70462E-05	0	0	0	
0.3215	-0.00187689	0.00198139	0.000745201	6.03435E-05	0	0	0	
0.321667	-0.00127264	0.00311439	0.000744562	6.03437E-05	0	0	0	
