0	-0.0013309	-0.000352066	1.3309E-07	3.52066E-08	0	0	0	
0.000166667	-0.00297728	-0.000298666	3.81065E-05	8.27106E-06	0	0	0	
0.000333333	0.00694325	0.00146423	8.15938E-05	1.78047E-05	0	0	0	
0.0005	-0.00451815	-0.00109062	0.000113268	2.90163E-05	0	0	0	
0.000666667	0.00134364	0.000613929	0.000105691	2.60571E-05	0	0	0	
0.000833333	-0.00084256	-0.00161585	7.93985E-05	2.32968E-05	0	0	0	
0.001	0.0022061	0.00163113	6.12236E-05	2.28027E-05	0	0	0	
0.00116667	-0.0021088	-0.000247302	4.52272E-05	2.58296E-05	0	0	0	
0.00133333	0.00244827	0.000101695	5.30617E-05	2.63659E-05	0	0	0	
0.0015	-0.00299905	-0.000562845	6.8302E-05	3.33317E-05	0	0	0	
0.00166667	0.00890831	0.000409512	8.98559E-05	4.15614E-05	0	0	0	
0.00183333	-0.0129014	-0.00107035	0.000134718	4.47528E-05	0	0	0	
0.002	0.0095169	0.000914554	0.000172939	3.94859E-05	0	0	0	
0.00216667	-0.00206613	-0.00125208	0.000183584	3.51749E-05	0	0	0	
0.00233333	0.00464378	6.94773E-05	0.000148103	3.26216E-05	0	0	0	
0.0025	-0.0115674	0.000457111	0.00016903	2.32937E-05	0	0	0	
0.00266667	0.0118113	-0.000312	0.000201121	1.68781E-05	0	0	0	
0.00283333	-0.00124086	-0.00045149	0.000213367	1.69837E-05	0	0	0	
0.003	0.00300764	0.000729885	0.000148947	1.84407E-05	0	0	0	
0.00316667	-0.0152454	0.000269077	0.000165941	1.62691E-05	0	0	0	
0.00333333	0.0117726	-0.000794097	0.000200531	1.37259E-05	0	0	0	
0.0035	0.000437556	-0.000192618	0.000229974	1.32541E-05	0	0	0	
0.00366667	-0.00117612	0.000681822	0.00014103	1.39254E-05	0	0	0	
0.00383333	-0.00487999	-0.00061878	0.000147307	1.51044E-05	0	0	0	
0.004	0.0110909	0.000550296	0.000162012	1.46425E-05	0	0	0	
0.00416667	-0.00979895	-0.000787289	0.000223242	1.47962E-05	0	0	0	
0.00433333	0.00806564	0.000907515	0.000203463	1.53743E-05	0	0	0	
0.0045	-0.0147997	-0.000628221	0.000201245	2.15759E-05	0	0	0	
0.00466667	0.0112259	-0.00063593	0.000230195	2.16225E-05	0	0	0	
0.00483333	0.0034276	-4.67147E-05	0.000246215	2.31091E-05	0	0	0	
0.005	-0.00041685	0.000558688	0.000214272	1.97565E-05	0	0	0	
0.00516667	-0.00818528	-0.000684613	0.000261885	1.89595E-05	0	0	0	
0.00533333	0.0144108	0.00119172	0.000282739	1.57721E-05	0	0	0	
0.0055	-0.0120441	-0.00145809	0.000329018	2.26903E-05	0	0	0	
0.00566667	0.0111734	0.000392793	0.000261362	3.07497E-05	0	0	0	
0.00583333	-0.00983631	0.00106957	0.000222694	3.272E-05	0	0	0	
0.006	0.00709344	-0.00139194	0.000202584	3.03103E-05	0	0	0	
0.00616667	0.0032754	7.69534E-05	0.000171522	2.54653E-05	0	0	0	
0.00633333	0.00218565	0.00111255	0.000167498	2.29823E-05	0	0	0	
0.0065	-0.00621009	-0.00123198	0.000150678	2.21932E-05	0	0	0	
0.00666667	0.00643408	-0.000589743	0.00015487	2.00946E-05	0	0	0	
0.00683333	-0.0112139	0.00189838	0.000160931	2.27813E-05	0	0	0	
0.007	0.0079155	-0.00155154	0.00016871	2.48147E-05	0	0	0	
0.00716667	-0.00121011	-0.000726491	0.000157819	2.61976E-05	0	0	0	
0.00733333	0.00828396	0.00196311	0.000168913	3.04489E-05	0	0	0	
0.0075	-0.0155807	-0.00127118	0.000194576	2.99241E-05	0	0	0	
0.00766667	-0.00318893	0.000816923	0.000260061	2.96348E-05	0	0	0	
0.00783333	0.0105468	0.000126679	0.000247793	2.1263E-05	0	0	0	
0.008	0.00653484	-0.000256976	0.000301133	1.52632E-05	0	0	0	
0.00816667	-0.0255334	-0.00246975	0.000322888	3.51736E-05	0	0	0	
0.00833333	0.00566539	0.00559294	0.000374591	6.49917E-05	0	0	0	
0.0085	0.009412	-0.00164488	0.000370264	7.99917E-05	0	0	0	
0.00866667	0.00593097	-0.00385833	0.000361807	8.44477E-05	0	0	0	
0.00883333	-0.0357005	0.00400268	0.000451489	8.27405E-05	0	0	0	
0.009	0.0459449	0.0039156	0.000570475	8.30683E-05	0	0	0	
0.00916667	-0.0498449	-0.00345559	0.00100623	0.000133675	0	0	0	
0.00933333	0.0325449	-0.00703321	0.00119237	0.000288477	0	0	0	
0.0095	-0.048692	0.0153613	0.00133987	0.000447434	0	0	0	
0.00966667	-0.0248566	-0.0112999	0.001045	0.000484543	0	0	0	
0.00983333	0.021184	0.00784894	0.000904597	0.000351622	0	0	0	
0.01	-0.00691348	-0.00209794	0.000686214	0.000211941	0	0	0	
0.0101667	-0.0861642	-0.00841536	0.000765062	0.000114631	0	0	0	
0.0103333	0.0927506	0.0146055	0.00110211	0.000139168	0	0	0	
0.0105	-0.0478022	-0.0116516	0.00146994	0.000282956	0	0	0	
0.0106667	-0.0502487	-0.00282699	0.00133591	0.00046985	0	0	0	
0.0108333	0.0358412	0.00498122	0.00107501	0.000489291	0	0	0	
0.011	0.01498	0.00630018	0.000672774	0.000328707	0	0	0	
0.0111667	-0.000108142	-0.00948129	0.000775937	0.000174132	0	0	0	
0.0113333	-0.0355722	0.00197931	0.000739109	0.000161623	0	0	0	
0.0115	0.0393801	0.00351367	0.0009974	0.000167917	0	0	0	
0.0116667	0.0366298	0.000368239	0.000968095	0.000145865	0	0	0	
0.0118333	-0.0432561	-0.00460985	0.00106176	7.66286E-05	0	0	0	
0.012	-0.0146249	0.00730123	0.000938983	0.000108673	0	0	0	
0.0121667	-0.00635681	-0.00531984	0.000759709	0.000131249	0	0	0	
0.0123333	0.0203652	0.00292229	0.000544455	0.000155512	0	0	0	
0.0125	0.0290759	0.00947151	0.000503728	0.000116032	0	0	0	
0.0126667	-0.0168518	-0.0166567	0.000762044	0.000160175	0	0	0	
0.0128333	0.00793281	0.00291906	0.000695174	0.000225895	0	0	0	
0.013	0.0425216	0.0135585	0.00084076	0.000321911	0	0	0	
0.0131667	-0.0443452	-0.0164956	0.000737262	0.000315816	0	0	0	
0.0133333	-0.00869921	0.0096652	0.000949461	0.000302187	0	0	0	
0.0135	0.0130814	-0.000685932	0.000622753	0.000273477	0	0	0	
0.0136667	0.0269205	-0.00411307	0.00063933	0.000246312	0	0	0	
0.0138333	-0.0121667	0.00467795	0.000425383	0.00019196	0	0	0	
0.014	-0.0212193	-0.00250829	0.000637734	0.000122319	0	0	0	
0.0141667	0.0109819	-0.00172727	0.000442914	9.6615E-05	0	0	0	
0.0143333	0.0204059	0.00472899	0.000518924	9.80437E-05	0	0	0	
0.0145	-0.0171096	-0.004534	0.000358782	0.00010857	0	0	0	
0.0146667	-0.00621314	0.0041345	0.000435442	9.66344E-05	0	0	0	
0.0148333	0.00684912	-0.00165362	0.000293222	7.87434E-05	0	0	0	
0.015	0.00877989	0.000198495	0.000242312	6.00831E-05	0	0	0	
0.0151667	-0.0158916	-0.000910835	0.000190214	4.24382E-05	0	0	0	
0.0153333	0.00369267	0.000117289	0.000261771	2.56466E-05	0	0	0	
0.0155	-0.00554933	8.82041E-05	0.000266105	1.51522E-05	0	0	0	
0.0156667	0.0228066	0.000374944	0.000287007	8.50002E-06	0	0	0	
0.0158333	-0.0140609	-0.000259063	0.00029809	8.25284E-06	0	0	0	
0.016	-0.00142853	-0.000727357	0.000381449	1.08312E-05	0	0	0	
0.0161667	-0.0062198	-0.000649368	0.000291958	1.37557E-05	0	0	0	
0.0163333	0.0135669	0.000210471	0.000280904	2.17345E-05	0	0	0	
0.0165	-0.00574073	0.000429037	0.000187384	2.39193E-05	0	0	0	
0.0166667	0.00876626	-0.000821867	0.000207329	2.58631E-05	0	0	0	
0.0168333	-0.0161526	0.000297357	0.000201189	2.20323E-05	0	0	0	
0.017	0.0146199	0.00035916	0.000228457	1.75562E-05	0	0	0	
0.0171667	0.00243306	2.23683E-05	0.000239005	1.63226E-05	0	0	0	
0.0173333	-0.0045384	-0.000333431	0.000186531	1.60035E-05	0	0	0	
0.0175	-0.00675403	0.00143384	0.000234644	2.15725E-05	0	0	0	
0.0176667	0.0150852	-0.00237197	0.000243702	2.92747E-05	0	0	0	
0.0178333	-0.00972767	0.00191411	0.000273342	3.22404E-05	0	0	0	
0.018	0.00407798	-0.000932573	0.00019197	3.46344E-05	0	0	0	
0.0181667	-0.00489844	0.000314797	0.000157666	2.70825E-05	0	0	0	
0.0183333	-0.00200421	0.000559389	0.000103329	1.98568E-05	0	0	0	
0.0185	0.00172484	-0.0019394	7.85079E-05	1.87998E-05	0	0	0	
0.0186667	0.0103649	0.00149372	0.000113468	2.50682E-05	0	0	0	
0.0188333	-0.0115299	-0.000162721	0.000140931	3.17092E-05	0	0	0	
0.019	0.010113	-0.00288934	0.000256946	3.51112E-05	0	0	0	
0.0191667	-0.00218406	0.00171226	0.000286172	4.00791E-05	0	0	0	
0.0193333	-0.00326797	0.00072351	0.000273253	3.57098E-05	0	0	0	
0.0195	0.00316799	-0.000443255	0.00017059	3.68812E-05	0	0	0	
0.0196667	0.00990002	-0.000963879	0.000181729	3.5689E-05	0	0	0	
0.0198333	-0.0154056	0.0020336	0.000236707	3.55795E-05	0	0	0	
0.02	0.0133996	-0.00310776	0.000301298	4.07854E-05	0	0	0	
0.0201667	-0.0148206	0.00251103	0.000295859	4.56724E-05	0	0	0	
0.0203333	0.0183928	0.000718496	0.000325948	5.36239E-05	0	0	0	
0.0205	-0.0158558	-0.00266495	0.000345365	5.4781E-05	0	0	0	
0.0206667	0.0101258	0.00308447	0.000318773	5.17007E-05	0	0	0	
0.0208333	-0.00837252	-0.00148851	0.000263217	6.30624E-05	0	0	0	
0.021	0.00785257	-0.000291854	0.000206766	7.55273E-05	0	0	0	
0.0211667	0.00542441	0.00246273	0.000208134	7.79272E-05	0	0	0	
0.0213333	-0.00500364	-0.00126603	0.000198051	6.72481E-05	0	0	0	
0.0215	-0.000994377	0.00138442	0.000251776	4.10669E-05	0	0	0	
0.0216667	0.0115938	-0.00232064	0.000287723	3.27453E-05	0	0	0	
0.0218333	0.00676551	0.00159595	0.000269048	3.89361E-05	0	0	0	
0.022	0.00101974	0.00647487	0.000213641	8.32507E-05	0	0	0	
0.0221667	-0.0353009	-0.0154601	0.0002048	0.000146091	0	0	0	
0.0223333	0.00428457	0.0158642	0.000361914	0.000225256	0	0	0	
0.0225	0.0797788	-0.00128387	0.000595341	0.000312388	0	0	0	
0.0226667	-0.0412082	-0.0131123	0.000872602	0.000341092	0	0	0	
0.0228333	0.00426452	0.0108074	0.00101232	0.000313186	0	0	0	
0.023	0.0199171	0.00238176	0.000841661	0.000312461	0	0	0	
0.0231667	-0.0136816	-0.0136875	0.000575309	0.000358493	0	0	0	
0.0233333	0.0289882	0.0225061	0.000415034	0.000425664	0	0	0	
0.0235	0.0204768	-0.01914	0.000458167	0.000412324	0	0	0	
0.0236667	-0.0400934	0.00392668	0.000795717	0.000360355	0	0	0	
0.0238333	0.0357308	0.00983258	0.000861076	0.000285368	0	0	0	
0.024	0.0165496	-0.0087464	0.00094658	0.000235011	0	0	0	
0.0241667	-0.0164813	0.000521948	0.00073571	0.000238412	0	0	0	
0.0243333	0.00708934	0.003507	0.000579952	0.000224827	0	0	0	
0.0245	0.0117924	-0.000225082	0.000488782	0.000172126	0	0	0	
0.0246667	0.00088083	-0.00607536	0.000396859	0.000119889	0	0	0	
0.0248333	0.0158283	0.00917942	0.000375741	0.000113432	0	0	0	
0.025	0.00192131	-0.00622445	0.000404494	0.000155253	0	0	0	
0.0251667	-0.00925878	-0.00305821	0.000521697	0.000183823	0	0	0	
0.0253333	0.0319632	0.00782359	0.000626618	0.000186038	0	0	0	
0.0255	0.00157063	-0.00592194	0.000554645	0.000167704	0	0	0	
0.0256667	0.0271749	0.00174082	0.000517877	0.000151237	0	0	0	
0.0258333	-0.00279667	0.00256364	0.000485425	0.000153455	0	0	0	
0.026	-0.00716782	-0.00268859	0.000395015	0.000132521	0	0	0	
0.0261667	-0.00172364	1.87965E-05	0.000229963	7.84308E-05	0	0	0	
0.0263333	0.0179754	-0.000893588	0.000157009	3.55319E-05	0	0	0	
0.0265	-0.0082972	0.00292496	0.00022474	3.31502E-05	0	0	0	
0.0266667	-0.00329278	-0.00217235	0.000180901	4.73901E-05	0	0	0	
0.0268333	-0.0129225	0.000401781	0.000184509	4.95046E-05	0	0	0	
0.027	0.0176248	0.000702563	0.000197006	3.37005E-05	0	0	0	
0.0271667	0.00202651	0.000544777	0.000302425	2.40228E-05	0	0	0	
0.0273333	-0.00092237	-0.00180862	0.000242194	3.45466E-05	0	0	0	
0.0275	-0.0117499	0.00206308	0.000259334	4.39732E-05	0	0	0	
0.0276667	0.00503203	0.00102053	0.000161613	3.84029E-05	0	0	0	
0.0278333	0.00430921	-0.00207712	0.000259569	3.14832E-05	0	0	0	
0.028	0.00637743	0.00153311	0.000163932	3.1966E-05	0	0	0	
0.0281667	-0.0197479	0.000513912	0.000214011	3.89895E-05	0	0	0	
0.0283333	0.0163845	-0.00104599	0.000233833	3.39283E-05	0	0	0	
0.0285	-0.00416835	0.00035407	0.000287838	2.44812E-05	0	0	0	
0.0286667	0.00785793	0.000389844	0.000245971	1.73813E-05	0	0	0	
0.0288333	-0.0121267	-0.000332711	0.000207353	2.3533E-05	0	0	0	
0.029	0.010715	-4.00315E-05	0.000217484	3.12341E-05	0	0	0	
0.0291667	-0.0148698	0.000231903	0.000257783	3.3338E-05	0	0	0	
0.0293333	0.0100173	-0.000761515	0.000262787	2.44273E-05	0	0	0	
0.0295	-0.00574476	0.00112326	0.0002382	1.77375E-05	0	0	0	
0.0296667	0.0105476	-0.000383297	0.000212802	1.71761E-05	0	0	0	
0.0298333	-0.0120312	-0.000327773	0.00019483	1.67567E-05	0	0	0	
0.03	0.00426805	0.000399753	0.000186144	1.50468E-05	0	0	0	
0.0301667	-0.00665824	-0.00122393	0.000176532	1.79102E-05	0	0	0	
0.0303333	0.00420931	-0.000552455	0.000141452	2.07415E-05	0	0	0	
0.0305	0.0030442	0.000390445	0.000105073	1.85567E-05	0	0	0	
0.0306667	0.0181124	0.00220945	0.000226341	3.11042E-05	0	0	0	
0.0308333	-0.0803272	-0.00907496	0.000535816	6.06688E-05	0	0	0	
0.031	0.0579914	0.00786623	0.000955484	0.000112748	0	0	0	
0.0311667	-0.0106665	-9.09102E-05	0.0013824	0.000188765	0	0	0	
0.0313333	-0.0423242	-0.00743518	0.00140265	0.000252048	0	0	0	
0.0315	0.0131706	0.00732884	0.00110305	0.000262657	0	0	0	
0.0316667	-0.0151045	-0.0045857	0.000659112	0.000201952	0	0	0	
0.0318333	-0.00563471	0.000994766	0.000537325	0.000118055	0	0	0	
0.032	0.0510277	0.00445479	0.000849385	9.60474E-05	0	0	0	
0.0321667	-0.0598863	-0.00988804	0.00100096	0.000100433	0	0	0	
0.0323333	0.00338719	0.00761677	0.00103938	0.000150644	0	0	0	
0.0325	0.0230986	-0.00109945	0.000743974	0.000191858	0	0	0	
0.0326667	-0.00736545	-0.00106745	0.000565506	0.000207134	0	0	0	
0.0328333	-0.0266747	-0.00110012	0.00035638	0.000169556	0	0	0	
0.033	0.0229369	0.000165963	0.000387089	0.000113103	0	0	0	
0.0331667	0.00310554	0.00122378	0.000328113	9.11999E-05	0	0	0	
0.0333333	-0.0102804	-0.00241216	0.000328554	8.98795E-05	0	0	0	
0.0335	0.02212	0.00166436	0.000234178	7.80902E-05	0	0	0	
0.0336667	-0.0177248	-0.000921902	0.000325933	5.12605E-05	0	0	0	
0.0338333	-0.0218036	-0.000861452	0.000351447	3.12652E-05	0	0	0	
0.034	0.0336905	0.00082787	0.000486219	2.27543E-05	0	0	0	
0.0341667	0.00122312	-0.00052002	0.000460489	2.0866E-05	0	0	0	
0.0343333	-0.00346011	-0.00102099	0.000403613	2.03862E-05	0	0	0	
0.0345	-0.00737035	0.00134886	0.000219409	2.165E-05	0	0	0	
0.0346667	0.0078306	-3.59437E-05	0.000164231	2.30097E-05	0	0	0	
0.0348333	-0.0127448	-0.00170089	0.000185246	2.27455E-05	0	0	0	
0.035	0.0163845	0.000612048	0.000238254	2.32052E-05	0	0	0	
0.0351667	-0.00574662	0.000166734	0.000235318	2.25615E-05	0	0	0	
0.0353333	-0.00325503	-0.000816371	0.000201593	1.97451E-05	0	0	0	
0.0355	-0.00271212	0.000253002	0.000170224	1.46876E-05	0	0	0	
0.0356667	0.0139232	-0.00119205	0.000207755	1.47847E-05	0	0	0	
0.0358333	-0.0120248	0.00116922	0.000251115	2.06725E-05	0	0	0	
0.036	0.00339119	-0.00175566	0.000244265	2.77481E-05	0	0	0	
0.0361667	-0.00962423	-0.000216485	0.000186554	3.12278E-05	0	0	0	
0.0363333	0.0171643	0.0013451	0.000201909	3.53769E-05	0	0	0	
0.0365	-0.00798213	-0.00123317	0.000231907	3.08845E-05	0	0	0	
0.0366667	-0.0106448	-0.00234802	0.000324804	3.83838E-05	0	0	0	
0.0368333	0.00959733	0.00519768	0.000366976	5.15037E-05	0	0	0	
0.037	-0.0127235	-0.00564008	0.000338462	7.80653E-05	0	0	0	
0.0371667	-0.0012528	0.00322733	0.000303629	8.91769E-05	0	0	0	
0.0373333	0.0133156	-0.000618534	0.000295102	8.85305E-05	0	0	0	
0.0375	-0.0107949	-0.00104061	0.00035344	7.61528E-05	0	0	0	
0.0376667	0.0213119	0.00121816	0.000327798	5.19139E-05	0	0	0	
0.0378333	-0.0236291	0.000661087	0.000376655	4.2355E-05	0	0	0	
0.038	-0.00157958	-0.00231107	0.000403194	4.64083E-05	0	0	0	
0.0381667	0.0113283	0.0030221	0.000402953	6.40161E-05	0	0	0	
0.0383333	-0.00203172	-0.00359813	0.000285815	7.15057E-05	0	0	0	
0.0385	-0.0100731	0.0020489	0.000211392	6.41472E-05	0	0	0	
0.0386667	0.00234176	-0.00193001	0.000170343	5.21055E-05	0	0	0	
0.0388333	-0.00715379	0.00173214	0.000185813	3.87587E-05	0	0	0	
0.039	0.0062423	-0.00130464	0.000220502	3.17856E-05	0	0	0	
0.0391667	-0.00748994	-0.000418296	0.000229436	2.4453E-05	0	0	0	
0.0393333	0.00417104	0.000973675	0.000216171	1.74545E-05	0	0	0	
0.0395	-0.00593164	-0.00154724	0.000157074	1.79075E-05	0	0	0	
0.0396667	0.00263581	0.00148292	0.000137771	2.63143E-05	0	0	0	
0.0398333	-0.00646142	-0.000845768	0.000114403	3.1256E-05	0	0	0	
0.04	0.00221651	0.000317321	0.000114134	3.19123E-05	0	0	0	
0.0401667	-0.0118221	-5.46222E-05	0.000154009	3.53612E-05	0	0	0	
0.0403333	0.0193584	-0.000637589	0.00021585	4.35047E-05	0	0	0	
0.0405	-0.0164474	-6.94834E-05	0.000278613	4.10865E-05	0	0	0	
0.0406667	0.00999	0.00057424	0.000299705	2.89284E-05	0	0	0	
0.0408333	-0.0101066	-0.00130985	0.00026129	2.29361E-05	0	0	0	
0.041	0.00169626	0.000997563	0.000222897	2.15902E-05	0	0	0	
0.0411667	0.00355274	-8.46979E-05	0.000186074	2.57031E-05	0	0	0	
0.0413333	0.00534609	-0.00131988	0.000189483	3.22453E-05	0	0	0	
0.0415	-0.0193303	0.00168471	0.000235784	4.04938E-05	0	0	0	
0.0416667	0.0156661	-0.00132055	0.000285262	3.86607E-05	0	0	0	
0.0418333	-0.00775948	2.17476E-05	0.000303619	3.242E-05	0	0	0	
0.042	0.013304	0.000416445	0.000263279	2.45864E-05	0	0	0	
0.0421667	-0.0141805	-0.000199548	0.000266727	2.09519E-05	0	0	0	
0.0423333	-0.00244861	-0.000630598	0.000325998	2.02594E-05	0	0	0	
0.0425	0.023209	0.000444817	0.000369047	2.37194E-05	0	0	0	
0.0426667	-0.0269868	0.000251884	0.000409839	3.1048E-05	0	0	0	
0.0428333	0.0150185	0.000149094	0.000439011	2.90188E-05	0	0	0	
0.043	0.00552814	-0.000164128	0.000520951	2.47804E-05	0	0	0	
0.0431667	-0.0146664	0.00105001	0.000499087	2.15132E-05	0	0	0	
0.0433333	0.0108508	-0.00121224	0.000431724	2.14269E-05	0	0	0	
0.0435	-0.0131328	0.00207233	0.000320773	2.56656E-05	0	0	0	
0.0436667	0.00738056	-0.00115198	0.000256521	3.13288E-05	0	0	0	
0.0438333	0.0112217	0.00120483	0.000363171	2.8981E-05	0	0	0	
0.044	-0.0210793	-0.00191797	0.000418803	2.97923E-05	0	0	0	
0.0441667	0.00876432	0.000597626	0.000456382	3.0194E-05	0	0	0	
0.0443333	0.00416476	0.00145082	0.000316584	3.34453E-05	0	0	0	
0.0445	0.00625285	-0.00145803	0.000242686	3.09805E-05	0	0	0	
0.0446667	-0.0169138	-0.000786687	0.000225438	3.38321E-05	0	0	0	
0.0448333	0.00803776	0.00196678	0.000245728	4.19493E-05	0	0	0	
0.045	0.00349714	-0.00224572	0.000306415	4.91887E-05	0	0	0	
0.0451667	-0.00883386	0.00248975	0.000303405	5.18229E-05	0	0	0	
0.0453333	0.0109408	-0.00154413	0.000278138	4.72173E-05	0	0	0	
0.0455	-0.016904	5.06762E-05	0.000222811	3.77613E-05	0	0	0	
0.0456667	0.0119972	0.000789731	0.000264752	2.7134E-05	0	0	0	
0.0458333	-0.00118814	0.000353777	0.000325544	2.05677E-05	0	0	0	
0.046	-0.00601616	-0.00151475	0.000305144	2.71724E-05	0	0	0	
0.0461667	-0.00518294	0.000620087	0.00021011	3.08171E-05	0	0	0	
0.0463333	0.00726478	8.57719E-05	0.000147212	2.84472E-05	0	0	0	
0.0465	-0.00773643	-0.000474697	0.000136541	1.94577E-05	0	0	0	
0.0466667	0.0150302	-0.000672551	0.000181606	1.70508E-05	0	0	0	
0.0468333	-0.0106733	0.000571608	0.000206285	2.04267E-05	0	0	0	
0.047	-0.00737502	-0.000957863	0.000276841	2.16186E-05	0	0	0	
0.0471667	0.00707822	0.000729238	0.000248143	2.40393E-05	0	0	0	
0.0473333	0.0108845	8.85484E-06	0.000255682	2.4534E-05	0	0	0	
0.0475	-0.0162323	-0.00039247	0.000232029	2.05039E-05	0	0	0	
0.0476667	0.009944	-0.00112621	0.000300509	1.38773E-05	0	0	0	
0.0478333	0.00436485	0.00118681	0.000269339	1.51987E-05	0	0	0	
0.048	0.0019956	-0.000502731	0.00023258	1.904E-05	0	0	0	
0.0481667	-0.00722008	-6.5043E-05	0.000178946	1.71854E-05	0	0	0	
0.0483333	0.00748889	-0.00108697	0.000181732	1.27896E-05	0	0	0	
0.0485	-0.00576508	-3.74994E-05	0.000153465	1.17154E-05	0	0	0	
0.0486667	0.0109017	0.000875177	0.000145099	1.50099E-05	0	0	0	
0.0488333	-0.00419215	-0.000201191	0.000140976	2.88751E-05	0	0	0	
0.049	0.000782805	-0.00121128	0.000124569	4.24873E-05	0	0	0	
0.0491667	0.00256535	0.000524459	9.05975E-05	4.44151E-05	0	0	0	
0.0493333	0.00807344	-0.00109732	6.83518E-05	3.62911E-05	0	0	0	
0.0495	0.00808304	0.00158708	0.000100481	3.62011E-05	0	0	0	
0.0496667	0.00203685	-0.000552718	0.000117119	4.66277E-05	0	0	0	
0.0498333	-0.000977384	-0.00110275	0.000118887	5.01051E-05	0	0	0	
0.05	0.00838925	0.00190725	0.000118325	3.93111E-05	0	0	0	
0.0501667	-0.00740647	-0.00149163	0.000167049	3.28792E-05	0	0	0	
0.0503333	0.022953	0.000373367	0.000205335	2.70447E-05	0	0	0	
0.0505	-0.0103119	0.000608595	0.000306015	2.4588E-05	0	0	0	
0.0506667	-0.0093405	-0.000963624	0.000367005	2.11638E-05	0	0	0	
0.0508333	0.0151384	0.000369274	0.000353572	2.04432E-05	0	0	0	
0.051	0.00292231	0.000533411	0.000305467	2.36154E-05	0	0	0	
0.0511667	-0.00864853	-0.000259485	0.000283129	2.41872E-05	0	0	0	
0.0513333	0.0219698	-0.000987009	0.000309141	2.79929E-05	0	0	0	
0.0515	-0.0232565	0.000879938	0.000365462	4.24662E-05	0	0	0	
0.0516667	0.000761237	-0.000152233	0.000352765	5.87625E-05	0	0	0	
0.0518333	0.00888254	-4.33892E-05	0.000365899	7.16336E-05	0	0	0	
0.052	-0.00147647	0.000265199	0.000254204	6.61528E-05	0	0	0	
0.0521667	-0.00181651	-0.000439508	0.000163261	5.26108E-05	0	0	0	
0.0523333	0.00698608	-0.000284605	9.61838E-05	3.68832E-05	0	0	0	
0.0525	-0.0175709	0.00107394	0.00014234	2.52311E-05	0	0	0	
0.0526667	0.0157746	-0.00176776	0.000234632	2.45687E-05	0	0	0	
0.0528333	0.00571687	0.00137843	0.000285285	2.68264E-05	0	0	0	
0.053	0.0100238	-0.000633406	0.000271027	2.7162E-05	0	0	0	
0.0531667	-0.0134182	0.000669737	0.000240788	2.51194E-05	0	0	0	
0.0533333	0.0117369	-0.0011844	0.000241369	2.56248E-05	0	0	0	
0.0535	-0.00618156	0.00116506	0.000295247	2.754E-05	0	0	0	
0.0536667	0.00235765	-0.00106381	0.000254442	2.88477E-05	0	0	0	
0.0538333	-0.00503553	-0.000160267	0.000247526	2.89481E-05	0	0	0	
0.054	0.0157944	0.000457487	0.000211901	3.16499E-05	0	0	0	
0.0541667	-0.0168198	0.000285201	0.000271634	3.00368E-05	0	0	0	
0.0543333	0.0155207	-0.000637654	0.000288452	2.62538E-05	0	0	0	
0.0545	-0.0117309	0.00100764	0.000287018	2.13231E-05	0	0	0	
0.0546667	0.00791323	-0.000393885	0.000276119	2.17911E-05	0	0	0	
0.0548333	0.00325451	-0.00141792	0.000310675	2.92057E-05	0	0	0	
0.055	-0.0138697	0.0004919	0.000282309	3.93578E-05	0	0	0	
0.0551667	-0.000461765	-0.00083802	0.000309234	4.99467E-05	0	0	0	
0.0553333	0.0203331	0.00037672	0.000285778	5.32554E-05	0	0	0	
0.0555	-0.0102425	0.000461024	0.000331469	4.71468E-05	0	0	0	
0.0556667	-0.00426427	0.000181548	0.000345506	2.87477E-05	0	0	0	
0.0558333	-0.0114782	-0.00243799	0.000289975	2.06031E-05	0	0	0	
0.056	0.0222215	0.00281233	0.000293778	2.52838E-05	0	0	0	
0.0561667	-0.0154442	-0.00317603	0.000286773	4.77664E-05	0	0	0	
0.0563333	0.00384899	0.000709976	0.000356583	6.30386E-05	0	0	0	
0.0565	-0.00488844	0.00110451	0.000311152	6.47193E-05	0	0	0	
0.0566667	0.0072957	2.88606E-05	0.000241461	4.53859E-05	0	0	0	
0.0568333	0.00145746	-0.000754368	0.000159236	2.49969E-05	0	0	0	
0.057	0.0021402	0.000653451	0.00013187	1.29017E-05	0	0	0	
0.0571667	-0.0203567	-0.000680099	0.000176455	1.87377E-05	0	0	0	
0.0573333	0.0191105	0.00066939	0.00025693	2.52938E-05	0	0	0	
0.0575	-0.0012971	-1.57396E-05	0.000360633	2.57247E-05	0	0	0	
0.0576667	-0.00422507	0.00105217	0.000341126	2.0553E-05	0	0	0	
0.0578333	-0.000357317	-0.000225403	0.000237328	1.62388E-05	0	0	0	
0.058	0.00640938	0.000784736	0.00012995	1.73434E-05	0	0	0	
0.0581667	-0.0157273	-5.90328E-05	0.00012987	2.75222E-05	0	0	0	
0.0583333	0.0200897	-0.00109178	0.000217804	3.88172E-05	0	0	0	
0.0585	-0.0109973	0.00125803	0.000307474	4.17997E-05	0	0	0	
0.0586667	0.00115397	0.000556048	0.000297653	3.65678E-05	0	0	0	
0.0588333	-0.00196451	-0.00192865	0.000217837	3.66357E-05	0	0	0	
0.059	0.0116976	0.00194083	0.000180698	3.55582E-05	0	0	0	
0.0591667	-0.00871872	0.000107739	0.0001718	4.74658E-05	0	0	0	
0.0593333	0.0106108	-0.00212075	0.000219644	5.75409E-05	0	0	0	
0.0595	-0.0089109	0.00159369	0.000202431	6.89422E-05	0	0	0	
0.0596667	0.00801406	0.000143601	0.000204616	5.10247E-05	0	0	0	
0.0598333	-0.00193968	-0.00107938	0.000163841	3.15143E-05	0	0	0	
0.06	-0.000395067	0.000918835	0.000150108	2.07226E-05	0	0	0	
0.0601667	0.00544642	-0.000181376	0.000115999	2.20461E-05	0	0	0	
0.0603333	0.0131257	-1.24852E-05	0.000118177	2.79372E-05	0	0	0	
0.0605	-0.0111247	-0.000556774	0.000151141	3.21415E-05	0	0	0	
0.0606667	0.0115369	0.000421651	0.000208106	3.24326E-05	0	0	0	
0.0608333	-0.0148823	0.000119589	0.000264048	2.20156E-05	0	0	0	
0.061	0.0222587	0.00123074	0.000291036	1.36779E-05	0	0	0	
0.0611667	-0.0124881	-0.000758728	0.000356681	1.45258E-05	0	0	0	
0.0613333	0.00765447	-0.000132203	0.000372288	2.74264E-05	0	0	0	
0.0615	-0.00644234	0.00120851	0.000322516	3.42826E-05	0	0	0	
0.0616667	0.0033702	-0.000255861	0.000197452	3.37395E-05	0	0	0	
0.0618333	-0.0083699	-0.0005599	0.00014268	2.96191E-05	0	0	0	
0.062	0.0166998	0.00069146	0.000170965	2.47978E-05	0	0	0	
0.0621667	-0.0145748	-0.000239907	0.000238185	2.17456E-05	0	0	0	
0.0623333	0.00851077	-3.83757E-05	0.000269569	1.20892E-05	0	0	0	
0.0625	-0.0163984	-0.000338422	0.000260123	9.17073E-06	0	0	0	
0.0626667	0.0191903	0.000349052	0.000270136	7.96089E-06	0	0	0	
0.0628333	-0.0119972	-0.000352298	0.000314007	8.39875E-06	0	0	0	
0.063	-0.00135676	-0.000788232	0.000320832	9.68226E-06	0	0	0	
0.0631667	-0.000208165	0.000368982	0.000226894	1.33993E-05	0	0	0	
0.0633333	0.00658785	-0.000101556	0.000146447	1.37482E-05	0	0	0	
0.0635	-0.0112964	-0.00149829	0.000108988	1.71186E-05	0	0	0	
0.0636667	0.0120926	0.000554403	0.000181315	2.15384E-05	0	0	0	
0.0638333	-0.00519172	-0.000405134	0.000189711	2.29722E-05	0	0	0	
0.064	0.0018901	-0.00049919	0.000169606	1.67405E-05	0	0	0	
0.0641667	0.000531848	0.000477538	0.000100247	1.52312E-05	0	0	0	
0.0643333	-0.00205189	3.34711E-06	5.04799E-05	1.61617E-05	0	0	0	
0.0645	-0.00519022	-0.000224987	6.51921E-05	1.76653E-05	0	0	0	
0.0646667	0.0133798	-0.00011047	0.000118702	1.20177E-05	0	0	0	
0.0648333	-0.00340496	-0.00021653	0.000170385	8.85913E-06	0	0	0	
0.065	-0.00462665	0.000123717	0.000203085	7.80089E-06	0	0	0	
0.0651667	0.0033893	-0.000126621	0.000167501	1.27451E-05	0	0	0	
0.0653333	0.0069158	0.000151293	0.000134982	1.81002E-05	0	0	0	
0.0655	-0.0054625	-0.000524129	0.000118877	2.12945E-05	0	0	0	
0.0656667	8.16609E-05	0.00114149	0.000171959	1.88247E-05	0	0	0	
0.0658333	0.00284352	-0.00196629	0.000189546	2.05454E-05	0	0	0	
0.066	0.00265044	0.000979986	0.000147327	2.5016E-05	0	0	0	
0.0661667	-0.00706897	-0.000352548	9.80259E-05	3.0453E-05	0	0	0	
0.0663333	0.0108922	-0.000195947	0.000120213	2.25173E-05	0	0	0	
0.0665	-0.0069852	-0.00108504	0.000163024	1.64062E-05	0	0	0	
0.0666667	0.00611182	-0.000229194	0.000223242	1.02103E-05	0	0	0	
0.0668333	0.000754391	-0.000524123	0.000233243	1.23617E-05	0	0	0	
0.067	-0.00548868	0.00155701	0.000219325	1.71133E-05	0	0	0	
0.0671667	0.00812773	-0.00243285	0.000173537	2.58266E-05	0	0	0	
0.0673333	0.0109107	0.000561478	0.000206892	3.32767E-05	0	0	0	
0.0675	-0.0191618	-0.000784373	0.000247605	3.10453E-05	0	0	0	
0.0676667	0.0116773	0.00176225	0.000358154	2.69475E-05	0	0	0	
0.0678333	0.00237489	-0.000937161	0.000388383	2.47104E-05	0	0	0	
0.068	0.00147586	-0.000225716	0.000306254	2.24423E-05	0	0	0	
0.0681667	-0.001447	-0.000719999	0.000171378	1.9544E-05	0	0	0	
0.0683333	-0.00480057	0.00166151	0.000112799	2.26188E-05	0	0	0	
0.0685	-0.00223021	-0.00188625	0.000122952	3.06502E-05	0	0	0	
0.0686667	0.0169146	0.00100202	0.00018234	3.44981E-05	0	0	0	
0.0688333	-0.015446	-0.000352267	0.000203537	2.72244E-05	0	0	0	
0.069	0.00739192	-0.00052716	0.000275116	1.81852E-05	0	0	0	
0.0691667	-0.0072505	0.000277176	0.000239135	1.21617E-05	0	0	0	
0.0693333	0.0113092	0.000343598	0.000204856	1.21217E-05	0	0	0	
0.0695	-0.00982511	-0.00114656	0.000184077	1.89831E-05	0	0	0	
0.0696667	0.00402449	0.000373977	0.000205129	2.40181E-05	0	0	0	
0.0698333	-0.00123633	4.282E-05	0.000196985	2.06881E-05	0	0	0	
0.07	0.00356865	-0.000829672	0.000158417	1.43655E-05	0	0	0	
0.0701667	-0.00973966	0.000117826	0.000134431	7.21362E-06	0	0	0	
0.0703333	0.00978205	-0.00019165	0.000140476	9.39819E-06	0	0	0	
0.0705	-0.00674041	-0.000174467	0.000168621	1.09204E-05	0	0	0	
0.0706667	0.0126104	-0.000551943	0.000210135	1.67369E-05	0	0	0	
0.0708333	-0.0124487	0.00100763	0.000223254	2.23742E-05	0	0	0	
0.071	0.00772537	-0.000749011	0.000248779	2.25879E-05	0	0	0	
0.0711667	-0.00503692	-0.000126363	0.000222471	1.84266E-05	0	0	0	
0.0713333	0.00684705	-0.000146601	0.000195836	1.0398E-05	0	0	0	
0.0715	-0.00529121	0.000143581	0.000139721	5.7282E-06	0	0	0	
0.0716667	0.00965857	-0.000777152	0.00014116	6.9649E-06	0	0	0	
0.0718333	-0.0105199	0.00156145	0.000164166	1.61098E-05	0	0	0	
0.072	0.00886454	-0.000741735	0.000196794	2.60887E-05	0	0	0	
0.0721667	-0.00410568	-0.000129366	0.000182199	2.80603E-05	0	0	0	
0.0723333	0.00445689	5.51449E-05	0.000148992	2.20759E-05	0	0	0	
0.0725	-0.0114203	0.0006253	0.000135745	1.35872E-05	0	0	0	
0.0726667	0.0100091	-0.000582522	0.000167821	1.04622E-05	0	0	0	
0.0728333	-0.00170931	0.00131938	0.000248064	1.43708E-05	0	0	0	
0.073	-0.00730539	-0.00169719	0.000299768	2.35804E-05	0	0	0	
0.0731667	0.00313729	0.000334489	0.000255592	3.0052E-05	0	0	0	
0.0733333	0.0106144	0.000513861	0.000232607	2.77087E-05	0	0	0	
0.0735	-0.0147569	0.000187329	0.000204974	2.15127E-05	0	0	0	
0.0736667	0.00736967	-0.00100823	0.000263681	1.5751E-05	0	0	0	
0.0738333	-0.00329751	-3.83566E-06	0.000222118	1.37506E-05	0	0	0	
0.074	0.0134854	0.000226769	0.000225743	9.14262E-06	0	0	0	
0.0741667	-0.00709167	-0.000568567	0.000208866	1.3134E-05	0	0	0	
0.0743333	-0.0024737	0.000523471	0.000237423	2.34373E-05	0	0	0	
0.0745	-0.000673372	0.000237365	0.000167759	3.31694E-05	0	0	0	
0.0746667	0.0132232	-0.000634058	0.00015026	3.08455E-05	0	0	0	
0.0748333	-0.0161657	-0.000114354	0.000159518	2.28901E-05	0	0	0	
0.075	0.00851794	0.000327685	0.000279934	1.78094E-05	0	0	0	
0.0751667	-0.00302401	0.00024156	0.000304603	1.40013E-05	0	0	0	
0.0753333	0.00535651	-0.00019471	0.00026654	8.71738E-06	0	0	0	
0.0755	-0.00338541	2.43465E-05	0.00019737	7.12823E-06	0	0	0	
0.0756667	0.0101899	0.00069499	0.000175058	1.5068E-05	0	0	0	
0.0758333	-0.0158105	-0.00166021	0.000204666	2.60376E-05	0	0	0	
0.076	0.0116311	0.00185798	0.000234819	3.47027E-05	0	0	0	
0.0761667	-0.0126856	0.000311973	0.000260329	3.17341E-05	0	0	0	
0.0763333	0.013794	-0.00123228	0.000267593	2.58917E-05	0	0	0	
0.0765	-0.00709807	0.00218291	0.000287459	2.47363E-05	0	0	0	
0.0766667	-0.00259351	-0.00147602	0.000305529	2.88482E-05	0	0	0	
0.0768333	-0.00530301	0.00147034	0.000255958	3.58036E-05	0	0	0	
0.077	0.01633	-0.000215948	0.000229269	4.15451E-05	0	0	0	
0.0771667	-0.0124462	0.000114687	0.000238483	4.20503E-05	0	0	0	
0.0773333	0.000364874	-0.000449357	0.000290028	3.34537E-05	0	0	0	
0.0775	-0.00246656	0.000634855	0.000222759	2.40229E-05	0	0	0	
0.0776667	0.00455059	-0.000734055	0.000134932	2.05215E-05	0	0	0	
0.0778333	-0.00726506	0.00142825	8.96749E-05	2.25412E-05	0	0	0	
0.078	0.00852913	-0.00108668	0.000127903	2.49443E-05	0	0	0	
0.0781667	-0.0149899	0.000197769	0.000176467	2.19999E-05	0	0	0	
0.0783333	0.00653712	0.000596663	0.00022739	1.7893E-05	0	0	0	
0.0785	0.000963764	-0.00215232	0.000266614	1.93518E-05	0	0	0	
0.0786667	-4.93564E-05	0.000515986	0.000240535	2.2972E-05	0	0	0	
0.0788333	-0.0014392	0.000532258	0.00016376	3.17517E-05	0	0	0	
0.079	0.00430391	-0.000498275	0.00010665	3.26253E-05	0	0	0	
0.0791667	-0.00628372	0.000445418	9.16327E-05	2.93501E-05	0	0	0	
0.0793333	0.0112089	-0.00066107	0.000125732	2.19698E-05	0	0	0	
0.0795	-0.0160184	-0.00145806	0.000170579	1.73801E-05	0	0	0	
0.0796667	0.00989295	0.00192561	0.000253462	2.68772E-05	0	0	0	
0.0798333	0.00623784	-0.00122404	0.000318122	3.04556E-05	0	0	0	
0.08	-5.17208E-05	-0.00065034	0.000262178	3.36928E-05	0	0	0	
0.0801667	-0.0113006	0.00135664	0.000207286	2.897E-05	0	0	0	
0.0803333	0.00475898	-0.000913616	0.000151113	2.92987E-05	0	0	0	
0.0805	0.00381694	0.000660695	0.000228368	2.60515E-05	0	0	0	
0.0806667	0.00224593	-0.0010649	0.000216133	2.54981E-05	0	0	0	
0.0808333	-0.0120436	0.000929852	0.00022918	2.49094E-05	0	0	0	
0.081	0.00278316	-0.00027725	0.000200245	2.14322E-05	0	0	0	
0.0811667	0.00779193	-9.36611E-05	0.000231605	1.75495E-05	0	0	0	
0.0813333	0.0081568	0.000514082	0.000183691	1.78269E-05	0	0	0	
0.0815	-0.0162974	-3.50779E-05	0.000183507	1.76622E-05	0	0	0	
0.0816667	0.00251749	-0.000262004	0.000209025	1.62554E-05	0	0	0	
0.0818333	0.0127817	-0.000827246	0.000265699	1.32502E-05	0	0	0	
0.082	-0.00447473	0.000909966	0.000236602	1.74547E-05	0	0	0	
0.0821667	-0.00569004	-9.6496E-05	0.000181342	1.80204E-05	0	0	0	
0.0823333	0.00974948	0.000102277	0.000138192	1.66887E-05	0	0	0	
0.0825	-0.00567245	0.000468181	0.000178031	9.47232E-06	0	0	0	
0.0826667	-0.00383386	-0.000905722	0.000206082	9.8634E-06	0	0	0	
0.0828333	0.00350938	0.000366383	0.000227091	1.08239E-05	0	0	0	
0.083	0.000939387	0.000231653	0.000175936	1.44909E-05	0	0	0	
0.0831667	-0.00448658	0.000846169	0.00011423	1.37016E-05	0	0	0	
0.0833333	0.00960405	-0.00120597	9.62614E-05	1.57092E-05	0	0	0	
0.0835	-0.0050999	0.00100262	0.000130324	2.07007E-05	0	0	0	
0.0836667	0.00374625	3.40477E-05	0.000158457	2.07369E-05	0	0	0	
0.0838333	-0.00399728	-0.000702538	0.000144719	1.85118E-05	0	0	0	
0.084	0.00673463	0.000790468	0.000143658	1.32748E-05	0	0	0	
0.0841667	-0.00301103	-0.00174096	0.000141843	1.76045E-05	0	0	0	
0.0843333	0.0113638	0.000864784	0.000168746	2.17355E-05	0	0	0	
0.0845	-0.00927164	0.000312019	0.00018495	2.1964E-05	0	0	0	
0.0846667	0.00167211	0.000299024	0.000204507	1.69067E-05	0	0	0	
0.0848333	0.00210911	-0.00182164	0.000157695	1.66822E-05	0	0	0	
0.085	0.00200559	0.00352942	0.000101213	2.92568E-05	0	0	0	
0.0851667	-0.00698109	-0.00221944	7.0166E-05	4.67528E-05	0	0	0	
0.0853333	0.0110092	-0.000141848	0.000114824	4.61151E-05	0	0	0	
0.0855	-0.0106081	0.000591391	0.000158957	3.33306E-05	0	0	0	
0.0856667	0.000427563	6.13457E-05	0.000221477	1.74816E-05	0	0	0	
0.0858333	0.0099087	7.2728E-05	0.000258977	1.6795E-05	0	0	0	
0.086	-0.00223867	0.00115966	0.000226551	2.31965E-05	0	0	0	
0.0861667	-0.0168377	-0.00216008	0.000208521	3.83167E-05	0	0	0	
0.0863333	0.013652	0.00056269	0.000211776	4.65545E-05	0	0	0	
0.0865	-0.000883075	1.17623E-06	0.000285185	3.93213E-05	0	0	0	
0.0866667	-0.00148338	-0.000247513	0.000245482	2.82484E-05	0	0	0	
0.0868333	-0.00529391	-5.00524E-05	0.000160036	2.07558E-05	0	0	0	
0.087	0.00264129	0.000272	0.000109117	2.13717E-05	0	0	0	
0.0871667	0.00137624	0.00060764	9.83593E-05	1.47633E-05	0	0	0	
0.0873333	0.0101801	-0.00167851	0.000152554	1.82708E-05	0	0	0	
0.0875	-0.0163241	0.00134185	0.00018601	2.60322E-05	0	0	0	
0.0876667	0.00856167	-0.000390467	0.000238415	2.85603E-05	0	0	0	
0.0878333	-0.00349904	-0.001668	0.000236655	2.35011E-05	0	0	0	
0.088	0.0073828	0.00207534	0.000197274	2.40739E-05	0	0	0	
0.0881667	-0.00494593	-0.000971597	0.000186214	2.95068E-05	0	0	0	
0.0883333	0.000549976	2.5826E-05	0.000163372	3.08209E-05	0	0	0	
0.0885	-0.0019922	0.000499746	0.000133098	3.0216E-05	0	0	0	
0.0886667	0.000187045	-0.000989646	8.80654E-05	2.92464E-05	0	0	0	
0.0888333	-0.00613799	0.000864949	6.77689E-05	2.83702E-05	0	0	0	
0.089	0.00687865	0.000338266	0.000110904	2.3215E-05	0	0	0	
0.0891667	-0.00184301	-0.00107855	0.000163614	2.48899E-05	0	0	0	
0.0893333	-0.000598297	0.000325106	0.000154214	2.70053E-05	0	0	0	
0.0895	-0.00592451	-8.83093E-05	0.000142094	2.37194E-05	0	0	0	
0.0896667	0.0089598	-0.000190255	0.000125303	1.9922E-05	0	0	0	
0.0898333	-0.00908674	0.000154665	0.000171837	1.59183E-05	0	0	0	
0.09	0.00713929	-0.00023688	0.000242784	1.37789E-05	0	0	0	
0.0901667	-0.00321945	-0.000178879	0.000311191	8.02369E-06	0	0	0	
0.0903333	0.0046249	-0.000292158	0.000322009	7.21057E-06	0	0	0	
0.0905	-0.00410828	-0.000529752	0.000234039	8.26893E-06	0	0	0	
0.0906667	-0.00201122	0.00182333	0.000146888	1.37259E-05	0	0	0	
0.0908333	0.00264723	-0.000586812	9.43484E-05	1.95389E-05	0	0	0	
0.091	0.00664535	-0.000197427	8.31098E-05	1.88246E-05	0	0	0	
0.0911667	-0.0122278	-0.000935809	0.000103838	1.43953E-05	0	0	0	
0.0913333	0.00771968	0.000700868	0.000165272	1.16158E-05	0	0	0	
0.0915	-0.010805	-0.000389924	0.000202776	1.23363E-05	0	0	0	
0.0916667	0.0112754	-4.40734E-05	0.000205483	1.28687E-05	0	0	0	
0.0918333	-0.00332071	-4.12075E-05	0.000206054	1.55079E-05	0	0	0	
0.092	-0.00485585	0.000436742	0.000223867	2.27904E-05	0	0	0	
0.0921667	-0.0036521	-0.000250553	0.00018389	2.51305E-05	0	0	0	
0.0923333	0.013002	-0.00073434	0.000170446	2.25234E-05	0	0	0	
0.0925	-0.0111866	0.000547477	0.000161624	1.89937E-05	0	0	0	
0.0926667	0.00232616	0.00040356	0.000226354	1.54444E-05	0	0	0	
0.0928333	0.00298492	0.00030503	0.00022425	1.12406E-05	0	0	0	
0.093	0.00506696	-0.000664574	0.000181612	1.09357E-05	0	0	0	
0.0931667	-0.00936846	0.000434415	0.000142968	1.53364E-05	0	0	0	
0.0933333	-0.000822222	-0.000483131	0.000118571	1.8467E-05	0	0	0	
0.0935	0.00464362	-0.000113498	0.000102843	1.71762E-05	0	0	0	
0.0936667	0.00678849	-0.000384749	0.000139944	2.23372E-05	0	0	0	
0.0938333	-0.0362427	0.00442835	0.000245495	3.65739E-05	0	0	0	
0.094	0.0360255	-0.00517639	0.00051438	5.86449E-05	0	0	0	
0.0941667	0.0453598	0.00568165	0.00137861	0.000156525	0	0	0	
0.0943333	0.0455868	-0.013695	0.00287338	0.000381391	0	0	0	
0.0945	0.0262916	-0.00585728	0.00375833	0.000398829	0	0	0	
0.0946667	-0.0335211	0.00326125	0.00317931	0.000329237	0	0	0	
0.0948333	0.0104627	-0.00143181	0.00165855	0.000103705	0	0	0	
0.095	0.0360383	0.00104936	0.000676796	6.72238E-05	0	0	0	
0.0951667	-0.0707938	0.00487821	0.000631504	3.75595E-05	0	0	0	
0.0953333	0.143239	-0.0333874	0.00150928	0.000137114	0	0	0	
0.0955	-0.146372	0.000364426	0.00301822	0.000311333	0	0	0	
0.0956667	0.0298248	-0.00300317	0.00331016	0.000331346	0	0	0	
0.0958333	0.0114338	0.00372506	0.00266102	0.000257342	0	0	0	
0.096	-0.00282654	-0.00284474	0.00108688	0.000109578	0	0	0	
0.0961667	-0.0188697	-0.000579298	0.000542934	0.000114823	0	0	0	
0.0963333	0.0104624	0.00185895	0.000370738	0.000113076	0	0	0	
0.0965	0.0126703	-0.00295423	0.000577359	0.000106139	0	0	0	
0.0966667	-0.00469088	-0.000290179	0.000672494	7.72869E-05	0	0	0	
0.0968333	-0.0195798	0.00176749	0.000570321	5.10888E-05	0	0	0	
0.097	0.00827286	-0.00262108	0.000407901	4.02559E-05	0	0	0	
0.0971667	0.0171313	-0.0010602	0.000479501	4.33808E-05	0	0	0	
0.0973333	-0.0307959	0.00227956	0.000497865	6.32116E-05	0	0	0	
0.0975	0.0634255	-0.0147463	0.00109588	0.000199037	0	0	0	
0.0976667	-0.132026	0.0241465	0.00158908	0.000322818	0	0	0	
0.0978333	0.002167	-0.00187646	0.00184496	0.000359717	0	0	0	
0.098	0.0174551	-0.0032599	0.00117232	0.000256307	0	0	0	
0.0981667	-0.00958262	0.00325802	0.000542936	0.000153358	0	0	0	
0.0983333	-0.00974574	0.000482655	0.000352987	9.12041E-05	0	0	0	
0.0985	0.13479	-0.0249273	0.000693133	0.000122092	0	0	0	
0.0986667	-0.0435064	0.00871862	0.00112018	0.000193797	0	0	0	
0.0988333	0.0227147	-0.00556083	0.0017086	0.000307022	0	0	0	
0.099	-0.00697347	0.00425954	0.00144206	0.000244257	0	0	0	
0.0991667	-0.00379362	-0.002125	0.000957937	0.000184287	0	0	0	
0.0993333	0.00145635	0.00149658	0.000286977	0.000102105	0	0	0	
0.0995	0.0129651	-0.000902677	0.000215889	0.0001174	0	0	0	
0.0996667	-0.000753432	0.0022474	0.00021831	0.00010142	0	0	0	
0.0998333	-0.0570181	-0.0130723	0.000297753	0.000123364	0	0	0	
0.1	0.0189138	0.0016145	0.000468335	0.000119247	0	0	0	
0.100167	-0.00976785	-0.00131241	0.000496915	0.000113997	0	0	0	
0.100333	0.0087612	0.00131564	0.000422007	6.74841E-05	0	0	0	
0.1005	0.000534642	-0.00195973	0.000217393	5.51649E-05	0	0	0	
0.100667	-0.00239944	0.000398961	0.000189719	4.22995E-05	0	0	0	
0.100833	-0.0141456	-0.00252919	0.000177833	3.41868E-05	0	0	0	
0.101	0.000298963	-0.00293673	0.000377649	7.02615E-05	0	0	0	
0.101167	-0.0100186	-0.00136274	0.00047819	8.91341E-05	0	0	0	
0.101333	0.0152234	0.00349541	0.00046771	9.70626E-05	0	0	0	
0.1015	-0.00564462	-0.00263257	0.000320237	6.30689E-05	0	0	0	
0.101667	-0.0110182	0.000698925	0.000301643	4.90097E-05	0	0	0	
0.101833	0.017991	-0.000307354	0.000360084	4.73289E-05	0	0	0	
0.102	-0.0130773	-0.000200562	0.000344616	4.53761E-05	0	0	0	
0.102167	-0.00413207	0.000333765	0.000362088	4.06751E-05	0	0	0	
0.102333	0.0136554	-0.000563269	0.000360984	2.74556E-05	0	0	0	
0.1025	-0.0171612	-0.000682429	0.000354527	2.10009E-05	0	0	0	
0.102667	0.0073411	0.00241598	0.000303861	2.49199E-05	0	0	0	
0.102833	0.00140896	-0.00229624	0.000297987	3.52661E-05	0	0	0	
0.103	-0.0038755	0.00192104	0.000301558	4.13339E-05	0	0	0	
0.103167	0.0017015	-0.000321782	0.000235655	3.57733E-05	0	0	0	
0.103333	0.0112967	0.00102455	0.000158836	2.82813E-05	0	0	0	
0.1035	-0.0128502	-0.00167454	0.000157723	2.32129E-05	0	0	0	
0.103667	0.000498136	0.00174428	0.000303088	2.67158E-05	0	0	0	
0.103833	0.0160593	0.000262768	0.000448929	2.68989E-05	0	0	0	
0.104	-0.0102629	-0.000915388	0.000420817	2.37092E-05	0	0	0	
0.104167	-0.016034	0.000920524	0.000397343	1.85988E-05	0	0	0	
0.104333	0.0252415	-0.000387385	0.000329029	1.8297E-05	0	0	0	
0.1045	-0.0151272	-0.000715106	0.000443362	1.46742E-05	0	0	0	
0.104667	0.00426066	0.000486682	0.000441894	1.48799E-05	0	0	0	
0.104833	-0.00418296	0.000219695	0.000436579	1.09982E-05	0	0	0	
0.105	-0.00562061	-0.00079853	0.000371734	1.60714E-05	0	0	0	
0.105167	0.0111162	-8.60233E-05	0.000302557	1.69073E-05	0	0	0	
0.105333	0.00274082	0.000479907	0.000234476	1.68324E-05	0	0	0	
0.1055	-0.0206315	-0.00125434	0.00019056	1.46143E-05	0	0	0	
0.105667	0.0155471	0.000242435	0.000238958	1.41448E-05	0	0	0	
0.105833	-0.0022663	0.00117801	0.000345952	1.86619E-05	0	0	0	
0.106	-0.0012752	-0.00133021	0.00034865	2.67965E-05	0	0	0	
0.106167	-0.00305907	0.000642429	0.000235608	3.33481E-05	0	0	0	
0.106333	0.00159992	-0.000139171	0.000125998	3.19192E-05	0	0	0	
0.1065	-0.00364585	-0.000637369	0.000115643	2.08523E-05	0	0	0	
0.106667	0.00927947	-1.21658E-05	0.000154043	1.06969E-05	0	0	0	
0.106833	-0.0102909	0.00128702	0.000198073	1.05989E-05	0	0	0	
0.107	-0.0035318	-0.00117609	0.000249248	1.78188E-05	0	0	0	
0.107167	0.0100917	0.000991809	0.000262767	2.68964E-05	0	0	0	
0.107333	0.000363815	-0.00015369	0.000243294	3.0979E-05	0	0	0	
0.1075	-0.0167757	-0.000366457	0.000174251	2.71421E-05	0	0	0	
0.107667	0.0124712	0.000586771	0.000244685	2.49549E-05	0	0	0	
0.107833	-0.0025846	-4.604E-05	0.000325578	2.07893E-05	0	0	0	
0.108	-0.00152154	-0.00102433	0.00035076	2.90576E-05	0	0	0	
0.108167	0.00554769	0.00173535	0.000284921	3.49647E-05	0	0	0	
0.108333	-0.0117834	-0.00167191	0.00022233	4.41424E-05	0	0	0	
0.1085	-0.000801116	0.00135701	0.000203938	3.78527E-05	0	0	0	
0.108667	0.0190287	-0.00093754	0.000234711	3.1821E-05	0	0	0	
0.108833	-0.0236115	-0.00124747	0.000287557	2.36767E-05	0	0	0	
0.109	0.00529967	0.00156146	0.00037622	2.5738E-05	0	0	0	
0.109167	0.0047943	-0.000783733	0.000392682	3.04829E-05	0	0	0	
0.109333	-0.00219388	-0.000830967	0.000316977	3.83701E-05	0	0	0	
0.1095	-0.00311383	0.00154527	0.000192952	3.68594E-05	0	0	0	
0.109667	0.00770056	-0.000679812	0.000112077	2.95734E-05	0	0	0	
0.109833	-0.00520118	-0.00128888	0.000109516	2.29359E-05	0	0	0	
0.11	-0.0024015	0.00263606	0.000145541	2.75062E-05	0	0	0	
0.110167	-0.0026618	-0.00158882	0.000131641	4.0582E-05	0	0	0	
0.110333	0.00606583	-0.00112051	0.000116271	4.93746E-05	0	0	0	
0.1105	-0.00724184	0.00232195	9.88803E-05	4.79405E-05	0	0	0	
0.110667	0.00838321	-0.00190819	0.000125338	4.24872E-05	0	0	0	
0.110833	-0.00614079	0.000979996	0.000145505	3.73658E-05	0	0	0	
0.111	-0.000399515	0.00149559	0.000166261	3.45262E-05	0	0	0	
0.111167	-0.00234769	-0.00213983	0.000173757	3.34881E-05	0	0	0	
0.111333	0.00217453	0.00126939	0.000149554	3.16683E-05	0	0	0	
0.1115	-0.00606184	-0.000265487	0.000117372	3.40151E-05	0	0	0	
0.111667	0.00910804	-0.00114059	0.000118512	3.41579E-05	0	0	0	
0.111833	-0.000102316	0.00162112	0.00016496	3.49948E-05	0	0	0	
0.112	-0.00564947	-0.000787663	0.000189442	3.2125E-05	0	0	0	
0.112167	-0.00187118	0.00105086	0.000152111	2.21518E-05	0	0	0	
0.112333	0.00701623	-0.00111695	0.000101177	2.1028E-05	0	0	0	
0.1125	-0.00549818	-5.57154E-05	0.000114046	2.18521E-05	0	0	0	
0.112667	0.0059009	-0.000276836	0.000152	3.20232E-05	0	0	0	
0.112833	-0.00415746	0.000261863	0.000153206	2.86792E-05	0	0	0	
0.113	0.0054316	0.000120467	0.000130075	2.56144E-05	0	0	0	
0.113167	-0.00217556	-0.000455289	0.000125652	2.18908E-05	0	0	0	
0.113333	-0.000920569	-0.000814956	0.000179155	2.47142E-05	0	0	0	
0.1135	4.12466E-05	-0.000298747	0.000211238	2.08385E-05	0	0	0	
0.113667	0.00940086	-0.000193375	0.000199626	2.56675E-05	0	0	0	
0.113833	-0.00405515	9.1084E-05	0.000162744	3.22026E-05	0	0	0	
0.114	0.00337075	0.000984418	0.000152949	3.19187E-05	0	0	0	
0.114167	-0.0148257	-0.00106909	0.000208809	2.90395E-05	0	0	0	
0.114333	0.0109532	0.000795126	0.000256042	3.49428E-05	0	0	0	
0.1145	-0.0124905	-0.000455609	0.000273147	5.02986E-05	0	0	0	
0.114667	0.00929176	0.000507643	0.000365008	4.74424E-05	0	0	0	
0.114833	-0.00123486	0.000530715	0.000537838	3.24125E-05	0	0	0	
0.115	-0.00861005	-0.00192923	0.000591323	2.81754E-05	0	0	0	
0.115167	-0.010696	0.00198906	0.000433648	3.61707E-05	0	0	0	
0.115333	0.012328	9.10134E-05	0.000275605	3.78317E-05	0	0	0	
0.1155	0.00177789	-0.00113743	0.000230458	3.03317E-05	0	0	0	
0.115667	0.0102107	0.0017661	0.000237689	2.16004E-05	0	0	0	
0.115833	-0.0410289	-0.00188595	0.000308414	2.82831E-05	0	0	0	
0.116	0.0251256	0.000536042	0.000452354	3.16494E-05	0	0	0	
0.116167	-0.010708	0.000229869	0.000552335	3.68697E-05	0	0	0	
0.116333	0.0146989	0.000160968	0.00049651	3.41741E-05	0	0	0	
0.1165	-0.00710282	0.000304627	0.000368897	2.89634E-05	0	0	0	
0.116667	0.00243168	-0.000908027	0.000297338	1.9442E-05	0	0	0	
0.116833	0.00208516	0.00047219	0.000195942	1.83859E-05	0	0	0	
0.117	-0.0015008	-0.000256303	0.00014389	2.69062E-05	0	0	0	
0.117167	-0.00268448	0.000790637	8.85108E-05	3.78865E-05	0	0	0	
0.117333	0.00620774	-0.00151844	9.32115E-05	4.04352E-05	0	0	0	
0.1175	-0.00205823	0.00102096	0.000105463	3.46935E-05	0	0	0	
0.117667	-0.00264907	0.000320412	0.000154693	2.36958E-05	0	0	0	
0.117833	0.00194218	-0.00165208	0.000137938	1.80311E-05	0	0	0	
0.118	0.00139383	0.000814495	0.000104566	2.35923E-05	0	0	0	
0.118167	-0.000543633	0.000168793	6.29188E-05	3.62471E-05	0	0	0	
0.118333	-0.00314846	-0.000525603	9.87547E-05	3.86097E-05	0	0	0	
0.1185	0.00435924	-0.000454308	0.000166216	2.75512E-05	0	0	0	
0.118667	-0.00559463	0.00117055	0.000262868	1.95253E-05	0	0	0	
0.118833	-5.49221E-05	-0.00182453	0.00025777	1.90822E-05	0	0	0	
0.119	0.00460888	0.00203647	0.000191337	2.9121E-05	0	0	0	
0.119167	-0.00236943	-0.00176668	0.000118108	3.30354E-05	0	0	0	
0.119333	-0.00348736	0.00028733	0.000140777	4.25035E-05	0	0	0	
0.1195	-0.00360776	0.0012055	0.000158212	4.00322E-05	0	0	0	
0.119667	0.0048689	-0.001529	0.000236897	3.81436E-05	0	0	0	
0.119833	0.0036314	0.00173354	0.000309431	3.84834E-05	0	0	0	
0.12	0.0122921	-0.000853698	0.000330913	4.35689E-05	0	0	0	
0.120167	-0.0254555	-0.000741175	0.000333087	5.71443E-05	0	0	0	
0.120333	0.00765688	0.00211104	0.000370225	6.74265E-05	0	0	0	
0.1205	0.0147448	-0.0023352	0.000526719	7.1274E-05	0	0	0	
0.120667	-0.00605896	0.000488088	0.000458243	5.81854E-05	0	0	0	
0.120833	-0.013498	-1.85278E-05	0.000323008	3.47355E-05	0	0	0	
0.121	0.0130216	8.7498E-05	0.000228741	2.21737E-05	0	0	0	
0.121167	-0.000241145	0.00115155	0.000222426	1.68792E-05	0	0	0	
0.121333	0.00608817	-0.00215814	0.000198686	2.47479E-05	0	0	0	
0.1215	-0.00495783	0.00180247	0.000152846	3.77987E-05	0	0	0	
0.121667	-0.0114786	-0.000145757	0.0002278	5.07555E-05	0	0	0	
0.121833	0.00389208	0.000270937	0.000260275	5.46674E-05	0	0	0	
0.122	0.00854239	0.00147527	0.000299911	4.24086E-05	0	0	0	
0.122167	-0.0132655	-0.000554985	0.000301034	2.98832E-05	0	0	0	
0.122333	0.00529554	-4.54032E-05	0.000279611	1.70819E-05	0	0	0	
0.1225	-0.00949116	-0.000196283	0.000265656	1.69508E-05	0	0	0	
0.122667	-0.00156091	0.000281563	0.000211882	2.28586E-05	0	0	0	
0.122833	0.00353974	0.00166401	0.000233803	3.50049E-05	0	0	0	
0.123	-0.00156751	-0.00304403	0.000152639	4.93668E-05	0	0	0	
0.123167	-0.0106362	0.00342626	0.000137835	5.61469E-05	0	0	0	
0.123333	-0.000600397	-0.00281627	0.000138477	6.13761E-05	0	0	0	
0.1235	0.00186584	0.00247624	0.000262495	5.79366E-05	0	0	0	
0.123667	-0.00316714	-0.00182449	0.000264529	5.6323E-05	0	0	0	
0.123833	-0.0054789	0.000284532	0.000269225	5.58743E-05	0	0	0	
0.124	0.00788312	0.00201399	0.000162093	5.04785E-05	0	0	0	
0.124167	-0.00333065	-0.00180054	0.000139318	4.95699E-05	0	0	0	
0.124333	0.0069407	-0.000540716	0.000121472	5.96504E-05	0	0	0	
0.1245	-0.01279	0.00230541	0.000146674	7.33537E-05	0	0	0	
0.124667	0.00968825	-0.0023643	0.000173044	7.15401E-05	0	0	0	
0.124833	0.00108539	0.00174214	0.000242024	5.36461E-05	0	0	0	
0.125	-0.0054606	-0.000558857	0.000222527	3.62278E-05	0	0	0	
0.125167	-0.00793901	0.000198785	0.00017882	3.05774E-05	0	0	0	
0.125333	0.0178022	-0.000513217	0.000172517	3.23042E-05	0	0	0	
0.1255	-0.00208509	0.000260705	0.000226312	3.53943E-05	0	0	0	
0.125667	-0.0121523	2.17561E-05	0.000245108	2.88655E-05	0	0	0	
0.125833	0.00374795	0.000603643	0.000216203	1.67416E-05	0	0	0	
0.126	0.00903817	-0.00317347	0.000138913	2.43692E-05	0	0	0	
0.126167	-0.00363346	0.00248056	0.000193632	4.63734E-05	0	0	0	
0.126333	-0.00250611	-0.00167117	0.000227437	6.2513E-05	0	0	0	
0.1265	0.00273944	0.000746581	0.000224832	5.60239E-05	0	0	0	
0.126667	0.00396707	0.000526803	0.000163878	3.94436E-05	0	0	0	
0.126833	0.00118358	-0.00167366	0.000181426	3.01786E-05	0	0	0	
0.127	-0.0132623	-0.000918789	0.000324335	2.24452E-05	0	0	0	
0.127167	-0.00161317	0.00205384	0.000309919	3.11042E-05	0	0	0	
0.127333	0.0229413	-0.00187904	0.00031274	3.25216E-05	0	0	0	
0.1275	-0.0111075	0.00167581	0.000250159	4.15516E-05	0	0	0	
0.127667	-0.0145923	-0.00111527	0.000436705	4.06033E-05	0	0	0	
0.127833	-0.00428068	0.000847464	0.00038029	4.53435E-05	0	0	0	
0.128	0.0965019	0.00346177	0.000695926	6.19087E-05	0	0	0	
0.128167	0.067269	0.000422279	0.00155758	0.000203473	0	0	0	
0.128333	-0.0146352	0.000665648	0.00210933	0.000215155	0	0	0	
0.1285	-0.0107948	-0.00165161	0.00194425	0.000206065	0	0	0	
0.128667	0.0244972	-0.00245359	0.000966717	6.75957E-05	0	0	0	
0.128833	-0.0142679	0.00251438	0.000502298	6.49943E-05	0	0	0	
0.129	0.03633	-0.00673841	0.000481475	0.000117178	0	0	0	
0.129167	-0.0333504	-0.00029605	0.000623291	0.00016352	0	0	0	
0.129333	0.012716	0.0033287	0.00060775	0.00016602	0	0	0	
0.1295	0.00619363	-0.00275298	0.000514461	0.000106829	0	0	0	
0.129667	0.0149705	0.000565876	0.000378575	5.28329E-05	0	0	0	
0.129833	-0.042269	-0.000769956	0.000493525	3.13019E-05	0	0	0	
0.13	0.0259655	0.00344257	0.000562769	3.94379E-05	0	0	0	
0.130167	0.0235623	-0.00539853	0.000754532	6.82224E-05	0	0	0	
0.130333	-0.0246972	0.00467654	0.000634247	0.000105246	0	0	0	
0.1305	-0.0172659	-0.00549215	0.000701019	0.000116261	0	0	0	
0.130667	0.0116502	0.00390377	0.000484809	0.00010545	0	0	0	
0.130833	0.00501235	-0.000835064	0.000432931	7.66448E-05	0	0	0	
0.131	0.0220541	-0.00154895	0.00033339	4.91287E-05	0	0	0	
0.131167	-0.03479	0.00248622	0.000446345	3.50772E-05	0	0	0	
0.131333	0.00719664	-0.00215589	0.000676625	5.30626E-05	0	0	0	
0.1315	0.0272485	-0.000278208	0.000822171	8.65396E-05	0	0	0	
0.131667	-0.00360833	0.000663571	0.000698926	0.000108875	0	0	0	
0.131833	-0.0219581	0.000169166	0.000492342	0.000105535	0	0	0	
0.132	0.0066563	0.000602888	0.000263895	8.34548E-05	0	0	0	
0.132167	0.0144311	-0.000696149	0.000340888	5.39039E-05	0	0	0	
0.132333	-0.0136289	0.00116076	0.000345916	3.22622E-05	0	0	0	
0.1325	-0.00319571	-4.94366E-05	0.000297522	1.93292E-05	0	0	0	
0.132667	0.00650049	0.00104345	0.000192134	2.05568E-05	0	0	0	
0.132833	-0.00628219	-0.0017252	0.000168888	2.78114E-05	0	0	0	
0.133	-0.00821316	0.00181811	0.000152191	3.73911E-05	0	0	0	
0.133167	0.0158601	-0.00193466	0.000217373	4.05657E-05	0	0	0	
0.133333	-0.00464381	0.00262257	0.0002408	3.91575E-05	0	0	0	
0.1335	-0.00454842	-0.00305947	0.000336967	4.58992E-05	0	0	0	
0.133667	-0.00179556	0.00232069	0.00035029	4.91477E-05	0	0	0	
0.133833	-0.00224956	-0.00019926	0.000274132	4.54322E-05	0	0	0	
0.134	0.00425095	-0.000444115	0.000191971	3.02089E-05	0	0	0	
0.134167	0.00226572	-0.000526517	0.00011378	2.59498E-05	0	0	0	
0.134333	-0.0108562	0.000954371	0.00018015	2.211E-05	0	0	0	
0.1345	0.00217388	0.000304443	0.000217114	2.197E-05	0	0	0	
0.134667	0.00267929	-0.0020629	0.00025014	1.84154E-05	0	0	0	
0.134833	0.00704954	0.000479228	0.000242089	2.36424E-05	0	0	0	
0.135	-0.00802297	0.00271763	0.000236163	2.56195E-05	0	0	0	
0.135167	-0.00795639	-0.00379836	0.000200985	4.21799E-05	0	0	0	
0.135333	0.00147459	0.00211409	0.000141676	5.3206E-05	0	0	0	
0.1355	0.00119187	0.000139073	0.000137768	6.85606E-05	0	0	0	
0.135667	0.00658164	-0.00222116	0.000138003	6.6475E-05	0	0	0	
0.135833	-0.00968956	0.0019313	0.000172126	6.77855E-05	0	0	0	
0.136	0.00642488	-0.000444953	0.000166502	6.2107E-05	0	0	0	
0.136167	0.00743141	-0.000894534	0.000190133	4.8785E-05	0	0	0	
0.136333	0.00833984	0.000935053	0.000164572	3.40991E-05	0	0	0	
0.1365	-0.0192213	-0.000670384	0.000193762	2.08037E-05	0	0	0	
0.136667	0.0101081	0.000698974	0.000239316	1.50889E-05	0	0	0	
0.136833	-0.000676779	-0.00158167	0.00024162	1.52156E-05	0	0	0	
0.137	0.00316025	0.00127663	0.000181141	2.47216E-05	0	0	0	
0.137167	0.00864537	-0.000545538	0.000112311	4.3215E-05	0	0	0	
0.137333	-0.0039255	0.000456442	0.000156347	5.81244E-05	0	0	0	
0.1375	0.0068223	-0.00059898	0.000177431	5.71535E-05	0	0	0	
0.137667	-0.00843667	0.00166779	0.000217496	4.45393E-05	0	0	0	
0.137833	0.00415783	-0.00206355	0.000164075	3.68321E-05	0	0	0	
0.138	-0.00572134	0.00350499	0.000172795	6.61043E-05	0	0	0	
0.138167	0.0117094	-0.00209444	0.000192424	0.000109029	0	0	0	
0.138333	-0.0150067	-0.000145994	0.000271197	0.000143055	0	0	0	
0.1385	0.0112671	0.00074266	0.000301482	0.00013822	0	0	0	
0.138667	-0.0106248	-0.000283812	0.000269956	9.93537E-05	0	0	0	
0.138833	-0.00272432	-0.00108839	0.000201805	5.43279E-05	0	0	0	
0.139	0.00362558	0.0030291	0.000174814	3.06971E-05	0	0	0	
0.139167	0.00978351	-0.00287614	0.0002712	4.11583E-05	0	0	0	
0.139333	-0.00892063	0.000419472	0.000360388	5.61563E-05	0	0	0	
0.1395	0.00604905	0.000566866	0.00035931	6.48184E-05	0	0	0	
0.139667	-0.00746666	-0.000647125	0.000253646	5.66044E-05	0	0	0	
0.139833	0.0122941	0.000326172	0.000181392	4.41886E-05	0	0	0	
0.14	0.00106139	-0.00102333	0.000164771	2.83188E-05	0	0	0	
0.140167	0.00126227	0.00228705	0.000161603	2.53561E-05	0	0	0	
0.140333	-0.00281915	-0.00115986	0.000162109	3.13146E-05	0	0	0	
0.1405	-0.000583839	-4.16974E-05	0.000158273	3.22761E-05	0	0	0	
0.140667	2.08043E-05	0.00100925	0.000168074	2.54348E-05	0	0	0	
0.140833	0.000746133	0.000404605	0.000139816	2.0217E-05	0	0	0	
0.141	0.00683801	-0.00125718	0.000120426	2.38138E-05	0	0	0	
0.141167	-0.00423529	0.000889613	9.96977E-05	2.3384E-05	0	0	0	
0.141333	-0.00103504	-0.00116165	0.000181841	3.04819E-05	0	0	0	
0.1415	0.00388032	0.000676792	0.000230366	4.02127E-05	0	0	0	
0.141667	0.00902228	0.00139466	0.000240155	5.43715E-05	0	0	0	
0.141833	-0.00473988	-0.000576053	0.000186536	5.5819E-05	0	0	0	
0.142	0.00431313	0.000284365	0.000179224	3.99845E-05	0	0	0	
0.142167	-0.00683925	0.000196636	0.00015741	2.29193E-05	0	0	0	
0.142333	0.0103945	-0.00172779	0.000153035	1.19509E-05	0	0	0	
0.1425	-0.0078678	0.00288801	0.000179099	2.61499E-05	0	0	0	
0.142667	0.00203789	-0.00161994	0.000228593	3.85783E-05	0	0	0	
0.142833	-0.00347427	0.00184134	0.000192916	5.14135E-05	0	0	0	
0.143	0.0161271	-0.00159271	0.000158482	5.05322E-05	0	0	0	
0.143167	-0.011901	0.00107325	0.000172281	4.68861E-05	0	0	0	
0.143333	0.0120311	-0.000784152	0.000278985	3.53499E-05	0	0	0	
0.1435	-0.0032522	0.00100981	0.000359887	2.59366E-05	0	0	0	
0.143667	0.000390845	-0.00155439	0.000372544	2.58506E-05	0	0	0	
0.143833	0.000695711	0.00217742	0.000324068	2.89624E-05	0	0	0	
0.144	-0.00642908	-0.0016192	0.000265987	3.41639E-05	0	0	0	
0.144167	0.000403955	0.000894708	0.000181557	3.40717E-05	0	0	0	
0.144333	0.00933094	-0.00052683	0.000146841	3.49269E-05	0	0	0	
0.1445	-0.00368384	0.000724301	0.000117263	3.51916E-05	0	0	0	
0.144667	-0.00223656	-0.00237123	0.00022974	4.51142E-05	0	0	0	
0.144833	0.00167295	0.00125621	0.000270125	5.09799E-05	0	0	0	
0.145	0.00140552	-0.000922755	0.000254355	5.14566E-05	0	0	0	
0.145167	-0.00364389	0.000152746	0.000172577	4.32791E-05	0	0	0	
0.145333	0.00328367	0.000125013	0.000129305	3.39868E-05	0	0	0	
0.1455	-0.00586274	-0.000322701	0.000122507	2.52201E-05	0	0	0	
0.145667	0.000896047	-0.00112735	0.000174254	3.22998E-05	0	0	0	
0.145833	0.00835779	0.0010207	0.000313628	5.00117E-05	0	0	0	
0.146	-0.0192312	-0.0010573	0.000430764	6.22934E-05	0	0	0	
0.146167	0.00365048	0.00012895	0.000408901	5.1952E-05	0	0	0	
0.146333	-0.00218743	0.000123321	0.000287961	3.10581E-05	0	0	0	
0.1465	0.00463693	-9.3319E-05	0.00017942	1.43709E-05	0	0	0	
0.146667	-0.00840454	0.000352963	0.000142018	7.20127E-06	0	0	0	
0.146833	0.00480962	-0.000716665	0.00014419	6.10834E-06	0	0	0	
0.147	0.00846174	0.00142866	0.000131115	1.42195E-05	0	0	0	
0.147167	-0.0145501	-0.00312903	0.000233885	3.01521E-05	0	0	0	
0.147333	-0.0046471	0.00205358	0.000361808	4.92321E-05	0	0	0	
0.1475	0.0101063	-0.000583971	0.00044371	4.88446E-05	0	0	0	
0.147667	-0.004273	-0.000220777	0.000347411	3.23756E-05	0	0	0	
0.147833	0.00717604	-0.000327	0.000212044	1.35652E-05	0	0	0	
0.148	-0.013161	0.000969493	0.00017787	1.19579E-05	0	0	0	
0.148167	-0.00345762	0.000108063	0.000192328	1.74855E-05	0	0	0	
0.148333	0.0214744	2.50508E-05	0.000235519	1.77541E-05	0	0	0	
0.1485	-0.010942	5.83383E-05	0.000278941	1.28809E-05	0	0	0	
0.148667	-0.00794826	-0.00029723	0.000400322	1.02636E-05	0	0	0	
0.148833	0.00865244	-0.000417553	0.000390558	1.85703E-05	0	0	0	
0.149	0.00630191	0.00239613	0.000319862	3.05146E-05	0	0	0	
0.149167	-0.00125097	-0.00186307	0.000215561	3.97908E-05	0	0	0	
0.149333	-0.000231862	0.00136025	0.000222422	4.21742E-05	0	0	0	
0.1495	0.00444563	-0.00183928	0.00022138	4.66871E-05	0	0	0	
0.149667	0.00356544	0.000170183	0.000213639	4.06304E-05	0	0	0	
0.149833	0.00329101	0.00049194	0.000235691	2.79091E-05	0	0	0	
0.15	-0.0104031	0.000168203	0.000294259	1.79373E-05	0	0	0	
0.150167	0.00244229	-0.000270378	0.000246924	3.34753E-05	0	0	0	
0.150333	0.00192527	0.000786704	0.000166402	6.33047E-05	0	0	0	
0.1505	-0.00908238	-0.000648678	0.00012761	8.15668E-05	0	0	0	
0.150667	-2.93831E-05	-0.000305128	0.000221282	7.59679E-05	0	0	0	
0.150833	0.00141114	0.000332504	0.000282707	5.60231E-05	0	0	0	
0.151	-0.00148665	5.47997E-05	0.000278244	3.95883E-05	0	0	0	
0.151167	0.00140374	-0.000134528	0.000252953	3.03681E-05	0	0	0	
0.151333	-0.0154298	-0.00217851	0.000282777	3.2194E-05	0	0	0	
0.1515	0.0107186	0.00485949	0.000332143	4.03116E-05	0	0	0	
0.151667	-0.00195039	-0.00455815	0.000265979	6.2549E-05	0	0	0	
0.151833	-0.00323844	0.00248044	0.000150844	7.08457E-05	0	0	0	
0.152	-0.000382878	-0.00132738	9.78038E-05	6.56408E-05	0	0	0	
0.152167	0.00107082	-0.000486938	0.000137074	5.60687E-05	0	0	0	
0.152333	0.00311793	0.00246266	0.000182467	6.33451E-05	0	0	0	
0.1525	0.0034008	-0.00323889	0.000210098	7.86454E-05	0	0	0	
0.152667	-0.00909248	0.00278909	0.000246604	8.11132E-05	0	0	0	
0.152833	0.0102591	-0.00193644	0.00026413	6.84749E-05	0	0	0	
0.153	-0.00544449	0.000591172	0.000231236	5.06129E-05	0	0	0	
0.153167	-0.00144606	-0.00110313	0.00015182	4.12867E-05	0	0	0	
0.153333	0.00734126	0.00239694	0.000117231	4.15158E-05	0	0	0	
0.1535	5.18801E-05	-0.00288766	0.000130265	4.976E-05	0	0	0	
0.153667	-0.00676096	0.00205862	0.000195597	4.79501E-05	0	0	0	
0.153833	0.00364578	-0.00225413	0.000211106	4.6591E-05	0	0	0	
0.154	0.00109594	0.00213474	0.000153436	4.21928E-05	0	0	0	
0.154167	-0.00225078	-0.0013739	8.31649E-05	4.28873E-05	0	0	0	
0.154333	0.00270586	0.00184887	8.21743E-05	4.03795E-05	0	0	0	
0.1545	0.000871602	-0.0023398	0.000154588	3.97865E-05	0	0	0	
0.154667	-0.00497603	0.00164455	0.000240366	3.98429E-05	0	0	0	
0.154833	0.0112371	-0.00155924	0.000274141	3.99061E-05	0	0	0	
0.155	-0.00486818	0.000884858	0.000237004	3.56541E-05	0	0	0	
0.155167	-0.00138857	-0.000810404	0.000167108	3.15838E-05	0	0	0	
0.155333	0.00285463	0.000919898	0.000101138	2.56813E-05	0	0	0	
0.1555	-0.00402097	-0.000856389	8.98398E-05	2.27509E-05	0	0	0	
0.155667	0.0140792	-2.37223E-07	0.000119547	1.8182E-05	0	0	0	
0.155833	-0.0166743	0.000248639	0.000182284	1.42085E-05	0	0	0	
0.156	0.00172217	0.000545916	0.000311522	9.65063E-06	0	0	0	
0.156167	0.00730024	-0.00112461	0.00041314	1.05395E-05	0	0	0	
0.156333	-0.00409263	0.00110139	0.000376313	1.53469E-05	0	0	0	
0.1565	-0.00223076	-0.000770049	0.000227875	2.18329E-05	0	0	0	
0.156667	-0.00204886	-0.000384663	0.00010467	2.49262E-05	0	0	0	
0.156833	0.00562856	0.00165503	8.19068E-05	2.93547E-05	0	0	0	
0.157	0.00309748	-0.000934926	0.00011154	4.15988E-05	0	0	0	
0.157167	-0.00905929	0.00204713	0.000115707	5.38142E-05	0	0	0	
0.157333	-0.000986954	-0.00138271	0.000199785	6.03085E-05	0	0	0	
0.1575	0.00804881	-6.0496E-05	0.000234944	4.39936E-05	0	0	0	
0.157667	-0.000209744	0.00112754	0.000225685	2.77103E-05	0	0	0	
0.157833	-0.00271491	-0.00205291	0.000137258	1.81351E-05	0	0	0	
0.158	-0.000669917	0.00300807	0.000124718	3.13264E-05	0	0	0	
0.158167	0.00737269	-0.00310694	0.000167016	5.02077E-05	0	0	0	
0.158333	-0.0119898	0.00286025	0.000215064	6.43897E-05	0	0	0	
0.1585	0.00154753	-0.00163125	0.000189944	6.95177E-05	0	0	0	
0.158667	0.0115631	0.000762182	0.00013525	5.98118E-05	0	0	0	
0.158833	-0.00356891	-0.000454377	0.000190834	4.71442E-05	0	0	0	
0.159	-0.0138023	-0.000542433	0.000354109	4.24495E-05	0	0	0	
0.159167	0.0143551	0.00425565	0.000423796	5.46788E-05	0	0	0	
0.159333	-0.00472491	-0.00355823	0.000380297	7.47332E-05	0	0	0	
0.1595	0.0038117	0.00193873	0.000238107	7.0965E-05	0	0	0	
0.159667	-0.0133214	-0.00112739	0.000251212	5.75945E-05	0	0	0	
0.159833	0.00560919	-0.000278103	0.000231208	3.31587E-05	0	0	0	
0.16	0.0175511	0.000229947	0.000232266	2.15182E-05	0	0	0	
0.160167	-0.00200155	0.000419146	0.000246256	1.58062E-05	0	0	0	
0.160333	-0.0115183	-0.00016256	0.000291687	2.30179E-05	0	0	0	
0.1605	-9.30846E-05	0.0017226	0.000278563	2.85671E-05	0	0	0	
0.160667	0.00748056	-0.00237177	0.000202552	3.63558E-05	0	0	0	
0.160833	-0.000553954	0.000665339	0.000179311	3.30272E-05	0	0	0	
0.161	-0.0053947	0.000442417	0.000214877	2.91658E-05	0	0	0	
0.161167	0.00612813	0.000643646	0.000197888	1.74488E-05	0	0	0	
0.161333	0.000337357	-0.00130992	0.000143804	1.57325E-05	0	0	0	
0.1615	-0.000503227	0.00182909	0.000121417	1.98621E-05	0	0	0	
0.161667	-0.00924601	-0.00219193	0.000141755	2.9647E-05	0	0	0	
0.161833	0.00451481	0.00155205	0.000146836	3.49906E-05	0	0	0	
0.162	-0.00391115	-0.000440612	0.000121136	3.72448E-05	0	0	0	
0.162167	0.00638479	0.000269146	0.000110857	3.76193E-05	0	0	0	
0.162333	-0.00830431	-0.000275496	0.000128122	4.13368E-05	0	0	0	
0.1625	-0.00801101	-0.00082987	0.000178082	5.20533E-05	0	0	0	
0.162667	0.00382942	0.00204706	0.000213037	6.52671E-05	0	0	0	
0.162833	-0.00327468	-0.000840562	0.000179624	7.35675E-05	0	0	0	
0.163	-0.00153603	0.000800071	0.000111125	6.50515E-05	0	0	0	
0.163167	-0.0046635	-0.000716137	7.26211E-05	4.62401E-05	0	0	0	
0.163333	0.00656366	0.000527745	9.01265E-05	2.41722E-05	0	0	0	
0.1635	-0.00355843	5.09563E-05	0.00012916	1.82442E-05	0	0	0	
0.163667	-0.00995518	0.000367306	0.000189672	2.22332E-05	0	0	0	
0.163833	0.0102725	0.00144294	0.000211697	2.54224E-05	0	0	0	
0.164	0.000528675	-0.00122657	0.000218323	3.03021E-05	0	0	0	
0.164167	-0.00536069	0.00102564	0.00014917	2.64315E-05	0	0	0	
0.164333	0.00791113	0.000617982	0.000124542	3.18349E-05	0	0	0	
0.1645	-0.0413264	-0.00717949	0.000205477	4.71353E-05	0	0	0	
0.164667	0.0478366	0.0157552	0.000491346	0.000106657	0	0	0	
0.164833	-0.0157061	-0.0159319	0.000672214	0.000211742	0	0	0	
0.165	-0.0151779	0.0087071	0.000711967	0.000287742	0	0	0	
0.165167	0.000402626	-0.00303036	0.000476112	0.000287481	0	0	0	
0.165333	-0.00943341	-0.000353277	0.00029401	0.000199399	0	0	0	
0.1655	-0.00122509	-0.000614361	0.000143114	9.94513E-05	0	0	0	
0.165667	0.0352538	0.00666037	0.00029642	6.85266E-05	0	0	0	
0.165833	-0.0259755	-0.0134653	0.000510916	0.000116689	0	0	0	
0.166	0.0062492	0.0125767	0.000644601	0.000202385	0	0	0	
0.166167	0.0124972	-0.00886887	0.000627761	0.000234327	0	0	0	
0.166333	-0.0115733	0.00249687	0.00044839	0.000191756	0	0	0	
0.1665	0.00450143	-0.000962348	0.000348581	0.000115772	0	0	0	
0.166667	-0.00284838	0.00130011	0.000209252	6.52002E-05	0	0	0	
0.166833	0.00903619	-0.000861496	0.000169257	4.18547E-05	0	0	0	
0.167	0.00749587	0.000345564	0.000157833	3.5833E-05	0	0	0	
0.167167	-0.0043595	-0.000231623	0.000121301	2.91396E-05	0	0	0	
0.167333	-0.00135547	0.000180441	0.000209465	2.23918E-05	0	0	0	
0.1675	0.00569286	-6.74675E-05	0.000273255	1.71108E-05	0	0	0	
0.167667	0.00328957	0.000577366	0.000312451	9.95564E-06	0	0	0	
0.167833	0.00140853	-0.000472581	0.000223938	7.79767E-06	0	0	0	
0.168	0.00233554	0.000437831	0.000151476	1.74091E-05	0	0	0	
0.168167	0.00482902	0.000472592	0.000137834	2.66765E-05	0	0	0	
0.168333	0.000308574	-0.000510273	0.000154321	3.15541E-05	0	0	0	
0.1685	-0.0131168	-0.000119045	0.000163172	2.29773E-05	0	0	0	
0.168667	0.0177087	0.000592801	0.000197419	2.00992E-05	0	0	0	
0.168833	-0.00275921	-0.000668487	0.000251253	2.79806E-05	0	0	0	
0.169	0.00345255	0.00239277	0.000232266	4.55521E-05	0	0	0	
0.169167	-0.00176789	-0.00327788	0.000149518	6.58272E-05	0	0	0	
0.169333	-0.000245124	0.00427556	9.93226E-05	7.85483E-05	0	0	0	
0.1695	0.00166483	-0.00271673	0.000138706	8.16829E-05	0	0	0	
0.169667	-0.00492687	0.000754579	0.000181622	6.40798E-05	0	0	0	
0.169833	0.0132652	5.65659E-05	0.000180438	3.95485E-05	0	0	0	
0.17	-0.00340746	0.000905166	0.000166352	2.20672E-05	0	0	0	
0.170167	0.00240302	-0.00229197	0.000132038	2.33183E-05	0	0	0	
0.170333	-0.000893105	0.00146539	0.00010698	3.99629E-05	0	0	0	
0.1705	-0.00161425	-0.00226232	5.64351E-05	5.20542E-05	0	0	0	
0.170667	0.00280774	0.0015791	5.43017E-05	5.38524E-05	0	0	0	
0.170833	0.00619943	-0.000518107	0.000122121	4.03854E-05	0	0	0	
0.171	0.00362798	0.00067638	0.000243783	2.94702E-05	0	0	0	
0.171167	0.00196461	-0.00308144	0.000325489	3.91336E-05	0	0	0	
0.171333	-0.00602094	0.00403801	0.00036667	6.92085E-05	0	0	0	
0.1715	0.0160788	-0.00315795	0.000367814	8.75495E-05	0	0	0	
0.171667	-0.00713708	0.00163069	0.000321504	8.19444E-05	0	0	0	
0.171833	-0.00014497	-0.00150107	0.000230943	5.48803E-05	0	0	0	
0.172	-3.93375E-05	0.001044	0.000150873	3.60306E-05	0	0	0	
0.172167	0.00417508	-0.000194753	0.000145467	2.43554E-05	0	0	0	
0.172333	0.00855567	-0.000777694	0.000133717	2.04001E-05	0	0	0	
0.1725	-0.00951023	0.00125902	0.0001333	1.95387E-05	0	0	0	
0.172667	0.000180382	-0.000740728	0.000195688	2.11372E-05	0	0	0	
0.172833	0.0115693	0.000788123	0.00026554	2.22717E-05	0	0	0	
0.173	-0.00907436	0.000456738	0.00030741	2.14589E-05	0	0	0	
0.173167	0.00775072	-0.00173921	0.000276985	2.06946E-05	0	0	0	
0.173333	-0.00491321	0.00270675	0.000253241	3.18863E-05	0	0	0	
0.1735	-0.00501894	-0.00313797	0.000218766	5.5166E-05	0	0	0	
0.173667	0.00429114	0.00170041	0.000211636	8.01484E-05	0	0	0	
0.173833	0.0012731	0.000269607	0.000258963	9.28593E-05	0	0	0	
0.174	-0.00705041	-9.01324E-05	0.000350332	8.74638E-05	0	0	0	
0.174167	0.0103819	0.000208274	0.000412373	6.47382E-05	0	0	0	
0.174333	-0.00381707	8.50659E-05	0.000394349	3.6391E-05	0	0	0	
0.1745	0.0012561	-0.00164815	0.000291162	1.87872E-05	0	0	0	
0.174667	0.00346264	0.00258656	0.000191197	2.23238E-05	0	0	0	
0.174833	-0.00672824	-0.0021781	0.000112852	3.31775E-05	0	0	0	
0.175	0.00729804	0.0018442	0.000140421	3.98615E-05	0	0	0	
0.175167	-0.00472477	-0.00129156	0.000192017	3.59255E-05	0	0	0	
0.175333	0.0011517	0.000781764	0.000192287	2.86893E-05	0	0	0	
0.1755	-0.00101077	-0.000955778	0.000155529	2.34287E-05	0	0	0	
0.175667	-0.00499617	0.000899191	0.00014191	1.94575E-05	0	0	0	
0.175833	0.0129907	-0.00243102	0.000172991	2.56978E-05	0	0	0	
0.176	0.00669029	0.00116667	0.000202987	3.27277E-05	0	0	0	
0.176167	-0.00908751	0.000987826	0.000179806	3.09887E-05	0	0	0	
0.176333	-0.00258912	-0.000886981	0.000152375	2.8479E-05	0	0	0	
0.1765	0.000849625	-0.000319526	0.000111462	2.52871E-05	0	0	0	
0.176667	-0.000879045	0.000355641	6.99927E-05	2.29992E-05	0	0	0	
0.176833	0.00937796	-0.000945897	9.26651E-05	2.58612E-05	0	0	0	
0.177	-0.00627013	0.000281975	0.000133449	2.64884E-05	0	0	0	
0.177167	0.000174825	0.000785667	0.000172408	2.94917E-05	0	0	0	
0.177333	-0.006342	-0.000964498	0.000222692	2.93733E-05	0	0	0	
0.1775	0.00948702	-0.000544589	0.000234257	2.90912E-05	0	0	0	
0.177667	0.000366029	0.0014284	0.000248523	3.42407E-05	0	0	0	
0.177833	-0.00226785	-0.00313596	0.000154221	3.19849E-05	0	0	0	
0.178	-0.0727633	-9.10376E-05	0.000493848	4.35631E-05	0	0	0	
0.178167	-0.0804548	-0.00232984	0.00156517	0.000202997	0	0	0	
0.178333	0.00762909	-0.00131245	0.00228678	0.000216611	0	0	0	
0.1785	0.00681515	0.00424335	0.00211138	0.000215334	0	0	0	
0.178667	0.000898137	-0.00141416	0.00102576	6.08803E-05	0	0	0	
0.178833	-0.00576826	-0.000411029	0.000324778	6.02269E-05	0	0	0	
0.179	-0.020661	0.00837014	0.000200079	7.5371E-05	0	0	0	
0.179167	0.0138579	-0.00408384	0.000293904	0.000104032	0	0	0	
0.179333	-0.00579372	0.000529743	0.000360206	9.55546E-05	0	0	0	
0.1795	0.0038008	0.000266911	0.000327609	6.31481E-05	0	0	0	
0.179667	-0.00903286	-0.00216888	0.000295024	2.90587E-05	0	0	0	
0.179833	0.0145641	0.00346413	0.000284274	3.08252E-05	0	0	0	
0.18	-0.00861009	-0.00538351	0.000281324	5.57566E-05	0	0	0	
0.180167	-4.52203E-05	0.00365481	0.00019145	8.08641E-05	0	0	0	
0.180333	0.00253306	-0.000877068	0.000111007	8.84778E-05	0	0	0	
0.1805	-0.00607984	-0.000780596	6.13958E-05	6.40296E-05	0	0	0	
0.180667	-0.000665097	-0.000273912	0.000106421	3.59497E-05	0	0	0	
0.180833	0.0126302	0.000602045	0.000212946	2.24525E-05	0	0	0	
0.181	-0.0136668	0.000478342	0.000276506	2.44948E-05	0	0	0	
0.181167	6.31723E-05	-0.000126132	0.000257127	2.39338E-05	0	0	0	
0.181333	-0.00146053	-0.000329302	0.000170346	1.89906E-05	0	0	0	
0.1815	0.00196466	-0.000539804	0.000110109	1.64638E-05	0	0	0	
0.181667	0.000835049	0.00249213	9.58089E-05	2.32949E-05	0	0	0	
0.181833	0.00407452	-0.00153767	0.000170412	3.20901E-05	0	0	0	
0.182	-0.0168794	0.000979892	0.000247541	4.99988E-05	0	0	0	
0.182167	7.58176E-05	0.00184278	0.000252879	5.82281E-05	0	0	0	
0.182333	0.0139601	-0.00307946	0.000230225	6.5239E-05	0	0	0	
0.1825	-0.00502199	0.00256994	0.000206576	6.26829E-05	0	0	0	
0.182667	-0.00883112	-0.00137643	0.000297205	5.3552E-05	0	0	0	
0.182833	0.0011349	-0.000590538	0.000260468	3.54982E-05	0	0	0	
0.183	0.00248058	0.00210269	0.000204372	2.64717E-05	0	0	0	
0.183167	0.00483561	-0.00043545	0.000165274	3.13373E-05	0	0	0	
0.183333	-0.00294881	-0.00160958	0.000155333	5.52474E-05	0	0	0	
0.1835	-0.0194385	0.00193576	0.000214713	6.53395E-05	0	0	0	
0.183667	0.0158579	-0.00154504	0.00025253	5.8574E-05	0	0	0	
0.183833	0.008891	-0.00024097	0.000437105	3.86982E-05	0	0	0	
0.184	-0.0131547	0.0012537	0.000494155	2.69727E-05	0	0	0	
0.184167	0.0121109	-0.000214318	0.000458064	2.07092E-05	0	0	0	
0.184333	-0.0113426	-0.000356434	0.000340365	2.32134E-05	0	0	0	
0.1845	0.0066374	0.00087859	0.000247328	3.01682E-05	0	0	0	
0.184667	0.00130885	-0.000425251	0.000185937	3.35564E-05	0	0	0	
0.184833	-0.00117765	-0.000831907	0.000109481	2.75702E-05	0	0	0	
0.185	0.00162345	0.000992044	0.000115577	1.81506E-05	0	0	0	
0.185167	-0.00111716	0.00107302	0.000159196	1.48973E-05	0	0	0	
0.185333	-0.0004823	-0.00162804	0.000268469	2.37746E-05	0	0	0	
0.1855	0.00893092	0.00105338	0.000346272	2.75641E-05	0	0	0	
0.185667	-0.00951267	-0.000271644	0.000368317	3.20735E-05	0	0	0	
0.185833	0.00847031	0.00267656	0.00032104	3.10422E-05	0	0	0	
0.186	-0.00902113	-0.00492462	0.000264901	4.39303E-05	0	0	0	
0.186167	0.00419365	0.00410225	0.000215717	7.13713E-05	0	0	0	
0.186333	-0.00328995	-0.00172504	0.000166851	9.31717E-05	0	0	0	
0.1865	0.00891301	0.000646982	0.000163008	8.18985E-05	0	0	0	
0.186667	-0.00646664	-0.00093496	0.000177451	5.23723E-05	0	0	0	
0.186833	-0.00798852	-0.00143756	0.000184028	3.37596E-05	0	0	0	
0.187	0.024578	0.00548203	0.000202199	4.2922E-05	0	0	0	
0.187167	0.0533855	0.000806692	0.000773976	0.000125416	0	0	0	
0.187333	0.194829	0.0347559	0.00299875	0.000557914	0	0	0	
0.1875	-0.0553198	-0.00264263	0.00362656	0.000634174	0	0	0	
0.187667	0.00277455	-0.00245656	0.00324356	0.00055772	0	0	0	
0.187833	-0.037504	-0.001838	0.00115582	0.000143551	0	0	0	
0.188	0.0796816	0.00583013	0.000895129	0.000102112	0	0	0	
0.188167	-0.10745	-0.00908398	0.00117461	0.000143699	0	0	0	
0.188333	0.510607	0.0834059	0.00269517	0.000356451	0	0	0	
0.1885	-0.0821196	0.00495114	0.00393008	0.000602686	0	0	0	
0.188667	0.0453502	-0.0122931	0.0038167	0.000644681	0	0	0	
0.188833	-0.00549947	0.0149212	0.00223129	0.000481874	0	0	0	
0.189	0.0133167	-0.0118781	0.000748214	0.000275185	0	0	0	
0.189167	-0.0227889	0.00723721	0.00069391	0.000271501	0	0	0	
0.189333	0.0357544	0.00199472	0.000823859	0.000223589	0	0	0	
0.1895	-0.042696	-0.00223011	0.000856354	0.000161054	0	0	0	
0.189667	0.0202518	-0.00357349	0.000691811	0.000138869	0	0	0	
0.189833	-0.0149166	0.00805126	0.000593239	0.000194373	0	0	0	
0.19	0.0323574	-0.00885507	0.000509325	0.000254548	0	0	0	
0.190167	-0.0250234	0.00937284	0.000467969	0.000264073	0	0	0	
0.190333	0.00187525	-0.0076822	0.000587296	0.000239186	0	0	0	
0.1905	0.0202343	0.00322748	0.000634092	0.000187951	0	0	0	
0.190667	-0.0159447	-0.000918629	0.000579361	0.000115276	0	0	0	
0.190833	-0.000550473	-0.000596532	0.000388967	6.00689E-05	0	0	0	
0.191	-0.00453342	0.00194323	0.000200623	2.57776E-05	0	0	0	
0.191167	0.00758805	-0.000644729	0.000137479	3.9914E-05	0	0	0	
0.191333	0.00566769	-0.00239521	0.000107915	6.07673E-05	0	0	0	
0.1915	6.67112E-05	0.00424835	0.000123072	8.38977E-05	0	0	0	
0.191667	-0.0156513	-0.00159954	0.000175883	8.13341E-05	0	0	0	
0.191833	0.0106594	-0.000539313	0.000213325	5.54685E-05	0	0	0	
0.192	0.0103582	0.000612623	0.000269387	3.374E-05	0	0	0	
0.192167	-0.0108827	-0.000562845	0.000240881	2.31814E-05	0	0	0	
0.192333	0.0030448	0.00118022	0.000268801	2.54638E-05	0	0	0	
0.1925	0.00355264	-9.69605E-05	0.000268921	1.92521E-05	0	0	0	
0.192667	0.00102392	-0.000744971	0.00025791	2.00764E-05	0	0	0	
0.192833	-0.000234431	0.00105071	0.000214611	2.22558E-05	0	0	0	
0.193	-0.00682423	-0.001215	0.000198945	2.58806E-05	0	0	0	
0.193167	0.00657662	0.00128795	0.000184369	2.55297E-05	0	0	0	
0.193333	-0.0027484	-0.000818291	0.000162272	2.3724E-05	0	0	0	
0.1935	0.0019808	0.000925934	9.51446E-05	2.37987E-05	0	0	0	
0.193667	-0.00157662	-0.00127764	6.97876E-05	2.24381E-05	0	0	0	
0.193833	-0.00446948	0.000804546	3.86572E-05	2.07646E-05	0	0	0	
0.194	0.0078097	-0.000264338	8.20066E-05	2.41085E-05	0	0	0	
0.194167	0.00277369	0.000482532	0.000138078	2.64476E-05	0	0	0	
0.194333	-0.00713983	-0.0002531	0.00017003	2.55075E-05	0	0	0	
0.1945	-0.00191104	-0.000493109	0.000145305	1.95869E-05	0	0	0	
0.194667	0.00456396	0.000732355	0.000108355	1.57993E-05	0	0	0	
0.194833	-0.00301987	4.33007E-05	0.000132341	1.85251E-05	0	0	0	
0.195	-0.00415453	-0.00164935	0.00022105	2.56242E-05	0	0	0	
0.195167	0.0118094	0.00110251	0.000271268	3.01506E-05	0	0	0	
0.195333	-0.00785971	-0.00164844	0.00026346	3.32954E-05	0	0	0	
0.1955	0.000553762	0.00146474	0.000203539	3.31633E-05	0	0	0	
0.195667	0.00451976	-0.000916252	0.000162946	3.18794E-05	0	0	0	
0.195833	-0.00451416	-0.000923073	0.000125088	3.75268E-05	0	0	0	
0.196	0.00287166	0.00180653	9.80974E-05	3.91519E-05	0	0	0	
0.196167	-0.00177272	-0.00133727	8.63823E-05	4.20266E-05	0	0	0	
0.196333	0.00190278	-7.1298E-05	0.000110019	4.38274E-05	0	0	0	
0.1965	0.00554069	0.00185051	0.00012448	4.6974E-05	0	0	0	
0.196667	-0.00251554	-0.00294639	0.000125711	5.12306E-05	0	0	0	
0.196833	-0.0104465	0.0024636	0.00013729	4.83657E-05	0	0	0	
0.197	0.00927276	0.000881728	0.000148199	5.57945E-05	0	0	0	
0.197167	0.00585088	-0.00261204	0.000229846	6.1885E-05	0	0	0	
0.197333	-0.0143774	0.00252991	0.000267325	6.04655E-05	0	0	0	
0.1975	0.00441991	-0.00139436	0.000260655	5.3052E-05	0	0	0	
0.197667	0.00735962	-0.000298333	0.00021373	3.94273E-05	0	0	0	
0.197833	-0.00165067	0.000221345	0.000149383	3.41388E-05	0	0	0	
0.198	-0.0109768	0.000450713	0.00015236	3.06276E-05	0	0	0	
0.198167	0.00672359	0.000606354	0.000150758	2.90959E-05	0	0	0	
0.198333	0.00487653	-0.000533249	0.000209297	2.73201E-05	0	0	0	
0.1985	-0.00629169	-0.000552674	0.0001789	2.1205E-05	0	0	0	
0.198667	-0.00251781	0.00120284	0.000222877	2.17403E-05	0	0	0	
0.198833	0.010135	-0.000714633	0.000214686	2.26863E-05	0	0	0	
0.199	-0.00588985	0.000982478	0.000250102	2.12083E-05	0	0	0	
0.199167	0.00201204	-0.00096904	0.000186664	2.09585E-05	0	0	0	
0.199333	-0.00966794	0.000395479	0.000202334	2.11263E-05	0	0	0	
0.1995	0.0186328	-0.000714764	0.000262481	2.46032E-05	0	0	0	
0.199667	-0.0112278	0.000900155	0.000311201	2.50636E-05	0	0	0	
0.199833	-0.00463264	-0.000873683	0.000270055	3.75477E-05	0	0	0	
0.2	0.00438109	0.00134643	0.000198474	5.41193E-05	0	0	0	
0.200167	0.0072297	-0.00176847	0.000189985	6.18246E-05	0	0	0	
0.200333	-0.000301254	0.000918095	0.000163652	5.05586E-05	0	0	0	
0.2005	-0.00905288	0.000494438	0.000146599	2.94779E-05	0	0	0	
0.200667	-0.00455603	-0.000799626	0.000205978	1.69303E-05	0	0	0	
0.200833	0.0177495	0.000899859	0.000354726	1.6493E-05	0	0	0	
0.201	-0.0149775	-0.0017346	0.000421795	3.29379E-05	0	0	0	
0.201167	0.00550238	0.00146183	0.000338286	4.55113E-05	0	0	0	
0.201333	-0.00811506	-0.0019048	0.00021661	4.86962E-05	0	0	0	
0.2015	0.00846015	0.00123706	0.000164861	4.20899E-05	0	0	0	
0.201667	-0.00381223	0.000912796	0.000151715	3.78305E-05	0	0	0	
0.201833	0.00576459	-0.000707497	0.00016842	3.35548E-05	0	0	0	
0.202	-0.0140188	-0.000192681	0.000222843	2.31313E-05	0	0	0	
0.202167	0.00522017	-0.000519423	0.000245948	1.61341E-05	0	0	0	
0.202333	0.000157161	0.000267956	0.000186743	1.18323E-05	0	0	0	
0.2025	0.00892916	0.00073059	0.000184276	1.28165E-05	0	0	0	
0.202667	-0.00919723	-0.00117239	0.000215265	1.45738E-05	0	0	0	
0.202833	0.00263198	-0.000183038	0.000245015	1.52167E-05	0	0	0	
0.203	-0.0052174	0.00230104	0.000242236	2.04079E-05	0	0	0	
0.203167	0.0168115	-0.00226553	0.000263725	3.28818E-05	0	0	0	
0.203333	-0.0102374	0.000894416	0.000295458	4.24868E-05	0	0	0	
0.2035	-0.000999696	-0.000646621	0.0002441	4.16722E-05	0	0	0	
0.203667	0.00297769	0.00032055	0.000162795	2.97175E-05	0	0	0	
0.203833	0.00351073	0.000218357	0.000123784	2.00602E-05	0	0	0	
0.204	0.000815209	0.000821828	8.92486E-05	1.57612E-05	0	0	0	
0.204167	0.00167926	-0.00071107	8.1835E-05	1.60395E-05	0	0	0	
0.204333	-0.00614343	0.00159181	0.000125804	2.45814E-05	0	0	0	
0.2045	0.00202949	-0.0014809	0.000171737	4.14343E-05	0	0	0	
0.204667	0.00360992	-0.000224266	0.000160883	4.81339E-05	0	0	0	
0.204833	0.00403472	0.00142832	0.000133325	4.38885E-05	0	0	0	
0.205	-0.00825967	-0.000931835	0.00016049	3.43714E-05	0	0	0	
0.205167	0.00893569	0.000863648	0.000189236	2.59161E-05	0	0	0	
0.205333	0.00333071	-0.000229494	0.000171077	2.07195E-05	0	0	0	
0.2055	-0.0083841	0.00130654	0.000154419	1.51877E-05	0	0	0	
0.205667	-0.00312112	-0.00153487	0.000195661	2.38769E-05	0	0	0	
0.205833	0.00304576	0.000225535	0.000221083	2.95855E-05	0	0	0	
0.206	-0.00813635	-0.00117166	0.00022949	3.6453E-05	0	0	0	
0.206167	0.0230085	0.00131479	0.000241812	2.88266E-05	0	0	0	
0.206333	-0.0705114	-0.0217116	0.00059468	6.58148E-05	0	0	0	
0.2065	0.121019	-0.00741617	0.0018328	0.000202499	0	0	0	
0.206667	-0.00565771	0.00306818	0.00206765	0.000220739	0	0	0	
0.206833	-0.00289961	-0.000290762	0.00170327	0.000190764	0	0	0	
0.207	-0.0174178	-0.00270062	0.000541526	5.20753E-05	0	0	0	
0.207167	0.0180498	0.00544653	0.000361729	4.82373E-05	0	0	0	
0.207333	0.00241448	-0.0109501	0.000414679	0.000117921	0	0	0	
0.2075	-0.00114552	0.00413547	0.000275271	0.000164514	0	0	0	
0.207667	-0.00194386	-0.000552062	0.000190078	0.000172953	0	0	0	
0.207833	0.00595705	0.000814503	0.000133306	0.000104089	0	0	0	
0.208	-0.00808894	-0.000923784	0.000171181	5.92542E-05	0	0	0	
0.208167	0.00256398	-0.000348539	0.00014308	3.79923E-05	0	0	0	
0.208333	-2.22885E-05	0.00169273	0.000115384	3.45656E-05	0	0	0	
0.2085	-0.0035839	-0.0023829	7.3076E-05	4.02556E-05	0	0	0	
0.208667	0.0145591	0.00125439	0.000110117	4.47779E-05	0	0	0	
0.208833	0.00112734	7.88016E-06	0.00018971	3.65091E-05	0	0	0	
0.209	-0.00929087	-0.00181512	0.000242222	2.93535E-05	0	0	0	
0.209167	-0.000827559	0.000745101	0.000211898	2.36809E-05	0	0	0	
0.209333	0.00969457	0.00130371	0.000186996	3.40649E-05	0	0	0	
0.2095	-0.00286344	-0.0046178	0.00017931	4.78166E-05	0	0	0	
0.209667	-0.00620773	0.00496331	0.000232069	7.15859E-05	0	0	0	
0.209833	0.00226757	-0.0029765	0.000188604	7.67986E-05	0	0	0	
0.21	0.00826115	0.0015901	0.00017179	6.70642E-05	0	0	0	
0.210167	0.00394218	-0.00062257	0.000153107	4.51745E-05	0	0	0	
0.210333	-0.0195132	0.000662716	0.00026362	3.05012E-05	0	0	0	
0.2105	0.0141193	-0.00149933	0.000341403	2.31412E-05	0	0	0	
0.210667	0.00276645	0.0036741	0.000289318	3.29696E-05	0	0	0	
0.210833	0.0012383	-0.00328736	0.000210168	5.13278E-05	0	0	0	
0.211	-0.00597218	0.00253813	0.000135343	6.69121E-05	0	0	0	
0.211167	-0.00687679	-0.00209155	0.000147174	7.2274E-05	0	0	0	
0.211333	0.0105429	0.00077428	0.000164159	5.743E-05	0	0	0	
0.2115	0.00837825	-0.00195145	0.00035787	4.38036E-05	0	0	0	
0.211667	-0.0173038	0.00516909	0.000503994	4.03229E-05	0	0	0	
0.211833	0.0111559	-0.00670995	0.00049733	6.90848E-05	0	0	0	
0.212	0.0027291	0.00536461	0.000320108	0.000103957	0	0	0	
0.212167	-0.00294689	-0.00332856	0.000158809	0.00012148	0	0	0	
0.212333	0.00351107	0.00133201	0.000133973	0.000104535	0	0	0	
0.2125	-0.00928536	-0.00112807	0.000141963	7.13202E-05	0	0	0	
0.212667	-0.00241002	0.00192764	0.000214581	4.42277E-05	0	0	0	
0.212833	0.0098188	-0.00292496	0.000291135	3.82481E-05	0	0	0	
0.213	-0.00881067	0.00367865	0.000295415	5.47288E-05	0	0	0	
0.213167	0.00599718	-0.0017025	0.000228854	6.55545E-05	0	0	0	
0.213333	-0.00618913	0.000609353	0.000173224	6.72421E-05	0	0	0	
0.2135	0.00550253	-0.000816511	0.000181676	5.17681E-05	0	0	0	
0.213667	-0.00527605	0.000916555	0.00017908	3.70332E-05	0	0	0	
0.213833	-0.00484095	-0.000569126	0.000135343	2.73558E-05	0	0	0	
0.214	-0.000735312	0.000218771	0.000115865	2.77648E-05	0	0	0	
0.214167	0.00505467	-0.000186559	0.000167732	4.0784E-05	0	0	0	
0.214333	-0.00331318	-0.00150786	0.00022709	5.99987E-05	0	0	0	
0.2145	0.00520144	0.00189887	0.000251375	7.54177E-05	0	0	0	
0.214667	-0.00774368	-0.000437068	0.00026388	7.14506E-05	0	0	0	
0.214833	0.00540078	-0.0012961	0.000284397	5.35599E-05	0	0	0	
0.215	-0.0125614	0.00134649	0.00027285	4.08789E-05	0	0	0	
0.215167	0.00586656	-0.00231466	0.000244594	5.00138E-05	0	0	0	
0.215333	-0.0013593	0.00193446	0.000190122	6.85267E-05	0	0	0	
0.2155	0.00594895	-0.00167038	0.000199225	8.23289E-05	0	0	0	
0.215667	-0.0101723	0.00130113	0.000224992	8.27207E-05	0	0	0	
0.215833	0.00687403	-8.66E-05	0.000240443	6.86081E-05	0	0	0	
0.216	-0.00791244	0.000422896	0.00022157	4.52083E-05	0	0	0	
0.216167	0.010703	-0.00120217	0.000209059	2.52213E-05	0	0	0	
0.216333	-0.00667054	0.00138201	0.00019846	2.0368E-05	0	0	0	
0.2165	0.00051971	-0.00126235	0.000178177	2.34709E-05	0	0	0	
0.216667	-0.00940087	0.000788195	0.000243654	3.03985E-05	0	0	0	
0.216833	0.0280251	-0.000346891	0.00037624	3.20206E-05	0	0	0	
0.217	-0.0229601	0.000123974	0.000498492	3.0545E-05	0	0	0	
0.217167	0.00866176	0.000279184	0.000436653	2.51334E-05	0	0	0	
0.217333	0.000257846	0.00036904	0.000298693	2.39961E-05	0	0	0	
0.2175	-0.00291358	-0.00169911	0.000171013	3.10171E-05	0	0	0	
0.217667	0.00692199	0.00324432	0.000196215	4.89734E-05	0	0	0	
0.217833	0.00763581	-0.00297536	0.000301238	7.20015E-05	0	0	0	
0.218	-0.00777031	0.000459571	0.000396839	7.74976E-05	0	0	0	
0.218167	0.013122	0.00104112	0.000368599	6.31391E-05	0	0	0	
0.218333	-0.00591257	-0.000834832	0.000280597	4.17628E-05	0	0	0	
0.2185	-0.0137456	7.77074E-05	0.000192684	3.1292E-05	0	0	0	
0.218667	0.0134956	0.000519517	0.00019961	2.49331E-05	0	0	0	
0.218833	0.00421237	-0.00111787	0.000295946	2.32911E-05	0	0	0	
0.219	-0.0123229	0.000212864	0.000334212	2.18991E-05	0	0	0	
0.219167	-0.00034735	0.000451496	0.000278044	1.94116E-05	0	0	0	
0.219333	-0.00150228	-0.0011778	0.000210951	1.55843E-05	0	0	0	
0.2195	0.0178819	0.00145431	0.000281838	1.64762E-05	0	0	0	
0.219667	-0.0112428	-0.00048627	0.000343897	2.22714E-05	0	0	0	
0.219833	0.00184593	0.000509193	0.000347888	2.14261E-05	0	0	0	
0.22	0.00306158	-0.000955219	0.000212117	2.12878E-05	0	0	0	
0.220167	0.00174411	0.000775655	0.000204856	1.90244E-05	0	0	0	
0.220333	9.57466E-05	-0.000942155	0.00017518	2.07179E-05	0	0	0	
0.2205	0.000501852	0.000393465	0.000244033	1.74604E-05	0	0	0	
0.220667	-0.0159258	0.00107716	0.000296238	1.5917E-05	0	0	0	
0.220833	0.0224908	-0.0012275	0.000365203	2.07779E-05	0	0	0	
0.221	-0.00973636	0.000421236	0.000397331	2.03029E-05	0	0	0	
0.221167	-0.00208436	0.000602097	0.000302109	2.03116E-05	0	0	0	
0.221333	0.000139112	-0.000531221	0.000189725	1.36707E-05	0	0	0	
0.2215	0.00548614	0.000652987	0.000140883	1.27868E-05	0	0	0	
0.221667	-0.000777773	-0.000516879	0.000147969	1.37187E-05	0	0	0	
0.221833	0.00742545	0.000392735	0.000156423	1.14383E-05	0	0	0	
0.222	-0.00358964	-0.000136641	0.000141101	1.02014E-05	0	0	0	
0.222167	0.00284115	0.000736543	0.000132643	7.5136E-06	0	0	0	
0.222333	-0.0115116	-0.000912783	0.000175398	1.21577E-05	0	0	0	
0.2225	0.0184967	-7.51203E-05	0.000219121	1.60247E-05	0	0	0	
0.222667	-3.99747E-05	0.00109146	0.000224407	2.03038E-05	0	0	0	
0.222833	-0.00689966	-0.00136145	0.000220116	2.12026E-05	0	0	0	
0.223	0.0060289	5.98458E-05	0.000178732	1.79449E-05	0	0	0	
0.223167	-5.51742E-05	-4.39857E-05	0.000207903	1.56407E-05	0	0	0	
0.223333	0.000177731	0.000182941	0.000177923	1.62228E-05	0	0	0	
0.2235	0.00676298	-0.000341396	0.000215418	2.37063E-05	0	0	0	
0.223667	-0.0210131	0.00127679	0.000267521	2.73911E-05	0	0	0	
0.223833	0.0103845	-0.000555224	0.00031155	2.54902E-05	0	0	0	
0.224	0.0154251	-0.000444444	0.000334201	1.82025E-05	0	0	0	
0.224167	-0.0115485	-0.000411592	0.000279381	1.55938E-05	0	0	0	
0.224333	-0.00733802	0.000167943	0.000319037	1.47218E-05	0	0	0	
0.2245	0.00915403	0.00137032	0.000254531	1.87876E-05	0	0	0	
0.224667	0.000754633	-0.00193795	0.000207932	2.39356E-05	0	0	0	
0.224833	0.00445917	0.000938701	0.000163578	3.32853E-05	0	0	0	
0.225	-0.014011	0.000977714	0.000210841	4.07255E-05	0	0	0	
0.225167	0.011287	-0.00100999	0.000259593	3.76585E-05	0	0	0	
0.225333	-0.00160068	0.000224754	0.000226791	3.35508E-05	0	0	0	
0.2255	0.000726146	-0.000152728	0.000177497	2.20263E-05	0	0	0	
0.225667	-0.00810107	-0.000550715	0.000143475	2.04646E-05	0	0	0	
0.225833	-0.000362453	0.00128012	0.000124981	2.17987E-05	0	0	0	
0.226	-0.000381588	-0.0020825	0.000103769	3.00027E-05	0	0	0	
0.226167	0.00605678	0.00189579	9.20353E-05	3.56104E-05	0	0	0	
0.226333	-0.00373858	-0.00158109	0.000113272	3.43635E-05	0	0	0	
0.2265	0.00113756	0.00140549	9.79039E-05	3.59018E-05	0	0	0	
0.226667	0.000400223	-0.000294498	7.26077E-05	3.1433E-05	0	0	0	
0.226833	-7.69782E-06	-0.000639158	2.97037E-05	2.93724E-05	0	0	0	
0.227	-0.00105703	0.00109583	2.34916E-05	2.21851E-05	0	0	0	
0.227167	-0.00468302	0.000362875	4.76814E-05	2.16336E-05	0	0	0	
0.227333	0.0024657	-0.00194677	0.000114174	2.84873E-05	0	0	0	
0.2275	-0.00174504	0.00195161	0.000198461	4.32804E-05	0	0	0	
0.227667	-0.00359252	-0.0010771	0.000216498	5.14092E-05	0	0	0	
0.227833	0.00255356	0.000224253	0.000171197	3.76059E-05	0	0	0	
0.228	-0.00569569	0.000813571	0.000114662	2.25311E-05	0	0	0	
0.228167	0.0100472	7.36673E-06	0.000117506	1.05552E-05	0	0	0	
0.228333	-0.00933753	-0.00181188	0.000140228	1.79091E-05	0	0	0	
0.2285	0.00281394	0.000606139	0.000172376	2.41107E-05	0	0	0	
0.228667	0.006541	0.000584127	0.000204632	2.55041E-05	0	0	0	
0.228833	-0.0040165	-0.000782553	0.000177221	2.34488E-05	0	0	0	
0.229	0.00187943	0.000315507	0.000178647	1.61342E-05	0	0	0	
0.229167	-0.00319116	0.000412996	0.000123203	1.43169E-05	0	0	0	
0.229333	0.00447079	-0.00105985	0.000118436	1.30174E-05	0	0	0	
0.2295	0.00823059	0.00253126	0.00017205	1.80632E-05	0	0	0	
0.229667	-0.0181957	-0.00238061	0.000320808	3.22947E-05	0	0	0	
0.229833	0.0104339	0.00135589	0.000394545	4.04584E-05	0	0	0	
0.23	-0.000620861	-0.000266662	0.000318347	3.7046E-05	0	0	0	
0.230167	0.0057533	-0.000215387	0.00017177	2.72619E-05	0	0	0	
0.230333	-0.00616688	-0.000298508	0.000106974	1.9078E-05	0	0	0	
0.2305	-0.00159091	0.00101212	9.90045E-05	1.67565E-05	0	0	0	
0.230667	0.000652635	-0.00142245	0.000112786	2.23018E-05	0	0	0	
0.230833	0.00573579	0.000759164	0.000158685	2.56104E-05	0	0	0	
0.231	-0.000630475	-0.000736685	0.000160917	2.67531E-05	0	0	0	
0.231167	-0.0102508	0.00101757	0.00016602	2.01492E-05	0	0	0	
0.231333	0.00522141	-0.00105293	0.000182262	1.6605E-05	0	0	0	
0.2315	0.00820487	0.00145756	0.000260626	2.16692E-05	0	0	0	
0.231667	-0.00412174	-0.0017971	0.000257632	2.89989E-05	0	0	0	
0.231833	-0.00107516	0.00269073	0.000194562	4.02702E-05	0	0	0	
0.232	-0.0108485	-0.00261996	0.000170516	4.47336E-05	0	0	0	
0.232167	0.0192634	0.00220315	0.000226852	4.84676E-05	0	0	0	
0.232333	-0.00757794	-0.000825051	0.000289467	4.3675E-05	0	0	0	
0.2325	-0.00208035	0.000986872	0.000246809	3.74617E-05	0	0	0	
0.232667	-0.00704159	-0.000791392	0.000189623	3.01777E-05	0	0	0	
0.232833	0.0102515	0.000955498	0.000141172	2.5083E-05	0	0	0	
0.233	0.0051133	-0.000767364	0.000200179	2.38459E-05	0	0	0	
0.233167	-0.0098351	0.00064604	0.000214861	1.78256E-05	0	0	0	
0.233333	-0.00318757	0.000166421	0.000316718	1.42654E-05	0	0	0	
0.2335	0.0144607	-0.000671956	0.000371635	1.11629E-05	0	0	0	
0.233667	-0.00835365	0.00126006	0.000376231	1.39776E-05	0	0	0	
0.233833	-0.000706902	-0.000661711	0.000253557	1.78714E-05	0	0	0	
0.234	-0.01327	0.000599112	0.0001432	2.2612E-05	0	0	0	
0.234167	0.0144687	-0.00117747	0.000168736	2.62855E-05	0	0	0	
0.234333	-0.00807247	0.00181016	0.00023048	2.96028E-05	0	0	0	
0.2345	-5.3975E-05	-0.00107908	0.000204032	2.95419E-05	0	0	0	
0.234667	0.00174505	0.00113296	0.000129312	2.63145E-05	0	0	0	
0.234833	-0.00744426	-0.00184811	7.14615E-05	2.64329E-05	0	0	0	
0.235	0.00409368	0.00305186	8.45217E-05	3.21544E-05	0	0	0	
0.235167	0.00346231	-0.00412978	0.000178623	5.20464E-05	0	0	0	
0.235333	-0.0106821	0.00379488	0.000279412	6.40445E-05	0	0	0	
0.2355	0.0077951	-0.00170473	0.000311345	6.72661E-05	0	0	0	
0.235667	-0.0027558	0.00160667	0.000226432	5.00183E-05	0	0	0	
0.235833	-0.00174352	-0.00178582	0.000138134	3.89594E-05	0	0	0	
0.236	0.00859736	0.00126072	8.30631E-05	3.3498E-05	0	0	0	
0.236167	-0.0100745	-0.000620048	0.000145525	3.65935E-05	0	0	0	
0.236333	0.00449424	0.000384615	0.00025554	4.01089E-05	0	0	0	
0.2365	0.00426815	0.000371394	0.000396736	4.20956E-05	0	0	0	
0.236667	-0.008594	-0.00196457	0.000426107	3.75881E-05	0	0	0	
0.236833	0.0120001	0.00203994	0.000348697	3.571E-05	0	0	0	
0.237	-0.00302494	-0.00111565	0.000253308	3.2333E-05	0	0	0	
0.237167	-0.00926172	-0.000522523	0.000179815	3.49321E-05	0	0	0	
0.237333	0.00328692	0.00190955	0.000164883	2.79469E-05	0	0	0	
0.2375	0.00281067	-0.0010947	0.000153573	3.05271E-05	0	0	0	
0.237667	0.00992328	-0.00230496	0.000143705	2.72562E-05	0	0	0	
0.237833	-0.000275116	0.00309304	0.000121769	3.88E-05	0	0	0	
0.238	-0.00943204	-0.00216107	0.000117453	4.15859E-05	0	0	0	
0.238167	0.0030346	0.00122212	0.000134109	4.64733E-05	0	0	0	
0.238333	0.00787703	-0.000243161	0.000129263	4.20985E-05	0	0	0	
0.2385	0.00440516	0.000586187	0.000210017	4.49207E-05	0	0	0	
0.238667	-0.0151521	-0.00204917	0.000298586	5.31431E-05	0	0	0	
0.238833	0.00478087	0.00214701	0.000326444	5.88174E-05	0	0	0	
0.239	0.00508115	-0.00127192	0.00029495	5.51753E-05	0	0	0	
0.239167	-0.00701682	0.000580508	0.000197566	4.74612E-05	0	0	0	
0.239333	0.00334868	0.000241632	0.000209162	4.03768E-05	0	0	0	
0.2395	-0.00311318	0.000565708	0.000157209	3.8451E-05	0	0	0	
0.239667	0.00560947	-0.000478546	0.000172657	3.16364E-05	0	0	0	
0.239833	0.0043017	0.00266064	0.000213961	3.19015E-05	0	0	0	
0.24	-0.0160953	-0.00354522	0.000250571	3.8747E-05	0	0	0	
0.240167	-0.00451822	0.00206719	0.000276183	5.35528E-05	0	0	0	
0.240333	0.0307386	-0.000398953	0.000321197	5.43171E-05	0	0	0	
0.2405	-0.0173146	-0.000281898	0.000381541	4.36687E-05	0	0	0	
0.240667	-0.00146099	0.00299547	0.000392872	3.28198E-05	0	0	0	
0.240833	-0.00316454	-0.00269489	0.000260061	4.28144E-05	0	0	0	
0.241	0.00986058	0.00265925	0.000168967	4.98787E-05	0	0	0	
0.241167	-0.00547043	-0.00211096	0.000221807	5.79378E-05	0	0	0	
0.241333	-0.00778011	0.00168252	0.000338336	5.17005E-05	0	0	0	
0.2415	0.0123886	0.00020173	0.000342789	5.64342E-05	0	0	0	
0.241667	-0.0169752	-0.00303372	0.000292279	6.75548E-05	0	0	0	
0.241833	0.0135533	0.00245453	0.000280813	7.28315E-05	0	0	0	
0.242	-0.00327085	-0.00019733	0.000249276	5.87506E-05	0	0	0	
0.242167	-0.00190263	-0.000446013	0.00018594	3.50874E-05	0	0	0	
0.242333	0.00244755	-1.18156E-05	8.61782E-05	2.14556E-05	0	0	0	
0.2425	-0.00241784	7.85926E-05	0.000127054	1.89744E-05	0	0	0	
0.242667	-0.00750787	0.00158541	0.000265658	1.74538E-05	0	0	0	
0.242833	0.0197912	-0.00298254	0.000491055	2.94705E-05	0	0	0	
0.243	-0.0257733	0.00141588	0.000563698	5.75774E-05	0	0	0	
0.243167	0.0022081	0.000984652	0.000498559	7.82422E-05	0	0	0	
0.243333	0.00229777	-0.00156663	0.000292477	7.81936E-05	0	0	0	
0.2435	0.00010129	0.000155054	0.00027757	7.13687E-05	0	0	0	
0.243667	0.00143433	-0.00243823	0.000196892	7.12759E-05	0	0	0	
0.243833	-0.00311145	0.00184362	0.000170948	6.18589E-05	0	0	0	
0.244	-0.0142799	0.00390169	0.000141901	6.88395E-05	0	0	0	
0.244167	0.0122107	-0.00678791	0.000209214	8.7511E-05	0	0	0	
0.244333	0.00591682	0.00576906	0.000258435	0.000119461	0	0	0	
0.2445	0.00305041	-4.10428E-05	0.000255185	0.000161581	0	0	0	
0.244667	-0.0216763	-0.00357055	0.000287975	0.000171754	0	0	0	
0.244833	0.0190211	0.00283546	0.000326588	0.000148329	0	0	0	
0.245	-0.00876988	-0.00262249	0.000373137	8.93157E-05	0	0	0	
0.245167	0.00281506	0.00324857	0.000290358	5.68328E-05	0	0	0	
0.245333	-0.0100539	-0.000868716	0.000256491	6.56688E-05	0	0	0	
0.2455	0.0101543	-0.00434558	0.000198983	8.07863E-05	0	0	0	
0.245667	-0.00702958	0.0051005	0.000224666	8.98469E-05	0	0	0	
0.245833	0.00616331	-0.00144174	0.000198888	8.33977E-05	0	0	0	
0.246	-0.00259157	-0.000528618	0.00019865	6.36507E-05	0	0	0	
0.246167	0.00282602	0.000521012	0.000192239	3.65685E-05	0	0	0	
0.246333	0.00279231	-0.000141927	0.000169965	2.56427E-05	0	0	0	
0.2465	-0.00554918	0.00474695	0.000115004	3.94106E-05	0	0	0	
0.246667	-0.00808666	-0.00459936	0.000114078	6.55313E-05	0	0	0	
0.246833	0.0187075	0.00297253	0.000163006	8.76122E-05	0	0	0	
0.247	-0.00882372	-0.000398998	0.000255621	8.75784E-05	0	0	0	
0.247167	-0.00901268	0.00128211	0.000286535	7.46256E-05	0	0	0	
0.247333	-0.00912794	-0.00229249	0.000283344	6.62499E-05	0	0	0	
0.2475	0.0152642	0.00378725	0.000252452	6.93234E-05	0	0	0	
0.247667	-0.00261506	-0.0023303	0.0002624	7.02927E-05	0	0	0	
0.247833	-0.0197392	0.000841233	0.000439512	6.01774E-05	0	0	0	
0.248	0.0275282	0.000820385	0.000563402	4.45464E-05	0	0	0	
0.248167	-0.0138028	-0.00136385	0.000569568	3.69202E-05	0	0	0	
0.248333	-0.00287066	0.00102096	0.000470528	2.77661E-05	0	0	0	
0.2485	0.00750206	-0.00111577	0.000347875	3.06768E-05	0	0	0	
0.248667	0.0137129	0.00120688	0.000309552	4.32375E-05	0	0	0	
0.248833	-0.00857189	-0.000380611	0.000262201	5.20744E-05	0	0	0	
0.249	-0.0082106	0.00189106	0.000358891	5.01193E-05	0	0	0	
0.249167	0.0345874	-0.00132388	0.000472282	3.9028E-05	0	0	0	
0.249333	-0.0288572	0.00143165	0.000557104	3.3522E-05	0	0	0	
0.2495	0.000128255	-0.00315995	0.000475151	3.91374E-05	0	0	0	
0.249667	-0.00685604	0.00450152	0.000351555	6.28955E-05	0	0	0	
0.249833	-0.00854438	-0.00499537	0.000209439	9.09125E-05	0	0	0	
0.25	0.0350394	0.00408283	0.000230966	0.000101547	0	0	0	
0.250167	-0.0293663	-0.00262082	0.000429949	8.8642E-05	0	0	0	
0.250333	-0.0126819	0.00059399	0.000732908	6.25211E-05	0	0	0	
0.2505	0.016718	0.000662626	0.000921832	4.26176E-05	0	0	0	
0.250667	-0.00921999	-0.00304754	0.00081325	3.13359E-05	0	0	0	
0.250833	-0.00167696	0.00269455	0.00054086	4.62316E-05	0	0	0	
0.251	-0.000475066	4.80639E-05	0.000289418	9.29851E-05	0	0	0	
0.251167	-0.00130607	-0.00563244	0.000199213	0.000131464	0	0	0	
0.251333	-0.0079796	0.00406303	0.000213018	0.000134916	0	0	0	
0.2515	0.0148495	-0.00119092	0.000281622	0.000100347	0	0	0	
0.251667	-0.0100283	-0.000264123	0.000314208	7.05407E-05	0	0	0	
0.251833	0.00255891	0.00236853	0.000260876	5.81655E-05	0	0	0	
0.252	-0.00680829	-0.00607763	0.00016371	5.70962E-05	0	0	0	
0.252167	0.00302007	0.00389937	0.000124981	7.15059E-05	0	0	0	
0.252333	0.00378648	-6.05048E-05	0.000136995	8.5606E-05	0	0	0	
0.2525	-0.00650683	-0.00151305	0.000128502	8.18397E-05	0	0	0	
0.252667	-0.00614091	0.00122328	0.000153866	5.51467E-05	0	0	0	
0.252833	0.0189534	9.75757E-05	0.00018343	3.43726E-05	0	0	0	
0.253	-0.0122072	-0.000330677	0.000263048	3.15103E-05	0	0	0	
0.253167	-0.000268668	0.00200198	0.000281698	3.92977E-05	0	0	0	
0.253333	9.28897E-05	-0.00183799	0.000217459	4.17325E-05	0	0	0	
0.2535	0.0135135	0.000377216	0.000189763	3.69344E-05	0	0	0	
0.253667	-0.0148964	0.00067587	0.000177	2.59977E-05	0	0	0	
0.253833	0.000779392	1.23546E-05	0.000255857	1.71937E-05	0	0	0	
0.254	0.00693561	0.000455136	0.000215821	1.21467E-05	0	0	0	
0.254167	0.00254157	-0.000574031	0.000231419	1.97733E-05	0	0	0	
0.254333	-0.0133531	-0.00239579	0.000212183	4.12858E-05	0	0	0	
0.2545	0.00462605	0.00524455	0.000252555	6.66465E-05	0	0	0	
0.254667	0.00244015	-0.00341139	0.000216684	8.03846E-05	0	0	0	
0.254833	0.0181399	4.44805E-05	0.000304769	8.17255E-05	0	0	0	
0.255	-0.0198851	0.00443459	0.000348144	8.09896E-05	0	0	0	
0.255167	-0.00670185	-0.00688243	0.000414529	9.6127E-05	0	0	0	
0.255333	0.0146352	0.00728266	0.000322434	0.000114351	0	0	0	
0.2555	0.00745276	-0.00560503	0.000321694	0.000134638	0	0	0	
0.255667	-0.0090041	0.000616058	0.0003056	0.000135019	0	0	0	
0.255833	-0.00573611	0.0013443	0.000267751	0.000115584	0	0	0	
0.256	0.012918	0.000599506	0.000228288	6.99515E-05	0	0	0	
0.256167	-0.0201149	-0.00175191	0.000207785	3.61983E-05	0	0	0	
0.256333	0.0652264	0.0249792	0.000710058	6.84227E-05	0	0	0	
0.2565	-0.121612	0.00400186	0.00197735	0.000210589	0	0	0	
0.256667	-0.00404777	-0.00157383	0.00225837	0.000235168	0	0	0	
0.256833	0.00757066	0.0006332	0.00186841	0.000225235	0	0	0	
0.257	-0.00069906	-0.000141761	0.00054046	9.5152E-05	0	0	0	
0.257167	0.00369937	-0.00461994	0.000187065	7.48917E-05	0	0	0	
0.257333	-0.0102716	0.0133671	0.000209847	0.000122211	0	0	0	
0.2575	0.00358483	-0.00764932	0.0002422	0.000189347	0	0	0	
0.257667	-0.000656004	0.00169031	0.000290244	0.000238231	0	0	0	
0.257833	0.0189244	0.000930913	0.00029017	0.000190224	0	0	0	
0.258	-0.0222226	-0.00177922	0.000383209	0.000142711	0	0	0	
0.258167	-0.00202577	0.00308142	0.000381179	0.000113616	0	0	0	
0.258333	0.0044368	-0.00438806	0.00023888	0.000100516	0	0	0	
0.2585	0.00819308	0.0027789	0.000197574	8.96129E-05	0	0	0	
0.258667	-0.00657378	-0.000655246	0.000179285	7.26252E-05	0	0	0	
0.258833	-0.00104943	0.000152863	0.000190129	5.06451E-05	0	0	0	
0.259	-0.011659	-0.000809784	0.000199442	3.25063E-05	0	0	0	
0.259167	0.0224273	0.00150956	0.00028723	2.92075E-05	0	0	0	
0.259333	-0.00624971	-0.00308006	0.000331491	3.09518E-05	0	0	0	
0.2595	-0.0026589	0.00223127	0.000271681	4.43069E-05	0	0	0	
0.259667	-0.00467138	-3.33873E-05	0.000208838	4.18741E-05	0	0	0	
0.259833	0.0112245	-3.32133E-05	0.000201557	3.89191E-05	0	0	0	
0.26	-0.00372111	6.07332E-05	0.00019197	2.46883E-05	0	0	0	
0.260167	0.00469325	-0.00041496	0.000153912	2.04756E-05	0	0	0	
0.260333	-0.00646513	0.000162346	0.00018078	1.59088E-05	0	0	0	
0.2605	0.0105311	0.000729305	0.000240545	1.41024E-05	0	0	0	
0.260667	-0.0107197	-0.00134829	0.000287427	1.93386E-05	0	0	0	
0.260833	0.00681296	0.00129033	0.000264351	2.07697E-05	0	0	0	
0.261	-0.00988396	-0.000873641	0.000235451	2.48444E-05	0	0	0	
0.261167	0.0138752	0.00020792	0.000238903	2.08343E-05	0	0	0	
0.261333	-0.00483096	-0.000232685	0.000215095	1.7859E-05	0	0	0	
0.2615	-0.0103173	0.0010765	0.000173996	1.98209E-05	0	0	0	
0.261667	0.00256587	-0.00102859	0.000192298	2.89354E-05	0	0	0	
0.261833	0.0171622	-0.000305162	0.000292554	3.65464E-05	0	0	0	
0.262	0.00202409	0.00116603	0.000341148	3.26783E-05	0	0	0	
0.262167	-0.00673087	-0.00230555	0.000286219	3.11504E-05	0	0	0	
0.262333	-0.00784334	0.0012498	0.000254766	3.29423E-05	0	0	0	
0.2625	0.0108613	0.000503892	0.000325787	3.3024E-05	0	0	0	
0.262667	-0.0122639	-0.00187736	0.000335926	3.04724E-05	0	0	0	
0.262833	0.00323172	0.00242658	0.00026989	3.09091E-05	0	0	0	
0.263	-0.00483696	-0.000965253	0.000161002	4.52679E-05	0	0	0	
0.263167	-0.00292495	-0.00139359	0.000124226	6.23785E-05	0	0	0	
0.263333	-0.00464807	0.00258722	0.000108644	7.48873E-05	0	0	0	
0.2635	-0.00253711	-0.00147597	0.000101913	7.58749E-05	0	0	0	
0.263667	-0.00293928	-0.000302493	0.000103541	5.92356E-05	0	0	0	
0.263833	0.00570876	-8.66533E-05	0.00014787	4.07473E-05	0	0	0	
0.264	-0.014427	0.00041746	0.000197829	3.07342E-05	0	0	0	
0.264167	0.011206	-0.000669421	0.000269058	2.61884E-05	0	0	0	
0.264333	0.00529649	6.72443E-05	0.000253188	2.15463E-05	0	0	0	
0.2645	0.00145634	-0.000816001	0.000189737	1.97626E-05	0	0	0	
0.264667	-0.00888809	0.00106279	0.000139533	3.35811E-05	0	0	0	
0.264833	0.00827144	0.00131337	0.000147496	6.41643E-05	0	0	0	
0.265	-0.00397577	-0.00443685	0.000153206	9.1963E-05	0	0	0	
0.265167	0.00490914	0.00413753	0.000171572	0.000103959	0	0	0	
0.265333	-0.00909023	-0.00125338	0.000138163	8.6322E-05	0	0	0	
0.2655	0.0105918	-0.00151222	0.000165649	5.54256E-05	0	0	0	
0.265667	-0.00758334	0.00353238	0.000143359	4.07032E-05	0	0	0	
0.265833	0.00436699	-0.00427873	0.0001655	4.96514E-05	0	0	0	
0.266	0.000688983	0.00320926	0.000143945	6.72608E-05	0	0	0	
0.266167	0.00542451	-0.00176426	0.000147792	8.25859E-05	0	0	0	
0.266333	-0.00830769	0.000914373	0.000137285	9.11478E-05	0	0	0	
0.2665	0.00638207	-0.000260905	0.000159985	9.24224E-05	0	0	0	
0.266667	-0.0101551	-0.000559314	0.000161552	7.77988E-05	0	0	0	
0.266833	0.00823335	0.00103493	0.000181119	5.56064E-05	0	0	0	
0.267	0.00252002	-0.00220368	0.000159073	4.067E-05	0	0	0	
0.267167	0.00523244	0.00256446	0.000128594	3.89792E-05	0	0	0	
0.267333	-0.0123712	-0.000886907	0.000121552	3.82152E-05	0	0	0	
0.2675	0.00229208	-0.000447638	0.000135286	3.53508E-05	0	0	0	
0.267667	-0.00506668	0.00193287	0.000156599	3.04611E-05	0	0	0	
0.267833	0.0108892	-0.000661758	0.000161777	2.69684E-05	0	0	0	
0.268	-0.00228073	-0.00161521	0.000174638	3.01869E-05	0	0	0	
0.268167	0.000126826	0.00124973	0.000162975	2.96328E-05	0	0	0	
0.268333	-0.00258592	0.000901051	0.000178323	3.23868E-05	0	0	0	
0.2685	0.00996433	-0.00128234	0.000206678	3.64863E-05	0	0	0	
0.268667	-0.0156233	0.00134986	0.000238153	3.99782E-05	0	0	0	
0.268833	0.0118984	-0.000697072	0.000253724	4.18038E-05	0	0	0	
0.269	-0.0052628	0.000165511	0.000246663	2.84119E-05	0	0	0	
0.269167	0.00345062	0.000411018	0.000242952	2.31172E-05	0	0	0	
0.269333	0.00811118	0.00068087	0.000222745	1.64568E-05	0	0	0	
0.2695	0.00966692	-0.00060005	0.000190362	2.26838E-05	0	0	0	
0.269667	-0.0097662	0.00103168	0.000201652	1.8629E-05	0	0	0	
0.269833	0.000631506	-0.000247429	0.000192344	1.93272E-05	0	0	0	
0.27	-0.00463299	0.000641244	0.000214101	1.55399E-05	0	0	0	
0.270167	0.00987728	-0.000252631	0.000244333	1.46839E-05	0	0	0	
0.270333	0.000512327	0.000764103	0.000205131	1.1953E-05	0	0	0	
0.2705	0.0121476	-0.00180735	0.000214423	2.09874E-05	0	0	0	
0.270667	-0.00672226	0.00392503	0.000176891	3.15735E-05	0	0	0	
0.270833	0.00589439	-0.00368268	0.000213093	5.61623E-05	0	0	0	
0.271	-0.00529921	0.00133388	0.000207532	7.02232E-05	0	0	0	
0.271167	0.0151949	0.000175841	0.000250206	7.22243E-05	0	0	0	
0.271333	-0.00656976	-0.000685618	0.000254487	5.02701E-05	0	0	0	
0.2715	0.0127571	2.42822E-05	0.000269569	2.86032E-05	0	0	0	
0.271667	-0.00667256	0.000122891	0.000228491	1.82145E-05	0	0	0	
0.271833	0.0156389	-0.000153965	0.000256656	1.71518E-05	0	0	0	
0.272	-0.00825004	0.00111228	0.000236609	1.7396E-05	0	0	0	
0.272167	-0.00373506	-0.00221184	0.000207347	2.2624E-05	0	0	0	
0.272333	-0.00162027	0.00159188	0.000157841	3.02829E-05	0	0	0	
0.2725	0.010483	-0.00061418	0.00014864	3.1904E-05	0	0	0	
0.272667	-0.00265023	0.00033736	0.000153696	2.43749E-05	0	0	0	
0.272833	-6.63202E-05	-0.000900787	0.000131246	1.47736E-05	0	0	0	
0.273	-0.00581493	0.000397686	0.000192374	1.13108E-05	0	0	0	
0.273167	0.014337	0.000190868	0.000238953	1.01485E-05	0	0	0	
0.273333	0.00117733	-0.000708369	0.00025461	1.54411E-05	0	0	0	
0.2735	0.00483524	0.000214919	0.00019972	2.6028E-05	0	0	0	
0.273667	-0.0161484	-0.000561484	0.000230851	3.52435E-05	0	0	0	
0.273833	0.0138214	0.00102826	0.000274981	3.71305E-05	0	0	0	
0.274	0.00356291	-0.000946265	0.000261566	3.61603E-05	0	0	0	
0.274167	0.00643737	4.63575E-05	0.000181534	4.30429E-05	0	0	0	
0.274333	-0.0059661	0.000832579	0.000149033	5.19471E-05	0	0	0	
0.2745	-0.00835489	-0.000864983	0.000126108	5.22642E-05	0	0	0	
0.274667	0.001408	0.00045442	0.000165299	3.88072E-05	0	0	0	
0.274833	0.0142947	0.000317797	0.000277477	2.5459E-05	0	0	0	
0.275	-0.0253259	7.85911E-05	0.000379564	2.15477E-05	0	0	0	
0.275167	0.0140898	-0.000419106	0.000435801	2.48373E-05	0	0	0	
0.275333	-0.00886371	0.000619724	0.000331861	2.5999E-05	0	0	0	
0.2755	0.00890765	3.98678E-05	0.000270019	1.87141E-05	0	0	0	
0.275667	-0.0056186	-0.000181301	0.000183411	1.77543E-05	0	0	0	
0.275833	-0.00120702	-0.000649914	0.000141116	1.77919E-05	0	0	0	
0.276	-0.00826483	0.00169907	0.00011026	2.34052E-05	0	0	0	
0.276167	0.0154986	-0.000828376	0.000157567	2.35449E-05	0	0	0	
0.276333	-0.00853043	0.00150741	0.000225386	2.55869E-05	0	0	0	
0.2765	0.0073826	-0.0014448	0.000234881	2.57049E-05	0	0	0	
0.276667	-0.00121771	0.000438184	0.000179033	3.01186E-05	0	0	0	
0.276833	0.00909208	0.00343803	0.00015717	5.24264E-05	0	0	0	
0.277	-0.0139596	-0.00523702	0.000224002	8.30646E-05	0	0	0	
0.277167	0.015169	0.00384385	0.00027657	9.92761E-05	0	0	0	
0.277333	-0.0111542	-0.00118956	0.000299451	8.3456E-05	0	0	0	
0.2775	0.0114426	6.55661E-05	0.000264169	5.85583E-05	0	0	0	
0.277667	-0.0102764	0.00118514	0.00023838	4.12776E-05	0	0	0	
0.277833	0.00135087	-0.00119959	0.000199581	3.40589E-05	0	0	0	
0.278	-0.000279803	0.000385333	0.000155093	3.0555E-05	0	0	0	
0.278167	-0.00638057	0.000269231	0.000137365	3.87553E-05	0	0	0	
0.278333	0.0025311	-0.000805742	0.000106691	4.43448E-05	0	0	0	
0.2785	-0.00492337	0.0009869	0.000139631	4.10063E-05	0	0	0	
0.278667	-0.00116284	-0.000998723	0.000213991	2.87735E-05	0	0	0	
0.278833	-0.0070259	0.00163523	0.000311693	2.16258E-05	0	0	0	
0.279	-0.00986589	-0.0038155	0.000353479	3.14665E-05	0	0	0	
0.279167	-0.0040672	0.00418787	0.000274579	4.96809E-05	0	0	0	
0.279333	-0.010969	-0.00192699	0.000188799	6.64056E-05	0	0	0	
0.2795	0.00522378	0.000111087	0.000161272	7.63767E-05	0	0	0	
0.279667	-0.00638108	-0.000184096	0.000140456	6.9669E-05	0	0	0	
0.279833	-0.00814989	0.000226006	0.000178382	5.51009E-05	0	0	0	
0.28	-0.0184079	0.000265007	0.000237951	2.99793E-05	0	0	0	
0.280167	0.00766133	0.00164022	0.000322007	2.07832E-05	0	0	0	
0.280333	-0.00475033	-0.0028592	0.000283246	2.71936E-05	0	0	0	
0.2805	0.0086483	0.00395818	0.000199676	4.628E-05	0	0	0	
0.280667	-0.00622614	-0.003169	0.000146236	6.20126E-05	0	0	0	
0.280833	0.0106071	0.00262773	0.000174058	6.49357E-05	0	0	0	
0.281	-0.000348065	-0.00105116	0.000156037	5.86659E-05	0	0	0	
0.281167	-0.00108348	-0.000334183	0.000121762	4.19346E-05	0	0	0	
0.281333	-0.0131083	-0.000582046	0.000181293	2.80522E-05	0	0	0	
0.2815	0.0224886	0.0018479	0.000291661	2.46311E-05	0	0	0	
0.281667	-0.0132776	-0.00126742	0.000370409	2.55261E-05	0	0	0	
0.281833	0.00601254	0.000677823	0.000330042	2.67768E-05	0	0	0	
0.282	-0.00889626	-0.000612748	0.000232217	2.10972E-05	0	0	0	
0.282167	0.00782661	0.0001747	0.000193334	1.55321E-05	0	0	0	
0.282333	-0.00422467	-0.000336072	0.000154823	1.47357E-05	0	0	0	
0.2825	0.00749084	0.000200432	0.000168045	1.47772E-05	0	0	0	
0.282667	-0.0173858	-0.000774679	0.000195498	1.48342E-05	0	0	0	
0.282833	0.0119265	0.00144282	0.000248749	1.77356E-05	0	0	0	
0.283	-0.00630703	-0.0014437	0.000276922	2.13213E-05	0	0	0	
0.283167	0.00365331	0.00174432	0.000232861	2.92241E-05	0	0	0	
0.283333	-0.00744856	-0.00190644	0.000177069	3.53927E-05	0	0	0	
0.2835	0.00785888	0.00214036	0.00012161	3.77924E-05	0	0	0	
0.283667	-0.0108303	-0.0011065	0.000147825	3.91137E-05	0	0	0	
0.283833	0.010396	0.000766251	0.000173285	3.0816E-05	0	0	0	
0.284	-0.0169205	-0.000981708	0.000216833	2.87473E-05	0	0	0	
0.284167	0.0161489	0.000289385	0.000261302	2.38107E-05	0	0	0	
0.284333	-0.0153878	0.00138689	0.000292121	2.25105E-05	0	0	0	
0.2845	0.0057761	-0.00161628	0.000276053	2.30941E-05	0	0	0	
0.284667	-0.00364304	0.000686031	0.000215737	2.77982E-05	0	0	0	
0.284833	0.00633446	0.000176417	0.000175303	3.52861E-05	0	0	0	
0.285	-0.0159944	-0.000261266	0.000185982	3.26705E-05	0	0	0	
0.285167	0.0180773	-0.000781621	0.000267726	2.94998E-05	0	0	0	
0.285333	-0.0160534	-0.000165326	0.000335822	2.32667E-05	0	0	0	
0.2855	0.0154483	-0.000377981	0.000340449	3.50402E-05	0	0	0	
0.285667	-0.0065019	0.00386422	0.000306587	6.51749E-05	0	0	0	
0.285833	-0.00103141	-0.0048116	0.000206493	0.000102694	0	0	0	
0.286	-0.00899013	0.00345075	0.000197876	0.000109335	0	0	0	
0.286167	0.0191475	-0.00147692	0.000189393	8.46631E-05	0	0	0	
0.286333	-0.0114361	-7.44865E-05	0.000282746	4.67397E-05	0	0	0	
0.2865	0.00675138	0.000592297	0.000244722	3.02606E-05	0	0	0	
0.286667	-0.0100744	0.000766621	0.000222539	3.29085E-05	0	0	0	
0.286833	0.00154587	0.000529666	0.000148656	4.85316E-05	0	0	0	
0.287	-0.0043818	-0.00152521	0.000146314	6.41349E-05	0	0	0	
0.287167	0.00558609	-0.000389461	0.000145638	7.537E-05	0	0	0	
0.287333	-0.0161968	0.00190245	0.00019247	7.68026E-05	0	0	0	
0.2875	0.0180071	-0.0027618	0.000276988	6.59478E-05	0	0	0	
0.287667	-0.022928	0.00345144	0.000341291	5.76116E-05	0	0	0	
0.287833	0.012102	-0.00321682	0.000366752	5.78107E-05	0	0	0	
0.288	0.00227837	0.00157907	0.000352602	5.75774E-05	0	0	0	
0.288167	-0.00629091	0.000951293	0.00024982	4.82753E-05	0	0	0	
0.288333	0.00297276	-0.00270985	0.000223559	3.70402E-05	0	0	0	
0.2885	0.0080948	-0.00047423	0.000199211	4.14067E-05	0	0	0	
0.288667	-0.00147296	0.00396035	0.00023537	5.8766E-05	0	0	0	
0.288833	0.00771238	-0.00430049	0.000276447	7.66648E-05	0	0	0	
0.289	-0.0241193	0.00246424	0.000392409	7.82356E-05	0	0	0	
0.289167	0.0273752	0.000305652	0.000469789	5.73312E-05	0	0	0	
0.289333	-0.00125063	-0.000416658	0.000502712	3.17857E-05	0	0	0	
0.2895	-0.00803351	-0.000509317	0.000413779	1.4045E-05	0	0	0	
0.289667	-0.000832257	0.00115298	0.000344726	1.18739E-05	0	0	0	
0.289833	0.00464633	-0.00105566	0.000226675	1.75031E-05	0	0	0	
0.29	0.00846544	0.00116623	0.000209298	2.12558E-05	0	0	0	
0.290167	-0.00881902	-0.00159092	0.000169949	2.54199E-05	0	0	0	
0.290333	-0.0110909	0.00138468	0.000324894	2.48611E-05	0	0	0	
0.2905	0.0300796	-0.000664142	0.000411574	2.81137E-05	0	0	0	
0.290667	-0.0154299	-0.00022377	0.000499255	2.22398E-05	0	0	0	
0.290833	0.00413789	-8.43085E-06	0.000389197	1.66938E-05	0	0	0	
0.291	-0.00848055	-0.00105203	0.000236847	1.93543E-05	0	0	0	
0.291167	0.0186317	0.00151309	0.000225885	3.54265E-05	0	0	0	
0.291333	-0.00458461	-0.00187343	0.000199295	4.23023E-05	0	0	0	
0.2915	-0.00356533	0.00145231	0.000253132	4.5877E-05	0	0	0	
0.291667	0.00787834	0.000632394	0.000205574	4.14789E-05	0	0	0	
0.291833	0.00998661	-0.000346021	0.000298727	3.34089E-05	0	0	0	
0.292	-0.00908404	-0.000723489	0.000323391	2.57241E-05	0	0	0	
0.292167	0.00731049	0.000222221	0.000310545	1.7666E-05	0	0	0	
0.292333	-0.00797116	0.000297721	0.000244222	2.29527E-05	0	0	0	
0.2925	0.0274737	0.00101038	0.000287232	2.10101E-05	0	0	0	
0.292667	-0.0118371	-0.00172687	0.000374013	2.68952E-05	0	0	0	
0.292833	-0.00421172	-0.00183903	0.000369609	3.56189E-05	0	0	0	
0.293	-0.00348519	0.00268549	0.00024019	4.38469E-05	0	0	0	
0.293167	0.0177371	-0.000216928	0.000196279	4.80551E-05	0	0	0	
0.293333	-0.012262	-0.00182466	0.000208238	4.98145E-05	0	0	0	
0.2935	-0.00463214	0.0016123	0.000311833	4.24088E-05	0	0	0	
0.293667	0.00260832	-0.0014642	0.000268279	4.76139E-05	0	0	0	
0.293833	0.0127433	-0.000637129	0.000332805	5.54381E-05	0	0	0	
0.294	-0.022167	0.00280218	0.000318532	7.15361E-05	0	0	0	
0.294167	0.00512047	-0.00305017	0.000379314	6.7912E-05	0	0	0	
0.294333	-0.0117	0.0018451	0.000269248	5.77232E-05	0	0	0	
0.2945	0.0255258	0.000577756	0.000291269	5.33394E-05	0	0	0	
0.294667	-0.00819298	-0.00315273	0.000293367	4.65756E-05	0	0	0	
0.294833	-0.0050883	0.00283252	0.000292252	4.93163E-05	0	0	0	
0.295	-0.0129741	-0.0010366	0.000243985	5.42291E-05	0	0	0	
0.295167	0.0212924	-0.00171506	0.000249898	6.11446E-05	0	0	0	
0.295333	-0.00804109	0.00249944	0.000297398	5.82158E-05	0	0	0	
0.2955	0.000520464	-0.00198637	0.000279673	4.74949E-05	0	0	0	
0.295667	-0.00143176	0.00196851	0.000169711	4.16495E-05	0	0	0	
0.295833	-0.00279684	-0.00177759	8.52032E-05	4.15075E-05	0	0	0	
0.296	-0.0043996	2.73601E-05	4.70371E-05	3.49671E-05	0	0	0	
0.296167	0.0102168	0.000609434	0.000116367	2.72268E-05	0	0	0	
0.296333	-0.0163085	-0.000103994	0.000174149	1.28494E-05	0	0	0	
0.2965	0.00901047	0.000165888	0.000240411	1.32507E-05	0	0	0	
0.296667	-0.00279032	8.95059E-05	0.00023652	1.09922E-05	0	0	0	
0.296833	0.00532579	-0.000838211	0.000207785	1.87189E-05	0	0	0	
0.297	-0.00808024	0.000461096	0.000157104	2.1069E-05	0	0	0	
0.297167	-0.000270738	0.000243421	0.000127589	2.38727E-05	0	0	0	
0.297333	0.000873909	-0.000333169	0.000106553	1.94936E-05	0	0	0	
0.2975	0.0104772	-3.18387E-05	0.00016601	1.21964E-05	0	0	0	
0.297667	-0.0215457	-8.20777E-05	0.000221391	9.34381E-06	0	0	0	
0.297833	0.0146312	-0.00131972	0.000315173	1.70118E-05	0	0	0	
0.298	-0.00793382	0.00215694	0.00029782	2.92048E-05	0	0	0	
0.298167	0.00594047	-0.00259117	0.000261336	4.27132E-05	0	0	0	
0.298333	-0.00737326	0.000415649	0.000216437	4.08353E-05	0	0	0	
0.2985	0.0088469	0.000519075	0.000186219	3.51066E-05	0	0	0	
0.298667	-0.00875787	-0.000157315	0.000182234	2.61355E-05	0	0	0	
0.298833	0.00357414	-0.000539199	0.000172228	2.75709E-05	0	0	0	
0.299	-0.0119419	-0.000898548	0.000188331	3.30487E-05	0	0	0	
0.299167	0.0113934	0.0012719	0.000212588	3.39101E-05	0	0	0	
0.299333	-0.000586185	0.00024677	0.000186206	2.59668E-05	0	0	0	
0.2995	0.00110136	-0.00126739	0.000137758	1.78327E-05	0	0	0	
0.299667	-0.00521439	0.000558834	0.000108772	1.29527E-05	0	0	0	
0.299833	0.00202484	8.11554E-05	0.000126372	1.53399E-05	0	0	0	
0.3	-0.00474065	-9.21956E-05	0.000151109	1.65626E-05	0	0	0	
0.300167	0.0149688	-0.0005851	0.000179444	1.87675E-05	0	0	0	
0.300333	-0.0159667	0.00190151	0.000219029	2.19531E-05	0	0	0	
0.3005	0.0123674	-0.00321408	0.000266961	3.47137E-05	0	0	0	
0.300667	-0.00731197	0.00214713	0.000252884	4.91474E-05	0	0	0	
0.300833	0.00237528	-0.00207116	0.000203235	5.18172E-05	0	0	0	
0.301	-0.00912926	0.00160756	0.000150143	5.02801E-05	0	0	0	
0.301167	0.00810693	0.000367897	0.000140122	4.12502E-05	0	0	0	
0.301333	0.00389766	-0.00176178	0.000144547	3.76392E-05	0	0	0	
0.3015	-0.00303628	0.000516077	0.000131494	2.69678E-05	0	0	0	
0.301667	-0.0133456	-0.000748725	0.000212121	3.33935E-05	0	0	0	
0.301833	0.0242897	-0.000110656	0.000327503	4.51884E-05	0	0	0	
0.302	-0.0177545	0.00191137	0.00041042	5.07086E-05	0	0	0	
0.302167	0.00650773	-0.000863988	0.000353919	4.52049E-05	0	0	0	
0.302333	-0.0108872	-0.00134309	0.000256239	3.22061E-05	0	0	0	
0.3025	0.00308772	0.000405191	0.000222237	2.97034E-05	0	0	0	
0.302667	0.00631085	-0.00144497	0.000262557	2.6586E-05	0	0	0	
0.302833	-0.00992192	0.00233813	0.00025228	3.25576E-05	0	0	0	
0.303	-0.0149405	-0.00173084	0.000362176	3.52469E-05	0	0	0	
0.303167	0.0267237	0.000399037	0.000392254	3.4744E-05	0	0	0	
0.303333	-0.0188362	-0.00023433	0.000482734	2.54612E-05	0	0	0	
0.3035	0.00375458	0.00149005	0.000408981	1.92027E-05	0	0	0	
0.303667	-0.00296985	-0.00173098	0.000313958	2.26453E-05	0	0	0	
0.303833	-4.98748E-05	-0.000100165	0.000200866	2.54001E-05	0	0	0	
0.304	-0.00629371	0.000157991	0.000152197	2.05752E-05	0	0	0	
0.304167	0.0144339	0.00153599	0.000170763	1.3129E-05	0	0	0	
0.304333	-0.00464285	-0.000240279	0.000194309	1.29862E-05	0	0	0	
0.3045	-0.00301898	-0.0010083	0.000164536	2.11232E-05	0	0	0	
0.304667	-0.00633857	0.000440439	0.000167005	2.19702E-05	0	0	0	
0.304833	0.0159587	-0.000928081	0.000222209	2.17562E-05	0	0	0	
0.305	-0.00196486	0.000336537	0.000230498	2.03188E-05	0	0	0	
0.305167	-0.00594261	-0.00111051	0.000191475	2.37206E-05	0	0	0	
0.305333	-0.0095091	0.00226702	0.000191796	2.98674E-05	0	0	0	
0.3055	0.0233088	-0.000638825	0.000248751	3.71245E-05	0	0	0	
0.305667	-0.00428158	-0.00127097	0.000383737	3.71034E-05	0	0	0	
0.305833	-0.0142354	-0.00161236	0.000457995	5.08882E-05	0	0	0	
0.306	0.00715882	0.00324442	0.000411334	6.40595E-05	0	0	0	
0.306167	0.00865426	-0.00306613	0.000302632	7.57807E-05	0	0	0	
0.306333	-0.00263769	0.0026593	0.000158696	6.8185E-05	0	0	0	
0.3065	0.00101751	-0.00294705	0.000131849	5.79987E-05	0	0	0	
0.306667	-0.0196117	0.0018041	0.000163613	5.35417E-05	0	0	0	
0.306833	0.0297629	-0.000280166	0.000288573	4.41512E-05	0	0	0	
0.307	-0.0296855	0.000382512	0.000447165	3.64797E-05	0	0	0	
0.307167	0.0159502	-0.00137589	0.000504884	3.83335E-05	0	0	0	
0.307333	0.00300452	0.00237951	0.000483718	4.84998E-05	0	0	0	
0.3075	-0.00344244	-0.0022122	0.000309491	4.93467E-05	0	0	0	
0.307667	-0.0176021	0.0010361	0.000287808	4.35832E-05	0	0	0	
0.307833	0.0125934	0.000274391	0.00024082	3.71985E-05	0	0	0	
0.308	0.0106263	0.000293491	0.000307845	5.01082E-05	0	0	0	
0.308167	-0.00149033	-0.00173067	0.000289774	5.78003E-05	0	0	0	
0.308333	-0.025289	0.000946199	0.000395001	5.42429E-05	0	0	0	
0.3085	0.0171124	0.000269897	0.000435154	3.31436E-05	0	0	0	
0.308667	0.0106238	0.000293464	0.000437428	1.45721E-05	0	0	0	
0.308833	0.0099049	0.00052693	0.000309438	8.50287E-06	0	0	0	
0.309	-0.0243681	-0.00182241	0.000328698	1.20619E-05	0	0	0	
0.309167	0.00763665	0.0024318	0.000336707	2.80216E-05	0	0	0	
0.309333	0.0138034	-0.0012175	0.000400898	3.56869E-05	0	0	0	
0.3095	-0.00631159	-4.03726E-05	0.000357662	3.59758E-05	0	0	0	
0.309667	-0.0186248	0.00126576	0.000400778	2.75364E-05	0	0	0	
0.309833	0.0154342	-5.556E-05	0.0003443	2.81131E-05	0	0	0	
0.31	-0.00179483	-0.000963389	0.00033189	2.73219E-05	0	0	0	
0.310167	0.00586815	0.000440187	0.000203072	2.45946E-05	0	0	0	
0.310333	-0.0172662	-9.42681E-05	0.000204014	1.72021E-05	0	0	0	
0.3105	0.00178068	0.00164384	0.000229516	1.5756E-05	0	0	0	
0.310667	0.0159087	-0.00146702	0.000313191	1.96957E-05	0	0	0	
0.310833	-0.00331333	0.000418984	0.000339866	2.13438E-05	0	0	0	
0.311	-0.0225305	-0.000376783	0.000479637	1.81367E-05	0	0	0	
0.311167	0.0294246	0.00124891	0.000535323	1.3443E-05	0	0	0	
0.311333	-0.0147287	-0.000490237	0.000555887	1.9305E-05	0	0	0	
0.3115	0.0043487	-0.000411362	0.000397792	3.44707E-05	0	0	0	
0.311667	-0.00303855	0.000988162	0.000229314	3.80684E-05	0	0	0	
0.311833	0.00398264	-0.000331019	0.000160403	2.99736E-05	0	0	0	
0.312	0.0145592	-0.000391023	0.000119853	1.70673E-05	0	0	0	
0.312167	0.00334103	0.0014616	0.000260367	1.30257E-05	0	0	0	
0.312333	-0.0185092	-0.00219174	0.000366854	2.32268E-05	0	0	0	
0.3125	0.0118353	0.00250343	0.000416569	3.30416E-05	0	0	0	
0.312667	0.0111221	-0.00185809	0.000358687	4.50766E-05	0	0	0	
0.312833	0.00550831	0.00154735	0.000228143	5.13662E-05	0	0	0	
0.313	-0.0125571	-0.000943834	0.000200007	5.40029E-05	0	0	0	
0.313167	7.40462E-05	0.00137849	0.000175685	5.13157E-05	0	0	0	
0.313333	-0.00330199	-0.00093393	0.000157803	4.3105E-05	0	0	0	
0.3135	0.0147824	-1.28444E-05	0.000155174	2.91039E-05	0	0	0	
0.313667	-0.00245653	-0.000800663	0.000180459	1.67172E-05	0	0	0	
0.313833	-0.010521	0.00104155	0.000273728	1.0966E-05	0	0	0	
0.314	-0.0023095	-0.000901069	0.000271045	1.69916E-05	0	0	0	
0.314167	0.0123738	0.00119311	0.000279901	2.63139E-05	0	0	0	
0.314333	-0.00512432	-0.000547237	0.00021231	3.17328E-05	0	0	0	
0.3145	0.00576102	-0.00174351	0.000191114	3.05824E-05	0	0	0	
0.314667	-0.00931389	0.00107432	0.000147454	3.05714E-05	0	0	0	
0.314833	0.00962515	0.00069123	0.000153715	2.32463E-05	0	0	0	
0.315	-0.000206263	-0.00198292	0.000155989	2.55635E-05	0	0	0	
0.315167	-0.00122429	0.00174609	0.000116994	2.65382E-05	0	0	0	
0.315333	-0.00408515	-0.00116282	8.46529E-05	3.18205E-05	0	0	0	
0.3155	0.00585627	0.000611424	7.29176E-05	2.8482E-05	0	0	0	
0.315667	-0.000850986	-0.000655712	8.32467E-05	2.04081E-05	0	0	0	
0.315833	-0.00295082	0.000272302	7.57908E-05	1.63312E-05	0	0	0	
0.316	0.000606087	-0.000473104	6.60488E-05	1.39386E-05	0	0	0	
0.316167	0.00409701	0.000426064	7.86063E-05	1.7622E-05	0	0	0	
0.316333	-0.0124869	-0.000210669	0.000125977	2.42618E-05	0	0	0	
0.3165	0.0172432	0.000651108	0.000198706	3.32644E-05	0	0	0	
